Time,ECG1,ECG2
2021-08-19 02:33:36.000,0.01,-0.28
2021-08-19 02:33:36.000,0.005,-0.26
2021-08-19 02:33:36.000,0.01,-0.245
2021-08-19 02:33:36.000,0.0,-0.22
2021-08-19 02:33:36.000,-0.01,-0.215
2021-08-19 02:33:37.000,-0.01,-0.22
2021-08-19 02:33:37.000,0.0,-0.195
2021-08-19 02:33:37.000,-0.005,-0.19
2021-08-19 02:33:37.000,-0.025,-0.19
2021-08-19 02:33:38.000,-0.02,-0.185
2021-08-19 02:33:38.000,-0.02,-0.175
2021-08-19 02:33:38.000,-0.015,-0.18
2021-08-19 02:33:38.000,-0.015,-0.175
2021-08-19 02:33:39.000,-0.035,-0.17
2021-08-19 02:33:39.000,-0.025,-0.19
2021-08-19 02:33:39.000,-0.01,-0.19
2021-08-19 02:33:39.000,-0.01,-0.165
2021-08-19 02:33:40.000,-0.015,-0.175
2021-08-19 02:33:40.000,-0.01,-0.195
2021-08-19 02:33:40.000,0.0,-0.175
2021-08-19 02:33:40.000,0.0,-0.185
2021-08-19 02:33:41.000,-0.01,-0.2
2021-08-19 02:33:41.000,0.0,-0.205
2021-08-19 02:33:41.000,-0.005,-0.215
2021-08-19 02:33:41.000,-0.015,-0.195
2021-08-19 02:33:42.000,-0.01,-0.21
2021-08-19 02:33:42.000,-0.01,-0.205
2021-08-19 02:33:42.000,0.01,-0.215
2021-08-19 02:33:42.000,0.01,-0.205
2021-08-19 02:33:42.000,0.0,-0.19
2021-08-19 02:33:43.000,0.025,-0.21
2021-08-19 02:33:43.000,0.01,-0.22
2021-08-19 02:33:43.000,0.03,-0.22
2021-08-19 02:33:43.000,0.035,-0.215
2021-08-19 02:33:44.000,0.03,-0.23
2021-08-19 02:33:44.000,0.02,-0.225
2021-08-19 02:33:44.000,0.015,-0.21
2021-08-19 02:33:44.000,0.03,-0.21
2021-08-19 02:33:45.000,0.015,-0.2
2021-08-19 02:33:45.000,0.015,-0.205
2021-08-19 02:33:45.000,0.02,-0.195
2021-08-19 02:33:45.000,0.025,-0.19
2021-08-19 02:33:46.000,0.005,-0.2
2021-08-19 02:33:46.000,0.025,-0.21
2021-08-19 02:33:46.000,0.01,-0.2
2021-08-19 02:33:46.000,0.02,-0.2
2021-08-19 02:33:47.000,0.025,-0.205
2021-08-19 02:33:47.000,0.02,-0.205
2021-08-19 02:33:47.000,0.0,-0.205
2021-08-19 02:33:47.000,0.015,-0.19
2021-08-19 02:33:48.000,0.0,-0.205
2021-08-19 02:33:48.000,0.02,-0.22
2021-08-19 02:33:48.000,0.02,-0.21
2021-08-19 02:33:48.000,0.02,-0.21
2021-08-19 02:33:48.000,0.02,-0.22
2021-08-19 02:33:49.000,0.015,-0.21
2021-08-19 02:33:49.000,0.0,-0.21
2021-08-19 02:33:49.000,0.005,-0.235
2021-08-19 02:33:49.000,0.02,-0.2
2021-08-19 02:33:50.000,0.0,-0.2
2021-08-19 02:33:50.000,0.005,-0.215
2021-08-19 02:33:50.000,0.01,-0.2
2021-08-19 02:33:50.000,0.015,-0.2
2021-08-19 02:33:51.000,0.005,-0.21
2021-08-19 02:33:51.000,0.02,-0.2
2021-08-19 02:33:51.000,0.0,-0.235
2021-08-19 02:33:51.000,0.015,-0.225
2021-08-19 02:33:52.000,0.01,-0.21
2021-08-19 02:33:52.000,0.01,-0.23
2021-08-19 02:33:52.000,-0.01,-0.22
2021-08-19 02:33:52.000,0.0,-0.23
2021-08-19 02:33:53.000,0.0,-0.215
2021-08-19 02:33:53.000,0.0,-0.215
2021-08-19 02:33:53.000,0.0,-0.22
2021-08-19 02:33:53.000,0.0,-0.22
2021-08-19 02:33:54.000,0.0,-0.21
2021-08-19 02:33:54.000,0.0,-0.2
2021-08-19 02:33:54.000,-0.005,-0.2
2021-08-19 02:33:54.000,0.01,-0.21
2021-08-19 02:33:54.000,0.0,-0.205
2021-08-19 02:33:55.000,-0.01,-0.21
2021-08-19 02:33:55.000,0.0,-0.205
2021-08-19 02:33:55.000,0.015,-0.22
2021-08-19 02:33:55.000,0.0,-0.205
2021-08-19 02:33:56.000,0.015,-0.215
2021-08-19 02:33:56.000,0.01,-0.21
2021-08-19 02:33:56.000,0.0,-0.205
2021-08-19 02:33:56.000,0.01,-0.19
2021-08-19 02:33:57.000,0.02,-0.21
2021-08-19 02:33:57.000,0.015,-0.22
2021-08-19 02:33:57.000,0.03,-0.21
2021-08-19 02:33:57.000,0.02,-0.18
2021-08-19 02:33:58.000,0.0,-0.19
2021-08-19 02:33:58.000,0.015,-0.155
2021-08-19 02:33:58.000,0.01,-0.125
2021-08-19 02:33:58.000,0.025,-0.08
2021-08-19 02:33:59.000,0.015,-0.045
2021-08-19 02:33:59.000,0.02,-0.02
2021-08-19 02:33:59.000,0.04,-0.01
2021-08-19 02:33:59.000,0.04,-0.01
2021-08-19 02:34:00.000,0.055,-0.005
2021-08-19 02:34:00.000,0.075,-0.005
2021-08-19 02:34:00.000,0.095,-0.015
2021-08-19 02:34:00.000,0.12,-0.015
2021-08-19 02:34:00.000,0.11,0.0
2021-08-19 02:34:01.000,0.14,0.01
2021-08-19 02:34:01.000,0.14,0.0
2021-08-19 02:34:01.000,0.125,-0.005
2021-08-19 02:34:01.000,0.085,-0.01
2021-08-19 02:34:02.000,0.09,-0.02
2021-08-19 02:34:02.000,0.055,-0.065
2021-08-19 02:34:02.000,0.025,-0.11
2021-08-19 02:34:02.000,0.03,-0.145
2021-08-19 02:34:03.000,0.015,-0.14
2021-08-19 02:34:03.000,0.0,-0.14
2021-08-19 02:34:03.000,-0.025,-0.125
2021-08-19 02:34:03.000,-0.025,-0.1
2021-08-19 02:34:04.000,-0.025,-0.1
2021-08-19 02:34:04.000,-0.035,-0.105
2021-08-19 02:34:04.000,-0.02,-0.12
2021-08-19 02:34:04.000,-0.04,-0.125
2021-08-19 02:34:05.000,0.0,-0.13
2021-08-19 02:34:05.000,-0.005,-0.14
2021-08-19 02:34:05.000,0.005,-0.16
2021-08-19 02:34:05.000,0.0,-0.175
2021-08-19 02:34:06.000,0.01,-0.19
2021-08-19 02:34:06.000,0.01,-0.215
2021-08-19 02:34:06.000,0.025,-0.215
2021-08-19 02:34:06.000,0.045,-0.195
2021-08-19 02:34:06.000,0.075,-0.19
2021-08-19 02:34:07.000,0.09,-0.2
2021-08-19 02:34:07.000,0.06,-0.185
2021-08-19 02:34:07.000,0.065,-0.18
2021-08-19 02:34:07.000,0.06,-0.18
2021-08-19 02:34:08.000,0.06,-0.175
2021-08-19 02:34:08.000,0.065,-0.18
2021-08-19 02:34:08.000,0.08,-0.17
2021-08-19 02:34:08.000,0.09,-0.17
2021-08-19 02:34:09.000,0.065,-0.165
2021-08-19 02:34:09.000,0.07,-0.155
2021-08-19 02:34:09.000,0.065,-0.165
2021-08-19 02:34:09.000,0.06,-0.155
2021-08-19 02:34:10.000,0.07,-0.15
2021-08-19 02:34:10.000,0.07,-0.115
2021-08-19 02:34:10.000,0.065,-0.08
2021-08-19 02:34:10.000,0.075,-0.03
2021-08-19 02:34:11.000,0.05,-0.015
2021-08-19 02:34:11.000,0.045,0.075
2021-08-19 02:34:11.000,0.07,0.295
2021-08-19 02:34:11.000,0.07,0.585
2021-08-19 02:34:12.000,0.11,0.845
2021-08-19 02:34:12.000,0.14,1.025
2021-08-19 02:34:12.000,0.12,1.115
2021-08-19 02:34:12.000,0.08,1.145
2021-08-19 02:34:12.000,0.035,1.015
2021-08-19 02:34:13.000,0.0,0.77
2021-08-19 02:34:13.000,-0.075,0.365
2021-08-19 02:34:13.000,-0.315,0.09
2021-08-19 02:34:13.000,-0.595,0.11
2021-08-19 02:34:14.000,-0.945,0.29
2021-08-19 02:34:14.000,-1.22,0.305
2021-08-19 02:34:14.000,-1.38,0.08
2021-08-19 02:34:14.000,-1.42,-0.205
2021-08-19 02:34:15.000,-1.285,-0.43
2021-08-19 02:34:15.000,-0.92,-0.54
2021-08-19 02:34:15.000,-0.48,-0.57
2021-08-19 02:34:15.000,-0.155,-0.51
2021-08-19 02:34:16.000,-0.025,-0.395
2021-08-19 02:34:16.000,-0.02,-0.32
2021-08-19 02:34:16.000,-0.05,-0.275
2021-08-19 02:34:16.000,-0.065,-0.28
2021-08-19 02:34:17.000,-0.075,-0.275
2021-08-19 02:34:17.000,-0.015,-0.29
2021-08-19 02:34:17.000,0.01,-0.29
2021-08-19 02:34:17.000,0.085,-0.275
2021-08-19 02:34:18.000,0.13,-0.29
2021-08-19 02:34:18.000,0.155,-0.285
2021-08-19 02:34:18.000,0.15,-0.275
2021-08-19 02:34:18.000,0.16,-0.285
2021-08-19 02:34:18.000,0.17,-0.25
2021-08-19 02:34:19.000,0.18,-0.265
2021-08-19 02:34:19.000,0.185,-0.275
2021-08-19 02:34:19.000,0.185,-0.265
2021-08-19 02:34:19.000,0.19,-0.24
2021-08-19 02:34:20.000,0.18,-0.265
2021-08-19 02:34:20.000,0.22,-0.265
2021-08-19 02:34:20.000,0.2,-0.265
2021-08-19 02:34:20.000,0.205,-0.24
2021-08-19 02:34:21.000,0.225,-0.245
2021-08-19 02:34:21.000,0.205,-0.255
2021-08-19 02:34:21.000,0.205,-0.255
2021-08-19 02:34:21.000,0.185,-0.255
2021-08-19 02:34:22.000,0.21,-0.25
2021-08-19 02:34:22.000,0.2,-0.25
2021-08-19 02:34:22.000,0.205,-0.255
2021-08-19 02:34:22.000,0.21,-0.24
2021-08-19 02:34:23.000,0.195,-0.25
2021-08-19 02:34:23.000,0.19,-0.27
2021-08-19 02:34:23.000,0.21,-0.265
2021-08-19 02:34:23.000,0.215,-0.255
2021-08-19 02:34:24.000,0.215,-0.265
2021-08-19 02:34:24.000,0.21,-0.27
2021-08-19 02:34:24.000,0.19,-0.29
2021-08-19 02:34:24.000,0.205,-0.27
2021-08-19 02:34:24.000,0.195,-0.29
2021-08-19 02:34:25.000,0.215,-0.28
2021-08-19 02:34:25.000,0.2,-0.295
2021-08-19 02:34:25.000,0.195,-0.29
2021-08-19 02:34:25.000,0.195,-0.29
2021-08-19 02:34:26.000,0.195,-0.29
2021-08-19 02:34:26.000,0.2,-0.29
2021-08-19 02:34:26.000,0.19,-0.295
2021-08-19 02:34:26.000,0.195,-0.295
2021-08-19 02:34:27.000,0.185,-0.28
2021-08-19 02:34:27.000,0.175,-0.265
2021-08-19 02:34:27.000,0.18,-0.27
2021-08-19 02:34:27.000,0.18,-0.25
2021-08-19 02:34:28.000,0.18,-0.255
2021-08-19 02:34:28.000,0.175,-0.24
2021-08-19 02:34:28.000,0.18,-0.215
2021-08-19 02:34:28.000,0.15,-0.22
2021-08-19 02:34:29.000,0.155,-0.18
2021-08-19 02:34:29.000,0.155,-0.155
2021-08-19 02:34:29.000,0.155,-0.15
2021-08-19 02:34:29.000,0.15,-0.125
2021-08-19 02:34:30.000,0.125,-0.125
2021-08-19 02:34:30.000,0.115,-0.09
2021-08-19 02:34:30.000,0.095,-0.115
2021-08-19 02:34:30.000,0.125,-0.085
2021-08-19 02:34:30.000,0.115,-0.085
2021-08-19 02:34:31.000,0.095,-0.095
2021-08-19 02:34:31.000,0.1,-0.085
2021-08-19 02:34:31.000,0.095,-0.085
2021-08-19 02:34:31.000,0.085,-0.08
2021-08-19 02:34:32.000,0.09,-0.09
2021-08-19 02:34:32.000,0.09,-0.07
2021-08-19 02:34:32.000,0.09,-0.08
2021-08-19 02:34:32.000,0.095,-0.08
2021-08-19 02:34:33.000,0.115,-0.085
2021-08-19 02:34:33.000,0.11,-0.08
2021-08-19 02:34:33.000,0.08,-0.09
2021-08-19 02:34:33.000,0.1,-0.09
2021-08-19 02:34:34.000,0.095,-0.095
2021-08-19 02:34:34.000,0.1,-0.09
2021-08-19 02:34:34.000,0.085,-0.105
2021-08-19 02:34:34.000,0.1,-0.115
2021-08-19 02:34:35.000,0.09,-0.125
2021-08-19 02:34:35.000,0.085,-0.13
2021-08-19 02:34:35.000,0.085,-0.11
2021-08-19 02:34:35.000,0.09,-0.135
2021-08-19 02:34:36.000,0.11,-0.135
2021-08-19 02:34:36.000,0.095,-0.13
2021-08-19 02:34:36.000,0.08,-0.145
2021-08-19 02:34:36.000,0.095,-0.14
2021-08-19 02:34:36.000,0.075,-0.15
2021-08-19 02:34:37.000,0.07,-0.14
2021-08-19 02:34:37.000,0.085,-0.135
2021-08-19 02:34:37.000,0.09,-0.14
2021-08-19 02:34:37.000,0.09,-0.14
2021-08-19 02:34:38.000,0.095,-0.155
2021-08-19 02:34:38.000,0.095,-0.15
2021-08-19 02:34:38.000,0.1,-0.14
2021-08-19 02:34:38.000,0.095,-0.13
2021-08-19 02:34:39.000,0.09,-0.155
2021-08-19 02:34:39.000,0.11,-0.135
2021-08-19 02:34:39.000,0.095,-0.14
2021-08-19 02:34:39.000,0.085,-0.16
2021-08-19 02:34:40.000,0.115,-0.145
2021-08-19 02:34:40.000,0.105,-0.145
2021-08-19 02:34:40.000,0.09,-0.15
2021-08-19 02:34:40.000,0.09,-0.15
2021-08-19 02:34:41.000,0.08,-0.165
2021-08-19 02:34:41.000,0.085,-0.16
2021-08-19 02:34:41.000,0.085,-0.17
2021-08-19 02:34:41.000,0.085,-0.155
2021-08-19 02:34:42.000,0.115,-0.155
2021-08-19 02:34:42.000,0.08,-0.13
2021-08-19 02:34:42.000,0.085,-0.125
2021-08-19 02:34:42.000,0.085,-0.15
2021-08-19 02:34:42.000,0.1,-0.15
2021-08-19 02:34:43.000,0.085,-0.145
2021-08-19 02:34:43.000,0.075,-0.16
2021-08-19 02:34:43.000,0.075,-0.16
2021-08-19 02:34:43.000,0.08,-0.165
2021-08-19 02:34:44.000,0.075,-0.165
2021-08-19 02:34:44.000,0.095,-0.165
2021-08-19 02:34:44.000,0.06,-0.15
2021-08-19 02:34:44.000,0.065,-0.13
2021-08-19 02:34:45.000,0.06,-0.145
2021-08-19 02:34:45.000,0.075,-0.155
2021-08-19 02:34:45.000,0.065,-0.155
2021-08-19 02:34:45.000,0.06,-0.15
2021-08-19 02:34:46.000,0.06,-0.155
2021-08-19 02:34:46.000,0.05,-0.145
2021-08-19 02:34:46.000,0.055,-0.14
2021-08-19 02:34:46.000,0.05,-0.165
2021-08-19 02:34:47.000,0.065,-0.135
2021-08-19 02:34:47.000,0.075,-0.145
2021-08-19 02:34:47.000,0.075,-0.155
2021-08-19 02:34:47.000,0.065,-0.14
2021-08-19 02:34:48.000,0.075,-0.145
2021-08-19 02:34:48.000,0.085,-0.14
2021-08-19 02:34:48.000,0.065,-0.15
2021-08-19 02:34:48.000,0.09,-0.15
2021-08-19 02:34:48.000,0.08,-0.135
2021-08-19 02:34:49.000,0.07,-0.13
2021-08-19 02:34:49.000,0.065,-0.14
2021-08-19 02:34:49.000,0.065,-0.145
2021-08-19 02:34:49.000,0.08,-0.13
2021-08-19 02:34:50.000,0.055,-0.155
2021-08-19 02:34:50.000,0.08,-0.15
2021-08-19 02:34:50.000,0.06,-0.14
2021-08-19 02:34:50.000,0.075,-0.13
2021-08-19 02:34:51.000,0.07,-0.125
2021-08-19 02:34:51.000,0.06,-0.15
2021-08-19 02:34:51.000,0.055,-0.155
2021-08-19 02:34:51.000,0.08,-0.145
2021-08-19 02:34:52.000,0.07,-0.145
2021-08-19 02:34:52.000,0.055,-0.135
2021-08-19 02:34:52.000,0.065,-0.12
2021-08-19 02:34:52.000,0.07,-0.08
2021-08-19 02:34:53.000,0.07,-0.05
2021-08-19 02:34:53.000,0.065,-0.015
2021-08-19 02:34:53.000,0.065,0.0
2021-08-19 02:34:53.000,0.06,0.02
2021-08-19 02:34:54.000,0.085,0.04
2021-08-19 02:34:54.000,0.115,0.045
2021-08-19 02:34:54.000,0.125,0.05
2021-08-19 02:34:54.000,0.15,0.005
2021-08-19 02:34:54.000,0.175,0.03
2021-08-19 02:34:55.000,0.19,0.025
2021-08-19 02:34:55.000,0.18,0.025
2021-08-19 02:34:55.000,0.175,0.045
2021-08-19 02:34:55.000,0.165,0.045
2021-08-19 02:34:56.000,0.145,0.025
2021-08-19 02:34:56.000,0.115,0.005
2021-08-19 02:34:56.000,0.13,-0.05
2021-08-19 02:34:56.000,0.115,-0.085
2021-08-19 02:34:57.000,0.075,-0.08
2021-08-19 02:34:57.000,0.06,-0.095
2021-08-19 02:34:57.000,0.045,-0.065
2021-08-19 02:34:57.000,0.02,-0.06
2021-08-19 02:34:58.000,-0.005,-0.05
2021-08-19 02:34:58.000,0.0,-0.05
2021-08-19 02:34:58.000,0.015,-0.08
2021-08-19 02:34:58.000,0.0,-0.085
2021-08-19 02:34:59.000,0.005,-0.095
2021-08-19 02:34:59.000,0.03,-0.095
2021-08-19 02:34:59.000,0.05,-0.1
2021-08-19 02:34:59.000,0.03,-0.15
2021-08-19 02:35:00.000,0.04,-0.15
2021-08-19 02:35:00.000,0.045,-0.17
2021-08-19 02:35:00.000,0.065,-0.155
2021-08-19 02:35:00.000,0.09,-0.15
2021-08-19 02:35:00.000,0.095,-0.15
2021-08-19 02:35:01.000,0.1,-0.155
2021-08-19 02:35:01.000,0.11,-0.14
2021-08-19 02:35:01.000,0.1,-0.135
2021-08-19 02:35:01.000,0.07,-0.145
2021-08-19 02:35:02.000,0.09,-0.135
2021-08-19 02:35:02.000,0.07,-0.13
2021-08-19 02:35:02.000,0.09,-0.12
2021-08-19 02:35:02.000,0.085,-0.125
2021-08-19 02:35:03.000,0.09,-0.115
2021-08-19 02:35:03.000,0.075,-0.12
2021-08-19 02:35:03.000,0.075,-0.105
2021-08-19 02:35:03.000,0.09,-0.085
2021-08-19 02:35:04.000,0.085,-0.045
2021-08-19 02:35:04.000,0.08,-0.025
2021-08-19 02:35:04.000,0.08,0.005
2021-08-19 02:35:04.000,0.075,0.035
2021-08-19 02:35:05.000,0.075,0.19
2021-08-19 02:35:05.000,0.085,0.43
2021-08-19 02:35:05.000,0.105,0.715
2021-08-19 02:35:05.000,0.145,0.87
2021-08-19 02:35:06.000,0.155,0.99
2021-08-19 02:35:06.000,0.11,1.015
2021-08-19 02:35:06.000,0.065,0.955
2021-08-19 02:35:06.000,0.02,0.785
2021-08-19 02:35:06.000,-0.045,0.46
2021-08-19 02:35:07.000,-0.205,0.13
2021-08-19 02:35:07.000,-0.455,0.11
2021-08-19 02:35:07.000,-0.815,0.26
2021-08-19 02:35:07.000,-1.145,0.365
2021-08-19 02:35:08.000,-1.355,0.17
2021-08-19 02:35:08.000,-1.43,-0.11
2021-08-19 02:35:08.000,-1.38,-0.36
2021-08-19 02:35:08.000,-1.055,-0.48
2021-08-19 02:35:09.000,-0.595,-0.515
2021-08-19 02:35:09.000,-0.2,-0.45
2021-08-19 02:35:09.000,-0.005,-0.33
2021-08-19 02:35:09.000,0.01,-0.25
2021-08-19 02:35:10.000,0.005,-0.22
2021-08-19 02:35:10.000,-0.025,-0.21
2021-08-19 02:35:10.000,-0.02,-0.22
2021-08-19 02:35:10.000,0.0,-0.225
2021-08-19 02:35:11.000,0.05,-0.22
2021-08-19 02:35:11.000,0.115,-0.24
2021-08-19 02:35:11.000,0.16,-0.24
2021-08-19 02:35:11.000,0.175,-0.235
2021-08-19 02:35:12.000,0.2,-0.22
2021-08-19 02:35:12.000,0.19,-0.22
2021-08-19 02:35:12.000,0.215,-0.235
2021-08-19 02:35:12.000,0.215,-0.225
2021-08-19 02:35:12.000,0.21,-0.215
2021-08-19 02:35:13.000,0.235,-0.235
2021-08-19 02:35:13.000,0.2,-0.23
2021-08-19 02:35:13.000,0.22,-0.195
2021-08-19 02:35:13.000,0.215,-0.2
2021-08-19 02:35:14.000,0.22,-0.21
2021-08-19 02:35:14.000,0.23,-0.19
2021-08-19 02:35:14.000,0.24,-0.195
2021-08-19 02:35:14.000,0.23,-0.21
2021-08-19 02:35:15.000,0.25,-0.19
2021-08-19 02:35:15.000,0.225,-0.21
2021-08-19 02:35:15.000,0.215,-0.195
2021-08-19 02:35:15.000,0.235,-0.205
2021-08-19 02:35:16.000,0.215,-0.215
2021-08-19 02:35:16.000,0.245,-0.21
2021-08-19 02:35:16.000,0.235,-0.225
2021-08-19 02:35:16.000,0.21,-0.235
2021-08-19 02:35:17.000,0.235,-0.23
2021-08-19 02:35:17.000,0.255,-0.215
2021-08-19 02:35:17.000,0.245,-0.23
2021-08-19 02:35:17.000,0.23,-0.25
2021-08-19 02:35:18.000,0.235,-0.24
2021-08-19 02:35:18.000,0.22,-0.235
2021-08-19 02:35:18.000,0.22,-0.24
2021-08-19 02:35:18.000,0.23,-0.25
2021-08-19 02:35:18.000,0.215,-0.25
2021-08-19 02:35:19.000,0.21,-0.24
2021-08-19 02:35:19.000,0.205,-0.25
2021-08-19 02:35:19.000,0.22,-0.235
2021-08-19 02:35:19.000,0.225,-0.23
2021-08-19 02:35:20.000,0.21,-0.26
2021-08-19 02:35:20.000,0.19,-0.225
2021-08-19 02:35:20.000,0.195,-0.22
2021-08-19 02:35:20.000,0.205,-0.23
2021-08-19 02:35:21.000,0.22,-0.235
2021-08-19 02:35:21.000,0.185,-0.22
2021-08-19 02:35:21.000,0.2,-0.185
2021-08-19 02:35:21.000,0.195,-0.18
2021-08-19 02:35:22.000,0.195,-0.175
2021-08-19 02:35:22.000,0.17,-0.16
2021-08-19 02:35:22.000,0.195,-0.13
2021-08-19 02:35:22.000,0.18,-0.115
2021-08-19 02:35:23.000,0.165,-0.095
2021-08-19 02:35:23.000,0.165,-0.08
2021-08-19 02:35:23.000,0.145,-0.055
2021-08-19 02:35:23.000,0.14,-0.065
2021-08-19 02:35:24.000,0.12,-0.065
2021-08-19 02:35:24.000,0.12,-0.035
2021-08-19 02:35:24.000,0.12,-0.02
2021-08-19 02:35:24.000,0.1,-0.035
2021-08-19 02:35:24.000,0.09,-0.025
2021-08-19 02:35:25.000,0.11,-0.03
2021-08-19 02:35:25.000,0.095,-0.045
2021-08-19 02:35:25.000,0.105,-0.02
2021-08-19 02:35:25.000,0.085,-0.03
2021-08-19 02:35:26.000,0.095,-0.035
2021-08-19 02:35:26.000,0.09,-0.045
2021-08-19 02:35:26.000,0.07,-0.055
2021-08-19 02:35:26.000,0.075,-0.05
2021-08-19 02:35:27.000,0.075,-0.05
2021-08-19 02:35:27.000,0.09,-0.065
2021-08-19 02:35:27.000,0.11,-0.055
2021-08-19 02:35:27.000,0.11,-0.08
2021-08-19 02:35:28.000,0.1,-0.085
2021-08-19 02:35:28.000,0.09,-0.075
2021-08-19 02:35:28.000,0.085,-0.075
2021-08-19 02:35:28.000,0.07,-0.065
2021-08-19 02:35:29.000,0.085,-0.065
2021-08-19 02:35:29.000,0.095,-0.065
2021-08-19 02:35:29.000,0.085,-0.065
2021-08-19 02:35:29.000,0.09,-0.09
2021-08-19 02:35:30.000,0.09,-0.08
2021-08-19 02:35:30.000,0.105,-0.085
2021-08-19 02:35:30.000,0.105,-0.09
2021-08-19 02:35:30.000,0.105,-0.1
2021-08-19 02:35:30.000,0.115,-0.095
2021-08-19 02:35:31.000,0.085,-0.08
2021-08-19 02:35:31.000,0.12,-0.085
2021-08-19 02:35:31.000,0.115,-0.1
2021-08-19 02:35:31.000,0.11,-0.09
2021-08-19 02:35:32.000,0.11,-0.115
2021-08-19 02:35:32.000,0.095,-0.11
2021-08-19 02:35:32.000,0.105,-0.095
2021-08-19 02:35:32.000,0.085,-0.115
2021-08-19 02:35:33.000,0.095,-0.09
2021-08-19 02:35:33.000,0.105,-0.1
2021-08-19 02:35:33.000,0.095,-0.1
2021-08-19 02:35:33.000,0.085,-0.1
2021-08-19 02:35:34.000,0.11,-0.11
2021-08-19 02:35:34.000,0.085,-0.1
2021-08-19 02:35:34.000,0.08,-0.095
2021-08-19 02:35:34.000,0.075,-0.105
2021-08-19 02:35:35.000,0.05,-0.1
2021-08-19 02:35:35.000,0.075,-0.095
2021-08-19 02:35:35.000,0.08,-0.1
2021-08-19 02:35:35.000,0.06,-0.125
2021-08-19 02:35:36.000,0.065,-0.125
2021-08-19 02:35:36.000,0.065,-0.1
2021-08-19 02:35:36.000,0.05,-0.115
2021-08-19 02:35:36.000,0.06,-0.125
2021-08-19 02:35:36.000,0.055,-0.115
2021-08-19 02:35:37.000,0.06,-0.13
2021-08-19 02:35:37.000,0.05,-0.12
2021-08-19 02:35:37.000,0.04,-0.125
2021-08-19 02:35:37.000,0.035,-0.115
2021-08-19 02:35:38.000,0.04,-0.13
2021-08-19 02:35:38.000,0.045,-0.12
2021-08-19 02:35:38.000,0.05,-0.12
2021-08-19 02:35:38.000,0.035,-0.12
2021-08-19 02:35:39.000,0.01,-0.12
2021-08-19 02:35:39.000,0.035,-0.135
2021-08-19 02:35:39.000,0.025,-0.13
2021-08-19 02:35:39.000,0.04,-0.125
2021-08-19 02:35:40.000,0.025,-0.11
2021-08-19 02:35:40.000,0.04,-0.115
2021-08-19 02:35:40.000,0.04,-0.125
2021-08-19 02:35:40.000,0.03,-0.135
2021-08-19 02:35:41.000,0.045,-0.14
2021-08-19 02:35:41.000,0.025,-0.13
2021-08-19 02:35:41.000,0.015,-0.14
2021-08-19 02:35:41.000,0.005,-0.13
2021-08-19 02:35:42.000,0.03,-0.14
2021-08-19 02:35:42.000,0.025,-0.13
2021-08-19 02:35:42.000,0.02,-0.135
2021-08-19 02:35:42.000,0.035,-0.145
2021-08-19 02:35:42.000,0.025,-0.125
2021-08-19 02:35:43.000,0.04,-0.13
2021-08-19 02:35:43.000,0.03,-0.13
2021-08-19 02:35:43.000,0.035,-0.12
2021-08-19 02:35:43.000,0.035,-0.14
2021-08-19 02:35:44.000,0.025,-0.14
2021-08-19 02:35:44.000,0.01,-0.13
2021-08-19 02:35:44.000,0.01,-0.115
2021-08-19 02:35:44.000,0.015,-0.12
2021-08-19 02:35:45.000,0.015,-0.14
2021-08-19 02:35:45.000,0.02,-0.115
2021-08-19 02:35:45.000,0.01,-0.08
2021-08-19 02:35:45.000,0.01,-0.075
2021-08-19 02:35:46.000,0.015,-0.035
2021-08-19 02:35:46.000,0.005,0.0
2021-08-19 02:35:46.000,0.01,0.01
2021-08-19 02:35:46.000,0.035,0.005
2021-08-19 02:35:47.000,0.035,0.04
2021-08-19 02:35:47.000,0.04,0.045
2021-08-19 02:35:47.000,0.05,0.03
2021-08-19 02:35:47.000,0.09,0.015
2021-08-19 02:35:48.000,0.1,0.025
2021-08-19 02:35:48.000,0.11,0.015
2021-08-19 02:35:48.000,0.125,0.035
2021-08-19 02:35:48.000,0.1,0.035
2021-08-19 02:35:48.000,0.115,0.045
2021-08-19 02:35:49.000,0.06,0.035
2021-08-19 02:35:49.000,0.07,0.01
2021-08-19 02:35:49.000,0.055,-0.06
2021-08-19 02:35:49.000,0.04,-0.08
2021-08-19 02:35:50.000,0.02,-0.105
2021-08-19 02:35:50.000,-0.02,-0.115
2021-08-19 02:35:50.000,-0.03,-0.095
2021-08-19 02:35:50.000,-0.04,-0.08
2021-08-19 02:35:51.000,-0.065,-0.075
2021-08-19 02:35:51.000,-0.065,-0.085
2021-08-19 02:35:51.000,-0.055,-0.08
2021-08-19 02:35:51.000,-0.08,-0.11
2021-08-19 02:35:52.000,-0.06,-0.105
2021-08-19 02:35:52.000,-0.055,-0.14
2021-08-19 02:35:52.000,-0.02,-0.14
2021-08-19 02:35:52.000,-0.02,-0.17
2021-08-19 02:35:53.000,-0.005,-0.18
2021-08-19 02:35:53.000,-0.025,-0.195
2021-08-19 02:35:53.000,-0.02,-0.155
2021-08-19 02:35:53.000,0.025,-0.165
2021-08-19 02:35:54.000,0.025,-0.175
2021-08-19 02:35:54.000,0.02,-0.185
2021-08-19 02:35:54.000,0.025,-0.16
2021-08-19 02:35:54.000,0.015,-0.175
2021-08-19 02:35:54.000,0.02,-0.185
2021-08-19 02:35:55.000,0.03,-0.175
2021-08-19 02:35:55.000,0.0,-0.17
2021-08-19 02:35:55.000,0.0,-0.175
2021-08-19 02:35:55.000,0.02,-0.16
2021-08-19 02:35:56.000,0.005,-0.145
2021-08-19 02:35:56.000,0.0,-0.155
2021-08-19 02:35:56.000,0.0,-0.155
2021-08-19 02:35:56.000,-0.005,-0.14
2021-08-19 02:35:57.000,0.0,-0.13
2021-08-19 02:35:57.000,0.0,-0.125
2021-08-19 02:35:57.000,-0.005,-0.06
2021-08-19 02:35:57.000,-0.005,-0.055
2021-08-19 02:35:58.000,0.0,-0.025
2021-08-19 02:35:58.000,-0.01,0.105
2021-08-19 02:35:58.000,0.005,0.33
2021-08-19 02:35:58.000,0.0,0.565
2021-08-19 02:35:59.000,0.015,0.75
2021-08-19 02:35:59.000,0.045,0.835
2021-08-19 02:35:59.000,0.005,0.89
2021-08-19 02:35:59.000,-0.05,0.845
2021-08-19 02:36:00.000,-0.08,0.7
2021-08-19 02:36:00.000,-0.14,0.43
2021-08-19 02:36:00.000,-0.28,0.135
2021-08-19 02:36:00.000,-0.545,0.05
2021-08-19 02:36:00.000,-0.87,0.195
2021-08-19 02:36:01.000,-1.18,0.305
2021-08-19 02:36:01.000,-1.42,0.165
2021-08-19 02:36:01.000,-1.46,-0.125
2021-08-19 02:36:01.000,-1.39,-0.405
2021-08-19 02:36:02.000,-1.125,-0.53
2021-08-19 02:36:02.000,-0.685,-0.59
2021-08-19 02:36:02.000,-0.29,-0.555
2021-08-19 02:36:02.000,-0.115,-0.455
2021-08-19 02:36:03.000,-0.085,-0.355
2021-08-19 02:36:03.000,-0.115,-0.29
2021-08-19 02:36:03.000,-0.155,-0.275
2021-08-19 02:36:03.000,-0.14,-0.305
2021-08-19 02:36:04.000,-0.115,-0.31
2021-08-19 02:36:04.000,-0.06,-0.32
2021-08-19 02:36:04.000,-0.025,-0.3
2021-08-19 02:36:04.000,0.045,-0.29
2021-08-19 02:36:05.000,0.07,-0.315
2021-08-19 02:36:05.000,0.07,-0.295
2021-08-19 02:36:05.000,0.075,-0.295
2021-08-19 02:36:05.000,0.085,-0.275
2021-08-19 02:36:06.000,0.06,-0.29
2021-08-19 02:36:06.000,0.1,-0.29
2021-08-19 02:36:06.000,0.115,-0.29
2021-08-19 02:36:06.000,0.11,-0.285
2021-08-19 02:36:06.000,0.1,-0.28
2021-08-19 02:36:07.000,0.11,-0.285
2021-08-19 02:36:07.000,0.105,-0.28
2021-08-19 02:36:07.000,0.08,-0.27
2021-08-19 02:36:07.000,0.11,-0.285
2021-08-19 02:36:08.000,0.12,-0.28
2021-08-19 02:36:08.000,0.115,-0.27
2021-08-19 02:36:08.000,0.11,-0.28
2021-08-19 02:36:08.000,0.12,-0.285
2021-08-19 02:36:09.000,0.14,-0.295
2021-08-19 02:36:09.000,0.105,-0.28
2021-08-19 02:36:09.000,0.13,-0.3
2021-08-19 02:36:09.000,0.115,-0.28
2021-08-19 02:36:10.000,0.115,-0.295
2021-08-19 02:36:10.000,0.115,-0.29
2021-08-19 02:36:10.000,0.13,-0.3
2021-08-19 02:36:10.000,0.13,-0.3
2021-08-19 02:36:11.000,0.125,-0.295
2021-08-19 02:36:11.000,0.125,-0.31
2021-08-19 02:36:11.000,0.13,-0.3
2021-08-19 02:36:11.000,0.13,-0.31
2021-08-19 02:36:12.000,0.115,-0.315
2021-08-19 02:36:12.000,0.12,-0.32
2021-08-19 02:36:12.000,0.095,-0.315
2021-08-19 02:36:12.000,0.125,-0.315
2021-08-19 02:36:12.000,0.11,-0.29
2021-08-19 02:36:13.000,0.095,-0.31
2021-08-19 02:36:13.000,0.13,-0.32
2021-08-19 02:36:13.000,0.11,-0.315
2021-08-19 02:36:13.000,0.11,-0.31
2021-08-19 02:36:14.000,0.11,-0.305
2021-08-19 02:36:14.000,0.095,-0.3
2021-08-19 02:36:14.000,0.095,-0.33
2021-08-19 02:36:14.000,0.095,-0.3
2021-08-19 02:36:15.000,0.1,-0.29
2021-08-19 02:36:15.000,0.085,-0.295
2021-08-19 02:36:15.000,0.08,-0.25
2021-08-19 02:36:15.000,0.06,-0.265
2021-08-19 02:36:16.000,0.055,-0.23
2021-08-19 02:36:16.000,0.065,-0.22
2021-08-19 02:36:16.000,0.07,-0.195
2021-08-19 02:36:16.000,0.05,-0.185
2021-08-19 02:36:17.000,0.05,-0.16
2021-08-19 02:36:17.000,0.035,-0.175
2021-08-19 02:36:17.000,0.03,-0.14
2021-08-19 02:36:17.000,0.04,-0.14
2021-08-19 02:36:18.000,0.035,-0.13
2021-08-19 02:36:18.000,0.01,-0.135
2021-08-19 02:36:18.000,0.01,-0.115
2021-08-19 02:36:18.000,0.025,-0.12
2021-08-19 02:36:18.000,0.02,-0.105
2021-08-19 02:36:19.000,0.015,-0.11
2021-08-19 02:36:19.000,0.035,-0.1
2021-08-19 02:36:19.000,0.005,-0.12
2021-08-19 02:36:19.000,0.0,-0.105
2021-08-19 02:36:20.000,0.015,-0.12
2021-08-19 02:36:20.000,0.02,-0.125
2021-08-19 02:36:20.000,0.005,-0.115
2021-08-19 02:36:20.000,0.01,-0.13
2021-08-19 02:36:21.000,0.03,-0.14
2021-08-19 02:36:21.000,0.02,-0.145
2021-08-19 02:36:21.000,0.02,-0.145
2021-08-19 02:36:21.000,0.02,-0.145
2021-08-19 02:36:22.000,0.02,-0.15
2021-08-19 02:36:22.000,0.01,-0.12
2021-08-19 02:36:22.000,0.015,-0.14
2021-08-19 02:36:22.000,0.035,-0.14
2021-08-19 02:36:23.000,0.035,-0.135
2021-08-19 02:36:23.000,0.015,-0.155
2021-08-19 02:36:23.000,0.02,-0.16
2021-08-19 02:36:23.000,0.015,-0.13
2021-08-19 02:36:24.000,0.015,-0.125
2021-08-19 02:36:24.000,0.02,-0.13
2021-08-19 02:36:24.000,0.02,-0.155
2021-08-19 02:36:24.000,0.035,-0.15
2021-08-19 02:36:24.000,0.02,-0.16
2021-08-19 02:36:25.000,0.025,-0.135
2021-08-19 02:36:25.000,0.03,-0.14
2021-08-19 02:36:25.000,0.045,-0.155
2021-08-19 02:36:25.000,0.045,-0.135
2021-08-19 02:36:26.000,0.03,-0.135
2021-08-19 02:36:26.000,0.035,-0.14
2021-08-19 02:36:26.000,0.035,-0.135
2021-08-19 02:36:26.000,0.04,-0.15
2021-08-19 02:36:27.000,0.035,-0.16
2021-08-19 02:36:27.000,0.025,-0.18
2021-08-19 02:36:27.000,0.03,-0.15
2021-08-19 02:36:27.000,0.035,-0.16
2021-08-19 02:36:28.000,0.02,-0.145
2021-08-19 02:36:28.000,0.04,-0.145
2021-08-19 02:36:28.000,0.035,-0.155
2021-08-19 02:36:28.000,0.03,-0.155
2021-08-19 02:36:29.000,0.045,-0.145
2021-08-19 02:36:29.000,0.01,-0.15
2021-08-19 02:36:29.000,0.02,-0.145
2021-08-19 02:36:29.000,0.025,-0.145
2021-08-19 02:36:30.000,0.035,-0.155
2021-08-19 02:36:30.000,0.005,-0.145
2021-08-19 02:36:30.000,0.02,-0.17
2021-08-19 02:36:30.000,0.0,-0.155
2021-08-19 02:36:30.000,0.0,-0.16
2021-08-19 02:36:31.000,-0.015,-0.155
2021-08-19 02:36:31.000,-0.01,-0.17
2021-08-19 02:36:31.000,0.005,-0.155
2021-08-19 02:36:31.000,0.02,-0.13
2021-08-19 02:36:32.000,0.01,-0.16
2021-08-19 02:36:32.000,0.02,-0.13
2021-08-19 02:36:32.000,0.015,-0.14
2021-08-19 02:36:32.000,0.0,-0.14
2021-08-19 02:36:33.000,-0.01,-0.15
2021-08-19 02:36:33.000,0.0,-0.13
2021-08-19 02:36:33.000,0.0,-0.17
2021-08-19 02:36:33.000,0.015,-0.15
2021-08-19 02:36:34.000,0.005,-0.16
2021-08-19 02:36:34.000,0.0,-0.16
2021-08-19 02:36:34.000,0.0,-0.14
2021-08-19 02:36:34.000,-0.005,-0.155
2021-08-19 02:36:35.000,0.0,-0.155
2021-08-19 02:36:35.000,-0.01,-0.13
2021-08-19 02:36:35.000,-0.01,-0.14
2021-08-19 02:36:35.000,-0.005,-0.165
2021-08-19 02:36:36.000,-0.02,-0.16
2021-08-19 02:36:36.000,0.0,-0.155
2021-08-19 02:36:36.000,-0.02,-0.13
2021-08-19 02:36:36.000,-0.045,-0.16
2021-08-19 02:36:36.000,-0.015,-0.18
2021-08-19 02:36:37.000,0.0,-0.17
2021-08-19 02:36:37.000,0.005,-0.175
2021-08-19 02:36:37.000,-0.01,-0.18
2021-08-19 02:36:37.000,-0.01,-0.17
2021-08-19 02:36:38.000,-0.035,-0.165
2021-08-19 02:36:38.000,-0.005,-0.17
2021-08-19 02:36:38.000,-0.02,-0.17
2021-08-19 02:36:38.000,-0.005,-0.16
2021-08-19 02:36:39.000,-0.025,-0.15
2021-08-19 02:36:39.000,-0.015,-0.145
2021-08-19 02:36:39.000,-0.04,-0.115
2021-08-19 02:36:39.000,-0.03,-0.085
2021-08-19 02:36:40.000,-0.03,-0.04
2021-08-19 02:36:40.000,-0.03,-0.005
2021-08-19 02:36:40.000,-0.025,-0.015
2021-08-19 02:36:40.000,-0.01,-0.005
2021-08-19 02:36:41.000,0.0,0.01
2021-08-19 02:36:41.000,0.01,0.0
2021-08-19 02:36:41.000,0.02,0.025
2021-08-19 02:36:41.000,0.045,-0.005
2021-08-19 02:36:42.000,0.055,-0.005
2021-08-19 02:36:42.000,0.075,-0.005
2021-08-19 02:36:42.000,0.06,0.015
2021-08-19 02:36:42.000,0.07,0.025
2021-08-19 02:36:42.000,0.06,0.03
2021-08-19 02:36:43.000,0.035,-0.005
2021-08-19 02:36:43.000,0.035,-0.04
2021-08-19 02:36:43.000,-0.005,-0.075
2021-08-19 02:36:43.000,-0.01,-0.095
2021-08-19 02:36:44.000,-0.035,-0.09
2021-08-19 02:36:44.000,-0.065,-0.09
2021-08-19 02:36:44.000,-0.065,-0.08
2021-08-19 02:36:44.000,-0.075,-0.08
2021-08-19 02:36:45.000,-0.07,-0.075
2021-08-19 02:36:45.000,-0.095,-0.095
2021-08-19 02:36:45.000,-0.085,-0.1
2021-08-19 02:36:45.000,-0.095,-0.13
2021-08-19 02:36:46.000,-0.095,-0.12
2021-08-19 02:36:46.000,-0.075,-0.115
2021-08-19 02:36:46.000,-0.065,-0.135
2021-08-19 02:36:46.000,-0.05,-0.175
2021-08-19 02:36:47.000,-0.065,-0.17
2021-08-19 02:36:47.000,-0.06,-0.195
2021-08-19 02:36:47.000,-0.055,-0.195
2021-08-19 02:36:47.000,-0.025,-0.19
2021-08-19 02:36:48.000,-0.015,-0.185
2021-08-19 02:36:48.000,-0.03,-0.195
2021-08-19 02:36:48.000,-0.02,-0.17
2021-08-19 02:36:48.000,-0.045,-0.185
2021-08-19 02:36:48.000,-0.03,-0.19
2021-08-19 02:36:49.000,-0.035,-0.185
2021-08-19 02:36:49.000,-0.04,-0.175
2021-08-19 02:36:49.000,-0.03,-0.18
2021-08-19 02:36:49.000,-0.025,-0.175
2021-08-19 02:36:50.000,-0.04,-0.16
2021-08-19 02:36:50.000,-0.03,-0.17
2021-08-19 02:36:50.000,-0.03,-0.17
2021-08-19 02:36:50.000,-0.025,-0.185
2021-08-19 02:36:51.000,-0.005,-0.175
2021-08-19 02:36:51.000,-0.035,-0.135
2021-08-19 02:36:51.000,-0.035,-0.095
2021-08-19 02:36:51.000,-0.035,-0.09
2021-08-19 02:36:52.000,-0.025,-0.03
2021-08-19 02:36:52.000,-0.045,0.105
2021-08-19 02:36:52.000,-0.025,0.34
2021-08-19 02:36:52.000,-0.02,0.56
2021-08-19 02:36:53.000,0.0,0.77
2021-08-19 02:36:53.000,0.01,0.91
2021-08-19 02:36:53.000,-0.02,0.985
2021-08-19 02:36:53.000,-0.07,0.995
2021-08-19 02:36:54.000,-0.105,0.885
2021-08-19 02:36:54.000,-0.14,0.65
2021-08-19 02:36:54.000,-0.28,0.35
2021-08-19 02:36:54.000,-0.505,0.2
2021-08-19 02:36:54.000,-0.795,0.25
2021-08-19 02:36:55.000,-1.11,0.27
2021-08-19 02:36:55.000,-1.265,0.095
2021-08-19 02:36:55.000,-1.32,-0.19
2021-08-19 02:36:55.000,-1.295,-0.42
2021-08-19 02:36:56.000,-1.025,-0.57
2021-08-19 02:36:56.000,-0.655,-0.605
2021-08-19 02:36:56.000,-0.29,-0.56
2021-08-19 02:36:56.000,-0.15,-0.43
2021-08-19 02:36:57.000,-0.135,-0.36
2021-08-19 02:36:57.000,-0.15,-0.335
2021-08-19 02:36:57.000,-0.165,-0.34
2021-08-19 02:36:57.000,-0.16,-0.335
2021-08-19 02:36:58.000,-0.135,-0.32
2021-08-19 02:36:58.000,-0.1,-0.345
2021-08-19 02:36:58.000,-0.045,-0.345
2021-08-19 02:36:58.000,0.01,-0.33
2021-08-19 02:36:59.000,0.02,-0.345
2021-08-19 02:36:59.000,0.035,-0.35
2021-08-19 02:36:59.000,0.035,-0.33
2021-08-19 02:36:59.000,0.055,-0.345
2021-08-19 02:37:00.000,0.06,-0.345
2021-08-19 02:37:00.000,0.04,-0.33
2021-08-19 02:37:00.000,0.055,-0.345
2021-08-19 02:37:00.000,0.06,-0.34
2021-08-19 02:37:00.000,0.06,-0.33
2021-08-19 02:37:01.000,0.07,-0.34
2021-08-19 02:37:01.000,0.065,-0.335
2021-08-19 02:37:01.000,0.065,-0.325
2021-08-19 02:37:01.000,0.055,-0.335
2021-08-19 02:37:02.000,0.07,-0.34
2021-08-19 02:37:02.000,0.055,-0.335
2021-08-19 02:37:02.000,0.07,-0.345
2021-08-19 02:37:02.000,0.075,-0.35
2021-08-19 02:37:03.000,0.07,-0.335
2021-08-19 02:37:03.000,0.075,-0.33
2021-08-19 02:37:03.000,0.06,-0.345
2021-08-19 02:37:03.000,0.05,-0.35
2021-08-19 02:37:04.000,0.07,-0.36
2021-08-19 02:37:04.000,0.055,-0.37
2021-08-19 02:37:04.000,0.06,-0.365
2021-08-19 02:37:04.000,0.07,-0.365
2021-08-19 02:37:05.000,0.055,-0.355
2021-08-19 02:37:05.000,0.075,-0.375
2021-08-19 02:37:05.000,0.045,-0.37
2021-08-19 02:37:05.000,0.06,-0.385
2021-08-19 02:37:06.000,0.055,-0.37
2021-08-19 02:37:06.000,0.065,-0.385
2021-08-19 02:37:06.000,0.03,-0.38
2021-08-19 02:37:06.000,0.07,-0.375
2021-08-19 02:37:06.000,0.06,-0.375
2021-08-19 02:37:07.000,0.045,-0.385
2021-08-19 02:37:07.000,0.06,-0.395
2021-08-19 02:37:07.000,0.03,-0.39
2021-08-19 02:37:07.000,0.035,-0.385
2021-08-19 02:37:08.000,0.055,-0.38
2021-08-19 02:37:08.000,0.04,-0.365
2021-08-19 02:37:08.000,0.05,-0.38
2021-08-19 02:37:08.000,0.05,-0.355
2021-08-19 02:37:09.000,0.045,-0.34
2021-08-19 02:37:09.000,0.05,-0.345
2021-08-19 02:37:09.000,0.055,-0.32
2021-08-19 02:37:09.000,0.04,-0.305
2021-08-19 02:37:10.000,0.025,-0.28
2021-08-19 02:37:10.000,0.04,-0.275
2021-08-19 02:37:10.000,0.05,-0.25
2021-08-19 02:37:10.000,0.04,-0.225
2021-08-19 02:37:11.000,0.035,-0.22
2021-08-19 02:37:11.000,0.01,-0.205
2021-08-19 02:37:11.000,0.005,-0.17
2021-08-19 02:37:11.000,0.0,-0.19
2021-08-19 02:37:12.000,0.005,-0.16
2021-08-19 02:37:12.000,-0.005,-0.155
2021-08-19 02:37:12.000,-0.01,-0.175
2021-08-19 02:37:12.000,-0.015,-0.16
2021-08-19 02:37:12.000,0.0,-0.15
2021-08-19 02:37:13.000,0.0,-0.155
2021-08-19 02:37:13.000,0.0,-0.135
2021-08-19 02:37:13.000,0.0,-0.155
2021-08-19 02:37:13.000,-0.005,-0.175
2021-08-19 02:37:14.000,0.005,-0.155
2021-08-19 02:37:14.000,0.02,-0.165
2021-08-19 02:37:14.000,0.0,-0.17
2021-08-19 02:37:14.000,-0.01,-0.155
2021-08-19 02:37:15.000,0.0,-0.16
2021-08-19 02:37:15.000,-0.01,-0.17
2021-08-19 02:37:15.000,0.015,-0.18
2021-08-19 02:37:15.000,0.0,-0.175
2021-08-19 02:37:16.000,0.03,-0.165
2021-08-19 02:37:16.000,0.01,-0.18
2021-08-19 02:37:16.000,0.005,-0.175
2021-08-19 02:37:16.000,0.025,-0.175
2021-08-19 02:37:17.000,0.025,-0.185
2021-08-19 02:37:17.000,0.035,-0.175
2021-08-19 02:37:17.000,0.025,-0.185
2021-08-19 02:37:17.000,0.03,-0.18
2021-08-19 02:37:18.000,0.03,-0.18
2021-08-19 02:37:18.000,0.03,-0.195
2021-08-19 02:37:18.000,0.03,-0.18
2021-08-19 02:37:18.000,0.035,-0.195
2021-08-19 02:37:18.000,0.025,-0.19
2021-08-19 02:37:19.000,0.035,-0.195
2021-08-19 02:37:19.000,0.035,-0.195
2021-08-19 02:37:19.000,0.025,-0.195
2021-08-19 02:37:19.000,0.03,-0.205
2021-08-19 02:37:20.000,0.025,-0.205
2021-08-19 02:37:20.000,0.035,-0.195
2021-08-19 02:37:20.000,0.02,-0.18
2021-08-19 02:37:20.000,0.015,-0.185
2021-08-19 02:37:21.000,0.03,-0.19
2021-08-19 02:37:21.000,0.02,-0.21
2021-08-19 02:37:21.000,0.015,-0.185
2021-08-19 02:37:21.000,0.02,-0.185
2021-08-19 02:37:22.000,0.025,-0.18
2021-08-19 02:37:22.000,0.015,-0.19
2021-08-19 02:37:22.000,0.025,-0.22
2021-08-19 02:37:22.000,0.01,-0.19
2021-08-19 02:37:23.000,0.005,-0.18
2021-08-19 02:37:23.000,0.03,-0.19
2021-08-19 02:37:23.000,0.025,-0.2
2021-08-19 02:37:23.000,0.0,-0.19
2021-08-19 02:37:24.000,0.01,-0.195
2021-08-19 02:37:24.000,0.015,-0.2
2021-08-19 02:37:24.000,0.025,-0.18
2021-08-19 02:37:24.000,0.0,-0.2
2021-08-19 02:37:24.000,0.0,-0.19
2021-08-19 02:37:25.000,0.005,-0.195
2021-08-19 02:37:25.000,0.005,-0.19
2021-08-19 02:37:25.000,0.0,-0.2
2021-08-19 02:37:25.000,-0.015,-0.19
2021-08-19 02:37:26.000,0.0,-0.195
2021-08-19 02:37:26.000,0.0,-0.18
2021-08-19 02:37:26.000,0.015,-0.175
2021-08-19 02:37:26.000,-0.005,-0.2
2021-08-19 02:37:27.000,0.01,-0.18
2021-08-19 02:37:27.000,0.02,-0.2
2021-08-19 02:37:27.000,0.005,-0.19
2021-08-19 02:37:27.000,-0.02,-0.19
2021-08-19 02:37:28.000,0.0,-0.19
2021-08-19 02:37:28.000,0.0,-0.2
2021-08-19 02:37:28.000,0.015,-0.2
2021-08-19 02:37:28.000,0.0,-0.195
2021-08-19 02:37:29.000,0.005,-0.2
2021-08-19 02:37:29.000,0.015,-0.19
2021-08-19 02:37:29.000,0.01,-0.19
2021-08-19 02:37:29.000,0.01,-0.18
2021-08-19 02:37:30.000,0.0,-0.195
2021-08-19 02:37:30.000,0.02,-0.19
2021-08-19 02:37:30.000,0.01,-0.18
2021-08-19 02:37:30.000,0.005,-0.18
2021-08-19 02:37:30.000,0.01,-0.195
2021-08-19 02:37:31.000,0.005,-0.195
2021-08-19 02:37:31.000,0.0,-0.195
2021-08-19 02:37:31.000,0.015,-0.175
2021-08-19 02:37:31.000,0.01,-0.185
2021-08-19 02:37:32.000,0.02,-0.17
2021-08-19 02:37:32.000,0.005,-0.13
2021-08-19 02:37:32.000,0.025,-0.1
2021-08-19 02:37:32.000,0.01,-0.08
2021-08-19 02:37:33.000,0.02,-0.04
2021-08-19 02:37:33.000,0.015,-0.025
2021-08-19 02:37:33.000,0.03,-0.02
2021-08-19 02:37:33.000,0.05,-0.025
2021-08-19 02:37:34.000,0.05,-0.015
2021-08-19 02:37:34.000,0.1,-0.01
2021-08-19 02:37:34.000,0.09,-0.03
2021-08-19 02:37:34.000,0.115,-0.03
2021-08-19 02:37:35.000,0.12,-0.035
2021-08-19 02:37:35.000,0.12,-0.02
2021-08-19 02:37:35.000,0.1,-0.02
2021-08-19 02:37:35.000,0.085,-0.015
2021-08-19 02:37:36.000,0.06,-0.04
2021-08-19 02:37:36.000,0.07,-0.085
2021-08-19 02:37:36.000,0.05,-0.14
2021-08-19 02:37:36.000,0.025,-0.145
2021-08-19 02:37:36.000,0.005,-0.135
2021-08-19 02:37:37.000,-0.015,-0.16
2021-08-19 02:37:37.000,-0.04,-0.145
2021-08-19 02:37:37.000,-0.055,-0.135
2021-08-19 02:37:37.000,-0.055,-0.135
2021-08-19 02:37:38.000,-0.065,-0.125
2021-08-19 02:37:38.000,-0.08,-0.145
2021-08-19 02:37:38.000,-0.06,-0.165
2021-08-19 02:37:38.000,-0.025,-0.17
2021-08-19 02:37:39.000,-0.04,-0.185
2021-08-19 02:37:39.000,-0.025,-0.21
2021-08-19 02:37:39.000,-0.02,-0.245
2021-08-19 02:37:39.000,-0.02,-0.235
2021-08-19 02:37:40.000,-0.02,-0.255
2021-08-19 02:37:40.000,0.005,-0.255
2021-08-19 02:37:40.000,0.01,-0.225
2021-08-19 02:37:40.000,0.035,-0.25
2021-08-19 02:37:41.000,0.025,-0.225
2021-08-19 02:37:41.000,0.015,-0.245
2021-08-19 02:37:41.000,0.005,-0.235
2021-08-19 02:37:41.000,0.015,-0.225
2021-08-19 02:37:42.000,0.01,-0.22
2021-08-19 02:37:42.000,0.0,-0.24
2021-08-19 02:37:42.000,-0.01,-0.24
2021-08-19 02:37:42.000,0.0,-0.215
2021-08-19 02:37:42.000,0.0,-0.24
2021-08-19 02:37:43.000,0.01,-0.225
2021-08-19 02:37:43.000,-0.02,-0.22
2021-08-19 02:37:43.000,0.005,-0.2
2021-08-19 02:37:43.000,0.0,-0.175
2021-08-19 02:37:44.000,-0.005,-0.14
2021-08-19 02:37:44.000,0.02,-0.1
2021-08-19 02:37:44.000,0.005,-0.07
2021-08-19 02:37:44.000,0.01,-0.015
2021-08-19 02:37:45.000,0.0,0.2
2021-08-19 02:37:45.000,0.015,0.47
2021-08-19 02:37:45.000,0.035,0.7
2021-08-19 02:37:45.000,0.09,0.865
2021-08-19 02:37:46.000,0.05,0.98
2021-08-19 02:37:46.000,0.035,0.995
2021-08-19 02:37:46.000,-0.02,0.935
2021-08-19 02:37:46.000,-0.065,0.7
2021-08-19 02:37:47.000,-0.115,0.35
2021-08-19 02:37:47.000,-0.31,0.045
2021-08-19 02:37:47.000,-0.58,0.04
2021-08-19 02:37:47.000,-0.905,0.175
2021-08-19 02:37:48.000,-1.175,0.195
2021-08-19 02:37:48.000,-1.355,0.0
2021-08-19 02:37:48.000,-1.395,-0.285
2021-08-19 02:37:48.000,-1.285,-0.51
2021-08-19 02:37:48.000,-0.97,-0.63
2021-08-19 02:37:49.000,-0.56,-0.67
2021-08-19 02:37:49.000,-0.205,-0.605
2021-08-19 02:37:49.000,-0.075,-0.49
2021-08-19 02:37:49.000,-0.07,-0.43
2021-08-19 02:37:50.000,-0.075,-0.375
2021-08-19 02:37:50.000,-0.085,-0.385
2021-08-19 02:37:50.000,-0.075,-0.395
2021-08-19 02:37:50.000,-0.07,-0.39
2021-08-19 02:37:51.000,-0.03,-0.38
2021-08-19 02:37:51.000,0.015,-0.39
2021-08-19 02:37:51.000,0.07,-0.4
2021-08-19 02:37:51.000,0.1,-0.385
2021-08-19 02:37:52.000,0.095,-0.395
2021-08-19 02:37:52.000,0.14,-0.39
2021-08-19 02:37:52.000,0.105,-0.39
2021-08-19 02:37:52.000,0.12,-0.385
2021-08-19 02:37:53.000,0.15,-0.38
2021-08-19 02:37:53.000,0.135,-0.39
2021-08-19 02:37:53.000,0.135,-0.38
2021-08-19 02:37:53.000,0.155,-0.4
2021-08-19 02:37:54.000,0.145,-0.39
2021-08-19 02:37:54.000,0.14,-0.37
2021-08-19 02:37:54.000,0.165,-0.37
2021-08-19 02:37:54.000,0.15,-0.37
2021-08-19 02:37:54.000,0.165,-0.385
2021-08-19 02:37:55.000,0.155,-0.365
2021-08-19 02:37:55.000,0.17,-0.385
2021-08-19 02:37:55.000,0.15,-0.385
2021-08-19 02:37:55.000,0.15,-0.375
2021-08-19 02:37:56.000,0.145,-0.38
2021-08-19 02:37:56.000,0.17,-0.4
2021-08-19 02:37:56.000,0.14,-0.395
2021-08-19 02:37:56.000,0.15,-0.395
2021-08-19 02:37:57.000,0.16,-0.405
2021-08-19 02:37:57.000,0.145,-0.4
2021-08-19 02:37:57.000,0.15,-0.4
2021-08-19 02:37:57.000,0.155,-0.39
2021-08-19 02:37:58.000,0.135,-0.41
2021-08-19 02:37:58.000,0.18,-0.415
2021-08-19 02:37:58.000,0.155,-0.425
2021-08-19 02:37:58.000,0.155,-0.44
2021-08-19 02:37:59.000,0.15,-0.425
2021-08-19 02:37:59.000,0.15,-0.425
2021-08-19 02:37:59.000,0.14,-0.42
2021-08-19 02:37:59.000,0.145,-0.42
2021-08-19 02:38:00.000,0.14,-0.42
2021-08-19 02:38:00.000,0.135,-0.42
2021-08-19 02:38:00.000,0.145,-0.41
2021-08-19 02:38:00.000,0.13,-0.435
2021-08-19 02:38:00.000,0.12,-0.43
2021-08-19 02:38:01.000,0.135,-0.415
2021-08-19 02:38:01.000,0.145,-0.415
2021-08-19 02:38:01.000,0.145,-0.395
2021-08-19 02:38:01.000,0.12,-0.355
2021-08-19 02:38:02.000,0.135,-0.375
2021-08-19 02:38:02.000,0.115,-0.355
2021-08-19 02:38:02.000,0.12,-0.33
2021-08-19 02:38:02.000,0.095,-0.315
2021-08-19 02:38:03.000,0.1,-0.32
2021-08-19 02:38:03.000,0.09,-0.295
2021-08-19 02:38:03.000,0.1,-0.275
2021-08-19 02:38:03.000,0.065,-0.26
2021-08-19 02:38:04.000,0.08,-0.24
2021-08-19 02:38:04.000,0.065,-0.225
2021-08-19 02:38:04.000,0.07,-0.245
2021-08-19 02:38:04.000,0.055,-0.21
2021-08-19 02:38:05.000,0.045,-0.225
2021-08-19 02:38:05.000,0.035,-0.215
2021-08-19 02:38:05.000,0.035,-0.215
2021-08-19 02:38:05.000,0.055,-0.21
2021-08-19 02:38:06.000,0.045,-0.21
2021-08-19 02:38:06.000,0.045,-0.215
2021-08-19 02:38:06.000,0.055,-0.22
2021-08-19 02:38:06.000,0.04,-0.21
2021-08-19 02:38:06.000,0.035,-0.225
2021-08-19 02:38:07.000,0.045,-0.22
2021-08-19 02:38:07.000,0.06,-0.22
2021-08-19 02:38:07.000,0.06,-0.23
2021-08-19 02:38:07.000,0.075,-0.24
2021-08-19 02:38:08.000,0.06,-0.255
2021-08-19 02:38:08.000,0.05,-0.23
2021-08-19 02:38:08.000,0.06,-0.24
2021-08-19 02:38:08.000,0.06,-0.24
2021-08-19 02:38:09.000,0.075,-0.225
2021-08-19 02:38:09.000,0.065,-0.24
2021-08-19 02:38:09.000,0.07,-0.255
2021-08-19 02:38:09.000,0.08,-0.26
2021-08-19 02:38:10.000,0.075,-0.245
2021-08-19 02:38:10.000,0.06,-0.245
2021-08-19 02:38:10.000,0.06,-0.26
2021-08-19 02:38:10.000,0.075,-0.255
2021-08-19 02:38:11.000,0.09,-0.235
2021-08-19 02:38:11.000,0.065,-0.255
2021-08-19 02:38:11.000,0.08,-0.25
2021-08-19 02:38:11.000,0.075,-0.25
2021-08-19 02:38:12.000,0.095,-0.26
2021-08-19 02:38:12.000,0.095,-0.25
2021-08-19 02:38:12.000,0.1,-0.25
2021-08-19 02:38:12.000,0.09,-0.235
2021-08-19 02:38:12.000,0.09,-0.245
2021-08-19 02:38:13.000,0.09,-0.245
2021-08-19 02:38:13.000,0.08,-0.245
2021-08-19 02:38:13.000,0.105,-0.25
2021-08-19 02:38:13.000,0.115,-0.255
2021-08-19 02:38:14.000,0.08,-0.25
2021-08-19 02:38:14.000,0.09,-0.24
2021-08-19 02:38:14.000,0.1,-0.255
2021-08-19 02:38:14.000,0.09,-0.245
2021-08-19 02:38:15.000,0.09,-0.25
2021-08-19 02:38:15.000,0.09,-0.245
2021-08-19 02:38:15.000,0.065,-0.26
2021-08-19 02:38:15.000,0.08,-0.23
2021-08-19 02:38:16.000,0.095,-0.24
2021-08-19 02:38:16.000,0.095,-0.23
2021-08-19 02:38:16.000,0.065,-0.23
2021-08-19 02:38:16.000,0.08,-0.24
2021-08-19 02:38:17.000,0.08,-0.24
2021-08-19 02:38:17.000,0.08,-0.25
2021-08-19 02:38:17.000,0.07,-0.24
2021-08-19 02:38:17.000,0.065,-0.26
2021-08-19 02:38:18.000,0.055,-0.245
2021-08-19 02:38:18.000,0.08,-0.23
2021-08-19 02:38:18.000,0.055,-0.25
2021-08-19 02:38:18.000,0.06,-0.25
2021-08-19 02:38:18.000,0.06,-0.225
2021-08-19 02:38:19.000,0.06,-0.235
2021-08-19 02:38:19.000,0.09,-0.225
2021-08-19 02:38:19.000,0.07,-0.255
2021-08-19 02:38:19.000,0.06,-0.21
2021-08-19 02:38:20.000,0.055,-0.245
2021-08-19 02:38:20.000,0.075,-0.245
2021-08-19 02:38:20.000,0.065,-0.24
2021-08-19 02:38:20.000,0.06,-0.24
2021-08-19 02:38:21.000,0.08,-0.25
2021-08-19 02:38:21.000,0.055,-0.235
2021-08-19 02:38:21.000,0.065,-0.235
2021-08-19 02:38:21.000,0.055,-0.23
2021-08-19 02:38:22.000,0.05,-0.225
2021-08-19 02:38:22.000,0.025,-0.24
2021-08-19 02:38:22.000,0.07,-0.235
2021-08-19 02:38:22.000,0.075,-0.235
2021-08-19 02:38:23.000,0.07,-0.205
2021-08-19 02:38:23.000,0.06,-0.225
2021-08-19 02:38:23.000,0.07,-0.23
2021-08-19 02:38:23.000,0.075,-0.23
2021-08-19 02:38:24.000,0.055,-0.21
2021-08-19 02:38:24.000,0.065,-0.23
2021-08-19 02:38:24.000,0.075,-0.235
2021-08-19 02:38:24.000,0.07,-0.235
2021-08-19 02:38:24.000,0.065,-0.225
2021-08-19 02:38:25.000,0.065,-0.24
2021-08-19 02:38:25.000,0.075,-0.2
2021-08-19 02:38:25.000,0.08,-0.185
2021-08-19 02:38:25.000,0.075,-0.155
2021-08-19 02:38:26.000,0.075,-0.13
2021-08-19 02:38:26.000,0.065,-0.08
2021-08-19 02:38:26.000,0.055,-0.065
2021-08-19 02:38:26.000,0.08,-0.06
2021-08-19 02:38:27.000,0.065,-0.04
2021-08-19 02:38:27.000,0.095,-0.06
2021-08-19 02:38:27.000,0.125,-0.055
2021-08-19 02:38:27.000,0.15,-0.05
2021-08-19 02:38:28.000,0.155,-0.08
2021-08-19 02:38:28.000,0.17,-0.05
2021-08-19 02:38:28.000,0.175,-0.055
2021-08-19 02:38:28.000,0.15,-0.055
2021-08-19 02:38:29.000,0.17,-0.06
2021-08-19 02:38:29.000,0.115,-0.07
2021-08-19 02:38:29.000,0.115,-0.075
2021-08-19 02:38:29.000,0.07,-0.125
2021-08-19 02:38:30.000,0.065,-0.165
2021-08-19 02:38:30.000,0.055,-0.185
2021-08-19 02:38:30.000,0.035,-0.185
2021-08-19 02:38:30.000,0.025,-0.175
2021-08-19 02:38:30.000,0.025,-0.155
2021-08-19 02:38:31.000,0.0,-0.155
2021-08-19 02:38:31.000,-0.015,-0.16
2021-08-19 02:38:31.000,0.0,-0.16
2021-08-19 02:38:31.000,-0.015,-0.175
2021-08-19 02:38:32.000,0.0,-0.18
2021-08-19 02:38:32.000,-0.005,-0.19
2021-08-19 02:38:32.000,0.015,-0.195
2021-08-19 02:38:32.000,0.04,-0.21
2021-08-19 02:38:33.000,0.02,-0.255
2021-08-19 02:38:33.000,0.04,-0.275
2021-08-19 02:38:33.000,0.045,-0.265
2021-08-19 02:38:33.000,0.045,-0.26
2021-08-19 02:38:34.000,0.075,-0.275
2021-08-19 02:38:34.000,0.075,-0.245
2021-08-19 02:38:34.000,0.095,-0.255
2021-08-19 02:38:34.000,0.07,-0.25
2021-08-19 02:38:35.000,0.07,-0.245
2021-08-19 02:38:35.000,0.055,-0.265
2021-08-19 02:38:35.000,0.065,-0.24
2021-08-19 02:38:35.000,0.065,-0.235
2021-08-19 02:38:36.000,0.07,-0.245
2021-08-19 02:38:36.000,0.065,-0.225
2021-08-19 02:38:36.000,0.04,-0.23
2021-08-19 02:38:36.000,0.035,-0.225
2021-08-19 02:38:36.000,0.03,-0.23
2021-08-19 02:38:37.000,0.045,-0.21
2021-08-19 02:38:37.000,0.04,-0.195
2021-08-19 02:38:37.000,0.04,-0.145
2021-08-19 02:38:37.000,0.05,-0.135
2021-08-19 02:38:38.000,0.03,-0.11
2021-08-19 02:38:38.000,0.02,-0.08
2021-08-19 02:38:38.000,0.03,0.065
2021-08-19 02:38:38.000,0.045,0.325
2021-08-19 02:38:39.000,0.055,0.58
2021-08-19 02:38:39.000,0.11,0.755
2021-08-19 02:38:39.000,0.125,0.86
2021-08-19 02:38:39.000,0.065,0.885
2021-08-19 02:38:40.000,0.01,0.855
2021-08-19 02:38:40.000,-0.015,0.68
2021-08-19 02:38:40.000,-0.095,0.395
2021-08-19 02:38:40.000,-0.24,0.065
2021-08-19 02:38:41.000,-0.5,-0.035
2021-08-19 02:38:41.000,-0.82,0.095
2021-08-19 02:38:41.000,-1.15,0.265
2021-08-19 02:38:41.000,-1.395,0.16
2021-08-19 02:38:42.000,-1.495,-0.135
2021-08-19 02:38:42.000,-1.44,-0.39
2021-08-19 02:38:42.000,-1.205,-0.585
2021-08-19 02:38:42.000,-0.76,-0.63
2021-08-19 02:38:42.000,-0.335,-0.63
2021-08-19 02:38:43.000,-0.08,-0.535
2021-08-19 02:38:43.000,-0.05,-0.425
2021-08-19 02:38:43.000,-0.06,-0.38
2021-08-19 02:38:43.000,-0.115,-0.36
2021-08-19 02:38:44.000,-0.1,-0.36
2021-08-19 02:38:44.000,-0.07,-0.375
2021-08-19 02:38:44.000,-0.04,-0.355
2021-08-19 02:38:44.000,0.02,-0.37
2021-08-19 02:38:45.000,0.065,-0.355
2021-08-19 02:38:45.000,0.11,-0.36
2021-08-19 02:38:45.000,0.115,-0.35
2021-08-19 02:38:45.000,0.135,-0.355
2021-08-19 02:38:46.000,0.135,-0.37
2021-08-19 02:38:46.000,0.145,-0.37
2021-08-19 02:38:46.000,0.14,-0.36
2021-08-19 02:38:46.000,0.16,-0.355
2021-08-19 02:38:47.000,0.15,-0.35
2021-08-19 02:38:47.000,0.17,-0.345
2021-08-19 02:38:47.000,0.18,-0.33
2021-08-19 02:38:47.000,0.14,-0.355
2021-08-19 02:38:48.000,0.155,-0.345
2021-08-19 02:38:48.000,0.165,-0.34
2021-08-19 02:38:48.000,0.185,-0.345
2021-08-19 02:38:48.000,0.15,-0.34
2021-08-19 02:38:48.000,0.19,-0.35
2021-08-19 02:38:49.000,0.19,-0.35
2021-08-19 02:38:49.000,0.185,-0.345
2021-08-19 02:38:49.000,0.185,-0.355
2021-08-19 02:38:49.000,0.18,-0.36
2021-08-19 02:38:50.000,0.165,-0.35
2021-08-19 02:38:50.000,0.165,-0.345
2021-08-19 02:38:50.000,0.185,-0.345
2021-08-19 02:38:50.000,0.19,-0.35
2021-08-19 02:38:51.000,0.17,-0.35
2021-08-19 02:38:51.000,0.175,-0.35
2021-08-19 02:38:51.000,0.155,-0.37
2021-08-19 02:38:51.000,0.185,-0.37
2021-08-19 02:38:52.000,0.175,-0.365
2021-08-19 02:38:52.000,0.155,-0.365
2021-08-19 02:38:52.000,0.175,-0.36
2021-08-19 02:38:52.000,0.155,-0.35
2021-08-19 02:38:53.000,0.17,-0.37
2021-08-19 02:38:53.000,0.16,-0.35
2021-08-19 02:38:53.000,0.155,-0.375
2021-08-19 02:38:53.000,0.165,-0.355
2021-08-19 02:38:54.000,0.155,-0.35
2021-08-19 02:38:54.000,0.155,-0.365
2021-08-19 02:38:54.000,0.17,-0.34
2021-08-19 02:38:54.000,0.165,-0.345
2021-08-19 02:38:54.000,0.155,-0.33
2021-08-19 02:38:55.000,0.14,-0.34
2021-08-19 02:38:55.000,0.15,-0.315
2021-08-19 02:38:55.000,0.145,-0.3
2021-08-19 02:38:55.000,0.14,-0.3
2021-08-19 02:38:56.000,0.135,-0.28
2021-08-19 02:38:56.000,0.135,-0.265
2021-08-19 02:38:56.000,0.14,-0.235
2021-08-19 02:38:56.000,0.115,-0.225
2021-08-19 02:38:57.000,0.115,-0.22
2021-08-19 02:38:57.000,0.12,-0.2
2021-08-19 02:38:57.000,0.11,-0.175
2021-08-19 02:38:57.000,0.095,-0.17
2021-08-19 02:38:58.000,0.095,-0.16
2021-08-19 02:38:58.000,0.085,-0.16
2021-08-19 02:38:58.000,0.08,-0.16
2021-08-19 02:38:58.000,0.095,-0.145
2021-08-19 02:38:59.000,0.075,-0.155
2021-08-19 02:38:59.000,0.075,-0.145
2021-08-19 02:38:59.000,0.06,-0.155
2021-08-19 02:38:59.000,0.07,-0.15
2021-08-19 02:39:00.000,0.055,-0.135
2021-08-19 02:39:00.000,0.06,-0.145
2021-08-19 02:39:00.000,0.06,-0.155
2021-08-19 02:39:00.000,0.07,-0.15
2021-08-19 02:39:00.000,0.06,-0.155
2021-08-19 02:39:01.000,0.08,-0.165
2021-08-19 02:39:01.000,0.055,-0.165
2021-08-19 02:39:01.000,0.055,-0.16
2021-08-19 02:39:01.000,0.075,-0.185
2021-08-19 02:39:02.000,0.075,-0.175
2021-08-19 02:39:02.000,0.06,-0.18
2021-08-19 02:39:02.000,0.07,-0.185
2021-08-19 02:39:02.000,0.075,-0.18
2021-08-19 02:39:03.000,0.09,-0.19
2021-08-19 02:39:03.000,0.07,-0.175
2021-08-19 02:39:03.000,0.065,-0.18
2021-08-19 02:39:03.000,0.085,-0.18
2021-08-19 02:39:04.000,0.075,-0.18
2021-08-19 02:39:04.000,0.065,-0.18
2021-08-19 02:39:04.000,0.075,-0.185
2021-08-19 02:39:04.000,0.075,-0.18
2021-08-19 02:39:05.000,0.065,-0.18
2021-08-19 02:39:05.000,0.095,-0.18
2021-08-19 02:39:05.000,0.075,-0.19
2021-08-19 02:39:05.000,0.09,-0.185
2021-08-19 02:39:06.000,0.09,-0.185
2021-08-19 02:39:06.000,0.08,-0.16
2021-08-19 02:39:06.000,0.09,-0.175
2021-08-19 02:39:06.000,0.08,-0.2
2021-08-19 02:39:06.000,0.085,-0.2
2021-08-19 02:39:07.000,0.075,-0.18
2021-08-19 02:39:07.000,0.1,-0.18
2021-08-19 02:39:07.000,0.095,-0.175
2021-08-19 02:39:07.000,0.1,-0.17
2021-08-19 02:39:08.000,0.11,-0.165
2021-08-19 02:39:08.000,0.095,-0.2
2021-08-19 02:39:08.000,0.095,-0.185
2021-08-19 02:39:08.000,0.095,-0.175
2021-08-19 02:39:09.000,0.09,-0.18
2021-08-19 02:39:09.000,0.09,-0.19
2021-08-19 02:39:09.000,0.11,-0.18
2021-08-19 02:39:09.000,0.105,-0.175
2021-08-19 02:39:10.000,0.095,-0.185
2021-08-19 02:39:10.000,0.105,-0.165
2021-08-19 02:39:10.000,0.11,-0.18
2021-08-19 02:39:10.000,0.105,-0.17
2021-08-19 02:39:11.000,0.105,-0.195
2021-08-19 02:39:11.000,0.075,-0.185
2021-08-19 02:39:11.000,0.07,-0.185
2021-08-19 02:39:11.000,0.08,-0.165
2021-08-19 02:39:12.000,0.09,-0.18
2021-08-19 02:39:12.000,0.06,-0.175
2021-08-19 02:39:12.000,0.055,-0.15
2021-08-19 02:39:12.000,0.08,-0.175
2021-08-19 02:39:12.000,0.075,-0.17
2021-08-19 02:39:13.000,0.08,-0.17
2021-08-19 02:39:13.000,0.06,-0.175
2021-08-19 02:39:13.000,0.065,-0.185
2021-08-19 02:39:13.000,0.075,-0.15
2021-08-19 02:39:14.000,0.07,-0.19
2021-08-19 02:39:14.000,0.07,-0.17
2021-08-19 02:39:14.000,0.08,-0.17
2021-08-19 02:39:14.000,0.085,-0.15
2021-08-19 02:39:15.000,0.09,-0.18
2021-08-19 02:39:15.000,0.06,-0.17
2021-08-19 02:39:15.000,0.09,-0.16
2021-08-19 02:39:15.000,0.07,-0.185
2021-08-19 02:39:16.000,0.08,-0.16
2021-08-19 02:39:16.000,0.08,-0.15
2021-08-19 02:39:16.000,0.07,-0.175
2021-08-19 02:39:16.000,0.06,-0.16
2021-08-19 02:39:17.000,0.075,-0.16
2021-08-19 02:39:17.000,0.065,-0.185
2021-08-19 02:39:17.000,0.065,-0.16
2021-08-19 02:39:17.000,0.065,-0.17
2021-08-19 02:39:18.000,0.065,-0.16
2021-08-19 02:39:18.000,0.055,-0.155
2021-08-19 02:39:18.000,0.055,-0.15
2021-08-19 02:39:18.000,0.05,-0.155
2021-08-19 02:39:18.000,0.05,-0.175
2021-08-19 02:39:19.000,0.07,-0.14
2021-08-19 02:39:19.000,0.065,-0.125
2021-08-19 02:39:19.000,0.065,-0.105
2021-08-19 02:39:19.000,0.045,-0.075
2021-08-19 02:39:20.000,0.05,-0.04
2021-08-19 02:39:20.000,0.045,-0.02
2021-08-19 02:39:20.000,0.045,-0.01
2021-08-19 02:39:20.000,0.06,-0.005
2021-08-19 02:39:21.000,0.085,-0.005
2021-08-19 02:39:21.000,0.1,0.015
2021-08-19 02:39:21.000,0.105,0.01
2021-08-19 02:39:21.000,0.135,-0.005
2021-08-19 02:39:22.000,0.145,-0.005
2021-08-19 02:39:22.000,0.16,0.02
2021-08-19 02:39:22.000,0.14,0.02
2021-08-19 02:39:22.000,0.125,0.04
2021-08-19 02:39:23.000,0.115,0.015
2021-08-19 02:39:23.000,0.08,-0.01
2021-08-19 02:39:23.000,0.07,-0.055
2021-08-19 02:39:23.000,0.04,-0.1
2021-08-19 02:39:24.000,0.03,-0.11
2021-08-19 02:39:24.000,-0.005,-0.09
2021-08-19 02:39:24.000,-0.01,-0.09
2021-08-19 02:39:24.000,-0.01,-0.08
2021-08-19 02:39:24.000,-0.01,-0.08
2021-08-19 02:39:25.000,-0.02,-0.095
2021-08-19 02:39:25.000,-0.04,-0.1
2021-08-19 02:39:25.000,-0.035,-0.1
2021-08-19 02:39:25.000,-0.03,-0.1
2021-08-19 02:39:26.000,-0.02,-0.115
2021-08-19 02:39:26.000,-0.01,-0.135
2021-08-19 02:39:26.000,-0.015,-0.15
2021-08-19 02:39:26.000,-0.005,-0.165
2021-08-19 02:39:27.000,0.0,-0.175
2021-08-19 02:39:27.000,0.0,-0.16
2021-08-19 02:39:27.000,0.025,-0.155
2021-08-19 02:39:27.000,0.07,-0.15
2021-08-19 02:39:28.000,0.06,-0.17
2021-08-19 02:39:28.000,0.04,-0.155
2021-08-19 02:39:28.000,0.03,-0.15
2021-08-19 02:39:28.000,0.035,-0.15
2021-08-19 02:39:29.000,0.025,-0.15
2021-08-19 02:39:29.000,0.04,-0.15
2021-08-19 02:39:29.000,0.04,-0.14
2021-08-19 02:39:29.000,0.02,-0.145
2021-08-19 02:39:30.000,0.04,-0.12
2021-08-19 02:39:30.000,0.04,-0.12
2021-08-19 02:39:30.000,0.035,-0.115
2021-08-19 02:39:30.000,0.025,-0.115
2021-08-19 02:39:30.000,0.015,-0.07
2021-08-19 02:39:31.000,0.03,-0.025
2021-08-19 02:39:31.000,0.01,-0.005
2021-08-19 02:39:31.000,0.035,-0.005
2021-08-19 02:39:31.000,0.015,0.125
2021-08-19 02:39:32.000,0.02,0.34
2021-08-19 02:39:32.000,0.035,0.565
2021-08-19 02:39:32.000,0.07,0.77
2021-08-19 02:39:32.000,0.075,0.875
2021-08-19 02:39:33.000,0.055,0.92
2021-08-19 02:39:33.000,-0.005,0.845
2021-08-19 02:39:33.000,-0.04,0.705
2021-08-19 02:39:33.000,-0.1,0.445
2021-08-19 02:39:34.000,-0.26,0.155
2021-08-19 02:39:34.000,-0.5,0.13
2021-08-19 02:39:34.000,-0.825,0.285
2021-08-19 02:39:34.000,-1.12,0.33
2021-08-19 02:39:35.000,-1.34,0.135
2021-08-19 02:39:35.000,-1.395,-0.155
2021-08-19 02:39:35.000,-1.305,-0.39
2021-08-19 02:39:35.000,-0.99,-0.515
2021-08-19 02:39:36.000,-0.545,-0.5
2021-08-19 02:39:36.000,-0.195,-0.445
2021-08-19 02:39:36.000,-0.09,-0.325
2021-08-19 02:39:36.000,-0.05,-0.255
2021-08-19 02:39:36.000,-0.085,-0.255
2021-08-19 02:39:37.000,-0.1,-0.25
2021-08-19 02:39:37.000,-0.115,-0.24
2021-08-19 02:39:37.000,-0.06,-0.24
2021-08-19 02:39:37.000,-0.02,-0.24
2021-08-19 02:39:38.000,0.02,-0.24
2021-08-19 02:39:38.000,0.04,-0.25
2021-08-19 02:39:38.000,0.08,-0.245
2021-08-19 02:39:38.000,0.085,-0.245
2021-08-19 02:39:39.000,0.075,-0.24
2021-08-19 02:39:39.000,0.085,-0.26
2021-08-19 02:39:39.000,0.075,-0.24
2021-08-19 02:39:39.000,0.095,-0.25
2021-08-19 02:39:40.000,0.09,-0.255
2021-08-19 02:39:40.000,0.075,-0.25
2021-08-19 02:39:40.000,0.09,-0.25
2021-08-19 02:39:40.000,0.095,-0.26
2021-08-19 02:39:41.000,0.11,-0.245
2021-08-19 02:39:41.000,0.11,-0.24
2021-08-19 02:39:41.000,0.09,-0.225
2021-08-19 02:39:41.000,0.11,-0.24
2021-08-19 02:39:42.000,0.1,-0.25
2021-08-19 02:39:42.000,0.08,-0.235
2021-08-19 02:39:42.000,0.095,-0.24
2021-08-19 02:39:42.000,0.07,-0.245
2021-08-19 02:39:42.000,0.105,-0.235
2021-08-19 02:39:43.000,0.075,-0.265
2021-08-19 02:39:43.000,0.1,-0.26
2021-08-19 02:39:43.000,0.095,-0.28
2021-08-19 02:39:43.000,0.09,-0.275
2021-08-19 02:39:44.000,0.11,-0.29
2021-08-19 02:39:44.000,0.075,-0.28
2021-08-19 02:39:44.000,0.105,-0.27
2021-08-19 02:39:44.000,0.095,-0.285
2021-08-19 02:39:45.000,0.095,-0.31
2021-08-19 02:39:45.000,0.065,-0.32
2021-08-19 02:39:45.000,0.06,-0.305
2021-08-19 02:39:45.000,0.06,-0.29
2021-08-19 02:39:46.000,0.065,-0.295
2021-08-19 02:39:46.000,0.045,-0.295
2021-08-19 02:39:46.000,0.04,-0.3
2021-08-19 02:39:46.000,0.07,-0.295
2021-08-19 02:39:47.000,0.075,-0.275
2021-08-19 02:39:47.000,0.06,-0.285
2021-08-19 02:39:47.000,0.075,-0.295
2021-08-19 02:39:47.000,0.065,-0.29
2021-08-19 02:39:48.000,0.06,-0.26
2021-08-19 02:39:48.000,0.055,-0.24
2021-08-19 02:39:48.000,0.055,-0.235
2021-08-19 02:39:48.000,0.06,-0.23
2021-08-19 02:39:48.000,0.035,-0.22
2021-08-19 02:39:49.000,0.05,-0.205
2021-08-19 02:39:49.000,0.05,-0.19
2021-08-19 02:39:49.000,0.035,-0.19
2021-08-19 02:39:49.000,0.055,-0.155
2021-08-19 02:39:50.000,0.045,-0.135
2021-08-19 02:39:50.000,0.035,-0.13
2021-08-19 02:39:50.000,0.015,-0.13
2021-08-19 02:39:50.000,0.01,-0.115
2021-08-19 02:39:51.000,0.01,-0.1
2021-08-19 02:39:51.000,-0.01,-0.105
2021-08-19 02:39:51.000,0.0,-0.075
2021-08-19 02:39:51.000,0.0,-0.08
2021-08-19 02:39:52.000,-0.035,-0.065
2021-08-19 02:39:52.000,-0.035,-0.075
2021-08-19 02:39:52.000,-0.02,-0.08
2021-08-19 02:39:52.000,-0.025,-0.085
2021-08-19 02:39:53.000,-0.02,-0.08
2021-08-19 02:39:53.000,0.0,-0.075
2021-08-19 02:39:53.000,-0.025,-0.08
2021-08-19 02:39:53.000,0.0,-0.085
2021-08-19 02:39:54.000,-0.015,-0.075
2021-08-19 02:39:54.000,0.0,-0.115
2021-08-19 02:39:54.000,-0.02,-0.105
2021-08-19 02:39:54.000,-0.025,-0.1
2021-08-19 02:39:54.000,-0.02,-0.115
2021-08-19 02:39:55.000,0.0,-0.105
2021-08-19 02:39:55.000,-0.02,-0.115
2021-08-19 02:39:55.000,0.0,-0.085
2021-08-19 02:39:55.000,-0.01,-0.1
2021-08-19 02:39:56.000,0.01,-0.095
2021-08-19 02:39:56.000,0.015,-0.1
2021-08-19 02:39:56.000,-0.005,-0.085
2021-08-19 02:39:56.000,0.0,-0.1
2021-08-19 02:39:57.000,0.015,-0.12
2021-08-19 02:39:57.000,0.01,-0.11
2021-08-19 02:39:57.000,0.03,-0.095
2021-08-19 02:39:57.000,0.015,-0.115
2021-08-19 02:39:58.000,0.01,-0.115
2021-08-19 02:39:58.000,0.04,-0.1
2021-08-19 02:39:58.000,0.015,-0.11
2021-08-19 02:39:58.000,0.03,-0.1
2021-08-19 02:39:59.000,0.03,-0.12
2021-08-19 02:39:59.000,0.015,-0.11
2021-08-19 02:39:59.000,0.035,-0.12
2021-08-19 02:39:59.000,0.025,-0.12
2021-08-19 02:40:00.000,0.01,-0.11
2021-08-19 02:40:00.000,0.005,-0.115
2021-08-19 02:40:00.000,0.015,-0.115
2021-08-19 02:40:00.000,0.005,-0.115
2021-08-19 02:40:00.000,0.0,-0.11
2021-08-19 02:40:01.000,0.005,-0.115
2021-08-19 02:40:01.000,0.0,-0.105
2021-08-19 02:40:01.000,0.015,-0.12
2021-08-19 02:40:01.000,0.01,-0.12
2021-08-19 02:40:02.000,-0.01,-0.12
2021-08-19 02:40:02.000,-0.025,-0.09
2021-08-19 02:40:02.000,0.01,-0.1
2021-08-19 02:40:02.000,0.0,-0.11
2021-08-19 02:40:03.000,0.0,-0.115
2021-08-19 02:40:03.000,0.015,-0.105
2021-08-19 02:40:03.000,0.0,-0.105
2021-08-19 02:40:03.000,-0.01,-0.105
2021-08-19 02:40:04.000,0.01,-0.12
2021-08-19 02:40:04.000,0.005,-0.12
2021-08-19 02:40:04.000,-0.005,-0.115
2021-08-19 02:40:04.000,-0.005,-0.11
2021-08-19 02:40:05.000,-0.01,-0.115
2021-08-19 02:40:05.000,-0.02,-0.115
2021-08-19 02:40:05.000,-0.015,-0.1
2021-08-19 02:40:05.000,-0.015,-0.09
2021-08-19 02:40:06.000,-0.035,-0.115
2021-08-19 02:40:06.000,-0.025,-0.095
2021-08-19 02:40:06.000,-0.005,-0.09
2021-08-19 02:40:06.000,-0.005,-0.105
2021-08-19 02:40:06.000,-0.015,-0.115
2021-08-19 02:40:07.000,-0.01,-0.12
2021-08-19 02:40:07.000,-0.02,-0.11
2021-08-19 02:40:07.000,-0.03,-0.095
2021-08-19 02:40:07.000,0.0,-0.105
2021-08-19 02:40:08.000,-0.005,-0.1
2021-08-19 02:40:08.000,-0.005,-0.11
2021-08-19 02:40:08.000,-0.02,-0.105
2021-08-19 02:40:08.000,-0.005,-0.095
2021-08-19 02:40:09.000,-0.01,-0.1
2021-08-19 02:40:09.000,-0.005,-0.08
2021-08-19 02:40:09.000,-0.02,-0.11
2021-08-19 02:40:09.000,-0.015,-0.085
2021-08-19 02:40:10.000,-0.015,-0.075
2021-08-19 02:40:10.000,-0.005,-0.09
2021-08-19 02:40:10.000,-0.035,-0.06
2021-08-19 02:40:10.000,-0.02,-0.07
2021-08-19 02:40:11.000,-0.01,-0.085
2021-08-19 02:40:11.000,-0.01,-0.065
2021-08-19 02:40:11.000,0.0,-0.025
2021-08-19 02:40:11.000,-0.01,-0.005
2021-08-19 02:40:12.000,-0.01,0.03
2021-08-19 02:40:12.000,0.005,0.055
2021-08-19 02:40:12.000,-0.025,0.055
2021-08-19 02:40:12.000,0.01,0.08
2021-08-19 02:40:12.000,0.03,0.065
2021-08-19 02:40:13.000,0.04,0.095
2021-08-19 02:40:13.000,0.065,0.085
2021-08-19 02:40:13.000,0.08,0.075
2021-08-19 02:40:13.000,0.095,0.085
2021-08-19 02:40:14.000,0.085,0.08
2021-08-19 02:40:14.000,0.09,0.095
2021-08-19 02:40:14.000,0.105,0.08
2021-08-19 02:40:14.000,0.075,0.09
2021-08-19 02:40:15.000,0.065,0.08
2021-08-19 02:40:15.000,0.04,0.03
2021-08-19 02:40:15.000,0.035,-0.01
2021-08-19 02:40:15.000,-0.005,-0.03
2021-08-19 02:40:16.000,-0.01,-0.03
2021-08-19 02:40:16.000,-0.02,-0.015
2021-08-19 02:40:16.000,-0.035,0.005
2021-08-19 02:40:16.000,-0.05,-0.025
2021-08-19 02:40:17.000,-0.045,-0.02
2021-08-19 02:40:17.000,-0.06,-0.03
2021-08-19 02:40:17.000,-0.065,-0.05
2021-08-19 02:40:17.000,-0.06,-0.045
2021-08-19 02:40:18.000,-0.06,-0.055
2021-08-19 02:40:18.000,-0.03,-0.06
2021-08-19 02:40:18.000,-0.045,-0.08
2021-08-19 02:40:18.000,-0.05,-0.105
2021-08-19 02:40:18.000,-0.015,-0.115
2021-08-19 02:40:19.000,-0.005,-0.1
2021-08-19 02:40:19.000,0.0,-0.105
2021-08-19 02:40:19.000,-0.005,-0.11
2021-08-19 02:40:19.000,0.02,-0.105
2021-08-19 02:40:20.000,0.0,-0.1
2021-08-19 02:40:20.000,-0.01,-0.1
2021-08-19 02:40:20.000,0.0,-0.105
2021-08-19 02:40:20.000,0.0,-0.09
2021-08-19 02:40:21.000,-0.015,-0.09
2021-08-19 02:40:21.000,-0.02,-0.09
2021-08-19 02:40:21.000,-0.015,-0.09
2021-08-19 02:40:21.000,0.0,-0.095
2021-08-19 02:40:22.000,-0.01,-0.075
2021-08-19 02:40:22.000,-0.01,-0.065
2021-08-19 02:40:22.000,-0.005,-0.055
2021-08-19 02:40:22.000,-0.02,-0.04
2021-08-19 02:40:23.000,-0.015,-0.015
2021-08-19 02:40:23.000,-0.015,0.01
2021-08-19 02:40:23.000,0.015,0.015
2021-08-19 02:40:23.000,-0.02,0.095
2021-08-19 02:40:24.000,-0.01,0.285
2021-08-19 02:40:24.000,0.0,0.515
2021-08-19 02:40:24.000,-0.005,0.74
2021-08-19 02:40:24.000,0.055,0.91
2021-08-19 02:40:24.000,0.035,1.04
2021-08-19 02:40:25.000,-0.015,1.1
2021-08-19 02:40:25.000,-0.04,1.06
2021-08-19 02:40:25.000,-0.08,0.875
2021-08-19 02:40:25.000,-0.14,0.58
2021-08-19 02:40:26.000,-0.295,0.32
2021-08-19 02:40:26.000,-0.55,0.295
2021-08-19 02:40:26.000,-0.845,0.36
2021-08-19 02:40:26.000,-1.11,0.31
2021-08-19 02:40:27.000,-1.245,0.05
2021-08-19 02:40:27.000,-1.24,-0.225
2021-08-19 02:40:27.000,-1.095,-0.405
2021-08-19 02:40:27.000,-0.785,-0.495
2021-08-19 02:40:28.000,-0.405,-0.48
2021-08-19 02:40:28.000,-0.17,-0.415
2021-08-19 02:40:28.000,-0.07,-0.32
2021-08-19 02:40:28.000,-0.105,-0.24
2021-08-19 02:40:29.000,-0.115,-0.215
2021-08-19 02:40:29.000,-0.145,-0.225
2021-08-19 02:40:29.000,-0.135,-0.235
2021-08-19 02:40:29.000,-0.095,-0.235
2021-08-19 02:40:30.000,-0.045,-0.24
2021-08-19 02:40:30.000,0.03,-0.225
2021-08-19 02:40:30.000,0.06,-0.235
2021-08-19 02:40:30.000,0.06,-0.25
2021-08-19 02:40:30.000,0.085,-0.24
2021-08-19 02:40:31.000,0.07,-0.235
2021-08-19 02:40:31.000,0.055,-0.235
2021-08-19 02:40:31.000,0.06,-0.24
2021-08-19 02:40:31.000,0.08,-0.25
2021-08-19 02:40:32.000,0.09,-0.25
2021-08-19 02:40:32.000,0.1,-0.255
2021-08-19 02:40:32.000,0.085,-0.23
2021-08-19 02:40:32.000,0.09,-0.245
2021-08-19 02:40:33.000,0.095,-0.25
2021-08-19 02:40:33.000,0.085,-0.25
2021-08-19 02:40:33.000,0.105,-0.245
2021-08-19 02:40:33.000,0.1,-0.235
2021-08-19 02:40:34.000,0.07,-0.25
2021-08-19 02:40:34.000,0.1,-0.255
2021-08-19 02:40:34.000,0.075,-0.245
2021-08-19 02:40:34.000,0.085,-0.265
2021-08-19 02:40:35.000,0.1,-0.25
2021-08-19 02:40:35.000,0.095,-0.265
2021-08-19 02:40:35.000,0.085,-0.265
2021-08-19 02:40:35.000,0.075,-0.265
2021-08-19 02:40:36.000,0.09,-0.25
2021-08-19 02:40:36.000,0.095,-0.28
2021-08-19 02:40:36.000,0.065,-0.27
2021-08-19 02:40:36.000,0.095,-0.295
2021-08-19 02:40:36.000,0.085,-0.29
2021-08-19 02:40:37.000,0.085,-0.29
2021-08-19 02:40:37.000,0.07,-0.295
2021-08-19 02:40:37.000,0.07,-0.29
2021-08-19 02:40:37.000,0.07,-0.315
2021-08-19 02:40:38.000,0.075,-0.31
2021-08-19 02:40:38.000,0.095,-0.305
2021-08-19 02:40:38.000,0.095,-0.315
2021-08-19 02:40:38.000,0.09,-0.335
2021-08-19 02:40:39.000,0.055,-0.32
2021-08-19 02:40:39.000,0.06,-0.335
2021-08-19 02:40:39.000,0.06,-0.31
2021-08-19 02:40:39.000,0.055,-0.335
2021-08-19 02:40:40.000,0.065,-0.325
2021-08-19 02:40:40.000,0.06,-0.305
2021-08-19 02:40:40.000,0.045,-0.3
2021-08-19 02:40:40.000,0.07,-0.28
2021-08-19 02:40:41.000,0.045,-0.275
2021-08-19 02:40:41.000,0.05,-0.265
2021-08-19 02:40:41.000,0.045,-0.27
2021-08-19 02:40:41.000,0.045,-0.24
2021-08-19 02:40:42.000,0.025,-0.21
2021-08-19 02:40:42.000,0.025,-0.215
2021-08-19 02:40:42.000,0.025,-0.19
2021-08-19 02:40:42.000,0.025,-0.18
2021-08-19 02:40:42.000,0.025,-0.16
2021-08-19 02:40:43.000,0.01,-0.145
2021-08-19 02:40:43.000,0.01,-0.125
2021-08-19 02:40:43.000,0.015,-0.105
2021-08-19 02:40:43.000,0.015,-0.105
2021-08-19 02:40:44.000,0.005,-0.095
2021-08-19 02:40:44.000,0.01,-0.11
2021-08-19 02:40:44.000,0.0,-0.105
2021-08-19 02:40:44.000,-0.015,-0.085
2021-08-19 02:40:45.000,0.01,-0.12
2021-08-19 02:40:45.000,0.005,-0.095
2021-08-19 02:40:45.000,0.01,-0.095
2021-08-19 02:40:45.000,0.0,-0.09
2021-08-19 02:40:46.000,0.005,-0.105
2021-08-19 02:40:46.000,0.015,-0.11
2021-08-19 02:40:46.000,0.0,-0.115
2021-08-19 02:40:46.000,0.04,-0.105
2021-08-19 02:40:47.000,0.0,-0.125
2021-08-19 02:40:47.000,0.01,-0.12
2021-08-19 02:40:47.000,0.02,-0.125
2021-08-19 02:40:47.000,0.025,-0.115
2021-08-19 02:40:48.000,0.03,-0.105
2021-08-19 02:40:48.000,0.025,-0.1
2021-08-19 02:40:48.000,0.03,-0.13
2021-08-19 02:40:48.000,0.045,-0.12
2021-08-19 02:40:48.000,0.045,-0.115
2021-08-19 02:40:49.000,0.045,-0.105
2021-08-19 02:40:49.000,0.03,-0.115
2021-08-19 02:40:49.000,0.045,-0.12
2021-08-19 02:40:49.000,0.05,-0.14
2021-08-19 02:40:50.000,0.05,-0.115
2021-08-19 02:40:50.000,0.055,-0.13
2021-08-19 02:40:50.000,0.065,-0.13
2021-08-19 02:40:50.000,0.06,-0.125
2021-08-19 02:40:51.000,0.06,-0.13
2021-08-19 02:40:51.000,0.07,-0.125
2021-08-19 02:40:51.000,0.065,-0.14
2021-08-19 02:40:51.000,0.07,-0.135
2021-08-19 02:40:52.000,0.06,-0.145
2021-08-19 02:40:52.000,0.065,-0.125
2021-08-19 02:40:52.000,0.07,-0.13
2021-08-19 02:40:52.000,0.065,-0.15
2021-08-19 02:40:53.000,0.075,-0.135
2021-08-19 02:40:53.000,0.06,-0.145
2021-08-19 02:40:53.000,0.04,-0.135
2021-08-19 02:40:53.000,0.045,-0.145
2021-08-19 02:40:54.000,0.045,-0.14
2021-08-19 02:40:54.000,0.045,-0.145
2021-08-19 02:40:54.000,0.04,-0.145
2021-08-19 02:40:54.000,0.045,-0.135
2021-08-19 02:40:54.000,0.06,-0.145
2021-08-19 02:40:55.000,0.045,-0.15
2021-08-19 02:40:55.000,0.08,-0.145
2021-08-19 02:40:55.000,0.055,-0.13
2021-08-19 02:40:55.000,0.055,-0.13
2021-08-19 02:40:56.000,0.05,-0.135
2021-08-19 02:40:56.000,0.04,-0.14
2021-08-19 02:40:56.000,0.04,-0.135
2021-08-19 02:40:56.000,0.05,-0.12
2021-08-19 02:40:57.000,0.05,-0.12
2021-08-19 02:40:57.000,0.055,-0.14
2021-08-19 02:40:57.000,0.05,-0.155
2021-08-19 02:40:57.000,0.04,-0.13
2021-08-19 02:40:58.000,0.045,-0.125
2021-08-19 02:40:58.000,0.05,-0.135
2021-08-19 02:40:58.000,0.04,-0.135
2021-08-19 02:40:58.000,0.055,-0.125
2021-08-19 02:40:59.000,0.06,-0.125
2021-08-19 02:40:59.000,0.055,-0.135
2021-08-19 02:40:59.000,0.045,-0.13
2021-08-19 02:40:59.000,0.06,-0.115
2021-08-19 02:41:00.000,0.065,-0.135
2021-08-19 02:41:00.000,0.035,-0.135
2021-08-19 02:41:00.000,0.07,-0.135
2021-08-19 02:41:00.000,0.045,-0.13
2021-08-19 02:41:00.000,0.06,-0.12
2021-08-19 02:41:01.000,0.05,-0.12
2021-08-19 02:41:01.000,0.045,-0.125
2021-08-19 02:41:01.000,0.07,-0.13
2021-08-19 02:41:01.000,0.075,-0.135
2021-08-19 02:41:02.000,0.065,-0.12
2021-08-19 02:41:02.000,0.065,-0.115
2021-08-19 02:41:02.000,0.065,-0.11
2021-08-19 02:41:02.000,0.085,-0.13
2021-08-19 02:41:03.000,0.05,-0.115
2021-08-19 02:41:03.000,0.075,-0.125
2021-08-19 02:41:03.000,0.075,-0.13
2021-08-19 02:41:03.000,0.06,-0.115
2021-08-19 02:41:04.000,0.08,-0.1
2021-08-19 02:41:04.000,0.07,-0.09
2021-08-19 02:41:04.000,0.09,-0.075
2021-08-19 02:41:04.000,0.075,-0.045
2021-08-19 02:41:05.000,0.075,0.005
2021-08-19 02:41:05.000,0.07,0.02
2021-08-19 02:41:05.000,0.075,0.045
2021-08-19 02:41:05.000,0.08,0.07
2021-08-19 02:41:06.000,0.095,0.07
2021-08-19 02:41:06.000,0.135,0.07
2021-08-19 02:41:06.000,0.145,0.07
2021-08-19 02:41:06.000,0.16,0.07
2021-08-19 02:41:06.000,0.16,0.065
2021-08-19 02:41:07.000,0.175,0.055
2021-08-19 02:41:07.000,0.19,0.065
2021-08-19 02:41:07.000,0.185,0.075
2021-08-19 02:41:07.000,0.185,0.075
2021-08-19 02:41:08.000,0.155,0.065
2021-08-19 02:41:08.000,0.15,0.045
2021-08-19 02:41:08.000,0.12,-0.005
2021-08-19 02:41:08.000,0.11,-0.03
2021-08-19 02:41:09.000,0.075,-0.05
2021-08-19 02:41:09.000,0.06,-0.04
2021-08-19 02:41:09.000,0.065,-0.045
2021-08-19 02:41:09.000,0.065,-0.025
2021-08-19 02:41:10.000,0.06,-0.01
2021-08-19 02:41:10.000,0.03,-0.03
2021-08-19 02:41:10.000,0.035,-0.01
2021-08-19 02:41:10.000,0.015,-0.025
2021-08-19 02:41:11.000,0.025,-0.03
2021-08-19 02:41:11.000,0.035,-0.045
2021-08-19 02:41:11.000,0.045,-0.06
2021-08-19 02:41:11.000,0.065,-0.09
2021-08-19 02:41:12.000,0.08,-0.12
2021-08-19 02:41:12.000,0.08,-0.125
2021-08-19 02:41:12.000,0.075,-0.13
2021-08-19 02:41:12.000,0.1,-0.14
2021-08-19 02:41:12.000,0.11,-0.115
2021-08-19 02:41:13.000,0.14,-0.1
2021-08-19 02:41:13.000,0.14,-0.11
2021-08-19 02:41:13.000,0.125,-0.095
2021-08-19 02:41:13.000,0.135,-0.11
2021-08-19 02:41:14.000,0.12,-0.095
2021-08-19 02:41:14.000,0.115,-0.085
2021-08-19 02:41:14.000,0.115,-0.1
2021-08-19 02:41:14.000,0.11,-0.08
2021-08-19 02:41:15.000,0.105,-0.075
2021-08-19 02:41:15.000,0.095,-0.075
2021-08-19 02:41:15.000,0.09,-0.085
2021-08-19 02:41:15.000,0.095,-0.065
2021-08-19 02:41:16.000,0.11,-0.055
2021-08-19 02:41:16.000,0.095,-0.04
2021-08-19 02:41:16.000,0.105,-0.02
2021-08-19 02:41:16.000,0.105,0.015
2021-08-19 02:41:17.000,0.105,0.04
2021-08-19 02:41:17.000,0.1,0.08
2021-08-19 02:41:17.000,0.095,0.24
2021-08-19 02:41:17.000,0.095,0.495
2021-08-19 02:41:18.000,0.105,0.735
2021-08-19 02:41:18.000,0.15,0.925
2021-08-19 02:41:18.000,0.18,1.04
2021-08-19 02:41:18.000,0.135,1.1
2021-08-19 02:41:18.000,0.105,1.07
2021-08-19 02:41:19.000,0.065,0.905
2021-08-19 02:41:19.000,-0.005,0.6
2021-08-19 02:41:19.000,-0.115,0.265
2021-08-19 02:41:19.000,-0.365,0.09
2021-08-19 02:41:20.000,-0.67,0.185
2021-08-19 02:41:20.000,-0.985,0.38
2021-08-19 02:41:20.000,-1.22,0.295
2021-08-19 02:41:20.000,-1.325,0.025
2021-08-19 02:41:21.000,-1.315,-0.24
2021-08-19 02:41:21.000,-1.1,-0.45
2021-08-19 02:41:21.000,-0.73,-0.52
2021-08-19 02:41:21.000,-0.305,-0.515
2021-08-19 02:41:22.000,-0.05,-0.415
2021-08-19 02:41:22.000,0.025,-0.3
2021-08-19 02:41:22.000,0.015,-0.255
2021-08-19 02:41:22.000,0.0,-0.215
2021-08-19 02:41:23.000,-0.025,-0.23
2021-08-19 02:41:23.000,0.005,-0.235
2021-08-19 02:41:23.000,0.045,-0.23
2021-08-19 02:41:23.000,0.08,-0.245
2021-08-19 02:41:24.000,0.135,-0.235
2021-08-19 02:41:24.000,0.185,-0.24
2021-08-19 02:41:24.000,0.19,-0.23
2021-08-19 02:41:24.000,0.225,-0.24
2021-08-19 02:41:24.000,0.22,-0.23
2021-08-19 02:41:25.000,0.23,-0.225
2021-08-19 02:41:25.000,0.235,-0.23
2021-08-19 02:41:25.000,0.235,-0.22
2021-08-19 02:41:25.000,0.23,-0.21
2021-08-19 02:41:26.000,0.24,-0.23
2021-08-19 02:41:26.000,0.22,-0.215
2021-08-19 02:41:26.000,0.24,-0.195
2021-08-19 02:41:26.000,0.255,-0.2
2021-08-19 02:41:27.000,0.25,-0.195
2021-08-19 02:41:27.000,0.245,-0.22
2021-08-19 02:41:27.000,0.245,-0.195
2021-08-19 02:41:27.000,0.26,-0.22
2021-08-19 02:41:28.000,0.25,-0.2
2021-08-19 02:41:28.000,0.255,-0.205
2021-08-19 02:41:28.000,0.265,-0.195
2021-08-19 02:41:28.000,0.255,-0.215
2021-08-19 02:41:29.000,0.265,-0.21
2021-08-19 02:41:29.000,0.25,-0.23
2021-08-19 02:41:29.000,0.25,-0.21
2021-08-19 02:41:29.000,0.24,-0.22
2021-08-19 02:41:30.000,0.25,-0.22
2021-08-19 02:41:30.000,0.24,-0.2
2021-08-19 02:41:30.000,0.255,-0.235
2021-08-19 02:41:30.000,0.23,-0.24
2021-08-19 02:41:30.000,0.24,-0.24
2021-08-19 02:41:31.000,0.235,-0.225
2021-08-19 02:41:31.000,0.235,-0.245
2021-08-19 02:41:31.000,0.25,-0.235
2021-08-19 02:41:31.000,0.25,-0.22
2021-08-19 02:41:32.000,0.235,-0.245
2021-08-19 02:41:32.000,0.23,-0.22
2021-08-19 02:41:32.000,0.23,-0.23
2021-08-19 02:41:32.000,0.235,-0.255
2021-08-19 02:41:33.000,0.23,-0.24
2021-08-19 02:41:33.000,0.21,-0.235
2021-08-19 02:41:33.000,0.23,-0.225
2021-08-19 02:41:33.000,0.23,-0.215
2021-08-19 02:41:34.000,0.215,-0.21
2021-08-19 02:41:34.000,0.205,-0.205
2021-08-19 02:41:34.000,0.205,-0.18
2021-08-19 02:41:34.000,0.2,-0.175
2021-08-19 02:41:35.000,0.21,-0.135
2021-08-19 02:41:35.000,0.205,-0.15
2021-08-19 02:41:35.000,0.22,-0.135
2021-08-19 02:41:35.000,0.195,-0.1
2021-08-19 02:41:36.000,0.195,-0.1
2021-08-19 02:41:36.000,0.185,-0.085
2021-08-19 02:41:36.000,0.19,-0.065
2021-08-19 02:41:36.000,0.19,-0.06
2021-08-19 02:41:36.000,0.14,-0.035
2021-08-19 02:41:37.000,0.145,-0.025
2021-08-19 02:41:37.000,0.135,-0.055
2021-08-19 02:41:37.000,0.135,-0.025
2021-08-19 02:41:37.000,0.125,-0.015
2021-08-19 02:41:38.000,0.125,-0.025
2021-08-19 02:41:38.000,0.13,-0.035
2021-08-19 02:41:38.000,0.115,-0.035
2021-08-19 02:41:38.000,0.11,-0.01
2021-08-19 02:41:39.000,0.125,-0.03
2021-08-19 02:41:39.000,0.115,-0.025
2021-08-19 02:41:39.000,0.115,-0.015
2021-08-19 02:41:39.000,0.075,-0.025
2021-08-19 02:41:40.000,0.1,-0.05
2021-08-19 02:41:40.000,0.13,-0.04
2021-08-19 02:41:40.000,0.115,-0.045
2021-08-19 02:41:40.000,0.12,-0.04
2021-08-19 02:41:41.000,0.125,-0.03
2021-08-19 02:41:41.000,0.13,-0.045
2021-08-19 02:41:41.000,0.125,-0.045
2021-08-19 02:41:41.000,0.13,-0.07
2021-08-19 02:41:42.000,0.13,-0.065
2021-08-19 02:41:42.000,0.14,-0.04
2021-08-19 02:41:42.000,0.15,-0.055
2021-08-19 02:41:42.000,0.14,-0.085
2021-08-19 02:41:42.000,0.135,-0.065
2021-08-19 02:41:43.000,0.145,-0.06
2021-08-19 02:41:43.000,0.16,-0.06
2021-08-19 02:41:43.000,0.165,-0.06
2021-08-19 02:41:43.000,0.15,-0.08
2021-08-19 02:41:44.000,0.145,-0.06
2021-08-19 02:41:44.000,0.15,-0.06
2021-08-19 02:41:44.000,0.15,-0.065
2021-08-19 02:41:44.000,0.155,-0.06
2021-08-19 02:41:45.000,0.145,-0.075
2021-08-19 02:41:45.000,0.14,-0.065
2021-08-19 02:41:45.000,0.155,-0.09
2021-08-19 02:41:45.000,0.165,-0.08
2021-08-19 02:41:46.000,0.175,-0.06
2021-08-19 02:41:46.000,0.155,-0.07
2021-08-19 02:41:46.000,0.165,-0.08
2021-08-19 02:41:46.000,0.17,-0.075
2021-08-19 02:41:47.000,0.15,-0.065
2021-08-19 02:41:47.000,0.165,-0.07
2021-08-19 02:41:47.000,0.155,-0.06
2021-08-19 02:41:47.000,0.14,-0.075
2021-08-19 02:41:48.000,0.15,-0.06
2021-08-19 02:41:48.000,0.14,-0.055
2021-08-19 02:41:48.000,0.15,-0.065
2021-08-19 02:41:48.000,0.145,-0.06
2021-08-19 02:41:48.000,0.155,-0.07
2021-08-19 02:41:49.000,0.15,-0.065
2021-08-19 02:41:49.000,0.145,-0.065
2021-08-19 02:41:49.000,0.135,-0.065
2021-08-19 02:41:49.000,0.15,-0.075
2021-08-19 02:41:50.000,0.135,-0.065
2021-08-19 02:41:50.000,0.14,-0.08
2021-08-19 02:41:50.000,0.145,-0.075
2021-08-19 02:41:50.000,0.13,-0.045
2021-08-19 02:41:51.000,0.14,-0.075
2021-08-19 02:41:51.000,0.15,-0.075
2021-08-19 02:41:51.000,0.16,-0.08
2021-08-19 02:41:51.000,0.155,-0.07
2021-08-19 02:41:52.000,0.155,-0.07
2021-08-19 02:41:52.000,0.165,-0.075
2021-08-19 02:41:52.000,0.135,-0.065
2021-08-19 02:41:52.000,0.14,-0.075
2021-08-19 02:41:53.000,0.16,-0.07
2021-08-19 02:41:53.000,0.145,-0.065
2021-08-19 02:41:53.000,0.145,-0.06
2021-08-19 02:41:53.000,0.17,-0.08
2021-08-19 02:41:54.000,0.165,-0.06
2021-08-19 02:41:54.000,0.13,-0.07
2021-08-19 02:41:54.000,0.12,-0.06
2021-08-19 02:41:54.000,0.135,-0.07
2021-08-19 02:41:54.000,0.135,-0.07
2021-08-19 02:41:55.000,0.145,-0.07
2021-08-19 02:41:55.000,0.125,-0.08
2021-08-19 02:41:55.000,0.13,-0.06
2021-08-19 02:41:55.000,0.15,-0.06
2021-08-19 02:41:56.000,0.14,-0.055
2021-08-19 02:41:56.000,0.135,-0.055
2021-08-19 02:41:56.000,0.14,-0.075
2021-08-19 02:41:56.000,0.14,-0.055
2021-08-19 02:41:57.000,0.14,-0.075
2021-08-19 02:41:57.000,0.145,-0.06
2021-08-19 02:41:57.000,0.155,-0.06
2021-08-19 02:41:57.000,0.145,-0.04
2021-08-19 02:41:58.000,0.155,-0.02
2021-08-19 02:41:58.000,0.145,-0.01
2021-08-19 02:41:58.000,0.14,0.02
2021-08-19 02:41:58.000,0.155,0.07
2021-08-19 02:41:59.000,0.15,0.085
2021-08-19 02:41:59.000,0.155,0.085
2021-08-19 02:41:59.000,0.14,0.09
2021-08-19 02:41:59.000,0.165,0.105
2021-08-19 02:42:00.000,0.185,0.105
2021-08-19 02:42:00.000,0.21,0.11
2021-08-19 02:42:00.000,0.235,0.12
2021-08-19 02:42:00.000,0.245,0.105
2021-08-19 02:42:00.000,0.24,0.105
2021-08-19 02:42:01.000,0.25,0.1
2021-08-19 02:42:01.000,0.245,0.125
2021-08-19 02:42:01.000,0.23,0.12
2021-08-19 02:42:01.000,0.215,0.09
2021-08-19 02:42:02.000,0.21,0.075
2021-08-19 02:42:02.000,0.175,0.02
2021-08-19 02:42:02.000,0.145,-0.015
2021-08-19 02:42:02.000,0.135,-0.005
2021-08-19 02:42:03.000,0.12,0.0
2021-08-19 02:42:03.000,0.1,0.005
2021-08-19 02:42:03.000,0.105,0.015
2021-08-19 02:42:03.000,0.09,0.015
2021-08-19 02:42:04.000,0.075,0.005
2021-08-19 02:42:04.000,0.08,-0.01
2021-08-19 02:42:04.000,0.07,-0.02
2021-08-19 02:42:04.000,0.085,-0.025
2021-08-19 02:42:05.000,0.09,-0.03
2021-08-19 02:42:05.000,0.095,-0.05
2021-08-19 02:42:05.000,0.11,-0.085
2021-08-19 02:42:05.000,0.115,-0.075
2021-08-19 02:42:06.000,0.11,-0.085
2021-08-19 02:42:06.000,0.12,-0.075
2021-08-19 02:42:06.000,0.16,-0.07
2021-08-19 02:42:06.000,0.18,-0.07
2021-08-19 02:42:06.000,0.17,-0.07
2021-08-19 02:42:07.000,0.195,-0.09
2021-08-19 02:42:07.000,0.185,-0.075
2021-08-19 02:42:07.000,0.185,-0.06
2021-08-19 02:42:07.000,0.17,-0.065
2021-08-19 02:42:08.000,0.175,-0.04
2021-08-19 02:42:08.000,0.17,-0.04
2021-08-19 02:42:08.000,0.17,-0.04
2021-08-19 02:42:08.000,0.195,-0.045
2021-08-19 02:42:09.000,0.18,-0.04
2021-08-19 02:42:09.000,0.175,-0.055
2021-08-19 02:42:09.000,0.175,-0.025
2021-08-19 02:42:09.000,0.175,-0.01
2021-08-19 02:42:10.000,0.145,0.025
2021-08-19 02:42:10.000,0.17,0.055
2021-08-19 02:42:10.000,0.155,0.08
2021-08-19 02:42:10.000,0.175,0.14
2021-08-19 02:42:11.000,0.16,0.345
2021-08-19 02:42:11.000,0.16,0.595
2021-08-19 02:42:11.000,0.225,0.8
2021-08-19 02:42:11.000,0.235,0.95
2021-08-19 02:42:12.000,0.215,1.02
2021-08-19 02:42:12.000,0.165,1.005
2021-08-19 02:42:12.000,0.125,0.91
2021-08-19 02:42:12.000,0.085,0.715
2021-08-19 02:42:12.000,0.0,0.4
2021-08-19 02:42:13.000,-0.175,0.17
2021-08-19 02:42:13.000,-0.46,0.185
2021-08-19 02:42:13.000,-0.81,0.39
2021-08-19 02:42:13.000,-1.1,0.42
2021-08-19 02:42:14.000,-1.255,0.205
2021-08-19 02:42:14.000,-1.315,-0.095
2021-08-19 02:42:14.000,-1.215,-0.325
2021-08-19 02:42:14.000,-0.89,-0.415
2021-08-19 02:42:15.000,-0.425,-0.455
2021-08-19 02:42:15.000,-0.06,-0.37
2021-08-19 02:42:15.000,0.07,-0.27
2021-08-19 02:42:15.000,0.085,-0.18
2021-08-19 02:42:16.000,0.035,-0.17
2021-08-19 02:42:16.000,0.035,-0.17
2021-08-19 02:42:16.000,0.065,-0.18
2021-08-19 02:42:16.000,0.07,-0.175
2021-08-19 02:42:17.000,0.16,-0.175
2021-08-19 02:42:17.000,0.205,-0.175
2021-08-19 02:42:17.000,0.23,-0.155
2021-08-19 02:42:17.000,0.27,-0.15
2021-08-19 02:42:18.000,0.27,-0.165
2021-08-19 02:42:18.000,0.265,-0.17
2021-08-19 02:42:18.000,0.3,-0.155
2021-08-19 02:42:18.000,0.28,-0.165
2021-08-19 02:42:18.000,0.28,-0.165
2021-08-19 02:42:19.000,0.28,-0.16
2021-08-19 02:42:19.000,0.29,-0.175
2021-08-19 02:42:19.000,0.295,-0.15
2021-08-19 02:42:19.000,0.3,-0.155
2021-08-19 02:42:20.000,0.285,-0.17
2021-08-19 02:42:20.000,0.295,-0.165
2021-08-19 02:42:20.000,0.305,-0.16
2021-08-19 02:42:20.000,0.305,-0.195
2021-08-19 02:42:21.000,0.295,-0.16
2021-08-19 02:42:21.000,0.305,-0.165
2021-08-19 02:42:21.000,0.295,-0.17
2021-08-19 02:42:21.000,0.295,-0.175
2021-08-19 02:42:22.000,0.3,-0.175
2021-08-19 02:42:22.000,0.295,-0.165
2021-08-19 02:42:22.000,0.285,-0.175
2021-08-19 02:42:22.000,0.285,-0.18
2021-08-19 02:42:23.000,0.295,-0.175
2021-08-19 02:42:23.000,0.295,-0.18
2021-08-19 02:42:23.000,0.285,-0.205
2021-08-19 02:42:23.000,0.285,-0.2
2021-08-19 02:42:24.000,0.29,-0.205
2021-08-19 02:42:24.000,0.29,-0.23
2021-08-19 02:42:24.000,0.285,-0.205
2021-08-19 02:42:24.000,0.295,-0.195
2021-08-19 02:42:24.000,0.295,-0.22
2021-08-19 02:42:25.000,0.29,-0.2
2021-08-19 02:42:25.000,0.29,-0.195
2021-08-19 02:42:25.000,0.31,-0.215
2021-08-19 02:42:25.000,0.295,-0.23
2021-08-19 02:42:26.000,0.275,-0.21
2021-08-19 02:42:26.000,0.255,-0.225
2021-08-19 02:42:26.000,0.265,-0.22
2021-08-19 02:42:26.000,0.265,-0.21
2021-08-19 02:42:27.000,0.265,-0.195
2021-08-19 02:42:27.000,0.28,-0.17
2021-08-19 02:42:27.000,0.26,-0.17
2021-08-19 02:42:27.000,0.255,-0.14
2021-08-19 02:42:28.000,0.245,-0.14
2021-08-19 02:42:28.000,0.245,-0.135
2021-08-19 02:42:28.000,0.25,-0.13
2021-08-19 02:42:28.000,0.25,-0.115
2021-08-19 02:42:29.000,0.25,-0.1
2021-08-19 02:42:29.000,0.235,-0.09
2021-08-19 02:42:29.000,0.245,-0.08
2021-08-19 02:42:29.000,0.21,-0.07
2021-08-19 02:42:30.000,0.23,-0.055
2021-08-19 02:42:30.000,0.185,-0.055
2021-08-19 02:42:30.000,0.195,-0.045
2021-08-19 02:42:30.000,0.195,-0.04
2021-08-19 02:42:30.000,0.19,-0.05
2021-08-19 02:42:31.000,0.17,-0.055
2021-08-19 02:42:31.000,0.16,-0.03
2021-08-19 02:42:31.000,0.165,-0.045
2021-08-19 02:42:31.000,0.17,-0.06
2021-08-19 02:42:32.000,0.165,-0.065
2021-08-19 02:42:32.000,0.17,-0.055
2021-08-19 02:42:32.000,0.155,-0.07
2021-08-19 02:42:32.000,0.165,-0.07
2021-08-19 02:42:33.000,0.14,-0.06
2021-08-19 02:42:33.000,0.16,-0.075
2021-08-19 02:42:33.000,0.18,-0.07
2021-08-19 02:42:33.000,0.165,-0.08
2021-08-19 02:42:34.000,0.155,-0.08
2021-08-19 02:42:34.000,0.16,-0.075
2021-08-19 02:42:34.000,0.165,-0.07
2021-08-19 02:42:34.000,0.17,-0.09
2021-08-19 02:42:35.000,0.185,-0.09
2021-08-19 02:42:35.000,0.155,-0.075
2021-08-19 02:42:35.000,0.165,-0.085
2021-08-19 02:42:35.000,0.17,-0.08
2021-08-19 02:42:36.000,0.19,-0.095
2021-08-19 02:42:36.000,0.175,-0.095
2021-08-19 02:42:36.000,0.18,-0.11
2021-08-19 02:42:36.000,0.175,-0.09
2021-08-19 02:42:36.000,0.19,-0.095
2021-08-19 02:42:37.000,0.185,-0.115
2021-08-19 02:42:37.000,0.185,-0.12
2021-08-19 02:42:37.000,0.18,-0.12
2021-08-19 02:42:37.000,0.17,-0.125
2021-08-19 02:42:38.000,0.185,-0.12
2021-08-19 02:42:38.000,0.165,-0.11
2021-08-19 02:42:38.000,0.165,-0.13
2021-08-19 02:42:38.000,0.205,-0.12
2021-08-19 02:42:39.000,0.17,-0.13
2021-08-19 02:42:39.000,0.175,-0.135
2021-08-19 02:42:39.000,0.175,-0.14
2021-08-19 02:42:39.000,0.18,-0.14
2021-08-19 02:42:40.000,0.17,-0.13
2021-08-19 02:42:40.000,0.175,-0.135
2021-08-19 02:42:40.000,0.165,-0.15
2021-08-19 02:42:40.000,0.165,-0.145
2021-08-19 02:42:41.000,0.14,-0.145
2021-08-19 02:42:41.000,0.14,-0.13
2021-08-19 02:42:41.000,0.15,-0.135
2021-08-19 02:42:41.000,0.13,-0.16
2021-08-19 02:42:42.000,0.155,-0.15
2021-08-19 02:42:42.000,0.145,-0.17
2021-08-19 02:42:42.000,0.15,-0.16
2021-08-19 02:42:42.000,0.14,-0.175
2021-08-19 02:42:42.000,0.14,-0.165
2021-08-19 02:42:43.000,0.125,-0.16
2021-08-19 02:42:43.000,0.105,-0.16
2021-08-19 02:42:43.000,0.11,-0.15
2021-08-19 02:42:43.000,0.13,-0.17
2021-08-19 02:42:44.000,0.115,-0.165
2021-08-19 02:42:44.000,0.12,-0.16
2021-08-19 02:42:44.000,0.12,-0.16
2021-08-19 02:42:44.000,0.115,-0.165
2021-08-19 02:42:45.000,0.105,-0.175
2021-08-19 02:42:45.000,0.105,-0.17
2021-08-19 02:42:45.000,0.105,-0.16
2021-08-19 02:42:45.000,0.12,-0.165
2021-08-19 02:42:46.000,0.105,-0.195
2021-08-19 02:42:46.000,0.095,-0.175
2021-08-19 02:42:46.000,0.11,-0.185
2021-08-19 02:42:46.000,0.095,-0.17
2021-08-19 02:42:47.000,0.11,-0.18
2021-08-19 02:42:47.000,0.1,-0.19
2021-08-19 02:42:47.000,0.11,-0.195
2021-08-19 02:42:47.000,0.115,-0.2
2021-08-19 02:42:48.000,0.105,-0.2
2021-08-19 02:42:48.000,0.105,-0.225
2021-08-19 02:42:48.000,0.13,-0.18
2021-08-19 02:42:48.000,0.11,-0.2
2021-08-19 02:42:48.000,0.12,-0.205
2021-08-19 02:42:49.000,0.095,-0.205
2021-08-19 02:42:49.000,0.12,-0.19
2021-08-19 02:42:49.000,0.095,-0.205
2021-08-19 02:42:49.000,0.11,-0.205
2021-08-19 02:42:50.000,0.115,-0.2
2021-08-19 02:42:50.000,0.115,-0.195
2021-08-19 02:42:50.000,0.085,-0.18
2021-08-19 02:42:50.000,0.095,-0.2
2021-08-19 02:42:51.000,0.11,-0.19
2021-08-19 02:42:51.000,0.1,-0.16
2021-08-19 02:42:51.000,0.1,-0.145
2021-08-19 02:42:51.000,0.105,-0.115
2021-08-19 02:42:52.000,0.105,-0.055
2021-08-19 02:42:52.000,0.1,-0.045
2021-08-19 02:42:52.000,0.12,-0.04
2021-08-19 02:42:52.000,0.115,-0.05
2021-08-19 02:42:53.000,0.13,-0.04
2021-08-19 02:42:53.000,0.165,-0.045
2021-08-19 02:42:53.000,0.17,-0.04
2021-08-19 02:42:53.000,0.195,-0.04
2021-08-19 02:42:54.000,0.205,-0.065
2021-08-19 02:42:54.000,0.22,-0.075
2021-08-19 02:42:54.000,0.2,-0.06
2021-08-19 02:42:54.000,0.195,-0.05
2021-08-19 02:42:54.000,0.165,-0.055
2021-08-19 02:42:55.000,0.18,-0.09
2021-08-19 02:42:55.000,0.17,-0.14
2021-08-19 02:42:55.000,0.12,-0.15
2021-08-19 02:42:55.000,0.1,-0.17
2021-08-19 02:42:56.000,0.07,-0.16
2021-08-19 02:42:56.000,0.05,-0.14
2021-08-19 02:42:56.000,0.07,-0.12
2021-08-19 02:42:56.000,0.045,-0.16
2021-08-19 02:42:57.000,0.02,-0.15
2021-08-19 02:42:57.000,0.015,-0.14
2021-08-19 02:42:57.000,0.015,-0.15
2021-08-19 02:42:57.000,0.025,-0.16
2021-08-19 02:42:58.000,0.035,-0.185
2021-08-19 02:42:58.000,0.06,-0.2
2021-08-19 02:42:58.000,0.05,-0.22
2021-08-19 02:42:58.000,0.05,-0.23
2021-08-19 02:42:59.000,0.07,-0.24
2021-08-19 02:42:59.000,0.075,-0.23
2021-08-19 02:42:59.000,0.09,-0.23
2021-08-19 02:42:59.000,0.12,-0.215
2021-08-19 02:43:00.000,0.135,-0.22
2021-08-19 02:43:00.000,0.12,-0.24
2021-08-19 02:43:00.000,0.095,-0.24
2021-08-19 02:43:00.000,0.115,-0.24
2021-08-19 02:43:00.000,0.105,-0.225
2021-08-19 02:43:01.000,0.115,-0.22
2021-08-19 02:43:01.000,0.135,-0.225
2021-08-19 02:43:01.000,0.115,-0.23
2021-08-19 02:43:01.000,0.11,-0.22
2021-08-19 02:43:02.000,0.1,-0.23
2021-08-19 02:43:02.000,0.12,-0.245
2021-08-19 02:43:02.000,0.12,-0.21
2021-08-19 02:43:02.000,0.095,-0.18
2021-08-19 02:43:03.000,0.1,-0.155
2021-08-19 02:43:03.000,0.09,-0.14
2021-08-19 02:43:03.000,0.11,-0.1
2021-08-19 02:43:03.000,0.1,-0.07
2021-08-19 02:43:04.000,0.095,0.05
2021-08-19 02:43:04.000,0.11,0.3
2021-08-19 02:43:04.000,0.115,0.51
2021-08-19 02:43:04.000,0.13,0.66
2021-08-19 02:43:05.000,0.155,0.76
2021-08-19 02:43:05.000,0.1,0.795
2021-08-19 02:43:05.000,0.05,0.75
2021-08-19 02:43:05.000,-0.005,0.6
2021-08-19 02:43:06.000,-0.05,0.335
2021-08-19 02:43:06.000,-0.195,0.08
2021-08-19 02:43:06.000,-0.415,0.005
2021-08-19 02:43:06.000,-0.74,0.145
2021-08-19 02:43:06.000,-1.025,0.235
2021-08-19 02:43:07.000,-1.21,0.055
2021-08-19 02:43:07.000,-1.315,-0.205
2021-08-19 02:43:07.000,-1.265,-0.445
2021-08-19 02:43:07.000,-1.01,-0.61
2021-08-19 02:43:08.000,-0.58,-0.65
2021-08-19 02:43:08.000,-0.185,-0.61
2021-08-19 02:43:08.000,0.0,-0.495
2021-08-19 02:43:08.000,0.01,-0.415
2021-08-19 02:43:09.000,0.0,-0.36
2021-08-19 02:43:09.000,-0.02,-0.37
2021-08-19 02:43:09.000,-0.02,-0.36
2021-08-19 02:43:09.000,-0.015,-0.38
2021-08-19 02:43:10.000,0.04,-0.38
2021-08-19 02:43:10.000,0.08,-0.355
2021-08-19 02:43:10.000,0.155,-0.36
2021-08-19 02:43:10.000,0.185,-0.36
2021-08-19 02:43:11.000,0.185,-0.35
2021-08-19 02:43:11.000,0.19,-0.36
2021-08-19 02:43:11.000,0.17,-0.36
2021-08-19 02:43:11.000,0.185,-0.36
2021-08-19 02:43:12.000,0.2,-0.355
2021-08-19 02:43:12.000,0.2,-0.335
2021-08-19 02:43:12.000,0.195,-0.35
2021-08-19 02:43:12.000,0.2,-0.345
2021-08-19 02:43:12.000,0.21,-0.395
2021-08-19 02:43:13.000,0.205,-0.375
2021-08-19 02:43:13.000,0.195,-0.375
2021-08-19 02:43:13.000,0.21,-0.365
2021-08-19 02:43:13.000,0.21,-0.36
2021-08-19 02:43:14.000,0.215,-0.365
2021-08-19 02:43:14.000,0.23,-0.35
2021-08-19 02:43:14.000,0.235,-0.37
2021-08-19 02:43:14.000,0.22,-0.36
2021-08-19 02:43:15.000,0.22,-0.38
2021-08-19 02:43:15.000,0.225,-0.38
2021-08-19 02:43:15.000,0.205,-0.37
2021-08-19 02:43:15.000,0.22,-0.38
2021-08-19 02:43:16.000,0.22,-0.405
2021-08-19 02:43:16.000,0.22,-0.395
2021-08-19 02:43:16.000,0.21,-0.385
2021-08-19 02:43:16.000,0.2,-0.41
2021-08-19 02:43:17.000,0.22,-0.41
2021-08-19 02:43:17.000,0.205,-0.41
2021-08-19 02:43:17.000,0.205,-0.4
2021-08-19 02:43:17.000,0.215,-0.42
2021-08-19 02:43:18.000,0.22,-0.395
2021-08-19 02:43:18.000,0.19,-0.415
2021-08-19 02:43:18.000,0.19,-0.42
2021-08-19 02:43:18.000,0.18,-0.435
2021-08-19 02:43:18.000,0.225,-0.435
2021-08-19 02:43:19.000,0.185,-0.435
2021-08-19 02:43:19.000,0.2,-0.42
2021-08-19 02:43:19.000,0.21,-0.44
2021-08-19 02:43:19.000,0.205,-0.42
2021-08-19 02:43:20.000,0.19,-0.435
2021-08-19 02:43:20.000,0.205,-0.43
2021-08-19 02:43:20.000,0.18,-0.415
2021-08-19 02:43:20.000,0.185,-0.4
2021-08-19 02:43:21.000,0.175,-0.38
2021-08-19 02:43:21.000,0.165,-0.37
2021-08-19 02:43:21.000,0.165,-0.365
2021-08-19 02:43:21.000,0.15,-0.37
2021-08-19 02:43:22.000,0.165,-0.355
2021-08-19 02:43:22.000,0.14,-0.31
2021-08-19 02:43:22.000,0.135,-0.305
2021-08-19 02:43:22.000,0.14,-0.29
2021-08-19 02:43:23.000,0.13,-0.25
2021-08-19 02:43:23.000,0.13,-0.255
2021-08-19 02:43:23.000,0.115,-0.26
2021-08-19 02:43:23.000,0.125,-0.24
2021-08-19 02:43:24.000,0.11,-0.23
2021-08-19 02:43:24.000,0.11,-0.23
2021-08-19 02:43:24.000,0.105,-0.23
2021-08-19 02:43:24.000,0.105,-0.215
2021-08-19 02:43:24.000,0.095,-0.205
2021-08-19 02:43:25.000,0.08,-0.23
2021-08-19 02:43:25.000,0.09,-0.225
2021-08-19 02:43:25.000,0.1,-0.22
2021-08-19 02:43:25.000,0.1,-0.2
2021-08-19 02:43:26.000,0.1,-0.215
2021-08-19 02:43:26.000,0.095,-0.2
2021-08-19 02:43:26.000,0.095,-0.235
2021-08-19 02:43:26.000,0.09,-0.24
2021-08-19 02:43:27.000,0.085,-0.235
2021-08-19 02:43:27.000,0.115,-0.24
2021-08-19 02:43:27.000,0.11,-0.245
2021-08-19 02:43:27.000,0.11,-0.24
2021-08-19 02:43:28.000,0.1,-0.23
2021-08-19 02:43:28.000,0.11,-0.24
2021-08-19 02:43:28.000,0.105,-0.22
2021-08-19 02:43:28.000,0.1,-0.235
2021-08-19 02:43:29.000,0.11,-0.24
2021-08-19 02:43:29.000,0.105,-0.25
2021-08-19 02:43:29.000,0.115,-0.235
2021-08-19 02:43:29.000,0.12,-0.26
2021-08-19 02:43:30.000,0.105,-0.265
2021-08-19 02:43:30.000,0.125,-0.25
2021-08-19 02:43:30.000,0.11,-0.25
2021-08-19 02:43:30.000,0.105,-0.25
2021-08-19 02:43:30.000,0.12,-0.26
2021-08-19 02:43:31.000,0.11,-0.245
2021-08-19 02:43:31.000,0.12,-0.235
2021-08-19 02:43:31.000,0.11,-0.25
2021-08-19 02:43:31.000,0.12,-0.25
2021-08-19 02:43:32.000,0.13,-0.24
2021-08-19 02:43:32.000,0.125,-0.24
2021-08-19 02:43:32.000,0.12,-0.27
2021-08-19 02:43:32.000,0.125,-0.24
2021-08-19 02:43:33.000,0.11,-0.25
2021-08-19 02:43:33.000,0.105,-0.245
2021-08-19 02:43:33.000,0.105,-0.24
2021-08-19 02:43:33.000,0.125,-0.27
2021-08-19 02:43:34.000,0.08,-0.245
2021-08-19 02:43:34.000,0.115,-0.27
2021-08-19 02:43:34.000,0.125,-0.24
2021-08-19 02:43:34.000,0.095,-0.24
2021-08-19 02:43:35.000,0.12,-0.215
2021-08-19 02:43:35.000,0.13,-0.25
2021-08-19 02:43:35.000,0.095,-0.27
2021-08-19 02:43:35.000,0.115,-0.275
2021-08-19 02:43:36.000,0.09,-0.26
2021-08-19 02:43:36.000,0.11,-0.265
2021-08-19 02:43:36.000,0.115,-0.265
2021-08-19 02:43:36.000,0.095,-0.25
2021-08-19 02:43:36.000,0.1,-0.25
2021-08-19 02:43:37.000,0.09,-0.255
2021-08-19 02:43:37.000,0.11,-0.265
2021-08-19 02:43:37.000,0.09,-0.27
2021-08-19 02:43:37.000,0.075,-0.26
2021-08-19 02:43:38.000,0.09,-0.26
2021-08-19 02:43:38.000,0.09,-0.265
2021-08-19 02:43:38.000,0.085,-0.26
2021-08-19 02:43:38.000,0.085,-0.27
2021-08-19 02:43:39.000,0.1,-0.26
2021-08-19 02:43:39.000,0.09,-0.27
2021-08-19 02:43:39.000,0.09,-0.265
2021-08-19 02:43:39.000,0.085,-0.275
2021-08-19 02:43:40.000,0.08,-0.27
2021-08-19 02:43:40.000,0.07,-0.27
2021-08-19 02:43:40.000,0.075,-0.25
2021-08-19 02:43:40.000,0.075,-0.26
2021-08-19 02:43:41.000,0.055,-0.25
2021-08-19 02:43:41.000,0.085,-0.235
2021-08-19 02:43:41.000,0.06,-0.275
2021-08-19 02:43:41.000,0.06,-0.26
2021-08-19 02:43:42.000,0.08,-0.28
2021-08-19 02:43:42.000,0.07,-0.26
2021-08-19 02:43:42.000,0.065,-0.275
2021-08-19 02:43:42.000,0.07,-0.275
2021-08-19 02:43:42.000,0.07,-0.27
2021-08-19 02:43:43.000,0.05,-0.265
2021-08-19 02:43:43.000,0.075,-0.255
2021-08-19 02:43:43.000,0.06,-0.25
2021-08-19 02:43:43.000,0.06,-0.24
2021-08-19 02:43:44.000,0.06,-0.205
2021-08-19 02:43:44.000,0.07,-0.2
2021-08-19 02:43:44.000,0.065,-0.165
2021-08-19 02:43:44.000,0.065,-0.125
2021-08-19 02:43:45.000,0.05,-0.095
2021-08-19 02:43:45.000,0.06,-0.085
2021-08-19 02:43:45.000,0.085,-0.09
2021-08-19 02:43:45.000,0.095,-0.115
2021-08-19 02:43:46.000,0.125,-0.115
2021-08-19 02:43:46.000,0.095,-0.08
2021-08-19 02:43:46.000,0.14,-0.1
2021-08-19 02:43:46.000,0.135,-0.11
2021-08-19 02:43:47.000,0.14,-0.11
2021-08-19 02:43:47.000,0.155,-0.1
2021-08-19 02:43:47.000,0.12,-0.08
2021-08-19 02:43:47.000,0.11,-0.1
2021-08-19 02:43:48.000,0.105,-0.12
2021-08-19 02:43:48.000,0.07,-0.175
2021-08-19 02:43:48.000,0.065,-0.22
2021-08-19 02:43:48.000,0.045,-0.25
2021-08-19 02:43:48.000,0.015,-0.24
2021-08-19 02:43:49.000,0.015,-0.23
2021-08-19 02:43:49.000,0.005,-0.245
2021-08-19 02:43:49.000,-0.02,-0.23
2021-08-19 02:43:49.000,-0.02,-0.225
2021-08-19 02:43:50.000,-0.04,-0.245
2021-08-19 02:43:50.000,-0.035,-0.265
2021-08-19 02:43:50.000,-0.025,-0.255
2021-08-19 02:43:50.000,-0.01,-0.24
2021-08-19 02:43:51.000,0.0,-0.285
2021-08-19 02:43:51.000,0.0,-0.295
2021-08-19 02:43:51.000,0.01,-0.315
2021-08-19 02:43:51.000,0.015,-0.32
2021-08-19 02:43:52.000,0.01,-0.32
2021-08-19 02:43:52.000,0.03,-0.33
2021-08-19 02:43:52.000,0.055,-0.315
2021-08-19 02:43:52.000,0.065,-0.305
2021-08-19 02:43:53.000,0.035,-0.305
2021-08-19 02:43:53.000,0.05,-0.325
2021-08-19 02:43:53.000,0.04,-0.29
2021-08-19 02:43:53.000,0.055,-0.29
2021-08-19 02:43:54.000,0.055,-0.315
2021-08-19 02:43:54.000,0.055,-0.3
2021-08-19 02:43:54.000,0.055,-0.3
2021-08-19 02:43:54.000,0.025,-0.29
2021-08-19 02:43:54.000,0.05,-0.29
2021-08-19 02:43:55.000,0.03,-0.3
2021-08-19 02:43:55.000,0.02,-0.285
2021-08-19 02:43:55.000,0.045,-0.255
2021-08-19 02:43:55.000,0.035,-0.22
2021-08-19 02:43:56.000,0.045,-0.2
2021-08-19 02:43:56.000,0.045,-0.175
2021-08-19 02:43:56.000,0.04,-0.11
2021-08-19 02:43:56.000,0.035,0.1
2021-08-19 02:43:57.000,0.055,0.37
2021-08-19 02:43:57.000,0.06,0.59
2021-08-19 02:43:57.000,0.08,0.755
2021-08-19 02:43:57.000,0.065,0.845
2021-08-19 02:43:58.000,0.015,0.855
2021-08-19 02:43:58.000,-0.02,0.755
2021-08-19 02:43:58.000,-0.07,0.515
2021-08-19 02:43:58.000,-0.145,0.205
2021-08-19 02:43:59.000,-0.32,0.035
2021-08-19 02:43:59.000,-0.595,0.12
2021-08-19 02:43:59.000,-0.92,0.145
2021-08-19 02:43:59.000,-1.14,-0.04
2021-08-19 02:44:00.000,-1.22,-0.33
2021-08-19 02:44:00.000,-1.18,-0.55
2021-08-19 02:44:00.000,-0.975,-0.695
2021-08-19 02:44:00.000,-0.595,-0.72
2021-08-19 02:44:00.000,-0.24,-0.68
2021-08-19 02:44:01.000,-0.09,-0.56
2021-08-19 02:44:01.000,-0.07,-0.49
2021-08-19 02:44:01.000,-0.09,-0.465
2021-08-19 02:44:01.000,-0.095,-0.465
2021-08-19 02:44:02.000,-0.1,-0.47
2021-08-19 02:44:02.000,-0.075,-0.445
2021-08-19 02:44:02.000,-0.015,-0.465
2021-08-19 02:44:02.000,0.01,-0.445
2021-08-19 02:44:03.000,0.065,-0.465
2021-08-19 02:44:03.000,0.07,-0.45
2021-08-19 02:44:03.000,0.11,-0.46
2021-08-19 02:44:03.000,0.12,-0.46
2021-08-19 02:44:04.000,0.135,-0.445
2021-08-19 02:44:04.000,0.1,-0.465
2021-08-19 02:44:04.000,0.125,-0.455
2021-08-19 02:44:04.000,0.125,-0.445
2021-08-19 02:44:05.000,0.13,-0.45
2021-08-19 02:44:05.000,0.15,-0.445
2021-08-19 02:44:05.000,0.115,-0.445
2021-08-19 02:44:05.000,0.12,-0.45
2021-08-19 02:44:06.000,0.12,-0.445
2021-08-19 02:44:06.000,0.14,-0.435
2021-08-19 02:44:06.000,0.145,-0.465
2021-08-19 02:44:06.000,0.14,-0.46
2021-08-19 02:44:06.000,0.125,-0.47
2021-08-19 02:44:07.000,0.135,-0.445
2021-08-19 02:44:07.000,0.155,-0.455
2021-08-19 02:44:07.000,0.135,-0.45
2021-08-19 02:44:07.000,0.14,-0.47
2021-08-19 02:44:08.000,0.155,-0.47
2021-08-19 02:44:08.000,0.16,-0.48
2021-08-19 02:44:08.000,0.125,-0.475
2021-08-19 02:44:08.000,0.135,-0.485
2021-08-19 02:44:09.000,0.13,-0.48
2021-08-19 02:44:09.000,0.135,-0.485
2021-08-19 02:44:09.000,0.145,-0.485
2021-08-19 02:44:09.000,0.155,-0.475
2021-08-19 02:44:10.000,0.14,-0.48
2021-08-19 02:44:10.000,0.16,-0.5
2021-08-19 02:44:10.000,0.135,-0.5
2021-08-19 02:44:10.000,0.15,-0.495
2021-08-19 02:44:11.000,0.13,-0.485
2021-08-19 02:44:11.000,0.145,-0.485
2021-08-19 02:44:11.000,0.14,-0.505
2021-08-19 02:44:11.000,0.15,-0.495
2021-08-19 02:44:12.000,0.145,-0.49
2021-08-19 02:44:12.000,0.16,-0.495
2021-08-19 02:44:12.000,0.145,-0.505
2021-08-19 02:44:12.000,0.145,-0.485
2021-08-19 02:44:12.000,0.135,-0.46
2021-08-19 02:44:13.000,0.15,-0.455
2021-08-19 02:44:13.000,0.16,-0.46
2021-08-19 02:44:13.000,0.15,-0.44
2021-08-19 02:44:13.000,0.14,-0.41
2021-08-19 02:44:14.000,0.15,-0.395
2021-08-19 02:44:14.000,0.14,-0.37
2021-08-19 02:44:14.000,0.145,-0.35
2021-08-19 02:44:14.000,0.145,-0.315
2021-08-19 02:44:15.000,0.12,-0.295
2021-08-19 02:44:15.000,0.115,-0.28
2021-08-19 02:44:15.000,0.095,-0.285
2021-08-19 02:44:15.000,0.08,-0.25
2021-08-19 02:44:16.000,0.1,-0.265
2021-08-19 02:44:16.000,0.09,-0.23
2021-08-19 02:44:16.000,0.065,-0.23
2021-08-19 02:44:16.000,0.1,-0.245
2021-08-19 02:33:35.900,0.245,-0.27
2021-08-19 02:33:35.904,0.19,-0.28
2021-08-19 02:33:35.908,0.18,-0.265
2021-08-19 02:33:35.912,0.15,-0.26
2021-08-19 02:33:35.916,0.14,-0.23
2021-08-19 02:33:35.920,0.11,-0.22
2021-08-19 02:33:35.924,0.125,-0.16
2021-08-19 02:33:35.928,0.115,-0.165
2021-08-19 02:33:35.932,0.13,-0.165
2021-08-19 02:33:35.936,0.135,-0.15
2021-08-19 02:33:35.940,0.13,-0.12
2021-08-19 02:33:35.944,0.135,-0.12
2021-08-19 02:33:35.948,0.13,-0.105
2021-08-19 02:33:35.952,0.12,-0.075
2021-08-19 02:33:35.956,0.115,-0.085
2021-08-19 02:33:35.960,0.12,-0.05
2021-08-19 02:33:35.964,0.135,-0.05
2021-08-19 02:33:35.968,0.12,-0.06
2021-08-19 02:33:35.972,0.095,-0.06
2021-08-19 02:33:35.976,0.125,-0.025
2021-08-19 02:33:35.980,0.11,-0.04
2021-08-19 02:33:35.984,0.11,-0.04
2021-08-19 02:33:35.988,0.12,-0.05
2021-08-19 02:33:35.992,0.105,-0.03
2021-08-19 02:33:35.996,0.11,-0.015
2021-08-19 02:33:36.000,0.105,-0.005
2021-08-19 02:33:36.004,0.12,0.005
2021-08-19 02:33:36.008,0.105,0.005
2021-08-19 02:33:36.012,0.115,0.015
2021-08-19 02:33:36.016,0.135,0.03
2021-08-19 02:33:36.020,0.125,0.055
2021-08-19 02:33:36.024,0.14,0.04
2021-08-19 02:33:36.028,0.18,0.03
2021-08-19 02:33:36.032,0.19,0.025
2021-08-19 02:33:36.036,0.165,0.04
2021-08-19 02:33:36.040,0.215,0.05
2021-08-19 02:33:36.044,0.205,0.06
2021-08-19 02:33:36.048,0.19,0.07
2021-08-19 02:33:36.052,0.185,0.09
2021-08-19 02:33:36.056,0.18,0.095
2021-08-19 02:33:36.060,0.15,0.115
2021-08-19 02:33:36.064,0.145,0.09
2021-08-19 02:33:36.068,0.16,0.06
2021-08-19 02:33:36.072,0.155,0.035
2021-08-19 02:33:36.076,0.145,0.01
2021-08-19 02:33:36.080,0.175,0.01
2021-08-19 02:33:36.084,0.185,0.015
2021-08-19 02:33:36.088,0.21,0.03
2021-08-19 02:33:36.092,0.205,0.03
2021-08-19 02:33:36.096,0.22,0.04
2021-08-19 02:33:36.100,0.2,0.03
2021-08-19 02:33:36.104,0.2,0.025
2021-08-19 02:33:36.108,0.23,0.015
2021-08-19 02:33:36.112,0.255,0.01
2021-08-19 02:33:36.116,0.27,0.005
2021-08-19 02:33:36.120,0.25,0.035
2021-08-19 02:33:36.124,0.245,0.045
2021-08-19 02:33:36.128,0.2,0.08
2021-08-19 02:33:36.132,0.155,0.15
2021-08-19 02:33:36.136,0.105,0.285
2021-08-19 02:33:36.140,0.095,0.475
2021-08-19 02:33:36.144,0.075,0.71
2021-08-19 02:33:36.148,0.04,0.945
2021-08-19 02:33:36.152,0.05,1.21
2021-08-19 02:33:36.156,0.06,1.475
2021-08-19 02:33:36.160,0.09,1.63
2021-08-19 02:33:36.164,0.125,1.595
2021-08-19 02:33:36.168,0.14,1.395
2021-08-19 02:33:36.172,0.035,1.09
2021-08-19 02:33:36.176,-0.14,0.73
2021-08-19 02:33:36.180,-0.32,0.445
2021-08-19 02:33:36.184,-0.595,0.3
2021-08-19 02:33:36.188,-0.89,0.295
2021-08-19 02:33:36.192,-1.125,0.425
2021-08-19 02:33:36.196,-1.315,0.485
2021-08-19 02:33:36.200,-1.415,0.31
2021-08-19 02:33:36.204,-1.425,0.03
2021-08-19 02:33:36.208,-1.275,-0.19
2021-08-19 02:33:36.212,-0.96,-0.38
2021-08-19 02:33:36.216,-0.585,-0.45
2021-08-19 02:33:36.220,-0.23,-0.43
2021-08-19 02:33:36.224,-0.06,-0.35
2021-08-19 02:33:36.228,0.015,-0.24
2021-08-19 02:33:36.232,-0.01,-0.2
2021-08-19 02:33:36.236,-0.035,-0.175
2021-08-19 02:33:36.240,-0.03,-0.15
2021-08-19 02:33:36.244,-0.025,-0.15
2021-08-19 02:33:36.248,-0.01,-0.17
2021-08-19 02:33:36.252,0.035,-0.15
2021-08-19 02:33:36.256,0.115,-0.195
2021-08-19 02:33:36.260,0.165,-0.21
2021-08-19 02:33:36.264,0.205,-0.235
2021-08-19 02:33:36.268,0.2,-0.24
2021-08-19 02:33:36.272,0.215,-0.245
2021-08-19 02:33:36.276,0.23,-0.245
2021-08-19 02:33:36.280,0.25,-0.23
2021-08-19 02:33:36.284,0.25,-0.225
2021-08-19 02:33:36.288,0.28,-0.23
2021-08-19 02:33:36.292,0.31,-0.22
2021-08-19 02:33:36.296,0.29,-0.215
2021-08-19 02:33:36.300,0.305,-0.19
2021-08-19 02:33:36.304,0.34,-0.21
2021-08-19 02:33:36.308,0.33,-0.2
2021-08-19 02:33:36.312,0.32,-0.2
2021-08-19 02:33:36.316,0.305,-0.22
2021-08-19 02:33:36.320,0.295,-0.23
2021-08-19 02:33:36.324,0.26,-0.27
2021-08-19 02:33:36.328,0.225,-0.25
2021-08-19 02:33:36.332,0.23,-0.26
2021-08-19 02:33:36.336,0.19,-0.265
2021-08-19 02:33:36.340,0.195,-0.265
2021-08-19 02:33:36.344,0.2,-0.285
2021-08-19 02:33:36.348,0.19,-0.27
2021-08-19 02:33:36.352,0.205,-0.27
2021-08-19 02:33:36.356,0.215,-0.27
2021-08-19 02:33:36.360,0.205,-0.255
2021-08-19 02:33:36.364,0.225,-0.245
2021-08-19 02:33:36.368,0.21,-0.21
2021-08-19 02:33:36.372,0.23,-0.185
2021-08-19 02:33:36.376,0.215,-0.19
2021-08-19 02:33:36.380,0.23,-0.18
2021-08-19 02:33:36.384,0.245,-0.19
2021-08-19 02:33:36.388,0.27,-0.18
2021-08-19 02:33:36.392,0.285,-0.165
2021-08-19 02:33:36.396,0.29,-0.185
2021-08-19 02:33:36.400,0.32,-0.21
2021-08-19 02:33:36.404,0.3,-0.2
2021-08-19 02:33:36.408,0.335,-0.195
2021-08-19 02:33:36.412,0.325,-0.215
2021-08-19 02:33:36.416,0.335,-0.215
2021-08-19 02:33:36.420,0.315,-0.22
2021-08-19 02:33:36.424,0.305,-0.2
2021-08-19 02:33:36.428,0.315,-0.18
2021-08-19 02:33:36.432,0.32,-0.15
2021-08-19 02:33:36.436,0.32,-0.145
2021-08-19 02:33:36.440,0.33,-0.16
2021-08-19 02:33:36.444,0.315,-0.12
2021-08-19 02:33:36.448,0.325,-0.125
2021-08-19 02:33:36.452,0.325,-0.11
2021-08-19 02:33:36.456,0.315,-0.09
2021-08-19 02:33:36.460,0.34,-0.07
2021-08-19 02:33:36.464,0.345,-0.04
2021-08-19 02:33:36.468,0.33,-0.02
2021-08-19 02:33:36.472,0.36,0.04
2021-08-19 02:33:36.476,0.375,0.09
2021-08-19 02:33:36.480,0.385,0.2
2021-08-19 02:33:36.484,0.38,0.36
2021-08-19 02:33:36.488,0.365,0.52
2021-08-19 02:33:36.492,0.315,0.64
2021-08-19 02:33:36.496,0.305,0.77
2021-08-19 02:33:36.500,0.255,0.965
2021-08-19 02:33:36.504,0.23,1.185
2021-08-19 02:33:36.508,0.23,1.25
2021-08-19 02:33:36.512,0.205,1.085
2021-08-19 02:33:36.516,0.145,0.795
2021-08-19 02:33:36.520,-0.05,0.485
2021-08-19 02:33:36.524,-0.3,0.12
2021-08-19 02:33:36.528,-0.58,-0.17
2021-08-19 02:33:36.532,-0.88,-0.245
2021-08-19 02:33:36.536,-1.175,-0.08
2021-08-19 02:33:36.540,-1.38,0.13
2021-08-19 02:33:36.544,-1.545,0.26
2021-08-19 02:33:36.548,-1.565,0.215
2021-08-19 02:33:36.552,-1.455,0.085
2021-08-19 02:33:36.556,-1.3,-0.1
2021-08-19 02:33:36.560,-1.015,-0.305
2021-08-19 02:33:36.564,-0.66,-0.415
2021-08-19 02:33:36.568,-0.33,-0.38
2021-08-19 02:33:36.572,-0.12,-0.255
2021-08-19 02:33:36.576,-0.02,-0.165
2021-08-19 02:33:36.580,0.0,-0.1
2021-08-19 02:33:36.584,0.02,-0.11
2021-08-19 02:33:36.588,0.025,-0.1
2021-08-19 02:33:36.592,0.06,-0.12
2021-08-19 02:33:36.596,0.105,-0.12
2021-08-19 02:33:36.600,0.175,-0.12
2021-08-19 02:33:36.604,0.22,-0.135
2021-08-19 02:33:36.608,0.23,-0.16
2021-08-19 02:33:36.612,0.255,-0.155
2021-08-19 02:33:36.616,0.24,-0.17
2021-08-19 02:33:36.620,0.25,-0.165
2021-08-19 02:33:36.624,0.255,-0.185
2021-08-19 02:33:36.628,0.27,-0.19
2021-08-19 02:33:36.632,0.28,-0.16
2021-08-19 02:33:36.636,0.25,-0.14
2021-08-19 02:33:36.640,0.28,-0.135
2021-08-19 02:33:36.644,0.285,-0.12
2021-08-19 02:33:36.648,0.29,-0.14
2021-08-19 02:33:36.652,0.325,-0.155
2021-08-19 02:33:36.656,0.34,-0.14
2021-08-19 02:33:36.660,0.345,-0.13
2021-08-19 02:33:36.664,0.365,-0.12
2021-08-19 02:33:36.668,0.39,-0.12
2021-08-19 02:33:36.672,0.38,-0.12
2021-08-19 02:33:36.676,0.36,-0.115
2021-08-19 02:33:36.680,0.335,-0.135
2021-08-19 02:33:36.684,0.325,-0.145
2021-08-19 02:33:36.688,0.28,-0.155
2021-08-19 02:33:36.692,0.27,-0.15
2021-08-19 02:33:36.696,0.26,-0.165
2021-08-19 02:33:36.700,0.255,-0.13
2021-08-19 02:33:36.704,0.245,-0.14
2021-08-19 02:33:36.708,0.275,-0.155
2021-08-19 02:33:36.712,0.245,-0.135
2021-08-19 02:33:36.716,0.255,-0.135
2021-08-19 02:33:36.720,0.25,-0.125
2021-08-19 02:33:36.724,0.255,-0.125
2021-08-19 02:33:36.728,0.27,-0.125
2021-08-19 02:33:36.732,0.275,-0.125
2021-08-19 02:33:36.736,0.285,-0.105
2021-08-19 02:33:36.740,0.3,-0.105
2021-08-19 02:33:36.744,0.285,-0.08
2021-08-19 02:33:36.748,0.305,-0.06
2021-08-19 02:33:36.752,0.305,-0.03
2021-08-19 02:33:36.756,0.31,0.005
2021-08-19 02:33:36.760,0.31,0.05
2021-08-19 02:33:36.764,0.335,0.1
2021-08-19 02:33:36.768,0.335,0.095
2021-08-19 02:33:36.772,0.355,0.14
2021-08-19 02:33:36.776,0.355,0.155
2021-08-19 02:33:36.780,0.35,0.155
2021-08-19 02:33:36.784,0.38,0.16
2021-08-19 02:33:36.788,0.39,0.16
2021-08-19 02:33:36.792,0.41,0.16
2021-08-19 02:33:36.796,0.405,0.175
2021-08-19 02:33:36.800,0.395,0.15
2021-08-19 02:33:36.804,0.37,0.145
2021-08-19 02:33:36.808,0.36,0.115
2021-08-19 02:33:36.812,0.35,0.115
2021-08-19 02:33:36.816,0.3,0.1
2021-08-19 02:33:36.820,0.3,0.095
2021-08-19 02:33:36.824,0.245,0.095
2021-08-19 02:33:36.828,0.26,0.085
2021-08-19 02:33:36.832,0.24,0.105
2021-08-19 02:33:36.836,0.22,0.125
2021-08-19 02:33:36.840,0.19,0.13
2021-08-19 02:33:36.844,0.18,0.11
2021-08-19 02:33:36.848,0.185,0.11
2021-08-19 02:33:36.852,0.225,0.085
2021-08-19 02:33:36.856,0.245,0.095
2021-08-19 02:33:36.860,0.25,0.09
2021-08-19 02:33:36.864,0.265,0.08
2021-08-19 02:33:36.868,0.265,0.07
2021-08-19 02:33:36.872,0.245,0.05
2021-08-19 02:33:36.876,0.21,0.03
2021-08-19 02:33:36.880,0.16,0.03
2021-08-19 02:33:36.884,0.13,0.025
2021-08-19 02:33:36.888,0.085,0.01
2021-08-19 02:33:36.892,0.075,0.02
2021-08-19 02:33:36.896,0.055,0.005
2021-08-19 02:33:36.900,0.065,-0.015
2021-08-19 02:33:36.904,0.05,0.005
2021-08-19 02:33:36.908,0.04,0.0
2021-08-19 02:33:36.912,0.055,-0.005
2021-08-19 02:33:36.916,0.065,0.0
2021-08-19 02:33:36.920,0.05,0.0
2021-08-19 02:33:36.924,0.055,0.005
2021-08-19 02:33:36.928,0.075,-0.015
2021-08-19 02:33:36.932,0.065,0.005
2021-08-19 02:33:36.936,0.05,0.0
2021-08-19 02:33:36.940,0.07,0.0
2021-08-19 02:33:36.944,0.065,0.005
2021-08-19 02:33:36.948,0.08,0.02
2021-08-19 02:33:36.952,0.075,0.035
2021-08-19 02:33:36.956,0.085,0.03
2021-08-19 02:33:36.960,0.08,0.055
2021-08-19 02:33:36.964,0.085,0.08
2021-08-19 02:33:36.968,0.085,0.095
2021-08-19 02:33:36.972,0.115,0.115
2021-08-19 02:33:36.976,0.11,0.12
2021-08-19 02:33:36.980,0.095,0.105
2021-08-19 02:33:36.984,0.115,0.11
2021-08-19 02:33:36.988,0.14,0.095
2021-08-19 02:33:36.992,0.15,0.09
2021-08-19 02:33:36.996,0.16,0.085
2021-08-19 02:33:37.000,0.165,0.075
2021-08-19 02:33:37.004,0.15,0.06
2021-08-19 02:33:37.008,0.15,0.06
2021-08-19 02:33:37.012,0.14,0.045
2021-08-19 02:33:37.016,0.145,0.07
2021-08-19 02:33:37.020,0.14,0.075
2021-08-19 02:33:37.024,0.15,0.065
2021-08-19 02:33:37.028,0.13,0.075
2021-08-19 02:33:37.032,0.135,0.105
2021-08-19 02:33:37.036,0.145,0.14
2021-08-19 02:33:37.040,0.135,0.15
2021-08-19 02:33:37.044,0.135,0.135
2021-08-19 02:33:37.048,0.15,0.115
2021-08-19 02:33:37.052,0.155,0.07
2021-08-19 02:33:37.056,0.165,0.055
2021-08-19 02:33:37.060,0.2,0.035
2021-08-19 02:33:37.064,0.215,0.02
2021-08-19 02:33:37.068,0.215,0.015
2021-08-19 02:33:37.072,0.235,0.0
2021-08-19 02:33:37.076,0.18,0.005
2021-08-19 02:33:37.080,0.14,0.005
2021-08-19 02:33:37.084,0.12,-0.025
2021-08-19 02:33:37.088,0.095,-0.04
2021-08-19 02:33:37.092,0.06,-0.02
2021-08-19 02:33:37.096,0.065,-0.04
2021-08-19 02:33:37.100,0.05,-0.05
2021-08-19 02:33:37.104,0.07,-0.045
2021-08-19 02:33:37.108,0.04,-0.04
2021-08-19 02:33:37.112,0.04,-0.03
2021-08-19 02:33:37.116,0.045,-0.06
2021-08-19 02:33:37.120,0.065,-0.015
2021-08-19 02:33:37.124,0.055,0.0
2021-08-19 02:33:37.128,0.045,0.01
2021-08-19 02:33:37.132,0.06,0.02
2021-08-19 02:33:37.136,0.055,0.015
2021-08-19 02:33:37.140,0.07,0.015
2021-08-19 02:33:37.144,0.07,0.03
2021-08-19 02:33:37.148,0.09,0.03
2021-08-19 02:33:37.152,0.09,0.055
2021-08-19 02:33:37.156,0.095,0.075
2021-08-19 02:33:37.160,0.1,0.085
2021-08-19 02:33:37.164,0.1,0.085
2021-08-19 02:33:37.168,0.11,0.105
2021-08-19 02:33:37.172,0.12,0.125
2021-08-19 02:33:37.176,0.11,0.12
2021-08-19 02:33:37.180,0.125,0.105
2021-08-19 02:33:37.184,0.115,0.11
2021-08-19 02:33:37.188,0.14,0.125
2021-08-19 02:33:37.192,0.12,0.105
2021-08-19 02:33:37.196,0.125,0.095
2021-08-19 02:33:37.200,0.125,0.09
2021-08-19 02:33:37.204,0.135,0.075
2021-08-19 02:33:37.208,0.14,0.065
2021-08-19 02:33:37.212,0.115,0.06
2021-08-19 02:33:37.216,0.12,0.055
2021-08-19 02:33:37.220,0.15,0.04
2021-08-19 02:33:37.224,0.15,0.045
2021-08-19 02:33:37.228,0.12,0.055
2021-08-19 02:33:37.232,0.125,0.055
2021-08-19 02:33:37.236,0.12,0.045
2021-08-19 02:33:37.240,0.105,0.04
2021-08-19 02:33:37.244,0.125,0.075
2021-08-19 02:33:37.248,0.105,0.07
2021-08-19 02:33:37.252,0.115,0.07
2021-08-19 02:33:37.256,0.135,0.06
2021-08-19 02:33:37.260,0.145,0.065
2021-08-19 02:33:37.264,0.165,0.065
2021-08-19 02:33:37.268,0.185,0.035
2021-08-19 02:33:37.272,0.165,0.025
2021-08-19 02:33:37.276,0.18,0.025
2021-08-19 02:33:37.280,0.165,0.015
2021-08-19 02:33:37.284,0.14,0.015
2021-08-19 02:33:37.288,0.12,0.0
2021-08-19 02:33:37.292,0.1,0.015
2021-08-19 02:33:37.296,0.065,0.01
2021-08-19 02:33:37.300,0.065,-0.025
2021-08-19 02:33:37.304,0.035,-0.015
2021-08-19 02:33:37.308,0.055,0.0
2021-08-19 02:33:37.312,0.055,-0.005
2021-08-19 02:33:37.316,0.05,-0.005
2021-08-19 02:33:37.320,0.04,-0.02
2021-08-19 02:33:37.324,0.055,-0.025
2021-08-19 02:33:37.328,0.045,-0.025
2021-08-19 02:33:37.332,0.05,-0.01
2021-08-19 02:33:37.336,0.06,-0.015
2021-08-19 02:33:37.340,0.065,-0.005
2021-08-19 02:33:37.344,0.045,0.015
2021-08-19 02:33:37.348,0.04,0.035
2021-08-19 02:33:37.352,0.065,0.065
2021-08-19 02:33:37.356,0.08,0.09
2021-08-19 02:33:37.360,0.075,0.09
2021-08-19 02:33:37.364,0.095,0.105
2021-08-19 02:33:37.368,0.105,0.12
2021-08-19 02:33:37.372,0.095,0.12
2021-08-19 02:33:37.376,0.1,0.14
2021-08-19 02:33:37.380,0.125,0.12
2021-08-19 02:33:37.384,0.115,0.095
2021-08-19 02:33:37.388,0.135,0.085
2021-08-19 02:33:37.392,0.125,0.07
2021-08-19 02:33:37.396,0.125,0.07
2021-08-19 02:33:37.400,0.085,0.06
2021-08-19 02:33:37.404,0.085,0.075
2021-08-19 02:33:37.408,0.095,0.04
2021-08-19 02:33:37.412,0.115,0.05
2021-08-19 02:33:37.416,0.085,0.02
2021-08-19 02:33:37.420,0.105,0.015
2021-08-19 02:33:37.424,0.08,-0.005
2021-08-19 02:33:37.428,0.085,0.03
2021-08-19 02:33:37.432,0.08,0.02
2021-08-19 02:33:37.436,0.09,0.02
2021-08-19 02:33:37.440,0.065,0.02
2021-08-19 02:33:37.444,0.075,0.06
2021-08-19 02:33:37.448,0.085,0.08
2021-08-19 02:33:37.452,0.11,0.085
2021-08-19 02:33:37.456,0.12,0.1
2021-08-19 02:33:37.460,0.135,0.105
2021-08-19 02:33:37.464,0.15,0.095
2021-08-19 02:33:37.468,0.135,0.1
2021-08-19 02:33:37.472,0.145,0.07
2021-08-19 02:33:37.476,0.105,0.045
2021-08-19 02:33:37.480,0.08,0.03
2021-08-19 02:33:37.484,0.075,0.015
2021-08-19 02:33:37.488,0.055,-0.015
2021-08-19 02:33:37.492,0.035,-0.005
2021-08-19 02:33:37.496,0.035,-0.01
2021-08-19 02:33:37.500,0.04,-0.02
2021-08-19 02:33:37.504,0.02,-0.045
2021-08-19 02:33:37.508,0.015,-0.045
2021-08-19 02:33:37.512,0.0,-0.04
2021-08-19 02:33:37.516,0.02,-0.06
2021-08-19 02:33:37.520,0.015,-0.015
2021-08-19 02:33:37.524,0.005,-0.035
2021-08-19 02:33:37.528,0.02,-0.04
2021-08-19 02:33:37.532,0.025,-0.025
2021-08-19 02:33:37.536,0.01,-0.005
2021-08-19 02:33:37.540,0.025,-0.005
2021-08-19 02:33:37.544,0.05,-0.005
2021-08-19 02:33:37.548,0.045,-0.01
2021-08-19 02:33:37.552,0.045,0.015
2021-08-19 02:33:37.556,0.035,0.055
2021-08-19 02:33:37.560,0.065,0.05
2021-08-19 02:33:37.564,0.055,0.095
2021-08-19 02:33:37.568,0.05,0.14
2021-08-19 02:33:37.572,0.06,0.17
2021-08-19 02:33:37.576,0.05,0.225
2021-08-19 02:33:37.580,0.06,0.395
2021-08-19 02:33:37.584,0.07,0.7
2021-08-19 02:33:37.588,0.085,1.01
2021-08-19 02:33:37.592,0.115,1.24
2021-08-19 02:33:37.596,0.14,1.385
2021-08-19 02:33:37.600,0.13,1.455
2021-08-19 02:33:37.604,0.095,1.42
2021-08-19 02:33:37.608,0.075,1.225
2021-08-19 02:33:37.612,0.05,0.885
2021-08-19 02:33:37.616,-0.015,0.42
2021-08-19 02:33:37.620,-0.165,0.115
2021-08-19 02:33:37.624,-0.38,0.095
2021-08-19 02:33:37.628,-0.68,0.265
2021-08-19 02:33:37.632,-0.945,0.33
2021-08-19 02:33:37.636,-1.09,0.085
2021-08-19 02:33:37.640,-1.12,-0.215
2021-08-19 02:33:37.644,-1.02,-0.475
2021-08-19 02:33:37.648,-0.76,-0.595
2021-08-19 02:33:37.652,-0.45,-0.62
2021-08-19 02:33:37.656,-0.21,-0.53
2021-08-19 02:33:37.660,-0.125,-0.385
2021-08-19 02:33:37.664,-0.14,-0.26
2021-08-19 02:33:37.668,-0.165,-0.21
2021-08-19 02:33:37.672,-0.19,-0.21
2021-08-19 02:33:37.676,-0.195,-0.215
2021-08-19 02:33:37.680,-0.155,-0.235
2021-08-19 02:33:37.684,-0.09,-0.225
2021-08-19 02:33:37.688,-0.015,-0.24
2021-08-19 02:33:37.692,0.035,-0.235
2021-08-19 02:33:37.696,0.095,-0.25
2021-08-19 02:33:37.700,0.1,-0.25
2021-08-19 02:33:37.704,0.12,-0.23
2021-08-19 02:33:37.708,0.12,-0.24
2021-08-19 02:33:37.712,0.105,-0.23
2021-08-19 02:33:37.716,0.12,-0.225
2021-08-19 02:33:37.720,0.125,-0.2
2021-08-19 02:33:37.724,0.14,-0.195
2021-08-19 02:33:37.728,0.15,-0.195
2021-08-19 02:33:37.732,0.165,-0.185
2021-08-19 02:33:37.736,0.165,-0.19
2021-08-19 02:33:37.740,0.175,-0.215
2021-08-19 02:33:37.744,0.19,-0.215
2021-08-19 02:33:37.748,0.205,-0.215
2021-08-19 02:33:37.752,0.195,-0.22
2021-08-19 02:33:37.756,0.195,-0.215
2021-08-19 02:33:37.760,0.205,-0.215
2021-08-19 02:33:37.764,0.21,-0.21
2021-08-19 02:33:37.768,0.19,-0.205
2021-08-19 02:33:37.772,0.185,-0.215
2021-08-19 02:33:37.776,0.185,-0.225
2021-08-19 02:33:37.780,0.185,-0.25
2021-08-19 02:33:37.784,0.19,-0.24
2021-08-19 02:33:37.788,0.195,-0.245
2021-08-19 02:33:37.792,0.19,-0.25
2021-08-19 02:33:37.796,0.185,-0.28
2021-08-19 02:33:37.800,0.19,-0.27
2021-08-19 02:33:37.804,0.175,-0.285
2021-08-19 02:33:37.808,0.165,-0.275
2021-08-19 02:33:37.812,0.145,-0.245
2021-08-19 02:33:37.816,0.125,-0.21
2021-08-19 02:33:37.820,0.115,-0.19
2021-08-19 02:33:37.824,0.105,-0.18
2021-08-19 02:33:37.828,0.075,-0.14
2021-08-19 02:33:37.832,0.06,-0.135
2021-08-19 02:33:37.836,0.075,-0.13
2021-08-19 02:33:37.840,0.07,-0.145
2021-08-19 02:33:37.844,0.1,-0.16
2021-08-19 02:33:37.848,0.11,-0.195
2021-08-19 02:33:37.852,0.11,-0.195
2021-08-19 02:33:37.856,0.11,-0.2
2021-08-19 02:33:37.860,0.105,-0.2
2021-08-19 02:33:37.864,0.115,-0.16
2021-08-19 02:33:37.868,0.115,-0.14
2021-08-19 02:33:37.872,0.115,-0.125
2021-08-19 02:33:37.876,0.13,-0.12
2021-08-19 02:33:37.880,0.13,-0.12
2021-08-19 02:33:37.884,0.13,-0.08
2021-08-19 02:33:37.888,0.155,-0.075
2021-08-19 02:33:37.892,0.15,-0.06
2021-08-19 02:33:37.896,0.17,-0.04
2021-08-19 02:33:37.900,0.18,-0.03
2021-08-19 02:33:37.904,0.18,-0.005
2021-08-19 02:33:37.908,0.21,0.02
2021-08-19 02:33:37.912,0.22,0.035
2021-08-19 02:33:37.916,0.255,0.045
2021-08-19 02:33:37.920,0.23,0.06
2021-08-19 02:33:37.924,0.235,0.085
2021-08-19 02:33:37.928,0.25,0.105
2021-08-19 02:33:37.932,0.255,0.13
2021-08-19 02:33:37.936,0.255,0.165
2021-08-19 02:33:37.940,0.27,0.165
2021-08-19 02:33:37.944,0.275,0.175
2021-08-19 02:33:37.948,0.255,0.195
2021-08-19 02:33:37.952,0.27,0.19
2021-08-19 02:33:37.956,0.265,0.22
2021-08-19 02:33:37.960,0.27,0.185
2021-08-19 02:33:37.964,0.23,0.18
2021-08-19 02:33:37.968,0.255,0.17
2021-08-19 02:33:37.972,0.24,0.15
2021-08-19 02:33:37.976,0.235,0.155
2021-08-19 02:33:37.980,0.22,0.145
2021-08-19 02:33:37.984,0.2,0.14
2021-08-19 02:33:37.988,0.19,0.14
2021-08-19 02:33:37.992,0.175,0.14
2021-08-19 02:33:37.996,0.135,0.135
2021-08-19 02:33:38.000,0.13,0.145
2021-08-19 02:33:38.004,0.115,0.12
2021-08-19 02:33:38.008,0.105,0.125
2021-08-19 02:33:38.012,0.11,0.15
2021-08-19 02:33:38.016,0.105,0.155
2021-08-19 02:33:38.020,0.09,0.165
2021-08-19 02:33:38.024,0.12,0.15
2021-08-19 02:33:38.028,0.125,0.145
2021-08-19 02:33:38.032,0.12,0.14
2021-08-19 02:33:38.036,0.12,0.115
2021-08-19 02:33:38.040,0.155,0.09
2021-08-19 02:33:38.044,0.145,0.05
2021-08-19 02:33:38.048,0.17,0.03
2021-08-19 02:33:38.052,0.17,0.015
2021-08-19 02:33:38.056,0.17,-0.015
2021-08-19 02:33:38.060,0.165,-0.025
2021-08-19 02:33:38.064,0.185,0.0
2021-08-19 02:33:38.068,0.145,0.0
2021-08-19 02:33:38.072,0.15,0.0
2021-08-19 02:33:38.076,0.165,0.0
2021-08-19 02:33:38.080,0.155,-0.005
2021-08-19 02:33:38.084,0.15,-0.02
2021-08-19 02:33:38.088,0.17,-0.01
2021-08-19 02:33:38.092,0.17,-0.005
2021-08-19 02:33:38.096,0.21,-0.01
2021-08-19 02:33:38.100,0.2,-0.02
2021-08-19 02:33:38.104,0.21,-0.03
2021-08-19 02:33:38.108,0.205,-0.01
2021-08-19 02:33:38.112,0.21,-0.015
2021-08-19 02:33:38.116,0.21,0.0
2021-08-19 02:33:38.120,0.215,-0.015
2021-08-19 02:33:38.124,0.235,-0.01
2021-08-19 02:33:38.128,0.215,0.005
2021-08-19 02:33:38.132,0.205,0.005
2021-08-19 02:33:38.136,0.22,0.01
2021-08-19 02:33:38.140,0.2,-0.03
2021-08-19 02:33:38.144,0.22,-0.035
2021-08-19 02:33:38.148,0.215,-0.05
2021-08-19 02:33:38.152,0.23,-0.055
2021-08-19 02:33:38.156,0.215,-0.085
2021-08-19 02:33:38.160,0.205,-0.11
2021-08-19 02:33:38.164,0.205,-0.11
2021-08-19 02:33:38.168,0.205,-0.16
2021-08-19 02:33:38.172,0.195,-0.155
2021-08-19 02:33:38.176,0.165,-0.175
2021-08-19 02:33:38.180,0.16,-0.195
2021-08-19 02:33:38.184,0.15,-0.19
2021-08-19 02:33:38.188,0.115,-0.18
2021-08-19 02:33:38.192,0.105,-0.13
2021-08-19 02:33:38.196,0.075,-0.13
2021-08-19 02:33:38.200,0.055,-0.125
2021-08-19 02:33:38.204,0.025,-0.115
2021-08-19 02:33:38.208,-0.005,-0.105
2021-08-19 02:33:38.212,-0.01,-0.075
2021-08-19 02:33:38.216,0.02,-0.095
2021-08-19 02:33:38.220,0.015,-0.065
2021-08-19 02:33:38.224,0.02,-0.085
2021-08-19 02:33:38.228,0.04,-0.08
2021-08-19 02:33:38.232,0.06,-0.08
2021-08-19 02:33:38.236,0.07,-0.095
2021-08-19 02:33:38.240,0.07,-0.12
2021-08-19 02:33:38.244,0.075,-0.14
