Time,ECG1,ECG2
2021-08-19 13:33:54.652,0.59,1.48
2021-08-19 13:33:54.656,0.6,1.47
2021-08-19 13:33:54.660,0.58,1.515
2021-08-19 13:33:54.664,0.59,1.525
2021-08-19 13:33:54.668,0.575,1.53
2021-08-19 13:33:54.672,0.54,1.52
2021-08-19 13:33:54.676,0.5,1.515
2021-08-19 13:33:54.680,0.475,1.525
2021-08-19 13:33:54.684,0.48,1.51
2021-08-19 13:33:54.688,0.465,1.505
2021-08-19 13:33:54.692,0.43,1.45
2021-08-19 13:33:54.696,0.455,1.445
2021-08-19 13:33:54.700,0.515,1.395
2021-08-19 13:33:54.704,0.535,1.335
2021-08-19 13:33:54.708,0.455,1.285
2021-08-19 13:33:54.712,0.3,1.25
2021-08-19 13:33:54.716,0.16,1.19
2021-08-19 13:33:54.720,0.08,1.11
2021-08-19 13:33:54.724,0.015,1.06
2021-08-19 13:33:54.728,-0.02,1.02
2021-08-19 13:33:54.732,-0.05,0.95
2021-08-19 13:33:54.736,-0.04,0.86
2021-08-19 13:33:54.740,-0.005,0.785
2021-08-19 13:33:54.744,0.03,0.705
2021-08-19 13:33:54.748,0.04,0.63
2021-08-19 13:33:54.752,0.045,0.595
2021-08-19 13:33:54.756,0.06,0.575
2021-08-19 13:33:54.760,0.11,0.535
2021-08-19 13:33:54.764,0.12,0.495
2021-08-19 13:33:54.768,0.125,0.44
2021-08-19 13:33:54.772,0.115,0.39
2021-08-19 13:33:54.776,0.13,0.35
2021-08-19 13:33:54.780,0.15,0.345
2021-08-19 13:33:54.784,0.175,0.365
2021-08-19 13:33:54.788,0.24,0.4
2021-08-19 13:33:54.792,0.32,0.395
2021-08-19 13:33:54.796,0.385,0.43
2021-08-19 13:33:54.800,0.35,0.46
2021-08-19 13:33:54.804,0.165,0.455
2021-08-19 13:33:54.808,-0.015,0.475
2021-08-19 13:33:54.812,-0.095,0.44
2021-08-19 13:33:54.816,-0.12,0.37
2021-08-19 13:33:54.820,-0.12,0.3
2021-08-19 13:33:54.824,-0.07,0.26
2021-08-19 13:33:54.828,0.0,0.22
2021-08-19 13:33:54.832,0.115,0.17
2021-08-19 13:33:54.836,0.265,0.14
2021-08-19 13:33:54.840,0.39,0.165
2021-08-19 13:33:54.844,0.265,0.22
2021-08-19 13:33:54.848,-0.025,0.255
2021-08-19 13:33:54.852,-0.485,0.255
2021-08-19 13:33:54.856,-1.075,0.175
2021-08-19 13:33:54.860,-1.59,-0.13
2021-08-19 13:33:54.952,-0.58,-1.935
2021-08-19 13:33:54.956,-0.395,-1.56
2021-08-19 13:33:54.960,-0.185,-1.175
2021-08-19 13:33:54.964,0.0,-0.835
2021-08-19 13:33:54.968,0.165,-0.535
2021-08-19 13:33:54.972,0.31,-0.28
2021-08-19 13:33:54.976,0.415,-0.005
2021-08-19 13:33:54.980,0.455,0.23
2021-08-19 13:33:54.984,0.52,0.46
2021-08-19 13:33:54.988,0.515,0.675
2021-08-19 13:33:54.992,0.475,0.81
2021-08-19 13:33:54.996,0.31,0.855
2021-08-19 13:33:55.000,0.17,0.825
2021-08-19 13:33:55.004,0.145,0.82
2021-08-19 13:33:55.008,0.135,0.81
2021-08-19 13:33:55.012,0.145,0.805
2021-08-19 13:33:55.016,0.17,0.86
2021-08-19 13:33:55.020,0.205,0.84
2021-08-19 13:33:55.024,0.255,0.805
2021-08-19 13:33:55.028,0.365,0.79
2021-08-19 13:33:55.032,0.435,0.805
2021-08-19 13:33:55.036,0.35,0.845
2021-08-19 13:33:55.040,0.185,0.875
2021-08-19 13:33:55.044,0.06,0.835
2021-08-19 13:33:55.048,0.08,0.82
2021-08-19 13:33:55.052,0.12,0.85
2021-08-19 13:33:55.056,0.15,0.88
2021-08-19 13:33:55.060,0.16,0.92
2021-08-19 13:33:55.064,0.21,0.94
2021-08-19 13:33:55.068,0.21,0.965
2021-08-19 13:33:55.072,0.27,0.97
2021-08-19 13:33:55.076,0.355,0.985
2021-08-19 13:33:55.080,0.425,1.015
2021-08-19 13:33:55.084,0.41,1.045
2021-08-19 13:33:55.088,0.385,1.045
2021-08-19 13:33:55.092,0.315,1.075
2021-08-19 13:33:55.096,0.225,1.115
2021-08-19 13:33:55.100,0.175,1.145
2021-08-19 13:33:55.104,0.175,1.185
2021-08-19 13:33:55.108,0.21,1.17
2021-08-19 13:33:55.112,0.27,1.205
2021-08-19 13:33:55.116,0.295,1.24
2021-08-19 13:33:55.120,0.37,1.255
2021-08-19 13:33:55.124,0.385,1.24
2021-08-19 13:33:55.128,0.465,1.27
2021-08-19 13:33:55.132,0.58,1.32
2021-08-19 13:33:55.136,0.545,1.36
2021-08-19 13:33:55.140,0.415,1.365
2021-08-19 13:33:55.144,0.335,1.38
2021-08-19 13:33:55.148,0.415,1.355
2021-08-19 13:33:55.152,0.49,1.38
2021-08-19 13:33:55.156,0.545,1.39
2021-08-19 13:33:55.160,0.54,1.415
2021-08-19 13:33:55.164,0.52,1.415
2021-08-19 13:33:55.168,0.51,1.425
2021-08-19 13:33:55.172,0.49,1.405
2021-08-19 13:33:55.176,0.55,1.34
2021-08-19 13:33:55.180,0.53,1.26
2021-08-19 13:33:55.184,0.375,1.17
2021-08-19 13:33:55.188,0.145,1.085
2021-08-19 13:33:55.192,0.005,1.02
2021-08-19 13:33:55.196,-0.03,0.98
2021-08-19 13:33:55.200,-0.005,0.905
2021-08-19 13:33:55.204,0.0,0.84
2021-08-19 13:33:55.208,0.025,0.74
2021-08-19 13:33:55.212,0.07,0.69
2021-08-19 13:33:55.216,0.065,0.63
2021-08-19 13:33:55.220,0.0,0.58
2021-08-19 13:33:55.224,-0.1,0.495
2021-08-19 13:33:55.228,-0.17,0.42
2021-08-19 13:33:55.232,-0.195,0.395
2021-08-19 13:33:55.236,-0.235,0.39
2021-08-19 13:33:55.240,-0.245,0.325
2021-08-19 13:33:55.244,-0.245,0.295
2021-08-19 13:33:55.248,-0.205,0.29
2021-08-19 13:33:55.252,-0.21,0.235
2021-08-19 13:33:55.256,-0.175,0.26
2021-08-19 13:33:55.260,-0.15,0.255
2021-08-19 13:33:55.264,-0.14,0.23
2021-08-19 13:33:55.268,-0.21,0.205
2021-08-19 13:33:55.272,-0.25,0.2
2021-08-19 13:33:55.276,-0.23,0.175
2021-08-19 13:33:55.280,-0.19,0.185
2021-08-19 13:33:55.284,-0.205,0.165
2021-08-19 13:33:55.288,-0.175,0.185
2021-08-19 13:33:55.292,-0.165,0.21
2021-08-19 13:33:55.296,-0.15,0.225
2021-08-19 13:33:55.300,-0.085,0.235
2021-08-19 13:33:55.304,-0.08,0.23
2021-08-19 13:33:55.308,-0.09,0.255
2021-08-19 13:33:55.312,-0.15,0.26
2021-08-19 13:33:55.316,-0.17,0.295
2021-08-19 13:33:55.320,-0.16,0.285
2021-08-19 13:33:55.324,-0.13,0.285
2021-08-19 13:33:55.328,-0.055,0.28
2021-08-19 13:33:55.332,0.0,0.285
2021-08-19 13:33:55.336,0.03,0.325
2021-08-19 13:33:55.340,0.035,0.34
2021-08-19 13:33:55.344,0.025,0.33
2021-08-19 13:33:55.348,-0.02,0.295
2021-08-19 13:33:55.352,-0.07,0.25
2021-08-19 13:33:55.356,-0.08,0.22
2021-08-19 13:33:55.360,-0.07,0.185
2021-08-19 13:33:55.364,-0.085,0.185
2021-08-19 13:33:55.368,-0.12,0.15
2021-08-19 13:33:55.372,-0.135,0.12
2021-08-19 13:33:55.376,-0.12,0.1
2021-08-19 13:33:55.380,-0.045,0.11
2021-08-19 13:33:55.384,0.07,0.13
2021-08-19 13:33:55.388,0.19,0.12
2021-08-19 13:33:55.392,0.25,0.105
2021-08-19 13:33:55.396,0.195,0.135
2021-08-19 13:33:55.400,0.155,0.23
2021-08-19 13:33:55.404,-0.01,0.33
2021-08-19 13:33:55.408,-0.325,0.315
2021-08-19 13:33:55.412,-0.755,0.05
2021-08-19 13:33:55.416,-1.2,-0.41
2021-08-19 13:33:55.420,-1.505,-1.0
2021-08-19 13:33:55.424,-1.655,-1.87
2021-08-19 13:33:55.512,-0.515,-1.82
2021-08-19 13:33:55.516,-0.3,-1.38
2021-08-19 13:33:55.520,-0.13,-0.925
2021-08-19 13:33:55.524,-0.02,-0.54
2021-08-19 13:33:55.528,0.02,-0.29
2021-08-19 13:33:55.532,0.06,-0.08
2021-08-19 13:33:55.536,0.08,0.085
2021-08-19 13:33:55.540,0.145,0.27
2021-08-19 13:33:55.544,0.185,0.43
2021-08-19 13:33:55.548,0.19,0.565
2021-08-19 13:33:55.552,0.135,0.68
2021-08-19 13:33:55.556,0.055,0.74
2021-08-19 13:33:55.560,0.065,0.765
2021-08-19 13:33:55.564,0.1,0.79
2021-08-19 13:33:55.568,0.13,0.835
2021-08-19 13:33:55.572,0.16,0.86
2021-08-19 13:33:55.576,0.19,0.895
2021-08-19 13:33:55.580,0.205,0.885
2021-08-19 13:33:55.584,0.25,0.92
2021-08-19 13:33:55.588,0.29,0.93
2021-08-19 13:33:55.592,0.44,0.98
2021-08-19 13:33:55.596,0.475,1.015
2021-08-19 13:33:55.600,0.355,1.01
2021-08-19 13:33:55.604,0.19,1.03
2021-08-19 13:33:55.608,0.155,1.03
2021-08-19 13:33:55.612,0.155,1.03
2021-08-19 13:33:55.616,0.23,1.065
2021-08-19 13:33:55.620,0.255,1.125
2021-08-19 13:33:55.624,0.305,1.205
2021-08-19 13:33:55.628,0.35,1.255
2021-08-19 13:33:55.632,0.395,1.23
2021-08-19 13:33:55.636,0.435,1.28
2021-08-19 13:33:55.640,0.485,1.28
2021-08-19 13:33:55.644,0.525,1.335
2021-08-19 13:33:55.648,0.515,1.365
2021-08-19 13:33:55.652,0.47,1.395
2021-08-19 13:33:55.656,0.465,1.44
2021-08-19 13:33:55.660,0.45,1.49
2021-08-19 13:33:55.664,0.475,1.545
2021-08-19 13:33:55.668,0.51,1.585
2021-08-19 13:33:55.672,0.535,1.61
2021-08-19 13:33:55.676,0.57,1.635
2021-08-19 13:33:55.680,0.615,1.675
2021-08-19 13:33:55.684,0.675,1.69
2021-08-19 13:33:55.688,0.7,1.7
2021-08-19 13:33:55.692,0.72,1.745
2021-08-19 13:33:55.696,0.65,1.72
2021-08-19 13:33:55.700,0.585,1.73
2021-08-19 13:33:55.704,0.575,1.705
2021-08-19 13:33:55.708,0.56,1.67
2021-08-19 13:33:55.712,0.565,1.69
2021-08-19 13:33:55.716,0.555,1.67
2021-08-19 13:33:55.720,0.515,1.62
2021-08-19 13:33:55.724,0.425,1.575
2021-08-19 13:33:55.728,0.33,1.51
2021-08-19 13:33:55.732,0.21,1.45
2021-08-19 13:33:55.736,0.115,1.385
2021-08-19 13:33:55.740,0.05,1.33
2021-08-19 13:33:55.744,0.07,1.275
2021-08-19 13:33:55.748,0.045,1.23
2021-08-19 13:33:55.752,0.0,1.135
2021-08-19 13:33:55.756,-0.015,1.06
2021-08-19 13:33:55.760,0.015,0.97
2021-08-19 13:33:55.764,0.01,0.925
2021-08-19 13:33:55.768,-0.06,0.83
2021-08-19 13:33:55.772,-0.175,0.755
2021-08-19 13:33:55.776,-0.22,0.665
2021-08-19 13:33:55.780,-0.23,0.6
2021-08-19 13:33:55.784,-0.24,0.555
2021-08-19 13:33:55.788,-0.255,0.53
2021-08-19 13:33:55.792,-0.345,0.485
2021-08-19 13:33:55.796,-0.315,0.45
2021-08-19 13:33:55.800,-0.26,0.43
2021-08-19 13:33:55.804,-0.23,0.36
2021-08-19 13:33:55.808,-0.24,0.325
2021-08-19 13:33:55.812,-0.25,0.305
2021-08-19 13:33:55.816,-0.33,0.285
2021-08-19 13:33:55.820,-0.355,0.255
2021-08-19 13:33:55.824,-0.335,0.235
2021-08-19 13:33:55.828,-0.235,0.23
2021-08-19 13:33:55.832,-0.14,0.2
2021-08-19 13:33:55.836,-0.035,0.235
2021-08-19 13:33:55.840,0.045,0.25
2021-08-19 13:33:55.844,0.05,0.31
2021-08-19 13:33:55.848,-0.06,0.39
2021-08-19 13:33:55.852,-0.405,0.48
2021-08-19 13:33:55.856,-0.92,0.43
2021-08-19 13:33:55.860,-1.445,0.17
2021-08-19 13:33:55.864,-1.87,-0.225
2021-08-19 13:33:55.956,-0.605,-1.595
2021-08-19 13:33:55.960,-0.45,-1.195
2021-08-19 13:33:55.964,-0.315,-0.82
2021-08-19 13:33:55.968,-0.225,-0.475
2021-08-19 13:33:55.972,-0.14,-0.2
2021-08-19 13:33:55.976,-0.025,0.055
2021-08-19 13:33:55.980,0.0,0.25
2021-08-19 13:33:55.984,-0.055,0.425
2021-08-19 13:33:55.988,-0.09,0.555
2021-08-19 13:33:55.992,-0.13,0.675
2021-08-19 13:33:55.996,-0.105,0.73
2021-08-19 13:33:56.000,-0.07,0.765
2021-08-19 13:33:56.004,-0.06,0.785
2021-08-19 13:33:56.008,-0.03,0.845
2021-08-19 13:33:56.012,-0.015,0.875
2021-08-19 13:33:56.016,-0.01,0.885
2021-08-19 13:33:56.020,0.015,0.905
2021-08-19 13:33:56.024,0.045,0.915
2021-08-19 13:33:56.028,0.095,0.93
2021-08-19 13:33:56.032,0.21,0.95
2021-08-19 13:33:56.036,0.34,0.95
2021-08-19 13:33:56.040,0.365,0.93
2021-08-19 13:33:56.044,0.27,1.0
2021-08-19 13:33:56.048,0.115,1.035
2021-08-19 13:33:56.052,0.05,1.05
2021-08-19 13:33:56.056,0.09,1.04
2021-08-19 13:33:56.060,0.12,1.06
2021-08-19 13:33:56.064,0.175,1.105
2021-08-19 13:33:56.068,0.225,1.2
2021-08-19 13:33:56.072,0.305,1.255
2021-08-19 13:33:56.076,0.38,1.23
2021-08-19 13:33:56.080,0.45,1.255
2021-08-19 13:33:56.084,0.505,1.275
2021-08-19 13:33:56.088,0.545,1.3
2021-08-19 13:33:56.092,0.555,1.355
2021-08-19 13:33:56.096,0.54,1.395
2021-08-19 13:33:56.100,0.54,1.415
2021-08-19 13:33:56.104,0.555,1.45
2021-08-19 13:33:56.108,0.52,1.47
2021-08-19 13:33:56.112,0.42,1.45
2021-08-19 13:33:56.116,0.26,1.395
2021-08-19 13:33:56.120,0.185,1.38
2021-08-19 13:33:56.124,0.185,1.345
2021-08-19 13:33:56.128,0.19,1.36
2021-08-19 13:33:56.132,0.2,1.375
2021-08-19 13:33:56.136,0.225,1.395
2021-08-19 13:33:56.140,0.28,1.385
2021-08-19 13:33:56.144,0.335,1.335
2021-08-19 13:33:56.148,0.365,1.335
2021-08-19 13:33:56.152,0.3,1.335
2021-08-19 13:33:56.156,0.125,1.315
2021-08-19 13:33:56.160,-0.08,1.28
2021-08-19 13:33:56.164,-0.225,1.225
2021-08-19 13:33:56.168,-0.255,1.19
2021-08-19 13:33:56.172,-0.23,1.18
2021-08-19 13:33:56.176,-0.17,1.125
2021-08-19 13:33:56.180,-0.145,1.06
2021-08-19 13:33:56.184,-0.145,0.985
2021-08-19 13:33:56.188,-0.17,0.95
2021-08-19 13:33:56.192,-0.17,0.905
2021-08-19 13:33:56.196,-0.14,0.81
2021-08-19 13:33:56.200,-0.15,0.765
2021-08-19 13:33:56.204,-0.215,0.69
2021-08-19 13:33:56.208,-0.265,0.615
2021-08-19 13:33:56.212,-0.25,0.54
2021-08-19 13:33:56.216,-0.275,0.49
2021-08-19 13:33:56.220,-0.295,0.475
2021-08-19 13:33:56.224,-0.265,0.47
2021-08-19 13:33:56.228,-0.24,0.44
2021-08-19 13:33:56.232,-0.2,0.395
2021-08-19 13:33:56.236,-0.11,0.37
2021-08-19 13:33:56.240,0.04,0.35
2021-08-19 13:33:56.244,0.28,0.35
2021-08-19 13:33:56.248,0.43,0.315
2021-08-19 13:33:56.252,0.425,0.34
2021-08-19 13:33:56.256,0.245,0.405
2021-08-19 13:33:56.260,0.0,0.515
2021-08-19 13:33:56.264,-0.43,0.56
2021-08-19 13:33:56.268,-1.0,0.295
2021-08-19 13:33:56.272,-1.46,-0.13
2021-08-19 13:33:56.276,-1.765,-0.7
2021-08-19 13:33:56.280,-1.885,-1.56
2021-08-19 13:33:56.364,-0.695,-1.7
2021-08-19 13:33:56.368,-0.475,-1.205
2021-08-19 13:33:56.372,-0.325,-0.86
2021-08-19 13:33:56.376,-0.275,-0.56
2021-08-19 13:33:56.380,-0.24,-0.26
2021-08-19 13:33:56.384,-0.205,0.01
2021-08-19 13:33:56.388,-0.2,0.195
2021-08-19 13:33:56.392,-0.15,0.405
2021-08-19 13:33:56.396,-0.1,0.6
2021-08-19 13:33:56.400,-0.075,0.745
2021-08-19 13:33:56.404,-0.04,0.81
2021-08-19 13:33:56.408,0.0,0.875
2021-08-19 13:33:56.412,0.055,0.895
2021-08-19 13:33:56.416,0.2,0.925
2021-08-19 13:33:56.420,0.33,0.925
2021-08-19 13:33:56.424,0.315,0.95
2021-08-19 13:33:56.428,0.135,1.0
2021-08-19 13:33:56.432,0.035,1.025
2021-08-19 13:33:56.436,0.045,1.055
2021-08-19 13:33:56.440,0.055,1.06
2021-08-19 13:33:56.444,0.11,1.135
2021-08-19 13:33:56.448,0.165,1.16
2021-08-19 13:33:56.452,0.25,1.215
2021-08-19 13:33:56.456,0.305,1.265
2021-08-19 13:33:56.460,0.39,1.3
2021-08-19 13:33:56.464,0.44,1.335
2021-08-19 13:33:56.468,0.485,1.36
2021-08-19 13:33:56.472,0.495,1.4
2021-08-19 13:33:56.476,0.505,1.455
2021-08-19 13:33:56.480,0.505,1.495
2021-08-19 13:33:56.484,0.465,1.52
2021-08-19 13:33:56.488,0.44,1.495
2021-08-19 13:33:56.492,0.42,1.505
2021-08-19 13:33:56.496,0.39,1.51
2021-08-19 13:33:56.500,0.38,1.515
2021-08-19 13:33:56.504,0.385,1.535
2021-08-19 13:33:56.508,0.375,1.52
2021-08-19 13:33:56.512,0.395,1.515
2021-08-19 13:33:56.516,0.385,1.54
2021-08-19 13:33:56.520,0.385,1.545
2021-08-19 13:33:56.524,0.345,1.545
2021-08-19 13:33:56.528,0.31,1.54
2021-08-19 13:33:56.532,0.26,1.52
2021-08-19 13:33:56.536,0.235,1.54
2021-08-19 13:33:56.540,0.235,1.53
2021-08-19 13:33:56.544,0.18,1.525
2021-08-19 13:33:56.548,0.12,1.515
2021-08-19 13:33:56.552,0.105,1.475
2021-08-19 13:33:56.556,0.09,1.455
2021-08-19 13:33:56.560,0.09,1.425
2021-08-19 13:33:56.564,0.065,1.415
2021-08-19 13:33:56.568,0.045,1.355
2021-08-19 13:33:56.572,0.025,1.3
2021-08-19 13:33:56.576,0.0,1.275
2021-08-19 13:33:56.580,-0.075,1.195
2021-08-19 13:33:56.584,-0.065,1.14
2021-08-19 13:33:56.588,-0.045,1.105
2021-08-19 13:33:56.592,-0.045,1.035
2021-08-19 13:33:56.596,-0.1,0.975
2021-08-19 13:33:56.600,-0.195,0.885
2021-08-19 13:33:56.604,-0.19,0.835
2021-08-19 13:33:56.608,-0.17,0.775
2021-08-19 13:33:56.612,-0.18,0.73
2021-08-19 13:33:56.616,-0.185,0.65
2021-08-19 13:33:56.620,-0.195,0.61
2021-08-19 13:33:56.624,-0.215,0.585
2021-08-19 13:33:56.628,-0.3,0.54
2021-08-19 13:33:56.632,-0.3,0.515
2021-08-19 13:33:56.636,-0.265,0.515
2021-08-19 13:33:56.640,-0.2,0.465
2021-08-19 13:33:56.644,-0.1,0.43
2021-08-19 13:33:56.648,-0.01,0.39
2021-08-19 13:33:56.652,-0.01,0.39
2021-08-19 13:33:56.656,-0.04,0.425
2021-08-19 13:33:56.660,-0.09,0.47
2021-08-19 13:33:56.664,-0.11,0.48
2021-08-19 13:33:56.668,-0.105,0.48
2021-08-19 13:33:56.672,-0.115,0.435
2021-08-19 13:33:56.676,-0.155,0.385
2021-08-19 13:33:56.680,-0.155,0.325
2021-08-19 13:33:56.684,-0.175,0.315
2021-08-19 13:33:56.688,-0.19,0.32
2021-08-19 13:33:56.692,-0.2,0.31
2021-08-19 13:33:56.696,-0.25,0.255
2021-08-19 13:33:56.700,-0.31,0.21
2021-08-19 13:33:56.704,-0.33,0.185
2021-08-19 13:33:56.708,-0.36,0.165
2021-08-19 13:33:56.712,-0.395,0.155
2021-08-19 13:33:56.716,-0.385,0.17
2021-08-19 13:33:56.720,-0.37,0.135
2021-08-19 13:33:56.724,-0.305,0.13
2021-08-19 13:33:56.728,-0.255,0.125
2021-08-19 13:33:56.732,-0.325,0.105
2021-08-19 13:33:56.736,-0.41,0.08
2021-08-19 13:33:56.740,-0.435,0.07
2021-08-19 13:33:56.744,-0.43,0.095
2021-08-19 13:33:56.748,-0.455,0.105
2021-08-19 13:33:56.752,-0.485,0.06
2021-08-19 13:33:56.756,-0.53,0.075
2021-08-19 13:33:56.760,-0.525,0.075
2021-08-19 13:33:56.764,-0.51,0.065
2021-08-19 13:33:56.768,-0.435,0.065
2021-08-19 13:33:56.772,-0.22,0.05
2021-08-19 13:33:56.776,0.11,0.025
2021-08-19 13:33:56.780,0.27,-0.005
2021-08-19 13:33:56.784,0.145,0.04
2021-08-19 13:33:56.788,-0.175,0.185
2021-08-19 13:33:56.792,-0.48,0.265
2021-08-19 13:33:56.796,-0.8,0.21
2021-08-19 13:33:56.800,-1.145,-0.14
2021-08-19 13:33:56.804,-1.46,-0.65
2021-08-19 13:33:56.808,-1.625,-1.365
2021-08-19 13:33:56.896,-0.735,-1.71
2021-08-19 13:33:56.900,-0.57,-1.245
2021-08-19 13:33:56.904,-0.385,-0.87
2021-08-19 13:33:56.908,-0.255,-0.565
2021-08-19 13:33:56.912,-0.21,-0.295
2021-08-19 13:33:56.916,-0.22,-0.08
2021-08-19 13:33:56.920,-0.23,0.14
2021-08-19 13:33:56.924,-0.2,0.36
2021-08-19 13:33:56.928,-0.145,0.55
2021-08-19 13:33:56.932,-0.08,0.67
2021-08-19 13:33:56.936,-0.02,0.745
2021-08-19 13:33:56.940,0.07,0.815
2021-08-19 13:33:56.944,0.075,0.875
2021-08-19 13:33:56.948,-0.035,0.94
2021-08-19 13:33:56.952,-0.115,0.96
2021-08-19 13:33:56.956,-0.09,0.96
2021-08-19 13:33:56.960,-0.01,0.99
2021-08-19 13:33:56.964,0.02,1.05
2021-08-19 13:33:56.968,0.055,1.11
2021-08-19 13:33:56.972,0.085,1.1
2021-08-19 13:33:56.976,0.165,1.14
2021-08-19 13:33:56.980,0.22,1.185
2021-08-19 13:33:56.984,0.295,1.185
2021-08-19 13:33:56.988,0.345,1.23
2021-08-19 13:33:56.992,0.425,1.265
2021-08-19 13:33:56.996,0.415,1.315
2021-08-19 13:33:57.000,0.41,1.345
2021-08-19 13:33:57.004,0.41,1.395
2021-08-19 13:33:57.008,0.425,1.44
2021-08-19 13:33:57.012,0.41,1.47
2021-08-19 13:33:57.016,0.43,1.535
2021-08-19 13:33:57.020,0.5,1.56
2021-08-19 13:33:57.024,0.53,1.62
2021-08-19 13:33:57.028,0.61,1.64
2021-08-19 13:33:57.032,0.68,1.7
2021-08-19 13:33:57.036,0.73,1.73
2021-08-19 13:33:57.040,0.78,1.705
2021-08-19 13:33:57.044,0.82,1.72
2021-08-19 13:33:57.048,0.835,1.73
2021-08-19 13:33:57.052,0.82,1.72
2021-08-19 13:33:57.056,0.685,1.78
2021-08-19 13:33:57.060,0.545,1.79
2021-08-19 13:33:57.064,0.485,1.79
2021-08-19 13:33:57.068,0.475,1.76
2021-08-19 13:33:57.072,0.44,1.77
2021-08-19 13:33:57.076,0.425,1.765
2021-08-19 13:33:57.080,0.425,1.745
2021-08-19 13:33:57.084,0.375,1.705
2021-08-19 13:33:57.088,0.33,1.71
2021-08-19 13:33:57.092,0.29,1.675
2021-08-19 13:33:57.096,0.28,1.65
2021-08-19 13:33:57.100,0.255,1.615
2021-08-19 13:33:57.104,0.16,1.57
2021-08-19 13:33:57.108,0.065,1.51
2021-08-19 13:33:57.112,-0.03,1.46
2021-08-19 13:33:57.116,-0.05,1.405
2021-08-19 13:33:57.120,-0.075,1.325
2021-08-19 13:33:57.124,-0.095,1.265
2021-08-19 13:33:57.128,-0.105,1.17
2021-08-19 13:33:57.132,-0.145,1.09
2021-08-19 13:33:57.136,-0.155,1.03
2021-08-19 13:33:57.140,-0.16,0.975
2021-08-19 13:33:57.144,-0.145,0.89
2021-08-19 13:33:57.148,-0.17,0.8
2021-08-19 13:33:57.152,-0.185,0.78
2021-08-19 13:33:57.156,-0.195,0.725
2021-08-19 13:33:57.160,-0.225,0.655
2021-08-19 13:33:57.164,-0.28,0.59
2021-08-19 13:33:57.168,-0.32,0.555
2021-08-19 13:33:57.172,-0.31,0.525
2021-08-19 13:33:57.176,-0.255,0.505
2021-08-19 13:33:57.180,-0.155,0.49
2021-08-19 13:33:57.184,-0.11,0.475
2021-08-19 13:33:57.188,-0.175,0.475
2021-08-19 13:33:57.192,-0.26,0.475
2021-08-19 13:33:57.196,-0.32,0.475
2021-08-19 13:33:57.200,-0.34,0.465
2021-08-19 13:33:57.204,-0.28,0.45
2021-08-19 13:33:57.208,-0.215,0.46
2021-08-19 13:33:57.212,-0.185,0.45
2021-08-19 13:33:57.216,-0.18,0.465
2021-08-19 13:33:57.220,-0.12,0.42
2021-08-19 13:33:57.224,-0.09,0.41
2021-08-19 13:33:57.228,-0.12,0.39
2021-08-19 13:33:57.232,-0.13,0.4
2021-08-19 13:33:57.236,-0.2,0.42
2021-08-19 13:33:57.240,-0.27,0.46
2021-08-19 13:33:57.244,-0.305,0.455
2021-08-19 13:33:57.248,-0.315,0.42
2021-08-19 13:33:57.252,-0.335,0.415
2021-08-19 13:33:57.256,-0.37,0.41
2021-08-19 13:33:57.260,-0.39,0.435
2021-08-19 13:33:57.264,-0.345,0.415
2021-08-19 13:33:57.268,-0.32,0.4
2021-08-19 13:33:57.272,-0.375,0.4
2021-08-19 13:33:57.276,-0.405,0.385
2021-08-19 13:33:57.280,-0.43,0.345
2021-08-19 13:33:57.284,-0.475,0.34
2021-08-19 13:33:57.288,-0.535,0.34
2021-08-19 13:33:57.292,-0.57,0.315
2021-08-19 13:33:57.296,-0.525,0.315
2021-08-19 13:33:57.300,-0.48,0.32
2021-08-19 13:33:57.304,-0.425,0.345
2021-08-19 13:33:57.308,-0.385,0.355
2021-08-19 13:33:57.312,-0.44,0.335
2021-08-19 13:33:57.316,-0.53,0.34
2021-08-19 13:33:57.320,-0.565,0.31
2021-08-19 13:33:57.324,-0.57,0.3
2021-08-19 13:33:57.328,-0.575,0.27
2021-08-19 13:33:57.332,-0.525,0.275
2021-08-19 13:33:57.336,-0.435,0.26
2021-08-19 13:33:57.340,-0.39,0.235
2021-08-19 13:33:57.344,-0.365,0.24
2021-08-19 13:33:57.348,-0.38,0.225
2021-08-19 13:33:57.352,-0.415,0.215
2021-08-19 13:33:57.356,-0.425,0.215
2021-08-19 13:33:57.360,-0.44,0.235
2021-08-19 13:33:57.364,-0.45,0.23
2021-08-19 13:33:57.368,-0.425,0.2
2021-08-19 13:33:57.372,-0.395,0.175
2021-08-19 13:33:57.376,-0.36,0.125
2021-08-19 13:33:57.380,-0.335,0.09
2021-08-19 13:33:57.384,-0.31,0.09
2021-08-19 13:33:57.388,-0.355,0.11
2021-08-19 13:33:57.392,-0.365,0.1
2021-08-19 13:33:57.396,-0.375,0.09
2021-08-19 13:33:57.400,-0.385,0.065
2021-08-19 13:33:57.404,-0.385,0.065
2021-08-19 13:33:57.408,-0.34,0.09
2021-08-19 13:33:57.412,-0.265,0.105
2021-08-19 13:33:57.416,-0.23,0.11
2021-08-19 13:33:57.420,-0.115,0.065
2021-08-19 13:33:57.424,-0.115,0.06
2021-08-19 13:33:57.428,-0.225,0.125
2021-08-19 13:33:57.432,-0.305,0.17
2021-08-19 13:33:57.436,-0.38,0.185
2021-08-19 13:33:57.440,-0.445,0.205
2021-08-19 13:33:57.444,-0.5,0.195
2021-08-19 13:33:57.448,-0.51,0.17
2021-08-19 13:33:57.452,-0.475,0.15
2021-08-19 13:33:57.456,-0.445,0.145
2021-08-19 13:33:57.460,-0.315,0.14
2021-08-19 13:33:57.464,-0.145,0.12
2021-08-19 13:33:57.468,-0.075,0.115
2021-08-19 13:33:57.472,-0.18,0.18
2021-08-19 13:33:57.476,-0.365,0.295
2021-08-19 13:33:57.480,-0.675,0.31
2021-08-19 13:33:57.484,-1.155,0.12
2021-08-19 13:33:57.488,-1.645,-0.35
2021-08-19 13:33:57.492,-1.995,-1.005
2021-08-19 13:33:57.584,-0.65,-1.51
2021-08-19 13:33:57.588,-0.45,-1.11
2021-08-19 13:33:57.592,-0.28,-0.785
2021-08-19 13:33:57.596,-0.125,-0.515
2021-08-19 13:33:57.600,-0.025,-0.245
2021-08-19 13:33:57.604,0.06,-0.02
2021-08-19 13:33:57.608,0.045,0.19
2021-08-19 13:33:57.612,-0.02,0.415
2021-08-19 13:33:57.616,-0.015,0.605
2021-08-19 13:33:57.620,0.04,0.71
2021-08-19 13:33:57.624,0.065,0.815
2021-08-19 13:33:57.628,0.06,0.88
2021-08-19 13:33:57.632,0.06,0.935
2021-08-19 13:33:57.636,0.04,0.975
2021-08-19 13:33:57.640,0.065,1.01
2021-08-19 13:33:57.644,0.085,1.02
2021-08-19 13:33:57.648,0.12,1.025
2021-08-19 13:33:57.652,0.235,1.065
2021-08-19 13:33:57.656,0.335,1.075
2021-08-19 13:33:57.660,0.3,1.11
2021-08-19 13:33:57.664,0.13,1.12
2021-08-19 13:33:57.668,0.02,1.16
2021-08-19 13:33:57.672,0.015,1.165
2021-08-19 13:33:57.676,0.05,1.175
2021-08-19 13:33:57.680,0.115,1.23
2021-08-19 13:33:57.684,0.17,1.275
2021-08-19 13:33:57.688,0.21,1.32
2021-08-19 13:33:57.692,0.25,1.33
2021-08-19 13:33:57.696,0.28,1.365
2021-08-19 13:33:57.700,0.305,1.365
2021-08-19 13:33:57.704,0.38,1.41
2021-08-19 13:33:57.708,0.49,1.435
2021-08-19 13:33:57.712,0.61,1.47
2021-08-19 13:33:57.716,0.57,1.505
2021-08-19 13:33:57.720,0.4,1.575
2021-08-19 13:33:57.724,0.32,1.555
2021-08-19 13:33:57.728,0.335,1.59
2021-08-19 13:33:57.732,0.355,1.655
2021-08-19 13:33:57.736,0.4,1.69
2021-08-19 13:33:57.740,0.425,1.73
2021-08-19 13:33:57.744,0.44,1.755
2021-08-19 13:33:57.748,0.465,1.76
2021-08-19 13:33:57.752,0.49,1.77
2021-08-19 13:33:57.756,0.53,1.785
2021-08-19 13:33:57.760,0.55,1.815
2021-08-19 13:33:57.764,0.55,1.815
2021-08-19 13:33:57.768,0.58,1.82
2021-08-19 13:33:57.772,0.585,1.825
2021-08-19 13:33:57.776,0.555,1.85
2021-08-19 13:33:57.780,0.565,1.85
2021-08-19 13:33:57.784,0.555,1.8
2021-08-19 13:33:57.788,0.545,1.8
2021-08-19 13:33:57.792,0.515,1.785
2021-08-19 13:33:57.796,0.46,1.745
2021-08-19 13:33:57.800,0.395,1.655
2021-08-19 13:33:57.804,0.35,1.575
2021-08-19 13:33:57.808,0.3,1.46
2021-08-19 13:33:57.812,0.295,1.4
2021-08-19 13:33:57.816,0.255,1.315
2021-08-19 13:33:57.820,0.195,1.265
2021-08-19 13:33:57.824,0.18,1.21
2021-08-19 13:33:57.828,0.18,1.145
2021-08-19 13:33:57.832,0.13,1.07
2021-08-19 13:33:57.836,-0.01,0.965
2021-08-19 13:33:57.840,-0.2,0.875
2021-08-19 13:33:57.844,-0.285,0.76
2021-08-19 13:33:57.848,-0.32,0.665
2021-08-19 13:33:57.852,-0.33,0.57
2021-08-19 13:33:57.856,-0.315,0.54
2021-08-19 13:33:57.860,-0.31,0.485
2021-08-19 13:33:57.864,-0.305,0.445
2021-08-19 13:33:57.868,-0.32,0.395
2021-08-19 13:33:57.872,-0.32,0.34
2021-08-19 13:33:57.876,-0.295,0.31
2021-08-19 13:33:57.880,-0.225,0.27
2021-08-19 13:33:57.884,-0.275,0.255
2021-08-19 13:33:57.888,-0.365,0.205
2021-08-19 13:33:57.892,-0.42,0.17
2021-08-19 13:33:57.896,-0.4,0.17
2021-08-19 13:33:57.900,-0.345,0.18
2021-08-19 13:33:57.904,-0.28,0.19
2021-08-19 13:33:57.908,-0.16,0.19
2021-08-19 13:33:57.912,-0.045,0.2
2021-08-19 13:33:57.916,-0.105,0.195
2021-08-19 13:33:57.920,-0.335,0.195
2021-08-19 13:33:57.924,-0.48,0.205
2021-08-19 13:33:57.928,-0.45,0.205
2021-08-19 13:33:57.932,-0.4,0.21
2021-08-19 13:33:57.936,-0.37,0.205
2021-08-19 13:33:57.940,-0.35,0.23
2021-08-19 13:33:57.944,-0.295,0.265
2021-08-19 13:33:57.948,-0.24,0.245
2021-08-19 13:33:57.952,-0.22,0.265
2021-08-19 13:33:57.956,-0.21,0.285
2021-08-19 13:33:57.960,-0.2,0.26
2021-08-19 13:33:57.964,-0.22,0.28
2021-08-19 13:33:57.968,-0.225,0.27
2021-08-19 13:33:57.972,-0.23,0.275
2021-08-19 13:33:57.976,-0.21,0.265
2021-08-19 13:33:57.980,-0.205,0.285
2021-08-19 13:33:57.984,-0.215,0.3
2021-08-19 13:33:57.988,-0.22,0.3
2021-08-19 13:33:57.992,-0.21,0.3
2021-08-19 13:33:57.996,-0.185,0.305
2021-08-19 13:33:58.000,-0.13,0.34
2021-08-19 13:33:58.004,-0.075,0.345
2021-08-19 13:33:58.008,-0.045,0.365
2021-08-19 13:33:58.012,-0.03,0.345
2021-08-19 13:33:58.016,-0.1,0.33
2021-08-19 13:33:58.020,-0.185,0.34
2021-08-19 13:33:58.024,-0.22,0.33
2021-08-19 13:33:58.028,-0.205,0.32
2021-08-19 13:33:58.032,-0.18,0.27
2021-08-19 13:33:58.036,-0.195,0.255
2021-08-19 13:33:58.040,-0.235,0.245
2021-08-19 13:33:58.044,-0.185,0.23
2021-08-19 13:33:58.048,-0.06,0.21
2021-08-19 13:33:58.052,0.0,0.195
2021-08-19 13:33:58.056,-0.085,0.16
2021-08-19 13:33:58.060,-0.2,0.155
2021-08-19 13:33:58.064,-0.2,0.09
2021-08-19 13:33:58.068,-0.105,0.1
2021-08-19 13:33:58.072,-0.11,0.135
2021-08-19 13:33:58.076,-0.245,0.215
2021-08-19 13:33:58.080,-0.47,0.315
2021-08-19 13:33:58.084,-0.82,0.32
2021-08-19 13:33:58.088,-1.28,0.05
2021-08-19 13:33:58.092,-1.64,-0.415
2021-08-19 13:33:58.096,-1.885,-1.005
2021-08-19 13:33:58.100,-1.98,-1.885
2021-08-19 13:33:58.184,-0.535,-1.97
2021-08-19 13:33:58.188,-0.365,-1.48
2021-08-19 13:33:58.192,-0.205,-1.04
2021-08-19 13:33:58.196,-0.07,-0.68
2021-08-19 13:33:58.200,0.015,-0.405
2021-08-19 13:33:58.204,0.04,-0.135
2021-08-19 13:33:58.208,0.02,0.06
2021-08-19 13:33:58.212,0.075,0.255
2021-08-19 13:33:58.216,0.12,0.44
2021-08-19 13:33:58.220,0.12,0.59
2021-08-19 13:33:58.224,0.13,0.735
2021-08-19 13:33:58.228,0.15,0.845
2021-08-19 13:33:58.232,0.14,0.88
2021-08-19 13:33:58.236,0.11,0.9
2021-08-19 13:33:58.240,0.105,0.895
2021-08-19 13:33:58.244,0.145,0.9
2021-08-19 13:33:58.248,0.17,0.89
2021-08-19 13:33:58.252,0.22,0.925
2021-08-19 13:33:58.256,0.255,0.97
2021-08-19 13:33:58.260,0.22,0.94
2021-08-19 13:33:58.264,0.195,0.975
2021-08-19 13:33:58.268,0.205,0.965
2021-08-19 13:33:58.272,0.25,0.975
2021-08-19 13:33:58.276,0.28,1.02
2021-08-19 13:33:58.280,0.265,1.02
2021-08-19 13:33:58.284,0.23,1.075
2021-08-19 13:33:58.288,0.28,1.095
2021-08-19 13:33:58.292,0.28,1.1
2021-08-19 13:33:58.296,0.34,1.13
2021-08-19 13:33:58.300,0.38,1.135
2021-08-19 13:33:58.304,0.45,1.16
2021-08-19 13:33:58.308,0.44,1.215
2021-08-19 13:33:58.312,0.415,1.245
2021-08-19 13:33:58.316,0.43,1.245
2021-08-19 13:33:58.320,0.41,1.275
2021-08-19 13:33:58.324,0.395,1.305
2021-08-19 13:33:58.328,0.425,1.365
2021-08-19 13:33:58.332,0.47,1.395
2021-08-19 13:33:58.336,0.545,1.41
2021-08-19 13:33:58.340,0.58,1.435
2021-08-19 13:33:58.344,0.6,1.455
2021-08-19 13:33:58.348,0.625,1.485
2021-08-19 13:33:58.352,0.62,1.505
2021-08-19 13:33:58.356,0.595,1.55
2021-08-19 13:33:58.360,0.545,1.565
2021-08-19 13:33:58.364,0.515,1.555
2021-08-19 13:33:58.368,0.52,1.585
2021-08-19 13:33:58.372,0.58,1.6
2021-08-19 13:33:58.376,0.605,1.62
2021-08-19 13:33:58.380,0.585,1.62
2021-08-19 13:33:58.384,0.585,1.575
2021-08-19 13:33:58.388,0.57,1.59
2021-08-19 13:33:58.392,0.54,1.6
2021-08-19 13:33:58.396,0.52,1.55
2021-08-19 13:33:58.400,0.45,1.515
2021-08-19 13:33:58.404,0.45,1.52
2021-08-19 13:33:58.408,0.465,1.455
2021-08-19 13:33:58.412,0.465,1.385
2021-08-19 13:33:58.416,0.405,1.365
2021-08-19 13:33:58.420,0.36,1.31
2021-08-19 13:33:58.424,0.335,1.25
2021-08-19 13:33:58.428,0.3,1.15
2021-08-19 13:33:58.432,0.23,1.045
2021-08-19 13:33:58.436,0.15,1.005
2021-08-19 13:33:58.440,0.095,0.92
2021-08-19 13:33:58.444,0.1,0.84
2021-08-19 13:33:58.448,0.065,0.73
2021-08-19 13:33:58.452,0.075,0.65
2021-08-19 13:33:58.456,0.065,0.6
2021-08-19 13:33:58.460,0.02,0.545
2021-08-19 13:33:58.464,0.035,0.49
2021-08-19 13:33:58.468,0.02,0.435
2021-08-19 13:33:58.472,-0.035,0.375
2021-08-19 13:33:58.476,-0.09,0.36
2021-08-19 13:33:58.480,-0.13,0.32
2021-08-19 13:33:58.484,-0.16,0.305
2021-08-19 13:33:58.488,-0.185,0.255
2021-08-19 13:33:58.492,-0.155,0.265
2021-08-19 13:33:58.496,-0.11,0.225
2021-08-19 13:33:58.500,-0.08,0.24
2021-08-19 13:33:58.504,-0.08,0.24
2021-08-19 13:33:58.508,-0.11,0.24
2021-08-19 13:33:58.512,-0.085,0.21
2021-08-19 13:33:58.516,-0.07,0.205
2021-08-19 13:33:58.520,-0.105,0.195
2021-08-19 13:33:58.524,-0.135,0.2
2021-08-19 13:33:58.528,-0.145,0.22
2021-08-19 13:33:58.532,-0.12,0.23
2021-08-19 13:33:58.536,-0.105,0.23
2021-08-19 13:33:58.540,-0.095,0.26
2021-08-19 13:33:58.544,-0.14,0.225
2021-08-19 13:33:58.548,-0.15,0.22
2021-08-19 13:33:58.552,-0.14,0.195
2021-08-19 13:33:58.556,-0.135,0.2
2021-08-19 13:33:58.560,-0.09,0.195
2021-08-19 13:33:58.564,-0.055,0.22
2021-08-19 13:33:58.568,-0.055,0.255
2021-08-19 13:33:58.572,-0.01,0.26
2021-08-19 13:33:58.576,0.085,0.255
2021-08-19 13:33:58.580,0.165,0.245
2021-08-19 13:33:58.584,0.12,0.23
2021-08-19 13:33:58.588,-0.015,0.26
2021-08-19 13:33:58.592,-0.16,0.23
2021-08-19 13:33:58.596,-0.205,0.205
2021-08-19 13:33:58.600,-0.195,0.205
2021-08-19 13:33:58.604,-0.15,0.19
2021-08-19 13:33:58.608,-0.085,0.19
2021-08-19 13:33:58.612,0.01,0.22
2021-08-19 13:33:58.616,0.05,0.26
2021-08-19 13:33:58.620,0.15,0.265
2021-08-19 13:33:58.624,0.255,0.255
2021-08-19 13:33:58.628,0.315,0.25
2021-08-19 13:33:58.632,0.35,0.26
2021-08-19 13:33:58.636,0.295,0.27
2021-08-19 13:33:58.640,0.165,0.285
2021-08-19 13:33:58.644,-0.04,0.345
2021-08-19 13:33:58.648,-0.3,0.415
2021-08-19 13:33:58.652,-0.655,0.315
2021-08-19 13:33:58.656,-1.005,-0.03
2021-08-19 13:33:58.660,-1.365,-0.585
2021-08-19 13:33:58.664,-1.595,-1.195
2021-08-19 13:33:58.756,-0.215,-1.7
2021-08-19 13:33:58.760,-0.1,-1.29
2021-08-19 13:33:58.764,0.015,-0.885
2021-08-19 13:33:58.768,0.075,-0.575
2021-08-19 13:33:58.772,0.095,-0.31
2021-08-19 13:33:58.776,0.075,-0.08
2021-08-19 13:33:58.780,0.1,0.15
2021-08-19 13:33:58.784,0.135,0.31
2021-08-19 13:33:58.788,0.175,0.47
2021-08-19 13:33:58.792,0.205,0.605
2021-08-19 13:33:58.796,0.255,0.73
2021-08-19 13:33:58.800,0.335,0.82
2021-08-19 13:33:58.804,0.43,0.88
2021-08-19 13:33:58.808,0.475,0.9
2021-08-19 13:33:58.812,0.41,0.935
2021-08-19 13:33:58.816,0.305,0.96
2021-08-19 13:33:58.820,0.26,0.98
2021-08-19 13:33:58.824,0.285,1.015
2021-08-19 13:33:58.828,0.35,1.025
2021-08-19 13:33:58.832,0.45,1.05
2021-08-19 13:33:58.836,0.505,1.09
2021-08-19 13:33:58.840,0.565,1.105
2021-08-19 13:33:58.844,0.635,1.155
2021-08-19 13:33:58.848,0.68,1.185
2021-08-19 13:33:58.852,0.76,1.215
2021-08-19 13:33:58.856,0.7,1.225
2021-08-19 13:33:58.860,0.59,1.25
2021-08-19 13:33:58.864,0.5,1.24
2021-08-19 13:33:58.868,0.445,1.255
2021-08-19 13:33:58.872,0.47,1.26
2021-08-19 13:33:58.876,0.52,1.29
2021-08-19 13:33:58.880,0.55,1.3
2021-08-19 13:33:58.884,0.55,1.32
2021-08-19 13:33:58.888,0.59,1.335
2021-08-19 13:33:58.892,0.62,1.355
2021-08-19 13:33:58.896,0.68,1.42
2021-08-19 13:33:58.900,0.785,1.435
2021-08-19 13:33:58.904,0.815,1.44
2021-08-19 13:33:58.908,0.71,1.44
2021-08-19 13:33:58.912,0.565,1.46
2021-08-19 13:33:58.916,0.475,1.495
2021-08-19 13:33:58.920,0.48,1.49
2021-08-19 13:33:58.924,0.535,1.535
2021-08-19 13:33:58.928,0.53,1.55
2021-08-19 13:33:58.932,0.535,1.58
2021-08-19 13:33:58.936,0.555,1.6
2021-08-19 13:33:58.940,0.615,1.6
2021-08-19 13:33:58.944,0.67,1.615
2021-08-19 13:33:58.948,0.725,1.65
2021-08-19 13:33:58.952,0.665,1.625
2021-08-19 13:33:58.956,0.565,1.61
2021-08-19 13:33:58.960,0.425,1.565
2021-08-19 13:33:58.964,0.39,1.555
2021-08-19 13:33:58.968,0.355,1.54
2021-08-19 13:33:58.972,0.34,1.515
2021-08-19 13:33:58.976,0.34,1.47
2021-08-19 13:33:58.980,0.325,1.455
2021-08-19 13:33:58.984,0.285,1.385
2021-08-19 13:33:58.988,0.285,1.305
2021-08-19 13:33:58.992,0.265,1.26
2021-08-19 13:33:58.996,0.23,1.2
2021-08-19 13:33:59.000,0.18,1.115
2021-08-19 13:33:59.004,0.125,1.04
2021-08-19 13:33:59.008,0.13,0.935
2021-08-19 13:33:59.012,0.115,0.865
2021-08-19 13:33:59.016,0.035,0.825
2021-08-19 13:33:59.020,-0.03,0.76
2021-08-19 13:33:59.024,-0.01,0.715
2021-08-19 13:33:59.028,0.0,0.69
2021-08-19 13:33:59.032,0.055,0.635
2021-08-19 13:33:59.036,0.13,0.565
2021-08-19 13:33:59.040,0.175,0.51
2021-08-19 13:33:59.044,0.17,0.5
2021-08-19 13:33:59.048,0.035,0.47
2021-08-19 13:33:59.052,-0.09,0.445
2021-08-19 13:33:59.056,-0.115,0.41
2021-08-19 13:33:59.060,-0.09,0.335
2021-08-19 13:33:59.064,-0.035,0.33
2021-08-19 13:33:59.068,0.05,0.3
2021-08-19 13:33:59.072,0.155,0.26
2021-08-19 13:33:59.076,0.195,0.29
2021-08-19 13:33:59.080,0.175,0.34
2021-08-19 13:33:59.084,-0.09,0.375
2021-08-19 13:33:59.088,-0.54,0.335
2021-08-19 13:33:59.092,-1.095,0.17
2021-08-19 13:33:59.096,-1.545,-0.175
2021-08-19 13:33:59.100,-1.77,-0.6
2021-08-19 13:33:59.104,-1.805,-1.28
2021-08-19 13:33:59.188,-0.74,-1.93
2021-08-19 13:33:59.192,-0.585,-1.495
2021-08-19 13:33:59.196,-0.365,-1.095
2021-08-19 13:33:59.200,-0.215,-0.695
2021-08-19 13:33:59.204,-0.105,-0.39
2021-08-19 13:33:59.208,-0.04,-0.085
2021-08-19 13:33:59.212,0.0,0.15
2021-08-19 13:33:59.216,0.025,0.38
2021-08-19 13:33:59.220,0.075,0.605
2021-08-19 13:33:59.224,0.145,0.725
2021-08-19 13:33:59.228,0.325,0.86
2021-08-19 13:33:59.232,0.525,0.935
2021-08-19 13:33:59.236,0.515,0.98
2021-08-19 13:33:59.240,0.315,0.98
2021-08-19 13:33:59.244,0.145,1.005
2021-08-19 13:33:59.248,0.135,1.025
2021-08-19 13:33:59.252,0.155,1.07
2021-08-19 13:33:59.256,0.21,1.125
2021-08-19 13:33:59.260,0.23,1.155
2021-08-19 13:33:59.264,0.26,1.16
2021-08-19 13:33:59.268,0.295,1.13
2021-08-19 13:33:59.272,0.325,1.1
2021-08-19 13:33:59.276,0.345,1.1
2021-08-19 13:33:59.280,0.375,1.09
2021-08-19 13:33:59.284,0.43,1.105
2021-08-19 13:33:59.288,0.5,1.1
2021-08-19 13:33:59.292,0.515,1.09
2021-08-19 13:33:59.296,0.48,1.105
2021-08-19 13:33:59.300,0.445,1.135
2021-08-19 13:33:59.304,0.445,1.13
2021-08-19 13:33:59.308,0.44,1.145
2021-08-19 13:33:59.312,0.455,1.18
2021-08-19 13:33:59.316,0.495,1.215
2021-08-19 13:33:59.320,0.505,1.245
2021-08-19 13:33:59.324,0.555,1.25
2021-08-19 13:33:59.328,0.63,1.25
2021-08-19 13:33:59.332,0.68,1.3
2021-08-19 13:33:59.336,0.655,1.285
2021-08-19 13:33:59.340,0.54,1.315
2021-08-19 13:33:59.344,0.395,1.325
2021-08-19 13:33:59.348,0.31,1.345
2021-08-19 13:33:59.352,0.31,1.335
2021-08-19 13:33:59.356,0.32,1.395
2021-08-19 13:33:59.360,0.34,1.425
2021-08-19 13:33:59.364,0.385,1.455
2021-08-19 13:33:59.368,0.415,1.44
2021-08-19 13:33:59.372,0.5,1.42
2021-08-19 13:33:59.376,0.515,1.415
2021-08-19 13:33:59.380,0.475,1.43
2021-08-19 13:33:59.384,0.36,1.42
2021-08-19 13:33:59.388,0.29,1.395
2021-08-19 13:33:59.392,0.24,1.365
2021-08-19 13:33:59.396,0.18,1.33
2021-08-19 13:33:59.400,0.175,1.335
2021-08-19 13:33:59.404,0.175,1.3
2021-08-19 13:33:59.408,0.14,1.275
2021-08-19 13:33:59.412,0.13,1.24
2021-08-19 13:33:59.416,0.165,1.18
2021-08-19 13:33:59.420,0.25,1.125
2021-08-19 13:33:59.424,0.305,1.085
2021-08-19 13:33:59.428,0.255,1.015
2021-08-19 13:33:59.432,0.185,0.945
2021-08-19 13:33:59.436,0.095,0.925
2021-08-19 13:33:59.440,0.025,0.84
2021-08-19 13:33:59.444,-0.03,0.81
2021-08-19 13:33:59.448,-0.01,0.78
2021-08-19 13:33:59.452,0.015,0.745
2021-08-19 13:33:59.456,0.015,0.66
2021-08-19 13:33:59.460,0.035,0.58
2021-08-19 13:33:59.464,0.055,0.525
2021-08-19 13:33:59.468,0.08,0.475
2021-08-19 13:33:59.472,0.12,0.44
2021-08-19 13:33:59.476,0.19,0.395
2021-08-19 13:33:59.480,0.145,0.365
2021-08-19 13:33:59.484,0.09,0.355
2021-08-19 13:33:59.488,-0.015,0.35
2021-08-19 13:33:59.492,-0.09,0.335
2021-08-19 13:33:59.496,-0.145,0.32
2021-08-19 13:33:59.500,-0.13,0.31
2021-08-19 13:33:59.504,-0.09,0.26
2021-08-19 13:33:59.508,-0.085,0.28
2021-08-19 13:33:59.512,-0.095,0.28
2021-08-19 13:33:59.516,-0.08,0.345
2021-08-19 13:33:59.520,-0.08,0.33
2021-08-19 13:33:59.524,-0.02,0.31
2021-08-19 13:33:59.528,0.08,0.28
2021-08-19 13:33:59.532,0.12,0.265
2021-08-19 13:33:59.536,0.015,0.26
2021-08-19 13:33:59.540,-0.205,0.265
2021-08-19 13:33:59.544,-0.35,0.25
2021-08-19 13:33:59.548,-0.35,0.215
2021-08-19 13:33:59.552,-0.3,0.2
2021-08-19 13:33:59.556,-0.265,0.23
2021-08-19 13:33:59.560,-0.25,0.265
2021-08-19 13:33:59.564,-0.245,0.24
2021-08-19 13:33:59.568,-0.225,0.25
2021-08-19 13:33:59.572,-0.23,0.26
2021-08-19 13:33:59.576,-0.24,0.26
2021-08-19 13:33:59.580,-0.22,0.215
2021-08-19 13:33:59.584,-0.14,0.2
2021-08-19 13:33:59.588,-0.095,0.175
2021-08-19 13:33:59.592,-0.11,0.13
2021-08-19 13:33:59.596,-0.185,0.14
2021-08-19 13:33:59.600,-0.245,0.15
2021-08-19 13:33:59.604,-0.26,0.135
2021-08-19 13:33:59.608,-0.28,0.16
2021-08-19 13:33:59.612,-0.27,0.2
2021-08-19 13:33:59.616,-0.21,0.215
2021-08-19 13:33:59.620,-0.225,0.23
2021-08-19 13:33:59.624,-0.255,0.245
2021-08-19 13:33:59.628,-0.21,0.25
2021-08-19 13:33:59.632,-0.145,0.225
2021-08-19 13:33:59.636,-0.145,0.205
2021-08-19 13:33:59.640,-0.12,0.195
2021-08-19 13:33:59.644,-0.11,0.23
2021-08-19 13:33:59.648,-0.12,0.22
2021-08-19 13:33:59.652,-0.135,0.18
2021-08-19 13:33:59.656,-0.16,0.16
2021-08-19 13:33:59.660,-0.12,0.185
2021-08-19 13:33:59.664,-0.07,0.215
2021-08-19 13:33:59.668,-0.03,0.24
2021-08-19 13:33:59.672,-0.005,0.22
2021-08-19 13:33:59.676,0.04,0.175
2021-08-19 13:33:59.680,0.065,0.16
2021-08-19 13:33:59.684,0.065,0.17
2021-08-19 13:33:59.688,0.02,0.18
2021-08-19 13:33:59.692,-0.04,0.135
2021-08-19 13:33:59.696,-0.055,0.15
2021-08-19 13:33:59.700,-0.055,0.16
2021-08-19 13:33:59.704,-0.055,0.175
2021-08-19 13:33:59.708,-0.05,0.21
2021-08-19 13:33:59.712,-0.05,0.19
2021-08-19 13:33:59.716,-0.045,0.18
2021-08-19 13:33:59.720,-0.03,0.165
2021-08-19 13:33:59.724,0.0,0.175
2021-08-19 13:33:59.728,0.015,0.17
2021-08-19 13:33:59.732,0.05,0.18
2021-08-19 13:33:59.736,0.09,0.2
2021-08-19 13:33:59.740,0.035,0.185
2021-08-19 13:33:59.744,-0.095,0.165
2021-08-19 13:33:59.748,-0.195,0.19
2021-08-19 13:33:59.752,-0.23,0.205
2021-08-19 13:33:59.756,-0.2,0.185
2021-08-19 13:33:59.760,-0.14,0.19
2021-08-19 13:33:59.764,-0.07,0.195
2021-08-19 13:33:59.768,0.05,0.18
2021-08-19 13:33:59.772,0.185,0.16
2021-08-19 13:33:59.776,0.24,0.14
2021-08-19 13:33:59.780,0.18,0.19
2021-08-19 13:33:59.784,-0.015,0.26
2021-08-19 13:33:59.788,-0.48,0.33
2021-08-19 13:33:59.792,-1.04,0.135
2021-08-19 13:33:59.796,-1.51,-0.29
2021-08-19 13:33:59.800,-1.84,-0.855
2021-08-19 13:33:59.892,-0.31,-1.755
2021-08-19 13:33:59.896,-0.205,-1.355
2021-08-19 13:33:59.900,-0.085,-0.93
2021-08-19 13:33:59.904,0.0,-0.6
2021-08-19 13:33:59.908,0.07,-0.315
2021-08-19 13:33:59.912,0.13,-0.11
2021-08-19 13:33:59.916,0.21,0.135
2021-08-19 13:33:59.920,0.26,0.325
2021-08-19 13:33:59.924,0.345,0.53
2021-08-19 13:33:59.928,0.42,0.68
2021-08-19 13:33:59.932,0.415,0.805
2021-08-19 13:33:59.936,0.305,0.88
2021-08-19 13:33:59.940,0.175,0.93
2021-08-19 13:33:59.944,0.165,0.965
2021-08-19 13:33:59.948,0.16,1.01
2021-08-19 13:33:59.952,0.195,1.025
2021-08-19 13:33:59.956,0.265,1.06
2021-08-19 13:33:59.960,0.305,1.085
2021-08-19 13:33:59.964,0.34,1.125
2021-08-19 13:33:59.968,0.355,1.125
2021-08-19 13:33:59.972,0.375,1.165
2021-08-19 13:33:59.976,0.4,1.19
2021-08-19 13:33:59.980,0.46,1.19
2021-08-19 13:33:59.984,0.535,1.215
2021-08-19 13:33:59.988,0.65,1.25
2021-08-19 13:33:59.992,0.69,1.29
2021-08-19 13:33:59.996,0.625,1.295
2021-08-19 13:45:00.000,-0.1,0.475
2021-08-19 13:45:00.004,-0.12,0.44
2021-08-19 13:45:00.008,-0.135,0.43
2021-08-19 13:45:00.012,-0.155,0.435
2021-08-19 13:45:00.016,-0.17,0.42
2021-08-19 13:45:00.020,-0.2,0.39
2021-08-19 13:45:00.024,-0.225,0.395
2021-08-19 13:45:00.028,-0.21,0.38
2021-08-19 13:45:00.032,-0.165,0.38
2021-08-19 13:45:00.036,-0.06,0.39
2021-08-19 13:45:00.040,0.07,0.38
2021-08-19 13:45:00.044,0.185,0.39
2021-08-19 13:45:00.048,0.155,0.46
2021-08-19 13:45:00.052,-0.01,0.545
2021-08-19 13:45:00.056,-0.445,0.565
2021-08-19 13:45:00.060,-1.04,0.355
2021-08-19 13:45:00.064,-1.59,-0.11
2021-08-19 13:45:00.068,-1.97,-0.73
2021-08-19 13:45:00.152,-0.385,-1.665
2021-08-19 13:45:00.156,-0.23,-1.19
2021-08-19 13:45:00.160,-0.07,-0.75
2021-08-19 13:45:00.164,0.015,-0.36
2021-08-19 13:45:00.168,0.02,-0.08
2021-08-19 13:45:00.172,0.035,0.21
2021-08-19 13:45:00.176,0.06,0.475
2021-08-19 13:45:00.180,0.045,0.68
2021-08-19 13:45:00.184,0.065,0.835
2021-08-19 13:45:00.188,0.05,0.98
2021-08-19 13:45:00.192,0.04,1.055
2021-08-19 13:45:00.196,0.05,1.085
2021-08-19 13:45:00.200,0.075,1.13
2021-08-19 13:45:00.204,0.04,1.17
2021-08-19 13:45:00.208,0.035,1.205
2021-08-19 13:45:00.212,0.055,1.23
2021-08-19 13:45:00.216,0.04,1.245
2021-08-19 13:45:00.220,0.02,1.225
2021-08-19 13:45:00.224,0.03,1.245
2021-08-19 13:45:00.228,0.03,1.27
2021-08-19 13:45:00.232,0.055,1.265
2021-08-19 13:45:00.236,0.095,1.285
2021-08-19 13:45:00.240,0.11,1.305
2021-08-19 13:45:00.244,0.165,1.34
2021-08-19 13:45:00.248,0.195,1.345
2021-08-19 13:45:00.252,0.21,1.39
2021-08-19 13:45:00.256,0.25,1.4
2021-08-19 13:45:00.260,0.26,1.425
2021-08-19 13:45:00.264,0.28,1.435
2021-08-19 13:45:00.268,0.315,1.495
2021-08-19 13:45:00.272,0.325,1.545
2021-08-19 13:45:00.276,0.35,1.55
2021-08-19 13:45:00.280,0.405,1.555
2021-08-19 13:45:00.284,0.375,1.565
2021-08-19 13:45:00.288,0.35,1.56
2021-08-19 13:45:00.292,0.365,1.58
2021-08-19 13:45:00.296,0.37,1.575
2021-08-19 13:45:00.300,0.39,1.59
2021-08-19 13:45:00.304,0.39,1.59
2021-08-19 13:45:00.308,0.355,1.57
2021-08-19 13:45:00.312,0.35,1.54
2021-08-19 13:45:00.316,0.375,1.535
2021-08-19 13:45:00.320,0.39,1.535
2021-08-19 13:45:00.324,0.385,1.54
2021-08-19 13:45:00.328,0.375,1.545
2021-08-19 13:45:00.332,0.34,1.55
2021-08-19 13:45:00.336,0.3,1.53
2021-08-19 13:45:00.340,0.265,1.51
2021-08-19 13:45:00.344,0.28,1.485
2021-08-19 13:45:00.348,0.26,1.465
2021-08-19 13:45:00.352,0.205,1.38
2021-08-19 13:45:00.356,0.145,1.305
2021-08-19 13:45:00.360,0.075,1.255
2021-08-19 13:45:00.364,0.045,1.195
2021-08-19 13:45:00.368,-0.005,1.1
2021-08-19 13:45:00.372,-0.02,1.055
2021-08-19 13:45:00.376,-0.06,0.975
2021-08-19 13:45:00.380,-0.095,0.9
2021-08-19 13:45:00.384,-0.105,0.85
2021-08-19 13:45:00.388,-0.09,0.8
2021-08-19 13:45:00.392,-0.07,0.74
2021-08-19 13:45:00.396,-0.12,0.695
2021-08-19 13:45:00.400,-0.145,0.64
2021-08-19 13:45:00.404,-0.135,0.595
2021-08-19 13:45:00.408,-0.115,0.56
2021-08-19 13:45:00.412,-0.14,0.565
2021-08-19 13:45:00.416,-0.12,0.545
2021-08-19 13:45:00.420,-0.075,0.535
2021-08-19 13:45:00.424,-0.075,0.475
2021-08-19 13:45:00.428,-0.045,0.455
2021-08-19 13:45:00.432,-0.03,0.515
2021-08-19 13:45:00.436,-0.005,0.53
2021-08-19 13:45:00.440,0.01,0.54
2021-08-19 13:45:00.444,0.03,0.51
2021-08-19 13:45:00.448,0.01,0.51
2021-08-19 13:45:00.452,0.01,0.53
2021-08-19 13:45:00.456,0.02,0.51
2021-08-19 13:45:00.460,0.005,0.505
2021-08-19 13:45:00.464,0.045,0.47
2021-08-19 13:45:00.468,0.09,0.46
2021-08-19 13:45:00.472,0.11,0.435
2021-08-19 13:45:00.476,0.075,0.42
2021-08-19 13:45:00.480,0.05,0.415
2021-08-19 13:45:00.484,0.08,0.405
2021-08-19 13:45:00.488,0.065,0.425
2021-08-19 13:45:00.492,0.07,0.39
2021-08-19 13:45:00.496,0.115,0.39
2021-08-19 13:45:00.500,0.11,0.38
2021-08-19 13:45:00.504,0.12,0.4
2021-08-19 13:45:00.508,0.14,0.39
2021-08-19 13:45:00.512,0.11,0.39
2021-08-19 13:45:00.516,0.1,0.375
2021-08-19 13:45:00.520,0.14,0.395
2021-08-19 13:45:00.524,0.155,0.415
2021-08-19 13:45:00.528,0.145,0.41
2021-08-19 13:45:00.532,0.145,0.42
2021-08-19 13:45:00.536,0.14,0.395
2021-08-19 13:45:00.540,0.115,0.395
2021-08-19 13:45:00.544,0.11,0.405
2021-08-19 13:45:00.548,0.115,0.405
2021-08-19 13:45:00.552,0.145,0.4
2021-08-19 13:45:00.556,0.14,0.405
2021-08-19 13:45:00.560,0.14,0.42
2021-08-19 13:45:00.564,0.155,0.42
2021-08-19 13:45:00.568,0.19,0.42
2021-08-19 13:45:00.572,0.195,0.41
2021-08-19 13:45:00.576,0.185,0.435
2021-08-19 13:45:00.580,0.17,0.425
2021-08-19 13:45:00.584,0.155,0.46
2021-08-19 13:45:00.588,0.13,0.48
2021-08-19 13:45:00.592,0.065,0.465
2021-08-19 13:45:00.596,0.04,0.47
2021-08-19 13:45:00.600,0.02,0.52
2021-08-19 13:45:00.604,0.0,0.51
2021-08-19 13:45:00.608,-0.01,0.51
2021-08-19 13:45:00.612,-0.035,0.47
2021-08-19 13:45:00.616,-0.02,0.445
2021-08-19 13:45:00.620,-0.03,0.415
2021-08-19 13:45:00.624,-0.03,0.385
2021-08-19 13:45:00.628,-0.04,0.365
2021-08-19 13:45:00.632,-0.055,0.35
2021-08-19 13:45:00.636,-0.06,0.315
2021-08-19 13:45:00.640,-0.05,0.29
2021-08-19 13:45:00.644,-0.01,0.245
2021-08-19 13:45:00.648,-0.005,0.24
2021-08-19 13:45:00.652,-0.02,0.23
2021-08-19 13:45:00.656,-0.02,0.22
2021-08-19 13:45:00.660,-0.02,0.2
2021-08-19 13:45:00.664,-0.025,0.17
2021-08-19 13:45:00.668,-0.015,0.175
2021-08-19 13:45:00.672,-0.035,0.175
2021-08-19 13:45:00.676,-0.035,0.175
2021-08-19 13:45:00.680,-0.04,0.185
2021-08-19 13:45:00.684,-0.04,0.165
2021-08-19 13:45:00.688,-0.04,0.17
2021-08-19 13:45:00.692,-0.02,0.16
2021-08-19 13:45:00.696,-0.02,0.18
2021-08-19 13:45:00.700,-0.005,0.195
2021-08-19 13:45:00.704,-0.005,0.175
2021-08-19 13:45:00.708,-0.01,0.21
2021-08-19 13:45:00.712,-0.02,0.19
2021-08-19 13:45:00.716,-0.01,0.165
2021-08-19 13:45:00.720,-0.045,0.165
2021-08-19 13:45:00.724,-0.03,0.145
2021-08-19 13:45:00.728,-0.04,0.165
2021-08-19 13:45:00.732,0.01,0.15
2021-08-19 13:45:00.736,0.02,0.14
2021-08-19 13:45:00.740,0.07,0.175
2021-08-19 13:45:00.744,0.12,0.19
2021-08-19 13:45:00.748,0.24,0.195
2021-08-19 13:45:00.752,0.355,0.205
2021-08-19 13:45:00.756,0.335,0.245
2021-08-19 13:45:00.760,0.21,0.34
2021-08-19 13:45:00.764,0.015,0.455
2021-08-19 13:45:00.768,-0.32,0.42
2021-08-19 13:45:00.772,-0.775,0.15
2021-08-19 13:45:00.776,-1.17,-0.37
2021-08-19 13:45:00.780,-1.415,-0.985
2021-08-19 13:45:00.784,-1.55,-1.82
2021-08-19 13:45:00.868,-0.195,-1.705
2021-08-19 13:45:00.872,-0.09,-1.275
2021-08-19 13:45:00.876,0.015,-0.89
2021-08-19 13:45:00.880,0.12,-0.535
2021-08-19 13:45:00.884,0.2,-0.24
2021-08-19 13:45:00.888,0.245,0.005
2021-08-19 13:45:00.892,0.255,0.19
2021-08-19 13:45:00.896,0.3,0.415
2021-08-19 13:45:00.900,0.28,0.59
2021-08-19 13:45:00.904,0.315,0.73
2021-08-19 13:45:00.908,0.325,0.875
2021-08-19 13:45:00.912,0.335,0.965
2021-08-19 13:45:00.916,0.35,0.995
2021-08-19 13:45:00.920,0.345,1.04
2021-08-19 13:45:00.924,0.355,1.05
2021-08-19 13:45:00.928,0.365,1.07
2021-08-19 13:45:00.932,0.35,1.08
2021-08-19 13:45:00.936,0.365,1.13
2021-08-19 13:45:00.940,0.38,1.155
2021-08-19 13:45:00.944,0.41,1.185
2021-08-19 13:45:00.948,0.425,1.18
2021-08-19 13:45:00.952,0.465,1.18
2021-08-19 13:45:00.956,0.495,1.195
2021-08-19 13:45:00.960,0.54,1.195
2021-08-19 13:45:00.964,0.575,1.19
2021-08-19 13:45:00.968,0.63,1.23
2021-08-19 13:45:00.972,0.65,1.28
2021-08-19 13:45:00.976,0.675,1.365
2021-08-19 13:45:00.980,0.695,1.37
2021-08-19 13:45:00.984,0.71,1.43
2021-08-19 13:45:00.988,0.745,1.475
2021-08-19 13:45:00.992,0.755,1.52
2021-08-19 13:45:00.996,0.785,1.535
2021-08-19 13:45:01.000,0.795,1.585
2021-08-19 13:45:01.004,0.815,1.62
2021-08-19 13:45:01.008,0.83,1.635
2021-08-19 13:45:01.012,0.835,1.685
2021-08-19 13:45:01.016,0.835,1.695
2021-08-19 13:45:01.020,0.85,1.705
2021-08-19 13:45:01.024,0.83,1.73
2021-08-19 13:45:01.028,0.86,1.76
2021-08-19 13:45:01.032,0.85,1.8
2021-08-19 13:45:01.036,0.86,1.8
2021-08-19 13:45:01.040,0.86,1.815
2021-08-19 13:45:01.044,0.855,1.84
2021-08-19 13:45:01.048,0.84,1.885
2021-08-19 13:45:01.052,0.795,1.875
2021-08-19 13:45:01.056,0.79,1.86
2021-08-19 13:45:01.060,0.785,1.885
2021-08-19 13:45:01.064,0.77,1.885
2021-08-19 13:45:01.068,0.765,1.875
2021-08-19 13:45:01.072,0.74,1.83
2021-08-19 13:45:01.076,0.69,1.795
2021-08-19 13:45:01.080,0.645,1.755
2021-08-19 13:45:01.084,0.59,1.715
2021-08-19 13:45:01.088,0.525,1.695
2021-08-19 13:45:01.092,0.51,1.65
2021-08-19 13:45:01.096,0.455,1.58
2021-08-19 13:45:01.100,0.435,1.51
2021-08-19 13:45:01.104,0.405,1.45
2021-08-19 13:45:01.108,0.415,1.385
2021-08-19 13:45:01.112,0.375,1.335
2021-08-19 13:45:01.116,0.315,1.265
2021-08-19 13:45:01.120,0.265,1.215
2021-08-19 13:45:01.124,0.235,1.17
2021-08-19 13:45:01.128,0.21,1.085
2021-08-19 13:45:01.132,0.205,1.015
2021-08-19 13:45:01.136,0.215,0.95
2021-08-19 13:45:01.140,0.215,0.85
2021-08-19 13:45:01.144,0.21,0.795
2021-08-19 13:45:01.148,0.21,0.78
2021-08-19 13:45:01.152,0.19,0.72
2021-08-19 13:45:01.156,0.18,0.685
2021-08-19 13:45:01.160,0.16,0.675
2021-08-19 13:45:01.164,0.145,0.65
2021-08-19 13:45:01.168,0.14,0.63
2021-08-19 13:45:01.172,0.15,0.59
2021-08-19 13:45:01.176,0.145,0.565
2021-08-19 13:45:01.180,0.135,0.56
2021-08-19 13:45:01.184,0.1,0.515
2021-08-19 13:45:01.188,0.09,0.495
2021-08-19 13:45:01.192,0.115,0.485
2021-08-19 13:45:01.196,0.095,0.465
2021-08-19 13:45:01.200,0.11,0.44
2021-08-19 13:45:01.204,0.105,0.45
2021-08-19 13:45:01.208,0.09,0.45
2021-08-19 13:45:01.212,0.07,0.425
2021-08-19 13:45:01.216,0.075,0.44
2021-08-19 13:45:01.220,0.07,0.425
2021-08-19 13:45:01.224,0.075,0.44
2021-08-19 13:45:01.228,0.075,0.44
2021-08-19 13:45:01.232,0.03,0.43
2021-08-19 13:45:01.236,0.03,0.42
2021-08-19 13:45:01.240,-0.005,0.39
2021-08-19 13:45:01.244,-0.02,0.395
2021-08-19 13:45:01.248,-0.045,0.375
2021-08-19 13:45:01.252,-0.06,0.35
2021-08-19 13:45:01.256,-0.075,0.36
2021-08-19 13:45:01.260,-0.06,0.38
2021-08-19 13:45:01.264,-0.05,0.355
2021-08-19 13:45:01.268,0.025,0.365
2021-08-19 13:45:01.272,0.18,0.37
2021-08-19 13:45:01.276,0.34,0.365
2021-08-19 13:45:01.280,0.41,0.4
2021-08-19 13:45:01.284,0.325,0.5
2021-08-19 13:45:01.288,0.13,0.565
2021-08-19 13:45:01.292,-0.185,0.595
2021-08-19 13:45:01.296,-0.605,0.385
2021-08-19 13:45:01.300,-1.045,-0.05
2021-08-19 13:45:01.304,-1.36,-0.57
2021-08-19 13:45:01.308,-1.47,-1.335
2021-08-19 13:45:01.392,-0.25,-1.635
2021-08-19 13:45:01.396,-0.14,-1.205
2021-08-19 13:45:01.400,-0.015,-0.78
2021-08-19 13:45:01.404,0.06,-0.475
2021-08-19 13:45:01.408,0.1,-0.19
2021-08-19 13:45:01.412,0.125,0.06
2021-08-19 13:45:01.416,0.125,0.27
2021-08-19 13:45:01.420,0.12,0.45
2021-08-19 13:45:01.424,0.08,0.63
2021-08-19 13:45:01.428,0.095,0.765
2021-08-19 13:45:01.432,0.095,0.845
2021-08-19 13:45:01.436,0.11,0.89
2021-08-19 13:45:01.440,0.135,0.93
2021-08-19 13:45:01.444,0.14,0.945
2021-08-19 13:45:01.448,0.145,0.965
2021-08-19 13:45:01.452,0.165,0.985
2021-08-19 13:45:01.456,0.195,1.0
2021-08-19 13:45:01.460,0.22,1.035
2021-08-19 13:45:01.464,0.23,1.035
2021-08-19 13:45:01.468,0.265,1.05
2021-08-19 13:45:01.472,0.26,1.06
2021-08-19 13:45:01.476,0.305,1.11
2021-08-19 13:45:01.480,0.33,1.105
2021-08-19 13:45:01.484,0.345,1.14
2021-08-19 13:45:01.488,0.39,1.155
2021-08-19 13:45:01.492,0.4,1.2
2021-08-19 13:45:01.496,0.41,1.24
2021-08-19 13:45:01.500,0.42,1.275
2021-08-19 13:45:01.504,0.415,1.26
2021-08-19 13:45:01.508,0.42,1.28
2021-08-19 13:45:01.512,0.43,1.325
2021-08-19 13:45:01.516,0.435,1.345
2021-08-19 13:45:01.520,0.445,1.335
2021-08-19 13:45:01.524,0.475,1.37
2021-08-19 13:45:01.528,0.44,1.385
2021-08-19 13:45:01.532,0.455,1.415
2021-08-19 13:45:01.536,0.44,1.42
2021-08-19 13:45:01.540,0.44,1.435
2021-08-19 13:45:01.544,0.47,1.455
2021-08-19 13:45:01.548,0.455,1.46
2021-08-19 13:45:01.552,0.445,1.495
2021-08-19 13:45:01.556,0.445,1.5
2021-08-19 13:45:01.560,0.45,1.51
2021-08-19 13:45:01.564,0.445,1.53
2021-08-19 13:45:01.568,0.46,1.52
2021-08-19 13:45:01.572,0.425,1.5
2021-08-19 13:45:01.576,0.42,1.535
2021-08-19 13:45:01.580,0.4,1.52
2021-08-19 13:45:01.584,0.4,1.505
2021-08-19 13:45:01.588,0.34,1.515
2021-08-19 13:45:01.592,0.315,1.525
2021-08-19 13:45:01.596,0.275,1.45
2021-08-19 13:45:01.600,0.225,1.415
2021-08-19 13:45:01.604,0.185,1.375
2021-08-19 13:45:01.608,0.155,1.32
2021-08-19 13:45:01.612,0.16,1.255
2021-08-19 13:45:01.616,0.14,1.19
2021-08-19 13:45:01.620,0.11,1.08
2021-08-19 13:45:01.624,0.09,1.02
2021-08-19 13:45:01.628,0.05,0.93
2021-08-19 13:45:01.632,0.02,0.87
2021-08-19 13:45:01.636,0.0,0.795
2021-08-19 13:45:01.640,-0.055,0.755
2021-08-19 13:45:01.644,-0.07,0.705
2021-08-19 13:45:01.648,-0.065,0.65
2021-08-19 13:45:01.652,-0.06,0.565
2021-08-19 13:45:01.656,-0.04,0.515
2021-08-19 13:45:01.660,-0.005,0.46
2021-08-19 13:45:01.664,0.0,0.4
2021-08-19 13:45:01.668,-0.005,0.405
2021-08-19 13:45:01.672,-0.015,0.42
2021-08-19 13:45:01.676,-0.01,0.44
2021-08-19 13:45:01.680,-0.01,0.435
2021-08-19 13:45:01.684,-0.04,0.42
2021-08-19 13:45:01.688,-0.035,0.405
2021-08-19 13:45:01.692,-0.06,0.405
2021-08-19 13:45:01.696,-0.075,0.375
2021-08-19 13:45:01.700,-0.08,0.36
2021-08-19 13:45:01.704,-0.095,0.36
2021-08-19 13:45:01.708,-0.095,0.355
2021-08-19 13:45:01.712,-0.08,0.32
2021-08-19 13:45:01.716,-0.085,0.33
2021-08-19 13:45:01.720,-0.1,0.315
2021-08-19 13:45:01.724,-0.08,0.305
2021-08-19 13:45:01.728,-0.06,0.315
2021-08-19 13:45:01.732,0.005,0.33
2021-08-19 13:45:01.736,0.185,0.29
2021-08-19 13:45:01.740,0.36,0.295
2021-08-19 13:45:01.744,0.45,0.325
2021-08-19 13:45:01.748,0.41,0.385
2021-08-19 13:45:01.752,0.295,0.5
2021-08-19 13:45:01.756,0.0,0.575
2021-08-19 13:45:01.760,-0.43,0.38
2021-08-19 13:45:01.764,-0.8,-0.065
2021-08-19 13:45:01.768,-1.085,-0.67
2021-08-19 13:45:01.772,-1.2,-1.465
2021-08-19 13:45:01.856,-0.38,-1.87
2021-08-19 13:45:01.860,-0.23,-1.41
2021-08-19 13:45:01.864,-0.09,-0.985
2021-08-19 13:45:01.868,0.015,-0.56
2021-08-19 13:45:01.872,0.105,-0.24
2021-08-19 13:45:01.876,0.14,0.01
2021-08-19 13:45:01.880,0.19,0.27
2021-08-19 13:45:01.884,0.19,0.495
2021-08-19 13:45:01.888,0.18,0.705
2021-08-19 13:45:01.892,0.205,0.865
2021-08-19 13:45:01.896,0.23,1.0
2021-08-19 13:45:01.900,0.225,1.09
2021-08-19 13:45:01.904,0.225,1.14
2021-08-19 13:45:01.908,0.225,1.175
2021-08-19 13:45:01.912,0.235,1.225
2021-08-19 13:45:01.916,0.245,1.215
2021-08-19 13:45:01.920,0.255,1.23
2021-08-19 13:45:01.924,0.255,1.265
2021-08-19 13:45:01.928,0.27,1.28
2021-08-19 13:45:01.932,0.275,1.295
2021-08-19 13:45:01.936,0.3,1.3
2021-08-19 13:45:01.940,0.31,1.295
2021-08-19 13:45:01.944,0.335,1.31
2021-08-19 13:45:01.948,0.355,1.295
2021-08-19 13:45:01.952,0.375,1.32
2021-08-19 13:45:01.956,0.385,1.355
2021-08-19 13:45:01.960,0.405,1.38
2021-08-19 13:45:01.964,0.415,1.38
2021-08-19 13:45:01.968,0.425,1.395
2021-08-19 13:45:01.972,0.445,1.405
2021-08-19 13:45:01.976,0.47,1.42
2021-08-19 13:45:01.980,0.49,1.43
2021-08-19 13:45:01.984,0.51,1.44
2021-08-19 13:45:01.988,0.535,1.465
2021-08-19 13:45:01.992,0.535,1.485
2021-08-19 13:45:01.996,0.58,1.49
2021-08-19 13:45:02.000,0.6,1.5
2021-08-19 13:45:02.004,0.59,1.515
2021-08-19 13:45:02.008,0.625,1.55
2021-08-19 13:45:02.012,0.635,1.56
2021-08-19 13:45:02.016,0.665,1.58
2021-08-19 13:45:02.020,0.665,1.59
2021-08-19 13:45:02.024,0.64,1.605
2021-08-19 13:45:02.028,0.65,1.635
2021-08-19 13:45:02.032,0.64,1.66
2021-08-19 13:45:02.036,0.64,1.675
2021-08-19 13:45:02.040,0.63,1.66
2021-08-19 13:45:02.044,0.6,1.67
2021-08-19 13:45:02.048,0.57,1.66
2021-08-19 13:45:02.052,0.545,1.64
2021-08-19 13:45:02.056,0.48,1.63
2021-08-19 13:45:02.060,0.45,1.605
2021-08-19 13:45:02.064,0.405,1.56
2021-08-19 13:45:02.068,0.37,1.485
2021-08-19 13:45:02.072,0.33,1.435
2021-08-19 13:45:02.076,0.31,1.38
2021-08-19 13:45:02.080,0.27,1.315
2021-08-19 13:45:02.084,0.22,1.265
2021-08-19 13:45:02.088,0.165,1.24
2021-08-19 13:45:02.092,0.1,1.165
2021-08-19 13:45:02.096,0.085,1.09
2021-08-19 13:45:02.100,0.005,1.0
2021-08-19 13:45:02.104,-0.03,0.92
2021-08-19 13:45:02.108,-0.065,0.865
2021-08-19 13:45:02.112,-0.09,0.8
2021-08-19 13:45:02.116,-0.1,0.75
2021-08-19 13:45:02.120,-0.15,0.67
2021-08-19 13:45:02.124,-0.16,0.625
2021-08-19 13:45:02.128,-0.18,0.565
2021-08-19 13:45:02.132,-0.195,0.54
2021-08-19 13:45:02.136,-0.255,0.535
2021-08-19 13:45:02.140,-0.265,0.515
2021-08-19 13:45:02.144,-0.27,0.5
2021-08-19 13:45:02.148,-0.26,0.48
2021-08-19 13:45:02.152,-0.265,0.455
2021-08-19 13:45:02.156,-0.27,0.445
2021-08-19 13:45:02.160,-0.24,0.39
2021-08-19 13:45:02.164,-0.22,0.34
2021-08-19 13:45:02.168,-0.23,0.35
2021-08-19 13:45:02.172,-0.23,0.295
2021-08-19 13:45:02.176,-0.235,0.3
2021-08-19 13:45:02.180,-0.23,0.27
2021-08-19 13:45:02.184,-0.235,0.265
2021-08-19 13:45:02.188,-0.215,0.245
2021-08-19 13:45:02.192,-0.21,0.25
2021-08-19 13:45:02.196,-0.21,0.235
2021-08-19 13:45:02.200,-0.21,0.25
2021-08-19 13:45:02.204,-0.175,0.235
2021-08-19 13:45:02.208,-0.155,0.205
2021-08-19 13:45:02.212,-0.14,0.21
2021-08-19 13:45:02.216,-0.1,0.245
2021-08-19 13:45:02.220,-0.085,0.24
2021-08-19 13:45:02.224,-0.07,0.29
2021-08-19 13:45:02.228,-0.075,0.29
2021-08-19 13:45:02.232,-0.075,0.33
2021-08-19 13:45:02.236,-0.07,0.34
2021-08-19 13:45:02.240,-0.1,0.35
2021-08-19 13:45:02.244,-0.11,0.345
2021-08-19 13:45:02.248,-0.12,0.335
2021-08-19 13:45:02.252,-0.125,0.335
2021-08-19 13:45:02.256,-0.155,0.335
2021-08-19 13:45:02.260,-0.18,0.315
2021-08-19 13:45:02.264,-0.16,0.33
2021-08-19 13:45:02.268,-0.165,0.31
2021-08-19 13:45:02.272,-0.22,0.295
2021-08-19 13:45:02.276,-0.225,0.29
2021-08-19 13:45:02.280,-0.23,0.3
2021-08-19 13:45:02.284,-0.24,0.315
2021-08-19 13:45:02.288,-0.235,0.305
2021-08-19 13:45:02.292,-0.22,0.275
2021-08-19 13:45:02.296,-0.24,0.28
2021-08-19 13:45:02.300,-0.23,0.28
2021-08-19 13:45:02.304,-0.235,0.28
2021-08-19 13:45:02.308,-0.205,0.265
2021-08-19 13:45:02.312,-0.12,0.27
2021-08-19 13:45:02.316,0.005,0.29
2021-08-19 13:45:02.320,0.145,0.275
2021-08-19 13:45:02.324,0.215,0.29
2021-08-19 13:45:02.328,0.215,0.37
2021-08-19 13:45:02.332,0.13,0.44
2021-08-19 13:45:02.336,-0.05,0.46
2021-08-19 13:45:02.340,-0.355,0.28
2021-08-19 13:45:02.344,-0.72,-0.155
2021-08-19 13:45:02.348,-1.045,-0.785
2021-08-19 13:45:02.352,-1.21,-1.49
2021-08-19 13:45:02.440,-0.575,-1.795
2021-08-19 13:45:02.444,-0.435,-1.315
2021-08-19 13:45:02.448,-0.315,-0.925
2021-08-19 13:45:02.452,-0.205,-0.56
2021-08-19 13:45:02.456,-0.13,-0.29
2021-08-19 13:45:02.460,-0.1,-0.005
2021-08-19 13:45:02.464,-0.07,0.24
2021-08-19 13:45:02.468,-0.075,0.47
2021-08-19 13:45:02.472,-0.05,0.665
2021-08-19 13:45:02.476,-0.04,0.795
2021-08-19 13:45:02.480,0.005,0.92
2021-08-19 13:45:02.484,0.025,0.985
2021-08-19 13:45:02.488,0.055,1.035
2021-08-19 13:45:02.492,0.075,1.03
2021-08-19 13:45:02.496,0.1,1.045
2021-08-19 13:45:02.500,0.115,1.075
2021-08-19 13:45:02.504,0.135,1.085
2021-08-19 13:45:02.508,0.155,1.105
2021-08-19 13:45:02.512,0.165,1.11
2021-08-19 13:45:02.516,0.16,1.12
2021-08-19 13:45:02.520,0.165,1.09
2021-08-19 13:45:02.524,0.155,1.11
2021-08-19 13:45:02.528,0.175,1.14
2021-08-19 13:45:02.532,0.23,1.125
2021-08-19 13:45:02.536,0.28,1.135
2021-08-19 13:45:02.540,0.345,1.125
2021-08-19 13:45:02.544,0.415,1.175
2021-08-19 13:45:02.548,0.45,1.19
2021-08-19 13:45:02.552,0.49,1.26
2021-08-19 13:45:02.556,0.525,1.305
2021-08-19 13:45:02.560,0.56,1.35
2021-08-19 13:45:02.564,0.575,1.42
2021-08-19 13:45:02.568,0.62,1.48
2021-08-19 13:45:02.572,0.625,1.5
2021-08-19 13:45:02.576,0.66,1.54
2021-08-19 13:45:02.580,0.7,1.595
2021-08-19 13:45:02.584,0.68,1.62
2021-08-19 13:45:02.588,0.69,1.645
2021-08-19 13:45:02.592,0.69,1.69
2021-08-19 13:45:02.596,0.7,1.725
2021-08-19 13:45:02.600,0.685,1.745
2021-08-19 13:45:02.604,0.7,1.775
2021-08-19 13:45:02.608,0.68,1.79
2021-08-19 13:45:02.612,0.635,1.8
2021-08-19 13:45:02.616,0.605,1.84
2021-08-19 13:45:02.620,0.59,1.86
2021-08-19 13:45:02.624,0.52,1.86
2021-08-19 13:45:02.628,0.5,1.83
2021-08-19 13:45:02.632,0.46,1.81
2021-08-19 13:45:02.636,0.425,1.77
2021-08-19 13:45:02.640,0.38,1.74
2021-08-19 13:45:02.644,0.35,1.69
2021-08-19 13:45:02.648,0.29,1.64
2021-08-19 13:45:02.652,0.235,1.605
2021-08-19 13:45:02.656,0.2,1.545
2021-08-19 13:45:02.660,0.16,1.475
2021-08-19 13:45:02.664,0.135,1.37
2021-08-19 13:45:02.668,0.075,1.305
2021-08-19 13:45:02.672,0.04,1.205
2021-08-19 13:45:02.676,0.0,1.13
2021-08-19 13:45:02.680,-0.025,1.005
2021-08-19 13:45:02.684,-0.075,0.89
2021-08-19 13:45:02.688,-0.11,0.78
2021-08-19 13:45:02.692,-0.12,0.69
2021-08-19 13:45:02.696,-0.145,0.625
2021-08-19 13:45:02.700,-0.185,0.555
2021-08-19 13:45:02.704,-0.23,0.485
2021-08-19 13:45:02.708,-0.27,0.435
2021-08-19 13:45:02.712,-0.27,0.375
2021-08-19 13:45:02.716,-0.285,0.31
2021-08-19 13:45:02.720,-0.34,0.24
2021-08-19 13:45:02.724,-0.3,0.26
2021-08-19 13:45:02.728,-0.275,0.255
2021-08-19 13:45:02.732,-0.225,0.235
2021-08-19 13:45:02.736,-0.215,0.215
2021-08-19 13:45:02.740,-0.185,0.2
2021-08-19 13:45:02.744,-0.155,0.225
2021-08-19 13:45:02.748,-0.16,0.26
2021-08-19 13:45:02.752,-0.16,0.28
2021-08-19 13:45:02.756,-0.155,0.285
2021-08-19 13:45:02.760,-0.18,0.285
2021-08-19 13:45:02.764,-0.145,0.305
2021-08-19 13:45:02.768,-0.175,0.295
2021-08-19 13:45:02.772,-0.17,0.29
2021-08-19 13:45:02.776,-0.165,0.33
2021-08-19 13:45:02.780,-0.175,0.335
2021-08-19 13:45:02.784,-0.16,0.335
2021-08-19 13:45:02.788,-0.17,0.32
2021-08-19 13:45:02.792,-0.17,0.335
2021-08-19 13:45:02.796,-0.2,0.35
2021-08-19 13:45:02.800,-0.18,0.335
2021-08-19 13:45:02.804,-0.17,0.335
2021-08-19 13:45:02.808,-0.165,0.325
2021-08-19 13:45:02.812,-0.165,0.36
2021-08-19 13:45:02.816,-0.16,0.345
2021-08-19 13:45:02.820,-0.15,0.32
2021-08-19 13:45:02.824,-0.155,0.325
2021-08-19 13:45:02.828,-0.155,0.345
2021-08-19 13:45:02.832,-0.155,0.33
2021-08-19 13:45:02.836,-0.175,0.33
2021-08-19 13:45:02.840,-0.2,0.325
2021-08-19 13:45:02.844,-0.225,0.325
2021-08-19 13:45:02.848,-0.235,0.315
2021-08-19 13:45:02.852,-0.255,0.285
2021-08-19 13:45:02.856,-0.265,0.235
2021-08-19 13:45:02.860,-0.28,0.19
2021-08-19 13:45:02.864,-0.32,0.17
2021-08-19 13:45:02.868,-0.325,0.145
2021-08-19 13:45:02.872,-0.33,0.125
2021-08-19 13:45:02.876,-0.32,0.11
2021-08-19 13:45:02.880,-0.325,0.13
2021-08-19 13:45:02.884,-0.335,0.11
2021-08-19 13:45:02.888,-0.35,0.095
2021-08-19 13:45:02.892,-0.34,0.11
2021-08-19 13:45:02.896,-0.315,0.085
2021-08-19 13:45:02.900,-0.305,0.085
2021-08-19 13:45:02.904,-0.24,0.065
2021-08-19 13:45:02.908,-0.22,0.09
2021-08-19 13:45:02.912,-0.175,0.1
2021-08-19 13:45:02.916,-0.15,0.11
2021-08-19 13:45:02.920,-0.155,0.1
2021-08-19 13:45:02.924,-0.095,0.125
2021-08-19 13:45:02.928,0.015,0.15
2021-08-19 13:45:02.932,0.125,0.165
2021-08-19 13:45:02.936,0.225,0.175
2021-08-19 13:45:02.940,0.175,0.235
2021-08-19 13:45:02.944,0.01,0.325
2021-08-19 13:45:02.948,-0.24,0.355
2021-08-19 13:45:02.952,-0.63,0.205
2021-08-19 13:45:02.956,-1.07,-0.225
2021-08-19 13:45:02.960,-1.415,-0.865
2021-08-19 13:45:02.964,-1.595,-1.65
2021-08-19 13:45:03.052,-0.475,-1.86
2021-08-19 13:45:03.056,-0.33,-1.4
2021-08-19 13:45:03.060,-0.16,-0.97
2021-08-19 13:45:03.064,-0.09,-0.64
2021-08-19 13:45:03.068,-0.035,-0.37
2021-08-19 13:45:03.072,0.005,-0.065
2021-08-19 13:45:03.076,0.03,0.17
2021-08-19 13:45:03.080,0.065,0.415
2021-08-19 13:45:03.084,0.085,0.58
2021-08-19 13:45:03.088,0.105,0.735
2021-08-19 13:45:03.092,0.145,0.825
2021-08-19 13:45:03.096,0.15,0.895
2021-08-19 13:45:03.100,0.175,0.935
2021-08-19 13:45:03.104,0.2,0.975
2021-08-19 13:45:03.108,0.235,0.995
2021-08-19 13:45:03.112,0.22,1.03
2021-08-19 13:45:03.116,0.21,1.03
2021-08-19 13:45:03.120,0.23,1.065
2021-08-19 13:45:03.124,0.23,1.115
2021-08-19 13:45:03.128,0.255,1.15
2021-08-19 13:45:03.132,0.305,1.17
2021-08-19 13:45:03.136,0.305,1.22
2021-08-19 13:45:03.140,0.315,1.245
2021-08-19 13:45:03.144,0.32,1.265
2021-08-19 13:45:03.148,0.3,1.325
2021-08-19 13:45:03.152,0.34,1.36
2021-08-19 13:45:03.156,0.34,1.36
2021-08-19 13:45:03.160,0.35,1.395
2021-08-19 13:45:03.164,0.355,1.395
2021-08-19 13:45:03.168,0.365,1.435
2021-08-19 13:45:03.172,0.385,1.46
2021-08-19 13:45:03.176,0.41,1.46
2021-08-19 13:45:03.180,0.44,1.48
2021-08-19 13:45:03.184,0.435,1.52
2021-08-19 13:45:03.188,0.445,1.545
2021-08-19 13:45:03.192,0.465,1.575
2021-08-19 13:45:03.196,0.48,1.6
2021-08-19 13:45:03.200,0.475,1.64
2021-08-19 13:45:03.204,0.515,1.66
2021-08-19 13:45:03.208,0.545,1.705
2021-08-19 13:45:03.212,0.545,1.71
2021-08-19 13:45:03.216,0.545,1.71
2021-08-19 13:45:03.220,0.53,1.7
2021-08-19 13:45:03.224,0.52,1.66
2021-08-19 13:45:03.228,0.49,1.645
2021-08-19 13:45:03.232,0.48,1.62
2021-08-19 13:45:03.236,0.435,1.625
2021-08-19 13:45:03.240,0.405,1.575
2021-08-19 13:45:03.244,0.37,1.515
2021-08-19 13:45:03.248,0.335,1.475
2021-08-19 13:45:03.252,0.295,1.435
2021-08-19 13:45:03.256,0.25,1.4
2021-08-19 13:45:03.260,0.235,1.335
2021-08-19 13:45:03.264,0.21,1.255
2021-08-19 13:45:03.268,0.18,1.205
2021-08-19 13:45:03.272,0.165,1.16
2021-08-19 13:45:03.276,0.15,1.08
2021-08-19 13:45:03.280,0.095,1.035
2021-08-19 13:45:03.284,0.06,0.975
2021-08-19 13:45:03.288,0.015,0.895
2021-08-19 13:45:03.292,-0.01,0.835
2021-08-19 13:45:03.296,0.005,0.79
2021-08-19 13:45:03.300,-0.015,0.71
2021-08-19 13:45:03.304,-0.04,0.635
2021-08-19 13:45:03.308,-0.08,0.565
2021-08-19 13:45:03.312,-0.1,0.535
2021-08-19 13:45:03.316,-0.13,0.535
2021-08-19 13:45:03.320,-0.12,0.525
2021-08-19 13:45:03.324,-0.12,0.48
2021-08-19 13:45:03.328,-0.15,0.435
2021-08-19 13:45:03.332,-0.155,0.39
2021-08-19 13:45:03.336,-0.165,0.375
2021-08-19 13:45:03.340,-0.195,0.4
2021-08-19 13:45:03.344,-0.195,0.39
2021-08-19 13:45:03.348,-0.195,0.34
2021-08-19 13:45:03.352,-0.2,0.325
2021-08-19 13:45:03.356,-0.2,0.315
2021-08-19 13:45:03.360,-0.215,0.315
2021-08-19 13:45:03.364,-0.23,0.3
2021-08-19 13:45:03.368,-0.22,0.275
2021-08-19 13:45:03.372,-0.235,0.285
2021-08-19 13:45:03.376,-0.24,0.275
2021-08-19 13:45:03.380,-0.255,0.235
2021-08-19 13:45:03.384,-0.275,0.22
2021-08-19 13:45:03.388,-0.275,0.235
2021-08-19 13:45:03.392,-0.295,0.215
2021-08-19 13:45:03.396,-0.295,0.205
2021-08-19 13:45:03.400,-0.28,0.195
2021-08-19 13:45:03.404,-0.29,0.15
2021-08-19 13:45:03.408,-0.295,0.145
2021-08-19 13:45:03.412,-0.265,0.135
2021-08-19 13:45:03.416,-0.265,0.14
2021-08-19 13:45:03.420,-0.3,0.165
2021-08-19 13:45:03.424,-0.29,0.135
2021-08-19 13:45:03.428,-0.28,0.155
2021-08-19 13:45:03.432,-0.26,0.145
2021-08-19 13:45:03.436,-0.295,0.145
2021-08-19 13:45:03.440,-0.295,0.135
2021-08-19 13:45:03.444,-0.295,0.135
2021-08-19 13:45:03.448,-0.29,0.135
2021-08-19 13:45:03.452,-0.3,0.115
2021-08-19 13:45:03.456,-0.31,0.085
2021-08-19 13:45:03.460,-0.325,0.075
2021-08-19 13:45:03.464,-0.35,0.09
2021-08-19 13:45:03.468,-0.365,0.095
2021-08-19 13:45:03.472,-0.37,0.1
2021-08-19 13:45:03.476,-0.35,0.075
2021-08-19 13:45:03.480,-0.355,0.075
2021-08-19 13:45:03.484,-0.345,0.075
2021-08-19 13:45:03.488,-0.335,0.115
2021-08-19 13:45:03.492,-0.31,0.135
2021-08-19 13:45:03.496,-0.295,0.125
2021-08-19 13:45:03.500,-0.295,0.135
2021-08-19 13:45:03.504,-0.285,0.13
2021-08-19 13:45:03.508,-0.275,0.155
2021-08-19 13:45:03.512,-0.29,0.155
2021-08-19 13:45:03.516,-0.31,0.17
2021-08-19 13:45:03.520,-0.28,0.17
2021-08-19 13:45:03.524,-0.29,0.165
2021-08-19 13:45:03.528,-0.305,0.18
2021-08-19 13:45:03.532,-0.31,0.18
2021-08-19 13:45:03.536,-0.3,0.15
2021-08-19 13:45:03.540,-0.265,0.145
2021-08-19 13:45:03.544,-0.24,0.125
2021-08-19 13:45:03.548,-0.27,0.105
2021-08-19 13:45:03.552,-0.25,0.095
2021-08-19 13:45:03.556,-0.265,0.09
2021-08-19 13:45:03.560,-0.27,0.075
2021-08-19 13:45:03.564,-0.28,0.06
2021-08-19 13:45:03.568,-0.285,0.02
2021-08-19 13:45:03.572,-0.275,-0.025
2021-08-19 13:45:03.576,-0.22,-0.015
2021-08-19 13:45:03.580,-0.16,-0.005
2021-08-19 13:45:03.584,-0.005,-0.015
2021-08-19 13:45:03.588,0.135,0.0
2021-08-19 13:45:03.592,0.15,0.065
2021-08-19 13:45:03.596,0.055,0.135
2021-08-19 13:45:03.600,-0.135,0.235
2021-08-19 13:45:03.604,-0.49,0.275
2021-08-19 13:45:03.608,-0.98,-0.11
2021-08-19 13:45:03.612,-1.43,-0.735
2021-08-19 13:45:03.616,-1.75,-1.585
2021-08-19 13:45:03.704,-0.55,-1.72
2021-08-19 13:45:03.708,-0.37,-1.255
2021-08-19 13:45:03.712,-0.21,-0.84
2021-08-19 13:45:03.716,-0.115,-0.5
2021-08-19 13:45:03.720,-0.06,-0.25
2021-08-19 13:45:03.724,0.015,0.025
2021-08-19 13:45:03.728,0.01,0.24
2021-08-19 13:45:03.732,0.015,0.445
2021-08-19 13:45:03.736,0.015,0.62
2021-08-19 13:45:03.740,0.01,0.735
2021-08-19 13:45:03.744,0.02,0.83
2021-08-19 13:45:03.748,0.055,0.875
2021-08-19 13:45:03.752,0.09,0.895
2021-08-19 13:45:03.756,0.105,0.885
2021-08-19 13:45:03.760,0.105,0.9
2021-08-19 13:45:03.764,0.16,0.935
2021-08-19 13:45:03.768,0.16,0.955
2021-08-19 13:45:03.772,0.16,0.96
2021-08-19 13:45:03.776,0.145,1.015
2021-08-19 13:45:03.780,0.145,1.045
2021-08-19 13:45:03.784,0.125,1.045
2021-08-19 13:45:03.788,0.12,1.045
2021-08-19 13:45:03.792,0.115,1.06
2021-08-19 13:45:03.796,0.125,1.055
2021-08-19 13:45:03.800,0.13,1.065
2021-08-19 13:45:03.804,0.18,1.075
2021-08-19 13:45:03.808,0.24,1.105
2021-08-19 13:45:03.812,0.27,1.15
2021-08-19 13:45:03.816,0.285,1.19
2021-08-19 13:45:03.820,0.31,1.26
2021-08-19 13:45:03.824,0.35,1.315
2021-08-19 13:45:03.828,0.36,1.385
2021-08-19 13:45:03.832,0.365,1.405
2021-08-19 13:45:03.836,0.365,1.415
2021-08-19 13:45:03.840,0.395,1.465
2021-08-19 13:45:03.844,0.41,1.495
2021-08-19 13:45:03.848,0.42,1.55
2021-08-19 13:45:03.852,0.415,1.565
2021-08-19 13:45:03.856,0.45,1.605
2021-08-19 13:45:03.860,0.455,1.64
2021-08-19 13:45:03.864,0.45,1.705
2021-08-19 13:45:03.868,0.44,1.71
2021-08-19 13:45:03.872,0.43,1.74
2021-08-19 13:45:03.876,0.395,1.75
2021-08-19 13:45:03.880,0.38,1.775
2021-08-19 13:45:03.884,0.355,1.785
2021-08-19 13:45:03.888,0.31,1.76
2021-08-19 13:45:03.892,0.3,1.72
2021-08-19 13:45:03.896,0.26,1.67
2021-08-19 13:45:03.900,0.22,1.605
2021-08-19 13:45:03.904,0.17,1.555
2021-08-19 13:45:03.908,0.13,1.5
2021-08-19 13:45:03.912,0.11,1.44
2021-08-19 13:45:03.916,0.05,1.37
2021-08-19 13:45:03.920,0.005,1.295
2021-08-19 13:45:03.924,-0.03,1.215
2021-08-19 13:45:03.928,-0.065,1.135
2021-08-19 13:45:03.932,-0.09,1.035
2021-08-19 13:45:03.936,-0.12,0.975
2021-08-19 13:45:03.940,-0.155,0.9
2021-08-19 13:45:03.944,-0.21,0.81
2021-08-19 13:45:03.948,-0.25,0.73
2021-08-19 13:45:03.952,-0.3,0.63
2021-08-19 13:45:03.956,-0.355,0.58
2021-08-19 13:45:03.960,-0.405,0.53
2021-08-19 13:45:03.964,-0.455,0.46
2021-08-19 13:45:03.968,-0.465,0.41
2021-08-19 13:45:03.972,-0.455,0.35
2021-08-19 13:45:03.976,-0.42,0.315
2021-08-19 13:45:03.980,-0.415,0.265
2021-08-19 13:45:03.984,-0.395,0.23
2021-08-19 13:45:03.988,-0.325,0.24
2021-08-19 13:45:03.992,-0.27,0.26
2021-08-19 13:45:03.996,-0.205,0.26
2021-08-19 13:45:04.000,-0.095,0.275
2021-08-19 13:45:04.004,-0.015,0.325
2021-08-19 13:45:04.008,-0.075,0.405
2021-08-19 13:45:04.012,-0.35,0.485
2021-08-19 13:45:04.016,-0.91,0.52
2021-08-19 13:45:04.020,-1.585,0.29
2021-08-19 13:45:04.112,-0.485,-1.745
2021-08-19 13:45:04.116,-0.265,-1.275
2021-08-19 13:45:04.120,-0.13,-0.89
2021-08-19 13:45:04.124,-0.05,-0.56
2021-08-19 13:45:04.128,0.0,-0.25
2021-08-19 13:45:04.132,0.03,0.04
2021-08-19 13:45:04.136,0.04,0.31
2021-08-19 13:45:04.140,0.02,0.54
2021-08-19 13:45:04.144,0.02,0.72
2021-08-19 13:45:04.148,0.025,0.82
2021-08-19 13:45:04.152,0.0,0.855
2021-08-19 13:45:04.156,-0.005,0.92
2021-08-19 13:45:04.160,0.02,0.955
2021-08-19 13:45:04.164,0.03,1.02
2021-08-19 13:45:04.168,0.04,1.045
2021-08-19 13:45:04.172,0.055,1.1
2021-08-19 13:45:04.176,0.065,1.135
2021-08-19 13:45:04.180,0.07,1.185
2021-08-19 13:45:04.184,0.065,1.18
2021-08-19 13:45:04.188,0.09,1.18
2021-08-19 13:45:04.192,0.06,1.195
2021-08-19 13:45:04.196,0.1,1.165
2021-08-19 13:45:04.200,0.1,1.16
2021-08-19 13:45:04.204,0.085,1.145
2021-08-19 13:45:04.208,0.095,1.165
2021-08-19 13:45:04.212,0.115,1.175
2021-08-19 13:45:04.216,0.09,1.195
2021-08-19 13:45:04.220,0.085,1.195
2021-08-19 13:45:04.224,0.075,1.2
2021-08-19 13:45:04.228,0.09,1.22
2021-08-19 13:45:04.232,0.095,1.225
2021-08-19 13:45:04.236,0.095,1.22
2021-08-19 13:45:04.240,0.12,1.22
2021-08-19 13:45:04.244,0.105,1.26
2021-08-19 13:45:04.248,0.105,1.265
2021-08-19 13:45:04.252,0.1,1.275
2021-08-19 13:45:04.256,0.1,1.29
2021-08-19 13:45:04.260,0.115,1.285
2021-08-19 13:45:04.264,0.105,1.29
2021-08-19 13:45:04.268,0.1,1.3
2021-08-19 13:45:04.272,0.095,1.32
2021-08-19 13:45:04.276,0.075,1.37
2021-08-19 13:45:04.280,0.055,1.325
2021-08-19 13:45:04.284,0.045,1.33
2021-08-19 13:45:04.288,0.03,1.345
2021-08-19 13:45:04.292,0.045,1.335
2021-08-19 13:45:04.296,0.065,1.315
2021-08-19 13:45:04.300,0.06,1.26
2021-08-19 13:45:04.304,0.055,1.235
2021-08-19 13:45:04.308,0.06,1.21
2021-08-19 13:45:04.312,0.055,1.185
2021-08-19 13:45:04.316,0.03,1.155
2021-08-19 13:45:04.320,0.0,1.115
2021-08-19 13:45:04.324,-0.07,1.055
2021-08-19 13:45:04.328,-0.105,0.99
2021-08-19 13:45:04.332,-0.165,0.95
2021-08-19 13:45:04.336,-0.205,0.87
2021-08-19 13:45:04.340,-0.21,0.825
2021-08-19 13:45:04.344,-0.24,0.755
2021-08-19 13:45:04.348,-0.275,0.685
2021-08-19 13:45:04.352,-0.29,0.645
2021-08-19 13:45:04.356,-0.305,0.585
2021-08-19 13:45:04.360,-0.325,0.515
2021-08-19 13:45:04.364,-0.35,0.465
2021-08-19 13:45:04.368,-0.355,0.385
2021-08-19 13:45:04.372,-0.36,0.34
2021-08-19 13:45:04.376,-0.39,0.3
2021-08-19 13:45:04.380,-0.37,0.25
2021-08-19 13:45:04.384,-0.365,0.235
2021-08-19 13:45:04.388,-0.37,0.225
2021-08-19 13:45:04.392,-0.36,0.195
2021-08-19 13:45:04.396,-0.355,0.17
2021-08-19 13:45:04.400,-0.405,0.18
2021-08-19 13:45:04.404,-0.39,0.17
2021-08-19 13:45:04.408,-0.405,0.17
2021-08-19 13:45:04.412,-0.4,0.165
2021-08-19 13:45:04.416,-0.435,0.165
2021-08-19 13:45:04.420,-0.43,0.155
2021-08-19 13:45:04.424,-0.455,0.16
2021-08-19 13:45:04.428,-0.44,0.155
2021-08-19 13:45:04.432,-0.44,0.15
2021-08-19 13:45:04.436,-0.44,0.155
2021-08-19 13:45:04.440,-0.5,0.15
2021-08-19 13:45:04.444,-0.49,0.145
2021-08-19 13:45:04.448,-0.485,0.125
2021-08-19 13:45:04.452,-0.53,0.13
2021-08-19 13:45:04.456,-0.535,0.12
2021-08-19 13:45:04.460,-0.5,0.1
2021-08-19 13:45:04.464,-0.49,0.095
2021-08-19 13:45:04.468,-0.42,0.09
2021-08-19 13:45:04.472,-0.28,0.085
2021-08-19 13:45:04.476,-0.095,0.085
2021-08-19 13:45:04.480,0.03,0.13
2021-08-19 13:45:04.484,-0.07,0.17
2021-08-19 13:45:04.488,-0.25,0.245
2021-08-19 13:45:04.492,-0.55,0.335
2021-08-19 13:45:04.496,-1.0,0.185
2021-08-19 13:45:04.500,-1.465,-0.315
2021-08-19 13:45:04.504,-1.845,-1.03
2021-08-19 13:45:04.592,-0.645,-2.0
2021-08-19 13:45:04.596,-0.47,-1.47
2021-08-19 13:45:04.600,-0.31,-1.03
2021-08-19 13:45:04.604,-0.195,-0.65
2021-08-19 13:45:04.608,-0.155,-0.345
2021-08-19 13:45:04.612,-0.13,-0.03
2021-08-19 13:45:04.616,-0.12,0.225
2021-08-19 13:45:04.620,-0.12,0.465
2021-08-19 13:45:04.624,-0.105,0.655
2021-08-19 13:45:04.628,-0.075,0.79
2021-08-19 13:45:04.632,-0.06,0.915
2021-08-19 13:45:04.636,-0.025,1.01
2021-08-19 13:45:04.640,-0.005,1.04
2021-08-19 13:45:04.644,-0.01,1.04
2021-08-19 13:45:04.648,0.01,1.085
2021-08-19 13:45:04.652,-0.01,1.08
2021-08-19 13:45:04.656,0.01,1.085
2021-08-19 13:45:04.660,0.04,1.08
2021-08-19 13:45:04.664,0.06,1.075
2021-08-19 13:45:04.668,0.085,1.1
2021-08-19 13:45:04.672,0.115,1.115
2021-08-19 13:45:04.676,0.155,1.12
2021-08-19 13:45:04.680,0.215,1.16
2021-08-19 13:45:04.684,0.28,1.16
2021-08-19 13:45:04.688,0.33,1.185
2021-08-19 13:45:04.692,0.35,1.22
2021-08-19 13:45:04.696,0.365,1.235
2021-08-19 13:45:04.700,0.335,1.305
2021-08-19 13:45:04.704,0.33,1.355
2021-08-19 13:45:04.708,0.345,1.41
2021-08-19 13:45:04.712,0.35,1.445
2021-08-19 13:45:04.716,0.37,1.44
2021-08-19 13:45:04.720,0.36,1.475
2021-08-19 13:45:04.724,0.38,1.515
2021-08-19 13:45:04.728,0.375,1.55
2021-08-19 13:45:04.732,0.415,1.59
2021-08-19 13:45:04.736,0.42,1.6
2021-08-19 13:45:04.740,0.435,1.615
2021-08-19 13:45:04.744,0.445,1.625
2021-08-19 13:45:04.748,0.465,1.655
2021-08-19 13:45:04.752,0.43,1.7
2021-08-19 13:45:04.756,0.43,1.715
2021-08-19 13:45:04.760,0.425,1.735
2021-08-19 13:45:04.764,0.385,1.755
2021-08-19 13:45:04.768,0.39,1.77
2021-08-19 13:45:04.772,0.35,1.78
2021-08-19 13:45:04.776,0.305,1.74
2021-08-19 13:45:04.780,0.265,1.72
2021-08-19 13:45:04.784,0.23,1.69
2021-08-19 13:45:04.788,0.195,1.66
2021-08-19 13:45:04.792,0.2,1.595
2021-08-19 13:45:04.796,0.16,1.515
2021-08-19 13:45:04.800,0.105,1.49
2021-08-19 13:45:04.804,0.045,1.43
2021-08-19 13:45:04.808,0.015,1.35
2021-08-19 13:45:04.812,-0.015,1.245
2021-08-19 13:45:04.816,-0.065,1.175
2021-08-19 13:45:04.820,-0.1,1.1
2021-08-19 13:45:04.824,-0.15,1.015
2021-08-19 13:45:04.828,-0.17,0.9
2021-08-19 13:45:04.832,-0.185,0.85
2021-08-19 13:45:04.836,-0.17,0.765
2021-08-19 13:45:04.840,-0.16,0.7
2021-08-19 13:45:04.844,-0.16,0.655
2021-08-19 13:45:04.848,-0.155,0.6
2021-08-19 13:45:04.852,-0.175,0.545
2021-08-19 13:45:04.856,-0.2,0.505
2021-08-19 13:45:04.860,-0.21,0.46
2021-08-19 13:45:04.864,-0.225,0.4
2021-08-19 13:45:04.868,-0.185,0.385
2021-08-19 13:45:04.872,-0.17,0.37
2021-08-19 13:45:04.876,-0.11,0.37
2021-08-19 13:45:04.880,-0.095,0.325
2021-08-19 13:45:04.884,-0.09,0.315
2021-08-19 13:45:04.888,-0.14,0.345
2021-08-19 13:45:04.892,-0.16,0.38
2021-08-19 13:45:04.896,-0.19,0.395
2021-08-19 13:45:04.900,-0.185,0.415
2021-08-19 13:45:04.904,-0.165,0.42
2021-08-19 13:45:04.908,-0.175,0.365
2021-08-19 13:45:04.912,-0.175,0.405
2021-08-19 13:45:04.916,-0.17,0.38
2021-08-19 13:45:04.920,-0.155,0.39
2021-08-19 13:45:04.924,-0.135,0.395
2021-08-19 13:45:04.928,-0.135,0.375
2021-08-19 13:45:04.932,-0.135,0.41
2021-08-19 13:45:04.936,-0.125,0.425
2021-08-19 13:45:04.940,-0.09,0.395
2021-08-19 13:45:04.944,-0.105,0.42
2021-08-19 13:45:04.948,-0.125,0.445
2021-08-19 13:45:04.952,-0.115,0.435
2021-08-19 13:45:04.956,-0.1,0.46
2021-08-19 13:45:04.960,-0.09,0.415
2021-08-19 13:45:04.964,-0.07,0.395
2021-08-19 13:45:04.968,-0.065,0.395
2021-08-19 13:45:04.972,-0.085,0.395
2021-08-19 13:45:04.976,-0.11,0.38
2021-08-19 13:45:04.980,-0.075,0.4
2021-08-19 13:45:04.984,-0.045,0.38
2021-08-19 13:45:04.988,-0.015,0.415
2021-08-19 13:45:04.992,-0.005,0.385
2021-08-19 13:45:04.996,-0.045,0.385
2021-08-19 13:45:05.000,-0.045,0.34
2021-08-19 13:45:05.004,-0.035,0.35
2021-08-19 13:45:05.008,-0.055,0.325
2021-08-19 13:45:05.012,-0.07,0.32
2021-08-19 13:45:05.016,-0.03,0.295
2021-08-19 13:45:05.020,0.02,0.315
2021-08-19 13:45:05.024,0.025,0.31
2021-08-19 13:45:05.028,0.115,0.33
2021-08-19 13:45:05.032,0.28,0.325
2021-08-19 13:45:05.036,0.37,0.355
2021-08-19 13:45:05.040,0.33,0.38
2021-08-19 13:45:05.044,0.215,0.455
2021-08-19 13:45:05.048,0.02,0.555
2021-08-19 13:45:05.052,-0.28,0.405
2021-08-19 13:45:05.056,-0.7,0.01
2021-08-19 13:45:05.060,-1.09,-0.535
2021-08-19 13:45:05.064,-1.34,-1.17
2021-08-19 13:45:05.148,0.18,-1.81
2021-08-19 13:45:05.152,0.27,-1.35
2021-08-19 13:45:05.156,0.345,-0.96
2021-08-19 13:45:05.160,0.435,-0.6
2021-08-19 13:45:05.164,0.47,-0.31
2021-08-19 13:45:05.168,0.465,-0.03
2021-08-19 13:45:05.172,0.475,0.15
2021-08-19 13:45:05.176,0.49,0.36
2021-08-19 13:45:05.180,0.51,0.54
2021-08-19 13:45:05.184,0.52,0.675
2021-08-19 13:45:05.188,0.52,0.785
2021-08-19 13:45:05.192,0.54,0.89
2021-08-19 13:45:05.196,0.54,0.96
2021-08-19 13:45:05.200,0.545,0.995
2021-08-19 13:45:05.204,0.545,1.02
2021-08-19 13:45:05.208,0.585,1.03
2021-08-19 13:45:05.212,0.58,1.06
2021-08-19 13:45:05.216,0.61,1.085
2021-08-19 13:45:05.220,0.635,1.12
2021-08-19 13:45:05.224,0.69,1.17
2021-08-19 13:45:05.228,0.705,1.205
2021-08-19 13:45:05.232,0.7,1.235
2021-08-19 13:45:05.236,0.725,1.275
2021-08-19 13:45:05.240,0.75,1.285
2021-08-19 13:45:05.244,0.775,1.305
2021-08-19 13:45:05.248,0.79,1.29
2021-08-19 13:45:05.252,0.78,1.325
2021-08-19 13:45:05.256,0.77,1.37
2021-08-19 13:45:05.260,0.77,1.385
2021-08-19 13:45:05.264,0.79,1.42
2021-08-19 13:45:05.268,0.78,1.42
2021-08-19 13:45:05.272,0.805,1.425
2021-08-19 13:45:05.276,0.785,1.435
2021-08-19 13:45:05.280,0.765,1.43
2021-08-19 13:45:05.284,0.78,1.44
2021-08-19 13:45:05.288,0.785,1.445
2021-08-19 13:45:05.292,0.76,1.42
2021-08-19 13:45:05.296,0.795,1.405
2021-08-19 13:45:05.300,0.775,1.435
2021-08-19 13:45:05.304,0.78,1.435
2021-08-19 13:45:05.308,0.76,1.485
2021-08-19 13:45:05.312,0.765,1.495
2021-08-19 13:45:05.316,0.755,1.505
2021-08-19 13:45:05.320,0.74,1.535
2021-08-19 13:45:05.324,0.72,1.55
2021-08-19 13:45:05.328,0.68,1.53
2021-08-19 13:45:05.332,0.69,1.515
2021-08-19 13:45:05.336,0.65,1.525
2021-08-19 13:45:05.340,0.64,1.53
2021-08-19 13:45:05.344,0.62,1.475
2021-08-19 13:45:05.348,0.595,1.47
2021-08-19 13:45:05.352,0.555,1.45
2021-08-19 13:45:05.356,0.52,1.425
2021-08-19 13:45:05.360,0.51,1.375
2021-08-19 13:45:05.364,0.435,1.355
2021-08-19 13:45:05.368,0.41,1.29
2021-08-19 13:45:05.372,0.405,1.2
2021-08-19 13:45:05.376,0.375,1.165
2021-08-19 13:45:05.380,0.35,1.075
2021-08-19 13:45:05.384,0.305,1.025
2021-08-19 13:45:05.388,0.295,0.93
2021-08-19 13:45:05.392,0.275,0.89
2021-08-19 13:45:05.396,0.245,0.835
2021-08-19 13:45:05.400,0.23,0.795
2021-08-19 13:45:05.404,0.225,0.71
2021-08-19 13:45:05.408,0.205,0.665
2021-08-19 13:45:05.412,0.185,0.615
2021-08-19 13:45:05.416,0.15,0.58
2021-08-19 13:45:05.420,0.15,0.55
2021-08-19 13:45:05.424,0.16,0.525
2021-08-19 13:45:05.428,0.16,0.495
2021-08-19 13:45:05.432,0.185,0.45
2021-08-19 13:45:05.436,0.18,0.445
2021-08-19 13:45:05.440,0.145,0.41
2021-08-19 13:45:05.444,0.15,0.41
2021-08-19 13:45:05.448,0.11,0.43
2021-08-19 13:45:05.452,0.135,0.405
2021-08-19 13:45:05.456,0.105,0.345
2021-08-19 13:45:05.460,0.115,0.28
2021-08-19 13:45:05.464,0.08,0.24
2021-08-19 13:45:05.468,0.085,0.21
2021-08-19 13:45:05.472,0.085,0.22
2021-08-19 13:45:05.476,0.065,0.195
2021-08-19 13:45:05.480,0.095,0.185
2021-08-19 13:45:05.484,0.135,0.175
2021-08-19 13:45:05.488,0.205,0.17
2021-08-19 13:45:05.492,0.345,0.17
2021-08-19 13:45:05.496,0.535,0.18
2021-08-19 13:45:05.500,0.62,0.19
2021-08-19 13:45:05.504,0.59,0.285
2021-08-19 13:45:05.508,0.42,0.38
2021-08-19 13:45:05.512,0.06,0.455
2021-08-19 13:45:05.516,-0.41,0.31
2021-08-19 13:45:05.520,-0.885,-0.035
2021-08-19 13:45:05.524,-1.25,-0.535
2021-08-19 13:45:05.528,-1.4,-1.225
2021-08-19 13:45:05.612,-0.08,-1.675
2021-08-19 13:45:05.616,0.055,-1.21
2021-08-19 13:45:05.620,0.215,-0.84
2021-08-19 13:45:05.624,0.3,-0.49
2021-08-19 13:45:05.628,0.32,-0.235
2021-08-19 13:45:05.632,0.35,0.045
2021-08-19 13:45:05.636,0.39,0.27
2021-08-19 13:45:05.640,0.39,0.5
2021-08-19 13:45:05.644,0.395,0.645
2021-08-19 13:45:05.648,0.41,0.755
2021-08-19 13:45:05.652,0.405,0.855
2021-08-19 13:45:05.656,0.435,0.925
2021-08-19 13:45:05.660,0.445,0.965
2021-08-19 13:45:05.664,0.47,0.985
2021-08-19 13:45:05.668,0.465,0.975
2021-08-19 13:45:05.672,0.46,1.025
2021-08-19 13:45:05.676,0.48,1.055
2021-08-19 13:45:05.680,0.485,1.085
2021-08-19 13:45:05.684,0.525,1.105
2021-08-19 13:45:05.688,0.52,1.115
2021-08-19 13:45:05.692,0.52,1.15
2021-08-19 13:45:05.696,0.51,1.155
2021-08-19 13:45:05.700,0.515,1.165
2021-08-19 13:45:05.704,0.52,1.19
2021-08-19 13:45:05.708,0.495,1.215
2021-08-19 13:45:05.712,0.505,1.22
2021-08-19 13:45:05.716,0.495,1.21
2021-08-19 13:45:05.720,0.505,1.225
2021-08-19 13:45:05.724,0.535,1.25
2021-08-19 13:45:05.728,0.55,1.26
2021-08-19 13:45:05.732,0.55,1.275
2021-08-19 13:45:05.736,0.575,1.29
2021-08-19 13:45:05.740,0.575,1.31
2021-08-19 13:45:05.744,0.57,1.32
2021-08-19 13:45:05.748,0.55,1.345
2021-08-19 13:45:05.752,0.565,1.38
2021-08-19 13:45:05.756,0.56,1.41
2021-08-19 13:45:05.760,0.57,1.42
2021-08-19 13:45:05.764,0.57,1.455
2021-08-19 13:45:05.768,0.585,1.445
2021-08-19 13:45:05.772,0.615,1.46
2021-08-19 13:45:05.776,0.655,1.495
2021-08-19 13:45:05.780,0.65,1.52
2021-08-19 13:45:05.784,0.65,1.525
2021-08-19 13:45:05.788,0.65,1.545
2021-08-19 13:45:05.792,0.66,1.545
2021-08-19 13:45:05.796,0.655,1.565
2021-08-19 13:45:05.800,0.66,1.535
2021-08-19 13:45:05.804,0.63,1.555
2021-08-19 13:45:05.808,0.61,1.545
2021-08-19 13:45:05.812,0.55,1.51
2021-08-19 13:45:05.816,0.51,1.475
2021-08-19 13:45:05.820,0.485,1.425
2021-08-19 13:45:05.824,0.45,1.34
2021-08-19 13:45:05.828,0.425,1.245
2021-08-19 13:45:05.832,0.38,1.17
2021-08-19 13:45:05.836,0.37,1.115
2021-08-19 13:45:05.840,0.325,1.07
2021-08-19 13:45:05.844,0.3,1.0
2021-08-19 13:45:05.848,0.265,0.93
2021-08-19 13:45:05.852,0.245,0.86
2021-08-19 13:45:05.856,0.255,0.775
2021-08-19 13:45:05.860,0.24,0.74
2021-08-19 13:45:05.864,0.23,0.68
2021-08-19 13:45:05.868,0.23,0.63
2021-08-19 13:45:05.872,0.2,0.6
2021-08-19 13:45:05.876,0.21,0.57
2021-08-19 13:45:05.880,0.185,0.52
2021-08-19 13:45:05.884,0.185,0.47
2021-08-19 13:45:05.888,0.165,0.42
2021-08-19 13:45:05.892,0.165,0.41
2021-08-19 13:45:05.896,0.115,0.39
2021-08-19 13:45:05.900,0.095,0.35
2021-08-19 13:45:05.904,0.09,0.345
2021-08-19 13:45:05.908,0.07,0.315
2021-08-19 13:45:05.912,0.075,0.3
2021-08-19 13:45:05.916,0.075,0.255
2021-08-19 13:45:05.920,0.11,0.255
2021-08-19 13:45:05.924,0.09,0.225
2021-08-19 13:45:05.928,0.1,0.22
2021-08-19 13:45:05.932,0.075,0.19
2021-08-19 13:45:05.936,0.075,0.225
2021-08-19 13:45:05.940,0.03,0.28
2021-08-19 13:45:05.944,0.03,0.295
2021-08-19 13:45:05.948,0.01,0.3
2021-08-19 13:45:05.952,0.025,0.3
2021-08-19 13:45:05.956,0.05,0.315
2021-08-19 13:45:05.960,0.035,0.3
2021-08-19 13:45:05.964,0.06,0.255
2021-08-19 13:45:05.968,0.085,0.27
2021-08-19 13:45:05.972,0.09,0.3
2021-08-19 13:45:05.976,0.095,0.31
2021-08-19 13:45:05.980,0.1,0.295
2021-08-19 13:45:05.984,0.08,0.295
2021-08-19 13:45:05.988,0.065,0.305
2021-08-19 13:45:05.992,0.09,0.3
2021-08-19 13:45:05.996,0.13,0.315
2021-08-19 13:45:06.000,0.135,0.335
2021-08-19 13:45:06.004,0.155,0.35
2021-08-19 13:45:06.008,0.16,0.345
2021-08-19 13:45:06.012,0.145,0.35
2021-08-19 13:45:06.016,0.125,0.32
2021-08-19 13:45:06.020,0.135,0.285
2021-08-19 13:45:06.024,0.115,0.285
2021-08-19 13:45:06.028,0.13,0.27
2021-08-19 13:45:06.032,0.14,0.26
2021-08-19 13:45:06.036,0.13,0.26
2021-08-19 13:45:06.040,0.14,0.25
2021-08-19 13:45:06.044,0.15,0.22
2021-08-19 13:45:06.048,0.165,0.235
2021-08-19 13:45:06.052,0.175,0.235
2021-08-19 13:45:06.056,0.165,0.24
2021-08-19 13:45:06.060,0.155,0.245
2021-08-19 13:45:06.064,0.14,0.255
2021-08-19 13:45:06.068,0.145,0.245
2021-08-19 13:45:06.072,0.145,0.24
2021-08-19 13:45:06.076,0.15,0.215
2021-08-19 13:45:06.080,0.125,0.205
2021-08-19 13:45:06.084,0.12,0.205
2021-08-19 13:45:06.088,0.12,0.2
2021-08-19 13:45:06.092,0.115,0.195
2021-08-19 13:45:06.096,0.11,0.195
2021-08-19 13:45:06.100,0.095,0.165
2021-08-19 13:45:06.104,0.1,0.185
2021-08-19 13:45:06.108,0.115,0.19
2021-08-19 13:45:06.112,0.17,0.175
2021-08-19 13:45:06.116,0.285,0.175
2021-08-19 13:45:06.120,0.445,0.155
2021-08-19 13:45:06.124,0.515,0.165
2021-08-19 13:45:06.128,0.495,0.215
2021-08-19 13:45:06.132,0.425,0.285
2021-08-19 13:45:06.136,0.225,0.355
2021-08-19 13:45:06.140,-0.08,0.14
2021-08-19 13:45:06.144,-0.4,-0.35
2021-08-19 13:45:06.148,-0.645,-0.98
2021-08-19 13:45:06.152,-0.785,-1.7
2021-08-19 13:45:06.240,-0.115,-1.73
2021-08-19 13:45:06.244,-0.03,-1.28
2021-08-19 13:45:06.248,0.085,-0.895
2021-08-19 13:45:06.252,0.185,-0.58
2021-08-19 13:45:06.256,0.225,-0.29
2021-08-19 13:45:06.260,0.26,-0.08
2021-08-19 13:45:06.264,0.27,0.125
2021-08-19 13:45:06.268,0.3,0.305
2021-08-19 13:45:06.272,0.315,0.515
2021-08-19 13:45:06.276,0.35,0.665
2021-08-19 13:45:06.280,0.37,0.79
2021-08-19 13:45:06.284,0.415,0.885
2021-08-19 13:45:06.288,0.445,0.935
2021-08-19 13:45:06.292,0.45,0.995
2021-08-19 13:45:06.296,0.465,1.04
2021-08-19 13:45:06.300,0.49,1.075
2021-08-19 13:45:06.304,0.495,1.12
2021-08-19 13:45:06.308,0.525,1.155
2021-08-19 13:45:06.312,0.53,1.16
2021-08-19 13:45:06.316,0.55,1.185
2021-08-19 13:45:06.320,0.575,1.195
2021-08-19 13:45:06.324,0.615,1.22
2021-08-19 13:45:06.328,0.645,1.255
2021-08-19 13:45:06.332,0.675,1.3
2021-08-19 13:45:06.336,0.7,1.315
2021-08-19 13:45:06.340,0.755,1.375
2021-08-19 13:45:06.344,0.785,1.405
2021-08-19 13:45:06.348,0.83,1.435
2021-08-19 13:45:06.352,0.85,1.47
2021-08-19 13:45:06.356,0.82,1.475
2021-08-19 13:45:06.360,0.815,1.52
2021-08-19 13:45:06.364,0.815,1.575
2021-08-19 13:45:06.368,0.81,1.56
2021-08-19 13:45:06.372,0.82,1.565
2021-08-19 13:45:06.376,0.825,1.565
2021-08-19 13:45:06.380,0.845,1.595
2021-08-19 13:45:06.384,0.835,1.63
2021-08-19 13:45:06.388,0.83,1.65
2021-08-19 13:45:06.392,0.865,1.69
2021-08-19 13:45:06.396,0.85,1.715
2021-08-19 13:45:06.400,0.86,1.74
2021-08-19 13:45:06.404,0.85,1.755
2021-08-19 13:45:06.408,0.87,1.765
2021-08-19 13:45:06.412,0.83,1.765
2021-08-19 13:45:06.416,0.82,1.8
2021-08-19 13:45:06.420,0.81,1.8
2021-08-19 13:45:06.424,0.76,1.815
2021-08-19 13:45:06.428,0.75,1.82
2021-08-19 13:45:06.432,0.705,1.815
2021-08-19 13:45:06.436,0.675,1.8
2021-08-19 13:45:06.440,0.625,1.74
2021-08-19 13:45:06.444,0.61,1.72
2021-08-19 13:45:06.448,0.575,1.69
2021-08-19 13:45:06.452,0.545,1.635
2021-08-19 13:45:06.456,0.54,1.58
2021-08-19 13:45:06.460,0.48,1.525
2021-08-19 13:45:06.464,0.455,1.455
2021-08-19 13:45:06.468,0.43,1.39
2021-08-19 13:45:06.472,0.4,1.335
2021-08-19 13:45:06.476,0.38,1.265
2021-08-19 13:45:06.480,0.33,1.175
2021-08-19 13:45:06.484,0.31,1.105
2021-08-19 13:45:06.488,0.27,1.03
2021-08-19 13:45:06.492,0.235,0.94
2021-08-19 13:45:06.496,0.22,0.885
2021-08-19 13:45:06.500,0.185,0.8
2021-08-19 13:45:06.504,0.18,0.73
2021-08-19 13:45:06.508,0.19,0.66
2021-08-19 13:45:06.512,0.17,0.625
2021-08-19 13:45:06.516,0.155,0.595
2021-08-19 13:45:06.520,0.18,0.565
2021-08-19 13:45:06.524,0.17,0.54
2021-08-19 13:45:06.528,0.195,0.52
2021-08-19 13:45:06.532,0.215,0.47
2021-08-19 13:45:06.536,0.27,0.46
2021-08-19 13:45:06.540,0.26,0.43
2021-08-19 13:45:06.544,0.26,0.46
2021-08-19 13:45:06.548,0.21,0.48
2021-08-19 13:45:06.552,0.13,0.515
2021-08-19 13:45:06.556,0.07,0.55
2021-08-19 13:45:06.560,0.03,0.52
2021-08-19 13:45:06.564,0.035,0.505
2021-08-19 13:45:06.568,0.015,0.46
2021-08-19 13:45:06.572,0.04,0.395
2021-08-19 13:45:06.576,0.0,0.37
2021-08-19 13:45:06.580,-0.03,0.335
2021-08-19 13:45:06.584,-0.04,0.3
2021-08-19 13:45:06.588,-0.06,0.265
2021-08-19 13:45:06.592,-0.06,0.255
2021-08-19 13:45:06.596,-0.08,0.23
2021-08-19 13:45:06.600,-0.05,0.235
2021-08-19 13:45:06.604,-0.085,0.21
2021-08-19 13:45:06.608,-0.07,0.215
2021-08-19 13:45:06.612,-0.075,0.21
2021-08-19 13:45:06.616,-0.07,0.19
2021-08-19 13:45:06.620,-0.08,0.19
2021-08-19 13:45:06.624,-0.09,0.185
2021-08-19 13:45:06.628,-0.09,0.19
2021-08-19 13:45:06.632,-0.085,0.18
2021-08-19 13:45:06.636,-0.08,0.175
2021-08-19 13:45:06.640,-0.1,0.165
2021-08-19 13:45:06.644,-0.09,0.18
2021-08-19 13:45:06.648,-0.095,0.18
2021-08-19 13:45:06.652,-0.095,0.195
2021-08-19 13:45:06.656,-0.08,0.195
2021-08-19 13:45:06.660,-0.1,0.19
2021-08-19 13:45:06.664,-0.08,0.215
2021-08-19 13:45:06.668,-0.07,0.18
2021-08-19 13:45:06.672,-0.095,0.17
2021-08-19 13:45:06.676,-0.095,0.175
2021-08-19 13:45:06.680,-0.11,0.165
2021-08-19 13:45:06.684,-0.105,0.155
2021-08-19 13:45:06.688,-0.095,0.165
2021-08-19 13:45:06.692,-0.08,0.185
2021-08-19 13:45:06.696,-0.1,0.17
2021-08-19 13:45:06.700,-0.09,0.16
2021-08-19 13:45:06.704,-0.065,0.18
2021-08-19 13:45:06.708,-0.045,0.135
2021-08-19 13:45:06.712,-0.02,0.165
2021-08-19 13:45:06.716,0.03,0.145
2021-08-19 13:45:06.720,0.1,0.16
2021-08-19 13:45:06.724,0.225,0.125
2021-08-19 13:45:06.728,0.35,0.135
2021-08-19 13:45:06.732,0.34,0.165
2021-08-19 13:45:06.736,0.23,0.26
2021-08-19 13:45:06.740,0.045,0.355
2021-08-19 13:45:06.744,-0.205,0.38
2021-08-19 13:45:06.748,-0.595,0.155
2021-08-19 13:45:06.752,-0.975,-0.39
2021-08-19 13:45:06.756,-1.265,-1.03
2021-08-19 13:45:06.760,-1.445,-1.83
2021-08-19 13:45:06.848,-0.215,-1.665
2021-08-19 13:45:06.852,-0.075,-1.2
2021-08-19 13:45:06.856,0.07,-0.76
2021-08-19 13:45:06.860,0.12,-0.45
2021-08-19 13:45:06.864,0.165,-0.195
2021-08-19 13:45:06.868,0.205,0.055
2021-08-19 13:45:06.872,0.23,0.3
2021-08-19 13:45:06.876,0.23,0.48
2021-08-19 13:45:06.880,0.245,0.66
2021-08-19 13:45:06.884,0.26,0.79
2021-08-19 13:45:06.888,0.275,0.91
2021-08-19 13:45:06.892,0.295,0.955
2021-08-19 13:45:06.896,0.36,0.995
2021-08-19 13:45:06.900,0.415,1.03
2021-08-19 13:45:06.904,0.46,1.035
2021-08-19 13:45:06.908,0.475,1.055
2021-08-19 13:45:06.912,0.46,1.105
2021-08-19 13:45:06.916,0.465,1.135
2021-08-19 13:45:06.920,0.485,1.185
2021-08-19 13:45:06.924,0.485,1.215
2021-08-19 13:45:06.928,0.5,1.245
2021-08-19 13:45:06.932,0.51,1.26
2021-08-19 13:45:06.936,0.495,1.26
2021-08-19 13:45:06.940,0.505,1.28
2021-08-19 13:45:06.944,0.505,1.265
2021-08-19 13:45:06.948,0.515,1.295
2021-08-19 13:45:06.952,0.54,1.28
2021-08-19 13:45:06.956,0.55,1.31
2021-08-19 13:45:06.960,0.54,1.315
2021-08-19 13:45:06.964,0.555,1.365
2021-08-19 13:45:06.968,0.55,1.38
2021-08-19 13:45:06.972,0.57,1.405
2021-08-19 13:45:06.976,0.57,1.42
2021-08-19 13:45:06.980,0.575,1.44
2021-08-19 13:45:06.984,0.565,1.45
2021-08-19 13:45:06.988,0.58,1.47
2021-08-19 13:45:06.992,0.57,1.49
2021-08-19 13:45:06.996,0.57,1.525
2021-08-19 13:45:07.000,0.56,1.515
2021-08-19 13:45:07.004,0.575,1.545
2021-08-19 13:45:07.008,0.565,1.53
2021-08-19 13:45:07.012,0.56,1.58
2021-08-19 13:45:07.016,0.55,1.58
2021-08-19 13:45:07.020,0.54,1.59
2021-08-19 13:45:07.024,0.51,1.58
2021-08-19 13:45:07.028,0.49,1.545
2021-08-19 13:45:07.032,0.45,1.545
2021-08-19 13:45:07.036,0.395,1.505
2021-08-19 13:45:07.040,0.37,1.48
2021-08-19 13:45:07.044,0.325,1.465
2021-08-19 13:45:07.048,0.3,1.415
2021-08-19 13:45:07.052,0.285,1.355
2021-08-19 13:45:07.056,0.275,1.3
2021-08-19 13:45:07.060,0.245,1.245
2021-08-19 13:45:07.064,0.2,1.195
2021-08-19 13:45:07.068,0.185,1.105
2021-08-19 13:45:07.072,0.155,1.065
2021-08-19 13:45:07.076,0.175,0.98
2021-08-19 13:45:07.080,0.21,0.9
2021-08-19 13:45:07.084,0.195,0.845
2021-08-19 13:45:07.088,0.16,0.765
2021-08-19 13:45:07.092,0.145,0.725
2021-08-19 13:45:07.096,0.1,0.675
2021-08-19 13:45:07.100,0.075,0.65
2021-08-19 13:45:07.104,0.055,0.595
2021-08-19 13:45:07.108,0.04,0.54
2021-08-19 13:45:07.112,0.04,0.485
2021-08-19 13:45:07.116,0.035,0.415
2021-08-19 13:45:07.120,0.0,0.385
2021-08-19 13:45:07.124,0.0,0.35
2021-08-19 13:45:07.128,0.0,0.315
2021-08-19 13:45:07.132,-0.02,0.275
2021-08-19 13:45:07.136,-0.02,0.27
2021-08-19 13:45:07.140,-0.03,0.24
2021-08-19 13:45:07.144,-0.03,0.24
2021-08-19 13:45:07.148,-0.05,0.235
2021-08-19 13:45:07.152,-0.055,0.22
2021-08-19 13:45:07.156,-0.05,0.195
2021-08-19 13:45:07.160,-0.06,0.205
2021-08-19 13:45:07.164,-0.08,0.18
2021-08-19 13:45:07.168,-0.06,0.18
2021-08-19 13:45:07.172,-0.085,0.175
2021-08-19 13:45:07.176,-0.085,0.14
2021-08-19 13:45:07.180,-0.09,0.13
2021-08-19 13:45:07.184,-0.1,0.115
2021-08-19 13:45:07.188,-0.085,0.14
2021-08-19 13:45:07.192,-0.065,0.16
2021-08-19 13:45:07.196,-0.085,0.13
2021-08-19 13:45:07.200,-0.08,0.13
2021-08-19 13:45:07.204,-0.105,0.12
2021-08-19 13:45:07.208,-0.085,0.105
2021-08-19 13:45:07.212,-0.115,0.105
2021-08-19 13:45:07.216,-0.105,0.115
2021-08-19 13:45:07.220,-0.13,0.09
2021-08-19 13:45:07.224,-0.12,0.06
2021-08-19 13:45:07.228,-0.12,0.075
2021-08-19 13:45:07.232,-0.13,0.085
2021-08-19 13:45:07.236,-0.125,0.075
2021-08-19 13:45:07.240,-0.135,0.08
2021-08-19 13:45:07.244,-0.13,0.085
2021-08-19 13:45:07.248,-0.09,0.095
2021-08-19 13:45:07.252,-0.095,0.085
2021-08-19 13:45:07.256,-0.065,0.09
2021-08-19 13:45:07.260,-0.025,0.085
2021-08-19 13:45:07.264,0.015,0.06
2021-08-19 13:45:07.268,0.025,0.05
2021-08-19 13:45:07.272,-0.025,0.06
2021-08-19 13:45:07.276,-0.065,0.06
2021-08-19 13:45:07.280,-0.12,0.105
2021-08-19 13:45:07.284,-0.13,0.08
2021-08-19 13:45:07.288,-0.14,0.05
2021-08-19 13:45:07.292,-0.145,0.0
2021-08-19 13:45:07.296,-0.135,-0.005
2021-08-19 13:45:07.300,-0.13,-0.03
2021-08-19 13:45:07.304,-0.14,-0.025
2021-08-19 13:45:07.308,-0.135,-0.06
2021-08-19 13:45:07.312,-0.135,-0.04
2021-08-19 13:45:07.316,-0.13,-0.04
2021-08-19 13:45:07.320,-0.135,-0.02
2021-08-19 13:45:07.324,-0.115,-0.01
2021-08-19 13:45:07.328,-0.15,0.0
2021-08-19 13:45:07.332,-0.155,0.025
2021-08-19 13:45:07.336,-0.17,0.01
2021-08-19 13:45:07.340,-0.17,0.015
2021-08-19 13:45:07.344,-0.165,0.005
2021-08-19 13:45:07.348,-0.175,0.01
2021-08-19 13:45:07.352,-0.195,-0.02
2021-08-19 13:45:07.356,-0.19,0.0
2021-08-19 13:45:07.360,-0.19,-0.02
2021-08-19 13:45:07.364,-0.175,-0.03
2021-08-19 13:45:07.368,-0.18,-0.04
2021-08-19 13:45:07.372,-0.185,-0.035
2021-08-19 13:45:07.376,-0.14,-0.02
2021-08-19 13:45:07.380,-0.05,-0.03
2021-08-19 13:45:07.384,0.085,-0.04
2021-08-19 13:45:07.388,0.23,-0.05
2021-08-19 13:45:07.392,0.275,-0.015
2021-08-19 13:45:07.396,0.21,0.04
2021-08-19 13:45:07.400,0.055,0.15
2021-08-19 13:45:07.404,-0.25,0.155
2021-08-19 13:45:07.408,-0.63,-0.13
2021-08-19 13:45:07.412,-1.015,-0.69
2021-08-19 13:45:07.416,-1.275,-1.42
2021-08-19 13:45:07.504,-0.39,-1.97
2021-08-19 13:45:07.508,-0.23,-1.51
2021-08-19 13:45:07.512,-0.1,-1.09
2021-08-19 13:45:07.516,0.01,-0.735
2021-08-19 13:45:07.520,0.04,-0.445
2021-08-19 13:45:07.524,0.045,-0.205
2021-08-19 13:45:07.528,0.09,0.035
2021-08-19 13:45:07.532,0.08,0.255
2021-08-19 13:45:07.536,0.115,0.375
2021-08-19 13:45:07.540,0.13,0.54
2021-08-19 13:45:07.544,0.155,0.66
2021-08-19 13:45:07.548,0.16,0.72
2021-08-19 13:45:07.552,0.165,0.78
2021-08-19 13:45:07.556,0.21,0.795
2021-08-19 13:45:07.560,0.21,0.835
2021-08-19 13:45:07.564,0.23,0.88
2021-08-19 13:45:07.568,0.21,0.9
2021-08-19 13:45:07.572,0.235,0.93
2021-08-19 13:45:07.576,0.28,0.935
2021-08-19 13:45:07.580,0.285,0.955
2021-08-19 13:45:07.584,0.32,0.975
2021-08-19 13:45:07.588,0.33,1.01
2021-08-19 13:45:07.592,0.36,1.035
2021-08-19 13:45:07.596,0.36,1.065
2021-08-19 13:45:07.600,0.385,1.09
2021-08-19 13:45:07.604,0.375,1.13
2021-08-19 13:45:07.608,0.415,1.19
2021-08-19 13:45:07.612,0.44,1.215
2021-08-19 13:45:07.616,0.455,1.255
2021-08-19 13:45:07.620,0.5,1.27
2021-08-19 13:45:07.624,0.54,1.295
2021-08-19 13:45:07.628,0.625,1.355
2021-08-19 13:45:07.632,0.695,1.35
2021-08-19 13:45:07.636,0.765,1.385
2021-08-19 13:45:07.640,0.765,1.44
2021-08-19 13:45:07.644,0.75,1.505
2021-08-19 13:45:07.648,0.72,1.575
2021-08-19 13:45:07.652,0.71,1.62
2021-08-19 13:45:07.656,0.685,1.615
2021-08-19 13:45:07.660,0.665,1.615
2021-08-19 13:45:07.664,0.655,1.59
2021-08-19 13:45:07.668,0.63,1.58
2021-08-19 13:45:07.672,0.63,1.59
2021-08-19 13:45:07.676,0.595,1.59
2021-08-19 13:45:07.680,0.555,1.605
2021-08-19 13:45:07.684,0.51,1.625
2021-08-19 13:45:07.688,0.465,1.58
2021-08-19 13:45:07.692,0.405,1.57
2021-08-19 13:45:07.696,0.37,1.525
2021-08-19 13:45:07.700,0.315,1.46
2021-08-19 13:45:07.704,0.27,1.39
2021-08-19 13:45:07.708,0.22,1.35
2021-08-19 13:45:07.712,0.175,1.275
2021-08-19 13:45:07.716,0.135,1.205
2021-08-19 13:45:07.720,0.085,1.13
2021-08-19 13:45:07.724,0.07,1.05
2021-08-19 13:45:07.728,0.02,1.0
2021-08-19 13:45:07.732,-0.045,0.915
2021-08-19 13:45:07.736,-0.08,0.835
2021-08-19 13:45:07.740,-0.105,0.755
2021-08-19 13:45:07.744,-0.145,0.67
2021-08-19 13:45:07.748,-0.17,0.605
2021-08-19 13:45:07.752,-0.185,0.515
2021-08-19 13:45:07.756,-0.225,0.445
2021-08-19 13:45:07.760,-0.255,0.36
2021-08-19 13:45:07.764,-0.275,0.295
2021-08-19 13:45:07.768,-0.27,0.275
2021-08-19 13:45:07.772,-0.265,0.215
2021-08-19 13:45:07.776,-0.295,0.16
2021-08-19 13:45:07.780,-0.29,0.14
2021-08-19 13:45:07.784,-0.3,0.125
2021-08-19 13:45:07.788,-0.305,0.11
2021-08-19 13:45:07.792,-0.295,0.075
2021-08-19 13:45:07.796,-0.25,0.1
2021-08-19 13:45:07.800,-0.22,0.085
2021-08-19 13:45:07.804,-0.2,0.075
2021-08-19 13:45:07.808,-0.16,0.095
2021-08-19 13:45:07.812,-0.125,0.105
2021-08-19 13:45:07.816,-0.115,0.12
2021-08-19 13:45:07.820,-0.145,0.165
2021-08-19 13:45:07.824,-0.18,0.195
2021-08-19 13:45:07.828,-0.2,0.195
2021-08-19 13:45:07.832,-0.245,0.185
2021-08-19 13:45:07.836,-0.24,0.15
2021-08-19 13:45:07.840,-0.245,0.065
2021-08-19 13:45:07.844,-0.245,0.06
2021-08-19 13:45:07.848,-0.22,0.05
2021-08-19 13:45:07.852,-0.23,0.055
2021-08-19 13:45:07.856,-0.21,0.015
2021-08-19 13:45:07.860,-0.235,0.03
2021-08-19 13:45:07.864,-0.26,-0.01
2021-08-19 13:45:07.868,-0.265,-0.02
2021-08-19 13:45:07.872,-0.275,0.005
2021-08-19 13:45:07.876,-0.28,0.02
2021-08-19 13:45:07.880,-0.305,0.025
2021-08-19 13:45:07.884,-0.32,0.01
2021-08-19 13:45:07.888,-0.35,0.005
2021-08-19 13:45:07.892,-0.345,0.0
2021-08-19 13:45:07.896,-0.32,-0.01
2021-08-19 13:45:07.900,-0.32,-0.02
2021-08-19 13:45:07.904,-0.325,-0.015
2021-08-19 13:45:07.908,-0.355,-0.01
2021-08-19 13:45:07.912,-0.36,0.0
2021-08-19 13:45:07.916,-0.375,0.0
2021-08-19 13:45:07.920,-0.39,-0.005
2021-08-19 13:45:07.924,-0.425,-0.02
2021-08-19 13:45:07.928,-0.425,-0.035
2021-08-19 13:45:07.932,-0.455,-0.06
2021-08-19 13:45:07.936,-0.445,-0.05
2021-08-19 13:45:07.940,-0.44,-0.06
2021-08-19 13:45:07.944,-0.415,-0.06
2021-08-19 13:45:07.948,-0.415,-0.1
2021-08-19 13:45:07.952,-0.415,-0.095
2021-08-19 13:45:07.956,-0.405,-0.07
2021-08-19 13:45:07.960,-0.395,-0.06
2021-08-19 13:45:07.964,-0.385,-0.04
2021-08-19 13:45:07.968,-0.32,-0.03
2021-08-19 13:45:07.972,-0.225,-0.025
2021-08-19 13:45:07.976,-0.06,0.0
2021-08-19 13:45:07.980,0.065,0.02
2021-08-19 13:45:07.984,0.115,0.06
2021-08-19 13:45:07.988,0.01,0.135
2021-08-19 13:45:07.992,-0.22,0.225
2021-08-19 13:45:07.996,-0.585,0.22
2021-08-19 13:45:08.000,-1.05,-0.09
2021-08-19 13:45:08.004,-1.48,-0.675
2021-08-19 13:45:08.008,-1.76,-1.45
2021-08-19 13:45:08.096,-0.63,-1.955
2021-08-19 13:45:08.100,-0.435,-1.455
2021-08-19 13:45:08.104,-0.305,-1.095
2021-08-19 13:45:08.108,-0.25,-0.745
2021-08-19 13:45:08.112,-0.23,-0.48
2021-08-19 13:45:08.116,-0.195,-0.22
2021-08-19 13:45:08.120,-0.15,0.05
2021-08-19 13:45:08.124,-0.145,0.225
2021-08-19 13:45:08.128,-0.115,0.395
2021-08-19 13:45:08.132,-0.11,0.54
2021-08-19 13:45:08.136,-0.085,0.64
2021-08-19 13:45:08.140,-0.07,0.68
2021-08-19 13:45:08.144,0.005,0.705
2021-08-19 13:45:08.148,0.06,0.725
2021-08-19 13:45:08.152,0.125,0.765
2021-08-19 13:45:08.156,0.165,0.795
2021-08-19 13:45:08.160,0.18,0.855
2021-08-19 13:45:08.164,0.185,0.905
2021-08-19 13:45:08.168,0.22,0.96
2021-08-19 13:45:08.172,0.25,0.98
2021-08-19 13:45:08.176,0.26,1.045
2021-08-19 13:45:08.180,0.295,1.045
2021-08-19 13:45:08.184,0.32,1.075
2021-08-19 13:45:08.188,0.31,1.09
2021-08-19 13:45:08.192,0.315,1.09
2021-08-19 13:45:08.196,0.31,1.1
2021-08-19 13:45:08.200,0.355,1.105
2021-08-19 13:45:08.204,0.375,1.11
2021-08-19 13:45:08.208,0.37,1.105
2021-08-19 13:45:08.212,0.37,1.105
2021-08-19 13:45:08.216,0.375,1.165
2021-08-19 13:45:08.220,0.375,1.16
2021-08-19 13:45:08.224,0.365,1.19
2021-08-19 13:45:08.228,0.355,1.21
2021-08-19 13:45:08.232,0.345,1.225
2021-08-19 13:45:08.236,0.35,1.23
2021-08-19 13:45:08.240,0.35,1.255
2021-08-19 13:45:08.244,0.36,1.275
2021-08-19 13:45:08.248,0.315,1.29
2021-08-19 13:45:08.252,0.33,1.315
2021-08-19 13:45:08.256,0.32,1.31
2021-08-19 13:45:08.260,0.31,1.33
2021-08-19 13:45:08.264,0.27,1.31
2021-08-19 13:45:08.268,0.245,1.335
2021-08-19 13:45:08.272,0.22,1.345
2021-08-19 13:45:08.276,0.17,1.34
2021-08-19 13:45:08.280,0.145,1.3
2021-08-19 13:45:08.284,0.095,1.275
2021-08-19 13:45:08.288,0.03,1.235
2021-08-19 13:45:08.292,-0.005,1.155
2021-08-19 13:45:08.296,-0.02,1.11
2021-08-19 13:45:08.300,-0.075,1.075
2021-08-19 13:45:08.304,-0.125,1.0
2021-08-19 13:45:08.308,-0.145,0.94
2021-08-19 13:45:08.312,-0.155,0.885
2021-08-19 13:45:08.316,-0.155,0.79
2021-08-19 13:45:08.320,-0.145,0.73
2021-08-19 13:45:08.324,-0.15,0.645
2021-08-19 13:45:08.328,-0.12,0.585
2021-08-19 13:45:08.332,-0.13,0.505
2021-08-19 13:45:08.336,-0.165,0.445
2021-08-19 13:45:08.340,-0.17,0.42
2021-08-19 13:45:08.344,-0.165,0.375
2021-08-19 13:45:08.348,-0.19,0.355
2021-08-19 13:45:08.352,-0.22,0.295
2021-08-19 13:45:08.356,-0.18,0.28
2021-08-19 13:45:08.360,-0.195,0.25
2021-08-19 13:45:08.364,-0.195,0.22
2021-08-19 13:45:08.368,-0.19,0.19
2021-08-19 13:45:08.372,-0.195,0.18
2021-08-19 13:45:08.376,-0.175,0.165
2021-08-19 13:45:08.380,-0.18,0.145
2021-08-19 13:45:08.384,-0.18,0.105
2021-08-19 13:45:08.388,-0.18,0.08
2021-08-19 13:45:08.392,-0.16,0.045
2021-08-19 13:45:08.396,-0.16,0.035
2021-08-19 13:45:08.400,-0.185,0.005
2021-08-19 13:45:08.404,-0.21,-0.01
2021-08-19 13:45:08.408,-0.24,-0.015
2021-08-19 13:45:08.412,-0.235,-0.07
2021-08-19 13:45:08.416,-0.24,-0.08
2021-08-19 13:45:08.420,-0.245,-0.07
2021-08-19 13:45:08.424,-0.295,-0.09
2021-08-19 13:45:08.428,-0.325,-0.135
2021-08-19 13:45:08.432,-0.345,-0.13
2021-08-19 13:45:08.436,-0.365,-0.14
2021-08-19 13:45:08.440,-0.34,-0.15
2021-08-19 13:45:08.444,-0.31,-0.165
2021-08-19 13:45:08.448,-0.245,-0.17
2021-08-19 13:45:08.452,-0.11,-0.17
2021-08-19 13:45:08.456,0.055,-0.18
2021-08-19 13:45:08.460,0.115,-0.18
2021-08-19 13:45:08.464,-0.03,-0.14
2021-08-19 13:45:08.468,-0.33,-0.055
2021-08-19 13:45:08.472,-0.75,0.02
2021-08-19 13:45:08.476,-1.235,-0.115
2021-08-19 13:45:08.480,-1.66,-0.605
2021-08-19 13:45:08.484,-1.88,-1.32
2021-08-19 13:45:08.572,-0.05,-1.64
2021-08-19 13:45:08.576,0.075,-1.21
2021-08-19 13:45:08.580,0.17,-0.795
2021-08-19 13:45:08.584,0.195,-0.505
2021-08-19 13:45:08.588,0.21,-0.27
2021-08-19 13:45:08.592,0.2,-0.01
2021-08-19 13:45:08.596,0.195,0.21
2021-08-19 13:45:08.600,0.2,0.355
2021-08-19 13:45:08.604,0.23,0.49
2021-08-19 13:45:08.608,0.215,0.585
2021-08-19 13:45:08.612,0.22,0.65
2021-08-19 13:45:08.616,0.27,0.72
2021-08-19 13:45:08.620,0.28,0.75
2021-08-19 13:45:08.624,0.27,0.765
2021-08-19 13:45:08.628,0.295,0.785
2021-08-19 13:45:08.632,0.315,0.805
2021-08-19 13:45:08.636,0.325,0.82
2021-08-19 13:45:08.640,0.375,0.855
2021-08-19 13:45:08.644,0.355,0.87
2021-08-19 13:45:08.648,0.365,0.86
2021-08-19 13:45:08.652,0.385,0.9
2021-08-19 13:45:08.656,0.4,0.885
2021-08-19 13:45:08.660,0.435,0.9
2021-08-19 13:45:08.664,0.435,0.925
2021-08-19 13:45:08.668,0.43,0.95
2021-08-19 13:45:08.672,0.44,0.97
2021-08-19 13:45:08.676,0.475,1.015
2021-08-19 13:45:08.680,0.52,1.02
2021-08-19 13:45:08.684,0.55,1.07
2021-08-19 13:45:08.688,0.535,1.1
2021-08-19 13:45:08.692,0.555,1.11
2021-08-19 13:45:08.696,0.595,1.15
2021-08-19 13:45:08.700,0.62,1.175
2021-08-19 13:45:08.704,0.65,1.215
2021-08-19 13:45:08.708,0.69,1.21
2021-08-19 13:45:08.712,0.665,1.26
2021-08-19 13:45:08.716,0.63,1.295
2021-08-19 13:45:08.720,0.61,1.36
2021-08-19 13:45:08.724,0.6,1.375
2021-08-19 13:45:08.728,0.555,1.37
2021-08-19 13:45:08.732,0.59,1.355
2021-08-19 13:45:08.736,0.615,1.34
2021-08-19 13:45:08.740,0.605,1.32
2021-08-19 13:45:08.744,0.57,1.32
2021-08-19 13:45:08.748,0.555,1.3
2021-08-19 13:45:08.752,0.53,1.305
2021-08-19 13:45:08.756,0.485,1.29
2021-08-19 13:45:08.760,0.45,1.26
2021-08-19 13:45:08.764,0.365,1.215
2021-08-19 13:45:08.768,0.365,1.19
2021-08-19 13:45:08.772,0.325,1.125
2021-08-19 13:45:08.776,0.33,1.08
2021-08-19 13:45:08.780,0.31,1.025
2021-08-19 13:45:08.784,0.285,0.965
2021-08-19 13:45:08.788,0.28,0.89
2021-08-19 13:45:08.792,0.285,0.82
2021-08-19 13:45:08.796,0.28,0.765
2021-08-19 13:45:08.800,0.28,0.725
2021-08-19 13:45:08.804,0.22,0.655
2021-08-19 13:45:08.808,0.225,0.605
2021-08-19 13:45:08.812,0.215,0.555
2021-08-19 13:45:08.816,0.2,0.495
2021-08-19 13:45:08.820,0.19,0.405
2021-08-19 13:45:08.824,0.18,0.395
2021-08-19 13:45:08.828,0.18,0.33
2021-08-19 13:45:08.832,0.2,0.315
2021-08-19 13:45:08.836,0.19,0.28
2021-08-19 13:45:08.840,0.18,0.25
2021-08-19 13:45:08.844,0.145,0.255
2021-08-19 13:45:08.848,0.13,0.22
2021-08-19 13:45:08.852,0.125,0.19
2021-08-19 13:45:08.856,0.12,0.18
2021-08-19 13:45:08.860,0.11,0.18
2021-08-19 13:45:08.864,0.085,0.155
2021-08-19 13:45:08.868,0.09,0.145
2021-08-19 13:45:08.872,0.095,0.125
2021-08-19 13:45:08.876,0.095,0.115
2021-08-19 13:45:08.880,0.1,0.125
2021-08-19 13:45:08.884,0.105,0.13
2021-08-19 13:45:08.888,0.14,0.12
2021-08-19 13:45:08.892,0.135,0.135
2021-08-19 13:45:08.896,0.13,0.13
2021-08-19 13:45:08.900,0.115,0.15
2021-08-19 13:45:08.904,0.07,0.17
2021-08-19 13:45:08.908,0.095,0.185
2021-08-19 13:45:08.912,0.12,0.165
2021-08-19 13:45:08.916,0.135,0.14
2021-08-19 13:45:08.920,0.125,0.11
2021-08-19 13:45:08.924,0.145,0.09
2021-08-19 13:45:08.928,0.115,0.115
2021-08-19 13:45:08.932,0.115,0.08
2021-08-19 13:45:08.936,0.105,0.075
2021-08-19 13:45:08.940,0.085,0.065
2021-08-19 13:45:08.944,0.045,0.065
2021-08-19 13:45:08.948,0.055,0.045
2021-08-19 13:45:08.952,0.025,0.055
2021-08-19 13:45:08.956,0.02,0.045
2021-08-19 13:45:08.960,0.02,0.025
2021-08-19 13:45:08.964,0.015,0.025
2021-08-19 13:45:08.968,0.025,0.01
2021-08-19 13:45:08.972,0.035,-0.005
2021-08-19 13:45:08.976,0.045,0.0
2021-08-19 13:45:08.980,0.04,-0.015
2021-08-19 13:45:08.984,0.045,-0.01
2021-08-19 13:45:08.988,0.025,-0.005
2021-08-19 13:45:08.992,0.02,-0.015
2021-08-19 13:45:08.996,0.0,-0.005
2021-08-19 13:45:09.000,-0.01,-0.02
2021-08-19 13:45:09.004,0.0,-0.005
2021-08-19 13:45:09.008,-0.03,-0.03
2021-08-19 13:45:09.012,-0.03,-0.045
2021-08-19 13:45:09.016,-0.015,-0.06
2021-08-19 13:45:09.020,-0.02,-0.055
2021-08-19 13:45:09.024,-0.045,-0.04
2021-08-19 13:45:09.028,-0.03,-0.055
2021-08-19 13:45:09.032,-0.025,-0.04
2021-08-19 13:45:09.036,-0.035,-0.055
2021-08-19 13:45:09.040,-0.065,-0.055
2021-08-19 13:45:09.044,-0.055,-0.045
2021-08-19 13:45:09.048,-0.01,-0.035
2021-08-19 13:45:09.052,0.015,-0.035
2021-08-19 13:45:09.056,-0.015,-0.025
2021-08-19 13:45:09.060,0.0,-0.04
2021-08-19 13:45:09.064,-0.005,-0.04
2021-08-19 13:45:09.068,-0.045,-0.01
2021-08-19 13:45:09.072,-0.045,0.0
2021-08-19 13:45:09.076,-0.035,-0.005
2021-08-19 13:45:09.080,-0.03,0.015
2021-08-19 13:45:09.084,-0.005,0.0
2021-08-19 13:45:09.088,0.045,-0.015
2021-08-19 13:45:09.092,0.155,-0.025
2021-08-19 13:45:09.096,0.275,-0.01
2021-08-19 13:45:09.100,0.3,-0.005
2021-08-19 13:45:09.104,0.23,0.06
2021-08-19 13:45:09.108,0.05,0.125
2021-08-19 13:45:09.112,-0.17,0.19
2021-08-19 13:45:09.116,-0.525,0.01
2021-08-19 13:45:09.120,-0.855,-0.49
2021-08-19 13:45:09.124,-1.145,-1.1
2021-08-19 13:45:09.128,-1.31,-1.83
2021-08-19 13:45:09.216,-0.345,-1.83
2021-08-19 13:45:09.220,-0.22,-1.4
2021-08-19 13:45:09.224,-0.085,-1.025
2021-08-19 13:45:09.228,0.015,-0.695
2021-08-19 13:45:09.232,0.095,-0.42
2021-08-19 13:45:09.236,0.19,-0.2
2021-08-19 13:45:09.240,0.26,-0.02
2021-08-19 13:45:09.244,0.29,0.175
2021-08-19 13:45:09.248,0.305,0.335
2021-08-19 13:45:09.252,0.34,0.535
2021-08-19 13:45:09.256,0.34,0.68
2021-08-19 13:45:09.260,0.35,0.765
2021-08-19 13:45:09.264,0.395,0.83
2021-08-19 13:45:09.268,0.385,0.88
2021-08-19 13:45:09.272,0.43,0.92
2021-08-19 13:45:09.276,0.45,0.97
2021-08-19 13:45:09.280,0.455,0.99
2021-08-19 13:45:09.284,0.485,1.01
2021-08-19 13:45:09.288,0.51,1.06
2021-08-19 13:45:09.292,0.535,1.06
2021-08-19 13:45:09.296,0.56,1.065
2021-08-19 13:45:09.300,0.58,1.095
2021-08-19 13:45:09.304,0.6,1.1
2021-08-19 13:45:09.308,0.6,1.1
2021-08-19 13:45:09.312,0.59,1.1
2021-08-19 13:45:09.316,0.595,1.12
2021-08-19 13:45:09.320,0.6,1.125
2021-08-19 13:45:09.324,0.605,1.14
2021-08-19 13:45:09.328,0.615,1.145
2021-08-19 13:45:09.332,0.63,1.135
2021-08-19 13:45:09.336,0.66,1.15
2021-08-19 13:45:09.340,0.685,1.165
2021-08-19 13:45:09.344,0.7,1.185
2021-08-19 13:45:09.348,0.695,1.215
2021-08-19 13:45:09.352,0.745,1.255
2021-08-19 13:45:09.356,0.75,1.265
2021-08-19 13:45:09.360,0.75,1.29
2021-08-19 13:45:09.364,0.73,1.31
2021-08-19 13:45:09.368,0.71,1.355
2021-08-19 13:45:09.372,0.715,1.39
2021-08-19 13:45:09.376,0.72,1.4
2021-08-19 13:45:09.380,0.705,1.415
2021-08-19 13:45:09.384,0.705,1.45
2021-08-19 13:45:09.388,0.71,1.47
2021-08-19 13:45:09.392,0.705,1.515
2021-08-19 13:45:09.396,0.675,1.53
2021-08-19 13:45:09.400,0.645,1.525
2021-08-19 13:45:09.404,0.61,1.535
2021-08-19 13:45:09.408,0.6,1.555
2021-08-19 13:45:09.412,0.62,1.54
2021-08-19 13:45:09.416,0.615,1.49
2021-08-19 13:45:09.420,0.615,1.46
2021-08-19 13:45:09.424,0.58,1.425
2021-08-19 13:45:09.428,0.57,1.395
2021-08-19 13:45:09.432,0.515,1.355
2021-08-19 13:45:09.436,0.46,1.33
2021-08-19 13:45:09.440,0.43,1.3
2021-08-19 13:45:09.444,0.39,1.21
2021-08-19 13:45:09.448,0.37,1.16
2021-08-19 13:45:09.452,0.31,1.055
2021-08-19 13:45:09.456,0.25,0.99
2021-08-19 13:45:09.460,0.215,0.94
2021-08-19 13:45:09.464,0.18,0.85
2021-08-19 13:45:09.468,0.155,0.765
2021-08-19 13:45:09.472,0.125,0.66
2021-08-19 13:45:09.476,0.13,0.575
2021-08-19 13:45:09.480,0.14,0.48
2021-08-19 13:45:09.484,0.12,0.4
2021-08-19 13:45:09.488,0.09,0.34
2021-08-19 13:45:09.492,0.065,0.295
2021-08-19 13:45:09.496,0.045,0.25
2021-08-19 13:45:09.500,0.02,0.21
2021-08-19 13:45:09.504,-0.005,0.165
2021-08-19 13:45:09.508,-0.035,0.1
2021-08-19 13:45:09.512,-0.05,0.07
2021-08-19 13:45:09.516,-0.055,0.05
2021-08-19 13:45:09.520,-0.06,0.025
2021-08-19 13:45:09.524,-0.035,0.0
2021-08-19 13:45:09.528,-0.06,-0.005
2021-08-19 13:45:09.532,-0.07,-0.01
2021-08-19 13:45:09.536,-0.09,0.0
2021-08-19 13:45:09.540,-0.125,0.02
2021-08-19 13:45:09.544,-0.11,0.035
2021-08-19 13:45:09.548,-0.115,0.035
2021-08-19 13:45:09.552,-0.125,0.04
2021-08-19 13:45:09.556,-0.155,0.055
2021-08-19 13:45:09.560,-0.15,0.065
2021-08-19 13:45:09.564,-0.145,0.045
2021-08-19 13:45:09.568,-0.15,0.025
2021-08-19 13:45:09.572,-0.13,0.065
2021-08-19 13:45:09.576,-0.105,0.06
2021-08-19 13:45:09.580,-0.11,0.075
2021-08-19 13:45:09.584,-0.065,0.08
2021-08-19 13:45:09.588,-0.045,0.115
2021-08-19 13:45:09.592,-0.025,0.14
2021-08-19 13:45:09.596,-0.04,0.17
2021-08-19 13:45:09.600,-0.045,0.175
2021-08-19 13:45:09.604,-0.04,0.175
2021-08-19 13:45:09.608,-0.07,0.195
2021-08-19 13:45:09.612,-0.06,0.215
2021-08-19 13:45:09.616,-0.065,0.22
2021-08-19 13:45:09.620,-0.065,0.235
2021-08-19 13:45:09.624,-0.08,0.215
2021-08-19 13:45:09.628,-0.105,0.225
2021-08-19 13:45:09.632,-0.085,0.235
2021-08-19 13:45:09.636,-0.075,0.235
2021-08-19 13:45:09.640,-0.085,0.23
2021-08-19 13:45:09.644,-0.08,0.21
2021-08-19 13:45:09.648,-0.065,0.165
2021-08-19 13:45:09.652,-0.065,0.155
2021-08-19 13:45:09.656,-0.07,0.135
2021-08-19 13:45:09.660,-0.085,0.125
2021-08-19 13:45:09.664,-0.095,0.105
2021-08-19 13:45:09.668,-0.085,0.09
2021-08-19 13:45:09.672,-0.08,0.095
2021-08-19 13:45:09.676,-0.1,0.085
2021-08-19 13:45:09.680,-0.085,0.05
2021-08-19 13:45:09.684,-0.11,0.065
2021-08-19 13:45:09.688,-0.135,0.06
2021-08-19 13:45:09.692,-0.145,0.075
2021-08-19 13:45:09.696,-0.145,0.075
2021-08-19 13:45:09.700,-0.155,0.05
2021-08-19 13:45:09.704,-0.175,0.055
2021-08-19 13:45:09.708,-0.18,0.0
2021-08-19 13:45:09.712,-0.185,0.0
2021-08-19 13:45:09.716,-0.19,0.005
2021-08-19 13:45:09.720,-0.18,0.01
2021-08-19 13:45:09.724,-0.19,0.0
2021-08-19 13:45:09.728,-0.2,0.0
2021-08-19 13:45:09.732,-0.2,0.02
2021-08-19 13:45:09.736,-0.19,0.015
2021-08-19 13:45:09.740,-0.18,-0.005
2021-08-19 13:45:09.744,-0.16,0.005
2021-08-19 13:45:09.748,-0.115,0.005
2021-08-19 13:45:09.752,0.0,0.01
2021-08-19 13:45:09.756,0.185,0.035
2021-08-19 13:45:09.760,0.34,0.02
2021-08-19 13:45:09.764,0.36,0.065
2021-08-19 13:45:09.768,0.27,0.13
2021-08-19 13:45:09.772,0.135,0.23
2021-08-19 13:45:09.776,-0.155,0.24
2021-08-19 13:45:09.780,-0.55,-0.06
2021-08-19 13:45:09.784,-0.895,-0.59
2021-08-19 13:45:09.788,-1.125,-1.215
2021-08-19 13:45:09.880,-0.385,-1.85
2021-08-19 13:45:09.884,-0.28,-1.425
2021-08-19 13:45:09.888,-0.185,-1.07
2021-08-19 13:45:09.892,-0.06,-0.745
2021-08-19 13:45:09.896,-0.04,-0.46
2021-08-19 13:45:09.900,-0.025,-0.22
2021-08-19 13:45:09.904,0.01,0.005
2021-08-19 13:45:09.908,0.025,0.21
2021-08-19 13:45:09.912,0.025,0.385
2021-08-19 13:45:09.916,0.035,0.57
2021-08-19 13:45:09.920,0.045,0.695
2021-08-19 13:45:09.924,0.035,0.76
2021-08-19 13:45:09.928,0.06,0.815
2021-08-19 13:45:09.932,0.1,0.87
2021-08-19 13:45:09.936,0.115,0.9
2021-08-19 13:45:09.940,0.155,0.93
2021-08-19 13:45:09.944,0.205,0.945
2021-08-19 13:45:09.948,0.235,0.98
2021-08-19 13:45:09.952,0.265,0.985
2021-08-19 13:45:09.956,0.265,1.015
2021-08-19 13:45:09.960,0.27,1.055
2021-08-19 13:45:09.964,0.32,1.095
2021-08-19 13:45:09.968,0.35,1.075
2021-08-19 13:45:09.972,0.355,1.09
2021-08-19 13:45:09.976,0.365,1.12
2021-08-19 13:45:09.980,0.36,1.11
2021-08-19 13:45:09.984,0.365,1.14
2021-08-19 13:45:09.988,0.39,1.15
2021-08-19 13:45:09.992,0.405,1.145
2021-08-19 13:45:09.996,0.44,1.175
2021-08-19 13:45:10.000,0.425,1.175
2021-08-19 13:45:10.004,0.455,1.175
2021-08-19 13:45:10.008,0.45,1.235
2021-08-19 13:45:10.012,0.48,1.27
2021-08-19 13:45:10.016,0.47,1.3
2021-08-19 13:45:10.020,0.48,1.295
2021-08-19 13:45:10.024,0.505,1.33
2021-08-19 13:45:10.028,0.51,1.35
2021-08-19 13:45:10.032,0.51,1.385
2021-08-19 13:45:10.036,0.515,1.4
2021-08-19 13:45:10.040,0.535,1.415
2021-08-19 13:45:10.044,0.54,1.425
2021-08-19 13:45:10.048,0.525,1.455
2021-08-19 13:45:10.052,0.52,1.465
2021-08-19 13:45:10.056,0.5,1.47
2021-08-19 13:45:10.060,0.47,1.485
2021-08-19 13:45:10.064,0.46,1.485
2021-08-19 13:45:10.068,0.44,1.485
2021-08-19 13:45:10.072,0.42,1.47
2021-08-19 13:45:10.076,0.37,1.45
2021-08-19 13:45:10.080,0.345,1.415
2021-08-19 13:45:10.084,0.325,1.395
2021-08-19 13:45:10.088,0.285,1.35
2021-08-19 13:45:10.092,0.285,1.32
2021-08-19 13:45:10.096,0.22,1.27
2021-08-19 13:45:10.100,0.165,1.24
2021-08-19 13:45:10.104,0.13,1.19
2021-08-19 13:45:10.108,0.095,1.14
2021-08-19 13:45:10.112,0.055,1.065
2021-08-19 13:45:10.116,0.025,0.985
2021-08-19 13:45:10.120,0.01,0.91
2021-08-19 13:45:10.124,-0.005,0.83
2021-08-19 13:45:10.128,-0.01,0.76
2021-08-19 13:45:10.132,-0.01,0.705
2021-08-19 13:45:10.136,-0.015,0.66
2021-08-19 13:45:10.140,-0.005,0.59
2021-08-19 13:45:10.144,-0.04,0.535
2021-08-19 13:45:10.148,-0.06,0.49
2021-08-19 13:45:10.152,-0.07,0.455
2021-08-19 13:45:10.156,-0.115,0.425
2021-08-19 13:45:10.160,-0.13,0.385
2021-08-19 13:45:10.164,-0.15,0.365
2021-08-19 13:45:10.168,-0.155,0.35
2021-08-19 13:45:10.172,-0.145,0.29
2021-08-19 13:45:10.176,-0.145,0.225
2021-08-19 13:45:10.180,-0.17,0.205
2021-08-19 13:45:10.184,-0.18,0.185
