Time,ECG1,ECG2
2021-08-19 06:39:41.860,0.255,-0.27
2021-08-19 06:39:41.864,0.2,-0.255
2021-08-19 06:39:41.868,0.19,-0.23
2021-08-19 06:39:41.872,0.19,-0.24
2021-08-19 06:39:41.876,0.19,-0.225
2021-08-19 06:39:41.880,0.185,-0.25
2021-08-19 06:39:41.884,0.18,-0.29
2021-08-19 06:39:41.888,0.16,-0.33
2021-08-19 06:39:41.892,0.17,-0.355
2021-08-19 06:39:41.896,0.16,-0.34
2021-08-19 06:39:41.900,0.15,-0.29
2021-08-19 06:39:41.904,0.155,-0.24
2021-08-19 06:39:41.908,0.14,-0.205
2021-08-19 06:39:41.912,0.15,-0.21
2021-08-19 06:39:41.916,0.17,-0.285
2021-08-19 06:39:41.920,0.16,-0.345
2021-08-19 06:39:41.924,0.205,-0.38
2021-08-19 06:39:41.928,0.17,-0.34
2021-08-19 06:39:41.932,0.165,-0.28
2021-08-19 06:39:41.936,0.165,-0.21
2021-08-19 06:39:41.940,0.145,-0.18
2021-08-19 06:39:41.944,0.155,-0.155
2021-08-19 06:39:41.948,0.205,-0.165
2021-08-19 06:39:41.952,0.265,-0.2
2021-08-19 06:39:41.956,0.285,-0.215
2021-08-19 06:39:41.960,0.27,-0.25
2021-08-19 06:39:41.964,0.23,-0.265
2021-08-19 06:39:41.968,0.225,-0.27
2021-08-19 06:39:41.972,0.215,-0.23
2021-08-19 06:39:41.976,0.21,-0.175
2021-08-19 06:39:41.980,0.17,-0.165
2021-08-19 06:39:41.984,0.2,-0.14
2021-08-19 06:39:41.988,0.21,-0.16
2021-08-19 06:39:41.992,0.24,-0.14
2021-08-19 06:39:41.996,0.27,-0.15
2021-08-19 06:39:42.000,0.285,-0.15
2021-08-19 06:39:42.004,0.295,-0.185
2021-08-19 06:39:42.008,0.3,-0.19
2021-08-19 06:39:42.012,0.31,-0.18
2021-08-19 06:39:42.016,0.315,-0.17
2021-08-19 06:39:42.020,0.315,-0.12
2021-08-19 06:39:42.024,0.29,-0.07
2021-08-19 06:39:42.028,0.31,-0.025
2021-08-19 06:39:42.032,0.34,-0.06
2021-08-19 06:39:42.036,0.295,-0.17
2021-08-19 06:39:42.040,0.295,-0.265
2021-08-19 06:39:42.044,0.32,-0.22
2021-08-19 06:39:42.048,0.32,-0.11
2021-08-19 06:39:42.052,0.32,0.07
2021-08-19 06:39:42.056,0.33,0.225
2021-08-19 06:39:42.060,0.345,0.425
2021-08-19 06:39:42.064,0.4,0.685
2021-08-19 06:39:42.068,0.51,1.09
2021-08-19 06:39:42.072,0.605,1.475
2021-08-19 06:39:42.076,0.555,1.66
2021-08-19 06:39:42.080,0.41,1.61
2021-08-19 06:39:42.084,0.325,1.39
2021-08-19 06:39:42.088,0.255,0.97
2021-08-19 06:39:42.092,0.19,0.42
2021-08-19 06:39:42.096,0.07,-0.225
2021-08-19 06:39:42.100,-0.07,-0.73
2021-08-19 06:39:42.104,-0.33,-0.885
2021-08-19 06:39:42.108,-0.725,-0.73
2021-08-19 06:39:42.112,-1.04,-0.54
2021-08-19 06:39:42.116,-1.33,-0.495
2021-08-19 06:39:42.120,-1.48,-0.555
2021-08-19 06:39:42.124,-1.46,-0.565
2021-08-19 06:39:42.128,-1.185,-0.58
2021-08-19 06:39:42.132,-0.745,-0.59
2021-08-19 06:39:42.136,-0.32,-0.63
2021-08-19 06:39:42.140,-0.035,-0.645
2021-08-19 06:39:42.144,0.035,-0.64
2021-08-19 06:39:42.148,0.055,-0.67
2021-08-19 06:39:42.152,0.02,-0.665
2021-08-19 06:39:42.156,0.035,-0.51
2021-08-19 06:39:42.160,0.06,-0.37
2021-08-19 06:39:42.164,0.115,-0.265
2021-08-19 06:39:42.168,0.2,-0.23
2021-08-19 06:39:42.172,0.28,-0.245
2021-08-19 06:39:42.176,0.28,-0.29
2021-08-19 06:39:42.180,0.235,-0.35
2021-08-19 06:39:42.184,0.215,-0.43
2021-08-19 06:39:42.188,0.185,-0.52
2021-08-19 06:39:42.192,0.18,-0.57
2021-08-19 06:39:42.196,0.185,-0.545
2021-08-19 06:39:42.200,0.215,-0.44
2021-08-19 06:39:42.204,0.225,-0.365
2021-08-19 06:39:42.208,0.23,-0.355
2021-08-19 06:39:42.212,0.295,-0.32
2021-08-19 06:39:42.216,0.345,-0.24
2021-08-19 06:39:42.220,0.375,-0.175
2021-08-19 06:39:42.224,0.335,-0.18
2021-08-19 06:39:42.228,0.26,-0.22
2021-08-19 06:39:42.232,0.275,-0.27
2021-08-19 06:39:42.236,0.3,-0.325
2021-08-19 06:39:42.240,0.3,-0.355
2021-08-19 06:39:42.244,0.23,-0.325
2021-08-19 06:39:42.248,0.18,-0.32
2021-08-19 06:39:42.252,0.215,-0.325
2021-08-19 06:39:42.256,0.24,-0.37
2021-08-19 06:39:42.260,0.29,-0.405
2021-08-19 06:39:42.264,0.34,-0.445
2021-08-19 06:39:42.268,0.34,-0.485
2021-08-19 06:39:42.272,0.34,-0.48
2021-08-19 06:39:42.276,0.335,-0.46
2021-08-19 06:39:42.280,0.315,-0.45
2021-08-19 06:39:42.284,0.34,-0.445
2021-08-19 06:39:42.288,0.335,-0.43
2021-08-19 06:39:42.292,0.33,-0.44
2021-08-19 06:39:42.296,0.325,-0.43
2021-08-19 06:39:42.300,0.3,-0.43
2021-08-19 06:39:42.304,0.26,-0.415
2021-08-19 06:39:42.308,0.2,-0.445
2021-08-19 06:39:42.312,0.15,-0.45
2021-08-19 06:39:42.316,0.115,-0.49
2021-08-19 06:39:42.320,0.075,-0.51
2021-08-19 06:39:42.324,0.07,-0.53
2021-08-19 06:39:42.328,0.075,-0.545
2021-08-19 06:39:42.332,0.09,-0.59
2021-08-19 06:39:42.336,0.075,-0.555
2021-08-19 06:39:42.340,0.1,-0.495
2021-08-19 06:39:42.344,0.095,-0.5
2021-08-19 06:39:42.348,0.11,-0.53
2021-08-19 06:39:42.352,0.115,-0.53
2021-08-19 06:39:42.356,0.125,-0.44
2021-08-19 06:39:42.360,0.125,-0.365
2021-08-19 06:39:42.364,0.125,-0.33
2021-08-19 06:39:42.368,0.14,-0.35
2021-08-19 06:39:42.372,0.145,-0.33
2021-08-19 06:39:42.376,0.17,-0.27
2021-08-19 06:39:42.380,0.22,-0.19
2021-08-19 06:39:42.384,0.27,-0.17
2021-08-19 06:39:42.388,0.21,-0.185
2021-08-19 06:39:42.392,0.145,-0.21
2021-08-19 06:39:42.396,0.085,-0.26
2021-08-19 06:39:42.400,0.08,-0.24
2021-08-19 06:39:42.404,0.08,-0.24
2021-08-19 06:39:42.408,0.11,-0.22
2021-08-19 06:39:42.412,0.115,-0.21
2021-08-19 06:39:42.416,0.155,-0.21
2021-08-19 06:39:42.420,0.155,-0.2
2021-08-19 06:39:42.424,0.155,-0.19
2021-08-19 06:39:42.428,0.13,-0.185
2021-08-19 06:39:42.432,0.11,-0.16
2021-08-19 06:39:42.436,0.12,-0.125
2021-08-19 06:39:42.440,0.135,-0.015
2021-08-19 06:39:42.444,0.15,0.2
2021-08-19 06:39:42.448,0.19,0.57
2021-08-19 06:39:42.452,0.205,0.94
2021-08-19 06:39:42.456,0.23,1.17
2021-08-19 06:39:42.460,0.23,1.21
2021-08-19 06:39:42.464,0.25,1.15
2021-08-19 06:39:42.468,0.235,0.945
2021-08-19 06:39:42.472,0.195,0.625
2021-08-19 06:39:42.476,0.155,0.145
2021-08-19 06:39:42.480,0.085,-0.355
2021-08-19 06:39:42.484,-0.11,-0.615
2021-08-19 06:39:42.488,-0.445,-0.595
2021-08-19 06:39:42.492,-0.82,-0.435
2021-08-19 06:39:42.496,-1.12,-0.36
2021-08-19 06:39:42.500,-1.305,-0.4
2021-08-19 06:39:42.504,-1.33,-0.535
2021-08-19 06:39:42.508,-1.155,-0.625
2021-08-19 06:39:42.512,-0.785,-0.665
2021-08-19 06:39:42.516,-0.375,-0.68
2021-08-19 06:39:42.520,-0.145,-0.64
2021-08-19 06:39:42.524,-0.03,-0.595
2021-08-19 06:39:42.528,-0.025,-0.59
2021-08-19 06:39:42.532,-0.055,-0.56
2021-08-19 06:39:42.536,-0.085,-0.44
2021-08-19 06:39:42.540,-0.075,-0.385
2021-08-19 06:39:42.544,-0.05,-0.36
2021-08-19 06:39:42.548,0.0,-0.365
2021-08-19 06:39:42.552,0.045,-0.37
2021-08-19 06:39:42.556,0.075,-0.35
2021-08-19 06:39:42.560,0.095,-0.345
2021-08-19 06:39:42.564,0.115,-0.315
2021-08-19 06:39:42.568,0.135,-0.325
2021-08-19 06:39:42.572,0.11,-0.32
2021-08-19 06:39:42.576,0.125,-0.33
2021-08-19 06:39:42.580,0.14,-0.345
2021-08-19 06:39:42.584,0.135,-0.36
2021-08-19 06:39:42.588,0.17,-0.335
2021-08-19 06:39:42.592,0.185,-0.32
2021-08-19 06:39:42.596,0.16,-0.32
2021-08-19 06:39:42.600,0.195,-0.355
2021-08-19 06:39:42.604,0.18,-0.36
2021-08-19 06:39:42.608,0.19,-0.305
2021-08-19 06:39:42.612,0.15,-0.265
2021-08-19 06:39:42.616,0.175,-0.25
2021-08-19 06:39:42.620,0.17,-0.26
2021-08-19 06:39:42.624,0.165,-0.275
2021-08-19 06:39:42.628,0.18,-0.305
2021-08-19 06:39:42.632,0.17,-0.29
2021-08-19 06:39:42.636,0.165,-0.28
2021-08-19 06:39:42.640,0.205,-0.275
2021-08-19 06:39:42.644,0.2,-0.28
2021-08-19 06:39:42.648,0.21,-0.27
2021-08-19 06:39:42.652,0.24,-0.265
2021-08-19 06:39:42.656,0.28,-0.27
2021-08-19 06:39:42.660,0.27,-0.29
2021-08-19 06:39:42.664,0.275,-0.31
2021-08-19 06:39:42.668,0.3,-0.31
2021-08-19 06:39:42.672,0.34,-0.325
2021-08-19 06:39:42.676,0.305,-0.32
2021-08-19 06:39:42.680,0.29,-0.285
2021-08-19 06:39:42.684,0.235,-0.26
2021-08-19 06:39:42.688,0.195,-0.265
2021-08-19 06:39:42.692,0.15,-0.31
2021-08-19 06:39:42.696,0.14,-0.315
2021-08-19 06:39:42.700,0.13,-0.315
2021-08-19 06:39:42.704,0.12,-0.36
2021-08-19 06:39:42.708,0.125,-0.36
2021-08-19 06:39:42.712,0.115,-0.36
2021-08-19 06:39:42.716,0.135,-0.395
2021-08-19 06:39:42.720,0.115,-0.43
2021-08-19 06:39:42.724,0.105,-0.36
2021-08-19 06:39:42.728,0.105,-0.28
2021-08-19 06:39:42.732,0.115,-0.195
2021-08-19 06:39:42.736,0.115,-0.165
2021-08-19 06:39:42.740,0.095,-0.135
2021-08-19 06:39:42.744,0.09,-0.095
2021-08-19 06:39:42.748,0.11,-0.065
2021-08-19 06:39:42.752,0.105,-0.095
2021-08-19 06:39:42.756,0.125,-0.075
2021-08-19 06:39:42.760,0.12,-0.065
2021-08-19 06:39:42.764,0.12,-0.06
2021-08-19 06:39:42.768,0.13,-0.07
2021-08-19 06:39:42.772,0.135,-0.075
2021-08-19 06:39:42.776,0.15,-0.065
2021-08-19 06:39:42.780,0.17,-0.08
2021-08-19 06:39:42.784,0.175,-0.095
2021-08-19 06:39:42.788,0.165,-0.105
2021-08-19 06:39:42.792,0.165,-0.14
2021-08-19 06:39:42.796,0.165,-0.16
2021-08-19 06:39:42.800,0.18,-0.125
2021-08-19 06:39:42.804,0.18,-0.07
2021-08-19 06:39:42.808,0.185,-0.07
2021-08-19 06:39:42.812,0.165,-0.11
2021-08-19 06:39:42.816,0.18,-0.145
2021-08-19 06:39:42.820,0.175,-0.15
2021-08-19 06:39:42.824,0.19,-0.15
2021-08-19 06:39:42.828,0.18,-0.15
2021-08-19 06:39:42.832,0.17,-0.125
2021-08-19 06:39:42.836,0.145,-0.1
2021-08-19 06:39:42.840,0.155,-0.08
2021-08-19 06:39:42.844,0.175,-0.07
2021-08-19 06:39:42.848,0.155,-0.06
2021-08-19 06:39:42.852,0.215,-0.065
2021-08-19 06:39:42.856,0.25,-0.065
2021-08-19 06:39:42.860,0.27,-0.135
2021-08-19 06:39:42.864,0.27,-0.17
2021-08-19 06:39:42.868,0.255,-0.135
2021-08-19 06:39:42.872,0.26,-0.06
2021-08-19 06:39:42.876,0.27,-0.035
2021-08-19 06:39:42.880,0.255,-0.02
2021-08-19 06:39:42.884,0.225,-0.06
2021-08-19 06:39:42.888,0.18,-0.065
2021-08-19 06:39:42.892,0.14,-0.08
2021-08-19 06:39:42.896,0.11,-0.085
2021-08-19 06:39:42.900,0.11,-0.135
2021-08-19 06:39:42.904,0.09,-0.155
2021-08-19 06:39:42.908,0.09,-0.21
2021-08-19 06:39:42.912,0.12,-0.23
2021-08-19 06:39:42.916,0.115,-0.225
2021-08-19 06:39:42.920,0.075,-0.225
2021-08-19 06:39:42.924,0.06,-0.235
2021-08-19 06:39:42.928,0.07,-0.265
2021-08-19 06:39:42.932,0.065,-0.26
2021-08-19 06:39:42.936,0.075,-0.185
2021-08-19 06:39:42.940,0.055,-0.12
2021-08-19 06:39:42.944,0.085,-0.085
2021-08-19 06:39:42.948,0.105,-0.075
2021-08-19 06:39:42.952,0.12,-0.105
2021-08-19 06:39:42.956,0.095,-0.11
2021-08-19 06:39:42.960,0.08,-0.09
2021-08-19 06:39:42.964,0.085,-0.085
2021-08-19 06:39:42.968,0.105,-0.05
2021-08-19 06:39:42.972,0.125,-0.065
2021-08-19 06:39:42.976,0.13,-0.085
2021-08-19 06:39:42.980,0.165,-0.055
2021-08-19 06:39:42.984,0.16,-0.055
2021-08-19 06:39:42.988,0.135,-0.04
2021-08-19 06:39:42.992,0.125,-0.055
2021-08-19 06:39:42.996,0.13,-0.03
2021-08-19 06:39:43.000,0.15,-0.035
2021-08-19 06:39:43.004,0.14,-0.07
2021-08-19 06:39:43.008,0.14,-0.095
2021-08-19 06:39:43.012,0.14,-0.115
2021-08-19 06:39:43.016,0.115,-0.16
2021-08-19 06:39:43.020,0.135,-0.18
2021-08-19 06:39:43.024,0.125,-0.2
2021-08-19 06:39:43.028,0.115,-0.215
2021-08-19 06:39:43.032,0.15,-0.23
2021-08-19 06:39:43.036,0.145,-0.2
2021-08-19 06:39:43.040,0.135,-0.14
2021-08-19 06:39:43.044,0.145,-0.065
2021-08-19 06:39:43.048,0.125,-0.05
2021-08-19 06:39:43.052,0.135,-0.055
2021-08-19 06:39:43.056,0.14,-0.065
2021-08-19 06:39:43.060,0.145,-0.055
2021-08-19 06:39:43.064,0.165,-0.075
2021-08-19 06:39:43.068,0.17,-0.08
2021-08-19 06:39:43.072,0.195,-0.065
2021-08-19 06:39:43.076,0.185,-0.08
2021-08-19 06:39:43.080,0.2,-0.1
2021-08-19 06:39:43.084,0.175,-0.105
2021-08-19 06:39:43.088,0.135,-0.155
2021-08-19 06:39:43.092,0.105,-0.225
2021-08-19 06:39:43.096,0.09,-0.28
2021-08-19 06:39:43.100,0.07,-0.28
2021-08-19 06:39:43.104,0.055,-0.24
2021-08-19 06:39:43.108,0.06,-0.195
2021-08-19 06:39:43.112,0.055,-0.18
2021-08-19 06:39:43.116,0.05,-0.165
2021-08-19 06:39:43.120,0.065,-0.175
2021-08-19 06:39:43.124,0.045,-0.195
2021-08-19 06:39:43.128,0.055,-0.205
2021-08-19 06:39:43.132,0.02,-0.205
2021-08-19 06:39:43.136,0.03,-0.195
2021-08-19 06:39:43.140,0.065,-0.23
2021-08-19 06:39:43.144,0.055,-0.235
2021-08-19 06:39:43.148,0.045,-0.23
2021-08-19 06:39:43.152,0.04,-0.245
2021-08-19 06:39:43.156,0.055,-0.26
2021-08-19 06:39:43.160,0.07,-0.23
2021-08-19 06:39:43.164,0.07,-0.195
2021-08-19 06:39:43.168,0.085,-0.155
2021-08-19 06:39:43.172,0.08,-0.12
2021-08-19 06:39:43.176,0.1,-0.1
2021-08-19 06:39:43.180,0.105,-0.09
2021-08-19 06:39:43.184,0.135,-0.08
2021-08-19 06:39:43.188,0.12,-0.115
2021-08-19 06:39:43.192,0.1,-0.135
2021-08-19 06:39:43.196,0.075,-0.13
2021-08-19 06:39:43.200,0.07,-0.13
2021-08-19 06:39:43.204,0.08,-0.16
2021-08-19 06:39:43.208,0.085,-0.12
2021-08-19 06:39:43.212,0.1,-0.08
2021-08-19 06:39:43.216,0.105,-0.04
2021-08-19 06:39:43.220,0.1,-0.06
2021-08-19 06:39:43.224,0.075,-0.075
2021-08-19 06:39:43.228,0.135,-0.115
2021-08-19 06:39:43.232,0.09,-0.12
2021-08-19 06:39:43.236,0.105,-0.13
2021-08-19 06:39:43.240,0.095,-0.12
2021-08-19 06:39:43.244,0.055,-0.08
2021-08-19 06:39:43.248,0.06,-0.005
2021-08-19 06:39:43.252,0.06,0.11
2021-08-19 06:39:43.256,0.045,0.245
2021-08-19 06:39:43.260,0.075,0.46
2021-08-19 06:39:43.264,0.105,0.775
2021-08-19 06:39:43.268,0.105,1.09
2021-08-19 06:39:43.272,0.155,1.295
2021-08-19 06:39:43.276,0.19,1.39
2021-08-19 06:39:43.280,0.185,1.315
2021-08-19 06:39:43.284,0.12,1.1
2021-08-19 06:39:43.288,0.03,0.765
2021-08-19 06:39:43.292,-0.025,0.32
2021-08-19 06:39:43.296,-0.15,-0.23
2021-08-19 06:39:43.300,-0.31,-0.575
2021-08-19 06:39:43.304,-0.6,-0.56
2021-08-19 06:39:43.308,-0.985,-0.275
2021-08-19 06:39:43.312,-1.305,-0.105
2021-08-19 06:39:43.316,-1.495,-0.16
2021-08-19 06:39:43.320,-1.57,-0.32
2021-08-19 06:39:43.324,-1.445,-0.45
2021-08-19 06:39:43.328,-1.08,-0.505
2021-08-19 06:39:43.332,-0.55,-0.535
2021-08-19 06:39:43.336,-0.215,-0.505
2021-08-19 06:39:43.340,-0.09,-0.4
2021-08-19 06:39:43.344,-0.085,-0.31
2021-08-19 06:39:43.348,-0.1,-0.3
2021-08-19 06:39:43.352,-0.1,-0.315
2021-08-19 06:39:43.356,-0.095,-0.35
2021-08-19 06:39:43.360,-0.08,-0.385
2021-08-19 06:39:43.364,-0.06,-0.38
2021-08-19 06:39:43.368,-0.04,-0.35
2021-08-19 06:39:43.372,-0.02,-0.315
2021-08-19 06:39:43.376,0.02,-0.25
2021-08-19 06:39:43.380,0.05,-0.205
2021-08-19 06:39:43.384,0.075,-0.165
2021-08-19 06:39:43.388,0.045,-0.165
2021-08-19 06:39:43.392,0.065,-0.15
2021-08-19 06:39:43.396,0.1,-0.14
2021-08-19 06:39:43.400,0.125,-0.16
2021-08-19 06:39:43.404,0.13,-0.125
2021-08-19 06:39:43.408,0.14,-0.145
2021-08-19 06:39:43.412,0.125,-0.225
2021-08-19 06:39:43.416,0.13,-0.28
2021-08-19 06:39:43.420,0.12,-0.31
2021-08-19 06:39:43.424,0.125,-0.25
2021-08-19 06:39:43.428,0.17,-0.175
2021-08-19 06:39:43.432,0.155,-0.13
2021-08-19 06:39:43.436,0.175,-0.15
2021-08-19 06:39:43.440,0.19,-0.17
2021-08-19 06:39:43.444,0.175,-0.215
2021-08-19 06:39:43.448,0.195,-0.25
2021-08-19 06:39:43.452,0.175,-0.245
2021-08-19 06:39:43.456,0.165,-0.255
2021-08-19 06:39:43.460,0.165,-0.265
2021-08-19 06:39:43.464,0.145,-0.255
2021-08-19 06:39:43.468,0.17,-0.225
2021-08-19 06:39:43.472,0.145,-0.21
2021-08-19 06:39:43.476,0.13,-0.165
2021-08-19 06:39:43.480,0.1,-0.13
2021-08-19 06:39:43.484,0.065,-0.145
2021-08-19 06:39:43.488,0.07,-0.15
2021-08-19 06:39:43.492,0.055,-0.175
2021-08-19 06:39:43.496,0.06,-0.2
2021-08-19 06:39:43.500,0.07,-0.205
2021-08-19 06:39:43.504,0.095,-0.225
2021-08-19 06:39:43.508,0.085,-0.235
2021-08-19 06:39:43.512,0.09,-0.24
2021-08-19 06:39:43.516,0.12,-0.245
2021-08-19 06:39:43.520,0.115,-0.255
2021-08-19 06:39:43.524,0.125,-0.235
2021-08-19 06:39:43.528,0.105,-0.265
2021-08-19 06:39:43.532,0.08,-0.28
2021-08-19 06:39:43.536,0.07,-0.26
2021-08-19 06:39:43.540,0.075,-0.32
2021-08-19 06:39:43.544,0.06,-0.38
2021-08-19 06:39:43.548,0.065,-0.37
2021-08-19 06:39:43.552,0.065,-0.29
2021-08-19 06:39:43.556,0.045,-0.21
2021-08-19 06:39:43.560,0.075,-0.185
2021-08-19 06:39:43.564,0.035,-0.18
2021-08-19 06:39:43.568,0.06,-0.175
2021-08-19 06:39:43.572,0.04,-0.18
2021-08-19 06:39:43.576,0.045,-0.19
2021-08-19 06:39:43.580,0.035,-0.165
2021-08-19 06:39:43.584,0.04,-0.165
2021-08-19 06:39:43.588,0.03,-0.18
2021-08-19 06:39:43.592,0.025,-0.17
2021-08-19 06:39:43.596,0.03,-0.14
2021-08-19 06:39:43.600,0.01,-0.085
2021-08-19 06:39:43.604,-0.005,-0.02
2021-08-19 06:39:43.608,-0.01,0.02
2021-08-19 06:39:43.612,-0.01,0.04
2021-08-19 06:39:43.616,-0.025,0.04
2021-08-19 06:39:43.620,-0.02,0.065
2021-08-19 06:39:43.624,0.0,0.09
2021-08-19 06:39:43.628,0.0,0.15
2021-08-19 06:39:43.632,0.01,0.185
2021-08-19 06:39:43.636,0.03,0.19
2021-08-19 06:39:43.640,0.005,0.185
2021-08-19 06:39:43.644,-0.005,0.18
2021-08-19 06:39:43.648,0.0,0.16
2021-08-19 06:39:43.652,0.01,0.155
2021-08-19 06:39:43.656,0.02,0.165
2021-08-19 06:39:43.660,0.025,0.165
2021-08-19 06:39:43.664,0.03,0.195
2021-08-19 06:39:43.668,0.06,0.195
2021-08-19 06:39:43.672,0.075,0.2
2021-08-19 06:39:43.676,0.075,0.215
2021-08-19 06:39:43.680,0.095,0.235
2021-08-19 06:39:43.684,0.11,0.255
2021-08-19 06:39:43.688,0.1,0.25
2021-08-19 06:39:43.692,0.055,0.22
2021-08-19 06:39:43.696,0.02,0.225
2021-08-19 06:39:43.700,-0.015,0.195
2021-08-19 06:39:43.704,-0.025,0.185
2021-08-19 06:39:43.708,-0.03,0.175
2021-08-19 06:39:43.712,-0.035,0.145
2021-08-19 06:39:43.716,-0.045,0.14
2021-08-19 06:39:43.720,-0.03,0.11
2021-08-19 06:39:43.724,-0.035,0.075
2021-08-19 06:39:43.728,-0.01,0.06
2021-08-19 06:39:43.732,-0.005,0.035
2021-08-19 06:39:43.736,-0.015,0.05
2021-08-19 06:39:43.740,-0.025,0.02
2021-08-19 06:39:43.744,-0.03,0.005
2021-08-19 06:39:43.748,-0.02,0.0
2021-08-19 06:39:43.752,-0.025,-0.01
2021-08-19 06:39:43.756,-0.045,-0.015
2021-08-19 06:39:43.760,-0.02,-0.05
2021-08-19 06:39:43.764,-0.04,-0.045
2021-08-19 06:39:43.768,-0.03,-0.05
2021-08-19 06:39:43.772,-0.03,-0.07
2021-08-19 06:39:43.776,-0.025,-0.085
2021-08-19 06:39:43.780,-0.025,-0.105
2021-08-19 06:39:43.784,-0.025,-0.11
2021-08-19 06:39:43.788,-0.05,-0.13
2021-08-19 06:39:43.792,-0.03,-0.11
2021-08-19 06:39:43.796,-0.045,-0.1
2021-08-19 06:39:43.800,-0.06,-0.075
2021-08-19 06:39:43.804,-0.04,-0.105
2021-08-19 06:39:43.808,-0.025,-0.095
2021-08-19 06:39:43.812,-0.065,-0.09
2021-08-19 06:39:43.816,-0.06,-0.075
2021-08-19 06:39:43.820,-0.055,-0.03
2021-08-19 06:39:43.824,-0.035,0.015
2021-08-19 06:39:43.828,-0.02,0.04
2021-08-19 06:39:43.832,-0.015,0.055
2021-08-19 06:39:43.836,-0.02,0.075
2021-08-19 06:39:43.840,0.005,0.07
2021-08-19 06:39:43.844,0.015,0.065
2021-08-19 06:39:43.848,-0.005,0.05
2021-08-19 06:39:43.852,-0.02,0.045
2021-08-19 06:39:43.856,0.005,0.045
2021-08-19 06:39:43.860,0.015,0.015
2021-08-19 06:39:43.864,0.025,0.015
2021-08-19 06:39:43.868,0.03,0.01
2021-08-19 06:39:43.872,0.06,-0.015
2021-08-19 06:39:43.876,0.055,0.0
2021-08-19 06:39:43.880,0.085,0.0
2021-08-19 06:39:43.884,0.125,0.03
2021-08-19 06:39:43.888,0.125,0.07
2021-08-19 06:39:43.892,0.135,0.085
2021-08-19 06:39:43.896,0.095,0.11
2021-08-19 06:39:43.900,0.125,0.135
2021-08-19 06:39:43.904,0.14,0.14
2021-08-19 06:39:43.908,0.125,0.105
2021-08-19 06:39:43.912,0.1,0.05
2021-08-19 06:39:43.916,0.075,0.05
2021-08-19 06:39:43.920,0.035,0.01
2021-08-19 06:39:43.924,-0.005,-0.005
2021-08-19 06:39:43.928,0.005,-0.015
2021-08-19 06:39:43.932,0.02,-0.01
2021-08-19 06:39:43.936,0.01,-0.01
2021-08-19 06:39:43.940,0.01,-0.025
2021-08-19 06:39:43.944,0.01,-0.065
2021-08-19 06:39:43.948,0.01,-0.085
2021-08-19 06:39:43.952,-0.01,-0.1
2021-08-19 06:39:43.956,0.005,-0.06
2021-08-19 06:39:43.960,0.01,-0.02
2021-08-19 06:39:43.964,0.01,-0.035
2021-08-19 06:39:43.968,0.0,-0.07
2021-08-19 06:39:43.972,0.01,-0.105
2021-08-19 06:39:43.976,-0.01,-0.155
2021-08-19 06:39:43.980,0.0,-0.19
2021-08-19 06:39:43.984,0.005,-0.19
2021-08-19 06:39:43.988,0.03,-0.16
2021-08-19 06:39:43.992,0.015,-0.14
2021-08-19 06:39:43.996,0.005,-0.13
2021-08-19 06:39:44.000,0.0,-0.13
2021-08-19 06:39:44.004,0.01,-0.15
2021-08-19 06:39:44.008,0.01,-0.16
2021-08-19 06:39:44.012,0.0,-0.14
2021-08-19 06:39:44.016,-0.015,-0.115
2021-08-19 06:39:44.020,-0.02,-0.085
2021-08-19 06:39:44.024,-0.02,-0.08
2021-08-19 06:39:44.028,0.005,-0.05
2021-08-19 06:39:44.032,-0.005,-0.05
2021-08-19 06:39:44.036,0.015,-0.03
2021-08-19 06:39:44.040,0.015,-0.015
2021-08-19 06:39:44.044,0.03,-0.025
2021-08-19 06:39:44.048,0.025,0.0
2021-08-19 06:39:44.052,0.015,0.005
2021-08-19 06:39:44.056,0.05,0.015
2021-08-19 06:39:44.060,0.065,0.055
2021-08-19 06:39:44.064,0.06,0.095
2021-08-19 06:39:44.068,0.075,0.135
2021-08-19 06:39:44.072,0.09,0.185
2021-08-19 06:39:44.076,0.07,0.29
2021-08-19 06:39:44.080,0.08,0.57
2021-08-19 06:39:44.084,0.085,0.895
2021-08-19 06:39:44.088,0.085,1.175
2021-08-19 06:39:44.092,0.14,1.34
2021-08-19 06:39:44.096,0.15,1.42
2021-08-19 06:39:44.100,0.145,1.375
2021-08-19 06:39:44.104,0.115,1.195
2021-08-19 06:39:44.108,0.065,0.905
2021-08-19 06:39:44.112,0.05,0.505
2021-08-19 06:39:44.116,-0.005,0.03
2021-08-19 06:39:44.120,-0.11,-0.33
2021-08-19 06:39:44.124,-0.335,-0.35
2021-08-19 06:39:44.128,-0.64,-0.165
2021-08-19 06:39:44.132,-0.9,-0.04
2021-08-19 06:39:44.136,-1.085,-0.115
2021-08-19 06:39:44.140,-1.105,-0.21
2021-08-19 06:39:44.144,-0.965,-0.315
2021-08-19 06:39:44.148,-0.665,-0.35
2021-08-19 06:39:44.152,-0.3,-0.345
2021-08-19 06:39:44.156,-0.07,-0.28
2021-08-19 06:39:44.160,-0.015,-0.22
2021-08-19 06:39:44.164,-0.025,-0.17
2021-08-19 06:39:44.168,-0.045,-0.175
2021-08-19 06:39:44.172,-0.07,-0.21
2021-08-19 06:39:44.176,-0.065,-0.255
2021-08-19 06:39:44.180,-0.035,-0.29
2021-08-19 06:39:44.184,0.0,-0.29
2021-08-19 06:39:44.188,0.025,-0.28
2021-08-19 06:39:44.192,0.065,-0.27
2021-08-19 06:39:44.196,0.07,-0.22
2021-08-19 06:39:44.200,0.08,-0.23
2021-08-19 06:39:44.204,0.06,-0.245
2021-08-19 06:39:44.208,0.06,-0.24
2021-08-19 06:39:44.212,0.05,-0.25
2021-08-19 06:39:44.216,0.065,-0.25
2021-08-19 06:39:44.220,0.065,-0.225
2021-08-19 06:39:44.224,0.055,-0.205
2021-08-19 06:39:44.228,0.065,-0.215
2021-08-19 06:39:44.232,0.055,-0.2
2021-08-19 06:39:44.236,0.035,-0.215
2021-08-19 06:39:44.240,0.04,-0.22
2021-08-19 06:39:44.244,0.06,-0.225
2021-08-19 06:39:44.248,0.07,-0.21
2021-08-19 06:39:44.252,0.08,-0.15
2021-08-19 06:39:44.256,0.105,-0.115
2021-08-19 06:39:44.260,0.09,-0.13
2021-08-19 06:39:44.264,0.115,-0.155
2021-08-19 06:39:44.268,0.115,-0.175
2021-08-19 06:39:44.272,0.14,-0.21
2021-08-19 06:39:44.276,0.115,-0.215
2021-08-19 06:39:44.280,0.155,-0.23
2021-08-19 06:39:44.284,0.135,-0.24
2021-08-19 06:39:44.288,0.155,-0.235
2021-08-19 06:39:44.292,0.17,-0.24
2021-08-19 06:39:44.296,0.17,-0.245
2021-08-19 06:39:44.300,0.185,-0.26
2021-08-19 06:39:44.304,0.18,-0.285
2021-08-19 06:39:44.308,0.18,-0.3
2021-08-19 06:39:44.312,0.185,-0.28
2021-08-19 06:39:44.316,0.175,-0.3
2021-08-19 06:39:44.320,0.185,-0.27
2021-08-19 06:39:44.324,0.215,-0.285
2021-08-19 06:39:44.328,0.225,-0.255
2021-08-19 06:39:44.332,0.215,-0.255
2021-08-19 06:39:44.336,0.195,-0.265
2021-08-19 06:39:44.340,0.2,-0.275
2021-08-19 06:39:44.344,0.215,-0.31
2021-08-19 06:39:44.348,0.17,-0.315
2021-08-19 06:39:44.352,0.16,-0.345
2021-08-19 06:39:44.356,0.165,-0.35
2021-08-19 06:39:44.360,0.165,-0.35
2021-08-19 06:39:44.364,0.12,-0.32
2021-08-19 06:39:44.368,0.105,-0.35
2021-08-19 06:39:44.372,0.075,-0.37
2021-08-19 06:39:44.376,0.07,-0.42
2021-08-19 06:39:44.380,0.065,-0.44
2021-08-19 06:39:44.384,0.08,-0.435
2021-08-19 06:39:44.388,0.065,-0.45
2021-08-19 06:39:44.392,0.06,-0.455
2021-08-19 06:39:44.396,0.03,-0.43
2021-08-19 06:39:44.400,0.025,-0.425
2021-08-19 06:39:44.404,0.025,-0.415
2021-08-19 06:39:44.408,0.01,-0.385
2021-08-19 06:39:44.412,0.01,-0.35
2021-08-19 06:39:44.416,0.005,-0.325
2021-08-19 06:39:44.420,-0.005,-0.315
2021-08-19 06:39:44.424,0.0,-0.28
2021-08-19 06:39:44.428,0.0,-0.28
2021-08-19 06:39:44.432,0.005,-0.26
2021-08-19 06:39:44.436,0.0,-0.215
2021-08-19 06:39:44.440,0.005,-0.155
2021-08-19 06:39:44.444,-0.005,-0.12
2021-08-19 06:39:44.448,0.0,-0.09
2021-08-19 06:39:44.452,0.0,-0.075
2021-08-19 06:39:44.456,0.015,-0.01
2021-08-19 06:39:44.460,0.04,0.015
2021-08-19 06:39:44.464,0.045,0.045
2021-08-19 06:39:44.468,0.045,0.075
2021-08-19 06:39:44.472,0.065,0.095
2021-08-19 06:39:44.476,0.105,0.1
2021-08-19 06:39:44.480,0.12,0.085
2021-08-19 06:39:44.484,0.105,0.06
2021-08-19 06:39:44.488,0.1,0.06
2021-08-19 06:39:44.492,0.11,0.055
2021-08-19 06:39:44.496,0.13,0.04
2021-08-19 06:39:44.500,0.125,0.055
2021-08-19 06:39:44.504,0.15,0.055
2021-08-19 06:39:44.508,0.145,0.055
2021-08-19 06:39:44.512,0.15,0.015
2021-08-19 06:39:44.516,0.18,0.02
2021-08-19 06:39:44.520,0.155,0.035
2021-08-19 06:39:44.524,0.165,0.04
2021-08-19 06:39:44.528,0.185,0.065
2021-08-19 06:39:44.532,0.215,0.095
2021-08-19 06:39:44.536,0.22,0.1
2021-08-19 06:39:44.540,0.22,0.09
2021-08-19 06:39:44.544,0.225,0.06
2021-08-19 06:39:44.548,0.22,0.045
2021-08-19 06:39:44.552,0.19,0.045
2021-08-19 06:39:44.556,0.18,0.01
2021-08-19 06:39:44.560,0.165,0.025
2021-08-19 06:39:44.564,0.13,0.04
2021-08-19 06:39:44.568,0.1,0.075
2021-08-19 06:39:44.572,0.055,0.05
2021-08-19 06:39:44.576,0.065,0.035
2021-08-19 06:39:44.580,0.065,0.025
2021-08-19 06:39:44.584,0.07,0.0
2021-08-19 06:39:44.588,0.09,-0.01
2021-08-19 06:39:44.592,0.075,-0.05
2021-08-19 06:39:44.596,0.065,-0.1
2021-08-19 06:39:44.600,0.055,-0.12
2021-08-19 06:39:44.604,0.06,-0.145
2021-08-19 06:39:44.608,0.055,-0.16
2021-08-19 06:39:44.612,0.05,-0.16
2021-08-19 06:39:44.616,0.075,-0.145
2021-08-19 06:39:44.620,0.08,-0.13
2021-08-19 06:39:44.624,0.06,-0.155
2021-08-19 06:39:44.628,0.055,-0.15
2021-08-19 06:39:44.632,0.05,-0.135
2021-08-19 06:39:44.636,0.035,-0.11
2021-08-19 06:39:44.640,0.045,-0.1
2021-08-19 06:39:44.644,0.04,-0.09
2021-08-19 06:39:44.648,0.035,-0.09
2021-08-19 06:39:44.652,0.065,-0.1
2021-08-19 06:39:44.656,0.07,-0.09
2021-08-19 06:39:44.660,0.04,-0.1
2021-08-19 06:39:44.664,0.065,-0.13
2021-08-19 06:39:44.668,0.06,-0.08
2021-08-19 06:39:44.672,0.035,-0.04
2021-08-19 06:39:44.676,0.04,-0.02
2021-08-19 06:39:44.680,0.06,-0.005
2021-08-19 06:39:44.684,0.085,0.035
2021-08-19 06:39:44.688,0.075,0.055
2021-08-19 06:39:44.692,0.085,0.13
2021-08-19 06:39:44.696,0.055,0.18
2021-08-19 06:39:44.700,0.095,0.28
2021-08-19 06:39:44.704,0.125,0.55
2021-08-19 06:39:44.708,0.12,0.945
2021-08-19 06:39:44.712,0.12,1.36
2021-08-19 06:39:44.716,0.185,1.61
2021-08-19 06:39:44.720,0.19,1.725
2021-08-19 06:39:44.724,0.175,1.68
2021-08-19 06:39:44.728,0.16,1.47
2021-08-19 06:39:44.732,0.12,1.155
2021-08-19 06:39:44.736,0.13,0.675
2021-08-19 06:39:44.740,0.105,0.12
2021-08-19 06:39:44.744,-0.01,-0.305
2021-08-19 06:39:44.748,-0.26,-0.365
2021-08-19 06:39:44.752,-0.585,-0.15
2021-08-19 06:39:44.756,-0.89,0.0
2021-08-19 06:39:44.760,-1.09,-0.06
2021-08-19 06:39:44.764,-1.2,-0.19
2021-08-19 06:39:44.768,-1.16,-0.315
2021-08-19 06:39:44.772,-0.915,-0.385
2021-08-19 06:39:44.776,-0.53,-0.395
2021-08-19 06:39:44.780,-0.19,-0.345
2021-08-19 06:39:44.784,-0.01,-0.25
2021-08-19 06:39:44.788,0.025,-0.185
2021-08-19 06:39:44.792,0.02,-0.16
2021-08-19 06:39:44.796,0.015,-0.16
2021-08-19 06:39:44.800,0.01,-0.17
2021-08-19 06:39:44.804,0.015,-0.2
2021-08-19 06:39:44.808,0.055,-0.245
2021-08-19 06:39:44.812,0.095,-0.235
2021-08-19 06:39:44.816,0.145,-0.265
2021-08-19 06:39:44.820,0.17,-0.28
2021-08-19 06:39:44.824,0.19,-0.305
2021-08-19 06:39:44.828,0.18,-0.31
2021-08-19 06:39:44.832,0.155,-0.305
2021-08-19 06:39:44.836,0.175,-0.295
2021-08-19 06:39:44.840,0.19,-0.295
2021-08-19 06:39:44.844,0.195,-0.295
2021-08-19 06:39:44.848,0.19,-0.285
2021-08-19 06:39:44.852,0.18,-0.28
2021-08-19 06:39:44.856,0.18,-0.255
2021-08-19 06:39:44.860,0.19,-0.24
2021-08-19 06:39:44.864,0.185,-0.21
2021-08-19 06:39:44.868,0.18,-0.19
2021-08-19 06:39:44.872,0.185,-0.21
2021-08-19 06:39:44.876,0.19,-0.205
2021-08-19 06:39:44.880,0.185,-0.22
2021-08-19 06:39:44.884,0.21,-0.225
2021-08-19 06:39:44.888,0.215,-0.2
2021-08-19 06:39:44.892,0.215,-0.205
2021-08-19 06:39:44.896,0.22,-0.205
2021-08-19 06:39:44.900,0.215,-0.19
2021-08-19 06:39:44.904,0.215,-0.17
2021-08-19 06:39:44.908,0.2,-0.145
2021-08-19 06:39:44.912,0.22,-0.12
2021-08-19 06:39:44.916,0.235,-0.145
2021-08-19 06:39:44.920,0.23,-0.155
2021-08-19 06:39:44.924,0.245,-0.165
2021-08-19 06:39:44.928,0.29,-0.18
2021-08-19 06:39:44.932,0.285,-0.205
2021-08-19 06:39:44.936,0.28,-0.22
2021-08-19 06:39:44.940,0.3,-0.21
2021-08-19 06:39:44.944,0.3,-0.22
2021-08-19 06:39:44.948,0.295,-0.205
2021-08-19 06:39:44.952,0.3,-0.18
2021-08-19 06:39:44.956,0.305,-0.16
2021-08-19 06:39:44.960,0.325,-0.155
2021-08-19 06:39:44.964,0.375,-0.165
2021-08-19 06:39:44.968,0.375,-0.165
2021-08-19 06:39:44.972,0.32,-0.16
2021-08-19 06:39:44.976,0.28,-0.16
2021-08-19 06:39:44.980,0.255,-0.12
2021-08-19 06:39:44.984,0.25,-0.12
2021-08-19 06:39:44.988,0.24,-0.1
2021-08-19 06:39:44.992,0.21,-0.09
2021-08-19 06:39:44.996,0.17,-0.055
2021-08-19 06:39:45.000,0.17,-0.055
2021-08-19 06:39:45.004,0.135,-0.065
2021-08-19 06:39:45.008,0.14,-0.04
2021-08-19 06:39:45.012,0.14,-0.04
2021-08-19 06:39:45.016,0.155,-0.03
2021-08-19 06:39:45.020,0.16,-0.015
2021-08-19 06:39:45.024,0.17,0.0
2021-08-19 06:39:45.028,0.2,0.005
2021-08-19 06:39:45.032,0.19,0.025
2021-08-19 06:39:45.036,0.18,0.025
2021-08-19 06:39:45.040,0.14,0.04
2021-08-19 06:39:45.044,0.135,0.045
2021-08-19 06:39:45.048,0.155,0.065
2021-08-19 06:39:45.052,0.14,0.065
2021-08-19 06:39:45.056,0.125,0.065
2021-08-19 06:39:45.060,0.125,0.055
2021-08-19 06:39:45.064,0.1,0.08
2021-08-19 06:39:45.068,0.105,0.085
2021-08-19 06:39:45.072,0.09,0.095
2021-08-19 06:39:45.076,0.08,0.085
2021-08-19 06:39:45.080,0.07,0.11
2021-08-19 06:39:45.084,0.09,0.12
2021-08-19 06:39:45.088,0.1,0.125
2021-08-19 06:39:45.092,0.1,0.135
2021-08-19 06:39:45.096,0.11,0.125
2021-08-19 06:39:45.100,0.14,0.135
2021-08-19 06:39:45.104,0.15,0.15
2021-08-19 06:39:45.108,0.135,0.125
2021-08-19 06:39:45.112,0.145,0.145
2021-08-19 06:39:45.116,0.175,0.14
2021-08-19 06:39:45.120,0.17,0.15
2021-08-19 06:39:45.124,0.2,0.13
2021-08-19 06:39:45.128,0.2,0.125
2021-08-19 06:39:45.132,0.2,0.125
2021-08-19 06:39:45.136,0.195,0.11
2021-08-19 06:39:45.140,0.175,0.06
2021-08-19 06:39:45.144,0.2,0.025
2021-08-19 06:39:45.148,0.205,0.015
2021-08-19 06:39:45.152,0.205,0.015
2021-08-19 06:39:45.156,0.215,0.04
2021-08-19 06:39:45.160,0.24,0.075
2021-08-19 06:39:45.164,0.24,0.115
2021-08-19 06:39:45.168,0.23,0.125
2021-08-19 06:39:45.172,0.25,0.115
2021-08-19 06:39:45.176,0.285,0.095
2021-08-19 06:39:45.180,0.3,0.08
2021-08-19 06:39:45.184,0.28,0.06
2021-08-19 06:39:45.188,0.205,0.07
2021-08-19 06:39:45.192,0.2,0.07
2021-08-19 06:39:45.196,0.205,0.105
2021-08-19 06:39:45.200,0.205,0.12
2021-08-19 06:39:45.204,0.22,0.135
2021-08-19 06:39:45.208,0.23,0.11
2021-08-19 06:39:45.212,0.23,0.115
2021-08-19 06:39:45.216,0.24,0.135
2021-08-19 06:39:45.220,0.22,0.11
2021-08-19 06:39:45.224,0.235,0.12
2021-08-19 06:39:45.228,0.215,0.11
2021-08-19 06:39:45.232,0.21,0.085
2021-08-19 06:39:45.236,0.24,0.06
2021-08-19 06:39:45.240,0.19,0.065
2021-08-19 06:39:45.244,0.17,0.055
2021-08-19 06:39:45.248,0.17,0.04
2021-08-19 06:39:45.252,0.165,0.015
2021-08-19 06:39:45.256,0.155,0.025
2021-08-19 06:39:45.260,0.135,0.015
2021-08-19 06:39:45.264,0.13,0.035
2021-08-19 06:39:45.268,0.15,0.03
2021-08-19 06:39:45.272,0.125,0.02
2021-08-19 06:39:45.276,0.18,0.035
2021-08-19 06:39:45.280,0.155,0.04
2021-08-19 06:39:45.284,0.145,0.015
2021-08-19 06:39:45.288,0.12,0.01
2021-08-19 06:39:45.292,0.125,-0.01
2021-08-19 06:39:45.296,0.15,-0.04
2021-08-19 06:39:45.300,0.165,-0.045
2021-08-19 06:39:45.304,0.16,0.005
2021-08-19 06:39:45.308,0.145,0.05
2021-08-19 06:39:45.312,0.145,0.13
2021-08-19 06:39:45.316,0.14,0.13
2021-08-19 06:39:45.320,0.155,0.14
2021-08-19 06:39:45.324,0.205,0.13
2021-08-19 06:39:45.328,0.22,0.13
2021-08-19 06:39:45.332,0.23,0.1
2021-08-19 06:39:45.336,0.18,0.075
2021-08-19 06:39:45.340,0.135,0.085
2021-08-19 06:39:45.344,0.135,0.07
2021-08-19 06:39:45.348,0.12,0.06
2021-08-19 06:39:45.352,0.155,0.05
2021-08-19 06:39:45.356,0.16,0.015
2021-08-19 06:39:45.360,0.165,0.005
2021-08-19 06:39:45.364,0.185,0.015
2021-08-19 06:39:45.368,0.195,0.05
2021-08-19 06:39:45.372,0.2,0.07
2021-08-19 06:39:45.376,0.22,0.095
2021-08-19 06:39:45.380,0.205,0.1
2021-08-19 06:39:45.384,0.195,0.07
2021-08-19 06:39:45.388,0.225,0.055
2021-08-19 06:39:45.392,0.245,0.04
2021-08-19 06:39:45.396,0.25,0.04
2021-08-19 06:39:45.400,0.23,0.015
2021-08-19 06:39:45.404,0.18,0.015
2021-08-19 06:39:45.408,0.15,-0.025
2021-08-19 06:39:45.412,0.175,-0.04
2021-08-19 06:39:45.416,0.175,-0.105
2021-08-19 06:39:45.420,0.175,-0.11
2021-08-19 06:39:45.424,0.17,-0.045
2021-08-19 06:39:45.428,0.15,0.04
2021-08-19 06:39:45.432,0.17,0.115
2021-08-19 06:39:45.436,0.185,0.195
2021-08-19 06:39:45.440,0.24,0.255
2021-08-19 06:39:45.444,0.37,0.265
2021-08-19 06:39:45.448,0.45,0.265
2021-08-19 06:39:45.452,0.38,0.225
2021-08-19 06:39:45.456,0.245,0.19
2021-08-19 06:39:45.460,0.135,0.205
2021-08-19 06:39:45.464,0.125,0.2
2021-08-19 06:39:45.468,0.11,0.165
2021-08-19 06:39:45.472,0.115,0.175
2021-08-19 06:39:45.476,0.13,0.17
2021-08-19 06:39:45.480,0.125,0.215
2021-08-19 06:39:45.484,0.13,0.24
2021-08-19 06:39:45.488,0.125,0.32
2021-08-19 06:39:45.492,0.145,0.45
2021-08-19 06:39:45.496,0.13,0.71
2021-08-19 06:39:45.500,0.135,1.11
2021-08-19 06:39:45.504,0.15,1.5
2021-08-19 06:39:45.508,0.155,1.75
2021-08-19 06:39:45.512,0.195,1.79
2021-08-19 06:39:45.516,0.19,1.68
2021-08-19 06:39:45.520,0.155,1.425
2021-08-19 06:39:45.524,0.135,1.05
2021-08-19 06:39:45.528,0.115,0.535
2021-08-19 06:39:45.532,0.06,-0.03
2021-08-19 06:39:45.536,-0.1,-0.41
2021-08-19 06:39:45.540,-0.36,-0.42
2021-08-19 06:39:45.544,-0.7,-0.2
2021-08-19 06:39:45.548,-1.0,-0.035
2021-08-19 06:39:45.552,-1.195,-0.04
2021-08-19 06:39:45.556,-1.265,-0.065
2021-08-19 06:39:45.560,-1.19,-0.105
2021-08-19 06:39:45.564,-0.845,-0.16
2021-08-19 06:39:45.568,-0.38,-0.195
2021-08-19 06:39:45.572,-0.015,-0.185
2021-08-19 06:39:45.576,0.12,-0.135
2021-08-19 06:39:45.580,0.12,-0.085
2021-08-19 06:39:45.584,0.045,-0.08
2021-08-19 06:39:45.588,0.03,-0.065
2021-08-19 06:39:45.592,0.045,-0.08
2021-08-19 06:39:45.596,0.055,-0.095
2021-08-19 06:39:45.600,0.1,-0.11
2021-08-19 06:39:45.604,0.15,-0.135
2021-08-19 06:39:45.608,0.185,-0.14
2021-08-19 06:39:45.612,0.2,-0.095
2021-08-19 06:39:45.616,0.195,-0.12
2021-08-19 06:39:45.620,0.19,-0.155
2021-08-19 06:39:45.624,0.215,-0.16
2021-08-19 06:39:45.628,0.21,-0.13
2021-08-19 06:39:45.632,0.23,-0.1
2021-08-19 06:39:45.636,0.23,-0.06
2021-08-19 06:39:45.640,0.225,-0.02
2021-08-19 06:39:45.644,0.24,0.0
2021-08-19 06:39:45.648,0.325,0.01
2021-08-19 06:39:45.652,0.405,0.025
2021-08-19 06:39:45.656,0.405,0.005
2021-08-19 06:39:45.660,0.285,0.04
2021-08-19 06:39:45.664,0.225,0.055
2021-08-19 06:39:45.668,0.22,0.065
2021-08-19 06:39:45.672,0.28,0.06
2021-08-19 06:39:45.676,0.315,0.075
2021-08-19 06:39:45.680,0.34,0.05
2021-08-19 06:39:45.684,0.37,0.055
2021-08-19 06:39:45.688,0.365,0.03
2021-08-19 06:39:45.692,0.34,0.02
2021-08-19 06:39:45.696,0.335,0.0
2021-08-19 06:39:45.700,0.315,-0.05
2021-08-19 06:39:45.704,0.27,-0.095
2021-08-19 06:39:45.708,0.25,-0.115
2021-08-19 06:39:45.712,0.245,-0.075
2021-08-19 06:39:45.716,0.23,-0.06
2021-08-19 06:39:45.720,0.2,-0.06
2021-08-19 06:39:45.724,0.21,-0.085
2021-08-19 06:39:45.728,0.225,-0.09
2021-08-19 06:39:45.732,0.23,-0.11
2021-08-19 06:39:45.736,0.23,-0.13
2021-08-19 06:39:45.740,0.27,-0.15
2021-08-19 06:39:45.744,0.245,-0.16
2021-08-19 06:39:45.748,0.255,-0.165
2021-08-19 06:39:45.752,0.265,-0.155
2021-08-19 06:39:45.756,0.275,-0.155
2021-08-19 06:39:45.760,0.285,-0.165
2021-08-19 06:39:45.764,0.28,-0.185
2021-08-19 06:39:45.768,0.295,-0.19
2021-08-19 06:39:45.772,0.345,-0.155
2021-08-19 06:39:45.776,0.345,-0.12
2021-08-19 06:39:45.780,0.35,-0.105
2021-08-19 06:39:45.784,0.32,-0.095
2021-08-19 06:39:45.788,0.31,-0.11
2021-08-19 06:39:45.792,0.315,-0.125
2021-08-19 06:39:45.796,0.31,-0.125
2021-08-19 06:39:45.800,0.295,-0.095
2021-08-19 06:39:45.804,0.33,-0.05
2021-08-19 06:39:45.808,0.31,-0.03
2021-08-19 06:39:45.812,0.305,-0.02
2021-08-19 06:39:45.816,0.3,-0.03
2021-08-19 06:39:45.820,0.315,-0.015
2021-08-19 06:39:45.824,0.32,-0.005
2021-08-19 06:39:45.828,0.3,-0.02
2021-08-19 06:39:45.832,0.28,0.0
2021-08-19 06:39:45.836,0.275,0.03
2021-08-19 06:39:45.840,0.26,0.03
2021-08-19 06:39:45.844,0.255,0.08
2021-08-19 06:39:45.848,0.26,0.105
2021-08-19 06:39:45.852,0.245,0.155
2021-08-19 06:39:45.856,0.275,0.16
2021-08-19 06:39:45.860,0.295,0.18
2021-08-19 06:39:45.864,0.29,0.185
2021-08-19 06:39:45.868,0.285,0.235
2021-08-19 06:39:45.872,0.285,0.265
2021-08-19 06:39:45.876,0.305,0.29
2021-08-19 06:39:45.880,0.29,0.33
2021-08-19 06:39:45.884,0.27,0.315
2021-08-19 06:39:45.888,0.3,0.295
2021-08-19 06:39:45.892,0.35,0.275
2021-08-19 06:39:45.896,0.345,0.275
2021-08-19 06:39:45.900,0.36,0.255
2021-08-19 06:39:45.904,0.39,0.255
2021-08-19 06:39:45.908,0.4,0.24
2021-08-19 06:39:45.912,0.39,0.255
2021-08-19 06:39:45.916,0.38,0.245
2021-08-19 06:39:45.920,0.355,0.26
2021-08-19 06:39:45.924,0.31,0.25
2021-08-19 06:39:45.928,0.275,0.24
2021-08-19 06:39:45.932,0.22,0.255
2021-08-19 06:39:45.936,0.215,0.27
2021-08-19 06:39:45.940,0.215,0.28
2021-08-19 06:39:45.944,0.24,0.25
2021-08-19 06:39:45.948,0.255,0.265
2021-08-19 06:39:45.952,0.28,0.26
2021-08-19 06:39:45.956,0.29,0.22
2021-08-19 06:39:45.960,0.285,0.17
2021-08-19 06:39:45.964,0.29,0.135
2021-08-19 06:39:45.968,0.3,0.115
2021-08-19 06:39:45.972,0.315,0.12
2021-08-19 06:39:45.976,0.325,0.115
2021-08-19 06:39:45.980,0.295,0.125
2021-08-19 06:39:45.984,0.3,0.12
2021-08-19 06:39:45.988,0.29,0.1
2021-08-19 06:39:45.992,0.285,0.09
2021-08-19 06:39:45.996,0.285,0.16
2021-08-19 06:39:46.000,0.305,0.195
2021-08-19 06:39:46.004,0.31,0.185
2021-08-19 06:39:46.008,0.31,0.185
2021-08-19 06:39:46.012,0.305,0.19
2021-08-19 06:39:46.016,0.3,0.21
2021-08-19 06:39:46.020,0.31,0.225
2021-08-19 06:39:46.024,0.315,0.26
2021-08-19 06:39:46.028,0.335,0.335
2021-08-19 06:39:46.032,0.305,0.455
2021-08-19 06:39:46.036,0.33,0.72
2021-08-19 06:39:46.040,0.33,1.105
2021-08-19 06:39:46.044,0.315,1.545
2021-08-19 06:39:46.048,0.335,1.87
2021-08-19 06:39:46.052,0.4,1.955
2021-08-19 06:39:46.056,0.405,1.89
2021-08-19 06:39:46.060,0.335,1.685
2021-08-19 06:39:46.064,0.305,1.36
2021-08-19 06:39:46.068,0.305,0.9
2021-08-19 06:39:46.072,0.3,0.36
2021-08-19 06:39:46.076,0.2,0.025
2021-08-19 06:39:46.080,-0.045,0.025
2021-08-19 06:39:46.084,-0.36,0.19
2021-08-19 06:39:46.088,-0.63,0.25
2021-08-19 06:39:46.092,-0.825,0.15
2021-08-19 06:39:46.096,-0.885,0.05
2021-08-19 06:39:46.100,-0.76,-0.025
2021-08-19 06:39:46.104,-0.395,-0.06
2021-08-19 06:39:46.108,0.04,-0.05
2021-08-19 06:39:46.112,0.36,-0.005
2021-08-19 06:39:46.116,0.46,0.075
2021-08-19 06:39:46.120,0.465,0.105
2021-08-19 06:39:46.124,0.405,0.1
2021-08-19 06:39:46.128,0.38,0.07
2021-08-19 06:39:46.132,0.35,0.065
2021-08-19 06:39:46.136,0.34,0.03
2021-08-19 06:39:46.140,0.365,0.015
2021-08-19 06:39:46.144,0.43,0.005
2021-08-19 06:39:46.148,0.475,0.02
2021-08-19 06:39:46.152,0.475,0.05
2021-08-19 06:39:46.156,0.505,0.075
2021-08-19 06:39:46.160,0.52,0.08
2021-08-19 06:39:46.164,0.535,0.085
2021-08-19 06:39:46.168,0.57,0.135
2021-08-19 06:39:46.172,0.605,0.185
2021-08-19 06:39:46.176,0.615,0.185
2021-08-19 06:39:46.180,0.66,0.195
2021-08-19 06:39:46.184,0.68,0.185
2021-08-19 06:39:46.188,0.685,0.18
2021-08-19 06:39:46.192,0.68,0.17
2021-08-19 06:39:46.196,0.65,0.16
2021-08-19 06:39:46.200,0.66,0.16
2021-08-19 06:39:46.204,0.645,0.15
2021-08-19 06:39:46.208,0.64,0.13
2021-08-19 06:39:46.212,0.65,0.145
2021-08-19 06:39:46.216,0.655,0.15
2021-08-19 06:39:46.220,0.67,0.165
2021-08-19 06:39:46.224,0.685,0.185
2021-08-19 06:39:46.228,0.7,0.2
2021-08-19 06:39:46.232,0.695,0.16
2021-08-19 06:39:46.236,0.67,0.16
2021-08-19 06:39:46.240,0.695,0.17
2021-08-19 06:39:46.244,0.72,0.195
2021-08-19 06:39:46.248,0.745,0.155
2021-08-19 06:39:46.252,0.755,0.14
2021-08-19 06:39:46.256,0.75,0.12
2021-08-19 06:39:46.260,0.74,0.085
2021-08-19 06:39:46.264,0.715,0.07
2021-08-19 06:39:46.268,0.715,0.105
2021-08-19 06:39:46.272,0.725,0.15
2021-08-19 06:39:46.276,0.715,0.18
2021-08-19 06:39:46.280,0.735,0.165
2021-08-19 06:39:46.284,0.73,0.17
2021-08-19 06:39:46.288,0.755,0.18
2021-08-19 06:39:46.292,0.75,0.23
2021-08-19 06:39:46.296,0.765,0.26
2021-08-19 06:39:46.300,0.79,0.275
2021-08-19 06:39:46.304,0.83,0.29
2021-08-19 06:39:46.308,0.835,0.32
2021-08-19 06:39:46.312,0.85,0.345
2021-08-19 06:39:46.316,0.845,0.375
2021-08-19 06:39:46.320,0.86,0.35
2021-08-19 06:39:46.324,0.88,0.325
2021-08-19 06:39:46.328,0.91,0.365
2021-08-19 06:39:46.332,0.9,0.41
2021-08-19 06:39:46.336,0.895,0.43
2021-08-19 06:39:46.340,0.9,0.42
2021-08-19 06:39:46.344,0.875,0.455
2021-08-19 06:39:46.348,0.865,0.47
2021-08-19 06:39:46.352,0.805,0.48
2021-08-19 06:39:46.356,0.79,0.5
2021-08-19 06:39:46.360,0.735,0.485
2021-08-19 06:39:46.364,0.715,0.505
2021-08-19 06:39:46.368,0.685,0.515
2021-08-19 06:39:46.372,0.695,0.465
2021-08-19 06:39:46.376,0.725,0.42
2021-08-19 06:39:46.380,0.745,0.36
2021-08-19 06:39:46.384,0.745,0.315
2021-08-19 06:39:46.388,0.745,0.345
2021-08-19 06:39:46.392,0.73,0.37
2021-08-19 06:39:46.396,0.73,0.425
2021-08-19 06:39:46.400,0.745,0.455
2021-08-19 06:39:46.404,0.78,0.5
2021-08-19 06:39:46.408,0.795,0.49
2021-08-19 06:39:46.412,0.83,0.465
2021-08-19 06:39:46.416,0.815,0.42
2021-08-19 06:39:46.420,0.745,0.405
2021-08-19 06:39:46.424,0.71,0.4
2021-08-19 06:39:46.428,0.705,0.38
2021-08-19 06:39:46.432,0.715,0.375
2021-08-19 06:39:46.436,0.67,0.35
2021-08-19 06:39:46.440,0.645,0.32
2021-08-19 06:39:46.444,0.625,0.32
2021-08-19 06:39:46.448,0.675,0.365
2021-08-19 06:39:46.452,0.69,0.365
2021-08-19 06:39:46.456,0.74,0.355
2021-08-19 06:39:46.460,0.765,0.39
2021-08-19 06:39:46.464,0.775,0.335
2021-08-19 06:39:46.468,0.75,0.305
2021-08-19 06:39:46.472,0.735,0.34
2021-08-19 06:39:46.476,0.74,0.325
2021-08-19 06:39:46.480,0.775,0.34
2021-08-19 06:39:46.484,0.79,0.335
2021-08-19 06:39:46.488,0.83,0.345
2021-08-19 06:39:46.492,0.835,0.355
2021-08-19 06:39:46.496,0.815,0.365
2021-08-19 06:39:46.500,0.795,0.36
2021-08-19 06:39:46.504,0.775,0.37
2021-08-19 06:39:46.508,0.785,0.36
2021-08-19 06:39:46.512,0.815,0.325
2021-08-19 06:39:46.516,0.83,0.345
2021-08-19 06:39:46.520,0.88,0.36
2021-08-19 06:39:46.524,0.9,0.395
2021-08-19 06:39:46.528,0.91,0.41
2021-08-19 06:39:46.532,0.935,0.445
2021-08-19 06:39:46.536,0.995,0.46
2021-08-19 06:39:46.540,1.04,0.48
2021-08-19 06:39:46.544,1.07,0.47
2021-08-19 06:39:46.548,1.09,0.465
2021-08-19 06:39:46.552,1.14,0.465
2021-08-19 06:39:46.556,1.165,0.455
2021-08-19 06:39:46.560,1.185,0.445
2021-08-19 06:39:46.564,1.19,0.455
2021-08-19 06:39:46.568,1.135,0.47
2021-08-19 06:39:46.572,1.11,0.46
2021-08-19 06:39:46.576,1.065,0.43
2021-08-19 06:39:46.580,1.015,0.39
2021-08-19 06:39:46.584,0.975,0.34
2021-08-19 06:39:46.588,0.98,0.31
2021-08-19 06:39:46.592,1.005,0.3
2021-08-19 06:39:46.596,1.03,0.275
2021-08-19 06:39:46.600,1.065,0.27
2021-08-19 06:39:46.604,1.055,0.305
2021-08-19 06:39:46.608,1.08,0.345
2021-08-19 06:39:46.612,1.065,0.32
2021-08-19 06:39:46.616,1.06,0.295
2021-08-19 06:39:46.620,1.08,0.265
2021-08-19 06:39:46.624,1.11,0.265
2021-08-19 06:39:46.628,1.125,0.32
2021-08-19 06:39:46.632,1.12,0.36
2021-08-19 06:39:46.636,1.085,0.315
2021-08-19 06:39:46.640,1.07,0.29
2021-08-19 06:39:46.644,1.055,0.265
2021-08-19 06:39:46.648,1.09,0.26
2021-08-19 06:39:46.652,1.14,0.25
2021-08-19 06:39:46.656,1.165,0.24
2021-08-19 06:39:46.660,1.13,0.25
2021-08-19 06:39:46.664,1.105,0.27
2021-08-19 06:39:46.668,1.08,0.265
2021-08-19 06:39:46.672,1.115,0.285
2021-08-19 06:39:46.676,1.13,0.31
2021-08-19 06:39:46.680,1.15,0.285
2021-08-19 06:39:46.684,1.18,0.245
2021-08-19 06:39:46.688,1.245,0.2
2021-08-19 06:39:46.692,1.265,0.205
2021-08-19 06:39:46.696,1.27,0.21
2021-08-19 06:39:46.700,1.265,0.215
2021-08-19 06:39:46.704,1.275,0.26
2021-08-19 06:39:46.708,1.26,0.245
2021-08-19 06:39:46.712,1.27,0.25
2021-08-19 06:39:46.716,1.275,0.26
2021-08-19 06:39:46.720,1.295,0.28
2021-08-19 06:39:46.724,1.28,0.315
2021-08-19 06:39:46.728,1.275,0.34
2021-08-19 06:39:46.732,1.24,0.395
2021-08-19 06:39:46.736,1.235,0.38
2021-08-19 06:39:46.740,1.24,0.36
2021-08-19 06:39:46.744,1.215,0.355
2021-08-19 06:39:46.748,1.235,0.305
2021-08-19 06:39:46.752,1.275,0.3
2021-08-19 06:39:46.756,1.305,0.32
2021-08-19 06:39:46.760,1.345,0.35
2021-08-19 06:39:46.764,1.335,0.39
2021-08-19 06:39:46.768,1.335,0.455
2021-08-19 06:39:46.772,1.325,0.495
2021-08-19 06:39:46.776,1.33,0.525
2021-08-19 06:39:46.780,1.39,0.55
2021-08-19 06:39:46.784,1.44,0.55
2021-08-19 06:39:46.788,1.465,0.615
2021-08-19 06:39:46.792,1.465,0.665
2021-08-19 06:39:46.796,1.485,0.75
2021-08-19 06:39:46.800,1.465,0.86
2021-08-19 06:39:46.804,1.45,1.105
2021-08-19 06:39:46.808,1.42,1.465
2021-08-19 06:39:46.812,1.37,1.86
2021-08-19 06:39:46.824,1.315,1.845
2021-08-19 06:39:46.828,1.275,1.64
2021-08-19 06:39:46.832,1.3,1.285
2021-08-19 06:39:46.836,1.255,0.755
2021-08-19 06:39:46.840,1.19,0.185
2021-08-19 06:39:46.844,0.975,-0.14
2021-08-19 06:39:46.848,0.665,-0.115
2021-08-19 06:39:46.852,0.295,0.12
2021-08-19 06:39:46.856,0.015,0.24
2021-08-19 06:39:46.860,-0.135,0.195
2021-08-19 06:39:46.864,-0.155,0.11
2021-08-19 06:39:46.868,-0.015,0.07
2021-08-19 06:39:46.872,0.33,0.04
2021-08-19 06:39:46.876,0.725,0.03
2021-08-19 06:39:46.880,0.98,0.035
2021-08-19 06:39:46.884,1.12,0.105
2021-08-19 06:39:46.888,1.11,0.165
2021-08-19 06:39:46.892,1.12,0.195
2021-08-19 06:39:46.896,1.12,0.2
2021-08-19 06:39:46.900,1.155,0.18
2021-08-19 06:39:46.904,1.205,0.2
2021-08-19 06:39:46.908,1.21,0.205
2021-08-19 06:39:46.912,1.225,0.19
2021-08-19 06:39:46.916,1.2,0.155
2021-08-19 06:39:46.920,1.23,0.11
2021-08-19 06:39:46.924,1.255,0.15
2021-08-19 06:39:46.928,1.285,0.17
2021-08-19 06:39:46.932,1.31,0.185
2021-08-19 06:39:46.936,1.335,0.21
2021-08-19 06:39:46.940,1.35,0.215
2021-08-19 06:39:46.944,1.3,0.205
2021-08-19 06:39:46.948,1.27,0.185
2021-08-19 06:39:46.952,1.255,0.185
2021-08-19 06:39:46.956,1.265,0.2
2021-08-19 06:39:46.960,1.29,0.175
2021-08-19 06:39:46.964,1.31,0.105
2021-08-19 06:39:46.968,1.31,0.13
2021-08-19 06:39:46.972,1.33,0.195
2021-08-19 06:39:46.976,1.265,0.255
2021-08-19 06:39:46.980,1.25,0.28
2021-08-19 06:39:46.984,1.275,0.245
2021-08-19 06:39:46.988,1.32,0.25
2021-08-19 06:39:46.992,1.325,0.24
2021-08-19 06:39:46.996,1.345,0.19
2021-08-19 06:39:47.000,1.36,0.185
2021-08-19 06:39:47.004,1.355,0.195
2021-08-19 06:39:47.008,1.4,0.24
2021-08-19 06:39:47.012,1.39,0.255
2021-08-19 06:39:47.016,1.415,0.25
2021-08-19 06:39:47.020,1.43,0.23
2021-08-19 06:39:47.024,1.445,0.2
2021-08-19 06:39:47.028,1.48,0.16
2021-08-19 06:39:47.032,1.48,0.16
2021-08-19 06:39:47.036,1.46,0.19
2021-08-19 06:39:47.040,1.395,0.18
2021-08-19 06:39:47.044,1.32,0.175
2021-08-19 06:39:47.048,1.26,0.18
2021-08-19 06:39:47.052,1.24,0.2
2021-08-19 06:39:47.056,1.215,0.2
2021-08-19 06:39:47.060,1.24,0.19
2021-08-19 06:39:47.064,1.24,0.185
2021-08-19 06:39:47.068,1.265,0.165
2021-08-19 06:39:47.072,1.275,0.17
2021-08-19 06:39:47.076,1.235,0.165
2021-08-19 06:39:47.080,1.215,0.135
2021-08-19 06:39:47.084,1.21,0.1
2021-08-19 06:39:47.088,1.235,0.08
2021-08-19 06:39:47.092,1.25,0.095
2021-08-19 06:39:47.096,1.25,0.125
2021-08-19 06:39:47.100,1.255,0.14
2021-08-19 06:39:47.104,1.27,0.13
2021-08-19 06:39:47.108,1.265,0.135
2021-08-19 06:39:47.112,1.245,0.155
2021-08-19 06:39:47.116,1.24,0.195
2021-08-19 06:39:47.120,1.205,0.24
2021-08-19 06:39:47.124,1.215,0.27
2021-08-19 06:39:47.128,1.185,0.265
2021-08-19 06:39:47.132,1.18,0.275
2021-08-19 06:39:47.136,1.17,0.29
2021-08-19 06:39:47.140,1.18,0.3
2021-08-19 06:39:47.144,1.195,0.355
2021-08-19 06:39:47.148,1.205,0.395
2021-08-19 06:39:47.152,1.23,0.42
2021-08-19 06:39:47.156,1.175,0.455
2021-08-19 06:39:47.160,1.175,0.465
2021-08-19 06:39:47.164,1.17,0.445
2021-08-19 06:39:47.168,1.16,0.435
2021-08-19 06:39:47.172,1.145,0.445
2021-08-19 06:39:47.176,1.19,0.46
2021-08-19 06:39:47.180,1.19,0.455
2021-08-19 06:39:47.184,1.21,0.465
2021-08-19 06:39:47.188,1.18,0.505
2021-08-19 06:39:47.192,1.18,0.49
2021-08-19 06:39:47.196,1.16,0.485
2021-08-19 06:39:47.200,1.16,0.485
2021-08-19 06:39:47.204,1.18,0.45
2021-08-19 06:39:47.208,1.23,0.43
2021-08-19 06:39:47.212,1.235,0.435
2021-08-19 06:39:47.216,1.25,0.42
2021-08-19 06:39:47.220,1.26,0.42
2021-08-19 06:39:47.224,1.27,0.41
2021-08-19 06:39:47.228,1.29,0.4
2021-08-19 06:39:47.232,1.275,0.43
2021-08-19 06:39:47.236,1.315,0.435
2021-08-19 06:39:47.240,1.34,0.415
2021-08-19 06:39:47.244,1.365,0.425
2021-08-19 06:39:47.248,1.355,0.43
2021-08-19 06:39:47.252,1.355,0.445
2021-08-19 06:39:47.256,1.265,0.44
2021-08-19 06:39:47.260,1.17,0.43
2021-08-19 06:39:47.264,1.085,0.425
2021-08-19 06:39:47.268,1.06,0.425
2021-08-19 06:39:47.272,1.095,0.425
2021-08-19 06:39:47.276,1.105,0.395
2021-08-19 06:39:47.280,1.115,0.37
2021-08-19 06:39:47.284,1.135,0.315
2021-08-19 06:39:47.288,1.11,0.31
2021-08-19 06:39:47.292,1.075,0.315
2021-08-19 06:39:47.296,1.04,0.34
2021-08-19 06:39:47.300,1.035,0.345
2021-08-19 06:39:47.304,1.055,0.315
2021-08-19 06:39:47.308,1.065,0.285
2021-08-19 06:39:47.312,1.07,0.285
2021-08-19 06:39:47.316,1.1,0.265
2021-08-19 06:39:47.320,1.06,0.25
2021-08-19 06:39:47.324,1.02,0.25
2021-08-19 06:39:47.328,1.0,0.265
2021-08-19 06:39:47.332,1.01,0.27
2021-08-19 06:39:47.336,1.04,0.24
2021-08-19 06:39:47.340,1.055,0.2
2021-08-19 06:39:47.344,1.03,0.195
2021-08-19 06:39:47.348,1.045,0.22
2021-08-19 06:39:47.352,1.045,0.255
2021-08-19 06:39:47.356,1.035,0.28
2021-08-19 06:39:47.360,1.005,0.285
2021-08-19 06:39:47.364,0.98,0.285
2021-08-19 06:39:47.368,0.995,0.295
2021-08-19 06:39:47.372,1.03,0.325
2021-08-19 06:39:47.376,1.035,0.36
2021-08-19 06:39:47.380,1.045,0.44
2021-08-19 06:39:47.384,1.045,0.57
2021-08-19 06:39:47.388,1.035,0.805
2021-08-19 06:39:47.392,1.03,1.145
2021-08-19 06:39:47.396,1.0,1.56
2021-08-19 06:39:47.400,1.035,1.88
2021-08-19 06:39:47.412,1.035,1.995
2021-08-19 06:39:47.416,1.01,1.77
2021-08-19 06:39:47.420,1.005,1.38
2021-08-19 06:39:47.424,1.005,0.815
2021-08-19 06:39:47.428,0.95,0.34
2021-08-19 06:39:47.432,0.785,0.165
2021-08-19 06:39:47.436,0.52,0.28
2021-08-19 06:39:47.440,0.22,0.435
2021-08-19 06:39:47.444,-0.04,0.37
2021-08-19 06:39:47.448,-0.21,0.23
2021-08-19 06:39:47.452,-0.215,0.13
2021-08-19 06:39:47.456,-0.015,0.04
2021-08-19 06:39:47.460,0.39,-0.01
2021-08-19 06:39:47.464,0.785,-0.005
2021-08-19 06:39:47.468,0.97,0.07
2021-08-19 06:39:47.472,0.965,0.105
2021-08-19 06:39:47.476,0.945,0.11
2021-08-19 06:39:47.480,0.94,0.1
2021-08-19 06:39:47.484,0.925,0.06
2021-08-19 06:39:47.488,0.92,0.04
2021-08-19 06:39:47.492,0.935,0.055
2021-08-19 06:39:47.496,0.98,0.055
2021-08-19 06:39:47.500,0.995,0.045
2021-08-19 06:39:47.504,1.025,0.015
2021-08-19 06:39:47.508,1.04,0.0
2021-08-19 06:39:47.512,1.04,-0.025
2021-08-19 06:39:47.516,1.025,-0.005
2021-08-19 06:39:47.520,1.035,0.05
2021-08-19 06:39:47.524,1.005,0.025
2021-08-19 06:39:47.528,1.03,0.01
2021-08-19 06:39:47.532,1.01,0.0
2021-08-19 06:39:47.536,1.015,0.0
2021-08-19 06:39:47.540,0.995,-0.015
2021-08-19 06:39:47.544,0.99,-0.015
2021-08-19 06:39:47.548,0.96,-0.015
2021-08-19 06:39:47.552,0.95,0.025
2021-08-19 06:39:47.556,0.98,0.085
2021-08-19 06:39:47.560,0.98,0.09
2021-08-19 06:39:47.564,0.98,0.12
2021-08-19 06:39:47.568,1.0,0.135
2021-08-19 06:39:47.572,0.98,0.155
2021-08-19 06:39:47.576,0.98,0.145
2021-08-19 06:39:47.580,0.975,0.145
2021-08-19 06:39:47.584,0.975,0.14
2021-08-19 06:39:47.588,0.97,0.15
2021-08-19 06:39:47.592,0.975,0.165
2021-08-19 06:39:47.596,0.97,0.19
2021-08-19 06:39:47.600,0.965,0.19
2021-08-19 06:39:47.604,0.96,0.205
2021-08-19 06:39:47.608,0.975,0.21
2021-08-19 06:39:47.612,0.96,0.205
2021-08-19 06:39:47.616,0.985,0.185
2021-08-19 06:39:47.620,0.975,0.185
2021-08-19 06:39:47.624,0.98,0.17
2021-08-19 06:39:47.628,0.96,0.13
2021-08-19 06:39:47.632,0.96,0.155
2021-08-19 06:39:47.636,0.97,0.155
2021-08-19 06:39:47.640,0.975,0.165
2021-08-19 06:39:47.644,0.99,0.185
2021-08-19 06:39:47.648,0.985,0.165
2021-08-19 06:39:47.652,0.955,0.185
2021-08-19 06:39:47.656,1.005,0.19
2021-08-19 06:39:47.660,0.995,0.23
2021-08-19 06:39:47.664,1.015,0.235
2021-08-19 06:39:47.668,1.04,0.245
2021-08-19 06:39:47.672,1.035,0.225
2021-08-19 06:39:47.676,1.045,0.18
2021-08-19 06:39:47.680,1.045,0.185
2021-08-19 06:39:47.684,1.02,0.19
2021-08-19 06:39:47.688,0.965,0.17
2021-08-19 06:39:47.692,0.93,0.16
2021-08-19 06:39:47.696,0.89,0.17
2021-08-19 06:39:47.700,0.83,0.155
2021-08-19 06:39:47.704,0.835,0.21
2021-08-19 06:39:47.708,0.81,0.235
2021-08-19 06:39:47.712,0.815,0.25
2021-08-19 06:39:47.716,0.82,0.225
2021-08-19 06:39:47.720,0.82,0.25
2021-08-19 06:39:47.724,0.79,0.245
2021-08-19 06:39:47.728,0.78,0.195
2021-08-19 06:39:47.732,0.755,0.175
2021-08-19 06:39:47.736,0.75,0.17
2021-08-19 06:39:47.740,0.77,0.15
2021-08-19 06:39:47.744,0.75,0.17
2021-08-19 06:39:47.748,0.74,0.14
2021-08-19 06:39:47.752,0.77,0.125
2021-08-19 06:39:47.756,0.75,0.15
2021-08-19 06:39:47.760,0.715,0.18
2021-08-19 06:39:47.764,0.7,0.155
2021-08-19 06:39:47.768,0.695,0.13
2021-08-19 06:39:47.772,0.685,0.12
2021-08-19 06:39:47.776,0.685,0.1
2021-08-19 06:39:47.780,0.705,0.115
2021-08-19 06:39:47.784,0.705,0.11
2021-08-19 06:39:47.788,0.73,0.12
2021-08-19 06:39:47.792,0.735,0.11
2021-08-19 06:39:47.796,0.745,0.11
2021-08-19 06:39:47.800,0.755,0.1
2021-08-19 06:39:47.804,0.7,0.055
2021-08-19 06:39:47.808,0.715,0.01
2021-08-19 06:39:47.812,0.755,-0.005
2021-08-19 06:39:47.816,0.745,0.005
2021-08-19 06:39:47.820,0.735,0.015
2021-08-19 06:39:47.824,0.72,0.055
2021-08-19 06:39:47.828,0.76,0.085
2021-08-19 06:39:47.832,0.735,0.175
2021-08-19 06:39:47.836,0.765,0.28
2021-08-19 06:39:47.840,0.735,0.44
2021-08-19 06:39:47.844,0.735,0.725
2021-08-19 06:39:47.848,0.745,1.11
2021-08-19 06:39:47.852,0.735,1.49
2021-08-19 06:39:47.856,0.76,1.72
2021-08-19 06:39:47.860,0.805,1.71
2021-08-19 06:39:47.864,0.81,1.565
2021-08-19 06:39:47.868,0.775,1.325
2021-08-19 06:39:47.872,0.74,0.98
2021-08-19 06:39:47.876,0.75,0.54
2021-08-19 06:39:47.880,0.735,0.035
2021-08-19 06:39:47.884,0.625,-0.305
2021-08-19 06:39:47.888,0.41,-0.27
2021-08-19 06:39:47.892,0.06,-0.035
2021-08-19 06:39:47.896,-0.26,0.11
2021-08-19 06:39:47.900,-0.495,0.065
2021-08-19 06:39:47.904,-0.62,-0.05
2021-08-19 06:39:47.908,-0.6,-0.14
2021-08-19 06:39:47.912,-0.38,-0.26
2021-08-19 06:39:47.916,0.03,-0.315
2021-08-19 06:39:47.920,0.395,-0.295
2021-08-19 06:39:47.924,0.555,-0.245
2021-08-19 06:39:47.928,0.585,-0.195
2021-08-19 06:39:47.932,0.575,-0.185
2021-08-19 06:39:47.936,0.59,-0.21
2021-08-19 06:39:47.940,0.595,-0.25
2021-08-19 06:39:47.944,0.595,-0.25
2021-08-19 06:39:47.948,0.59,-0.245
2021-08-19 06:39:47.952,0.64,-0.235
2021-08-19 06:39:47.956,0.66,-0.24
2021-08-19 06:39:47.960,0.67,-0.25
2021-08-19 06:39:47.964,0.69,-0.26
2021-08-19 06:39:47.968,0.685,-0.25
2021-08-19 06:39:47.972,0.69,-0.225
2021-08-19 06:39:47.976,0.685,-0.19
2021-08-19 06:39:47.980,0.72,-0.19
2021-08-19 06:39:47.984,0.705,-0.25
2021-08-19 06:39:47.988,0.705,-0.255
2021-08-19 06:39:47.992,0.695,-0.215
2021-08-19 06:39:47.996,0.71,-0.16
2021-08-19 06:39:48.000,0.72,-0.175
2021-08-19 06:39:48.004,0.7,-0.18
2021-08-19 06:39:48.008,0.705,-0.205
2021-08-19 06:39:48.012,0.705,-0.205
2021-08-19 06:39:48.016,0.7,-0.18
2021-08-19 06:39:48.020,0.705,-0.16
2021-08-19 06:39:48.024,0.71,-0.14
2021-08-19 06:39:48.028,0.715,-0.14
2021-08-19 06:39:48.032,0.715,-0.13
2021-08-19 06:39:48.036,0.705,-0.135
2021-08-19 06:39:48.040,0.725,-0.155
2021-08-19 06:39:48.044,0.735,-0.155
2021-08-19 06:39:48.048,0.775,-0.185
2021-08-19 06:39:48.052,0.76,-0.195
2021-08-19 06:39:48.056,0.755,-0.185
2021-08-19 06:39:48.060,0.725,-0.15
2021-08-19 06:39:48.064,0.745,-0.155
2021-08-19 06:39:48.068,0.765,-0.15
2021-08-19 06:39:48.072,0.78,-0.155
2021-08-19 06:39:48.076,0.755,-0.135
2021-08-19 06:39:48.080,0.76,-0.12
2021-08-19 06:39:48.084,0.75,-0.11
2021-08-19 06:39:48.088,0.72,-0.125
2021-08-19 06:39:48.092,0.71,-0.14
2021-08-19 06:39:48.096,0.695,-0.15
2021-08-19 06:39:48.100,0.715,-0.16
2021-08-19 06:39:48.104,0.73,-0.16
2021-08-19 06:39:48.108,0.775,-0.13
2021-08-19 06:39:48.112,0.795,-0.075
2021-08-19 06:39:48.116,0.81,-0.065
2021-08-19 06:39:48.120,0.82,-0.045
2021-08-19 06:39:48.124,0.82,-0.065
2021-08-19 06:39:48.128,0.82,-0.08
2021-08-19 06:39:48.132,0.79,-0.1
2021-08-19 06:39:48.136,0.76,-0.15
2021-08-19 06:39:48.140,0.74,-0.215
2021-08-19 06:39:48.144,0.7,-0.245
2021-08-19 06:39:48.148,0.66,-0.25
2021-08-19 06:39:48.152,0.635,-0.225
2021-08-19 06:39:48.156,0.64,-0.2
2021-08-19 06:39:48.160,0.62,-0.16
2021-08-19 06:39:48.164,0.61,-0.16
2021-08-19 06:39:48.168,0.595,-0.15
2021-08-19 06:39:48.172,0.58,-0.16
2021-08-19 06:39:48.176,0.595,-0.195
2021-08-19 06:39:48.180,0.575,-0.175
2021-08-19 06:39:48.184,0.575,-0.155
2021-08-19 06:39:48.188,0.56,-0.135
2021-08-19 06:39:48.192,0.545,-0.145
2021-08-19 06:39:48.196,0.55,-0.15
2021-08-19 06:39:48.200,0.535,-0.18
2021-08-19 06:39:48.204,0.545,-0.2
2021-08-19 06:39:48.208,0.58,-0.225
2021-08-19 06:39:48.212,0.595,-0.235
2021-08-19 06:39:48.216,0.6,-0.22
2021-08-19 06:39:48.220,0.58,-0.18
2021-08-19 06:39:48.224,0.595,-0.165
2021-08-19 06:39:48.228,0.62,-0.175
2021-08-19 06:39:48.232,0.605,-0.18
2021-08-19 06:39:48.236,0.6,-0.205
2021-08-19 06:39:48.240,0.59,-0.205
2021-08-19 06:39:48.244,0.575,-0.19
2021-08-19 06:39:48.248,0.575,-0.18
2021-08-19 06:39:48.252,0.595,-0.2
2021-08-19 06:39:48.256,0.6,-0.215
2021-08-19 06:39:48.260,0.615,-0.22
2021-08-19 06:39:48.264,0.59,-0.22
2021-08-19 06:39:48.268,0.605,-0.24
2021-08-19 06:39:48.272,0.59,-0.26
2021-08-19 06:39:48.276,0.565,-0.27
2021-08-19 06:39:48.280,0.585,-0.28
2021-08-19 06:39:48.284,0.59,-0.295
2021-08-19 06:39:48.288,0.585,-0.3
2021-08-19 06:39:48.292,0.57,-0.28
2021-08-19 06:39:48.296,0.54,-0.245
2021-08-19 06:39:48.300,0.53,-0.205
2021-08-19 06:39:48.304,0.565,-0.16
2021-08-19 06:39:48.308,0.555,-0.155
2021-08-19 06:39:48.312,0.56,-0.17
2021-08-19 06:39:48.316,0.545,-0.195
2021-08-19 06:39:48.320,0.515,-0.235
2021-08-19 06:39:48.324,0.525,-0.255
2021-08-19 06:39:48.328,0.545,-0.255
2021-08-19 06:39:48.332,0.58,-0.21
2021-08-19 06:39:48.336,0.605,-0.18
2021-08-19 06:39:48.340,0.645,-0.175
2021-08-19 06:39:48.344,0.67,-0.2
2021-08-19 06:39:48.348,0.66,-0.19
2021-08-19 06:39:48.352,0.69,-0.215
2021-08-19 06:39:48.356,0.69,-0.23
2021-08-19 06:39:48.360,0.715,-0.215
2021-08-19 06:39:48.364,0.695,-0.215
2021-08-19 06:39:48.368,0.665,-0.21
2021-08-19 06:39:48.372,0.575,-0.245
2021-08-19 06:39:48.376,0.49,-0.315
2021-08-19 06:39:48.380,0.455,-0.34
2021-08-19 06:39:48.384,0.455,-0.33
2021-08-19 06:39:48.388,0.435,-0.285
2021-08-19 06:39:48.392,0.47,-0.28
2021-08-19 06:39:48.396,0.47,-0.25
2021-08-19 06:39:48.400,0.48,-0.275
2021-08-19 06:39:48.404,0.455,-0.275
2021-08-19 06:39:48.408,0.435,-0.275
2021-08-19 06:39:48.412,0.44,-0.28
2021-08-19 06:39:48.416,0.44,-0.305
2021-08-19 06:39:48.420,0.485,-0.31
2021-08-19 06:39:48.424,0.47,-0.315
2021-08-19 06:39:48.428,0.445,-0.29
2021-08-19 06:39:48.432,0.455,-0.28
2021-08-19 06:39:48.436,0.455,-0.275
2021-08-19 06:39:48.440,0.45,-0.285
2021-08-19 06:39:48.444,0.485,-0.345
2021-08-19 06:39:48.448,0.495,-0.375
2021-08-19 06:39:48.452,0.485,-0.38
2021-08-19 06:39:48.456,0.47,-0.35
2021-08-19 06:39:48.460,0.455,-0.35
2021-08-19 06:39:48.464,0.47,-0.325
2021-08-19 06:39:48.468,0.455,-0.345
2021-08-19 06:39:48.472,0.465,-0.335
2021-08-19 06:39:48.476,0.445,-0.345
2021-08-19 06:39:48.480,0.435,-0.365
2021-08-19 06:39:48.484,0.46,-0.375
2021-08-19 06:39:48.488,0.455,-0.4
2021-08-19 06:39:48.492,0.44,-0.385
2021-08-19 06:39:48.496,0.45,-0.39
2021-08-19 06:39:48.500,0.48,-0.395
2021-08-19 06:39:48.504,0.485,-0.385
2021-08-19 06:39:48.508,0.475,-0.39
2021-08-19 06:39:48.512,0.445,-0.365
2021-08-19 06:39:48.516,0.435,-0.41
2021-08-19 06:39:48.520,0.43,-0.42
2021-08-19 06:39:48.524,0.415,-0.405
2021-08-19 06:39:48.528,0.41,-0.36
2021-08-19 06:39:48.532,0.43,-0.31
2021-08-19 06:39:48.536,0.42,-0.31
2021-08-19 06:39:48.540,0.43,-0.315
2021-08-19 06:39:48.544,0.43,-0.32
2021-08-19 06:39:48.548,0.43,-0.32
2021-08-19 06:39:48.552,0.425,-0.34
2021-08-19 06:39:48.556,0.44,-0.34
2021-08-19 06:39:48.560,0.475,-0.34
2021-08-19 06:39:48.564,0.495,-0.335
2021-08-19 06:39:48.568,0.515,-0.315
2021-08-19 06:39:48.572,0.53,-0.3
2021-08-19 06:39:48.576,0.485,-0.26
2021-08-19 06:39:48.580,0.475,-0.22
2021-08-19 06:39:48.584,0.475,-0.215
2021-08-19 06:39:48.588,0.49,-0.25
2021-08-19 06:39:48.592,0.515,-0.265
2021-08-19 06:39:48.596,0.555,-0.275
2021-08-19 06:39:48.600,0.58,-0.25
2021-08-19 06:39:48.604,0.6,-0.27
2021-08-19 06:39:48.608,0.63,-0.245
2021-08-19 06:39:48.612,0.645,-0.21
2021-08-19 06:39:48.616,0.61,-0.215
2021-08-19 06:39:48.620,0.54,-0.18
2021-08-19 06:39:48.624,0.495,-0.2
2021-08-19 06:39:48.628,0.46,-0.21
2021-08-19 06:39:48.632,0.39,-0.23
2021-08-19 06:39:48.636,0.395,-0.25
2021-08-19 06:39:48.640,0.395,-0.26
2021-08-19 06:39:48.644,0.375,-0.25
2021-08-19 06:39:48.648,0.375,-0.255
2021-08-19 06:39:48.652,0.365,-0.275
2021-08-19 06:39:48.656,0.385,-0.27
2021-08-19 06:39:48.660,0.375,-0.265
2021-08-19 06:39:48.664,0.35,-0.32
2021-08-19 06:39:48.668,0.365,-0.385
2021-08-19 06:39:48.672,0.365,-0.41
2021-08-19 06:39:48.676,0.35,-0.4
2021-08-19 06:39:48.680,0.325,-0.36
2021-08-19 06:39:48.684,0.35,-0.32
2021-08-19 06:39:48.688,0.335,-0.335
2021-08-19 06:39:48.692,0.365,-0.345
2021-08-19 06:39:48.696,0.35,-0.36
2021-08-19 06:39:48.700,0.31,-0.355
2021-08-19 06:39:48.704,0.335,-0.36
2021-08-19 06:39:48.708,0.315,-0.35
2021-08-19 06:39:48.712,0.315,-0.365
2021-08-19 06:39:48.716,0.31,-0.375
2021-08-19 06:39:48.720,0.325,-0.395
2021-08-19 06:39:48.724,0.33,-0.395
2021-08-19 06:39:48.728,0.355,-0.395
2021-08-19 06:39:48.732,0.355,-0.375
2021-08-19 06:39:48.736,0.36,-0.37
2021-08-19 06:39:48.740,0.345,-0.41
2021-08-19 06:39:48.744,0.36,-0.43
2021-08-19 06:39:48.748,0.34,-0.42
2021-08-19 06:39:48.752,0.34,-0.42
2021-08-19 06:39:48.756,0.315,-0.375
2021-08-19 06:39:48.760,0.305,-0.335
2021-08-19 06:39:48.764,0.32,-0.335
2021-08-19 06:39:48.768,0.33,-0.355
2021-08-19 06:39:48.772,0.315,-0.36
2021-08-19 06:39:48.776,0.295,-0.355
2021-08-19 06:39:48.780,0.335,-0.34
2021-08-19 06:39:48.784,0.34,-0.32
2021-08-19 06:39:48.788,0.38,-0.28
2021-08-19 06:39:48.792,0.38,-0.245
2021-08-19 06:39:48.796,0.395,-0.13
2021-08-19 06:39:48.800,0.405,0.045
2021-08-19 06:39:48.804,0.415,0.345
2021-08-19 06:39:48.808,0.42,0.665
2021-08-19 06:39:48.812,0.415,0.87
2021-08-19 06:39:48.816,0.415,0.92
2021-08-19 06:39:48.820,0.445,0.865
2021-08-19 06:39:48.824,0.42,0.74
2021-08-19 06:39:48.828,0.435,0.5
2021-08-19 06:39:48.832,0.44,0.15
2021-08-19 06:39:48.836,0.415,-0.285
2021-08-19 06:39:48.840,0.32,-0.705
2021-08-19 06:39:48.844,0.105,-0.84
2021-08-19 06:39:48.848,-0.265,-0.625
2021-08-19 06:39:48.852,-0.59,-0.33
2021-08-19 06:39:48.856,-0.87,-0.28
2021-08-19 06:39:48.860,-1.02,-0.415
2021-08-19 06:39:48.864,-1.06,-0.545
2021-08-19 06:39:48.868,-0.91,-0.66
2021-08-19 06:39:48.872,-0.515,-0.71
2021-08-19 06:39:48.876,-0.135,-0.705
2021-08-19 06:39:48.880,0.15,-0.61
2021-08-19 06:39:48.884,0.23,-0.55
2021-08-19 06:39:48.888,0.205,-0.555
2021-08-19 06:39:48.892,0.22,-0.57
2021-08-19 06:39:48.896,0.19,-0.595
2021-08-19 06:39:48.900,0.16,-0.55
2021-08-19 06:39:48.904,0.195,-0.565
2021-08-19 06:39:48.908,0.24,-0.545
2021-08-19 06:39:48.912,0.265,-0.6
2021-08-19 06:39:48.916,0.305,-0.66
2021-08-19 06:39:48.920,0.33,-0.69
2021-08-19 06:39:48.924,0.345,-0.67
2021-08-19 06:39:48.928,0.335,-0.6
2021-08-19 06:39:48.932,0.325,-0.605
2021-08-19 06:39:48.936,0.33,-0.59
2021-08-19 06:39:48.940,0.325,-0.565
2021-08-19 06:39:48.944,0.315,-0.58
2021-08-19 06:39:48.948,0.315,-0.575
2021-08-19 06:39:48.952,0.36,-0.58
2021-08-19 06:39:48.956,0.36,-0.56
2021-08-19 06:39:48.960,0.355,-0.58
2021-08-19 06:39:48.964,0.35,-0.58
2021-08-19 06:39:48.968,0.345,-0.595
2021-08-19 06:39:48.972,0.36,-0.595
2021-08-19 06:39:48.976,0.36,-0.59
2021-08-19 06:39:48.980,0.36,-0.58
2021-08-19 06:39:48.984,0.375,-0.585
2021-08-19 06:39:48.988,0.385,-0.59
2021-08-19 06:39:48.992,0.38,-0.565
2021-08-19 06:39:48.996,0.355,-0.545
2021-08-19 06:39:49.000,0.36,-0.505
2021-08-19 06:39:49.004,0.385,-0.505
2021-08-19 06:39:49.008,0.39,-0.53
2021-08-19 06:39:49.012,0.375,-0.535
2021-08-19 06:39:49.016,0.38,-0.565
2021-08-19 06:39:49.020,0.375,-0.545
2021-08-19 06:39:49.024,0.395,-0.56
2021-08-19 06:39:49.028,0.395,-0.545
2021-08-19 06:39:49.032,0.455,-0.505
2021-08-19 06:39:49.036,0.465,-0.47
2021-08-19 06:39:49.040,0.455,-0.46
2021-08-19 06:39:49.044,0.455,-0.435
2021-08-19 06:39:49.048,0.435,-0.425
2021-08-19 06:39:49.052,0.46,-0.39
2021-08-19 06:39:49.056,0.485,-0.35
2021-08-19 06:39:49.060,0.51,-0.34
2021-08-19 06:39:49.064,0.51,-0.365
2021-08-19 06:39:49.068,0.48,-0.375
2021-08-19 06:39:49.072,0.49,-0.375
2021-08-19 06:39:49.076,0.495,-0.35
2021-08-19 06:39:49.080,0.49,-0.31
2021-08-19 06:39:49.084,0.515,-0.31
2021-08-19 06:39:49.088,0.5,-0.35
2021-08-19 06:39:49.092,0.435,-0.35
2021-08-19 06:39:49.096,0.425,-0.37
2021-08-19 06:39:49.100,0.36,-0.35
2021-08-19 06:39:49.104,0.33,-0.325
2021-08-19 06:39:49.108,0.3,-0.33
2021-08-19 06:39:49.112,0.27,-0.325
2021-08-19 06:39:49.116,0.27,-0.31
2021-08-19 06:39:49.120,0.265,-0.315
2021-08-19 06:39:49.124,0.25,-0.315
2021-08-19 06:39:49.128,0.265,-0.285
2021-08-19 06:39:49.132,0.26,-0.27
2021-08-19 06:39:49.136,0.23,-0.27
2021-08-19 06:39:49.140,0.2,-0.29
2021-08-19 06:39:49.144,0.16,-0.255
2021-08-19 06:39:49.148,0.16,-0.15
2021-08-19 06:39:49.152,0.17,-0.125
2021-08-19 06:39:49.156,0.155,-0.1
2021-08-19 06:39:49.160,0.175,-0.095
2021-08-19 06:39:49.164,0.17,-0.135
2021-08-19 06:39:49.168,0.15,-0.13
2021-08-19 06:39:49.172,0.165,-0.105
2021-08-19 06:39:49.176,0.18,-0.09
2021-08-19 06:39:49.180,0.205,-0.07
2021-08-19 06:39:49.184,0.18,-0.06
2021-08-19 06:39:49.188,0.18,-0.04
2021-08-19 06:39:49.192,0.175,-0.035
2021-08-19 06:39:49.196,0.19,-0.035
2021-08-19 06:39:49.200,0.19,-0.06
2021-08-19 06:39:49.204,0.21,-0.085
2021-08-19 06:39:49.208,0.225,-0.16
2021-08-19 06:39:49.212,0.215,-0.19
2021-08-19 06:39:49.216,0.235,-0.205
2021-08-19 06:39:49.220,0.205,-0.175
2021-08-19 06:39:49.224,0.225,-0.13
2021-08-19 06:39:49.228,0.215,-0.145
2021-08-19 06:39:49.232,0.215,-0.145
2021-08-19 06:39:49.236,0.185,-0.22
2021-08-19 06:39:49.240,0.215,-0.255
2021-08-19 06:39:49.244,0.205,-0.26
2021-08-19 06:39:49.248,0.215,-0.275
2021-08-19 06:39:49.252,0.215,-0.295
2021-08-19 06:39:49.256,0.24,-0.31
2021-08-19 06:39:49.260,0.255,-0.31
2021-08-19 06:39:49.264,0.27,-0.3
2021-08-19 06:39:49.268,0.275,-0.29
2021-08-19 06:39:49.272,0.28,-0.28
2021-08-19 06:39:49.276,0.285,-0.285
2021-08-19 06:39:49.280,0.315,-0.28
2021-08-19 06:39:49.284,0.33,-0.315
2021-08-19 06:39:49.288,0.37,-0.32
2021-08-19 06:39:49.292,0.385,-0.32
2021-08-19 06:39:49.296,0.37,-0.34
2021-08-19 06:39:49.300,0.38,-0.355
2021-08-19 06:39:49.304,0.35,-0.375
2021-08-19 06:39:49.308,0.33,-0.36
2021-08-19 06:39:49.312,0.29,-0.37
2021-08-19 06:39:49.316,0.25,-0.36
2021-08-19 06:39:49.320,0.195,-0.375
2021-08-19 06:39:49.324,0.15,-0.415
2021-08-19 06:39:49.328,0.13,-0.43
2021-08-19 06:39:49.332,0.125,-0.44
2021-08-19 06:39:49.336,0.11,-0.455
2021-08-19 06:39:49.340,0.105,-0.45
2021-08-19 06:39:49.344,0.09,-0.45
2021-08-19 06:39:49.348,0.085,-0.46
2021-08-19 06:39:49.352,0.07,-0.455
2021-08-19 06:39:49.356,0.065,-0.47
2021-08-19 06:39:49.360,0.08,-0.47
2021-08-19 06:39:49.364,0.1,-0.475
2021-08-19 06:39:49.368,0.06,-0.48
2021-08-19 06:39:49.372,0.045,-0.47
2021-08-19 06:39:49.376,0.055,-0.45
2021-08-19 06:39:49.380,0.07,-0.46
2021-08-19 06:39:49.384,0.07,-0.485
2021-08-19 06:39:49.388,0.07,-0.49
2021-08-19 06:39:49.392,0.1,-0.52
2021-08-19 06:39:49.396,0.085,-0.515
2021-08-19 06:39:49.400,0.085,-0.485
2021-08-19 06:39:49.404,0.085,-0.49
2021-08-19 06:39:49.408,0.085,-0.485
2021-08-19 06:39:49.412,0.11,-0.505
2021-08-19 06:39:49.416,0.105,-0.515
2021-08-19 06:39:49.420,0.105,-0.52
2021-08-19 06:39:49.424,0.085,-0.51
2021-08-19 06:39:49.428,0.1,-0.485
2021-08-19 06:39:49.432,0.11,-0.515
2021-08-19 06:39:49.436,0.11,-0.495
2021-08-19 06:39:49.440,0.115,-0.515
2021-08-19 06:39:49.444,0.085,-0.49
2021-08-19 06:39:49.448,0.095,-0.48
2021-08-19 06:39:49.452,0.1,-0.49
2021-08-19 06:39:49.456,0.12,-0.515
2021-08-19 06:39:49.460,0.08,-0.535
2021-08-19 06:39:49.464,0.095,-0.565
2021-08-19 06:39:49.468,0.08,-0.575
2021-08-19 06:39:49.472,0.095,-0.57
2021-08-19 06:39:49.476,0.08,-0.55
2021-08-19 06:39:49.480,0.11,-0.52
2021-08-19 06:39:49.484,0.155,-0.495
2021-08-19 06:39:49.488,0.165,-0.525
2021-08-19 06:39:49.492,0.16,-0.52
2021-08-19 06:39:49.496,0.13,-0.545
2021-08-19 06:39:49.500,0.14,-0.52
2021-08-19 06:39:49.504,0.185,-0.505
2021-08-19 06:39:49.508,0.19,-0.46
2021-08-19 06:39:49.512,0.23,-0.445
2021-08-19 06:39:49.516,0.215,-0.43
2021-08-19 06:39:49.520,0.235,-0.41
2021-08-19 06:39:49.524,0.235,-0.395
2021-08-19 06:39:49.528,0.245,-0.4
2021-08-19 06:39:49.532,0.23,-0.41
2021-08-19 06:39:49.536,0.225,-0.43
2021-08-19 06:39:49.540,0.19,-0.44
2021-08-19 06:39:49.544,0.13,-0.43
2021-08-19 06:39:49.548,0.04,-0.395
2021-08-19 06:39:49.552,0.035,-0.41
2021-08-19 06:39:49.556,0.0,-0.42
2021-08-19 06:39:49.560,0.0,-0.445
2021-08-19 06:39:49.564,0.005,-0.45
2021-08-19 06:39:49.568,0.005,-0.475
2021-08-19 06:39:49.572,-0.015,-0.47
2021-08-19 06:39:49.576,-0.015,-0.48
2021-08-19 06:39:49.580,-0.025,-0.455
2021-08-19 06:39:49.584,-0.025,-0.465
2021-08-19 06:39:49.588,-0.01,-0.46
2021-08-19 06:39:49.592,-0.015,-0.455
2021-08-19 06:39:49.596,-0.015,-0.44
2021-08-19 06:39:49.600,-0.015,-0.455
2021-08-19 06:39:49.604,0.0,-0.425
2021-08-19 06:39:49.608,-0.025,-0.43
2021-08-19 06:39:49.612,0.0,-0.43
2021-08-19 06:39:49.616,0.0,-0.445
2021-08-19 06:39:49.620,0.0,-0.44
2021-08-19 06:39:49.624,-0.02,-0.455
2021-08-19 06:39:49.628,0.0,-0.44
2021-08-19 06:39:49.632,0.0,-0.43
2021-08-19 06:39:49.636,0.015,-0.45
2021-08-19 06:39:49.640,0.005,-0.465
2021-08-19 06:39:49.644,0.02,-0.465
2021-08-19 06:39:49.648,0.015,-0.46
2021-08-19 06:39:49.652,0.025,-0.48
2021-08-19 06:39:49.656,0.01,-0.485
2021-08-19 06:39:49.660,-0.005,-0.495
2021-08-19 06:39:49.664,-0.01,-0.485
2021-08-19 06:39:49.668,0.015,-0.48
2021-08-19 06:39:49.672,-0.01,-0.44
2021-08-19 06:39:49.676,-0.005,-0.33
2021-08-19 06:39:49.680,0.015,-0.24
2021-08-19 06:39:49.684,0.0,-0.12
2021-08-19 06:39:49.688,0.005,0.075
2021-08-19 06:39:49.692,0.03,0.4
2021-08-19 06:39:49.696,0.035,0.735
2021-08-19 06:39:49.700,0.04,0.915
2021-08-19 06:39:49.704,0.065,0.935
2021-08-19 06:39:49.708,0.09,0.8
2021-08-19 06:39:49.712,0.06,0.525
2021-08-19 06:39:49.716,0.065,0.17
2021-08-19 06:39:49.720,0.04,-0.285
2021-08-19 06:39:49.724,0.005,-0.76
2021-08-19 06:39:49.728,-0.18,-1.03
2021-08-19 06:39:49.732,-0.435,-0.94
2021-08-19 06:39:49.736,-0.77,-0.665
2021-08-19 06:39:49.740,-1.07,-0.49
2021-08-19 06:39:49.744,-1.275,-0.54
2021-08-19 06:39:49.748,-1.345,-0.655
2021-08-19 06:39:49.752,-1.22,-0.695
2021-08-19 06:39:49.756,-0.915,-0.765
2021-08-19 06:39:49.760,-0.49,-0.815
2021-08-19 06:39:49.764,-0.175,-0.835
2021-08-19 06:39:49.768,-0.015,-0.76
2021-08-19 06:39:49.772,-0.065,-0.675
2021-08-19 06:39:49.776,-0.11,-0.63
2021-08-19 06:39:49.780,-0.14,-0.63
2021-08-19 06:39:49.784,-0.155,-0.615
2021-08-19 06:39:49.788,-0.155,-0.615
2021-08-19 06:39:49.792,-0.125,-0.62
2021-08-19 06:39:49.796,-0.085,-0.635
2021-08-19 06:39:49.800,-0.045,-0.63
2021-08-19 06:39:49.804,-0.025,-0.63
2021-08-19 06:39:49.808,0.0,-0.62
2021-08-19 06:39:49.812,0.015,-0.63
2021-08-19 06:39:49.816,0.025,-0.64
2021-08-19 06:39:49.820,0.025,-0.64
2021-08-19 06:39:49.824,0.01,-0.665
2021-08-19 06:39:49.828,0.02,-0.64
2021-08-19 06:39:49.832,0.045,-0.64
2021-08-19 06:39:49.836,0.06,-0.6
2021-08-19 06:39:49.840,0.075,-0.635
2021-08-19 06:39:49.844,0.06,-0.635
2021-08-19 06:39:49.848,0.06,-0.665
2021-08-19 06:39:49.852,0.055,-0.665
2021-08-19 06:39:49.856,0.07,-0.685
2021-08-19 06:39:49.860,0.065,-0.69
2021-08-19 06:39:49.864,0.06,-0.705
2021-08-19 06:39:49.868,0.1,-0.715
2021-08-19 06:39:49.872,0.1,-0.765
2021-08-19 06:39:49.876,0.08,-0.765
2021-08-19 06:39:49.880,0.065,-0.775
2021-08-19 06:39:49.884,0.105,-0.765
2021-08-19 06:39:49.888,0.095,-0.73
2021-08-19 06:39:49.892,0.08,-0.74
2021-08-19 06:39:49.896,0.08,-0.75
2021-08-19 06:39:49.900,0.075,-0.745
2021-08-19 06:39:49.904,0.1,-0.735
2021-08-19 06:39:49.908,0.105,-0.73
2021-08-19 06:39:49.912,0.12,-0.72
2021-08-19 06:39:49.916,0.15,-0.68
2021-08-19 06:39:49.920,0.13,-0.675
2021-08-19 06:39:49.924,0.12,-0.67
2021-08-19 06:39:49.928,0.12,-0.695
2021-08-19 06:39:49.932,0.125,-0.685
2021-08-19 06:39:49.936,0.12,-0.68
2021-08-19 06:39:49.940,0.155,-0.665
2021-08-19 06:39:49.944,0.15,-0.665
2021-08-19 06:39:49.948,0.15,-0.66
2021-08-19 06:39:49.952,0.14,-0.655
2021-08-19 06:39:49.956,0.145,-0.665
2021-08-19 06:39:49.960,0.155,-0.675
2021-08-19 06:39:49.964,0.175,-0.67
2021-08-19 06:39:49.968,0.195,-0.645
2021-08-19 06:39:49.972,0.195,-0.63
2021-08-19 06:39:49.976,0.195,-0.6
2021-08-19 06:39:49.980,0.19,-0.585
2021-08-19 06:39:49.984,0.175,-0.58
2021-08-19 06:39:49.988,0.165,-0.545
2021-08-19 06:39:49.992,0.11,-0.51
2021-08-19 06:39:49.996,0.065,-0.49
2021-08-19 06:39:50.000,0.02,-0.48
2021-08-19 06:39:50.004,-0.035,-0.46
2021-08-19 06:39:50.008,-0.06,-0.44
2021-08-19 06:39:50.012,-0.09,-0.415
2021-08-19 06:39:50.016,-0.1,-0.38
2021-08-19 06:39:50.020,-0.095,-0.35
2021-08-19 06:39:50.024,-0.075,-0.32
2021-08-19 06:39:50.028,-0.055,-0.31
2021-08-19 06:39:50.032,-0.075,-0.33
2021-08-19 06:39:50.036,-0.08,-0.325
2021-08-19 06:39:50.040,-0.08,-0.31
2021-08-19 06:39:50.044,-0.07,-0.305
2021-08-19 06:39:50.048,-0.08,-0.33
2021-08-19 06:39:50.052,-0.07,-0.33
2021-08-19 06:39:50.056,-0.08,-0.34
2021-08-19 06:39:50.060,-0.065,-0.32
2021-08-19 06:39:50.064,-0.06,-0.295
2021-08-19 06:39:50.068,-0.065,-0.295
2021-08-19 06:39:50.072,-0.055,-0.3
2021-08-19 06:39:50.076,-0.075,-0.335
2021-08-19 06:39:50.080,-0.065,-0.355
2021-08-19 06:39:50.084,-0.045,-0.38
2021-08-19 06:39:50.088,-0.065,-0.38
2021-08-19 06:39:50.092,-0.05,-0.42
2021-08-19 06:39:50.096,-0.04,-0.415
2021-08-19 06:39:50.100,-0.05,-0.44
2021-08-19 06:39:50.104,-0.045,-0.445
2021-08-19 06:39:50.108,-0.035,-0.475
2021-08-19 06:39:50.112,-0.025,-0.415
2021-08-19 06:39:50.116,-0.04,-0.415
2021-08-19 06:39:50.120,-0.06,-0.395
2021-08-19 06:39:50.124,-0.04,-0.4
2021-08-19 06:39:50.128,-0.06,-0.42
2021-08-19 06:39:50.132,-0.045,-0.44
2021-08-19 06:39:50.136,-0.045,-0.465
2021-08-19 06:39:50.140,-0.02,-0.46
2021-08-19 06:39:50.144,-0.005,-0.44
2021-08-19 06:39:50.148,0.025,-0.435
2021-08-19 06:39:50.152,0.04,-0.46
2021-08-19 06:39:50.156,0.015,-0.495
2021-08-19 06:39:50.160,0.07,-0.505
2021-08-19 06:39:50.164,0.035,-0.515
2021-08-19 06:39:50.168,0.025,-0.5
2021-08-19 06:39:50.172,0.025,-0.495
2021-08-19 06:39:50.176,0.025,-0.49
2021-08-19 06:39:50.180,0.015,-0.515
2021-08-19 06:39:50.184,0.01,-0.525
2021-08-19 06:39:50.188,-0.005,-0.52
2021-08-19 06:39:50.192,0.015,-0.51
2021-08-19 06:39:50.196,0.0,-0.49
2021-08-19 06:39:50.200,0.0,-0.47
2021-08-19 06:39:50.204,-0.02,-0.465
2021-08-19 06:39:50.208,-0.015,-0.42
2021-08-19 06:39:50.212,0.0,-0.375
2021-08-19 06:39:50.216,-0.005,-0.325
2021-08-19 06:39:50.220,0.0,-0.3
2021-08-19 06:39:50.224,0.01,-0.28
2021-08-19 06:39:50.228,0.015,-0.29
2021-08-19 06:39:50.232,0.07,-0.265
2021-08-19 06:39:50.236,0.075,-0.285
2021-08-19 06:39:50.240,0.09,-0.25
2021-08-19 06:39:50.244,0.075,-0.29
2021-08-19 06:39:50.248,0.035,-0.335
2021-08-19 06:39:50.252,-0.03,-0.335
2021-08-19 06:39:50.256,-0.085,-0.36
2021-08-19 06:39:50.260,-0.09,-0.405
2021-08-19 06:39:50.264,-0.1,-0.435
2021-08-19 06:39:50.268,-0.1,-0.44
2021-08-19 06:39:50.272,-0.105,-0.46
2021-08-19 06:39:50.276,-0.09,-0.48
2021-08-19 06:39:50.280,-0.09,-0.49
2021-08-19 06:39:50.284,-0.095,-0.515
2021-08-19 06:39:50.288,-0.1,-0.515
2021-08-19 06:39:50.292,-0.11,-0.545
2021-08-19 06:39:50.296,-0.075,-0.52
2021-08-19 06:39:50.300,-0.095,-0.54
2021-08-19 06:39:50.304,-0.105,-0.56
2021-08-19 06:39:50.308,-0.11,-0.565
2021-08-19 06:39:50.312,-0.1,-0.545
2021-08-19 06:39:50.316,-0.11,-0.555
2021-08-19 06:39:50.320,-0.115,-0.585
2021-08-19 06:39:50.324,-0.115,-0.575
2021-08-19 06:39:50.328,-0.13,-0.585
2021-08-19 06:39:50.332,-0.14,-0.62
2021-08-19 06:39:50.336,-0.13,-0.63
2021-08-19 06:39:50.340,-0.105,-0.605
2021-08-19 06:39:50.344,-0.125,-0.565
2021-08-19 06:39:50.348,-0.125,-0.54
2021-08-19 06:39:50.352,-0.145,-0.505
2021-08-19 06:39:50.356,-0.125,-0.535
2021-08-19 06:39:50.360,-0.125,-0.555
2021-08-19 06:39:50.364,-0.15,-0.555
2021-08-19 06:39:50.368,-0.135,-0.555
2021-08-19 06:39:50.372,-0.115,-0.555
2021-08-19 06:39:50.376,-0.105,-0.545
2021-08-19 06:39:50.380,-0.09,-0.555
2021-08-19 06:39:50.384,-0.09,-0.545
2021-08-19 06:39:50.388,-0.085,-0.55
2021-08-19 06:39:50.392,-0.1,-0.565
2021-08-19 06:39:50.396,-0.11,-0.57
2021-08-19 06:39:50.400,-0.125,-0.52
2021-08-19 06:39:50.404,-0.12,-0.425
2021-08-19 06:39:50.408,-0.125,-0.35
2021-08-19 06:39:50.412,-0.12,-0.16
2021-08-19 06:39:50.416,-0.105,0.18
2021-08-19 06:39:50.420,-0.145,0.57
2021-08-19 06:39:50.424,-0.115,0.915
2021-08-19 06:39:50.428,-0.085,1.13
2021-08-19 06:39:50.432,-0.06,1.1
2021-08-19 06:39:50.436,-0.08,0.905
2021-08-19 06:39:50.440,-0.1,0.61
2021-08-19 06:39:50.444,-0.1,0.15
2021-08-19 06:39:50.448,-0.115,-0.42
2021-08-19 06:39:50.452,-0.205,-0.92
2021-08-19 06:39:50.456,-0.44,-1.065
2021-08-19 06:39:50.460,-0.76,-0.81
2021-08-19 06:39:50.464,-1.14,-0.4
2021-08-19 06:39:50.468,-1.43,-0.25
2021-08-19 06:39:50.472,-1.62,-0.32
2021-08-19 06:39:50.476,-1.64,-0.465
2021-08-19 06:39:50.480,-1.49,-0.55
2021-08-19 06:39:50.484,-1.115,-0.625
2021-08-19 06:39:50.488,-0.63,-0.67
2021-08-19 06:39:50.492,-0.32,-0.645
2021-08-19 06:39:50.496,-0.205,-0.62
2021-08-19 06:39:50.500,-0.25,-0.595
2021-08-19 06:39:50.504,-0.315,-0.625
2021-08-19 06:39:50.508,-0.315,-0.66
2021-08-19 06:39:50.512,-0.305,-0.665
2021-08-19 06:39:50.516,-0.31,-0.645
2021-08-19 06:39:50.520,-0.255,-0.645
2021-08-19 06:39:50.524,-0.19,-0.625
2021-08-19 06:39:50.528,-0.16,-0.64
2021-08-19 06:39:50.532,-0.14,-0.675
2021-08-19 06:39:50.536,-0.12,-0.685
2021-08-19 06:39:50.540,-0.125,-0.705
2021-08-19 06:39:50.544,-0.12,-0.705
2021-08-19 06:39:50.548,-0.105,-0.71
2021-08-19 06:39:50.552,-0.09,-0.705
2021-08-19 06:39:50.556,-0.095,-0.685
2021-08-19 06:39:50.560,-0.09,-0.705
2021-08-19 06:39:50.564,-0.08,-0.7
2021-08-19 06:39:50.568,-0.085,-0.675
2021-08-19 06:39:50.572,-0.085,-0.64
2021-08-19 06:39:50.576,-0.08,-0.635
2021-08-19 06:39:50.580,-0.09,-0.62
2021-08-19 06:39:50.584,-0.08,-0.645
2021-08-19 06:39:50.588,-0.06,-0.665
2021-08-19 06:39:50.592,-0.04,-0.675
2021-08-19 06:39:50.596,-0.025,-0.68
2021-08-19 06:39:50.600,-0.04,-0.68
2021-08-19 06:39:50.604,-0.04,-0.67
2021-08-19 06:39:50.608,-0.04,-0.685
2021-08-19 06:39:50.612,-0.06,-0.695
2021-08-19 06:39:50.616,-0.08,-0.71
2021-08-19 06:39:50.620,-0.08,-0.68
2021-08-19 06:39:50.624,-0.08,-0.67
2021-08-19 06:39:50.628,-0.065,-0.65
2021-08-19 06:39:50.632,-0.07,-0.64
2021-08-19 06:39:50.636,-0.085,-0.61
2021-08-19 06:39:50.640,-0.105,-0.575
2021-08-19 06:39:50.644,-0.085,-0.57
2021-08-19 06:39:50.648,-0.07,-0.54
2021-08-19 06:39:50.652,-0.08,-0.51
2021-08-19 06:39:50.656,-0.05,-0.485
2021-08-19 06:39:50.660,-0.045,-0.5
2021-08-19 06:39:50.664,-0.03,-0.505
2021-08-19 06:39:50.668,0.005,-0.49
2021-08-19 06:39:50.672,0.005,-0.485
2021-08-19 06:39:50.676,0.025,-0.485
2021-08-19 06:39:50.680,0.03,-0.5
2021-08-19 06:39:50.684,0.02,-0.465
2021-08-19 06:39:50.688,0.045,-0.455
2021-08-19 06:39:50.692,0.045,-0.485
2021-08-19 06:39:50.696,0.045,-0.49
2021-08-19 06:39:50.700,0.06,-0.515
2021-08-19 06:39:50.704,0.06,-0.5
2021-08-19 06:39:50.708,0.085,-0.49
2021-08-19 06:39:50.712,0.06,-0.46
2021-08-19 06:39:50.716,0.025,-0.44
2021-08-19 06:39:50.720,0.0,-0.485
2021-08-19 06:39:50.724,-0.045,-0.49
2021-08-19 06:39:50.728,-0.085,-0.48
2021-08-19 06:39:50.732,-0.12,-0.465
2021-08-19 06:39:50.736,-0.165,-0.46
2021-08-19 06:39:50.740,-0.19,-0.47
2021-08-19 06:39:50.744,-0.2,-0.47
2021-08-19 06:39:50.748,-0.215,-0.475
2021-08-19 06:39:50.752,-0.19,-0.465
2021-08-19 06:39:50.756,-0.19,-0.48
2021-08-19 06:39:50.760,-0.175,-0.465
2021-08-19 06:39:50.764,-0.195,-0.47
2021-08-19 06:39:50.768,-0.22,-0.52
2021-08-19 06:39:50.772,-0.21,-0.52
2021-08-19 06:39:50.776,-0.225,-0.51
2021-08-19 06:39:50.780,-0.21,-0.48
2021-08-19 06:39:50.784,-0.185,-0.47
2021-08-19 06:39:50.788,-0.18,-0.425
2021-08-19 06:39:50.792,-0.19,-0.45
2021-08-19 06:39:50.796,-0.19,-0.46
2021-08-19 06:39:50.800,-0.2,-0.49
2021-08-19 06:39:50.804,-0.17,-0.495
2021-08-19 06:39:50.808,-0.14,-0.5
2021-08-19 06:39:50.812,-0.135,-0.49
2021-08-19 06:39:50.816,-0.12,-0.525
2021-08-19 06:39:50.820,-0.125,-0.54
2021-08-19 06:39:50.824,-0.125,-0.525
2021-08-19 06:39:50.828,-0.11,-0.51
2021-08-19 06:39:50.832,-0.135,-0.51
2021-08-19 06:39:50.836,-0.16,-0.49
2021-08-19 06:39:50.840,-0.18,-0.46
2021-08-19 06:39:50.844,-0.175,-0.385
2021-08-19 06:39:50.848,-0.16,-0.33
2021-08-19 06:39:50.852,-0.13,-0.33
2021-08-19 06:39:50.856,-0.125,-0.37
2021-08-19 06:39:50.860,-0.12,-0.385
2021-08-19 06:39:50.864,-0.12,-0.42
2021-08-19 06:39:50.868,-0.105,-0.395
2021-08-19 06:39:50.872,-0.11,-0.38
2021-08-19 06:39:50.876,-0.065,-0.37
2021-08-19 06:39:50.880,-0.04,-0.345
2021-08-19 06:39:50.884,-0.05,-0.36
2021-08-19 06:39:50.888,-0.075,-0.355
2021-08-19 06:39:50.892,-0.05,-0.355
2021-08-19 06:39:50.896,-0.04,-0.345
2021-08-19 06:39:50.900,-0.01,-0.35
2021-08-19 06:39:50.904,-0.005,-0.345
2021-08-19 06:39:50.908,0.005,-0.335
2021-08-19 06:39:50.912,-0.01,-0.34
2021-08-19 06:39:50.916,0.005,-0.335
2021-08-19 06:39:50.920,0.025,-0.37
2021-08-19 06:39:50.924,0.03,-0.38
2021-08-19 06:39:50.928,0.04,-0.4
2021-08-19 06:39:50.932,0.0,-0.43
2021-08-19 06:39:50.936,-0.065,-0.4
2021-08-19 06:39:50.940,-0.11,-0.38
2021-08-19 06:39:50.944,-0.16,-0.365
2021-08-19 06:39:50.948,-0.185,-0.385
2021-08-19 06:39:50.952,-0.185,-0.4
2021-08-19 06:39:50.956,-0.195,-0.42
2021-08-19 06:39:50.960,-0.2,-0.455
2021-08-19 06:39:50.964,-0.205,-0.475
2021-08-19 06:39:50.968,-0.2,-0.47
2021-08-19 06:39:50.972,-0.19,-0.455
2021-08-19 06:39:50.976,-0.2,-0.435
2021-08-19 06:39:50.980,-0.175,-0.435
2021-08-19 06:39:50.984,-0.19,-0.43
2021-08-19 06:39:50.988,-0.21,-0.43
2021-08-19 06:39:50.992,-0.19,-0.42
2021-08-19 06:39:50.996,-0.18,-0.44
2021-08-19 06:39:51.000,-0.18,-0.45
2021-08-19 06:39:51.004,-0.14,-0.465
2021-08-19 06:39:51.008,-0.16,-0.475
2021-08-19 06:39:51.012,-0.145,-0.49
2021-08-19 06:39:51.016,-0.16,-0.485
2021-08-19 06:39:51.020,-0.14,-0.49
2021-08-19 06:39:51.024,-0.155,-0.515
2021-08-19 06:39:51.028,-0.14,-0.53
2021-08-19 06:39:51.032,-0.165,-0.525
2021-08-19 06:39:51.036,-0.17,-0.5
2021-08-19 06:39:51.040,-0.185,-0.495
2021-08-19 06:39:51.044,-0.18,-0.46
2021-08-19 06:39:51.048,-0.175,-0.445
2021-08-19 06:39:51.052,-0.2,-0.4
2021-08-19 06:39:51.056,-0.185,-0.375
2021-08-19 06:39:51.060,-0.17,-0.355
2021-08-19 06:39:51.064,-0.17,-0.32
2021-08-19 06:39:51.068,-0.165,-0.27
2021-08-19 06:39:51.072,-0.145,-0.17
2021-08-19 06:39:51.076,-0.15,-0.005
2021-08-19 06:39:51.080,-0.14,0.195
2021-08-19 06:39:51.084,-0.145,0.53
2021-08-19 06:39:51.088,-0.13,0.955
2021-08-19 06:39:51.092,-0.13,1.285
2021-08-19 06:39:51.096,-0.1,1.41
2021-08-19 06:39:51.100,-0.075,1.365
2021-08-19 06:39:51.104,-0.075,1.16
2021-08-19 06:39:51.108,-0.095,0.795
2021-08-19 06:39:51.112,-0.12,0.295
2021-08-19 06:39:51.116,-0.14,-0.32
2021-08-19 06:39:51.120,-0.23,-0.78
2021-08-19 06:39:51.124,-0.46,-0.805
2021-08-19 06:39:51.128,-0.805,-0.535
2021-08-19 06:39:51.132,-1.175,-0.28
2021-08-19 06:39:51.136,-1.455,-0.31
2021-08-19 06:39:51.140,-1.585,-0.455
2021-08-19 06:39:51.144,-1.59,-0.595
2021-08-19 06:39:51.148,-1.385,-0.68
2021-08-19 06:39:51.152,-1.01,-0.71
2021-08-19 06:39:51.156,-0.615,-0.68
2021-08-19 06:39:51.160,-0.415,-0.62
2021-08-19 06:39:51.164,-0.345,-0.6
2021-08-19 06:39:51.168,-0.35,-0.6
2021-08-19 06:39:51.172,-0.365,-0.625
2021-08-19 06:39:51.176,-0.355,-0.64
2021-08-19 06:39:51.180,-0.305,-0.66
2021-08-19 06:39:51.184,-0.26,-0.655
2021-08-19 06:39:51.188,-0.22,-0.645
2021-08-19 06:39:51.192,-0.18,-0.62
2021-08-19 06:39:51.196,-0.155,-0.575
2021-08-19 06:39:51.200,-0.135,-0.565
2021-08-19 06:39:51.204,-0.13,-0.565
2021-08-19 06:39:51.208,-0.13,-0.58
2021-08-19 06:39:51.212,-0.115,-0.565
2021-08-19 06:39:51.216,-0.13,-0.555
2021-08-19 06:39:51.220,-0.13,-0.54
2021-08-19 06:39:51.224,-0.08,-0.525
2021-08-19 06:39:51.228,-0.045,-0.535
2021-08-19 06:39:51.232,-0.025,-0.54
2021-08-19 06:39:51.236,-0.03,-0.54
2021-08-19 06:39:51.240,-0.04,-0.55
2021-08-19 06:39:51.244,-0.05,-0.565
2021-08-19 06:39:51.248,-0.04,-0.595
2021-08-19 06:39:51.252,-0.045,-0.58
2021-08-19 06:39:51.256,-0.03,-0.59
2021-08-19 06:39:51.260,-0.035,-0.61
2021-08-19 06:39:51.264,-0.035,-0.615
2021-08-19 06:39:51.268,-0.035,-0.62
2021-08-19 06:39:51.272,-0.02,-0.6
2021-08-19 06:39:51.276,0.0,-0.6
2021-08-19 06:39:51.280,-0.02,-0.57
2021-08-19 06:39:51.284,-0.03,-0.565
2021-08-19 06:39:51.288,-0.02,-0.56
2021-08-19 06:39:51.292,-0.035,-0.545
2021-08-19 06:39:51.296,-0.045,-0.545
2021-08-19 06:39:51.300,-0.025,-0.56
2021-08-19 06:39:51.304,0.0,-0.57
2021-08-19 06:39:51.308,-0.005,-0.585
2021-08-19 06:39:51.312,0.015,-0.575
2021-08-19 06:39:51.316,0.0,-0.6
2021-08-19 06:39:51.320,0.01,-0.6
2021-08-19 06:39:51.324,0.005,-0.635
2021-08-19 06:39:51.328,0.025,-0.65
2021-08-19 06:39:51.332,0.015,-0.63
2021-08-19 06:39:51.336,0.01,-0.65
2021-08-19 06:39:51.340,0.015,-0.665
2021-08-19 06:39:51.344,0.015,-0.64
2021-08-19 06:39:51.348,0.01,-0.6
2021-08-19 06:39:51.352,0.0,-0.58
2021-08-19 06:39:51.356,0.0,-0.555
2021-08-19 06:39:51.360,0.02,-0.535
2021-08-19 06:39:51.364,0.015,-0.54
2021-08-19 06:39:51.368,-0.01,-0.54
2021-08-19 06:39:51.372,-0.015,-0.53
2021-08-19 06:39:51.376,-0.055,-0.52
2021-08-19 06:39:51.380,-0.115,-0.54
2021-08-19 06:39:51.384,-0.15,-0.52
2021-08-19 06:39:51.388,-0.14,-0.495
2021-08-19 06:39:51.392,-0.155,-0.445
2021-08-19 06:39:51.396,-0.17,-0.41
2021-08-19 06:39:51.400,-0.165,-0.375
2021-08-19 06:39:51.404,-0.18,-0.345
2021-08-19 06:39:51.408,-0.19,-0.32
2021-08-19 06:39:51.412,-0.18,-0.29
2021-08-19 06:39:51.416,-0.17,-0.275
2021-08-19 06:39:51.420,-0.145,-0.29
2021-08-19 06:39:51.424,-0.125,-0.3
2021-08-19 06:39:51.428,-0.155,-0.305
2021-08-19 06:39:51.432,-0.19,-0.345
2021-08-19 06:39:51.436,-0.185,-0.36
2021-08-19 06:39:51.440,-0.195,-0.36
2021-08-19 06:39:51.444,-0.16,-0.335
2021-08-19 06:39:51.448,-0.15,-0.315
2021-08-19 06:39:51.452,-0.18,-0.32
2021-08-19 06:39:51.456,-0.16,-0.325
2021-08-19 06:39:51.460,-0.185,-0.34
2021-08-19 06:39:51.464,-0.175,-0.345
2021-08-19 06:39:51.468,-0.16,-0.32
2021-08-19 06:39:51.472,-0.13,-0.33
2021-08-19 06:39:51.476,-0.125,-0.345
2021-08-19 06:39:51.480,-0.115,-0.345
2021-08-19 06:39:51.484,-0.1,-0.33
2021-08-19 06:39:51.488,-0.09,-0.32
2021-08-19 06:39:51.492,-0.12,-0.325
2021-08-19 06:39:51.496,-0.11,-0.36
2021-08-19 06:39:51.500,-0.105,-0.375
2021-08-19 06:39:51.504,-0.1,-0.405
2021-08-19 06:39:51.508,-0.1,-0.39
2021-08-19 06:39:51.512,-0.1,-0.38
2021-08-19 06:39:51.516,-0.07,-0.36
2021-08-19 06:39:51.520,-0.08,-0.36
2021-08-19 06:39:51.524,-0.09,-0.34
2021-08-19 06:39:51.528,-0.1,-0.38
2021-08-19 06:39:51.532,-0.095,-0.4
2021-08-19 06:39:51.536,-0.11,-0.38
2021-08-19 06:39:51.540,-0.105,-0.38
2021-08-19 06:39:51.544,-0.11,-0.41
2021-08-19 06:39:51.548,-0.08,-0.425
2021-08-19 06:39:51.552,-0.07,-0.41
2021-08-19 06:39:51.556,-0.085,-0.415
2021-08-19 06:39:51.560,-0.075,-0.4
2021-08-19 06:39:51.564,-0.1,-0.36
2021-08-19 06:39:51.568,-0.055,-0.39
2021-08-19 06:39:51.572,-0.035,-0.38
2021-08-19 06:39:51.576,-0.02,-0.39
2021-08-19 06:39:51.580,-0.015,-0.39
2021-08-19 06:39:51.584,-0.01,-0.4
2021-08-19 06:39:51.588,0.0,-0.44
2021-08-19 06:39:51.592,-0.02,-0.465
2021-08-19 06:39:51.596,-0.04,-0.455
2021-08-19 06:39:51.600,-0.09,-0.465
2021-08-19 06:39:51.604,-0.14,-0.42
2021-08-19 06:39:51.608,-0.18,-0.4
2021-08-19 06:39:51.612,-0.2,-0.4
2021-08-19 06:39:51.616,-0.2,-0.425
2021-08-19 06:39:51.620,-0.185,-0.425
2021-08-19 06:39:51.624,-0.17,-0.425
2021-08-19 06:39:51.628,-0.17,-0.445
2021-08-19 06:39:51.632,-0.16,-0.52
2021-08-19 06:39:51.636,-0.17,-0.495
2021-08-19 06:39:51.640,-0.17,-0.46
2021-08-19 06:39:51.644,-0.15,-0.415
2021-08-19 06:39:51.648,-0.155,-0.375
2021-08-19 06:39:51.652,-0.15,-0.4
2021-08-19 06:39:51.656,-0.14,-0.415
2021-08-19 06:39:51.660,-0.145,-0.445
2021-08-19 06:39:51.664,-0.14,-0.46
2021-08-19 06:39:51.668,-0.14,-0.44
2021-08-19 06:39:51.672,-0.15,-0.435
2021-08-19 06:39:51.676,-0.15,-0.415
2021-08-19 06:39:51.680,-0.13,-0.405
2021-08-19 06:39:51.684,-0.12,-0.41
2021-08-19 06:39:51.688,-0.1,-0.42
2021-08-19 06:39:51.692,-0.1,-0.425
2021-08-19 06:39:51.696,-0.095,-0.405
2021-08-19 06:39:51.700,-0.085,-0.4
2021-08-19 06:39:51.704,-0.075,-0.405
2021-08-19 06:39:51.708,-0.075,-0.475
2021-08-19 06:39:51.712,-0.07,-0.525
2021-08-19 06:39:51.716,-0.08,-0.51
2021-08-19 06:39:51.720,-0.07,-0.46
2021-08-19 06:39:51.724,-0.065,-0.46
2021-08-19 06:39:51.728,-0.065,-0.46
2021-08-19 06:39:51.732,-0.085,-0.46
2021-08-19 06:39:51.736,-0.06,-0.47
2021-08-19 06:39:51.740,-0.08,-0.48
2021-08-19 06:39:51.744,-0.105,-0.47
2021-08-19 06:39:51.748,-0.075,-0.48
2021-08-19 06:39:51.752,-0.095,-0.49
2021-08-19 06:39:51.756,-0.11,-0.52
2021-08-19 06:39:51.760,-0.09,-0.535
2021-08-19 06:39:51.764,-0.115,-0.535
2021-08-19 06:39:51.768,-0.12,-0.55
2021-08-19 06:39:51.772,-0.08,-0.525
2021-08-19 06:39:51.776,-0.09,-0.505
2021-08-19 06:39:51.780,-0.06,-0.47
2021-08-19 06:39:51.784,-0.075,-0.42
2021-08-19 06:39:51.788,-0.04,-0.43
2021-08-19 06:39:51.792,-0.01,-0.395
2021-08-19 06:39:51.796,0.0,-0.42
2021-08-19 06:39:51.800,0.015,-0.4
2021-08-19 06:39:51.804,0.025,-0.4
2021-08-19 06:39:51.808,0.04,-0.395
2021-08-19 06:39:51.812,0.005,-0.39
2021-08-19 06:39:51.816,-0.015,-0.37
2021-08-19 06:39:51.820,-0.07,-0.355
2021-08-19 06:39:51.824,-0.145,-0.335
2021-08-19 06:39:51.828,-0.17,-0.3
2021-08-19 06:39:51.832,-0.15,-0.335
2021-08-19 06:39:51.836,-0.13,-0.345
2021-08-19 06:39:51.840,-0.1,-0.36
2021-08-19 06:39:51.844,-0.1,-0.37
2021-08-19 06:39:51.848,-0.105,-0.37
2021-08-19 06:39:51.852,-0.09,-0.36
2021-08-19 06:39:51.856,-0.105,-0.375
2021-08-19 06:39:51.860,-0.07,-0.345
2021-08-19 06:39:51.864,-0.07,-0.355
2021-08-19 06:39:51.868,-0.085,-0.315
2021-08-19 06:39:51.872,-0.115,-0.28
2021-08-19 06:39:51.876,-0.13,-0.27
2021-08-19 06:39:51.880,-0.1,-0.265
2021-08-19 06:39:51.884,-0.07,-0.27
2021-08-19 06:39:51.888,-0.06,-0.285
2021-08-19 06:39:51.892,-0.035,-0.285
2021-08-19 06:39:51.896,-0.02,-0.26
2021-08-19 06:39:51.900,-0.055,-0.22
2021-08-19 06:39:51.904,-0.035,-0.145
2021-08-19 06:39:51.908,-0.04,-0.045
2021-08-19 06:39:51.912,-0.045,0.04
2021-08-19 06:39:51.916,-0.05,0.185
2021-08-19 06:39:51.920,-0.05,0.41
2021-08-19 06:39:51.924,-0.04,0.75
2021-08-19 06:39:51.928,-0.02,1.09
2021-08-19 06:39:51.932,0.005,1.33
2021-08-19 06:39:51.936,0.015,1.35
2021-08-19 06:39:51.940,0.01,1.235
2021-08-19 06:39:51.944,-0.01,0.995
2021-08-19 06:39:51.948,-0.05,0.64
2021-08-19 06:39:51.952,-0.07,0.19
2021-08-19 06:39:51.956,-0.11,-0.34
2021-08-19 06:39:51.960,-0.24,-0.76
2021-08-19 06:39:51.964,-0.485,-0.82
2021-08-19 06:39:51.968,-0.81,-0.635
2021-08-19 06:39:51.972,-1.105,-0.48
2021-08-19 06:39:51.976,-1.295,-0.53
2021-08-19 06:39:51.980,-1.39,-0.66
2021-08-19 06:39:51.984,-1.33,-0.725
2021-08-19 06:39:51.988,-1.06,-0.725
2021-08-19 06:39:51.992,-0.685,-0.75
2021-08-19 06:39:51.996,-0.385,-0.705
2021-08-19 06:39:52.000,-0.24,-0.625
2021-08-19 06:39:52.004,-0.18,-0.58
2021-08-19 06:39:52.008,-0.185,-0.6
2021-08-19 06:39:52.012,-0.16,-0.6
2021-08-19 06:39:52.016,-0.17,-0.61
2021-08-19 06:39:52.020,-0.135,-0.58
2021-08-19 06:39:52.024,-0.09,-0.52
2021-08-19 06:39:52.028,-0.06,-0.52
2021-08-19 06:39:52.032,0.02,-0.49
2021-08-19 06:39:52.036,0.065,-0.49
2021-08-19 06:39:52.040,0.07,-0.475
2021-08-19 06:39:52.044,0.095,-0.485
2021-08-19 06:39:52.048,0.12,-0.5
2021-08-19 06:39:52.052,0.115,-0.49
2021-08-19 06:39:52.056,0.09,-0.5
2021-08-19 06:39:52.060,0.075,-0.51
2021-08-19 06:39:52.064,0.02,-0.505
2021-08-19 06:39:52.068,-0.01,-0.51
2021-08-19 06:39:52.072,-0.025,-0.47
2021-08-19 06:39:52.076,-0.04,-0.46
2021-08-19 06:39:52.080,-0.04,-0.445
2021-08-19 06:39:52.084,-0.03,-0.465
2021-08-19 06:39:52.088,0.0,-0.485
2021-08-19 06:39:52.092,-0.02,-0.52
2021-08-19 06:39:52.096,0.005,-0.53
2021-08-19 06:39:52.100,0.0,-0.52
2021-08-19 06:39:52.104,-0.01,-0.52
2021-08-19 06:39:52.108,-0.01,-0.515
2021-08-19 06:39:52.112,0.015,-0.515
2021-08-19 06:39:52.116,0.0,-0.515
2021-08-19 06:39:52.120,0.015,-0.5
2021-08-19 06:39:52.124,0.01,-0.495
2021-08-19 06:39:52.128,0.0,-0.5
2021-08-19 06:39:52.132,0.01,-0.52
2021-08-19 06:39:52.136,0.03,-0.525
2021-08-19 06:39:52.140,0.005,-0.59
2021-08-19 06:39:52.144,0.015,-0.61
2021-08-19 06:39:52.148,0.015,-0.605
2021-08-19 06:39:52.152,0.015,-0.595
2021-08-19 06:39:52.156,0.035,-0.6
2021-08-19 06:39:52.160,0.03,-0.64
2021-08-19 06:39:52.164,0.035,-0.705
2021-08-19 06:39:52.168,0.025,-0.745
2021-08-19 06:39:52.172,0.005,-0.77
2021-08-19 06:39:52.176,-0.01,-0.755
2021-08-19 06:39:52.180,-0.01,-0.76
2021-08-19 06:39:52.184,-0.01,-0.74
2021-08-19 06:39:52.188,0.0,-0.72
2021-08-19 06:39:52.192,0.02,-0.715
2021-08-19 06:39:52.196,0.0,-0.73
2021-08-19 06:39:52.200,-0.01,-0.725
2021-08-19 06:39:52.204,-0.02,-0.72
2021-08-19 06:39:52.208,-0.015,-0.705
2021-08-19 06:39:52.212,-0.02,-0.695
2021-08-19 06:39:52.216,-0.025,-0.66
2021-08-19 06:39:52.220,-0.02,-0.64
2021-08-19 06:39:52.224,-0.02,-0.66
2021-08-19 06:39:52.228,-0.01,-0.66
2021-08-19 06:39:52.232,0.0,-0.625
2021-08-19 06:39:52.236,0.01,-0.595
2021-08-19 06:39:52.240,0.0,-0.58
2021-08-19 06:39:52.244,-0.005,-0.525
2021-08-19 06:39:52.248,0.02,-0.475
2021-08-19 06:39:52.252,0.035,-0.455
2021-08-19 06:39:52.256,0.025,-0.39
2021-08-19 06:39:52.260,0.045,-0.35
2021-08-19 06:39:52.264,0.015,-0.25
2021-08-19 06:39:52.268,0.015,-0.195
2021-08-19 06:39:52.272,0.045,-0.155
2021-08-19 06:39:52.276,0.075,-0.135
2021-08-19 06:39:52.280,0.1,-0.12
2021-08-19 06:39:52.284,0.09,-0.11
2021-08-19 06:39:52.288,0.11,-0.065
2021-08-19 06:39:52.292,0.12,-0.07
2021-08-19 06:39:52.296,0.13,-0.065
2021-08-19 06:39:52.300,0.12,-0.05
2021-08-19 06:39:52.304,0.095,-0.04
2021-08-19 06:39:52.308,0.07,-0.075
2021-08-19 06:39:52.312,0.045,-0.065
2021-08-19 06:39:52.316,0.03,-0.06
2021-08-19 06:39:52.320,-0.015,-0.055
2021-08-19 06:39:52.324,-0.02,-0.02
2021-08-19 06:39:52.328,-0.01,-0.04
2021-08-19 06:39:52.332,-0.03,-0.025
2021-08-19 06:39:52.336,-0.04,-0.02
2021-08-19 06:39:52.340,-0.04,-0.065
2021-08-19 06:39:52.344,-0.05,-0.085
2021-08-19 06:39:52.348,-0.03,-0.105
2021-08-19 06:39:52.352,-0.035,-0.125
2021-08-19 06:39:52.356,-0.005,-0.125
2021-08-19 06:39:52.360,-0.03,-0.12
2021-08-19 06:39:52.364,-0.03,-0.18
2021-08-19 06:39:52.368,-0.01,-0.21
2021-08-19 06:39:52.372,-0.005,-0.225
2021-08-19 06:39:52.376,-0.015,-0.245
2021-08-19 06:39:52.380,-0.02,-0.25
2021-08-19 06:39:52.384,0.005,-0.26
2021-08-19 06:39:52.388,-0.02,-0.285
2021-08-19 06:39:52.392,-0.025,-0.285
2021-08-19 06:39:52.396,-0.035,-0.305
2021-08-19 06:39:52.400,-0.025,-0.365
2021-08-19 06:39:52.404,-0.025,-0.41
2021-08-19 06:39:52.408,-0.03,-0.43
2021-08-19 06:39:52.412,-0.04,-0.41
2021-08-19 06:39:52.416,-0.05,-0.37
2021-08-19 06:39:52.420,-0.075,-0.345
2021-08-19 06:39:52.424,-0.065,-0.35
2021-08-19 06:39:52.428,-0.07,-0.35
2021-08-19 06:39:52.432,-0.07,-0.325
2021-08-19 06:39:52.436,-0.05,-0.27
2021-08-19 06:39:52.440,-0.04,-0.205
2021-08-19 06:39:52.444,-0.035,-0.045
2021-08-19 06:39:52.448,-0.045,0.135
2021-08-19 06:39:52.452,-0.05,0.38
2021-08-19 06:39:52.456,-0.015,0.59
2021-08-19 06:39:52.460,-0.01,0.725
2021-08-19 06:39:52.464,0.025,0.71
2021-08-19 06:39:52.468,0.085,0.62
2021-08-19 06:39:52.472,0.105,0.41
2021-08-19 06:39:52.476,0.085,0.145
2021-08-19 06:39:52.480,0.07,-0.19
2021-08-19 06:39:52.484,0.035,-0.55
2021-08-19 06:39:52.488,0.005,-0.945
2021-08-19 06:39:52.492,-0.065,-1.27
2021-08-19 06:39:52.496,-0.135,-1.375
2021-08-19 06:39:52.500,-0.21,-1.275
2021-08-19 06:39:52.504,-0.27,-1.2
2021-08-19 06:39:52.508,-0.29,-1.26
2021-08-19 06:39:52.512,-0.26,-1.305
2021-08-19 06:39:52.516,-0.14,-1.33
2021-08-19 06:39:52.520,0.06,-1.29
2021-08-19 06:39:52.524,0.435,-1.24
2021-08-19 06:39:52.528,0.685,-1.15
2021-08-19 06:39:52.532,0.83,-1.035
2021-08-19 06:39:52.536,0.85,-0.9
2021-08-19 06:39:52.540,0.815,-0.8
2021-08-19 06:39:52.544,0.755,-0.745
2021-08-19 06:39:52.548,0.755,-0.68
2021-08-19 06:39:52.552,0.785,-0.645
2021-08-19 06:39:52.556,0.885,-0.58
2021-08-19 06:39:52.560,0.955,-0.57
2021-08-19 06:39:52.564,1.045,-0.505
2021-08-19 06:39:52.568,1.09,-0.46
2021-08-19 06:39:52.572,1.065,-0.41
2021-08-19 06:39:52.576,1.055,-0.38
2021-08-19 06:39:52.580,1.005,-0.29
2021-08-19 06:39:52.584,0.91,-0.235
2021-08-19 06:39:52.588,0.845,-0.22
2021-08-19 06:39:52.592,0.755,-0.21
2021-08-19 06:39:52.596,0.63,-0.225
2021-08-19 06:39:52.600,0.475,-0.25
2021-08-19 06:39:52.604,0.33,-0.29
2021-08-19 06:39:52.608,0.19,-0.295
2021-08-19 06:39:52.612,0.12,-0.33
2021-08-19 06:39:52.616,0.075,-0.365
2021-08-19 06:39:52.620,0.06,-0.41
2021-08-19 06:39:52.624,0.025,-0.415
2021-08-19 06:39:52.628,-0.03,-0.42
2021-08-19 06:39:52.632,-0.1,-0.455
2021-08-19 06:39:52.636,-0.175,-0.475
2021-08-19 06:39:52.640,-0.235,-0.51
2021-08-19 06:39:52.644,-0.265,-0.525
2021-08-19 06:39:52.648,-0.275,-0.535
2021-08-19 06:39:52.652,-0.29,-0.51
2021-08-19 06:39:52.656,-0.275,-0.53
2021-08-19 06:39:52.660,-0.305,-0.535
2021-08-19 06:39:52.664,-0.33,-0.53
2021-08-19 06:39:52.668,-0.32,-0.515
2021-08-19 06:39:52.672,-0.335,-0.51
2021-08-19 06:39:52.676,-0.345,-0.5
2021-08-19 06:39:52.680,-0.355,-0.51
2021-08-19 06:39:52.684,-0.36,-0.475
2021-08-19 06:39:52.688,-0.35,-0.48
2021-08-19 06:39:52.692,-0.36,-0.5
2021-08-19 06:39:52.696,-0.355,-0.515
2021-08-19 06:39:52.700,-0.36,-0.55
2021-08-19 06:39:52.704,-0.365,-0.52
2021-08-19 06:39:52.708,-0.37,-0.515
2021-08-19 06:39:52.712,-0.365,-0.48
2021-08-19 06:39:52.716,-0.365,-0.45
2021-08-19 06:39:52.720,-0.355,-0.42
2021-08-19 06:39:52.724,-0.385,-0.38
2021-08-19 06:39:52.728,-0.36,-0.35
2021-08-19 06:39:52.732,-0.36,-0.295
2021-08-19 06:39:52.736,-0.37,-0.255
2021-08-19 06:39:52.740,-0.355,-0.22
2021-08-19 06:39:52.744,-0.36,-0.18
2021-08-19 06:39:52.748,-0.365,-0.135
2021-08-19 06:39:52.752,-0.37,-0.105
2021-08-19 06:39:52.756,-0.345,-0.07
2021-08-19 06:39:52.760,-0.35,-0.07
2021-08-19 06:39:52.764,-0.32,-0.075
2021-08-19 06:39:52.768,-0.32,-0.02
2021-08-19 06:39:52.772,-0.32,0.02
2021-08-19 06:39:52.776,-0.305,0.105
2021-08-19 06:39:52.780,-0.315,0.125
2021-08-19 06:39:52.784,-0.305,0.125
2021-08-19 06:39:52.788,-0.32,0.115
2021-08-19 06:39:52.792,-0.33,0.135
2021-08-19 06:39:52.796,-0.345,0.145
2021-08-19 06:39:52.800,-0.32,0.15
2021-08-19 06:39:52.804,-0.315,0.175
2021-08-19 06:39:52.808,-0.305,0.18
2021-08-19 06:39:52.812,-0.31,0.155
2021-08-19 06:39:52.816,-0.31,0.22
2021-08-19 06:39:52.820,-0.31,0.31
2021-08-19 06:39:52.824,-0.29,0.435
2021-08-19 06:39:52.828,-0.27,0.55
2021-08-19 06:39:52.832,-0.24,0.645
2021-08-19 06:39:52.836,-0.185,0.675
2021-08-19 06:39:52.840,-0.165,0.585
2021-08-19 06:39:52.844,-0.155,0.335
2021-08-19 06:39:52.848,-0.18,0.015
2021-08-19 06:39:52.852,-0.195,-0.33
2021-08-19 06:39:52.856,-0.225,-0.76
2021-08-19 06:39:52.860,-0.28,-1.22
2021-08-19 06:39:52.864,-0.335,-1.47
2021-08-19 06:39:52.868,-0.4,-1.435
2021-08-19 06:39:52.872,-0.46,-1.27
2021-08-19 06:39:52.876,-0.46,-1.095
2021-08-19 06:39:52.880,-0.44,-1.005
2021-08-19 06:39:52.884,-0.355,-0.96
2021-08-19 06:39:52.888,-0.145,-0.925
2021-08-19 06:39:52.892,0.19,-0.955
2021-08-19 06:39:52.896,0.585,-0.96
2021-08-19 06:39:52.900,0.865,-0.91
2021-08-19 06:39:52.904,1.005,-0.775
2021-08-19 06:39:52.908,0.95,-0.67
2021-08-19 06:39:52.912,0.875,-0.68
2021-08-19 06:39:52.916,0.83,-0.675
2021-08-19 06:39:52.920,0.83,-0.66
2021-08-19 06:39:52.924,0.855,-0.635
2021-08-19 06:39:52.928,0.9,-0.625
2021-08-19 06:39:52.932,0.985,-0.62
2021-08-19 06:39:52.936,1.05,-0.585
2021-08-19 06:39:52.940,1.06,-0.5
2021-08-19 06:39:52.944,1.02,-0.4
2021-08-19 06:39:52.948,0.92,-0.335
2021-08-19 06:39:52.952,0.79,-0.29
2021-08-19 06:39:52.956,0.62,-0.24
2021-08-19 06:39:52.960,0.385,-0.225
2021-08-19 06:39:52.964,0.205,-0.215
2021-08-19 06:39:52.968,0.05,-0.205
2021-08-19 06:39:52.972,-0.055,-0.225
2021-08-19 06:39:52.976,-0.08,-0.22
2021-08-19 06:39:52.980,-0.085,-0.215
2021-08-19 06:39:52.984,-0.06,-0.18
2021-08-19 06:39:52.988,-0.075,-0.16
2021-08-19 06:39:52.992,-0.05,-0.145
2021-08-19 06:39:52.996,-0.06,-0.14
2021-08-19 06:39:53.000,-0.075,-0.125
2021-08-19 06:39:53.004,-0.09,-0.085
2021-08-19 06:39:53.008,-0.05,-0.03
2021-08-19 06:39:53.012,-0.09,-0.01
2021-08-19 06:39:53.016,-0.08,-0.02
2021-08-19 06:39:53.020,-0.07,-0.065
2021-08-19 06:39:53.024,-0.115,-0.075
2021-08-19 06:39:53.028,-0.085,-0.075
2021-08-19 06:39:53.032,-0.085,-0.065
2021-08-19 06:39:53.036,-0.08,-0.105
2021-08-19 06:39:53.040,-0.085,-0.145
2021-08-19 06:39:53.044,-0.11,-0.24
2021-08-19 06:39:53.048,-0.11,-0.265
2021-08-19 06:39:53.052,-0.155,-0.27
2021-08-19 06:39:53.056,-0.16,-0.225
2021-08-19 06:39:53.060,-0.17,-0.2
2021-08-19 06:39:53.064,-0.165,-0.2
2021-08-19 06:39:53.068,-0.15,-0.195
2021-08-19 06:39:53.072,-0.185,-0.215
2021-08-19 06:39:53.076,-0.2,-0.22
2021-08-19 06:39:53.080,-0.22,-0.245
2021-08-19 06:39:53.084,-0.23,-0.235
2021-08-19 06:39:53.088,-0.21,-0.235
2021-08-19 06:39:53.092,-0.2,-0.23
2021-08-19 06:39:53.096,-0.205,-0.205
2021-08-19 06:39:53.100,-0.215,-0.2
2021-08-19 06:39:53.104,-0.215,-0.2
2021-08-19 06:39:53.108,-0.2,-0.16
2021-08-19 06:39:53.112,-0.205,-0.115
2021-08-19 06:39:53.116,-0.225,-0.09
2021-08-19 06:39:53.120,-0.22,-0.05
2021-08-19 06:39:53.124,-0.205,-0.01
2021-08-19 06:39:53.128,-0.19,-0.015
2021-08-19 06:39:53.132,-0.16,-0.03
2021-08-19 06:39:53.136,-0.17,-0.085
2021-08-19 06:39:53.140,-0.165,-0.12
2021-08-19 06:39:53.144,-0.205,-0.145
2021-08-19 06:39:53.148,-0.22,-0.15
2021-08-19 06:39:53.152,-0.27,-0.18
2021-08-19 06:39:53.156,-0.31,-0.16
2021-08-19 06:39:53.160,-0.325,-0.2
2021-08-19 06:39:53.164,-0.325,-0.195
2021-08-19 06:39:53.168,-0.345,-0.225
2021-08-19 06:39:53.172,-0.315,-0.22
2021-08-19 06:39:53.176,-0.29,-0.225
2021-08-19 06:39:53.180,-0.265,-0.185
2021-08-19 06:39:53.184,-0.24,-0.14
2021-08-19 06:39:53.188,-0.235,-0.135
2021-08-19 06:39:53.192,-0.2,-0.11
2021-08-19 06:39:53.196,-0.205,-0.11
2021-08-19 06:39:53.200,-0.175,-0.085
2021-08-19 06:39:53.204,-0.12,-0.065
2021-08-19 06:39:53.208,-0.095,-0.065
2021-08-19 06:39:53.212,-0.06,-0.065
2021-08-19 06:39:53.216,-0.045,-0.035
2021-08-19 06:39:53.220,-0.035,-0.01
2021-08-19 06:39:53.224,0.0,-0.03
2021-08-19 06:39:53.228,0.035,-0.02
2021-08-19 06:39:53.232,0.05,0.0
2021-08-19 06:39:53.236,0.075,0.045
2021-08-19 06:39:53.240,0.11,0.07
2021-08-19 06:39:53.244,0.135,0.065
2021-08-19 06:39:53.248,0.175,0.11
2021-08-19 06:39:53.252,0.18,0.21
2021-08-19 06:39:53.256,0.18,0.33
2021-08-19 06:39:53.260,0.175,0.59
2021-08-19 06:39:53.264,0.17,0.925
2021-08-19 06:39:53.268,0.175,1.31
2021-08-19 06:39:53.272,0.145,1.65
2021-08-19 06:39:53.276,0.175,1.815
2021-08-19 06:39:53.280,0.175,1.78
2021-08-19 06:39:53.284,0.21,1.605
2021-08-19 06:39:53.288,0.17,1.32
2021-08-19 06:39:53.292,0.17,0.89
2021-08-19 06:39:53.296,0.135,0.285
2021-08-19 06:39:53.300,0.06,-0.275
2021-08-19 06:39:53.304,-0.125,-0.555
2021-08-19 06:39:53.308,-0.45,-0.485
2021-08-19 06:39:53.312,-0.78,-0.355
2021-08-19 06:39:53.316,-1.055,-0.4
2021-08-19 06:39:53.320,-1.25,-0.55
2021-08-19 06:39:53.324,-1.34,-0.665
2021-08-19 06:39:53.328,-1.19,-0.76
2021-08-19 06:39:53.332,-0.86,-0.765
2021-08-19 06:39:53.336,-0.47,-0.745
2021-08-19 06:39:53.340,-0.21,-0.66
2021-08-19 06:39:53.344,-0.08,-0.57
2021-08-19 06:39:53.348,-0.045,-0.48
2021-08-19 06:39:53.352,-0.045,-0.465
2021-08-19 06:39:53.356,-0.03,-0.485
2021-08-19 06:39:53.360,-0.035,-0.48
2021-08-19 06:39:53.364,-0.025,-0.485
2021-08-19 06:39:53.368,0.005,-0.54
2021-08-19 06:39:53.372,0.035,-0.57
2021-08-19 06:39:53.376,0.06,-0.605
2021-08-19 06:39:53.380,0.06,-0.595
2021-08-19 06:39:53.384,0.05,-0.59
2021-08-19 06:39:53.388,0.07,-0.535
2021-08-19 06:39:53.392,0.035,-0.495
2021-08-19 06:39:53.396,0.045,-0.48
2021-08-19 06:39:53.400,0.06,-0.45
2021-08-19 06:39:53.404,0.06,-0.425
2021-08-19 06:39:53.408,0.065,-0.41
2021-08-19 06:39:53.412,0.075,-0.43
2021-08-19 06:39:53.416,0.085,-0.425
2021-08-19 06:39:53.420,0.105,-0.44
2021-08-19 06:39:53.424,0.16,-0.435
2021-08-19 06:39:53.428,0.175,-0.405
2021-08-19 06:39:53.432,0.18,-0.435
2021-08-19 06:39:53.436,0.17,-0.405
2021-08-19 06:39:53.440,0.17,-0.385
2021-08-19 06:39:53.444,0.2,-0.35
2021-08-19 06:39:53.448,0.205,-0.365
2021-08-19 06:39:53.452,0.235,-0.35
2021-08-19 06:39:53.456,0.23,-0.34
2021-08-19 06:39:53.460,0.26,-0.33
2021-08-19 06:39:53.464,0.26,-0.34
2021-08-19 06:39:53.468,0.285,-0.35
2021-08-19 06:39:53.472,0.28,-0.39
2021-08-19 06:39:53.476,0.305,-0.42
2021-08-19 06:39:53.480,0.3,-0.45
2021-08-19 06:39:53.484,0.3,-0.445
2021-08-19 06:39:53.488,0.31,-0.475
2021-08-19 06:39:53.492,0.275,-0.5
2021-08-19 06:39:53.496,0.315,-0.505
2021-08-19 06:39:53.500,0.28,-0.545
2021-08-19 06:39:53.504,0.275,-0.565
2021-08-19 06:39:53.508,0.265,-0.58
2021-08-19 06:39:53.512,0.275,-0.585
2021-08-19 06:39:53.516,0.27,-0.6
2021-08-19 06:39:53.520,0.245,-0.59
2021-08-19 06:39:53.524,0.245,-0.595
2021-08-19 06:39:53.528,0.26,-0.565
2021-08-19 06:39:53.532,0.255,-0.51
2021-08-19 06:39:53.536,0.255,-0.5
2021-08-19 06:39:53.540,0.26,-0.51
2021-08-19 06:39:53.544,0.24,-0.54
2021-08-19 06:39:53.548,0.225,-0.515
2021-08-19 06:39:53.552,0.245,-0.5
2021-08-19 06:39:53.556,0.225,-0.445
2021-08-19 06:39:53.560,0.26,-0.405
2021-08-19 06:39:53.564,0.295,-0.36
2021-08-19 06:39:53.568,0.265,-0.315
2021-08-19 06:39:53.572,0.235,-0.255
2021-08-19 06:39:53.576,0.24,-0.23
2021-08-19 06:39:53.580,0.225,-0.23
2021-08-19 06:39:53.584,0.21,-0.22
2021-08-19 06:39:53.588,0.16,-0.205
2021-08-19 06:39:53.592,0.135,-0.215
2021-08-19 06:39:53.596,0.115,-0.205
2021-08-19 06:39:53.600,0.105,-0.22
2021-08-19 06:39:53.604,0.105,-0.24
2021-08-19 06:39:53.608,0.09,-0.26
2021-08-19 06:39:53.612,0.065,-0.23
2021-08-19 06:39:53.616,0.045,-0.175
2021-08-19 06:39:53.620,0.07,-0.155
2021-08-19 06:39:53.624,0.075,-0.135
2021-08-19 06:39:53.628,0.07,-0.15
2021-08-19 06:39:53.632,0.075,-0.155
2021-08-19 06:39:53.636,0.105,-0.12
2021-08-19 06:39:53.640,0.11,-0.085
2021-08-19 06:39:53.644,0.135,-0.085
2021-08-19 06:39:53.648,0.13,-0.1
2021-08-19 06:39:53.652,0.145,-0.11
2021-08-19 06:39:53.656,0.15,-0.15
2021-08-19 06:39:53.660,0.17,-0.16
2021-08-19 06:39:53.664,0.155,-0.11
2021-08-19 06:39:53.668,0.16,-0.1
2021-08-19 06:39:53.672,0.17,-0.09
2021-08-19 06:39:53.676,0.18,-0.045
2021-08-19 06:39:53.680,0.18,-0.005
2021-08-19 06:39:53.684,0.21,0.005
2021-08-19 06:39:53.688,0.215,-0.005
2021-08-19 06:39:53.692,0.25,0.025
2021-08-19 06:39:53.696,0.245,0.015
2021-08-19 06:39:53.700,0.23,0.01
2021-08-19 06:39:53.704,0.225,0.01
2021-08-19 06:39:53.708,0.215,-0.02
2021-08-19 06:39:53.712,0.225,-0.02
2021-08-19 06:39:53.716,0.255,0.035
2021-08-19 06:39:53.720,0.275,0.12
2021-08-19 06:39:53.724,0.245,0.31
2021-08-19 06:39:53.728,0.225,0.615
2021-08-19 06:39:53.732,0.2,1.04
2021-08-19 06:39:53.736,0.18,1.475
2021-08-19 06:39:53.740,0.195,1.71
2021-08-19 06:39:53.744,0.245,1.725
2021-08-19 06:39:53.748,0.255,1.615
2021-08-19 06:39:53.752,0.21,1.4
2021-08-19 06:39:53.756,0.215,1.06
2021-08-19 06:39:53.760,0.22,0.555
2021-08-19 06:39:53.764,0.2,0.015
2021-08-19 06:39:53.768,0.07,-0.365
2021-08-19 06:39:53.772,-0.16,-0.465
2021-08-19 06:39:53.776,-0.485,-0.31
2021-08-19 06:39:53.780,-0.81,-0.22
2021-08-19 06:39:53.784,-1.035,-0.275
2021-08-19 06:39:53.788,-1.185,-0.415
2021-08-19 06:39:53.792,-1.18,-0.535
2021-08-19 06:39:53.796,-0.965,-0.61
2021-08-19 06:39:53.800,-0.63,-0.66
2021-08-19 06:39:53.804,-0.335,-0.625
2021-08-19 06:39:53.808,-0.16,-0.56
2021-08-19 06:39:53.812,-0.14,-0.52
2021-08-19 06:39:53.816,-0.125,-0.525
2021-08-19 06:39:53.820,-0.105,-0.535
2021-08-19 06:39:53.824,-0.1,-0.52
2021-08-19 06:39:53.828,-0.045,-0.51
2021-08-19 06:39:53.832,-0.01,-0.515
2021-08-19 06:39:53.836,0.01,-0.445
2021-08-19 06:39:53.840,0.015,-0.39
2021-08-19 06:39:53.844,0.07,-0.41
2021-08-19 06:39:53.848,0.1,-0.43
2021-08-19 06:39:53.852,0.115,-0.415
2021-08-19 06:39:53.856,0.115,-0.37
2021-08-19 06:39:53.860,0.135,-0.325
2021-08-19 06:39:53.864,0.16,-0.305
2021-08-19 06:39:53.868,0.19,-0.33
2021-08-19 06:39:53.872,0.2,-0.35
2021-08-19 06:39:53.876,0.215,-0.34
2021-08-19 06:39:53.880,0.205,-0.34
2021-08-19 06:39:53.884,0.205,-0.31
2021-08-19 06:39:53.888,0.24,-0.285
2021-08-19 06:39:53.892,0.265,-0.26
2021-08-19 06:39:53.896,0.26,-0.27
2021-08-19 06:39:53.900,0.255,-0.26
2021-08-19 06:39:53.904,0.265,-0.23
2021-08-19 06:39:53.908,0.275,-0.23
2021-08-19 06:39:53.912,0.3,-0.22
2021-08-19 06:39:53.916,0.29,-0.21
2021-08-19 06:39:53.920,0.3,-0.205
2021-08-19 06:39:53.924,0.29,-0.215
2021-08-19 06:39:53.928,0.295,-0.25
2021-08-19 06:39:53.932,0.335,-0.28
2021-08-19 06:39:53.936,0.335,-0.295
2021-08-19 06:39:53.940,0.295,-0.32
2021-08-19 06:39:53.944,0.29,-0.37
2021-08-19 06:39:53.948,0.28,-0.425
2021-08-19 06:39:53.952,0.29,-0.465
2021-08-19 06:39:53.956,0.28,-0.46
2021-08-19 06:39:53.960,0.29,-0.435
2021-08-19 06:39:53.964,0.285,-0.445
2021-08-19 06:39:53.968,0.285,-0.445
2021-08-19 06:39:53.972,0.245,-0.47
2021-08-19 06:39:53.976,0.245,-0.475
2021-08-19 06:39:53.980,0.225,-0.48
2021-08-19 06:39:53.984,0.24,-0.5
2021-08-19 06:39:53.988,0.25,-0.525
2021-08-19 06:39:53.992,0.255,-0.525
2021-08-19 06:39:53.996,0.275,-0.475
2021-08-19 06:39:54.000,0.26,-0.415
2021-08-19 06:39:54.004,0.25,-0.33
2021-08-19 06:39:54.008,0.245,-0.295
2021-08-19 06:39:54.012,0.215,-0.245
2021-08-19 06:39:54.016,0.19,-0.265
2021-08-19 06:39:54.020,0.15,-0.27
2021-08-19 06:39:54.024,0.13,-0.28
2021-08-19 06:39:54.028,0.13,-0.275
2021-08-19 06:39:54.032,0.13,-0.24
2021-08-19 06:39:54.036,0.13,-0.205
2021-08-19 06:39:54.040,0.155,-0.2
2021-08-19 06:39:54.044,0.145,-0.19
2021-08-19 06:39:54.048,0.125,-0.175
2021-08-19 06:39:54.052,0.08,-0.185
2021-08-19 06:39:54.056,0.09,-0.18
2021-08-19 06:39:54.060,0.085,-0.15
2021-08-19 06:39:54.064,0.1,-0.13
2021-08-19 06:39:54.068,0.115,-0.1
2021-08-19 06:39:54.072,0.135,-0.09
2021-08-19 06:39:54.076,0.135,-0.08
2021-08-19 06:39:54.080,0.125,-0.03
2021-08-19 06:39:54.084,0.135,0.015
2021-08-19 06:39:54.088,0.14,0.03
2021-08-19 06:39:54.092,0.17,0.01
2021-08-19 06:39:54.096,0.18,-0.035
2021-08-19 06:39:54.100,0.205,-0.07
2021-08-19 06:39:54.104,0.21,-0.055
2021-08-19 06:39:54.108,0.205,-0.045
2021-08-19 06:39:54.112,0.23,-0.015
2021-08-19 06:39:54.116,0.26,0.0
2021-08-19 06:39:54.120,0.28,0.025
2021-08-19 06:39:54.124,0.28,0.035
2021-08-19 06:39:54.128,0.265,0.07
2021-08-19 06:39:54.132,0.265,0.08
2021-08-19 06:39:54.136,0.25,0.095
2021-08-19 06:39:54.140,0.245,0.08
2021-08-19 06:39:54.144,0.265,0.045
2021-08-19 06:39:54.148,0.29,0.005
2021-08-19 06:39:54.152,0.3,-0.005
2021-08-19 06:39:54.156,0.31,-0.015
2021-08-19 06:39:54.160,0.305,-0.025
2021-08-19 06:39:54.164,0.315,-0.07
2021-08-19 06:39:54.168,0.315,-0.14
2021-08-19 06:39:54.172,0.31,-0.175
2021-08-19 06:39:54.176,0.29,-0.21
2021-08-19 06:39:54.180,0.26,-0.185
2021-08-19 06:39:54.184,0.22,-0.145
2021-08-19 06:39:54.188,0.235,-0.155
2021-08-19 06:39:54.192,0.25,-0.15
2021-08-19 06:39:54.196,0.25,-0.135
2021-08-19 06:39:54.200,0.24,-0.11
2021-08-19 06:39:54.204,0.22,-0.005
2021-08-19 06:39:54.208,0.21,0.12
2021-08-19 06:39:54.212,0.205,0.4
2021-08-19 06:39:54.216,0.23,0.79
2021-08-19 06:39:54.220,0.22,1.25
2021-08-19 06:39:54.224,0.22,1.67
2021-08-19 06:39:54.228,0.21,1.875
2021-08-19 06:39:54.232,0.195,1.89
2021-08-19 06:39:54.236,0.165,1.76
2021-08-19 06:39:54.240,0.15,1.51
2021-08-19 06:39:54.244,0.135,1.13
2021-08-19 06:39:54.248,0.15,0.555
2021-08-19 06:39:54.252,0.09,-0.005
2021-08-19 06:39:54.256,-0.06,-0.33
2021-08-19 06:39:54.260,-0.315,-0.33
2021-08-19 06:39:54.264,-0.635,-0.2
2021-08-19 06:39:54.268,-0.92,-0.23
2021-08-19 06:39:54.272,-1.105,-0.38
2021-08-19 06:39:54.276,-1.18,-0.56
2021-08-19 06:39:54.280,-1.135,-0.7
2021-08-19 06:39:54.284,-0.85,-0.715
2021-08-19 06:39:54.288,-0.49,-0.685
2021-08-19 06:39:54.292,-0.2,-0.615
2021-08-19 06:39:54.296,-0.07,-0.5
2021-08-19 06:39:54.300,0.0,-0.455
2021-08-19 06:39:54.304,-0.025,-0.435
2021-08-19 06:39:54.308,-0.03,-0.42
2021-08-19 06:39:54.312,-0.02,-0.425
2021-08-19 06:39:54.316,-0.01,-0.4
2021-08-19 06:39:54.320,0.065,-0.4
2021-08-19 06:39:54.324,0.135,-0.35
2021-08-19 06:39:54.328,0.17,-0.315
2021-08-19 06:39:54.332,0.23,-0.345
2021-08-19 06:39:54.336,0.235,-0.37
2021-08-19 06:39:54.340,0.25,-0.355
2021-08-19 06:39:54.344,0.255,-0.32
2021-08-19 06:39:54.348,0.265,-0.28
2021-08-19 06:39:54.352,0.28,-0.255
2021-08-19 06:39:54.356,0.305,-0.24
2021-08-19 06:39:54.360,0.3,-0.23
2021-08-19 06:39:54.364,0.305,-0.21
2021-08-19 06:39:54.368,0.32,-0.22
2021-08-19 06:39:54.372,0.315,-0.235
2021-08-19 06:39:54.376,0.3,-0.265
2021-08-19 06:39:54.380,0.305,-0.28
2021-08-19 06:39:54.384,0.305,-0.33
2021-08-19 06:39:54.388,0.32,-0.385
2021-08-19 06:39:54.392,0.325,-0.4
2021-08-19 06:39:54.396,0.33,-0.415
2021-08-19 06:39:54.400,0.315,-0.405
2021-08-19 06:39:54.404,0.295,-0.4
2021-08-19 06:39:54.408,0.295,-0.44
2021-08-19 06:39:54.412,0.295,-0.43
2021-08-19 06:39:54.416,0.28,-0.46
2021-08-19 06:39:54.420,0.31,-0.47
2021-08-19 06:39:54.424,0.3,-0.485
2021-08-19 06:39:54.428,0.29,-0.48
2021-08-19 06:39:54.432,0.315,-0.465
2021-08-19 06:39:54.436,0.31,-0.47
2021-08-19 06:39:54.440,0.31,-0.515
2021-08-19 06:39:54.444,0.305,-0.575
2021-08-19 06:39:54.448,0.28,-0.595
2021-08-19 06:39:54.452,0.23,-0.57
2021-08-19 06:39:54.456,0.205,-0.545
2021-08-19 06:39:54.460,0.19,-0.545
2021-08-19 06:39:54.464,0.2,-0.51
2021-08-19 06:39:54.468,0.19,-0.555
2021-08-19 06:39:54.472,0.155,-0.59
2021-08-19 06:39:54.476,0.13,-0.615
2021-08-19 06:39:54.480,0.155,-0.615
2021-08-19 06:39:54.484,0.155,-0.56
2021-08-19 06:39:54.488,0.155,-0.53
2021-08-19 06:39:54.492,0.155,-0.495
2021-08-19 06:39:54.496,0.185,-0.505
2021-08-19 06:39:54.500,0.145,-0.475
2021-08-19 06:39:54.504,0.165,-0.44
2021-08-19 06:39:54.508,0.145,-0.395
2021-08-19 06:39:54.512,0.17,-0.38
2021-08-19 06:39:54.516,0.155,-0.335
2021-08-19 06:39:54.520,0.165,-0.28
2021-08-19 06:39:54.524,0.17,-0.225
2021-08-19 06:39:54.528,0.195,-0.215
2021-08-19 06:39:54.532,0.2,-0.175
2021-08-19 06:39:54.536,0.195,-0.15
2021-08-19 06:39:54.540,0.235,-0.105
2021-08-19 06:39:54.544,0.245,-0.07
2021-08-19 06:39:54.548,0.245,-0.07
2021-08-19 06:39:54.552,0.25,-0.06
2021-08-19 06:39:54.556,0.265,-0.05
2021-08-19 06:39:54.560,0.26,-0.035
2021-08-19 06:39:54.564,0.27,-0.035
2021-08-19 06:39:54.568,0.29,-0.03
2021-08-19 06:39:54.572,0.3,-0.025
2021-08-19 06:39:54.576,0.29,-0.03
2021-08-19 06:39:54.580,0.29,-0.02
2021-08-19 06:39:54.584,0.3,0.01
2021-08-19 06:39:54.588,0.295,0.045
2021-08-19 06:39:54.592,0.33,0.025
2021-08-19 06:39:54.596,0.315,0.035
2021-08-19 06:39:54.600,0.32,0.01
2021-08-19 06:39:54.604,0.315,-0.035
2021-08-19 06:39:54.608,0.34,-0.085
2021-08-19 06:39:54.612,0.32,-0.1
2021-08-19 06:39:54.616,0.33,-0.115
2021-08-19 06:39:54.620,0.315,-0.12
2021-08-19 06:39:54.624,0.315,-0.125
2021-08-19 06:39:54.628,0.315,-0.15
2021-08-19 06:39:54.632,0.315,-0.16
2021-08-19 06:39:54.636,0.29,-0.16
2021-08-19 06:39:54.640,0.305,-0.115
2021-08-19 06:39:54.644,0.29,-0.085
2021-08-19 06:39:54.648,0.28,-0.1
2021-08-19 06:39:54.652,0.3,-0.135
2021-08-19 06:39:54.656,0.31,-0.17
2021-08-19 06:39:54.660,0.31,-0.18
2021-08-19 06:39:54.664,0.325,-0.195
2021-08-19 06:39:54.668,0.31,-0.2
2021-08-19 06:39:54.672,0.275,-0.215
2021-08-19 06:39:54.676,0.235,-0.19
2021-08-19 06:39:54.680,0.175,-0.22
2021-08-19 06:39:54.684,0.15,-0.22
2021-08-19 06:39:54.688,0.125,-0.23
2021-08-19 06:39:54.692,0.135,-0.235
2021-08-19 06:39:54.696,0.115,-0.24
2021-08-19 06:39:54.700,0.11,-0.235
2021-08-19 06:39:54.704,0.14,-0.23
2021-08-19 06:39:54.708,0.12,-0.23
2021-08-19 06:39:54.712,0.105,-0.24
2021-08-19 06:39:54.716,0.125,-0.28
2021-08-19 06:39:54.720,0.1,-0.27
2021-08-19 06:39:54.724,0.09,-0.275
2021-08-19 06:39:54.728,0.095,-0.295
2021-08-19 06:39:54.732,0.12,-0.29
2021-08-19 06:39:54.736,0.135,-0.28
2021-08-19 06:39:54.740,0.125,-0.235
2021-08-19 06:39:54.744,0.125,-0.195
2021-08-19 06:39:54.748,0.105,-0.18
2021-08-19 06:39:54.752,0.125,-0.155
2021-08-19 06:39:54.756,0.125,-0.14
2021-08-19 06:39:54.760,0.12,-0.12
2021-08-19 06:39:54.764,0.14,-0.11
2021-08-19 06:39:54.768,0.155,-0.12
2021-08-19 06:39:54.772,0.205,-0.135
2021-08-19 06:39:54.776,0.21,-0.145
2021-08-19 06:39:54.780,0.195,-0.1
2021-08-19 06:39:54.784,0.185,-0.095
2021-08-19 06:39:54.788,0.21,-0.075
2021-08-19 06:39:54.792,0.22,-0.065
2021-08-19 06:39:54.796,0.235,-0.06
2021-08-19 06:39:54.800,0.23,-0.055
2021-08-19 06:39:54.804,0.27,-0.075
2021-08-19 06:39:54.808,0.245,-0.065
2021-08-19 06:39:54.812,0.26,-0.03
2021-08-19 06:39:54.816,0.28,-0.04
2021-08-19 06:39:54.820,0.27,-0.045
2021-08-19 06:39:54.824,0.27,-0.04
2021-08-19 06:39:54.828,0.27,-0.07
2021-08-19 06:39:54.832,0.26,-0.075
2021-08-19 06:39:54.836,0.265,-0.12
2021-08-19 06:39:54.840,0.275,-0.14
2021-08-19 06:39:54.844,0.255,-0.175
2021-08-19 06:39:54.848,0.26,-0.21
2021-08-19 06:39:54.852,0.245,-0.24
2021-08-19 06:39:54.856,0.24,-0.255
2021-08-19 06:39:54.860,0.225,-0.25
2021-08-19 06:39:54.864,0.21,-0.235
2021-08-19 06:39:54.868,0.22,-0.245
2021-08-19 06:39:54.872,0.22,-0.275
2021-08-19 06:39:54.876,0.215,-0.265
2021-08-19 06:39:54.880,0.195,-0.18
2021-08-19 06:39:54.884,0.215,-0.095
2021-08-19 06:39:54.888,0.23,-0.015
2021-08-19 06:39:54.892,0.255,0.06
2021-08-19 06:39:54.896,0.245,0.265
2021-08-19 06:39:54.900,0.26,0.69
2021-08-19 06:39:54.904,0.235,1.145
