Time,ECG1,ECG2
2021-08-19 23:41:37.316,-0.01,-0.51
2021-08-19 23:41:37.320,0.015,-0.495
2021-08-19 23:41:37.324,-0.005,-0.51
2021-08-19 23:41:37.328,0.01,-0.52
2021-08-19 23:41:37.332,0.03,-0.525
2021-08-19 23:41:37.336,0.005,-0.525
2021-08-19 23:41:37.340,0.015,-0.525
2021-08-19 23:41:37.344,0.01,-0.535
2021-08-19 23:41:37.348,0.015,-0.54
2021-08-19 23:41:37.352,0.01,-0.53
2021-08-19 23:41:37.356,0.01,-0.54
2021-08-19 23:41:37.360,0.005,-0.535
2021-08-19 23:41:37.364,0.04,-0.52
2021-08-19 23:41:37.368,0.035,-0.52
2021-08-19 23:41:37.372,0.05,-0.495
2021-08-19 23:41:37.376,0.06,-0.49
2021-08-19 23:41:37.380,0.065,-0.455
2021-08-19 23:41:37.384,0.045,-0.455
2021-08-19 23:41:37.388,0.045,-0.48
2021-08-19 23:41:37.392,0.07,-0.475
2021-08-19 23:41:37.396,0.065,-0.43
2021-08-19 23:41:37.400,0.045,-0.4
2021-08-19 23:41:37.404,0.03,-0.41
2021-08-19 23:41:37.408,0.04,-0.42
2021-08-19 23:41:37.412,0.08,-0.44
2021-08-19 23:41:37.416,0.075,-0.445
2021-08-19 23:41:37.420,0.09,-0.44
2021-08-19 23:41:37.424,0.085,-0.44
2021-08-19 23:41:37.428,0.09,-0.395
2021-08-19 23:41:37.432,0.12,-0.39
2021-08-19 23:41:37.436,0.12,-0.405
2021-08-19 23:41:37.440,0.13,-0.4
2021-08-19 23:41:37.444,0.1,-0.42
2021-08-19 23:41:37.448,0.07,-0.385
2021-08-19 23:41:37.452,0.02,-0.41
2021-08-19 23:41:37.456,-0.025,-0.43
2021-08-19 23:41:37.460,0.0,-0.415
2021-08-19 23:41:37.464,0.005,-0.415
2021-08-19 23:41:37.468,-0.02,-0.435
2021-08-19 23:41:37.472,-0.02,-0.415
2021-08-19 23:41:37.476,-0.025,-0.445
2021-08-19 23:41:37.480,-0.01,-0.43
2021-08-19 23:41:37.484,-0.015,-0.47
2021-08-19 23:41:37.488,-0.03,-0.505
2021-08-19 23:41:37.492,-0.03,-0.5
2021-08-19 23:41:37.496,-0.005,-0.485
2021-08-19 23:41:37.500,-0.02,-0.475
2021-08-19 23:41:37.504,-0.075,-0.48
2021-08-19 23:41:37.508,-0.05,-0.465
2021-08-19 23:41:37.512,-0.03,-0.485
2021-08-19 23:41:37.516,-0.04,-0.47
2021-08-19 23:41:37.520,-0.025,-0.45
2021-08-19 23:41:37.524,-0.02,-0.45
2021-08-19 23:41:37.528,-0.01,-0.475
2021-08-19 23:41:37.532,-0.01,-0.505
2021-08-19 23:41:37.536,0.025,-0.465
2021-08-19 23:41:37.540,-0.025,-0.4
2021-08-19 23:41:37.544,-0.02,-0.395
2021-08-19 23:41:37.548,-0.04,-0.405
2021-08-19 23:41:37.552,-0.025,-0.38
2021-08-19 23:41:37.556,0.01,-0.36
2021-08-19 23:41:37.560,0.025,-0.34
2021-08-19 23:41:37.564,0.015,-0.405
2021-08-19 23:41:37.568,0.025,-0.43
2021-08-19 23:41:37.572,0.025,-0.425
2021-08-19 23:41:37.576,0.025,-0.41
2021-08-19 23:41:37.580,0.005,-0.405
2021-08-19 23:41:37.584,0.005,-0.39
2021-08-19 23:41:37.588,-0.005,-0.415
2021-08-19 23:41:37.592,0.0,-0.38
2021-08-19 23:41:37.596,0.0,-0.355
2021-08-19 23:41:37.600,-0.01,-0.375
2021-08-19 23:41:37.604,-0.04,-0.345
2021-08-19 23:41:37.608,-0.025,-0.325
2021-08-19 23:41:37.612,-0.03,-0.36
2021-08-19 23:41:37.616,-0.035,-0.355
2021-08-19 23:41:37.620,-0.01,-0.35
2021-08-19 23:41:37.624,-0.005,-0.34
2021-08-19 23:41:37.628,0.0,-0.34
2021-08-19 23:41:37.632,-0.005,-0.35
2021-08-19 23:41:37.636,0.01,-0.37
2021-08-19 23:41:37.640,0.005,-0.37
2021-08-19 23:41:37.644,-0.015,-0.38
2021-08-19 23:41:37.648,0.005,-0.395
2021-08-19 23:41:37.652,0.01,-0.395
2021-08-19 23:41:37.656,0.01,-0.36
2021-08-19 23:41:37.660,0.005,-0.34
2021-08-19 23:41:37.664,0.01,-0.35
2021-08-19 23:41:37.668,0.01,-0.355
2021-08-19 23:41:37.672,0.04,-0.35
2021-08-19 23:41:37.676,0.02,-0.31
2021-08-19 23:41:37.680,0.02,-0.23
2021-08-19 23:41:37.684,0.05,-0.065
2021-08-19 23:41:37.688,0.06,0.16
2021-08-19 23:41:37.692,0.175,0.445
2021-08-19 23:41:37.696,0.23,0.71
2021-08-19 23:41:37.700,0.145,0.91
2021-08-19 23:41:37.704,-0.225,1.135
2021-08-19 23:41:37.708,-0.825,1.37
2021-08-19 23:41:37.712,-1.57,1.595
2021-08-19 23:41:37.760,-2.0,1.13
2021-08-19 23:41:37.764,-1.83,1.055
2021-08-19 23:41:37.768,-1.67,0.685
2021-08-19 23:41:37.772,-1.545,0.24
2021-08-19 23:41:37.776,-1.375,-0.12
2021-08-19 23:41:37.780,-1.225,-0.34
2021-08-19 23:41:37.784,-1.015,-0.49
2021-08-19 23:41:37.788,-0.85,-0.56
2021-08-19 23:41:37.792,-0.64,-0.645
2021-08-19 23:41:37.796,-0.38,-0.73
2021-08-19 23:41:37.800,-0.17,-0.72
2021-08-19 23:41:37.804,0.0,-0.685
2021-08-19 23:41:37.808,0.14,-0.7
2021-08-19 23:41:37.812,0.29,-0.695
2021-08-19 23:41:37.816,0.355,-0.7
2021-08-19 23:41:37.820,0.395,-0.715
2021-08-19 23:41:37.824,0.46,-0.71
2021-08-19 23:41:37.828,0.465,-0.705
2021-08-19 23:41:37.832,0.505,-0.64
2021-08-19 23:41:37.836,0.525,-0.6
2021-08-19 23:41:37.840,0.53,-0.585
2021-08-19 23:41:37.844,0.57,-0.57
2021-08-19 23:41:37.848,0.605,-0.575
2021-08-19 23:41:37.852,0.655,-0.58
2021-08-19 23:41:37.856,0.675,-0.56
2021-08-19 23:41:37.860,0.725,-0.58
2021-08-19 23:41:37.864,0.705,-0.56
2021-08-19 23:41:37.868,0.72,-0.54
2021-08-19 23:41:37.872,0.745,-0.565
2021-08-19 23:41:37.876,0.73,-0.53
2021-08-19 23:41:37.880,0.745,-0.52
2021-08-19 23:41:37.884,0.735,-0.565
2021-08-19 23:41:37.888,0.735,-0.56
2021-08-19 23:41:37.892,0.73,-0.565
2021-08-19 23:41:37.896,0.75,-0.555
2021-08-19 23:41:37.900,0.75,-0.56
2021-08-19 23:41:37.904,0.77,-0.555
2021-08-19 23:41:37.908,0.77,-0.545
2021-08-19 23:41:37.912,0.82,-0.535
2021-08-19 23:41:37.916,0.84,-0.555
2021-08-19 23:41:37.920,0.885,-0.56
2021-08-19 23:41:37.924,0.92,-0.555
2021-08-19 23:41:37.928,0.965,-0.525
2021-08-19 23:41:37.932,1.01,-0.52
2021-08-19 23:41:37.936,1.035,-0.54
2021-08-19 23:41:37.940,1.08,-0.52
2021-08-19 23:41:37.944,1.115,-0.52
2021-08-19 23:41:37.948,1.145,-0.55
2021-08-19 23:41:37.952,1.145,-0.57
2021-08-19 23:41:37.956,1.16,-0.59
2021-08-19 23:41:37.960,1.15,-0.575
2021-08-19 23:41:37.964,1.095,-0.525
2021-08-19 23:41:37.968,1.07,-0.5
2021-08-19 23:41:37.972,1.06,-0.445
2021-08-19 23:41:37.976,1.025,-0.39
2021-08-19 23:41:37.980,0.99,-0.355
2021-08-19 23:41:37.984,0.955,-0.35
2021-08-19 23:41:37.988,0.885,-0.32
2021-08-19 23:41:37.992,0.835,-0.25
2021-08-19 23:41:37.996,0.78,-0.27
2021-08-19 23:41:38.000,0.69,-0.245
2021-08-19 23:41:38.004,0.62,-0.23
2021-08-19 23:41:38.008,0.57,-0.225
2021-08-19 23:41:38.012,0.495,-0.23
2021-08-19 23:41:38.016,0.435,-0.24
2021-08-19 23:41:38.020,0.375,-0.26
2021-08-19 23:41:38.024,0.325,-0.275
2021-08-19 23:41:38.028,0.235,-0.28
2021-08-19 23:41:38.032,0.19,-0.3
2021-08-19 23:41:38.036,0.145,-0.315
2021-08-19 23:41:38.040,0.08,-0.33
2021-08-19 23:41:38.044,0.055,-0.325
2021-08-19 23:41:38.048,0.015,-0.385
2021-08-19 23:41:38.052,-0.01,-0.37
2021-08-19 23:41:38.056,0.0,-0.38
2021-08-19 23:41:38.060,0.0,-0.37
2021-08-19 23:41:38.064,0.0,-0.4
2021-08-19 23:41:38.068,-0.03,-0.43
2021-08-19 23:41:38.072,-0.025,-0.42
2021-08-19 23:41:38.076,-0.02,-0.42
2021-08-19 23:41:38.080,-0.035,-0.415
2021-08-19 23:41:38.084,-0.015,-0.44
2021-08-19 23:41:38.088,0.02,-0.425
2021-08-19 23:41:38.092,0.015,-0.435
2021-08-19 23:41:38.096,0.03,-0.43
2021-08-19 23:41:38.100,0.035,-0.42
2021-08-19 23:41:38.104,0.015,-0.435
2021-08-19 23:41:38.108,0.055,-0.39
2021-08-19 23:41:38.112,0.1,-0.4
2021-08-19 23:41:38.116,0.075,-0.395
2021-08-19 23:41:38.120,0.115,-0.425
2021-08-19 23:41:38.124,0.125,-0.415
2021-08-19 23:41:38.128,0.12,-0.435
2021-08-19 23:41:38.132,0.11,-0.45
2021-08-19 23:41:38.136,0.12,-0.455
2021-08-19 23:41:38.140,0.11,-0.425
2021-08-19 23:41:38.144,0.09,-0.43
2021-08-19 23:41:38.148,0.075,-0.435
2021-08-19 23:41:38.152,0.095,-0.42
2021-08-19 23:41:38.156,0.08,-0.425
2021-08-19 23:41:38.160,0.08,-0.425
2021-08-19 23:41:38.164,0.09,-0.45
2021-08-19 23:41:38.168,0.065,-0.45
2021-08-19 23:41:38.172,0.045,-0.445
2021-08-19 23:41:38.176,0.02,-0.43
2021-08-19 23:41:38.180,-0.005,-0.465
2021-08-19 23:41:38.184,-0.025,-0.465
2021-08-19 23:41:38.188,-0.025,-0.47
2021-08-19 23:41:38.192,-0.035,-0.47
2021-08-19 23:41:38.196,-0.05,-0.46
2021-08-19 23:41:38.200,-0.035,-0.51
2021-08-19 23:41:38.204,-0.055,-0.505
2021-08-19 23:41:38.208,-0.04,-0.52
2021-08-19 23:41:38.212,-0.07,-0.52
2021-08-19 23:41:38.216,-0.075,-0.52
2021-08-19 23:41:38.220,-0.08,-0.535
2021-08-19 23:41:38.224,-0.06,-0.525
2021-08-19 23:41:38.228,-0.07,-0.5
2021-08-19 23:41:38.232,-0.085,-0.46
2021-08-19 23:41:38.236,-0.065,-0.42
2021-08-19 23:41:38.240,-0.045,-0.41
2021-08-19 23:41:38.244,-0.04,-0.41
2021-08-19 23:41:38.248,-0.02,-0.425
2021-08-19 23:41:38.252,0.02,-0.405
2021-08-19 23:41:38.256,0.01,-0.4
2021-08-19 23:41:38.260,0.035,-0.375
2021-08-19 23:41:38.264,0.02,-0.4
2021-08-19 23:41:38.268,0.04,-0.385
2021-08-19 23:41:38.272,0.05,-0.38
2021-08-19 23:41:38.276,0.045,-0.38
2021-08-19 23:41:38.280,0.035,-0.38
2021-08-19 23:41:38.284,0.05,-0.4
2021-08-19 23:41:38.288,0.06,-0.38
2021-08-19 23:41:38.292,0.05,-0.35
2021-08-19 23:41:38.296,0.02,-0.34
2021-08-19 23:41:38.300,0.04,-0.355
2021-08-19 23:41:38.304,0.045,-0.36
2021-08-19 23:41:38.308,0.035,-0.37
2021-08-19 23:41:38.312,0.025,-0.385
2021-08-19 23:41:38.316,0.03,-0.39
2021-08-19 23:41:38.320,-0.01,-0.385
2021-08-19 23:41:38.324,-0.035,-0.385
2021-08-19 23:41:38.328,-0.06,-0.4
2021-08-19 23:41:38.332,-0.06,-0.41
2021-08-19 23:41:38.336,-0.1,-0.37
2021-08-19 23:41:38.340,-0.1,-0.315
2021-08-19 23:41:38.344,-0.09,-0.13
2021-08-19 23:41:38.348,-0.06,0.13
2021-08-19 23:41:38.352,0.02,0.465
2021-08-19 23:41:38.356,0.075,0.75
2021-08-19 23:41:38.360,-0.075,0.92
2021-08-19 23:41:38.364,-0.43,1.14
2021-08-19 23:41:38.368,-1.045,1.39
2021-08-19 23:41:38.372,-1.755,1.625
2021-08-19 23:41:38.416,-1.925,1.16
2021-08-19 23:41:38.420,-1.81,1.18
2021-08-19 23:41:38.424,-1.675,1.04
2021-08-19 23:41:38.428,-1.515,0.655
2021-08-19 23:41:38.432,-1.42,0.22
2021-08-19 23:41:38.436,-1.31,-0.12
2021-08-19 23:41:38.440,-1.2,-0.365
2021-08-19 23:41:38.444,-1.02,-0.51
2021-08-19 23:41:38.448,-0.805,-0.59
2021-08-19 23:41:38.452,-0.625,-0.66
2021-08-19 23:41:38.456,-0.395,-0.71
2021-08-19 23:41:38.460,-0.2,-0.68
2021-08-19 23:41:38.464,-0.04,-0.675
2021-08-19 23:41:38.468,0.12,-0.68
2021-08-19 23:41:38.472,0.22,-0.715
2021-08-19 23:41:38.476,0.29,-0.69
2021-08-19 23:41:38.480,0.34,-0.68
2021-08-19 23:41:38.484,0.405,-0.665
2021-08-19 23:41:38.488,0.41,-0.675
2021-08-19 23:41:38.492,0.47,-0.7
2021-08-19 23:41:38.496,0.51,-0.65
2021-08-19 23:41:38.500,0.57,-0.67
2021-08-19 23:41:38.504,0.59,-0.655
2021-08-19 23:41:38.508,0.58,-0.64
2021-08-19 23:41:38.512,0.605,-0.635
2021-08-19 23:41:38.516,0.635,-0.615
2021-08-19 23:41:38.520,0.655,-0.61
2021-08-19 23:41:38.524,0.675,-0.59
2021-08-19 23:41:38.528,0.71,-0.565
2021-08-19 23:41:38.532,0.715,-0.565
2021-08-19 23:41:38.536,0.76,-0.585
2021-08-19 23:41:38.540,0.78,-0.56
2021-08-19 23:41:38.544,0.81,-0.56
2021-08-19 23:41:38.548,0.865,-0.57
2021-08-19 23:41:38.552,0.87,-0.6
2021-08-19 23:41:38.556,0.895,-0.63
2021-08-19 23:41:38.560,0.94,-0.635
2021-08-19 23:41:38.564,0.96,-0.67
2021-08-19 23:41:38.568,0.98,-0.695
2021-08-19 23:41:38.572,1.01,-0.72
2021-08-19 23:41:38.576,1.005,-0.735
2021-08-19 23:41:38.580,1.0,-0.73
2021-08-19 23:41:38.584,0.995,-0.76
2021-08-19 23:41:38.588,0.985,-0.755
2021-08-19 23:41:38.592,0.995,-0.78
2021-08-19 23:41:38.596,1.005,-0.76
2021-08-19 23:41:38.600,0.995,-0.8
2021-08-19 23:41:38.604,0.98,-0.81
2021-08-19 23:41:38.608,1.0,-0.77
2021-08-19 23:41:38.612,0.965,-0.755
2021-08-19 23:41:38.616,0.975,-0.74
2021-08-19 23:41:38.620,0.955,-0.74
2021-08-19 23:41:38.624,0.93,-0.68
2021-08-19 23:41:38.628,0.92,-0.625
2021-08-19 23:41:38.632,0.895,-0.595
2021-08-19 23:41:38.636,0.84,-0.55
2021-08-19 23:41:38.640,0.8,-0.495
2021-08-19 23:41:38.644,0.755,-0.435
2021-08-19 23:41:38.648,0.735,-0.375
2021-08-19 23:41:38.652,0.705,-0.36
2021-08-19 23:41:38.656,0.64,-0.31
2021-08-19 23:41:38.660,0.6,-0.295
2021-08-19 23:41:38.664,0.55,-0.285
2021-08-19 23:41:38.668,0.495,-0.27
2021-08-19 23:41:38.672,0.465,-0.23
2021-08-19 23:41:38.676,0.395,-0.2
2021-08-19 23:41:38.680,0.36,-0.19
2021-08-19 23:41:38.684,0.35,-0.215
2021-08-19 23:41:38.688,0.355,-0.23
2021-08-19 23:41:38.692,0.355,-0.235
2021-08-19 23:41:38.696,0.34,-0.24
2021-08-19 23:41:38.700,0.31,-0.26
2021-08-19 23:41:38.704,0.3,-0.275
2021-08-19 23:41:38.708,0.28,-0.25
2021-08-19 23:41:38.712,0.26,-0.25
2021-08-19 23:41:38.716,0.235,-0.285
2021-08-19 23:41:38.720,0.25,-0.285
2021-08-19 23:41:38.724,0.24,-0.3
2021-08-19 23:41:38.728,0.21,-0.31
2021-08-19 23:41:38.732,0.18,-0.33
2021-08-19 23:41:38.736,0.13,-0.35
2021-08-19 23:41:38.740,0.115,-0.355
2021-08-19 23:41:38.744,0.07,-0.34
2021-08-19 23:41:38.748,0.08,-0.37
2021-08-19 23:41:38.752,0.05,-0.37
2021-08-19 23:41:38.756,0.055,-0.35
2021-08-19 23:41:38.760,0.075,-0.315
2021-08-19 23:41:38.764,0.06,-0.245
2021-08-19 23:41:38.768,0.065,-0.16
2021-08-19 23:41:38.772,0.15,0.015
2021-08-19 23:41:38.776,0.285,0.265
2021-08-19 23:41:38.780,0.36,0.44
2021-08-19 23:41:38.784,0.22,0.595
2021-08-19 23:41:38.788,-0.22,0.86
2021-08-19 23:41:38.792,-0.995,1.1
2021-08-19 23:41:38.796,-1.625,1.305
2021-08-19 23:41:38.836,-1.905,1.085
2021-08-19 23:41:38.840,-1.81,1.05
2021-08-19 23:41:38.844,-1.665,0.915
2021-08-19 23:41:38.848,-1.54,0.57
2021-08-19 23:41:38.852,-1.415,0.1
2021-08-19 23:41:38.856,-1.295,-0.345
2021-08-19 23:41:38.860,-1.21,-0.55
2021-08-19 23:41:38.864,-1.095,-0.67
2021-08-19 23:41:38.868,-0.91,-0.68
2021-08-19 23:41:38.872,-0.69,-0.66
2021-08-19 23:41:38.876,-0.44,-0.655
2021-08-19 23:41:38.880,-0.19,-0.62
2021-08-19 23:41:38.884,0.015,-0.6
2021-08-19 23:41:38.888,0.23,-0.63
2021-08-19 23:41:38.892,0.36,-0.64
2021-08-19 23:41:38.896,0.44,-0.66
2021-08-19 23:41:38.900,0.47,-0.66
2021-08-19 23:41:38.904,0.54,-0.67
2021-08-19 23:41:38.908,0.55,-0.665
2021-08-19 23:41:38.912,0.57,-0.66
2021-08-19 23:41:38.916,0.62,-0.67
2021-08-19 23:41:38.920,0.655,-0.685
2021-08-19 23:41:38.924,0.68,-0.67
2021-08-19 23:41:38.928,0.68,-0.695
2021-08-19 23:41:38.932,0.72,-0.69
2021-08-19 23:41:38.936,0.715,-0.63
2021-08-19 23:41:38.940,0.725,-0.61
2021-08-19 23:41:38.944,0.715,-0.61
2021-08-19 23:41:38.948,0.78,-0.58
2021-08-19 23:41:38.952,0.795,-0.59
2021-08-19 23:41:38.956,0.82,-0.57
2021-08-19 23:41:38.960,0.86,-0.58
2021-08-19 23:41:38.964,0.875,-0.585
2021-08-19 23:41:38.968,0.91,-0.57
2021-08-19 23:41:38.972,0.935,-0.585
2021-08-19 23:41:38.976,0.97,-0.59
2021-08-19 23:41:38.980,0.98,-0.61
2021-08-19 23:41:38.984,1.02,-0.625
2021-08-19 23:41:38.988,1.05,-0.63
2021-08-19 23:41:38.992,1.1,-0.66
2021-08-19 23:41:38.996,1.105,-0.69
2021-08-19 23:41:39.000,1.115,-0.715
2021-08-19 23:41:39.004,1.145,-0.715
2021-08-19 23:41:39.008,1.15,-0.745
2021-08-19 23:41:39.012,1.18,-0.78
2021-08-19 23:41:39.016,1.185,-0.79
2021-08-19 23:41:39.020,1.22,-0.815
2021-08-19 23:41:39.024,1.205,-0.815
2021-08-19 23:41:39.028,1.195,-0.79
2021-08-19 23:41:39.032,1.13,-0.75
2021-08-19 23:41:39.036,1.085,-0.71
2021-08-19 23:41:39.040,1.025,-0.66
2021-08-19 23:41:39.044,1.0,-0.64
2021-08-19 23:41:39.048,0.98,-0.595
2021-08-19 23:41:39.052,0.94,-0.55
2021-08-19 23:41:39.056,0.905,-0.49
2021-08-19 23:41:39.060,0.865,-0.49
2021-08-19 23:41:39.064,0.81,-0.445
2021-08-19 23:41:39.068,0.76,-0.425
2021-08-19 23:41:39.072,0.68,-0.42
2021-08-19 23:41:39.076,0.63,-0.38
2021-08-19 23:41:39.080,0.585,-0.35
2021-08-19 23:41:39.084,0.5,-0.32
2021-08-19 23:41:39.088,0.465,-0.32
2021-08-19 23:41:39.092,0.445,-0.32
2021-08-19 23:41:39.096,0.395,-0.295
2021-08-19 23:41:39.100,0.365,-0.285
2021-08-19 23:41:39.104,0.35,-0.275
2021-08-19 23:41:39.108,0.335,-0.29
2021-08-19 23:41:39.112,0.32,-0.31
2021-08-19 23:41:39.116,0.335,-0.285
2021-08-19 23:41:39.120,0.28,-0.28
2021-08-19 23:41:39.124,0.26,-0.295
2021-08-19 23:41:39.128,0.27,-0.29
2021-08-19 23:41:39.132,0.255,-0.29
2021-08-19 23:41:39.136,0.245,-0.27
2021-08-19 23:41:39.140,0.255,-0.29
2021-08-19 23:41:39.144,0.24,-0.32
2021-08-19 23:41:39.148,0.24,-0.32
2021-08-19 23:41:39.152,0.265,-0.305
2021-08-19 23:41:39.156,0.25,-0.305
2021-08-19 23:41:39.160,0.235,-0.33
2021-08-19 23:41:39.164,0.235,-0.33
2021-08-19 23:41:39.168,0.23,-0.32
2021-08-19 23:41:39.172,0.23,-0.31
2021-08-19 23:41:39.176,0.205,-0.35
2021-08-19 23:41:39.180,0.22,-0.35
2021-08-19 23:41:39.184,0.21,-0.37
2021-08-19 23:41:39.188,0.19,-0.4
2021-08-19 23:41:39.192,0.185,-0.46
2021-08-19 23:41:39.196,0.135,-0.43
2021-08-19 23:41:39.200,0.08,-0.435
2021-08-19 23:41:39.204,0.025,-0.395
2021-08-19 23:41:39.208,0.0,-0.42
2021-08-19 23:41:39.212,0.005,-0.42
2021-08-19 23:41:39.216,0.025,-0.39
2021-08-19 23:41:39.220,0.02,-0.375
2021-08-19 23:41:39.224,0.06,-0.38
2021-08-19 23:41:39.228,0.06,-0.37
2021-08-19 23:41:39.232,0.075,-0.375
2021-08-19 23:41:39.236,0.065,-0.355
2021-08-19 23:41:39.240,0.07,-0.38
2021-08-19 23:41:39.244,0.07,-0.39
2021-08-19 23:41:39.248,0.09,-0.365
2021-08-19 23:41:39.252,0.125,-0.36
2021-08-19 23:41:39.256,0.105,-0.365
2021-08-19 23:41:39.260,0.11,-0.395
2021-08-19 23:41:39.264,0.09,-0.4
2021-08-19 23:41:39.268,0.105,-0.385
2021-08-19 23:41:39.272,0.115,-0.395
2021-08-19 23:41:39.276,0.105,-0.4
2021-08-19 23:41:39.280,0.095,-0.385
2021-08-19 23:41:39.284,0.12,-0.36
2021-08-19 23:41:39.288,0.125,-0.34
2021-08-19 23:41:39.292,0.15,-0.34
2021-08-19 23:41:39.296,0.155,-0.335
2021-08-19 23:41:39.300,0.155,-0.295
2021-08-19 23:41:39.304,0.175,-0.3
2021-08-19 23:41:39.308,0.16,-0.305
2021-08-19 23:41:39.312,0.185,-0.32
2021-08-19 23:41:39.316,0.2,-0.31
2021-08-19 23:41:39.320,0.2,-0.325
2021-08-19 23:41:39.324,0.195,-0.335
2021-08-19 23:41:39.328,0.17,-0.37
2021-08-19 23:41:39.332,0.17,-0.35
2021-08-19 23:41:39.336,0.135,-0.34
2021-08-19 23:41:39.340,0.14,-0.34
2021-08-19 23:41:39.344,0.145,-0.335
2021-08-19 23:41:39.348,0.135,-0.335
2021-08-19 23:41:39.352,0.12,-0.34
2021-08-19 23:41:39.356,0.08,-0.32
2021-08-19 23:41:39.360,0.05,-0.335
2021-08-19 23:41:39.364,0.06,-0.345
2021-08-19 23:41:39.368,0.08,-0.35
2021-08-19 23:41:39.372,0.045,-0.33
2021-08-19 23:41:39.376,0.07,-0.335
2021-08-19 23:41:39.380,0.075,-0.355
2021-08-19 23:41:39.384,0.07,-0.345
2021-08-19 23:41:39.388,0.07,-0.335
2021-08-19 23:41:39.392,0.06,-0.35
2021-08-19 23:41:39.396,0.08,-0.34
2021-08-19 23:41:39.400,0.065,-0.345
2021-08-19 23:41:39.404,0.075,-0.31
2021-08-19 23:41:39.408,0.09,-0.315
2021-08-19 23:41:39.412,0.115,-0.32
2021-08-19 23:41:39.416,0.105,-0.29
2021-08-19 23:41:39.420,0.125,-0.29
2021-08-19 23:41:39.424,0.14,-0.3
2021-08-19 23:41:39.428,0.145,-0.29
2021-08-19 23:41:39.432,0.12,-0.305
2021-08-19 23:41:39.436,0.13,-0.285
2021-08-19 23:41:39.440,0.135,-0.295
2021-08-19 23:41:39.444,0.11,-0.32
2021-08-19 23:41:39.448,0.14,-0.36
2021-08-19 23:41:39.452,0.135,-0.325
2021-08-19 23:41:39.456,0.125,-0.32
2021-08-19 23:41:39.460,0.13,-0.32
2021-08-19 23:41:39.464,0.12,-0.31
2021-08-19 23:41:39.468,0.14,-0.26
2021-08-19 23:41:39.472,0.135,-0.215
2021-08-19 23:41:39.476,0.15,-0.115
2021-08-19 23:41:39.480,0.17,0.015
2021-08-19 23:41:39.484,0.19,0.22
2021-08-19 23:41:39.488,0.29,0.48
2021-08-19 23:41:39.492,0.275,0.675
2021-08-19 23:41:39.496,0.04,0.815
2021-08-19 23:41:39.500,-0.38,1.02
2021-08-19 23:41:39.504,-1.065,1.28
2021-08-19 23:41:39.508,-1.795,1.455
2021-08-19 23:41:39.548,-1.93,1.19
2021-08-19 23:41:39.552,-1.845,1.215
2021-08-19 23:41:39.556,-1.705,1.205
2021-08-19 23:41:39.560,-1.56,1.01
2021-08-19 23:41:39.564,-1.43,0.605
2021-08-19 23:41:39.568,-1.305,0.13
2021-08-19 23:41:39.572,-1.165,-0.175
2021-08-19 23:41:39.576,-1.015,-0.405
2021-08-19 23:41:39.580,-0.86,-0.52
2021-08-19 23:41:39.584,-0.705,-0.57
2021-08-19 23:41:39.588,-0.515,-0.615
2021-08-19 23:41:39.592,-0.265,-0.62
2021-08-19 23:41:39.596,-0.04,-0.6
2021-08-19 23:41:39.600,0.17,-0.585
2021-08-19 23:41:39.604,0.36,-0.605
2021-08-19 23:41:39.608,0.515,-0.59
2021-08-19 23:41:39.612,0.605,-0.57
2021-08-19 23:41:39.616,0.65,-0.59
2021-08-19 23:41:39.620,0.68,-0.585
2021-08-19 23:41:39.624,0.72,-0.58
2021-08-19 23:41:39.628,0.75,-0.57
2021-08-19 23:41:39.632,0.805,-0.57
2021-08-19 23:41:39.636,0.795,-0.585
2021-08-19 23:41:39.640,0.845,-0.57
2021-08-19 23:41:39.644,0.855,-0.565
2021-08-19 23:41:39.648,0.875,-0.57
2021-08-19 23:41:39.652,0.91,-0.57
2021-08-19 23:41:39.656,0.935,-0.58
2021-08-19 23:41:39.660,0.97,-0.55
2021-08-19 23:41:39.664,0.97,-0.52
2021-08-19 23:41:39.668,0.96,-0.525
2021-08-19 23:41:39.672,0.955,-0.55
2021-08-19 23:41:39.676,0.975,-0.54
2021-08-19 23:41:39.680,0.985,-0.535
2021-08-19 23:41:39.684,1.025,-0.575
2021-08-19 23:41:39.688,1.03,-0.59
2021-08-19 23:41:39.692,1.05,-0.57
2021-08-19 23:41:39.696,1.08,-0.56
2021-08-19 23:41:39.700,1.1,-0.57
2021-08-19 23:41:39.704,1.14,-0.6
2021-08-19 23:41:39.708,1.16,-0.635
2021-08-19 23:41:39.712,1.2,-0.635
2021-08-19 23:41:39.716,1.21,-0.665
2021-08-19 23:41:39.720,1.255,-0.645
2021-08-19 23:41:39.724,1.265,-0.64
2021-08-19 23:41:39.728,1.285,-0.63
2021-08-19 23:41:39.732,1.335,-0.635
2021-08-19 23:41:39.736,1.375,-0.635
2021-08-19 23:41:39.740,1.38,-0.62
2021-08-19 23:41:39.744,1.415,-0.62
2021-08-19 23:41:39.748,1.42,-0.605
2021-08-19 23:41:39.752,1.39,-0.585
2021-08-19 23:41:39.756,1.39,-0.55
2021-08-19 23:41:39.760,1.37,-0.52
2021-08-19 23:41:39.764,1.365,-0.49
2021-08-19 23:41:39.768,1.305,-0.49
2021-08-19 23:41:39.772,1.29,-0.485
2021-08-19 23:41:39.776,1.275,-0.435
2021-08-19 23:41:39.780,1.225,-0.405
2021-08-19 23:41:39.784,1.14,-0.37
2021-08-19 23:41:39.788,1.07,-0.36
2021-08-19 23:41:39.792,1.03,-0.3
2021-08-19 23:41:39.796,0.98,-0.28
2021-08-19 23:41:39.800,0.905,-0.24
2021-08-19 23:41:39.804,0.85,-0.245
2021-08-19 23:41:39.808,0.795,-0.24
2021-08-19 23:41:39.812,0.735,-0.215
2021-08-19 23:41:39.816,0.675,-0.24
2021-08-19 23:41:39.820,0.635,-0.26
2021-08-19 23:41:39.824,0.585,-0.26
2021-08-19 23:41:39.828,0.53,-0.24
2021-08-19 23:41:39.832,0.48,-0.235
2021-08-19 23:41:39.836,0.43,-0.265
2021-08-19 23:41:39.840,0.36,-0.31
2021-08-19 23:41:39.844,0.33,-0.34
2021-08-19 23:41:39.848,0.26,-0.3
2021-08-19 23:41:39.852,0.225,-0.32
2021-08-19 23:41:39.856,0.19,-0.335
2021-08-19 23:41:39.860,0.165,-0.305
2021-08-19 23:41:39.864,0.17,-0.31
2021-08-19 23:41:39.868,0.13,-0.305
2021-08-19 23:41:39.872,0.14,-0.3
2021-08-19 23:41:39.876,0.14,-0.32
2021-08-19 23:41:39.880,0.125,-0.3
2021-08-19 23:41:39.884,0.11,-0.31
2021-08-19 23:41:39.888,0.12,-0.315
2021-08-19 23:41:39.892,0.115,-0.335
2021-08-19 23:41:39.896,0.145,-0.33
2021-08-19 23:41:39.900,0.12,-0.305
2021-08-19 23:41:39.904,0.15,-0.32
2021-08-19 23:41:39.908,0.155,-0.335
2021-08-19 23:41:39.912,0.15,-0.315
2021-08-19 23:41:39.916,0.155,-0.315
2021-08-19 23:41:39.920,0.175,-0.32
2021-08-19 23:41:39.924,0.175,-0.355
2021-08-19 23:41:39.928,0.19,-0.33
2021-08-19 23:41:39.932,0.205,-0.335
2021-08-19 23:41:39.936,0.22,-0.37
2021-08-19 23:41:39.940,0.215,-0.38
2021-08-19 23:41:39.944,0.215,-0.365
2021-08-19 23:41:39.948,0.22,-0.36
2021-08-19 23:41:39.952,0.195,-0.385
2021-08-19 23:41:39.956,0.215,-0.39
2021-08-19 23:41:39.960,0.205,-0.375
2021-08-19 23:41:39.964,0.195,-0.37
2021-08-19 23:41:39.968,0.205,-0.405
2021-08-19 23:41:39.972,0.23,-0.42
2021-08-19 23:41:39.976,0.25,-0.45
2021-08-19 23:41:39.980,0.24,-0.425
2021-08-19 23:41:39.984,0.24,-0.415
2021-08-19 23:41:39.988,0.235,-0.41
2021-08-19 23:41:39.992,0.195,-0.425
2021-08-19 23:41:39.996,0.205,-0.435
2021-08-19 23:41:40.000,0.165,-0.415
2021-08-19 23:41:40.004,0.185,-0.415
2021-08-19 23:41:40.008,0.18,-0.415
2021-08-19 23:41:40.012,0.165,-0.41
2021-08-19 23:41:40.016,0.14,-0.38
2021-08-19 23:41:40.020,0.16,-0.41
2021-08-19 23:41:40.024,0.165,-0.41
2021-08-19 23:41:40.028,0.18,-0.39
2021-08-19 23:41:40.032,0.15,-0.385
2021-08-19 23:41:40.036,0.135,-0.39
2021-08-19 23:41:40.040,0.15,-0.4
2021-08-19 23:41:40.044,0.135,-0.395
2021-08-19 23:41:40.048,0.145,-0.365
2021-08-19 23:41:40.052,0.145,-0.355
2021-08-19 23:41:40.056,0.135,-0.32
2021-08-19 23:41:40.060,0.155,-0.355
2021-08-19 23:41:40.064,0.145,-0.345
2021-08-19 23:41:40.068,0.16,-0.365
2021-08-19 23:41:40.072,0.17,-0.36
2021-08-19 23:41:40.076,0.175,-0.355
2021-08-19 23:41:40.080,0.15,-0.36
2021-08-19 23:41:40.084,0.16,-0.37
2021-08-19 23:41:40.088,0.18,-0.38
2021-08-19 23:41:40.092,0.18,-0.365
2021-08-19 23:41:40.096,0.16,-0.35
2021-08-19 23:41:40.100,0.12,-0.36
2021-08-19 23:41:40.104,0.1,-0.355
2021-08-19 23:41:40.108,0.09,-0.375
2021-08-19 23:41:40.112,0.1,-0.385
2021-08-19 23:41:40.116,0.1,-0.385
2021-08-19 23:41:40.120,0.105,-0.38
2021-08-19 23:41:40.124,0.105,-0.37
2021-08-19 23:41:40.128,0.125,-0.34
2021-08-19 23:41:40.132,0.115,-0.29
2021-08-19 23:41:40.136,0.085,-0.28
2021-08-19 23:41:40.140,0.085,-0.285
2021-08-19 23:41:40.144,0.125,-0.28
2021-08-19 23:41:40.148,0.135,-0.29
2021-08-19 23:41:40.152,0.145,-0.265
2021-08-19 23:41:40.156,0.15,-0.265
2021-08-19 23:41:40.160,0.13,-0.275
2021-08-19 23:41:40.164,0.115,-0.27
2021-08-19 23:41:40.168,0.125,-0.28
2021-08-19 23:41:40.172,0.14,-0.28
2021-08-19 23:41:40.176,0.135,-0.27
2021-08-19 23:41:40.180,0.135,-0.26
2021-08-19 23:41:40.184,0.13,-0.265
2021-08-19 23:41:40.188,0.14,-0.23
2021-08-19 23:41:40.192,0.12,-0.195
2021-08-19 23:41:40.196,0.125,-0.085
2021-08-19 23:41:40.200,0.12,0.05
2021-08-19 23:41:40.204,0.19,0.26
2021-08-19 23:41:40.208,0.27,0.54
2021-08-19 23:41:40.212,0.27,0.71
2021-08-19 23:41:40.216,0.015,0.88
2021-08-19 23:41:40.220,-0.435,1.1
2021-08-19 23:41:40.224,-1.14,1.38
2021-08-19 23:41:40.228,-1.81,1.57
2021-08-19 23:41:40.272,-1.975,0.94
2021-08-19 23:41:40.276,-1.87,0.935
2021-08-19 23:41:40.280,-1.72,0.775
2021-08-19 23:41:40.284,-1.595,0.425
2021-08-19 23:41:40.288,-1.47,0.0
2021-08-19 23:41:40.292,-1.395,-0.27
2021-08-19 23:41:40.296,-1.235,-0.415
2021-08-19 23:41:40.300,-1.07,-0.52
2021-08-19 23:41:40.304,-0.92,-0.545
2021-08-19 23:41:40.308,-0.675,-0.545
2021-08-19 23:41:40.312,-0.44,-0.575
2021-08-19 23:41:40.316,-0.18,-0.585
2021-08-19 23:41:40.320,0.06,-0.575
2021-08-19 23:41:40.324,0.26,-0.565
2021-08-19 23:41:40.328,0.41,-0.55
2021-08-19 23:41:40.332,0.465,-0.595
2021-08-19 23:41:40.336,0.56,-0.585
2021-08-19 23:41:40.340,0.605,-0.565
2021-08-19 23:41:40.344,0.6,-0.54
2021-08-19 23:41:40.348,0.63,-0.55
2021-08-19 23:41:40.352,0.67,-0.55
2021-08-19 23:41:40.356,0.705,-0.525
2021-08-19 23:41:40.360,0.715,-0.54
2021-08-19 23:41:40.364,0.755,-0.525
2021-08-19 23:41:40.368,0.76,-0.555
2021-08-19 23:41:40.372,0.765,-0.58
2021-08-19 23:41:40.376,0.785,-0.555
2021-08-19 23:41:40.380,0.81,-0.54
2021-08-19 23:41:40.384,0.82,-0.55
2021-08-19 23:41:40.388,0.825,-0.575
2021-08-19 23:41:40.392,0.86,-0.58
2021-08-19 23:41:40.396,0.865,-0.595
2021-08-19 23:41:40.400,0.85,-0.59
2021-08-19 23:41:40.404,0.875,-0.615
2021-08-19 23:41:40.408,0.905,-0.605
2021-08-19 23:41:40.412,0.925,-0.6
2021-08-19 23:41:40.416,0.93,-0.61
2021-08-19 23:41:40.420,0.95,-0.625
2021-08-19 23:41:40.424,0.98,-0.625
2021-08-19 23:41:40.428,1.02,-0.615
2021-08-19 23:41:40.432,1.03,-0.565
2021-08-19 23:41:40.436,1.085,-0.555
2021-08-19 23:41:40.440,1.09,-0.585
2021-08-19 23:41:40.444,1.145,-0.605
2021-08-19 23:41:40.448,1.135,-0.625
2021-08-19 23:41:40.452,1.19,-0.61
2021-08-19 23:41:40.456,1.23,-0.59
2021-08-19 23:41:40.460,1.23,-0.56
2021-08-19 23:41:40.464,1.275,-0.52
2021-08-19 23:41:40.468,1.275,-0.555
2021-08-19 23:41:40.472,1.285,-0.545
2021-08-19 23:41:40.476,1.285,-0.545
2021-08-19 23:41:40.480,1.285,-0.505
2021-08-19 23:41:40.484,1.27,-0.495
2021-08-19 23:41:40.488,1.235,-0.475
2021-08-19 23:41:40.492,1.205,-0.41
2021-08-19 23:41:40.496,1.16,-0.405
2021-08-19 23:41:40.500,1.12,-0.365
2021-08-19 23:41:40.504,1.08,-0.375
2021-08-19 23:41:40.508,1.025,-0.315
2021-08-19 23:41:40.512,1.0,-0.295
2021-08-19 23:41:40.516,0.925,-0.255
2021-08-19 23:41:40.520,0.845,-0.265
2021-08-19 23:41:40.524,0.79,-0.25
2021-08-19 23:41:40.528,0.725,-0.23
2021-08-19 23:41:40.532,0.66,-0.24
2021-08-19 23:41:40.536,0.61,-0.26
2021-08-19 23:41:40.540,0.565,-0.275
2021-08-19 23:41:40.544,0.525,-0.27
2021-08-19 23:41:40.548,0.48,-0.26
2021-08-19 23:41:40.552,0.405,-0.295
2021-08-19 23:41:40.556,0.395,-0.3
2021-08-19 23:41:40.560,0.36,-0.29
2021-08-19 23:41:40.564,0.355,-0.29
2021-08-19 23:41:40.568,0.33,-0.31
2021-08-19 23:41:40.572,0.325,-0.315
2021-08-19 23:41:40.576,0.315,-0.3
2021-08-19 23:41:40.580,0.31,-0.315
2021-08-19 23:41:40.584,0.295,-0.355
2021-08-19 23:41:40.588,0.29,-0.41
2021-08-19 23:41:40.592,0.24,-0.47
2021-08-19 23:41:40.596,0.16,-0.415
2021-08-19 23:41:40.600,0.075,-0.41
2021-08-19 23:41:40.604,0.035,-0.4
2021-08-19 23:41:40.608,0.03,-0.375
2021-08-19 23:41:40.612,0.03,-0.375
2021-08-19 23:41:40.616,0.07,-0.35
2021-08-19 23:41:40.620,0.105,-0.355
2021-08-19 23:41:40.624,0.13,-0.36
2021-08-19 23:41:40.628,0.15,-0.375
2021-08-19 23:41:40.632,0.14,-0.38
2021-08-19 23:41:40.636,0.165,-0.38
2021-08-19 23:41:40.640,0.185,-0.385
2021-08-19 23:41:40.644,0.165,-0.395
2021-08-19 23:41:40.648,0.2,-0.4
2021-08-19 23:41:40.652,0.195,-0.435
2021-08-19 23:41:40.656,0.175,-0.425
2021-08-19 23:41:40.660,0.16,-0.445
2021-08-19 23:41:40.664,0.18,-0.445
2021-08-19 23:41:40.668,0.165,-0.45
2021-08-19 23:41:40.672,0.15,-0.44
2021-08-19 23:41:40.676,0.19,-0.44
2021-08-19 23:41:40.680,0.17,-0.475
2021-08-19 23:41:40.684,0.145,-0.465
2021-08-19 23:41:40.688,0.18,-0.455
2021-08-19 23:41:40.692,0.14,-0.44
2021-08-19 23:41:40.696,0.15,-0.43
2021-08-19 23:41:40.700,0.155,-0.425
2021-08-19 23:41:40.704,0.16,-0.43
2021-08-19 23:41:40.708,0.18,-0.43
2021-08-19 23:41:40.712,0.165,-0.44
2021-08-19 23:41:40.716,0.16,-0.405
2021-08-19 23:41:40.720,0.17,-0.405
2021-08-19 23:41:40.724,0.165,-0.435
2021-08-19 23:41:40.728,0.15,-0.445
2021-08-19 23:41:40.732,0.18,-0.445
2021-08-19 23:41:40.736,0.145,-0.41
2021-08-19 23:41:40.740,0.155,-0.375
2021-08-19 23:41:40.744,0.15,-0.365
2021-08-19 23:41:40.748,0.145,-0.345
2021-08-19 23:41:40.752,0.185,-0.32
2021-08-19 23:41:40.756,0.21,-0.315
2021-08-19 23:41:40.760,0.225,-0.32
2021-08-19 23:41:40.764,0.205,-0.315
2021-08-19 23:41:40.768,0.26,-0.32
2021-08-19 23:41:40.772,0.28,-0.29
2021-08-19 23:41:40.776,0.28,-0.29
2021-08-19 23:41:40.780,0.285,-0.29
2021-08-19 23:41:40.784,0.285,-0.33
2021-08-19 23:41:40.788,0.295,-0.32
2021-08-19 23:41:40.792,0.265,-0.32
2021-08-19 23:41:40.796,0.195,-0.345
2021-08-19 23:41:40.800,0.155,-0.345
2021-08-19 23:41:40.804,0.145,-0.34
2021-08-19 23:41:40.808,0.14,-0.365
2021-08-19 23:41:40.812,0.12,-0.425
2021-08-19 23:41:40.816,0.135,-0.4
2021-08-19 23:41:40.820,0.14,-0.39
2021-08-19 23:41:40.824,0.11,-0.375
2021-08-19 23:41:40.828,0.11,-0.4
2021-08-19 23:41:40.832,0.13,-0.39
2021-08-19 23:41:40.836,0.145,-0.395
2021-08-19 23:41:40.840,0.14,-0.4
2021-08-19 23:41:40.844,0.135,-0.395
2021-08-19 23:41:40.848,0.12,-0.39
2021-08-19 23:41:40.852,0.14,-0.355
2021-08-19 23:41:40.856,0.155,-0.365
2021-08-19 23:41:40.860,0.115,-0.395
2021-08-19 23:41:40.864,0.13,-0.4
2021-08-19 23:41:40.868,0.145,-0.405
2021-08-19 23:41:40.872,0.14,-0.365
2021-08-19 23:41:40.876,0.13,-0.3
2021-08-19 23:41:40.880,0.105,-0.19
2021-08-19 23:41:40.884,0.11,-0.015
2021-08-19 23:41:40.888,0.18,0.235
2021-08-19 23:41:40.892,0.285,0.535
2021-08-19 23:41:40.896,0.315,0.795
2021-08-19 23:41:40.900,0.155,1.015
2021-08-19 23:41:40.904,-0.19,1.245
2021-08-19 23:41:40.908,-0.795,1.49
2021-08-19 23:41:40.912,-1.52,1.7
2021-08-19 23:41:40.952,-1.93,0.945
2021-08-19 23:41:40.956,-1.815,1.035
2021-08-19 23:41:40.960,-1.73,1.085
2021-08-19 23:41:40.964,-1.585,0.965
2021-08-19 23:41:40.968,-1.475,0.61
2021-08-19 23:41:40.972,-1.385,0.2
2021-08-19 23:41:40.976,-1.28,-0.14
2021-08-19 23:41:40.980,-1.17,-0.38
2021-08-19 23:41:40.984,-0.98,-0.515
2021-08-19 23:41:40.988,-0.795,-0.56
2021-08-19 23:41:40.992,-0.58,-0.59
2021-08-19 23:41:40.996,-0.32,-0.665
2021-08-19 23:41:41.000,-0.105,-0.65
2021-08-19 23:41:41.004,0.1,-0.63
2021-08-19 23:41:41.008,0.275,-0.655
2021-08-19 23:41:41.012,0.4,-0.68
2021-08-19 23:41:41.016,0.455,-0.66
2021-08-19 23:41:41.020,0.515,-0.615
2021-08-19 23:41:41.024,0.555,-0.62
2021-08-19 23:41:41.028,0.57,-0.615
2021-08-19 23:41:41.032,0.615,-0.6
2021-08-19 23:41:41.036,0.635,-0.58
2021-08-19 23:41:41.040,0.665,-0.58
2021-08-19 23:41:41.044,0.69,-0.6
2021-08-19 23:41:41.048,0.715,-0.575
2021-08-19 23:41:41.052,0.75,-0.555
2021-08-19 23:41:41.056,0.74,-0.545
2021-08-19 23:41:41.060,0.745,-0.575
2021-08-19 23:41:41.064,0.765,-0.575
2021-08-19 23:41:41.068,0.79,-0.57
2021-08-19 23:41:41.072,0.8,-0.545
2021-08-19 23:41:41.076,0.825,-0.58
2021-08-19 23:41:41.080,0.88,-0.59
2021-08-19 23:41:41.084,0.895,-0.575
2021-08-19 23:41:41.088,0.915,-0.6
2021-08-19 23:41:41.092,0.92,-0.615
2021-08-19 23:41:41.096,0.96,-0.635
2021-08-19 23:41:41.100,0.99,-0.635
2021-08-19 23:41:41.104,1.005,-0.64
2021-08-19 23:41:41.108,1.03,-0.64
2021-08-19 23:41:41.112,1.095,-0.695
2021-08-19 23:41:41.116,1.13,-0.68
2021-08-19 23:41:41.120,1.18,-0.685
2021-08-19 23:41:41.124,1.23,-0.67
2021-08-19 23:41:41.128,1.23,-0.685
2021-08-19 23:41:41.132,1.225,-0.68
2021-08-19 23:41:41.136,1.225,-0.71
2021-08-19 23:41:41.140,1.2,-0.74
2021-08-19 23:41:41.144,1.21,-0.72
2021-08-19 23:41:41.148,1.21,-0.68
2021-08-19 23:41:41.152,1.2,-0.65
2021-08-19 23:41:41.156,1.125,-0.6
2021-08-19 23:41:41.160,1.085,-0.57
2021-08-19 23:41:41.164,1.055,-0.54
2021-08-19 23:41:41.168,1.045,-0.48
2021-08-19 23:41:41.172,1.0,-0.45
2021-08-19 23:41:41.176,0.985,-0.445
2021-08-19 23:41:41.180,0.92,-0.385
2021-08-19 23:41:41.184,0.875,-0.355
2021-08-19 23:41:41.188,0.82,-0.33
2021-08-19 23:41:41.192,0.75,-0.305
2021-08-19 23:41:41.196,0.71,-0.28
2021-08-19 23:41:41.200,0.66,-0.27
2021-08-19 23:41:41.204,0.58,-0.285
2021-08-19 23:41:41.208,0.525,-0.29
2021-08-19 23:41:41.212,0.465,-0.31
2021-08-19 23:41:41.216,0.42,-0.3
2021-08-19 23:41:41.220,0.385,-0.315
2021-08-19 23:41:41.224,0.36,-0.33
2021-08-19 23:41:41.228,0.32,-0.365
2021-08-19 23:41:41.232,0.27,-0.365
2021-08-19 23:41:41.236,0.235,-0.375
2021-08-19 23:41:41.240,0.205,-0.395
2021-08-19 23:41:41.244,0.19,-0.395
2021-08-19 23:41:41.248,0.17,-0.43
2021-08-19 23:41:41.252,0.15,-0.41
2021-08-19 23:41:41.256,0.175,-0.395
2021-08-19 23:41:41.260,0.17,-0.385
2021-08-19 23:41:41.264,0.175,-0.39
2021-08-19 23:41:41.268,0.155,-0.425
2021-08-19 23:41:41.272,0.19,-0.41
2021-08-19 23:41:41.276,0.165,-0.445
2021-08-19 23:41:41.280,0.175,-0.47
2021-08-19 23:41:41.284,0.18,-0.465
2021-08-19 23:41:41.288,0.16,-0.45
2021-08-19 23:41:41.292,0.17,-0.42
2021-08-19 23:41:41.296,0.155,-0.405
2021-08-19 23:41:41.300,0.145,-0.415
2021-08-19 23:41:41.304,0.125,-0.4
2021-08-19 23:41:41.308,0.115,-0.375
2021-08-19 23:41:41.312,0.135,-0.39
2021-08-19 23:41:41.316,0.115,-0.415
2021-08-19 23:41:41.320,0.125,-0.425
2021-08-19 23:41:41.324,0.095,-0.45
2021-08-19 23:41:41.328,0.075,-0.46
2021-08-19 23:41:41.332,0.07,-0.45
2021-08-19 23:41:41.336,0.07,-0.48
2021-08-19 23:41:41.340,0.03,-0.47
2021-08-19 23:41:41.344,0.065,-0.48
2021-08-19 23:41:41.348,0.055,-0.485
2021-08-19 23:41:41.352,0.055,-0.495
2021-08-19 23:41:41.356,0.07,-0.505
2021-08-19 23:41:41.360,0.065,-0.505
2021-08-19 23:41:41.364,0.055,-0.52
2021-08-19 23:41:41.368,0.045,-0.53
2021-08-19 23:41:41.372,0.015,-0.495
2021-08-19 23:41:41.376,0.025,-0.505
2021-08-19 23:41:41.380,0.025,-0.505
2021-08-19 23:41:41.384,0.035,-0.51
2021-08-19 23:41:41.388,0.04,-0.48
2021-08-19 23:41:41.392,0.035,-0.485
2021-08-19 23:41:41.396,0.045,-0.495
2021-08-19 23:41:41.400,0.065,-0.515
2021-08-19 23:41:41.404,0.07,-0.515
2021-08-19 23:41:41.408,0.075,-0.505
2021-08-19 23:41:41.412,0.05,-0.53
2021-08-19 23:41:41.416,0.06,-0.52
2021-08-19 23:41:41.420,0.04,-0.485
2021-08-19 23:41:41.424,0.03,-0.44
2021-08-19 23:41:41.428,0.0,-0.435
2021-08-19 23:41:41.432,0.05,-0.43
2021-08-19 23:41:41.436,0.065,-0.435
2021-08-19 23:41:41.440,0.1,-0.4
2021-08-19 23:41:41.444,0.1,-0.415
2021-08-19 23:41:41.448,0.055,-0.44
2021-08-19 23:41:41.452,0.03,-0.44
2021-08-19 23:41:41.456,0.025,-0.43
2021-08-19 23:41:41.460,0.035,-0.46
2021-08-19 23:41:41.464,0.035,-0.46
2021-08-19 23:41:41.468,-0.01,-0.465
2021-08-19 23:41:41.472,0.0,-0.45
2021-08-19 23:41:41.476,-0.03,-0.45
2021-08-19 23:41:41.480,0.0,-0.445
2021-08-19 23:41:41.484,-0.04,-0.43
2021-08-19 23:41:41.488,-0.02,-0.41
2021-08-19 23:41:41.492,-0.015,-0.42
2021-08-19 23:41:41.496,-0.015,-0.435
2021-08-19 23:41:41.500,0.005,-0.435
2021-08-19 23:41:41.504,-0.005,-0.425
2021-08-19 23:41:41.508,0.005,-0.375
2021-08-19 23:41:41.512,-0.005,-0.41
2021-08-19 23:41:41.516,-0.005,-0.37
2021-08-19 23:41:41.520,0.015,-0.275
2021-08-19 23:41:41.524,0.05,-0.135
2021-08-19 23:41:41.528,0.045,0.11
2021-08-19 23:41:41.532,0.115,0.5
2021-08-19 23:41:41.536,0.2,0.835
2021-08-19 23:41:41.540,0.13,1.045
2021-08-19 23:41:41.544,-0.21,1.26
2021-08-19 23:41:41.548,-0.77,1.48
2021-08-19 23:41:41.552,-1.505,1.72
2021-08-19 23:41:41.596,-1.985,1.195
2021-08-19 23:41:41.600,-1.855,1.26
2021-08-19 23:41:41.604,-1.69,1.09
2021-08-19 23:41:41.608,-1.55,0.63
2021-08-19 23:41:41.612,-1.465,0.21
2021-08-19 23:41:41.616,-1.32,-0.145
2021-08-19 23:41:41.620,-1.21,-0.39
2021-08-19 23:41:41.624,-1.015,-0.565
2021-08-19 23:41:41.628,-0.845,-0.685
2021-08-19 23:41:41.632,-0.625,-0.74
2021-08-19 23:41:41.636,-0.395,-0.755
2021-08-19 23:41:41.640,-0.215,-0.73
2021-08-19 23:41:41.644,-0.025,-0.705
2021-08-19 23:41:41.648,0.16,-0.715
2021-08-19 23:41:41.652,0.305,-0.735
2021-08-19 23:41:41.656,0.36,-0.74
2021-08-19 23:41:41.660,0.405,-0.74
2021-08-19 23:41:41.664,0.455,-0.74
2021-08-19 23:41:41.668,0.485,-0.71
2021-08-19 23:41:41.672,0.495,-0.705
2021-08-19 23:41:41.676,0.54,-0.725
2021-08-19 23:41:41.680,0.565,-0.745
2021-08-19 23:41:41.684,0.575,-0.715
2021-08-19 23:41:41.688,0.58,-0.69
2021-08-19 23:41:41.692,0.59,-0.685
2021-08-19 23:41:41.696,0.62,-0.685
2021-08-19 23:41:41.700,0.63,-0.675
2021-08-19 23:41:41.704,0.665,-0.675
2021-08-19 23:41:41.708,0.66,-0.67
2021-08-19 23:41:41.712,0.665,-0.665
2021-08-19 23:41:41.716,0.68,-0.655
2021-08-19 23:41:41.720,0.705,-0.64
2021-08-19 23:41:41.724,0.705,-0.655
2021-08-19 23:41:41.728,0.72,-0.67
2021-08-19 23:41:41.732,0.75,-0.675
2021-08-19 23:41:41.736,0.77,-0.67
2021-08-19 23:41:41.740,0.785,-0.68
2021-08-19 23:41:41.744,0.8,-0.685
2021-08-19 23:41:41.748,0.83,-0.705
2021-08-19 23:41:41.752,0.87,-0.71
2021-08-19 23:41:41.756,0.915,-0.725
2021-08-19 23:41:41.760,0.94,-0.72
2021-08-19 23:41:41.764,0.955,-0.725
2021-08-19 23:41:41.768,0.99,-0.715
2021-08-19 23:41:41.772,1.01,-0.715
2021-08-19 23:41:41.776,1.045,-0.705
2021-08-19 23:41:41.780,1.05,-0.72
2021-08-19 23:41:41.784,1.07,-0.71
2021-08-19 23:41:41.788,1.095,-0.715
2021-08-19 23:41:41.792,1.095,-0.68
2021-08-19 23:41:41.796,1.065,-0.635
2021-08-19 23:41:41.800,1.045,-0.58
2021-08-19 23:41:41.804,1.03,-0.52
2021-08-19 23:41:41.808,0.99,-0.46
2021-08-19 23:41:41.812,0.94,-0.43
2021-08-19 23:41:41.816,0.935,-0.41
2021-08-19 23:41:41.820,0.905,-0.35
2021-08-19 23:41:41.824,0.845,-0.315
2021-08-19 23:41:41.828,0.83,-0.3
2021-08-19 23:41:41.832,0.725,-0.28
2021-08-19 23:41:41.836,0.665,-0.28
2021-08-19 23:41:41.840,0.62,-0.235
2021-08-19 23:41:41.844,0.59,-0.245
2021-08-19 23:41:41.848,0.5,-0.255
2021-08-19 23:41:41.852,0.45,-0.285
2021-08-19 23:41:41.856,0.385,-0.295
2021-08-19 23:41:41.860,0.33,-0.295
2021-08-19 23:41:41.864,0.265,-0.305
2021-08-19 23:41:41.868,0.235,-0.305
2021-08-19 23:41:41.872,0.175,-0.3
2021-08-19 23:41:41.876,0.145,-0.295
2021-08-19 23:41:41.880,0.12,-0.33
2021-08-19 23:41:41.884,0.09,-0.35
2021-08-19 23:41:41.888,0.08,-0.37
2021-08-19 23:41:41.892,0.075,-0.365
2021-08-19 23:41:41.896,0.065,-0.4
2021-08-19 23:41:41.900,0.035,-0.405
2021-08-19 23:41:41.904,0.03,-0.38
2021-08-19 23:41:41.908,0.045,-0.385
2021-08-19 23:41:41.912,0.055,-0.385
2021-08-19 23:41:41.916,0.03,-0.4
2021-08-19 23:41:41.920,0.04,-0.42
2021-08-19 23:41:41.924,0.07,-0.4
2021-08-19 23:41:41.928,0.055,-0.425
2021-08-19 23:41:41.932,0.07,-0.445
2021-08-19 23:41:41.936,0.07,-0.445
2021-08-19 23:41:41.940,0.07,-0.405
2021-08-19 23:41:41.944,0.1,-0.43
2021-08-19 23:41:41.948,0.095,-0.435
2021-08-19 23:41:41.952,0.08,-0.42
2021-08-19 23:41:41.956,0.095,-0.42
2021-08-19 23:41:41.960,0.09,-0.405
2021-08-19 23:41:41.964,0.1,-0.38
2021-08-19 23:41:41.968,0.1,-0.365
2021-08-19 23:41:41.972,0.115,-0.34
2021-08-19 23:41:41.976,0.135,-0.355
2021-08-19 23:41:41.980,0.16,-0.38
2021-08-19 23:41:41.984,0.185,-0.39
2021-08-19 23:41:41.988,0.175,-0.41
2021-08-19 23:41:41.992,0.19,-0.385
2021-08-19 23:41:41.996,0.18,-0.415
2021-08-19 23:41:42.000,0.13,-0.42
2021-08-19 23:41:42.004,0.075,-0.415
2021-08-19 23:41:42.008,0.06,-0.415
2021-08-19 23:41:42.012,0.04,-0.41
2021-08-19 23:41:42.016,0.02,-0.395
2021-08-19 23:41:42.020,0.0,-0.375
2021-08-19 23:41:42.024,0.0,-0.4
2021-08-19 23:41:42.028,0.01,-0.44
2021-08-19 23:41:42.032,0.01,-0.45
2021-08-19 23:41:42.036,-0.02,-0.47
2021-08-19 23:41:42.040,-0.025,-0.45
2021-08-19 23:41:42.044,-0.005,-0.46
2021-08-19 23:41:42.048,-0.045,-0.47
2021-08-19 23:41:42.052,-0.025,-0.44
2021-08-19 23:41:42.056,-0.03,-0.46
2021-08-19 23:41:42.060,-0.035,-0.465
2021-08-19 23:41:42.064,-0.015,-0.45
2021-08-19 23:41:42.068,-0.03,-0.475
2021-08-19 23:41:42.072,-0.015,-0.435
2021-08-19 23:41:42.076,0.0,-0.45
2021-08-19 23:41:42.080,-0.005,-0.435
2021-08-19 23:41:42.084,-0.005,-0.415
2021-08-19 23:41:42.088,-0.01,-0.425
2021-08-19 23:41:42.092,-0.015,-0.44
2021-08-19 23:41:42.096,-0.005,-0.45
2021-08-19 23:41:42.100,0.01,-0.43
2021-08-19 23:41:42.104,0.005,-0.4
2021-08-19 23:41:42.108,-0.01,-0.39
2021-08-19 23:41:42.112,0.0,-0.37
2021-08-19 23:41:42.116,0.0,-0.35
2021-08-19 23:41:42.120,0.055,-0.315
2021-08-19 23:41:42.124,0.035,-0.305
2021-08-19 23:41:42.128,0.05,-0.3
2021-08-19 23:41:42.132,0.06,-0.295
2021-08-19 23:41:42.136,0.065,-0.3
2021-08-19 23:41:42.140,0.04,-0.3
2021-08-19 23:41:42.144,0.05,-0.315
2021-08-19 23:41:42.148,0.055,-0.3
2021-08-19 23:41:42.152,0.075,-0.3
2021-08-19 23:41:42.156,0.04,-0.325
2021-08-19 23:41:42.160,0.02,-0.32
2021-08-19 23:41:42.164,0.01,-0.29
2021-08-19 23:41:42.168,-0.015,-0.26
2021-08-19 23:41:42.172,-0.015,-0.265
2021-08-19 23:41:42.176,-0.005,-0.27
2021-08-19 23:41:42.180,0.005,-0.255
2021-08-19 23:41:42.184,0.01,-0.27
2021-08-19 23:41:42.188,0.03,-0.28
2021-08-19 23:41:42.192,0.035,-0.315
2021-08-19 23:41:42.196,0.05,-0.35
2021-08-19 23:41:42.200,0.025,-0.35
2021-08-19 23:41:42.204,0.015,-0.37
2021-08-19 23:41:42.208,0.035,-0.38
2021-08-19 23:41:42.212,0.01,-0.36
2021-08-19 23:41:42.216,-0.005,-0.34
2021-08-19 23:41:42.220,0.005,-0.35
2021-08-19 23:41:42.224,0.005,-0.36
2021-08-19 23:41:42.228,0.04,-0.37
2021-08-19 23:41:42.232,0.025,-0.35
2021-08-19 23:41:42.236,0.035,-0.37
2021-08-19 23:41:42.240,0.045,-0.36
2021-08-19 23:41:42.244,0.07,-0.35
2021-08-19 23:41:42.248,0.09,-0.35
2021-08-19 23:41:42.252,0.06,-0.335
2021-08-19 23:41:42.256,0.065,-0.34
2021-08-19 23:41:42.260,0.09,-0.25
2021-08-19 23:41:42.264,0.075,-0.07
2021-08-19 23:41:42.268,0.075,0.13
2021-08-19 23:41:42.272,0.165,0.405
2021-08-19 23:41:42.276,0.28,0.66
2021-08-19 23:41:42.280,0.195,0.835
2021-08-19 23:41:42.284,-0.105,1.07
2021-08-19 23:41:42.288,-0.715,1.345
2021-08-19 23:41:42.292,-1.46,1.6
2021-08-19 23:41:42.336,-1.94,1.31
2021-08-19 23:41:42.340,-1.835,1.345
2021-08-19 23:41:42.344,-1.7,1.165
2021-08-19 23:41:42.348,-1.585,0.725
2021-08-19 23:41:42.352,-1.455,0.24
2021-08-19 23:41:42.356,-1.35,-0.155
2021-08-19 23:41:42.360,-1.225,-0.435
2021-08-19 23:41:42.364,-1.12,-0.605
2021-08-19 23:41:42.368,-0.94,-0.67
2021-08-19 23:41:42.372,-0.75,-0.69
2021-08-19 23:41:42.376,-0.52,-0.725
2021-08-19 23:41:42.380,-0.285,-0.735
2021-08-19 23:41:42.384,-0.055,-0.715
2021-08-19 23:41:42.388,0.125,-0.71
2021-08-19 23:41:42.392,0.29,-0.74
2021-08-19 23:41:42.396,0.37,-0.74
2021-08-19 23:41:42.400,0.445,-0.74
2021-08-19 23:41:42.404,0.475,-0.705
2021-08-19 23:41:42.408,0.51,-0.715
2021-08-19 23:41:42.412,0.56,-0.685
2021-08-19 23:41:42.416,0.595,-0.715
2021-08-19 23:41:42.420,0.6,-0.69
2021-08-19 23:41:42.424,0.65,-0.65
2021-08-19 23:41:42.428,0.665,-0.64
2021-08-19 23:41:42.432,0.675,-0.64
2021-08-19 23:41:42.436,0.69,-0.6
2021-08-19 23:41:42.440,0.715,-0.57
2021-08-19 23:41:42.444,0.745,-0.585
2021-08-19 23:41:42.448,0.79,-0.58
2021-08-19 23:41:42.452,0.83,-0.57
2021-08-19 23:41:42.456,0.86,-0.535
2021-08-19 23:41:42.460,0.89,-0.525
2021-08-19 23:41:42.464,0.925,-0.535
2021-08-19 23:41:42.468,0.96,-0.515
2021-08-19 23:41:42.472,0.985,-0.49
2021-08-19 23:41:42.476,1.02,-0.525
2021-08-19 23:41:42.480,1.045,-0.54
2021-08-19 23:41:42.484,1.08,-0.57
2021-08-19 23:41:42.488,1.085,-0.585
2021-08-19 23:41:42.492,1.09,-0.58
2021-08-19 23:41:42.496,1.055,-0.64
2021-08-19 23:41:42.500,1.085,-0.665
2021-08-19 23:41:42.504,1.09,-0.64
2021-08-19 23:41:42.508,1.095,-0.65
2021-08-19 23:41:42.512,1.13,-0.69
2021-08-19 23:41:42.516,1.175,-0.685
2021-08-19 23:41:42.520,1.175,-0.695
2021-08-19 23:41:42.524,1.19,-0.715
2021-08-19 23:41:42.528,1.175,-0.74
2021-08-19 23:41:42.532,1.165,-0.73
2021-08-19 23:41:42.536,1.12,-0.725
2021-08-19 23:41:42.540,1.135,-0.71
2021-08-19 23:41:42.544,1.105,-0.7
2021-08-19 23:41:42.548,1.06,-0.65
2021-08-19 23:41:42.552,1.01,-0.6
2021-08-19 23:41:42.556,0.985,-0.56
2021-08-19 23:41:42.560,0.925,-0.56
2021-08-19 23:41:42.564,0.865,-0.52
2021-08-19 23:41:42.568,0.84,-0.465
2021-08-19 23:41:42.572,0.78,-0.435
2021-08-19 23:41:42.576,0.735,-0.4
2021-08-19 23:41:42.580,0.685,-0.34
2021-08-19 23:41:42.584,0.61,-0.335
2021-08-19 23:41:42.588,0.555,-0.305
2021-08-19 23:41:42.592,0.53,-0.305
2021-08-19 23:41:42.596,0.455,-0.305
2021-08-19 23:41:42.600,0.43,-0.235
2021-08-19 23:41:42.604,0.365,-0.22
2021-08-19 23:41:42.608,0.325,-0.235
2021-08-19 23:41:42.612,0.335,-0.24
2021-08-19 23:41:42.616,0.33,-0.225
2021-08-19 23:41:42.620,0.3,-0.23
2021-08-19 23:41:42.624,0.275,-0.225
2021-08-19 23:41:42.628,0.28,-0.23
2021-08-19 23:41:42.632,0.265,-0.205
2021-08-19 23:41:42.636,0.265,-0.155
2021-08-19 23:41:42.640,0.235,-0.15
2021-08-19 23:41:42.644,0.25,-0.16
2021-08-19 23:41:42.648,0.265,-0.175
2021-08-19 23:41:42.652,0.285,-0.175
2021-08-19 23:41:42.656,0.27,-0.205
2021-08-19 23:41:42.660,0.295,-0.245
2021-08-19 23:41:42.664,0.27,-0.27
2021-08-19 23:41:42.668,0.25,-0.3
2021-08-19 23:41:42.672,0.215,-0.345
2021-08-19 23:41:42.676,0.15,-0.35
2021-08-19 23:41:42.680,0.085,-0.37
2021-08-19 23:41:42.684,0.055,-0.38
2021-08-19 23:41:42.688,0.01,-0.425
2021-08-19 23:41:42.692,0.0,-0.445
2021-08-19 23:41:42.696,0.005,-0.48
2021-08-19 23:41:42.700,0.015,-0.48
2021-08-19 23:41:42.704,0.0,-0.48
2021-08-19 23:41:42.708,-0.02,-0.51
2021-08-19 23:41:42.712,-0.015,-0.52
2021-08-19 23:41:42.716,0.015,-0.495
2021-08-19 23:41:42.720,0.01,-0.5
2021-08-19 23:41:42.724,0.01,-0.52
2021-08-19 23:41:42.728,0.0,-0.515
2021-08-19 23:41:42.732,0.005,-0.52
2021-08-19 23:41:42.736,0.025,-0.5
2021-08-19 23:41:42.740,0.025,-0.49
2021-08-19 23:41:42.744,0.045,-0.495
2021-08-19 23:41:42.748,0.045,-0.49
2021-08-19 23:41:42.752,0.04,-0.485
2021-08-19 23:41:42.756,0.04,-0.505
2021-08-19 23:41:42.760,0.055,-0.52
2021-08-19 23:41:42.764,0.045,-0.485
2021-08-19 23:41:42.768,0.045,-0.42
2021-08-19 23:41:42.772,0.05,-0.395
2021-08-19 23:41:42.776,0.04,-0.425
2021-08-19 23:41:42.780,0.06,-0.4
2021-08-19 23:41:42.784,0.075,-0.38
2021-08-19 23:41:42.788,0.1,-0.345
2021-08-19 23:41:42.792,0.105,-0.36
2021-08-19 23:41:42.796,0.115,-0.325
2021-08-19 23:41:42.800,0.135,-0.29
2021-08-19 23:41:42.804,0.14,-0.24
2021-08-19 23:41:42.808,0.135,-0.23
2021-08-19 23:41:42.812,0.15,-0.19
2021-08-19 23:41:42.816,0.175,-0.07
2021-08-19 23:41:42.820,0.19,0.05
2021-08-19 23:41:42.824,0.23,0.23
2021-08-19 23:41:42.828,0.31,0.505
2021-08-19 23:41:42.832,0.325,0.725
2021-08-19 23:41:42.836,0.085,0.915
2021-08-19 23:41:42.840,-0.315,1.155
2021-08-19 23:41:42.844,-1.01,1.43
2021-08-19 23:41:42.848,-1.78,1.655
2021-08-19 23:41:42.892,-1.97,1.155
2021-08-19 23:41:42.896,-1.84,1.14
2021-08-19 23:41:42.900,-1.705,0.985
2021-08-19 23:41:42.904,-1.55,0.645
2021-08-19 23:41:42.908,-1.435,0.19
2021-08-19 23:41:42.912,-1.345,-0.145
2021-08-19 23:41:42.916,-1.2,-0.385
2021-08-19 23:41:42.920,-1.025,-0.48
2021-08-19 23:41:42.924,-0.85,-0.5
2021-08-19 23:41:42.928,-0.66,-0.545
2021-08-19 23:41:42.932,-0.42,-0.57
2021-08-19 23:41:42.936,-0.17,-0.55
2021-08-19 23:41:42.940,0.105,-0.555
2021-08-19 23:41:42.944,0.33,-0.545
2021-08-19 23:41:42.948,0.435,-0.565
2021-08-19 23:41:42.952,0.5,-0.57
2021-08-19 23:41:42.956,0.56,-0.575
2021-08-19 23:41:42.960,0.605,-0.575
2021-08-19 23:41:42.964,0.655,-0.565
2021-08-19 23:41:42.968,0.685,-0.59
2021-08-19 23:41:42.972,0.71,-0.58
2021-08-19 23:41:42.976,0.75,-0.57
2021-08-19 23:41:42.980,0.77,-0.565
2021-08-19 23:41:42.984,0.78,-0.545
2021-08-19 23:41:42.988,0.795,-0.54
2021-08-19 23:41:42.992,0.83,-0.555
2021-08-19 23:41:42.996,0.81,-0.56
2021-08-19 23:41:43.000,0.82,-0.565
2021-08-19 23:41:43.004,0.795,-0.56
2021-08-19 23:41:43.008,0.79,-0.565
2021-08-19 23:41:43.012,0.795,-0.575
2021-08-19 23:41:43.016,0.83,-0.595
2021-08-19 23:41:43.020,0.835,-0.625
2021-08-19 23:41:43.024,0.845,-0.64
2021-08-19 23:41:43.028,0.89,-0.66
2021-08-19 23:41:43.032,0.91,-0.68
2021-08-19 23:41:43.036,0.915,-0.695
2021-08-19 23:41:43.040,0.925,-0.715
2021-08-19 23:41:43.044,0.94,-0.71
2021-08-19 23:41:43.048,0.955,-0.715
2021-08-19 23:41:43.052,1.0,-0.745
2021-08-19 23:41:43.056,1.02,-0.73
2021-08-19 23:41:43.060,1.05,-0.7
2021-08-19 23:41:43.064,1.075,-0.73
2021-08-19 23:41:43.068,1.1,-0.74
2021-08-19 23:41:43.072,1.115,-0.72
2021-08-19 23:41:43.076,1.105,-0.69
2021-08-19 23:41:43.080,1.115,-0.655
2021-08-19 23:41:43.084,1.095,-0.63
2021-08-19 23:41:43.088,1.12,-0.605
2021-08-19 23:41:43.092,1.13,-0.56
2021-08-19 23:41:43.096,1.125,-0.53
2021-08-19 23:41:43.100,1.05,-0.505
2021-08-19 23:41:43.104,1.05,-0.475
2021-08-19 23:41:43.108,1.005,-0.42
2021-08-19 23:41:43.112,0.975,-0.37
2021-08-19 23:41:43.116,0.925,-0.345
2021-08-19 23:41:43.120,0.895,-0.305
2021-08-19 23:41:43.124,0.84,-0.26
2021-08-19 23:41:43.128,0.78,-0.22
2021-08-19 23:41:43.132,0.71,-0.225
2021-08-19 23:41:43.136,0.64,-0.235
2021-08-19 23:41:43.140,0.63,-0.235
2021-08-19 23:41:43.144,0.53,-0.225
2021-08-19 23:41:43.148,0.495,-0.255
2021-08-19 23:41:43.152,0.425,-0.26
2021-08-19 23:41:43.156,0.4,-0.255
2021-08-19 23:41:43.160,0.33,-0.235
2021-08-19 23:41:43.164,0.24,-0.27
2021-08-19 23:41:43.168,0.17,-0.295
2021-08-19 23:41:43.172,0.15,-0.29
2021-08-19 23:41:43.176,0.11,-0.27
2021-08-19 23:41:43.180,0.08,-0.285
2021-08-19 23:41:43.184,0.06,-0.33
2021-08-19 23:41:43.188,0.05,-0.355
2021-08-19 23:41:43.192,0.045,-0.365
2021-08-19 23:41:43.196,0.04,-0.365
2021-08-19 23:41:43.200,0.03,-0.37
2021-08-19 23:41:43.204,0.02,-0.37
2021-08-19 23:41:43.208,0.01,-0.375
2021-08-19 23:41:43.212,0.02,-0.385
2021-08-19 23:41:43.216,0.045,-0.395
2021-08-19 23:41:43.220,0.03,-0.38
2021-08-19 23:41:43.224,0.02,-0.37
2021-08-19 23:41:43.228,0.005,-0.345
2021-08-19 23:41:43.232,0.015,-0.35
2021-08-19 23:41:43.236,0.035,-0.35
2021-08-19 23:41:43.240,0.05,-0.32
2021-08-19 23:41:43.244,0.06,-0.295
2021-08-19 23:41:43.248,0.075,-0.3
2021-08-19 23:41:43.252,0.065,-0.32
2021-08-19 23:41:43.256,0.075,-0.305
2021-08-19 23:41:43.260,0.08,-0.29
2021-08-19 23:41:43.264,0.075,-0.295
2021-08-19 23:41:43.268,0.095,-0.3
2021-08-19 23:41:43.272,0.075,-0.295
2021-08-19 23:41:43.276,0.095,-0.28
2021-08-19 23:41:43.280,0.105,-0.255
2021-08-19 23:41:43.284,0.09,-0.25
2021-08-19 23:41:43.288,0.08,-0.265
2021-08-19 23:41:43.292,0.105,-0.27
2021-08-19 23:41:43.296,0.105,-0.27
2021-08-19 23:41:43.300,0.1,-0.29
2021-08-19 23:41:43.304,0.08,-0.32
2021-08-19 23:41:43.308,0.07,-0.31
2021-08-19 23:41:43.312,0.045,-0.305
2021-08-19 23:41:43.316,0.04,-0.285
2021-08-19 23:41:43.320,0.005,-0.3
2021-08-19 23:41:43.324,0.03,-0.3
2021-08-19 23:41:43.328,0.03,-0.275
2021-08-19 23:41:43.332,0.0,-0.3
2021-08-19 23:41:43.336,0.005,-0.345
2021-08-19 23:41:43.340,-0.01,-0.36
2021-08-19 23:41:43.344,-0.03,-0.365
2021-08-19 23:41:43.348,-0.025,-0.37
2021-08-19 23:41:43.352,-0.055,-0.425
2021-08-19 23:41:43.356,-0.065,-0.465
2021-08-19 23:41:43.360,-0.085,-0.475
2021-08-19 23:41:43.364,-0.095,-0.45
2021-08-19 23:41:43.368,-0.09,-0.43
2021-08-19 23:41:43.372,-0.125,-0.425
2021-08-19 23:41:43.376,-0.1,-0.405
2021-08-19 23:41:43.380,-0.1,-0.39
2021-08-19 23:41:43.384,-0.1,-0.4
2021-08-19 23:41:43.388,-0.065,-0.395
2021-08-19 23:41:43.392,-0.055,-0.375
2021-08-19 23:41:43.396,-0.075,-0.36
2021-08-19 23:41:43.400,-0.05,-0.36
2021-08-19 23:41:43.404,-0.035,-0.365
2021-08-19 23:41:43.408,-0.04,-0.36
2021-08-19 23:41:43.412,-0.035,-0.35
2021-08-19 23:41:43.416,-0.01,-0.35
2021-08-19 23:41:43.420,-0.02,-0.36
2021-08-19 23:41:43.424,-0.015,-0.345
2021-08-19 23:41:43.428,0.005,-0.325
2021-08-19 23:41:43.432,-0.005,-0.315
2021-08-19 23:41:43.436,-0.015,-0.3
2021-08-19 23:41:43.440,-0.005,-0.295
2021-08-19 23:41:43.444,0.0,-0.27
2021-08-19 23:41:43.448,0.03,-0.265
2021-08-19 23:41:43.452,0.01,-0.25
2021-08-19 23:41:43.456,0.02,-0.25
2021-08-19 23:41:43.460,0.035,-0.22
2021-08-19 23:41:43.464,0.04,-0.215
2021-08-19 23:41:43.468,0.02,-0.225
2021-08-19 23:41:43.472,0.01,-0.24
2021-08-19 23:41:43.476,0.0,-0.265
2021-08-19 23:41:43.480,-0.01,-0.27
2021-08-19 23:41:43.484,-0.02,-0.29
2021-08-19 23:41:43.488,-0.025,-0.295
2021-08-19 23:41:43.492,-0.045,-0.305
2021-08-19 23:41:43.496,-0.015,-0.3
2021-08-19 23:41:43.500,0.0,-0.305
2021-08-19 23:41:43.504,0.0,-0.33
2021-08-19 23:41:43.508,0.01,-0.305
2021-08-19 23:41:43.512,-0.005,-0.24
2021-08-19 23:41:43.516,0.0,-0.135
2021-08-19 23:41:43.520,-0.005,-0.005
2021-08-19 23:41:43.524,0.075,0.2
2021-08-19 23:41:43.528,0.195,0.44
2021-08-19 23:41:43.532,0.18,0.635
2021-08-19 23:41:43.536,-0.03,0.805
2021-08-19 23:41:43.540,-0.455,1.025
2021-08-19 23:41:43.544,-1.14,1.265
2021-08-19 23:41:43.548,-1.835,1.445
2021-08-19 23:41:43.592,-1.945,1.07
2021-08-19 23:41:43.596,-1.82,1.06
2021-08-19 23:41:43.600,-1.675,0.865
2021-08-19 23:41:43.604,-1.53,0.475
2021-08-19 23:41:43.608,-1.42,0.055
2021-08-19 23:41:43.612,-1.32,-0.225
2021-08-19 23:41:43.616,-1.215,-0.405
2021-08-19 23:41:43.620,-1.015,-0.515
2021-08-19 23:41:43.624,-0.835,-0.52
2021-08-19 23:41:43.628,-0.635,-0.555
2021-08-19 23:41:43.632,-0.41,-0.585
2021-08-19 23:41:43.636,-0.185,-0.565
2021-08-19 23:41:43.640,0.045,-0.565
2021-08-19 23:41:43.644,0.245,-0.58
2021-08-19 23:41:43.648,0.355,-0.605
2021-08-19 23:41:43.652,0.43,-0.59
2021-08-19 23:41:43.656,0.505,-0.595
2021-08-19 23:41:43.660,0.525,-0.61
2021-08-19 23:41:43.664,0.545,-0.6
2021-08-19 23:41:43.668,0.575,-0.595
2021-08-19 23:41:43.672,0.59,-0.605
2021-08-19 23:41:43.676,0.615,-0.575
2021-08-19 23:41:43.680,0.61,-0.57
2021-08-19 23:41:43.684,0.66,-0.575
2021-08-19 23:41:43.688,0.695,-0.57
2021-08-19 23:41:43.692,0.74,-0.55
2021-08-19 23:41:43.696,0.705,-0.57
2021-08-19 23:41:43.700,0.72,-0.555
2021-08-19 23:41:43.704,0.74,-0.565
2021-08-19 23:41:43.708,0.775,-0.54
2021-08-19 23:41:43.712,0.785,-0.55
2021-08-19 23:41:43.716,0.835,-0.55
2021-08-19 23:41:43.720,0.855,-0.535
2021-08-19 23:41:43.724,0.875,-0.535
2021-08-19 23:41:43.728,0.9,-0.565
2021-08-19 23:41:43.732,0.94,-0.555
2021-08-19 23:41:43.736,0.99,-0.545
2021-08-19 23:41:43.740,1.01,-0.53
2021-08-19 23:41:43.744,1.07,-0.56
2021-08-19 23:41:43.748,1.085,-0.57
2021-08-19 23:41:43.752,1.115,-0.58
2021-08-19 23:41:43.756,1.135,-0.57
2021-08-19 23:41:43.760,1.165,-0.6
2021-08-19 23:41:43.764,1.2,-0.62
2021-08-19 23:41:43.768,1.215,-0.635
2021-08-19 23:41:43.772,1.25,-0.625
2021-08-19 23:41:43.776,1.215,-0.62
2021-08-19 23:41:43.780,1.18,-0.64
2021-08-19 23:41:43.784,1.185,-0.635
2021-08-19 23:41:43.788,1.165,-0.635
2021-08-19 23:41:43.792,1.15,-0.63
2021-08-19 23:41:43.796,1.14,-0.595
2021-08-19 23:41:43.800,1.115,-0.575
2021-08-19 23:41:43.804,1.08,-0.52
2021-08-19 23:41:43.808,1.035,-0.49
2021-08-19 23:41:43.812,1.01,-0.48
2021-08-19 23:41:43.816,0.95,-0.44
2021-08-19 23:41:43.820,0.91,-0.4
2021-08-19 23:41:43.824,0.85,-0.32
2021-08-19 23:41:43.828,0.805,-0.325
2021-08-19 23:41:43.832,0.77,-0.295
2021-08-19 23:41:43.836,0.7,-0.245
2021-08-19 23:41:43.840,0.63,-0.22
2021-08-19 23:41:43.844,0.575,-0.22
2021-08-19 23:41:43.848,0.52,-0.215
2021-08-19 23:41:43.852,0.46,-0.21
2021-08-19 23:41:43.856,0.395,-0.19
2021-08-19 23:41:43.860,0.325,-0.205
2021-08-19 23:41:43.864,0.305,-0.235
2021-08-19 23:41:43.868,0.275,-0.23
2021-08-19 23:41:43.872,0.23,-0.215
2021-08-19 23:41:43.876,0.205,-0.23
2021-08-19 23:41:43.880,0.175,-0.25
2021-08-19 23:41:43.884,0.13,-0.24
2021-08-19 23:41:43.888,0.13,-0.225
2021-08-19 23:41:43.892,0.12,-0.24
2021-08-19 23:41:43.896,0.095,-0.265
2021-08-19 23:41:43.900,0.09,-0.27
2021-08-19 23:41:43.904,0.09,-0.255
2021-08-19 23:41:43.908,0.08,-0.255
2021-08-19 23:41:43.912,0.055,-0.25
2021-08-19 23:41:43.916,0.075,-0.275
2021-08-19 23:41:43.920,0.085,-0.3
2021-08-19 23:41:43.924,0.065,-0.3
2021-08-19 23:41:43.928,0.05,-0.335
2021-08-19 23:41:43.932,0.05,-0.375
2021-08-19 23:41:43.936,0.04,-0.395
2021-08-19 23:41:43.940,0.04,-0.39
2021-08-19 23:41:43.944,0.06,-0.395
2021-08-19 23:41:43.948,0.045,-0.385
2021-08-19 23:41:43.952,0.045,-0.39
2021-08-19 23:41:43.956,0.035,-0.38
2021-08-19 23:41:43.960,0.015,-0.42
2021-08-19 23:41:43.964,-0.02,-0.435
2021-08-19 23:41:43.968,-0.04,-0.44
2021-08-19 23:41:43.972,-0.065,-0.415
2021-08-19 23:41:43.976,-0.09,-0.425
2021-08-19 23:41:43.980,-0.09,-0.42
2021-08-19 23:41:43.984,-0.105,-0.44
2021-08-19 23:41:43.988,-0.11,-0.415
2021-08-19 23:41:43.992,-0.095,-0.41
2021-08-19 23:41:43.996,-0.08,-0.395
2021-08-19 23:41:44.000,-0.07,-0.41
2021-08-19 23:41:44.004,-0.05,-0.395
2021-08-19 23:41:44.008,-0.075,-0.39
2021-08-19 23:41:44.012,-0.06,-0.38
2021-08-19 23:41:44.016,-0.055,-0.395
2021-08-19 23:41:44.020,-0.015,-0.36
2021-08-19 23:41:44.024,-0.035,-0.35
2021-08-19 23:41:44.028,-0.045,-0.335
2021-08-19 23:41:44.032,-0.035,-0.325
2021-08-19 23:41:44.036,-0.03,-0.335
2021-08-19 23:41:44.040,-0.01,-0.31
2021-08-19 23:41:44.044,0.0,-0.315
2021-08-19 23:41:44.048,0.0,-0.32
2021-08-19 23:41:44.052,-0.01,-0.32
2021-08-19 23:41:44.056,-0.015,-0.315
2021-08-19 23:41:44.060,0.005,-0.29
2021-08-19 23:41:44.064,0.0,-0.305
2021-08-19 23:41:44.068,0.01,-0.33
2021-08-19 23:41:44.072,0.0,-0.35
2021-08-19 23:41:44.076,-0.03,-0.38
2021-08-19 23:41:44.080,-0.005,-0.4
2021-08-19 23:41:44.084,0.015,-0.4
2021-08-19 23:41:44.088,-0.03,-0.37
2021-08-19 23:41:44.092,-0.045,-0.36
2021-08-19 23:41:44.096,-0.055,-0.34
2021-08-19 23:41:44.100,-0.01,-0.38
2021-08-19 23:41:44.104,-0.005,-0.38
2021-08-19 23:41:44.108,0.015,-0.405
2021-08-19 23:41:44.112,0.055,-0.415
2021-08-19 23:41:44.116,0.035,-0.425
2021-08-19 23:41:44.120,0.03,-0.405
2021-08-19 23:41:44.124,-0.03,-0.36
2021-08-19 23:41:44.128,-0.065,-0.29
2021-08-19 23:41:44.132,-0.115,-0.145
2021-08-19 23:41:44.136,-0.12,0.105
2021-08-19 23:41:44.140,-0.08,0.425
2021-08-19 23:41:44.144,-0.025,0.72
2021-08-19 23:41:44.148,-0.1,0.925
2021-08-19 23:41:44.152,-0.4,1.12
2021-08-19 23:41:44.156,-0.865,1.34
2021-08-19 23:41:44.160,-1.585,1.575
2021-08-19 23:41:44.208,-1.995,1.215
2021-08-19 23:41:44.212,-1.86,1.2
2021-08-19 23:41:44.216,-1.715,0.98
2021-08-19 23:41:44.220,-1.595,0.545
2021-08-19 23:41:44.224,-1.495,0.12
2021-08-19 23:41:44.228,-1.36,-0.15
2021-08-19 23:41:44.232,-1.18,-0.355
2021-08-19 23:41:44.236,-1.0,-0.46
2021-08-19 23:41:44.240,-0.805,-0.57
2021-08-19 23:41:44.244,-0.565,-0.62
2021-08-19 23:41:44.248,-0.315,-0.64
2021-08-19 23:41:44.252,-0.125,-0.64
2021-08-19 23:41:44.256,0.055,-0.645
2021-08-19 23:41:44.260,0.19,-0.665
2021-08-19 23:41:44.264,0.305,-0.675
2021-08-19 23:41:44.268,0.37,-0.645
2021-08-19 23:41:44.272,0.395,-0.68
2021-08-19 23:41:44.276,0.435,-0.685
2021-08-19 23:41:44.280,0.47,-0.66
2021-08-19 23:41:44.284,0.49,-0.665
2021-08-19 23:41:44.288,0.535,-0.645
2021-08-19 23:41:44.292,0.54,-0.63
2021-08-19 23:41:44.296,0.56,-0.635
2021-08-19 23:41:44.300,0.595,-0.63
2021-08-19 23:41:44.304,0.59,-0.64
2021-08-19 23:41:44.308,0.585,-0.665
2021-08-19 23:41:44.312,0.565,-0.69
2021-08-19 23:41:44.316,0.55,-0.67
2021-08-19 23:41:44.320,0.52,-0.675
2021-08-19 23:41:44.324,0.48,-0.66
2021-08-19 23:41:44.328,0.495,-0.68
2021-08-19 23:41:44.332,0.495,-0.655
2021-08-19 23:41:44.336,0.515,-0.65
2021-08-19 23:41:44.340,0.52,-0.63
2021-08-19 23:41:44.344,0.53,-0.65
2021-08-19 23:41:44.348,0.575,-0.59
2021-08-19 23:41:44.352,0.59,-0.585
2021-08-19 23:41:44.356,0.615,-0.59
2021-08-19 23:41:44.360,0.64,-0.615
2021-08-19 23:41:44.364,0.685,-0.635
2021-08-19 23:41:44.368,0.745,-0.655
2021-08-19 23:41:44.372,0.775,-0.66
2021-08-19 23:41:44.376,0.775,-0.67
2021-08-19 23:41:44.380,0.8,-0.66
2021-08-19 23:41:44.384,0.835,-0.65
2021-08-19 23:41:44.388,0.865,-0.665
2021-08-19 23:41:44.392,0.88,-0.685
2021-08-19 23:41:44.396,0.905,-0.66
2021-08-19 23:41:44.400,0.915,-0.6
2021-08-19 23:41:44.404,0.915,-0.605
2021-08-19 23:41:44.408,0.91,-0.605
2021-08-19 23:41:44.412,0.905,-0.595
2021-08-19 23:41:44.416,0.875,-0.55
2021-08-19 23:41:44.420,0.825,-0.515
2021-08-19 23:41:44.424,0.795,-0.5
2021-08-19 23:41:44.428,0.74,-0.46
2021-08-19 23:41:44.432,0.71,-0.4
2021-08-19 23:41:44.436,0.645,-0.36
2021-08-19 23:41:44.440,0.59,-0.355
2021-08-19 23:41:44.444,0.575,-0.33
2021-08-19 23:41:44.448,0.5,-0.305
2021-08-19 23:41:44.452,0.45,-0.3
2021-08-19 23:41:44.456,0.375,-0.33
2021-08-19 23:41:44.460,0.325,-0.33
2021-08-19 23:41:44.464,0.285,-0.315
2021-08-19 23:41:44.468,0.225,-0.31
2021-08-19 23:41:44.472,0.15,-0.34
2021-08-19 23:41:44.476,0.1,-0.355
2021-08-19 23:41:44.480,0.085,-0.325
2021-08-19 23:41:44.484,0.075,-0.31
2021-08-19 23:41:44.488,0.065,-0.32
2021-08-19 23:41:44.492,0.06,-0.335
2021-08-19 23:41:44.496,0.075,-0.305
2021-08-19 23:41:44.500,0.07,-0.27
2021-08-19 23:41:44.504,0.005,-0.315
2021-08-19 23:41:44.508,-0.055,-0.37
2021-08-19 23:41:44.512,-0.095,-0.385
2021-08-19 23:41:44.516,-0.1,-0.355
2021-08-19 23:41:44.520,-0.13,-0.35
2021-08-19 23:41:44.524,-0.14,-0.395
2021-08-19 23:41:44.528,-0.15,-0.38
2021-08-19 23:41:44.532,-0.1,-0.36
2021-08-19 23:41:44.536,-0.115,-0.355
2021-08-19 23:41:44.540,-0.1,-0.365
2021-08-19 23:41:44.544,-0.085,-0.39
2021-08-19 23:41:44.548,-0.1,-0.395
2021-08-19 23:41:44.552,-0.09,-0.405
2021-08-19 23:41:44.556,-0.08,-0.415
2021-08-19 23:41:44.560,-0.075,-0.44
2021-08-19 23:41:44.564,-0.09,-0.445
2021-08-19 23:41:44.568,-0.1,-0.455
2021-08-19 23:41:44.572,-0.115,-0.48
2021-08-19 23:41:44.576,-0.13,-0.465
2021-08-19 23:41:44.580,-0.135,-0.465
2021-08-19 23:41:44.584,-0.135,-0.44
2021-08-19 23:41:44.588,-0.14,-0.435
2021-08-19 23:41:44.592,-0.135,-0.415
2021-08-19 23:41:44.596,-0.095,-0.405
2021-08-19 23:41:44.600,-0.115,-0.405
2021-08-19 23:41:44.604,-0.12,-0.42
2021-08-19 23:41:44.608,-0.12,-0.43
2021-08-19 23:41:44.612,-0.1,-0.435
2021-08-19 23:41:44.616,-0.11,-0.425
2021-08-19 23:41:44.620,-0.13,-0.41
2021-08-19 23:41:44.624,-0.125,-0.415
2021-08-19 23:41:44.628,-0.135,-0.42
2021-08-19 23:41:44.632,-0.125,-0.39
2021-08-19 23:41:44.636,-0.135,-0.37
2021-08-19 23:41:44.640,-0.145,-0.37
2021-08-19 23:41:44.644,-0.12,-0.375
2021-08-19 23:41:44.648,-0.155,-0.385
2021-08-19 23:41:44.652,-0.16,-0.375
2021-08-19 23:41:44.656,-0.13,-0.4
2021-08-19 23:41:44.660,-0.16,-0.4
2021-08-19 23:41:44.664,-0.15,-0.42
2021-08-19 23:41:44.668,-0.165,-0.475
2021-08-19 23:41:44.672,-0.155,-0.46
2021-08-19 23:41:44.676,-0.16,-0.445
2021-08-19 23:41:44.680,-0.18,-0.43
2021-08-19 23:41:44.684,-0.245,-0.4
2021-08-19 23:41:44.688,-0.285,-0.365
2021-08-19 23:41:44.692,-0.255,-0.355
2021-08-19 23:41:44.696,-0.255,-0.38
2021-08-19 23:41:44.700,-0.285,-0.39
2021-08-19 23:41:44.704,-0.245,-0.375
2021-08-19 23:41:44.708,-0.255,-0.375
2021-08-19 23:41:44.712,-0.235,-0.4
2021-08-19 23:41:44.716,-0.235,-0.38
2021-08-19 23:41:44.720,-0.225,-0.375
2021-08-19 23:41:44.724,-0.255,-0.37
2021-08-19 23:41:44.728,-0.24,-0.375
2021-08-19 23:41:44.732,-0.24,-0.32
2021-08-19 23:41:44.736,-0.235,-0.23
2021-08-19 23:41:44.740,-0.21,-0.075
2021-08-19 23:41:44.744,-0.2,0.18
2021-08-19 23:41:44.748,-0.14,0.485
2021-08-19 23:41:44.752,-0.04,0.86
2021-08-19 23:41:44.756,-0.08,1.09
2021-08-19 23:41:44.760,-0.315,1.35
2021-08-19 23:41:44.764,-0.81,1.595
2021-08-19 23:41:44.768,-1.515,1.81
2021-08-19 23:41:44.816,-1.915,1.485
2021-08-19 23:41:44.820,-1.815,1.435
2021-08-19 23:41:44.824,-1.655,1.13
2021-08-19 23:41:44.828,-1.54,0.645
2021-08-19 23:41:44.832,-1.4,0.21
2021-08-19 23:41:44.836,-1.275,-0.11
2021-08-19 23:41:44.840,-1.15,-0.395
2021-08-19 23:41:44.844,-0.93,-0.535
2021-08-19 23:41:44.848,-0.75,-0.635
2021-08-19 23:41:44.852,-0.57,-0.7
2021-08-19 23:41:44.856,-0.39,-0.705
2021-08-19 23:41:44.860,-0.22,-0.645
2021-08-19 23:41:44.864,-0.095,-0.655
2021-08-19 23:41:44.868,0.03,-0.665
2021-08-19 23:41:44.872,0.16,-0.68
2021-08-19 23:41:44.876,0.22,-0.675
2021-08-19 23:41:44.880,0.22,-0.67
2021-08-19 23:41:44.884,0.255,-0.68
2021-08-19 23:41:44.888,0.285,-0.645
2021-08-19 23:41:44.892,0.31,-0.665
2021-08-19 23:41:44.896,0.33,-0.705
2021-08-19 23:41:44.900,0.335,-0.68
2021-08-19 23:41:44.904,0.355,-0.67
2021-08-19 23:41:44.908,0.405,-0.645
2021-08-19 23:41:44.912,0.4,-0.665
2021-08-19 23:41:44.916,0.425,-0.645
2021-08-19 23:41:44.920,0.475,-0.635
2021-08-19 23:41:44.924,0.485,-0.655
2021-08-19 23:41:44.928,0.495,-0.68
2021-08-19 23:41:44.932,0.52,-0.66
2021-08-19 23:41:44.936,0.54,-0.63
2021-08-19 23:41:44.940,0.565,-0.61
2021-08-19 23:41:44.944,0.59,-0.64
2021-08-19 23:41:44.948,0.635,-0.635
2021-08-19 23:41:44.952,0.665,-0.635
2021-08-19 23:41:44.956,0.705,-0.625
2021-08-19 23:41:44.960,0.705,-0.63
2021-08-19 23:41:44.964,0.75,-0.655
2021-08-19 23:41:44.968,0.775,-0.695
2021-08-19 23:41:44.972,0.825,-0.71
2021-08-19 23:41:44.976,0.845,-0.72
2021-08-19 23:41:44.980,0.875,-0.745
2021-08-19 23:41:44.984,0.865,-0.705
2021-08-19 23:41:44.988,0.885,-0.715
2021-08-19 23:41:44.992,0.905,-0.71
2021-08-19 23:41:44.996,0.95,-0.71
2021-08-19 23:41:45.000,0.955,-0.715
2021-08-19 23:41:45.004,0.945,-0.68
2021-08-19 23:41:45.008,0.95,-0.685
2021-08-19 23:41:45.012,0.935,-0.68
2021-08-19 23:41:45.016,0.91,-0.635
2021-08-19 23:41:45.020,0.82,-0.585
2021-08-19 23:41:45.024,0.775,-0.555
2021-08-19 23:41:45.028,0.685,-0.545
2021-08-19 23:41:45.032,0.6,-0.5
2021-08-19 23:41:45.036,0.55,-0.445
2021-08-19 23:41:45.040,0.48,-0.415
2021-08-19 23:41:45.044,0.395,-0.375
2021-08-19 23:41:45.048,0.35,-0.32
2021-08-19 23:41:45.052,0.335,-0.295
2021-08-19 23:41:45.056,0.3,-0.25
2021-08-19 23:41:45.060,0.245,-0.255
2021-08-19 23:41:45.064,0.185,-0.225
2021-08-19 23:41:45.068,0.195,-0.23
2021-08-19 23:41:45.072,0.145,-0.24
2021-08-19 23:41:45.076,0.095,-0.24
2021-08-19 23:41:45.080,0.08,-0.225
2021-08-19 23:41:45.084,0.035,-0.22
2021-08-19 23:41:45.088,0.035,-0.215
2021-08-19 23:41:45.092,0.0,-0.22
2021-08-19 23:41:45.096,-0.02,-0.25
2021-08-19 23:41:45.100,-0.025,-0.245
2021-08-19 23:41:45.104,-0.04,-0.24
2021-08-19 23:41:45.108,-0.05,-0.255
2021-08-19 23:41:45.112,-0.05,-0.315
2021-08-19 23:41:45.116,-0.075,-0.33
2021-08-19 23:41:45.120,-0.045,-0.335
2021-08-19 23:41:45.124,-0.06,-0.32
2021-08-19 23:41:45.128,-0.04,-0.315
2021-08-19 23:41:45.132,-0.03,-0.34
2021-08-19 23:41:45.136,-0.05,-0.325
2021-08-19 23:41:45.140,-0.045,-0.33
2021-08-19 23:41:45.144,-0.02,-0.34
2021-08-19 23:41:45.148,-0.025,-0.36
2021-08-19 23:41:45.152,-0.005,-0.345
2021-08-19 23:41:45.156,-0.035,-0.34
2021-08-19 23:41:45.160,-0.06,-0.36
2021-08-19 23:41:45.164,-0.025,-0.375
2021-08-19 23:41:45.168,-0.045,-0.39
2021-08-19 23:41:45.172,-0.04,-0.39
2021-08-19 23:41:45.176,-0.04,-0.4
2021-08-19 23:41:45.180,-0.065,-0.415
2021-08-19 23:41:45.184,-0.075,-0.44
2021-08-19 23:41:45.188,-0.105,-0.44
2021-08-19 23:41:45.192,-0.125,-0.455
2021-08-19 23:41:45.196,-0.13,-0.45
2021-08-19 23:41:45.200,-0.165,-0.46
2021-08-19 23:41:45.204,-0.18,-0.465
2021-08-19 23:41:45.208,-0.205,-0.44
2021-08-19 23:41:45.212,-0.215,-0.475
2021-08-19 23:41:45.216,-0.205,-0.45
2021-08-19 23:41:45.220,-0.165,-0.445
2021-08-19 23:41:45.224,-0.18,-0.45
2021-08-19 23:41:45.228,-0.18,-0.435
2021-08-19 23:41:45.232,-0.19,-0.425
2021-08-19 23:41:45.236,-0.175,-0.405
2021-08-19 23:41:45.240,-0.185,-0.415
2021-08-19 23:41:45.244,-0.155,-0.405
2021-08-19 23:41:45.248,-0.165,-0.4
2021-08-19 23:41:45.252,-0.16,-0.415
2021-08-19 23:41:45.256,-0.14,-0.44
2021-08-19 23:41:45.260,-0.145,-0.44
2021-08-19 23:41:45.264,-0.145,-0.42
2021-08-19 23:41:45.268,-0.135,-0.4
2021-08-19 23:41:45.272,-0.145,-0.37
2021-08-19 23:41:45.276,-0.11,-0.345
2021-08-19 23:41:45.280,-0.1,-0.355
2021-08-19 23:41:45.284,-0.075,-0.365
2021-08-19 23:41:45.288,-0.055,-0.36
2021-08-19 23:41:45.292,-0.04,-0.355
2021-08-19 23:41:45.296,-0.065,-0.34
2021-08-19 23:41:45.300,-0.06,-0.355
2021-08-19 23:41:45.304,-0.065,-0.355
2021-08-19 23:41:45.308,-0.035,-0.325
2021-08-19 23:41:45.312,-0.045,-0.32
2021-08-19 23:41:45.316,-0.045,-0.32
2021-08-19 23:41:45.320,-0.025,-0.32
2021-08-19 23:41:45.324,-0.05,-0.305
2021-08-19 23:41:45.328,-0.075,-0.26
2021-08-19 23:41:45.332,-0.08,-0.13
2021-08-19 23:41:45.336,-0.08,0.015
2021-08-19 23:41:45.340,-0.035,0.255
2021-08-19 23:41:45.344,0.04,0.57
2021-08-19 23:41:45.348,0.01,0.805
2021-08-19 23:41:45.352,-0.195,1.015
2021-08-19 23:41:45.356,-0.61,1.26
2021-08-19 23:41:45.360,-1.285,1.545
2021-08-19 23:41:45.364,-1.965,1.77
2021-08-19 23:41:45.408,-1.985,1.375
2021-08-19 23:41:45.412,-1.845,1.45
2021-08-19 23:41:45.416,-1.725,1.3
2021-08-19 23:41:45.420,-1.59,0.87
2021-08-19 23:41:45.424,-1.47,0.405
2021-08-19 23:41:45.428,-1.345,0.005
2021-08-19 23:41:45.432,-1.195,-0.31
2021-08-19 23:41:45.436,-1.03,-0.53
2021-08-19 23:41:45.440,-0.85,-0.62
2021-08-19 23:41:45.444,-0.655,-0.665
2021-08-19 23:41:45.448,-0.42,-0.695
2021-08-19 23:41:45.452,-0.21,-0.675
2021-08-19 23:41:45.456,0.0,-0.655
2021-08-19 23:41:45.460,0.17,-0.645
2021-08-19 23:41:45.464,0.31,-0.67
2021-08-19 23:41:45.468,0.385,-0.68
2021-08-19 23:41:45.472,0.425,-0.66
2021-08-19 23:41:45.476,0.48,-0.62
2021-08-19 23:41:45.480,0.53,-0.635
2021-08-19 23:41:45.484,0.535,-0.65
2021-08-19 23:41:45.488,0.565,-0.66
2021-08-19 23:41:45.492,0.6,-0.625
2021-08-19 23:41:45.496,0.625,-0.64
2021-08-19 23:41:45.500,0.625,-0.67
2021-08-19 23:41:45.504,0.605,-0.67
2021-08-19 23:41:45.508,0.605,-0.68
2021-08-19 23:41:45.512,0.575,-0.665
2021-08-19 23:41:45.516,0.6,-0.665
2021-08-19 23:41:45.520,0.57,-0.67
2021-08-19 23:41:45.524,0.59,-0.665
2021-08-19 23:41:45.528,0.605,-0.66
2021-08-19 23:41:45.532,0.63,-0.665
2021-08-19 23:41:45.536,0.65,-0.665
2021-08-19 23:41:45.540,0.68,-0.66
2021-08-19 23:41:45.544,0.71,-0.685
2021-08-19 23:41:45.548,0.75,-0.73
2021-08-19 23:41:45.552,0.78,-0.76
2021-08-19 23:41:45.556,0.835,-0.78
2021-08-19 23:41:45.560,0.865,-0.77
2021-08-19 23:41:45.564,0.87,-0.76
2021-08-19 23:41:45.568,0.875,-0.775
2021-08-19 23:41:45.572,0.925,-0.75
2021-08-19 23:41:45.576,0.95,-0.75
2021-08-19 23:41:45.580,1.005,-0.77
2021-08-19 23:41:45.584,1.035,-0.785
2021-08-19 23:41:45.588,1.04,-0.78
2021-08-19 23:41:45.592,1.035,-0.755
2021-08-19 23:41:45.596,1.04,-0.765
2021-08-19 23:41:45.600,1.05,-0.755
2021-08-19 23:41:45.604,1.025,-0.725
2021-08-19 23:41:45.608,0.985,-0.695
2021-08-19 23:41:45.612,0.98,-0.675
2021-08-19 23:41:45.616,0.96,-0.625
2021-08-19 23:41:45.620,0.945,-0.58
2021-08-19 23:41:45.624,0.915,-0.515
2021-08-19 23:41:45.628,0.865,-0.45
2021-08-19 23:41:45.632,0.815,-0.43
2021-08-19 23:41:45.636,0.775,-0.38
2021-08-19 23:41:45.640,0.705,-0.335
2021-08-19 23:41:45.644,0.655,-0.285
2021-08-19 23:41:45.648,0.59,-0.3
2021-08-19 23:41:45.652,0.525,-0.27
2021-08-19 23:41:45.656,0.475,-0.255
2021-08-19 23:41:45.660,0.39,-0.225
2021-08-19 23:41:45.664,0.335,-0.24
2021-08-19 23:41:45.668,0.295,-0.225
2021-08-19 23:41:45.672,0.21,-0.225
2021-08-19 23:41:45.676,0.185,-0.225
2021-08-19 23:41:45.680,0.135,-0.22
2021-08-19 23:41:45.684,0.14,-0.225
2021-08-19 23:41:45.688,0.115,-0.22
2021-08-19 23:41:45.692,0.1,-0.25
2021-08-19 23:41:45.696,0.055,-0.31
2021-08-19 23:41:45.700,0.055,-0.365
2021-08-19 23:41:45.704,0.035,-0.375
2021-08-19 23:41:45.708,0.01,-0.345
2021-08-19 23:41:45.712,0.005,-0.335
2021-08-19 23:41:45.716,0.0,-0.32
2021-08-19 23:41:45.720,0.01,-0.345
2021-08-19 23:41:45.724,0.01,-0.36
2021-08-19 23:41:45.728,0.03,-0.34
2021-08-19 23:41:45.732,0.05,-0.33
2021-08-19 23:41:45.736,0.055,-0.365
2021-08-19 23:41:45.740,0.055,-0.355
2021-08-19 23:41:45.744,0.025,-0.36
2021-08-19 23:41:45.748,0.05,-0.38
2021-08-19 23:41:45.752,0.045,-0.36
2021-08-19 23:41:45.756,0.035,-0.36
2021-08-19 23:41:45.760,0.03,-0.34
2021-08-19 23:41:45.764,0.045,-0.355
2021-08-19 23:41:45.768,0.065,-0.37
2021-08-19 23:41:45.772,0.07,-0.385
2021-08-19 23:41:45.776,0.035,-0.37
2021-08-19 23:41:45.780,0.03,-0.37
2021-08-19 23:41:45.784,0.05,-0.37
2021-08-19 23:41:45.788,0.07,-0.37
2021-08-19 23:41:45.792,0.045,-0.35
2021-08-19 23:41:45.796,0.06,-0.32
2021-08-19 23:41:45.800,0.07,-0.32
2021-08-19 23:41:45.804,0.07,-0.325
2021-08-19 23:41:45.808,0.085,-0.32
2021-08-19 23:41:45.812,0.08,-0.32
2021-08-19 23:41:45.816,0.075,-0.32
2021-08-19 23:41:45.820,0.04,-0.315
2021-08-19 23:41:45.824,0.025,-0.35
2021-08-19 23:41:45.828,-0.02,-0.315
2021-08-19 23:41:45.832,-0.03,-0.33
2021-08-19 23:41:45.836,-0.035,-0.335
2021-08-19 23:41:45.840,-0.03,-0.365
2021-08-19 23:41:45.844,-0.015,-0.37
2021-08-19 23:41:45.848,-0.015,-0.38
2021-08-19 23:41:45.852,-0.025,-0.335
2021-08-19 23:41:45.856,-0.07,-0.3
2021-08-19 23:41:45.860,-0.05,-0.27
2021-08-19 23:41:45.864,-0.04,-0.265
2021-08-19 23:41:45.868,0.005,-0.27
2021-08-19 23:41:45.872,0.03,-0.255
2021-08-19 23:41:45.876,0.01,-0.265
2021-08-19 23:41:45.880,0.03,-0.29
2021-08-19 23:41:45.884,0.04,-0.31
2021-08-19 23:41:45.888,0.03,-0.31
2021-08-19 23:41:45.892,0.0,-0.3
2021-08-19 23:41:45.896,0.01,-0.295
2021-08-19 23:41:45.900,0.015,-0.27
2021-08-19 23:41:45.904,0.01,-0.295
2021-08-19 23:41:45.908,0.01,-0.27
2021-08-19 23:41:45.912,0.035,-0.265
2021-08-19 23:41:45.916,0.02,-0.27
2021-08-19 23:41:45.920,0.025,-0.265
2021-08-19 23:41:45.924,0.04,-0.29
2021-08-19 23:41:45.928,0.045,-0.255
2021-08-19 23:41:45.932,0.035,-0.27
2021-08-19 23:41:45.936,0.05,-0.25
2021-08-19 23:41:45.940,0.03,-0.17
2021-08-19 23:41:45.944,0.035,-0.03
2021-08-19 23:41:45.948,0.05,0.1
2021-08-19 23:41:45.952,0.12,0.355
2021-08-19 23:41:45.956,0.235,0.65
2021-08-19 23:41:45.960,0.195,0.885
2021-08-19 23:41:45.964,-0.08,1.15
2021-08-19 23:41:45.968,-0.685,1.455
2021-08-19 23:41:45.972,-1.485,1.715
2021-08-19 23:41:46.016,-1.93,1.28
2021-08-19 23:41:46.020,-1.775,1.305
2021-08-19 23:41:46.024,-1.625,1.21
2021-08-19 23:41:46.028,-1.49,0.875
2021-08-19 23:41:46.032,-1.37,0.415
2021-08-19 23:41:46.036,-1.275,0.04
2021-08-19 23:41:46.040,-1.115,-0.19
2021-08-19 23:41:46.044,-0.965,-0.385
2021-08-19 23:41:46.048,-0.81,-0.48
2021-08-19 23:41:46.052,-0.63,-0.565
2021-08-19 23:41:46.056,-0.37,-0.57
2021-08-19 23:41:46.060,-0.1,-0.545
2021-08-19 23:41:46.064,0.09,-0.57
2021-08-19 23:41:46.068,0.28,-0.59
2021-08-19 23:41:46.072,0.37,-0.605
2021-08-19 23:41:46.076,0.425,-0.57
2021-08-19 23:41:46.080,0.465,-0.58
2021-08-19 23:41:46.084,0.505,-0.605
2021-08-19 23:41:46.088,0.53,-0.565
2021-08-19 23:41:46.092,0.56,-0.555
2021-08-19 23:41:46.096,0.585,-0.565
2021-08-19 23:41:46.100,0.615,-0.58
2021-08-19 23:41:46.104,0.63,-0.555
2021-08-19 23:41:46.108,0.675,-0.54
2021-08-19 23:41:46.112,0.69,-0.54
2021-08-19 23:41:46.116,0.715,-0.545
2021-08-19 23:41:46.120,0.78,-0.545
2021-08-19 23:41:46.124,0.755,-0.545
2021-08-19 23:41:46.128,0.78,-0.575
2021-08-19 23:41:46.132,0.79,-0.58
2021-08-19 23:41:46.136,0.75,-0.55
2021-08-19 23:41:46.140,0.73,-0.57
2021-08-19 23:41:46.144,0.765,-0.585
2021-08-19 23:41:46.148,0.775,-0.56
2021-08-19 23:41:46.152,0.825,-0.545
2021-08-19 23:41:46.156,0.855,-0.56
2021-08-19 23:41:46.160,0.87,-0.575
2021-08-19 23:41:46.164,0.925,-0.585
2021-08-19 23:41:46.168,0.975,-0.585
2021-08-19 23:41:46.172,1.005,-0.58
2021-08-19 23:41:46.176,1.025,-0.585
2021-08-19 23:41:46.180,1.07,-0.61
2021-08-19 23:41:46.184,1.075,-0.59
2021-08-19 23:41:46.188,1.12,-0.6
2021-08-19 23:41:46.192,1.15,-0.595
2021-08-19 23:41:46.196,1.165,-0.61
2021-08-19 23:41:46.200,1.19,-0.61
2021-08-19 23:41:46.204,1.205,-0.59
2021-08-19 23:41:46.208,1.185,-0.57
2021-08-19 23:41:46.212,1.165,-0.585
2021-08-19 23:41:46.216,1.145,-0.555
2021-08-19 23:41:46.220,1.12,-0.52
2021-08-19 23:41:46.224,1.08,-0.46
2021-08-19 23:41:46.228,1.035,-0.41
2021-08-19 23:41:46.232,0.98,-0.38
2021-08-19 23:41:46.236,0.93,-0.33
2021-08-19 23:41:46.240,0.895,-0.305
2021-08-19 23:41:46.244,0.83,-0.29
2021-08-19 23:41:46.248,0.78,-0.25
2021-08-19 23:41:46.252,0.705,-0.22
2021-08-19 23:41:46.256,0.655,-0.21
2021-08-19 23:41:46.260,0.58,-0.195
2021-08-19 23:41:46.264,0.53,-0.215
2021-08-19 23:41:46.268,0.47,-0.23
2021-08-19 23:41:46.272,0.4,-0.225
2021-08-19 23:41:46.276,0.295,-0.255
2021-08-19 23:41:46.280,0.255,-0.285
2021-08-19 23:41:46.284,0.215,-0.305
2021-08-19 23:41:46.288,0.13,-0.32
2021-08-19 23:41:46.292,0.075,-0.305
2021-08-19 23:41:46.296,0.03,-0.265
2021-08-19 23:41:46.300,0.015,-0.28
2021-08-19 23:41:46.304,0.015,-0.27
2021-08-19 23:41:46.308,0.05,-0.275
2021-08-19 23:41:46.312,0.04,-0.285
2021-08-19 23:41:46.316,0.035,-0.265
2021-08-19 23:41:46.320,0.02,-0.27
2021-08-19 23:41:46.324,0.005,-0.275
2021-08-19 23:41:46.328,0.015,-0.26
2021-08-19 23:41:46.332,-0.005,-0.26
2021-08-19 23:41:46.336,0.025,-0.245
2021-08-19 23:41:46.340,0.01,-0.26
2021-08-19 23:41:46.344,0.025,-0.26
2021-08-19 23:41:46.348,0.015,-0.245
2021-08-19 23:41:46.352,0.05,-0.255
2021-08-19 23:41:46.356,0.035,-0.26
2021-08-19 23:41:46.360,0.04,-0.255
2021-08-19 23:41:46.364,0.065,-0.25
2021-08-19 23:41:46.368,0.06,-0.285
2021-08-19 23:41:46.372,0.07,-0.285
2021-08-19 23:41:46.376,0.07,-0.265
2021-08-19 23:41:46.380,0.08,-0.28
2021-08-19 23:41:46.384,0.1,-0.285
2021-08-19 23:41:46.388,0.09,-0.27
2021-08-19 23:41:46.392,0.105,-0.29
2021-08-19 23:41:46.396,0.085,-0.315
2021-08-19 23:41:46.400,0.095,-0.345
2021-08-19 23:41:46.404,0.09,-0.335
2021-08-19 23:41:46.408,0.1,-0.37
2021-08-19 23:41:46.412,0.07,-0.385
2021-08-19 23:41:46.416,0.07,-0.415
2021-08-19 23:41:46.420,0.02,-0.43
2021-08-19 23:41:46.424,0.015,-0.455
2021-08-19 23:41:46.428,0.0,-0.45
2021-08-19 23:41:46.432,-0.045,-0.42
2021-08-19 23:41:46.436,-0.075,-0.405
2021-08-19 23:41:46.440,-0.08,-0.405
2021-08-19 23:41:46.444,-0.05,-0.41
2021-08-19 23:41:46.448,-0.055,-0.42
2021-08-19 23:41:46.452,-0.065,-0.41
2021-08-19 23:41:46.456,-0.065,-0.39
2021-08-19 23:41:46.460,-0.065,-0.375
2021-08-19 23:41:46.464,-0.065,-0.375
2021-08-19 23:41:46.468,-0.07,-0.38
2021-08-19 23:41:46.472,-0.075,-0.38
2021-08-19 23:41:46.476,-0.06,-0.35
2021-08-19 23:41:46.480,-0.06,-0.345
2021-08-19 23:41:46.484,-0.05,-0.355
2021-08-19 23:41:46.488,-0.05,-0.31
2021-08-19 23:41:46.492,-0.04,-0.31
2021-08-19 23:41:46.496,-0.06,-0.325
2021-08-19 23:41:46.500,-0.035,-0.31
2021-08-19 23:41:46.504,-0.045,-0.29
2021-08-19 23:41:46.508,-0.025,-0.27
2021-08-19 23:41:46.512,-0.015,-0.255
2021-08-19 23:41:46.516,-0.025,-0.275
2021-08-19 23:41:46.520,-0.005,-0.25
2021-08-19 23:41:46.524,0.015,-0.24
2021-08-19 23:41:46.528,0.01,-0.235
2021-08-19 23:41:46.532,0.025,-0.235
2021-08-19 23:41:46.536,0.04,-0.205
2021-08-19 23:41:46.540,0.035,-0.16
2021-08-19 23:41:46.544,0.045,-0.17
2021-08-19 23:41:46.548,0.045,-0.165
2021-08-19 23:41:46.552,0.04,-0.205
2021-08-19 23:41:46.556,0.045,-0.24
2021-08-19 23:41:46.560,0.05,-0.28
2021-08-19 23:41:46.564,0.045,-0.28
2021-08-19 23:41:46.568,0.055,-0.25
2021-08-19 23:41:46.572,0.035,-0.255
2021-08-19 23:41:46.576,0.02,-0.265
2021-08-19 23:41:46.580,0.01,-0.275
2021-08-19 23:41:46.584,0.035,-0.285
2021-08-19 23:41:46.588,0.035,-0.3
2021-08-19 23:41:46.592,0.03,-0.315
2021-08-19 23:41:46.596,0.015,-0.34
2021-08-19 23:41:46.600,0.025,-0.325
2021-08-19 23:41:46.604,-0.015,-0.315
2021-08-19 23:41:46.608,-0.03,-0.32
2021-08-19 23:41:46.612,-0.045,-0.315
2021-08-19 23:41:46.616,-0.02,-0.295
2021-08-19 23:41:46.620,-0.035,-0.28
2021-08-19 23:41:46.624,-0.03,-0.245
2021-08-19 23:41:46.628,-0.06,-0.185
2021-08-19 23:41:46.632,-0.05,-0.065
2021-08-19 23:41:46.636,0.0,0.125
2021-08-19 23:41:46.640,0.09,0.345
2021-08-19 23:41:46.644,0.195,0.575
2021-08-19 23:41:46.648,0.14,0.755
2021-08-19 23:41:46.652,-0.15,0.985
2021-08-19 23:41:46.656,-0.685,1.27
2021-08-19 23:41:46.660,-1.42,1.52
2021-08-19 23:41:46.704,-1.91,1.165
2021-08-19 23:41:46.708,-1.79,1.17
2021-08-19 23:41:46.712,-1.655,1.04
2021-08-19 23:41:46.716,-1.48,0.68
2021-08-19 23:41:46.720,-1.345,0.27
2021-08-19 23:41:46.724,-1.205,-0.09
2021-08-19 23:41:46.728,-1.1,-0.285
2021-08-19 23:41:46.732,-0.935,-0.44
2021-08-19 23:41:46.736,-0.79,-0.5
2021-08-19 23:41:46.740,-0.63,-0.54
2021-08-19 23:41:46.744,-0.455,-0.56
2021-08-19 23:41:46.748,-0.205,-0.58
2021-08-19 23:41:46.752,0.0,-0.53
2021-08-19 23:41:46.756,0.165,-0.525
2021-08-19 23:41:46.760,0.28,-0.54
2021-08-19 23:41:46.764,0.35,-0.57
2021-08-19 23:41:46.768,0.405,-0.555
2021-08-19 23:41:46.772,0.415,-0.555
2021-08-19 23:41:46.776,0.5,-0.565
2021-08-19 23:41:46.780,0.49,-0.555
2021-08-19 23:41:46.784,0.515,-0.545
2021-08-19 23:41:46.788,0.54,-0.555
2021-08-19 23:41:46.792,0.56,-0.55
2021-08-19 23:41:46.796,0.575,-0.555
2021-08-19 23:41:46.800,0.585,-0.54
2021-08-19 23:41:46.804,0.605,-0.525
2021-08-19 23:41:46.808,0.615,-0.525
2021-08-19 23:41:46.812,0.63,-0.525
2021-08-19 23:41:46.816,0.685,-0.515
2021-08-19 23:41:46.820,0.7,-0.485
2021-08-19 23:41:46.824,0.73,-0.48
2021-08-19 23:41:46.828,0.755,-0.46
2021-08-19 23:41:46.832,0.805,-0.415
2021-08-19 23:41:46.836,0.87,-0.4
2021-08-19 23:41:46.840,0.91,-0.425
2021-08-19 23:41:46.844,0.955,-0.475
2021-08-19 23:41:46.848,1.005,-0.5
2021-08-19 23:41:46.852,1.03,-0.51
2021-08-19 23:41:46.856,1.05,-0.5
2021-08-19 23:41:46.860,1.075,-0.465
2021-08-19 23:41:46.864,1.11,-0.495
2021-08-19 23:41:46.868,1.13,-0.495
2021-08-19 23:41:46.872,1.18,-0.485
2021-08-19 23:41:46.876,1.23,-0.505
2021-08-19 23:41:46.880,1.275,-0.495
2021-08-19 23:41:46.884,1.295,-0.53
2021-08-19 23:41:46.888,1.3,-0.52
2021-08-19 23:41:46.892,1.335,-0.51
2021-08-19 23:41:46.896,1.335,-0.515
2021-08-19 23:41:46.900,1.37,-0.515
2021-08-19 23:41:46.904,1.355,-0.49
2021-08-19 23:41:46.908,1.35,-0.47
2021-08-19 23:41:46.912,1.295,-0.45
2021-08-19 23:41:46.916,1.245,-0.43
2021-08-19 23:41:46.920,1.165,-0.4
2021-08-19 23:41:46.924,1.13,-0.36
2021-08-19 23:41:46.928,1.06,-0.345
2021-08-19 23:41:46.932,0.995,-0.33
2021-08-19 23:41:46.936,0.94,-0.3
2021-08-19 23:41:46.940,0.85,-0.265
2021-08-19 23:41:46.944,0.775,-0.255
2021-08-19 23:41:46.948,0.67,-0.225
2021-08-19 23:41:46.952,0.605,-0.205
2021-08-19 23:41:46.956,0.55,-0.195
2021-08-19 23:41:46.960,0.5,-0.17
2021-08-19 23:41:46.964,0.41,-0.175
2021-08-19 23:41:46.968,0.35,-0.195
2021-08-19 23:41:46.972,0.335,-0.18
2021-08-19 23:41:46.976,0.27,-0.16
2021-08-19 23:41:46.980,0.27,-0.175
2021-08-19 23:41:46.984,0.23,-0.18
2021-08-19 23:41:46.988,0.195,-0.17
2021-08-19 23:41:46.992,0.21,-0.17
2021-08-19 23:41:46.996,0.2,-0.175
2021-08-19 23:41:47.000,0.185,-0.175
2021-08-19 23:41:47.004,0.175,-0.185
2021-08-19 23:41:47.008,0.175,-0.165
2021-08-19 23:41:47.012,0.17,-0.155
2021-08-19 23:41:47.016,0.15,-0.175
2021-08-19 23:41:47.020,0.13,-0.23
2021-08-19 23:41:47.024,0.15,-0.27
2021-08-19 23:41:47.028,0.16,-0.28
2021-08-19 23:41:47.032,0.155,-0.305
2021-08-19 23:41:47.036,0.12,-0.28
2021-08-19 23:41:47.040,0.125,-0.265
2021-08-19 23:41:47.044,0.115,-0.265
2021-08-19 23:41:47.048,0.135,-0.285
2021-08-19 23:41:47.052,0.165,-0.285
2021-08-19 23:41:47.056,0.17,-0.285
2021-08-19 23:41:47.060,0.18,-0.265
2021-08-19 23:41:47.064,0.19,-0.29
2021-08-19 23:41:47.068,0.19,-0.295
2021-08-19 23:41:47.072,0.21,-0.29
2021-08-19 23:41:47.076,0.24,-0.31
2021-08-19 23:41:47.080,0.23,-0.295
2021-08-19 23:41:47.084,0.205,-0.315
2021-08-19 23:41:47.088,0.2,-0.315
2021-08-19 23:41:47.092,0.19,-0.3
2021-08-19 23:41:47.096,0.125,-0.32
2021-08-19 23:41:47.100,0.1,-0.33
2021-08-19 23:41:47.104,0.085,-0.33
2021-08-19 23:41:47.108,0.075,-0.315
2021-08-19 23:41:47.112,0.065,-0.335
2021-08-19 23:41:47.116,0.04,-0.33
2021-08-19 23:41:47.120,0.005,-0.34
2021-08-19 23:41:47.124,0.025,-0.32
2021-08-19 23:41:47.128,0.015,-0.315
2021-08-19 23:41:47.132,0.04,-0.305
2021-08-19 23:41:47.136,0.03,-0.315
2021-08-19 23:41:47.140,0.02,-0.3
2021-08-19 23:41:47.144,0.025,-0.285
2021-08-19 23:41:47.148,0.04,-0.3
2021-08-19 23:41:47.152,0.045,-0.305
2021-08-19 23:41:47.156,0.06,-0.28
2021-08-19 23:41:47.160,0.055,-0.25
2021-08-19 23:41:47.164,0.05,-0.23
2021-08-19 23:41:47.168,0.065,-0.25
2021-08-19 23:41:47.172,0.045,-0.245
2021-08-19 23:41:47.176,0.07,-0.21
2021-08-19 23:41:47.180,0.075,-0.275
2021-08-19 23:41:47.184,0.055,-0.31
2021-08-19 23:41:47.188,0.085,-0.335
2021-08-19 23:41:47.192,0.085,-0.315
2021-08-19 23:41:47.196,0.055,-0.315
2021-08-19 23:41:47.200,0.015,-0.32
2021-08-19 23:41:47.204,0.015,-0.325
2021-08-19 23:41:47.208,0.06,-0.29
2021-08-19 23:41:47.212,0.075,-0.285
2021-08-19 23:41:47.216,0.04,-0.295
2021-08-19 23:41:47.220,0.015,-0.28
2021-08-19 23:41:47.224,0.05,-0.23
2021-08-19 23:41:47.228,0.06,-0.14
2021-08-19 23:41:47.232,0.05,-0.02
2021-08-19 23:41:47.236,0.095,0.12
2021-08-19 23:41:47.240,0.155,0.405
2021-08-19 23:41:47.244,0.26,0.635
2021-08-19 23:41:47.248,0.235,0.815
2021-08-19 23:41:47.252,-0.045,1.0
2021-08-19 23:41:47.256,-0.54,1.28
2021-08-19 23:41:47.260,-1.28,1.525
2021-08-19 23:41:47.264,-1.93,1.665
2021-08-19 23:41:47.304,-1.985,1.085
2021-08-19 23:41:47.308,-1.925,1.12
2021-08-19 23:41:47.312,-1.8,1.07
2021-08-19 23:41:47.316,-1.665,0.875
2021-08-19 23:41:47.320,-1.53,0.46
2021-08-19 23:41:47.324,-1.395,0.025
2021-08-19 23:41:47.328,-1.31,-0.29
2021-08-19 23:41:47.332,-1.2,-0.475
2021-08-19 23:41:47.336,-1.045,-0.535
2021-08-19 23:41:47.340,-0.87,-0.545
2021-08-19 23:41:47.344,-0.665,-0.575
2021-08-19 23:41:47.348,-0.455,-0.6
2021-08-19 23:41:47.352,-0.2,-0.59
2021-08-19 23:41:47.356,0.015,-0.57
2021-08-19 23:41:47.360,0.215,-0.575
2021-08-19 23:41:47.364,0.345,-0.585
2021-08-19 23:41:47.368,0.405,-0.61
2021-08-19 23:41:47.372,0.445,-0.6
2021-08-19 23:41:47.376,0.485,-0.58
2021-08-19 23:41:47.380,0.5,-0.57
2021-08-19 23:41:47.384,0.52,-0.56
2021-08-19 23:41:47.388,0.56,-0.56
2021-08-19 23:41:47.392,0.59,-0.545
2021-08-19 23:41:47.396,0.62,-0.525
2021-08-19 23:41:47.400,0.655,-0.52
2021-08-19 23:41:47.404,0.67,-0.51
2021-08-19 23:41:47.408,0.7,-0.51
2021-08-19 23:41:47.412,0.71,-0.5
2021-08-19 23:41:47.416,0.725,-0.535
2021-08-19 23:41:47.420,0.725,-0.505
2021-08-19 23:41:47.424,0.765,-0.52
2021-08-19 23:41:47.428,0.775,-0.53
2021-08-19 23:41:47.432,0.785,-0.54
2021-08-19 23:41:47.436,0.82,-0.53
2021-08-19 23:41:47.440,0.865,-0.52
2021-08-19 23:41:47.444,0.88,-0.51
2021-08-19 23:41:47.448,0.89,-0.515
2021-08-19 23:41:47.452,0.865,-0.5
2021-08-19 23:41:47.456,0.87,-0.48
2021-08-19 23:41:47.460,0.88,-0.47
2021-08-19 23:41:47.464,0.915,-0.46
2021-08-19 23:41:47.468,0.95,-0.49
2021-08-19 23:41:47.472,0.965,-0.48
2021-08-19 23:41:47.476,0.97,-0.47
2021-08-19 23:41:47.480,1.005,-0.495
2021-08-19 23:41:47.484,0.98,-0.545
2021-08-19 23:41:47.488,0.99,-0.585
2021-08-19 23:41:47.492,0.99,-0.56
2021-08-19 23:41:47.496,0.995,-0.57
2021-08-19 23:41:47.500,0.99,-0.555
2021-08-19 23:41:47.504,0.985,-0.52
2021-08-19 23:41:47.508,1.01,-0.495
2021-08-19 23:41:47.512,0.97,-0.485
2021-08-19 23:41:47.516,0.955,-0.45
2021-08-19 23:41:47.520,0.945,-0.42
2021-08-19 23:41:47.524,0.935,-0.37
2021-08-19 23:41:47.528,0.875,-0.36
2021-08-19 23:41:47.532,0.85,-0.315
2021-08-19 23:41:47.536,0.81,-0.285
2021-08-19 23:41:47.540,0.795,-0.26
2021-08-19 23:41:47.544,0.745,-0.245
2021-08-19 23:41:47.548,0.685,-0.225
2021-08-19 23:41:47.552,0.63,-0.21
2021-08-19 23:41:47.556,0.555,-0.205
2021-08-19 23:41:47.560,0.52,-0.23
2021-08-19 23:41:47.564,0.465,-0.22
2021-08-19 23:41:47.568,0.42,-0.225
2021-08-19 23:41:47.572,0.375,-0.24
2021-08-19 23:41:47.576,0.34,-0.225
2021-08-19 23:41:47.580,0.275,-0.265
2021-08-19 23:41:47.584,0.23,-0.27
2021-08-19 23:41:47.588,0.225,-0.235
2021-08-19 23:41:47.592,0.21,-0.265
2021-08-19 23:41:47.596,0.19,-0.29
2021-08-19 23:41:47.600,0.205,-0.265
2021-08-19 23:41:47.604,0.19,-0.275
2021-08-19 23:41:47.608,0.165,-0.295
2021-08-19 23:41:47.612,0.125,-0.32
2021-08-19 23:41:47.616,0.09,-0.295
2021-08-19 23:41:47.620,0.09,-0.27
2021-08-19 23:41:47.624,0.05,-0.315
2021-08-19 23:41:47.628,0.035,-0.33
2021-08-19 23:41:47.632,0.04,-0.36
2021-08-19 23:41:47.636,0.05,-0.385
2021-08-19 23:41:47.640,0.06,-0.405
2021-08-19 23:41:47.644,0.035,-0.38
2021-08-19 23:41:47.648,0.03,-0.4
2021-08-19 23:41:47.652,0.0,-0.39
2021-08-19 23:41:47.656,-0.02,-0.365
2021-08-19 23:41:47.660,-0.01,-0.345
2021-08-19 23:41:47.664,0.0,-0.375
2021-08-19 23:41:47.668,-0.005,-0.38
2021-08-19 23:41:47.672,0.025,-0.355
2021-08-19 23:41:47.676,0.025,-0.365
2021-08-19 23:41:47.680,0.04,-0.355
2021-08-19 23:41:47.684,0.015,-0.37
2021-08-19 23:41:47.688,0.015,-0.355
2021-08-19 23:41:47.692,0.03,-0.36
2021-08-19 23:41:47.696,0.045,-0.38
2021-08-19 23:41:47.700,0.05,-0.37
2021-08-19 23:41:47.704,0.04,-0.395
2021-08-19 23:41:47.708,0.06,-0.38
2021-08-19 23:41:47.712,0.04,-0.37
2021-08-19 23:41:47.716,0.045,-0.395
2021-08-19 23:41:47.720,0.045,-0.365
2021-08-19 23:41:47.724,0.035,-0.35
2021-08-19 23:41:47.728,0.06,-0.345
2021-08-19 23:41:47.732,0.07,-0.35
2021-08-19 23:41:47.736,0.07,-0.345
2021-08-19 23:41:47.740,0.08,-0.34
2021-08-19 23:41:47.744,0.09,-0.31
2021-08-19 23:41:47.748,0.08,-0.31
2021-08-19 23:41:47.752,0.09,-0.3
2021-08-19 23:41:47.756,0.1,-0.265
2021-08-19 23:41:47.760,0.085,-0.27
2021-08-19 23:41:47.764,0.075,-0.285
2021-08-19 23:41:47.768,0.095,-0.305
2021-08-19 23:41:47.772,0.11,-0.3
2021-08-19 23:41:47.776,0.115,-0.3
2021-08-19 23:41:47.780,0.14,-0.35
2021-08-19 23:41:47.784,0.125,-0.36
2021-08-19 23:41:47.788,0.125,-0.34
2021-08-19 23:41:47.792,0.11,-0.345
2021-08-19 23:41:47.796,0.12,-0.31
2021-08-19 23:41:47.800,0.1,-0.315
2021-08-19 23:41:47.804,0.105,-0.305
2021-08-19 23:41:47.808,0.075,-0.295
2021-08-19 23:41:47.812,0.06,-0.28
2021-08-19 23:41:47.816,0.04,-0.295
2021-08-19 23:41:47.820,0.015,-0.32
2021-08-19 23:41:47.824,0.0,-0.33
2021-08-19 23:41:47.828,-0.02,-0.3
2021-08-19 23:41:47.832,-0.04,-0.31
2021-08-19 23:41:47.836,-0.035,-0.305
2021-08-19 23:41:47.840,-0.045,-0.3
2021-08-19 23:41:47.844,-0.045,-0.265
2021-08-19 23:41:47.848,-0.05,-0.28
2021-08-19 23:41:47.852,-0.04,-0.275
2021-08-19 23:41:47.856,-0.02,-0.28
2021-08-19 23:41:47.860,-0.045,-0.265
2021-08-19 23:41:47.864,-0.03,-0.25
2021-08-19 23:41:47.868,-0.01,-0.275
2021-08-19 23:41:47.872,-0.01,-0.26
2021-08-19 23:41:47.876,-0.01,-0.245
2021-08-19 23:41:47.880,-0.01,-0.215
2021-08-19 23:41:47.884,0.0,-0.145
2021-08-19 23:41:47.888,-0.015,0.0
2021-08-19 23:41:47.892,0.02,0.2
2021-08-19 23:41:47.896,0.07,0.51
2021-08-19 23:41:47.900,0.14,0.86
2021-08-19 23:41:47.904,0.145,1.11
2021-08-19 23:41:47.908,-0.04,1.345
2021-08-19 23:41:47.912,-0.41,1.56
2021-08-19 23:41:47.916,-1.06,1.77
2021-08-19 23:41:47.920,-1.72,1.91
2021-08-19 23:41:47.960,-1.955,1.24
2021-08-19 23:41:47.964,-1.855,1.29
2021-08-19 23:41:47.968,-1.725,1.38
2021-08-19 23:41:47.972,-1.605,1.295
2021-08-19 23:41:47.976,-1.47,0.95
2021-08-19 23:41:47.980,-1.33,0.51
2021-08-19 23:41:47.984,-1.23,0.13
2021-08-19 23:41:47.988,-1.08,-0.18
2021-08-19 23:41:47.992,-0.945,-0.39
2021-08-19 23:41:47.996,-0.795,-0.5
2021-08-19 23:41:48.000,-0.595,-0.59
2021-08-19 23:41:48.004,-0.435,-0.635
2021-08-19 23:41:48.008,-0.24,-0.635
2021-08-19 23:41:48.012,-0.065,-0.605
2021-08-19 23:41:48.016,0.1,-0.59
2021-08-19 23:41:48.020,0.2,-0.6
2021-08-19 23:41:48.024,0.29,-0.605
2021-08-19 23:41:48.028,0.33,-0.61
2021-08-19 23:41:48.032,0.37,-0.615
2021-08-19 23:41:48.036,0.395,-0.575
2021-08-19 23:41:48.040,0.435,-0.57
2021-08-19 23:41:48.044,0.46,-0.56
2021-08-19 23:41:48.048,0.485,-0.575
2021-08-19 23:41:48.052,0.51,-0.59
2021-08-19 23:41:48.056,0.535,-0.56
2021-08-19 23:41:48.060,0.535,-0.525
2021-08-19 23:41:48.064,0.545,-0.54
2021-08-19 23:41:48.068,0.57,-0.515
2021-08-19 23:41:48.072,0.59,-0.52
2021-08-19 23:41:48.076,0.61,-0.515
2021-08-19 23:41:48.080,0.625,-0.55
2021-08-19 23:41:48.084,0.66,-0.55
2021-08-19 23:41:48.088,0.695,-0.55
2021-08-19 23:41:48.092,0.705,-0.55
2021-08-19 23:41:48.096,0.715,-0.54
2021-08-19 23:41:48.100,0.74,-0.56
2021-08-19 23:41:48.104,0.785,-0.545
2021-08-19 23:41:48.108,0.82,-0.56
2021-08-19 23:41:48.112,0.85,-0.56
2021-08-19 23:41:48.116,0.86,-0.57
2021-08-19 23:41:48.120,0.905,-0.56
2021-08-19 23:41:48.124,0.925,-0.56
2021-08-19 23:41:48.128,0.975,-0.575
2021-08-19 23:41:48.132,0.99,-0.6
2021-08-19 23:41:48.136,1.025,-0.56
2021-08-19 23:41:48.140,1.055,-0.56
2021-08-19 23:41:48.144,1.095,-0.575
2021-08-19 23:41:48.148,1.1,-0.57
2021-08-19 23:41:48.152,1.1,-0.56
2021-08-19 23:41:48.156,1.13,-0.52
2021-08-19 23:41:48.160,1.145,-0.495
2021-08-19 23:41:48.164,1.12,-0.48
2021-08-19 23:41:48.168,1.09,-0.455
2021-08-19 23:41:48.172,1.09,-0.4
2021-08-19 23:41:48.176,1.07,-0.36
2021-08-19 23:41:48.180,1.015,-0.345
2021-08-19 23:41:48.184,0.93,-0.345
2021-08-19 23:41:48.188,0.86,-0.32
2021-08-19 23:41:48.192,0.8,-0.28
2021-08-19 23:41:48.196,0.74,-0.26
2021-08-19 23:41:48.200,0.68,-0.245
2021-08-19 23:41:48.204,0.615,-0.23
2021-08-19 23:41:48.208,0.53,-0.205
2021-08-19 23:41:48.212,0.45,-0.21
2021-08-19 23:41:48.216,0.365,-0.24
2021-08-19 23:41:48.220,0.27,-0.205
2021-08-19 23:41:48.224,0.235,-0.21
2021-08-19 23:41:48.228,0.195,-0.22
2021-08-19 23:41:48.232,0.16,-0.275
2021-08-19 23:41:48.236,0.14,-0.28
2021-08-19 23:41:48.240,0.105,-0.265
2021-08-19 23:41:48.244,0.065,-0.27
2021-08-19 23:41:48.248,0.035,-0.28
2021-08-19 23:41:48.252,0.005,-0.285
2021-08-19 23:41:48.256,-0.005,-0.27
2021-08-19 23:41:48.260,-0.01,-0.26
2021-08-19 23:41:48.264,-0.025,-0.275
2021-08-19 23:41:48.268,-0.025,-0.29
2021-08-19 23:41:48.272,-0.025,-0.285
2021-08-19 23:41:48.276,-0.035,-0.255
2021-08-19 23:41:48.280,-0.05,-0.285
2021-08-19 23:41:48.284,-0.04,-0.285
2021-08-19 23:41:48.288,-0.025,-0.265
2021-08-19 23:41:48.292,0.0,-0.26
2021-08-19 23:41:48.296,0.0,-0.28
2021-08-19 23:41:48.300,0.0,-0.3
2021-08-19 23:41:48.304,0.0,-0.28
2021-08-19 23:41:48.308,0.0,-0.29
2021-08-19 23:41:48.312,0.0,-0.29
2021-08-19 23:41:48.316,-0.025,-0.295
2021-08-19 23:41:48.320,-0.055,-0.295
2021-08-19 23:41:48.324,-0.03,-0.3
2021-08-19 23:41:48.328,-0.03,-0.31
2021-08-19 23:41:48.332,-0.025,-0.325
2021-08-19 23:41:48.336,0.0,-0.365
2021-08-19 23:41:48.340,0.015,-0.385
2021-08-19 23:41:48.344,0.01,-0.39
2021-08-19 23:41:48.348,0.01,-0.41
2021-08-19 23:41:48.352,-0.005,-0.43
2021-08-19 23:41:48.356,-0.01,-0.42
2021-08-19 23:41:48.360,-0.01,-0.37
2021-08-19 23:41:48.364,0.0,-0.4
2021-08-19 23:41:48.368,-0.045,-0.465
2021-08-19 23:41:48.372,-0.045,-0.48
2021-08-19 23:41:48.376,-0.035,-0.47
2021-08-19 23:41:48.380,-0.055,-0.48
2021-08-19 23:41:48.384,-0.08,-0.46
2021-08-19 23:41:48.388,-0.12,-0.445
2021-08-19 23:41:48.392,-0.145,-0.435
2021-08-19 23:41:48.396,-0.15,-0.435
2021-08-19 23:41:48.400,-0.135,-0.43
2021-08-19 23:41:48.404,-0.095,-0.425
2021-08-19 23:41:48.408,-0.11,-0.395
2021-08-19 23:41:48.412,-0.095,-0.395
2021-08-19 23:41:48.416,-0.105,-0.405
2021-08-19 23:41:48.420,-0.11,-0.37
2021-08-19 23:41:48.424,-0.085,-0.365
2021-08-19 23:41:48.428,-0.09,-0.35
2021-08-19 23:41:48.432,-0.08,-0.35
2021-08-19 23:41:48.436,-0.08,-0.335
2021-08-19 23:41:48.440,-0.08,-0.32
2021-08-19 23:41:48.444,-0.075,-0.285
2021-08-19 23:41:48.448,-0.075,-0.24
2021-08-19 23:41:48.452,-0.07,-0.15
2021-08-19 23:41:48.456,-0.08,0.08
2021-08-19 23:41:48.460,-0.04,0.365
2021-08-19 23:41:48.464,0.035,0.725
2021-08-19 23:41:48.468,0.1,1.03
2021-08-19 23:41:48.472,-0.01,1.27
2021-08-19 23:41:48.476,-0.315,1.53
2021-08-19 23:41:48.480,-0.835,1.75
2021-08-19 23:41:48.484,-1.48,1.94
2021-08-19 23:41:48.528,-1.905,1.425
2021-08-19 23:41:48.532,-1.79,1.505
2021-08-19 23:41:48.536,-1.68,1.39
2021-08-19 23:41:48.540,-1.565,1.0
2021-08-19 23:41:48.544,-1.47,0.485
2021-08-19 23:41:48.548,-1.4,0.07
2021-08-19 23:41:48.552,-1.275,-0.275
2021-08-19 23:41:48.556,-1.12,-0.5
2021-08-19 23:41:48.560,-0.94,-0.62
2021-08-19 23:41:48.564,-0.75,-0.66
2021-08-19 23:41:48.568,-0.52,-0.67
2021-08-19 23:41:48.572,-0.36,-0.64
2021-08-19 23:41:48.576,-0.17,-0.64
2021-08-19 23:41:48.580,-0.01,-0.67
2021-08-19 23:41:48.584,0.11,-0.67
2021-08-19 23:41:48.588,0.195,-0.67
2021-08-19 23:41:48.592,0.25,-0.71
2021-08-19 23:41:48.596,0.305,-0.67
2021-08-19 23:41:48.600,0.335,-0.64
2021-08-19 23:41:48.604,0.335,-0.65
2021-08-19 23:41:48.608,0.365,-0.66
2021-08-19 23:41:48.612,0.37,-0.64
2021-08-19 23:41:48.616,0.425,-0.635
2021-08-19 23:41:48.620,0.44,-0.645
2021-08-19 23:41:48.624,0.46,-0.63
2021-08-19 23:41:48.628,0.48,-0.64
2021-08-19 23:41:48.632,0.485,-0.64
2021-08-19 23:41:48.636,0.51,-0.625
2021-08-19 23:41:48.640,0.52,-0.665
2021-08-19 23:41:48.644,0.55,-0.68
2021-08-19 23:41:48.648,0.565,-0.68
2021-08-19 23:41:48.652,0.605,-0.66
2021-08-19 23:41:48.656,0.63,-0.69
2021-08-19 23:41:48.660,0.625,-0.685
2021-08-19 23:41:48.664,0.66,-0.68
2021-08-19 23:41:48.668,0.715,-0.705
2021-08-19 23:41:48.672,0.765,-0.715
2021-08-19 23:41:48.676,0.785,-0.73
2021-08-19 23:41:48.680,0.835,-0.745
2021-08-19 23:41:48.684,0.865,-0.75
2021-08-19 23:41:48.688,0.9,-0.76
2021-08-19 23:41:48.692,0.92,-0.765
2021-08-19 23:41:48.696,0.915,-0.76
2021-08-19 23:41:48.700,0.925,-0.75
2021-08-19 23:41:48.704,0.945,-0.76
2021-08-19 23:41:48.708,0.975,-0.75
2021-08-19 23:41:48.712,0.97,-0.735
2021-08-19 23:41:48.716,0.965,-0.715
2021-08-19 23:41:48.720,0.945,-0.69
2021-08-19 23:41:48.724,0.97,-0.67
2021-08-19 23:41:48.728,0.96,-0.625
2021-08-19 23:41:48.732,0.925,-0.585
2021-08-19 23:41:48.736,0.88,-0.545
2021-08-19 23:41:48.740,0.82,-0.5
2021-08-19 23:41:48.744,0.79,-0.485
2021-08-19 23:41:48.748,0.735,-0.4
2021-08-19 23:41:48.752,0.69,-0.36
2021-08-19 23:41:48.756,0.62,-0.33
2021-08-19 23:41:48.760,0.545,-0.305
2021-08-19 23:41:48.764,0.49,-0.27
2021-08-19 23:41:48.768,0.445,-0.25
2021-08-19 23:41:48.772,0.405,-0.265
2021-08-19 23:41:48.776,0.345,-0.295
2021-08-19 23:41:48.780,0.28,-0.295
2021-08-19 23:41:48.784,0.245,-0.3
2021-08-19 23:41:48.788,0.195,-0.3
2021-08-19 23:41:48.792,0.155,-0.31
2021-08-19 23:41:48.796,0.12,-0.295
2021-08-19 23:41:48.800,0.11,-0.29
2021-08-19 23:41:48.804,0.11,-0.3
2021-08-19 23:41:48.808,0.09,-0.33
2021-08-19 23:41:48.812,0.07,-0.325
2021-08-19 23:41:48.816,0.08,-0.32
2021-08-19 23:41:48.820,0.05,-0.33
2021-08-19 23:41:48.824,0.035,-0.335
2021-08-19 23:41:48.828,0.025,-0.34
2021-08-19 23:41:48.832,0.05,-0.33
2021-08-19 23:41:48.836,0.01,-0.31
2021-08-19 23:41:48.840,0.0,-0.33
2021-08-19 23:41:48.844,0.005,-0.315
2021-08-19 23:41:48.848,0.005,-0.28
2021-08-19 23:41:48.852,0.0,-0.27
2021-08-19 23:41:48.856,0.005,-0.28
2021-08-19 23:41:48.860,-0.015,-0.265
2021-08-19 23:41:48.864,0.02,-0.245
2021-08-19 23:41:48.868,0.03,-0.24
2021-08-19 23:41:48.872,0.02,-0.26
2021-08-19 23:41:48.876,0.03,-0.295
2021-08-19 23:41:48.880,0.03,-0.285
2021-08-19 23:41:48.884,0.02,-0.275
2021-08-19 23:41:48.888,0.005,-0.3
2021-08-19 23:41:48.892,0.035,-0.325
2021-08-19 23:41:48.896,0.035,-0.32
2021-08-19 23:41:48.900,0.04,-0.315
2021-08-19 23:41:48.904,0.025,-0.32
2021-08-19 23:41:48.908,0.02,-0.36
2021-08-19 23:41:48.912,0.01,-0.41
2021-08-19 23:41:48.916,0.0,-0.415
2021-08-19 23:41:48.920,0.0,-0.41
2021-08-19 23:41:48.924,-0.01,-0.41
2021-08-19 23:41:48.928,-0.015,-0.37
2021-08-19 23:41:48.932,-0.01,-0.37
2021-08-19 23:41:48.936,-0.015,-0.345
2021-08-19 23:41:48.940,0.0,-0.365
2021-08-19 23:41:48.944,0.02,-0.38
2021-08-19 23:41:48.948,0.035,-0.385
2021-08-19 23:41:48.952,0.005,-0.385
2021-08-19 23:41:48.956,0.02,-0.415
2021-08-19 23:41:48.960,0.01,-0.41
2021-08-19 23:41:48.964,0.01,-0.39
2021-08-19 23:41:48.968,-0.015,-0.375
2021-08-19 23:41:48.972,-0.04,-0.365
2021-08-19 23:41:48.976,-0.02,-0.38
2021-08-19 23:41:48.980,-0.02,-0.365
2021-08-19 23:41:48.984,-0.03,-0.36
2021-08-19 23:41:48.988,-0.01,-0.355
2021-08-19 23:41:48.992,0.0,-0.35
2021-08-19 23:41:48.996,0.0,-0.33
2021-08-19 23:41:49.000,-0.025,-0.31
2021-08-19 23:41:49.004,-0.01,-0.3
2021-08-19 23:41:49.008,-0.02,-0.29
2021-08-19 23:41:49.012,0.01,-0.28
2021-08-19 23:41:49.016,0.02,-0.26
2021-08-19 23:41:49.020,0.02,-0.235
2021-08-19 23:41:49.024,0.05,-0.22
2021-08-19 23:41:49.028,0.045,-0.23
2021-08-19 23:41:49.032,0.055,-0.215
2021-08-19 23:41:49.036,0.075,-0.24
2021-08-19 23:41:49.040,0.075,-0.24
2021-08-19 23:41:49.044,0.095,-0.25
2021-08-19 23:41:49.048,0.085,-0.26
2021-08-19 23:41:49.052,0.06,-0.26
2021-08-19 23:41:49.056,0.08,-0.275
2021-08-19 23:41:49.060,0.08,-0.26
2021-08-19 23:41:49.064,0.09,-0.21
2021-08-19 23:41:49.068,0.1,-0.21
2021-08-19 23:41:49.072,0.09,-0.23
2021-08-19 23:41:49.076,0.11,-0.215
2021-08-19 23:41:49.080,0.1,-0.22
2021-08-19 23:41:49.084,0.11,-0.2
2021-08-19 23:41:49.088,0.125,-0.21
2021-08-19 23:41:49.092,0.14,-0.22
2021-08-19 23:41:49.096,0.135,-0.26
2021-08-19 23:41:49.100,0.125,-0.26
2021-08-19 23:41:49.104,0.12,-0.255
2021-08-19 23:41:49.108,0.12,-0.3
2021-08-19 23:41:49.112,0.14,-0.285
2021-08-19 23:41:49.116,0.14,-0.295
2021-08-19 23:41:49.120,0.09,-0.275
2021-08-19 23:41:49.124,0.05,-0.28
2021-08-19 23:41:49.128,0.02,-0.28
2021-08-19 23:41:49.132,0.0,-0.295
2021-08-19 23:41:49.136,0.0,-0.26
2021-08-19 23:41:49.140,0.01,-0.275
2021-08-19 23:41:49.144,0.0,-0.275
2021-08-19 23:41:49.148,0.01,-0.285
2021-08-19 23:41:49.152,0.005,-0.27
2021-08-19 23:41:49.156,0.025,-0.27
2021-08-19 23:41:49.160,0.03,-0.285
2021-08-19 23:41:49.164,0.02,-0.27
2021-08-19 23:41:49.168,0.005,-0.24
2021-08-19 23:41:49.172,0.03,-0.225
2021-08-19 23:41:49.176,0.035,-0.22
2021-08-19 23:41:49.180,0.035,-0.225
2021-08-19 23:41:49.184,0.03,-0.205
2021-08-19 23:41:49.188,0.05,-0.12
2021-08-19 23:41:49.192,0.02,0.015
2021-08-19 23:41:49.196,0.055,0.21
2021-08-19 23:41:49.200,0.125,0.5
2021-08-19 23:41:49.204,0.215,0.795
2021-08-19 23:41:49.208,0.17,0.975
2021-08-19 23:41:49.212,-0.1,1.18
2021-08-19 23:41:49.216,-0.64,1.405
2021-08-19 23:41:49.220,-1.38,1.645
2021-08-19 23:41:49.260,-1.915,1.53
2021-08-19 23:41:49.264,-1.805,1.59
2021-08-19 23:41:49.268,-1.675,1.7
2021-08-19 23:41:49.272,-1.54,1.65
2021-08-19 23:41:49.276,-1.36,1.325
2021-08-19 23:41:49.280,-1.25,0.785
2021-08-19 23:41:49.284,-1.12,0.35
2021-08-19 23:41:49.288,-1.005,-0.01
2021-08-19 23:41:49.292,-0.855,-0.28
2021-08-19 23:41:49.296,-0.7,-0.46
2021-08-19 23:41:49.300,-0.56,-0.535
2021-08-19 23:41:49.304,-0.39,-0.545
2021-08-19 23:41:49.308,-0.21,-0.59
2021-08-19 23:41:49.312,-0.005,-0.59
2021-08-19 23:41:49.316,0.195,-0.605
2021-08-19 23:41:49.320,0.36,-0.615
2021-08-19 23:41:49.324,0.43,-0.605
2021-08-19 23:41:49.328,0.505,-0.61
2021-08-19 23:41:49.332,0.525,-0.61
2021-08-19 23:41:49.336,0.555,-0.58
2021-08-19 23:41:49.340,0.605,-0.585
2021-08-19 23:41:49.344,0.605,-0.62
2021-08-19 23:41:49.348,0.65,-0.6
2021-08-19 23:41:49.352,0.68,-0.58
2021-08-19 23:41:49.356,0.695,-0.58
2021-08-19 23:41:49.360,0.71,-0.57
2021-08-19 23:41:49.364,0.735,-0.595
2021-08-19 23:41:49.368,0.78,-0.59
2021-08-19 23:41:49.372,0.79,-0.58
2021-08-19 23:41:49.376,0.81,-0.59
2021-08-19 23:41:49.380,0.83,-0.595
2021-08-19 23:41:49.384,0.86,-0.585
2021-08-19 23:41:49.388,0.895,-0.58
2021-08-19 23:41:49.392,0.915,-0.59
2021-08-19 23:41:49.396,0.95,-0.62
2021-08-19 23:41:49.400,0.985,-0.62
2021-08-19 23:41:49.404,1.01,-0.615
2021-08-19 23:41:49.408,1.015,-0.63
2021-08-19 23:41:49.412,1.08,-0.65
2021-08-19 23:41:49.416,1.105,-0.64
2021-08-19 23:41:49.420,1.145,-0.64
2021-08-19 23:41:49.424,1.195,-0.65
2021-08-19 23:41:49.428,1.23,-0.67
2021-08-19 23:41:49.432,1.275,-0.65
2021-08-19 23:41:49.436,1.275,-0.665
2021-08-19 23:41:49.440,1.34,-0.665
2021-08-19 23:41:49.444,1.35,-0.65
2021-08-19 23:41:49.448,1.375,-0.635
2021-08-19 23:41:49.452,1.355,-0.605
2021-08-19 23:41:49.456,1.375,-0.605
2021-08-19 23:41:49.460,1.39,-0.585
2021-08-19 23:41:49.464,1.38,-0.565
2021-08-19 23:41:49.468,1.37,-0.52
2021-08-19 23:41:49.472,1.37,-0.47
2021-08-19 23:41:49.476,1.335,-0.43
2021-08-19 23:41:49.480,1.31,-0.4
2021-08-19 23:41:49.484,1.29,-0.385
2021-08-19 23:41:49.488,1.24,-0.365
2021-08-19 23:41:49.492,1.2,-0.34
2021-08-19 23:41:49.496,1.105,-0.315
2021-08-19 23:41:49.500,0.96,-0.255
2021-08-19 23:41:49.504,0.85,-0.23
2021-08-19 23:41:49.508,0.795,-0.22
2021-08-19 23:41:49.512,0.73,-0.165
2021-08-19 23:41:49.516,0.69,-0.16
2021-08-19 23:41:49.520,0.625,-0.205
2021-08-19 23:41:49.524,0.585,-0.22
2021-08-19 23:41:49.528,0.535,-0.215
2021-08-19 23:41:49.532,0.47,-0.23
2021-08-19 23:41:49.536,0.395,-0.235
2021-08-19 23:41:49.540,0.345,-0.29
2021-08-19 23:41:49.544,0.34,-0.3
2021-08-19 23:41:49.548,0.33,-0.275
2021-08-19 23:41:49.552,0.29,-0.285
2021-08-19 23:41:49.556,0.28,-0.28
2021-08-19 23:41:49.560,0.25,-0.28
2021-08-19 23:41:49.564,0.245,-0.285
2021-08-19 23:41:49.568,0.24,-0.28
2021-08-19 23:41:49.572,0.24,-0.29
2021-08-19 23:41:49.576,0.245,-0.29
2021-08-19 23:41:49.580,0.255,-0.29
2021-08-19 23:41:49.584,0.275,-0.275
2021-08-19 23:41:49.588,0.255,-0.3
2021-08-19 23:41:49.592,0.27,-0.3
2021-08-19 23:41:49.596,0.25,-0.295
2021-08-19 23:41:49.600,0.255,-0.3
2021-08-19 23:41:49.604,0.255,-0.305
2021-08-19 23:41:49.608,0.24,-0.32
2021-08-19 23:41:49.612,0.255,-0.33
2021-08-19 23:41:49.616,0.275,-0.315
2021-08-19 23:41:49.620,0.26,-0.32
2021-08-19 23:41:49.624,0.26,-0.335
2021-08-19 23:41:49.628,0.285,-0.34
2021-08-19 23:41:49.632,0.24,-0.315
2021-08-19 23:41:49.636,0.25,-0.33
2021-08-19 23:41:49.640,0.26,-0.33
2021-08-19 23:41:49.644,0.27,-0.32
2021-08-19 23:41:49.648,0.255,-0.34
2021-08-19 23:41:49.652,0.26,-0.35
2021-08-19 23:41:49.656,0.24,-0.365
2021-08-19 23:41:49.660,0.21,-0.35
2021-08-19 23:41:49.664,0.2,-0.365
2021-08-19 23:41:49.668,0.18,-0.365
2021-08-19 23:41:49.672,0.16,-0.355
2021-08-19 23:41:49.676,0.15,-0.335
2021-08-19 23:41:49.680,0.115,-0.305
2021-08-19 23:41:49.684,0.15,-0.275
2021-08-19 23:41:49.688,0.155,-0.28
2021-08-19 23:41:49.692,0.18,-0.305
2021-08-19 23:41:49.696,0.205,-0.34
2021-08-19 23:41:49.700,0.24,-0.355
2021-08-19 23:41:49.704,0.245,-0.38
2021-08-19 23:41:49.708,0.195,-0.38
2021-08-19 23:41:49.712,0.2,-0.36
2021-08-19 23:41:49.716,0.21,-0.335
2021-08-19 23:41:49.720,0.215,-0.285
2021-08-19 23:41:49.724,0.225,-0.29
2021-08-19 23:41:49.728,0.25,-0.28
2021-08-19 23:41:49.732,0.24,-0.295
2021-08-19 23:41:49.736,0.27,-0.27
2021-08-19 23:41:49.740,0.32,-0.235
2021-08-19 23:41:49.744,0.31,-0.26
2021-08-19 23:41:49.748,0.305,-0.255
2021-08-19 23:41:49.752,0.3,-0.245
2021-08-19 23:41:49.756,0.325,-0.25
2021-08-19 23:41:49.760,0.3,-0.24
2021-08-19 23:41:49.764,0.3,-0.24
2021-08-19 23:41:49.768,0.34,-0.215
2021-08-19 23:41:49.772,0.325,-0.205
2021-08-19 23:41:49.776,0.34,-0.205
2021-08-19 23:41:49.780,0.335,-0.195
2021-08-19 23:41:49.784,0.335,-0.205
2021-08-19 23:41:49.788,0.315,-0.21
2021-08-19 23:41:49.792,0.335,-0.19
2021-08-19 23:41:49.796,0.345,-0.21
2021-08-19 23:41:49.800,0.34,-0.19
2021-08-19 23:41:49.804,0.32,-0.175
2021-08-19 23:41:49.808,0.33,-0.19
2021-08-19 23:41:49.812,0.32,-0.19
2021-08-19 23:41:49.816,0.295,-0.18
2021-08-19 23:41:49.820,0.295,-0.18
2021-08-19 23:41:49.824,0.305,-0.17
2021-08-19 23:41:49.828,0.31,-0.17
2021-08-19 23:41:49.832,0.3,-0.18
2021-08-19 23:41:49.836,0.3,-0.155
2021-08-19 23:41:49.840,0.295,-0.15
2021-08-19 23:41:49.844,0.29,-0.165
2021-08-19 23:41:49.848,0.265,-0.155
2021-08-19 23:41:49.852,0.28,-0.14
2021-08-19 23:41:49.856,0.295,-0.16
2021-08-19 23:41:49.860,0.28,-0.21
2021-08-19 23:41:49.864,0.28,-0.265
2021-08-19 23:41:49.868,0.28,-0.295
2021-08-19 23:41:49.872,0.28,-0.3
2021-08-19 23:41:49.876,0.255,-0.3
2021-08-19 23:41:49.880,0.2,-0.32
2021-08-19 23:41:49.884,0.205,-0.31
2021-08-19 23:41:49.888,0.22,-0.31
2021-08-19 23:41:49.892,0.195,-0.285
2021-08-19 23:41:49.896,0.19,-0.26
2021-08-19 23:41:49.900,0.175,-0.27
2021-08-19 23:41:49.904,0.15,-0.26
2021-08-19 23:41:49.908,0.165,-0.275
2021-08-19 23:41:49.912,0.155,-0.285
2021-08-19 23:41:49.916,0.155,-0.3
2021-08-19 23:41:49.920,0.14,-0.26
2021-08-19 23:41:49.924,0.15,-0.25
2021-08-19 23:41:49.928,0.14,-0.2
2021-08-19 23:41:49.932,0.15,-0.1
2021-08-19 23:41:49.936,0.14,0.08
2021-08-19 23:41:49.940,0.21,0.315
2021-08-19 23:41:49.944,0.285,0.56
2021-08-19 23:41:49.948,0.295,0.745
2021-08-19 23:41:49.952,0.04,1.015
2021-08-19 23:41:49.956,-0.5,1.33
2021-08-19 23:41:49.960,-1.255,1.6
2021-08-19 23:41:49.964,-1.96,1.72
2021-08-19 23:41:49.996,-1.99,1.33
2021-08-19 23:41:50.000,-1.85,1.33
2021-08-19 23:41:50.004,-1.765,1.37
2021-08-19 23:41:50.008,-1.625,1.41
2021-08-19 23:41:50.012,-1.5,1.265
2021-08-19 23:41:50.016,-1.315,0.94
2021-08-19 23:41:50.020,-1.205,0.535
2021-08-19 23:41:50.024,-1.105,0.18
2021-08-19 23:41:50.028,-0.98,-0.1
2021-08-19 23:41:50.032,-0.835,-0.315
2021-08-19 23:41:50.036,-0.675,-0.445
2021-08-19 23:41:50.040,-0.485,-0.535
2021-08-19 23:41:50.044,-0.245,-0.595
2021-08-19 23:41:50.048,-0.045,-0.585
2021-08-19 23:41:50.052,0.165,-0.565
2021-08-19 23:41:50.056,0.375,-0.565
2021-08-19 23:41:50.060,0.495,-0.555
2021-08-19 23:41:50.064,0.55,-0.565
2021-08-19 23:41:50.068,0.57,-0.54
2021-08-19 23:41:50.072,0.61,-0.54
2021-08-19 23:41:50.076,0.64,-0.535
2021-08-19 23:41:50.080,0.675,-0.525
2021-08-19 23:41:50.084,0.71,-0.51
2021-08-19 23:41:50.088,0.74,-0.525
2021-08-19 23:41:50.092,0.73,-0.52
2021-08-19 23:41:50.096,0.74,-0.515
2021-08-19 23:41:50.100,0.77,-0.525
2021-08-19 23:41:50.104,0.76,-0.525
2021-08-19 23:41:50.108,0.805,-0.535
2021-08-19 23:41:50.112,0.845,-0.525
2021-08-19 23:41:50.116,0.865,-0.555
2021-08-19 23:41:50.120,0.88,-0.55
2021-08-19 23:41:50.124,0.865,-0.545
2021-08-19 23:41:50.128,0.88,-0.535
2021-08-19 23:41:50.132,0.9,-0.535
2021-08-19 23:41:50.136,0.95,-0.54
2021-08-19 23:41:50.140,0.96,-0.54
2021-08-19 23:41:50.144,0.985,-0.55
2021-08-19 23:41:50.148,1.0,-0.555
2021-08-19 23:41:50.152,1.015,-0.52
2021-08-19 23:41:50.156,1.06,-0.535
2021-08-19 23:41:50.160,1.095,-0.525
2021-08-19 23:41:50.164,1.14,-0.53
2021-08-19 23:41:50.168,1.17,-0.54
2021-08-19 23:41:50.172,1.225,-0.53
2021-08-19 23:41:50.176,1.255,-0.52
2021-08-19 23:41:50.180,1.27,-0.5
2021-08-19 23:41:50.184,1.295,-0.48
2021-08-19 23:41:50.188,1.325,-0.55
2021-08-19 23:41:50.192,1.335,-0.555
2021-08-19 23:41:50.196,1.355,-0.605
2021-08-19 23:41:50.200,1.355,-0.61
2021-08-19 23:41:50.204,1.335,-0.615
2021-08-19 23:41:50.208,1.305,-0.57
2021-08-19 23:41:50.212,1.265,-0.505
2021-08-19 23:41:50.216,1.2,-0.475
2021-08-19 23:41:50.220,1.13,-0.425
2021-08-19 23:41:50.224,1.065,-0.385
2021-08-19 23:41:50.228,1.015,-0.35
2021-08-19 23:41:50.232,0.945,-0.31
2021-08-19 23:41:50.236,0.905,-0.285
2021-08-19 23:41:50.240,0.835,-0.27
2021-08-19 23:41:50.244,0.775,-0.245
2021-08-19 23:41:50.248,0.7,-0.225
2021-08-19 23:41:50.252,0.645,-0.24
2021-08-19 23:41:50.256,0.6,-0.21
2021-08-19 23:41:50.260,0.565,-0.235
2021-08-19 23:41:50.264,0.505,-0.215
2021-08-19 23:41:50.268,0.46,-0.245
2021-08-19 23:41:50.272,0.405,-0.24
2021-08-19 23:41:50.276,0.35,-0.22
2021-08-19 23:41:50.280,0.315,-0.23
2021-08-19 23:41:50.284,0.315,-0.245
2021-08-19 23:41:50.288,0.305,-0.245
2021-08-19 23:41:50.292,0.275,-0.23
2021-08-19 23:41:50.296,0.255,-0.23
2021-08-19 23:41:50.300,0.24,-0.24
2021-08-19 23:41:50.304,0.26,-0.265
2021-08-19 23:41:50.308,0.24,-0.25
2021-08-19 23:41:50.312,0.245,-0.275
2021-08-19 23:41:50.316,0.23,-0.3
2021-08-19 23:41:50.320,0.23,-0.265
2021-08-19 23:41:50.324,0.24,-0.26
2021-08-19 23:41:50.328,0.21,-0.295
2021-08-19 23:41:50.332,0.2,-0.29
2021-08-19 23:41:50.336,0.22,-0.31
2021-08-19 23:41:50.340,0.215,-0.32
2021-08-19 23:41:50.344,0.225,-0.355
2021-08-19 23:41:50.348,0.225,-0.42
2021-08-19 23:41:50.352,0.23,-0.47
2021-08-19 23:41:50.356,0.225,-0.485
2021-08-19 23:41:50.360,0.215,-0.455
2021-08-19 23:41:50.364,0.16,-0.44
2021-08-19 23:41:50.368,0.105,-0.41
2021-08-19 23:41:50.372,0.1,-0.39
2021-08-19 23:41:50.376,0.125,-0.37
2021-08-19 23:41:50.380,0.13,-0.395
2021-08-19 23:41:50.384,0.12,-0.405
2021-08-19 23:41:50.388,0.14,-0.4
2021-08-19 23:41:50.392,0.135,-0.395
2021-08-19 23:41:50.396,0.125,-0.43
2021-08-19 23:41:50.400,0.11,-0.445
2021-08-19 23:41:50.404,0.08,-0.4
2021-08-19 23:41:50.408,0.085,-0.405
2021-08-19 23:41:50.412,0.05,-0.41
2021-08-19 23:41:50.416,0.085,-0.415
2021-08-19 23:41:50.420,0.085,-0.4
2021-08-19 23:41:50.424,0.085,-0.39
2021-08-19 23:41:50.428,0.095,-0.385
2021-08-19 23:41:50.432,0.085,-0.38
2021-08-19 23:41:50.436,0.115,-0.385
2021-08-19 23:41:50.440,0.115,-0.38
2021-08-19 23:41:50.444,0.11,-0.37
2021-08-19 23:41:50.448,0.12,-0.395
2021-08-19 23:41:50.452,0.115,-0.35
2021-08-19 23:41:50.456,0.13,-0.35
2021-08-19 23:41:50.460,0.14,-0.335
2021-08-19 23:41:50.464,0.13,-0.34
2021-08-19 23:41:50.468,0.13,-0.305
2021-08-19 23:41:50.472,0.105,-0.33
2021-08-19 23:41:50.476,0.13,-0.35
2021-08-19 23:41:50.480,0.115,-0.355
2021-08-19 23:41:50.484,0.125,-0.36
2021-08-19 23:41:50.488,0.115,-0.375
2021-08-19 23:41:50.492,0.11,-0.42
2021-08-19 23:41:50.496,0.115,-0.465
2021-08-19 23:41:50.500,0.115,-0.485
2021-08-19 23:41:50.504,0.12,-0.475
2021-08-19 23:41:50.508,0.105,-0.445
2021-08-19 23:41:50.512,0.055,-0.395
2021-08-19 23:41:50.516,0.055,-0.37
2021-08-19 23:41:50.520,0.05,-0.35
2021-08-19 23:41:50.524,0.065,-0.355
2021-08-19 23:41:50.528,0.075,-0.345
2021-08-19 23:41:50.532,0.06,-0.305
2021-08-19 23:41:50.536,0.08,-0.32
2021-08-19 23:41:50.540,0.08,-0.335
2021-08-19 23:41:50.544,0.055,-0.32
2021-08-19 23:41:50.548,0.06,-0.325
2021-08-19 23:41:50.552,0.065,-0.31
2021-08-19 23:41:50.556,0.08,-0.285
2021-08-19 23:41:50.560,0.075,-0.335
2021-08-19 23:41:50.564,0.055,-0.315
2021-08-19 23:41:50.568,0.07,-0.29
2021-08-19 23:41:50.572,0.06,-0.29
2021-08-19 23:41:50.576,0.05,-0.31
2021-08-19 23:41:50.580,0.06,-0.3
2021-08-19 23:41:50.584,0.06,-0.275
2021-08-19 23:41:50.588,0.07,-0.31
2021-08-19 23:41:50.592,0.06,-0.295
2021-08-19 23:41:50.596,0.065,-0.285
2021-08-19 23:41:50.600,0.05,-0.265
2021-08-19 23:41:50.604,0.035,-0.26
2021-08-19 23:41:50.608,0.055,-0.275
2021-08-19 23:41:50.612,0.055,-0.26
2021-08-19 23:41:50.616,0.075,-0.27
2021-08-19 23:41:50.620,0.075,-0.28
2021-08-19 23:41:50.624,0.085,-0.295
2021-08-19 23:41:50.628,0.095,-0.295
2021-08-19 23:41:50.632,0.07,-0.295
2021-08-19 23:41:50.636,0.07,-0.3
2021-08-19 23:41:50.640,0.05,-0.335
2021-08-19 23:41:50.644,0.065,-0.335
2021-08-19 23:41:50.648,0.07,-0.365
2021-08-19 23:41:50.652,0.055,-0.43
2021-08-19 23:41:50.656,0.05,-0.475
2021-08-19 23:41:50.660,0.045,-0.475
2021-08-19 23:41:50.664,0.045,-0.43
2021-08-19 23:41:50.668,0.0,-0.375
2021-08-19 23:41:50.672,0.0,-0.385
2021-08-19 23:41:50.676,0.005,-0.375
2021-08-19 23:41:50.680,0.025,-0.33
2021-08-19 23:41:50.684,0.045,-0.33
2021-08-19 23:41:50.688,0.02,-0.345
2021-08-19 23:41:50.692,0.035,-0.32
2021-08-19 23:41:50.696,0.02,-0.33
2021-08-19 23:41:50.700,0.04,-0.325
2021-08-19 23:41:50.704,0.01,-0.32
2021-08-19 23:41:50.708,-0.005,-0.335
2021-08-19 23:41:50.712,0.015,-0.305
2021-08-19 23:41:50.716,0.0,-0.295
2021-08-19 23:41:50.720,0.0,-0.305
2021-08-19 23:41:50.724,0.005,-0.28
2021-08-19 23:41:50.728,0.0,-0.24
2021-08-19 23:41:50.732,0.03,-0.15
2021-08-19 23:41:50.736,0.045,-0.005
2021-08-19 23:41:50.740,0.06,0.225
2021-08-19 23:41:50.744,0.12,0.56
2021-08-19 23:41:50.748,0.22,0.945
2021-08-19 23:41:50.752,0.235,1.19
2021-08-19 23:41:50.756,0.005,1.395
2021-08-19 23:41:50.760,-0.405,1.605
2021-08-19 23:41:50.764,-1.04,1.855
2021-08-19 23:41:50.768,-1.705,1.995
2021-08-19 23:41:50.804,-1.93,1.285
2021-08-19 23:41:50.808,-1.805,1.325
2021-08-19 23:41:50.812,-1.715,1.355
2021-08-19 23:41:50.816,-1.6,1.305
2021-08-19 23:41:50.820,-1.485,1.01
2021-08-19 23:41:50.824,-1.37,0.535
2021-08-19 23:41:50.828,-1.325,0.085
2021-08-19 23:41:50.832,-1.205,-0.215
2021-08-19 23:41:50.836,-1.065,-0.43
2021-08-19 23:41:50.840,-0.89,-0.54
2021-08-19 23:41:50.844,-0.725,-0.62
2021-08-19 23:41:50.848,-0.52,-0.68
2021-08-19 23:41:50.852,-0.3,-0.65
2021-08-19 23:41:50.856,-0.11,-0.61
2021-08-19 23:41:50.860,0.06,-0.61
2021-08-19 23:41:50.864,0.205,-0.635
2021-08-19 23:41:50.868,0.315,-0.66
2021-08-19 23:41:50.872,0.385,-0.66
2021-08-19 23:41:50.876,0.41,-0.67
2021-08-19 23:41:50.880,0.415,-0.665
2021-08-19 23:41:50.884,0.43,-0.685
2021-08-19 23:41:50.888,0.455,-0.66
2021-08-19 23:41:50.892,0.465,-0.665
2021-08-19 23:41:50.896,0.5,-0.665
2021-08-19 23:41:50.900,0.52,-0.63
2021-08-19 23:41:50.904,0.53,-0.615
2021-08-19 23:41:50.908,0.535,-0.6
2021-08-19 23:41:50.912,0.6,-0.59
2021-08-19 23:41:50.916,0.6,-0.59
2021-08-19 23:41:50.920,0.625,-0.57
2021-08-19 23:41:50.924,0.62,-0.57
2021-08-19 23:41:50.928,0.65,-0.56
2021-08-19 23:41:50.932,0.685,-0.56
2021-08-19 23:41:50.936,0.7,-0.525
2021-08-19 23:41:50.940,0.715,-0.515
2021-08-19 23:41:50.944,0.765,-0.5
2021-08-19 23:41:50.948,0.77,-0.48
2021-08-19 23:41:50.952,0.815,-0.44
2021-08-19 23:41:50.956,0.86,-0.46
2021-08-19 23:41:50.960,0.87,-0.495
2021-08-19 23:41:50.964,0.9,-0.55
2021-08-19 23:41:50.968,0.925,-0.585
2021-08-19 23:41:50.972,0.965,-0.61
2021-08-19 23:41:50.976,0.995,-0.64
2021-08-19 23:41:50.980,1.005,-0.645
2021-08-19 23:41:50.984,0.985,-0.61
2021-08-19 23:41:50.988,1.02,-0.575
2021-08-19 23:41:50.992,1.045,-0.605
2021-08-19 23:41:50.996,1.085,-0.6
2021-08-19 23:41:51.000,1.115,-0.575
2021-08-19 23:41:51.004,1.105,-0.54
2021-08-19 23:41:51.008,1.06,-0.545
2021-08-19 23:41:51.012,1.005,-0.525
2021-08-19 23:41:51.016,1.03,-0.49
2021-08-19 23:41:51.020,1.015,-0.44
2021-08-19 23:41:51.024,0.97,-0.41
2021-08-19 23:41:51.028,0.92,-0.4
2021-08-19 23:41:51.032,0.895,-0.37
2021-08-19 23:41:51.036,0.84,-0.29
2021-08-19 23:41:51.040,0.8,-0.265
2021-08-19 23:41:51.044,0.74,-0.27
2021-08-19 23:41:51.048,0.695,-0.25
2021-08-19 23:41:51.052,0.655,-0.19
2021-08-19 23:41:51.056,0.585,-0.19
2021-08-19 23:41:51.060,0.5,-0.195
2021-08-19 23:41:51.064,0.46,-0.175
2021-08-19 23:41:51.068,0.42,-0.15
2021-08-19 23:41:51.072,0.35,-0.18
2021-08-19 23:41:51.076,0.325,-0.215
2021-08-19 23:41:51.080,0.275,-0.205
2021-08-19 23:41:51.084,0.2,-0.225
2021-08-19 23:41:51.088,0.17,-0.225
2021-08-19 23:41:51.092,0.14,-0.25
2021-08-19 23:41:51.096,0.075,-0.265
2021-08-19 23:41:51.100,0.075,-0.27
2021-08-19 23:41:51.104,0.03,-0.275
