Time,ECG1,ECG2
2021-08-19 13:32:31.860,0.115,-0.1
2021-08-19 13:32:31.864,0.095,-0.105
2021-08-19 13:32:31.868,0.055,-0.105
2021-08-19 13:32:31.872,0.04,-0.105
2021-08-19 13:32:31.876,0.015,-0.095
2021-08-19 13:32:31.880,-0.005,-0.08
2021-08-19 13:32:31.884,-0.04,-0.095
2021-08-19 13:32:31.888,-0.07,-0.07
2021-08-19 13:32:31.892,-0.075,-0.085
2021-08-19 13:32:31.896,-0.095,-0.1
2021-08-19 13:32:31.900,-0.1,-0.075
2021-08-19 13:32:31.904,-0.125,-0.06
2021-08-19 13:32:31.908,-0.145,-0.09
2021-08-19 13:32:31.912,-0.155,-0.07
2021-08-19 13:32:31.916,-0.185,-0.07
2021-08-19 13:32:31.920,-0.18,-0.08
2021-08-19 13:32:31.924,-0.215,-0.06
2021-08-19 13:32:31.928,-0.22,-0.09
2021-08-19 13:32:31.932,-0.25,-0.07
2021-08-19 13:32:31.936,-0.27,-0.07
2021-08-19 13:32:31.940,-0.265,-0.08
2021-08-19 13:32:31.944,-0.285,-0.095
2021-08-19 13:32:31.948,-0.3,-0.095
2021-08-19 13:32:31.952,-0.315,-0.075
2021-08-19 13:32:31.956,-0.315,-0.06
2021-08-19 13:32:31.960,-0.325,-0.075
2021-08-19 13:32:31.964,-0.33,-0.065
2021-08-19 13:32:31.968,-0.335,-0.075
2021-08-19 13:32:31.972,-0.335,-0.055
2021-08-19 13:32:31.976,-0.345,-0.065
2021-08-19 13:32:31.980,-0.345,-0.05
2021-08-19 13:32:31.984,-0.365,-0.035
2021-08-19 13:32:31.988,-0.355,-0.07
2021-08-19 13:32:31.992,-0.36,-0.065
2021-08-19 13:32:31.996,-0.355,-0.05
2021-08-19 13:32:32.000,-0.315,-0.045
2021-08-19 13:32:32.004,-0.3,-0.01
2021-08-19 13:32:32.008,-0.27,0.0
2021-08-19 13:32:32.012,-0.26,0.015
2021-08-19 13:32:32.016,-0.22,0.015
2021-08-19 13:32:32.020,-0.16,0.065
2021-08-19 13:32:32.024,-0.125,0.03
2021-08-19 13:32:32.028,-0.105,0.035
2021-08-19 13:32:32.032,-0.12,0.015
2021-08-19 13:32:32.036,-0.135,0.005
2021-08-19 13:32:32.040,-0.14,-0.025
2021-08-19 13:32:32.044,-0.13,-0.05
2021-08-19 13:32:32.048,-0.115,-0.06
2021-08-19 13:32:32.052,-0.115,-0.04
2021-08-19 13:32:32.056,-0.115,-0.05
2021-08-19 13:32:32.060,-0.09,-0.045
2021-08-19 13:32:32.064,-0.1,-0.035
2021-08-19 13:32:32.068,-0.115,-0.015
2021-08-19 13:32:32.072,-0.105,-0.045
2021-08-19 13:32:32.076,-0.125,-0.045
2021-08-19 13:32:32.080,-0.135,-0.025
2021-08-19 13:32:32.084,-0.135,-0.05
2021-08-19 13:32:32.088,-0.135,-0.03
2021-08-19 13:32:32.092,-0.14,-0.06
2021-08-19 13:32:32.096,-0.135,-0.045
2021-08-19 13:32:32.100,-0.17,-0.05
2021-08-19 13:32:32.104,-0.2,-0.055
2021-08-19 13:32:32.108,-0.26,-0.08
2021-08-19 13:32:32.112,-0.295,-0.09
2021-08-19 13:32:32.116,-0.335,-0.105
2021-08-19 13:32:32.120,-0.345,-0.115
2021-08-19 13:32:32.124,-0.24,-0.18
2021-08-19 13:32:32.128,0.005,-0.285
2021-08-19 13:32:32.132,0.345,-0.375
2021-08-19 13:32:32.136,0.705,-0.475
2021-08-19 13:32:32.140,0.995,-0.435
2021-08-19 13:32:32.144,1.045,-0.21
2021-08-19 13:32:32.148,0.695,0.2
2021-08-19 13:32:32.152,0.05,0.58
2021-08-19 13:32:32.156,-0.55,0.745
2021-08-19 13:32:32.160,-0.96,0.575
2021-08-19 13:32:32.164,-1.005,0.185
2021-08-19 13:32:32.168,-0.865,-0.14
2021-08-19 13:32:32.172,-0.665,-0.27
2021-08-19 13:32:32.176,-0.505,-0.29
2021-08-19 13:32:32.180,-0.4,-0.27
2021-08-19 13:32:32.184,-0.34,-0.23
2021-08-19 13:32:32.188,-0.31,-0.135
2021-08-19 13:32:32.192,-0.33,-0.09
2021-08-19 13:32:32.196,-0.345,-0.06
2021-08-19 13:32:32.200,-0.34,-0.06
2021-08-19 13:32:32.204,-0.35,-0.06
2021-08-19 13:32:32.208,-0.335,-0.06
2021-08-19 13:32:32.212,-0.33,-0.055
2021-08-19 13:32:32.216,-0.345,-0.07
2021-08-19 13:32:32.220,-0.34,-0.04
2021-08-19 13:32:32.224,-0.35,-0.04
2021-08-19 13:32:32.228,-0.37,-0.015
2021-08-19 13:32:32.232,-0.36,-0.04
2021-08-19 13:32:32.236,-0.36,-0.03
2021-08-19 13:32:32.240,-0.33,-0.05
2021-08-19 13:32:32.244,-0.3,-0.03
2021-08-19 13:32:32.248,-0.23,-0.025
2021-08-19 13:32:32.252,-0.165,0.025
2021-08-19 13:32:32.256,-0.13,0.065
2021-08-19 13:32:32.260,-0.115,0.02
2021-08-19 13:32:32.264,-0.1,0.01
2021-08-19 13:32:32.268,-0.1,-0.025
2021-08-19 13:32:32.272,-0.11,-0.025
2021-08-19 13:32:32.276,-0.095,-0.02
2021-08-19 13:32:32.280,-0.075,-0.045
2021-08-19 13:32:32.284,-0.065,-0.06
2021-08-19 13:32:32.288,-0.11,0.0
2021-08-19 13:32:32.292,-0.05,-0.01
2021-08-19 13:32:32.296,-0.05,-0.065
2021-08-19 13:32:32.300,-0.045,-0.035
2021-08-19 13:32:32.304,-0.04,-0.045
2021-08-19 13:32:32.308,-0.035,-0.04
2021-08-19 13:32:32.312,-0.03,-0.035
2021-08-19 13:32:32.316,0.005,-0.05
2021-08-19 13:32:32.320,0.015,-0.045
2021-08-19 13:32:32.324,0.035,-0.035
2021-08-19 13:32:32.328,0.045,-0.05
2021-08-19 13:32:32.332,0.065,-0.06
2021-08-19 13:32:32.336,0.07,-0.08
2021-08-19 13:32:32.340,0.115,-0.075
2021-08-19 13:32:32.344,0.115,-0.065
2021-08-19 13:32:32.348,0.125,-0.075
2021-08-19 13:32:32.352,0.135,-0.105
2021-08-19 13:32:32.356,0.155,-0.095
2021-08-19 13:32:32.360,0.14,-0.095
2021-08-19 13:32:32.364,0.135,-0.095
2021-08-19 13:32:32.368,0.14,-0.105
2021-08-19 13:32:32.372,0.145,-0.1
2021-08-19 13:32:32.376,0.14,-0.115
2021-08-19 13:32:32.380,0.135,-0.12
2021-08-19 13:32:32.384,0.12,-0.125
2021-08-19 13:32:32.388,0.1,-0.11
2021-08-19 13:32:32.392,0.075,-0.08
2021-08-19 13:32:32.396,0.05,-0.1
2021-08-19 13:32:32.400,0.005,-0.13
2021-08-19 13:32:32.404,-0.025,-0.105
2021-08-19 13:32:32.408,-0.065,-0.115
2021-08-19 13:32:32.412,-0.08,-0.14
2021-08-19 13:32:32.416,-0.125,-0.1
2021-08-19 13:32:32.420,-0.155,-0.085
2021-08-19 13:32:32.424,-0.175,-0.11
2021-08-19 13:32:32.428,-0.205,-0.085
2021-08-19 13:32:32.432,-0.225,-0.08
2021-08-19 13:32:32.436,-0.245,-0.095
2021-08-19 13:32:32.440,-0.29,-0.075
2021-08-19 13:32:32.444,-0.305,-0.09
2021-08-19 13:32:32.448,-0.315,-0.11
2021-08-19 13:32:32.452,-0.32,-0.1
2021-08-19 13:32:32.456,-0.36,-0.09
2021-08-19 13:32:32.460,-0.37,-0.1
2021-08-19 13:32:32.464,-0.37,-0.06
2021-08-19 13:32:32.468,-0.37,-0.095
2021-08-19 13:32:32.472,-0.345,-0.1
2021-08-19 13:32:32.476,-0.325,-0.075
2021-08-19 13:32:32.480,-0.32,-0.05
2021-08-19 13:32:32.484,-0.31,-0.055
2021-08-19 13:32:32.488,-0.28,0.005
2021-08-19 13:32:32.492,-0.23,-0.015
2021-08-19 13:32:32.496,-0.195,0.01
2021-08-19 13:32:32.500,-0.175,-0.025
2021-08-19 13:32:32.504,-0.18,0.005
2021-08-19 13:32:32.508,-0.16,-0.05
2021-08-19 13:32:32.512,-0.165,-0.04
2021-08-19 13:32:32.516,-0.14,-0.085
2021-08-19 13:32:32.520,-0.16,-0.09
2021-08-19 13:32:32.524,-0.16,-0.1
2021-08-19 13:32:32.528,-0.15,-0.1
2021-08-19 13:32:32.532,-0.15,-0.11
2021-08-19 13:32:32.536,-0.14,-0.1
2021-08-19 13:32:32.540,-0.15,-0.095
2021-08-19 13:32:32.544,-0.15,-0.095
2021-08-19 13:32:32.548,-0.175,-0.095
2021-08-19 13:32:32.552,-0.17,-0.08
2021-08-19 13:32:32.556,-0.18,-0.095
2021-08-19 13:32:32.560,-0.175,-0.075
2021-08-19 13:32:32.564,-0.175,-0.1
2021-08-19 13:32:32.568,-0.17,-0.095
2021-08-19 13:32:32.572,-0.16,-0.105
2021-08-19 13:32:32.576,-0.19,-0.095
2021-08-19 13:32:32.580,-0.185,-0.105
2021-08-19 13:32:32.584,-0.205,-0.08
2021-08-19 13:32:32.588,-0.25,-0.09
2021-08-19 13:32:32.592,-0.295,-0.085
2021-08-19 13:32:32.596,-0.355,-0.095
2021-08-19 13:32:32.600,-0.36,-0.105
2021-08-19 13:32:32.604,-0.345,-0.15
2021-08-19 13:32:32.608,-0.285,-0.215
2021-08-19 13:32:32.612,-0.13,-0.37
2021-08-19 13:32:32.616,0.105,-0.495
2021-08-19 13:32:32.620,0.35,-0.66
2021-08-19 13:32:32.624,0.64,-0.74
2021-08-19 13:32:32.628,0.75,-0.635
2021-08-19 13:32:32.632,0.575,-0.3
2021-08-19 13:32:32.636,0.115,0.095
2021-08-19 13:32:32.640,-0.435,0.415
2021-08-19 13:32:32.644,-0.885,0.585
2021-08-19 13:32:32.648,-1.09,0.46
2021-08-19 13:32:32.652,-1.08,0.055
2021-08-19 13:32:32.656,-0.92,-0.225
2021-08-19 13:32:32.660,-0.72,-0.335
2021-08-19 13:32:32.664,-0.575,-0.295
2021-08-19 13:32:32.668,-0.48,-0.28
2021-08-19 13:32:32.672,-0.43,-0.235
2021-08-19 13:32:32.676,-0.42,-0.14
2021-08-19 13:32:32.680,-0.425,-0.105
2021-08-19 13:32:32.684,-0.415,-0.07
2021-08-19 13:32:32.688,-0.43,-0.055
2021-08-19 13:32:32.692,-0.42,-0.075
2021-08-19 13:32:32.696,-0.42,-0.065
2021-08-19 13:32:32.700,-0.425,-0.06
2021-08-19 13:32:32.704,-0.435,-0.03
2021-08-19 13:32:32.708,-0.43,-0.05
2021-08-19 13:32:32.712,-0.415,-0.045
2021-08-19 13:32:32.716,-0.41,-0.055
2021-08-19 13:32:32.720,-0.385,-0.03
2021-08-19 13:32:32.724,-0.34,-0.02
2021-08-19 13:32:32.728,-0.29,0.01
2021-08-19 13:32:32.732,-0.24,0.03
2021-08-19 13:32:32.736,-0.21,0.04
2021-08-19 13:32:32.740,-0.17,0.01
2021-08-19 13:32:32.744,-0.18,0.015
2021-08-19 13:32:32.748,-0.185,-0.01
2021-08-19 13:32:32.752,-0.185,-0.005
2021-08-19 13:32:32.756,-0.16,-0.03
2021-08-19 13:32:32.760,-0.185,-0.015
2021-08-19 13:32:32.764,-0.14,-0.04
2021-08-19 13:32:32.768,-0.14,-0.04
2021-08-19 13:32:32.772,-0.14,-0.025
2021-08-19 13:32:32.776,-0.13,0.0
2021-08-19 13:32:32.780,-0.13,-0.025
2021-08-19 13:32:32.784,-0.11,0.0
2021-08-19 13:32:32.788,-0.1,-0.02
2021-08-19 13:32:32.792,-0.105,-0.015
2021-08-19 13:32:32.796,-0.085,0.0
2021-08-19 13:32:32.800,-0.085,-0.015
2021-08-19 13:32:32.804,-0.07,-0.005
2021-08-19 13:32:32.808,-0.05,-0.015
2021-08-19 13:32:32.812,-0.04,0.005
2021-08-19 13:32:32.816,-0.02,-0.02
2021-08-19 13:32:32.820,-0.025,0.015
2021-08-19 13:32:32.824,-0.005,-0.01
2021-08-19 13:32:32.828,-0.005,-0.03
2021-08-19 13:32:32.832,0.0,-0.03
2021-08-19 13:32:32.836,0.005,-0.035
2021-08-19 13:32:32.840,0.005,-0.035
2021-08-19 13:32:32.844,0.015,-0.01
2021-08-19 13:32:32.848,0.0,-0.04
2021-08-19 13:32:32.852,0.0,-0.05
2021-08-19 13:32:32.856,-0.015,-0.06
2021-08-19 13:32:32.860,-0.03,-0.03
2021-08-19 13:32:32.864,-0.055,-0.07
2021-08-19 13:32:32.868,-0.07,-0.065
2021-08-19 13:32:32.872,-0.09,-0.1
2021-08-19 13:32:32.876,-0.095,-0.095
2021-08-19 13:32:32.880,-0.125,-0.08
2021-08-19 13:32:32.884,-0.145,-0.09
2021-08-19 13:32:32.888,-0.17,-0.11
2021-08-19 13:32:32.892,-0.18,-0.08
2021-08-19 13:32:32.896,-0.2,-0.12
2021-08-19 13:32:32.900,-0.235,-0.095
2021-08-19 13:32:32.904,-0.26,-0.105
2021-08-19 13:32:32.908,-0.27,-0.12
2021-08-19 13:32:32.912,-0.295,-0.07
2021-08-19 13:32:32.916,-0.33,-0.09
2021-08-19 13:32:32.920,-0.34,-0.105
2021-08-19 13:32:32.924,-0.345,-0.105
2021-08-19 13:32:32.928,-0.355,-0.07
2021-08-19 13:32:32.932,-0.375,-0.05
2021-08-19 13:32:32.936,-0.385,-0.08
2021-08-19 13:32:32.940,-0.39,-0.07
2021-08-19 13:32:32.944,-0.395,-0.08
2021-08-19 13:32:32.948,-0.415,-0.07
2021-08-19 13:32:32.952,-0.39,-0.055
2021-08-19 13:32:32.956,-0.375,-0.06
2021-08-19 13:32:32.960,-0.35,-0.03
2021-08-19 13:32:32.964,-0.33,-0.01
2021-08-19 13:32:32.968,-0.31,-0.01
2021-08-19 13:32:32.972,-0.285,-0.005
2021-08-19 13:32:32.976,-0.235,0.01
2021-08-19 13:32:32.980,-0.205,0.005
2021-08-19 13:32:32.984,-0.195,0.02
2021-08-19 13:32:32.988,-0.2,0.0
2021-08-19 13:32:32.992,-0.195,-0.03
2021-08-19 13:32:32.996,-0.175,-0.025
2021-08-19 13:32:33.000,-0.175,-0.035
2021-08-19 13:32:33.004,-0.17,-0.07
2021-08-19 13:32:33.008,-0.2,-0.07
2021-08-19 13:32:33.012,-0.18,-0.055
2021-08-19 13:32:33.016,-0.185,-0.085
2021-08-19 13:32:33.020,-0.19,-0.045
2021-08-19 13:32:33.024,-0.185,-0.05
2021-08-19 13:32:33.028,-0.16,-0.04
2021-08-19 13:32:33.032,-0.15,-0.025
2021-08-19 13:32:33.036,-0.165,-0.025
2021-08-19 13:32:33.040,-0.155,-0.065
2021-08-19 13:32:33.044,-0.17,-0.045
2021-08-19 13:32:33.048,-0.16,-0.06
2021-08-19 13:32:33.052,-0.175,-0.05
2021-08-19 13:32:33.056,-0.165,-0.045
2021-08-19 13:32:33.060,-0.18,-0.065
2021-08-19 13:32:33.064,-0.175,-0.06
2021-08-19 13:32:33.068,-0.2,-0.055
2021-08-19 13:32:33.072,-0.27,-0.08
2021-08-19 13:32:33.076,-0.345,-0.1
2021-08-19 13:32:33.080,-0.4,-0.1
2021-08-19 13:32:33.084,-0.43,-0.08
2021-08-19 13:32:33.088,-0.395,-0.145
2021-08-19 13:32:33.092,-0.26,-0.19
2021-08-19 13:32:33.096,0.055,-0.295
2021-08-19 13:32:33.100,0.455,-0.365
2021-08-19 13:32:33.104,0.835,-0.43
2021-08-19 13:32:33.108,1.11,-0.365
2021-08-19 13:32:33.112,1.16,-0.115
2021-08-19 13:32:33.116,0.78,0.25
2021-08-19 13:32:33.120,0.13,0.525
2021-08-19 13:32:33.124,-0.51,0.695
2021-08-19 13:32:33.128,-0.94,0.63
2021-08-19 13:32:33.132,-1.05,0.25
2021-08-19 13:32:33.136,-0.94,-0.135
2021-08-19 13:32:33.140,-0.78,-0.315
2021-08-19 13:32:33.144,-0.6,-0.36
2021-08-19 13:32:33.148,-0.485,-0.32
2021-08-19 13:32:33.152,-0.42,-0.26
2021-08-19 13:32:33.156,-0.4,-0.165
2021-08-19 13:32:33.160,-0.395,-0.1
2021-08-19 13:32:33.164,-0.435,-0.08
2021-08-19 13:32:33.168,-0.405,-0.085
2021-08-19 13:32:33.172,-0.41,-0.065
2021-08-19 13:32:33.176,-0.415,-0.065
2021-08-19 13:32:33.180,-0.415,-0.045
2021-08-19 13:32:33.184,-0.425,-0.07
2021-08-19 13:32:33.188,-0.43,-0.045
2021-08-19 13:32:33.192,-0.44,-0.045
2021-08-19 13:32:33.196,-0.42,-0.07
2021-08-19 13:32:33.200,-0.395,-0.04
2021-08-19 13:32:33.204,-0.395,-0.02
2021-08-19 13:32:33.208,-0.375,-0.02
2021-08-19 13:32:33.212,-0.31,0.0
2021-08-19 13:32:33.216,-0.265,0.0
2021-08-19 13:32:33.220,-0.225,0.035
2021-08-19 13:32:33.224,-0.205,0.06
2021-08-19 13:32:33.228,-0.18,0.02
2021-08-19 13:32:33.232,-0.18,-0.02
2021-08-19 13:32:33.236,-0.205,-0.005
2021-08-19 13:32:33.240,-0.175,-0.035
2021-08-19 13:32:33.244,-0.15,-0.04
2021-08-19 13:32:33.248,-0.17,-0.04
2021-08-19 13:32:33.252,-0.14,-0.06
2021-08-19 13:32:33.256,-0.15,-0.04
2021-08-19 13:32:33.260,-0.125,-0.06
2021-08-19 13:32:33.264,-0.12,-0.065
2021-08-19 13:32:33.268,-0.135,-0.06
2021-08-19 13:32:33.272,-0.1,-0.025
2021-08-19 13:32:33.276,-0.1,-0.065
2021-08-19 13:32:33.280,-0.08,-0.06
2021-08-19 13:32:33.284,-0.055,-0.06
2021-08-19 13:32:33.288,-0.04,-0.08
2021-08-19 13:32:33.292,-0.02,-0.09
2021-08-19 13:32:33.296,-0.03,-0.055
2021-08-19 13:32:33.300,-0.005,-0.07
2021-08-19 13:32:33.304,0.015,-0.06
2021-08-19 13:32:33.308,0.005,-0.11
2021-08-19 13:32:33.312,0.015,-0.115
2021-08-19 13:32:33.316,0.02,-0.12
2021-08-19 13:32:33.320,0.02,-0.105
2021-08-19 13:32:33.324,0.04,-0.125
2021-08-19 13:32:33.328,0.035,-0.12
2021-08-19 13:32:33.332,0.035,-0.12
2021-08-19 13:32:33.336,0.01,-0.125
2021-08-19 13:32:33.340,0.005,-0.12
2021-08-19 13:32:33.344,0.005,-0.12
2021-08-19 13:32:33.348,0.0,-0.135
2021-08-19 13:32:33.352,-0.01,-0.125
2021-08-19 13:32:33.356,-0.015,-0.13
2021-08-19 13:32:33.360,-0.045,-0.13
2021-08-19 13:32:33.364,-0.05,-0.09
2021-08-19 13:32:33.368,-0.11,-0.115
2021-08-19 13:32:33.372,-0.135,-0.105
2021-08-19 13:32:33.376,-0.17,-0.1
2021-08-19 13:32:33.380,-0.17,-0.13
2021-08-19 13:32:33.384,-0.21,-0.11
2021-08-19 13:32:33.388,-0.25,-0.08
2021-08-19 13:32:33.392,-0.26,-0.11
2021-08-19 13:32:33.396,-0.28,-0.095
2021-08-19 13:32:33.400,-0.32,-0.09
2021-08-19 13:32:33.404,-0.33,-0.095
2021-08-19 13:32:33.408,-0.335,-0.11
2021-08-19 13:32:33.412,-0.315,-0.08
2021-08-19 13:32:33.416,-0.35,-0.095
2021-08-19 13:32:33.420,-0.375,-0.08
2021-08-19 13:32:33.424,-0.39,-0.075
2021-08-19 13:32:33.428,-0.41,-0.075
2021-08-19 13:32:33.432,-0.395,-0.08
2021-08-19 13:32:33.436,-0.4,-0.085
2021-08-19 13:32:33.440,-0.375,-0.09
2021-08-19 13:32:33.444,-0.35,-0.06
2021-08-19 13:32:33.448,-0.33,-0.045
2021-08-19 13:32:33.452,-0.315,-0.02
2021-08-19 13:32:33.456,-0.3,-0.02
2021-08-19 13:32:33.460,-0.235,0.0
2021-08-19 13:32:33.464,-0.205,-0.005
2021-08-19 13:32:33.468,-0.195,0.0
2021-08-19 13:32:33.472,-0.195,-0.03
2021-08-19 13:32:33.476,-0.19,-0.05
2021-08-19 13:32:33.480,-0.2,-0.055
2021-08-19 13:32:33.484,-0.21,-0.06
2021-08-19 13:32:33.488,-0.165,-0.09
2021-08-19 13:32:33.492,-0.175,-0.085
2021-08-19 13:32:33.496,-0.18,-0.125
2021-08-19 13:32:33.500,-0.165,-0.105
2021-08-19 13:32:33.504,-0.175,-0.1
2021-08-19 13:32:33.508,-0.15,-0.08
2021-08-19 13:32:33.512,-0.155,-0.105
2021-08-19 13:32:33.516,-0.16,-0.1
2021-08-19 13:32:33.520,-0.16,-0.1
2021-08-19 13:32:33.524,-0.145,-0.105
2021-08-19 13:32:33.528,-0.145,-0.09
2021-08-19 13:32:33.532,-0.16,-0.095
2021-08-19 13:32:33.536,-0.16,-0.1
2021-08-19 13:32:33.540,-0.16,-0.115
2021-08-19 13:32:33.544,-0.19,-0.14
2021-08-19 13:32:33.548,-0.275,-0.135
2021-08-19 13:32:33.552,-0.35,-0.145
2021-08-19 13:32:33.556,-0.4,-0.165
2021-08-19 13:32:33.560,-0.395,-0.16
2021-08-19 13:32:33.564,-0.335,-0.21
2021-08-19 13:32:33.568,-0.14,-0.29
2021-08-19 13:32:33.572,0.225,-0.38
2021-08-19 13:32:33.576,0.635,-0.47
2021-08-19 13:32:33.580,1.02,-0.46
2021-08-19 13:32:33.584,1.2,-0.33
2021-08-19 13:32:33.588,1.005,0.025
2021-08-19 13:32:33.592,0.35,0.395
2021-08-19 13:32:33.596,-0.36,0.645
2021-08-19 13:32:33.600,-0.925,0.65
2021-08-19 13:32:33.604,-1.09,0.29
2021-08-19 13:32:33.608,-0.985,-0.105
2021-08-19 13:32:33.612,-0.775,-0.31
2021-08-19 13:32:33.616,-0.62,-0.365
2021-08-19 13:32:33.620,-0.495,-0.29
2021-08-19 13:32:33.624,-0.43,-0.25
2021-08-19 13:32:33.628,-0.41,-0.165
2021-08-19 13:32:33.632,-0.415,-0.1
2021-08-19 13:32:33.636,-0.385,-0.08
2021-08-19 13:32:33.640,-0.42,-0.11
2021-08-19 13:32:33.644,-0.435,-0.085
2021-08-19 13:32:33.648,-0.43,-0.095
2021-08-19 13:32:33.652,-0.415,-0.09
2021-08-19 13:32:33.656,-0.43,-0.095
2021-08-19 13:32:33.660,-0.42,-0.075
2021-08-19 13:32:33.664,-0.425,-0.055
2021-08-19 13:32:33.668,-0.445,-0.06
2021-08-19 13:32:33.672,-0.46,-0.065
2021-08-19 13:32:33.676,-0.44,-0.065
2021-08-19 13:32:33.680,-0.42,-0.05
2021-08-19 13:32:33.684,-0.385,-0.03
2021-08-19 13:32:33.688,-0.32,-0.025
2021-08-19 13:32:33.692,-0.245,0.015
2021-08-19 13:32:33.696,-0.21,0.015
2021-08-19 13:32:33.700,-0.185,0.035
2021-08-19 13:32:33.704,-0.215,-0.01
2021-08-19 13:32:33.708,-0.19,-0.04
2021-08-19 13:32:33.712,-0.2,-0.05
2021-08-19 13:32:33.716,-0.19,-0.04
2021-08-19 13:32:33.720,-0.17,-0.06
2021-08-19 13:32:33.724,-0.175,-0.08
2021-08-19 13:32:33.728,-0.155,-0.05
2021-08-19 13:32:33.732,-0.16,-0.075
2021-08-19 13:32:33.736,-0.145,-0.055
2021-08-19 13:32:33.740,-0.095,-0.075
2021-08-19 13:32:33.744,-0.12,-0.08
2021-08-19 13:32:33.748,-0.095,-0.05
2021-08-19 13:32:33.752,-0.09,-0.05
2021-08-19 13:32:33.756,-0.075,-0.07
2021-08-19 13:32:33.760,-0.07,-0.07
2021-08-19 13:32:33.764,-0.065,-0.075
2021-08-19 13:32:33.768,-0.06,-0.055
2021-08-19 13:32:33.772,-0.04,-0.08
2021-08-19 13:32:33.776,-0.03,-0.08
2021-08-19 13:32:33.780,0.0,-0.09
2021-08-19 13:32:33.784,0.0,-0.08
2021-08-19 13:32:33.788,0.01,-0.115
2021-08-19 13:32:33.792,0.01,-0.135
2021-08-19 13:32:33.796,0.0,-0.12
2021-08-19 13:32:33.800,0.01,-0.105
2021-08-19 13:32:33.804,0.0,-0.105
2021-08-19 13:32:33.808,0.0,-0.095
2021-08-19 13:32:33.812,-0.005,-0.095
2021-08-19 13:32:33.816,-0.015,-0.09
2021-08-19 13:32:33.820,-0.045,-0.1
2021-08-19 13:32:33.824,-0.03,-0.1
2021-08-19 13:32:33.828,-0.07,-0.075
2021-08-19 13:32:33.832,-0.075,-0.105
2021-08-19 13:32:33.836,-0.1,-0.1
2021-08-19 13:32:33.840,-0.14,-0.105
2021-08-19 13:32:33.844,-0.185,-0.09
2021-08-19 13:32:33.848,-0.215,-0.085
2021-08-19 13:32:33.852,-0.25,-0.07
2021-08-19 13:32:33.856,-0.26,-0.09
2021-08-19 13:32:33.860,-0.28,-0.11
2021-08-19 13:32:33.864,-0.305,-0.08
2021-08-19 13:32:33.868,-0.33,-0.09
2021-08-19 13:32:33.872,-0.365,-0.07
2021-08-19 13:32:33.876,-0.36,-0.06
2021-08-19 13:32:33.880,-0.385,-0.075
2021-08-19 13:32:33.884,-0.385,-0.085
2021-08-19 13:32:33.888,-0.395,-0.08
2021-08-19 13:32:33.892,-0.415,-0.095
2021-08-19 13:32:33.896,-0.42,-0.06
2021-08-19 13:32:33.900,-0.41,-0.08
2021-08-19 13:32:33.904,-0.405,-0.07
2021-08-19 13:32:33.908,-0.37,-0.055
2021-08-19 13:32:33.912,-0.395,-0.035
2021-08-19 13:32:33.916,-0.365,-0.025
2021-08-19 13:32:33.920,-0.335,0.02
2021-08-19 13:32:33.924,-0.275,0.0
2021-08-19 13:32:33.928,-0.225,0.035
2021-08-19 13:32:33.932,-0.19,0.025
2021-08-19 13:32:33.936,-0.18,0.005
2021-08-19 13:32:33.940,-0.18,-0.01
2021-08-19 13:32:33.944,-0.18,-0.015
2021-08-19 13:32:33.948,-0.19,-0.035
2021-08-19 13:32:33.952,-0.165,-0.05
2021-08-19 13:32:33.956,-0.165,-0.05
2021-08-19 13:32:33.960,-0.16,-0.05
2021-08-19 13:32:33.964,-0.17,-0.05
2021-08-19 13:32:33.968,-0.15,-0.075
2021-08-19 13:32:33.972,-0.15,-0.04
2021-08-19 13:32:33.976,-0.16,-0.04
2021-08-19 13:32:33.980,-0.145,-0.03
2021-08-19 13:32:33.984,-0.145,-0.035
2021-08-19 13:32:33.988,-0.16,-0.04
2021-08-19 13:32:33.992,-0.165,-0.035
2021-08-19 13:32:33.996,-0.165,-0.04
2021-08-19 13:32:34.000,-0.155,-0.025
2021-08-19 13:32:34.004,-0.165,-0.065
2021-08-19 13:32:34.008,-0.16,-0.035
2021-08-19 13:32:34.012,-0.18,-0.035
2021-08-19 13:32:34.016,-0.23,-0.05
2021-08-19 13:32:34.020,-0.32,-0.05
2021-08-19 13:32:34.024,-0.375,-0.11
2021-08-19 13:32:34.028,-0.41,-0.105
2021-08-19 13:32:34.032,-0.395,-0.12
2021-08-19 13:32:34.036,-0.25,-0.17
2021-08-19 13:32:34.040,0.025,-0.22
2021-08-19 13:32:34.044,0.45,-0.375
2021-08-19 13:32:34.048,0.84,-0.42
2021-08-19 13:32:34.052,1.15,-0.345
2021-08-19 13:32:34.056,1.165,-0.03
2021-08-19 13:32:34.060,0.725,0.38
2021-08-19 13:32:34.064,-0.015,0.675
2021-08-19 13:32:34.068,-0.685,0.8
2021-08-19 13:32:34.072,-1.08,0.555
2021-08-19 13:32:34.076,-1.055,0.095
2021-08-19 13:32:34.080,-0.855,-0.195
2021-08-19 13:32:34.084,-0.645,-0.245
2021-08-19 13:32:34.088,-0.495,-0.25
2021-08-19 13:32:34.092,-0.41,-0.2
2021-08-19 13:32:34.096,-0.395,-0.12
2021-08-19 13:32:34.100,-0.395,-0.035
2021-08-19 13:32:34.104,-0.405,-0.04
2021-08-19 13:32:34.108,-0.39,-0.03
2021-08-19 13:32:34.112,-0.41,-0.03
2021-08-19 13:32:34.116,-0.41,-0.025
2021-08-19 13:32:34.120,-0.435,-0.035
2021-08-19 13:32:34.124,-0.435,-0.02
2021-08-19 13:32:34.128,-0.435,-0.01
2021-08-19 13:32:34.132,-0.41,-0.015
2021-08-19 13:32:34.136,-0.435,-0.01
2021-08-19 13:32:34.140,-0.41,0.01
2021-08-19 13:32:34.144,-0.355,0.025
2021-08-19 13:32:34.148,-0.29,0.04
2021-08-19 13:32:34.152,-0.225,0.05
2021-08-19 13:32:34.156,-0.2,0.07
2021-08-19 13:32:34.160,-0.18,0.075
2021-08-19 13:32:34.164,-0.175,0.015
2021-08-19 13:32:34.168,-0.175,0.045
2021-08-19 13:32:34.172,-0.165,0.015
2021-08-19 13:32:34.176,-0.165,0.0
2021-08-19 13:32:34.180,-0.15,-0.015
2021-08-19 13:32:34.184,-0.13,-0.015
2021-08-19 13:32:34.188,-0.15,0.0
2021-08-19 13:32:34.192,-0.14,0.0
2021-08-19 13:32:34.196,-0.135,-0.01
2021-08-19 13:32:34.200,-0.11,0.005
2021-08-19 13:32:34.204,-0.12,-0.03
2021-08-19 13:32:34.208,-0.095,-0.03
2021-08-19 13:32:34.212,-0.095,0.0
2021-08-19 13:32:34.216,-0.07,0.0
2021-08-19 13:32:34.220,-0.06,-0.015
2021-08-19 13:32:34.224,-0.075,-0.025
2021-08-19 13:32:34.228,-0.03,-0.045
2021-08-19 13:32:34.232,-0.03,-0.035
2021-08-19 13:32:34.236,-0.01,-0.015
2021-08-19 13:32:34.240,0.01,-0.03
2021-08-19 13:32:34.244,0.035,-0.045
2021-08-19 13:32:34.248,0.03,-0.05
2021-08-19 13:32:34.252,0.025,-0.055
2021-08-19 13:32:34.256,0.035,-0.05
2021-08-19 13:32:34.260,0.02,-0.04
2021-08-19 13:32:34.264,0.015,-0.055
2021-08-19 13:32:34.268,0.01,-0.06
2021-08-19 13:32:34.272,0.005,-0.045
2021-08-19 13:32:34.276,0.015,-0.04
2021-08-19 13:32:34.280,0.005,-0.03
2021-08-19 13:32:34.284,-0.02,-0.055
2021-08-19 13:32:34.288,-0.02,-0.04
2021-08-19 13:32:34.292,-0.035,-0.065
2021-08-19 13:32:34.296,-0.07,-0.065
2021-08-19 13:32:34.300,-0.105,-0.075
2021-08-19 13:32:34.304,-0.14,-0.07
2021-08-19 13:32:34.308,-0.175,-0.095
2021-08-19 13:32:34.312,-0.195,-0.055
2021-08-19 13:32:34.316,-0.225,-0.055
2021-08-19 13:32:34.320,-0.25,-0.07
2021-08-19 13:32:34.324,-0.275,-0.035
2021-08-19 13:32:34.328,-0.31,-0.06
2021-08-19 13:32:34.332,-0.32,-0.045
2021-08-19 13:32:34.336,-0.335,-0.07
2021-08-19 13:32:34.340,-0.35,-0.06
2021-08-19 13:32:34.344,-0.36,-0.05
2021-08-19 13:32:34.348,-0.36,-0.02
2021-08-19 13:32:34.352,-0.37,-0.06
2021-08-19 13:32:34.356,-0.38,-0.03
2021-08-19 13:32:34.360,-0.365,-0.03
2021-08-19 13:32:34.364,-0.365,-0.04
2021-08-19 13:32:34.368,-0.345,-0.005
2021-08-19 13:32:34.372,-0.33,0.02
2021-08-19 13:32:34.376,-0.315,0.015
2021-08-19 13:32:34.380,-0.275,0.03
2021-08-19 13:32:34.384,-0.195,0.055
2021-08-19 13:32:34.388,-0.17,0.04
2021-08-19 13:32:34.392,-0.205,0.045
2021-08-19 13:32:34.396,-0.19,0.005
2021-08-19 13:32:34.400,-0.17,-0.005
2021-08-19 13:32:34.404,-0.155,-0.035
2021-08-19 13:32:34.408,-0.16,-0.065
2021-08-19 13:32:34.412,-0.15,-0.04
2021-08-19 13:32:34.416,-0.155,-0.04
2021-08-19 13:32:34.420,-0.14,-0.035
2021-08-19 13:32:34.424,-0.15,-0.05
2021-08-19 13:32:34.428,-0.14,-0.04
2021-08-19 13:32:34.432,-0.15,-0.045
2021-08-19 13:32:34.436,-0.155,-0.01
2021-08-19 13:32:34.440,-0.15,-0.035
2021-08-19 13:32:34.444,-0.155,-0.05
2021-08-19 13:32:34.448,-0.15,-0.06
2021-08-19 13:32:34.452,-0.16,-0.06
2021-08-19 13:32:34.456,-0.155,-0.045
2021-08-19 13:32:34.460,-0.16,-0.07
2021-08-19 13:32:34.464,-0.15,-0.055
2021-08-19 13:32:34.468,-0.16,-0.055
2021-08-19 13:32:34.472,-0.185,-0.06
2021-08-19 13:32:34.476,-0.22,-0.09
2021-08-19 13:32:34.480,-0.285,-0.08
2021-08-19 13:32:34.484,-0.365,-0.12
2021-08-19 13:32:34.488,-0.4,-0.155
2021-08-19 13:32:34.492,-0.385,-0.17
2021-08-19 13:32:34.496,-0.27,-0.215
2021-08-19 13:32:34.500,0.04,-0.31
2021-08-19 13:32:34.504,0.445,-0.39
2021-08-19 13:32:34.508,0.835,-0.44
2021-08-19 13:32:34.512,1.05,-0.335
2021-08-19 13:32:34.516,0.975,-0.01
2021-08-19 13:32:34.520,0.42,0.425
2021-08-19 13:32:34.524,-0.3,0.68
2021-08-19 13:32:34.528,-0.9,0.74
2021-08-19 13:32:34.532,-1.135,0.415
2021-08-19 13:32:34.536,-1.04,-0.03
2021-08-19 13:32:34.540,-0.825,-0.25
2021-08-19 13:32:34.544,-0.64,-0.28
2021-08-19 13:32:34.548,-0.505,-0.25
2021-08-19 13:32:34.552,-0.465,-0.235
2021-08-19 13:32:34.556,-0.45,-0.16
2021-08-19 13:32:34.560,-0.44,-0.08
2021-08-19 13:32:34.564,-0.425,-0.09
2021-08-19 13:32:34.568,-0.435,-0.06
2021-08-19 13:32:34.572,-0.45,-0.045
2021-08-19 13:32:34.576,-0.455,-0.055
2021-08-19 13:32:34.580,-0.48,-0.055
2021-08-19 13:32:34.584,-0.47,-0.065
2021-08-19 13:32:34.588,-0.46,-0.04
2021-08-19 13:32:34.592,-0.455,-0.01
2021-08-19 13:32:34.596,-0.425,-0.03
2021-08-19 13:32:34.600,-0.325,0.0
2021-08-19 13:32:34.604,-0.26,0.02
2021-08-19 13:32:34.608,-0.235,0.02
2021-08-19 13:32:34.612,-0.225,-0.015
2021-08-19 13:32:34.616,-0.24,0.03
2021-08-19 13:32:34.620,-0.215,-0.015
2021-08-19 13:32:34.624,-0.195,-0.03
2021-08-19 13:32:34.628,-0.225,-0.06
2021-08-19 13:32:34.632,-0.195,-0.05
2021-08-19 13:32:34.636,-0.19,-0.035
2021-08-19 13:32:34.640,-0.195,-0.04
2021-08-19 13:32:34.644,-0.17,-0.04
2021-08-19 13:32:34.648,-0.165,-0.045
2021-08-19 13:32:34.652,-0.155,-0.035
2021-08-19 13:32:34.656,-0.175,-0.05
2021-08-19 13:32:34.660,-0.155,-0.02
2021-08-19 13:32:34.664,-0.145,-0.04
2021-08-19 13:32:34.668,-0.11,-0.06
2021-08-19 13:32:34.672,-0.125,-0.04
2021-08-19 13:32:34.676,-0.125,-0.06
2021-08-19 13:32:34.680,-0.105,-0.055
2021-08-19 13:32:34.684,-0.095,-0.075
2021-08-19 13:32:34.688,-0.08,-0.075
2021-08-19 13:32:34.692,-0.075,-0.055
2021-08-19 13:32:34.696,-0.05,-0.065
2021-08-19 13:32:34.700,-0.045,-0.08
2021-08-19 13:32:34.704,-0.035,-0.08
2021-08-19 13:32:34.708,-0.01,-0.075
2021-08-19 13:32:34.712,0.0,-0.075
2021-08-19 13:32:34.716,-0.03,-0.115
2021-08-19 13:32:34.720,-0.01,-0.1
2021-08-19 13:32:34.724,-0.025,-0.065
2021-08-19 13:32:34.728,-0.02,-0.07
2021-08-19 13:32:34.732,-0.03,-0.105
2021-08-19 13:32:34.736,-0.045,-0.105
2021-08-19 13:32:34.740,-0.05,-0.11
2021-08-19 13:32:34.744,-0.08,-0.125
2021-08-19 13:32:34.748,-0.105,-0.1
2021-08-19 13:32:34.752,-0.13,-0.11
2021-08-19 13:32:34.756,-0.13,-0.105
2021-08-19 13:32:34.760,-0.165,-0.105
2021-08-19 13:32:34.764,-0.2,-0.13
2021-08-19 13:32:34.768,-0.235,-0.09
2021-08-19 13:32:34.772,-0.24,-0.075
2021-08-19 13:32:34.776,-0.29,-0.07
2021-08-19 13:32:34.780,-0.31,-0.08
2021-08-19 13:32:34.784,-0.335,-0.08
2021-08-19 13:32:34.788,-0.35,-0.08
2021-08-19 13:32:34.792,-0.37,-0.08
2021-08-19 13:32:34.796,-0.375,-0.07
2021-08-19 13:32:34.800,-0.405,-0.08
2021-08-19 13:32:34.804,-0.4,-0.065
2021-08-19 13:32:34.808,-0.395,-0.065
2021-08-19 13:32:34.812,-0.385,-0.05
2021-08-19 13:32:34.816,-0.385,-0.02
2021-08-19 13:32:34.820,-0.375,-0.04
2021-08-19 13:32:34.824,-0.35,-0.025
2021-08-19 13:32:34.828,-0.305,-0.015
2021-08-19 13:32:34.832,-0.24,0.0
2021-08-19 13:32:34.836,-0.22,0.04
2021-08-19 13:32:34.840,-0.22,0.03
2021-08-19 13:32:34.844,-0.21,-0.02
2021-08-19 13:32:34.848,-0.21,-0.02
2021-08-19 13:32:34.852,-0.23,-0.045
2021-08-19 13:32:34.856,-0.21,-0.065
2021-08-19 13:32:34.860,-0.205,-0.07
2021-08-19 13:32:34.864,-0.195,-0.075
2021-08-19 13:32:34.868,-0.195,-0.07
2021-08-19 13:32:34.872,-0.21,-0.055
2021-08-19 13:32:34.876,-0.22,-0.065
2021-08-19 13:32:34.880,-0.2,-0.075
2021-08-19 13:32:34.884,-0.2,-0.07
2021-08-19 13:32:34.888,-0.21,-0.08
2021-08-19 13:32:34.892,-0.2,-0.07
2021-08-19 13:32:34.896,-0.2,-0.095
2021-08-19 13:32:34.900,-0.17,-0.065
2021-08-19 13:32:34.904,-0.19,-0.075
2021-08-19 13:32:34.908,-0.195,-0.08
2021-08-19 13:32:34.912,-0.195,-0.095
2021-08-19 13:32:34.916,-0.19,-0.085
2021-08-19 13:32:34.920,-0.2,-0.08
2021-08-19 13:32:34.924,-0.21,-0.095
2021-08-19 13:32:34.928,-0.22,-0.075
2021-08-19 13:32:34.932,-0.22,-0.085
2021-08-19 13:32:34.936,-0.305,-0.105
2021-08-19 13:32:34.940,-0.375,-0.125
2021-08-19 13:32:34.944,-0.405,-0.14
2021-08-19 13:32:34.948,-0.405,-0.15
2021-08-19 13:32:34.952,-0.32,-0.195
2021-08-19 13:32:34.956,-0.095,-0.265
2021-08-19 13:32:34.960,0.245,-0.375
2021-08-19 13:32:34.964,0.63,-0.455
2021-08-19 13:32:34.968,0.93,-0.435
2021-08-19 13:32:34.972,1.035,-0.235
2021-08-19 13:32:34.976,0.715,0.19
2021-08-19 13:32:34.980,0.075,0.545
2021-08-19 13:32:34.984,-0.6,0.755
2021-08-19 13:32:34.988,-1.045,0.645
2021-08-19 13:32:34.992,-1.135,0.245
2021-08-19 13:32:34.996,-0.985,-0.105
2021-08-19 13:32:35.000,-0.765,-0.25
2021-08-19 13:32:35.004,-0.61,-0.29
2021-08-19 13:32:35.008,-0.5,-0.27
2021-08-19 13:32:35.012,-0.445,-0.21
2021-08-19 13:32:35.016,-0.46,-0.1
2021-08-19 13:32:35.020,-0.465,-0.06
2021-08-19 13:32:35.024,-0.455,-0.06
2021-08-19 13:32:35.028,-0.465,-0.065
2021-08-19 13:32:35.032,-0.49,-0.06
2021-08-19 13:32:35.036,-0.47,-0.05
2021-08-19 13:32:35.040,-0.48,-0.025
2021-08-19 13:32:35.044,-0.45,0.0
2021-08-19 13:32:35.048,-0.43,-0.01
2021-08-19 13:32:35.052,-0.345,0.0
2021-08-19 13:32:35.056,-0.285,0.025
2021-08-19 13:32:35.060,-0.27,0.02
2021-08-19 13:32:35.064,-0.245,0.02
2021-08-19 13:32:35.068,-0.23,-0.005
2021-08-19 13:32:35.072,-0.23,0.0
2021-08-19 13:32:35.076,-0.225,-0.015
2021-08-19 13:32:35.080,-0.215,-0.02
2021-08-19 13:32:35.084,-0.215,-0.055
2021-08-19 13:32:35.088,-0.235,-0.04
2021-08-19 13:32:35.092,-0.205,-0.04
2021-08-19 13:32:35.096,-0.21,-0.035
2021-08-19 13:32:35.100,-0.2,-0.025
2021-08-19 13:32:35.104,-0.18,-0.04
2021-08-19 13:32:35.108,-0.17,-0.02
2021-08-19 13:32:35.112,-0.18,-0.015
2021-08-19 13:32:35.116,-0.155,-0.04
2021-08-19 13:32:35.120,-0.155,-0.035
2021-08-19 13:32:35.124,-0.15,-0.055
2021-08-19 13:32:35.128,-0.145,-0.04
2021-08-19 13:32:35.132,-0.135,-0.035
2021-08-19 13:32:35.136,-0.12,-0.07
2021-08-19 13:32:35.140,-0.12,-0.065
2021-08-19 13:32:35.144,-0.1,-0.085
2021-08-19 13:32:35.148,-0.1,-0.09
2021-08-19 13:32:35.152,-0.065,-0.09
2021-08-19 13:32:35.156,-0.06,-0.09
2021-08-19 13:32:35.160,-0.065,-0.085
2021-08-19 13:32:35.164,-0.04,-0.075
2021-08-19 13:32:35.168,-0.045,-0.105
2021-08-19 13:32:35.172,-0.02,-0.08
2021-08-19 13:32:35.176,-0.01,-0.085
2021-08-19 13:32:35.180,-0.025,-0.075
2021-08-19 13:32:35.184,-0.03,-0.095
2021-08-19 13:32:35.188,-0.055,-0.095
2021-08-19 13:32:35.192,-0.06,-0.105
2021-08-19 13:32:35.196,-0.08,-0.1
2021-08-19 13:32:35.200,-0.095,-0.12
2021-08-19 13:32:35.204,-0.11,-0.12
2021-08-19 13:32:35.208,-0.135,-0.105
2021-08-19 13:32:35.212,-0.13,-0.105
2021-08-19 13:32:35.216,-0.16,-0.09
2021-08-19 13:32:35.220,-0.17,-0.12
2021-08-19 13:32:35.224,-0.185,-0.08
2021-08-19 13:32:35.228,-0.23,-0.06
2021-08-19 13:32:35.232,-0.26,-0.095
2021-08-19 13:32:35.236,-0.285,-0.075
2021-08-19 13:32:35.240,-0.3,-0.06
2021-08-19 13:32:35.244,-0.33,-0.05
2021-08-19 13:32:35.248,-0.365,-0.05
2021-08-19 13:32:35.252,-0.36,-0.055
2021-08-19 13:32:35.256,-0.375,-0.08
2021-08-19 13:32:35.260,-0.405,-0.085
2021-08-19 13:32:35.264,-0.4,-0.06
2021-08-19 13:32:35.268,-0.385,-0.065
2021-08-19 13:32:35.272,-0.375,-0.025
2021-08-19 13:32:35.276,-0.375,-0.015
2021-08-19 13:32:35.280,-0.345,-0.025
2021-08-19 13:32:35.284,-0.33,-0.015
2021-08-19 13:32:35.288,-0.285,0.005
2021-08-19 13:32:35.292,-0.235,0.015
2021-08-19 13:32:35.296,-0.21,0.015
2021-08-19 13:32:35.300,-0.23,0.015
2021-08-19 13:32:35.304,-0.21,0.0
2021-08-19 13:32:35.308,-0.225,-0.03
2021-08-19 13:32:35.312,-0.205,-0.03
2021-08-19 13:32:35.316,-0.215,-0.02
2021-08-19 13:32:35.320,-0.21,-0.06
2021-08-19 13:32:35.324,-0.21,-0.08
2021-08-19 13:32:35.328,-0.195,-0.07
2021-08-19 13:32:35.332,-0.19,-0.055
2021-08-19 13:32:35.336,-0.195,-0.055
2021-08-19 13:32:35.340,-0.205,-0.04
2021-08-19 13:32:35.344,-0.2,-0.06
2021-08-19 13:32:35.348,-0.185,-0.065
2021-08-19 13:32:35.352,-0.19,-0.06
2021-08-19 13:32:35.356,-0.155,-0.065
2021-08-19 13:32:35.360,-0.18,-0.075
2021-08-19 13:32:35.364,-0.18,-0.07
2021-08-19 13:32:35.368,-0.2,-0.07
2021-08-19 13:32:35.372,-0.185,-0.095
2021-08-19 13:32:35.376,-0.175,-0.06
2021-08-19 13:32:35.380,-0.205,-0.06
2021-08-19 13:32:35.384,-0.195,-0.075
2021-08-19 13:32:35.388,-0.2,-0.075
2021-08-19 13:32:35.392,-0.2,-0.06
2021-08-19 13:32:35.396,-0.21,-0.075
2021-08-19 13:32:35.400,-0.23,-0.09
2021-08-19 13:32:35.404,-0.25,-0.09
2021-08-19 13:32:35.408,-0.305,-0.08
2021-08-19 13:32:35.412,-0.39,-0.1
2021-08-19 13:32:35.416,-0.395,-0.16
2021-08-19 13:32:35.420,-0.415,-0.15
2021-08-19 13:32:35.424,-0.355,-0.185
2021-08-19 13:32:35.428,-0.165,-0.26
2021-08-19 13:32:35.432,0.1,-0.35
2021-08-19 13:32:35.436,0.435,-0.445
2021-08-19 13:32:35.440,0.775,-0.5
2021-08-19 13:32:35.444,0.97,-0.355
2021-08-19 13:32:35.448,0.83,-0.035
2021-08-19 13:32:35.452,0.28,0.4
2021-08-19 13:32:35.456,-0.345,0.65
2021-08-19 13:32:35.460,-0.87,0.735
2021-08-19 13:32:35.464,-1.095,0.585
2021-08-19 13:32:35.468,-1.135,0.185
2021-08-19 13:32:35.472,-1.025,-0.145
2021-08-19 13:32:35.476,-0.855,-0.29
2021-08-19 13:32:35.480,-0.685,-0.285
2021-08-19 13:32:35.484,-0.565,-0.27
2021-08-19 13:32:35.488,-0.515,-0.235
2021-08-19 13:32:35.492,-0.49,-0.14
2021-08-19 13:32:35.496,-0.505,-0.09
2021-08-19 13:32:35.500,-0.505,-0.06
2021-08-19 13:32:35.504,-0.52,-0.085
2021-08-19 13:32:35.508,-0.505,-0.09
2021-08-19 13:32:35.512,-0.49,-0.075
2021-08-19 13:32:35.516,-0.42,-0.06
2021-08-19 13:32:35.520,-0.355,-0.005
2021-08-19 13:32:35.524,-0.31,0.01
2021-08-19 13:32:35.528,-0.27,0.025
2021-08-19 13:32:35.532,-0.26,-0.005
2021-08-19 13:32:35.536,-0.285,-0.02
2021-08-19 13:32:35.540,-0.26,-0.04
2021-08-19 13:32:35.544,-0.285,-0.045
2021-08-19 13:32:35.548,-0.27,-0.07
2021-08-19 13:32:35.552,-0.255,-0.09
2021-08-19 13:32:35.556,-0.265,-0.095
2021-08-19 13:32:35.560,-0.255,-0.08
2021-08-19 13:32:35.564,-0.25,-0.105
2021-08-19 13:32:35.568,-0.24,-0.09
2021-08-19 13:32:35.572,-0.23,-0.075
2021-08-19 13:32:35.576,-0.25,-0.09
2021-08-19 13:32:35.580,-0.255,-0.075
2021-08-19 13:32:35.584,-0.25,-0.09
2021-08-19 13:32:35.588,-0.235,-0.095
2021-08-19 13:32:35.592,-0.23,-0.105
2021-08-19 13:32:35.596,-0.235,-0.09
2021-08-19 13:32:35.600,-0.225,-0.11
2021-08-19 13:32:35.604,-0.22,-0.105
2021-08-19 13:32:35.608,-0.2,-0.105
2021-08-19 13:32:35.612,-0.195,-0.115
2021-08-19 13:32:35.616,-0.2,-0.12
2021-08-19 13:32:35.620,-0.18,-0.115
2021-08-19 13:32:35.624,-0.18,-0.115
2021-08-19 13:32:35.628,-0.155,-0.125
2021-08-19 13:32:35.632,-0.145,-0.14
2021-08-19 13:32:35.636,-0.135,-0.135
2021-08-19 13:32:35.640,-0.115,-0.145
2021-08-19 13:32:35.644,-0.12,-0.15
2021-08-19 13:32:35.648,-0.115,-0.145
2021-08-19 13:32:35.652,-0.125,-0.135
2021-08-19 13:32:35.656,-0.13,-0.155
2021-08-19 13:32:35.660,-0.135,-0.155
2021-08-19 13:32:35.664,-0.165,-0.145
2021-08-19 13:32:35.668,-0.155,-0.15
2021-08-19 13:32:35.672,-0.165,-0.15
2021-08-19 13:32:35.676,-0.175,-0.145
2021-08-19 13:32:35.680,-0.175,-0.15
2021-08-19 13:32:35.684,-0.2,-0.17
2021-08-19 13:32:35.688,-0.21,-0.15
2021-08-19 13:32:35.692,-0.235,-0.17
2021-08-19 13:32:35.696,-0.26,-0.16
2021-08-19 13:32:35.700,-0.265,-0.13
2021-08-19 13:32:35.704,-0.29,-0.145
2021-08-19 13:32:35.708,-0.315,-0.115
2021-08-19 13:32:35.712,-0.33,-0.095
2021-08-19 13:32:35.716,-0.35,-0.11
2021-08-19 13:32:35.720,-0.37,-0.105
2021-08-19 13:32:35.724,-0.375,-0.1
2021-08-19 13:32:35.728,-0.42,-0.095
2021-08-19 13:32:35.732,-0.425,-0.125
2021-08-19 13:32:35.736,-0.43,-0.09
2021-08-19 13:32:35.740,-0.435,-0.12
2021-08-19 13:32:35.744,-0.43,-0.085
2021-08-19 13:32:35.748,-0.435,-0.08
2021-08-19 13:32:35.752,-0.41,-0.045
2021-08-19 13:32:35.756,-0.39,-0.04
2021-08-19 13:32:35.760,-0.365,-0.04
2021-08-19 13:32:35.764,-0.325,0.0
2021-08-19 13:32:35.768,-0.32,-0.01
2021-08-19 13:32:35.772,-0.3,0.0
2021-08-19 13:32:35.776,-0.27,-0.045
2021-08-19 13:32:35.780,-0.27,-0.075
2021-08-19 13:32:35.784,-0.27,-0.075
2021-08-19 13:32:35.788,-0.29,-0.08
2021-08-19 13:32:35.792,-0.28,-0.08
2021-08-19 13:32:35.796,-0.28,-0.1
2021-08-19 13:32:35.800,-0.275,-0.105
2021-08-19 13:32:35.804,-0.28,-0.085
2021-08-19 13:32:35.808,-0.255,-0.085
2021-08-19 13:32:35.812,-0.28,-0.08
2021-08-19 13:32:35.816,-0.265,-0.095
2021-08-19 13:32:35.820,-0.265,-0.085
2021-08-19 13:32:35.824,-0.265,-0.08
2021-08-19 13:32:35.828,-0.24,-0.065
2021-08-19 13:32:35.832,-0.26,-0.095
2021-08-19 13:32:35.836,-0.265,-0.095
2021-08-19 13:32:35.840,-0.255,-0.085
2021-08-19 13:32:35.844,-0.26,-0.1
2021-08-19 13:32:35.848,-0.265,-0.115
2021-08-19 13:32:35.852,-0.26,-0.095
2021-08-19 13:32:35.856,-0.28,-0.115
2021-08-19 13:32:35.860,-0.275,-0.12
2021-08-19 13:32:35.864,-0.28,-0.12
2021-08-19 13:32:35.868,-0.27,-0.095
2021-08-19 13:32:35.872,-0.27,-0.12
2021-08-19 13:32:35.876,-0.285,-0.1
2021-08-19 13:32:35.880,-0.285,-0.11
2021-08-19 13:32:35.884,-0.28,-0.12
2021-08-19 13:32:35.888,-0.35,-0.14
2021-08-19 13:32:35.892,-0.445,-0.125
2021-08-19 13:32:35.896,-0.475,-0.14
2021-08-19 13:32:35.900,-0.495,-0.15
2021-08-19 13:32:35.904,-0.44,-0.225
2021-08-19 13:32:35.908,-0.315,-0.25
2021-08-19 13:32:35.912,-0.025,-0.315
2021-08-19 13:32:35.916,0.28,-0.42
2021-08-19 13:32:35.920,0.645,-0.47
2021-08-19 13:32:35.924,0.92,-0.41
2021-08-19 13:32:35.928,0.955,-0.23
2021-08-19 13:32:35.932,0.605,0.155
2021-08-19 13:32:35.936,-0.045,0.48
2021-08-19 13:32:35.940,-0.65,0.635
2021-08-19 13:32:35.944,-1.085,0.71
2021-08-19 13:32:35.948,-1.205,0.415
2021-08-19 13:32:35.952,-1.15,0.015
2021-08-19 13:32:35.956,-1.01,-0.22
2021-08-19 13:32:35.960,-0.83,-0.275
2021-08-19 13:32:35.964,-0.65,-0.295
2021-08-19 13:32:35.968,-0.6,-0.255
2021-08-19 13:32:35.972,-0.555,-0.185
2021-08-19 13:32:35.976,-0.545,-0.13
2021-08-19 13:32:35.980,-0.53,-0.08
2021-08-19 13:32:35.984,-0.535,-0.045
2021-08-19 13:32:35.988,-0.51,-0.065
2021-08-19 13:32:35.992,-0.485,-0.045
2021-08-19 13:32:35.996,-0.425,-0.045
2021-08-19 13:32:36.000,-0.365,0.0
2021-08-19 13:32:36.004,-0.32,0.005
2021-08-19 13:32:36.008,-0.305,0.025
2021-08-19 13:32:36.012,-0.315,0.005
2021-08-19 13:32:36.016,-0.295,0.0
2021-08-19 13:32:36.020,-0.29,-0.03
2021-08-19 13:32:36.024,-0.3,-0.035
2021-08-19 13:32:36.028,-0.3,-0.04
2021-08-19 13:32:36.032,-0.275,-0.07
2021-08-19 13:32:36.036,-0.28,-0.065
2021-08-19 13:32:36.040,-0.28,-0.035
2021-08-19 13:32:36.044,-0.265,-0.04
2021-08-19 13:32:36.048,-0.265,-0.055
2021-08-19 13:32:36.052,-0.245,-0.03
2021-08-19 13:32:36.056,-0.25,-0.055
2021-08-19 13:32:36.060,-0.235,-0.045
2021-08-19 13:32:36.064,-0.255,-0.05
2021-08-19 13:32:36.068,-0.23,-0.05
2021-08-19 13:32:36.072,-0.22,-0.05
2021-08-19 13:32:36.076,-0.23,-0.05
2021-08-19 13:32:36.080,-0.22,-0.055
2021-08-19 13:32:36.084,-0.195,-0.07
2021-08-19 13:32:36.088,-0.17,-0.06
2021-08-19 13:32:36.092,-0.19,-0.075
2021-08-19 13:32:36.096,-0.19,-0.08
2021-08-19 13:32:36.100,-0.155,-0.085
2021-08-19 13:32:36.104,-0.15,-0.08
2021-08-19 13:32:36.108,-0.135,-0.09
2021-08-19 13:32:36.112,-0.12,-0.065
2021-08-19 13:32:36.116,-0.1,-0.115
2021-08-19 13:32:36.120,-0.13,-0.105
2021-08-19 13:32:36.124,-0.08,-0.105
2021-08-19 13:32:36.128,-0.095,-0.125
2021-08-19 13:32:36.132,-0.075,-0.12
2021-08-19 13:32:36.136,-0.115,-0.115
2021-08-19 13:32:36.140,-0.115,-0.125
2021-08-19 13:32:36.144,-0.11,-0.115
2021-08-19 13:32:36.148,-0.1,-0.125
2021-08-19 13:32:36.152,-0.135,-0.125
2021-08-19 13:32:36.156,-0.13,-0.135
2021-08-19 13:32:36.160,-0.17,-0.125
2021-08-19 13:32:36.164,-0.16,-0.16
2021-08-19 13:32:36.168,-0.185,-0.14
2021-08-19 13:32:36.172,-0.2,-0.14
2021-08-19 13:32:36.176,-0.22,-0.145
2021-08-19 13:32:36.180,-0.22,-0.125
2021-08-19 13:32:36.184,-0.255,-0.12
2021-08-19 13:32:36.188,-0.28,-0.09
2021-08-19 13:32:36.192,-0.29,-0.1
2021-08-19 13:32:36.196,-0.32,-0.105
2021-08-19 13:32:36.200,-0.32,-0.1
2021-08-19 13:32:36.204,-0.365,-0.095
2021-08-19 13:32:36.208,-0.41,-0.08
2021-08-19 13:32:36.212,-0.405,-0.095
2021-08-19 13:32:36.216,-0.435,-0.065
2021-08-19 13:32:36.220,-0.435,-0.08
2021-08-19 13:32:36.224,-0.43,-0.075
2021-08-19 13:32:36.228,-0.39,-0.05
2021-08-19 13:32:36.232,-0.33,-0.02
2021-08-19 13:32:36.236,-0.285,0.01
2021-08-19 13:32:36.240,-0.285,0.015
2021-08-19 13:32:36.244,-0.27,-0.005
2021-08-19 13:32:36.248,-0.275,-0.025
2021-08-19 13:32:36.252,-0.27,-0.025
2021-08-19 13:32:36.256,-0.265,-0.06
2021-08-19 13:32:36.260,-0.285,-0.05
2021-08-19 13:32:36.264,-0.3,-0.085
2021-08-19 13:32:36.268,-0.28,-0.06
2021-08-19 13:32:36.272,-0.3,-0.06
2021-08-19 13:32:36.276,-0.29,-0.085
2021-08-19 13:32:36.280,-0.29,-0.09
2021-08-19 13:32:36.284,-0.27,-0.085
2021-08-19 13:32:36.288,-0.27,-0.07
2021-08-19 13:32:36.292,-0.275,-0.08
2021-08-19 13:32:36.296,-0.265,-0.08
2021-08-19 13:32:36.300,-0.255,-0.065
2021-08-19 13:32:36.304,-0.255,-0.085
2021-08-19 13:32:36.308,-0.265,-0.08
2021-08-19 13:32:36.312,-0.27,-0.08
2021-08-19 13:32:36.316,-0.26,-0.07
2021-08-19 13:32:36.320,-0.265,-0.095
2021-08-19 13:32:36.324,-0.255,-0.08
2021-08-19 13:32:36.328,-0.265,-0.085
2021-08-19 13:32:36.332,-0.25,-0.055
2021-08-19 13:32:36.336,-0.26,-0.06
2021-08-19 13:32:36.340,-0.275,-0.065
2021-08-19 13:32:36.344,-0.275,-0.075
2021-08-19 13:32:36.348,-0.25,-0.08
2021-08-19 13:32:36.352,-0.27,-0.105
2021-08-19 13:32:36.356,-0.26,-0.09
2021-08-19 13:32:36.360,-0.27,-0.08
2021-08-19 13:32:36.364,-0.28,-0.07
2021-08-19 13:32:36.368,-0.3,-0.08
2021-08-19 13:32:36.372,-0.305,-0.085
2021-08-19 13:32:36.376,-0.315,-0.1
2021-08-19 13:32:36.380,-0.39,-0.115
2021-08-19 13:32:36.384,-0.46,-0.135
2021-08-19 13:32:36.388,-0.5,-0.14
2021-08-19 13:32:36.392,-0.485,-0.15
2021-08-19 13:32:36.396,-0.42,-0.185
2021-08-19 13:32:36.400,-0.255,-0.27
2021-08-19 13:32:36.404,0.05,-0.335
2021-08-19 13:32:36.408,0.41,-0.415
2021-08-19 13:32:36.412,0.765,-0.455
2021-08-19 13:32:36.416,0.975,-0.36
2021-08-19 13:32:36.420,0.925,-0.135
2021-08-19 13:32:36.424,0.455,0.255
2021-08-19 13:32:36.428,-0.24,0.54
2021-08-19 13:32:36.432,-0.85,0.695
2021-08-19 13:32:36.436,-1.185,0.645
2021-08-19 13:32:36.440,-1.25,0.31
2021-08-19 13:32:36.444,-1.145,-0.04
2021-08-19 13:32:36.448,-0.945,-0.215
2021-08-19 13:32:36.452,-0.78,-0.255
2021-08-19 13:32:36.456,-0.63,-0.25
2021-08-19 13:32:36.460,-0.565,-0.22
2021-08-19 13:32:36.464,-0.48,-0.1
2021-08-19 13:32:36.468,-0.415,-0.025
2021-08-19 13:32:36.472,-0.375,0.01
2021-08-19 13:32:36.476,-0.315,-0.015
2021-08-19 13:32:36.480,-0.31,-0.02
2021-08-19 13:32:36.484,-0.3,-0.035
2021-08-19 13:32:36.488,-0.28,-0.04
2021-08-19 13:32:36.492,-0.305,-0.1
2021-08-19 13:32:36.496,-0.32,-0.09
2021-08-19 13:32:36.500,-0.3,-0.09
2021-08-19 13:32:36.504,-0.29,-0.07
2021-08-19 13:32:36.508,-0.28,-0.075
2021-08-19 13:32:36.512,-0.29,-0.065
2021-08-19 13:32:36.516,-0.305,-0.065
2021-08-19 13:32:36.520,-0.28,-0.08
2021-08-19 13:32:36.524,-0.31,-0.065
2021-08-19 13:32:36.528,-0.295,-0.07
2021-08-19 13:32:36.532,-0.3,-0.08
2021-08-19 13:32:36.536,-0.295,-0.06
2021-08-19 13:32:36.540,-0.295,-0.08
2021-08-19 13:32:36.544,-0.285,-0.08
2021-08-19 13:32:36.548,-0.28,-0.09
2021-08-19 13:32:36.552,-0.27,-0.105
2021-08-19 13:32:36.556,-0.285,-0.08
2021-08-19 13:32:36.560,-0.27,-0.08
2021-08-19 13:32:36.564,-0.275,-0.1
2021-08-19 13:32:36.568,-0.275,-0.075
2021-08-19 13:32:36.572,-0.275,-0.09
2021-08-19 13:32:36.576,-0.25,-0.1
2021-08-19 13:32:36.580,-0.235,-0.075
2021-08-19 13:32:36.584,-0.24,-0.085
2021-08-19 13:32:36.588,-0.225,-0.08
2021-08-19 13:32:36.592,-0.2,-0.105
2021-08-19 13:32:36.596,-0.185,-0.115
2021-08-19 13:32:36.600,-0.18,-0.12
2021-08-19 13:32:36.604,-0.155,-0.095
2021-08-19 13:32:36.608,-0.155,-0.12
2021-08-19 13:32:36.612,-0.155,-0.145
2021-08-19 13:32:36.616,-0.14,-0.135
2021-08-19 13:32:36.620,-0.14,-0.13
2021-08-19 13:32:36.624,-0.175,-0.11
2021-08-19 13:32:36.628,-0.15,-0.135
2021-08-19 13:32:36.632,-0.165,-0.15
2021-08-19 13:32:36.636,-0.185,-0.18
2021-08-19 13:32:36.640,-0.19,-0.155
2021-08-19 13:32:36.644,-0.195,-0.15
2021-08-19 13:32:36.648,-0.195,-0.15
2021-08-19 13:32:36.652,-0.215,-0.15
2021-08-19 13:32:36.656,-0.205,-0.145
2021-08-19 13:32:36.660,-0.235,-0.125
2021-08-19 13:32:36.664,-0.26,-0.13
2021-08-19 13:32:36.668,-0.265,-0.125
2021-08-19 13:32:36.672,-0.28,-0.105
2021-08-19 13:32:36.676,-0.305,-0.08
2021-08-19 13:32:36.680,-0.335,-0.1
2021-08-19 13:32:36.684,-0.36,-0.09
2021-08-19 13:32:36.688,-0.365,-0.08
2021-08-19 13:32:36.692,-0.37,-0.065
2021-08-19 13:32:36.696,-0.37,-0.075
2021-08-19 13:32:36.700,-0.375,-0.06
2021-08-19 13:32:36.704,-0.36,-0.035
2021-08-19 13:32:36.708,-0.3,-0.04
2021-08-19 13:32:36.712,-0.275,0.0
2021-08-19 13:32:36.716,-0.26,0.03
2021-08-19 13:32:36.720,-0.285,0.01
2021-08-19 13:32:36.724,-0.285,-0.015
2021-08-19 13:32:36.728,-0.27,-0.055
2021-08-19 13:32:36.732,-0.26,-0.08
2021-08-19 13:32:36.736,-0.27,-0.11
2021-08-19 13:32:36.740,-0.275,-0.11
2021-08-19 13:32:36.744,-0.28,-0.1
2021-08-19 13:32:36.748,-0.29,-0.09
2021-08-19 13:32:36.752,-0.29,-0.09
2021-08-19 13:32:36.756,-0.295,-0.085
2021-08-19 13:32:36.760,-0.305,-0.105
2021-08-19 13:32:36.764,-0.305,-0.07
2021-08-19 13:32:36.768,-0.285,-0.09
2021-08-19 13:32:36.772,-0.295,-0.075
2021-08-19 13:32:36.776,-0.27,-0.1
2021-08-19 13:32:36.780,-0.3,-0.11
2021-08-19 13:32:36.784,-0.3,-0.09
2021-08-19 13:32:36.788,-0.295,-0.1
2021-08-19 13:32:36.792,-0.31,-0.09
2021-08-19 13:32:36.796,-0.31,-0.07
2021-08-19 13:32:36.800,-0.28,-0.09
2021-08-19 13:32:36.804,-0.28,-0.09
2021-08-19 13:32:36.808,-0.3,-0.1
2021-08-19 13:32:36.812,-0.29,-0.075
2021-08-19 13:32:36.816,-0.295,-0.075
