Time,ECG1,ECG2
2021-08-19 15:19:55.164,-0.175,0.74
2021-08-19 15:19:55.168,-0.175,0.65
2021-08-19 15:19:55.172,-0.155,0.55
2021-08-19 15:19:55.176,-0.1,0.29
2021-08-19 15:19:55.180,-0.095,0.035
2021-08-19 15:19:55.184,-0.12,-0.13
2021-08-19 15:19:55.188,-0.155,-0.205
2021-08-19 15:19:55.192,-0.13,-0.24
2021-08-19 15:19:55.196,-0.11,-0.265
2021-08-19 15:19:55.200,-0.11,-0.29
2021-08-19 15:19:55.204,-0.09,-0.31
2021-08-19 15:19:55.208,-0.065,-0.345
2021-08-19 15:19:55.212,-0.045,-0.34
2021-08-19 15:19:55.216,-0.045,-0.34
2021-08-19 15:19:55.220,0.0,-0.355
2021-08-19 15:19:55.224,0.03,-0.38
2021-08-19 15:19:55.228,0.0,-0.39
2021-08-19 15:19:55.232,-0.035,-0.395
2021-08-19 15:19:55.236,-0.1,-0.39
2021-08-19 15:19:55.240,-0.1,-0.415
2021-08-19 15:19:55.244,-0.065,-0.425
2021-08-19 15:19:55.248,-0.025,-0.41
2021-08-19 15:19:55.252,0.005,-0.43
2021-08-19 15:19:55.256,0.015,-0.385
2021-08-19 15:19:55.260,0.015,-0.4
2021-08-19 15:19:55.264,0.0,-0.39
2021-08-19 15:19:55.268,0.03,-0.425
2021-08-19 15:19:55.272,0.03,-0.43
2021-08-19 15:19:55.276,0.07,-0.43
2021-08-19 15:19:55.280,0.06,-0.435
2021-08-19 15:19:55.284,0.095,-0.455
2021-08-19 15:19:55.288,0.095,-0.5
2021-08-19 15:19:55.292,0.125,-0.53
2021-08-19 15:19:55.296,0.115,-0.565
2021-08-19 15:19:55.300,0.15,-0.58
2021-08-19 15:19:55.304,0.12,-0.615
2021-08-19 15:19:55.308,0.125,-0.645
2021-08-19 15:19:55.312,0.12,-0.63
2021-08-19 15:19:55.316,0.17,-0.645
2021-08-19 15:19:55.320,0.175,-0.635
2021-08-19 15:19:55.324,0.19,-0.66
2021-08-19 15:19:55.328,0.22,-0.635
2021-08-19 15:19:55.332,0.22,-0.665
2021-08-19 15:19:55.336,0.205,-0.66
2021-08-19 15:19:55.340,0.23,-0.675
2021-08-19 15:19:55.344,0.22,-0.695
2021-08-19 15:19:55.348,0.2,-0.67
2021-08-19 15:19:55.352,0.205,-0.665
2021-08-19 15:19:55.356,0.19,-0.68
2021-08-19 15:19:55.360,0.13,-0.655
2021-08-19 15:19:55.364,0.11,-0.655
2021-08-19 15:19:55.368,0.09,-0.625
2021-08-19 15:19:55.372,0.065,-0.62
2021-08-19 15:19:55.376,0.04,-0.58
2021-08-19 15:19:55.380,0.015,-0.565
2021-08-19 15:19:55.384,0.025,-0.525
2021-08-19 15:19:55.388,0.005,-0.525
2021-08-19 15:19:55.392,-0.015,-0.5
2021-08-19 15:19:55.396,-0.02,-0.5
2021-08-19 15:19:55.400,-0.01,-0.47
2021-08-19 15:19:55.404,-0.01,-0.44
2021-08-19 15:19:55.408,0.02,-0.415
2021-08-19 15:19:55.412,0.01,-0.42
2021-08-19 15:19:55.416,-0.05,-0.41
2021-08-19 15:19:55.420,-0.115,-0.39
2021-08-19 15:19:55.424,-0.08,-0.375
2021-08-19 15:19:55.428,-0.08,-0.36
2021-08-19 15:19:55.432,-0.06,-0.35
2021-08-19 15:19:55.436,-0.085,-0.325
2021-08-19 15:19:55.440,-0.08,-0.305
2021-08-19 15:19:55.444,-0.115,-0.295
2021-08-19 15:19:55.448,-0.11,-0.295
2021-08-19 15:19:55.452,-0.115,-0.28
2021-08-19 15:19:55.456,-0.095,-0.28
2021-08-19 15:19:55.460,-0.08,-0.27
2021-08-19 15:19:55.464,-0.055,-0.275
2021-08-19 15:19:55.468,-0.09,-0.265
2021-08-19 15:19:55.472,-0.12,-0.3
2021-08-19 15:19:55.476,-0.105,-0.315
2021-08-19 15:19:55.480,-0.105,-0.365
2021-08-19 15:19:55.484,-0.12,-0.37
2021-08-19 15:19:55.488,-0.125,-0.36
2021-08-19 15:19:55.492,-0.12,-0.365
2021-08-19 15:19:55.496,-0.125,-0.395
2021-08-19 15:19:55.500,-0.115,-0.4
2021-08-19 15:19:55.504,-0.125,-0.405
2021-08-19 15:19:55.508,-0.13,-0.415
2021-08-19 15:19:55.512,-0.1,-0.41
2021-08-19 15:19:55.516,-0.08,-0.39
2021-08-19 15:19:55.520,-0.1,-0.42
2021-08-19 15:19:55.524,-0.13,-0.405
2021-08-19 15:19:55.528,-0.16,-0.395
2021-08-19 15:19:55.532,-0.155,-0.405
2021-08-19 15:19:55.536,-0.125,-0.385
2021-08-19 15:19:55.540,-0.12,-0.395
2021-08-19 15:19:55.544,-0.085,-0.38
2021-08-19 15:19:55.548,-0.11,-0.38
2021-08-19 15:19:55.552,-0.12,-0.385
2021-08-19 15:19:55.556,-0.13,-0.4
2021-08-19 15:19:55.560,-0.15,-0.385
2021-08-19 15:19:55.564,-0.14,-0.39
2021-08-19 15:19:55.568,-0.16,-0.375
2021-08-19 15:19:55.572,-0.19,-0.36
2021-08-19 15:19:55.576,-0.19,-0.385
2021-08-19 15:19:55.580,-0.18,-0.365
2021-08-19 15:19:55.584,-0.165,-0.38
2021-08-19 15:19:55.588,-0.135,-0.375
2021-08-19 15:19:55.592,-0.15,-0.385
2021-08-19 15:19:55.596,-0.16,-0.38
2021-08-19 15:19:55.600,-0.16,-0.36
2021-08-19 15:19:55.604,-0.185,-0.37
2021-08-19 15:19:55.608,-0.165,-0.355
2021-08-19 15:19:55.612,-0.115,-0.355
2021-08-19 15:19:55.616,-0.01,-0.34
2021-08-19 15:19:55.620,0.125,-0.305
2021-08-19 15:19:55.624,0.3,-0.26
2021-08-19 15:19:55.628,0.46,-0.22
2021-08-19 15:19:55.632,0.59,-0.15
2021-08-19 15:19:55.636,0.56,-0.16
2021-08-19 15:19:55.640,0.33,-0.13
2021-08-19 15:19:55.644,0.04,-0.095
2021-08-19 15:19:55.648,-0.16,-0.105
2021-08-19 15:19:55.652,-0.265,-0.09
2021-08-19 15:19:55.656,-0.335,-0.025
2021-08-19 15:19:55.660,-0.385,0.08
2021-08-19 15:19:55.664,-0.41,0.19
2021-08-19 15:19:55.668,-0.47,0.3
2021-08-19 15:19:55.672,-0.525,0.5
2021-08-19 15:19:55.676,-0.57,0.655
2021-08-19 15:19:55.680,-0.595,0.745
2021-08-19 15:19:55.684,-0.59,0.7
2021-08-19 15:19:55.688,-0.5,0.555
2021-08-19 15:19:55.692,-0.36,0.44
2021-08-19 15:19:55.696,-0.225,0.415
2021-08-19 15:19:55.700,-0.175,0.35
2021-08-19 15:19:55.704,-0.155,0.25
2021-08-19 15:19:55.708,-0.135,0.04
2021-08-19 15:19:55.712,-0.13,-0.12
2021-08-19 15:19:55.716,-0.165,-0.225
2021-08-19 15:19:55.720,-0.17,-0.275
2021-08-19 15:19:55.724,-0.16,-0.305
2021-08-19 15:19:55.728,-0.135,-0.34
2021-08-19 15:19:55.732,-0.13,-0.37
2021-08-19 15:19:55.736,-0.135,-0.385
2021-08-19 15:19:55.740,-0.13,-0.385
2021-08-19 15:19:55.744,-0.125,-0.4
2021-08-19 15:19:55.748,-0.13,-0.4
2021-08-19 15:19:55.752,-0.115,-0.415
2021-08-19 15:19:55.756,-0.095,-0.42
2021-08-19 15:19:55.760,-0.11,-0.435
2021-08-19 15:19:55.764,-0.115,-0.425
2021-08-19 15:19:55.768,-0.135,-0.44
2021-08-19 15:19:55.772,-0.13,-0.45
2021-08-19 15:19:55.776,-0.13,-0.46
2021-08-19 15:19:55.780,-0.11,-0.44
2021-08-19 15:19:55.784,-0.065,-0.46
2021-08-19 15:19:55.788,-0.055,-0.44
2021-08-19 15:19:55.792,-0.04,-0.43
2021-08-19 15:19:55.796,-0.05,-0.43
2021-08-19 15:19:55.800,-0.1,-0.445
2021-08-19 15:19:55.804,-0.14,-0.47
2021-08-19 15:19:55.808,-0.13,-0.46
2021-08-19 15:19:55.812,-0.125,-0.47
2021-08-19 15:19:55.816,-0.11,-0.46
2021-08-19 15:19:55.820,-0.11,-0.46
2021-08-19 15:19:55.824,-0.09,-0.42
2021-08-19 15:19:55.828,-0.075,-0.41
2021-08-19 15:19:55.832,-0.02,-0.43
2021-08-19 15:19:55.836,-0.005,-0.44
2021-08-19 15:19:55.840,-0.005,-0.43
2021-08-19 15:19:55.844,0.0,-0.43
2021-08-19 15:19:55.848,0.0,-0.435
2021-08-19 15:19:55.852,0.035,-0.435
2021-08-19 15:19:55.856,0.015,-0.455
2021-08-19 15:19:55.860,-0.005,-0.45
2021-08-19 15:19:55.864,-0.04,-0.455
2021-08-19 15:19:55.868,-0.015,-0.52
2021-08-19 15:19:55.872,-0.005,-0.55
2021-08-19 15:19:55.876,-0.005,-0.555
2021-08-19 15:19:55.880,-0.01,-0.595
2021-08-19 15:19:55.884,-0.005,-0.6
2021-08-19 15:19:55.888,0.0,-0.625
2021-08-19 15:19:55.892,-0.035,-0.61
2021-08-19 15:19:55.896,-0.045,-0.605
2021-08-19 15:19:55.900,-0.07,-0.585
2021-08-19 15:19:55.904,-0.065,-0.585
2021-08-19 15:19:55.908,-0.05,-0.575
2021-08-19 15:19:55.912,-0.05,-0.575
2021-08-19 15:19:55.916,-0.05,-0.525
2021-08-19 15:19:55.920,-0.065,-0.515
2021-08-19 15:19:55.924,-0.09,-0.49
2021-08-19 15:19:55.928,-0.115,-0.435
2021-08-19 15:19:55.932,-0.175,-0.425
2021-08-19 15:19:55.936,-0.18,-0.42
2021-08-19 15:19:55.940,-0.185,-0.385
2021-08-19 15:19:55.944,-0.15,-0.365
2021-08-19 15:19:55.948,-0.16,-0.355
2021-08-19 15:19:55.952,-0.155,-0.32
2021-08-19 15:19:55.956,-0.185,-0.305
2021-08-19 15:19:55.960,-0.175,-0.28
2021-08-19 15:19:55.964,-0.17,-0.28
2021-08-19 15:19:55.968,-0.17,-0.265
2021-08-19 15:19:55.972,-0.17,-0.265
2021-08-19 15:19:55.976,-0.195,-0.225
2021-08-19 15:19:55.980,-0.19,-0.23
2021-08-19 15:19:55.984,-0.165,-0.24
2021-08-19 15:19:55.988,-0.165,-0.25
2021-08-19 15:19:55.992,-0.14,-0.23
2021-08-19 15:19:55.996,-0.135,-0.23
2021-08-19 15:19:56.000,-0.14,-0.2
2021-08-19 15:19:56.004,-0.18,-0.205
2021-08-19 15:19:56.008,-0.185,-0.195
2021-08-19 15:19:56.012,-0.18,-0.18
2021-08-19 15:19:56.016,-0.17,-0.195
2021-08-19 15:19:56.020,-0.145,-0.15
2021-08-19 15:19:56.024,-0.135,-0.155
2021-08-19 15:19:56.028,-0.135,-0.14
2021-08-19 15:19:56.032,-0.17,-0.13
2021-08-19 15:19:56.036,-0.14,-0.13
2021-08-19 15:19:56.040,-0.13,-0.12
2021-08-19 15:19:56.044,-0.075,-0.11
2021-08-19 15:19:56.048,-0.08,-0.1
2021-08-19 15:19:56.052,-0.09,-0.08
2021-08-19 15:19:56.056,-0.085,-0.085
2021-08-19 15:19:56.060,-0.12,-0.105
2021-08-19 15:19:56.064,-0.12,-0.16
2021-08-19 15:19:56.068,-0.155,-0.22
2021-08-19 15:19:56.072,-0.155,-0.225
2021-08-19 15:19:56.076,-0.125,-0.21
2021-08-19 15:19:56.080,-0.095,-0.215
2021-08-19 15:19:56.084,-0.105,-0.195
2021-08-19 15:19:56.088,-0.135,-0.2
2021-08-19 15:19:56.092,-0.14,-0.22
2021-08-19 15:19:56.096,-0.155,-0.225
2021-08-19 15:19:56.100,-0.15,-0.205
2021-08-19 15:19:56.104,-0.13,-0.19
2021-08-19 15:19:56.108,-0.135,-0.21
2021-08-19 15:19:56.112,-0.145,-0.195
2021-08-19 15:19:56.116,-0.16,-0.18
2021-08-19 15:19:56.120,-0.175,-0.225
2021-08-19 15:19:56.124,-0.145,-0.22
2021-08-19 15:19:56.128,-0.17,-0.205
2021-08-19 15:19:56.132,-0.14,-0.19
2021-08-19 15:19:56.136,-0.155,-0.175
2021-08-19 15:19:56.140,-0.165,-0.18
2021-08-19 15:19:56.144,-0.15,-0.17
2021-08-19 15:19:56.148,-0.135,-0.16
2021-08-19 15:19:56.152,-0.14,-0.175
2021-08-19 15:19:56.156,-0.13,-0.16
2021-08-19 15:19:56.160,-0.12,-0.175
2021-08-19 15:19:56.164,-0.12,-0.155
2021-08-19 15:19:56.168,-0.11,-0.16
2021-08-19 15:19:56.172,-0.145,-0.18
2021-08-19 15:19:56.176,-0.16,-0.18
2021-08-19 15:19:56.180,-0.145,-0.18
2021-08-19 15:19:56.184,-0.13,-0.18
2021-08-19 15:19:56.188,-0.115,-0.15
2021-08-19 15:19:56.192,-0.12,-0.16
2021-08-19 15:19:56.196,-0.16,-0.14
2021-08-19 15:19:56.200,-0.185,-0.145
2021-08-19 15:19:56.204,-0.175,-0.13
2021-08-19 15:19:56.208,-0.15,-0.115
2021-08-19 15:19:56.212,-0.18,-0.09
2021-08-19 15:19:56.216,-0.235,-0.08
2021-08-19 15:19:56.220,-0.22,-0.085
2021-08-19 15:19:56.224,-0.19,-0.08
2021-08-19 15:19:56.228,-0.14,-0.075
2021-08-19 15:19:56.232,-0.155,-0.075
2021-08-19 15:19:56.236,-0.165,-0.04
2021-08-19 15:19:56.240,-0.155,-0.03
2021-08-19 15:19:56.244,-0.135,-0.06
2021-08-19 15:19:56.248,-0.135,-0.09
2021-08-19 15:19:56.252,-0.16,-0.105
2021-08-19 15:19:56.256,-0.145,-0.12
2021-08-19 15:19:56.260,-0.15,-0.14
2021-08-19 15:19:56.264,-0.155,-0.145
2021-08-19 15:19:56.268,-0.16,-0.165
2021-08-19 15:19:56.272,-0.14,-0.16
2021-08-19 15:19:56.276,-0.18,-0.145
2021-08-19 15:19:56.280,-0.155,-0.175
2021-08-19 15:19:56.284,-0.155,-0.185
2021-08-19 15:19:56.288,-0.16,-0.17
2021-08-19 15:19:56.292,-0.18,-0.16
2021-08-19 15:19:56.296,-0.16,-0.15
2021-08-19 15:19:56.300,-0.155,-0.145
2021-08-19 15:19:56.304,-0.16,-0.145
2021-08-19 15:19:56.308,-0.195,-0.16
2021-08-19 15:19:56.312,-0.17,-0.15
2021-08-19 15:19:56.316,-0.16,-0.185
2021-08-19 15:19:56.320,-0.18,-0.16
2021-08-19 15:19:56.324,-0.2,-0.15
2021-08-19 15:19:56.328,-0.23,-0.155
2021-08-19 15:19:56.332,-0.205,-0.155
2021-08-19 15:19:56.336,-0.21,-0.16
2021-08-19 15:19:56.340,-0.19,-0.15
2021-08-19 15:19:56.344,-0.205,-0.155
2021-08-19 15:19:56.348,-0.205,-0.13
2021-08-19 15:19:56.352,-0.19,-0.115
2021-08-19 15:19:56.356,-0.185,-0.13
2021-08-19 15:19:56.360,-0.16,-0.125
2021-08-19 15:19:56.364,-0.14,-0.11
2021-08-19 15:19:56.368,-0.125,-0.105
2021-08-19 15:19:56.372,-0.055,-0.1
2021-08-19 15:19:56.376,0.115,-0.06
2021-08-19 15:19:56.380,0.315,-0.03
2021-08-19 15:19:56.384,0.505,0.005
2021-08-19 15:19:56.388,0.59,0.035
2021-08-19 15:19:56.392,0.51,0.06
2021-08-19 15:19:56.396,0.26,0.06
2021-08-19 15:19:56.400,-0.02,0.035
2021-08-19 15:19:56.404,-0.195,0.0
2021-08-19 15:19:56.408,-0.305,0.0
2021-08-19 15:19:56.412,-0.355,0.13
2021-08-19 15:19:56.416,-0.385,0.25
2021-08-19 15:19:56.420,-0.43,0.375
2021-08-19 15:19:56.424,-0.465,0.57
2021-08-19 15:19:56.428,-0.515,0.785
2021-08-19 15:19:56.432,-0.53,0.955
2021-08-19 15:19:56.436,-0.51,1.02
2021-08-19 15:19:56.440,-0.445,0.945
2021-08-19 15:19:56.444,-0.325,0.86
2021-08-19 15:19:56.448,-0.205,0.78
2021-08-19 15:19:56.452,-0.14,0.73
2021-08-19 15:19:56.456,-0.155,0.645
2021-08-19 15:19:56.460,-0.15,0.48
2021-08-19 15:19:56.464,-0.165,0.245
2021-08-19 15:19:56.468,-0.145,0.135
2021-08-19 15:19:56.472,-0.135,0.045
2021-08-19 15:19:56.476,-0.11,0.015
2021-08-19 15:19:56.480,-0.095,-0.04
2021-08-19 15:19:56.484,-0.11,-0.03
2021-08-19 15:19:56.488,-0.13,-0.075
2021-08-19 15:19:56.492,-0.135,-0.11
2021-08-19 15:19:56.496,-0.12,-0.135
2021-08-19 15:19:56.500,-0.11,-0.15
2021-08-19 15:19:56.504,-0.075,-0.18
2021-08-19 15:19:56.508,-0.105,-0.17
2021-08-19 15:19:56.512,-0.07,-0.175
2021-08-19 15:19:56.516,-0.105,-0.185
2021-08-19 15:19:56.520,-0.12,-0.195
2021-08-19 15:19:56.524,-0.12,-0.19
2021-08-19 15:19:56.528,-0.11,-0.21
2021-08-19 15:19:56.532,-0.09,-0.19
2021-08-19 15:19:56.536,-0.085,-0.2
2021-08-19 15:19:56.540,-0.08,-0.205
2021-08-19 15:19:56.544,-0.045,-0.2
2021-08-19 15:19:56.548,-0.06,-0.215
2021-08-19 15:19:56.552,-0.07,-0.22
2021-08-19 15:19:56.556,-0.085,-0.225
2021-08-19 15:19:56.560,-0.07,-0.225
2021-08-19 15:19:56.564,-0.03,-0.215
2021-08-19 15:19:56.568,-0.075,-0.215
2021-08-19 15:19:56.572,-0.06,-0.225
2021-08-19 15:19:56.576,-0.075,-0.215
2021-08-19 15:19:56.580,-0.07,-0.24
2021-08-19 15:19:56.584,-0.07,-0.25
2021-08-19 15:19:56.588,-0.05,-0.25
2021-08-19 15:19:56.592,0.005,-0.255
2021-08-19 15:19:56.596,0.0,-0.25
2021-08-19 15:19:56.600,0.0,-0.23
2021-08-19 15:19:56.604,0.0,-0.235
2021-08-19 15:19:56.608,0.02,-0.25
2021-08-19 15:19:56.612,0.02,-0.245
2021-08-19 15:19:56.616,0.005,-0.24
2021-08-19 15:19:56.620,0.01,-0.245
2021-08-19 15:19:56.624,0.02,-0.225
2021-08-19 15:19:56.628,0.04,-0.235
2021-08-19 15:19:56.632,0.05,-0.22
2021-08-19 15:19:56.636,0.08,-0.2
2021-08-19 15:19:56.640,0.075,-0.2
2021-08-19 15:19:56.644,0.035,-0.2
2021-08-19 15:19:56.648,0.025,-0.205
2021-08-19 15:19:56.652,0.055,-0.225
2021-08-19 15:19:56.656,0.055,-0.245
2021-08-19 15:19:56.660,0.06,-0.3
2021-08-19 15:19:56.664,0.005,-0.32
2021-08-19 15:19:56.668,0.0,-0.34
2021-08-19 15:19:56.672,0.02,-0.335
2021-08-19 15:19:56.676,0.0,-0.32
2021-08-19 15:19:56.680,-0.005,-0.29
2021-08-19 15:19:56.684,-0.005,-0.29
2021-08-19 15:19:56.688,-0.03,-0.265
2021-08-19 15:19:56.692,-0.065,-0.235
2021-08-19 15:19:56.696,-0.135,-0.215
2021-08-19 15:19:56.700,-0.155,-0.195
2021-08-19 15:19:56.704,-0.16,-0.21
2021-08-19 15:19:56.708,-0.125,-0.16
2021-08-19 15:19:56.712,-0.12,-0.12
2021-08-19 15:19:56.716,-0.145,-0.12
2021-08-19 15:19:56.720,-0.155,-0.125
2021-08-19 15:19:56.724,-0.16,-0.1
2021-08-19 15:19:56.728,-0.15,-0.09
2021-08-19 15:19:56.732,-0.13,-0.09
2021-08-19 15:19:56.736,-0.14,-0.06
2021-08-19 15:19:56.740,-0.11,-0.06
2021-08-19 15:19:56.744,-0.125,-0.04
2021-08-19 15:19:56.748,-0.145,-0.07
2021-08-19 15:19:56.752,-0.14,-0.05
2021-08-19 15:19:56.756,-0.12,-0.04
2021-08-19 15:19:56.760,-0.095,-0.04
2021-08-19 15:19:56.764,-0.11,-0.06
2021-08-19 15:19:56.768,-0.105,-0.07
2021-08-19 15:19:56.772,-0.105,-0.055
2021-08-19 15:19:56.776,-0.085,-0.06
2021-08-19 15:19:56.780,-0.08,-0.03
2021-08-19 15:19:56.784,-0.075,-0.02
2021-08-19 15:19:56.788,-0.085,-0.045
2021-08-19 15:19:56.792,-0.08,-0.035
2021-08-19 15:19:56.796,-0.11,0.0
2021-08-19 15:19:56.800,-0.105,0.015
2021-08-19 15:19:56.804,-0.1,0.005
2021-08-19 15:19:56.808,-0.105,0.02
2021-08-19 15:19:56.812,-0.11,0.015
2021-08-19 15:19:56.816,-0.08,0.04
2021-08-19 15:19:56.820,-0.095,0.05
2021-08-19 15:19:56.824,-0.09,0.055
2021-08-19 15:19:56.828,-0.105,0.055
2021-08-19 15:19:56.832,-0.09,0.055
2021-08-19 15:19:56.836,-0.08,0.015
2021-08-19 15:19:56.840,-0.065,0.01
2021-08-19 15:19:56.844,-0.095,-0.01
2021-08-19 15:19:56.848,-0.145,-0.035
2021-08-19 15:19:56.852,-0.16,-0.04
2021-08-19 15:19:56.856,-0.16,-0.05
2021-08-19 15:19:56.860,-0.185,-0.06
2021-08-19 15:19:56.864,-0.17,-0.045
2021-08-19 15:19:56.868,-0.185,-0.08
2021-08-19 15:19:56.872,-0.2,-0.075
2021-08-19 15:19:56.876,-0.185,-0.08
2021-08-19 15:19:56.880,-0.21,-0.055
2021-08-19 15:19:56.884,-0.265,-0.07
2021-08-19 15:19:56.888,-0.265,-0.08
2021-08-19 15:19:56.892,-0.195,-0.06
2021-08-19 15:19:56.896,0.0,-0.05
2021-08-19 15:19:56.900,0.23,-0.025
2021-08-19 15:19:56.904,0.42,0.015
2021-08-19 15:19:56.908,0.515,0.07
2021-08-19 15:19:56.912,0.425,0.1
2021-08-19 15:19:56.916,0.175,0.135
2021-08-19 15:19:56.920,-0.105,0.13
2021-08-19 15:19:56.924,-0.29,0.115
2021-08-19 15:19:56.928,-0.365,0.145
2021-08-19 15:19:56.932,-0.43,0.245
2021-08-19 15:19:56.936,-0.44,0.4
2021-08-19 15:19:56.940,-0.475,0.52
2021-08-19 15:19:56.944,-0.515,0.68
2021-08-19 15:19:56.948,-0.56,0.87
2021-08-19 15:19:56.952,-0.56,1.035
2021-08-19 15:19:56.956,-0.55,1.1
2021-08-19 15:19:56.960,-0.53,0.995
2021-08-19 15:19:56.964,-0.425,0.85
2021-08-19 15:19:56.968,-0.335,0.74
2021-08-19 15:19:56.972,-0.265,0.715
2021-08-19 15:19:56.976,-0.235,0.655
2021-08-19 15:19:56.980,-0.175,0.495
2021-08-19 15:19:56.984,-0.14,0.325
2021-08-19 15:19:56.988,-0.15,0.19
2021-08-19 15:19:56.992,-0.145,0.09
2021-08-19 15:19:56.996,-0.15,0.06
2021-08-19 15:19:57.000,-0.13,0.04
2021-08-19 15:19:57.004,-0.1,0.02
2021-08-19 15:19:57.008,-0.09,0.0
2021-08-19 15:19:57.012,-0.08,-0.015
2021-08-19 15:19:57.016,-0.09,0.015
2021-08-19 15:19:57.020,-0.095,-0.01
2021-08-19 15:19:57.024,-0.09,0.0
2021-08-19 15:19:57.028,-0.075,-0.005
2021-08-19 15:19:57.032,-0.065,-0.025
2021-08-19 15:19:57.036,-0.06,-0.04
2021-08-19 15:19:57.040,-0.05,-0.05
2021-08-19 15:19:57.044,-0.05,-0.08
2021-08-19 15:19:57.048,-0.015,-0.125
2021-08-19 15:19:57.052,-0.005,-0.15
2021-08-19 15:19:57.056,-0.015,-0.175
2021-08-19 15:19:57.060,-0.05,-0.19
2021-08-19 15:19:57.064,-0.08,-0.215
2021-08-19 15:19:57.068,-0.095,-0.2
2021-08-19 15:19:57.072,-0.075,-0.205
2021-08-19 15:19:57.076,-0.05,-0.225
2021-08-19 15:19:57.080,-0.08,-0.235
2021-08-19 15:19:57.084,-0.115,-0.245
2021-08-19 15:19:57.088,-0.11,-0.24
2021-08-19 15:19:57.092,-0.08,-0.24
2021-08-19 15:19:57.096,-0.025,-0.245
2021-08-19 15:19:57.100,-0.01,-0.26
2021-08-19 15:19:57.104,-0.01,-0.28
2021-08-19 15:19:57.108,-0.07,-0.26
2021-08-19 15:19:57.112,-0.08,-0.28
2021-08-19 15:19:57.116,-0.07,-0.285
2021-08-19 15:19:57.120,-0.045,-0.305
2021-08-19 15:19:57.124,-0.025,-0.31
2021-08-19 15:19:57.128,-0.035,-0.285
2021-08-19 15:19:57.132,-0.01,-0.305
2021-08-19 15:19:57.136,0.015,-0.31
2021-08-19 15:19:57.140,0.03,-0.305
2021-08-19 15:19:57.144,-0.01,-0.315
2021-08-19 15:19:57.148,-0.03,-0.315
2021-08-19 15:19:57.152,0.01,-0.32
2021-08-19 15:19:57.156,0.0,-0.31
2021-08-19 15:19:57.160,-0.015,-0.305
2021-08-19 15:19:57.164,-0.025,-0.29
2021-08-19 15:19:57.168,-0.045,-0.28
2021-08-19 15:19:57.172,-0.045,-0.28
2021-08-19 15:19:57.176,-0.045,-0.25
2021-08-19 15:19:57.180,-0.07,-0.22
2021-08-19 15:19:57.184,-0.04,-0.19
2021-08-19 15:19:57.188,-0.05,-0.16
2021-08-19 15:19:57.192,-0.06,-0.145
2021-08-19 15:19:57.196,-0.065,-0.08
2021-08-19 15:19:57.200,-0.07,-0.055
2021-08-19 15:19:57.204,-0.05,-0.045
2021-08-19 15:19:57.208,-0.07,0.005
2021-08-19 15:19:57.212,-0.09,0.035
2021-08-19 15:19:57.216,-0.115,0.1
2021-08-19 15:19:57.220,-0.125,0.125
2021-08-19 15:19:57.224,-0.11,0.16
2021-08-19 15:19:57.228,-0.095,0.185
2021-08-19 15:19:57.232,-0.075,0.235
2021-08-19 15:19:57.236,-0.06,0.26
2021-08-19 15:19:57.240,-0.065,0.255
2021-08-19 15:19:57.244,-0.07,0.25
2021-08-19 15:19:57.248,-0.115,0.24
2021-08-19 15:19:57.252,-0.09,0.17
2021-08-19 15:19:57.256,-0.1,0.145
2021-08-19 15:19:57.260,-0.13,0.12
2021-08-19 15:19:57.264,-0.12,0.1
2021-08-19 15:19:57.268,-0.12,0.105
2021-08-19 15:19:57.272,-0.14,0.095
2021-08-19 15:19:57.276,-0.13,0.085
2021-08-19 15:19:57.280,-0.11,0.095
2021-08-19 15:19:57.284,-0.09,0.085
2021-08-19 15:19:57.288,-0.1,0.075
2021-08-19 15:19:57.292,-0.135,0.1
2021-08-19 15:19:57.296,-0.16,0.105
2021-08-19 15:19:57.300,-0.13,0.105
2021-08-19 15:19:57.304,-0.08,0.085
2021-08-19 15:19:57.308,-0.105,0.08
2021-08-19 15:19:57.312,-0.13,0.095
2021-08-19 15:19:57.316,-0.12,0.07
2021-08-19 15:19:57.320,-0.125,0.06
2021-08-19 15:19:57.324,-0.105,0.06
2021-08-19 15:19:57.328,-0.065,0.055
2021-08-19 15:19:57.332,-0.06,0.06
2021-08-19 15:19:57.336,-0.05,0.1
2021-08-19 15:19:57.340,-0.065,0.075
2021-08-19 15:19:57.344,-0.055,0.09
2021-08-19 15:19:57.348,0.085,0.095
2021-08-19 15:19:57.352,0.265,0.125
2021-08-19 15:19:57.356,0.435,0.16
2021-08-19 15:19:57.360,0.575,0.23
2021-08-19 15:19:57.364,0.675,0.28
2021-08-19 15:19:57.368,0.565,0.315
2021-08-19 15:19:57.372,0.245,0.335
2021-08-19 15:19:57.376,-0.075,0.315
2021-08-19 15:19:57.380,-0.245,0.3
2021-08-19 15:19:57.384,-0.285,0.36
2021-08-19 15:19:57.388,-0.29,0.465
2021-08-19 15:19:57.392,-0.305,0.6
2021-08-19 15:19:57.396,-0.33,0.775
2021-08-19 15:19:57.400,-0.41,0.96
2021-08-19 15:19:57.404,-0.5,1.13
2021-08-19 15:19:57.408,-0.53,1.225
2021-08-19 15:19:57.412,-0.52,1.235
2021-08-19 15:19:57.416,-0.445,1.145
2021-08-19 15:19:57.420,-0.31,1.065
2021-08-19 15:19:57.424,-0.185,1.01
2021-08-19 15:19:57.428,-0.12,0.955
2021-08-19 15:19:57.432,-0.085,0.855
2021-08-19 15:19:57.436,-0.05,0.69
2021-08-19 15:19:57.440,-0.025,0.505
2021-08-19 15:19:57.444,0.02,0.405
2021-08-19 15:19:57.448,-0.005,0.33
2021-08-19 15:19:57.452,-0.055,0.29
2021-08-19 15:19:57.456,-0.04,0.225
2021-08-19 15:19:57.460,-0.06,0.21
2021-08-19 15:19:57.464,-0.08,0.2
2021-08-19 15:19:57.468,-0.105,0.135
2021-08-19 15:19:57.472,-0.11,0.11
2021-08-19 15:19:57.476,-0.06,0.12
2021-08-19 15:19:57.480,-0.035,0.1
2021-08-19 15:19:57.484,-0.08,0.115
2021-08-19 15:19:57.488,-0.105,0.1
2021-08-19 15:19:57.492,-0.085,0.08
2021-08-19 15:19:57.496,-0.07,0.11
2021-08-19 15:19:57.500,-0.045,0.06
2021-08-19 15:19:57.504,-0.035,0.025
2021-08-19 15:19:57.508,-0.035,-0.005
2021-08-19 15:19:57.512,-0.015,0.0
2021-08-19 15:19:57.516,-0.015,0.015
2021-08-19 15:19:57.520,-0.04,0.015
2021-08-19 15:19:57.524,-0.04,0.02
2021-08-19 15:19:57.528,-0.02,0.02
2021-08-19 15:19:57.532,-0.01,0.025
2021-08-19 15:19:57.536,-0.01,0.0
2021-08-19 15:19:57.540,0.005,0.02
2021-08-19 15:19:57.544,0.005,0.015
2021-08-19 15:19:57.548,0.025,0.01
2021-08-19 15:19:57.552,0.015,0.005
2021-08-19 15:19:57.556,0.02,0.025
2021-08-19 15:19:57.560,0.02,0.01
2021-08-19 15:19:57.564,0.03,0.0
2021-08-19 15:19:57.568,0.06,0.015
2021-08-19 15:19:57.572,0.09,0.02
2021-08-19 15:19:57.576,0.115,0.045
2021-08-19 15:19:57.580,0.105,0.06
2021-08-19 15:19:57.584,0.065,0.09
2021-08-19 15:19:57.588,0.025,0.125
2021-08-19 15:19:57.592,0.01,0.085
2021-08-19 15:19:57.596,0.0,-0.02
2021-08-19 15:19:57.600,0.015,-0.045
2021-08-19 15:19:57.604,0.04,-0.035
2021-08-19 15:19:57.608,0.03,-0.045
2021-08-19 15:19:57.612,0.06,-0.075
2021-08-19 15:19:57.616,0.04,-0.065
2021-08-19 15:19:57.620,0.025,-0.045
2021-08-19 15:19:57.624,-0.005,-0.015
2021-08-19 15:19:57.628,-0.03,-0.04
2021-08-19 15:19:57.632,-0.05,-0.025
2021-08-19 15:19:57.636,-0.03,0.0
2021-08-19 15:19:57.640,-0.015,0.04
2021-08-19 15:19:57.644,-0.015,0.07
2021-08-19 15:19:57.648,-0.01,0.095
2021-08-19 15:19:57.652,-0.05,0.095
2021-08-19 15:19:57.656,-0.04,0.09
2021-08-19 15:19:57.660,-0.045,0.09
2021-08-19 15:19:57.664,-0.025,0.16
2021-08-19 15:19:57.668,-0.065,0.235
2021-08-19 15:19:57.672,-0.1,0.205
2021-08-19 15:19:57.676,-0.1,0.085
2021-08-19 15:19:57.680,-0.045,0.105
2021-08-19 15:19:57.684,-0.03,0.135
2021-08-19 15:19:57.688,-0.015,0.125
2021-08-19 15:19:57.692,0.01,0.1
2021-08-19 15:19:57.696,0.07,0.12
2021-08-19 15:19:57.700,0.235,0.125
2021-08-19 15:19:57.704,0.475,0.15
2021-08-19 15:19:57.708,0.72,0.19
2021-08-19 15:19:57.712,0.865,0.2
2021-08-19 15:19:57.716,0.75,0.2
2021-08-19 15:19:57.720,0.4,0.24
2021-08-19 15:19:57.724,0.04,0.255
2021-08-19 15:19:57.728,-0.16,0.21
2021-08-19 15:19:57.732,-0.27,0.185
2021-08-19 15:19:57.736,-0.38,0.305
2021-08-19 15:19:57.740,-0.45,0.555
2021-08-19 15:19:57.744,-0.535,0.795
2021-08-19 15:19:57.748,-0.575,0.995
2021-08-19 15:19:57.752,-0.505,1.085
2021-08-19 15:19:57.756,-0.39,1.12
2021-08-19 15:19:57.760,-0.265,1.06
2021-08-19 15:19:57.764,-0.2,1.02
2021-08-19 15:19:57.768,-0.115,1.015
2021-08-19 15:19:57.772,-0.115,0.875
2021-08-19 15:19:57.776,-0.095,0.72
2021-08-19 15:19:57.780,-0.135,0.645
2021-08-19 15:19:57.784,-0.125,0.63
2021-08-19 15:19:57.788,-0.13,0.555
2021-08-19 15:19:57.792,-0.12,0.515
2021-08-19 15:19:57.796,-0.155,0.55
2021-08-19 15:19:57.800,-0.165,0.62
2021-08-19 15:19:57.804,-0.125,0.66
2021-08-19 15:19:57.808,-0.175,0.725
2021-08-19 15:19:57.812,-0.16,0.795
2021-08-19 15:19:57.816,-0.155,0.84
2021-08-19 15:19:57.820,-0.16,0.92
2021-08-19 15:19:57.824,-0.2,1.025
2021-08-19 15:19:57.828,-0.18,1.08
2021-08-19 15:19:57.832,-0.12,1.045
2021-08-19 15:19:57.836,-0.075,1.035
2021-08-19 15:19:57.840,-0.07,1.105
2021-08-19 15:19:57.844,-0.105,1.21
2021-08-19 15:19:57.848,-0.16,1.26
2021-08-19 15:19:57.852,-0.18,1.245
2021-08-19 15:19:57.856,-0.155,1.265
2021-08-19 15:19:57.860,-0.085,1.315
2021-08-19 15:19:57.864,-0.045,1.37
2021-08-19 15:19:57.868,-0.045,1.41
2021-08-19 15:19:57.872,-0.1,1.46
2021-08-19 15:19:57.876,-0.155,1.505
2021-08-19 15:19:57.880,-0.19,1.515
2021-08-19 15:19:57.884,-0.14,1.555
2021-08-19 15:19:57.888,-0.05,1.615
2021-08-19 15:19:57.892,-0.07,1.7
2021-08-19 15:19:57.896,-0.06,1.82
2021-08-19 15:19:57.900,-0.07,1.88
2021-08-19 15:19:57.904,-0.095,1.95
2021-08-19 15:19:58.664,-0.115,1.92
2021-08-19 15:19:58.668,-0.185,1.525
2021-08-19 15:19:58.672,-0.185,1.18
2021-08-19 15:19:58.676,-0.175,0.96
2021-08-19 15:19:58.680,-0.165,0.815
2021-08-19 15:19:58.684,-0.145,0.805
2021-08-19 15:19:58.688,-0.09,0.73
2021-08-19 15:19:58.692,-0.065,0.61
2021-08-19 15:19:58.696,-0.05,0.52
2021-08-19 15:19:58.700,-0.085,0.425
2021-08-19 15:19:58.704,-0.09,0.375
2021-08-19 15:19:58.708,-0.095,0.32
2021-08-19 15:19:58.712,-0.145,0.315
2021-08-19 15:19:58.716,-0.235,0.285
2021-08-19 15:19:58.720,-0.25,0.28
2021-08-19 15:19:58.724,-0.19,0.29
2021-08-19 15:19:58.728,-0.13,0.365
2021-08-19 15:19:58.732,-0.095,0.35
2021-08-19 15:19:58.736,-0.085,0.31
2021-08-19 15:19:58.740,-0.115,0.285
2021-08-19 15:19:58.744,-0.175,0.29
2021-08-19 15:19:58.748,-0.205,0.235
2021-08-19 15:19:58.752,-0.195,0.22
2021-08-19 15:19:58.756,-0.11,0.235
2021-08-19 15:19:58.760,-0.02,0.22
2021-08-19 15:19:58.764,-0.02,0.27
2021-08-19 15:19:58.768,-0.07,0.385
2021-08-19 15:19:58.772,-0.125,0.305
2021-08-19 15:19:58.776,-0.16,0.185
2021-08-19 15:19:58.780,-0.17,0.085
2021-08-19 15:19:58.784,-0.15,0.085
2021-08-19 15:19:58.788,-0.11,0.135
2021-08-19 15:19:58.792,-0.055,0.195
2021-08-19 15:19:58.796,-0.08,0.125
2021-08-19 15:19:58.800,-0.075,0.1
2021-08-19 15:19:58.804,-0.08,0.11
2021-08-19 15:19:58.808,-0.055,0.115
2021-08-19 15:19:58.812,-0.035,0.115
2021-08-19 15:19:58.816,0.005,0.15
2021-08-19 15:19:58.820,0.005,0.175
2021-08-19 15:19:58.824,-0.03,0.18
2021-08-19 15:19:58.828,-0.06,0.21
2021-08-19 15:19:58.832,-0.065,0.255
2021-08-19 15:19:58.836,-0.06,0.245
2021-08-19 15:19:58.840,-0.075,0.27
2021-08-19 15:19:58.844,-0.075,0.305
2021-08-19 15:19:58.848,-0.075,0.315
2021-08-19 15:19:58.852,-0.08,0.35
2021-08-19 15:19:58.856,-0.085,0.36
2021-08-19 15:19:58.860,-0.105,0.34
2021-08-19 15:19:58.864,-0.095,0.28
2021-08-19 15:19:58.868,-0.09,0.255
2021-08-19 15:19:58.872,-0.1,0.235
2021-08-19 15:19:58.876,-0.115,0.275
2021-08-19 15:19:58.880,-0.095,0.285
2021-08-19 15:19:58.884,-0.095,0.27
2021-08-19 15:19:58.888,-0.08,0.24
2021-08-19 15:19:58.892,-0.08,0.16
2021-08-19 15:19:58.896,-0.06,0.17
2021-08-19 15:19:58.900,-0.095,0.18
2021-08-19 15:19:58.904,-0.13,0.195
2021-08-19 15:19:58.908,-0.16,0.185
2021-08-19 15:19:58.912,-0.205,0.185
2021-08-19 15:19:58.916,-0.22,0.175
2021-08-19 15:19:58.920,-0.19,0.2
2021-08-19 15:19:58.924,-0.185,0.185
2021-08-19 15:19:58.928,-0.21,0.195
2021-08-19 15:19:58.932,-0.205,0.185
2021-08-19 15:19:58.936,-0.175,0.21
2021-08-19 15:19:58.940,-0.235,0.18
2021-08-19 15:19:58.944,-0.275,0.205
2021-08-19 15:19:58.948,-0.295,0.19
2021-08-19 15:19:58.952,-0.36,0.18
2021-08-19 15:19:58.956,-0.365,0.16
2021-08-19 15:19:58.960,-0.355,0.145
2021-08-19 15:19:58.964,-0.33,0.165
2021-08-19 15:19:58.968,-0.285,0.175
2021-08-19 15:19:58.972,-0.3,0.175
2021-08-19 15:19:58.976,-0.34,0.155
2021-08-19 15:19:58.980,-0.36,0.15
2021-08-19 15:19:58.984,-0.345,0.185
2021-08-19 15:19:58.988,-0.315,0.155
2021-08-19 15:19:58.992,-0.315,0.125
2021-08-19 15:19:58.996,-0.31,0.095
2021-08-19 15:19:59.000,-0.32,0.08
2021-08-19 15:19:59.004,-0.27,0.08
2021-08-19 15:19:59.008,-0.195,0.095
2021-08-19 15:19:59.012,-0.25,0.125
2021-08-19 15:19:59.016,-0.33,0.155
2021-08-19 15:19:59.020,-0.35,0.155
2021-08-19 15:19:59.024,-0.335,0.12
2021-08-19 15:19:59.028,-0.32,0.13
2021-08-19 15:19:59.032,-0.29,0.145
2021-08-19 15:19:59.036,-0.29,0.17
2021-08-19 15:19:59.040,-0.28,0.18
2021-08-19 15:19:59.044,-0.185,0.15
2021-08-19 15:19:59.048,0.0,0.13
2021-08-19 15:19:59.052,0.26,0.15
2021-08-19 15:19:59.056,0.405,0.15
2021-08-19 15:19:59.060,0.475,0.205
2021-08-19 15:19:59.064,0.515,0.22
2021-08-19 15:19:59.068,0.405,0.255
2021-08-19 15:19:59.072,0.12,0.305
2021-08-19 15:19:59.076,-0.19,0.285
2021-08-19 15:19:59.080,-0.37,0.255
2021-08-19 15:19:59.084,-0.455,0.27
2021-08-19 15:19:59.088,-0.515,0.315
2021-08-19 15:19:59.092,-0.6,0.37
2021-08-19 15:19:59.096,-0.61,0.445
2021-08-19 15:19:59.100,-0.6,0.55
2021-08-19 15:19:59.104,-0.645,0.7
2021-08-19 15:19:59.108,-0.68,0.87
2021-08-19 15:19:59.112,-0.675,0.915
2021-08-19 15:19:59.116,-0.64,0.8
2021-08-19 15:19:59.120,-0.535,0.62
2021-08-19 15:19:59.124,-0.475,0.49
2021-08-19 15:19:59.128,-0.41,0.505
2021-08-19 15:19:59.132,-0.3,0.45
2021-08-19 15:19:59.136,-0.255,0.33
2021-08-19 15:19:59.140,-0.3,0.18
2021-08-19 15:19:59.144,-0.35,0.045
2021-08-19 15:19:59.148,-0.36,-0.03
2021-08-19 15:19:59.152,-0.34,-0.08
2021-08-19 15:19:59.156,-0.345,-0.115
2021-08-19 15:19:59.160,-0.34,-0.12
2021-08-19 15:19:59.164,-0.365,-0.16
2021-08-19 15:19:59.168,-0.36,-0.18
2021-08-19 15:19:59.172,-0.335,-0.205
2021-08-19 15:19:59.176,-0.295,-0.22
2021-08-19 15:19:59.180,-0.3,-0.24
2021-08-19 15:19:59.184,-0.315,-0.24
2021-08-19 15:19:59.188,-0.375,-0.26
2021-08-19 15:19:59.192,-0.385,-0.24
2021-08-19 15:19:59.196,-0.32,-0.245
2021-08-19 15:19:59.200,-0.235,-0.275
2021-08-19 15:19:59.204,-0.205,-0.285
2021-08-19 15:19:59.208,-0.31,-0.26
2021-08-19 15:19:59.212,-0.33,-0.28
2021-08-19 15:19:59.216,-0.29,-0.3
2021-08-19 15:19:59.220,-0.255,-0.34
2021-08-19 15:19:59.224,-0.27,-0.34
2021-08-19 15:19:59.228,-0.28,-0.325
2021-08-19 15:19:59.232,-0.27,-0.355
2021-08-19 15:19:59.236,-0.275,-0.355
2021-08-19 15:19:59.240,-0.25,-0.33
2021-08-19 15:19:59.244,-0.25,-0.33
2021-08-19 15:19:59.248,-0.26,-0.325
2021-08-19 15:19:59.252,-0.24,-0.33
2021-08-19 15:19:59.256,-0.215,-0.345
2021-08-19 15:19:59.260,-0.15,-0.35
2021-08-19 15:19:59.264,-0.115,-0.38
2021-08-19 15:19:59.268,-0.145,-0.375
2021-08-19 15:19:59.272,-0.2,-0.38
2021-08-19 15:19:59.276,-0.23,-0.4
2021-08-19 15:19:59.280,-0.225,-0.43
2021-08-19 15:19:59.284,-0.215,-0.49
2021-08-19 15:19:59.288,-0.165,-0.53
2021-08-19 15:19:59.292,-0.145,-0.545
2021-08-19 15:19:59.296,-0.16,-0.565
2021-08-19 15:19:59.300,-0.16,-0.575
2021-08-19 15:19:59.304,-0.16,-0.58
2021-08-19 15:19:59.308,-0.215,-0.585
2021-08-19 15:19:59.312,-0.265,-0.64
2021-08-19 15:19:59.316,-0.29,-0.66
2021-08-19 15:19:59.320,-0.3,-0.655
2021-08-19 15:19:59.324,-0.265,-0.64
2021-08-19 15:19:59.328,-0.24,-0.625
2021-08-19 15:19:59.332,-0.28,-0.6
2021-08-19 15:19:59.336,-0.285,-0.635
2021-08-19 15:19:59.340,-0.335,-0.57
2021-08-19 15:19:59.344,-0.38,-0.585
2021-08-19 15:19:59.348,-0.405,-0.58
2021-08-19 15:19:59.352,-0.39,-0.58
2021-08-19 15:19:59.356,-0.345,-0.545
2021-08-19 15:19:59.360,-0.315,-0.51
2021-08-19 15:19:59.364,-0.32,-0.51
2021-08-19 15:19:59.368,-0.345,-0.495
2021-08-19 15:19:59.372,-0.345,-0.51
2021-08-19 15:19:59.376,-0.345,-0.5
2021-08-19 15:19:59.380,-0.37,-0.515
2021-08-19 15:19:59.384,-0.38,-0.48
2021-08-19 15:19:59.388,-0.36,-0.43
2021-08-19 15:19:59.392,-0.32,-0.44
2021-08-19 15:19:59.396,-0.32,-0.455
2021-08-19 15:19:59.400,-0.335,-0.465
2021-08-19 15:19:59.404,-0.39,-0.45
2021-08-19 15:19:59.408,-0.36,-0.475
2021-08-19 15:19:59.412,-0.345,-0.475
2021-08-19 15:19:59.416,-0.345,-0.46
2021-08-19 15:19:59.420,-0.315,-0.475
2021-08-19 15:19:59.424,-0.265,-0.45
2021-08-19 15:19:59.428,-0.28,-0.435
2021-08-19 15:19:59.432,-0.27,-0.475
2021-08-19 15:19:59.436,-0.23,-0.47
2021-08-19 15:19:59.440,-0.225,-0.475
2021-08-19 15:19:59.444,-0.28,-0.47
2021-08-19 15:19:59.448,-0.285,-0.445
2021-08-19 15:19:59.452,-0.255,-0.445
2021-08-19 15:19:59.456,-0.275,-0.44
2021-08-19 15:19:59.460,-0.295,-0.455
2021-08-19 15:19:59.464,-0.265,-0.45
2021-08-19 15:19:59.468,-0.24,-0.465
2021-08-19 15:19:59.472,-0.225,-0.475
2021-08-19 15:19:59.476,-0.18,-0.465
2021-08-19 15:19:59.480,-0.165,-0.43
2021-08-19 15:19:59.484,-0.225,-0.43
2021-08-19 15:19:59.488,-0.3,-0.46
2021-08-19 15:19:59.492,-0.295,-0.495
2021-08-19 15:19:59.496,-0.255,-0.535
2021-08-19 15:19:59.500,-0.25,-0.52
2021-08-19 15:19:59.504,-0.25,-0.535
2021-08-19 15:19:59.508,-0.3,-0.555
2021-08-19 15:19:59.512,-0.36,-0.545
2021-08-19 15:19:59.516,-0.4,-0.555
2021-08-19 15:19:59.520,-0.36,-0.6
2021-08-19 15:19:59.524,-0.335,-0.62
2021-08-19 15:19:59.528,-0.335,-0.585
2021-08-19 15:19:59.532,-0.385,-0.6
2021-08-19 15:19:59.536,-0.415,-0.615
2021-08-19 15:19:59.540,-0.42,-0.63
2021-08-19 15:19:59.544,-0.455,-0.615
2021-08-19 15:19:59.548,-0.445,-0.61
2021-08-19 15:19:59.552,-0.41,-0.6
2021-08-19 15:19:59.556,-0.345,-0.6
2021-08-19 15:19:59.560,-0.335,-0.635
2021-08-19 15:19:59.564,-0.4,-0.635
2021-08-19 15:19:59.568,-0.44,-0.635
2021-08-19 15:19:59.572,-0.43,-0.635
2021-08-19 15:19:59.576,-0.4,-0.655
2021-08-19 15:19:59.580,-0.355,-0.64
2021-08-19 15:19:59.584,-0.385,-0.645
2021-08-19 15:19:59.588,-0.295,-0.62
2021-08-19 15:19:59.592,-0.155,-0.635
2021-08-19 15:19:59.596,0.025,-0.65
2021-08-19 15:19:59.600,0.24,-0.62
2021-08-19 15:19:59.604,0.375,-0.555
2021-08-19 15:19:59.608,0.32,-0.535
2021-08-19 15:19:59.612,0.07,-0.5
2021-08-19 15:19:59.616,-0.26,-0.455
2021-08-19 15:19:59.620,-0.475,-0.475
2021-08-19 15:19:59.624,-0.61,-0.455
2021-08-19 15:19:59.628,-0.71,-0.42
2021-08-19 15:19:59.632,-0.71,-0.345
2021-08-19 15:19:59.636,-0.65,-0.255
2021-08-19 15:19:59.640,-0.67,-0.14
2021-08-19 15:19:59.644,-0.79,0.03
2021-08-19 15:19:59.648,-0.855,0.215
2021-08-19 15:19:59.652,-0.835,0.29
2021-08-19 15:19:59.656,-0.725,0.245
2021-08-19 15:19:59.660,-0.56,0.135
2021-08-19 15:19:59.664,-0.415,0.015
2021-08-19 15:19:59.668,-0.305,-0.02
2021-08-19 15:19:59.672,-0.23,-0.075
2021-08-19 15:19:59.676,-0.195,-0.18
2021-08-19 15:19:59.680,-0.205,-0.34
2021-08-19 15:19:59.684,-0.19,-0.49
2021-08-19 15:19:59.688,-0.17,-0.56
2021-08-19 15:19:59.692,-0.235,-0.58
2021-08-19 15:19:59.696,-0.365,-0.615
2021-08-19 15:19:59.700,-0.415,-0.68
2021-08-19 15:19:59.704,-0.325,-0.705
2021-08-19 15:19:59.708,-0.265,-0.755
2021-08-19 15:19:59.712,-0.27,-0.795
2021-08-19 15:19:59.716,-0.375,-0.795
2021-08-19 15:19:59.720,-0.42,-0.805
2021-08-19 15:19:59.724,-0.43,-0.865
2021-08-19 15:19:59.728,-0.375,-0.9
2021-08-19 15:19:59.732,-0.315,-0.885
2021-08-19 15:19:59.736,-0.26,-0.865
2021-08-19 15:19:59.740,-0.185,-0.83
2021-08-19 15:19:59.744,-0.15,-0.875
2021-08-19 15:19:59.748,-0.205,-0.885
2021-08-19 15:19:59.752,-0.33,-0.91
2021-08-19 15:19:59.756,-0.41,-0.92
2021-08-19 15:19:59.760,-0.39,-0.95
2021-08-19 15:19:59.764,-0.34,-0.965
2021-08-19 15:19:59.768,-0.315,-0.955
2021-08-19 15:19:59.772,-0.355,-0.945
2021-08-19 15:19:59.776,-0.38,-0.93
2021-08-19 15:19:59.780,-0.365,-0.95
2021-08-19 15:19:59.784,-0.32,-0.96
2021-08-19 15:19:59.788,-0.345,-0.955
2021-08-19 15:19:59.792,-0.32,-0.96
2021-08-19 15:19:59.796,-0.305,-0.96
2021-08-19 15:19:59.800,-0.255,-0.965
2021-08-19 15:19:59.804,-0.245,-0.96
2021-08-19 15:19:59.808,-0.275,-0.97
2021-08-19 15:19:59.812,-0.32,-1.0
2021-08-19 15:19:59.816,-0.385,-0.99
2021-08-19 15:19:59.820,-0.4,-1.02
2021-08-19 15:19:59.824,-0.335,-1.025
2021-08-19 15:19:59.828,-0.27,-1.04
2021-08-19 15:19:59.832,-0.175,-1.03
2021-08-19 15:19:59.836,-0.145,-1.025
2021-08-19 15:19:59.840,-0.21,-1.035
2021-08-19 15:19:59.844,-0.285,-1.03
2021-08-19 15:19:59.848,-0.375,-1.06
2021-08-19 15:19:59.852,-0.39,-1.08
2021-08-19 15:19:59.856,-0.295,-1.08
2021-08-19 15:19:59.860,-0.25,-1.06
2021-08-19 15:19:59.864,-0.22,-1.015
2021-08-19 15:19:59.868,-0.2,-1.02
2021-08-19 15:19:59.872,-0.195,-1.03
2021-08-19 15:19:59.876,-0.12,-1.02
2021-08-19 15:19:59.880,-0.07,-1.02
2021-08-19 15:19:59.884,-0.08,-0.99
2021-08-19 15:19:59.888,-0.115,-0.97
2021-08-19 15:19:59.892,-0.175,-0.935
2021-08-19 15:19:59.896,-0.215,-0.905
2021-08-19 15:19:59.900,-0.265,-0.905
2021-08-19 15:19:59.904,-0.25,-0.905
2021-08-19 15:19:59.908,-0.3,-0.92
2021-08-19 15:19:59.912,-0.435,-0.92
2021-08-19 15:19:59.916,-0.52,-0.95
2021-08-19 15:19:59.920,-0.49,-0.985
2021-08-19 15:19:59.924,-0.365,-1.0
2021-08-19 15:19:59.928,-0.2,-0.985
2021-08-19 15:19:59.932,-0.25,-0.995
2021-08-19 15:19:59.936,-0.44,-0.955
2021-08-19 15:19:59.940,-0.505,-0.985
2021-08-19 15:19:59.944,-0.29,-1.025
2021-08-19 15:19:59.948,0.02,-1.015
2021-08-19 15:19:59.952,0.285,-0.985
2021-08-19 15:19:59.956,0.375,-0.965
2021-08-19 15:19:59.960,0.27,-0.925
2021-08-19 15:19:59.964,-0.04,-0.905
2021-08-19 15:19:59.968,-0.305,-0.92
2021-08-19 15:19:59.972,-0.405,-0.935
2021-08-19 15:19:59.976,-0.515,-0.93
2021-08-19 15:19:59.980,-0.64,-0.85
2021-08-19 15:19:59.984,-0.745,-0.715
2021-08-19 15:19:59.988,-0.815,-0.575
2021-08-19 15:19:59.992,-0.855,-0.425
2021-08-19 15:19:59.996,-0.8,-0.29
2021-08-19 15:20:00.000,-0.7,-0.235
2021-08-19 15:20:00.004,-0.66,-0.275
2021-08-19 15:20:00.008,-0.71,-0.39
2021-08-19 15:20:00.012,-0.665,-0.505
2021-08-19 15:20:00.016,-0.53,-0.545
2021-08-19 15:20:00.020,-0.39,-0.59
2021-08-19 15:20:00.024,-0.41,-0.695
2021-08-19 15:20:00.028,-0.48,-0.835
2021-08-19 15:20:00.032,-0.48,-0.94
2021-08-19 15:20:00.036,-0.445,-1.05
2021-08-19 15:20:00.040,-0.435,-1.14
2021-08-19 15:20:00.044,-0.5,-1.155
2021-08-19 15:20:00.048,-0.555,-1.155
2021-08-19 15:20:00.052,-0.56,-1.195
2021-08-19 15:20:00.056,-0.515,-1.225
2021-08-19 15:20:00.060,-0.44,-1.245
2021-08-19 15:20:00.064,-0.425,-1.27
2021-08-19 15:20:00.068,-0.46,-1.245
2021-08-19 15:20:00.072,-0.405,-1.25
2021-08-19 15:20:00.076,-0.305,-1.28
2021-08-19 15:20:00.080,-0.205,-1.31
2021-08-19 15:20:00.084,-0.235,-1.305
2021-08-19 15:20:00.088,-0.37,-1.3
2021-08-19 15:20:00.092,-0.53,-1.315
2021-08-19 15:20:00.096,-0.58,-1.31
2021-08-19 15:20:00.100,-0.49,-1.3
2021-08-19 15:20:00.104,-0.35,-1.3
2021-08-19 15:20:00.108,-0.295,-1.295
2021-08-19 15:20:00.112,-0.38,-1.27
2021-08-19 15:20:00.116,-0.455,-1.26
2021-08-19 15:20:00.120,-0.395,-1.3
2021-08-19 15:20:00.124,-0.365,-1.335
2021-08-19 15:20:00.128,-0.37,-1.35
2021-08-19 15:20:00.132,-0.365,-1.33
2021-08-19 15:20:00.136,-0.31,-1.325
2021-08-19 15:20:00.140,-0.315,-1.35
2021-08-19 15:20:00.144,-0.335,-1.38
2021-08-19 15:20:00.148,-0.37,-1.37
2021-08-19 15:20:00.152,-0.33,-1.37
2021-08-19 15:20:00.156,-0.285,-1.375
2021-08-19 15:20:00.160,-0.2,-1.37
2021-08-19 15:20:00.164,-0.18,-1.35
2021-08-19 15:20:00.168,-0.265,-1.335
2021-08-19 15:20:00.172,-0.32,-1.33
2021-08-19 15:20:00.176,-0.3,-1.36
2021-08-19 15:20:00.180,-0.22,-1.39
2021-08-19 15:20:00.184,-0.12,-1.39
2021-08-19 15:20:00.188,-0.065,-1.44
2021-08-19 15:20:00.192,-0.135,-1.46
2021-08-19 15:20:00.196,-0.275,-1.48
2021-08-19 15:20:00.200,-0.33,-1.53
2021-08-19 15:20:00.204,-0.245,-1.535
2021-08-19 15:20:00.208,-0.15,-1.575
2021-08-19 15:20:00.212,-0.155,-1.535
2021-08-19 15:20:00.216,-0.275,-1.51
2021-08-19 15:20:00.220,-0.41,-1.485
2021-08-19 15:20:00.224,-0.42,-1.51
2021-08-19 15:20:00.228,-0.365,-1.535
2021-08-19 15:20:00.232,-0.35,-1.535
2021-08-19 15:20:00.236,-0.42,-1.47
2021-08-19 15:20:00.240,-0.48,-1.465
2021-08-19 15:20:00.244,-0.445,-1.45
2021-08-19 15:20:00.248,-0.375,-1.435
2021-08-19 15:20:00.252,-0.305,-1.465
2021-08-19 15:20:00.256,-0.27,-1.45
2021-08-19 15:20:00.260,-0.31,-1.435
2021-08-19 15:20:00.264,-0.305,-1.425
2021-08-19 15:20:00.268,-0.335,-1.425
2021-08-19 15:20:00.272,-0.32,-1.425
2021-08-19 15:20:00.276,-0.285,-1.405
2021-08-19 15:20:00.280,-0.385,-1.425
2021-08-19 15:20:00.284,-0.52,-1.43
2021-08-19 15:20:00.288,-0.64,-1.425
2021-08-19 15:20:00.292,-0.61,-1.43
2021-08-19 15:20:00.296,-0.59,-1.415
2021-08-19 15:20:00.300,-0.645,-1.405
2021-08-19 15:20:00.304,-0.71,-1.37
2021-08-19 15:20:00.308,-0.67,-1.335
2021-08-19 15:20:00.312,-0.69,-1.37
2021-08-19 15:20:00.316,-0.78,-1.39
2021-08-19 15:20:00.320,-0.815,-1.42
2021-08-19 15:20:00.324,-0.755,-1.42
2021-08-19 15:20:00.328,-0.65,-1.43
2021-08-19 15:20:00.332,-0.59,-1.41
2021-08-19 15:20:00.336,-0.66,-1.425
2021-08-19 15:20:00.340,-0.725,-1.42
2021-08-19 15:20:00.344,-0.75,-1.42
2021-08-19 15:20:00.348,-0.65,-1.445
2021-08-19 15:20:00.352,-0.675,-1.41
2021-08-19 15:20:00.356,-0.885,-1.41
2021-08-19 15:20:00.360,-0.96,-1.385
2021-08-19 15:20:00.364,-0.87,-1.405
2021-08-19 15:20:00.368,-0.78,-1.455
2021-08-19 15:20:00.372,-0.8,-1.425
2021-08-19 15:20:00.376,-0.81,-1.41
2021-08-19 15:20:00.380,-0.855,-1.375
2021-08-19 15:20:00.384,-0.865,-1.395
2021-08-19 15:20:00.388,-0.845,-1.38
2021-08-19 15:20:00.392,-0.785,-1.395
2021-08-19 15:20:00.396,-0.745,-1.365
2021-08-19 15:20:00.400,-0.765,-1.385
2021-08-19 15:20:00.404,-0.745,-1.39
2021-08-19 15:20:00.408,-0.66,-1.385
2021-08-19 15:20:00.412,-0.7,-1.41
2021-08-19 15:20:00.416,-0.75,-1.395
2021-08-19 15:20:00.420,-0.75,-1.37
2021-08-19 15:20:00.424,-0.755,-1.41
2021-08-19 15:20:00.428,-0.81,-1.44
2021-08-19 15:20:00.432,-0.915,-1.46
2021-08-19 15:20:00.436,-0.94,-1.455
2021-08-19 15:20:00.440,-0.885,-1.46
2021-08-19 15:20:00.444,-0.795,-1.44
2021-08-19 15:20:00.448,-0.815,-1.46
2021-08-19 15:20:00.452,-0.87,-1.45
2021-08-19 15:20:00.456,-0.915,-1.475
2021-08-19 15:20:00.460,-0.94,-1.5
2021-08-19 15:20:00.464,-0.925,-1.525
2021-08-19 15:20:00.468,-0.91,-1.5
2021-08-19 15:20:00.472,-0.9,-1.5
2021-08-19 15:20:00.476,-0.84,-1.475
2021-08-19 15:20:00.480,-0.765,-1.48
2021-08-19 15:20:00.484,-0.675,-1.47
2021-08-19 15:20:00.488,-0.795,-1.485
2021-08-19 15:20:00.492,-1.06,-1.5
2021-08-19 15:20:00.496,-1.08,-1.49
2021-08-19 15:20:00.500,-0.87,-1.515
2021-08-19 15:20:00.504,-0.75,-1.54
2021-08-19 15:20:00.508,-0.845,-1.525
2021-08-19 15:20:00.512,-0.995,-1.475
2021-08-19 15:20:00.516,-0.995,-1.5
2021-08-19 15:20:00.520,-1.0,-1.52
2021-08-19 15:20:00.524,-1.05,-1.55
2021-08-19 15:20:00.528,-1.06,-1.54
2021-08-19 15:20:00.532,-0.985,-1.505
2021-08-19 15:20:00.536,-0.91,-1.51
2021-08-19 15:20:00.540,-0.96,-1.495
2021-08-19 15:20:00.544,-1.055,-1.515
2021-08-19 15:20:00.548,-1.175,-1.495
2021-08-19 15:20:00.552,-1.17,-1.53
2021-08-19 15:20:00.556,-1.09,-1.53
2021-08-19 15:20:00.560,-0.98,-1.54
2021-08-19 15:20:00.564,-0.945,-1.485
2021-08-19 15:20:00.568,-0.935,-1.455
2021-08-19 15:20:00.572,-0.85,-1.435
2021-08-19 15:20:00.576,-0.67,-1.43
2021-08-19 15:20:00.580,-0.375,-1.435
2021-08-19 15:20:00.584,-0.185,-1.42
2021-08-19 15:20:00.588,-0.2,-1.385
2021-08-19 15:20:00.592,-0.33,-1.375
2021-08-19 15:20:00.596,-0.555,-1.365
2021-08-19 15:20:00.600,-0.825,-1.37
2021-08-19 15:20:00.604,-0.99,-1.39
2021-08-19 15:20:00.608,-1.065,-1.375
2021-08-19 15:20:00.612,-1.145,-1.38
2021-08-19 15:20:00.616,-1.16,-1.35
2021-08-19 15:20:00.620,-1.14,-1.27
2021-08-19 15:20:00.624,-1.23,-1.165
2021-08-19 15:20:00.628,-1.375,-1.005
2021-08-19 15:20:00.632,-1.54,-0.875
2021-08-19 15:20:00.636,-1.53,-0.78
2021-08-19 15:20:00.640,-1.415,-0.825
2021-08-19 15:20:00.644,-1.3,-0.9
2021-08-19 15:20:00.648,-1.21,-0.98
2021-08-19 15:20:00.652,-1.19,-0.97
2021-08-19 15:20:00.656,-1.205,-0.99
2021-08-19 15:20:00.660,-1.235,-1.095
2021-08-19 15:20:00.664,-1.245,-1.22
2021-08-19 15:20:00.668,-1.25,-1.335
2021-08-19 15:20:00.672,-1.135,-1.445
2021-08-19 15:20:00.676,-1.02,-1.515
2021-08-19 15:20:00.680,-1.025,-1.545
2021-08-19 15:20:00.684,-1.225,-1.58
2021-08-19 15:20:00.688,-1.27,-1.56
2021-08-19 15:20:00.692,-1.22,-1.6
2021-08-19 15:20:00.696,-1.145,-1.63
2021-08-19 15:20:00.700,-1.12,-1.645
2021-08-19 15:20:00.704,-1.21,-1.645
2021-08-19 15:20:00.708,-1.245,-1.6
2021-08-19 15:20:00.712,-1.205,-1.59
2021-08-19 15:20:00.716,-1.15,-1.615
2021-08-19 15:20:00.720,-1.11,-1.61
2021-08-19 15:20:00.724,-1.065,-1.58
2021-08-19 15:20:00.728,-1.055,-1.57
2021-08-19 15:20:00.732,-1.135,-1.59
2021-08-19 15:20:00.736,-1.205,-1.635
2021-08-19 15:20:00.740,-1.205,-1.64
2021-08-19 15:20:00.744,-1.2,-1.65
2021-08-19 15:20:00.748,-1.185,-1.645
2021-08-19 15:20:00.752,-1.13,-1.63
2021-08-19 15:20:00.756,-1.17,-1.62
2021-08-19 15:20:00.760,-1.19,-1.625
2021-08-19 15:20:00.764,-1.21,-1.62
2021-08-19 15:20:00.768,-1.24,-1.65
2021-08-19 15:20:00.772,-1.295,-1.675
2021-08-19 15:20:00.776,-1.29,-1.66
2021-08-19 15:20:00.780,-1.24,-1.655
2021-08-19 15:20:00.784,-1.15,-1.62
2021-08-19 15:20:00.788,-1.13,-1.615
2021-08-19 15:20:00.792,-1.185,-1.645
2021-08-19 15:20:00.796,-1.18,-1.645
2021-08-19 15:20:00.800,-1.145,-1.65
2021-08-19 15:20:00.804,-1.145,-1.67
2021-08-19 15:20:00.808,-1.205,-1.695
2021-08-19 15:20:00.812,-1.255,-1.705
2021-08-19 15:20:00.816,-1.265,-1.73
2021-08-19 15:20:00.820,-1.285,-1.775
2021-08-19 15:20:00.824,-1.27,-1.805
2021-08-19 15:20:00.828,-1.215,-1.8
2021-08-19 15:20:00.832,-1.185,-1.785
2021-08-19 15:20:00.836,-1.16,-1.79
2021-08-19 15:20:00.840,-1.21,-1.8
2021-08-19 15:20:00.844,-1.245,-1.81
2021-08-19 15:20:00.848,-1.255,-1.845
2021-08-19 15:20:00.852,-1.24,-1.845
2021-08-19 15:20:00.856,-1.25,-1.845
2021-08-19 15:20:00.860,-1.245,-1.82
2021-08-19 15:20:00.864,-1.18,-1.8
2021-08-19 15:20:00.868,-1.16,-1.835
2021-08-19 15:20:00.872,-1.21,-1.8
2021-08-19 15:20:00.876,-1.265,-1.805
2021-08-19 15:20:00.880,-1.275,-1.835
2021-08-19 15:20:00.884,-1.23,-1.82
2021-08-19 15:20:00.888,-1.15,-1.815
2021-08-19 15:20:00.892,-1.195,-1.77
2021-08-19 15:20:00.896,-1.3,-1.72
2021-08-19 15:20:00.900,-1.365,-1.735
2021-08-19 15:20:00.904,-1.4,-1.765
2021-08-19 15:20:00.908,-1.385,-1.72
2021-08-19 15:20:00.912,-1.335,-1.715
2021-08-19 15:20:00.916,-1.27,-1.665
2021-08-19 15:20:00.920,-1.26,-1.675
2021-08-19 15:20:00.924,-1.265,-1.65
2021-08-19 15:20:00.928,-1.265,-1.62
2021-08-19 15:20:00.932,-1.25,-1.625
2021-08-19 15:20:00.936,-1.25,-1.615
2021-08-19 15:20:00.940,-1.235,-1.62
2021-08-19 15:20:00.944,-1.165,-1.585
2021-08-19 15:20:00.948,-1.125,-1.59
2021-08-19 15:20:00.952,-1.14,-1.55
2021-08-19 15:20:00.956,-1.21,-1.56
2021-08-19 15:20:00.960,-1.245,-1.58
2021-08-19 15:20:00.964,-1.25,-1.575
2021-08-19 15:20:00.968,-1.225,-1.56
2021-08-19 15:20:00.972,-1.19,-1.57
2021-08-19 15:20:00.976,-1.155,-1.57
2021-08-19 15:20:00.980,-1.11,-1.535
2021-08-19 15:20:00.984,-1.13,-1.535
2021-08-19 15:20:00.988,-1.155,-1.535
2021-08-19 15:20:00.992,-1.16,-1.525
2021-08-19 15:20:00.996,-1.23,-1.54
2021-08-19 15:20:01.000,-1.235,-1.53
2021-08-19 15:20:01.004,-1.19,-1.535
2021-08-19 15:20:01.008,-1.19,-1.52
2021-08-19 15:20:01.012,-1.215,-1.47
2021-08-19 15:20:01.016,-1.21,-1.465
2021-08-19 15:20:01.020,-1.175,-1.46
2021-08-19 15:20:01.024,-1.12,-1.49
2021-08-19 15:20:01.028,-1.105,-1.515
2021-08-19 15:20:01.032,-1.13,-1.57
2021-08-19 15:20:01.036,-1.16,-1.575
2021-08-19 15:20:01.040,-1.14,-1.56
2021-08-19 15:20:01.044,-1.16,-1.58
2021-08-19 15:20:01.048,-1.21,-1.615
2021-08-19 15:20:01.052,-1.235,-1.62
2021-08-19 15:20:01.056,-1.24,-1.63
2021-08-19 15:20:01.060,-1.23,-1.6
2021-08-19 15:20:01.064,-1.245,-1.62
2021-08-19 15:20:01.068,-1.25,-1.595
2021-08-19 15:20:01.072,-1.25,-1.58
2021-08-19 15:20:01.076,-1.265,-1.59
2021-08-19 15:20:01.080,-1.295,-1.62
2021-08-19 15:20:01.084,-1.305,-1.61
2021-08-19 15:20:01.088,-1.29,-1.615
2021-08-19 15:20:01.092,-1.25,-1.62
2021-08-19 15:20:01.096,-1.275,-1.62
2021-08-19 15:20:01.100,-1.325,-1.63
2021-08-19 15:20:01.104,-1.325,-1.595
2021-08-19 15:20:01.108,-1.305,-1.605
2021-08-19 15:20:01.112,-1.25,-1.61
2021-08-19 15:20:01.116,-1.2,-1.6
2021-08-19 15:20:01.120,-1.18,-1.595
2021-08-19 15:20:01.124,-1.2,-1.585
2021-08-19 15:20:01.128,-1.21,-1.59
2021-08-19 15:20:01.132,-1.2,-1.585
2021-08-19 15:20:01.136,-1.185,-1.595
2021-08-19 15:20:01.140,-1.16,-1.575
2021-08-19 15:20:01.144,-1.225,-1.54
2021-08-19 15:20:01.148,-1.28,-1.555
2021-08-19 15:20:01.152,-1.315,-1.575
2021-08-19 15:20:01.156,-1.275,-1.585
2021-08-19 15:20:01.160,-1.27,-1.54
2021-08-19 15:20:01.164,-1.21,-1.535
2021-08-19 15:20:01.168,-1.185,-1.49
2021-08-19 15:20:01.172,-1.21,-1.485
2021-08-19 15:20:01.176,-1.295,-1.485
2021-08-19 15:20:01.180,-1.305,-1.51
2021-08-19 15:20:01.184,-1.285,-1.49
2021-08-19 15:20:01.188,-1.245,-1.485
2021-08-19 15:20:01.192,-1.225,-1.48
2021-08-19 15:20:01.196,-1.215,-1.45
2021-08-19 15:20:01.200,-1.205,-1.46
2021-08-19 15:20:01.204,-1.195,-1.44
2021-08-19 15:20:01.208,-1.215,-1.45
2021-08-19 15:20:01.212,-1.195,-1.435
2021-08-19 15:20:01.216,-1.18,-1.41
2021-08-19 15:20:01.220,-1.16,-1.435
2021-08-19 15:20:01.224,-1.145,-1.435
2021-08-19 15:20:01.228,-1.125,-1.435
2021-08-19 15:20:01.232,-1.125,-1.405
2021-08-19 15:20:01.236,-1.14,-1.43
2021-08-19 15:20:01.240,-1.125,-1.425
2021-08-19 15:20:01.244,-1.09,-1.425
2021-08-19 15:20:01.248,-1.065,-1.445
2021-08-19 15:20:01.252,-1.06,-1.435
2021-08-19 15:20:01.256,-1.13,-1.435
2021-08-19 15:20:01.260,-1.19,-1.44
2021-08-19 15:20:01.264,-1.2,-1.455
2021-08-19 15:20:01.268,-1.135,-1.48
2021-08-19 15:20:01.272,-1.125,-1.465
2021-08-19 15:20:01.276,-1.12,-1.43
2021-08-19 15:20:01.280,-1.195,-1.44
2021-08-19 15:20:01.284,-1.195,-1.435
2021-08-19 15:20:01.288,-1.195,-1.44
2021-08-19 15:20:01.292,-1.15,-1.445
2021-08-19 15:20:01.296,-1.17,-1.41
2021-08-19 15:20:01.300,-1.18,-1.425
2021-08-19 15:20:01.304,-1.215,-1.41
2021-08-19 15:20:01.308,-1.225,-1.43
2021-08-19 15:20:01.312,-1.175,-1.42
2021-08-19 15:20:01.316,-1.085,-1.43
2021-08-19 15:20:01.320,-0.925,-1.405
2021-08-19 15:20:01.324,-0.695,-1.35
2021-08-19 15:20:01.328,-0.47,-1.29
2021-08-19 15:20:01.332,-0.36,-1.25
2021-08-19 15:20:01.336,-0.435,-1.275
2021-08-19 15:20:01.340,-0.655,-1.28
2021-08-19 15:20:01.344,-0.935,-1.265
2021-08-19 15:20:01.348,-1.095,-1.27
2021-08-19 15:20:01.352,-1.155,-1.28
2021-08-19 15:20:01.356,-1.19,-1.205
2021-08-19 15:20:01.360,-1.175,-1.11
2021-08-19 15:20:01.364,-1.135,-1.025
2021-08-19 15:20:01.368,-1.17,-0.88
2021-08-19 15:20:01.372,-1.325,-0.725
2021-08-19 15:20:01.376,-1.5,-0.58
2021-08-19 15:20:01.380,-1.535,-0.475
2021-08-19 15:20:01.384,-1.47,-0.52
2021-08-19 15:20:01.388,-1.29,-0.59
2021-08-19 15:20:01.392,-1.205,-0.67
2021-08-19 15:20:01.396,-1.145,-0.685
2021-08-19 15:20:01.400,-1.115,-0.7
2021-08-19 15:20:01.404,-1.095,-0.79
2021-08-19 15:20:01.408,-1.07,-0.9
2021-08-19 15:20:01.412,-1.065,-1.04
2021-08-19 15:20:01.416,-1.06,-1.11
2021-08-19 15:20:01.420,-1.055,-1.12
2021-08-19 15:20:01.424,-1.025,-1.14
2021-08-19 15:20:01.428,-1.005,-1.17
2021-08-19 15:20:01.432,-0.995,-1.18
2021-08-19 15:20:01.436,-0.96,-1.22
2021-08-19 15:20:01.440,-0.935,-1.205
2021-08-19 15:20:01.444,-0.92,-1.2
2021-08-19 15:20:01.448,-0.895,-1.25
2021-08-19 15:20:01.452,-0.92,-1.275
2021-08-19 15:20:01.456,-0.935,-1.305
2021-08-19 15:20:01.460,-0.96,-1.31
2021-08-19 15:20:01.464,-0.96,-1.305
2021-08-19 15:20:01.468,-1.0,-1.315
2021-08-19 15:20:01.472,-1.01,-1.325
2021-08-19 15:20:01.476,-1.0,-1.325
2021-08-19 15:20:01.480,-0.955,-1.34
2021-08-19 15:20:01.484,-0.92,-1.345
2021-08-19 15:20:01.488,-0.915,-1.335
2021-08-19 15:20:01.492,-0.93,-1.345
2021-08-19 15:20:01.496,-0.92,-1.34
2021-08-19 15:20:01.500,-0.94,-1.31
2021-08-19 15:20:01.504,-0.91,-1.31
2021-08-19 15:20:01.508,-0.94,-1.32
2021-08-19 15:20:01.512,-1.02,-1.32
2021-08-19 15:20:01.516,-1.07,-1.33
2021-08-19 15:20:01.520,-1.055,-1.345
2021-08-19 15:20:01.524,-0.99,-1.3
2021-08-19 15:20:01.528,-0.97,-1.325
2021-08-19 15:20:01.532,-0.95,-1.29
2021-08-19 15:20:01.536,-0.93,-1.26
2021-08-19 15:20:01.540,-0.94,-1.255
2021-08-19 15:20:01.544,-0.94,-1.28
2021-08-19 15:20:01.548,-0.94,-1.29
2021-08-19 15:20:01.552,-0.915,-1.29
2021-08-19 15:20:01.556,-0.91,-1.27
2021-08-19 15:20:01.560,-0.915,-1.275
2021-08-19 15:20:01.564,-0.9,-1.275
2021-08-19 15:20:01.568,-0.895,-1.28
2021-08-19 15:20:01.572,-0.905,-1.275
2021-08-19 15:20:01.576,-0.905,-1.265
2021-08-19 15:20:01.580,-0.885,-1.295
2021-08-19 15:20:01.584,-0.885,-1.275
2021-08-19 15:20:01.588,-0.86,-1.26
2021-08-19 15:20:01.592,-0.85,-1.275
2021-08-19 15:20:01.596,-0.84,-1.28
2021-08-19 15:20:01.600,-0.83,-1.27
2021-08-19 15:20:01.604,-0.825,-1.265
2021-08-19 15:20:01.608,-0.81,-1.235
2021-08-19 15:20:01.612,-0.81,-1.255
2021-08-19 15:20:01.616,-0.785,-1.2
2021-08-19 15:20:01.620,-0.75,-1.17
2021-08-19 15:20:01.624,-0.73,-1.155
2021-08-19 15:20:01.628,-0.77,-1.125
2021-08-19 15:20:01.632,-0.835,-1.14
2021-08-19 15:20:01.636,-0.92,-1.155
2021-08-19 15:20:01.640,-0.94,-1.13
2021-08-19 15:20:01.644,-0.92,-1.08
2021-08-19 15:20:01.648,-0.87,-1.065
2021-08-19 15:20:01.652,-0.855,-1.045
2021-08-19 15:20:01.656,-0.85,-1.02
2021-08-19 15:20:01.660,-0.85,-1.0
2021-08-19 15:20:01.664,-0.835,-1.0
2021-08-19 15:20:01.668,-0.85,-1.0
2021-08-19 15:20:01.672,-0.87,-1.025
2021-08-19 15:20:01.676,-0.875,-1.01
2021-08-19 15:20:01.680,-0.86,-1.04
2021-08-19 15:20:01.684,-0.87,-1.05
2021-08-19 15:20:01.688,-0.845,-1.08
2021-08-19 15:20:01.692,-0.835,-1.09
2021-08-19 15:20:01.696,-0.84,-1.085
2021-08-19 15:20:01.700,-0.845,-1.06
2021-08-19 15:20:01.704,-0.825,-1.06
2021-08-19 15:20:01.708,-0.81,-1.05
2021-08-19 15:20:01.712,-0.805,-1.09
2021-08-19 15:20:01.716,-0.8,-1.07
2021-08-19 15:20:01.720,-0.8,-1.055
2021-08-19 15:20:01.724,-0.8,-1.055
2021-08-19 15:20:01.728,-0.8,-1.05
2021-08-19 15:20:01.732,-0.76,-1.025
2021-08-19 15:20:01.736,-0.68,-1.01
2021-08-19 15:20:01.740,-0.55,-1.0
2021-08-19 15:20:01.744,-0.34,-0.99
2021-08-19 15:20:01.748,-0.07,-0.965
2021-08-19 15:20:01.752,0.16,-0.94
2021-08-19 15:20:01.756,0.19,-0.9
2021-08-19 15:20:01.760,-0.01,-0.845
2021-08-19 15:20:01.764,-0.39,-0.835
2021-08-19 15:20:01.768,-0.67,-0.86
2021-08-19 15:20:01.772,-0.795,-0.86
2021-08-19 15:20:01.776,-0.885,-0.85
2021-08-19 15:20:01.780,-0.98,-0.76
2021-08-19 15:20:01.784,-1.09,-0.65
2021-08-19 15:20:01.788,-1.135,-0.465
2021-08-19 15:20:01.792,-1.14,-0.31
2021-08-19 15:20:01.796,-1.185,-0.2
2021-08-19 15:20:01.800,-1.205,-0.16
2021-08-19 15:20:01.804,-1.145,-0.205
2021-08-19 15:20:01.808,-1.03,-0.34
2021-08-19 15:20:01.812,-0.935,-0.39
2021-08-19 15:20:01.816,-0.845,-0.365
2021-08-19 15:20:01.820,-0.795,-0.42
2021-08-19 15:20:01.824,-0.75,-0.52
2021-08-19 15:20:01.828,-0.755,-0.64
2021-08-19 15:20:01.832,-0.73,-0.695
2021-08-19 15:20:01.836,-0.705,-0.77
2021-08-19 15:20:01.840,-0.685,-0.795
2021-08-19 15:20:01.844,-0.635,-0.82
2021-08-19 15:20:01.848,-0.665,-0.83
2021-08-19 15:20:01.852,-0.705,-0.845
2021-08-19 15:20:01.856,-0.8,-0.895
2021-08-19 15:20:01.860,-0.895,-0.905
2021-08-19 15:20:01.864,-0.87,-0.93
2021-08-19 15:20:01.868,-0.79,-0.94
2021-08-19 15:20:01.872,-0.745,-0.945
2021-08-19 15:20:01.876,-0.74,-0.945
2021-08-19 15:20:01.880,-0.76,-0.97
2021-08-19 15:20:01.884,-0.74,-0.96
2021-08-19 15:20:01.888,-0.745,-0.95
2021-08-19 15:20:01.892,-0.755,-0.965
2021-08-19 15:20:01.896,-0.71,-0.97
2021-08-19 15:20:01.900,-0.655,-0.985
2021-08-19 15:20:01.904,-0.655,-0.99
2021-08-19 15:20:01.908,-0.685,-0.975
2021-08-19 15:20:01.912,-0.64,-1.005
2021-08-19 15:20:01.916,-0.55,-1.035
2021-08-19 15:20:01.920,-0.545,-1.05
2021-08-19 15:20:01.924,-0.565,-1.05
2021-08-19 15:20:01.928,-0.61,-1.075
2021-08-19 15:20:01.932,-0.61,-1.1
2021-08-19 15:20:01.936,-0.595,-1.12
2021-08-19 15:20:01.940,-0.55,-1.135
2021-08-19 15:20:01.944,-0.515,-1.16
2021-08-19 15:20:01.948,-0.515,-1.19
2021-08-19 15:20:01.952,-0.475,-1.19
2021-08-19 15:20:01.956,-0.48,-1.21
2021-08-19 15:20:01.960,-0.495,-1.23
2021-08-19 15:20:01.964,-0.44,-1.31
2021-08-19 15:20:01.968,-0.38,-1.37
2021-08-19 15:20:01.972,-0.33,-1.435
2021-08-19 15:20:01.976,-0.29,-1.495
2021-08-19 15:20:01.980,-0.27,-1.495
2021-08-19 15:20:01.984,-0.26,-1.425
2021-08-19 15:20:01.988,-0.25,-1.265
2021-08-19 15:20:01.992,-0.26,-1.05
2021-08-19 15:20:01.996,-0.31,-0.76
2021-08-19 15:20:02.000,-0.4,-0.44
2021-08-19 15:20:02.004,-0.485,-0.175
2021-08-19 15:20:02.008,-0.495,0.125
2021-08-19 15:20:02.012,-0.445,0.35
2021-08-19 15:20:02.016,-0.425,0.6
2021-08-19 15:20:02.020,-0.415,0.79
2021-08-19 15:20:02.024,-0.465,0.91
2021-08-19 15:20:02.028,-0.475,1.105
2021-08-19 15:20:02.032,-0.46,1.23
2021-08-19 15:20:02.036,-0.41,1.315
2021-08-19 15:20:02.040,-0.41,1.405
2021-08-19 15:20:02.044,-0.37,1.465
2021-08-19 15:20:02.048,-0.325,1.525
2021-08-19 15:20:02.052,-0.34,1.585
2021-08-19 15:20:02.056,-0.39,1.6
2021-08-19 15:20:02.060,-0.415,1.605
2021-08-19 15:20:02.064,-0.39,1.59
2021-08-19 15:20:02.068,-0.36,1.595
2021-08-19 15:20:02.072,-0.295,1.625
2021-08-19 15:20:02.076,-0.26,1.64
2021-08-19 15:20:02.080,-0.31,1.68
2021-08-19 15:20:02.084,-0.365,1.69
2021-08-19 15:20:02.088,-0.375,1.7
2021-08-19 15:20:02.092,-0.41,1.685
2021-08-19 15:20:02.096,-0.45,1.67
2021-08-19 15:20:02.100,-0.455,1.695
2021-08-19 15:20:02.104,-0.495,1.71
2021-08-19 15:20:02.108,-0.46,1.71
2021-08-19 15:20:02.112,-0.435,1.73
2021-08-19 15:20:02.116,-0.39,1.75
2021-08-19 15:20:02.120,-0.39,1.715
2021-08-19 15:20:02.124,-0.365,1.72
2021-08-19 15:20:02.128,-0.395,1.74
2021-08-19 15:20:02.132,-0.4,1.745
2021-08-19 15:20:02.136,-0.42,1.74
2021-08-19 15:20:02.140,-0.36,1.76
2021-08-19 15:20:02.144,-0.345,1.755
2021-08-19 15:20:02.148,-0.345,1.76
2021-08-19 15:20:02.152,-0.355,1.775
2021-08-19 15:20:02.156,-0.355,1.76
2021-08-19 15:20:02.160,-0.42,1.765
2021-08-19 15:20:02.164,-0.475,1.775
2021-08-19 15:20:02.168,-0.45,1.755
2021-08-19 15:20:02.172,-0.42,1.745
2021-08-19 15:20:02.176,-0.375,1.75
2021-08-19 15:20:02.180,-0.35,1.775
2021-08-19 15:20:02.184,-0.375,1.785
2021-08-19 15:20:02.188,-0.395,1.775
2021-08-19 15:20:02.192,-0.38,1.76
2021-08-19 15:20:02.196,-0.305,1.755
2021-08-19 15:20:02.200,-0.155,1.8
2021-08-19 15:20:02.204,0.045,1.83
2021-08-19 15:20:02.208,0.245,1.86
2021-08-19 15:20:02.212,0.415,1.895
2021-08-19 15:20:02.216,0.4,1.92
2021-08-19 15:20:02.220,0.165,1.95
2021-08-19 15:20:02.224,-0.115,1.96
2021-08-19 15:20:02.228,-0.31,1.955
2021-08-19 15:20:02.232,-0.41,1.955
2021-08-19 15:20:02.296,0.34,1.97
2021-08-19 15:20:02.300,0.34,1.92
2021-08-19 15:20:02.304,0.405,1.875
2021-08-19 15:20:02.308,0.44,1.82
2021-08-19 15:20:02.312,0.38,1.76
2021-08-19 15:20:02.316,0.24,1.73
2021-08-19 15:20:02.320,0.18,1.7
2021-08-19 15:20:02.324,0.185,1.63
2021-08-19 15:20:02.328,0.225,1.61
2021-08-19 15:20:02.332,0.3,1.595
2021-08-19 15:20:02.336,0.33,1.605
2021-08-19 15:20:02.340,0.325,1.615
2021-08-19 15:20:02.344,0.3,1.595
2021-08-19 15:20:02.348,0.28,1.55
2021-08-19 15:20:02.352,0.325,1.505
2021-08-19 15:20:02.356,0.335,1.48
2021-08-19 15:20:02.360,0.34,1.47
2021-08-19 15:20:02.364,0.335,1.475
2021-08-19 15:20:02.368,0.355,1.435
2021-08-19 15:20:02.372,0.375,1.31
2021-08-19 15:20:02.376,0.39,0.995
2021-08-19 15:20:02.380,0.45,0.67
2021-08-19 15:20:02.384,0.47,0.475
2021-08-19 15:20:02.388,0.45,0.34
2021-08-19 15:20:02.392,0.38,0.24
2021-08-19 15:20:02.396,0.36,0.165
2021-08-19 15:20:02.400,0.36,0.06
2021-08-19 15:20:02.404,0.385,0.0
2021-08-19 15:20:02.408,0.44,-0.1
2021-08-19 15:20:02.412,0.45,-0.235
2021-08-19 15:20:02.416,0.495,-0.35
2021-08-19 15:20:02.420,0.48,-0.435
2021-08-19 15:20:02.424,0.45,-0.51
2021-08-19 15:20:02.428,0.41,-0.54
2021-08-19 15:20:02.432,0.445,-0.6
2021-08-19 15:20:02.436,0.505,-0.635
2021-08-19 15:20:02.440,0.51,-0.665
2021-08-19 15:20:02.444,0.465,-0.695
2021-08-19 15:20:02.448,0.41,-0.67
2021-08-19 15:20:02.452,0.41,-0.69
2021-08-19 15:20:02.456,0.39,-0.735
2021-08-19 15:20:02.460,0.37,-0.755
2021-08-19 15:20:02.464,0.39,-0.84
2021-08-19 15:20:02.468,0.395,-0.84
2021-08-19 15:20:02.472,0.37,-0.865
2021-08-19 15:20:02.476,0.39,-0.85
2021-08-19 15:20:02.480,0.44,-0.83
2021-08-19 15:20:02.484,0.385,-0.83
2021-08-19 15:20:02.488,0.335,-0.845
2021-08-19 15:20:02.492,0.325,-0.805
2021-08-19 15:20:02.496,0.35,-0.76
2021-08-19 15:20:02.500,0.32,-0.75
2021-08-19 15:20:02.504,0.3,-0.74
2021-08-19 15:20:02.508,0.34,-0.715
2021-08-19 15:20:02.512,0.405,-0.685
2021-08-19 15:20:02.516,0.42,-0.68
2021-08-19 15:20:02.520,0.36,-0.64
2021-08-19 15:20:02.524,0.32,-0.635
2021-08-19 15:20:02.528,0.285,-0.62
2021-08-19 15:20:02.532,0.29,-0.62
2021-08-19 15:20:02.536,0.285,-0.625
2021-08-19 15:20:02.540,0.275,-0.61
2021-08-19 15:20:02.544,0.25,-0.615
2021-08-19 15:20:02.548,0.25,-0.69
2021-08-19 15:20:02.552,0.26,-0.74
2021-08-19 15:20:02.556,0.235,-0.76
2021-08-19 15:20:02.560,0.245,-0.755
2021-08-19 15:20:02.564,0.275,-0.805
2021-08-19 15:20:02.568,0.275,-0.8
2021-08-19 15:20:02.572,0.25,-0.81
2021-08-19 15:20:02.576,0.23,-0.825
2021-08-19 15:20:02.580,0.24,-0.805
2021-08-19 15:20:02.584,0.28,-0.82
2021-08-19 15:20:02.588,0.3,-0.815
2021-08-19 15:20:02.592,0.32,-0.835
2021-08-19 15:20:02.596,0.295,-0.85
2021-08-19 15:20:02.600,0.245,-0.86
2021-08-19 15:20:02.604,0.21,-0.875
2021-08-19 15:20:02.608,0.23,-0.865
2021-08-19 15:20:02.612,0.22,-0.835
2021-08-19 15:20:02.616,0.215,-0.815
2021-08-19 15:20:02.620,0.225,-0.855
2021-08-19 15:20:02.624,0.275,-0.88
2021-08-19 15:20:02.628,0.255,-0.875
2021-08-19 15:20:02.632,0.26,-0.87
2021-08-19 15:20:02.636,0.255,-0.88
2021-08-19 15:20:02.640,0.265,-0.88
2021-08-19 15:20:02.644,0.3,-0.89
2021-08-19 15:20:02.648,0.305,-0.905
2021-08-19 15:20:02.652,0.3,-0.895
2021-08-19 15:20:02.656,0.23,-0.905
2021-08-19 15:20:02.660,0.235,-0.9
2021-08-19 15:20:02.664,0.275,-0.915
2021-08-19 15:20:02.668,0.255,-0.915
2021-08-19 15:20:02.672,0.22,-0.895
2021-08-19 15:20:02.676,0.225,-0.905
2021-08-19 15:20:02.680,0.245,-0.93
2021-08-19 15:20:02.684,0.28,-0.9
2021-08-19 15:20:02.688,0.28,-0.885
2021-08-19 15:20:02.692,0.27,-0.9
2021-08-19 15:20:02.696,0.335,-0.875
2021-08-19 15:20:02.700,0.495,-0.85
2021-08-19 15:20:02.704,0.72,-0.81
2021-08-19 15:20:02.708,0.92,-0.79
2021-08-19 15:20:02.712,1.04,-0.725
2021-08-19 15:20:02.716,1.035,-0.69
2021-08-19 15:20:02.720,0.81,-0.69
2021-08-19 15:20:02.724,0.5,-0.67
2021-08-19 15:20:02.728,0.255,-0.67
2021-08-19 15:20:02.732,0.115,-0.675
2021-08-19 15:20:02.736,0.04,-0.615
2021-08-19 15:20:02.740,0.02,-0.515
2021-08-19 15:20:02.744,0.0,-0.405
2021-08-19 15:20:02.748,-0.005,-0.265
2021-08-19 15:20:02.752,-0.03,-0.01
2021-08-19 15:20:02.756,-0.08,0.21
2021-08-19 15:20:02.760,-0.075,0.305
2021-08-19 15:20:02.764,-0.02,0.295
2021-08-19 15:20:02.768,0.11,0.16
2021-08-19 15:20:02.772,0.205,0.045
2021-08-19 15:20:02.776,0.25,-0.015
2021-08-19 15:20:02.780,0.27,-0.1
2021-08-19 15:20:02.784,0.295,-0.285
2021-08-19 15:20:02.788,0.34,-0.475
2021-08-19 15:20:02.792,0.345,-0.63
2021-08-19 15:20:02.796,0.325,-0.735
2021-08-19 15:20:02.800,0.29,-0.78
2021-08-19 15:20:02.804,0.3,-0.805
2021-08-19 15:20:02.808,0.4,-0.84
2021-08-19 15:20:02.812,0.405,-0.89
2021-08-19 15:20:02.816,0.275,-0.935
2021-08-19 15:20:02.820,0.19,-0.93
2021-08-19 15:20:02.824,0.235,-0.94
2021-08-19 15:20:02.828,0.325,-0.945
2021-08-19 15:20:02.832,0.38,-0.9
2021-08-19 15:20:02.836,0.36,-0.92
2021-08-19 15:20:02.840,0.31,-0.905
2021-08-19 15:20:02.844,0.27,-0.95
2021-08-19 15:20:02.848,0.29,-0.935
2021-08-19 15:20:02.852,0.305,-0.935
2021-08-19 15:20:02.856,0.345,-0.93
2021-08-19 15:20:02.860,0.35,-0.945
2021-08-19 15:20:02.864,0.375,-0.915
2021-08-19 15:20:02.868,0.385,-0.92
2021-08-19 15:20:02.872,0.425,-0.915
2021-08-19 15:20:02.876,0.42,-0.905
2021-08-19 15:20:02.880,0.445,-0.9
2021-08-19 15:20:02.884,0.44,-0.925
2021-08-19 15:20:02.888,0.44,-0.89
2021-08-19 15:20:02.892,0.42,-0.9
2021-08-19 15:20:02.896,0.415,-0.97
2021-08-19 15:20:02.900,0.43,-0.98
2021-08-19 15:20:02.904,0.475,-0.97
2021-08-19 15:20:02.908,0.465,-0.94
2021-08-19 15:20:02.912,0.46,-0.94
2021-08-19 15:20:02.916,0.47,-0.95
2021-08-19 15:20:02.920,0.47,-0.955
2021-08-19 15:20:02.924,0.445,-0.96
2021-08-19 15:20:02.928,0.43,-0.965
2021-08-19 15:20:02.932,0.46,-0.945
2021-08-19 15:20:02.936,0.485,-0.995
2021-08-19 15:20:02.940,0.48,-1.03
2021-08-19 15:20:02.944,0.485,-1.025
2021-08-19 15:20:02.948,0.5,-1.015
2021-08-19 15:20:02.952,0.545,-1.04
2021-08-19 15:20:02.956,0.555,-1.02
2021-08-19 15:20:02.960,0.555,-1.03
2021-08-19 15:20:02.964,0.52,-1.03
2021-08-19 15:20:02.968,0.51,-1.03
2021-08-19 15:20:02.972,0.49,-1.03
2021-08-19 15:20:02.976,0.535,-1.0
2021-08-19 15:20:02.980,0.495,-0.97
2021-08-19 15:20:02.984,0.33,-0.955
2021-08-19 15:20:02.988,0.24,-0.92
2021-08-19 15:20:02.992,0.255,-0.925
2021-08-19 15:20:02.996,0.285,-0.895
2021-08-19 15:20:03.000,0.295,-0.88
2021-08-19 15:20:03.004,0.275,-0.8
2021-08-19 15:20:03.008,0.265,-0.765
2021-08-19 15:20:03.012,0.275,-0.75
2021-08-19 15:20:03.016,0.28,-0.695
2021-08-19 15:20:03.020,0.275,-0.675
2021-08-19 15:20:03.024,0.27,-0.68
2021-08-19 15:20:03.028,0.29,-0.64
2021-08-19 15:20:03.032,0.32,-0.65
2021-08-19 15:20:03.036,0.33,-0.66
2021-08-19 15:20:03.040,0.3,-0.64
2021-08-19 15:20:03.044,0.35,-0.62
2021-08-19 15:20:03.048,0.36,-0.605
2021-08-19 15:20:03.052,0.35,-0.605
2021-08-19 15:20:03.056,0.29,-0.63
2021-08-19 15:20:03.060,0.265,-0.64
2021-08-19 15:20:03.064,0.265,-0.625
2021-08-19 15:20:03.068,0.3,-0.61
2021-08-19 15:20:03.072,0.34,-0.61
2021-08-19 15:20:03.076,0.39,-0.605
2021-08-19 15:20:03.080,0.395,-0.61
2021-08-19 15:20:03.084,0.325,-0.58
2021-08-19 15:20:03.088,0.265,-0.58
2021-08-19 15:20:03.092,0.245,-0.575
2021-08-19 15:20:03.096,0.28,-0.57
2021-08-19 15:20:03.100,0.31,-0.58
2021-08-19 15:20:03.104,0.32,-0.54
2021-08-19 15:20:03.108,0.335,-0.54
2021-08-19 15:20:03.112,0.345,-0.545
2021-08-19 15:20:03.116,0.36,-0.515
2021-08-19 15:20:03.120,0.37,-0.5
2021-08-19 15:20:03.124,0.375,-0.535
2021-08-19 15:20:03.128,0.37,-0.53
2021-08-19 15:20:03.132,0.41,-0.535
2021-08-19 15:20:03.136,0.455,-0.45
2021-08-19 15:20:03.140,0.485,-0.445
2021-08-19 15:20:03.144,0.475,-0.495
2021-08-19 15:20:03.148,0.455,-0.505
2021-08-19 15:20:03.152,0.43,-0.52
2021-08-19 15:20:03.156,0.37,-0.495
2021-08-19 15:20:03.160,0.37,-0.525
2021-08-19 15:20:03.164,0.38,-0.55
2021-08-19 15:20:03.168,0.36,-0.545
2021-08-19 15:20:03.172,0.34,-0.535
2021-08-19 15:20:03.176,0.32,-0.485
2021-08-19 15:20:03.180,0.285,-0.505
2021-08-19 15:20:03.184,0.27,-0.505
2021-08-19 15:20:03.188,0.375,-0.485
2021-08-19 15:20:03.192,0.605,-0.45
2021-08-19 15:20:03.196,0.84,-0.435
2021-08-19 15:20:03.200,0.99,-0.38
2021-08-19 15:20:03.204,1.05,-0.335
2021-08-19 15:20:03.208,0.95,-0.34
2021-08-19 15:20:03.212,0.68,-0.345
2021-08-19 15:20:03.216,0.375,-0.345
2021-08-19 15:20:03.220,0.2,-0.375
2021-08-19 15:20:03.224,0.085,-0.37
2021-08-19 15:20:03.228,-0.01,-0.26
2021-08-19 15:20:03.232,-0.06,-0.14
2021-08-19 15:20:03.236,-0.095,-0.02
2021-08-19 15:20:03.240,-0.1,0.16
2021-08-19 15:20:03.244,-0.09,0.365
2021-08-19 15:20:03.248,-0.105,0.57
2021-08-19 15:20:03.252,-0.14,0.645
2021-08-19 15:20:03.256,-0.145,0.57
2021-08-19 15:20:03.260,-0.035,0.4
2021-08-19 15:20:03.264,0.115,0.28
2021-08-19 15:20:03.268,0.195,0.21
2021-08-19 15:20:03.272,0.245,0.165
2021-08-19 15:20:03.276,0.235,0.0
2021-08-19 15:20:03.280,0.265,-0.165
2021-08-19 15:20:03.284,0.305,-0.305
2021-08-19 15:20:03.288,0.35,-0.375
2021-08-19 15:20:03.292,0.345,-0.405
2021-08-19 15:20:03.296,0.32,-0.46
2021-08-19 15:20:03.300,0.36,-0.465
2021-08-19 15:20:03.304,0.42,-0.46
2021-08-19 15:20:03.308,0.425,-0.47
2021-08-19 15:20:03.312,0.34,-0.495
2021-08-19 15:20:03.316,0.245,-0.515
2021-08-19 15:20:03.320,0.3,-0.515
2021-08-19 15:20:03.324,0.375,-0.495
2021-08-19 15:20:03.328,0.42,-0.49
2021-08-19 15:20:03.332,0.38,-0.48
2021-08-19 15:20:03.336,0.385,-0.505
2021-08-19 15:20:03.340,0.435,-0.48
2021-08-19 15:20:03.344,0.44,-0.495
2021-08-19 15:20:03.348,0.435,-0.51
2021-08-19 15:20:03.352,0.465,-0.54
2021-08-19 15:20:03.356,0.49,-0.535
2021-08-19 15:20:03.360,0.505,-0.555
2021-08-19 15:20:03.364,0.475,-0.54
2021-08-19 15:20:03.368,0.44,-0.56
2021-08-19 15:20:03.372,0.44,-0.575
2021-08-19 15:20:03.376,0.435,-0.59
2021-08-19 15:20:03.380,0.45,-0.59
2021-08-19 15:20:03.384,0.465,-0.585
2021-08-19 15:20:03.388,0.415,-0.58
2021-08-19 15:20:03.392,0.395,-0.605
2021-08-19 15:20:03.396,0.39,-0.61
2021-08-19 15:20:03.400,0.44,-0.63
2021-08-19 15:20:03.404,0.425,-0.665
2021-08-19 15:20:03.408,0.425,-0.64
2021-08-19 15:20:03.412,0.425,-0.64
2021-08-19 15:20:03.416,0.44,-0.675
2021-08-19 15:20:03.420,0.405,-0.7
2021-08-19 15:20:03.424,0.385,-0.685
2021-08-19 15:20:03.428,0.375,-0.665
2021-08-19 15:20:03.432,0.415,-0.685
2021-08-19 15:20:03.436,0.45,-0.695
2021-08-19 15:20:03.440,0.425,-0.695
2021-08-19 15:20:03.444,0.385,-0.665
2021-08-19 15:20:03.448,0.39,-0.675
2021-08-19 15:20:03.452,0.405,-0.685
2021-08-19 15:20:03.456,0.395,-0.695
2021-08-19 15:20:03.460,0.405,-0.695
2021-08-19 15:20:03.464,0.4,-0.68
2021-08-19 15:20:03.468,0.425,-0.71
2021-08-19 15:20:03.472,0.395,-0.675
2021-08-19 15:20:03.476,0.375,-0.64
2021-08-19 15:20:03.480,0.33,-0.64
2021-08-19 15:20:03.484,0.3,-0.605
2021-08-19 15:20:03.488,0.3,-0.56
2021-08-19 15:20:03.492,0.285,-0.56
2021-08-19 15:20:03.496,0.28,-0.525
2021-08-19 15:20:03.500,0.275,-0.505
2021-08-19 15:20:03.504,0.305,-0.46
2021-08-19 15:20:03.508,0.375,-0.435
2021-08-19 15:20:03.512,0.37,-0.39
2021-08-19 15:20:03.516,0.32,-0.385
2021-08-19 15:20:03.520,0.295,-0.37
2021-08-19 15:20:03.524,0.305,-0.36
2021-08-19 15:20:03.528,0.295,-0.36
2021-08-19 15:20:03.532,0.29,-0.36
2021-08-19 15:20:03.536,0.32,-0.37
2021-08-19 15:20:03.540,0.395,-0.345
2021-08-19 15:20:03.544,0.455,-0.32
2021-08-19 15:20:03.548,0.45,-0.295
2021-08-19 15:20:03.552,0.415,-0.285
2021-08-19 15:20:03.556,0.395,-0.31
2021-08-19 15:20:03.560,0.405,-0.335
2021-08-19 15:20:03.564,0.405,-0.34
2021-08-19 15:20:03.568,0.455,-0.38
2021-08-19 15:20:03.572,0.605,-0.35
2021-08-19 15:20:03.576,0.8,-0.34
2021-08-19 15:20:03.580,1.07,-0.345
2021-08-19 15:20:03.584,1.27,-0.32
2021-08-19 15:20:03.588,1.335,-0.29
2021-08-19 15:20:03.592,1.16,-0.25
2021-08-19 15:20:03.596,0.865,-0.245
2021-08-19 15:20:03.600,0.555,-0.27
2021-08-19 15:20:03.604,0.325,-0.29
2021-08-19 15:20:03.608,0.225,-0.295
2021-08-19 15:20:03.612,0.115,-0.24
2021-08-19 15:20:03.616,-0.015,-0.045
2021-08-19 15:20:03.620,-0.06,0.115
2021-08-19 15:20:03.624,-0.06,0.315
2021-08-19 15:20:03.628,-0.09,0.52
2021-08-19 15:20:03.632,-0.075,0.605
2021-08-19 15:20:03.636,0.015,0.57
2021-08-19 15:20:03.640,0.1,0.45
2021-08-19 15:20:03.644,0.17,0.345
2021-08-19 15:20:03.648,0.22,0.33
2021-08-19 15:20:03.652,0.315,0.265
2021-08-19 15:20:03.656,0.335,0.135
2021-08-19 15:20:03.660,0.225,-0.03
2021-08-19 15:20:03.664,0.14,-0.17
2021-08-19 15:20:03.668,0.18,-0.265
2021-08-19 15:20:03.672,0.225,-0.335
2021-08-19 15:20:03.676,0.285,-0.39
2021-08-19 15:20:03.680,0.31,-0.375
2021-08-19 15:20:03.684,0.34,-0.405
2021-08-19 15:20:03.688,0.38,-0.445
2021-08-19 15:20:03.692,0.41,-0.47
2021-08-19 15:20:03.696,0.455,-0.44
2021-08-19 15:20:03.700,0.445,-0.455
2021-08-19 15:20:03.704,0.405,-0.46
2021-08-19 15:20:03.708,0.405,-0.48
2021-08-19 15:20:03.712,0.425,-0.52
2021-08-19 15:20:03.716,0.395,-0.5
2021-08-19 15:20:03.720,0.345,-0.505
2021-08-19 15:20:03.724,0.34,-0.51
2021-08-19 15:20:03.728,0.39,-0.51
2021-08-19 15:20:03.732,0.36,-0.48
2021-08-19 15:20:03.736,0.335,-0.475
2021-08-19 15:20:03.740,0.305,-0.49
2021-08-19 15:20:03.744,0.355,-0.485
2021-08-19 15:20:03.748,0.375,-0.48
2021-08-19 15:20:03.752,0.39,-0.47
2021-08-19 15:20:03.756,0.41,-0.465
2021-08-19 15:20:03.760,0.44,-0.46
2021-08-19 15:20:03.764,0.47,-0.475
2021-08-19 15:20:03.768,0.46,-0.465
2021-08-19 15:20:03.772,0.455,-0.465
2021-08-19 15:20:03.776,0.48,-0.49
2021-08-19 15:20:03.780,0.49,-0.505
2021-08-19 15:20:03.784,0.48,-0.54
2021-08-19 15:20:03.788,0.455,-0.585
2021-08-19 15:20:03.792,0.475,-0.59
2021-08-19 15:20:03.796,0.495,-0.635
2021-08-19 15:20:03.800,0.495,-0.64
2021-08-19 15:20:03.804,0.445,-0.63
2021-08-19 15:20:03.808,0.425,-0.64
2021-08-19 15:20:03.812,0.445,-0.65
2021-08-19 15:20:03.816,0.485,-0.67
2021-08-19 15:20:03.820,0.46,-0.655
2021-08-19 15:20:03.824,0.395,-0.665
2021-08-19 15:20:03.828,0.32,-0.66
2021-08-19 15:20:03.832,0.34,-0.64
2021-08-19 15:20:03.836,0.38,-0.64
2021-08-19 15:20:03.840,0.41,-0.65
2021-08-19 15:20:03.844,0.455,-0.615
2021-08-19 15:20:03.848,0.49,-0.595
2021-08-19 15:20:03.852,0.43,-0.58
2021-08-19 15:20:03.856,0.32,-0.555
2021-08-19 15:20:03.860,0.25,-0.54
2021-08-19 15:20:03.864,0.28,-0.535
2021-08-19 15:20:03.868,0.325,-0.53
2021-08-19 15:20:03.872,0.305,-0.475
2021-08-19 15:20:03.876,0.275,-0.44
2021-08-19 15:20:03.880,0.24,-0.41
2021-08-19 15:20:03.884,0.265,-0.395
2021-08-19 15:20:03.888,0.27,-0.415
2021-08-19 15:20:03.892,0.295,-0.39
2021-08-19 15:20:03.896,0.34,-0.385
2021-08-19 15:20:03.900,0.34,-0.375
2021-08-19 15:20:03.904,0.3,-0.355
2021-08-19 15:20:03.908,0.295,-0.33
2021-08-19 15:20:03.912,0.28,-0.305
2021-08-19 15:20:03.916,0.295,-0.32
2021-08-19 15:20:03.920,0.325,-0.33
2021-08-19 15:20:03.924,0.32,-0.32
2021-08-19 15:20:03.928,0.355,-0.305
2021-08-19 15:20:03.932,0.395,-0.285
2021-08-19 15:20:03.936,0.365,-0.255
2021-08-19 15:20:03.940,0.285,-0.26
2021-08-19 15:20:03.944,0.275,-0.285
2021-08-19 15:20:03.948,0.34,-0.28
2021-08-19 15:20:03.952,0.35,-0.26
2021-08-19 15:20:03.956,0.335,-0.235
2021-08-19 15:20:03.960,0.385,-0.25
2021-08-19 15:20:03.964,0.39,-0.225
2021-08-19 15:20:03.968,0.34,-0.205
2021-08-19 15:20:03.972,0.285,-0.16
2021-08-19 15:20:03.976,0.26,-0.15
2021-08-19 15:20:03.980,0.26,-0.145
2021-08-19 15:20:03.984,0.295,-0.2
2021-08-19 15:20:03.988,0.305,-0.215
2021-08-19 15:20:03.992,0.325,-0.245
2021-08-19 15:20:03.996,0.295,-0.265
2021-08-19 15:20:04.000,0.26,-0.255
2021-08-19 15:20:04.004,0.25,-0.24
2021-08-19 15:20:04.008,0.275,-0.265
2021-08-19 15:20:04.012,0.275,-0.265
2021-08-19 15:20:04.016,0.27,-0.29
2021-08-19 15:20:04.020,0.295,-0.285
2021-08-19 15:20:04.024,0.34,-0.295
2021-08-19 15:20:04.028,0.26,-0.31
2021-08-19 15:20:04.032,0.15,-0.325
2021-08-19 15:20:04.036,0.11,-0.33
2021-08-19 15:20:04.040,0.18,-0.31
2021-08-19 15:20:04.044,0.195,-0.305
2021-08-19 15:20:04.048,0.18,-0.3
2021-08-19 15:20:04.052,0.185,-0.29
2021-08-19 15:20:04.056,0.185,-0.29
2021-08-19 15:20:04.060,0.215,-0.27
2021-08-19 15:20:04.064,0.265,-0.285
2021-08-19 15:20:04.068,0.23,-0.29
2021-08-19 15:20:04.072,0.17,-0.32
2021-08-19 15:20:04.076,0.2,-0.33
2021-08-19 15:20:04.080,0.34,-0.335
2021-08-19 15:20:04.084,0.53,-0.29
2021-08-19 15:20:04.088,0.74,-0.245
2021-08-19 15:20:04.092,0.915,-0.2
2021-08-19 15:20:04.096,1.015,-0.165
2021-08-19 15:20:04.100,0.935,-0.155
2021-08-19 15:20:04.104,0.66,-0.16
2021-08-19 15:20:04.108,0.285,-0.13
2021-08-19 15:20:04.112,0.045,-0.16
2021-08-19 15:20:04.116,-0.015,-0.185
2021-08-19 15:20:04.120,0.045,-0.105
2021-08-19 15:20:04.124,0.12,0.025
2021-08-19 15:20:04.128,0.07,0.155
2021-08-19 15:20:04.132,-0.055,0.35
2021-08-19 15:20:04.136,-0.14,0.535
2021-08-19 15:20:04.140,-0.19,0.71
2021-08-19 15:20:04.144,-0.18,0.86
2021-08-19 15:20:04.148,-0.155,0.855
2021-08-19 15:20:04.152,-0.06,0.8
2021-08-19 15:20:04.156,0.09,0.68
2021-08-19 15:20:04.160,0.19,0.58
2021-08-19 15:20:04.164,0.25,0.505
2021-08-19 15:20:04.168,0.315,0.41
2021-08-19 15:20:04.172,0.37,0.275
2021-08-19 15:20:04.176,0.385,0.095
2021-08-19 15:20:04.180,0.345,-0.01
2021-08-19 15:20:04.184,0.335,-0.09
2021-08-19 15:20:04.188,0.42,-0.14
2021-08-19 15:20:04.192,0.38,-0.16
2021-08-19 15:20:04.196,0.295,-0.185
2021-08-19 15:20:04.200,0.285,-0.22
2021-08-19 15:20:04.204,0.275,-0.25
2021-08-19 15:20:04.208,0.255,-0.285
2021-08-19 15:20:04.212,0.28,-0.295
2021-08-19 15:20:04.216,0.33,-0.335
2021-08-19 15:20:04.220,0.355,-0.355
2021-08-19 15:20:04.224,0.285,-0.385
2021-08-19 15:20:04.228,0.23,-0.37
2021-08-19 15:20:04.232,0.225,-0.375
2021-08-19 15:20:04.236,0.225,-0.385
2021-08-19 15:20:04.240,0.245,-0.395
2021-08-19 15:20:04.244,0.265,-0.385
2021-08-19 15:20:04.248,0.27,-0.38
2021-08-19 15:20:04.252,0.285,-0.365
2021-08-19 15:20:04.256,0.27,-0.4
2021-08-19 15:20:04.260,0.265,-0.41
2021-08-19 15:20:04.264,0.285,-0.425
2021-08-19 15:20:04.268,0.29,-0.435
2021-08-19 15:20:04.272,0.3,-0.455
2021-08-19 15:20:04.276,0.3,-0.445
2021-08-19 15:20:04.280,0.36,-0.45
2021-08-19 15:20:04.284,0.345,-0.46
2021-08-19 15:20:04.288,0.36,-0.45
2021-08-19 15:20:04.292,0.325,-0.46
2021-08-19 15:20:04.296,0.31,-0.465
2021-08-19 15:20:04.300,0.33,-0.5
2021-08-19 15:20:04.304,0.345,-0.505
2021-08-19 15:20:04.308,0.315,-0.535
2021-08-19 15:20:04.312,0.31,-0.54
2021-08-19 15:20:04.316,0.33,-0.525
2021-08-19 15:20:04.320,0.415,-0.48
2021-08-19 15:20:04.324,0.455,-0.495
2021-08-19 15:20:04.328,0.415,-0.5
2021-08-19 15:20:04.332,0.335,-0.545
2021-08-19 15:20:04.336,0.315,-0.55
2021-08-19 15:20:04.340,0.32,-0.555
2021-08-19 15:20:04.344,0.315,-0.52
2021-08-19 15:20:04.348,0.325,-0.52
2021-08-19 15:20:04.352,0.35,-0.54
2021-08-19 15:20:04.356,0.365,-0.52
2021-08-19 15:20:04.360,0.37,-0.5
2021-08-19 15:20:04.364,0.355,-0.46
2021-08-19 15:20:04.368,0.35,-0.425
2021-08-19 15:20:04.372,0.355,-0.41
2021-08-19 15:20:04.376,0.355,-0.415
2021-08-19 15:20:04.380,0.37,-0.375
2021-08-19 15:20:04.384,0.365,-0.38
2021-08-19 15:20:04.388,0.335,-0.34
2021-08-19 15:20:04.392,0.305,-0.3
2021-08-19 15:20:04.396,0.29,-0.27
2021-08-19 15:20:04.400,0.3,-0.245
2021-08-19 15:20:04.404,0.315,-0.21
2021-08-19 15:20:04.408,0.35,-0.22
2021-08-19 15:20:04.412,0.375,-0.23
2021-08-19 15:20:04.416,0.37,-0.24
2021-08-19 15:20:04.420,0.3,-0.26
2021-08-19 15:20:04.424,0.28,-0.245
2021-08-19 15:20:04.428,0.255,-0.25
2021-08-19 15:20:04.432,0.245,-0.26
2021-08-19 15:20:04.436,0.19,-0.235
2021-08-19 15:20:04.440,0.195,-0.22
2021-08-19 15:20:04.444,0.2,-0.235
2021-08-19 15:20:04.448,0.245,-0.235
2021-08-19 15:20:04.452,0.27,-0.22
2021-08-19 15:20:04.456,0.27,-0.24
2021-08-19 15:20:04.460,0.265,-0.22
2021-08-19 15:20:04.464,0.21,-0.245
2021-08-19 15:20:04.468,0.21,-0.255
2021-08-19 15:20:04.472,0.225,-0.275
2021-08-19 15:20:04.476,0.215,-0.245
2021-08-19 15:20:04.480,0.215,-0.27
2021-08-19 15:20:04.484,0.24,-0.28
2021-08-19 15:20:04.488,0.235,-0.25
2021-08-19 15:20:04.492,0.225,-0.23
2021-08-19 15:20:04.496,0.25,-0.245
2021-08-19 15:20:04.500,0.265,-0.255
2021-08-19 15:20:04.504,0.275,-0.265
2021-08-19 15:20:04.508,0.28,-0.235
2021-08-19 15:20:04.512,0.325,-0.275
2021-08-19 15:20:04.516,0.315,-0.3
2021-08-19 15:20:04.520,0.24,-0.31
2021-08-19 15:20:04.524,0.155,-0.285
2021-08-19 15:20:04.528,0.14,-0.25
2021-08-19 15:20:04.532,0.135,-0.255
2021-08-19 15:20:04.536,0.18,-0.26
2021-08-19 15:20:04.540,0.195,-0.265
2021-08-19 15:20:04.544,0.21,-0.235
2021-08-19 15:20:04.548,0.19,-0.255
2021-08-19 15:20:04.552,0.17,-0.25
2021-08-19 15:20:04.556,0.175,-0.24
2021-08-19 15:20:04.560,0.2,-0.265
2021-08-19 15:20:04.564,0.205,-0.27
2021-08-19 15:20:04.568,0.2,-0.26
2021-08-19 15:20:04.572,0.21,-0.235
2021-08-19 15:20:04.576,0.235,-0.23
2021-08-19 15:20:04.580,0.27,-0.225
2021-08-19 15:20:04.584,0.285,-0.235
2021-08-19 15:20:04.588,0.26,-0.23
2021-08-19 15:20:04.592,0.24,-0.225
2021-08-19 15:20:04.596,0.195,-0.21
2021-08-19 15:20:04.600,0.175,-0.225
2021-08-19 15:20:04.604,0.195,-0.21
2021-08-19 15:20:04.608,0.205,-0.22
2021-08-19 15:20:04.612,0.245,-0.195
2021-08-19 15:20:04.616,0.255,-0.215
2021-08-19 15:20:04.620,0.29,-0.21
2021-08-19 15:20:04.624,0.26,-0.2
2021-08-19 15:20:04.628,0.26,-0.205
2021-08-19 15:20:04.632,0.305,-0.245
2021-08-19 15:20:04.636,0.495,-0.22
2021-08-19 15:20:04.640,0.705,-0.2
2021-08-19 15:20:04.644,0.85,-0.18
2021-08-19 15:20:04.648,0.89,-0.125
2021-08-19 15:20:04.652,0.775,-0.11
2021-08-19 15:20:04.656,0.5,-0.105
2021-08-19 15:20:04.660,0.195,-0.095
2021-08-19 15:20:04.664,0.01,-0.115
2021-08-19 15:20:04.668,-0.04,-0.125
2021-08-19 15:20:04.672,-0.075,-0.06
2021-08-19 15:20:04.676,-0.145,0.04
2021-08-19 15:20:04.680,-0.2,0.155
2021-08-19 15:20:04.684,-0.255,0.31
2021-08-19 15:20:04.688,-0.285,0.515
2021-08-19 15:20:04.692,-0.29,0.725
2021-08-19 15:20:04.696,-0.305,0.85
2021-08-19 15:20:04.700,-0.255,0.83
2021-08-19 15:20:04.704,-0.15,0.73
2021-08-19 15:20:04.708,-0.01,0.595
2021-08-19 15:20:04.712,0.085,0.515
2021-08-19 15:20:04.716,0.115,0.475
2021-08-19 15:20:04.720,0.135,0.315
2021-08-19 15:20:04.724,0.12,0.13
2021-08-19 15:20:04.728,0.13,-0.035
2021-08-19 15:20:04.732,0.18,-0.16
2021-08-19 15:20:04.736,0.25,-0.2
2021-08-19 15:20:04.740,0.21,-0.23
2021-08-19 15:20:04.744,0.135,-0.275
2021-08-19 15:20:04.748,0.11,-0.29
2021-08-19 15:20:04.752,0.13,-0.315
2021-08-19 15:20:04.756,0.15,-0.34
2021-08-19 15:20:04.760,0.18,-0.34
2021-08-19 15:20:04.764,0.175,-0.34
2021-08-19 15:20:04.768,0.195,-0.33
2021-08-19 15:20:04.772,0.2,-0.31
2021-08-19 15:20:04.776,0.25,-0.34
2021-08-19 15:20:04.780,0.23,-0.345
2021-08-19 15:20:04.784,0.24,-0.35
2021-08-19 15:20:04.788,0.225,-0.35
2021-08-19 15:20:04.792,0.215,-0.35
2021-08-19 15:20:04.796,0.2,-0.33
2021-08-19 15:20:04.800,0.22,-0.32
2021-08-19 15:20:04.804,0.23,-0.32
2021-08-19 15:20:04.808,0.225,-0.31
2021-08-19 15:20:04.812,0.255,-0.32
2021-08-19 15:20:04.816,0.26,-0.34
2021-08-19 15:20:04.820,0.29,-0.34
2021-08-19 15:20:04.824,0.29,-0.36
2021-08-19 15:20:04.828,0.27,-0.36
2021-08-19 15:20:04.832,0.245,-0.365
2021-08-19 15:20:04.836,0.195,-0.405
2021-08-19 15:20:04.840,0.18,-0.46
2021-08-19 15:20:04.844,0.175,-0.485
2021-08-19 15:20:04.848,0.2,-0.495
2021-08-19 15:20:04.852,0.19,-0.505
2021-08-19 15:20:04.856,0.19,-0.495
2021-08-19 15:20:04.860,0.175,-0.5
2021-08-19 15:20:04.864,0.175,-0.475
2021-08-19 15:20:04.868,0.17,-0.515
2021-08-19 15:20:04.872,0.175,-0.515
2021-08-19 15:20:04.876,0.15,-0.53
2021-08-19 15:20:04.880,0.155,-0.555
2021-08-19 15:20:04.884,0.155,-0.555
2021-08-19 15:20:04.888,0.15,-0.545
2021-08-19 15:20:04.892,0.15,-0.535
2021-08-19 15:20:04.896,0.185,-0.55
2021-08-19 15:20:04.900,0.205,-0.565
2021-08-19 15:20:04.904,0.2,-0.545
2021-08-19 15:20:04.908,0.155,-0.535
2021-08-19 15:20:04.912,0.11,-0.535
2021-08-19 15:20:04.916,0.08,-0.53
2021-08-19 15:20:04.920,0.04,-0.54
2021-08-19 15:20:04.924,0.075,-0.525
2021-08-19 15:20:04.928,0.105,-0.49
2021-08-19 15:20:04.932,0.075,-0.445
2021-08-19 15:20:04.936,0.15,-0.405
2021-08-19 15:20:04.940,0.18,-0.385
2021-08-19 15:20:04.944,0.18,-0.36
2021-08-19 15:20:04.948,0.14,-0.34
2021-08-19 15:20:04.952,0.095,-0.345
2021-08-19 15:20:04.956,0.11,-0.32
2021-08-19 15:20:04.960,0.08,-0.29
2021-08-19 15:20:04.964,0.095,-0.26
2021-08-19 15:20:04.968,0.085,-0.225
2021-08-19 15:20:04.972,0.11,-0.21
2021-08-19 15:20:04.976,0.105,-0.2
2021-08-19 15:20:04.980,0.12,-0.19
2021-08-19 15:20:04.984,0.15,-0.175
2021-08-19 15:20:04.988,0.17,-0.17
2021-08-19 15:20:04.992,0.185,-0.155
2021-08-19 15:20:04.996,0.175,-0.14
2021-08-19 15:20:05.000,0.18,-0.15
2021-08-19 15:20:05.004,0.185,-0.14
2021-08-19 15:20:05.008,0.205,-0.11
2021-08-19 15:20:05.012,0.21,-0.135
2021-08-19 15:20:05.016,0.215,-0.125
2021-08-19 15:20:05.020,0.225,-0.095
2021-08-19 15:20:05.024,0.22,-0.08
2021-08-19 15:20:05.028,0.225,-0.07
2021-08-19 15:20:05.032,0.26,-0.055
2021-08-19 15:20:05.036,0.35,-0.05
2021-08-19 15:20:05.040,0.52,-0.055
2021-08-19 15:20:05.044,0.765,-0.05
2021-08-19 15:20:05.048,0.96,-0.04
2021-08-19 15:20:05.052,1.08,-0.01
2021-08-19 15:20:05.056,1.045,0.0
2021-08-19 15:20:05.060,0.815,0.0
2021-08-19 15:20:05.064,0.48,0.01
2021-08-19 15:20:05.068,0.18,-0.025
2021-08-19 15:20:05.072,0.015,-0.02
2021-08-19 15:20:05.076,-0.05,-0.005
2021-08-19 15:20:05.080,-0.075,0.065
2021-08-19 15:20:05.084,-0.12,0.19
2021-08-19 15:20:05.088,-0.205,0.305
2021-08-19 15:20:05.092,-0.28,0.48
2021-08-19 15:20:05.096,-0.36,0.675
2021-08-19 15:20:05.100,-0.36,0.8
2021-08-19 15:20:05.104,-0.29,0.82
2021-08-19 15:20:05.108,-0.19,0.75
2021-08-19 15:20:05.112,-0.08,0.61
2021-08-19 15:20:05.116,-0.02,0.55
2021-08-19 15:20:05.120,-0.005,0.535
2021-08-19 15:20:05.124,0.03,0.445
2021-08-19 15:20:05.128,0.04,0.27
2021-08-19 15:20:05.132,0.06,0.11
2021-08-19 15:20:05.136,0.07,-0.045
2021-08-19 15:20:05.140,0.065,-0.14
2021-08-19 15:20:05.144,0.09,-0.155
2021-08-19 15:20:05.148,0.12,-0.185
2021-08-19 15:20:05.152,0.145,-0.215
2021-08-19 15:20:05.156,0.155,-0.245
2021-08-19 15:20:05.160,0.14,-0.245
2021-08-19 15:20:05.164,0.115,-0.265
2021-08-19 15:20:05.168,0.1,-0.275
2021-08-19 15:20:05.172,0.105,-0.27
2021-08-19 15:20:05.176,0.075,-0.295
2021-08-19 15:20:05.180,0.12,-0.31
2021-08-19 15:20:05.184,0.19,-0.28
2021-08-19 15:20:05.188,0.225,-0.29
2021-08-19 15:20:05.192,0.18,-0.27
2021-08-19 15:20:05.196,0.135,-0.26
2021-08-19 15:20:05.200,0.12,-0.28
2021-08-19 15:20:05.204,0.185,-0.23
2021-08-19 15:20:05.208,0.22,-0.16
2021-08-19 15:20:05.212,0.225,-0.105
2021-08-19 15:20:05.216,0.23,-0.155
2021-08-19 15:20:05.220,0.26,-0.245
2021-08-19 15:20:05.224,0.22,-0.305
2021-08-19 15:20:05.228,0.215,-0.3
2021-08-19 15:20:05.232,0.205,-0.325
2021-08-19 15:20:05.236,0.23,-0.345
2021-08-19 15:20:05.240,0.195,-0.345
2021-08-19 15:20:05.244,0.135,-0.3
2021-08-19 15:20:05.248,0.18,-0.32
2021-08-19 15:20:05.252,0.2,-0.335
2021-08-19 15:20:05.256,0.245,-0.345
2021-08-19 15:20:05.260,0.28,-0.34
2021-08-19 15:20:05.264,0.335,-0.35
2021-08-19 15:20:05.268,0.345,-0.35
2021-08-19 15:20:05.272,0.315,-0.39
2021-08-19 15:20:05.276,0.28,-0.415
2021-08-19 15:20:05.280,0.28,-0.41
2021-08-19 15:20:05.284,0.265,-0.405
2021-08-19 15:20:05.288,0.24,-0.4
2021-08-19 15:20:05.292,0.21,-0.4
2021-08-19 15:20:05.296,0.195,-0.44
2021-08-19 15:20:05.300,0.16,-0.435
2021-08-19 15:20:05.304,0.11,-0.4
2021-08-19 15:20:05.308,0.095,-0.315
2021-08-19 15:20:05.312,0.095,-0.27
2021-08-19 15:20:05.316,0.065,-0.29
2021-08-19 15:20:05.320,0.055,-0.335
2021-08-19 15:20:05.324,0.055,-0.35
2021-08-19 15:20:05.328,0.045,-0.32
2021-08-19 15:20:05.332,0.055,-0.295
2021-08-19 15:20:05.336,0.08,-0.285
2021-08-19 15:20:05.340,0.09,-0.25
2021-08-19 15:20:05.344,0.08,-0.26
2021-08-19 15:20:05.348,0.115,-0.25
2021-08-19 15:20:05.352,0.125,-0.21
2021-08-19 15:20:05.356,0.07,-0.185
2021-08-19 15:20:05.360,0.06,-0.15
2021-08-19 15:20:05.364,0.045,-0.125
2021-08-19 15:20:05.368,0.05,-0.13
2021-08-19 15:20:05.372,0.09,-0.105
2021-08-19 15:20:05.376,0.115,-0.085
2021-08-19 15:20:05.380,0.14,-0.06
2021-08-19 15:20:05.384,0.105,-0.07
2021-08-19 15:20:05.388,0.055,-0.085
2021-08-19 15:20:05.392,0.04,-0.09
2021-08-19 15:20:05.396,0.08,-0.07
2021-08-19 15:20:05.400,0.1,-0.08
2021-08-19 15:20:05.404,0.085,-0.05
2021-08-19 15:20:05.408,0.09,-0.03
2021-08-19 15:20:05.412,0.1,-0.045
2021-08-19 15:20:05.416,0.095,-0.04
2021-08-19 15:20:05.420,0.085,-0.045
2021-08-19 15:20:05.424,0.07,-0.055
2021-08-19 15:20:05.428,0.095,-0.04
2021-08-19 15:20:05.432,0.085,-0.02
2021-08-19 15:20:05.436,0.08,0.0
2021-08-19 15:20:05.440,0.12,-0.02
2021-08-19 15:20:05.444,0.135,0.0
2021-08-19 15:20:05.448,0.1,-0.005
2021-08-19 15:20:05.452,0.045,-0.005
2021-08-19 15:20:05.456,0.0,0.01
2021-08-19 15:20:05.460,0.015,-0.03
2021-08-19 15:20:05.464,0.07,-0.06
2021-08-19 15:20:05.468,0.09,-0.06
2021-08-19 15:20:05.472,0.07,-0.07
2021-08-19 15:20:05.476,0.035,-0.075
2021-08-19 15:20:05.480,0.005,-0.105
2021-08-19 15:20:05.484,0.01,-0.095
2021-08-19 15:20:05.488,-0.01,-0.16
2021-08-19 15:20:05.492,-0.035,-0.145
2021-08-19 15:20:05.496,-0.05,-0.17
2021-08-19 15:20:05.500,-0.065,-0.145
2021-08-19 15:20:05.504,-0.005,-0.17
2021-08-19 15:20:05.508,0.025,-0.155
2021-08-19 15:20:05.512,0.015,-0.16
2021-08-19 15:20:05.516,-0.045,-0.15
2021-08-19 15:20:05.520,-0.06,-0.16
2021-08-19 15:20:05.524,-0.025,-0.19
2021-08-19 15:20:05.528,-0.01,-0.215
2021-08-19 15:20:05.532,-0.005,-0.225
2021-08-19 15:20:05.536,-0.01,-0.2
2021-08-19 15:20:05.540,-0.02,-0.205
2021-08-19 15:20:05.544,-0.01,-0.22
2021-08-19 15:20:05.548,-0.015,-0.195
2021-08-19 15:20:05.552,0.0,-0.23
2021-08-19 15:20:05.556,0.0,-0.205
2021-08-19 15:20:05.560,-0.03,-0.205
2021-08-19 15:20:05.564,-0.05,-0.215
2021-08-19 15:20:05.568,-0.035,-0.21
2021-08-19 15:20:05.572,-0.045,-0.235
2021-08-19 15:20:05.576,-0.065,-0.215
2021-08-19 15:20:05.580,-0.065,-0.16
2021-08-19 15:20:05.584,-0.06,-0.17
2021-08-19 15:20:05.588,-0.035,-0.175
2021-08-19 15:20:05.592,0.0,-0.185
2021-08-19 15:20:05.596,0.05,-0.165
2021-08-19 15:20:05.600,0.06,-0.145
2021-08-19 15:20:05.604,0.045,-0.135
2021-08-19 15:20:05.608,0.005,-0.1
2021-08-19 15:20:05.612,-0.03,-0.115
2021-08-19 15:20:05.616,-0.095,-0.16
2021-08-19 15:20:05.620,-0.075,-0.12
2021-08-19 15:20:05.624,-0.05,-0.07
2021-08-19 15:20:05.628,-0.015,0.0
2021-08-19 15:20:05.632,0.04,0.005
2021-08-19 15:20:05.636,0.145,-0.04
2021-08-19 15:20:05.640,0.33,-0.075
2021-08-19 15:20:05.644,0.515,-0.05
2021-08-19 15:20:05.648,0.655,0.005
2021-08-19 15:20:05.652,0.655,0.005
2021-08-19 15:20:05.656,0.475,0.005
2021-08-19 15:20:05.660,0.21,0.02
2021-08-19 15:20:05.664,-0.01,0.01
2021-08-19 15:20:05.668,-0.12,-0.03
2021-08-19 15:20:05.672,-0.135,-0.01
2021-08-19 15:20:05.676,-0.18,0.075
2021-08-19 15:20:05.680,-0.21,0.22
2021-08-19 15:20:05.684,-0.26,0.345
2021-08-19 15:20:05.688,-0.3,0.505
2021-08-19 15:20:05.692,-0.39,0.7
2021-08-19 15:20:05.696,-0.49,0.835
2021-08-19 15:20:05.700,-0.535,0.865
2021-08-19 15:20:05.704,-0.47,0.805
2021-08-19 15:20:05.708,-0.36,0.685
2021-08-19 15:20:05.712,-0.25,0.605
2021-08-19 15:20:05.716,-0.15,0.605
2021-08-19 15:20:05.720,-0.075,0.54
2021-08-19 15:20:05.724,-0.065,0.37
2021-08-19 15:20:05.728,-0.095,0.165
2021-08-19 15:20:05.732,-0.08,-0.01
2021-08-19 15:20:05.736,-0.07,-0.085
2021-08-19 15:20:05.740,-0.04,-0.145
2021-08-19 15:20:05.744,-0.06,-0.21
2021-08-19 15:20:05.748,-0.04,-0.205
2021-08-19 15:20:05.752,-0.045,-0.255
2021-08-19 15:20:05.756,-0.04,-0.24
2021-08-19 15:20:05.760,-0.055,-0.265
2021-08-19 15:20:05.764,-0.075,-0.26
2021-08-19 15:20:05.768,-0.13,-0.26
2021-08-19 15:20:05.772,-0.15,-0.28
2021-08-19 15:20:05.776,-0.135,-0.295
2021-08-19 15:20:05.780,-0.1,-0.28
2021-08-19 15:20:05.784,-0.075,-0.28
2021-08-19 15:20:05.788,-0.085,-0.295
2021-08-19 15:20:05.792,-0.055,-0.29
2021-08-19 15:20:05.796,-0.04,-0.28
2021-08-19 15:20:05.800,-0.005,-0.265
2021-08-19 15:20:05.804,0.015,-0.3
2021-08-19 15:20:05.808,0.04,-0.31
2021-08-19 15:20:05.812,0.07,-0.305
2021-08-19 15:20:05.816,0.07,-0.295
2021-08-19 15:20:05.820,0.06,-0.31
2021-08-19 15:20:05.824,0.055,-0.32
2021-08-19 15:20:05.828,0.05,-0.315
2021-08-19 15:20:05.832,0.045,-0.265
2021-08-19 15:20:05.836,0.015,-0.275
2021-08-19 15:20:05.840,-0.035,-0.28
2021-08-19 15:20:05.844,-0.06,-0.225
2021-08-19 15:20:05.848,-0.06,-0.185
2021-08-19 15:20:05.852,-0.075,-0.27
2021-08-19 15:20:05.856,-0.06,-0.285
2021-08-19 15:20:05.860,-0.015,-0.275
2021-08-19 15:20:05.864,0.01,-0.285
2021-08-19 15:20:05.868,0.025,-0.26
2021-08-19 15:20:05.872,0.05,-0.26
2021-08-19 15:20:05.876,0.05,-0.265
2021-08-19 15:20:05.880,0.075,-0.28
2021-08-19 15:20:05.884,0.08,-0.31
2021-08-19 15:20:05.888,0.05,-0.385
2021-08-19 15:20:05.892,0.045,-0.41
2021-08-19 15:20:05.896,0.07,-0.38
2021-08-19 15:20:05.900,0.065,-0.41
2021-08-19 15:20:05.904,0.07,-0.425
2021-08-19 15:20:05.908,0.06,-0.4
2021-08-19 15:20:05.912,0.085,-0.4
2021-08-19 15:20:05.916,0.075,-0.4
2021-08-19 15:20:05.920,-0.02,-0.415
2021-08-19 15:20:05.924,-0.135,-0.425
2021-08-19 15:20:05.928,-0.145,-0.4
2021-08-19 15:20:05.932,-0.12,-0.36
2021-08-19 15:20:05.936,-0.1,-0.35
2021-08-19 15:20:05.940,-0.09,-0.29
2021-08-19 15:20:05.944,-0.12,-0.255
2021-08-19 15:20:05.948,-0.12,-0.265
2021-08-19 15:20:05.952,-0.14,-0.26
2021-08-19 15:20:05.956,-0.115,-0.235
2021-08-19 15:20:05.960,-0.11,-0.195
2021-08-19 15:20:05.964,-0.09,-0.175
2021-08-19 15:20:05.968,-0.08,-0.14
2021-08-19 15:20:05.972,-0.065,-0.13
2021-08-19 15:20:05.976,-0.085,-0.12
2021-08-19 15:20:05.980,-0.135,-0.145
2021-08-19 15:20:05.984,-0.14,-0.135
2021-08-19 15:20:05.988,-0.125,-0.13
2021-08-19 15:20:05.992,-0.065,-0.095
2021-08-19 15:20:05.996,-0.05,-0.11
2021-08-19 15:20:06.000,-0.1,-0.105
2021-08-19 15:20:06.004,-0.145,-0.1
2021-08-19 15:20:06.008,-0.12,-0.1
2021-08-19 15:20:06.012,-0.08,-0.1
2021-08-19 15:20:06.016,-0.055,-0.085
2021-08-19 15:20:06.020,-0.12,-0.08
2021-08-19 15:20:06.024,-0.15,-0.06
2021-08-19 15:20:06.028,-0.155,-0.04
2021-08-19 15:20:06.032,-0.135,-0.06
2021-08-19 15:20:06.036,-0.1,-0.065
2021-08-19 15:20:06.040,-0.1,-0.025
2021-08-19 15:20:06.044,-0.12,-0.01
2021-08-19 15:20:06.048,-0.14,-0.03
2021-08-19 15:20:06.052,-0.15,-0.025
2021-08-19 15:20:06.056,-0.165,-0.035
2021-08-19 15:20:06.060,-0.135,-0.025
2021-08-19 15:20:06.064,-0.11,0.0
2021-08-19 15:20:06.068,-0.07,0.03
2021-08-19 15:20:06.072,-0.045,0.025
2021-08-19 15:20:06.076,-0.035,0.015
2021-08-19 15:20:06.080,-0.055,0.025
2021-08-19 15:20:06.084,-0.025,0.035
2021-08-19 15:20:06.088,-0.04,0.005
2021-08-19 15:20:06.092,-0.11,-0.005
2021-08-19 15:20:06.096,-0.19,-0.045
2021-08-19 15:20:06.100,-0.24,-0.035
2021-08-19 15:20:06.104,-0.255,-0.07
2021-08-19 15:20:06.108,-0.27,-0.08
2021-08-19 15:20:06.112,-0.29,-0.11
2021-08-19 15:20:06.116,-0.26,-0.085
2021-08-19 15:20:06.120,-0.28,-0.065
2021-08-19 15:20:06.124,-0.25,-0.055
2021-08-19 15:20:06.128,-0.245,-0.085
2021-08-19 15:20:06.132,-0.245,-0.06
2021-08-19 15:20:06.136,-0.22,-0.08
2021-08-19 15:20:06.140,-0.2,-0.075
2021-08-19 15:20:06.144,-0.215,-0.075
2021-08-19 15:20:06.148,-0.215,-0.1
2021-08-19 15:20:06.152,-0.225,-0.075
2021-08-19 15:20:06.156,-0.215,-0.085
2021-08-19 15:20:06.160,-0.21,-0.095
2021-08-19 15:20:06.164,-0.21,-0.08
2021-08-19 15:20:06.168,-0.24,-0.085
2021-08-19 15:20:06.172,-0.255,-0.08
2021-08-19 15:20:06.176,-0.22,-0.105
2021-08-19 15:20:06.180,-0.17,-0.125
2021-08-19 15:20:06.184,-0.205,-0.14
2021-08-19 15:20:06.188,-0.315,-0.075
2021-08-19 15:20:06.192,-0.38,-0.06
2021-08-19 15:20:06.196,-0.355,-0.08
2021-08-19 15:20:06.200,-0.305,-0.115
2021-08-19 15:20:06.204,-0.29,-0.11
2021-08-19 15:20:06.208,-0.24,-0.1
2021-08-19 15:20:06.212,-0.235,-0.055
2021-08-19 15:20:06.216,-0.265,-0.05
2021-08-19 15:20:06.220,-0.27,-0.025
2021-08-19 15:20:06.224,-0.255,-0.025
2021-08-19 15:20:06.228,-0.2,-0.02
2021-08-19 15:20:06.232,-0.2,-0.03
2021-08-19 15:20:06.236,-0.22,-0.04
2021-08-19 15:20:06.240,-0.25,-0.03
2021-08-19 15:20:06.244,-0.295,0.0
2021-08-19 15:20:06.248,-0.32,0.015
2021-08-19 15:20:06.252,-0.325,0.035
2021-08-19 15:20:06.256,-0.295,0.065
2021-08-19 15:20:06.260,-0.265,0.035
2021-08-19 15:20:06.264,-0.25,0.0
2021-08-19 15:20:06.268,-0.235,0.02
2021-08-19 15:20:06.272,-0.215,0.025
2021-08-19 15:20:06.276,-0.185,0.04
2021-08-19 15:20:06.280,-0.19,0.045
2021-08-19 15:20:06.284,-0.21,0.06
2021-08-19 15:20:06.288,-0.23,0.045
2021-08-19 15:20:06.292,-0.21,0.035
2021-08-19 15:20:06.296,-0.225,0.06
2021-08-19 15:20:06.300,-0.155,0.1
2021-08-19 15:20:06.304,-0.015,0.12
2021-08-19 15:20:06.308,0.2,0.125
2021-08-19 15:20:06.312,0.33,0.15
2021-08-19 15:20:06.316,0.38,0.18
2021-08-19 15:20:06.320,0.385,0.195
2021-08-19 15:20:06.324,0.325,0.2
2021-08-19 15:20:06.328,0.115,0.18
2021-08-19 15:20:06.332,-0.135,0.14
2021-08-19 15:20:06.336,-0.3,0.095
2021-08-19 15:20:06.340,-0.375,0.105
2021-08-19 15:20:06.344,-0.42,0.16
2021-08-19 15:20:06.348,-0.48,0.27
2021-08-19 15:20:06.352,-0.51,0.435
2021-08-19 15:20:06.356,-0.565,0.625
2021-08-19 15:20:06.360,-0.61,0.89
2021-08-19 15:20:06.364,-0.645,1.12
2021-08-19 15:20:06.368,-0.615,1.18
2021-08-19 15:20:06.372,-0.54,1.09
2021-08-19 15:20:06.376,-0.455,0.95
2021-08-19 15:20:06.380,-0.365,0.82
2021-08-19 15:20:06.384,-0.315,0.765
2021-08-19 15:20:06.388,-0.255,0.695
2021-08-19 15:20:06.392,-0.21,0.55
2021-08-19 15:20:06.396,-0.19,0.365
2021-08-19 15:20:06.400,-0.17,0.245
2021-08-19 15:20:06.404,-0.195,0.15
2021-08-19 15:20:06.408,-0.205,0.08
2021-08-19 15:20:06.412,-0.21,0.055
2021-08-19 15:20:06.416,-0.195,0.055
2021-08-19 15:20:06.420,-0.215,0.04
2021-08-19 15:20:06.424,-0.3,0.015
2021-08-19 15:20:06.428,-0.32,0.025
2021-08-19 15:20:06.432,-0.28,0.055
2021-08-19 15:20:06.436,-0.225,0.055
2021-08-19 15:20:06.440,-0.19,0.02
2021-08-19 15:20:06.444,-0.165,-0.005
2021-08-19 15:20:06.448,-0.18,-0.02
2021-08-19 15:20:06.452,-0.21,-0.02
2021-08-19 15:20:06.456,-0.24,-0.03
2021-08-19 15:20:06.460,-0.24,-0.015
2021-08-19 15:20:06.464,-0.2,-0.025
2021-08-19 15:20:06.468,-0.105,-0.025
2021-08-19 15:20:06.472,-0.115,0.0
2021-08-19 15:20:06.476,-0.18,0.0
2021-08-19 15:20:06.480,-0.24,-0.01
2021-08-19 15:20:06.484,-0.26,-0.015
2021-08-19 15:20:06.488,-0.255,-0.02
2021-08-19 15:20:06.492,-0.22,0.0
2021-08-19 15:20:06.496,-0.16,0.02
2021-08-19 15:20:06.500,-0.16,0.035
2021-08-19 15:20:06.504,-0.18,0.04
2021-08-19 15:20:06.508,-0.185,0.0
2021-08-19 15:20:06.512,-0.15,-0.09
2021-08-19 15:20:06.516,-0.115,-0.155
2021-08-19 15:20:06.520,-0.125,-0.185
2021-08-19 15:20:06.524,-0.1,-0.21
2021-08-19 15:20:06.528,-0.105,-0.215
2021-08-19 15:20:06.532,-0.08,-0.18
2021-08-19 15:20:06.536,-0.05,-0.175
2021-08-19 15:20:06.540,-0.075,-0.215
2021-08-19 15:20:06.544,-0.105,-0.245
2021-08-19 15:20:06.548,-0.155,-0.235
2021-08-19 15:20:06.552,-0.195,-0.22
2021-08-19 15:20:06.556,-0.22,-0.2
2021-08-19 15:20:06.560,-0.18,-0.215
2021-08-19 15:20:06.564,-0.125,-0.23
2021-08-19 15:20:06.568,-0.09,-0.2
2021-08-19 15:20:06.572,-0.14,-0.195
2021-08-19 15:20:06.576,-0.23,-0.195
2021-08-19 15:20:06.580,-0.28,-0.2
2021-08-19 15:20:06.584,-0.275,-0.23
2021-08-19 15:20:06.588,-0.28,-0.215
2021-08-19 15:20:06.592,-0.26,-0.18
2021-08-19 15:20:06.596,-0.265,-0.175
2021-08-19 15:20:06.600,-0.255,-0.175
2021-08-19 15:20:06.604,-0.265,-0.175
2021-08-19 15:20:06.608,-0.22,-0.125
2021-08-19 15:20:06.612,-0.205,-0.095
2021-08-19 15:20:06.616,-0.21,-0.065
2021-08-19 15:20:06.620,-0.255,-0.05
2021-08-19 15:20:06.624,-0.33,-0.03
2021-08-19 15:20:06.628,-0.3,-0.01
2021-08-19 15:20:06.632,-0.215,0.005
2021-08-19 15:20:06.636,-0.185,0.02
2021-08-19 15:20:06.640,-0.2,0.06
2021-08-19 15:20:06.644,-0.285,0.11
2021-08-19 15:20:06.648,-0.335,0.13
2021-08-19 15:20:06.652,-0.38,0.125
2021-08-19 15:20:06.656,-0.375,0.115
2021-08-19 15:20:06.660,-0.345,0.125
2021-08-19 15:20:06.664,-0.32,0.115
2021-08-19 15:20:06.668,-0.31,0.14
2021-08-19 15:20:06.672,-0.315,0.135
2021-08-19 15:20:06.676,-0.34,0.14
2021-08-19 15:20:06.680,-0.34,0.14
2021-08-19 15:20:06.684,-0.345,0.135
2021-08-19 15:20:06.688,-0.295,0.125
2021-08-19 15:20:06.692,-0.27,0.15
2021-08-19 15:20:06.696,-0.255,0.165
2021-08-19 15:20:06.700,-0.17,0.145
2021-08-19 15:20:06.704,-0.14,0.13
2021-08-19 15:20:06.708,-0.155,0.135
2021-08-19 15:20:06.712,-0.225,0.12
2021-08-19 15:20:06.716,-0.26,0.11
2021-08-19 15:20:06.720,-0.275,0.06
2021-08-19 15:20:06.724,-0.25,0.005
2021-08-19 15:20:06.728,-0.215,-0.005
2021-08-19 15:20:06.732,-0.225,0.015
2021-08-19 15:20:06.736,-0.24,0.035
2021-08-19 15:20:06.740,-0.245,0.035
2021-08-19 15:20:06.744,-0.235,0.015
2021-08-19 15:20:06.748,-0.22,0.015
2021-08-19 15:20:06.752,-0.22,0.035
2021-08-19 15:20:06.756,-0.235,0.06
2021-08-19 15:20:06.760,-0.26,0.045
2021-08-19 15:20:06.764,-0.25,0.055
2021-08-19 15:20:06.768,-0.2,0.015
2021-08-19 15:20:06.772,-0.245,0.01
2021-08-19 15:20:06.776,-0.295,0.005
2021-08-19 15:20:06.780,-0.325,0.015
2021-08-19 15:20:06.784,-0.38,0.015
2021-08-19 15:20:06.788,-0.47,0.005
2021-08-19 15:20:06.792,-0.43,0.03
2021-08-19 15:20:06.796,-0.19,0.04
2021-08-19 15:20:06.800,0.045,0.05
2021-08-19 15:20:06.804,0.25,0.105
2021-08-19 15:20:06.808,0.325,0.16
2021-08-19 15:20:06.812,0.175,0.215
2021-08-19 15:20:06.816,-0.095,0.195
2021-08-19 15:20:06.820,-0.355,0.195
2021-08-19 15:20:06.824,-0.485,0.17
2021-08-19 15:20:06.828,-0.525,0.19
2021-08-19 15:20:06.832,-0.51,0.29
2021-08-19 15:20:06.836,-0.515,0.45
2021-08-19 15:20:06.840,-0.58,0.64
2021-08-19 15:20:06.844,-0.675,0.85
2021-08-19 15:20:06.848,-0.785,1.09
2021-08-19 15:20:06.852,-0.83,1.19
2021-08-19 15:20:06.856,-0.81,1.2
2021-08-19 15:20:06.860,-0.675,1.06
2021-08-19 15:20:06.864,-0.555,0.94
2021-08-19 15:20:06.868,-0.46,0.84
2021-08-19 15:20:06.872,-0.425,0.8
2021-08-19 15:20:06.876,-0.435,0.65
2021-08-19 15:20:06.880,-0.405,0.52
2021-08-19 15:20:06.884,-0.39,0.385
2021-08-19 15:20:06.888,-0.365,0.33
2021-08-19 15:20:06.892,-0.34,0.3
2021-08-19 15:20:06.896,-0.32,0.26
2021-08-19 15:20:06.900,-0.335,0.2
2021-08-19 15:20:06.904,-0.29,0.105
2021-08-19 15:20:06.908,-0.265,0.06
2021-08-19 15:20:06.912,-0.2,0.055
2021-08-19 15:20:06.916,-0.185,0.06
2021-08-19 15:20:06.920,-0.24,0.05
2021-08-19 15:20:06.924,-0.27,0.05
2021-08-19 15:20:06.928,-0.27,0.015
2021-08-19 15:20:06.932,-0.29,-0.015
2021-08-19 15:20:06.936,-0.265,-0.045
2021-08-19 15:20:06.940,-0.23,-0.025
2021-08-19 15:20:06.944,-0.24,-0.035
2021-08-19 15:20:06.948,-0.27,-0.07
2021-08-19 15:20:06.952,-0.305,-0.065
2021-08-19 15:20:06.956,-0.245,-0.075
2021-08-19 15:20:06.960,-0.215,-0.11
2021-08-19 15:20:06.964,-0.22,-0.125
2021-08-19 15:20:06.968,-0.295,-0.135
2021-08-19 15:20:06.972,-0.305,-0.11
2021-08-19 15:20:06.976,-0.25,-0.12
2021-08-19 15:20:06.980,-0.255,-0.12
2021-08-19 15:20:06.984,-0.29,-0.12
2021-08-19 15:20:06.988,-0.35,-0.1
2021-08-19 15:20:06.992,-0.39,-0.14
2021-08-19 15:20:06.996,-0.305,-0.14
2021-08-19 15:20:07.000,-0.225,-0.135
2021-08-19 15:20:07.004,-0.22,-0.11
2021-08-19 15:20:07.008,-0.26,-0.07
2021-08-19 15:20:07.012,-0.31,-0.065
2021-08-19 15:20:07.016,-0.375,-0.035
2021-08-19 15:20:07.020,-0.35,-0.075
2021-08-19 15:20:07.024,-0.27,-0.11
2021-08-19 15:20:07.028,-0.25,-0.1
2021-08-19 15:20:07.032,-0.255,-0.05
2021-08-19 15:20:07.036,-0.225,-0.02
2021-08-19 15:20:07.040,-0.185,-0.03
2021-08-19 15:20:07.044,-0.185,-0.025
2021-08-19 15:20:07.048,-0.26,-0.045
2021-08-19 15:20:07.052,-0.325,-0.03
2021-08-19 15:20:07.056,-0.34,-0.005
2021-08-19 15:20:07.060,-0.355,0.0
2021-08-19 15:20:07.064,-0.38,-0.025
2021-08-19 15:20:07.068,-0.39,0.025
2021-08-19 15:20:07.072,-0.375,0.06
2021-08-19 15:20:07.076,-0.36,0.115
2021-08-19 15:20:07.080,-0.395,0.125
2021-08-19 15:20:07.084,-0.42,0.115
2021-08-19 15:20:07.088,-0.47,0.155
2021-08-19 15:20:07.092,-0.455,0.165
2021-08-19 15:20:07.096,-0.385,0.205
2021-08-19 15:20:07.100,-0.39,0.225
2021-08-19 15:20:07.104,-0.42,0.245
2021-08-19 15:20:07.108,-0.405,0.305
2021-08-19 15:20:07.112,-0.34,0.31
2021-08-19 15:20:07.116,-0.315,0.31
2021-08-19 15:20:07.120,-0.345,0.315
2021-08-19 15:20:07.124,-0.355,0.36
2021-08-19 15:20:07.128,-0.32,0.375
2021-08-19 15:20:07.132,-0.315,0.385
2021-08-19 15:20:07.136,-0.33,0.385
2021-08-19 15:20:07.140,-0.315,0.37
2021-08-19 15:20:07.144,-0.34,0.365
2021-08-19 15:20:07.148,-0.38,0.33
2021-08-19 15:20:07.152,-0.395,0.345
2021-08-19 15:20:07.156,-0.375,0.34
2021-08-19 15:20:07.160,-0.375,0.36
2021-08-19 15:20:07.164,-0.39,0.34
2021-08-19 15:20:07.168,-0.395,0.37
2021-08-19 15:20:07.172,-0.385,0.36
2021-08-19 15:20:07.176,-0.39,0.36
2021-08-19 15:20:07.180,-0.38,0.36
2021-08-19 15:20:07.184,-0.36,0.355
2021-08-19 15:20:07.188,-0.375,0.375
2021-08-19 15:20:07.192,-0.43,0.43
2021-08-19 15:20:07.196,-0.435,0.43
2021-08-19 15:20:07.200,-0.46,0.44
2021-08-19 15:20:07.204,-0.465,0.435
2021-08-19 15:20:07.208,-0.46,0.455
2021-08-19 15:20:07.212,-0.42,0.48
2021-08-19 15:20:07.216,-0.405,0.51
2021-08-19 15:20:07.220,-0.41,0.575
2021-08-19 15:20:07.224,-0.425,0.565
2021-08-19 15:20:07.228,-0.445,0.59
2021-08-19 15:20:07.232,-0.46,0.575
2021-08-19 15:20:07.236,-0.41,0.58
2021-08-19 15:20:07.240,-0.36,0.58
2021-08-19 15:20:07.244,-0.345,0.625
2021-08-19 15:20:07.248,-0.365,0.66
2021-08-19 15:20:07.252,-0.44,0.68
2021-08-19 15:20:07.256,-0.48,0.695
2021-08-19 15:20:07.260,-0.46,0.685
2021-08-19 15:20:07.264,-0.43,0.7
2021-08-19 15:20:07.268,-0.43,0.67
2021-08-19 15:20:07.272,-0.435,0.715
2021-08-19 15:20:07.276,-0.46,0.72
2021-08-19 15:20:07.280,-0.495,0.745
2021-08-19 15:20:07.284,-0.49,0.72
2021-08-19 15:20:07.288,-0.485,0.725
2021-08-19 15:20:07.292,-0.47,0.76
2021-08-19 15:20:07.296,-0.44,0.745
2021-08-19 15:20:07.300,-0.48,0.755
2021-08-19 15:20:07.304,-0.47,0.755
2021-08-19 15:20:07.308,-0.43,0.785
2021-08-19 15:20:07.312,-0.425,0.785
2021-08-19 15:20:07.316,-0.37,0.78
2021-08-19 15:20:07.320,-0.31,0.79
2021-08-19 15:20:07.324,-0.175,0.8
2021-08-19 15:20:07.328,0.005,0.805
2021-08-19 15:20:07.332,0.2,0.83
2021-08-19 15:20:07.336,0.33,0.845
2021-08-19 15:20:07.340,0.34,0.9
2021-08-19 15:20:07.344,0.115,0.985
2021-08-19 15:20:07.348,-0.215,0.975
2021-08-19 15:20:07.352,-0.475,0.935
2021-08-19 15:20:07.356,-0.585,0.895
2021-08-19 15:20:07.360,-0.585,0.97
2021-08-19 15:20:07.364,-0.6,1.1
2021-08-19 15:20:07.368,-0.66,1.26
2021-08-19 15:20:07.372,-0.74,1.42
2021-08-19 15:20:07.376,-0.785,1.595
2021-08-19 15:20:07.380,-0.82,1.815
2021-08-19 15:20:07.384,-0.805,1.93
2021-08-19 15:20:07.388,-0.755,1.93
2021-08-19 15:20:07.392,-0.68,1.785
2021-08-19 15:20:07.396,-0.57,1.615
2021-08-19 15:20:07.400,-0.47,1.535
2021-08-19 15:20:07.404,-0.44,1.475
2021-08-19 15:20:07.408,-0.455,1.39
2021-08-19 15:20:07.412,-0.44,1.18
2021-08-19 15:20:07.416,-0.395,1.035
2021-08-19 15:20:07.420,-0.32,0.905
2021-08-19 15:20:07.424,-0.28,0.81
2021-08-19 15:20:07.428,-0.3,0.775
2021-08-19 15:20:07.432,-0.37,0.74
2021-08-19 15:20:07.436,-0.415,0.7
2021-08-19 15:20:07.440,-0.385,0.66
2021-08-19 15:20:07.444,-0.35,0.655
2021-08-19 15:20:07.448,-0.31,0.65
2021-08-19 15:20:07.452,-0.325,0.65
2021-08-19 15:20:07.456,-0.38,0.675
2021-08-19 15:20:07.460,-0.415,0.67
2021-08-19 15:20:07.464,-0.405,0.655
2021-08-19 15:20:07.468,-0.355,0.635
2021-08-19 15:20:07.472,-0.32,0.61
2021-08-19 15:20:07.476,-0.37,0.61
2021-08-19 15:20:07.480,-0.42,0.62
2021-08-19 15:20:07.484,-0.39,0.62
2021-08-19 15:20:07.488,-0.375,0.58
2021-08-19 15:20:07.492,-0.395,0.57
2021-08-19 15:20:07.496,-0.48,0.545
2021-08-19 15:20:07.500,-0.46,0.535
2021-08-19 15:20:07.504,-0.42,0.505
2021-08-19 15:20:07.508,-0.35,0.49
2021-08-19 15:20:07.512,-0.335,0.49
2021-08-19 15:20:07.516,-0.33,0.475
2021-08-19 15:20:07.520,-0.355,0.475
2021-08-19 15:20:07.524,-0.35,0.46
2021-08-19 15:20:07.528,-0.32,0.415
2021-08-19 15:20:07.532,-0.28,0.405
2021-08-19 15:20:07.536,-0.245,0.37
2021-08-19 15:20:07.540,-0.21,0.335
2021-08-19 15:20:07.544,-0.175,0.29
2021-08-19 15:20:07.548,-0.19,0.29
2021-08-19 15:20:07.552,-0.285,0.23
2021-08-19 15:20:07.556,-0.33,0.175
2021-08-19 15:20:07.560,-0.315,0.175
2021-08-19 15:20:07.564,-0.275,0.15
2021-08-19 15:20:07.568,-0.235,0.09
2021-08-19 15:20:07.572,-0.21,0.09
2021-08-19 15:20:07.576,-0.26,0.095
2021-08-19 15:20:07.580,-0.285,0.1
2021-08-19 15:20:07.584,-0.315,0.065
2021-08-19 15:20:07.588,-0.325,0.035
2021-08-19 15:20:07.592,-0.33,0.0
2021-08-19 15:20:07.596,-0.32,-0.035
2021-08-19 15:20:07.600,-0.29,0.005
2021-08-19 15:20:07.604,-0.29,0.05
2021-08-19 15:20:07.608,-0.26,0.03
2021-08-19 15:20:07.612,-0.24,-0.005
2021-08-19 15:20:07.616,-0.27,-0.005
2021-08-19 15:20:07.620,-0.27,0.0
2021-08-19 15:20:07.624,-0.295,0.0
2021-08-19 15:20:07.628,-0.285,0.0
2021-08-19 15:20:07.632,-0.31,0.015
2021-08-19 15:20:07.636,-0.32,0.015
2021-08-19 15:20:07.640,-0.32,0.025
2021-08-19 15:20:07.644,-0.315,0.045
2021-08-19 15:20:07.648,-0.31,0.01
2021-08-19 15:20:07.652,-0.375,-0.015
2021-08-19 15:20:07.656,-0.42,-0.035
2021-08-19 15:20:07.660,-0.42,-0.05
2021-08-19 15:20:07.664,-0.375,-0.06
2021-08-19 15:20:07.668,-0.38,-0.05
2021-08-19 15:20:07.672,-0.38,-0.05
2021-08-19 15:20:07.676,-0.36,-0.04
2021-08-19 15:20:07.680,-0.35,-0.055
2021-08-19 15:20:07.684,-0.345,-0.05
2021-08-19 15:20:07.688,-0.395,-0.05
2021-08-19 15:20:07.692,-0.43,-0.055
2021-08-19 15:20:07.696,-0.435,-0.05
2021-08-19 15:20:07.700,-0.42,-0.05
2021-08-19 15:20:07.704,-0.365,-0.06
2021-08-19 15:20:07.708,-0.335,-0.03
2021-08-19 15:20:07.712,-0.32,-0.045
2021-08-19 15:20:07.716,-0.4,-0.055
2021-08-19 15:20:07.720,-0.48,-0.055
2021-08-19 15:20:07.724,-0.505,-0.07
2021-08-19 15:20:07.728,-0.465,-0.095
2021-08-19 15:20:07.732,-0.41,-0.125
2021-08-19 15:20:07.736,-0.405,-0.11
2021-08-19 15:20:07.740,-0.415,-0.1
2021-08-19 15:20:07.744,-0.405,-0.09
2021-08-19 15:20:07.748,-0.415,-0.115
2021-08-19 15:20:07.752,-0.42,-0.105
2021-08-19 15:20:07.756,-0.43,-0.11
2021-08-19 15:20:07.760,-0.395,-0.11
2021-08-19 15:20:07.764,-0.395,-0.095
2021-08-19 15:20:07.768,-0.355,-0.115
2021-08-19 15:20:07.772,-0.315,-0.125
2021-08-19 15:20:07.776,-0.34,-0.085
2021-08-19 15:20:07.780,-0.375,-0.115
2021-08-19 15:20:07.784,-0.425,-0.135
2021-08-19 15:20:07.788,-0.43,-0.11
2021-08-19 15:20:07.792,-0.405,-0.115
2021-08-19 15:20:07.796,-0.405,-0.12
2021-08-19 15:20:07.800,-0.405,-0.09
2021-08-19 15:20:07.804,-0.46,-0.085
2021-08-19 15:20:07.808,-0.55,-0.065
2021-08-19 15:20:07.812,-0.55,-0.06
2021-08-19 15:20:07.816,-0.53,-0.09
2021-08-19 15:20:07.820,-0.515,-0.07
2021-08-19 15:20:07.824,-0.515,-0.07
2021-08-19 15:20:07.828,-0.5,-0.05
2021-08-19 15:20:07.832,-0.485,-0.02
2021-08-19 15:20:07.836,-0.45,-0.02
2021-08-19 15:20:07.840,-0.415,-0.045
2021-08-19 15:20:07.844,-0.38,-0.03
2021-08-19 15:20:07.848,-0.37,0.0
2021-08-19 15:20:07.852,-0.375,0.0
2021-08-19 15:20:07.856,-0.365,0.03
2021-08-19 15:20:07.860,-0.345,0.015
2021-08-19 15:20:07.864,-0.325,0.02
2021-08-19 15:20:07.868,-0.34,-0.01
2021-08-19 15:20:07.872,-0.365,0.0
2021-08-19 15:20:07.876,-0.395,0.01
2021-08-19 15:20:07.880,-0.405,-0.005
2021-08-19 15:20:07.884,-0.41,-0.02
2021-08-19 15:20:07.888,-0.395,-0.025
2021-08-19 15:20:07.892,-0.39,-0.03
2021-08-19 15:20:07.896,-0.41,-0.035
2021-08-19 15:20:07.900,-0.42,-0.02
2021-08-19 15:20:07.904,-0.41,-0.045
2021-08-19 15:20:07.908,-0.43,-0.055
2021-08-19 15:20:07.912,-0.395,-0.045
2021-08-19 15:20:07.916,-0.365,-0.015
2021-08-19 15:20:07.920,-0.375,0.005
2021-08-19 15:20:07.924,-0.43,-0.055
2021-08-19 15:20:07.928,-0.5,-0.095
2021-08-19 15:20:07.932,-0.495,-0.085
2021-08-19 15:20:07.936,-0.35,-0.075
2021-08-19 15:20:07.940,-0.16,-0.045
2021-08-19 15:20:07.944,0.055,-0.02
2021-08-19 15:20:07.948,0.205,0.03
2021-08-19 15:20:07.952,0.245,0.085
2021-08-19 15:20:07.956,0.105,0.11
2021-08-19 15:20:07.960,-0.145,0.11
2021-08-19 15:20:07.964,-0.415,0.085
2021-08-19 15:20:07.968,-0.51,0.06
2021-08-19 15:20:07.972,-0.57,0.03
2021-08-19 15:20:07.976,-0.6,0.115
2021-08-19 15:20:07.980,-0.64,0.23
2021-08-19 15:20:07.984,-0.665,0.395
2021-08-19 15:20:07.988,-0.725,0.585
2021-08-19 15:20:07.992,-0.815,0.765
2021-08-19 15:20:07.996,-0.87,0.95
2021-08-19 15:20:08.000,-0.85,1.045
2021-08-19 15:20:08.004,-0.79,1.0
2021-08-19 15:20:08.008,-0.7,0.875
2021-08-19 15:20:08.012,-0.605,0.75
2021-08-19 15:20:08.016,-0.53,0.7
2021-08-19 15:20:08.020,-0.49,0.65
2021-08-19 15:20:08.024,-0.455,0.55
2021-08-19 15:20:08.028,-0.415,0.39
2021-08-19 15:20:08.032,-0.34,0.24
2021-08-19 15:20:08.036,-0.31,0.145
2021-08-19 15:20:08.040,-0.32,0.09
2021-08-19 15:20:08.044,-0.38,0.075
2021-08-19 15:20:08.048,-0.405,0.025
2021-08-19 15:20:08.052,-0.36,0.02
2021-08-19 15:20:08.056,-0.315,0.0
2021-08-19 15:20:08.060,-0.3,-0.02
2021-08-19 15:20:08.064,-0.305,-0.02
2021-08-19 15:20:08.068,-0.295,-0.035
2021-08-19 15:20:08.072,-0.28,-0.055
2021-08-19 15:20:08.076,-0.285,-0.08
2021-08-19 15:20:08.080,-0.305,-0.125
2021-08-19 15:20:08.084,-0.275,-0.095
2021-08-19 15:20:08.088,-0.275,-0.1
2021-08-19 15:20:08.092,-0.255,-0.105
2021-08-19 15:20:08.096,-0.305,-0.14
2021-08-19 15:20:08.100,-0.35,-0.155
2021-08-19 15:20:08.104,-0.37,-0.14
2021-08-19 15:20:08.108,-0.37,-0.175
2021-08-19 15:20:08.112,-0.36,-0.17
2021-08-19 15:20:08.116,-0.335,-0.16
2021-08-19 15:20:08.120,-0.325,-0.185
2021-08-19 15:20:08.124,-0.33,-0.185
2021-08-19 15:20:08.128,-0.31,-0.19
2021-08-19 15:20:08.132,-0.285,-0.23
2021-08-19 15:20:08.136,-0.305,-0.21
2021-08-19 15:20:08.140,-0.335,-0.2
2021-08-19 15:20:08.144,-0.355,-0.205
2021-08-19 15:20:08.148,-0.305,-0.215
2021-08-19 15:20:08.152,-0.265,-0.25
2021-08-19 15:20:08.156,-0.265,-0.285
2021-08-19 15:20:08.160,-0.3,-0.28
2021-08-19 15:20:08.164,-0.345,-0.245
2021-08-19 15:20:08.168,-0.285,-0.225
2021-08-19 15:20:08.172,-0.24,-0.245
2021-08-19 15:20:08.176,-0.24,-0.29
2021-08-19 15:20:08.180,-0.235,-0.29
2021-08-19 15:20:08.184,-0.2,-0.285
2021-08-19 15:20:08.188,-0.21,-0.3
2021-08-19 15:20:08.192,-0.26,-0.3
2021-08-19 15:20:08.196,-0.315,-0.3
2021-08-19 15:20:08.200,-0.33,-0.32
2021-08-19 15:20:08.204,-0.32,-0.34
2021-08-19 15:20:08.208,-0.31,-0.3
2021-08-19 15:20:08.212,-0.3,-0.29
2021-08-19 15:20:08.216,-0.295,-0.26
2021-08-19 15:20:08.220,-0.28,-0.24
2021-08-19 15:20:08.224,-0.27,-0.215
2021-08-19 15:20:08.228,-0.31,-0.22
2021-08-19 15:20:08.232,-0.335,-0.205
2021-08-19 15:20:08.236,-0.37,-0.175
2021-08-19 15:20:08.240,-0.365,-0.175
2021-08-19 15:20:08.244,-0.345,-0.14
2021-08-19 15:20:08.248,-0.375,-0.11
2021-08-19 15:20:08.252,-0.38,-0.07
2021-08-19 15:20:08.256,-0.35,-0.065
2021-08-19 15:20:08.260,-0.325,-0.025
2021-08-19 15:20:08.264,-0.32,-0.03
2021-08-19 15:20:08.268,-0.31,-0.04
2021-08-19 15:20:08.272,-0.3,-0.025
2021-08-19 15:20:08.276,-0.315,-0.035
2021-08-19 15:20:08.280,-0.34,-0.025
2021-08-19 15:20:08.284,-0.3,-0.015
2021-08-19 15:20:08.288,-0.28,-0.025
2021-08-19 15:20:08.292,-0.275,-0.01
2021-08-19 15:20:08.296,-0.25,0.0
2021-08-19 15:20:08.300,-0.125,0.0
2021-08-19 15:20:08.304,0.055,0.015
2021-08-19 15:20:08.308,0.275,0.035
2021-08-19 15:20:08.312,0.355,0.07
2021-08-19 15:20:08.316,0.28,0.11
2021-08-19 15:20:08.320,0.075,0.07
2021-08-19 15:20:08.324,-0.13,0.01
2021-08-19 15:20:08.328,-0.265,-0.025
2021-08-19 15:20:08.332,-0.4,-0.05
2021-08-19 15:20:08.336,-0.565,0.02
2021-08-19 15:20:08.340,-0.685,0.23
2021-08-19 15:20:08.344,-0.73,0.465
2021-08-19 15:20:08.348,-0.755,0.715
2021-08-19 15:20:08.352,-0.765,0.89
2021-08-19 15:20:08.356,-0.745,0.99
2021-08-19 15:20:08.360,-0.655,0.935
2021-08-19 15:20:08.364,-0.565,0.82
2021-08-19 15:20:08.368,-0.48,0.74
2021-08-19 15:20:08.372,-0.425,0.705
2021-08-19 15:20:08.376,-0.385,0.65
2021-08-19 15:20:08.380,-0.37,0.51
2021-08-19 15:20:08.384,-0.355,0.34
2021-08-19 15:20:08.388,-0.335,0.19
2021-08-19 15:20:08.392,-0.29,0.12
2021-08-19 15:20:08.396,-0.285,0.065
2021-08-19 15:20:08.400,-0.305,0.04
2021-08-19 15:20:08.404,-0.335,0.025
2021-08-19 15:20:08.408,-0.34,0.005
2021-08-19 15:20:08.412,-0.33,0.0
2021-08-19 15:20:08.416,-0.275,-0.005
2021-08-19 15:20:08.420,-0.265,-0.015
2021-08-19 15:20:08.424,-0.27,-0.005
2021-08-19 15:20:08.428,-0.28,-0.015
2021-08-19 15:20:08.432,-0.29,-0.025
2021-08-19 15:20:08.436,-0.285,-0.005
2021-08-19 15:20:08.440,-0.285,0.025
2021-08-19 15:20:08.444,-0.275,0.0
2021-08-19 15:20:08.448,-0.28,-0.025
2021-08-19 15:20:08.452,-0.25,0.0
2021-08-19 15:20:08.456,-0.235,0.0
2021-08-19 15:20:08.460,-0.2,-0.035
2021-08-19 15:20:08.464,-0.21,-0.05
2021-08-19 15:20:08.468,-0.21,-0.035
2021-08-19 15:20:08.472,-0.22,-0.045
2021-08-19 15:20:08.476,-0.215,-0.085
2021-08-19 15:20:08.480,-0.195,-0.11
2021-08-19 15:20:08.484,-0.165,-0.145
2021-08-19 15:20:08.488,-0.19,-0.135
2021-08-19 15:20:08.492,-0.2,-0.085
2021-08-19 15:20:08.496,-0.19,-0.13
2021-08-19 15:20:08.500,-0.175,-0.15
2021-08-19 15:20:08.504,-0.185,-0.185
2021-08-19 15:20:08.508,-0.185,-0.2
2021-08-19 15:20:08.512,-0.16,-0.215
2021-08-19 15:20:08.516,-0.155,-0.22
2021-08-19 15:20:08.520,-0.16,-0.19
2021-08-19 15:20:08.524,-0.145,-0.21
2021-08-19 15:20:08.528,-0.155,-0.245
2021-08-19 15:20:08.532,-0.155,-0.22
2021-08-19 15:20:08.536,-0.17,-0.235
2021-08-19 15:20:08.540,-0.175,-0.235
2021-08-19 15:20:08.544,-0.135,-0.25
2021-08-19 15:20:08.548,-0.1,-0.21
2021-08-19 15:20:08.552,-0.1,-0.25
2021-08-19 15:20:08.556,-0.13,-0.26
2021-08-19 15:20:08.560,-0.18,-0.245
2021-08-19 15:20:08.564,-0.215,-0.27
2021-08-19 15:20:08.568,-0.22,-0.245
2021-08-19 15:20:08.572,-0.19,-0.225
2021-08-19 15:20:08.576,-0.155,-0.21
2021-08-19 15:20:08.580,-0.165,-0.2
2021-08-19 15:20:08.584,-0.17,-0.18
2021-08-19 15:20:08.588,-0.195,-0.16
2021-08-19 15:20:08.592,-0.21,-0.135
2021-08-19 15:20:08.596,-0.23,-0.105
2021-08-19 15:20:08.600,-0.245,-0.1
2021-08-19 15:20:08.604,-0.25,-0.1
2021-08-19 15:20:08.608,-0.24,-0.075
2021-08-19 15:20:08.612,-0.245,-0.035
2021-08-19 15:20:08.616,-0.265,-0.03
2021-08-19 15:20:08.620,-0.27,-0.03
2021-08-19 15:20:08.624,-0.245,-0.02
2021-08-19 15:20:08.628,-0.215,0.0
2021-08-19 15:20:08.632,-0.21,0.025
2021-08-19 15:20:08.636,-0.195,0.035
2021-08-19 15:20:08.640,-0.2,0.025
2021-08-19 15:20:08.644,-0.22,0.04
2021-08-19 15:20:08.648,-0.13,0.06
2021-08-19 15:20:08.652,0.07,0.06
2021-08-19 15:20:08.656,0.285,0.09
2021-08-19 15:20:08.660,0.495,0.145
2021-08-19 15:20:08.664,0.58,0.175
2021-08-19 15:20:08.668,0.455,0.22
2021-08-19 15:20:08.672,0.155,0.195
2021-08-19 15:20:08.676,-0.12,0.175
2021-08-19 15:20:08.680,-0.295,0.14
2021-08-19 15:20:08.684,-0.355,0.13
2021-08-19 15:20:08.688,-0.425,0.215
2021-08-19 15:20:08.692,-0.465,0.39
2021-08-19 15:20:08.696,-0.55,0.555
2021-08-19 15:20:08.700,-0.655,0.74
2021-08-19 15:20:08.704,-0.715,0.93
2021-08-19 15:20:08.708,-0.73,1.09
2021-08-19 15:20:08.712,-0.71,1.14
2021-08-19 15:20:08.716,-0.67,1.045
2021-08-19 15:20:08.720,-0.575,0.93
2021-08-19 15:20:08.724,-0.5,0.795
2021-08-19 15:20:08.728,-0.435,0.75
2021-08-19 15:20:08.732,-0.395,0.69
2021-08-19 15:20:08.736,-0.36,0.51
2021-08-19 15:20:08.740,-0.38,0.3
2021-08-19 15:20:08.744,-0.4,0.17
2021-08-19 15:20:08.748,-0.375,0.075
2021-08-19 15:20:08.752,-0.37,0.0
2021-08-19 15:20:08.756,-0.35,-0.01
2021-08-19 15:20:08.760,-0.345,-0.025
2021-08-19 15:20:08.764,-0.35,-0.05
2021-08-19 15:20:08.768,-0.295,-0.085
2021-08-19 15:20:08.772,-0.295,-0.075
2021-08-19 15:20:08.776,-0.295,-0.095
2021-08-19 15:20:08.780,-0.315,-0.095
2021-08-19 15:20:08.784,-0.315,-0.125
2021-08-19 15:20:08.788,-0.3,-0.13
2021-08-19 15:20:08.792,-0.275,-0.14
2021-08-19 15:20:08.796,-0.285,-0.185
2021-08-19 15:20:08.800,-0.295,-0.155
2021-08-19 15:20:08.804,-0.31,-0.145
2021-08-19 15:20:08.808,-0.295,-0.165
2021-08-19 15:20:08.812,-0.32,-0.185
2021-08-19 15:20:08.816,-0.3,-0.21
2021-08-19 15:20:08.820,-0.27,-0.19
2021-08-19 15:20:08.824,-0.26,-0.21
2021-08-19 15:20:08.828,-0.25,-0.23
2021-08-19 15:20:08.832,-0.27,-0.245
2021-08-19 15:20:08.836,-0.25,-0.235
2021-08-19 15:20:08.840,-0.245,-0.245
2021-08-19 15:20:08.844,-0.255,-0.26
2021-08-19 15:20:08.848,-0.265,-0.265
2021-08-19 15:20:08.852,-0.235,-0.26
2021-08-19 15:20:08.856,-0.22,-0.26
2021-08-19 15:20:08.860,-0.235,-0.27
2021-08-19 15:20:08.864,-0.225,-0.29
