Time,ECG1,ECG2
2021-08-19 05:40:01.640,-0.04,-0.17
2021-08-19 05:40:01.644,-0.05,-0.15
2021-08-19 05:40:01.648,-0.045,-0.135
2021-08-19 05:40:01.652,-0.07,-0.14
2021-08-19 05:40:01.656,-0.055,-0.12
2021-08-19 05:40:01.660,-0.09,-0.115
2021-08-19 05:40:01.664,-0.095,-0.13
2021-08-19 05:40:01.668,-0.1,-0.105
2021-08-19 05:40:01.672,-0.11,-0.115
2021-08-19 05:40:01.676,-0.125,-0.105
2021-08-19 05:40:01.680,-0.085,-0.105
2021-08-19 05:40:01.684,-0.105,-0.105
2021-08-19 05:40:01.688,-0.08,-0.1
2021-08-19 05:40:01.692,-0.08,-0.11
2021-08-19 05:40:01.696,-0.09,-0.11
2021-08-19 05:40:01.700,-0.11,-0.13
2021-08-19 05:40:01.704,-0.065,-0.135
2021-08-19 05:40:01.708,-0.09,-0.105
2021-08-19 05:40:01.712,-0.09,-0.115
2021-08-19 05:40:01.716,-0.075,-0.105
2021-08-19 05:40:01.720,-0.08,-0.085
2021-08-19 05:40:01.724,-0.055,-0.065
2021-08-19 05:40:01.728,-0.05,-0.065
2021-08-19 05:40:01.732,-0.05,-0.035
2021-08-19 05:40:01.736,-0.04,-0.04
2021-08-19 05:40:01.740,-0.04,-0.015
2021-08-19 05:40:01.744,-0.025,-0.01
2021-08-19 05:40:01.748,-0.015,0.005
2021-08-19 05:40:01.752,0.025,0.0
2021-08-19 05:40:01.756,0.035,0.025
2021-08-19 05:40:01.760,0.035,0.065
2021-08-19 05:40:01.764,0.04,0.075
2021-08-19 05:40:01.768,0.045,0.075
2021-08-19 05:40:01.772,0.015,0.095
2021-08-19 05:40:01.776,0.035,0.095
2021-08-19 05:40:01.780,0.02,0.11
2021-08-19 05:40:01.784,0.04,0.085
2021-08-19 05:40:01.788,0.025,0.04
2021-08-19 05:40:01.792,0.015,0.02
2021-08-19 05:40:01.796,0.02,0.005
2021-08-19 05:40:01.800,0.02,-0.01
2021-08-19 05:40:01.804,0.06,-0.015
2021-08-19 05:40:01.808,0.085,-0.02
2021-08-19 05:40:01.812,0.095,-0.01
2021-08-19 05:40:01.816,0.105,-0.015
2021-08-19 05:40:01.820,0.08,-0.005
2021-08-19 05:40:01.824,0.085,0.0
2021-08-19 05:40:01.828,0.105,-0.035
2021-08-19 05:40:01.832,0.115,0.0
2021-08-19 05:40:01.836,0.115,0.01
2021-08-19 05:40:01.840,0.095,0.0
2021-08-19 05:40:01.844,0.085,-0.02
2021-08-19 05:40:01.848,0.04,-0.01
2021-08-19 05:40:01.852,-0.01,-0.02
2021-08-19 05:40:01.856,-0.045,0.045
2021-08-19 05:40:01.860,-0.085,0.115
2021-08-19 05:40:01.864,-0.11,0.185
2021-08-19 05:40:01.868,-0.115,0.325
2021-08-19 05:40:01.872,-0.13,0.575
2021-08-19 05:40:01.876,-0.095,0.795
2021-08-19 05:40:01.880,-0.045,0.915
2021-08-19 05:40:01.884,-0.06,0.83
2021-08-19 05:40:01.888,-0.09,0.6
2021-08-19 05:40:01.892,-0.145,0.315
2021-08-19 05:40:01.896,-0.19,-0.015
2021-08-19 05:40:01.900,-0.265,-0.365
2021-08-19 05:40:01.904,-0.415,-0.695
2021-08-19 05:40:01.908,-0.725,-0.75
2021-08-19 05:40:01.912,-1.145,-0.405
2021-08-19 05:40:01.916,-1.445,-0.035
2021-08-19 05:40:01.920,-1.665,0.065
2021-08-19 05:40:01.924,-1.745,-0.05
2021-08-19 05:40:01.928,-1.63,-0.23
2021-08-19 05:40:01.932,-1.28,-0.385
2021-08-19 05:40:01.936,-0.825,-0.485
2021-08-19 05:40:01.940,-0.465,-0.475
2021-08-19 05:40:01.944,-0.29,-0.41
2021-08-19 05:40:01.948,-0.22,-0.265
2021-08-19 05:40:01.952,-0.2,-0.16
2021-08-19 05:40:01.956,-0.225,-0.105
2021-08-19 05:40:01.960,-0.25,-0.1
2021-08-19 05:40:01.964,-0.215,-0.085
2021-08-19 05:40:01.968,-0.155,-0.075
2021-08-19 05:40:01.972,-0.125,-0.04
2021-08-19 05:40:01.976,-0.04,-0.04
2021-08-19 05:40:01.980,-0.01,-0.025
2021-08-19 05:40:01.984,0.0,-0.045
2021-08-19 05:40:01.988,0.01,-0.06
2021-08-19 05:40:01.992,0.02,-0.1
2021-08-19 05:40:01.996,0.045,-0.11
2021-08-19 05:40:02.000,0.045,-0.13
2021-08-19 05:40:02.004,0.09,-0.12
2021-08-19 05:40:02.008,0.115,-0.145
2021-08-19 05:40:02.012,0.12,-0.145
2021-08-19 05:40:02.016,0.12,-0.15
2021-08-19 05:40:02.020,0.13,-0.125
2021-08-19 05:40:02.024,0.14,-0.115
2021-08-19 05:40:02.028,0.145,-0.11
2021-08-19 05:40:02.032,0.15,-0.1
2021-08-19 05:40:02.036,0.115,-0.125
2021-08-19 05:40:02.040,0.11,-0.115
2021-08-19 05:40:02.044,0.085,-0.13
2021-08-19 05:40:02.048,0.05,-0.14
2021-08-19 05:40:02.052,0.02,-0.135
2021-08-19 05:40:02.056,0.0,-0.14
2021-08-19 05:40:02.060,-0.02,-0.15
2021-08-19 05:40:02.064,-0.04,-0.16
2021-08-19 05:40:02.068,-0.055,-0.16
2021-08-19 05:40:02.072,-0.05,-0.18
2021-08-19 05:40:02.076,-0.07,-0.185
2021-08-19 05:40:02.080,-0.055,-0.18
2021-08-19 05:40:02.084,-0.035,-0.195
2021-08-19 05:40:02.088,-0.035,-0.185
2021-08-19 05:40:02.092,-0.02,-0.185
2021-08-19 05:40:02.096,-0.04,-0.19
2021-08-19 05:40:02.100,-0.04,-0.16
2021-08-19 05:40:02.104,-0.005,-0.16
2021-08-19 05:40:02.108,-0.04,-0.14
2021-08-19 05:40:02.112,-0.025,-0.145
2021-08-19 05:40:02.116,0.01,-0.12
2021-08-19 05:40:02.120,0.0,-0.125
2021-08-19 05:40:02.124,0.025,-0.145
2021-08-19 05:40:02.128,0.025,-0.105
2021-08-19 05:40:02.132,0.035,-0.11
2021-08-19 05:40:02.136,0.045,-0.12
2021-08-19 05:40:02.140,0.07,-0.11
2021-08-19 05:40:02.144,0.035,-0.125
2021-08-19 05:40:02.148,0.05,-0.09
2021-08-19 05:40:02.152,0.065,-0.085
2021-08-19 05:40:02.156,0.07,-0.08
2021-08-19 05:40:02.160,0.065,-0.07
2021-08-19 05:40:02.164,0.08,-0.055
2021-08-19 05:40:02.168,0.05,-0.025
2021-08-19 05:40:02.172,0.05,-0.005
2021-08-19 05:40:02.176,0.085,0.0
2021-08-19 05:40:02.180,0.07,0.025
2021-08-19 05:40:02.184,0.07,-0.005
2021-08-19 05:40:02.188,0.055,0.015
2021-08-19 05:40:02.192,0.08,0.005
2021-08-19 05:40:02.196,0.11,0.015
2021-08-19 05:40:02.200,0.135,0.01
2021-08-19 05:40:02.204,0.155,0.01
2021-08-19 05:40:02.208,0.15,0.005
2021-08-19 05:40:02.212,0.165,0.015
2021-08-19 05:40:02.216,0.185,0.0
2021-08-19 05:40:02.220,0.18,0.025
2021-08-19 05:40:02.224,0.165,0.015
2021-08-19 05:40:02.228,0.125,0.0
2021-08-19 05:40:02.232,0.09,-0.01
2021-08-19 05:40:02.236,0.045,0.0
2021-08-19 05:40:02.240,-0.01,-0.01
2021-08-19 05:40:02.244,-0.05,-0.02
2021-08-19 05:40:02.248,-0.08,-0.045
2021-08-19 05:40:02.252,-0.08,-0.05
2021-08-19 05:40:02.256,-0.12,-0.055
2021-08-19 05:40:02.260,-0.11,-0.085
2021-08-19 05:40:02.264,-0.125,-0.085
2021-08-19 05:40:02.268,-0.135,-0.075
2021-08-19 05:40:02.272,-0.145,-0.095
2021-08-19 05:40:02.276,-0.145,-0.09
2021-08-19 05:40:02.280,-0.13,-0.085
2021-08-19 05:40:02.284,-0.125,-0.095
2021-08-19 05:40:02.288,-0.135,-0.055
2021-08-19 05:40:02.292,-0.15,-0.06
2021-08-19 05:40:02.296,-0.15,-0.045
2021-08-19 05:40:02.300,-0.125,-0.03
2021-08-19 05:40:02.304,-0.115,-0.01
2021-08-19 05:40:02.308,-0.12,-0.005
2021-08-19 05:40:02.312,-0.11,0.0
2021-08-19 05:40:02.316,-0.08,0.02
2021-08-19 05:40:02.320,-0.07,0.025
2021-08-19 05:40:02.324,-0.055,0.02
2021-08-19 05:40:02.328,-0.04,0.03
2021-08-19 05:40:02.332,-0.055,0.02
2021-08-19 05:40:02.336,-0.035,0.02
2021-08-19 05:40:02.340,-0.025,0.0
2021-08-19 05:40:02.344,-0.06,0.0
2021-08-19 05:40:02.348,-0.05,-0.01
2021-08-19 05:40:02.352,-0.06,-0.035
2021-08-19 05:40:02.356,-0.055,-0.025
2021-08-19 05:40:02.360,-0.07,-0.055
2021-08-19 05:40:02.364,-0.06,-0.06
2021-08-19 05:40:02.368,-0.065,-0.02
2021-08-19 05:40:02.372,-0.065,0.0
2021-08-19 05:40:02.376,-0.07,-0.005
2021-08-19 05:40:02.380,-0.085,-0.02
2021-08-19 05:40:02.384,-0.09,-0.02
2021-08-19 05:40:02.388,-0.055,-0.03
2021-08-19 05:40:02.392,-0.065,-0.04
2021-08-19 05:40:02.396,-0.04,-0.04
2021-08-19 05:40:02.400,0.02,-0.04
2021-08-19 05:40:02.404,0.04,-0.05
2021-08-19 05:40:02.408,0.055,-0.08
2021-08-19 05:40:02.412,0.085,-0.095
2021-08-19 05:40:02.416,0.065,-0.085
2021-08-19 05:40:02.420,0.05,-0.1
2021-08-19 05:40:02.424,0.015,-0.115
2021-08-19 05:40:02.428,-0.055,-0.135
2021-08-19 05:40:02.432,-0.09,-0.135
2021-08-19 05:40:02.436,-0.125,-0.145
2021-08-19 05:40:02.440,-0.14,-0.13
2021-08-19 05:40:02.444,-0.15,-0.155
2021-08-19 05:40:02.448,-0.175,-0.15
2021-08-19 05:40:02.452,-0.16,-0.15
2021-08-19 05:40:02.456,-0.17,-0.185
2021-08-19 05:40:02.460,-0.155,-0.175
2021-08-19 05:40:02.464,-0.16,-0.18
2021-08-19 05:40:02.468,-0.15,-0.175
2021-08-19 05:40:02.472,-0.16,-0.165
2021-08-19 05:40:02.476,-0.175,-0.165
2021-08-19 05:40:02.480,-0.18,-0.185
2021-08-19 05:40:02.484,-0.165,-0.155
2021-08-19 05:40:02.488,-0.145,-0.155
2021-08-19 05:40:02.492,-0.15,-0.15
2021-08-19 05:40:02.496,-0.135,-0.12
2021-08-19 05:40:02.500,-0.12,-0.115
2021-08-19 05:40:02.504,-0.135,-0.08
2021-08-19 05:40:02.508,-0.14,-0.075
2021-08-19 05:40:02.512,-0.14,-0.045
2021-08-19 05:40:02.516,-0.13,-0.045
2021-08-19 05:40:02.520,-0.11,-0.055
2021-08-19 05:40:02.524,-0.115,-0.035
2021-08-19 05:40:02.528,-0.075,-0.04
2021-08-19 05:40:02.532,-0.065,-0.04
2021-08-19 05:40:02.536,-0.07,-0.045
2021-08-19 05:40:02.540,-0.065,-0.015
2021-08-19 05:40:02.544,-0.055,-0.02
2021-08-19 05:40:02.548,-0.08,-0.02
2021-08-19 05:40:02.552,-0.07,-0.02
2021-08-19 05:40:02.556,-0.07,-0.03
2021-08-19 05:40:02.560,-0.08,-0.03
2021-08-19 05:40:02.564,-0.08,-0.02
2021-08-19 05:40:02.568,-0.075,-0.02
2021-08-19 05:40:02.572,-0.06,-0.005
2021-08-19 05:40:02.576,-0.055,0.005
2021-08-19 05:40:02.580,-0.07,0.04
2021-08-19 05:40:02.584,-0.075,0.025
2021-08-19 05:40:02.588,-0.075,0.035
2021-08-19 05:40:02.592,-0.07,0.01
2021-08-19 05:40:02.596,-0.025,0.0
2021-08-19 05:40:02.600,0.03,0.0
2021-08-19 05:40:02.604,0.055,-0.01
2021-08-19 05:40:02.608,0.08,-0.02
2021-08-19 05:40:02.612,0.085,-0.02
2021-08-19 05:40:02.616,0.07,-0.025
2021-08-19 05:40:02.620,0.07,-0.025
2021-08-19 05:40:02.624,0.045,-0.055
2021-08-19 05:40:02.628,-0.015,-0.05
2021-08-19 05:40:02.632,-0.06,-0.045
2021-08-19 05:40:02.636,-0.1,-0.075
2021-08-19 05:40:02.640,-0.11,-0.07
2021-08-19 05:40:02.644,-0.12,-0.08
2021-08-19 05:40:02.648,-0.145,-0.085
2021-08-19 05:40:02.652,-0.15,-0.09
2021-08-19 05:40:02.656,-0.12,-0.09
2021-08-19 05:40:02.660,-0.14,-0.095
2021-08-19 05:40:02.664,-0.14,-0.095
2021-08-19 05:40:02.668,-0.13,-0.12
2021-08-19 05:40:02.672,-0.14,-0.105
2021-08-19 05:40:02.676,-0.13,-0.105
2021-08-19 05:40:02.680,-0.13,-0.09
2021-08-19 05:40:02.684,-0.115,-0.085
2021-08-19 05:40:02.688,-0.145,-0.09
2021-08-19 05:40:02.692,-0.135,-0.07
2021-08-19 05:40:02.696,-0.135,-0.06
2021-08-19 05:40:02.700,-0.115,-0.02
2021-08-19 05:40:02.704,-0.13,0.01
2021-08-19 05:40:02.708,-0.13,0.03
2021-08-19 05:40:02.712,-0.125,0.045
2021-08-19 05:40:02.716,-0.1,0.05
2021-08-19 05:40:02.720,-0.095,0.065
2021-08-19 05:40:02.724,-0.095,0.055
2021-08-19 05:40:02.728,-0.07,0.055
2021-08-19 05:40:02.732,-0.055,0.075
2021-08-19 05:40:02.736,-0.06,0.085
2021-08-19 05:40:02.740,-0.055,0.085
2021-08-19 05:40:02.744,-0.05,0.08
2021-08-19 05:40:02.748,-0.045,0.07
2021-08-19 05:40:02.752,-0.035,0.055
2021-08-19 05:40:02.756,-0.04,0.065
2021-08-19 05:40:02.760,-0.05,0.03
2021-08-19 05:40:02.764,-0.045,0.0
2021-08-19 05:40:02.768,-0.04,-0.035
2021-08-19 05:40:02.772,-0.055,-0.02
2021-08-19 05:40:02.776,-0.055,0.0
2021-08-19 05:40:02.780,-0.04,-0.01
2021-08-19 05:40:02.784,-0.045,0.015
2021-08-19 05:40:02.788,-0.03,0.025
2021-08-19 05:40:02.792,-0.085,0.015
2021-08-19 05:40:02.796,-0.055,0.02
2021-08-19 05:40:02.800,-0.025,0.025
2021-08-19 05:40:02.804,-0.02,0.025
2021-08-19 05:40:02.808,0.0,0.035
2021-08-19 05:40:02.812,0.04,0.01
2021-08-19 05:40:02.816,0.055,-0.01
2021-08-19 05:40:02.820,0.04,0.0
2021-08-19 05:40:02.824,0.0,-0.02
2021-08-19 05:40:02.828,-0.035,-0.03
2021-08-19 05:40:02.832,-0.04,-0.04
2021-08-19 05:40:02.836,-0.08,-0.03
2021-08-19 05:40:02.840,-0.1,-0.045
2021-08-19 05:40:02.844,-0.105,-0.055
2021-08-19 05:40:02.848,-0.1,-0.055
2021-08-19 05:40:02.852,-0.105,-0.065
2021-08-19 05:40:02.856,-0.11,-0.06
2021-08-19 05:40:02.860,-0.105,-0.085
2021-08-19 05:40:02.864,-0.11,-0.09
2021-08-19 05:40:02.868,-0.135,-0.095
2021-08-19 05:40:02.872,-0.12,-0.09
2021-08-19 05:40:02.876,-0.115,-0.095
2021-08-19 05:40:02.880,-0.115,-0.085
2021-08-19 05:40:02.884,-0.11,-0.09
2021-08-19 05:40:02.888,-0.12,-0.075
2021-08-19 05:40:02.892,-0.11,-0.06
2021-08-19 05:40:02.896,-0.1,-0.075
2021-08-19 05:40:02.900,-0.13,-0.05
2021-08-19 05:40:02.904,-0.105,-0.05
2021-08-19 05:40:02.908,-0.11,-0.015
2021-08-19 05:40:02.912,-0.095,0.015
2021-08-19 05:40:02.916,-0.11,0.04
2021-08-19 05:40:02.920,-0.09,0.045
2021-08-19 05:40:02.924,-0.065,0.045
2021-08-19 05:40:02.928,-0.075,0.07
2021-08-19 05:40:02.932,-0.075,0.07
2021-08-19 05:40:02.936,-0.04,0.06
2021-08-19 05:40:02.940,-0.05,0.05
2021-08-19 05:40:02.944,-0.025,0.075
2021-08-19 05:40:02.948,-0.045,0.06
2021-08-19 05:40:02.952,-0.035,0.065
2021-08-19 05:40:02.956,-0.06,0.09
2021-08-19 05:40:02.960,-0.045,0.095
2021-08-19 05:40:02.964,-0.04,0.11
2021-08-19 05:40:02.968,-0.04,0.11
2021-08-19 05:40:02.972,-0.035,0.145
2021-08-19 05:40:02.976,-0.04,0.195
2021-08-19 05:40:02.980,-0.04,0.24
2021-08-19 05:40:02.984,-0.035,0.38
2021-08-19 05:40:02.988,-0.02,0.645
2021-08-19 05:40:02.992,-0.015,0.95
2021-08-19 05:40:02.996,-0.015,1.2
2021-08-19 05:40:03.000,-0.01,1.335
2021-08-19 05:40:03.004,-0.06,1.36
2021-08-19 05:40:03.008,-0.11,1.27
2021-08-19 05:40:03.012,-0.12,1.095
2021-08-19 05:40:03.016,-0.12,0.81
2021-08-19 05:40:03.020,-0.175,0.35
2021-08-19 05:40:03.024,-0.365,-0.035
2021-08-19 05:40:03.028,-0.645,-0.04
2021-08-19 05:40:03.032,-0.96,0.215
2021-08-19 05:40:03.036,-1.17,0.37
2021-08-19 05:40:03.040,-1.335,0.2
2021-08-19 05:40:03.044,-1.36,-0.06
2021-08-19 05:40:03.048,-1.185,-0.25
2021-08-19 05:40:03.052,-0.82,-0.395
2021-08-19 05:40:03.056,-0.425,-0.415
2021-08-19 05:40:03.060,-0.265,-0.375
2021-08-19 05:40:03.064,-0.235,-0.255
2021-08-19 05:40:03.068,-0.26,-0.175
2021-08-19 05:40:03.072,-0.3,-0.15
2021-08-19 05:40:03.076,-0.3,-0.145
2021-08-19 05:40:03.080,-0.29,-0.145
2021-08-19 05:40:03.084,-0.25,-0.16
2021-08-19 05:40:03.088,-0.215,-0.14
2021-08-19 05:40:03.092,-0.14,-0.16
2021-08-19 05:40:03.096,-0.08,-0.125
2021-08-19 05:40:03.100,-0.04,-0.13
2021-08-19 05:40:03.104,-0.06,-0.12
2021-08-19 05:40:03.108,-0.04,-0.105
2021-08-19 05:40:03.112,-0.045,-0.085
2021-08-19 05:40:03.116,-0.04,-0.085
2021-08-19 05:40:03.120,-0.04,-0.075
2021-08-19 05:40:03.124,-0.025,-0.04
2021-08-19 05:40:03.128,-0.01,-0.055
2021-08-19 05:40:03.132,-0.01,-0.035
2021-08-19 05:40:03.136,-0.01,-0.045
2021-08-19 05:40:03.140,-0.01,-0.055
2021-08-19 05:40:03.144,0.025,-0.065
2021-08-19 05:40:03.148,0.02,-0.055
2021-08-19 05:40:03.152,0.035,-0.08
2021-08-19 05:40:03.156,0.025,-0.07
2021-08-19 05:40:03.160,0.03,-0.06
2021-08-19 05:40:03.164,0.03,-0.07
2021-08-19 05:40:03.168,0.065,-0.105
2021-08-19 05:40:03.172,0.035,-0.125
2021-08-19 05:40:03.176,0.04,-0.15
2021-08-19 05:40:03.180,0.03,-0.155
2021-08-19 05:40:03.184,0.04,-0.15
2021-08-19 05:40:03.188,0.02,-0.17
2021-08-19 05:40:03.192,0.055,-0.175
2021-08-19 05:40:03.196,0.045,-0.17
2021-08-19 05:40:03.200,0.01,-0.17
2021-08-19 05:40:03.204,0.01,-0.175
2021-08-19 05:40:03.208,0.01,-0.16
2021-08-19 05:40:03.212,-0.01,-0.18
2021-08-19 05:40:03.216,-0.01,-0.165
2021-08-19 05:40:03.220,-0.01,-0.18
2021-08-19 05:40:03.224,-0.005,-0.18
2021-08-19 05:40:03.228,0.01,-0.17
2021-08-19 05:40:03.232,0.035,-0.17
2021-08-19 05:40:03.236,0.05,-0.155
2021-08-19 05:40:03.240,0.07,-0.155
2021-08-19 05:40:03.244,0.06,-0.155
2021-08-19 05:40:03.248,0.035,-0.14
2021-08-19 05:40:03.252,0.01,-0.14
2021-08-19 05:40:03.256,0.005,-0.17
2021-08-19 05:40:03.260,-0.015,-0.17
2021-08-19 05:40:03.264,-0.025,-0.18
2021-08-19 05:40:03.268,-0.025,-0.195
2021-08-19 05:40:03.272,-0.02,-0.175
2021-08-19 05:40:03.276,-0.045,-0.175
2021-08-19 05:40:03.280,-0.045,-0.195
2021-08-19 05:40:03.284,-0.025,-0.19
2021-08-19 05:40:03.288,-0.03,-0.185
2021-08-19 05:40:03.292,-0.015,-0.195
2021-08-19 05:40:03.296,-0.05,-0.15
2021-08-19 05:40:03.300,-0.035,-0.14
2021-08-19 05:40:03.304,-0.045,-0.12
2021-08-19 05:40:03.308,-0.055,-0.105
2021-08-19 05:40:03.312,-0.025,-0.075
2021-08-19 05:40:03.316,-0.025,-0.05
2021-08-19 05:40:03.320,-0.02,-0.01
2021-08-19 05:40:03.324,-0.04,0.0
2021-08-19 05:40:03.328,-0.03,0.025
2021-08-19 05:40:03.332,-0.03,0.055
2021-08-19 05:40:03.336,-0.045,0.06
2021-08-19 05:40:03.340,-0.02,0.08
2021-08-19 05:40:03.344,-0.015,0.105
2021-08-19 05:40:03.348,-0.01,0.135
2021-08-19 05:40:03.352,-0.025,0.155
2021-08-19 05:40:03.356,0.005,0.16
2021-08-19 05:40:03.360,-0.015,0.15
2021-08-19 05:40:03.364,-0.02,0.165
2021-08-19 05:40:03.368,-0.02,0.15
2021-08-19 05:40:03.372,-0.005,0.16
2021-08-19 05:40:03.376,-0.005,0.145
2021-08-19 05:40:03.380,-0.01,0.135
2021-08-19 05:40:03.384,-0.015,0.13
2021-08-19 05:40:03.388,0.0,0.14
2021-08-19 05:40:03.392,-0.015,0.12
2021-08-19 05:40:03.396,-0.02,0.13
2021-08-19 05:40:03.400,-0.01,0.12
2021-08-19 05:40:03.404,-0.005,0.085
2021-08-19 05:40:03.408,-0.005,0.07
2021-08-19 05:40:03.412,0.0,0.075
2021-08-19 05:40:03.416,0.0,0.1
2021-08-19 05:40:03.420,-0.015,0.115
2021-08-19 05:40:03.424,-0.03,0.1
2021-08-19 05:40:03.428,-0.01,0.11
2021-08-19 05:40:03.432,-0.01,0.14
2021-08-19 05:40:03.436,0.015,0.155
2021-08-19 05:40:03.440,0.015,0.18
2021-08-19 05:40:03.444,0.07,0.19
2021-08-19 05:40:03.448,0.09,0.16
2021-08-19 05:40:03.452,0.105,0.145
2021-08-19 05:40:03.456,0.095,0.13
2021-08-19 05:40:03.460,0.065,0.105
2021-08-19 05:40:03.464,0.045,0.105
2021-08-19 05:40:03.468,0.015,0.095
2021-08-19 05:40:03.472,-0.005,0.095
2021-08-19 05:40:03.476,-0.03,0.105
2021-08-19 05:40:03.480,-0.045,0.09
2021-08-19 05:40:03.484,-0.045,0.08
2021-08-19 05:40:03.488,-0.055,0.065
2021-08-19 05:40:03.492,-0.035,0.07
2021-08-19 05:40:03.496,-0.045,0.06
2021-08-19 05:40:03.500,-0.07,0.065
2021-08-19 05:40:03.504,-0.065,0.065
2021-08-19 05:40:03.508,-0.07,0.08
2021-08-19 05:40:03.512,-0.065,0.08
2021-08-19 05:40:03.516,-0.065,0.105
2021-08-19 05:40:03.520,-0.05,0.105
2021-08-19 05:40:03.524,-0.045,0.125
2021-08-19 05:40:03.528,-0.065,0.13
2021-08-19 05:40:03.532,-0.075,0.115
2021-08-19 05:40:03.536,-0.05,0.115
2021-08-19 05:40:03.540,-0.045,0.115
2021-08-19 05:40:03.544,-0.07,0.12
2021-08-19 05:40:03.548,-0.035,0.125
2021-08-19 05:40:03.552,-0.045,0.11
2021-08-19 05:40:03.556,-0.045,0.125
2021-08-19 05:40:03.560,-0.03,0.085
2021-08-19 05:40:03.564,-0.025,0.09
2021-08-19 05:40:03.568,-0.035,0.09
2021-08-19 05:40:03.572,-0.04,0.07
2021-08-19 05:40:03.576,-0.045,0.065
2021-08-19 05:40:03.580,-0.03,0.065
2021-08-19 05:40:03.584,-0.02,0.075
2021-08-19 05:40:03.588,-0.025,0.07
2021-08-19 05:40:03.592,-0.02,0.05
2021-08-19 05:40:03.596,-0.015,0.055
2021-08-19 05:40:03.600,-0.02,0.045
2021-08-19 05:40:03.604,-0.015,0.05
2021-08-19 05:40:03.608,-0.03,0.03
2021-08-19 05:40:03.612,-0.02,0.02
2021-08-19 05:40:03.616,-0.035,0.02
2021-08-19 05:40:03.620,-0.025,0.005
2021-08-19 05:40:03.624,-0.01,0.01
2021-08-19 05:40:03.628,-0.035,0.025
2021-08-19 05:40:03.632,-0.055,0.035
2021-08-19 05:40:03.636,-0.045,0.04
2021-08-19 05:40:03.640,-0.05,0.025
2021-08-19 05:40:03.644,-0.045,0.035
2021-08-19 05:40:03.648,-0.015,0.04
2021-08-19 05:40:03.652,-0.005,0.08
2021-08-19 05:40:03.656,0.055,0.075
2021-08-19 05:40:03.660,0.085,0.095
2021-08-19 05:40:03.664,0.085,0.07
2021-08-19 05:40:03.668,0.14,0.065
2021-08-19 05:40:03.672,0.125,0.06
2021-08-19 05:40:03.676,0.11,0.06
2021-08-19 05:40:03.680,0.055,0.035
2021-08-19 05:40:03.684,-0.005,0.015
2021-08-19 05:40:03.688,-0.035,0.01
2021-08-19 05:40:03.692,-0.05,0.0
2021-08-19 05:40:03.696,-0.04,-0.015
2021-08-19 05:40:03.700,-0.055,0.0
2021-08-19 05:40:03.704,-0.06,0.0
2021-08-19 05:40:03.708,-0.06,0.0
2021-08-19 05:40:03.712,-0.055,0.005
2021-08-19 05:40:03.716,-0.065,0.01
2021-08-19 05:40:03.720,-0.05,0.015
2021-08-19 05:40:03.724,-0.045,0.02
2021-08-19 05:40:03.728,-0.025,0.03
2021-08-19 05:40:03.732,-0.05,0.04
2021-08-19 05:40:03.736,-0.06,0.04
2021-08-19 05:40:03.740,-0.045,0.035
2021-08-19 05:40:03.744,-0.045,0.045
2021-08-19 05:40:03.748,-0.07,0.025
2021-08-19 05:40:03.752,-0.03,0.045
2021-08-19 05:40:03.756,-0.04,0.035
2021-08-19 05:40:03.760,-0.055,0.025
2021-08-19 05:40:03.764,-0.05,0.015
2021-08-19 05:40:03.768,-0.065,0.02
2021-08-19 05:40:03.772,-0.07,0.005
2021-08-19 05:40:03.776,-0.045,0.01
2021-08-19 05:40:03.780,-0.035,0.0
2021-08-19 05:40:03.784,-0.03,0.02
2021-08-19 05:40:03.788,-0.045,0.005
2021-08-19 05:40:03.792,-0.05,0.015
2021-08-19 05:40:03.796,-0.03,0.015
2021-08-19 05:40:03.800,-0.035,0.0
2021-08-19 05:40:03.804,-0.05,-0.005
2021-08-19 05:40:03.808,-0.05,0.005
2021-08-19 05:40:03.812,-0.04,0.015
2021-08-19 05:40:03.816,-0.025,0.005
2021-08-19 05:40:03.820,-0.05,0.0
2021-08-19 05:40:03.824,-0.05,0.01
2021-08-19 05:40:03.828,-0.04,0.04
2021-08-19 05:40:03.832,-0.04,0.04
2021-08-19 05:40:03.836,-0.05,0.035
2021-08-19 05:40:03.840,-0.04,0.025
2021-08-19 05:40:03.844,-0.035,0.025
2021-08-19 05:40:03.848,-0.025,0.04
2021-08-19 05:40:03.852,-0.04,0.03
2021-08-19 05:40:03.856,0.0,0.06
2021-08-19 05:40:03.860,-0.01,0.085
2021-08-19 05:40:03.864,-0.005,0.115
2021-08-19 05:40:03.868,-0.005,0.115
2021-08-19 05:40:03.872,0.0,0.115
2021-08-19 05:40:03.876,0.0,0.115
2021-08-19 05:40:03.880,0.035,0.13
2021-08-19 05:40:03.884,0.075,0.15
2021-08-19 05:40:03.888,0.075,0.185
2021-08-19 05:40:03.892,0.12,0.24
2021-08-19 05:40:03.896,0.125,0.285
2021-08-19 05:40:03.900,0.095,0.325
2021-08-19 05:40:03.904,0.07,0.5
2021-08-19 05:40:03.908,0.04,0.81
2021-08-19 05:40:03.912,0.01,1.09
2021-08-19 05:40:03.916,0.03,1.24
2021-08-19 05:40:03.920,-0.005,1.215
2021-08-19 05:40:03.924,-0.055,1.07
2021-08-19 05:40:03.928,-0.11,0.865
2021-08-19 05:40:03.932,-0.14,0.535
2021-08-19 05:40:03.936,-0.175,0.15
2021-08-19 05:40:03.940,-0.315,-0.24
2021-08-19 05:40:03.944,-0.585,-0.37
2021-08-19 05:40:03.948,-0.94,-0.1
2021-08-19 05:40:03.952,-1.24,0.25
2021-08-19 05:40:03.956,-1.455,0.325
2021-08-19 05:40:03.960,-1.565,0.13
2021-08-19 05:40:03.964,-1.52,-0.1
2021-08-19 05:40:03.968,-1.25,-0.305
2021-08-19 05:40:03.972,-0.78,-0.4
2021-08-19 05:40:03.976,-0.37,-0.41
2021-08-19 05:40:03.980,-0.19,-0.335
2021-08-19 05:40:03.984,-0.17,-0.24
2021-08-19 05:40:03.988,-0.21,-0.17
2021-08-19 05:40:03.992,-0.235,-0.145
2021-08-19 05:40:03.996,-0.255,-0.12
2021-08-19 05:40:04.000,-0.23,-0.14
2021-08-19 05:40:04.004,-0.17,-0.135
2021-08-19 05:40:04.008,-0.13,-0.14
2021-08-19 05:40:04.012,-0.05,-0.155
2021-08-19 05:40:04.016,-0.035,-0.14
2021-08-19 05:40:04.020,-0.03,-0.125
2021-08-19 05:40:04.024,-0.02,-0.11
2021-08-19 05:40:04.028,-0.015,-0.15
2021-08-19 05:40:04.032,0.01,-0.145
2021-08-19 05:40:04.036,0.0,-0.145
2021-08-19 05:40:04.040,0.025,-0.145
2021-08-19 05:40:04.044,0.015,-0.14
2021-08-19 05:40:04.048,0.035,-0.12
2021-08-19 05:40:04.052,0.04,-0.145
2021-08-19 05:40:04.056,0.025,-0.125
2021-08-19 05:40:04.060,0.03,-0.145
2021-08-19 05:40:04.064,0.02,-0.15
2021-08-19 05:40:04.068,0.04,-0.14
2021-08-19 05:40:04.072,0.05,-0.135
2021-08-19 05:40:04.076,0.06,-0.115
2021-08-19 05:40:04.080,0.07,-0.06
2021-08-19 05:40:04.084,0.055,-0.035
2021-08-19 05:40:04.088,0.065,-0.025
2021-08-19 05:40:04.092,0.08,-0.025
2021-08-19 05:40:04.096,0.105,-0.01
2021-08-19 05:40:04.100,0.125,-0.025
2021-08-19 05:40:04.104,0.15,-0.025
2021-08-19 05:40:04.108,0.17,-0.04
2021-08-19 05:40:04.112,0.175,-0.055
2021-08-19 05:40:04.116,0.17,-0.045
2021-08-19 05:40:04.120,0.15,-0.065
2021-08-19 05:40:04.124,0.105,-0.08
2021-08-19 05:40:04.128,0.095,-0.13
2021-08-19 05:40:04.132,0.07,-0.135
2021-08-19 05:40:04.136,0.07,-0.155
2021-08-19 05:40:04.140,0.05,-0.2
2021-08-19 05:40:04.144,0.05,-0.235
2021-08-19 05:40:04.148,0.06,-0.22
2021-08-19 05:40:04.152,0.07,-0.25
2021-08-19 05:40:04.156,0.055,-0.26
2021-08-19 05:40:04.160,0.05,-0.265
2021-08-19 05:40:04.164,0.045,-0.25
2021-08-19 05:40:04.168,0.05,-0.265
2021-08-19 05:40:04.172,0.04,-0.265
2021-08-19 05:40:04.176,0.035,-0.26
2021-08-19 05:40:04.180,0.035,-0.265
2021-08-19 05:40:04.184,0.035,-0.28
2021-08-19 05:40:04.188,0.03,-0.265
2021-08-19 05:40:04.192,0.05,-0.265
2021-08-19 05:40:04.196,0.025,-0.265
2021-08-19 05:40:04.200,0.05,-0.25
2021-08-19 05:40:04.204,0.03,-0.265
2021-08-19 05:40:04.208,0.05,-0.24
2021-08-19 05:40:04.212,0.025,-0.255
2021-08-19 05:40:04.216,0.055,-0.205
2021-08-19 05:40:04.220,0.025,-0.205
2021-08-19 05:40:04.224,0.035,-0.19
2021-08-19 05:40:04.228,0.045,-0.18
2021-08-19 05:40:04.232,0.04,-0.165
2021-08-19 05:40:04.236,0.04,-0.145
2021-08-19 05:40:04.240,0.02,-0.135
2021-08-19 05:40:04.244,0.035,-0.12
2021-08-19 05:40:04.248,0.02,-0.105
2021-08-19 05:40:04.252,0.015,-0.115
2021-08-19 05:40:04.256,0.02,-0.1
2021-08-19 05:40:04.260,0.02,-0.08
2021-08-19 05:40:04.264,0.025,-0.09
2021-08-19 05:40:04.268,0.02,-0.08
2021-08-19 05:40:04.272,0.015,-0.085
2021-08-19 05:40:04.276,0.015,-0.08
2021-08-19 05:40:04.280,0.02,-0.11
2021-08-19 05:40:04.284,0.005,-0.105
2021-08-19 05:40:04.288,0.01,-0.095
2021-08-19 05:40:04.292,0.0,-0.08
2021-08-19 05:40:04.296,0.01,-0.085
2021-08-19 05:40:04.300,0.01,-0.08
2021-08-19 05:40:04.304,-0.005,-0.07
2021-08-19 05:40:04.308,0.005,-0.075
2021-08-19 05:40:04.312,0.025,-0.06
2021-08-19 05:40:04.316,0.03,-0.05
2021-08-19 05:40:04.320,0.035,-0.06
2021-08-19 05:40:04.324,0.085,-0.06
2021-08-19 05:40:04.328,0.07,-0.03
2021-08-19 05:40:04.332,0.095,-0.045
2021-08-19 05:40:04.336,0.1,-0.05
2021-08-19 05:40:04.340,0.08,-0.065
2021-08-19 05:40:04.344,0.085,-0.06
2021-08-19 05:40:04.348,0.095,-0.07
2021-08-19 05:40:04.352,0.1,-0.045
2021-08-19 05:40:04.356,0.1,-0.04
2021-08-19 05:40:04.360,0.09,-0.04
2021-08-19 05:40:04.364,0.08,-0.035
2021-08-19 05:40:04.368,0.075,-0.015
2021-08-19 05:40:04.372,0.085,-0.02
2021-08-19 05:40:04.376,0.095,0.0
2021-08-19 05:40:04.380,0.095,-0.035
2021-08-19 05:40:04.384,0.105,-0.025
2021-08-19 05:40:04.388,0.13,-0.035
2021-08-19 05:40:04.392,0.125,-0.07
2021-08-19 05:40:04.396,0.165,-0.07
2021-08-19 05:40:04.400,0.195,-0.08
2021-08-19 05:40:04.404,0.195,-0.1
2021-08-19 05:40:04.408,0.165,-0.1
2021-08-19 05:40:04.412,0.15,-0.11
2021-08-19 05:40:04.416,0.12,-0.15
2021-08-19 05:40:04.420,0.1,-0.16
2021-08-19 05:40:04.424,0.035,-0.16
2021-08-19 05:40:04.428,-0.015,-0.18
2021-08-19 05:40:04.432,-0.05,-0.17
2021-08-19 05:40:04.436,-0.075,-0.19
2021-08-19 05:40:04.440,-0.09,-0.17
2021-08-19 05:40:04.444,-0.07,-0.185
2021-08-19 05:40:04.448,-0.085,-0.195
2021-08-19 05:40:04.452,-0.08,-0.18
2021-08-19 05:40:04.456,-0.075,-0.185
2021-08-19 05:40:04.460,-0.085,-0.185
2021-08-19 05:40:04.464,-0.07,-0.185
2021-08-19 05:40:04.468,-0.075,-0.19
2021-08-19 05:40:04.472,-0.06,-0.19
2021-08-19 05:40:04.476,-0.075,-0.205
2021-08-19 05:40:04.480,-0.06,-0.235
2021-08-19 05:40:04.484,-0.06,-0.235
2021-08-19 05:40:04.488,-0.075,-0.23
2021-08-19 05:40:04.492,-0.08,-0.22
2021-08-19 05:40:04.496,-0.065,-0.215
2021-08-19 05:40:04.500,-0.09,-0.19
2021-08-19 05:40:04.504,-0.09,-0.18
2021-08-19 05:40:04.508,-0.115,-0.185
2021-08-19 05:40:04.512,-0.095,-0.17
2021-08-19 05:40:04.516,-0.075,-0.155
2021-08-19 05:40:04.520,-0.065,-0.125
2021-08-19 05:40:04.524,-0.045,-0.1
2021-08-19 05:40:04.528,-0.035,-0.085
2021-08-19 05:40:04.532,-0.035,-0.105
2021-08-19 05:40:04.536,-0.03,-0.1
2021-08-19 05:40:04.540,-0.02,-0.12
2021-08-19 05:40:04.544,0.005,-0.12
2021-08-19 05:40:04.548,-0.005,-0.11
2021-08-19 05:40:04.552,0.04,-0.12
2021-08-19 05:40:04.556,0.01,-0.125
2021-08-19 05:40:04.560,0.03,-0.135
2021-08-19 05:40:04.564,0.01,-0.11
2021-08-19 05:40:04.568,-0.015,-0.12
2021-08-19 05:40:04.572,0.02,-0.12
2021-08-19 05:40:04.576,0.015,-0.145
2021-08-19 05:40:04.580,0.015,-0.14
2021-08-19 05:40:04.584,0.02,-0.155
2021-08-19 05:40:04.588,0.02,-0.135
2021-08-19 05:40:04.592,0.015,-0.175
2021-08-19 05:40:04.596,0.005,-0.16
2021-08-19 05:40:04.600,0.015,-0.17
2021-08-19 05:40:04.604,0.02,-0.16
2021-08-19 05:40:04.608,0.005,-0.19
2021-08-19 05:40:04.612,0.01,-0.175
2021-08-19 05:40:04.616,0.03,-0.185
2021-08-19 05:40:04.620,0.01,-0.19
2021-08-19 05:40:04.624,0.005,-0.15
2021-08-19 05:40:04.628,0.005,-0.12
2021-08-19 05:40:04.632,0.015,-0.05
2021-08-19 05:40:04.636,0.005,0.005
2021-08-19 05:40:04.640,0.01,0.05
2021-08-19 05:40:04.644,0.0,0.19
2021-08-19 05:40:04.648,0.005,0.45
2021-08-19 05:40:04.652,0.025,0.765
2021-08-19 05:40:04.656,0.095,0.945
2021-08-19 05:40:04.660,0.12,0.935
2021-08-19 05:40:04.664,0.12,0.785
2021-08-19 05:40:04.668,0.075,0.53
2021-08-19 05:40:04.672,0.06,0.23
2021-08-19 05:40:04.676,0.05,-0.155
2021-08-19 05:40:04.680,-0.09,-0.56
2021-08-19 05:40:04.684,-0.32,-0.81
2021-08-19 05:40:04.688,-0.705,-0.61
2021-08-19 05:40:04.692,-1.11,-0.16
2021-08-19 05:40:04.696,-1.405,0.07
2021-08-19 05:40:04.700,-1.58,-0.025
2021-08-19 05:40:04.704,-1.6,-0.29
2021-08-19 05:40:04.708,-1.415,-0.51
2021-08-19 05:40:04.712,-0.965,-0.62
2021-08-19 05:40:04.716,-0.475,-0.68
2021-08-19 05:40:04.720,-0.21,-0.64
2021-08-19 05:40:04.724,-0.155,-0.525
2021-08-19 05:40:04.728,-0.185,-0.42
2021-08-19 05:40:04.732,-0.24,-0.355
2021-08-19 05:40:04.736,-0.22,-0.34
2021-08-19 05:40:04.740,-0.22,-0.32
2021-08-19 05:40:04.744,-0.16,-0.33
2021-08-19 05:40:04.748,-0.12,-0.32
2021-08-19 05:40:04.752,-0.035,-0.335
2021-08-19 05:40:04.756,0.005,-0.35
2021-08-19 05:40:04.760,0.055,-0.36
2021-08-19 05:40:04.764,0.06,-0.335
2021-08-19 05:40:04.768,0.065,-0.345
2021-08-19 05:40:04.772,0.05,-0.32
2021-08-19 05:40:04.776,0.055,-0.335
2021-08-19 05:40:04.780,0.035,-0.31
2021-08-19 05:40:04.784,0.07,-0.31
2021-08-19 05:40:04.788,0.065,-0.32
2021-08-19 05:40:04.792,0.08,-0.325
2021-08-19 05:40:04.796,0.06,-0.345
2021-08-19 05:40:04.800,0.065,-0.325
2021-08-19 05:40:04.804,0.065,-0.345
2021-08-19 05:40:04.808,0.085,-0.335
2021-08-19 05:40:04.812,0.08,-0.34
2021-08-19 05:40:04.816,0.09,-0.355
2021-08-19 05:40:04.820,0.085,-0.355
2021-08-19 05:40:04.824,0.1,-0.36
2021-08-19 05:40:04.828,0.1,-0.345
2021-08-19 05:40:04.832,0.085,-0.36
2021-08-19 05:40:04.836,0.075,-0.38
2021-08-19 05:40:04.840,0.11,-0.385
2021-08-19 05:40:04.844,0.09,-0.385
2021-08-19 05:40:04.848,0.095,-0.39
2021-08-19 05:40:04.852,0.1,-0.385
2021-08-19 05:40:04.856,0.085,-0.385
2021-08-19 05:40:04.860,0.085,-0.395
2021-08-19 05:40:04.864,0.105,-0.38
2021-08-19 05:40:04.868,0.095,-0.375
2021-08-19 05:40:04.872,0.085,-0.365
2021-08-19 05:40:04.876,0.105,-0.335
2021-08-19 05:40:04.880,0.095,-0.335
2021-08-19 05:40:04.884,0.14,-0.29
2021-08-19 05:40:04.888,0.135,-0.25
2021-08-19 05:40:04.892,0.145,-0.23
2021-08-19 05:40:04.896,0.155,-0.245
2021-08-19 05:40:04.900,0.15,-0.255
2021-08-19 05:40:04.904,0.165,-0.27
2021-08-19 05:40:04.908,0.165,-0.29
2021-08-19 05:40:04.912,0.16,-0.275
2021-08-19 05:40:04.916,0.135,-0.31
2021-08-19 05:40:04.920,0.085,-0.315
2021-08-19 05:40:04.924,0.04,-0.34
2021-08-19 05:40:04.928,0.035,-0.355
2021-08-19 05:40:04.932,0.015,-0.34
2021-08-19 05:40:04.936,0.015,-0.33
2021-08-19 05:40:04.940,0.01,-0.345
2021-08-19 05:40:04.944,0.01,-0.33
2021-08-19 05:40:04.948,0.03,-0.305
2021-08-19 05:40:04.952,0.02,-0.265
2021-08-19 05:40:04.956,0.035,-0.25
2021-08-19 05:40:04.960,-0.01,-0.25
2021-08-19 05:40:04.964,0.01,-0.26
2021-08-19 05:40:04.968,-0.015,-0.265
2021-08-19 05:40:04.972,0.01,-0.24
2021-08-19 05:40:04.976,0.02,-0.24
2021-08-19 05:40:04.980,0.035,-0.225
2021-08-19 05:40:04.984,0.055,-0.215
2021-08-19 05:40:04.988,0.055,-0.2
2021-08-19 05:40:04.992,0.045,-0.21
2021-08-19 05:40:04.996,0.045,-0.225
2021-08-19 05:40:05.000,0.07,-0.235
2021-08-19 05:40:05.004,0.055,-0.24
2021-08-19 05:40:05.008,0.05,-0.255
2021-08-19 05:40:05.012,0.05,-0.285
2021-08-19 05:40:05.016,0.05,-0.305
2021-08-19 05:40:05.020,0.04,-0.32
2021-08-19 05:40:05.024,0.05,-0.32
2021-08-19 05:40:05.028,0.01,-0.32
2021-08-19 05:40:05.032,0.005,-0.35
2021-08-19 05:40:05.036,0.025,-0.35
2021-08-19 05:40:05.040,0.02,-0.34
2021-08-19 05:40:05.044,0.005,-0.37
2021-08-19 05:40:05.048,0.035,-0.395
2021-08-19 05:40:05.052,0.02,-0.425
2021-08-19 05:40:05.056,0.035,-0.425
2021-08-19 05:40:05.060,0.02,-0.43
2021-08-19 05:40:05.064,0.01,-0.44
2021-08-19 05:40:05.068,0.015,-0.435
2021-08-19 05:40:05.072,0.025,-0.43
2021-08-19 05:40:05.076,0.01,-0.44
2021-08-19 05:40:05.080,0.01,-0.45
2021-08-19 05:40:05.084,0.015,-0.45
2021-08-19 05:40:05.088,0.01,-0.455
2021-08-19 05:40:05.092,0.02,-0.425
2021-08-19 05:40:05.096,0.035,-0.4
2021-08-19 05:40:05.100,0.05,-0.39
2021-08-19 05:40:05.104,0.055,-0.36
2021-08-19 05:40:05.108,0.04,-0.345
2021-08-19 05:40:05.112,0.04,-0.36
2021-08-19 05:40:05.116,0.03,-0.37
2021-08-19 05:40:05.120,0.005,-0.365
2021-08-19 05:40:05.124,-0.035,-0.375
2021-08-19 05:40:05.128,-0.055,-0.36
2021-08-19 05:40:05.132,-0.07,-0.365
2021-08-19 05:40:05.136,-0.075,-0.345
2021-08-19 05:40:05.140,-0.095,-0.365
2021-08-19 05:40:05.144,-0.085,-0.38
2021-08-19 05:40:05.148,-0.1,-0.38
2021-08-19 05:40:05.152,-0.085,-0.38
2021-08-19 05:40:05.156,-0.08,-0.4
2021-08-19 05:40:05.160,-0.07,-0.38
2021-08-19 05:40:05.164,-0.06,-0.4
2021-08-19 05:40:05.168,-0.055,-0.42
2021-08-19 05:40:05.172,-0.065,-0.41
2021-08-19 05:40:05.176,-0.04,-0.39
2021-08-19 05:40:05.180,-0.045,-0.4
2021-08-19 05:40:05.184,-0.07,-0.395
2021-08-19 05:40:05.188,-0.055,-0.385
2021-08-19 05:40:05.192,-0.065,-0.37
2021-08-19 05:40:05.196,-0.075,-0.39
2021-08-19 05:40:05.200,-0.09,-0.37
2021-08-19 05:40:05.204,-0.075,-0.39
2021-08-19 05:40:05.208,-0.085,-0.385
2021-08-19 05:40:05.212,-0.085,-0.4
2021-08-19 05:40:05.216,-0.07,-0.4
2021-08-19 05:40:05.220,-0.05,-0.39
2021-08-19 05:40:05.224,-0.035,-0.405
2021-08-19 05:40:05.228,0.0,-0.395
2021-08-19 05:40:05.232,0.0,-0.385
2021-08-19 05:40:05.236,0.0,-0.35
2021-08-19 05:40:05.240,0.0,-0.305
2021-08-19 05:40:05.244,0.01,-0.265
2021-08-19 05:40:05.248,0.015,-0.25
2021-08-19 05:40:05.252,0.04,-0.14
2021-08-19 05:40:05.256,0.02,0.09
2021-08-19 05:40:05.260,0.065,0.395
2021-08-19 05:40:05.264,0.075,0.595
2021-08-19 05:40:05.268,0.085,0.63
2021-08-19 05:40:05.272,0.03,0.545
2021-08-19 05:40:05.276,-0.035,0.365
2021-08-19 05:40:05.280,-0.065,0.135
2021-08-19 05:40:05.284,-0.1,-0.17
2021-08-19 05:40:05.288,-0.205,-0.56
2021-08-19 05:40:05.292,-0.39,-0.86
2021-08-19 05:40:05.296,-0.72,-0.75
2021-08-19 05:40:05.300,-1.07,-0.36
2021-08-19 05:40:05.304,-1.31,-0.15
2021-08-19 05:40:05.308,-1.48,-0.29
2021-08-19 05:40:05.312,-1.45,-0.54
2021-08-19 05:40:05.316,-1.285,-0.74
2021-08-19 05:40:05.320,-0.865,-0.835
2021-08-19 05:40:05.324,-0.39,-0.89
2021-08-19 05:40:05.328,-0.16,-0.845
2021-08-19 05:40:05.332,-0.105,-0.735
2021-08-19 05:40:05.336,-0.115,-0.655
2021-08-19 05:40:05.340,-0.145,-0.6
2021-08-19 05:40:05.344,-0.14,-0.6
2021-08-19 05:40:05.348,-0.12,-0.6
2021-08-19 05:40:05.352,-0.07,-0.605
2021-08-19 05:40:05.356,-0.005,-0.56
2021-08-19 05:40:05.360,0.075,-0.56
2021-08-19 05:40:05.364,0.12,-0.535
2021-08-19 05:40:05.368,0.155,-0.535
2021-08-19 05:40:05.372,0.14,-0.545
2021-08-19 05:40:05.376,0.155,-0.535
2021-08-19 05:40:05.380,0.11,-0.555
2021-08-19 05:40:05.384,0.045,-0.52
2021-08-19 05:40:05.388,0.01,-0.54
2021-08-19 05:40:05.392,0.0,-0.565
2021-08-19 05:40:05.396,-0.02,-0.56
2021-08-19 05:40:05.400,-0.01,-0.585
2021-08-19 05:40:05.404,-0.025,-0.58
2021-08-19 05:40:05.408,-0.015,-0.575
2021-08-19 05:40:05.412,0.0,-0.565
2021-08-19 05:40:05.416,-0.015,-0.58
2021-08-19 05:40:05.420,-0.02,-0.615
2021-08-19 05:40:05.424,-0.01,-0.58
2021-08-19 05:40:05.428,-0.01,-0.565
2021-08-19 05:40:05.432,-0.025,-0.56
2021-08-19 05:40:05.436,-0.01,-0.565
2021-08-19 05:40:05.440,-0.02,-0.57
2021-08-19 05:40:05.444,-0.025,-0.57
2021-08-19 05:40:05.448,0.005,-0.585
2021-08-19 05:40:05.452,0.01,-0.585
2021-08-19 05:40:05.456,0.025,-0.57
2021-08-19 05:40:05.460,0.03,-0.6
2021-08-19 05:40:05.464,0.05,-0.605
2021-08-19 05:40:05.468,0.065,-0.595
2021-08-19 05:40:05.472,0.045,-0.6
2021-08-19 05:40:05.476,0.07,-0.625
2021-08-19 05:40:05.480,0.07,-0.625
2021-08-19 05:40:05.484,0.05,-0.665
2021-08-19 05:40:05.488,0.07,-0.665
2021-08-19 05:40:05.492,0.075,-0.675
2021-08-19 05:40:05.496,0.085,-0.68
2021-08-19 05:40:05.500,0.075,-0.705
2021-08-19 05:40:05.504,0.07,-0.71
2021-08-19 05:40:05.508,0.07,-0.71
2021-08-19 05:40:05.512,0.07,-0.715
2021-08-19 05:40:05.516,0.085,-0.715
2021-08-19 05:40:05.520,0.065,-0.72
2021-08-19 05:40:05.524,0.08,-0.725
2021-08-19 05:40:05.528,0.09,-0.72
2021-08-19 05:40:05.532,0.07,-0.71
2021-08-19 05:40:05.536,0.08,-0.7
2021-08-19 05:40:05.540,0.05,-0.72
2021-08-19 05:40:05.544,0.08,-0.67
2021-08-19 05:40:05.548,0.065,-0.655
2021-08-19 05:40:05.552,0.065,-0.655
2021-08-19 05:40:05.556,0.07,-0.645
2021-08-19 05:40:05.560,0.07,-0.605
2021-08-19 05:40:05.564,0.07,-0.61
2021-08-19 05:40:05.568,0.08,-0.565
2021-08-19 05:40:05.572,0.065,-0.575
2021-08-19 05:40:05.576,0.075,-0.555
2021-08-19 05:40:05.580,0.085,-0.49
2021-08-19 05:40:05.584,0.08,-0.48
2021-08-19 05:40:05.588,0.065,-0.47
2021-08-19 05:40:05.592,0.055,-0.41
2021-08-19 05:40:05.596,0.08,-0.365
2021-08-19 05:40:05.600,0.085,-0.36
2021-08-19 05:40:05.604,0.085,-0.365
2021-08-19 05:40:05.608,0.095,-0.34
2021-08-19 05:40:05.612,0.12,-0.335
2021-08-19 05:40:05.616,0.115,-0.325
2021-08-19 05:40:05.620,0.1,-0.32
2021-08-19 05:40:05.624,0.1,-0.32
2021-08-19 05:40:05.628,0.09,-0.34
2021-08-19 05:40:05.632,0.08,-0.375
2021-08-19 05:40:05.636,0.055,-0.375
2021-08-19 05:40:05.640,0.05,-0.36
2021-08-19 05:40:05.644,-0.01,-0.365
2021-08-19 05:40:05.648,-0.025,-0.405
2021-08-19 05:40:05.652,-0.06,-0.41
2021-08-19 05:40:05.656,-0.045,-0.395
2021-08-19 05:40:05.660,-0.065,-0.4
2021-08-19 05:40:05.664,-0.05,-0.42
2021-08-19 05:40:05.668,-0.045,-0.435
2021-08-19 05:40:05.672,-0.02,-0.46
2021-08-19 05:40:05.676,-0.035,-0.48
2021-08-19 05:40:05.680,-0.03,-0.475
2021-08-19 05:40:05.684,0.0,-0.5
2021-08-19 05:40:05.688,0.01,-0.51
2021-08-19 05:40:05.692,0.01,-0.515
2021-08-19 05:40:05.696,0.01,-0.505
2021-08-19 05:40:05.700,0.01,-0.52
2021-08-19 05:40:05.704,0.02,-0.5
2021-08-19 05:40:05.708,0.03,-0.53
2021-08-19 05:40:05.712,0.045,-0.54
2021-08-19 05:40:05.716,0.035,-0.53
2021-08-19 05:40:05.720,0.035,-0.57
2021-08-19 05:40:05.724,0.04,-0.575
2021-08-19 05:40:05.728,0.03,-0.565
2021-08-19 05:40:05.732,0.02,-0.6
2021-08-19 05:40:05.736,0.04,-0.61
2021-08-19 05:40:05.740,0.025,-0.615
2021-08-19 05:40:05.744,0.02,-0.6
2021-08-19 05:40:05.748,0.015,-0.59
2021-08-19 05:40:05.752,0.025,-0.595
2021-08-19 05:40:05.756,0.01,-0.6
2021-08-19 05:40:05.760,0.0,-0.585
2021-08-19 05:40:05.764,0.005,-0.595
2021-08-19 05:40:05.768,0.0,-0.59
2021-08-19 05:40:05.772,0.0,-0.59
2021-08-19 05:40:05.776,0.0,-0.56
2021-08-19 05:40:05.780,-0.01,-0.555
2021-08-19 05:40:05.784,-0.015,-0.545
2021-08-19 05:40:05.788,0.0,-0.555
2021-08-19 05:40:05.792,-0.01,-0.56
2021-08-19 05:40:05.796,0.0,-0.53
2021-08-19 05:40:05.800,0.0,-0.54
2021-08-19 05:40:05.804,0.0,-0.51
2021-08-19 05:40:05.808,-0.005,-0.475
2021-08-19 05:40:05.812,0.015,-0.48
2021-08-19 05:40:05.816,0.02,-0.5
2021-08-19 05:40:05.820,0.015,-0.475
2021-08-19 05:40:05.824,0.04,-0.44
2021-08-19 05:40:05.828,0.045,-0.425
2021-08-19 05:40:05.832,0.05,-0.405
2021-08-19 05:40:05.836,0.07,-0.415
2021-08-19 05:40:05.840,0.11,-0.42
2021-08-19 05:40:05.844,0.095,-0.44
2021-08-19 05:40:05.848,0.105,-0.43
2021-08-19 05:40:05.852,0.13,-0.44
2021-08-19 05:40:05.856,0.1,-0.425
2021-08-19 05:40:05.860,0.055,-0.445
2021-08-19 05:40:05.864,0.005,-0.44
2021-08-19 05:40:05.868,-0.035,-0.445
2021-08-19 05:40:05.872,-0.08,-0.43
2021-08-19 05:40:05.876,-0.09,-0.425
2021-08-19 05:40:05.880,-0.105,-0.46
2021-08-19 05:40:05.884,-0.095,-0.455
2021-08-19 05:40:05.888,-0.1,-0.455
2021-08-19 05:40:05.892,-0.065,-0.465
2021-08-19 05:40:05.896,-0.05,-0.485
2021-08-19 05:40:05.900,-0.025,-0.495
2021-08-19 05:40:05.904,-0.025,-0.515
2021-08-19 05:40:05.908,-0.03,-0.525
2021-08-19 05:40:05.912,-0.045,-0.525
2021-08-19 05:40:05.916,-0.04,-0.515
2021-08-19 05:40:05.920,-0.005,-0.555
2021-08-19 05:40:05.924,-0.02,-0.56
2021-08-19 05:40:05.928,-0.035,-0.555
2021-08-19 05:40:05.932,-0.035,-0.55
2021-08-19 05:40:05.936,-0.035,-0.545
2021-08-19 05:40:05.940,-0.025,-0.555
2021-08-19 05:40:05.944,-0.045,-0.555
2021-08-19 05:40:05.948,-0.025,-0.58
2021-08-19 05:40:05.952,-0.035,-0.585
2021-08-19 05:40:05.956,-0.045,-0.59
2021-08-19 05:40:05.960,-0.02,-0.59
2021-08-19 05:40:05.964,-0.04,-0.575
2021-08-19 05:40:05.968,-0.05,-0.52
2021-08-19 05:40:05.972,-0.025,-0.445
2021-08-19 05:40:05.976,-0.05,-0.42
2021-08-19 05:40:05.980,-0.045,-0.345
2021-08-19 05:40:05.984,-0.05,-0.18
2021-08-19 05:40:05.988,-0.06,0.11
2021-08-19 05:40:05.992,-0.03,0.425
2021-08-19 05:40:05.996,0.005,0.645
2021-08-19 05:40:06.000,-0.01,0.715
2021-08-19 05:40:06.004,-0.04,0.7
2021-08-19 05:40:06.008,-0.095,0.6
2021-08-19 05:40:06.012,-0.1,0.405
2021-08-19 05:40:06.016,-0.145,0.085
2021-08-19 05:40:06.020,-0.29,-0.365
2021-08-19 05:40:06.024,-0.525,-0.685
2021-08-19 05:40:06.028,-0.86,-0.61
2021-08-19 05:40:06.032,-1.165,-0.335
2021-08-19 05:40:06.036,-1.345,-0.22
2021-08-19 05:40:06.040,-1.44,-0.395
2021-08-19 05:40:06.044,-1.425,-0.625
2021-08-19 05:40:06.048,-1.21,-0.815
2021-08-19 05:40:06.052,-0.82,-0.9
2021-08-19 05:40:06.056,-0.405,-0.895
2021-08-19 05:40:06.060,-0.2,-0.83
2021-08-19 05:40:06.064,-0.14,-0.75
2021-08-19 05:40:06.068,-0.16,-0.69
2021-08-19 05:40:06.072,-0.15,-0.64
2021-08-19 05:40:06.076,-0.14,-0.645
2021-08-19 05:40:06.080,-0.115,-0.635
2021-08-19 05:40:06.084,-0.06,-0.6
2021-08-19 05:40:06.088,-0.01,-0.6
2021-08-19 05:40:06.092,0.045,-0.595
2021-08-19 05:40:06.096,0.06,-0.62
2021-08-19 05:40:06.100,0.045,-0.585
2021-08-19 05:40:06.104,0.045,-0.62
2021-08-19 05:40:06.108,0.025,-0.63
2021-08-19 05:40:06.112,0.005,-0.64
2021-08-19 05:40:06.116,0.0,-0.655
2021-08-19 05:40:06.120,-0.005,-0.66
2021-08-19 05:40:06.124,0.015,-0.665
2021-08-19 05:40:06.128,0.0,-0.67
2021-08-19 05:40:06.132,0.005,-0.685
2021-08-19 05:40:06.136,0.025,-0.7
2021-08-19 05:40:06.140,0.005,-0.69
2021-08-19 05:40:06.144,0.005,-0.7
2021-08-19 05:40:06.148,0.005,-0.7
2021-08-19 05:40:06.152,0.005,-0.69
2021-08-19 05:40:06.156,-0.005,-0.72
2021-08-19 05:40:06.160,0.0,-0.71
2021-08-19 05:40:06.164,0.02,-0.705
2021-08-19 05:40:06.168,0.02,-0.705
2021-08-19 05:40:06.172,0.0,-0.695
2021-08-19 05:40:06.176,0.005,-0.705
2021-08-19 05:40:06.180,0.005,-0.695
2021-08-19 05:40:06.184,0.035,-0.695
2021-08-19 05:40:06.188,0.05,-0.715
2021-08-19 05:40:06.192,0.015,-0.72
2021-08-19 05:40:06.196,0.03,-0.75
2021-08-19 05:40:06.200,0.04,-0.745
2021-08-19 05:40:06.204,0.06,-0.74
2021-08-19 05:40:06.208,0.035,-0.735
2021-08-19 05:40:06.212,0.04,-0.735
2021-08-19 05:40:06.216,0.015,-0.75
2021-08-19 05:40:06.220,0.025,-0.77
2021-08-19 05:40:06.224,0.035,-0.785
2021-08-19 05:40:06.228,0.025,-0.77
2021-08-19 05:40:06.232,0.02,-0.765
2021-08-19 05:40:06.236,0.02,-0.775
2021-08-19 05:40:06.240,0.03,-0.775
2021-08-19 05:40:06.244,0.025,-0.765
2021-08-19 05:40:06.248,0.015,-0.755
2021-08-19 05:40:06.252,0.02,-0.765
2021-08-19 05:40:06.256,0.03,-0.755
2021-08-19 05:40:06.260,0.03,-0.76
2021-08-19 05:40:06.264,0.015,-0.745
2021-08-19 05:40:06.268,0.045,-0.74
2021-08-19 05:40:06.272,0.02,-0.735
2021-08-19 05:40:06.276,0.02,-0.715
2021-08-19 05:40:06.280,0.045,-0.71
2021-08-19 05:40:06.284,0.05,-0.71
2021-08-19 05:40:06.288,0.08,-0.705
2021-08-19 05:40:06.292,0.065,-0.685
2021-08-19 05:40:06.296,0.06,-0.625
2021-08-19 05:40:06.300,0.065,-0.605
2021-08-19 05:40:06.304,0.03,-0.56
2021-08-19 05:40:06.308,-0.02,-0.54
2021-08-19 05:40:06.312,-0.06,-0.535
2021-08-19 05:40:06.316,-0.09,-0.485
2021-08-19 05:40:06.320,-0.08,-0.47
2021-08-19 05:40:06.324,-0.055,-0.465
2021-08-19 05:40:06.328,-0.06,-0.46
2021-08-19 05:40:06.332,-0.06,-0.44
2021-08-19 05:40:06.336,-0.045,-0.435
2021-08-19 05:40:06.340,-0.04,-0.42
2021-08-19 05:40:06.344,-0.03,-0.415
2021-08-19 05:40:06.348,-0.045,-0.45
2021-08-19 05:40:06.352,-0.04,-0.425
2021-08-19 05:40:06.356,-0.035,-0.415
2021-08-19 05:40:06.360,-0.03,-0.41
2021-08-19 05:40:06.364,-0.035,-0.425
2021-08-19 05:40:06.368,-0.01,-0.415
2021-08-19 05:40:06.372,-0.015,-0.44
2021-08-19 05:40:06.376,-0.01,-0.45
2021-08-19 05:40:06.380,-0.005,-0.465
2021-08-19 05:40:06.384,0.01,-0.485
2021-08-19 05:40:06.388,0.005,-0.46
2021-08-19 05:40:06.392,0.01,-0.445
2021-08-19 05:40:06.396,0.025,-0.425
2021-08-19 05:40:06.400,0.015,-0.425
2021-08-19 05:40:06.404,0.03,-0.405
2021-08-19 05:40:06.408,0.035,-0.44
2021-08-19 05:40:06.412,0.04,-0.405
2021-08-19 05:40:06.416,0.015,-0.42
2021-08-19 05:40:06.420,0.03,-0.435
2021-08-19 05:40:06.424,0.05,-0.425
2021-08-19 05:40:06.428,0.03,-0.44
2021-08-19 05:40:06.432,0.035,-0.45
2021-08-19 05:40:06.436,0.07,-0.455
2021-08-19 05:40:06.440,0.05,-0.47
2021-08-19 05:40:06.444,0.035,-0.47
2021-08-19 05:40:06.448,0.04,-0.495
2021-08-19 05:40:06.452,0.05,-0.475
2021-08-19 05:40:06.456,0.045,-0.495
2021-08-19 05:40:06.460,0.055,-0.49
2021-08-19 05:40:06.464,0.03,-0.505
2021-08-19 05:40:06.468,0.045,-0.48
2021-08-19 05:40:06.472,0.045,-0.5
2021-08-19 05:40:06.476,0.03,-0.505
2021-08-19 05:40:06.480,0.025,-0.505
2021-08-19 05:40:06.484,0.035,-0.505
2021-08-19 05:40:06.488,0.04,-0.505
2021-08-19 05:40:06.492,0.05,-0.46
2021-08-19 05:40:06.496,0.055,-0.44
2021-08-19 05:40:06.500,0.08,-0.435
2021-08-19 05:40:06.504,0.095,-0.44
2021-08-19 05:40:06.508,0.06,-0.43
2021-08-19 05:40:06.512,0.03,-0.43
2021-08-19 05:40:06.516,-0.01,-0.435
2021-08-19 05:40:06.520,-0.03,-0.435
2021-08-19 05:40:06.524,-0.03,-0.42
2021-08-19 05:40:06.528,-0.075,-0.44
2021-08-19 05:40:06.532,-0.055,-0.44
2021-08-19 05:40:06.536,-0.04,-0.465
2021-08-19 05:40:06.540,-0.025,-0.46
2021-08-19 05:40:06.544,0.0,-0.475
2021-08-19 05:40:06.548,-0.005,-0.465
2021-08-19 05:40:06.552,0.005,-0.47
2021-08-19 05:40:06.556,0.015,-0.455
2021-08-19 05:40:06.560,0.005,-0.445
2021-08-19 05:40:06.564,0.005,-0.42
2021-08-19 05:40:06.568,0.02,-0.36
2021-08-19 05:40:06.572,0.01,-0.315
2021-08-19 05:40:06.576,0.005,-0.285
2021-08-19 05:40:06.580,0.0,-0.145
2021-08-19 05:40:06.584,0.015,0.14
2021-08-19 05:40:06.588,0.03,0.505
2021-08-19 05:40:06.592,0.06,0.815
2021-08-19 05:40:06.596,0.05,0.915
2021-08-19 05:40:06.600,0.01,0.91
2021-08-19 05:40:06.604,-0.025,0.825
2021-08-19 05:40:06.608,-0.04,0.59
2021-08-19 05:40:06.612,-0.04,0.185
2021-08-19 05:40:06.616,-0.11,-0.27
2021-08-19 05:40:06.620,-0.335,-0.62
2021-08-19 05:40:06.624,-0.65,-0.5
2021-08-19 05:40:06.628,-0.995,-0.205
2021-08-19 05:40:06.632,-1.25,-0.11
2021-08-19 05:40:06.636,-1.36,-0.3
2021-08-19 05:40:06.640,-1.4,-0.56
2021-08-19 05:40:06.644,-1.165,-0.725
2021-08-19 05:40:06.648,-0.755,-0.86
2021-08-19 05:40:06.652,-0.34,-0.91
2021-08-19 05:40:06.656,-0.11,-0.835
2021-08-19 05:40:06.660,-0.085,-0.74
2021-08-19 05:40:06.664,-0.135,-0.65
2021-08-19 05:40:06.668,-0.145,-0.635
2021-08-19 05:40:06.672,-0.15,-0.635
2021-08-19 05:40:06.676,-0.14,-0.63
2021-08-19 05:40:06.680,-0.08,-0.655
2021-08-19 05:40:06.684,-0.03,-0.655
2021-08-19 05:40:06.688,0.025,-0.645
2021-08-19 05:40:06.692,0.06,-0.64
2021-08-19 05:40:06.696,0.065,-0.635
2021-08-19 05:40:06.700,0.08,-0.6
2021-08-19 05:40:06.704,0.09,-0.59
2021-08-19 05:40:06.708,0.11,-0.54
2021-08-19 05:40:06.712,0.135,-0.52
2021-08-19 05:40:06.716,0.135,-0.52
2021-08-19 05:40:06.720,0.145,-0.515
2021-08-19 05:40:06.724,0.155,-0.495
2021-08-19 05:40:06.728,0.155,-0.48
2021-08-19 05:40:06.732,0.1,-0.48
2021-08-19 05:40:06.736,0.07,-0.46
2021-08-19 05:40:06.740,0.05,-0.485
2021-08-19 05:40:06.744,0.065,-0.47
2021-08-19 05:40:06.748,0.04,-0.45
2021-08-19 05:40:06.752,0.05,-0.46
2021-08-19 05:40:06.756,0.08,-0.47
2021-08-19 05:40:06.760,0.07,-0.475
2021-08-19 05:40:06.764,0.085,-0.48
2021-08-19 05:40:06.768,0.11,-0.505
2021-08-19 05:40:06.772,0.1,-0.515
2021-08-19 05:40:06.776,0.1,-0.52
2021-08-19 05:40:06.780,0.105,-0.515
2021-08-19 05:40:06.784,0.12,-0.535
2021-08-19 05:40:06.788,0.11,-0.515
2021-08-19 05:40:06.792,0.11,-0.545
2021-08-19 05:40:06.796,0.115,-0.545
2021-08-19 05:40:06.800,0.105,-0.535
2021-08-19 05:40:06.804,0.125,-0.53
2021-08-19 05:40:06.808,0.115,-0.53
2021-08-19 05:40:06.812,0.12,-0.535
2021-08-19 05:40:06.816,0.12,-0.5
2021-08-19 05:40:06.820,0.125,-0.535
2021-08-19 05:40:06.824,0.13,-0.545
2021-08-19 05:40:06.828,0.145,-0.545
2021-08-19 05:40:06.832,0.13,-0.55
2021-08-19 05:40:06.836,0.13,-0.565
2021-08-19 05:40:06.840,0.155,-0.555
2021-08-19 05:40:06.844,0.15,-0.565
2021-08-19 05:40:06.848,0.125,-0.57
2021-08-19 05:40:06.852,0.15,-0.575
2021-08-19 05:40:06.856,0.12,-0.58
2021-08-19 05:40:06.860,0.13,-0.58
2021-08-19 05:40:06.864,0.115,-0.575
2021-08-19 05:40:06.868,0.105,-0.585
2021-08-19 05:40:06.872,0.09,-0.535
2021-08-19 05:40:06.876,0.095,-0.54
2021-08-19 05:40:06.880,0.1,-0.535
2021-08-19 05:40:06.884,0.09,-0.525
2021-08-19 05:40:06.888,0.07,-0.495
2021-08-19 05:40:06.892,0.075,-0.515
2021-08-19 05:40:06.896,0.08,-0.505
2021-08-19 05:40:06.900,0.085,-0.495
2021-08-19 05:40:06.904,0.06,-0.48
2021-08-19 05:40:06.908,0.075,-0.46
2021-08-19 05:40:06.912,0.065,-0.465
2021-08-19 05:40:06.916,0.07,-0.445
2021-08-19 05:40:06.920,0.07,-0.44
2021-08-19 05:40:06.924,0.075,-0.415
2021-08-19 05:40:06.928,0.1,-0.415
2021-08-19 05:40:06.932,0.085,-0.4
2021-08-19 05:40:06.936,0.05,-0.405
2021-08-19 05:40:06.940,0.015,-0.39
2021-08-19 05:40:06.944,-0.025,-0.385
2021-08-19 05:40:06.948,-0.055,-0.385
2021-08-19 05:40:06.952,-0.065,-0.4
2021-08-19 05:40:06.956,-0.045,-0.38
2021-08-19 05:40:06.960,-0.045,-0.365
2021-08-19 05:40:06.964,0.005,-0.395
2021-08-19 05:40:06.968,-0.005,-0.38
2021-08-19 05:40:06.972,0.0,-0.39
2021-08-19 05:40:06.976,0.005,-0.38
2021-08-19 05:40:06.980,0.03,-0.36
2021-08-19 05:40:06.984,0.03,-0.38
2021-08-19 05:40:06.988,0.03,-0.38
2021-08-19 05:40:06.992,0.06,-0.39
2021-08-19 05:40:06.996,0.035,-0.36
2021-08-19 05:40:07.000,0.05,-0.35
2021-08-19 05:40:07.004,0.05,-0.345
2021-08-19 05:40:07.008,0.045,-0.335
2021-08-19 05:40:07.012,0.05,-0.305
2021-08-19 05:40:07.016,0.05,-0.245
2021-08-19 05:40:07.020,0.07,-0.16
2021-08-19 05:40:07.024,0.06,-0.085
2021-08-19 05:40:07.028,0.07,0.18
2021-08-19 05:40:07.032,0.075,0.505
2021-08-19 05:40:07.036,0.065,0.81
2021-08-19 05:40:07.040,0.09,0.92
2021-08-19 05:40:07.044,0.095,0.845
2021-08-19 05:40:07.048,0.065,0.645
2021-08-19 05:40:07.052,0.015,0.365
2021-08-19 05:40:07.056,-0.005,-0.025
2021-08-19 05:40:07.060,-0.045,-0.435
2021-08-19 05:40:07.064,-0.165,-0.81
2021-08-19 05:40:07.068,-0.415,-0.865
2021-08-19 05:40:07.072,-0.755,-0.545
2021-08-19 05:40:07.076,-1.08,-0.21
2021-08-19 05:40:07.080,-1.315,-0.19
2021-08-19 05:40:07.084,-1.43,-0.36
2021-08-19 05:40:07.088,-1.395,-0.58
2021-08-19 05:40:07.092,-1.145,-0.785
2021-08-19 05:40:07.096,-0.705,-0.905
2021-08-19 05:40:07.100,-0.32,-0.92
2021-08-19 05:40:07.104,-0.155,-0.83
2021-08-19 05:40:07.108,-0.11,-0.73
2021-08-19 05:40:07.112,-0.12,-0.68
2021-08-19 05:40:07.116,-0.17,-0.63
2021-08-19 05:40:07.120,-0.17,-0.65
2021-08-19 05:40:07.124,-0.175,-0.655
2021-08-19 05:40:07.128,-0.11,-0.66
2021-08-19 05:40:07.132,-0.03,-0.66
2021-08-19 05:40:07.136,0.005,-0.655
2021-08-19 05:40:07.140,0.07,-0.635
2021-08-19 05:40:07.144,0.075,-0.635
2021-08-19 05:40:07.148,0.09,-0.575
2021-08-19 05:40:07.152,0.095,-0.54
2021-08-19 05:40:07.156,0.07,-0.535
2021-08-19 05:40:07.160,0.055,-0.545
2021-08-19 05:40:07.164,0.05,-0.55
2021-08-19 05:40:07.168,0.01,-0.525
2021-08-19 05:40:07.172,0.0,-0.505
2021-08-19 05:40:07.176,0.02,-0.495
2021-08-19 05:40:07.180,0.025,-0.48
2021-08-19 05:40:07.184,0.055,-0.485
2021-08-19 05:40:07.188,0.045,-0.485
2021-08-19 05:40:07.192,0.07,-0.505
2021-08-19 05:40:07.196,0.075,-0.485
2021-08-19 05:40:07.200,0.09,-0.49
2021-08-19 05:40:07.204,0.1,-0.51
2021-08-19 05:40:07.208,0.115,-0.49
2021-08-19 05:40:07.212,0.13,-0.48
2021-08-19 05:40:07.216,0.1,-0.51
2021-08-19 05:40:07.220,0.105,-0.5
2021-08-19 05:40:07.224,0.125,-0.5
2021-08-19 05:40:07.228,0.135,-0.5
2021-08-19 05:40:07.232,0.14,-0.5
2021-08-19 05:40:07.236,0.13,-0.51
2021-08-19 05:40:07.240,0.115,-0.5
2021-08-19 05:40:07.244,0.1,-0.48
2021-08-19 05:40:07.248,0.105,-0.465
2021-08-19 05:40:07.252,0.105,-0.485
2021-08-19 05:40:07.256,0.105,-0.485
2021-08-19 05:40:07.260,0.115,-0.49
2021-08-19 05:40:07.264,0.105,-0.495
2021-08-19 05:40:07.268,0.14,-0.495
2021-08-19 05:40:07.272,0.145,-0.51
2021-08-19 05:40:07.276,0.15,-0.505
2021-08-19 05:40:07.280,0.12,-0.51
2021-08-19 05:40:07.284,0.14,-0.52
2021-08-19 05:40:07.288,0.13,-0.495
2021-08-19 05:40:07.292,0.13,-0.515
2021-08-19 05:40:07.296,0.13,-0.52
2021-08-19 05:40:07.300,0.13,-0.54
2021-08-19 05:40:07.304,0.12,-0.545
2021-08-19 05:40:07.308,0.125,-0.55
2021-08-19 05:40:07.312,0.115,-0.53
2021-08-19 05:40:07.316,0.115,-0.555
2021-08-19 05:40:07.320,0.125,-0.545
2021-08-19 05:40:07.324,0.11,-0.525
2021-08-19 05:40:07.328,0.13,-0.53
2021-08-19 05:40:07.332,0.11,-0.515
2021-08-19 05:40:07.336,0.12,-0.51
2021-08-19 05:40:07.340,0.13,-0.52
2021-08-19 05:40:07.344,0.095,-0.51
2021-08-19 05:40:07.348,0.1,-0.48
2021-08-19 05:40:07.352,0.08,-0.515
2021-08-19 05:40:07.356,0.07,-0.495
2021-08-19 05:40:07.360,0.035,-0.485
2021-08-19 05:40:07.364,0.035,-0.48
2021-08-19 05:40:07.368,0.005,-0.455
2021-08-19 05:40:07.372,-0.005,-0.445
2021-08-19 05:40:07.376,-0.025,-0.4
2021-08-19 05:40:07.380,-0.03,-0.395
2021-08-19 05:40:07.384,-0.03,-0.365
2021-08-19 05:40:07.388,-0.04,-0.38
2021-08-19 05:40:07.392,-0.015,-0.365
2021-08-19 05:40:07.396,-0.01,-0.38
2021-08-19 05:40:07.400,-0.01,-0.39
2021-08-19 05:40:07.404,-0.02,-0.365
2021-08-19 05:40:07.408,-0.03,-0.37
2021-08-19 05:40:07.412,-0.02,-0.37
2021-08-19 05:40:07.416,-0.025,-0.355
2021-08-19 05:40:07.420,0.0,-0.33
2021-08-19 05:40:07.424,-0.01,-0.32
2021-08-19 05:40:07.428,0.015,-0.295
2021-08-19 05:40:07.432,0.03,-0.3
2021-08-19 05:40:07.436,0.04,-0.305
2021-08-19 05:40:07.440,0.02,-0.29
2021-08-19 05:40:07.444,0.04,-0.285
2021-08-19 05:40:07.448,0.035,-0.26
2021-08-19 05:40:07.452,0.045,-0.26
2021-08-19 05:40:07.456,0.04,-0.23
2021-08-19 05:40:07.460,0.06,-0.195
2021-08-19 05:40:07.464,0.05,-0.13
2021-08-19 05:40:07.468,0.06,-0.055
2021-08-19 05:40:07.472,0.055,0.01
2021-08-19 05:40:07.476,0.05,0.145
2021-08-19 05:40:07.480,0.075,0.415
2021-08-19 05:40:07.484,0.06,0.76
2021-08-19 05:40:07.488,0.085,0.965
2021-08-19 05:40:07.492,0.12,0.99
2021-08-19 05:40:07.496,0.09,0.845
2021-08-19 05:40:07.500,0.065,0.645
2021-08-19 05:40:07.504,0.055,0.35
2021-08-19 05:40:07.508,0.04,0.01
2021-08-19 05:40:07.512,-0.03,-0.42
2021-08-19 05:40:07.516,-0.205,-0.74
2021-08-19 05:40:07.520,-0.5,-0.7
2021-08-19 05:40:07.524,-0.84,-0.325
2021-08-19 05:40:07.528,-1.16,-0.005
2021-08-19 05:40:07.532,-1.33,-0.025
2021-08-19 05:40:07.536,-1.41,-0.28
2021-08-19 05:40:07.540,-1.345,-0.525
2021-08-19 05:40:07.544,-1.02,-0.69
2021-08-19 05:40:07.548,-0.58,-0.79
2021-08-19 05:40:07.552,-0.19,-0.8
2021-08-19 05:40:07.556,-0.04,-0.705
2021-08-19 05:40:07.560,-0.045,-0.61
2021-08-19 05:40:07.564,-0.06,-0.535
2021-08-19 05:40:07.568,-0.11,-0.535
2021-08-19 05:40:07.572,-0.1,-0.515
2021-08-19 05:40:07.576,-0.08,-0.515
2021-08-19 05:40:07.580,-0.08,-0.535
2021-08-19 05:40:07.584,-0.025,-0.53
2021-08-19 05:40:07.588,0.06,-0.545
2021-08-19 05:40:07.592,0.1,-0.54
2021-08-19 05:40:07.596,0.13,-0.55
2021-08-19 05:40:07.600,0.12,-0.565
2021-08-19 05:40:07.604,0.14,-0.57
2021-08-19 05:40:07.608,0.135,-0.585
2021-08-19 05:40:07.612,0.135,-0.575
2021-08-19 05:40:07.616,0.145,-0.6
2021-08-19 05:40:07.620,0.145,-0.62
2021-08-19 05:40:07.624,0.14,-0.63
2021-08-19 05:40:07.628,0.155,-0.635
2021-08-19 05:40:07.632,0.12,-0.65
2021-08-19 05:40:07.636,0.14,-0.645
2021-08-19 05:40:07.640,0.125,-0.595
2021-08-19 05:40:07.644,0.14,-0.55
2021-08-19 05:40:07.648,0.15,-0.52
2021-08-19 05:40:07.652,0.15,-0.49
2021-08-19 05:40:07.656,0.155,-0.415
2021-08-19 05:40:07.660,0.18,-0.42
2021-08-19 05:40:07.664,0.165,-0.395
2021-08-19 05:40:07.668,0.19,-0.38
2021-08-19 05:40:07.672,0.19,-0.37
2021-08-19 05:40:07.676,0.175,-0.375
2021-08-19 05:40:07.680,0.15,-0.345
2021-08-19 05:40:07.684,0.135,-0.34
2021-08-19 05:40:07.688,0.165,-0.29
2021-08-19 05:40:07.692,0.16,-0.295
2021-08-19 05:40:07.696,0.165,-0.295
2021-08-19 05:40:07.700,0.155,-0.3
2021-08-19 05:40:07.704,0.165,-0.29
2021-08-19 05:40:07.708,0.155,-0.27
2021-08-19 05:40:07.712,0.15,-0.275
2021-08-19 05:40:07.716,0.145,-0.285
2021-08-19 05:40:07.720,0.125,-0.29
2021-08-19 05:40:07.724,0.135,-0.315
2021-08-19 05:40:07.728,0.12,-0.325
2021-08-19 05:40:07.732,0.115,-0.365
2021-08-19 05:40:07.736,0.125,-0.375
2021-08-19 05:40:07.740,0.12,-0.385
2021-08-19 05:40:07.744,0.13,-0.4
2021-08-19 05:40:07.748,0.135,-0.39
2021-08-19 05:40:07.752,0.115,-0.38
2021-08-19 05:40:07.756,0.11,-0.375
2021-08-19 05:40:07.760,0.095,-0.35
2021-08-19 05:40:07.764,0.085,-0.355
2021-08-19 05:40:07.768,0.1,-0.33
2021-08-19 05:40:07.772,0.12,-0.335
2021-08-19 05:40:07.776,0.115,-0.305
2021-08-19 05:40:07.780,0.095,-0.285
2021-08-19 05:40:07.784,0.105,-0.27
2021-08-19 05:40:07.788,0.11,-0.25
2021-08-19 05:40:07.792,0.115,-0.245
2021-08-19 05:40:07.796,0.1,-0.205
2021-08-19 05:40:07.800,0.11,-0.21
2021-08-19 05:40:07.804,0.1,-0.21
2021-08-19 05:40:07.808,0.1,-0.21
2021-08-19 05:40:07.812,0.07,-0.195
2021-08-19 05:40:07.816,0.09,-0.19
2021-08-19 05:40:07.820,0.08,-0.2
2021-08-19 05:40:07.824,0.09,-0.19
2021-08-19 05:40:07.828,0.07,-0.195
2021-08-19 05:40:07.832,0.08,-0.205
2021-08-19 05:40:07.836,0.065,-0.21
2021-08-19 05:40:07.840,0.05,-0.195
2021-08-19 05:40:07.844,0.06,-0.21
2021-08-19 05:40:07.848,0.06,-0.22
2021-08-19 05:40:07.852,0.06,-0.2
2021-08-19 05:40:07.856,0.045,-0.19
2021-08-19 05:40:07.860,0.045,-0.22
2021-08-19 05:40:07.864,0.06,-0.225
2021-08-19 05:40:07.868,0.035,-0.21
2021-08-19 05:40:07.872,0.05,-0.22
2021-08-19 05:40:07.876,0.055,-0.22
2021-08-19 05:40:07.880,0.04,-0.205
2021-08-19 05:40:07.884,0.05,-0.21
2021-08-19 05:40:07.888,0.06,-0.205
2021-08-19 05:40:07.892,0.06,-0.175
2021-08-19 05:40:07.896,0.05,-0.16
2021-08-19 05:40:07.900,0.05,-0.155
2021-08-19 05:40:07.904,0.06,-0.14
2021-08-19 05:40:07.908,0.055,-0.135
2021-08-19 05:40:07.912,0.085,-0.11
2021-08-19 05:40:07.916,0.085,-0.1
2021-08-19 05:40:07.920,0.085,-0.1
2021-08-19 05:40:07.924,0.105,-0.09
2021-08-19 05:40:07.928,0.115,-0.08
2021-08-19 05:40:07.932,0.14,-0.06
2021-08-19 05:40:07.936,0.1,-0.085
2021-08-19 05:40:07.940,0.13,-0.07
2021-08-19 05:40:07.944,0.115,-0.07
2021-08-19 05:40:07.948,0.11,-0.05
2021-08-19 05:40:07.952,0.115,-0.03
2021-08-19 05:40:07.956,0.075,-0.035
2021-08-19 05:40:07.960,0.09,-0.005
2021-08-19 05:40:07.964,0.09,-0.01
2021-08-19 05:40:07.968,0.08,-0.03
2021-08-19 05:40:07.972,0.085,-0.085
2021-08-19 05:40:07.976,0.075,-0.115
2021-08-19 05:40:07.980,0.125,-0.15
2021-08-19 05:40:07.984,0.14,-0.175
2021-08-19 05:40:07.988,0.155,-0.175
2021-08-19 05:40:07.992,0.155,-0.2
2021-08-19 05:40:07.996,0.175,-0.22
2021-08-19 05:40:08.000,0.225,-0.205
2021-08-19 05:40:08.004,0.195,-0.2
2021-08-19 05:40:08.008,0.18,-0.225
2021-08-19 05:40:08.012,0.155,-0.24
2021-08-19 05:40:08.016,0.14,-0.26
2021-08-19 05:40:08.020,0.1,-0.265
2021-08-19 05:40:08.024,0.07,-0.26
2021-08-19 05:40:08.028,0.015,-0.26
2021-08-19 05:40:08.032,-0.025,-0.285
2021-08-19 05:40:08.036,-0.03,-0.28
2021-08-19 05:40:08.040,-0.015,-0.27
2021-08-19 05:40:08.044,-0.035,-0.28
2021-08-19 05:40:08.048,-0.04,-0.265
2021-08-19 05:40:08.052,-0.055,-0.265
2021-08-19 05:40:08.056,-0.015,-0.28
2021-08-19 05:40:08.060,-0.045,-0.28
2021-08-19 05:40:08.064,-0.04,-0.29
2021-08-19 05:40:08.068,-0.05,-0.27
2021-08-19 05:40:08.072,-0.04,-0.28
2021-08-19 05:40:08.076,-0.05,-0.295
2021-08-19 05:40:08.080,-0.045,-0.295
2021-08-19 05:40:08.084,-0.06,-0.295
2021-08-19 05:40:08.088,-0.06,-0.305
2021-08-19 05:40:08.092,-0.045,-0.315
2021-08-19 05:40:08.096,-0.05,-0.305
2021-08-19 05:40:08.100,-0.065,-0.3
2021-08-19 05:40:08.104,-0.065,-0.285
2021-08-19 05:40:08.108,-0.04,-0.28
2021-08-19 05:40:08.112,-0.04,-0.265
2021-08-19 05:40:08.116,-0.065,-0.25
2021-08-19 05:40:08.120,-0.04,-0.245
2021-08-19 05:40:08.124,-0.08,-0.25
2021-08-19 05:40:08.128,-0.07,-0.22
2021-08-19 05:40:08.132,-0.065,-0.22
2021-08-19 05:40:08.136,-0.055,-0.17
2021-08-19 05:40:08.140,-0.085,-0.145
2021-08-19 05:40:08.144,-0.065,-0.075
2021-08-19 05:40:08.148,-0.025,-0.02
2021-08-19 05:40:08.152,-0.02,0.02
2021-08-19 05:40:08.156,0.01,0.13
2021-08-19 05:40:08.160,0.01,0.375
2021-08-19 05:40:08.164,0.01,0.67
2021-08-19 05:40:08.168,0.03,0.9
2021-08-19 05:40:08.172,0.035,0.98
2021-08-19 05:40:08.176,0.0,0.89
2021-08-19 05:40:08.180,-0.04,0.745
2021-08-19 05:40:08.184,-0.07,0.495
2021-08-19 05:40:08.188,-0.095,0.14
2021-08-19 05:40:08.192,-0.165,-0.25
2021-08-19 05:40:08.196,-0.35,-0.575
2021-08-19 05:40:08.200,-0.67,-0.525
2021-08-19 05:40:08.204,-1.01,-0.14
2021-08-19 05:40:08.208,-1.335,0.15
2021-08-19 05:40:08.212,-1.525,0.07
2021-08-19 05:40:08.216,-1.595,-0.16
2021-08-19 05:40:08.220,-1.52,-0.39
2021-08-19 05:40:08.224,-1.18,-0.515
2021-08-19 05:40:08.228,-0.7,-0.6
2021-08-19 05:40:08.232,-0.27,-0.6
2021-08-19 05:40:08.236,-0.11,-0.505
2021-08-19 05:40:08.240,-0.08,-0.37
2021-08-19 05:40:08.244,-0.105,-0.275
2021-08-19 05:40:08.248,-0.115,-0.24
2021-08-19 05:40:08.252,-0.1,-0.24
2021-08-19 05:40:08.256,-0.06,-0.225
2021-08-19 05:40:08.260,-0.005,-0.23
2021-08-19 05:40:08.264,0.035,-0.21
2021-08-19 05:40:08.268,0.08,-0.215
2021-08-19 05:40:08.272,0.09,-0.23
2021-08-19 05:40:08.276,0.065,-0.24
2021-08-19 05:40:08.280,0.04,-0.24
2021-08-19 05:40:08.284,0.025,-0.255
2021-08-19 05:40:08.288,0.0,-0.24
2021-08-19 05:40:08.292,0.03,-0.29
2021-08-19 05:40:08.296,0.01,-0.28
2021-08-19 05:40:08.300,0.0,-0.3
2021-08-19 05:40:08.304,0.01,-0.295
2021-08-19 05:40:08.308,0.01,-0.31
2021-08-19 05:40:08.312,0.015,-0.335
2021-08-19 05:40:08.316,0.02,-0.345
2021-08-19 05:40:08.320,0.03,-0.32
2021-08-19 05:40:08.324,0.055,-0.335
2021-08-19 05:40:08.328,0.04,-0.34
2021-08-19 05:40:08.332,0.055,-0.33
2021-08-19 05:40:08.336,0.05,-0.345
2021-08-19 05:40:08.340,0.05,-0.34
2021-08-19 05:40:08.344,0.08,-0.315
2021-08-19 05:40:08.348,0.09,-0.33
2021-08-19 05:40:08.352,0.075,-0.305
2021-08-19 05:40:08.356,0.06,-0.29
2021-08-19 05:40:08.360,0.065,-0.275
2021-08-19 05:40:08.364,0.075,-0.27
2021-08-19 05:40:08.368,0.085,-0.25
2021-08-19 05:40:08.372,0.09,-0.24
2021-08-19 05:40:08.376,0.105,-0.25
2021-08-19 05:40:08.380,0.105,-0.26
2021-08-19 05:40:08.384,0.095,-0.24
2021-08-19 05:40:08.388,0.095,-0.245
2021-08-19 05:40:08.392,0.095,-0.235
2021-08-19 05:40:08.396,0.075,-0.23
2021-08-19 05:40:08.400,0.085,-0.225
2021-08-19 05:40:08.404,0.08,-0.23
2021-08-19 05:40:08.408,0.095,-0.22
2021-08-19 05:40:08.412,0.075,-0.23
2021-08-19 05:40:08.416,0.09,-0.24
2021-08-19 05:40:08.420,0.075,-0.24
2021-08-19 05:40:08.424,0.08,-0.245
2021-08-19 05:40:08.428,0.085,-0.22
2021-08-19 05:40:08.432,0.085,-0.225
2021-08-19 05:40:08.436,0.07,-0.205
2021-08-19 05:40:08.440,0.085,-0.2
2021-08-19 05:40:08.444,0.08,-0.2
2021-08-19 05:40:08.448,0.085,-0.205
2021-08-19 05:40:08.452,0.115,-0.2
2021-08-19 05:40:08.456,0.085,-0.19
2021-08-19 05:40:08.460,0.11,-0.185
2021-08-19 05:40:08.464,0.13,-0.185
2021-08-19 05:40:08.468,0.135,-0.155
2021-08-19 05:40:08.472,0.15,-0.13
2021-08-19 05:40:08.476,0.16,-0.095
2021-08-19 05:40:08.480,0.155,-0.085
2021-08-19 05:40:08.484,0.15,-0.075
2021-08-19 05:40:08.488,0.155,-0.05
2021-08-19 05:40:08.492,0.135,-0.025
2021-08-19 05:40:08.496,0.11,-0.025
2021-08-19 05:40:08.500,0.07,-0.02
2021-08-19 05:40:08.504,0.03,-0.005
2021-08-19 05:40:08.508,-0.005,-0.03
2021-08-19 05:40:08.512,-0.015,-0.02
2021-08-19 05:40:08.516,-0.015,-0.03
2021-08-19 05:40:08.520,-0.04,-0.02
2021-08-19 05:40:08.524,-0.06,-0.025
2021-08-19 05:40:08.528,-0.055,-0.03
2021-08-19 05:40:08.532,-0.045,-0.02
2021-08-19 05:40:08.536,-0.055,-0.03
2021-08-19 05:40:08.540,-0.06,-0.04
2021-08-19 05:40:08.544,-0.04,-0.03
2021-08-19 05:40:08.548,-0.065,-0.035
2021-08-19 05:40:08.552,-0.05,-0.06
2021-08-19 05:40:08.556,-0.05,-0.035
2021-08-19 05:40:08.560,-0.03,-0.04
2021-08-19 05:40:08.564,-0.03,-0.02
2021-08-19 05:40:08.568,-0.03,0.005
2021-08-19 05:40:08.572,-0.025,0.0
2021-08-19 05:40:08.576,-0.03,0.0
2021-08-19 05:40:08.580,-0.015,-0.005
2021-08-19 05:40:08.584,0.0,0.005
2021-08-19 05:40:08.588,0.015,-0.015
2021-08-19 05:40:08.592,0.04,-0.015
2021-08-19 05:40:08.596,0.03,-0.015
2021-08-19 05:40:08.600,0.04,-0.04
2021-08-19 05:40:08.604,0.025,-0.03
2021-08-19 05:40:08.608,0.02,-0.03
2021-08-19 05:40:08.612,0.04,-0.025
2021-08-19 05:40:08.616,0.045,-0.03
2021-08-19 05:40:08.620,0.025,-0.045
2021-08-19 05:40:08.624,0.035,-0.09
2021-08-19 05:40:08.628,0.01,-0.1
2021-08-19 05:40:08.632,0.005,-0.1
2021-08-19 05:40:08.636,0.015,-0.095
2021-08-19 05:40:08.640,0.01,-0.11
2021-08-19 05:40:08.644,0.025,-0.1
2021-08-19 05:40:08.648,0.01,-0.1
2021-08-19 05:40:08.652,-0.005,-0.09
2021-08-19 05:40:08.656,0.0,-0.08
2021-08-19 05:40:08.660,0.015,-0.06
2021-08-19 05:40:08.664,0.01,-0.06
2021-08-19 05:40:08.668,0.0,-0.08
2021-08-19 05:40:08.672,-0.01,-0.06
2021-08-19 05:40:08.676,0.03,-0.03
2021-08-19 05:40:08.680,0.05,-0.035
2021-08-19 05:40:08.684,0.08,-0.02
2021-08-19 05:40:08.688,0.09,-0.03
2021-08-19 05:40:08.692,0.11,-0.015
2021-08-19 05:40:08.696,0.125,-0.025
2021-08-19 05:40:08.700,0.11,0.0
2021-08-19 05:40:08.704,0.115,-0.015
2021-08-19 05:40:08.708,0.08,0.0
2021-08-19 05:40:08.712,0.055,0.0
2021-08-19 05:40:08.716,0.005,-0.02
2021-08-19 05:40:08.720,0.0,-0.01
2021-08-19 05:40:08.724,-0.035,-0.035
2021-08-19 05:40:08.728,-0.02,-0.015
2021-08-19 05:40:08.732,-0.02,-0.04
2021-08-19 05:40:08.736,-0.04,-0.025
2021-08-19 05:40:08.740,-0.04,-0.035
2021-08-19 05:40:08.744,-0.04,-0.04
2021-08-19 05:40:08.748,-0.04,-0.025
2021-08-19 05:40:08.752,-0.035,-0.02
2021-08-19 05:40:08.756,-0.07,-0.01
2021-08-19 05:40:08.760,-0.045,-0.025
2021-08-19 05:40:08.764,-0.05,-0.02
2021-08-19 05:40:08.768,-0.04,-0.04
2021-08-19 05:40:08.772,-0.02,-0.025
2021-08-19 05:40:08.776,-0.03,-0.01
2021-08-19 05:40:08.780,-0.035,0.0
2021-08-19 05:40:08.784,-0.03,0.025
2021-08-19 05:40:08.788,-0.03,0.04
2021-08-19 05:40:08.792,-0.02,0.035
2021-08-19 05:40:08.796,-0.02,0.06
2021-08-19 05:40:08.800,0.005,0.055
2021-08-19 05:40:08.804,0.0,0.045
2021-08-19 05:40:08.808,0.03,0.035
2021-08-19 05:40:08.812,0.02,0.06
2021-08-19 05:40:08.816,0.04,0.02
2021-08-19 05:40:08.820,0.015,0.01
2021-08-19 05:40:08.824,0.025,0.005
2021-08-19 05:40:08.828,0.04,0.015
2021-08-19 05:40:08.832,0.0,-0.005
2021-08-19 05:40:08.836,-0.025,-0.02
2021-08-19 05:40:08.840,-0.01,-0.035
2021-08-19 05:40:08.844,-0.005,-0.035
2021-08-19 05:40:08.848,0.0,-0.04
2021-08-19 05:40:08.852,-0.02,-0.07
2021-08-19 05:40:08.856,-0.005,-0.045
2021-08-19 05:40:08.860,-0.02,-0.04
2021-08-19 05:40:08.864,-0.02,-0.04
2021-08-19 05:40:08.868,-0.035,-0.04
2021-08-19 05:40:08.872,-0.03,-0.03
2021-08-19 05:40:08.876,-0.03,-0.015
2021-08-19 05:40:08.880,-0.04,-0.02
2021-08-19 05:40:08.884,-0.04,-0.05
2021-08-19 05:40:08.888,-0.05,-0.035
2021-08-19 05:40:08.892,-0.025,-0.03
2021-08-19 05:40:08.896,-0.02,-0.045
2021-08-19 05:40:08.900,0.005,-0.04
2021-08-19 05:40:08.904,0.025,-0.04
2021-08-19 05:40:08.908,0.025,-0.005
2021-08-19 05:40:08.912,0.04,-0.005
2021-08-19 05:40:08.916,0.04,-0.01
2021-08-19 05:40:08.920,0.055,0.005
2021-08-19 05:40:08.924,0.075,0.02
2021-08-19 05:40:08.928,0.105,0.05
2021-08-19 05:40:08.932,0.09,0.04
2021-08-19 05:40:08.936,0.125,0.045
2021-08-19 05:40:08.940,0.105,0.01
2021-08-19 05:40:08.944,0.04,0.005
2021-08-19 05:40:08.948,0.015,0.015
2021-08-19 05:40:08.952,-0.035,-0.01
2021-08-19 05:40:08.956,-0.035,0.0
2021-08-19 05:40:08.960,-0.045,0.025
2021-08-19 05:40:08.964,-0.075,0.025
2021-08-19 05:40:08.968,-0.05,0.03
2021-08-19 05:40:08.972,-0.055,0.06
2021-08-19 05:40:08.976,-0.06,0.125
2021-08-19 05:40:08.980,-0.055,0.175
2021-08-19 05:40:08.984,-0.03,0.215
2021-08-19 05:40:08.988,-0.045,0.315
2021-08-19 05:40:08.992,-0.055,0.515
2021-08-19 05:40:08.996,0.0,0.795
2021-08-19 05:40:09.000,-0.015,0.955
2021-08-19 05:40:09.004,0.005,1.04
2021-08-19 05:40:09.008,-0.025,0.985
2021-08-19 05:40:09.012,-0.07,0.83
2021-08-19 05:40:09.016,-0.105,0.66
2021-08-19 05:40:09.020,-0.135,0.415
2021-08-19 05:40:09.024,-0.16,0.065
2021-08-19 05:40:09.028,-0.34,-0.205
2021-08-19 05:40:09.032,-0.585,-0.195
2021-08-19 05:40:09.036,-0.92,0.12
2021-08-19 05:40:09.040,-1.205,0.345
2021-08-19 05:40:09.044,-1.38,0.23
2021-08-19 05:40:09.048,-1.415,-0.005
2021-08-19 05:40:09.052,-1.3,-0.225
2021-08-19 05:40:09.056,-0.99,-0.355
2021-08-19 05:40:09.060,-0.55,-0.425
2021-08-19 05:40:09.064,-0.24,-0.37
2021-08-19 05:40:09.068,-0.145,-0.27
2021-08-19 05:40:09.072,-0.15,-0.19
2021-08-19 05:40:09.076,-0.19,-0.175
2021-08-19 05:40:09.080,-0.205,-0.18
2021-08-19 05:40:09.084,-0.21,-0.185
2021-08-19 05:40:09.088,-0.18,-0.15
2021-08-19 05:40:09.092,-0.15,-0.145
2021-08-19 05:40:09.096,-0.095,-0.15
2021-08-19 05:40:09.100,-0.065,-0.15
2021-08-19 05:40:09.104,0.0,-0.135
2021-08-19 05:40:09.108,-0.015,-0.15
2021-08-19 05:40:09.112,0.0,-0.155
2021-08-19 05:40:09.116,0.04,-0.12
2021-08-19 05:40:09.120,0.035,-0.135
2021-08-19 05:40:09.124,0.04,-0.13
2021-08-19 05:40:09.128,0.06,-0.15
2021-08-19 05:40:09.132,0.065,-0.14
2021-08-19 05:40:09.136,0.065,-0.135
2021-08-19 05:40:09.140,0.08,-0.125
2021-08-19 05:40:09.144,0.06,-0.1
2021-08-19 05:40:09.148,0.1,-0.1
2021-08-19 05:40:09.152,0.085,-0.085
2021-08-19 05:40:09.156,0.09,-0.06
2021-08-19 05:40:09.160,0.1,-0.07
2021-08-19 05:40:09.164,0.12,-0.075
2021-08-19 05:40:09.168,0.13,-0.07
2021-08-19 05:40:09.172,0.15,-0.095
2021-08-19 05:40:09.176,0.145,-0.09
2021-08-19 05:40:09.180,0.15,-0.075
2021-08-19 05:40:09.184,0.155,-0.075
2021-08-19 05:40:09.188,0.135,-0.07
2021-08-19 05:40:09.192,0.105,-0.08
2021-08-19 05:40:09.196,0.09,-0.07
2021-08-19 05:40:09.200,0.05,-0.075
2021-08-19 05:40:09.204,0.03,-0.085
2021-08-19 05:40:09.208,-0.015,-0.09
2021-08-19 05:40:09.212,-0.04,-0.105
2021-08-19 05:40:09.216,-0.055,-0.095
2021-08-19 05:40:09.220,-0.07,-0.085
2021-08-19 05:40:09.224,-0.025,-0.095
2021-08-19 05:40:09.228,-0.035,-0.07
2021-08-19 05:40:09.232,-0.025,-0.065
2021-08-19 05:40:09.236,-0.015,-0.065
2021-08-19 05:40:09.240,0.005,-0.085
2021-08-19 05:40:09.244,-0.015,-0.095
2021-08-19 05:40:09.248,0.015,-0.105
2021-08-19 05:40:09.252,0.015,-0.095
2021-08-19 05:40:09.256,0.015,-0.1
2021-08-19 05:40:09.260,0.035,-0.11
2021-08-19 05:40:09.264,0.03,-0.105
2021-08-19 05:40:09.268,0.01,-0.12
2021-08-19 05:40:09.272,-0.01,-0.11
2021-08-19 05:40:09.276,-0.01,-0.12
2021-08-19 05:40:09.280,-0.01,-0.115
2021-08-19 05:40:09.284,-0.025,-0.15
2021-08-19 05:40:09.288,0.015,-0.155
2021-08-19 05:40:09.292,-0.035,-0.155
2021-08-19 05:40:09.296,-0.035,-0.155
2021-08-19 05:40:09.300,-0.04,-0.125
2021-08-19 05:40:09.304,-0.02,-0.11
2021-08-19 05:40:09.308,-0.025,-0.085
2021-08-19 05:40:09.312,-0.035,-0.075
2021-08-19 05:40:09.316,-0.045,-0.055
2021-08-19 05:40:09.320,-0.06,-0.04
2021-08-19 05:40:09.324,-0.085,-0.015
2021-08-19 05:40:09.328,-0.055,0.005
2021-08-19 05:40:09.332,-0.04,0.0
2021-08-19 05:40:09.336,-0.045,0.04
2021-08-19 05:40:09.340,-0.025,0.065
2021-08-19 05:40:09.344,-0.025,0.09
2021-08-19 05:40:09.348,0.005,0.09
2021-08-19 05:40:09.352,0.005,0.085
2021-08-19 05:40:09.356,0.0,0.105
2021-08-19 05:40:09.360,0.0,0.12
2021-08-19 05:40:09.364,0.005,0.125
2021-08-19 05:40:09.368,0.045,0.12
2021-08-19 05:40:09.372,0.06,0.145
2021-08-19 05:40:09.376,0.035,0.15
2021-08-19 05:40:09.380,0.055,0.18
2021-08-19 05:40:09.384,0.07,0.185
2021-08-19 05:40:09.388,0.075,0.205
2021-08-19 05:40:09.392,0.105,0.205
2021-08-19 05:40:09.396,0.085,0.18
2021-08-19 05:40:09.400,0.085,0.19
2021-08-19 05:40:09.404,0.105,0.195
2021-08-19 05:40:09.408,0.095,0.215
2021-08-19 05:40:09.412,0.135,0.2
2021-08-19 05:40:09.416,0.115,0.21
2021-08-19 05:40:09.420,0.135,0.21
2021-08-19 05:40:09.424,0.13,0.195
2021-08-19 05:40:09.428,0.1,0.2
2021-08-19 05:40:09.432,0.125,0.17
2021-08-19 05:40:09.436,0.095,0.145
2021-08-19 05:40:09.440,0.1,0.155
2021-08-19 05:40:09.444,0.085,0.175
2021-08-19 05:40:09.448,0.055,0.16
2021-08-19 05:40:09.452,0.03,0.165
2021-08-19 05:40:09.456,0.02,0.18
2021-08-19 05:40:09.460,-0.005,0.175
2021-08-19 05:40:09.464,-0.005,0.175
2021-08-19 05:40:09.468,0.005,0.145
2021-08-19 05:40:09.472,0.02,0.135
2021-08-19 05:40:09.476,0.035,0.135
2021-08-19 05:40:09.480,0.005,0.13
2021-08-19 05:40:09.484,0.025,0.12
2021-08-19 05:40:09.488,0.0,0.085
2021-08-19 05:40:09.492,-0.01,0.05
2021-08-19 05:40:09.496,-0.02,0.055
2021-08-19 05:40:09.500,-0.035,0.02
2021-08-19 05:40:09.504,-0.045,0.015
2021-08-19 05:40:09.508,-0.045,0.0
2021-08-19 05:40:09.512,-0.04,-0.005
2021-08-19 05:40:09.516,-0.065,-0.005
2021-08-19 05:40:09.520,-0.05,-0.01
2021-08-19 05:40:09.524,-0.07,-0.01
2021-08-19 05:40:09.528,-0.075,-0.01
2021-08-19 05:40:09.532,-0.095,0.01
2021-08-19 05:40:09.536,-0.095,0.0
2021-08-19 05:40:09.540,-0.09,-0.005
2021-08-19 05:40:09.544,-0.1,-0.01
2021-08-19 05:40:09.548,-0.07,-0.005
2021-08-19 05:40:09.552,-0.09,0.0
2021-08-19 05:40:09.556,-0.075,-0.02
2021-08-19 05:40:09.560,-0.05,-0.015
2021-08-19 05:40:09.564,-0.05,-0.02
2021-08-19 05:40:09.568,-0.06,-0.03
2021-08-19 05:40:09.572,-0.035,-0.02
2021-08-19 05:40:09.576,-0.04,0.0
2021-08-19 05:40:09.580,-0.04,-0.02
2021-08-19 05:40:09.584,-0.02,-0.005
2021-08-19 05:40:09.588,-0.02,0.0
2021-08-19 05:40:09.592,-0.02,0.02
2021-08-19 05:40:09.596,-0.035,0.005
2021-08-19 05:40:09.600,-0.02,0.005
2021-08-19 05:40:09.604,-0.025,-0.01
2021-08-19 05:40:09.608,-0.03,-0.01
2021-08-19 05:40:09.612,-0.015,0.0
2021-08-19 05:40:09.616,-0.005,-0.005
2021-08-19 05:40:09.620,-0.015,-0.01
2021-08-19 05:40:09.624,-0.01,0.01
2021-08-19 05:40:09.628,-0.01,0.03
2021-08-19 05:40:09.632,0.015,0.02
2021-08-19 05:40:09.636,0.005,0.025
2021-08-19 05:40:09.640,0.01,0.025
2021-08-19 05:40:09.644,0.02,0.035
2021-08-19 05:40:09.648,0.0,0.035
2021-08-19 05:40:09.652,-0.005,0.03
2021-08-19 05:40:09.656,0.0,0.065
2021-08-19 05:40:09.660,0.0,0.075
2021-08-19 05:40:09.664,0.005,0.075
2021-08-19 05:40:09.668,0.015,0.125
2021-08-19 05:40:09.672,0.035,0.11
2021-08-19 05:40:09.676,0.035,0.115
2021-08-19 05:40:09.680,0.045,0.155
2021-08-19 05:40:09.684,0.03,0.13
2021-08-19 05:40:09.688,0.04,0.15
2021-08-19 05:40:09.692,0.065,0.165
2021-08-19 05:40:09.696,0.095,0.17
2021-08-19 05:40:09.700,0.09,0.18
2021-08-19 05:40:09.704,0.085,0.21
2021-08-19 05:40:09.708,0.075,0.23
2021-08-19 05:40:09.712,0.07,0.25
2021-08-19 05:40:09.716,0.07,0.29
2021-08-19 05:40:09.720,0.055,0.295
2021-08-19 05:40:09.724,0.06,0.36
2021-08-19 05:40:09.728,0.065,0.415
2021-08-19 05:40:09.732,0.08,0.45
2021-08-19 05:40:09.736,0.105,0.55
2021-08-19 05:40:09.740,0.1,0.735
2021-08-19 05:40:09.744,0.115,1.015
2021-08-19 05:40:09.748,0.175,1.2
2021-08-19 05:40:09.752,0.195,1.26
2021-08-19 05:40:09.756,0.19,1.16
2021-08-19 05:40:09.760,0.115,0.975
2021-08-19 05:40:09.764,0.065,0.735
2021-08-19 05:40:09.768,0.065,0.455
2021-08-19 05:40:09.772,0.005,0.05
2021-08-19 05:40:09.776,-0.15,-0.255
2021-08-19 05:40:09.780,-0.385,-0.265
2021-08-19 05:40:09.784,-0.755,0.03
2021-08-19 05:40:09.788,-1.095,0.28
2021-08-19 05:40:09.792,-1.245,0.215
2021-08-19 05:40:09.796,-1.305,-0.005
2021-08-19 05:40:09.800,-1.23,-0.165
2021-08-19 05:40:09.804,-0.925,-0.305
2021-08-19 05:40:09.808,-0.505,-0.355
2021-08-19 05:40:09.812,-0.235,-0.32
2021-08-19 05:40:09.816,-0.14,-0.215
2021-08-19 05:40:09.820,-0.13,-0.12
2021-08-19 05:40:09.824,-0.175,-0.07
2021-08-19 05:40:09.828,-0.18,-0.06
2021-08-19 05:40:09.832,-0.18,-0.08
2021-08-19 05:40:09.836,-0.175,-0.045
2021-08-19 05:40:09.840,-0.11,-0.04
2021-08-19 05:40:09.844,-0.06,-0.04
2021-08-19 05:40:09.848,-0.015,-0.045
2021-08-19 05:40:09.852,0.015,-0.025
2021-08-19 05:40:09.856,0.035,-0.045
2021-08-19 05:40:09.860,0.03,-0.035
2021-08-19 05:40:09.864,0.055,-0.04
2021-08-19 05:40:09.868,0.05,-0.04
2021-08-19 05:40:09.872,0.055,-0.03
2021-08-19 05:40:09.876,0.05,-0.02
2021-08-19 05:40:09.880,0.07,-0.02
2021-08-19 05:40:09.884,0.08,0.0
2021-08-19 05:40:09.888,0.07,0.035
2021-08-19 05:40:09.892,0.085,0.045
2021-08-19 05:40:09.896,0.095,0.04
2021-08-19 05:40:09.900,0.1,0.075
2021-08-19 05:40:09.904,0.075,0.075
2021-08-19 05:40:09.908,0.1,0.065
2021-08-19 05:40:09.912,0.095,0.07
2021-08-19 05:40:09.916,0.12,0.085
2021-08-19 05:40:09.920,0.115,0.08
2021-08-19 05:40:09.924,0.095,0.065
2021-08-19 05:40:09.928,0.12,0.045
2021-08-19 05:40:09.932,0.12,0.07
2021-08-19 05:40:09.936,0.13,0.05
2021-08-19 05:40:09.940,0.1,0.055
2021-08-19 05:40:09.944,0.105,0.025
2021-08-19 05:40:09.948,0.1,0.005
2021-08-19 05:40:09.952,0.105,0.005
2021-08-19 05:40:09.956,0.11,0.005
2021-08-19 05:40:09.960,0.1,-0.005
2021-08-19 05:40:09.964,0.11,-0.005
2021-08-19 05:40:09.968,0.115,0.0
2021-08-19 05:40:09.972,0.08,0.005
2021-08-19 05:40:09.976,0.095,0.015
2021-08-19 05:40:09.980,0.095,0.0
2021-08-19 05:40:09.984,0.065,-0.015
2021-08-19 05:40:09.988,0.08,-0.015
2021-08-19 05:40:09.992,0.095,-0.015
2021-08-19 05:40:09.996,0.1,-0.015
2021-08-19 05:40:10.000,0.13,-0.015
2021-08-19 05:40:10.004,0.12,-0.035
2021-08-19 05:40:10.008,0.135,-0.035
2021-08-19 05:40:10.012,0.11,-0.055
2021-08-19 05:40:10.016,0.13,-0.04
2021-08-19 05:40:10.020,0.135,-0.04
2021-08-19 05:40:10.024,0.105,-0.035
2021-08-19 05:40:10.028,0.13,-0.06
2021-08-19 05:40:10.032,0.155,-0.04
2021-08-19 05:40:10.036,0.115,-0.04
2021-08-19 05:40:10.040,0.12,-0.045
2021-08-19 05:40:10.044,0.115,-0.04
2021-08-19 05:40:10.048,0.115,-0.04
2021-08-19 05:40:10.052,0.11,-0.05
2021-08-19 05:40:10.056,0.12,-0.02
2021-08-19 05:40:10.060,0.13,-0.03
2021-08-19 05:40:10.064,0.11,-0.01
2021-08-19 05:40:10.068,0.11,-0.01
2021-08-19 05:40:10.072,0.11,-0.005
2021-08-19 05:40:10.076,0.09,0.0
2021-08-19 05:40:10.080,0.09,0.01
2021-08-19 05:40:10.084,0.07,0.005
2021-08-19 05:40:10.088,0.07,0.05
2021-08-19 05:40:10.092,0.06,0.115
2021-08-19 05:40:10.096,0.05,0.17
2021-08-19 05:40:10.100,0.075,0.205
2021-08-19 05:40:10.104,0.075,0.245
2021-08-19 05:40:10.108,0.09,0.29
2021-08-19 05:40:10.112,0.095,0.315
2021-08-19 05:40:10.116,0.095,0.32
2021-08-19 05:40:10.120,0.075,0.3
2021-08-19 05:40:10.124,0.07,0.315
2021-08-19 05:40:10.128,0.06,0.32
2021-08-19 05:40:10.132,0.05,0.3
2021-08-19 05:40:10.136,0.045,0.31
2021-08-19 05:40:10.140,0.06,0.29
2021-08-19 05:40:10.144,0.07,0.295
2021-08-19 05:40:10.148,0.07,0.295
2021-08-19 05:40:10.152,0.04,0.305
2021-08-19 05:40:10.156,0.065,0.28
2021-08-19 05:40:10.160,0.065,0.295
2021-08-19 05:40:10.164,0.065,0.28
2021-08-19 05:40:10.168,0.03,0.275
2021-08-19 05:40:10.172,0.045,0.24
2021-08-19 05:40:10.176,0.055,0.24
2021-08-19 05:40:10.180,0.065,0.24
2021-08-19 05:40:10.184,0.06,0.23
2021-08-19 05:40:10.188,0.05,0.21
2021-08-19 05:40:10.192,0.05,0.215
2021-08-19 05:40:10.196,0.045,0.215
2021-08-19 05:40:10.200,0.015,0.205
2021-08-19 05:40:10.204,0.035,0.21
2021-08-19 05:40:10.208,0.025,0.22
2021-08-19 05:40:10.212,-0.01,0.21
2021-08-19 05:40:10.216,0.005,0.205
2021-08-19 05:40:10.220,0.025,0.205
2021-08-19 05:40:10.224,0.04,0.185
2021-08-19 05:40:10.228,0.035,0.175
2021-08-19 05:40:10.232,0.05,0.21
2021-08-19 05:40:10.236,0.04,0.195
2021-08-19 05:40:10.240,0.045,0.165
2021-08-19 05:40:10.244,0.055,0.185
2021-08-19 05:40:10.248,0.06,0.17
2021-08-19 05:40:10.252,0.045,0.175
2021-08-19 05:40:10.256,0.06,0.19
2021-08-19 05:40:10.260,0.045,0.195
2021-08-19 05:40:10.264,0.035,0.2
2021-08-19 05:40:10.268,0.065,0.185
2021-08-19 05:40:10.272,0.065,0.185
2021-08-19 05:40:10.276,0.07,0.165
2021-08-19 05:40:10.280,0.065,0.165
2021-08-19 05:40:10.284,0.085,0.17
2021-08-19 05:40:10.288,0.075,0.145
2021-08-19 05:40:10.292,0.075,0.15
2021-08-19 05:40:10.296,0.07,0.145
2021-08-19 05:40:10.300,0.075,0.135
2021-08-19 05:40:10.304,0.095,0.15
2021-08-19 05:40:10.308,0.085,0.145
2021-08-19 05:40:10.312,0.085,0.16
2021-08-19 05:40:10.316,0.065,0.18
2021-08-19 05:40:10.320,0.075,0.185
2021-08-19 05:40:10.324,0.075,0.195
2021-08-19 05:40:10.328,0.07,0.19
2021-08-19 05:40:10.332,0.065,0.18
2021-08-19 05:40:10.336,0.055,0.185
2021-08-19 05:40:10.340,0.055,0.165
2021-08-19 05:40:10.344,0.065,0.14
2021-08-19 05:40:10.348,0.055,0.125
2021-08-19 05:40:10.352,0.085,0.11
2021-08-19 05:40:10.356,0.09,0.11
2021-08-19 05:40:10.360,0.095,0.135
2021-08-19 05:40:10.364,0.085,0.16
2021-08-19 05:40:10.368,0.12,0.175
2021-08-19 05:40:10.372,0.125,0.175
2021-08-19 05:40:10.376,0.155,0.19
2021-08-19 05:40:10.380,0.16,0.175
2021-08-19 05:40:10.384,0.15,0.145
2021-08-19 05:40:10.388,0.145,0.125
2021-08-19 05:40:10.392,0.14,0.16
2021-08-19 05:40:10.396,0.115,0.14
2021-08-19 05:40:10.400,0.08,0.13
2021-08-19 05:40:10.404,0.03,0.125
2021-08-19 05:40:10.408,0.0,0.13
2021-08-19 05:40:10.412,-0.025,0.13
2021-08-19 05:40:10.416,-0.035,0.135
2021-08-19 05:40:10.420,-0.025,0.12
2021-08-19 05:40:10.424,-0.015,0.11
2021-08-19 05:40:10.428,-0.03,0.105
2021-08-19 05:40:10.432,-0.035,0.12
2021-08-19 05:40:10.436,-0.035,0.125
2021-08-19 05:40:10.440,0.0,0.12
2021-08-19 05:40:10.444,-0.01,0.1
2021-08-19 05:40:10.448,0.01,0.11
2021-08-19 05:40:10.452,0.025,0.095
2021-08-19 05:40:10.456,0.02,0.095
2021-08-19 05:40:10.460,0.015,0.085
2021-08-19 05:40:10.464,0.015,0.085
2021-08-19 05:40:10.468,0.025,0.075
2021-08-19 05:40:10.472,0.04,0.075
2021-08-19 05:40:10.476,0.045,0.07
2021-08-19 05:40:10.480,0.03,0.07
2021-08-19 05:40:10.484,0.035,0.075
2021-08-19 05:40:10.488,0.035,0.06
2021-08-19 05:40:10.492,0.02,0.065
2021-08-19 05:40:10.496,0.03,0.05
2021-08-19 05:40:10.500,0.025,0.035
2021-08-19 05:40:10.504,0.05,0.035
2021-08-19 05:40:10.508,0.03,0.03
2021-08-19 05:40:10.512,0.04,0.04
2021-08-19 05:40:10.516,0.04,0.03
2021-08-19 05:40:10.520,0.02,0.065
2021-08-19 05:40:10.524,0.025,0.075
2021-08-19 05:40:10.528,0.03,0.095
2021-08-19 05:40:10.532,0.02,0.1
2021-08-19 05:40:10.536,0.035,0.105
2021-08-19 05:40:10.540,0.025,0.13
2021-08-19 05:40:10.544,0.035,0.115
2021-08-19 05:40:10.548,0.04,0.14
2021-08-19 05:40:10.552,0.055,0.13
2021-08-19 05:40:10.556,0.03,0.145
2021-08-19 05:40:10.560,0.03,0.12
2021-08-19 05:40:10.564,0.055,0.125
2021-08-19 05:40:10.568,0.05,0.11
2021-08-19 05:40:10.572,0.035,0.105
2021-08-19 05:40:10.576,0.055,0.12
2021-08-19 05:40:10.580,0.065,0.085
2021-08-19 05:40:10.584,0.075,0.075
2021-08-19 05:40:10.588,0.065,0.065
2021-08-19 05:40:10.592,0.07,0.08
2021-08-19 05:40:10.596,0.085,0.105
2021-08-19 05:40:10.600,0.095,0.12
2021-08-19 05:40:10.604,0.105,0.15
2021-08-19 05:40:10.608,0.115,0.2
2021-08-19 05:40:10.612,0.11,0.255
2021-08-19 05:40:10.616,0.155,0.285
2021-08-19 05:40:10.620,0.155,0.295
2021-08-19 05:40:10.624,0.145,0.38
2021-08-19 05:40:10.628,0.125,0.615
2021-08-19 05:40:10.632,0.12,0.9
2021-08-19 05:40:10.636,0.1,1.12
2021-08-19 05:40:10.640,0.095,1.16
2021-08-19 05:40:10.644,0.035,1.075
2021-08-19 05:40:10.648,-0.03,0.895
2021-08-19 05:40:10.652,-0.06,0.66
2021-08-19 05:40:10.656,-0.08,0.305
2021-08-19 05:40:10.660,-0.115,-0.115
2021-08-19 05:40:10.664,-0.29,-0.4
2021-08-19 05:40:10.668,-0.54,-0.33
2021-08-19 05:40:10.672,-0.86,0.05
2021-08-19 05:40:10.676,-1.14,0.295
2021-08-19 05:40:10.680,-1.33,0.215
2021-08-19 05:40:10.684,-1.385,-0.035
2021-08-19 05:40:10.688,-1.32,-0.23
2021-08-19 05:40:10.692,-1.01,-0.38
2021-08-19 05:40:10.696,-0.55,-0.455
2021-08-19 05:40:10.700,-0.175,-0.42
2021-08-19 05:40:10.704,-0.07,-0.3
2021-08-19 05:40:10.708,-0.06,-0.195
2021-08-19 05:40:10.712,-0.11,-0.16
2021-08-19 05:40:10.716,-0.125,-0.135
2021-08-19 05:40:10.720,-0.13,-0.115
2021-08-19 05:40:10.724,-0.115,-0.1
2021-08-19 05:40:10.728,-0.06,-0.105
2021-08-19 05:40:10.732,0.0,-0.075
2021-08-19 05:40:10.736,0.04,-0.06
2021-08-19 05:40:10.740,0.085,-0.04
2021-08-19 05:40:10.744,0.095,-0.02
2021-08-19 05:40:10.748,0.145,-0.02
2021-08-19 05:40:10.752,0.13,-0.035
2021-08-19 05:40:10.756,0.15,-0.02
2021-08-19 05:40:10.760,0.155,-0.005
2021-08-19 05:40:10.764,0.15,-0.01
2021-08-19 05:40:10.768,0.14,0.01
2021-08-19 05:40:10.772,0.17,0.02
2021-08-19 05:40:10.776,0.16,0.01
2021-08-19 05:40:10.780,0.16,-0.01
2021-08-19 05:40:10.784,0.17,0.005
2021-08-19 05:40:10.788,0.165,0.005
2021-08-19 05:40:10.792,0.175,0.025
2021-08-19 05:40:10.796,0.2,0.03
2021-08-19 05:40:10.800,0.205,0.045
2021-08-19 05:40:10.804,0.2,0.07
2021-08-19 05:40:10.808,0.215,0.085
2021-08-19 05:40:10.812,0.22,0.1
2021-08-19 05:40:10.816,0.23,0.09
2021-08-19 05:40:10.820,0.22,0.115
2021-08-19 05:40:10.824,0.23,0.1
2021-08-19 05:40:10.828,0.265,0.085
2021-08-19 05:40:10.832,0.27,0.09
2021-08-19 05:40:10.836,0.29,0.085
2021-08-19 05:40:10.840,0.285,0.065
2021-08-19 05:40:10.844,0.285,0.075
2021-08-19 05:40:10.848,0.305,0.065
2021-08-19 05:40:10.852,0.28,0.08
2021-08-19 05:40:10.856,0.25,0.055
2021-08-19 05:40:10.860,0.225,0.055
2021-08-19 05:40:10.864,0.21,0.01
2021-08-19 05:40:10.868,0.17,0.015
2021-08-19 05:40:10.872,0.135,0.01
2021-08-19 05:40:10.876,0.12,0.0
2021-08-19 05:40:10.880,0.15,-0.015
2021-08-19 05:40:10.884,0.125,-0.01
2021-08-19 05:40:10.888,0.14,-0.035
2021-08-19 05:40:10.892,0.13,-0.04
2021-08-19 05:40:10.896,0.145,-0.065
2021-08-19 05:40:10.900,0.175,-0.065
2021-08-19 05:40:10.904,0.155,-0.085
2021-08-19 05:40:10.908,0.15,-0.095
2021-08-19 05:40:10.912,0.14,-0.095
2021-08-19 05:40:10.916,0.175,-0.09
2021-08-19 05:40:10.920,0.145,-0.115
2021-08-19 05:40:10.924,0.135,-0.095
2021-08-19 05:40:10.928,0.14,-0.08
2021-08-19 05:40:10.932,0.13,-0.08
2021-08-19 05:40:10.936,0.13,-0.055
2021-08-19 05:40:10.940,0.105,-0.01
2021-08-19 05:40:10.944,0.12,0.03
2021-08-19 05:40:10.948,0.09,0.04
2021-08-19 05:40:10.952,0.09,0.045
2021-08-19 05:40:10.956,0.095,0.075
2021-08-19 05:40:10.960,0.115,0.105
2021-08-19 05:40:10.964,0.105,0.115
2021-08-19 05:40:10.968,0.085,0.14
2021-08-19 05:40:10.972,0.08,0.135
2021-08-19 05:40:10.976,0.09,0.145
2021-08-19 05:40:10.980,0.075,0.15
2021-08-19 05:40:10.984,0.085,0.155
2021-08-19 05:40:10.988,0.11,0.155
2021-08-19 05:40:10.992,0.085,0.15
2021-08-19 05:40:10.996,0.085,0.125
2021-08-19 05:40:11.000,0.1,0.14
2021-08-19 05:40:11.004,0.09,0.14
2021-08-19 05:40:11.008,0.095,0.145
2021-08-19 05:40:11.012,0.11,0.13
2021-08-19 05:40:11.016,0.11,0.125
2021-08-19 05:40:11.020,0.12,0.12
2021-08-19 05:40:11.024,0.1,0.095
2021-08-19 05:40:11.028,0.12,0.105
2021-08-19 05:40:11.032,0.12,0.115
2021-08-19 05:40:11.036,0.12,0.105
2021-08-19 05:40:11.040,0.135,0.105
2021-08-19 05:40:11.044,0.115,0.13
2021-08-19 05:40:11.048,0.14,0.125
2021-08-19 05:40:11.052,0.145,0.12
2021-08-19 05:40:11.056,0.165,0.125
2021-08-19 05:40:11.060,0.17,0.115
2021-08-19 05:40:11.064,0.18,0.115
2021-08-19 05:40:11.068,0.2,0.14
2021-08-19 05:40:11.072,0.2,0.135
2021-08-19 05:40:11.076,0.2,0.12
2021-08-19 05:40:11.080,0.155,0.145
2021-08-19 05:40:11.084,0.135,0.14
2021-08-19 05:40:11.088,0.11,0.155
2021-08-19 05:40:11.092,0.07,0.17
2021-08-19 05:40:11.096,0.055,0.155
2021-08-19 05:40:11.100,0.06,0.15
2021-08-19 05:40:11.104,0.065,0.145
2021-08-19 05:40:11.108,0.075,0.16
2021-08-19 05:40:11.112,0.085,0.195
2021-08-19 05:40:11.116,0.105,0.235
2021-08-19 05:40:11.120,0.075,0.265
2021-08-19 05:40:11.124,0.085,0.325
2021-08-19 05:40:11.128,0.07,0.45
2021-08-19 05:40:11.132,0.07,0.55
2021-08-19 05:40:11.136,0.095,0.55
2021-08-19 05:40:11.140,0.135,0.445
2021-08-19 05:40:11.144,0.1,0.22
2021-08-19 05:40:11.148,0.06,-0.065
2021-08-19 05:40:11.152,0.015,-0.345
2021-08-19 05:40:11.156,-0.06,-0.58
2021-08-19 05:40:11.160,-0.12,-0.8
2021-08-19 05:40:11.164,-0.205,-0.855
2021-08-19 05:40:11.168,-0.32,-0.66
2021-08-19 05:40:11.172,-0.425,-0.395
2021-08-19 05:40:11.176,-0.47,-0.335
2021-08-19 05:40:11.180,-0.465,-0.495
2021-08-19 05:40:11.184,-0.365,-0.68
2021-08-19 05:40:11.188,-0.14,-0.845
2021-08-19 05:40:11.192,0.25,-0.91
2021-08-19 05:40:11.196,0.64,-0.85
2021-08-19 05:40:11.200,0.84,-0.725
2021-08-19 05:40:11.204,0.86,-0.53
2021-08-19 05:40:11.208,0.76,-0.385
2021-08-19 05:40:11.212,0.71,-0.295
2021-08-19 05:40:11.216,0.68,-0.24
2021-08-19 05:40:11.220,0.695,-0.195
2021-08-19 05:40:11.224,0.76,-0.2
2021-08-19 05:40:11.228,0.825,-0.18
2021-08-19 05:40:11.232,0.875,-0.17
2021-08-19 05:40:11.236,0.92,-0.175
2021-08-19 05:40:11.240,0.935,-0.13
2021-08-19 05:40:11.244,0.92,-0.06
2021-08-19 05:40:11.248,0.895,-0.005
2021-08-19 05:40:11.252,0.815,0.03
2021-08-19 05:40:11.256,0.725,0.02
2021-08-19 05:40:11.260,0.575,0.025
2021-08-19 05:40:11.264,0.405,0.055
2021-08-19 05:40:11.268,0.24,0.06
2021-08-19 05:40:11.272,0.115,0.08
2021-08-19 05:40:11.276,0.065,0.08
2021-08-19 05:40:11.280,0.06,0.1
2021-08-19 05:40:11.284,0.06,0.13
2021-08-19 05:40:11.288,0.035,0.13
2021-08-19 05:40:11.292,0.02,0.115
2021-08-19 05:40:11.296,-0.025,0.12
2021-08-19 05:40:11.300,-0.09,0.12
2021-08-19 05:40:11.304,-0.105,0.11
2021-08-19 05:40:11.308,-0.11,0.115
2021-08-19 05:40:11.312,-0.14,0.11
2021-08-19 05:40:11.316,-0.115,0.08
2021-08-19 05:40:11.320,-0.125,0.085
2021-08-19 05:40:11.324,-0.11,0.06
2021-08-19 05:40:11.328,-0.135,0.07
2021-08-19 05:40:11.332,-0.13,0.05
2021-08-19 05:40:11.336,-0.135,0.06
2021-08-19 05:40:11.340,-0.135,0.055
2021-08-19 05:40:11.344,-0.135,0.05
2021-08-19 05:40:11.348,-0.16,0.065
2021-08-19 05:40:11.352,-0.17,0.065
2021-08-19 05:40:11.356,-0.17,0.075
2021-08-19 05:40:11.360,-0.165,0.055
2021-08-19 05:40:11.364,-0.165,0.08
2021-08-19 05:40:11.368,-0.19,0.06
2021-08-19 05:40:11.372,-0.175,0.08
2021-08-19 05:40:11.376,-0.185,0.075
2021-08-19 05:40:11.380,-0.19,0.08
2021-08-19 05:40:11.384,-0.17,0.095
2021-08-19 05:40:11.388,-0.18,0.085
2021-08-19 05:40:11.392,-0.19,0.085
2021-08-19 05:40:11.396,-0.18,0.095
2021-08-19 05:40:11.400,-0.16,0.09
2021-08-19 05:40:11.404,-0.175,0.09
2021-08-19 05:40:11.408,-0.175,0.115
2021-08-19 05:40:11.412,-0.165,0.115
2021-08-19 05:40:11.416,-0.14,0.13
2021-08-19 05:40:11.420,-0.15,0.14
2021-08-19 05:40:11.424,-0.16,0.16
2021-08-19 05:40:11.428,-0.16,0.175
2021-08-19 05:40:11.432,-0.185,0.185
2021-08-19 05:40:11.436,-0.17,0.185
2021-08-19 05:40:11.440,-0.18,0.195
2021-08-19 05:40:11.444,-0.175,0.205
2021-08-19 05:40:11.448,-0.175,0.215
2021-08-19 05:40:11.452,-0.185,0.195
2021-08-19 05:40:11.456,-0.16,0.21
2021-08-19 05:40:11.460,-0.175,0.2
2021-08-19 05:40:11.464,-0.175,0.22
2021-08-19 05:40:11.468,-0.17,0.2
2021-08-19 05:40:11.472,-0.175,0.195
2021-08-19 05:40:11.476,-0.18,0.175
2021-08-19 05:40:11.480,-0.17,0.16
2021-08-19 05:40:11.484,-0.16,0.135
2021-08-19 05:40:11.488,-0.16,0.105
2021-08-19 05:40:11.492,-0.165,0.11
2021-08-19 05:40:11.496,-0.12,0.12
2021-08-19 05:40:11.500,-0.11,0.145
2021-08-19 05:40:11.504,-0.09,0.155
2021-08-19 05:40:11.508,-0.08,0.18
2021-08-19 05:40:11.512,-0.095,0.13
2021-08-19 05:40:11.516,-0.065,0.12
2021-08-19 05:40:11.520,-0.1,0.1
2021-08-19 05:40:11.524,-0.1,0.085
2021-08-19 05:40:11.528,-0.105,0.09
2021-08-19 05:40:11.532,-0.075,0.065
2021-08-19 05:40:11.536,-0.08,0.07
2021-08-19 05:40:11.540,-0.09,0.025
2021-08-19 05:40:11.544,-0.065,0.03
2021-08-19 05:40:11.548,-0.045,0.02
2021-08-19 05:40:11.552,-0.05,0.015
2021-08-19 05:40:11.556,-0.04,0.035
2021-08-19 05:40:11.560,-0.005,0.045
2021-08-19 05:40:11.564,-0.035,0.04
2021-08-19 05:40:11.568,-0.01,0.04
2021-08-19 05:40:11.572,0.005,0.03
2021-08-19 05:40:11.576,0.0,0.035
2021-08-19 05:40:11.580,0.02,0.005
2021-08-19 05:40:11.584,0.04,-0.005
2021-08-19 05:40:11.588,0.035,0.005
2021-08-19 05:40:11.592,0.04,-0.005
2021-08-19 05:40:11.596,0.055,-0.025
2021-08-19 05:40:11.600,0.045,-0.01
2021-08-19 05:40:11.604,0.055,-0.015
2021-08-19 05:40:11.608,0.08,-0.055
2021-08-19 05:40:11.612,0.09,-0.055
2021-08-19 05:40:11.616,0.07,-0.055
2021-08-19 05:40:11.620,0.08,-0.08
2021-08-19 05:40:11.624,0.065,-0.08
2021-08-19 05:40:11.628,0.085,-0.075
2021-08-19 05:40:11.632,0.08,-0.075
2021-08-19 05:40:11.636,0.08,-0.065
2021-08-19 05:40:11.640,0.095,-0.095
2021-08-19 05:40:11.644,0.105,-0.08
2021-08-19 05:40:11.648,0.085,-0.09
2021-08-19 05:40:11.652,0.095,-0.075
2021-08-19 05:40:11.656,0.09,-0.08
2021-08-19 05:40:11.660,0.065,-0.07
2021-08-19 05:40:11.664,0.08,-0.09
2021-08-19 05:40:11.668,0.09,-0.07
2021-08-19 05:40:11.672,0.1,-0.08
2021-08-19 05:40:11.676,0.125,-0.095
2021-08-19 05:40:11.680,0.115,-0.105
2021-08-19 05:40:11.684,0.115,-0.125
2021-08-19 05:40:11.688,0.125,-0.11
2021-08-19 05:40:11.692,0.12,-0.14
2021-08-19 05:40:11.696,0.13,-0.135
2021-08-19 05:40:11.700,0.11,-0.14
2021-08-19 05:40:11.704,0.12,-0.145
2021-08-19 05:40:11.708,0.115,-0.15
2021-08-19 05:40:11.712,0.135,-0.135
2021-08-19 05:40:11.716,0.105,-0.105
2021-08-19 05:40:11.720,0.12,-0.075
2021-08-19 05:40:11.724,0.105,-0.035
2021-08-19 05:40:11.728,0.095,-0.005
2021-08-19 05:40:11.732,0.115,0.015
2021-08-19 05:40:11.736,0.115,0.03
2021-08-19 05:40:11.740,0.115,0.035
2021-08-19 05:40:11.744,0.095,0.035
2021-08-19 05:40:11.748,0.095,0.02
2021-08-19 05:40:11.752,0.09,0.035
2021-08-19 05:40:11.756,0.08,0.04
2021-08-19 05:40:11.760,0.085,0.04
2021-08-19 05:40:11.764,0.075,0.02
2021-08-19 05:40:11.768,0.075,0.01
2021-08-19 05:40:11.772,0.095,0.0
2021-08-19 05:40:11.776,0.085,-0.015
2021-08-19 05:40:11.780,0.095,0.0
2021-08-19 05:40:11.784,0.105,0.005
2021-08-19 05:40:11.788,0.075,0.05
2021-08-19 05:40:11.792,0.095,0.095
2021-08-19 05:40:11.796,0.09,0.15
2021-08-19 05:40:11.800,0.07,0.185
2021-08-19 05:40:11.804,0.085,0.355
2021-08-19 05:40:11.808,0.105,0.625
2021-08-19 05:40:11.812,0.1,0.895
2021-08-19 05:40:11.816,0.125,1.035
2021-08-19 05:40:11.820,0.125,1.025
2021-08-19 05:40:11.824,0.09,0.91
2021-08-19 05:40:11.828,0.04,0.715
2021-08-19 05:40:11.832,0.02,0.45
2021-08-19 05:40:11.836,0.0,0.11
2021-08-19 05:40:11.840,-0.065,-0.305
2021-08-19 05:40:11.844,-0.265,-0.47
2021-08-19 05:40:11.848,-0.555,-0.26
2021-08-19 05:40:11.852,-0.895,0.065
2021-08-19 05:40:11.856,-1.15,0.21
2021-08-19 05:40:11.860,-1.315,0.04
2021-08-19 05:40:11.864,-1.365,-0.21
2021-08-19 05:40:11.868,-1.24,-0.43
2021-08-19 05:40:11.872,-0.865,-0.53
2021-08-19 05:40:11.876,-0.42,-0.57
2021-08-19 05:40:11.880,-0.1,-0.53
2021-08-19 05:40:11.884,0.0,-0.405
2021-08-19 05:40:11.888,-0.025,-0.31
2021-08-19 05:40:11.892,-0.06,-0.3
2021-08-19 05:40:11.896,-0.085,-0.29
2021-08-19 05:40:11.900,-0.09,-0.295
2021-08-19 05:40:11.904,-0.05,-0.285
2021-08-19 05:40:11.908,-0.01,-0.265
2021-08-19 05:40:11.912,0.045,-0.265
2021-08-19 05:40:11.916,0.095,-0.25
2021-08-19 05:40:11.920,0.11,-0.27
2021-08-19 05:40:11.924,0.155,-0.265
2021-08-19 05:40:11.928,0.17,-0.27
2021-08-19 05:40:11.932,0.16,-0.29
2021-08-19 05:40:11.936,0.165,-0.27
2021-08-19 05:40:11.940,0.165,-0.275
2021-08-19 05:40:11.944,0.155,-0.23
2021-08-19 05:40:11.948,0.155,-0.195
2021-08-19 05:40:11.952,0.14,-0.155
2021-08-19 05:40:11.956,0.155,-0.13
2021-08-19 05:40:11.960,0.175,-0.07
2021-08-19 05:40:11.964,0.215,-0.04
2021-08-19 05:40:11.968,0.225,-0.025
2021-08-19 05:40:11.972,0.225,-0.065
2021-08-19 05:40:11.976,0.225,-0.065
2021-08-19 05:40:11.980,0.23,-0.08
2021-08-19 05:40:11.984,0.2,-0.095
2021-08-19 05:40:11.988,0.2,-0.12
2021-08-19 05:40:11.992,0.215,-0.13
2021-08-19 05:40:11.996,0.205,-0.16
2021-08-19 05:40:12.000,0.175,-0.16
2021-08-19 05:40:12.004,0.195,-0.17
2021-08-19 05:40:12.008,0.185,-0.185
2021-08-19 05:40:12.012,0.16,-0.18
2021-08-19 05:40:12.016,0.15,-0.185
2021-08-19 05:40:12.020,0.17,-0.205
2021-08-19 05:40:12.024,0.17,-0.195
2021-08-19 05:40:12.028,0.17,-0.22
2021-08-19 05:40:12.032,0.165,-0.24
2021-08-19 05:40:12.036,0.185,-0.22
2021-08-19 05:40:12.040,0.16,-0.235
2021-08-19 05:40:12.044,0.155,-0.24
2021-08-19 05:40:12.048,0.13,-0.255
2021-08-19 05:40:12.052,0.155,-0.265
2021-08-19 05:40:12.056,0.14,-0.26
2021-08-19 05:40:12.060,0.125,-0.24
2021-08-19 05:40:12.064,0.14,-0.25
2021-08-19 05:40:12.068,0.16,-0.245
2021-08-19 05:40:12.072,0.165,-0.23
2021-08-19 05:40:12.076,0.14,-0.25
2021-08-19 05:40:12.080,0.17,-0.245
2021-08-19 05:40:12.084,0.15,-0.255
2021-08-19 05:40:12.088,0.165,-0.255
2021-08-19 05:40:12.092,0.17,-0.23
2021-08-19 05:40:12.096,0.185,-0.23
2021-08-19 05:40:12.100,0.17,-0.215
2021-08-19 05:40:12.104,0.155,-0.23
2021-08-19 05:40:12.108,0.165,-0.195
2021-08-19 05:40:12.112,0.175,-0.195
2021-08-19 05:40:12.116,0.16,-0.175
2021-08-19 05:40:12.120,0.175,-0.16
2021-08-19 05:40:12.124,0.17,-0.11
2021-08-19 05:40:12.128,0.16,-0.11
2021-08-19 05:40:12.132,0.165,-0.11
2021-08-19 05:40:12.136,0.165,-0.065
2021-08-19 05:40:12.140,0.165,-0.06
2021-08-19 05:40:12.144,0.14,-0.055
2021-08-19 05:40:12.148,0.16,-0.05
2021-08-19 05:40:12.152,0.145,-0.045
2021-08-19 05:40:12.156,0.16,-0.04
2021-08-19 05:40:12.160,0.13,-0.035
2021-08-19 05:40:12.164,0.13,-0.02
2021-08-19 05:40:12.168,0.13,0.015
2021-08-19 05:40:12.172,0.115,0.05
2021-08-19 05:40:12.176,0.11,0.07
2021-08-19 05:40:12.180,0.09,0.09
2021-08-19 05:40:12.184,0.1,0.09
2021-08-19 05:40:12.188,0.105,0.1
2021-08-19 05:40:12.192,0.14,0.075
2021-08-19 05:40:12.196,0.16,0.07
2021-08-19 05:40:12.200,0.185,0.045
2021-08-19 05:40:12.204,0.225,0.04
2021-08-19 05:40:12.208,0.22,0.025
2021-08-19 05:40:12.212,0.225,0.02
2021-08-19 05:40:12.216,0.25,-0.005
2021-08-19 05:40:12.220,0.24,-0.02
2021-08-19 05:40:12.224,0.18,-0.035
2021-08-19 05:40:12.228,0.18,-0.05
2021-08-19 05:40:12.232,0.145,-0.05
2021-08-19 05:40:12.236,0.11,-0.07
2021-08-19 05:40:12.240,0.06,-0.09
2021-08-19 05:40:12.244,0.06,-0.105
2021-08-19 05:40:12.248,0.035,-0.14
2021-08-19 05:40:12.252,0.04,-0.15
2021-08-19 05:40:12.256,0.055,-0.18
2021-08-19 05:40:12.260,0.04,-0.175
2021-08-19 05:40:12.264,0.045,-0.205
2021-08-19 05:40:12.268,0.03,-0.19
2021-08-19 05:40:12.272,0.02,-0.21
2021-08-19 05:40:12.276,0.005,-0.2
2021-08-19 05:40:12.280,0.02,-0.195
2021-08-19 05:40:12.284,0.015,-0.19
2021-08-19 05:40:12.288,0.03,-0.21
2021-08-19 05:40:12.292,0.03,-0.21
2021-08-19 05:40:12.296,0.04,-0.215
2021-08-19 05:40:12.300,0.0,-0.2
2021-08-19 05:40:12.304,0.03,-0.215
2021-08-19 05:40:12.308,0.025,-0.205
2021-08-19 05:40:12.312,0.035,-0.205
2021-08-19 05:40:12.316,0.03,-0.23
2021-08-19 05:40:12.320,0.02,-0.225
2021-08-19 05:40:12.324,0.025,-0.21
2021-08-19 05:40:12.328,0.04,-0.19
2021-08-19 05:40:12.332,0.05,-0.21
2021-08-19 05:40:12.336,0.05,-0.225
2021-08-19 05:40:12.340,0.05,-0.215
2021-08-19 05:40:12.344,0.06,-0.22
2021-08-19 05:40:12.348,0.07,-0.21
2021-08-19 05:40:12.352,0.05,-0.225
2021-08-19 05:40:12.356,0.025,-0.225
2021-08-19 05:40:12.360,0.04,-0.21
2021-08-19 05:40:12.364,0.03,-0.21
2021-08-19 05:40:12.368,0.035,-0.24
2021-08-19 05:40:12.372,0.03,-0.22
2021-08-19 05:40:12.376,0.02,-0.24
2021-08-19 05:40:12.380,0.03,-0.235
2021-08-19 05:40:12.384,0.035,-0.225
2021-08-19 05:40:12.388,0.02,-0.2
2021-08-19 05:40:12.392,0.01,-0.185
2021-08-19 05:40:12.396,0.015,-0.175
2021-08-19 05:40:12.400,0.015,-0.175
2021-08-19 05:40:12.404,0.025,-0.16
2021-08-19 05:40:12.408,0.025,-0.16
2021-08-19 05:40:12.412,0.03,-0.155
2021-08-19 05:40:12.416,0.03,-0.12
2021-08-19 05:40:12.420,0.075,-0.12
2021-08-19 05:40:12.424,0.075,-0.14
2021-08-19 05:40:12.428,0.09,-0.105
2021-08-19 05:40:12.432,0.1,-0.085
2021-08-19 05:40:12.436,0.1,-0.075
2021-08-19 05:40:12.440,0.12,-0.055
2021-08-19 05:40:12.444,0.145,-0.06
2021-08-19 05:40:12.448,0.165,-0.07
2021-08-19 05:40:12.452,0.185,-0.09
2021-08-19 05:40:12.456,0.185,-0.09
2021-08-19 05:40:12.460,0.195,-0.07
2021-08-19 05:40:12.464,0.2,-0.055
2021-08-19 05:40:12.468,0.16,-0.02
2021-08-19 05:40:12.472,0.105,0.015
2021-08-19 05:40:12.476,0.045,0.06
2021-08-19 05:40:12.480,0.03,0.105
2021-08-19 05:40:12.484,0.005,0.235
2021-08-19 05:40:12.488,-0.005,0.47
2021-08-19 05:40:12.492,0.0,0.725
2021-08-19 05:40:12.496,0.02,0.895
2021-08-19 05:40:12.500,0.04,0.88
2021-08-19 05:40:12.504,-0.005,0.8
2021-08-19 05:40:12.508,-0.07,0.605
2021-08-19 05:40:12.512,-0.09,0.365
2021-08-19 05:40:12.516,-0.075,0.085
2021-08-19 05:40:12.520,-0.15,-0.24
2021-08-19 05:40:12.524,-0.285,-0.495
2021-08-19 05:40:12.528,-0.535,-0.43
2021-08-19 05:40:12.532,-0.85,-0.12
2021-08-19 05:40:12.536,-1.12,0.13
2021-08-19 05:40:12.540,-1.305,0.06
2021-08-19 05:40:12.544,-1.355,-0.13
2021-08-19 05:40:12.548,-1.3,-0.34
2021-08-19 05:40:12.552,-1.015,-0.49
2021-08-19 05:40:12.556,-0.58,-0.55
2021-08-19 05:40:12.560,-0.235,-0.535
2021-08-19 05:40:12.564,-0.075,-0.42
2021-08-19 05:40:12.568,-0.095,-0.335
2021-08-19 05:40:12.572,-0.115,-0.275
2021-08-19 05:40:12.576,-0.135,-0.26
2021-08-19 05:40:12.580,-0.135,-0.255
2021-08-19 05:40:12.584,-0.13,-0.265
2021-08-19 05:40:12.588,-0.07,-0.255
2021-08-19 05:40:12.592,-0.04,-0.255
2021-08-19 05:40:12.596,0.015,-0.265
2021-08-19 05:40:12.600,0.04,-0.26
2021-08-19 05:40:12.604,0.075,-0.26
2021-08-19 05:40:12.608,0.08,-0.26
2021-08-19 05:40:12.612,0.085,-0.28
2021-08-19 05:40:12.616,0.095,-0.26
2021-08-19 05:40:12.620,0.095,-0.245
2021-08-19 05:40:12.624,0.1,-0.24
2021-08-19 05:40:12.628,0.105,-0.23
2021-08-19 05:40:12.632,0.105,-0.22
2021-08-19 05:40:12.636,0.105,-0.21
2021-08-19 05:40:12.640,0.135,-0.19
2021-08-19 05:40:12.644,0.155,-0.195
2021-08-19 05:40:12.648,0.185,-0.185
2021-08-19 05:40:12.652,0.17,-0.19
2021-08-19 05:40:12.656,0.195,-0.195
2021-08-19 05:40:12.660,0.215,-0.16
2021-08-19 05:40:12.664,0.22,-0.165
2021-08-19 05:40:12.668,0.23,-0.15
2021-08-19 05:40:12.672,0.215,-0.16
2021-08-19 05:40:12.676,0.21,-0.2
2021-08-19 05:40:12.680,0.215,-0.205
2021-08-19 05:40:12.684,0.225,-0.2
2021-08-19 05:40:12.688,0.235,-0.18
2021-08-19 05:40:12.692,0.245,-0.17
2021-08-19 05:40:12.696,0.265,-0.165
2021-08-19 05:40:12.700,0.255,-0.17
2021-08-19 05:40:12.704,0.26,-0.18
2021-08-19 05:40:12.708,0.27,-0.185
2021-08-19 05:40:12.712,0.27,-0.19
2021-08-19 05:40:12.716,0.24,-0.2
2021-08-19 05:40:12.720,0.22,-0.205
2021-08-19 05:40:12.724,0.195,-0.235
2021-08-19 05:40:12.728,0.175,-0.245
2021-08-19 05:40:12.732,0.135,-0.27
2021-08-19 05:40:12.736,0.125,-0.28
2021-08-19 05:40:12.740,0.13,-0.285
2021-08-19 05:40:12.744,0.1,-0.29
2021-08-19 05:40:12.748,0.085,-0.31
2021-08-19 05:40:12.752,0.09,-0.315
2021-08-19 05:40:12.756,0.075,-0.33
2021-08-19 05:40:12.760,0.04,-0.34
2021-08-19 05:40:12.764,0.045,-0.335
2021-08-19 05:40:12.768,0.055,-0.335
2021-08-19 05:40:12.772,0.04,-0.33
2021-08-19 05:40:12.776,0.06,-0.325
2021-08-19 05:40:12.780,0.07,-0.335
2021-08-19 05:40:12.784,0.065,-0.315
2021-08-19 05:40:12.788,0.065,-0.305
2021-08-19 05:40:12.792,0.04,-0.275
2021-08-19 05:40:12.796,0.065,-0.255
2021-08-19 05:40:12.800,0.06,-0.25
2021-08-19 05:40:12.804,0.06,-0.235
2021-08-19 05:40:12.808,0.04,-0.225
2021-08-19 05:40:12.812,0.06,-0.21
2021-08-19 05:40:12.816,0.055,-0.22
2021-08-19 05:40:12.820,0.045,-0.215
2021-08-19 05:40:12.824,0.05,-0.2
2021-08-19 05:40:12.828,0.035,-0.195
2021-08-19 05:40:12.832,0.055,-0.205
2021-08-19 05:40:12.836,0.06,-0.185
2021-08-19 05:40:12.840,0.05,-0.155
2021-08-19 05:40:12.844,0.035,-0.125
2021-08-19 05:40:12.848,0.02,-0.11
2021-08-19 05:40:12.852,0.04,-0.12
2021-08-19 05:40:12.856,0.035,-0.1
2021-08-19 05:40:12.860,0.045,-0.105
2021-08-19 05:40:12.864,0.075,-0.09
2021-08-19 05:40:12.868,0.075,-0.095
2021-08-19 05:40:12.872,0.1,-0.1
2021-08-19 05:40:12.876,0.11,-0.08
2021-08-19 05:40:12.880,0.105,-0.095
2021-08-19 05:40:12.884,0.105,-0.095
2021-08-19 05:40:12.888,0.125,-0.075
2021-08-19 05:40:12.892,0.115,-0.06
2021-08-19 05:40:12.896,0.15,-0.07
2021-08-19 05:40:12.900,0.14,-0.085
2021-08-19 05:40:12.904,0.18,-0.065
2021-08-19 05:40:12.908,0.18,-0.05
2021-08-19 05:40:12.912,0.17,-0.055
2021-08-19 05:40:12.916,0.17,-0.055
2021-08-19 05:40:12.920,0.19,-0.05
2021-08-19 05:40:12.924,0.2,-0.055
2021-08-19 05:40:12.928,0.19,-0.08
2021-08-19 05:40:12.932,0.215,-0.08
2021-08-19 05:40:12.936,0.2,-0.08
2021-08-19 05:40:12.940,0.2,-0.07
2021-08-19 05:40:12.944,0.16,-0.07
2021-08-19 05:40:12.948,0.145,-0.07
2021-08-19 05:40:12.952,0.12,-0.07
2021-08-19 05:40:12.956,0.085,-0.085
2021-08-19 05:40:12.960,0.065,-0.085
2021-08-19 05:40:12.964,0.03,-0.11
2021-08-19 05:40:12.968,0.03,-0.115
2021-08-19 05:40:12.972,0.02,-0.135
2021-08-19 05:40:12.976,0.01,-0.125
2021-08-19 05:40:12.980,0.015,-0.105
2021-08-19 05:40:12.984,0.015,-0.12
2021-08-19 05:40:12.988,0.0,-0.12
2021-08-19 05:40:12.992,0.0,-0.125
2021-08-19 05:40:12.996,0.0,-0.12
2021-08-19 05:40:13.000,-0.01,-0.14
2021-08-19 05:40:13.004,0.01,-0.12
2021-08-19 05:40:13.008,0.0,-0.155
2021-08-19 05:40:13.012,0.01,-0.14
2021-08-19 05:40:13.016,0.0,-0.135
2021-08-19 05:40:13.020,0.005,-0.16
2021-08-19 05:40:13.024,0.04,-0.175
2021-08-19 05:40:13.028,0.015,-0.19
2021-08-19 05:40:13.032,0.02,-0.215
2021-08-19 05:40:13.036,0.03,-0.225
2021-08-19 05:40:13.040,0.04,-0.255
2021-08-19 05:40:13.044,0.025,-0.255
2021-08-19 05:40:13.048,0.04,-0.265
2021-08-19 05:40:13.052,0.035,-0.255
2021-08-19 05:40:13.056,0.03,-0.265
2021-08-19 05:40:13.060,0.03,-0.245
2021-08-19 05:40:13.064,0.01,-0.25
2021-08-19 05:40:13.068,0.015,-0.24
2021-08-19 05:40:13.072,0.015,-0.25
2021-08-19 05:40:13.076,0.01,-0.225
2021-08-19 05:40:13.080,0.01,-0.25
2021-08-19 05:40:13.084,0.035,-0.25
2021-08-19 05:40:13.088,0.045,-0.255
2021-08-19 05:40:13.092,0.06,-0.24
2021-08-19 05:40:13.096,0.07,-0.255
2021-08-19 05:40:13.100,0.04,-0.23
2021-08-19 05:40:13.104,0.06,-0.245
2021-08-19 05:40:13.108,0.06,-0.24
2021-08-19 05:40:13.112,0.09,-0.245
2021-08-19 05:40:13.116,0.075,-0.215
2021-08-19 05:40:13.120,0.07,-0.255
2021-08-19 05:40:13.124,0.065,-0.27
2021-08-19 05:40:13.128,0.075,-0.26
2021-08-19 05:40:13.132,0.085,-0.26
2021-08-19 05:40:13.136,0.08,-0.27
2021-08-19 05:40:13.140,0.085,-0.255
2021-08-19 05:40:13.144,0.105,-0.25
2021-08-19 05:40:13.148,0.09,-0.215
2021-08-19 05:40:13.152,0.075,-0.185
2021-08-19 05:40:13.156,0.075,-0.195
2021-08-19 05:40:13.160,0.06,-0.19
2021-08-19 05:40:13.164,0.065,-0.18
2021-08-19 05:40:13.168,0.055,-0.195
2021-08-19 05:40:13.172,0.04,-0.21
2021-08-19 05:40:13.176,0.025,-0.2
2021-08-19 05:40:13.180,0.005,-0.195
2021-08-19 05:40:13.184,0.0,-0.21
2021-08-19 05:40:13.188,0.015,-0.225
2021-08-19 05:40:13.192,0.01,-0.205
2021-08-19 05:40:13.196,0.0,-0.215
2021-08-19 05:40:13.200,-0.02,-0.175
2021-08-19 05:40:13.204,0.0,-0.175
2021-08-19 05:40:13.208,-0.01,-0.185
2021-08-19 05:40:13.212,0.0,-0.17
2021-08-19 05:40:13.216,-0.025,-0.18
2021-08-19 05:40:13.220,-0.015,-0.195
2021-08-19 05:40:13.224,-0.01,-0.215
2021-08-19 05:40:13.228,0.01,-0.22
2021-08-19 05:40:13.232,0.0,-0.215
2021-08-19 05:40:13.236,0.005,-0.23
2021-08-19 05:40:13.240,0.015,-0.22
2021-08-19 05:40:13.244,0.01,-0.25
2021-08-19 05:40:13.248,0.005,-0.235
2021-08-19 05:40:13.252,0.0,-0.22
2021-08-19 05:40:13.256,0.005,-0.22
2021-08-19 05:40:13.260,0.005,-0.23
2021-08-19 05:40:13.264,0.01,-0.25
2021-08-19 05:40:13.268,0.005,-0.23
2021-08-19 05:40:13.272,0.01,-0.225
2021-08-19 05:40:13.276,0.005,-0.215
2021-08-19 05:40:13.280,0.01,-0.21
2021-08-19 05:40:13.284,0.0,-0.2
2021-08-19 05:40:13.288,0.0,-0.21
2021-08-19 05:40:13.292,0.0,-0.21
2021-08-19 05:40:13.296,0.005,-0.225
2021-08-19 05:40:13.300,0.05,-0.23
2021-08-19 05:40:13.304,0.03,-0.21
2021-08-19 05:40:13.308,0.06,-0.235
2021-08-19 05:40:13.312,0.08,-0.225
2021-08-19 05:40:13.316,0.075,-0.215
2021-08-19 05:40:13.320,0.065,-0.2
2021-08-19 05:40:13.324,0.095,-0.195
2021-08-19 05:40:13.328,0.08,-0.2
2021-08-19 05:40:13.332,0.09,-0.225
2021-08-19 05:40:13.336,0.075,-0.24
2021-08-19 05:40:13.340,0.065,-0.235
2021-08-19 05:40:13.344,0.09,-0.245
2021-08-19 05:40:13.348,0.105,-0.2
2021-08-19 05:40:13.352,0.11,-0.175
2021-08-19 05:40:13.356,0.11,-0.135
2021-08-19 05:40:13.360,0.1,-0.065
2021-08-19 05:40:13.364,0.085,0.06
2021-08-19 05:40:13.368,0.065,0.315
2021-08-19 05:40:13.372,0.07,0.57
2021-08-19 05:40:13.376,0.075,0.78
2021-08-19 05:40:13.380,0.08,0.835
2021-08-19 05:40:13.384,0.03,0.77
2021-08-19 05:40:13.388,-0.02,0.635
2021-08-19 05:40:13.392,-0.08,0.42
2021-08-19 05:40:13.396,-0.07,0.1
2021-08-19 05:40:13.400,-0.13,-0.29
2021-08-19 05:40:13.404,-0.31,-0.545
2021-08-19 05:40:13.408,-0.59,-0.425
2021-08-19 05:40:13.412,-0.87,-0.12
2021-08-19 05:40:13.416,-1.115,0.005
2021-08-19 05:40:13.420,-1.245,-0.145
2021-08-19 05:40:13.424,-1.265,-0.37
2021-08-19 05:40:13.428,-1.12,-0.545
2021-08-19 05:40:13.432,-0.835,-0.64
2021-08-19 05:40:13.436,-0.435,-0.65
2021-08-19 05:40:13.440,-0.16,-0.605
2021-08-19 05:40:13.444,-0.095,-0.475
2021-08-19 05:40:13.448,-0.13,-0.38
2021-08-19 05:40:13.452,-0.125,-0.365
2021-08-19 05:40:13.456,-0.135,-0.375
2021-08-19 05:40:13.460,-0.135,-0.365
2021-08-19 05:40:13.464,-0.11,-0.375
2021-08-19 05:40:13.468,-0.055,-0.38
2021-08-19 05:40:13.472,-0.005,-0.38
2021-08-19 05:40:13.476,0.05,-0.385
2021-08-19 05:40:13.480,0.07,-0.385
2021-08-19 05:40:13.484,0.065,-0.38
2021-08-19 05:40:13.488,0.06,-0.385
2021-08-19 05:40:13.492,0.08,-0.37
2021-08-19 05:40:13.496,0.09,-0.345
2021-08-19 05:40:13.500,0.08,-0.335
2021-08-19 05:40:13.504,0.09,-0.33
2021-08-19 05:40:13.508,0.105,-0.32
2021-08-19 05:40:13.512,0.135,-0.33
2021-08-19 05:40:13.516,0.14,-0.33
2021-08-19 05:40:13.520,0.145,-0.32
2021-08-19 05:40:13.524,0.16,-0.31
2021-08-19 05:40:13.528,0.165,-0.335
2021-08-19 05:40:13.532,0.18,-0.33
2021-08-19 05:40:13.536,0.175,-0.32
2021-08-19 05:40:13.540,0.2,-0.33
2021-08-19 05:40:13.544,0.215,-0.35
2021-08-19 05:40:13.548,0.2,-0.34
2021-08-19 05:40:13.552,0.2,-0.375
2021-08-19 05:40:13.556,0.225,-0.375
2021-08-19 05:40:13.560,0.225,-0.345
2021-08-19 05:40:13.564,0.205,-0.355
2021-08-19 05:40:13.568,0.19,-0.365
2021-08-19 05:40:13.572,0.185,-0.37
2021-08-19 05:40:13.576,0.205,-0.4
2021-08-19 05:40:13.580,0.185,-0.4
2021-08-19 05:40:13.584,0.195,-0.425
2021-08-19 05:40:13.588,0.2,-0.425
2021-08-19 05:40:13.592,0.19,-0.44
2021-08-19 05:40:13.596,0.17,-0.445
2021-08-19 05:40:13.600,0.16,-0.46
2021-08-19 05:40:13.604,0.155,-0.43
2021-08-19 05:40:13.608,0.155,-0.4
2021-08-19 05:40:13.612,0.14,-0.37
2021-08-19 05:40:13.616,0.14,-0.335
2021-08-19 05:40:13.620,0.135,-0.335
2021-08-19 05:40:13.624,0.13,-0.345
2021-08-19 05:40:13.628,0.11,-0.345
2021-08-19 05:40:13.632,0.1,-0.34
2021-08-19 05:40:13.636,0.09,-0.345
2021-08-19 05:40:13.640,0.08,-0.355
2021-08-19 05:40:13.644,0.06,-0.34
2021-08-19 05:40:13.648,0.045,-0.325
2021-08-19 05:40:13.652,0.035,-0.345
2021-08-19 05:40:13.656,0.045,-0.345
2021-08-19 05:40:13.660,0.02,-0.33
2021-08-19 05:40:13.664,0.05,-0.335
2021-08-19 05:40:13.668,0.045,-0.33
2021-08-19 05:40:13.672,0.055,-0.325
2021-08-19 05:40:13.676,0.05,-0.31
2021-08-19 05:40:13.680,0.045,-0.31
2021-08-19 05:40:13.684,0.035,-0.32
2021-08-19 05:40:13.688,0.055,-0.3
2021-08-19 05:40:13.692,0.045,-0.285
2021-08-19 05:40:13.696,0.035,-0.27
2021-08-19 05:40:13.700,0.03,-0.265
2021-08-19 05:40:13.704,0.045,-0.26
2021-08-19 05:40:13.708,0.015,-0.225
2021-08-19 05:40:13.712,0.015,-0.21
2021-08-19 05:40:13.716,0.015,-0.19
2021-08-19 05:40:13.720,0.035,-0.195
2021-08-19 05:40:13.724,0.005,-0.17
2021-08-19 05:40:13.728,0.01,-0.17
2021-08-19 05:40:13.732,0.02,-0.15
2021-08-19 05:40:13.736,0.035,-0.135
2021-08-19 05:40:13.740,0.05,-0.14
2021-08-19 05:40:13.744,0.075,-0.13
2021-08-19 05:40:13.748,0.045,-0.11
2021-08-19 05:40:13.752,0.065,-0.125
2021-08-19 05:40:13.756,0.09,-0.105
2021-08-19 05:40:13.760,0.105,-0.095
2021-08-19 05:40:13.764,0.125,-0.095
2021-08-19 05:40:13.768,0.135,-0.105
2021-08-19 05:40:13.772,0.12,-0.1
2021-08-19 05:40:13.776,0.145,-0.115
2021-08-19 05:40:13.780,0.115,-0.12
2021-08-19 05:40:13.784,0.135,-0.115
2021-08-19 05:40:13.788,0.14,-0.125
2021-08-19 05:40:13.792,0.16,-0.14
2021-08-19 05:40:13.796,0.15,-0.12
2021-08-19 05:40:13.800,0.165,-0.13
2021-08-19 05:40:13.804,0.175,-0.12
2021-08-19 05:40:13.808,0.175,-0.11
2021-08-19 05:40:13.812,0.17,-0.125
2021-08-19 05:40:13.816,0.145,-0.145
2021-08-19 05:40:13.820,0.14,-0.165
2021-08-19 05:40:13.824,0.145,-0.145
2021-08-19 05:40:13.828,0.125,-0.15
2021-08-19 05:40:13.832,0.14,-0.17
2021-08-19 05:40:13.836,0.12,-0.125
2021-08-19 05:40:13.840,0.095,-0.115
2021-08-19 05:40:13.844,0.115,-0.09
2021-08-19 05:40:13.848,0.11,-0.085
2021-08-19 05:40:13.852,0.105,-0.07
2021-08-19 05:40:13.856,0.09,-0.09
2021-08-19 05:40:13.860,0.075,-0.1
2021-08-19 05:40:13.864,0.04,-0.08
2021-08-19 05:40:13.868,0.065,-0.105
2021-08-19 05:40:13.872,0.035,-0.12
2021-08-19 05:40:13.876,0.02,-0.11
2021-08-19 05:40:13.880,0.005,-0.125
2021-08-19 05:40:13.884,0.0,-0.135
2021-08-19 05:40:13.888,0.005,-0.15
2021-08-19 05:40:13.892,0.0,-0.165
2021-08-19 05:40:13.896,0.0,-0.17
2021-08-19 05:40:13.900,0.0,-0.2
2021-08-19 05:40:13.904,0.015,-0.2
2021-08-19 05:40:13.908,0.025,-0.215
2021-08-19 05:40:13.912,0.0,-0.235
2021-08-19 05:40:13.916,-0.005,-0.245
2021-08-19 05:40:13.920,-0.01,-0.245
2021-08-19 05:40:13.924,0.0,-0.225
2021-08-19 05:40:13.928,0.0,-0.245
2021-08-19 05:40:13.932,-0.01,-0.235
2021-08-19 05:40:13.936,-0.01,-0.24
2021-08-19 05:40:13.940,-0.005,-0.25
2021-08-19 05:40:13.944,-0.035,-0.24
2021-08-19 05:40:13.948,-0.02,-0.23
2021-08-19 05:40:13.952,-0.02,-0.25
2021-08-19 05:40:13.956,0.0,-0.245
2021-08-19 05:40:13.960,0.02,-0.245
2021-08-19 05:40:13.964,0.04,-0.245
2021-08-19 05:40:13.968,0.045,-0.25
2021-08-19 05:40:13.972,0.035,-0.265
2021-08-19 05:40:13.976,0.06,-0.255
2021-08-19 05:40:13.980,0.05,-0.26
2021-08-19 05:40:13.984,0.04,-0.23
2021-08-19 05:40:13.988,0.06,-0.21
2021-08-19 05:40:13.992,0.07,-0.18
2021-08-19 05:40:13.996,0.06,-0.18
2021-08-19 05:40:14.000,0.045,-0.195
2021-08-19 05:40:14.004,0.07,-0.2
2021-08-19 05:40:14.008,0.07,-0.23
2021-08-19 05:40:14.012,0.085,-0.235
2021-08-19 05:40:14.016,0.075,-0.22
2021-08-19 05:40:14.020,0.07,-0.24
2021-08-19 05:40:14.024,0.075,-0.26
2021-08-19 05:40:14.028,0.085,-0.26
2021-08-19 05:40:14.032,0.075,-0.3
2021-08-19 05:40:14.036,0.06,-0.3
2021-08-19 05:40:14.040,0.05,-0.285
2021-08-19 05:40:14.044,0.065,-0.275
2021-08-19 05:40:14.048,0.055,-0.26
2021-08-19 05:40:14.052,0.065,-0.255
2021-08-19 05:40:14.056,0.05,-0.225
2021-08-19 05:40:14.060,0.04,-0.225
2021-08-19 05:40:14.064,0.04,-0.23
2021-08-19 05:40:14.068,0.025,-0.23
2021-08-19 05:40:14.072,0.03,-0.24
2021-08-19 05:40:14.076,0.01,-0.26
2021-08-19 05:40:14.080,-0.01,-0.23
2021-08-19 05:40:14.084,-0.02,-0.225
2021-08-19 05:40:14.088,-0.035,-0.24
2021-08-19 05:40:14.092,-0.025,-0.24
2021-08-19 05:40:14.096,-0.03,-0.25
2021-08-19 05:40:14.100,-0.03,-0.245
2021-08-19 05:40:14.104,-0.035,-0.24
2021-08-19 05:40:14.108,-0.015,-0.255
2021-08-19 05:40:14.112,-0.03,-0.235
2021-08-19 05:40:14.116,-0.03,-0.265
2021-08-19 05:40:14.120,-0.04,-0.275
2021-08-19 05:40:14.124,-0.03,-0.265
2021-08-19 05:40:14.128,-0.045,-0.295
2021-08-19 05:40:14.132,-0.03,-0.31
2021-08-19 05:40:14.136,-0.035,-0.3
2021-08-19 05:40:14.140,-0.025,-0.315
2021-08-19 05:40:14.144,-0.045,-0.295
2021-08-19 05:40:14.148,-0.06,-0.295
2021-08-19 05:40:14.152,-0.04,-0.305
2021-08-19 05:40:14.156,-0.055,-0.285
2021-08-19 05:40:14.160,-0.08,-0.285
2021-08-19 05:40:14.164,-0.05,-0.255
2021-08-19 05:40:14.168,-0.035,-0.24
2021-08-19 05:40:14.172,-0.03,-0.23
2021-08-19 05:40:14.176,-0.035,-0.185
2021-08-19 05:40:14.180,-0.01,-0.115
2021-08-19 05:40:14.184,-0.01,-0.08
2021-08-19 05:40:14.188,-0.01,-0.005
2021-08-19 05:40:14.192,0.005,0.235
2021-08-19 05:40:14.196,0.02,0.52
2021-08-19 05:40:14.200,0.025,0.805
2021-08-19 05:40:14.204,0.045,0.915
2021-08-19 05:40:14.208,0.045,0.875
2021-08-19 05:40:14.212,0.005,0.735
2021-08-19 05:40:14.216,-0.035,0.46
2021-08-19 05:40:14.220,-0.06,0.105
2021-08-19 05:40:14.224,-0.115,-0.3
2021-08-19 05:40:14.228,-0.26,-0.585
2021-08-19 05:40:14.232,-0.51,-0.495
2021-08-19 05:40:14.236,-0.835,-0.12
2021-08-19 05:40:14.240,-1.165,0.04
2021-08-19 05:40:14.244,-1.36,-0.05
2021-08-19 05:40:14.248,-1.41,-0.32
2021-08-19 05:40:14.252,-1.33,-0.515
2021-08-19 05:40:14.256,-1.015,-0.65
2021-08-19 05:40:14.260,-0.57,-0.665
2021-08-19 05:40:14.264,-0.205,-0.635
2021-08-19 05:40:14.268,-0.07,-0.5
2021-08-19 05:40:14.272,-0.08,-0.39
2021-08-19 05:40:14.276,-0.115,-0.345
2021-08-19 05:40:14.280,-0.14,-0.35
2021-08-19 05:40:14.284,-0.175,-0.365
2021-08-19 05:40:14.288,-0.16,-0.355
2021-08-19 05:40:14.292,-0.12,-0.36
2021-08-19 05:40:14.296,-0.075,-0.355
2021-08-19 05:40:14.300,-0.03,-0.38
2021-08-19 05:40:14.304,-0.005,-0.38
2021-08-19 05:40:14.308,-0.01,-0.38
2021-08-19 05:40:14.312,0.0,-0.37
2021-08-19 05:40:14.316,0.0,-0.38
2021-08-19 05:40:14.320,0.0,-0.37
2021-08-19 05:40:14.324,0.005,-0.37
2021-08-19 05:40:14.328,0.015,-0.37
2021-08-19 05:40:14.332,0.035,-0.36
2021-08-19 05:40:14.336,0.03,-0.365
2021-08-19 05:40:14.340,0.025,-0.365
2021-08-19 05:40:14.344,0.02,-0.38
2021-08-19 05:40:14.348,0.055,-0.385
2021-08-19 05:40:14.352,0.055,-0.415
2021-08-19 05:40:14.356,0.05,-0.395
2021-08-19 05:40:14.360,0.075,-0.405
2021-08-19 05:40:14.364,0.045,-0.42
2021-08-19 05:40:14.368,0.065,-0.43
2021-08-19 05:40:14.372,0.05,-0.435
2021-08-19 05:40:14.376,0.05,-0.42
2021-08-19 05:40:14.380,0.035,-0.415
2021-08-19 05:40:14.384,0.04,-0.385
2021-08-19 05:40:14.388,0.05,-0.395
2021-08-19 05:40:14.392,0.06,-0.405
2021-08-19 05:40:14.396,0.08,-0.41
2021-08-19 05:40:14.400,0.06,-0.405
2021-08-19 05:40:14.404,0.09,-0.41
2021-08-19 05:40:14.408,0.1,-0.4
2021-08-19 05:40:14.412,0.09,-0.39
2021-08-19 05:40:14.416,0.11,-0.4
2021-08-19 05:40:14.420,0.105,-0.38
2021-08-19 05:40:14.424,0.115,-0.385
2021-08-19 05:40:14.428,0.12,-0.4
2021-08-19 05:40:14.432,0.14,-0.42
2021-08-19 05:40:14.436,0.13,-0.415
2021-08-19 05:40:14.440,0.145,-0.425
2021-08-19 05:40:14.444,0.15,-0.425
2021-08-19 05:40:14.448,0.18,-0.465
2021-08-19 05:40:14.452,0.17,-0.45
2021-08-19 05:40:14.456,0.14,-0.45
2021-08-19 05:40:14.460,0.13,-0.44
2021-08-19 05:40:14.464,0.125,-0.44
2021-08-19 05:40:14.468,0.095,-0.41
2021-08-19 05:40:14.472,0.07,-0.4
2021-08-19 05:40:14.476,0.055,-0.39
2021-08-19 05:40:14.480,0.03,-0.375
2021-08-19 05:40:14.484,0.04,-0.35
2021-08-19 05:40:14.488,0.01,-0.32
2021-08-19 05:40:14.492,0.04,-0.3
2021-08-19 05:40:14.496,0.045,-0.275
2021-08-19 05:40:14.500,0.035,-0.265
2021-08-19 05:40:14.504,0.025,-0.245
2021-08-19 05:40:14.508,0.03,-0.25
2021-08-19 05:40:14.512,0.055,-0.245
2021-08-19 05:40:14.516,0.06,-0.24
2021-08-19 05:40:14.520,0.025,-0.23
2021-08-19 05:40:14.524,0.035,-0.23
2021-08-19 05:40:14.528,0.025,-0.21
2021-08-19 05:40:14.532,0.025,-0.21
2021-08-19 05:40:14.536,0.03,-0.205
2021-08-19 05:40:14.540,0.02,-0.21
2021-08-19 05:40:14.544,0.015,-0.205
2021-08-19 05:40:14.548,0.0,-0.2
2021-08-19 05:40:14.552,0.0,-0.225
2021-08-19 05:40:14.556,0.005,-0.185
2021-08-19 05:40:14.560,-0.01,-0.2
2021-08-19 05:40:14.564,0.02,-0.2
2021-08-19 05:40:14.568,0.01,-0.2
2021-08-19 05:40:14.572,0.005,-0.225
2021-08-19 05:40:14.576,0.01,-0.235
2021-08-19 05:40:14.580,0.02,-0.235
2021-08-19 05:40:14.584,0.015,-0.26
2021-08-19 05:40:14.588,0.02,-0.265
2021-08-19 05:40:14.592,0.02,-0.275
2021-08-19 05:40:14.596,0.035,-0.26
2021-08-19 05:40:14.600,0.045,-0.245
2021-08-19 05:40:14.604,0.025,-0.235
2021-08-19 05:40:14.608,0.03,-0.25
2021-08-19 05:40:14.612,0.015,-0.245
2021-08-19 05:40:14.616,0.03,-0.22
2021-08-19 05:40:14.620,0.04,-0.24
2021-08-19 05:40:14.624,0.035,-0.235
2021-08-19 05:40:14.628,0.07,-0.22
