Time,ECG1,ECG2
2021-08-19 15:51:35.292,0.4,1.475
2021-08-19 15:51:35.296,0.4,1.495
2021-08-19 15:51:35.300,0.365,1.505
2021-08-19 15:51:35.304,0.385,1.525
2021-08-19 15:51:35.308,0.375,1.51
2021-08-19 15:51:35.312,0.37,1.5
2021-08-19 15:51:35.316,0.335,1.5
2021-08-19 15:51:35.320,0.285,1.48
2021-08-19 15:51:35.324,0.24,1.445
2021-08-19 15:51:35.328,0.21,1.42
2021-08-19 15:51:35.332,0.165,1.355
2021-08-19 15:51:35.336,0.145,1.31
2021-08-19 15:51:35.340,0.1,1.255
2021-08-19 15:51:35.344,0.07,1.19
2021-08-19 15:51:35.348,0.05,1.115
2021-08-19 15:51:35.352,0.0,1.055
2021-08-19 15:51:35.356,-0.01,0.98
2021-08-19 15:51:35.360,-0.055,0.92
2021-08-19 15:51:35.364,-0.08,0.87
2021-08-19 15:51:35.368,-0.12,0.78
2021-08-19 15:51:35.372,-0.14,0.69
2021-08-19 15:51:35.376,-0.18,0.63
2021-08-19 15:51:35.380,-0.195,0.565
2021-08-19 15:51:35.384,-0.195,0.515
2021-08-19 15:51:35.388,-0.22,0.445
2021-08-19 15:51:35.392,-0.21,0.415
2021-08-19 15:51:35.396,-0.205,0.395
2021-08-19 15:51:35.400,-0.205,0.365
2021-08-19 15:51:35.404,-0.185,0.335
2021-08-19 15:51:35.408,-0.195,0.295
2021-08-19 15:51:35.412,-0.175,0.32
2021-08-19 15:51:35.416,-0.17,0.34
2021-08-19 15:51:35.420,-0.14,0.345
2021-08-19 15:51:35.424,-0.075,0.335
2021-08-19 15:51:35.428,-0.045,0.355
2021-08-19 15:51:35.432,0.0,0.36
2021-08-19 15:51:35.436,0.05,0.38
2021-08-19 15:51:35.440,0.125,0.395
2021-08-19 15:51:35.444,0.17,0.43
2021-08-19 15:51:35.448,0.175,0.465
2021-08-19 15:51:35.452,0.11,0.495
2021-08-19 15:51:35.456,0.02,0.54
2021-08-19 15:51:35.460,-0.025,0.555
2021-08-19 15:51:35.464,-0.08,0.525
2021-08-19 15:51:35.468,-0.105,0.49
2021-08-19 15:51:35.472,-0.12,0.435
2021-08-19 15:51:35.476,-0.13,0.38
2021-08-19 15:51:35.480,-0.15,0.365
2021-08-19 15:51:35.484,-0.145,0.325
2021-08-19 15:51:35.488,-0.12,0.28
2021-08-19 15:51:35.492,-0.06,0.275
2021-08-19 15:51:35.496,0.05,0.245
2021-08-19 15:51:35.500,0.12,0.25
2021-08-19 15:51:35.504,0.075,0.275
2021-08-19 15:51:35.508,-0.15,0.325
2021-08-19 15:51:35.512,-0.545,0.375
2021-08-19 15:51:35.516,-1.185,0.285
2021-08-19 15:51:35.520,-1.88,-0.1
2021-08-19 15:51:35.608,-0.525,-1.725
2021-08-19 15:51:35.612,-0.315,-1.33
2021-08-19 15:51:35.616,-0.135,-0.935
2021-08-19 15:51:35.620,0.0,-0.63
2021-08-19 15:51:35.624,0.09,-0.3
2021-08-19 15:51:35.628,0.175,-0.015
2021-08-19 15:51:35.632,0.265,0.22
2021-08-19 15:51:35.636,0.315,0.43
2021-08-19 15:51:35.640,0.36,0.615
2021-08-19 15:51:35.644,0.34,0.795
2021-08-19 15:51:35.648,0.305,0.905
2021-08-19 15:51:35.652,0.265,0.95
2021-08-19 15:51:35.656,0.26,0.96
2021-08-19 15:51:35.660,0.255,0.935
2021-08-19 15:51:35.664,0.25,0.94
2021-08-19 15:51:35.668,0.24,0.925
2021-08-19 15:51:35.672,0.23,0.925
2021-08-19 15:51:35.676,0.23,0.93
2021-08-19 15:51:35.680,0.215,0.925
2021-08-19 15:51:35.684,0.18,0.9
2021-08-19 15:51:35.688,0.205,0.865
2021-08-19 15:51:35.692,0.195,0.87
2021-08-19 15:51:35.696,0.205,0.825
2021-08-19 15:51:35.700,0.18,0.835
2021-08-19 15:51:35.704,0.17,0.86
2021-08-19 15:51:35.708,0.145,0.865
2021-08-19 15:51:35.712,0.145,0.85
2021-08-19 15:51:35.716,0.155,0.885
2021-08-19 15:51:35.720,0.16,0.88
2021-08-19 15:51:35.724,0.17,0.895
2021-08-19 15:51:35.728,0.145,0.905
2021-08-19 15:51:35.732,0.14,0.9
2021-08-19 15:51:35.736,0.165,0.91
2021-08-19 15:51:35.740,0.155,0.92
2021-08-19 15:51:35.744,0.14,0.935
2021-08-19 15:51:35.748,0.16,0.965
2021-08-19 15:51:35.752,0.16,0.975
2021-08-19 15:51:35.756,0.155,0.995
2021-08-19 15:51:35.760,0.16,1.015
2021-08-19 15:51:35.764,0.155,1.03
2021-08-19 15:51:35.768,0.175,1.045
2021-08-19 15:51:35.772,0.19,1.055
2021-08-19 15:51:35.776,0.195,1.08
2021-08-19 15:51:35.780,0.19,1.11
2021-08-19 15:51:35.784,0.2,1.11
2021-08-19 15:51:35.788,0.22,1.145
2021-08-19 15:51:35.792,0.225,1.16
2021-08-19 15:51:35.796,0.24,1.175
2021-08-19 15:51:35.800,0.265,1.22
2021-08-19 15:51:35.804,0.265,1.25
2021-08-19 15:51:35.808,0.28,1.27
2021-08-19 15:51:35.812,0.27,1.3
2021-08-19 15:51:35.816,0.315,1.325
2021-08-19 15:51:35.820,0.335,1.35
2021-08-19 15:51:35.824,0.37,1.365
2021-08-19 15:51:35.828,0.44,1.365
2021-08-19 15:51:35.832,0.445,1.35
2021-08-19 15:51:35.836,0.415,1.37
2021-08-19 15:51:35.840,0.35,1.395
2021-08-19 15:51:35.844,0.275,1.395
2021-08-19 15:51:35.848,0.215,1.365
2021-08-19 15:51:35.852,0.175,1.27
2021-08-19 15:51:35.856,0.105,1.19
2021-08-19 15:51:35.860,0.045,1.1
2021-08-19 15:51:35.864,0.03,1.02
2021-08-19 15:51:35.868,0.0,0.94
2021-08-19 15:51:35.872,-0.005,0.86
2021-08-19 15:51:35.876,-0.04,0.76
2021-08-19 15:51:35.880,-0.06,0.67
2021-08-19 15:51:35.884,-0.095,0.6
2021-08-19 15:51:35.888,-0.16,0.57
2021-08-19 15:51:35.892,-0.195,0.51
2021-08-19 15:51:35.896,-0.225,0.46
2021-08-19 15:51:35.900,-0.27,0.405
2021-08-19 15:51:35.904,-0.26,0.39
2021-08-19 15:51:35.908,-0.275,0.33
2021-08-19 15:51:35.912,-0.275,0.305
2021-08-19 15:51:35.916,-0.28,0.28
2021-08-19 15:51:35.920,-0.27,0.25
2021-08-19 15:51:35.924,-0.265,0.235
2021-08-19 15:51:35.928,-0.285,0.23
2021-08-19 15:51:35.932,-0.27,0.215
2021-08-19 15:51:35.936,-0.29,0.215
2021-08-19 15:51:35.940,-0.3,0.215
2021-08-19 15:51:35.944,-0.315,0.185
2021-08-19 15:51:35.948,-0.3,0.185
2021-08-19 15:51:35.952,-0.28,0.19
2021-08-19 15:51:35.956,-0.29,0.2
2021-08-19 15:51:35.960,-0.285,0.195
2021-08-19 15:51:35.964,-0.275,0.205
2021-08-19 15:51:35.968,-0.285,0.22
2021-08-19 15:51:35.972,-0.27,0.22
2021-08-19 15:51:35.976,-0.255,0.215
2021-08-19 15:51:35.980,-0.28,0.215
2021-08-19 15:51:35.984,-0.265,0.235
2021-08-19 15:51:35.988,-0.26,0.195
2021-08-19 15:51:35.992,-0.23,0.21
2021-08-19 15:51:35.996,-0.205,0.21
2021-08-19 15:51:36.000,-0.205,0.21
2021-08-19 15:51:36.004,-0.18,0.215
2021-08-19 15:51:36.008,-0.125,0.24
2021-08-19 15:51:36.012,-0.115,0.24
2021-08-19 15:51:36.016,-0.09,0.245
2021-08-19 15:51:36.020,-0.045,0.28
2021-08-19 15:51:36.024,0.01,0.275
2021-08-19 15:51:36.028,0.06,0.305
2021-08-19 15:51:36.032,0.05,0.325
2021-08-19 15:51:36.036,0.03,0.37
2021-08-19 15:51:36.040,-0.01,0.38
2021-08-19 15:51:36.044,-0.08,0.385
2021-08-19 15:51:36.048,-0.11,0.36
2021-08-19 15:51:36.052,-0.105,0.33
2021-08-19 15:51:36.056,-0.1,0.3
2021-08-19 15:51:36.060,-0.08,0.29
2021-08-19 15:51:36.064,-0.025,0.245
2021-08-19 15:51:36.068,0.085,0.22
2021-08-19 15:51:36.072,0.245,0.21
2021-08-19 15:51:36.076,0.33,0.235
2021-08-19 15:51:36.080,0.23,0.27
2021-08-19 15:51:36.084,0.045,0.345
2021-08-19 15:51:36.088,-0.32,0.34
2021-08-19 15:51:36.092,-0.885,0.06
2021-08-19 15:51:36.096,-1.395,-0.455
2021-08-19 15:51:36.100,-1.75,-1.105
2021-08-19 15:51:36.184,-0.805,-1.945
2021-08-19 15:51:36.188,-0.52,-1.495
2021-08-19 15:51:36.192,-0.34,-1.07
2021-08-19 15:51:36.196,-0.18,-0.735
2021-08-19 15:51:36.200,-0.05,-0.48
2021-08-19 15:51:36.204,0.0,-0.22
2021-08-19 15:51:36.208,0.06,0.005
2021-08-19 15:51:36.212,0.08,0.24
2021-08-19 15:51:36.216,0.16,0.425
2021-08-19 15:51:36.220,0.225,0.545
2021-08-19 15:51:36.224,0.265,0.675
2021-08-19 15:51:36.228,0.335,0.805
2021-08-19 15:51:36.232,0.37,0.845
2021-08-19 15:51:36.236,0.35,0.9
2021-08-19 15:51:36.240,0.36,0.945
2021-08-19 15:51:36.244,0.325,0.975
2021-08-19 15:51:36.248,0.27,0.985
2021-08-19 15:51:36.252,0.25,0.97
2021-08-19 15:51:36.256,0.255,0.97
2021-08-19 15:51:36.260,0.26,0.945
2021-08-19 15:51:36.264,0.28,0.92
2021-08-19 15:51:36.268,0.255,0.925
2021-08-19 15:51:36.272,0.265,0.905
2021-08-19 15:51:36.276,0.265,0.905
2021-08-19 15:51:36.280,0.265,0.945
2021-08-19 15:51:36.284,0.26,0.93
2021-08-19 15:51:36.288,0.255,0.925
2021-08-19 15:51:36.292,0.255,0.95
2021-08-19 15:51:36.296,0.235,0.96
2021-08-19 15:51:36.300,0.23,0.975
2021-08-19 15:51:36.304,0.23,0.995
2021-08-19 15:51:36.308,0.235,1.005
2021-08-19 15:51:36.312,0.24,0.995
2021-08-19 15:51:36.316,0.25,1.02
2021-08-19 15:51:36.320,0.265,1.065
2021-08-19 15:51:36.324,0.275,1.1
2021-08-19 15:51:36.328,0.28,1.115
2021-08-19 15:51:36.332,0.27,1.12
2021-08-19 15:51:36.336,0.285,1.155
2021-08-19 15:51:36.340,0.295,1.165
2021-08-19 15:51:36.344,0.305,1.22
2021-08-19 15:51:36.348,0.305,1.25
2021-08-19 15:51:36.352,0.32,1.275
2021-08-19 15:51:36.356,0.34,1.315
2021-08-19 15:51:36.360,0.38,1.335
2021-08-19 15:51:36.364,0.405,1.345
2021-08-19 15:51:36.368,0.395,1.38
2021-08-19 15:51:36.372,0.405,1.42
2021-08-19 15:51:36.376,0.41,1.465
2021-08-19 15:51:36.380,0.4,1.49
2021-08-19 15:51:36.384,0.415,1.53
2021-08-19 15:51:36.388,0.41,1.555
2021-08-19 15:51:36.392,0.405,1.56
2021-08-19 15:51:36.396,0.415,1.575
2021-08-19 15:51:36.400,0.4,1.56
2021-08-19 15:51:36.404,0.405,1.575
2021-08-19 15:51:36.408,0.37,1.545
2021-08-19 15:51:36.412,0.365,1.56
2021-08-19 15:51:36.416,0.36,1.53
2021-08-19 15:51:36.420,0.335,1.52
2021-08-19 15:51:36.424,0.32,1.495
2021-08-19 15:51:36.428,0.335,1.445
2021-08-19 15:51:36.432,0.3,1.415
2021-08-19 15:51:36.436,0.32,1.345
2021-08-19 15:51:36.440,0.315,1.32
2021-08-19 15:51:36.444,0.285,1.27
2021-08-19 15:51:36.448,0.22,1.195
2021-08-19 15:51:36.452,0.145,1.125
2021-08-19 15:51:36.456,0.05,1.055
2021-08-19 15:51:36.460,-0.005,0.95
2021-08-19 15:51:36.464,-0.035,0.88
2021-08-19 15:51:36.468,-0.045,0.81
2021-08-19 15:51:36.472,-0.09,0.755
2021-08-19 15:51:36.476,-0.105,0.675
2021-08-19 15:51:36.480,-0.13,0.605
2021-08-19 15:51:36.484,-0.16,0.525
2021-08-19 15:51:36.488,-0.175,0.475
2021-08-19 15:51:36.492,-0.19,0.45
2021-08-19 15:51:36.496,-0.19,0.39
2021-08-19 15:51:36.500,-0.225,0.365
2021-08-19 15:51:36.504,-0.25,0.32
2021-08-19 15:51:36.508,-0.25,0.33
2021-08-19 15:51:36.512,-0.23,0.305
2021-08-19 15:51:36.516,-0.14,0.28
2021-08-19 15:51:36.520,0.015,0.26
2021-08-19 15:51:36.524,0.175,0.29
2021-08-19 15:51:36.528,0.2,0.3
2021-08-19 15:51:36.532,0.005,0.365
2021-08-19 15:51:36.536,-0.385,0.435
2021-08-19 15:51:36.540,-1.045,0.4
2021-08-19 15:51:36.544,-1.76,0.135
2021-08-19 15:51:36.632,-0.565,-1.85
2021-08-19 15:51:36.636,-0.305,-1.41
2021-08-19 15:51:36.640,-0.09,-1.035
2021-08-19 15:51:36.644,0.1,-0.685
2021-08-19 15:51:36.648,0.155,-0.39
2021-08-19 15:51:36.652,0.155,-0.14
2021-08-19 15:51:36.656,0.15,0.085
2021-08-19 15:51:36.660,0.165,0.3
2021-08-19 15:51:36.664,0.155,0.445
2021-08-19 15:51:36.668,0.17,0.57
2021-08-19 15:51:36.672,0.175,0.69
2021-08-19 15:51:36.676,0.175,0.77
2021-08-19 15:51:36.680,0.18,0.805
2021-08-19 15:51:36.684,0.155,0.825
2021-08-19 15:51:36.688,0.18,0.815
2021-08-19 15:51:36.692,0.16,0.845
2021-08-19 15:51:36.696,0.145,0.855
2021-08-19 15:51:36.700,0.17,0.85
2021-08-19 15:51:36.704,0.135,0.84
2021-08-19 15:51:36.708,0.12,0.855
2021-08-19 15:51:36.712,0.09,0.82
2021-08-19 15:51:36.716,0.095,0.815
2021-08-19 15:51:36.720,0.12,0.835
2021-08-19 15:51:36.724,0.125,0.84
2021-08-19 15:51:36.728,0.13,0.885
2021-08-19 15:51:36.732,0.12,0.885
2021-08-19 15:51:36.736,0.11,0.91
2021-08-19 15:51:36.740,0.125,0.915
2021-08-19 15:51:36.744,0.115,0.92
2021-08-19 15:51:36.748,0.12,0.94
2021-08-19 15:51:36.752,0.125,0.945
2021-08-19 15:51:36.756,0.12,0.955
2021-08-19 15:51:36.760,0.11,0.95
2021-08-19 15:51:36.764,0.13,0.965
2021-08-19 15:51:36.768,0.16,0.97
2021-08-19 15:51:36.772,0.17,0.995
2021-08-19 15:51:36.776,0.16,1.02
2021-08-19 15:51:36.780,0.13,1.02
2021-08-19 15:51:36.784,0.17,1.065
2021-08-19 15:51:36.788,0.16,1.075
2021-08-19 15:51:36.792,0.18,1.1
2021-08-19 15:51:36.796,0.165,1.14
2021-08-19 15:51:36.800,0.175,1.135
2021-08-19 15:51:36.804,0.205,1.2
2021-08-19 15:51:36.808,0.195,1.2
2021-08-19 15:51:36.812,0.195,1.22
2021-08-19 15:51:36.816,0.235,1.275
2021-08-19 15:51:36.820,0.25,1.28
2021-08-19 15:51:36.824,0.295,1.285
2021-08-19 15:51:36.828,0.31,1.285
2021-08-19 15:51:36.832,0.325,1.345
2021-08-19 15:51:36.836,0.315,1.36
2021-08-19 15:51:36.840,0.285,1.385
2021-08-19 15:51:36.844,0.25,1.38
2021-08-19 15:51:36.848,0.23,1.375
2021-08-19 15:51:36.852,0.2,1.345
2021-08-19 15:51:36.856,0.145,1.305
2021-08-19 15:51:36.860,0.18,1.27
2021-08-19 15:51:36.864,0.165,1.23
2021-08-19 15:51:36.868,0.14,1.2
2021-08-19 15:51:36.872,0.115,1.155
2021-08-19 15:51:36.876,0.085,1.105
2021-08-19 15:51:36.880,0.04,1.065
2021-08-19 15:51:36.884,-0.025,0.995
2021-08-19 15:51:36.888,-0.04,0.95
2021-08-19 15:51:36.892,-0.055,0.875
2021-08-19 15:51:36.896,-0.105,0.79
2021-08-19 15:51:36.900,-0.135,0.73
2021-08-19 15:51:36.904,-0.18,0.65
2021-08-19 15:51:36.908,-0.18,0.63
2021-08-19 15:51:36.912,-0.17,0.59
2021-08-19 15:51:36.916,-0.2,0.54
2021-08-19 15:51:36.920,-0.22,0.49
2021-08-19 15:51:36.924,-0.245,0.44
2021-08-19 15:51:36.928,-0.265,0.45
2021-08-19 15:51:36.932,-0.235,0.405
2021-08-19 15:51:36.936,-0.26,0.36
2021-08-19 15:51:36.940,-0.255,0.34
2021-08-19 15:51:36.944,-0.285,0.315
2021-08-19 15:51:36.948,-0.285,0.29
2021-08-19 15:51:36.952,-0.27,0.3
2021-08-19 15:51:36.956,-0.24,0.29
2021-08-19 15:51:36.960,-0.2,0.295
2021-08-19 15:51:36.964,-0.11,0.305
2021-08-19 15:51:36.968,0.11,0.27
2021-08-19 15:51:36.972,0.345,0.275
2021-08-19 15:51:36.976,0.415,0.285
2021-08-19 15:51:36.980,0.25,0.35
2021-08-19 15:51:36.984,-0.045,0.405
2021-08-19 15:51:36.988,-0.555,0.39
2021-08-19 15:51:36.992,-1.185,0.195
2021-08-19 15:51:36.996,-1.75,-0.205
2021-08-19 15:51:37.084,-0.59,-1.64
2021-08-19 15:51:37.088,-0.41,-1.255
2021-08-19 15:51:37.092,-0.255,-0.93
2021-08-19 15:51:37.096,-0.12,-0.63
2021-08-19 15:51:37.100,-0.02,-0.395
2021-08-19 15:51:37.104,0.0,-0.205
2021-08-19 15:51:37.108,0.015,0.0
2021-08-19 15:51:37.112,0.02,0.2
2021-08-19 15:51:37.116,0.025,0.39
2021-08-19 15:51:37.120,0.03,0.53
2021-08-19 15:51:37.124,0.045,0.6
2021-08-19 15:51:37.128,0.04,0.71
2021-08-19 15:51:37.132,0.055,0.78
2021-08-19 15:51:37.136,0.075,0.82
2021-08-19 15:51:37.140,0.09,0.83
2021-08-19 15:51:37.144,0.11,0.845
2021-08-19 15:51:37.148,0.14,0.86
2021-08-19 15:51:37.152,0.145,0.87
2021-08-19 15:51:37.156,0.17,0.895
2021-08-19 15:51:37.160,0.15,0.91
2021-08-19 15:51:37.164,0.16,0.895
2021-08-19 15:51:37.168,0.17,0.91
2021-08-19 15:51:37.172,0.21,0.96
2021-08-19 15:51:37.176,0.23,0.955
2021-08-19 15:51:37.180,0.24,0.98
2021-08-19 15:51:37.184,0.25,1.0
2021-08-19 15:51:37.188,0.275,1.035
2021-08-19 15:51:37.192,0.28,1.06
2021-08-19 15:51:37.196,0.29,1.065
2021-08-19 15:51:37.200,0.29,1.065
2021-08-19 15:51:37.204,0.31,1.09
2021-08-19 15:51:37.208,0.32,1.125
2021-08-19 15:51:37.212,0.325,1.11
2021-08-19 15:51:37.216,0.345,1.12
2021-08-19 15:51:37.220,0.365,1.145
2021-08-19 15:51:37.224,0.355,1.17
2021-08-19 15:51:37.228,0.39,1.195
2021-08-19 15:51:37.232,0.4,1.24
2021-08-19 15:51:37.236,0.46,1.245
2021-08-19 15:51:37.240,0.43,1.29
2021-08-19 15:51:37.244,0.425,1.3
2021-08-19 15:51:37.248,0.425,1.335
2021-08-19 15:51:37.252,0.46,1.34
2021-08-19 15:51:37.256,0.465,1.36
2021-08-19 15:51:37.260,0.495,1.355
2021-08-19 15:51:37.264,0.525,1.365
2021-08-19 15:51:37.268,0.505,1.385
2021-08-19 15:51:37.272,0.48,1.4
2021-08-19 15:51:37.276,0.45,1.41
2021-08-19 15:51:37.280,0.415,1.45
2021-08-19 15:51:37.284,0.4,1.46
2021-08-19 15:51:37.288,0.36,1.455
2021-08-19 15:51:37.292,0.35,1.46
2021-08-19 15:51:37.296,0.335,1.435
2021-08-19 15:51:37.300,0.29,1.415
2021-08-19 15:51:37.304,0.24,1.4
2021-08-19 15:51:37.308,0.195,1.335
2021-08-19 15:51:37.312,0.155,1.325
2021-08-19 15:51:37.316,0.155,1.26
2021-08-19 15:51:37.320,0.145,1.21
2021-08-19 15:51:37.324,0.1,1.19
2021-08-19 15:51:37.328,0.09,1.15
2021-08-19 15:51:37.332,0.06,1.085
2021-08-19 15:51:37.336,0.035,1.015
2021-08-19 15:51:37.340,0.015,0.975
2021-08-19 15:51:37.344,-0.005,0.91
2021-08-19 15:51:37.348,-0.01,0.86
2021-08-19 15:51:37.352,-0.03,0.785
2021-08-19 15:51:37.356,-0.06,0.72
2021-08-19 15:51:37.360,-0.065,0.665
2021-08-19 15:51:37.364,-0.065,0.625
2021-08-19 15:51:37.368,-0.06,0.59
2021-08-19 15:51:37.372,-0.085,0.56
2021-08-19 15:51:37.376,-0.08,0.535
2021-08-19 15:51:37.380,-0.08,0.51
2021-08-19 15:51:37.384,-0.075,0.5
2021-08-19 15:51:37.388,-0.095,0.48
2021-08-19 15:51:37.392,-0.105,0.455
2021-08-19 15:51:37.396,-0.1,0.42
2021-08-19 15:51:37.400,-0.105,0.435
2021-08-19 15:51:37.404,-0.11,0.44
2021-08-19 15:51:37.408,-0.105,0.405
2021-08-19 15:51:37.412,-0.095,0.41
2021-08-19 15:51:37.416,-0.1,0.395
2021-08-19 15:51:37.420,-0.11,0.405
2021-08-19 15:51:37.424,-0.105,0.42
2021-08-19 15:51:37.428,-0.12,0.44
2021-08-19 15:51:37.432,-0.13,0.425
2021-08-19 15:51:37.436,-0.15,0.43
2021-08-19 15:51:37.440,-0.135,0.435
2021-08-19 15:51:37.444,-0.12,0.425
2021-08-19 15:51:37.448,-0.12,0.415
2021-08-19 15:51:37.452,-0.09,0.395
2021-08-19 15:51:37.456,-0.1,0.375
2021-08-19 15:51:37.460,-0.08,0.365
2021-08-19 15:51:37.464,-0.095,0.345
2021-08-19 15:51:37.468,-0.105,0.365
2021-08-19 15:51:37.472,-0.125,0.395
2021-08-19 15:51:37.476,-0.135,0.405
2021-08-19 15:51:37.480,-0.145,0.365
2021-08-19 15:51:37.484,-0.14,0.345
2021-08-19 15:51:37.488,-0.125,0.34
2021-08-19 15:51:37.492,-0.115,0.31
2021-08-19 15:51:37.496,-0.14,0.315
2021-08-19 15:51:37.500,-0.145,0.33
2021-08-19 15:51:37.504,-0.135,0.335
2021-08-19 15:51:37.508,-0.15,0.335
2021-08-19 15:51:37.512,-0.16,0.32
2021-08-19 15:51:37.516,-0.18,0.325
2021-08-19 15:51:37.520,-0.195,0.34
2021-08-19 15:51:37.524,-0.2,0.315
2021-08-19 15:51:37.528,-0.22,0.305
2021-08-19 15:51:37.532,-0.205,0.31
2021-08-19 15:51:37.536,-0.225,0.295
2021-08-19 15:51:37.540,-0.24,0.28
2021-08-19 15:51:37.544,-0.23,0.27
2021-08-19 15:51:37.548,-0.235,0.285
2021-08-19 15:51:37.552,-0.205,0.25
2021-08-19 15:51:37.556,-0.205,0.265
2021-08-19 15:51:37.560,-0.205,0.285
2021-08-19 15:51:37.564,-0.195,0.27
2021-08-19 15:51:37.568,-0.2,0.285
2021-08-19 15:51:37.572,-0.2,0.275
2021-08-19 15:51:37.576,-0.215,0.285
2021-08-19 15:51:37.580,-0.195,0.265
2021-08-19 15:51:37.584,-0.19,0.275
2021-08-19 15:51:37.588,-0.155,0.295
2021-08-19 15:51:37.592,-0.155,0.29
2021-08-19 15:51:37.596,-0.125,0.29
2021-08-19 15:51:37.600,-0.15,0.335
2021-08-19 15:51:37.604,-0.125,0.31
2021-08-19 15:51:37.608,-0.145,0.335
2021-08-19 15:51:37.612,-0.14,0.36
2021-08-19 15:51:37.616,-0.14,0.335
2021-08-19 15:51:37.620,-0.14,0.335
2021-08-19 15:51:37.624,-0.135,0.325
2021-08-19 15:51:37.628,-0.15,0.33
2021-08-19 15:51:37.632,-0.125,0.325
2021-08-19 15:51:37.636,-0.135,0.32
2021-08-19 15:51:37.640,-0.175,0.285
2021-08-19 15:51:37.644,-0.205,0.27
2021-08-19 15:51:37.648,-0.245,0.24
2021-08-19 15:51:37.652,-0.28,0.23
2021-08-19 15:51:37.656,-0.29,0.2
2021-08-19 15:51:37.660,-0.295,0.18
2021-08-19 15:51:37.664,-0.265,0.17
2021-08-19 15:51:37.668,-0.25,0.13
2021-08-19 15:51:37.672,-0.255,0.12
2021-08-19 15:51:37.676,-0.25,0.115
2021-08-19 15:51:37.680,-0.23,0.115
2021-08-19 15:51:37.684,-0.24,0.13
2021-08-19 15:51:37.688,-0.225,0.17
2021-08-19 15:51:37.692,-0.235,0.185
2021-08-19 15:51:37.696,-0.24,0.195
2021-08-19 15:51:37.700,-0.23,0.18
2021-08-19 15:51:37.704,-0.225,0.19
2021-08-19 15:51:37.708,-0.235,0.205
2021-08-19 15:51:37.712,-0.245,0.19
2021-08-19 15:51:37.716,-0.235,0.19
2021-08-19 15:51:37.720,-0.235,0.19
2021-08-19 15:51:37.724,-0.25,0.22
2021-08-19 15:51:37.728,-0.24,0.2
2021-08-19 15:51:37.732,-0.225,0.205
2021-08-19 15:51:37.736,-0.225,0.245
2021-08-19 15:51:37.740,-0.23,0.225
2021-08-19 15:51:37.744,-0.225,0.19
2021-08-19 15:51:37.748,-0.25,0.21
2021-08-19 15:51:37.752,-0.235,0.22
2021-08-19 15:51:37.756,-0.23,0.205
2021-08-19 15:51:37.760,-0.235,0.21
2021-08-19 15:51:37.764,-0.235,0.185
2021-08-19 15:51:37.768,-0.24,0.185
2021-08-19 15:51:37.772,-0.21,0.185
2021-08-19 15:51:37.776,-0.225,0.2
2021-08-19 15:51:37.780,-0.19,0.205
2021-08-19 15:51:37.784,-0.12,0.19
2021-08-19 15:51:37.788,-0.025,0.19
2021-08-19 15:51:37.792,0.115,0.22
2021-08-19 15:51:37.796,0.13,0.245
2021-08-19 15:51:37.800,0.015,0.29
2021-08-19 15:51:37.804,-0.175,0.38
2021-08-19 15:51:37.808,-0.515,0.385
2021-08-19 15:51:37.812,-0.995,0.145
2021-08-19 15:51:37.816,-1.44,-0.32
2021-08-19 15:51:37.820,-1.76,-0.945
2021-08-19 15:51:37.824,-1.97,-1.805
2021-08-19 15:51:37.904,-0.83,-2.0
2021-08-19 15:51:37.908,-0.62,-1.545
2021-08-19 15:51:37.912,-0.45,-1.12
2021-08-19 15:51:37.916,-0.29,-0.8
2021-08-19 15:51:37.920,-0.16,-0.535
2021-08-19 15:51:37.924,-0.08,-0.275
2021-08-19 15:51:37.928,-0.065,-0.08
2021-08-19 15:51:37.932,-0.035,0.115
2021-08-19 15:51:37.936,-0.015,0.315
2021-08-19 15:51:37.940,0.0,0.465
2021-08-19 15:51:37.944,0.02,0.62
2021-08-19 15:51:37.948,0.03,0.71
2021-08-19 15:51:37.952,0.06,0.785
2021-08-19 15:51:37.956,0.1,0.835
2021-08-19 15:51:37.960,0.12,0.875
2021-08-19 15:51:37.964,0.165,0.905
2021-08-19 15:51:37.968,0.14,0.92
2021-08-19 15:51:37.972,0.17,0.96
2021-08-19 15:51:37.976,0.195,0.97
2021-08-19 15:51:37.980,0.195,0.995
2021-08-19 15:51:37.984,0.2,1.0
2021-08-19 15:51:37.988,0.215,1.015
2021-08-19 15:51:37.992,0.23,1.02
2021-08-19 15:51:37.996,0.235,1.055
2021-08-19 15:51:38.000,0.25,1.055
2021-08-19 15:51:38.004,0.275,1.08
2021-08-19 15:51:38.008,0.315,1.09
2021-08-19 15:51:38.012,0.33,1.11
2021-08-19 15:51:38.016,0.32,1.16
2021-08-19 15:51:38.020,0.335,1.185
2021-08-19 15:51:38.024,0.35,1.18
2021-08-19 15:51:38.028,0.365,1.2
2021-08-19 15:51:38.032,0.385,1.24
2021-08-19 15:51:38.036,0.39,1.245
2021-08-19 15:51:38.040,0.405,1.27
2021-08-19 15:51:38.044,0.44,1.28
2021-08-19 15:51:38.048,0.465,1.33
2021-08-19 15:51:38.052,0.52,1.35
2021-08-19 15:51:38.056,0.525,1.365
2021-08-19 15:51:38.060,0.545,1.42
2021-08-19 15:51:38.064,0.56,1.43
2021-08-19 15:51:38.068,0.575,1.455
2021-08-19 15:51:38.072,0.565,1.48
2021-08-19 15:51:38.076,0.565,1.475
2021-08-19 15:51:38.080,0.555,1.485
2021-08-19 15:51:38.084,0.55,1.495
2021-08-19 15:51:38.088,0.55,1.53
2021-08-19 15:51:38.092,0.56,1.52
2021-08-19 15:51:38.096,0.57,1.535
2021-08-19 15:51:38.100,0.605,1.55
2021-08-19 15:51:38.104,0.62,1.565
2021-08-19 15:51:38.108,0.64,1.6
2021-08-19 15:51:38.112,0.63,1.635
2021-08-19 15:51:38.116,0.61,1.645
2021-08-19 15:51:38.120,0.615,1.69
2021-08-19 15:51:38.124,0.605,1.71
2021-08-19 15:51:38.128,0.625,1.735
2021-08-19 15:51:38.132,0.61,1.71
2021-08-19 15:51:38.136,0.59,1.71
2021-08-19 15:51:38.140,0.555,1.69
2021-08-19 15:51:38.144,0.545,1.69
2021-08-19 15:51:38.148,0.5,1.675
2021-08-19 15:51:38.152,0.475,1.665
2021-08-19 15:51:38.156,0.45,1.645
2021-08-19 15:51:38.160,0.4,1.595
2021-08-19 15:51:38.164,0.395,1.565
2021-08-19 15:51:38.168,0.34,1.5
2021-08-19 15:51:38.172,0.315,1.435
2021-08-19 15:51:38.176,0.285,1.37
2021-08-19 15:51:38.180,0.265,1.295
2021-08-19 15:51:38.184,0.265,1.25
2021-08-19 15:51:38.188,0.2,1.185
2021-08-19 15:51:38.192,0.17,1.14
2021-08-19 15:51:38.196,0.145,1.08
2021-08-19 15:51:38.200,0.105,1.055
2021-08-19 15:51:38.204,0.08,0.96
2021-08-19 15:51:38.208,0.015,0.915
2021-08-19 15:51:38.212,0.01,0.84
2021-08-19 15:51:38.216,-0.02,0.785
2021-08-19 15:51:38.220,-0.03,0.735
2021-08-19 15:51:38.224,-0.055,0.695
2021-08-19 15:51:38.228,-0.04,0.64
2021-08-19 15:51:38.232,-0.065,0.61
2021-08-19 15:51:38.236,-0.08,0.605
2021-08-19 15:51:38.240,-0.075,0.565
2021-08-19 15:51:38.244,-0.075,0.545
2021-08-19 15:51:38.248,-0.09,0.545
2021-08-19 15:51:38.252,-0.1,0.5
2021-08-19 15:51:38.256,-0.115,0.47
2021-08-19 15:51:38.260,-0.115,0.475
2021-08-19 15:51:38.264,-0.135,0.44
2021-08-19 15:51:38.268,-0.115,0.43
2021-08-19 15:51:38.272,-0.14,0.42
2021-08-19 15:51:38.276,-0.125,0.41
2021-08-19 15:51:38.280,-0.155,0.39
2021-08-19 15:51:38.284,-0.155,0.405
2021-08-19 15:51:38.288,-0.17,0.405
2021-08-19 15:51:38.292,-0.165,0.38
2021-08-19 15:51:38.296,-0.2,0.38
2021-08-19 15:51:38.300,-0.14,0.365
2021-08-19 15:51:38.304,-0.15,0.365
2021-08-19 15:51:38.308,-0.13,0.37
2021-08-19 15:51:38.312,-0.12,0.395
2021-08-19 15:51:38.316,-0.09,0.4
2021-08-19 15:51:38.320,-0.07,0.425
2021-08-19 15:51:38.324,-0.095,0.44
2021-08-19 15:51:38.328,-0.085,0.465
2021-08-19 15:51:38.332,-0.095,0.485
2021-08-19 15:51:38.336,-0.08,0.48
2021-08-19 15:51:38.340,-0.085,0.47
2021-08-19 15:51:38.344,-0.095,0.455
2021-08-19 15:51:38.348,-0.1,0.43
2021-08-19 15:51:38.352,-0.08,0.45
2021-08-19 15:51:38.356,-0.1,0.44
2021-08-19 15:51:38.360,-0.1,0.44
2021-08-19 15:51:38.364,-0.085,0.445
2021-08-19 15:51:38.368,-0.105,0.435
2021-08-19 15:51:38.372,-0.11,0.455
2021-08-19 15:51:38.376,-0.105,0.445
2021-08-19 15:51:38.380,-0.125,0.455
2021-08-19 15:51:38.384,-0.13,0.415
2021-08-19 15:51:38.388,-0.145,0.42
2021-08-19 15:51:38.392,-0.175,0.425
2021-08-19 15:51:38.396,-0.175,0.395
2021-08-19 15:51:38.400,-0.18,0.37
2021-08-19 15:51:38.404,-0.18,0.375
2021-08-19 15:51:38.408,-0.17,0.34
2021-08-19 15:51:38.412,-0.17,0.335
2021-08-19 15:51:38.416,-0.19,0.335
2021-08-19 15:51:38.420,-0.205,0.32
2021-08-19 15:51:38.424,-0.23,0.3
2021-08-19 15:51:38.428,-0.245,0.27
2021-08-19 15:51:38.432,-0.245,0.25
2021-08-19 15:51:38.436,-0.245,0.205
2021-08-19 15:51:38.440,-0.285,0.195
2021-08-19 15:51:38.444,-0.295,0.15
2021-08-19 15:51:38.448,-0.28,0.16
2021-08-19 15:51:38.452,-0.25,0.18
2021-08-19 15:51:38.456,-0.185,0.17
2021-08-19 15:51:38.460,-0.065,0.15
2021-08-19 15:51:38.464,0.11,0.17
2021-08-19 15:51:38.468,0.2,0.205
2021-08-19 15:51:38.472,0.11,0.25
2021-08-19 15:51:38.476,-0.075,0.34
2021-08-19 15:51:38.480,-0.425,0.355
2021-08-19 15:51:38.484,-0.99,0.115
2021-08-19 15:51:38.488,-1.51,-0.36
2021-08-19 15:51:38.492,-1.915,-1.005
2021-08-19 15:51:38.576,-0.705,-1.945
2021-08-19 15:51:38.580,-0.48,-1.45
2021-08-19 15:51:38.584,-0.27,-1.08
2021-08-19 15:51:38.588,-0.1,-0.755
2021-08-19 15:51:38.592,-0.015,-0.48
2021-08-19 15:51:38.596,0.02,-0.24
2021-08-19 15:51:38.600,0.05,-0.055
2021-08-19 15:51:38.604,0.085,0.12
2021-08-19 15:51:38.608,0.07,0.28
2021-08-19 15:51:38.612,0.09,0.405
2021-08-19 15:51:38.616,0.09,0.52
2021-08-19 15:51:38.620,0.085,0.605
2021-08-19 15:51:38.624,0.08,0.635
2021-08-19 15:51:38.628,0.085,0.66
2021-08-19 15:51:38.632,0.075,0.68
2021-08-19 15:51:38.636,0.08,0.675
2021-08-19 15:51:38.640,0.095,0.7
2021-08-19 15:51:38.644,0.085,0.73
2021-08-19 15:51:38.648,0.1,0.74
2021-08-19 15:51:38.652,0.12,0.735
2021-08-19 15:51:38.656,0.14,0.76
2021-08-19 15:51:38.660,0.145,0.75
2021-08-19 15:51:38.664,0.125,0.76
2021-08-19 15:51:38.668,0.13,0.79
2021-08-19 15:51:38.672,0.175,0.815
2021-08-19 15:51:38.676,0.19,0.85
2021-08-19 15:51:38.680,0.17,0.885
2021-08-19 15:51:38.684,0.185,0.915
2021-08-19 15:51:38.688,0.19,0.95
2021-08-19 15:51:38.692,0.195,0.965
2021-08-19 15:51:38.696,0.22,1.01
2021-08-19 15:51:38.700,0.235,1.0
2021-08-19 15:51:38.704,0.27,1.035
2021-08-19 15:51:38.708,0.315,1.06
2021-08-19 15:51:38.712,0.34,1.07
2021-08-19 15:51:38.716,0.35,1.125
2021-08-19 15:51:38.720,0.36,1.16
2021-08-19 15:51:38.724,0.345,1.215
2021-08-19 15:51:38.728,0.365,1.255
2021-08-19 15:51:38.732,0.37,1.28
2021-08-19 15:51:38.736,0.36,1.3
2021-08-19 15:51:38.740,0.385,1.305
2021-08-19 15:51:38.744,0.39,1.31
2021-08-19 15:51:38.748,0.4,1.35
2021-08-19 15:51:38.752,0.4,1.39
2021-08-19 15:51:38.756,0.41,1.4
2021-08-19 15:51:38.760,0.42,1.415
2021-08-19 15:51:38.764,0.425,1.44
2021-08-19 15:51:38.768,0.42,1.49
2021-08-19 15:51:38.772,0.4,1.525
2021-08-19 15:51:38.776,0.395,1.52
2021-08-19 15:51:38.780,0.375,1.55
2021-08-19 15:51:38.784,0.365,1.55
2021-08-19 15:51:38.788,0.36,1.57
2021-08-19 15:51:38.792,0.34,1.565
2021-08-19 15:51:38.796,0.315,1.535
2021-08-19 15:51:38.800,0.29,1.545
2021-08-19 15:51:38.804,0.27,1.515
2021-08-19 15:51:38.808,0.26,1.46
2021-08-19 15:51:38.812,0.24,1.43
2021-08-19 15:51:38.816,0.19,1.4
2021-08-19 15:51:38.820,0.15,1.34
2021-08-19 15:51:38.824,0.115,1.3
2021-08-19 15:51:38.828,0.085,1.23
2021-08-19 15:51:38.832,0.05,1.175
2021-08-19 15:51:38.836,0.005,1.09
2021-08-19 15:51:38.840,-0.01,1.01
2021-08-19 15:51:38.844,-0.005,0.955
2021-08-19 15:51:38.848,-0.035,0.855
2021-08-19 15:51:38.852,-0.025,0.795
2021-08-19 15:51:38.856,-0.065,0.74
2021-08-19 15:51:38.860,-0.1,0.71
2021-08-19 15:51:38.864,-0.145,0.67
2021-08-19 15:51:38.868,-0.16,0.595
2021-08-19 15:51:38.872,-0.185,0.55
2021-08-19 15:51:38.876,-0.19,0.485
2021-08-19 15:51:38.880,-0.215,0.465
2021-08-19 15:51:38.884,-0.21,0.44
2021-08-19 15:51:38.888,-0.195,0.42
2021-08-19 15:51:38.892,-0.14,0.41
2021-08-19 15:51:38.896,-0.15,0.38
2021-08-19 15:51:38.900,-0.145,0.39
2021-08-19 15:51:38.904,-0.165,0.385
2021-08-19 15:51:38.908,-0.155,0.42
2021-08-19 15:51:38.912,-0.17,0.43
2021-08-19 15:51:38.916,-0.175,0.38
2021-08-19 15:51:38.920,-0.2,0.365
2021-08-19 15:51:38.924,-0.2,0.3
2021-08-19 15:51:38.928,-0.18,0.245
2021-08-19 15:51:38.932,-0.175,0.23
2021-08-19 15:51:38.936,-0.15,0.215
2021-08-19 15:51:38.940,-0.15,0.225
2021-08-19 15:51:38.944,-0.145,0.24
2021-08-19 15:51:38.948,-0.17,0.25
2021-08-19 15:51:38.952,-0.15,0.275
2021-08-19 15:51:38.956,-0.17,0.29
2021-08-19 15:51:38.960,-0.185,0.285
2021-08-19 15:51:38.964,-0.185,0.27
2021-08-19 15:51:38.968,-0.185,0.265
2021-08-19 15:51:38.972,-0.185,0.25
2021-08-19 15:51:38.976,-0.155,0.25
2021-08-19 15:51:38.980,-0.15,0.25
2021-08-19 15:51:38.984,-0.155,0.24
2021-08-19 15:51:38.988,-0.135,0.22
2021-08-19 15:51:38.992,-0.145,0.245
2021-08-19 15:51:38.996,-0.125,0.25
2021-08-19 15:51:39.000,-0.15,0.26
2021-08-19 15:51:39.004,-0.15,0.245
2021-08-19 15:51:39.008,-0.16,0.22
2021-08-19 15:51:39.012,-0.14,0.24
2021-08-19 15:51:39.016,-0.08,0.23
2021-08-19 15:51:39.020,0.05,0.225
2021-08-19 15:51:39.024,0.17,0.2
2021-08-19 15:51:39.028,0.285,0.23
2021-08-19 15:51:39.032,0.2,0.28
2021-08-19 15:51:39.036,0.04,0.35
2021-08-19 15:51:39.040,-0.2,0.375
2021-08-19 15:51:39.044,-0.58,0.205
2021-08-19 15:51:39.048,-0.985,-0.26
2021-08-19 15:51:39.052,-1.355,-0.865
2021-08-19 15:51:39.056,-1.575,-1.645
2021-08-19 15:51:39.136,-0.68,-1.815
2021-08-19 15:51:39.140,-0.45,-1.34
2021-08-19 15:51:39.144,-0.275,-0.96
2021-08-19 15:51:39.148,-0.125,-0.63
2021-08-19 15:51:39.152,-0.02,-0.32
2021-08-19 15:51:39.156,0.05,-0.105
2021-08-19 15:51:39.160,0.125,0.12
2021-08-19 15:51:39.164,0.15,0.33
2021-08-19 15:51:39.168,0.17,0.49
2021-08-19 15:51:39.172,0.19,0.62
2021-08-19 15:51:39.176,0.215,0.765
2021-08-19 15:51:39.180,0.225,0.835
2021-08-19 15:51:39.184,0.24,0.86
2021-08-19 15:51:39.188,0.215,0.89
2021-08-19 15:51:39.192,0.235,0.915
2021-08-19 15:51:39.196,0.24,0.935
2021-08-19 15:51:39.200,0.3,0.945
2021-08-19 15:51:39.204,0.31,0.985
2021-08-19 15:51:39.208,0.31,1.005
2021-08-19 15:51:39.212,0.35,1.015
2021-08-19 15:51:39.216,0.37,1.04
2021-08-19 15:51:39.220,0.37,1.05
2021-08-19 15:51:39.224,0.35,1.055
2021-08-19 15:51:39.228,0.395,1.06
2021-08-19 15:51:39.232,0.38,1.085
2021-08-19 15:51:39.236,0.395,1.095
2021-08-19 15:51:39.240,0.4,1.11
2021-08-19 15:51:39.244,0.405,1.105
2021-08-19 15:51:39.248,0.4,1.13
2021-08-19 15:51:39.252,0.42,1.145
2021-08-19 15:51:39.256,0.42,1.18
2021-08-19 15:51:39.260,0.415,1.18
2021-08-19 15:51:39.264,0.425,1.225
2021-08-19 15:51:39.268,0.415,1.22
2021-08-19 15:51:39.272,0.425,1.22
2021-08-19 15:51:39.276,0.41,1.24
2021-08-19 15:51:39.280,0.425,1.26
2021-08-19 15:51:39.284,0.44,1.265
2021-08-19 15:51:39.288,0.435,1.305
2021-08-19 15:51:39.292,0.46,1.32
2021-08-19 15:51:39.296,0.435,1.325
2021-08-19 15:51:39.300,0.445,1.38
2021-08-19 15:51:39.304,0.44,1.4
2021-08-19 15:51:39.308,0.44,1.425
2021-08-19 15:51:39.312,0.45,1.44
2021-08-19 15:51:39.316,0.45,1.475
2021-08-19 15:51:39.320,0.455,1.515
2021-08-19 15:51:39.324,0.45,1.525
2021-08-19 15:51:39.328,0.47,1.555
2021-08-19 15:51:39.332,0.495,1.575
2021-08-19 15:51:39.336,0.48,1.585
2021-08-19 15:51:39.340,0.44,1.59
2021-08-19 15:51:39.344,0.38,1.595
2021-08-19 15:51:39.348,0.35,1.59
2021-08-19 15:51:39.352,0.3,1.57
2021-08-19 15:51:39.356,0.265,1.535
2021-08-19 15:51:39.360,0.25,1.48
2021-08-19 15:51:39.364,0.245,1.41
2021-08-19 15:51:39.368,0.245,1.35
2021-08-19 15:51:39.372,0.215,1.285
2021-08-19 15:51:39.376,0.165,1.245
2021-08-19 15:51:39.380,0.13,1.175
2021-08-19 15:51:39.384,0.095,1.095
2021-08-19 15:51:39.388,0.05,1.02
2021-08-19 15:51:39.392,0.035,0.945
2021-08-19 15:51:39.396,0.03,0.87
2021-08-19 15:51:39.400,-0.015,0.8
2021-08-19 15:51:39.404,-0.005,0.73
2021-08-19 15:51:39.408,-0.04,0.68
2021-08-19 15:51:39.412,-0.05,0.64
2021-08-19 15:51:39.416,-0.05,0.56
2021-08-19 15:51:39.420,-0.035,0.505
2021-08-19 15:51:39.424,-0.06,0.5
2021-08-19 15:51:39.428,-0.06,0.445
2021-08-19 15:51:39.432,-0.07,0.43
2021-08-19 15:51:39.436,-0.085,0.395
2021-08-19 15:51:39.440,-0.1,0.37
2021-08-19 15:51:39.444,-0.08,0.36
2021-08-19 15:51:39.448,-0.12,0.345
2021-08-19 15:51:39.452,-0.12,0.3
2021-08-19 15:51:39.456,-0.12,0.305
2021-08-19 15:51:39.460,-0.13,0.3
2021-08-19 15:51:39.464,-0.13,0.3
2021-08-19 15:51:39.468,-0.14,0.315
2021-08-19 15:51:39.472,-0.13,0.305
2021-08-19 15:51:39.476,-0.155,0.305
2021-08-19 15:51:39.480,-0.17,0.275
2021-08-19 15:51:39.484,-0.18,0.285
2021-08-19 15:51:39.488,-0.195,0.26
2021-08-19 15:51:39.492,-0.195,0.265
2021-08-19 15:51:39.496,-0.205,0.265
2021-08-19 15:51:39.500,-0.21,0.255
2021-08-19 15:51:39.504,-0.205,0.235
2021-08-19 15:51:39.508,-0.18,0.26
2021-08-19 15:51:39.512,-0.165,0.245
2021-08-19 15:51:39.516,-0.16,0.235
2021-08-19 15:51:39.520,-0.195,0.23
2021-08-19 15:51:39.524,-0.205,0.235
2021-08-19 15:51:39.528,-0.215,0.235
2021-08-19 15:51:39.532,-0.24,0.245
2021-08-19 15:51:39.536,-0.245,0.265
2021-08-19 15:51:39.540,-0.23,0.275
2021-08-19 15:51:39.544,-0.225,0.245
2021-08-19 15:51:39.548,-0.205,0.235
2021-08-19 15:51:39.552,-0.185,0.23
2021-08-19 15:51:39.556,-0.19,0.255
2021-08-19 15:51:39.560,-0.24,0.285
2021-08-19 15:51:39.564,-0.27,0.29
2021-08-19 15:51:39.568,-0.27,0.275
2021-08-19 15:51:39.572,-0.235,0.27
2021-08-19 15:51:39.576,-0.2,0.245
2021-08-19 15:51:39.580,-0.17,0.23
2021-08-19 15:51:39.584,-0.155,0.195
2021-08-19 15:51:39.588,-0.165,0.175
2021-08-19 15:51:39.592,-0.18,0.16
2021-08-19 15:51:39.596,-0.195,0.115
2021-08-19 15:51:39.600,-0.17,0.145
2021-08-19 15:51:39.604,-0.16,0.145
2021-08-19 15:51:39.608,-0.175,0.17
2021-08-19 15:51:39.612,-0.175,0.145
2021-08-19 15:51:39.616,-0.18,0.155
2021-08-19 15:51:39.620,-0.165,0.135
2021-08-19 15:51:39.624,-0.19,0.15
2021-08-19 15:51:39.628,-0.195,0.14
2021-08-19 15:51:39.632,-0.2,0.125
2021-08-19 15:51:39.636,-0.14,0.14
2021-08-19 15:51:39.640,-0.14,0.18
2021-08-19 15:51:39.644,-0.175,0.13
2021-08-19 15:51:39.648,-0.17,0.125
2021-08-19 15:51:39.652,-0.18,0.135
2021-08-19 15:51:39.656,-0.19,0.115
2021-08-19 15:51:39.660,-0.155,0.15
2021-08-19 15:51:39.664,-0.075,0.12
2021-08-19 15:51:39.668,-0.075,0.125
2021-08-19 15:51:39.672,-0.05,0.105
2021-08-19 15:51:39.676,0.13,0.11
2021-08-19 15:51:39.680,0.25,0.11
2021-08-19 15:51:39.684,0.145,0.145
2021-08-19 15:51:39.688,-0.045,0.215
2021-08-19 15:51:39.692,-0.255,0.275
2021-08-19 15:51:39.696,-0.555,0.125
2021-08-19 15:51:39.700,-0.91,-0.36
2021-08-19 15:51:39.704,-1.375,-0.99
2021-08-19 15:51:39.708,-1.905,-1.885
2021-08-19 15:51:39.792,-0.58,-1.55
2021-08-19 15:51:39.796,-0.435,-1.215
2021-08-19 15:51:39.800,-0.28,-0.89
2021-08-19 15:51:39.804,-0.15,-0.635
2021-08-19 15:51:39.808,-0.07,-0.395
2021-08-19 15:51:39.812,0.015,-0.155
2021-08-19 15:51:39.816,0.135,0.085
2021-08-19 15:51:39.820,0.15,0.295
2021-08-19 15:51:39.824,0.08,0.445
2021-08-19 15:51:39.828,0.065,0.59
2021-08-19 15:51:39.832,0.075,0.68
2021-08-19 15:51:39.836,0.05,0.725
2021-08-19 15:51:39.840,0.005,0.755
2021-08-19 15:51:39.844,0.015,0.78
2021-08-19 15:51:39.848,0.07,0.815
2021-08-19 15:51:39.852,0.1,0.825
2021-08-19 15:51:39.856,0.105,0.85
2021-08-19 15:51:39.860,0.155,0.855
2021-08-19 15:51:39.864,0.165,0.91
2021-08-19 15:51:39.868,0.165,0.935
2021-08-19 15:51:39.872,0.17,0.925
2021-08-19 15:51:39.876,0.155,0.93
2021-08-19 15:51:39.880,0.205,0.955
2021-08-19 15:51:39.884,0.28,0.93
2021-08-19 15:51:39.888,0.29,0.965
2021-08-19 15:51:39.892,0.205,0.945
2021-08-19 15:51:39.896,0.18,0.95
2021-08-19 15:51:39.900,0.185,0.96
2021-08-19 15:51:39.904,0.235,1.005
2021-08-19 15:51:39.908,0.305,1.04
2021-08-19 15:51:39.912,0.335,1.05
2021-08-19 15:51:39.916,0.335,1.055
2021-08-19 15:51:39.920,0.295,1.06
2021-08-19 15:51:39.924,0.285,1.075
2021-08-19 15:51:39.928,0.305,1.11
2021-08-19 15:51:39.932,0.375,1.145
2021-08-19 15:51:39.936,0.43,1.18
2021-08-19 15:51:39.940,0.41,1.225
2021-08-19 15:51:39.944,0.31,1.245
2021-08-19 15:51:39.948,0.245,1.29
2021-08-19 15:51:39.952,0.29,1.315
2021-08-19 15:51:39.956,0.425,1.355
2021-08-19 15:51:39.960,0.49,1.385
2021-08-19 15:51:39.964,0.48,1.4
2021-08-19 15:51:39.968,0.455,1.42
2021-08-19 15:51:39.972,0.5,1.43
2021-08-19 15:51:39.976,0.5,1.465
2021-08-19 15:51:39.980,0.575,1.48
2021-08-19 15:51:39.984,0.65,1.48
2021-08-19 15:51:39.988,0.59,1.48
2021-08-19 15:51:39.992,0.615,1.485
2021-08-19 15:51:39.996,0.67,1.5
2021-08-19 15:51:40.000,0.73,1.55
2021-08-19 15:51:40.004,0.605,1.56
2021-08-19 15:51:40.008,0.43,1.53
2021-08-19 15:51:40.012,0.31,1.465
2021-08-19 15:51:40.016,0.25,1.465
2021-08-19 15:51:40.020,0.24,1.455
2021-08-19 15:51:40.024,0.36,1.44
2021-08-19 15:51:40.028,0.4,1.355
2021-08-19 15:51:40.032,0.32,1.33
2021-08-19 15:51:40.036,0.29,1.27
2021-08-19 15:51:40.040,0.235,1.205
2021-08-19 15:51:40.044,0.17,1.135
2021-08-19 15:51:40.048,0.06,1.11
2021-08-19 15:51:40.052,-0.09,1.015
2021-08-19 15:51:40.056,-0.185,0.935
2021-08-19 15:51:40.060,-0.1,0.875
2021-08-19 15:51:40.064,0.05,0.84
2021-08-19 15:51:40.068,0.075,0.765
2021-08-19 15:51:40.072,0.08,0.71
2021-08-19 15:51:40.076,0.065,0.655
2021-08-19 15:51:40.080,-0.09,0.58
2021-08-19 15:51:40.084,-0.13,0.48
2021-08-19 15:51:40.088,0.005,0.445
2021-08-19 15:51:40.092,-0.02,0.375
2021-08-19 15:51:40.096,-0.22,0.33
2021-08-19 15:51:40.100,-0.46,0.285
2021-08-19 15:51:40.104,-0.615,0.28
2021-08-19 15:51:40.108,-0.53,0.315
2021-08-19 15:51:40.112,-0.285,0.285
2021-08-19 15:51:40.116,-0.075,0.27
2021-08-19 15:51:40.120,-0.055,0.265
2021-08-19 15:51:40.124,-0.085,0.295
2021-08-19 15:51:40.128,-0.1,0.255
2021-08-19 15:51:40.132,-0.18,0.23
2021-08-19 15:51:40.136,-0.255,0.255
2021-08-19 15:51:40.140,-0.225,0.285
2021-08-19 15:51:40.144,-0.15,0.295
2021-08-19 15:51:40.148,-0.01,0.325
2021-08-19 15:51:40.152,0.04,0.415
2021-08-19 15:51:40.156,-0.2,0.455
2021-08-19 15:51:40.160,-0.605,0.525
2021-08-19 15:51:40.164,-1.13,0.36
2021-08-19 15:51:40.168,-1.66,-0.07
2021-08-19 15:51:40.256,-0.745,-1.88
2021-08-19 15:51:40.260,-0.595,-1.415
2021-08-19 15:51:40.264,-0.32,-1.015
2021-08-19 15:51:40.268,0.025,-0.67
2021-08-19 15:51:40.272,0.055,-0.445
2021-08-19 15:51:40.276,0.0,-0.2
2021-08-19 15:51:40.280,0.015,0.01
2021-08-19 15:51:40.284,-0.04,0.19
2021-08-19 15:51:40.288,0.02,0.35
2021-08-19 15:51:40.292,0.345,0.5
2021-08-19 15:51:40.296,0.525,0.61
2021-08-19 15:51:40.300,0.165,0.68
2021-08-19 15:51:40.304,-0.265,0.715
2021-08-19 15:51:40.308,-0.2,0.71
2021-08-19 15:51:40.312,0.145,0.76
2021-08-19 15:51:40.316,0.285,0.8
2021-08-19 15:51:40.320,0.14,0.85
2021-08-19 15:51:40.324,-0.045,0.85
2021-08-19 15:51:40.328,-0.05,0.855
2021-08-19 15:51:40.332,0.1,0.845
2021-08-19 15:51:40.336,0.19,0.855
2021-08-19 15:51:40.340,0.35,0.91
2021-08-19 15:51:40.344,0.475,0.945
2021-08-19 15:51:40.348,0.38,0.955
2021-08-19 15:51:40.352,0.145,0.97
2021-08-19 15:51:40.356,-0.01,1.015
2021-08-19 15:51:40.360,-0.025,1.03
2021-08-19 15:51:40.364,0.105,1.055
2021-08-19 15:51:40.368,0.35,1.075
2021-08-19 15:51:40.372,0.5,1.07
2021-08-19 15:51:40.376,0.425,1.06
2021-08-19 15:51:40.380,0.315,1.085
2021-08-19 15:51:40.384,0.4,1.065
2021-08-19 15:51:40.388,0.535,1.085
2021-08-19 15:51:40.392,0.515,1.17
2021-08-19 15:51:40.396,0.245,1.18
2021-08-19 15:51:40.400,0.005,1.215
2021-08-19 15:51:40.404,0.16,1.25
2021-08-19 15:51:40.408,0.51,1.24
2021-08-19 15:51:40.412,0.58,1.23
2021-08-19 15:51:40.416,0.295,1.185
2021-08-19 15:51:40.420,0.045,1.175
2021-08-19 15:51:40.424,-0.03,1.13
2021-08-19 15:51:40.428,0.09,1.145
2021-08-19 15:51:40.432,0.265,1.165
2021-08-19 15:51:40.436,0.32,1.17
2021-08-19 15:51:40.440,0.295,1.185
2021-08-19 15:51:40.444,0.25,1.195
2021-08-19 15:51:40.448,0.25,1.225
2021-08-19 15:51:40.452,0.325,1.215
2021-08-19 15:51:40.456,0.33,1.23
2021-08-19 15:51:40.460,0.215,1.235
2021-08-19 15:51:40.464,0.145,1.24
2021-08-19 15:51:40.468,0.135,1.2
2021-08-19 15:51:40.472,0.195,1.17
2021-08-19 15:51:40.476,0.285,1.175
2021-08-19 15:51:40.480,0.28,1.17
2021-08-19 15:51:40.484,0.115,1.1
2021-08-19 15:51:40.488,-0.1,1.03
2021-08-19 15:51:40.492,-0.265,1.0
2021-08-19 15:51:40.496,-0.255,0.97
2021-08-19 15:51:40.500,-0.16,0.915
2021-08-19 15:51:40.504,-0.115,0.845
2021-08-19 15:51:40.508,-0.055,0.77
2021-08-19 15:51:40.512,-0.085,0.73
2021-08-19 15:51:40.516,-0.09,0.645
2021-08-19 15:51:40.520,-0.095,0.575
2021-08-19 15:51:40.524,-0.25,0.53
2021-08-19 15:51:40.528,-0.35,0.465
2021-08-19 15:51:40.532,-0.375,0.425
2021-08-19 15:51:40.536,-0.31,0.395
2021-08-19 15:51:40.540,-0.265,0.36
2021-08-19 15:51:40.544,-0.345,0.32
2021-08-19 15:51:40.548,-0.45,0.28
2021-08-19 15:51:40.552,-0.385,0.25
2021-08-19 15:51:40.556,-0.24,0.215
2021-08-19 15:51:40.560,-0.07,0.215
2021-08-19 15:51:40.564,-0.015,0.22
2021-08-19 15:51:40.568,-0.14,0.195
2021-08-19 15:51:40.572,-0.375,0.19
2021-08-19 15:51:40.576,-0.615,0.165
2021-08-19 15:51:40.580,-0.705,0.15
2021-08-19 15:51:40.584,-0.645,0.135
2021-08-19 15:51:40.588,-0.48,0.17
2021-08-19 15:51:40.592,-0.335,0.17
2021-08-19 15:51:40.596,-0.185,0.15
2021-08-19 15:51:40.600,-0.08,0.16
2021-08-19 15:51:40.604,-0.045,0.175
2021-08-19 15:51:40.608,0.145,0.205
2021-08-19 15:51:40.612,0.315,0.18
2021-08-19 15:51:40.616,0.26,0.21
2021-08-19 15:51:40.620,0.025,0.265
2021-08-19 15:51:40.624,-0.35,0.295
2021-08-19 15:51:40.628,-0.825,0.11
2021-08-19 15:51:40.632,-1.255,-0.375
2021-08-19 15:51:40.636,-1.6,-0.965
2021-08-19 15:51:40.640,-1.87,-1.815
2021-08-19 15:51:40.720,-0.84,-1.98
2021-08-19 15:51:40.724,-0.69,-1.51
2021-08-19 15:51:40.728,-0.54,-1.08
2021-08-19 15:51:40.732,-0.395,-0.74
2021-08-19 15:51:40.736,-0.23,-0.485
2021-08-19 15:51:40.740,-0.04,-0.265
2021-08-19 15:51:40.744,0.005,-0.07
2021-08-19 15:51:40.748,-0.13,0.165
2021-08-19 15:51:40.752,-0.31,0.35
2021-08-19 15:51:40.756,-0.3,0.495
2021-08-19 15:51:40.760,-0.175,0.64
2021-08-19 15:51:40.764,-0.015,0.745
2021-08-19 15:51:40.768,0.08,0.83
2021-08-19 15:51:40.772,-0.01,0.835
2021-08-19 15:51:40.776,-0.115,0.86
2021-08-19 15:51:40.780,-0.1,0.84
2021-08-19 15:51:40.784,-0.02,0.84
2021-08-19 15:51:40.788,0.05,0.885
2021-08-19 15:51:40.792,0.135,0.94
2021-08-19 15:51:40.796,0.185,0.97
2021-08-19 15:51:40.800,0.18,0.985
2021-08-19 15:51:40.804,0.165,0.995
2021-08-19 15:51:40.808,0.165,0.98
2021-08-19 15:51:40.812,0.185,0.97
2021-08-19 15:51:40.816,0.27,0.945
2021-08-19 15:51:40.820,0.33,0.905
2021-08-19 15:51:40.824,0.335,0.9
2021-08-19 15:51:40.828,0.22,0.935
2021-08-19 15:51:40.832,0.075,0.91
2021-08-19 15:51:40.836,0.035,0.905
2021-08-19 15:51:40.840,0.115,0.93
2021-08-19 15:51:40.844,0.21,0.965
2021-08-19 15:51:40.848,0.21,1.015
2021-08-19 15:51:40.852,0.255,1.015
2021-08-19 15:51:40.856,0.265,1.01
2021-08-19 15:51:40.860,0.145,0.99
2021-08-19 15:51:40.864,0.09,1.04
2021-08-19 15:51:40.868,0.16,1.05
2021-08-19 15:51:40.872,0.185,1.11
2021-08-19 15:51:40.876,0.225,1.1
2021-08-19 15:51:40.880,0.265,1.145
2021-08-19 15:51:40.884,0.295,1.175
2021-08-19 15:51:40.888,0.31,1.205
2021-08-19 15:51:40.892,0.325,1.21
2021-08-19 15:51:40.896,0.345,1.245
2021-08-19 15:51:40.900,0.335,1.32
2021-08-19 15:51:40.904,0.325,1.31
2021-08-19 15:51:40.908,0.285,1.325
2021-08-19 15:51:40.912,0.29,1.33
2021-08-19 15:51:40.916,0.295,1.31
2021-08-19 15:51:40.920,0.33,1.31
2021-08-19 15:51:40.924,0.295,1.335
2021-08-19 15:51:40.928,0.19,1.355
2021-08-19 15:51:40.932,0.135,1.36
2021-08-19 15:51:40.936,0.1,1.355
2021-08-19 15:51:40.940,0.06,1.325
2021-08-19 15:51:40.944,0.135,1.315
2021-08-19 15:51:40.948,0.12,1.285
2021-08-19 15:51:40.952,0.03,1.26
2021-08-19 15:51:40.956,-0.02,1.205
2021-08-19 15:51:40.960,-0.005,1.165
2021-08-19 15:51:40.964,-0.07,1.085
2021-08-19 15:51:40.968,-0.17,1.005
2021-08-19 15:51:40.972,-0.23,0.945
2021-08-19 15:51:40.976,-0.27,0.875
2021-08-19 15:51:40.980,-0.265,0.835
2021-08-19 15:51:40.984,-0.26,0.81
2021-08-19 15:51:40.988,-0.24,0.765
2021-08-19 15:51:40.992,-0.175,0.715
2021-08-19 15:51:40.996,-0.15,0.655
2021-08-19 15:51:41.000,-0.16,0.6
2021-08-19 15:51:41.004,-0.175,0.565
2021-08-19 15:51:41.008,-0.175,0.515
2021-08-19 15:51:41.012,-0.195,0.515
2021-08-19 15:51:41.016,-0.2,0.485
2021-08-19 15:51:41.020,-0.21,0.445
2021-08-19 15:51:41.024,-0.22,0.415
2021-08-19 15:51:41.028,-0.2,0.365
2021-08-19 15:51:41.032,-0.16,0.285
2021-08-19 15:51:41.036,-0.165,0.325
2021-08-19 15:51:41.040,-0.145,0.315
2021-08-19 15:51:41.044,-0.155,0.325
2021-08-19 15:51:41.048,-0.155,0.27
2021-08-19 15:51:41.052,-0.19,0.26
2021-08-19 15:51:41.056,-0.25,0.245
2021-08-19 15:51:41.060,-0.32,0.25
2021-08-19 15:51:41.064,-0.355,0.24
2021-08-19 15:51:41.068,-0.315,0.22
2021-08-19 15:51:41.072,-0.3,0.21
2021-08-19 15:51:41.076,-0.31,0.205
2021-08-19 15:51:41.080,-0.32,0.23
2021-08-19 15:51:41.084,-0.32,0.255
2021-08-19 15:51:41.088,-0.325,0.22
2021-08-19 15:51:41.092,-0.3,0.185
2021-08-19 15:51:41.096,-0.27,0.19
2021-08-19 15:51:41.100,-0.215,0.185
2021-08-19 15:51:41.104,-0.22,0.165
2021-08-19 15:51:41.108,-0.215,0.155
2021-08-19 15:51:41.112,-0.18,0.15
2021-08-19 15:51:41.116,-0.195,0.12
2021-08-19 15:51:41.120,-0.21,0.11
2021-08-19 15:51:41.124,-0.245,0.115
2021-08-19 15:51:41.128,-0.245,0.11
2021-08-19 15:51:41.132,-0.23,0.105
2021-08-19 15:51:41.136,-0.285,0.145
2021-08-19 15:51:41.140,-0.315,0.145
2021-08-19 15:51:41.144,-0.375,0.185
2021-08-19 15:51:41.148,-0.4,0.175
2021-08-19 15:51:41.152,-0.385,0.13
2021-08-19 15:51:41.156,-0.38,0.155
2021-08-19 15:51:41.160,-0.375,0.185
2021-08-19 15:51:41.164,-0.36,0.19
2021-08-19 15:51:41.168,-0.305,0.19
2021-08-19 15:51:41.172,-0.275,0.185
2021-08-19 15:51:41.176,-0.305,0.155
2021-08-19 15:51:41.180,-0.32,0.17
2021-08-19 15:51:41.184,-0.29,0.185
2021-08-19 15:51:41.188,-0.31,0.18
2021-08-19 15:51:41.192,-0.29,0.17
2021-08-19 15:51:41.196,-0.25,0.15
2021-08-19 15:51:41.200,-0.215,0.14
2021-08-19 15:51:41.204,-0.165,0.135
2021-08-19 15:51:41.208,-0.155,0.16
2021-08-19 15:51:41.212,-0.17,0.185
2021-08-19 15:51:41.216,-0.13,0.2
2021-08-19 15:51:41.220,-0.17,0.16
2021-08-19 15:51:41.224,-0.355,0.18
2021-08-19 15:51:41.228,-0.44,0.15
2021-08-19 15:51:41.232,-0.405,0.15
2021-08-19 15:51:41.236,-0.355,0.19
2021-08-19 15:51:41.240,-0.325,0.21
2021-08-19 15:51:41.244,-0.285,0.18
2021-08-19 15:51:41.248,-0.26,0.175
2021-08-19 15:51:41.252,-0.2,0.19
2021-08-19 15:51:41.256,-0.155,0.19
2021-08-19 15:51:41.260,-0.13,0.175
2021-08-19 15:51:41.264,-0.1,0.175
2021-08-19 15:51:41.268,-0.08,0.155
2021-08-19 15:51:41.272,0.015,0.12
2021-08-19 15:51:41.276,0.1,0.125
2021-08-19 15:51:41.280,0.055,0.155
2021-08-19 15:51:41.284,-0.08,0.225
2021-08-19 15:51:41.288,-0.26,0.285
2021-08-19 15:51:41.292,-0.66,0.165
2021-08-19 15:51:41.296,-1.15,-0.175
2021-08-19 15:51:41.300,-1.585,-0.67
2021-08-19 15:51:41.304,-1.995,-1.325
2021-08-19 15:51:41.388,-0.58,-1.685
2021-08-19 15:51:41.392,-0.42,-1.305
2021-08-19 15:51:41.396,-0.29,-0.995
2021-08-19 15:51:41.400,-0.17,-0.695
2021-08-19 15:51:41.404,-0.1,-0.435
2021-08-19 15:51:41.408,-0.06,-0.24
2021-08-19 15:51:41.412,-0.01,-0.055
2021-08-19 15:51:41.416,0.055,0.125
2021-08-19 15:51:41.420,0.095,0.3
2021-08-19 15:51:41.424,0.12,0.44
2021-08-19 15:51:41.428,0.145,0.585
2021-08-19 15:51:41.432,0.175,0.72
2021-08-19 15:51:41.436,0.2,0.775
2021-08-19 15:51:41.440,0.185,0.805
2021-08-19 15:51:41.444,0.22,0.795
2021-08-19 15:51:41.448,0.24,0.825
2021-08-19 15:51:41.452,0.275,0.86
2021-08-19 15:51:41.456,0.33,0.885
2021-08-19 15:51:41.460,0.305,0.89
2021-08-19 15:51:41.464,0.28,0.905
2021-08-19 15:51:41.468,0.285,0.935
2021-08-19 15:51:41.472,0.275,0.96
2021-08-19 15:51:41.476,0.24,1.0
2021-08-19 15:51:41.480,0.24,0.995
2021-08-19 15:51:41.484,0.27,0.965
2021-08-19 15:51:41.488,0.29,1.0
2021-08-19 15:51:41.492,0.27,1.005
2021-08-19 15:51:41.496,0.28,1.005
2021-08-19 15:51:41.500,0.285,1.0
2021-08-19 15:51:41.504,0.29,1.01
2021-08-19 15:51:41.508,0.315,1.03
2021-08-19 15:51:41.512,0.35,1.035
2021-08-19 15:51:41.516,0.345,1.0
2021-08-19 15:51:41.520,0.385,1.0
2021-08-19 15:51:41.524,0.395,0.995
2021-08-19 15:51:41.528,0.395,1.02
2021-08-19 15:51:41.532,0.395,0.99
2021-08-19 15:51:41.536,0.43,0.975
2021-08-19 15:51:41.540,0.45,1.0
2021-08-19 15:51:41.544,0.48,1.045
2021-08-19 15:51:41.548,0.46,1.08
2021-08-19 15:51:41.552,0.475,1.12
2021-08-19 15:51:41.556,0.495,1.15
2021-08-19 15:51:41.560,0.51,1.145
2021-08-19 15:51:41.564,0.545,1.17
2021-08-19 15:51:41.568,0.54,1.195
2021-08-19 15:51:41.572,0.53,1.22
2021-08-19 15:51:41.576,0.56,1.27
2021-08-19 15:51:41.580,0.555,1.33
2021-08-19 15:51:41.584,0.58,1.345
2021-08-19 15:51:41.588,0.57,1.355
2021-08-19 15:51:41.592,0.55,1.375
2021-08-19 15:51:41.596,0.505,1.395
2021-08-19 15:51:41.600,0.5,1.42
2021-08-19 15:51:41.604,0.485,1.405
2021-08-19 15:51:41.608,0.465,1.405
2021-08-19 15:51:41.612,0.46,1.4
2021-08-19 15:51:41.616,0.46,1.395
2021-08-19 15:51:41.620,0.435,1.395
2021-08-19 15:51:41.624,0.415,1.355
2021-08-19 15:51:41.628,0.37,1.32
2021-08-19 15:51:41.632,0.35,1.3
2021-08-19 15:51:41.636,0.325,1.275
2021-08-19 15:51:41.640,0.33,1.215
2021-08-19 15:51:41.644,0.285,1.205
2021-08-19 15:51:41.648,0.26,1.13
2021-08-19 15:51:41.652,0.29,1.035
2021-08-19 15:51:41.656,0.245,0.955
2021-08-19 15:51:41.660,0.185,0.95
2021-08-19 15:51:41.664,0.13,0.89
2021-08-19 15:51:41.668,0.115,0.8
2021-08-19 15:51:41.672,0.135,0.78
2021-08-19 15:51:41.676,0.145,0.715
2021-08-19 15:51:41.680,0.14,0.695
2021-08-19 15:51:41.684,0.075,0.7
2021-08-19 15:51:41.688,0.055,0.615
2021-08-19 15:51:41.692,0.015,0.545
2021-08-19 15:51:41.696,-0.02,0.47
2021-08-19 15:51:41.700,-0.03,0.405
2021-08-19 15:51:41.704,-0.055,0.365
2021-08-19 15:51:41.708,-0.06,0.42
2021-08-19 15:51:41.712,-0.065,0.4
2021-08-19 15:51:41.716,-0.065,0.39
2021-08-19 15:51:41.720,-0.025,0.365
2021-08-19 15:51:41.724,-0.04,0.365
2021-08-19 15:51:41.728,-0.055,0.36
2021-08-19 15:51:41.732,-0.1,0.345
2021-08-19 15:51:41.736,-0.11,0.305
2021-08-19 15:51:41.740,-0.105,0.295
2021-08-19 15:51:41.744,-0.085,0.295
2021-08-19 15:51:41.748,-0.09,0.29
2021-08-19 15:51:41.752,-0.09,0.245
2021-08-19 15:51:41.756,-0.115,0.235
2021-08-19 15:51:41.760,-0.105,0.215
2021-08-19 15:51:41.764,-0.12,0.2
2021-08-19 15:51:41.768,-0.105,0.195
2021-08-19 15:51:41.772,-0.135,0.205
2021-08-19 15:51:41.776,-0.135,0.235
2021-08-19 15:51:41.780,-0.125,0.225
2021-08-19 15:51:41.784,-0.14,0.205
2021-08-19 15:51:41.788,-0.155,0.22
2021-08-19 15:51:41.792,-0.16,0.21
2021-08-19 15:51:41.796,-0.155,0.235
2021-08-19 15:51:41.800,-0.135,0.28
2021-08-19 15:51:41.804,-0.11,0.26
2021-08-19 15:51:41.808,-0.1,0.23
2021-08-19 15:51:41.812,-0.13,0.23
2021-08-19 15:51:41.816,-0.125,0.195
2021-08-19 15:51:41.820,-0.14,0.205
2021-08-19 15:51:41.824,-0.145,0.23
2021-08-19 15:51:41.828,-0.125,0.215
2021-08-19 15:51:41.832,-0.095,0.24
2021-08-19 15:51:41.836,-0.085,0.21
2021-08-19 15:51:41.840,-0.065,0.185
2021-08-19 15:51:41.844,-0.05,0.19
2021-08-19 15:51:41.848,-0.025,0.21
2021-08-19 15:51:41.852,-0.06,0.29
2021-08-19 15:51:41.856,-0.055,0.27
2021-08-19 15:51:41.860,-0.04,0.235
2021-08-19 15:51:41.864,-0.04,0.23
2021-08-19 15:51:41.868,-0.035,0.245
2021-08-19 15:51:41.872,-0.04,0.26
2021-08-19 15:51:41.876,-0.05,0.215
2021-08-19 15:51:41.880,-0.035,0.215
2021-08-19 15:51:41.884,-0.035,0.2
2021-08-19 15:51:41.888,-0.03,0.18
2021-08-19 15:51:41.892,-0.015,0.215
2021-08-19 15:51:41.896,-0.035,0.215
2021-08-19 15:51:41.900,-0.06,0.16
2021-08-19 15:51:41.904,-0.03,0.22
2021-08-19 15:51:41.908,-0.03,0.24
2021-08-19 15:51:41.912,0.02,0.225
2021-08-19 15:51:41.916,0.11,0.205
2021-08-19 15:51:41.920,0.225,0.17
2021-08-19 15:51:41.924,0.275,0.17
2021-08-19 15:51:41.928,0.19,0.22
2021-08-19 15:51:41.932,-0.01,0.3
2021-08-19 15:51:41.936,-0.34,0.31
2021-08-19 15:51:41.940,-0.81,0.175
2021-08-19 15:51:41.944,-1.34,-0.24
2021-08-19 15:51:41.948,-1.82,-0.835
2021-08-19 15:51:42.036,-0.545,-1.865
2021-08-19 15:51:42.040,-0.345,-1.41
2021-08-19 15:51:42.044,-0.145,-1.06
2021-08-19 15:51:42.048,0.015,-0.775
2021-08-19 15:51:42.052,0.095,-0.515
2021-08-19 15:51:42.056,0.155,-0.28
2021-08-19 15:51:42.060,0.205,-0.015
2021-08-19 15:51:42.064,0.26,0.2
2021-08-19 15:51:42.068,0.26,0.385
2021-08-19 15:51:42.072,0.275,0.52
2021-08-19 15:51:42.076,0.295,0.67
2021-08-19 15:51:42.080,0.285,0.76
2021-08-19 15:51:42.084,0.3,0.815
2021-08-19 15:51:42.088,0.325,0.845
2021-08-19 15:51:42.092,0.33,0.855
2021-08-19 15:51:42.096,0.35,0.84
2021-08-19 15:51:42.100,0.35,0.875
2021-08-19 15:51:42.104,0.37,0.895
2021-08-19 15:51:42.108,0.39,0.9
2021-08-19 15:51:42.112,0.41,0.92
2021-08-19 15:51:42.116,0.415,0.905
2021-08-19 15:51:42.120,0.42,0.915
2021-08-19 15:51:42.124,0.425,0.955
2021-08-19 15:51:42.128,0.425,0.98
2021-08-19 15:51:42.132,0.415,0.985
2021-08-19 15:51:42.136,0.415,1.01
2021-08-19 15:51:42.140,0.41,1.005
2021-08-19 15:51:42.144,0.42,0.995
2021-08-19 15:51:42.148,0.42,1.04
2021-08-19 15:51:42.152,0.415,1.015
2021-08-19 15:51:42.156,0.44,1.0
2021-08-19 15:51:42.160,0.44,1.065
2021-08-19 15:51:42.164,0.44,1.1
2021-08-19 15:51:42.168,0.445,1.14
2021-08-19 15:51:42.172,0.455,1.16
2021-08-19 15:51:42.176,0.425,1.17
2021-08-19 15:51:42.180,0.42,1.21
2021-08-19 15:51:42.184,0.425,1.225
2021-08-19 15:51:42.188,0.435,1.255
2021-08-19 15:51:42.192,0.455,1.245
2021-08-19 15:51:42.196,0.46,1.235
2021-08-19 15:51:42.200,0.46,1.28
2021-08-19 15:51:42.204,0.45,1.28
2021-08-19 15:51:42.208,0.465,1.3
2021-08-19 15:51:42.212,0.48,1.325
2021-08-19 15:51:42.216,0.49,1.36
2021-08-19 15:51:42.220,0.5,1.355
2021-08-19 15:51:42.224,0.5,1.355
2021-08-19 15:51:42.228,0.485,1.355
2021-08-19 15:51:42.232,0.49,1.385
2021-08-19 15:51:42.236,0.46,1.395
2021-08-19 15:51:42.240,0.44,1.42
2021-08-19 15:51:42.244,0.44,1.415
2021-08-19 15:51:42.248,0.45,1.43
2021-08-19 15:51:42.252,0.435,1.415
2021-08-19 15:51:42.256,0.44,1.41
2021-08-19 15:51:42.260,0.36,1.39
2021-08-19 15:51:42.264,0.355,1.355
2021-08-19 15:51:42.268,0.305,1.325
2021-08-19 15:51:42.272,0.275,1.295
2021-08-19 15:51:42.276,0.2,1.25
2021-08-19 15:51:42.280,0.175,1.185
2021-08-19 15:51:42.284,0.165,1.1
2021-08-19 15:51:42.288,0.155,1.025
2021-08-19 15:51:42.292,0.115,0.985
2021-08-19 15:51:42.296,0.115,0.915
2021-08-19 15:51:42.300,0.09,0.84
2021-08-19 15:51:42.304,0.075,0.785
2021-08-19 15:51:42.308,0.055,0.745
2021-08-19 15:51:42.312,0.05,0.67
2021-08-19 15:51:42.316,0.045,0.63
2021-08-19 15:51:42.320,0.035,0.58
2021-08-19 15:51:42.324,0.015,0.545
2021-08-19 15:51:42.328,0.005,0.47
2021-08-19 15:51:42.332,0.005,0.465
2021-08-19 15:51:42.336,0.025,0.445
2021-08-19 15:51:42.340,-0.005,0.425
2021-08-19 15:51:42.344,-0.03,0.415
2021-08-19 15:51:42.348,-0.07,0.385
2021-08-19 15:51:42.352,-0.08,0.36
2021-08-19 15:51:42.356,-0.1,0.35
2021-08-19 15:51:42.360,-0.105,0.35
2021-08-19 15:51:42.364,-0.1,0.32
2021-08-19 15:51:42.368,-0.1,0.3
2021-08-19 15:51:42.372,-0.125,0.31
2021-08-19 15:51:42.376,-0.12,0.27
2021-08-19 15:51:42.380,-0.12,0.275
2021-08-19 15:51:42.384,-0.14,0.26
2021-08-19 15:51:42.388,-0.16,0.3
2021-08-19 15:51:42.392,-0.165,0.305
2021-08-19 15:51:42.396,-0.155,0.31
2021-08-19 15:51:42.400,-0.135,0.28
2021-08-19 15:51:42.404,-0.165,0.295
2021-08-19 15:51:42.408,-0.14,0.27
2021-08-19 15:51:42.412,-0.15,0.24
2021-08-19 15:51:42.416,-0.15,0.22
2021-08-19 15:51:42.420,-0.13,0.23
2021-08-19 15:51:42.424,-0.13,0.215
2021-08-19 15:51:42.428,-0.16,0.18
2021-08-19 15:51:42.432,-0.17,0.165
2021-08-19 15:51:42.436,-0.14,0.125
2021-08-19 15:51:42.440,-0.03,0.075
2021-08-19 15:51:42.444,0.145,0.075
2021-08-19 15:51:42.448,0.355,0.065
2021-08-19 15:51:42.452,0.385,0.125
2021-08-19 15:51:42.456,0.235,0.19
2021-08-19 15:51:42.460,0.0,0.285
2021-08-19 15:51:42.464,-0.455,0.245
2021-08-19 15:51:42.468,-0.965,-0.07
2021-08-19 15:51:42.472,-1.425,-0.615
2021-08-19 15:51:42.476,-1.69,-1.275
2021-08-19 15:51:42.560,-0.51,-1.665
2021-08-19 15:51:42.564,-0.355,-1.28
2021-08-19 15:51:42.568,-0.215,-0.955
2021-08-19 15:51:42.572,-0.095,-0.63
2021-08-19 15:51:42.576,-0.05,-0.345
2021-08-19 15:51:42.580,-0.03,-0.135
2021-08-19 15:51:42.584,-0.005,0.095
2021-08-19 15:51:42.588,0.015,0.285
2021-08-19 15:51:42.592,0.015,0.46
2021-08-19 15:51:42.596,0.03,0.595
2021-08-19 15:51:42.600,0.045,0.71
2021-08-19 15:51:42.604,0.08,0.79
2021-08-19 15:51:42.608,0.07,0.83
2021-08-19 15:51:42.612,0.075,0.88
2021-08-19 15:51:42.616,0.095,0.875
2021-08-19 15:51:42.620,0.085,0.91
2021-08-19 15:51:42.624,0.125,0.945
2021-08-19 15:51:42.628,0.15,0.94
2021-08-19 15:51:42.632,0.165,0.94
2021-08-19 15:51:42.636,0.19,0.95
2021-08-19 15:51:42.640,0.2,0.93
2021-08-19 15:51:42.644,0.225,0.93
2021-08-19 15:51:42.648,0.24,0.905
2021-08-19 15:51:42.652,0.28,0.93
2021-08-19 15:51:42.656,0.285,0.965
2021-08-19 15:51:42.660,0.305,0.955
2021-08-19 15:51:42.664,0.315,0.96
2021-08-19 15:51:42.668,0.32,0.965
2021-08-19 15:51:42.672,0.34,0.99
2021-08-19 15:51:42.676,0.365,1.03
2021-08-19 15:51:42.680,0.35,1.005
2021-08-19 15:51:42.684,0.365,1.02
2021-08-19 15:51:42.688,0.355,1.075
2021-08-19 15:51:42.692,0.37,1.1
2021-08-19 15:51:42.696,0.365,1.11
2021-08-19 15:51:42.700,0.39,1.12
2021-08-19 15:51:42.704,0.395,1.165
2021-08-19 15:51:42.708,0.41,1.17
2021-08-19 15:51:42.712,0.425,1.185
2021-08-19 15:51:42.716,0.425,1.205
2021-08-19 15:51:42.720,0.415,1.245
2021-08-19 15:51:42.724,0.425,1.24
2021-08-19 15:51:42.728,0.415,1.245
2021-08-19 15:51:42.732,0.415,1.275
2021-08-19 15:51:42.736,0.425,1.34
2021-08-19 15:51:42.740,0.44,1.355
2021-08-19 15:51:42.744,0.415,1.365
2021-08-19 15:51:42.748,0.415,1.39
2021-08-19 15:51:42.752,0.4,1.395
2021-08-19 15:51:42.756,0.37,1.4
2021-08-19 15:51:42.760,0.33,1.395
2021-08-19 15:51:42.764,0.305,1.42
2021-08-19 15:51:42.768,0.28,1.42
2021-08-19 15:51:42.772,0.255,1.39
2021-08-19 15:51:42.776,0.245,1.365
2021-08-19 15:51:42.780,0.23,1.34
2021-08-19 15:51:42.784,0.195,1.275
2021-08-19 15:51:42.788,0.155,1.22
2021-08-19 15:51:42.792,0.11,1.2
2021-08-19 15:51:42.796,0.06,1.135
2021-08-19 15:51:42.800,0.005,1.14
2021-08-19 15:51:42.804,-0.015,1.04
2021-08-19 15:51:42.808,-0.055,0.95
2021-08-19 15:51:42.812,-0.095,0.89
2021-08-19 15:51:42.816,-0.105,0.84
2021-08-19 15:51:42.820,-0.135,0.795
2021-08-19 15:51:42.824,-0.14,0.745
2021-08-19 15:51:42.828,-0.14,0.72
2021-08-19 15:51:42.832,-0.175,0.675
2021-08-19 15:51:42.836,-0.205,0.595
2021-08-19 15:51:42.840,-0.205,0.565
2021-08-19 15:51:42.844,-0.215,0.5
2021-08-19 15:51:42.848,-0.18,0.435
2021-08-19 15:51:42.852,-0.18,0.38
2021-08-19 15:51:42.856,-0.19,0.35
2021-08-19 15:51:42.860,-0.155,0.325
2021-08-19 15:51:42.864,-0.155,0.31
2021-08-19 15:51:42.868,-0.13,0.245
2021-08-19 15:51:42.872,-0.145,0.25
2021-08-19 15:51:42.876,-0.165,0.26
2021-08-19 15:51:42.880,-0.18,0.28
2021-08-19 15:51:42.884,-0.19,0.29
2021-08-19 15:51:42.888,-0.2,0.24
2021-08-19 15:51:42.892,-0.195,0.19
2021-08-19 15:51:42.896,-0.17,0.205
2021-08-19 15:51:42.900,-0.19,0.19
2021-08-19 15:51:42.904,-0.205,0.215
2021-08-19 15:51:42.908,-0.2,0.185
2021-08-19 15:51:42.912,-0.185,0.16
2021-08-19 15:51:42.916,-0.175,0.18
2021-08-19 15:51:42.920,-0.19,0.22
2021-08-19 15:51:42.924,-0.225,0.21
2021-08-19 15:51:42.928,-0.23,0.195
2021-08-19 15:51:42.932,-0.215,0.15
2021-08-19 15:51:42.936,-0.235,0.12
2021-08-19 15:51:42.940,-0.245,0.12
2021-08-19 15:51:42.944,-0.27,0.135
2021-08-19 15:51:42.948,-0.275,0.155
2021-08-19 15:51:42.952,-0.245,0.155
2021-08-19 15:51:42.956,-0.24,0.125
2021-08-19 15:51:42.960,-0.265,0.11
2021-08-19 15:51:42.964,-0.25,0.095
2021-08-19 15:51:42.968,-0.25,0.055
2021-08-19 15:51:42.972,-0.24,0.045
2021-08-19 15:51:42.976,-0.27,0.05
2021-08-19 15:51:42.980,-0.3,0.025
2021-08-19 15:51:42.984,-0.295,0.05
2021-08-19 15:51:42.988,-0.29,0.075
2021-08-19 15:51:42.992,-0.275,0.135
2021-08-19 15:51:42.996,-0.265,0.085
2021-08-19 15:51:43.000,-0.24,0.09
2021-08-19 15:51:43.004,-0.255,0.125
2021-08-19 15:51:43.008,-0.26,0.17
2021-08-19 15:51:43.012,-0.29,0.175
2021-08-19 15:51:43.016,-0.27,0.185
2021-08-19 15:51:43.020,-0.275,0.17
2021-08-19 15:51:43.024,-0.3,0.12
2021-08-19 15:51:43.028,-0.27,0.115
2021-08-19 15:51:43.032,-0.27,0.115
2021-08-19 15:51:43.036,-0.235,0.035
2021-08-19 15:51:43.040,-0.22,0.03
2021-08-19 15:51:43.044,-0.19,0.08
2021-08-19 15:51:43.048,-0.19,0.13
2021-08-19 15:51:43.052,-0.16,0.165
2021-08-19 15:51:43.056,-0.165,0.1
2021-08-19 15:51:43.060,-0.135,0.055
2021-08-19 15:51:43.064,-0.13,0.1
2021-08-19 15:51:43.068,-0.14,0.135
2021-08-19 15:51:43.072,-0.13,0.16
2021-08-19 15:51:43.076,-0.14,0.155
2021-08-19 15:51:43.080,-0.13,0.09
2021-08-19 15:51:43.084,-0.12,0.08
2021-08-19 15:51:43.088,-0.135,0.125
2021-08-19 15:51:43.092,-0.145,0.14
2021-08-19 15:51:43.096,-0.155,0.07
2021-08-19 15:51:43.100,-0.16,0.085
2021-08-19 15:51:43.104,-0.15,0.205
2021-08-19 15:51:43.108,-0.145,0.125
2021-08-19 15:51:43.112,-0.13,0.1
2021-08-19 15:51:43.116,-0.14,0.13
2021-08-19 15:51:43.120,-0.19,0.125
2021-08-19 15:51:43.124,-0.2,0.13
2021-08-19 15:51:43.128,-0.185,0.085
2021-08-19 15:51:43.132,-0.18,0.125
2021-08-19 15:51:43.136,-0.2,0.15
2021-08-19 15:51:43.140,-0.22,0.055
2021-08-19 15:51:43.144,-0.255,0.085
2021-08-19 15:51:43.148,-0.255,0.15
2021-08-19 15:51:43.152,-0.26,0.08
2021-08-19 15:51:43.156,-0.24,0.025
2021-08-19 15:51:43.160,-0.255,0.06
2021-08-19 15:51:43.164,-0.22,0.095
2021-08-19 15:51:43.168,-0.215,0.12
2021-08-19 15:51:43.172,-0.19,0.1
2021-08-19 15:51:43.176,-0.21,0.085
2021-08-19 15:51:43.180,-0.18,0.085
2021-08-19 15:51:43.184,-0.14,0.13
2021-08-19 15:51:43.188,-0.08,0.16
2021-08-19 15:51:43.192,0.045,0.175
2021-08-19 15:51:43.196,0.155,0.16
2021-08-19 15:51:43.200,0.1,0.2
2021-08-19 15:51:43.204,-0.05,0.275
2021-08-19 15:51:43.208,-0.27,0.355
2021-08-19 15:51:43.212,-0.675,0.235
2021-08-19 15:51:43.216,-1.225,-0.22
2021-08-19 15:51:43.220,-1.7,-0.87
2021-08-19 15:51:43.304,-0.66,-2.0
2021-08-19 15:51:43.308,-0.415,-1.585
2021-08-19 15:51:43.312,-0.255,-1.17
2021-08-19 15:51:43.316,-0.09,-0.81
2021-08-19 15:51:43.320,-0.02,-0.52
2021-08-19 15:51:43.324,0.04,-0.265
2021-08-19 15:51:43.328,0.07,-0.035
2021-08-19 15:51:43.332,0.095,0.215
2021-08-19 15:51:43.336,0.095,0.43
2021-08-19 15:51:43.340,0.105,0.55
2021-08-19 15:51:43.344,0.105,0.7
2021-08-19 15:51:43.348,0.125,0.74
2021-08-19 15:51:43.352,0.14,0.78
2021-08-19 15:51:43.356,0.16,0.83
2021-08-19 15:51:43.360,0.17,0.865
2021-08-19 15:51:43.364,0.18,0.845
2021-08-19 15:51:43.368,0.18,0.845
2021-08-19 15:51:43.372,0.215,0.98
2021-08-19 15:51:43.376,0.235,0.99
2021-08-19 15:51:43.380,0.235,0.985
2021-08-19 15:51:43.384,0.26,0.945
2021-08-19 15:51:43.388,0.29,1.02
2021-08-19 15:51:43.392,0.315,1.06
2021-08-19 15:51:43.396,0.34,1.085
2021-08-19 15:51:43.400,0.335,1.05
2021-08-19 15:51:43.404,0.32,1.065
2021-08-19 15:51:43.408,0.335,1.115
2021-08-19 15:51:43.412,0.34,1.17
2021-08-19 15:51:43.416,0.335,1.21
2021-08-19 15:51:43.420,0.32,1.215
2021-08-19 15:51:43.424,0.315,1.235
2021-08-19 15:51:43.428,0.335,1.235
2021-08-19 15:51:43.432,0.385,1.21
2021-08-19 15:51:43.436,0.42,1.215
2021-08-19 15:51:43.440,0.445,1.23
2021-08-19 15:51:43.444,0.465,1.295
2021-08-19 15:51:43.448,0.475,1.385
2021-08-19 15:51:43.452,0.49,1.45
2021-08-19 15:51:43.456,0.52,1.405
2021-08-19 15:51:43.460,0.55,1.395
2021-08-19 15:51:43.464,0.58,1.395
2021-08-19 15:51:43.468,0.6,1.45
2021-08-19 15:51:43.472,0.61,1.45
2021-08-19 15:51:43.476,0.625,1.5
2021-08-19 15:51:43.480,0.65,1.535
2021-08-19 15:51:43.484,0.65,1.545
2021-08-19 15:51:43.488,0.67,1.55
2021-08-19 15:51:43.492,0.64,1.56
2021-08-19 15:51:43.496,0.66,1.59
2021-08-19 15:51:43.500,0.66,1.58
2021-08-19 15:51:43.504,0.68,1.61
2021-08-19 15:51:43.508,0.66,1.635
2021-08-19 15:51:43.512,0.645,1.635
2021-08-19 15:51:43.516,0.655,1.65
2021-08-19 15:51:43.520,0.645,1.645
2021-08-19 15:51:43.524,0.625,1.595
2021-08-19 15:51:43.528,0.6,1.575
2021-08-19 15:51:43.532,0.545,1.545
2021-08-19 15:51:43.536,0.49,1.575
2021-08-19 15:51:43.540,0.48,1.54
2021-08-19 15:51:43.544,0.435,1.455
2021-08-19 15:51:43.548,0.385,1.43
2021-08-19 15:51:43.552,0.325,1.35
2021-08-19 15:51:43.556,0.295,1.28
2021-08-19 15:51:43.560,0.25,1.24
2021-08-19 15:51:43.564,0.2,1.15
2021-08-19 15:51:43.568,0.185,1.045
2021-08-19 15:51:43.572,0.155,1.09
2021-08-19 15:51:43.576,0.12,1.035
2021-08-19 15:51:43.580,0.075,0.955
2021-08-19 15:51:43.584,0.065,0.845
2021-08-19 15:51:43.588,0.03,0.79
2021-08-19 15:51:43.592,-0.005,0.715
2021-08-19 15:51:43.596,-0.025,0.635
2021-08-19 15:51:43.600,-0.01,0.545
2021-08-19 15:51:43.604,0.0,0.6
2021-08-19 15:51:43.608,-0.055,0.635
2021-08-19 15:51:43.612,-0.065,0.55
2021-08-19 15:51:43.616,-0.035,0.505
2021-08-19 15:51:43.620,-0.035,0.51
2021-08-19 15:51:43.624,-0.03,0.485
2021-08-19 15:51:43.628,-0.055,0.465
2021-08-19 15:51:43.632,-0.07,0.485
2021-08-19 15:51:43.636,-0.065,0.47
2021-08-19 15:51:43.640,-0.08,0.465
2021-08-19 15:51:43.644,-0.1,0.46
2021-08-19 15:51:43.648,-0.12,0.49
2021-08-19 15:51:43.652,-0.125,0.53
2021-08-19 15:51:43.656,-0.07,0.49
2021-08-19 15:51:43.660,-0.065,0.5
2021-08-19 15:51:43.664,-0.08,0.44
2021-08-19 15:51:43.668,-0.09,0.43
2021-08-19 15:51:43.672,-0.11,0.395
2021-08-19 15:51:43.676,-0.05,0.3
2021-08-19 15:51:43.680,0.07,0.26
2021-08-19 15:51:43.684,0.29,0.355
2021-08-19 15:51:43.688,0.44,0.395
2021-08-19 15:51:43.692,0.365,0.38
2021-08-19 15:51:43.696,0.135,0.39
2021-08-19 15:51:43.700,-0.315,0.5
2021-08-19 15:51:43.704,-0.94,0.39
2021-08-19 15:51:43.708,-1.595,0.005
2021-08-19 15:51:43.796,-0.465,-1.555
2021-08-19 15:51:43.800,-0.26,-1.15
2021-08-19 15:51:43.804,-0.075,-0.84
2021-08-19 15:51:43.808,0.055,-0.55
2021-08-19 15:51:43.812,0.14,-0.225
2021-08-19 15:51:43.816,0.175,0.01
2021-08-19 15:51:43.820,0.205,0.24
2021-08-19 15:51:43.824,0.235,0.485
2021-08-19 15:51:43.828,0.26,0.675
2021-08-19 15:51:43.832,0.235,0.805
2021-08-19 15:51:43.836,0.265,0.865
2021-08-19 15:51:43.840,0.255,0.91
2021-08-19 15:51:43.844,0.25,0.96
2021-08-19 15:51:43.848,0.26,0.925
2021-08-19 15:51:43.852,0.27,0.94
2021-08-19 15:51:43.856,0.295,0.97
2021-08-19 15:51:43.860,0.31,0.995
2021-08-19 15:51:43.864,0.34,0.99
2021-08-19 15:51:43.868,0.38,1.015
2021-08-19 15:51:43.872,0.36,1.015
2021-08-19 15:51:43.876,0.375,1.03
2021-08-19 15:51:43.880,0.395,1.05
2021-08-19 15:51:43.884,0.39,1.075
2021-08-19 15:51:43.888,0.39,1.045
2021-08-19 15:51:43.892,0.365,1.03
2021-08-19 15:51:43.896,0.34,1.05
2021-08-19 15:51:43.900,0.31,1.04
2021-08-19 15:51:43.904,0.29,1.0
2021-08-19 15:51:43.908,0.265,0.975
2021-08-19 15:51:43.912,0.25,1.02
2021-08-19 15:51:43.916,0.24,0.98
2021-08-19 15:51:43.920,0.2,0.955
2021-08-19 15:51:43.924,0.215,0.975
2021-08-19 15:51:43.928,0.235,1.005
2021-08-19 15:51:43.932,0.235,1.005
2021-08-19 15:51:43.936,0.205,1.04
2021-08-19 15:51:43.940,0.205,1.03
2021-08-19 15:51:43.944,0.185,1.075
2021-08-19 15:51:43.948,0.205,1.085
2021-08-19 15:51:43.952,0.185,1.105
2021-08-19 15:51:43.956,0.23,1.14
2021-08-19 15:51:43.960,0.21,1.155
2021-08-19 15:51:43.964,0.21,1.2
2021-08-19 15:51:43.968,0.205,1.215
2021-08-19 15:51:43.972,0.23,1.23
2021-08-19 15:51:43.976,0.215,1.265
2021-08-19 15:51:43.980,0.21,1.315
2021-08-19 15:51:43.984,0.185,1.34
2021-08-19 15:51:43.988,0.16,1.335
2021-08-19 15:51:43.992,0.155,1.34
2021-08-19 15:51:43.996,0.165,1.32
2021-08-19 15:51:44.000,0.175,1.29
2021-08-19 15:51:44.004,0.19,1.32
2021-08-19 15:51:44.008,0.175,1.315
2021-08-19 15:51:44.012,0.195,1.3
2021-08-19 15:51:44.016,0.165,1.29
2021-08-19 15:51:44.020,0.125,1.275
2021-08-19 15:51:44.024,0.115,1.22
2021-08-19 15:51:44.028,0.105,1.155
2021-08-19 15:51:44.032,0.095,1.18
2021-08-19 15:51:44.036,0.075,1.11
2021-08-19 15:51:44.040,0.075,1.02
2021-08-19 15:51:44.044,0.04,0.985
2021-08-19 15:51:44.048,0.035,0.92
2021-08-19 15:51:44.052,0.005,0.86
2021-08-19 15:51:44.056,-0.005,0.825
2021-08-19 15:51:44.060,-0.03,0.76
2021-08-19 15:51:44.064,-0.045,0.69
2021-08-19 15:51:44.068,-0.04,0.635
2021-08-19 15:51:44.072,-0.08,0.585
2021-08-19 15:51:44.076,-0.095,0.59
2021-08-19 15:51:44.080,-0.11,0.615
2021-08-19 15:51:44.084,-0.09,0.56
2021-08-19 15:51:44.088,-0.07,0.515
2021-08-19 15:51:44.092,-0.07,0.505
2021-08-19 15:51:44.096,-0.075,0.44
2021-08-19 15:51:44.100,-0.095,0.43
2021-08-19 15:51:44.104,-0.125,0.385
2021-08-19 15:51:44.108,-0.16,0.35
2021-08-19 15:51:44.112,-0.185,0.315
2021-08-19 15:51:44.116,-0.185,0.28
2021-08-19 15:51:44.120,-0.215,0.235
2021-08-19 15:51:44.124,-0.205,0.24
2021-08-19 15:51:44.128,-0.205,0.235
2021-08-19 15:51:44.132,-0.2,0.2
2021-08-19 15:51:44.136,-0.19,0.235
2021-08-19 15:51:44.140,-0.18,0.225
2021-08-19 15:51:44.144,-0.245,0.23
2021-08-19 15:51:44.148,-0.265,0.215
2021-08-19 15:51:44.152,-0.29,0.215
2021-08-19 15:51:44.156,-0.315,0.225
2021-08-19 15:51:44.160,-0.29,0.215
2021-08-19 15:51:44.164,-0.285,0.2
2021-08-19 15:51:44.168,-0.295,0.18
2021-08-19 15:51:44.172,-0.275,0.175
2021-08-19 15:51:44.176,-0.27,0.175
2021-08-19 15:51:44.180,-0.28,0.18
2021-08-19 15:51:44.184,-0.285,0.165
2021-08-19 15:51:44.188,-0.305,0.18
2021-08-19 15:51:44.192,-0.29,0.16
2021-08-19 15:51:44.196,-0.285,0.15
2021-08-19 15:51:44.200,-0.26,0.16
2021-08-19 15:51:44.204,-0.21,0.145
2021-08-19 15:51:44.208,-0.2,0.145
2021-08-19 15:51:44.212,-0.19,0.155
2021-08-19 15:51:44.216,-0.18,0.17
2021-08-19 15:51:44.220,-0.17,0.23
2021-08-19 15:51:44.224,-0.16,0.235
2021-08-19 15:51:44.228,-0.135,0.245
2021-08-19 15:51:44.232,-0.13,0.25
2021-08-19 15:51:44.236,-0.15,0.25
2021-08-19 15:51:44.240,-0.155,0.275
2021-08-19 15:51:44.244,-0.155,0.26
2021-08-19 15:51:44.248,-0.15,0.26
2021-08-19 15:51:44.252,-0.16,0.26
2021-08-19 15:51:44.256,-0.16,0.25
2021-08-19 15:51:44.260,-0.15,0.255
2021-08-19 15:51:44.264,-0.14,0.27
2021-08-19 15:51:44.268,-0.155,0.28
2021-08-19 15:51:44.272,-0.135,0.285
2021-08-19 15:51:44.276,-0.16,0.275
2021-08-19 15:51:44.280,-0.175,0.3
2021-08-19 15:51:44.284,-0.205,0.32
2021-08-19 15:51:44.288,-0.23,0.315
2021-08-19 15:51:44.292,-0.25,0.28
2021-08-19 15:51:44.296,-0.265,0.29
2021-08-19 15:51:44.300,-0.25,0.245
2021-08-19 15:51:44.304,-0.2,0.23
2021-08-19 15:51:44.308,-0.18,0.23
2021-08-19 15:51:44.312,-0.18,0.225
2021-08-19 15:51:44.316,-0.15,0.23
2021-08-19 15:51:44.320,-0.135,0.22
2021-08-19 15:51:44.324,-0.145,0.255
2021-08-19 15:51:44.328,-0.155,0.225
2021-08-19 15:51:44.332,-0.175,0.21
2021-08-19 15:51:44.336,-0.19,0.205
2021-08-19 15:51:44.340,-0.165,0.215
2021-08-19 15:51:44.344,-0.18,0.205
2021-08-19 15:51:44.348,-0.17,0.205
2021-08-19 15:51:44.352,-0.175,0.165
2021-08-19 15:51:44.356,-0.14,0.145
2021-08-19 15:51:44.360,-0.15,0.12
2021-08-19 15:51:44.364,-0.165,0.14
2021-08-19 15:51:44.368,-0.18,0.17
2021-08-19 15:51:44.372,-0.2,0.16
2021-08-19 15:51:44.376,-0.22,0.14
2021-08-19 15:51:44.380,-0.23,0.125
2021-08-19 15:51:44.384,-0.25,0.14
2021-08-19 15:51:44.388,-0.235,0.14
2021-08-19 15:51:44.392,-0.205,0.11
2021-08-19 15:51:44.396,-0.17,0.125
2021-08-19 15:51:44.400,-0.135,0.14
2021-08-19 15:51:44.404,-0.115,0.175
2021-08-19 15:51:44.408,-0.11,0.185
2021-08-19 15:51:44.412,-0.1,0.18
2021-08-19 15:51:44.416,-0.105,0.195
2021-08-19 15:51:44.420,-0.1,0.21
2021-08-19 15:51:44.424,-0.12,0.195
2021-08-19 15:51:44.428,-0.125,0.225
2021-08-19 15:51:44.432,-0.1,0.23
2021-08-19 15:51:44.436,-0.115,0.225
2021-08-19 15:51:44.440,-0.105,0.21
2021-08-19 15:51:44.444,-0.09,0.215
2021-08-19 15:51:44.448,-0.1,0.235
2021-08-19 15:51:44.452,-0.105,0.215
2021-08-19 15:51:44.456,-0.095,0.24
2021-08-19 15:51:44.460,-0.1,0.245
2021-08-19 15:51:44.464,-0.1,0.255
2021-08-19 15:51:44.468,-0.12,0.235
2021-08-19 15:51:44.472,-0.12,0.235
2021-08-19 15:51:44.476,-0.135,0.235
2021-08-19 15:51:44.480,-0.125,0.235
2021-08-19 15:51:44.484,-0.135,0.21
2021-08-19 15:51:44.488,-0.14,0.26
2021-08-19 15:51:44.492,-0.125,0.235
2021-08-19 15:51:44.496,-0.17,0.245
2021-08-19 15:51:44.500,-0.185,0.245
2021-08-19 15:51:44.504,-0.2,0.24
2021-08-19 15:51:44.508,-0.205,0.215
2021-08-19 15:51:44.512,-0.24,0.195
2021-08-19 15:51:44.516,-0.265,0.175
2021-08-19 15:51:44.520,-0.295,0.2
2021-08-19 15:51:44.524,-0.305,0.15
2021-08-19 15:51:44.528,-0.31,0.165
2021-08-19 15:51:44.532,-0.25,0.19
2021-08-19 15:51:44.536,-0.15,0.23
2021-08-19 15:51:44.540,-0.045,0.215
2021-08-19 15:51:44.544,0.075,0.235
2021-08-19 15:51:44.548,0.085,0.25
2021-08-19 15:51:44.552,-0.065,0.3
2021-08-19 15:51:44.556,-0.32,0.375
2021-08-19 15:51:44.560,-0.735,0.31
2021-08-19 15:51:44.564,-1.275,-0.04
2021-08-19 15:51:44.568,-1.785,-0.64
2021-08-19 15:51:44.656,-0.725,-1.805
2021-08-19 15:51:44.660,-0.5,-1.37
2021-08-19 15:51:44.664,-0.33,-1.015
2021-08-19 15:51:44.668,-0.16,-0.69
2021-08-19 15:51:44.672,-0.06,-0.41
2021-08-19 15:51:44.676,0.0,-0.165
2021-08-19 15:51:44.680,0.01,0.09
2021-08-19 15:51:44.684,0.05,0.295
2021-08-19 15:51:44.688,0.06,0.47
2021-08-19 15:51:44.692,0.07,0.625
2021-08-19 15:51:44.696,0.08,0.74
2021-08-19 15:51:44.700,0.1,0.825
2021-08-19 15:51:44.704,0.115,0.885
2021-08-19 15:51:44.708,0.13,0.895
2021-08-19 15:51:44.712,0.14,0.915
2021-08-19 15:51:44.716,0.155,0.91
2021-08-19 15:51:44.720,0.16,0.925
2021-08-19 15:51:44.724,0.165,0.95
2021-08-19 15:51:44.728,0.18,0.945
2021-08-19 15:51:44.732,0.175,0.98
2021-08-19 15:51:44.736,0.185,1.0
2021-08-19 15:51:44.740,0.21,1.025
2021-08-19 15:51:44.744,0.2,1.025
2021-08-19 15:51:44.748,0.155,1.065
2021-08-19 15:51:44.752,0.19,1.085
2021-08-19 15:51:44.756,0.215,1.11
2021-08-19 15:51:44.760,0.22,1.12
2021-08-19 15:51:44.764,0.265,1.14
2021-08-19 15:51:44.768,0.305,1.15
2021-08-19 15:51:44.772,0.325,1.17
2021-08-19 15:51:44.776,0.31,1.17
2021-08-19 15:51:44.780,0.31,1.155
2021-08-19 15:51:44.784,0.34,1.165
2021-08-19 15:51:44.788,0.345,1.18
2021-08-19 15:51:44.792,0.39,1.19
2021-08-19 15:51:44.796,0.445,1.2
2021-08-19 15:51:44.800,0.495,1.175
2021-08-19 15:51:44.804,0.535,1.195
2021-08-19 15:51:44.808,0.555,1.2
2021-08-19 15:51:44.812,0.555,1.235
2021-08-19 15:51:44.816,0.57,1.285
2021-08-19 15:51:44.820,0.58,1.335
2021-08-19 15:51:44.824,0.595,1.345
2021-08-19 15:51:44.828,0.59,1.37
2021-08-19 15:51:44.832,0.59,1.38
2021-08-19 15:51:44.836,0.615,1.405
2021-08-19 15:51:44.840,0.615,1.42
2021-08-19 15:51:44.844,0.615,1.435
2021-08-19 15:51:44.848,0.645,1.45
2021-08-19 15:51:44.852,0.64,1.48
2021-08-19 15:51:44.856,0.635,1.49
2021-08-19 15:51:44.860,0.645,1.525
2021-08-19 15:51:44.864,0.64,1.565
2021-08-19 15:51:44.868,0.625,1.59
2021-08-19 15:51:44.872,0.61,1.605
2021-08-19 15:51:44.876,0.6,1.625
2021-08-19 15:51:44.880,0.58,1.62
2021-08-19 15:51:44.884,0.555,1.615
2021-08-19 15:51:44.888,0.53,1.595
2021-08-19 15:51:44.892,0.52,1.6
2021-08-19 15:51:44.896,0.475,1.58
2021-08-19 15:51:44.900,0.435,1.56
2021-08-19 15:51:44.904,0.415,1.525
2021-08-19 15:51:44.908,0.345,1.465
2021-08-19 15:51:44.912,0.31,1.42
2021-08-19 15:51:44.916,0.25,1.355
2021-08-19 15:51:44.920,0.21,1.295
2021-08-19 15:51:44.924,0.19,1.235
2021-08-19 15:51:44.928,0.155,1.165
2021-08-19 15:51:44.932,0.12,1.09
2021-08-19 15:51:44.936,0.065,1.04
2021-08-19 15:51:44.940,0.025,0.965
2021-08-19 15:51:44.944,0.02,0.93
2021-08-19 15:51:44.948,-0.045,0.88
2021-08-19 15:51:44.952,-0.08,0.82
2021-08-19 15:51:44.956,-0.11,0.765
2021-08-19 15:51:44.960,-0.18,0.735
2021-08-19 15:51:44.964,-0.17,0.69
2021-08-19 15:51:44.968,-0.16,0.615
2021-08-19 15:51:44.972,-0.185,0.58
2021-08-19 15:51:44.976,-0.205,0.555
2021-08-19 15:51:44.980,-0.22,0.535
2021-08-19 15:51:44.984,-0.215,0.52
2021-08-19 15:51:44.988,-0.22,0.495
2021-08-19 15:51:44.992,-0.19,0.495
2021-08-19 15:51:44.996,-0.185,0.455
2021-08-19 15:51:45.000,-0.155,0.465
2021-08-19 15:51:45.004,-0.14,0.485
2021-08-19 15:51:45.008,-0.16,0.46
2021-08-19 15:51:45.012,-0.16,0.435
2021-08-19 15:51:45.016,-0.16,0.42
2021-08-19 15:51:45.020,-0.17,0.4
2021-08-19 15:51:45.024,-0.18,0.4
2021-08-19 15:51:45.028,-0.135,0.39
2021-08-19 15:51:45.032,-0.14,0.385
2021-08-19 15:51:45.036,-0.145,0.38
2021-08-19 15:51:45.040,-0.155,0.39
2021-08-19 15:51:45.044,-0.16,0.38
2021-08-19 15:51:45.048,-0.17,0.39
2021-08-19 15:51:45.052,-0.19,0.365
2021-08-19 15:51:45.056,-0.205,0.36
2021-08-19 15:51:45.060,-0.2,0.355
2021-08-19 15:51:45.064,-0.255,0.345
2021-08-19 15:51:45.068,-0.26,0.295
2021-08-19 15:51:45.072,-0.275,0.305
2021-08-19 15:51:45.076,-0.285,0.325
2021-08-19 15:51:45.080,-0.29,0.33
2021-08-19 15:51:45.084,-0.315,0.33
2021-08-19 15:51:45.088,-0.325,0.305
2021-08-19 15:51:45.092,-0.37,0.31
2021-08-19 15:51:45.096,-0.39,0.3
2021-08-19 15:51:45.100,-0.405,0.275
2021-08-19 15:51:45.104,-0.415,0.255
2021-08-19 15:51:45.108,-0.385,0.255
2021-08-19 15:51:45.112,-0.42,0.24
2021-08-19 15:51:45.116,-0.425,0.19
2021-08-19 15:51:45.120,-0.4,0.185
2021-08-19 15:51:45.124,-0.405,0.195
2021-08-19 15:51:45.128,-0.43,0.195
2021-08-19 15:51:45.132,-0.445,0.185
2021-08-19 15:51:45.136,-0.43,0.17
2021-08-19 15:51:45.140,-0.44,0.195
2021-08-19 15:51:45.144,-0.47,0.21
2021-08-19 15:51:45.148,-0.51,0.225
2021-08-19 15:51:45.152,-0.49,0.215
2021-08-19 15:51:45.156,-0.485,0.21
2021-08-19 15:51:45.160,-0.48,0.215
2021-08-19 15:51:45.164,-0.455,0.19
2021-08-19 15:51:45.168,-0.425,0.19
2021-08-19 15:51:45.172,-0.44,0.17
2021-08-19 15:51:45.176,-0.455,0.16
2021-08-19 15:51:45.180,-0.455,0.18
2021-08-19 15:51:45.184,-0.46,0.195
2021-08-19 15:51:45.188,-0.43,0.2
2021-08-19 15:51:45.192,-0.43,0.18
2021-08-19 15:51:45.196,-0.4,0.17
2021-08-19 15:51:45.200,-0.385,0.135
2021-08-19 15:51:45.204,-0.385,0.13
2021-08-19 15:51:45.208,-0.345,0.14
2021-08-19 15:51:45.212,-0.28,0.13
2021-08-19 15:51:45.216,-0.24,0.175
2021-08-19 15:51:45.220,-0.215,0.2
2021-08-19 15:51:45.224,-0.18,0.19
2021-08-19 15:51:45.228,-0.125,0.225
2021-08-19 15:51:45.232,-0.005,0.2
2021-08-19 15:51:45.236,0.11,0.18
2021-08-19 15:51:45.240,0.105,0.225
2021-08-19 15:51:45.244,-0.095,0.265
2021-08-19 15:51:45.248,-0.365,0.325
2021-08-19 15:51:45.252,-0.825,0.27
2021-08-19 15:51:45.256,-1.385,-0.055
2021-08-19 15:51:45.260,-1.9,-0.545
2021-08-19 15:51:45.348,-0.835,-1.97
2021-08-19 15:51:45.352,-0.595,-1.495
2021-08-19 15:51:45.356,-0.435,-1.125
2021-08-19 15:51:45.360,-0.295,-0.79
2021-08-19 15:51:45.364,-0.205,-0.5
2021-08-19 15:51:45.368,-0.17,-0.27
2021-08-19 15:51:45.372,-0.145,-0.055
2021-08-19 15:51:45.376,-0.1,0.13
2021-08-19 15:51:45.380,-0.11,0.295
2021-08-19 15:51:45.384,-0.095,0.45
2021-08-19 15:51:45.388,-0.08,0.58
2021-08-19 15:51:45.392,-0.035,0.675
2021-08-19 15:51:45.396,-0.005,0.725
2021-08-19 15:51:45.400,0.03,0.755
2021-08-19 15:51:45.404,0.06,0.765
2021-08-19 15:51:45.408,0.1,0.785
2021-08-19 15:51:45.412,0.105,0.83
2021-08-19 15:51:45.416,0.13,0.865
2021-08-19 15:51:45.420,0.125,0.89
2021-08-19 15:51:45.424,0.145,0.905
2021-08-19 15:51:45.428,0.16,0.91
2021-08-19 15:51:45.432,0.18,0.915
2021-08-19 15:51:45.436,0.19,0.93
2021-08-19 15:51:45.440,0.215,0.945
2021-08-19 15:51:45.444,0.22,0.96
2021-08-19 15:51:45.448,0.23,0.955
2021-08-19 15:51:45.452,0.245,1.005
2021-08-19 15:51:45.456,0.255,1.015
2021-08-19 15:51:45.460,0.275,0.995
2021-08-19 15:51:45.464,0.29,1.02
2021-08-19 15:51:45.468,0.305,1.04
2021-08-19 15:51:45.472,0.32,1.03
2021-08-19 15:51:45.476,0.305,1.02
2021-08-19 15:51:45.480,0.285,1.01
2021-08-19 15:51:45.484,0.305,1.005
2021-08-19 15:51:45.488,0.295,1.045
2021-08-19 15:51:45.492,0.295,1.04
2021-08-19 15:51:45.496,0.315,1.045
2021-08-19 15:51:45.500,0.305,1.09
2021-08-19 15:51:45.504,0.3,1.065
2021-08-19 15:51:45.508,0.315,1.07
2021-08-19 15:51:45.512,0.285,1.085
2021-08-19 15:51:45.516,0.275,1.055
2021-08-19 15:51:45.520,0.285,1.06
2021-08-19 15:51:45.524,0.275,1.08
2021-08-19 15:51:45.528,0.29,1.09
2021-08-19 15:51:45.532,0.305,1.095
2021-08-19 15:51:45.536,0.25,1.145
2021-08-19 15:51:45.540,0.26,1.15
2021-08-19 15:51:45.544,0.235,1.165
2021-08-19 15:51:45.548,0.215,1.205
2021-08-19 15:51:45.552,0.195,1.24
2021-08-19 15:51:45.556,0.195,1.245
2021-08-19 15:51:45.560,0.175,1.295
2021-08-19 15:51:45.564,0.15,1.27
2021-08-19 15:51:45.568,0.145,1.275
2021-08-19 15:51:45.572,0.12,1.275
2021-08-19 15:51:45.576,0.105,1.26
2021-08-19 15:51:45.580,0.085,1.235
2021-08-19 15:51:45.584,0.02,1.18
2021-08-19 15:51:45.588,-0.03,1.185
2021-08-19 15:51:45.592,-0.06,1.14
2021-08-19 15:51:45.596,-0.105,1.1
2021-08-19 15:51:45.600,-0.115,1.085
2021-08-19 15:51:45.604,-0.09,1.0
2021-08-19 15:51:45.608,-0.115,0.945
2021-08-19 15:51:45.612,-0.11,0.875
2021-08-19 15:51:45.616,-0.125,0.835
2021-08-19 15:51:45.620,-0.145,0.765
2021-08-19 15:51:45.624,-0.15,0.725
2021-08-19 15:51:45.628,-0.17,0.705
2021-08-19 15:51:45.632,-0.17,0.66
2021-08-19 15:51:45.636,-0.165,0.595
2021-08-19 15:51:45.640,-0.19,0.54
2021-08-19 15:51:45.644,-0.175,0.51
2021-08-19 15:51:45.648,-0.18,0.485
2021-08-19 15:51:45.652,-0.195,0.445
2021-08-19 15:51:45.656,-0.19,0.425
2021-08-19 15:51:45.660,-0.2,0.425
2021-08-19 15:51:45.664,-0.19,0.395
2021-08-19 15:51:45.668,-0.18,0.39
2021-08-19 15:51:45.672,-0.21,0.37
2021-08-19 15:51:45.676,-0.2,0.35
2021-08-19 15:51:45.680,-0.205,0.315
2021-08-19 15:51:45.684,-0.19,0.33
2021-08-19 15:51:45.688,-0.175,0.305
2021-08-19 15:51:45.692,-0.185,0.295
2021-08-19 15:51:45.696,-0.175,0.265
2021-08-19 15:51:45.700,-0.18,0.245
2021-08-19 15:51:45.704,-0.18,0.19
2021-08-19 15:51:45.708,-0.17,0.17
2021-08-19 15:51:45.712,-0.16,0.155
2021-08-19 15:51:45.716,-0.17,0.15
2021-08-19 15:51:45.720,-0.185,0.175
2021-08-19 15:51:45.724,-0.195,0.155
2021-08-19 15:51:45.728,-0.205,0.14
2021-08-19 15:51:45.732,-0.21,0.155
2021-08-19 15:51:45.736,-0.25,0.13
2021-08-19 15:51:45.740,-0.235,0.115
2021-08-19 15:51:45.744,-0.22,0.095
2021-08-19 15:51:45.748,-0.165,0.08
2021-08-19 15:51:45.752,-0.005,0.085
2021-08-19 15:51:45.756,0.165,0.07
2021-08-19 15:51:45.760,0.205,0.06
2021-08-19 15:51:45.764,0.085,0.11
2021-08-19 15:51:45.768,-0.15,0.21
2021-08-19 15:51:45.772,-0.53,0.235
2021-08-19 15:51:45.776,-1.1,0.06
2021-08-19 15:51:45.780,-1.65,-0.33
2021-08-19 15:51:45.868,-0.535,-1.81
2021-08-19 15:51:45.872,-0.37,-1.385
2021-08-19 15:51:45.876,-0.2,-1.0
2021-08-19 15:51:45.880,-0.08,-0.705
2021-08-19 15:51:45.884,0.015,-0.445
2021-08-19 15:51:45.888,0.03,-0.185
2021-08-19 15:51:45.892,0.045,-0.005
2021-08-19 15:51:45.896,0.07,0.22
2021-08-19 15:51:45.900,0.075,0.385
2021-08-19 15:51:45.904,0.095,0.54
2021-08-19 15:51:45.908,0.095,0.64
2021-08-19 15:51:45.912,0.1,0.685
2021-08-19 15:51:45.916,0.09,0.745
2021-08-19 15:51:45.920,0.125,0.755
2021-08-19 15:51:45.924,0.17,0.78
2021-08-19 15:51:45.928,0.17,0.8
2021-08-19 15:51:45.932,0.19,0.79
2021-08-19 15:51:45.936,0.2,0.775
2021-08-19 15:51:45.940,0.215,0.785
2021-08-19 15:51:45.944,0.205,0.8
2021-08-19 15:51:45.948,0.23,0.835
2021-08-19 15:51:45.952,0.235,0.85
2021-08-19 15:51:45.956,0.245,0.84
2021-08-19 15:51:45.960,0.245,0.885
2021-08-19 15:51:45.964,0.24,0.885
2021-08-19 15:51:45.968,0.255,0.88
2021-08-19 15:51:45.972,0.265,0.885
2021-08-19 15:51:45.976,0.285,0.93
2021-08-19 15:51:45.980,0.315,0.965
2021-08-19 15:51:45.984,0.315,0.965
2021-08-19 15:51:45.988,0.32,0.96
2021-08-19 15:51:45.992,0.315,1.005
2021-08-19 15:51:45.996,0.32,1.015
2021-08-19 15:51:46.000,0.31,1.05
2021-08-19 15:51:46.004,0.29,1.085
2021-08-19 15:51:46.008,0.29,1.085
2021-08-19 15:51:46.012,0.3,1.105
2021-08-19 15:51:46.016,0.32,1.105
2021-08-19 15:51:46.020,0.37,1.125
2021-08-19 15:51:46.024,0.375,1.13
2021-08-19 15:51:46.028,0.405,1.16
2021-08-19 15:51:46.032,0.41,1.205
2021-08-19 15:51:46.036,0.405,1.255
2021-08-19 15:51:46.040,0.405,1.305
2021-08-19 15:51:46.044,0.42,1.315
2021-08-19 15:51:46.048,0.43,1.36
2021-08-19 15:51:46.052,0.405,1.39
2021-08-19 15:51:46.056,0.41,1.4
2021-08-19 15:51:46.060,0.395,1.425
2021-08-19 15:51:46.064,0.39,1.415
2021-08-19 15:51:46.068,0.405,1.435
2021-08-19 15:51:46.072,0.39,1.435
2021-08-19 15:51:46.076,0.365,1.455
2021-08-19 15:51:46.080,0.36,1.455
2021-08-19 15:51:46.084,0.32,1.46
2021-08-19 15:51:46.088,0.28,1.445
2021-08-19 15:51:46.092,0.265,1.405
2021-08-19 15:51:46.096,0.225,1.39
2021-08-19 15:51:46.100,0.19,1.35
2021-08-19 15:51:46.104,0.17,1.345
2021-08-19 15:51:46.108,0.08,1.265
2021-08-19 15:51:46.112,0.02,1.195
2021-08-19 15:51:46.116,0.015,1.14
2021-08-19 15:51:46.120,0.0,1.065
2021-08-19 15:51:46.124,-0.01,1.035
2021-08-19 15:51:46.128,-0.05,0.95
2021-08-19 15:51:46.132,-0.085,0.885
2021-08-19 15:51:46.136,-0.1,0.815
2021-08-19 15:51:46.140,-0.135,0.725
2021-08-19 15:51:46.144,-0.135,0.625
2021-08-19 15:51:46.148,-0.155,0.585
2021-08-19 15:51:46.152,-0.16,0.49
2021-08-19 15:51:46.156,-0.155,0.415
2021-08-19 15:51:46.160,-0.145,0.355
2021-08-19 15:51:46.164,-0.155,0.355
2021-08-19 15:51:46.168,-0.155,0.305
2021-08-19 15:51:46.172,-0.155,0.31
2021-08-19 15:51:46.176,-0.18,0.31
2021-08-19 15:51:46.180,-0.16,0.265
2021-08-19 15:51:46.184,-0.185,0.275
2021-08-19 15:51:46.188,-0.215,0.235
2021-08-19 15:51:46.192,-0.23,0.235
2021-08-19 15:51:46.196,-0.235,0.225
2021-08-19 15:51:46.200,-0.21,0.205
2021-08-19 15:51:46.204,-0.215,0.195
2021-08-19 15:51:46.208,-0.2,0.195
2021-08-19 15:51:46.212,-0.17,0.18
2021-08-19 15:51:46.216,-0.145,0.175
2021-08-19 15:51:46.220,-0.14,0.19
2021-08-19 15:51:46.224,-0.135,0.21
2021-08-19 15:51:46.228,-0.12,0.23
2021-08-19 15:51:46.232,-0.09,0.27
2021-08-19 15:51:46.236,-0.08,0.25
2021-08-19 15:51:46.240,-0.075,0.255
2021-08-19 15:51:46.244,-0.09,0.27
2021-08-19 15:51:46.248,-0.08,0.26
2021-08-19 15:51:46.252,-0.08,0.285
2021-08-19 15:51:46.256,-0.06,0.275
2021-08-19 15:51:46.260,-0.075,0.28
2021-08-19 15:51:46.264,-0.08,0.305
2021-08-19 15:51:46.268,-0.11,0.29
2021-08-19 15:51:46.272,-0.125,0.305
2021-08-19 15:51:46.276,-0.13,0.32
2021-08-19 15:51:46.280,-0.155,0.315
2021-08-19 15:51:46.284,-0.16,0.31
2021-08-19 15:51:46.288,-0.155,0.29
2021-08-19 15:51:46.292,-0.165,0.25
2021-08-19 15:51:46.296,-0.155,0.25
2021-08-19 15:51:46.300,-0.15,0.235
2021-08-19 15:51:46.304,-0.16,0.245
2021-08-19 15:51:46.308,-0.185,0.235
2021-08-19 15:51:46.312,-0.2,0.25
2021-08-19 15:51:46.316,-0.21,0.255
2021-08-19 15:51:46.320,-0.205,0.255
2021-08-19 15:51:46.324,-0.21,0.24
2021-08-19 15:51:46.328,-0.22,0.255
2021-08-19 15:51:46.332,-0.195,0.24
2021-08-19 15:51:46.336,-0.21,0.22
2021-08-19 15:51:46.340,-0.21,0.225
2021-08-19 15:51:46.344,-0.21,0.22
2021-08-19 15:51:46.348,-0.225,0.185
2021-08-19 15:51:46.352,-0.225,0.185
2021-08-19 15:51:46.356,-0.225,0.175
2021-08-19 15:51:46.360,-0.205,0.135
2021-08-19 15:51:46.364,-0.23,0.125
2021-08-19 15:51:46.368,-0.23,0.12
2021-08-19 15:51:46.372,-0.245,0.125
2021-08-19 15:51:46.376,-0.26,0.12
2021-08-19 15:51:46.380,-0.25,0.11
2021-08-19 15:51:46.384,-0.245,0.11
2021-08-19 15:51:46.388,-0.24,0.11
2021-08-19 15:51:46.392,-0.24,0.085
2021-08-19 15:51:46.396,-0.23,0.08
2021-08-19 15:51:46.400,-0.215,0.07
2021-08-19 15:51:46.404,-0.2,0.065
2021-08-19 15:51:46.408,-0.18,0.07
2021-08-19 15:51:46.412,-0.175,0.035
2021-08-19 15:51:46.416,-0.18,0.05
2021-08-19 15:51:46.420,-0.175,0.055
2021-08-19 15:51:46.424,-0.16,0.08
2021-08-19 15:51:46.428,-0.14,0.065
2021-08-19 15:51:46.432,-0.155,0.065
2021-08-19 15:51:46.436,-0.125,0.065
2021-08-19 15:51:46.440,-0.125,0.12
2021-08-19 15:51:46.444,-0.115,0.135
2021-08-19 15:51:46.448,-0.095,0.15
2021-08-19 15:51:46.452,-0.085,0.14
2021-08-19 15:51:46.456,-0.06,0.13
2021-08-19 15:51:46.460,-0.005,0.135
2021-08-19 15:51:46.464,0.08,0.12
2021-08-19 15:51:46.468,0.25,0.12
2021-08-19 15:51:46.472,0.325,0.155
2021-08-19 15:51:46.476,0.245,0.215
2021-08-19 15:51:46.480,0.085,0.305
2021-08-19 15:51:46.484,-0.225,0.385
2021-08-19 15:51:46.488,-0.725,0.19
2021-08-19 15:51:46.492,-1.22,-0.27
2021-08-19 15:51:46.496,-1.615,-0.875
2021-08-19 15:51:46.500,-1.915,-1.71
2021-08-19 15:51:46.584,-0.53,-1.62
2021-08-19 15:51:46.588,-0.37,-1.225
2021-08-19 15:51:46.592,-0.195,-0.895
2021-08-19 15:51:46.596,-0.075,-0.655
2021-08-19 15:51:46.600,0.04,-0.455
2021-08-19 15:51:46.604,0.08,-0.2
2021-08-19 15:51:46.608,0.125,0.0
2021-08-19 15:51:46.612,0.185,0.225
2021-08-19 15:51:46.616,0.22,0.425
2021-08-19 15:51:46.620,0.225,0.56
2021-08-19 15:51:46.624,0.24,0.675
2021-08-19 15:51:46.628,0.255,0.745
2021-08-19 15:51:46.632,0.25,0.78
2021-08-19 15:51:46.636,0.265,0.81
2021-08-19 15:51:46.640,0.28,0.825
2021-08-19 15:51:46.644,0.285,0.845
2021-08-19 15:51:46.648,0.29,0.87
2021-08-19 15:51:46.652,0.335,0.89
2021-08-19 15:51:46.656,0.355,0.895
2021-08-19 15:51:46.660,0.35,0.955
2021-08-19 15:51:46.664,0.375,0.965
2021-08-19 15:51:46.668,0.42,0.985
2021-08-19 15:51:46.672,0.445,1.01
2021-08-19 15:51:46.676,0.435,1.015
2021-08-19 15:51:46.680,0.43,1.02
2021-08-19 15:51:46.684,0.44,1.08
2021-08-19 15:51:46.688,0.43,1.12
2021-08-19 15:51:46.692,0.455,1.12
2021-08-19 15:51:46.696,0.47,1.095
2021-08-19 15:51:46.700,0.475,1.09
2021-08-19 15:51:46.704,0.465,1.105
2021-08-19 15:51:46.708,0.48,1.15
2021-08-19 15:51:46.712,0.485,1.16
2021-08-19 15:51:46.716,0.475,1.175
2021-08-19 15:51:46.720,0.465,1.215
2021-08-19 15:51:46.724,0.46,1.255
2021-08-19 15:51:46.728,0.49,1.28
2021-08-19 15:51:46.732,0.46,1.3
2021-08-19 15:51:46.736,0.49,1.315
2021-08-19 15:51:46.740,0.515,1.335
2021-08-19 15:51:46.744,0.525,1.355
2021-08-19 15:51:46.748,0.525,1.385
2021-08-19 15:51:46.752,0.53,1.41
2021-08-19 15:51:46.756,0.55,1.415
2021-08-19 15:51:46.760,0.52,1.435
2021-08-19 15:51:46.764,0.525,1.425
2021-08-19 15:51:46.768,0.51,1.445
2021-08-19 15:51:46.772,0.525,1.445
2021-08-19 15:51:46.776,0.545,1.46
2021-08-19 15:51:46.780,0.555,1.455
2021-08-19 15:51:46.784,0.53,1.46
2021-08-19 15:51:46.788,0.495,1.495
2021-08-19 15:51:46.792,0.48,1.505
2021-08-19 15:51:46.796,0.465,1.485
2021-08-19 15:51:46.800,0.46,1.485
2021-08-19 15:51:46.804,0.45,1.46
2021-08-19 15:51:46.808,0.415,1.405
2021-08-19 15:51:46.812,0.395,1.35
2021-08-19 15:51:46.816,0.365,1.31
2021-08-19 15:51:46.820,0.345,1.3
2021-08-19 15:51:46.824,0.3,1.25
2021-08-19 15:51:46.828,0.27,1.185
2021-08-19 15:51:46.832,0.21,1.135
2021-08-19 15:51:46.836,0.2,1.075
2021-08-19 15:51:46.840,0.155,0.995
2021-08-19 15:51:46.844,0.13,0.915
2021-08-19 15:51:46.848,0.11,0.86
2021-08-19 15:51:46.852,0.055,0.8
2021-08-19 15:51:46.856,0.03,0.735
2021-08-19 15:51:46.860,0.02,0.665
2021-08-19 15:51:46.864,-0.005,0.62
2021-08-19 15:51:46.868,-0.015,0.56
2021-08-19 15:51:46.872,-0.025,0.495
2021-08-19 15:51:46.876,-0.005,0.485
2021-08-19 15:51:46.880,-0.01,0.45
2021-08-19 15:51:46.884,-0.025,0.42
2021-08-19 15:51:46.888,-0.03,0.42
2021-08-19 15:51:46.892,-0.03,0.39
2021-08-19 15:51:46.896,-0.06,0.375
2021-08-19 15:51:46.900,-0.045,0.385
2021-08-19 15:51:46.904,-0.06,0.345
2021-08-19 15:51:46.908,-0.085,0.36
2021-08-19 15:51:46.912,-0.085,0.305
2021-08-19 15:51:46.916,-0.08,0.335
2021-08-19 15:51:46.920,-0.095,0.355
2021-08-19 15:51:46.924,-0.095,0.37
2021-08-19 15:51:46.928,-0.11,0.37
2021-08-19 15:51:46.932,-0.115,0.35
2021-08-19 15:51:46.936,-0.135,0.34
2021-08-19 15:51:46.940,-0.125,0.33
2021-08-19 15:51:46.944,-0.095,0.355
2021-08-19 15:51:46.948,0.015,0.32
2021-08-19 15:51:46.952,0.185,0.315
2021-08-19 15:51:46.956,0.355,0.265
2021-08-19 15:51:46.960,0.33,0.305
2021-08-19 15:51:46.964,0.115,0.355
2021-08-19 15:51:46.968,-0.275,0.435
2021-08-19 15:51:46.972,-0.915,0.31
2021-08-19 15:51:46.976,-1.62,-0.065
2021-08-19 15:51:47.064,-0.52,-1.725
2021-08-19 15:51:47.068,-0.305,-1.31
2021-08-19 15:51:47.072,-0.125,-0.945
2021-08-19 15:51:47.076,0.005,-0.645
2021-08-19 15:51:47.080,0.095,-0.365
2021-08-19 15:51:47.084,0.165,-0.08
2021-08-19 15:51:47.088,0.185,0.19
2021-08-19 15:51:47.092,0.2,0.405
2021-08-19 15:51:47.096,0.19,0.58
2021-08-19 15:51:47.100,0.215,0.74
2021-08-19 15:51:47.104,0.22,0.835
2021-08-19 15:51:47.108,0.23,0.865
2021-08-19 15:51:47.112,0.245,0.895
2021-08-19 15:51:47.116,0.24,0.915
2021-08-19 15:51:47.120,0.265,0.935
2021-08-19 15:51:47.124,0.28,0.945
2021-08-19 15:51:47.128,0.29,0.95
2021-08-19 15:51:47.132,0.325,0.955
2021-08-19 15:51:47.136,0.32,0.95
2021-08-19 15:51:47.140,0.335,0.96
2021-08-19 15:51:47.144,0.345,0.955
2021-08-19 15:51:47.148,0.295,0.965
2021-08-19 15:51:47.152,0.3,0.97
2021-08-19 15:51:47.156,0.28,1.0
2021-08-19 15:51:47.160,0.29,0.975
2021-08-19 15:51:47.164,0.29,0.965
2021-08-19 15:51:47.168,0.265,0.915
2021-08-19 15:51:47.172,0.245,0.935
2021-08-19 15:51:47.176,0.245,0.925
2021-08-19 15:51:47.180,0.275,0.95
2021-08-19 15:51:47.184,0.28,0.945
2021-08-19 15:51:47.188,0.29,0.935
2021-08-19 15:51:47.192,0.3,0.955
2021-08-19 15:51:47.196,0.305,0.995
2021-08-19 15:51:47.200,0.285,1.03
2021-08-19 15:51:47.204,0.295,1.035
2021-08-19 15:51:47.208,0.285,1.05
2021-08-19 15:51:47.212,0.29,1.08
2021-08-19 15:51:47.216,0.29,1.1
2021-08-19 15:51:47.220,0.295,1.115
2021-08-19 15:51:47.224,0.305,1.125
2021-08-19 15:51:47.228,0.29,1.145
2021-08-19 15:51:47.232,0.28,1.155
2021-08-19 15:51:47.236,0.26,1.195
2021-08-19 15:51:47.240,0.23,1.205
2021-08-19 15:51:47.244,0.225,1.225
2021-08-19 15:51:47.248,0.215,1.245
2021-08-19 15:51:47.252,0.22,1.265
2021-08-19 15:51:47.256,0.21,1.26
2021-08-19 15:51:47.260,0.185,1.25
2021-08-19 15:51:47.264,0.175,1.26
2021-08-19 15:51:47.268,0.17,1.255
2021-08-19 15:51:47.272,0.16,1.245
2021-08-19 15:51:47.276,0.145,1.22
2021-08-19 15:51:47.280,0.135,1.22
2021-08-19 15:51:47.284,0.095,1.185
2021-08-19 15:51:47.288,0.075,1.14
2021-08-19 15:51:47.292,0.055,1.1
2021-08-19 15:51:47.296,0.025,1.06
2021-08-19 15:51:47.300,0.015,1.0
2021-08-19 15:51:47.304,0.02,0.92
2021-08-19 15:51:47.308,0.0,0.87
2021-08-19 15:51:47.312,-0.01,0.795
2021-08-19 15:51:47.316,-0.04,0.74
2021-08-19 15:51:47.320,-0.045,0.67
2021-08-19 15:51:47.324,-0.055,0.685
2021-08-19 15:51:47.328,-0.05,0.605
2021-08-19 15:51:47.332,-0.085,0.55
2021-08-19 15:51:47.336,-0.1,0.49
2021-08-19 15:51:47.340,-0.1,0.44
2021-08-19 15:51:47.344,-0.09,0.385
2021-08-19 15:51:47.348,-0.13,0.335
2021-08-19 15:51:47.352,-0.135,0.31
2021-08-19 15:51:47.356,-0.17,0.285
2021-08-19 15:51:47.360,-0.175,0.245
2021-08-19 15:51:47.364,-0.175,0.225
2021-08-19 15:51:47.368,-0.15,0.185
2021-08-19 15:51:47.372,-0.145,0.18
2021-08-19 15:51:47.376,-0.14,0.135
2021-08-19 15:51:47.380,-0.12,0.14
2021-08-19 15:51:47.384,-0.065,0.175
2021-08-19 15:51:47.388,0.04,0.165
2021-08-19 15:51:47.392,0.25,0.175
2021-08-19 15:51:47.396,0.47,0.195
2021-08-19 15:51:47.400,0.46,0.23
2021-08-19 15:51:47.404,0.27,0.295
2021-08-19 15:51:47.408,-0.1,0.38
2021-08-19 15:51:47.412,-0.68,0.28
2021-08-19 15:51:47.416,-1.345,-0.08
2021-08-19 15:51:47.420,-1.84,-0.67
2021-08-19 15:51:47.500,-0.585,-1.925
2021-08-19 15:51:47.504,-0.42,-1.445
2021-08-19 15:51:47.508,-0.285,-1.05
2021-08-19 15:51:47.512,-0.12,-0.705
2021-08-19 15:51:47.516,-0.015,-0.43
2021-08-19 15:51:47.520,0.025,-0.205
2021-08-19 15:51:47.524,0.085,0.02
2021-08-19 15:51:47.528,0.15,0.235
2021-08-19 15:51:47.532,0.165,0.41
2021-08-19 15:51:47.536,0.175,0.545
2021-08-19 15:51:47.540,0.185,0.665
2021-08-19 15:51:47.544,0.18,0.755
2021-08-19 15:51:47.548,0.165,0.78
2021-08-19 15:51:47.552,0.17,0.785
2021-08-19 15:51:47.556,0.18,0.79
2021-08-19 15:51:47.560,0.215,0.775
2021-08-19 15:51:47.564,0.26,0.775
2021-08-19 15:51:47.568,0.29,0.785
2021-08-19 15:51:47.572,0.315,0.79
2021-08-19 15:51:47.576,0.345,0.83
2021-08-19 15:51:47.580,0.34,0.865
2021-08-19 15:51:47.584,0.355,0.88
2021-08-19 15:51:47.588,0.35,0.915
2021-08-19 15:51:47.592,0.365,0.95
2021-08-19 15:51:47.596,0.35,0.94
2021-08-19 15:51:47.600,0.37,0.94
2021-08-19 15:51:47.604,0.35,0.935
2021-08-19 15:51:47.608,0.325,0.93
2021-08-19 15:51:47.612,0.34,0.975
2021-08-19 15:51:47.616,0.34,0.98
2021-08-19 15:51:47.620,0.33,0.97
2021-08-19 15:51:47.624,0.345,0.985
2021-08-19 15:51:47.628,0.365,1.005
2021-08-19 15:51:47.632,0.375,1.04
2021-08-19 15:51:47.636,0.385,1.065
2021-08-19 15:51:47.640,0.385,1.075
2021-08-19 15:51:47.644,0.38,1.11
2021-08-19 15:51:47.648,0.395,1.1
2021-08-19 15:51:47.652,0.385,1.145
2021-08-19 15:51:47.656,0.405,1.165
2021-08-19 15:51:47.660,0.42,1.195
2021-08-19 15:51:47.664,0.42,1.22
2021-08-19 15:51:47.668,0.42,1.255
2021-08-19 15:51:47.672,0.45,1.31
2021-08-19 15:51:47.676,0.445,1.315
2021-08-19 15:51:47.680,0.455,1.345
2021-08-19 15:51:47.684,0.46,1.355
2021-08-19 15:51:47.688,0.435,1.365
2021-08-19 15:51:47.692,0.415,1.38
2021-08-19 15:51:47.696,0.395,1.385
2021-08-19 15:51:47.700,0.38,1.38
2021-08-19 15:51:47.704,0.36,1.385
2021-08-19 15:51:47.708,0.34,1.38
2021-08-19 15:51:47.712,0.31,1.34
2021-08-19 15:51:47.716,0.275,1.26
2021-08-19 15:51:47.720,0.235,1.255
2021-08-19 15:51:47.724,0.205,1.215
2021-08-19 15:51:47.728,0.16,1.14
2021-08-19 15:51:47.732,0.125,1.075
2021-08-19 15:51:47.736,0.085,1.01
2021-08-19 15:51:47.740,0.045,0.96
2021-08-19 15:51:47.744,0.025,0.9
2021-08-19 15:51:47.748,0.0,0.825
2021-08-19 15:51:47.752,-0.05,0.735
2021-08-19 15:51:47.756,-0.07,0.695
2021-08-19 15:51:47.760,-0.08,0.65
2021-08-19 15:51:47.764,-0.06,0.575
2021-08-19 15:51:47.768,-0.04,0.515
2021-08-19 15:51:47.772,-0.02,0.47
2021-08-19 15:51:47.776,-0.04,0.42
2021-08-19 15:51:47.780,-0.025,0.36
2021-08-19 15:51:47.784,-0.01,0.31
2021-08-19 15:51:47.788,-0.005,0.3
2021-08-19 15:51:47.792,0.0,0.285
2021-08-19 15:51:47.796,-0.01,0.265
2021-08-19 15:51:47.800,-0.025,0.26
2021-08-19 15:51:47.804,-0.025,0.25
2021-08-19 15:51:47.808,-0.06,0.24
2021-08-19 15:51:47.812,-0.055,0.235
2021-08-19 15:51:47.816,-0.07,0.235
2021-08-19 15:51:47.820,-0.065,0.22
2021-08-19 15:51:47.824,-0.09,0.2
2021-08-19 15:51:47.828,-0.09,0.19
2021-08-19 15:51:47.832,-0.115,0.195
2021-08-19 15:51:47.836,-0.155,0.2
2021-08-19 15:51:47.840,-0.17,0.21
2021-08-19 15:51:47.844,-0.17,0.2
2021-08-19 15:51:47.848,-0.15,0.205
2021-08-19 15:51:47.852,-0.15,0.225
2021-08-19 15:51:47.856,-0.16,0.215
2021-08-19 15:51:47.860,-0.195,0.21
2021-08-19 15:51:47.864,-0.18,0.215
2021-08-19 15:51:47.868,-0.18,0.185
2021-08-19 15:51:47.872,-0.175,0.205
2021-08-19 15:51:47.876,-0.15,0.19
2021-08-19 15:51:47.880,-0.135,0.2
2021-08-19 15:51:47.884,-0.145,0.215
2021-08-19 15:51:47.888,-0.15,0.205
2021-08-19 15:51:47.892,-0.18,0.21
2021-08-19 15:51:47.896,-0.2,0.185
2021-08-19 15:51:47.900,-0.215,0.165
2021-08-19 15:51:47.904,-0.235,0.19
2021-08-19 15:51:47.908,-0.225,0.165
2021-08-19 15:51:47.912,-0.255,0.145
2021-08-19 15:51:47.916,-0.245,0.115
2021-08-19 15:51:47.920,-0.25,0.135
2021-08-19 15:51:47.924,-0.25,0.125
2021-08-19 15:51:47.928,-0.255,0.145
2021-08-19 15:51:47.932,-0.27,0.13
2021-08-19 15:51:47.936,-0.25,0.13
2021-08-19 15:51:47.940,-0.24,0.115
2021-08-19 15:51:47.944,-0.225,0.115
2021-08-19 15:51:47.948,-0.25,0.13
2021-08-19 15:51:47.952,-0.235,0.135
2021-08-19 15:51:47.956,-0.25,0.135
2021-08-19 15:51:47.960,-0.25,0.125
2021-08-19 15:51:47.964,-0.25,0.105
2021-08-19 15:51:47.968,-0.255,0.125
2021-08-19 15:51:47.972,-0.275,0.12
2021-08-19 15:51:47.976,-0.265,0.08
2021-08-19 15:51:47.980,-0.25,0.07
2021-08-19 15:51:47.984,-0.205,0.015
2021-08-19 15:51:47.988,-0.215,-0.005
2021-08-19 15:51:47.992,-0.19,-0.01
2021-08-19 15:51:47.996,-0.18,0.035
2021-08-19 15:51:48.000,-0.18,0.05
2021-08-19 15:51:48.004,-0.16,0.035
2021-08-19 15:51:48.008,-0.16,0.075
2021-08-19 15:51:48.012,-0.14,0.06
2021-08-19 15:51:48.016,-0.16,0.075
2021-08-19 15:51:48.020,-0.185,0.085
2021-08-19 15:51:48.024,-0.195,0.11
2021-08-19 15:51:48.028,-0.205,0.105
2021-08-19 15:51:48.032,-0.225,0.085
2021-08-19 15:51:48.036,-0.24,0.1
2021-08-19 15:51:48.040,-0.265,0.1
2021-08-19 15:51:48.044,-0.28,0.085
2021-08-19 15:51:48.048,-0.26,0.065
2021-08-19 15:51:48.052,-0.265,0.06
2021-08-19 15:51:48.056,-0.28,0.05
2021-08-19 15:51:48.060,-0.24,0.055
2021-08-19 15:51:48.064,-0.22,0.06
2021-08-19 15:51:48.068,-0.19,0.06
2021-08-19 15:51:48.072,-0.185,0.1
2021-08-19 15:51:48.076,-0.185,0.085
2021-08-19 15:51:48.080,-0.18,0.08
2021-08-19 15:51:48.084,-0.12,0.08
2021-08-19 15:51:48.088,-0.045,0.1
2021-08-19 15:51:48.092,0.08,0.105
2021-08-19 15:51:48.096,0.19,0.11
2021-08-19 15:51:48.100,0.12,0.175
2021-08-19 15:51:48.104,-0.06,0.265
2021-08-19 15:51:48.108,-0.335,0.305
2021-08-19 15:51:48.112,-0.77,0.165
2021-08-19 15:51:48.116,-1.265,-0.25
2021-08-19 15:51:48.120,-1.645,-0.765
2021-08-19 15:51:48.124,-1.885,-1.52
2021-08-19 15:51:48.204,-0.485,-1.805
2021-08-19 15:51:48.208,-0.345,-1.43
2021-08-19 15:51:48.212,-0.2,-1.055
2021-08-19 15:51:48.216,-0.085,-0.73
2021-08-19 15:51:48.220,-0.015,-0.5
2021-08-19 15:51:48.224,0.005,-0.28
2021-08-19 15:51:48.228,0.03,-0.075
2021-08-19 15:51:48.232,0.06,0.135
2021-08-19 15:51:48.236,0.065,0.29
2021-08-19 15:51:48.240,0.085,0.46
2021-08-19 15:51:48.244,0.1,0.565
2021-08-19 15:51:48.248,0.1,0.66
2021-08-19 15:51:48.252,0.15,0.72
2021-08-19 15:51:48.256,0.145,0.745
2021-08-19 15:51:48.260,0.155,0.74
2021-08-19 15:51:48.264,0.175,0.74
2021-08-19 15:51:48.268,0.2,0.79
2021-08-19 15:51:48.272,0.24,0.83
2021-08-19 15:51:48.276,0.265,0.84
2021-08-19 15:51:48.280,0.27,0.865
2021-08-19 15:51:48.284,0.28,0.9
2021-08-19 15:51:48.288,0.3,0.93
2021-08-19 15:51:48.292,0.31,0.94
2021-08-19 15:51:48.296,0.3,0.975
2021-08-19 15:51:48.300,0.305,0.99
2021-08-19 15:51:48.304,0.305,1.015
2021-08-19 15:51:48.308,0.325,1.02
2021-08-19 15:51:48.312,0.35,1.04
2021-08-19 15:51:48.316,0.38,1.04
2021-08-19 15:51:48.320,0.43,1.095
2021-08-19 15:51:48.324,0.43,1.11
2021-08-19 15:51:48.328,0.435,1.12
2021-08-19 15:51:48.332,0.46,1.16
2021-08-19 15:51:48.336,0.48,1.195
2021-08-19 15:51:48.340,0.49,1.205
2021-08-19 15:51:48.344,0.495,1.215
2021-08-19 15:51:48.348,0.525,1.255
2021-08-19 15:51:48.352,0.56,1.23
2021-08-19 15:51:48.356,0.56,1.275
2021-08-19 15:51:48.360,0.6,1.275
2021-08-19 15:51:48.364,0.63,1.32
2021-08-19 15:51:48.368,0.645,1.33
2021-08-19 15:51:48.372,0.665,1.325
2021-08-19 15:51:48.376,0.67,1.38
2021-08-19 15:51:48.380,0.69,1.405
2021-08-19 15:51:48.384,0.675,1.385
2021-08-19 15:51:48.388,0.665,1.4
2021-08-19 15:51:48.392,0.66,1.42
2021-08-19 15:51:48.396,0.66,1.385
2021-08-19 15:51:48.400,0.66,1.39
2021-08-19 15:51:48.404,0.63,1.395
2021-08-19 15:51:48.408,0.62,1.415
2021-08-19 15:51:48.412,0.64,1.435
2021-08-19 15:51:48.416,0.61,1.445
2021-08-19 15:51:48.420,0.6,1.455
2021-08-19 15:51:48.424,0.545,1.44
2021-08-19 15:51:48.428,0.53,1.44
2021-08-19 15:51:48.432,0.5,1.415
2021-08-19 15:51:48.436,0.455,1.385
2021-08-19 15:51:48.440,0.445,1.315
2021-08-19 15:51:48.444,0.42,1.29
2021-08-19 15:51:48.448,0.4,1.24
2021-08-19 15:51:48.452,0.355,1.215
2021-08-19 15:51:48.456,0.34,1.165
2021-08-19 15:51:48.460,0.34,1.105
2021-08-19 15:51:48.464,0.26,1.03
2021-08-19 15:51:48.468,0.255,0.99
2021-08-19 15:51:48.472,0.21,0.96
2021-08-19 15:51:48.476,0.16,0.88
2021-08-19 15:51:48.480,0.14,0.83
2021-08-19 15:51:48.484,0.135,0.745
2021-08-19 15:51:48.488,0.115,0.68
2021-08-19 15:51:48.492,0.095,0.64
2021-08-19 15:51:48.496,0.08,0.625
2021-08-19 15:51:48.500,0.075,0.585
2021-08-19 15:51:48.504,0.055,0.55
2021-08-19 15:51:48.508,0.02,0.51
2021-08-19 15:51:48.512,0.01,0.5
2021-08-19 15:51:48.516,-0.005,0.49
2021-08-19 15:51:48.520,-0.02,0.485
2021-08-19 15:51:48.524,-0.045,0.46
2021-08-19 15:51:48.528,-0.025,0.47
2021-08-19 15:51:48.532,-0.06,0.45
2021-08-19 15:51:48.536,-0.03,0.435
2021-08-19 15:51:48.540,-0.025,0.405
2021-08-19 15:51:48.544,0.01,0.39
2021-08-19 15:51:48.548,0.005,0.39
2021-08-19 15:51:48.552,0.005,0.4
2021-08-19 15:51:48.556,-0.005,0.43
2021-08-19 15:51:48.560,-0.03,0.435
2021-08-19 15:51:48.564,-0.055,0.47
2021-08-19 15:51:48.568,-0.09,0.45
2021-08-19 15:51:48.572,-0.085,0.42
2021-08-19 15:51:48.576,-0.095,0.43
2021-08-19 15:51:48.580,-0.115,0.4
2021-08-19 15:51:48.584,-0.115,0.375
2021-08-19 15:51:48.588,-0.11,0.34
2021-08-19 15:51:48.592,-0.11,0.345
2021-08-19 15:51:48.596,-0.13,0.34
2021-08-19 15:51:48.600,-0.13,0.34
2021-08-19 15:51:48.604,-0.13,0.335
2021-08-19 15:51:48.608,-0.155,0.325
2021-08-19 15:51:48.612,-0.135,0.32
2021-08-19 15:51:48.616,-0.13,0.315
2021-08-19 15:51:48.620,-0.16,0.31
2021-08-19 15:51:48.624,-0.16,0.31
2021-08-19 15:51:48.628,-0.16,0.3
2021-08-19 15:51:48.632,-0.145,0.29
2021-08-19 15:51:48.636,-0.12,0.275
2021-08-19 15:51:48.640,-0.11,0.265
2021-08-19 15:51:48.644,-0.13,0.275
2021-08-19 15:51:48.648,-0.14,0.265
2021-08-19 15:51:48.652,-0.135,0.285
2021-08-19 15:51:48.656,-0.125,0.295
2021-08-19 15:51:48.660,-0.115,0.265
2021-08-19 15:51:48.664,-0.035,0.27
2021-08-19 15:51:48.668,0.08,0.27
2021-08-19 15:51:48.672,0.3,0.26
2021-08-19 15:51:48.676,0.42,0.29
2021-08-19 15:51:48.680,0.36,0.37
2021-08-19 15:51:48.684,0.13,0.41
2021-08-19 15:51:48.688,-0.185,0.435
2021-08-19 15:51:48.692,-0.69,0.29
2021-08-19 15:51:48.696,-1.23,-0.11
2021-08-19 15:51:48.700,-1.645,-0.64
2021-08-19 15:51:48.704,-1.84,-1.4
2021-08-19 15:51:48.788,-0.575,-1.64
2021-08-19 15:51:48.792,-0.36,-1.265
2021-08-19 15:51:48.796,-0.18,-0.965
2021-08-19 15:51:48.800,-0.055,-0.695
2021-08-19 15:51:48.804,0.035,-0.445
2021-08-19 15:51:48.808,0.075,-0.18
2021-08-19 15:51:48.812,0.12,0.09
2021-08-19 15:51:48.816,0.165,0.29
2021-08-19 15:51:48.820,0.21,0.455
2021-08-19 15:51:48.824,0.195,0.575
2021-08-19 15:51:48.828,0.21,0.685
2021-08-19 15:51:48.832,0.27,0.765
2021-08-19 15:51:48.836,0.265,0.775
2021-08-19 15:51:48.840,0.275,0.785
2021-08-19 15:51:48.844,0.295,0.815
2021-08-19 15:51:48.848,0.315,0.83
2021-08-19 15:51:48.852,0.345,0.83
2021-08-19 15:51:48.856,0.37,0.86
2021-08-19 15:51:48.860,0.38,0.87
2021-08-19 15:51:48.864,0.395,0.905
2021-08-19 15:51:48.868,0.39,0.905
2021-08-19 15:51:48.872,0.375,0.925
2021-08-19 15:51:48.876,0.365,0.96
2021-08-19 15:51:48.880,0.385,0.965
2021-08-19 15:51:48.884,0.415,0.99
2021-08-19 15:51:48.888,0.43,1.01
2021-08-19 15:51:48.892,0.445,1.015
2021-08-19 15:51:48.896,0.455,1.015
2021-08-19 15:51:48.900,0.455,1.03
2021-08-19 15:51:48.904,0.465,1.05
2021-08-19 15:51:48.908,0.48,1.095
2021-08-19 15:51:48.912,0.465,1.11
2021-08-19 15:51:48.916,0.45,1.12
2021-08-19 15:51:48.920,0.465,1.16
2021-08-19 15:51:48.924,0.475,1.185
2021-08-19 15:51:48.928,0.475,1.21
2021-08-19 15:51:48.932,0.505,1.235
2021-08-19 15:51:48.936,0.52,1.225
2021-08-19 15:51:48.940,0.535,1.245
2021-08-19 15:51:48.944,0.53,1.29
2021-08-19 15:51:48.948,0.52,1.31
2021-08-19 15:51:48.952,0.53,1.36
2021-08-19 15:51:48.956,0.525,1.365
2021-08-19 15:51:48.960,0.52,1.36
2021-08-19 15:51:48.964,0.53,1.37
2021-08-19 15:51:48.968,0.53,1.385
2021-08-19 15:51:48.972,0.54,1.455
2021-08-19 15:51:48.976,0.54,1.445
2021-08-19 15:51:48.980,0.525,1.48
2021-08-19 15:51:48.984,0.49,1.475
2021-08-19 15:51:48.988,0.46,1.46
2021-08-19 15:51:48.992,0.44,1.46
2021-08-19 15:51:48.996,0.41,1.465
2021-08-19 15:51:49.000,0.355,1.465
2021-08-19 15:51:49.004,0.285,1.44
2021-08-19 15:51:49.008,0.22,1.41
2021-08-19 15:51:49.012,0.195,1.35
2021-08-19 15:51:49.016,0.19,1.25
2021-08-19 15:51:49.020,0.17,1.21
2021-08-19 15:51:49.024,0.165,1.15
2021-08-19 15:51:49.028,0.15,1.095
2021-08-19 15:51:49.032,0.135,1.03
2021-08-19 15:51:49.036,0.075,0.95
2021-08-19 15:51:49.040,0.09,0.91
2021-08-19 15:51:49.044,0.065,0.87
2021-08-19 15:51:49.048,0.04,0.805
2021-08-19 15:51:49.052,0.045,0.775
2021-08-19 15:51:49.056,0.03,0.7
2021-08-19 15:51:49.060,0.01,0.635
2021-08-19 15:51:49.064,-0.005,0.6
2021-08-19 15:51:49.068,-0.015,0.55
2021-08-19 15:51:49.072,-0.08,0.5
2021-08-19 15:51:49.076,-0.05,0.47
2021-08-19 15:51:49.080,-0.06,0.46
2021-08-19 15:51:49.084,-0.04,0.405
2021-08-19 15:51:49.088,-0.03,0.38
2021-08-19 15:51:49.092,-0.03,0.39
2021-08-19 15:51:49.096,-0.025,0.405
2021-08-19 15:51:49.100,-0.04,0.38
2021-08-19 15:51:49.104,-0.045,0.415
2021-08-19 15:51:49.108,-0.04,0.415
2021-08-19 15:51:49.112,-0.06,0.385
2021-08-19 15:51:49.116,-0.07,0.395
2021-08-19 15:51:49.120,-0.06,0.395
2021-08-19 15:51:49.124,-0.075,0.395
2021-08-19 15:51:49.128,-0.09,0.395
2021-08-19 15:51:49.132,-0.09,0.39
2021-08-19 15:51:49.136,-0.1,0.41
2021-08-19 15:51:49.140,-0.09,0.425
2021-08-19 15:51:49.144,-0.085,0.415
2021-08-19 15:51:49.148,-0.1,0.415
2021-08-19 15:51:49.152,-0.095,0.39
2021-08-19 15:51:49.156,-0.11,0.4
2021-08-19 15:51:49.160,-0.11,0.395
2021-08-19 15:51:49.164,-0.12,0.375
2021-08-19 15:51:49.168,-0.1,0.37
2021-08-19 15:51:49.172,-0.115,0.37
2021-08-19 15:51:49.176,-0.095,0.345
2021-08-19 15:51:49.180,-0.11,0.34
2021-08-19 15:51:49.184,-0.11,0.36
2021-08-19 15:51:49.188,-0.12,0.355
2021-08-19 15:51:49.192,-0.11,0.365
2021-08-19 15:51:49.196,-0.07,0.35
2021-08-19 15:51:49.200,0.01,0.355
2021-08-19 15:51:49.204,0.18,0.33
2021-08-19 15:51:49.208,0.235,0.34
2021-08-19 15:51:49.212,0.15,0.375
2021-08-19 15:51:49.216,-0.065,0.41
2021-08-19 15:51:49.220,-0.4,0.45
2021-08-19 15:51:49.224,-0.86,0.295
2021-08-19 15:51:49.228,-1.33,-0.08
2021-08-19 15:51:49.232,-1.65,-0.655
2021-08-19 15:51:49.236,-1.815,-1.425
2021-08-19 15:51:49.316,-0.615,-1.945
2021-08-19 15:51:49.320,-0.395,-1.53
2021-08-19 15:51:49.324,-0.225,-1.115
2021-08-19 15:51:49.328,-0.105,-0.695
2021-08-19 15:51:49.332,0.02,-0.375
2021-08-19 15:51:49.336,0.075,-0.135
2021-08-19 15:51:49.340,0.11,0.09
2021-08-19 15:51:49.344,0.14,0.29
2021-08-19 15:51:49.348,0.155,0.48
2021-08-19 15:51:49.352,0.175,0.645
2021-08-19 15:51:49.356,0.17,0.755
2021-08-19 15:51:49.360,0.215,0.86
2021-08-19 15:51:49.364,0.25,0.935
2021-08-19 15:51:49.368,0.28,0.97
2021-08-19 15:51:49.372,0.29,0.99
2021-08-19 15:51:49.376,0.315,1.02
2021-08-19 15:51:49.380,0.38,1.055
2021-08-19 15:51:49.384,0.385,1.065
2021-08-19 15:51:49.388,0.41,1.085
2021-08-19 15:51:49.392,0.41,1.125
2021-08-19 15:51:49.396,0.39,1.14
2021-08-19 15:51:49.400,0.355,1.16
2021-08-19 15:51:49.404,0.37,1.16
2021-08-19 15:51:49.408,0.405,1.145
2021-08-19 15:51:49.412,0.4,1.15
2021-08-19 15:51:49.416,0.39,1.155
2021-08-19 15:51:49.420,0.375,1.15
2021-08-19 15:51:49.424,0.365,1.165
2021-08-19 15:51:49.428,0.37,1.165
2021-08-19 15:51:49.432,0.38,1.195
2021-08-19 15:51:49.436,0.415,1.185
2021-08-19 15:51:49.440,0.405,1.175
2021-08-19 15:51:49.444,0.42,1.18
2021-08-19 15:51:49.448,0.43,1.18
2021-08-19 15:51:49.452,0.435,1.21
2021-08-19 15:51:49.456,0.455,1.22
2021-08-19 15:51:49.460,0.465,1.24
2021-08-19 15:51:49.464,0.48,1.265
2021-08-19 15:51:49.468,0.485,1.295
2021-08-19 15:51:49.472,0.495,1.305
2021-08-19 15:51:49.476,0.485,1.315
2021-08-19 15:51:49.480,0.495,1.33
2021-08-19 15:51:49.484,0.49,1.345
2021-08-19 15:51:49.488,0.505,1.34
2021-08-19 15:51:49.492,0.52,1.375
2021-08-19 15:51:49.496,0.52,1.4
2021-08-19 15:51:49.500,0.55,1.42
2021-08-19 15:51:49.504,0.555,1.435
2021-08-19 15:51:49.508,0.555,1.465
2021-08-19 15:51:49.512,0.54,1.48
2021-08-19 15:51:49.516,0.545,1.525
2021-08-19 15:51:49.520,0.51,1.53
2021-08-19 15:51:49.524,0.495,1.535
2021-08-19 15:51:49.528,0.46,1.535
2021-08-19 15:51:49.532,0.435,1.5
2021-08-19 15:51:49.536,0.395,1.515
2021-08-19 15:51:49.540,0.365,1.45
2021-08-19 15:51:49.544,0.345,1.45
2021-08-19 15:51:49.548,0.335,1.385
2021-08-19 15:51:49.552,0.29,1.38
2021-08-19 15:51:49.556,0.235,1.33
2021-08-19 15:51:49.560,0.195,1.275
2021-08-19 15:51:49.564,0.14,1.22
2021-08-19 15:51:49.568,0.135,1.17
2021-08-19 15:51:49.572,0.09,1.11
2021-08-19 15:51:49.576,0.04,1.035
2021-08-19 15:51:49.580,0.05,0.98
2021-08-19 15:51:49.584,0.05,0.91
2021-08-19 15:51:49.588,0.015,0.87
2021-08-19 15:51:49.592,0.02,0.8
2021-08-19 15:51:49.596,-0.01,0.745
2021-08-19 15:51:49.600,-0.02,0.74
2021-08-19 15:51:49.604,-0.01,0.71
2021-08-19 15:51:49.608,-0.04,0.675
2021-08-19 15:51:49.612,-0.05,0.63
2021-08-19 15:51:49.616,-0.07,0.615
2021-08-19 15:51:49.620,-0.1,0.56
2021-08-19 15:51:49.624,-0.12,0.535
2021-08-19 15:51:49.628,-0.155,0.51
2021-08-19 15:51:49.632,-0.18,0.51
2021-08-19 15:51:49.636,-0.19,0.465
2021-08-19 15:51:49.640,-0.215,0.465
2021-08-19 15:51:49.644,-0.245,0.515
2021-08-19 15:51:49.648,-0.23,0.54
2021-08-19 15:51:49.652,-0.255,0.53
2021-08-19 15:51:49.656,-0.215,0.505
2021-08-19 15:51:49.660,-0.225,0.485
2021-08-19 15:51:49.664,-0.23,0.495
2021-08-19 15:51:49.668,-0.24,0.515
2021-08-19 15:51:49.672,-0.22,0.51
2021-08-19 15:51:49.676,-0.235,0.515
2021-08-19 15:51:49.680,-0.195,0.49
2021-08-19 15:51:49.684,-0.2,0.46
2021-08-19 15:51:49.688,-0.2,0.48
2021-08-19 15:51:49.692,-0.205,0.465
2021-08-19 15:51:49.696,-0.205,0.445
2021-08-19 15:51:49.700,-0.205,0.42
2021-08-19 15:51:49.704,-0.21,0.395
2021-08-19 15:51:49.708,-0.23,0.35
2021-08-19 15:51:49.712,-0.19,0.335
2021-08-19 15:51:49.716,-0.18,0.34
2021-08-19 15:51:49.720,-0.2,0.35
2021-08-19 15:51:49.724,-0.145,0.355
2021-08-19 15:51:49.728,-0.15,0.37
2021-08-19 15:51:49.732,-0.16,0.365
2021-08-19 15:51:49.736,-0.145,0.34
2021-08-19 15:51:49.740,-0.13,0.345
2021-08-19 15:51:49.744,-0.125,0.295
2021-08-19 15:51:49.748,-0.16,0.26
2021-08-19 15:51:49.752,-0.175,0.31
2021-08-19 15:51:49.756,-0.175,0.36
2021-08-19 15:51:49.760,-0.16,0.36
2021-08-19 15:51:49.764,-0.16,0.335
2021-08-19 15:51:49.768,-0.175,0.32
2021-08-19 15:51:49.772,-0.145,0.325
2021-08-19 15:51:49.776,-0.15,0.295
2021-08-19 15:51:49.780,-0.14,0.305
2021-08-19 15:51:49.784,-0.17,0.29
2021-08-19 15:51:49.788,-0.15,0.295
2021-08-19 15:51:49.792,-0.125,0.3
2021-08-19 15:51:49.796,-0.155,0.3
2021-08-19 15:51:49.800,-0.15,0.295
2021-08-19 15:51:49.804,-0.185,0.3
2021-08-19 15:51:49.808,-0.19,0.31
2021-08-19 15:51:49.812,-0.185,0.325
2021-08-19 15:51:49.816,-0.19,0.29
2021-08-19 15:51:49.820,-0.175,0.28
2021-08-19 15:51:49.824,-0.205,0.275
2021-08-19 15:51:49.828,-0.165,0.275
2021-08-19 15:51:49.832,-0.1,0.225
2021-08-19 15:51:49.836,0.055,0.195
2021-08-19 15:51:49.840,0.14,0.235
2021-08-19 15:51:49.844,0.035,0.255
2021-08-19 15:51:49.848,-0.185,0.33
2021-08-19 15:51:49.852,-0.45,0.395
2021-08-19 15:51:49.856,-0.9,0.335
2021-08-19 15:51:49.860,-1.43,-0.035
2021-08-19 15:51:49.864,-1.855,-0.575
2021-08-19 15:51:49.952,-0.54,-1.655
2021-08-19 15:51:49.956,-0.345,-1.205
2021-08-19 15:51:49.960,-0.19,-0.865
2021-08-19 15:51:49.964,-0.045,-0.55
2021-08-19 15:51:49.968,0.01,-0.27
2021-08-19 15:51:49.972,0.06,-0.01
2021-08-19 15:51:49.976,0.085,0.195
2021-08-19 15:51:49.980,0.12,0.36
2021-08-19 15:51:49.984,0.155,0.535
2021-08-19 15:51:49.988,0.185,0.66
2021-08-19 15:51:49.992,0.22,0.76
2021-08-19 15:51:49.996,0.21,0.88
2021-08-19 15:51:50.000,0.225,0.95
2021-08-19 15:51:50.004,0.26,1.0
2021-08-19 15:51:50.008,0.275,0.995
2021-08-19 15:51:50.012,0.275,1.015
2021-08-19 15:51:50.016,0.29,1.025
2021-08-19 15:51:50.020,0.28,1.055
2021-08-19 15:51:50.024,0.285,1.075
2021-08-19 15:51:50.028,0.27,1.1
2021-08-19 15:51:50.032,0.265,1.095
2021-08-19 15:51:50.036,0.245,1.08
2021-08-19 15:51:50.040,0.27,1.08
2021-08-19 15:51:50.044,0.285,1.09
2021-08-19 15:51:50.048,0.31,1.095
2021-08-19 15:51:50.052,0.325,1.1
2021-08-19 15:51:50.056,0.31,1.115
2021-08-19 15:51:50.060,0.33,1.19
2021-08-19 15:51:50.064,0.355,1.21
2021-08-19 15:51:50.068,0.375,1.25
2021-08-19 15:51:50.072,0.375,1.26
2021-08-19 15:51:50.076,0.405,1.265
2021-08-19 15:51:50.080,0.4,1.31
2021-08-19 15:51:50.084,0.4,1.315
2021-08-19 15:51:50.088,0.41,1.345
2021-08-19 15:51:50.092,0.43,1.375
2021-08-19 15:51:50.096,0.42,1.405
2021-08-19 15:51:50.100,0.41,1.405
2021-08-19 15:51:50.104,0.4,1.435
2021-08-19 15:51:50.108,0.41,1.485
2021-08-19 15:51:50.112,0.43,1.5
2021-08-19 15:51:50.116,0.445,1.51
2021-08-19 15:51:50.120,0.475,1.54
2021-08-19 15:51:50.124,0.5,1.56
2021-08-19 15:51:50.128,0.505,1.575
2021-08-19 15:51:50.132,0.5,1.6
2021-08-19 15:51:50.136,0.51,1.635
2021-08-19 15:51:50.140,0.505,1.65
2021-08-19 15:51:50.144,0.515,1.67
2021-08-19 15:51:50.148,0.5,1.655
2021-08-19 15:51:50.152,0.485,1.685
2021-08-19 15:51:50.156,0.455,1.68
2021-08-19 15:51:50.160,0.425,1.695
2021-08-19 15:51:50.164,0.42,1.685
2021-08-19 15:51:50.168,0.385,1.675
2021-08-19 15:51:50.172,0.35,1.62
2021-08-19 15:51:50.176,0.315,1.61
2021-08-19 15:51:50.180,0.325,1.545
2021-08-19 15:51:50.184,0.34,1.535
2021-08-19 15:51:50.188,0.33,1.455
2021-08-19 15:51:50.192,0.275,1.41
2021-08-19 15:51:50.196,0.215,1.385
2021-08-19 15:51:50.200,0.175,1.33
2021-08-19 15:51:50.204,0.15,1.26
2021-08-19 15:51:50.208,0.13,1.16
2021-08-19 15:51:50.212,0.12,1.125
2021-08-19 15:51:50.216,0.085,1.07
2021-08-19 15:51:50.220,0.045,1.03
2021-08-19 15:51:50.224,0.035,0.965
2021-08-19 15:51:50.228,0.025,0.9
2021-08-19 15:51:50.232,0.005,0.86
2021-08-19 15:51:50.236,-0.025,0.795
2021-08-19 15:51:50.240,-0.06,0.79
2021-08-19 15:51:50.244,-0.11,0.76
2021-08-19 15:51:50.248,-0.105,0.735
2021-08-19 15:51:50.252,-0.125,0.7
2021-08-19 15:51:50.256,-0.12,0.635
2021-08-19 15:51:50.260,-0.105,0.595
2021-08-19 15:51:50.264,-0.13,0.575
2021-08-19 15:51:50.268,-0.105,0.61
2021-08-19 15:51:50.272,-0.095,0.615
2021-08-19 15:51:50.276,-0.075,0.63
2021-08-19 15:51:50.280,-0.075,0.625
2021-08-19 15:51:50.284,-0.055,0.635
2021-08-19 15:51:50.288,-0.025,0.66
2021-08-19 15:51:50.292,0.04,0.675
2021-08-19 15:51:50.296,0.2,0.675
2021-08-19 15:51:50.300,0.37,0.66
2021-08-19 15:51:50.304,0.405,0.7
2021-08-19 15:51:50.308,0.225,0.755
2021-08-19 15:51:50.312,-0.145,0.83
2021-08-19 15:51:50.316,-0.765,0.785
2021-08-19 15:51:50.320,-1.445,0.555
2021-08-19 15:51:50.404,-0.89,-1.505
2021-08-19 15:51:50.408,-0.66,-0.96
2021-08-19 15:51:50.412,-0.47,-0.545
2021-08-19 15:51:50.416,-0.295,-0.245
2021-08-19 15:51:50.420,-0.125,0.02
2021-08-19 15:51:50.424,-0.01,0.215
2021-08-19 15:51:50.428,0.07,0.395
2021-08-19 15:51:50.432,0.135,0.59
2021-08-19 15:51:50.436,0.135,0.705
2021-08-19 15:51:50.440,0.135,0.82
2021-08-19 15:51:50.444,0.185,0.945
2021-08-19 15:51:50.448,0.215,1.03
2021-08-19 15:51:50.452,0.24,1.1
2021-08-19 15:51:50.456,0.25,1.15
2021-08-19 15:51:50.460,0.25,1.165
2021-08-19 15:51:50.464,0.255,1.2
2021-08-19 15:51:50.468,0.265,1.225
2021-08-19 15:51:50.472,0.31,1.27
2021-08-19 15:51:50.476,0.31,1.275
2021-08-19 15:51:50.480,0.335,1.3
2021-08-19 15:51:50.484,0.35,1.315
2021-08-19 15:51:50.488,0.315,1.32
2021-08-19 15:51:50.492,0.335,1.325
2021-08-19 15:51:50.496,0.335,1.355
2021-08-19 15:51:50.500,0.365,1.37
2021-08-19 15:51:50.504,0.37,1.395
2021-08-19 15:51:50.508,0.375,1.395
2021-08-19 15:51:50.512,0.37,1.415
2021-08-19 15:51:50.516,0.34,1.44
2021-08-19 15:51:50.520,0.35,1.455
2021-08-19 15:51:50.524,0.35,1.475
2021-08-19 15:51:50.528,0.365,1.46
2021-08-19 15:51:50.532,0.385,1.46
2021-08-19 15:51:50.536,0.375,1.43
2021-08-19 15:51:50.540,0.385,1.465
2021-08-19 15:51:50.544,0.375,1.485
2021-08-19 15:51:50.548,0.415,1.52
2021-08-19 15:51:50.552,0.41,1.52
2021-08-19 15:51:50.556,0.41,1.535
2021-08-19 15:51:50.560,0.385,1.585
2021-08-19 15:51:50.564,0.385,1.595
