Time,ECG1,ECG2
2021-08-19 02:49:40.384,-0.03,0.585
2021-08-19 02:49:40.388,-0.08,0.545
2021-08-19 02:49:40.392,-0.115,0.455
2021-08-19 02:49:40.396,-0.085,0.42
2021-08-19 02:49:40.400,-0.055,0.425
2021-08-19 02:49:40.404,-0.105,0.435
2021-08-19 02:49:40.408,-0.195,0.385
2021-08-19 02:49:40.412,-0.225,0.315
2021-08-19 02:49:40.416,-0.145,0.295
2021-08-19 02:49:40.420,-0.22,0.275
2021-08-19 02:49:40.424,-0.265,0.155
2021-08-19 02:49:40.428,-0.26,0.135
2021-08-19 02:49:40.432,-0.21,0.125
2021-08-19 02:49:40.436,-0.245,0.11
2021-08-19 02:49:40.440,-0.295,0.035
2021-08-19 02:49:40.444,-0.275,-0.045
2021-08-19 02:49:40.448,-0.22,-0.06
2021-08-19 02:49:40.452,-0.225,-0.05
2021-08-19 02:49:40.456,-0.29,-0.055
2021-08-19 02:49:40.460,-0.26,-0.12
2021-08-19 02:49:40.464,-0.195,-0.125
2021-08-19 02:49:40.468,-0.225,-0.135
2021-08-19 02:49:40.472,-0.275,-0.14
2021-08-19 02:49:40.476,-0.305,-0.195
2021-08-19 02:49:40.480,-0.285,-0.205
2021-08-19 02:49:40.484,-0.3,-0.215
2021-08-19 02:49:40.488,-0.33,-0.27
2021-08-19 02:49:40.492,-0.365,-0.32
2021-08-19 02:49:40.496,-0.31,-0.33
2021-08-19 02:49:40.500,-0.31,-0.305
2021-08-19 02:49:40.504,-0.33,-0.26
2021-08-19 02:49:40.508,-0.36,-0.34
2021-08-19 02:49:40.512,-0.34,-0.355
2021-08-19 02:49:40.516,-0.285,-0.3
2021-08-19 02:49:40.520,-0.3,-0.255
2021-08-19 02:49:40.524,-0.345,-0.32
2021-08-19 02:49:40.528,-0.32,-0.34
2021-08-19 02:49:40.532,-0.25,-0.315
2021-08-19 02:49:40.536,-0.29,-0.24
2021-08-19 02:49:40.540,-0.305,-0.3
2021-08-19 02:49:40.544,-0.33,-0.32
2021-08-19 02:49:40.548,-0.26,-0.26
2021-08-19 02:49:40.552,-0.28,-0.14
2021-08-19 02:49:40.556,-0.305,-0.03
2021-08-19 02:49:40.560,-0.29,0.035
2021-08-19 02:49:40.564,-0.225,0.095
2021-08-19 02:49:40.568,-0.13,0.11
2021-08-19 02:49:40.572,0.005,0.01
2021-08-19 02:49:40.576,0.265,-0.19
2021-08-19 02:49:40.580,0.545,-0.285
2021-08-19 02:49:40.584,0.62,-0.175
2021-08-19 02:49:40.588,0.18,0.0
2021-08-19 02:49:40.592,-0.165,0.285
2021-08-19 02:49:40.596,-0.375,0.705
2021-08-19 02:49:40.600,-0.605,1.195
2021-08-19 02:49:40.604,-0.88,1.405
2021-08-19 02:49:40.608,-0.99,1.315
2021-08-19 02:49:40.612,-0.825,1.26
2021-08-19 02:49:40.616,-0.695,1.325
2021-08-19 02:49:40.620,-0.695,1.605
2021-08-19 02:49:40.644,-0.46,1.6
2021-08-19 02:49:40.648,-0.38,1.08
2021-08-19 02:49:40.652,-0.36,0.31
2021-08-19 02:49:40.656,-0.305,-0.405
2021-08-19 02:49:40.660,-0.18,-0.665
2021-08-19 02:49:40.664,-0.045,-0.59
2021-08-19 02:49:40.668,-0.075,-0.46
2021-08-19 02:49:40.672,-0.15,-0.435
2021-08-19 02:49:40.676,-0.095,-0.405
2021-08-19 02:49:40.680,-0.05,-0.39
2021-08-19 02:49:40.684,-0.08,-0.37
2021-08-19 02:49:40.688,-0.145,-0.445
2021-08-19 02:49:40.692,-0.14,-0.43
2021-08-19 02:49:40.696,-0.155,-0.415
2021-08-19 02:49:40.700,-0.135,-0.39
2021-08-19 02:49:40.704,-0.16,-0.46
2021-08-19 02:49:40.708,-0.11,-0.53
2021-08-19 02:49:40.712,-0.04,-0.51
2021-08-19 02:49:40.716,-0.09,-0.585
2021-08-19 02:49:40.720,-0.14,-0.585
2021-08-19 02:49:40.724,-0.1,-0.62
2021-08-19 02:49:40.728,-0.02,-0.6
2021-08-19 02:49:40.732,-0.025,-0.64
2021-08-19 02:49:40.736,-0.04,-0.7
2021-08-19 02:49:40.740,0.0,-0.725
2021-08-19 02:49:40.744,0.095,-0.715
2021-08-19 02:49:40.748,0.105,-0.705
2021-08-19 02:49:40.752,0.06,-0.765
2021-08-19 02:49:40.756,0.07,-0.82
2021-08-19 02:49:40.760,0.135,-0.81
2021-08-19 02:49:40.764,0.145,-0.805
2021-08-19 02:49:40.768,0.115,-0.9
2021-08-19 02:49:40.772,0.085,-0.955
2021-08-19 02:49:40.776,0.115,-0.985
2021-08-19 02:49:40.780,0.155,-0.985
2021-08-19 02:49:40.784,0.125,-1.04
2021-08-19 02:49:40.788,0.145,-1.135
2021-08-19 02:49:40.792,0.205,-1.14
2021-08-19 02:49:40.796,0.22,-1.165
2021-08-19 02:49:40.800,0.205,-1.17
2021-08-19 02:49:40.804,0.165,-1.24
2021-08-19 02:49:40.808,0.185,-1.25
2021-08-19 02:49:40.812,0.185,-1.235
2021-08-19 02:49:40.816,0.12,-1.255
2021-08-19 02:49:40.820,0.07,-1.32
2021-08-19 02:49:40.824,0.1,-1.295
2021-08-19 02:49:40.828,0.085,-1.26
2021-08-19 02:49:40.832,-0.01,-1.24
2021-08-19 02:49:40.836,-0.055,-1.225
2021-08-19 02:49:40.840,-0.055,-1.175
2021-08-19 02:49:40.844,-0.035,-1.12
2021-08-19 02:49:40.848,-0.125,-1.08
2021-08-19 02:49:40.852,-0.17,-1.055
2021-08-19 02:49:40.856,-0.14,-0.985
2021-08-19 02:49:40.860,-0.15,-0.865
2021-08-19 02:49:40.864,-0.225,-0.78
2021-08-19 02:49:40.868,-0.235,-0.745
2021-08-19 02:49:40.872,-0.22,-0.675
2021-08-19 02:49:40.876,-0.205,-0.54
2021-08-19 02:49:40.880,-0.24,-0.44
2021-08-19 02:49:40.884,-0.265,-0.415
2021-08-19 02:49:40.888,-0.205,-0.32
2021-08-19 02:49:40.892,-0.18,-0.205
2021-08-19 02:49:40.896,-0.19,-0.13
2021-08-19 02:49:40.900,-0.215,-0.12
2021-08-19 02:49:40.904,-0.19,0.0
2021-08-19 02:49:40.908,-0.05,0.295
2021-08-19 02:49:40.912,0.165,0.77
2021-08-19 02:49:40.916,0.41,0.97
2021-08-19 02:49:40.920,0.645,0.95
2021-08-19 02:49:40.924,0.915,0.87
2021-08-19 02:49:40.928,0.99,0.955
2021-08-19 02:49:40.932,0.815,1.145
2021-08-19 02:49:40.936,0.48,1.28
2021-08-19 02:49:40.940,-0.135,1.455
2021-08-19 02:49:40.944,-0.63,1.485
2021-08-19 02:49:40.948,-0.78,1.435
2021-08-19 02:49:40.952,-0.63,1.475
2021-08-19 02:49:40.956,-0.585,1.585
2021-08-19 02:49:40.960,-0.685,1.9
2021-08-19 02:49:40.972,-0.725,1.85
2021-08-19 02:49:40.976,-0.81,1.475
2021-08-19 02:49:40.980,-0.975,1.07
2021-08-19 02:49:40.984,-0.97,0.815
2021-08-19 02:49:40.988,-0.84,0.675
2021-08-19 02:49:40.992,-0.755,0.485
2021-08-19 02:49:40.996,-0.68,0.03
2021-08-19 02:49:41.000,-0.475,-0.365
2021-08-19 02:49:41.004,-0.205,-0.585
2021-08-19 02:49:41.008,-0.025,-0.645
2021-08-19 02:49:41.012,-0.035,-0.665
2021-08-19 02:49:41.016,-0.09,-0.61
2021-08-19 02:49:41.020,-0.1,-0.595
2021-08-19 02:49:41.024,-0.065,-0.55
2021-08-19 02:49:41.028,-0.135,-0.565
2021-08-19 02:49:41.032,-0.2,-0.615
2021-08-19 02:49:41.036,-0.18,-0.67
2021-08-19 02:49:41.040,-0.12,-0.625
2021-08-19 02:49:41.044,-0.18,-0.65
2021-08-19 02:49:41.048,-0.22,-0.675
2021-08-19 02:49:41.052,-0.185,-0.695
2021-08-19 02:49:41.056,-0.14,-0.655
2021-08-19 02:49:41.060,-0.14,-0.665
2021-08-19 02:49:41.064,-0.2,-0.715
2021-08-19 02:49:41.068,-0.16,-0.73
2021-08-19 02:49:41.072,-0.08,-0.69
2021-08-19 02:49:41.076,-0.055,-0.68
2021-08-19 02:49:41.080,-0.14,-0.695
2021-08-19 02:49:41.084,-0.095,-0.715
2021-08-19 02:49:41.088,-0.05,-0.705
2021-08-19 02:49:41.092,0.015,-0.66
2021-08-19 02:49:41.096,-0.055,-0.675
2021-08-19 02:49:41.100,0.03,-0.725
2021-08-19 02:49:41.104,0.08,-0.655
2021-08-19 02:49:41.108,0.075,-0.605
2021-08-19 02:49:41.112,0.03,-0.6
2021-08-19 02:49:41.116,-0.005,-0.64
2021-08-19 02:49:41.120,0.06,-0.625
2021-08-19 02:49:41.124,0.08,-0.59
2021-08-19 02:49:41.128,0.09,-0.635
2021-08-19 02:49:41.132,0.075,-0.705
2021-08-19 02:49:41.136,0.12,-0.705
2021-08-19 02:49:41.140,0.15,-0.7
2021-08-19 02:49:41.144,0.165,-0.73
2021-08-19 02:49:41.148,0.155,-0.725
2021-08-19 02:49:41.152,0.175,-0.68
2021-08-19 02:49:41.156,0.225,-0.615
2021-08-19 02:49:41.160,0.16,-0.615
2021-08-19 02:49:41.164,0.175,-0.695
2021-08-19 02:49:41.168,0.18,-0.665
2021-08-19 02:49:41.172,0.19,-0.65
2021-08-19 02:49:41.176,0.165,-0.62
2021-08-19 02:49:41.180,0.085,-0.645
2021-08-19 02:49:41.184,0.085,-0.595
2021-08-19 02:49:41.188,0.095,-0.54
2021-08-19 02:49:41.192,0.035,-0.465
2021-08-19 02:49:41.196,-0.065,-0.48
2021-08-19 02:49:41.200,-0.08,-0.48
2021-08-19 02:49:41.204,-0.1,-0.39
2021-08-19 02:49:41.208,-0.135,-0.375
2021-08-19 02:49:41.212,-0.225,-0.37
2021-08-19 02:49:41.216,-0.195,-0.335
2021-08-19 02:49:41.220,-0.19,-0.265
2021-08-19 02:49:41.224,-0.22,-0.245
2021-08-19 02:49:41.228,-0.295,-0.235
2021-08-19 02:49:41.232,-0.25,-0.225
2021-08-19 02:49:41.236,-0.24,-0.135
2021-08-19 02:49:41.240,-0.265,-0.145
2021-08-19 02:49:41.244,-0.3,-0.205
2021-08-19 02:49:41.248,-0.245,-0.19
2021-08-19 02:49:41.252,-0.215,-0.16
2021-08-19 02:49:41.256,-0.29,-0.12
2021-08-19 02:49:41.260,-0.295,-0.195
2021-08-19 02:49:41.264,-0.27,-0.145
2021-08-19 02:49:41.268,-0.22,-0.14
2021-08-19 02:49:41.272,-0.245,-0.115
2021-08-19 02:49:41.276,-0.285,-0.18
2021-08-19 02:49:41.280,-0.23,-0.17
2021-08-19 02:49:41.284,-0.155,-0.11
2021-08-19 02:49:41.288,-0.185,-0.065
2021-08-19 02:49:41.292,-0.26,-0.07
2021-08-19 02:49:41.296,-0.255,-0.12
2021-08-19 02:49:41.300,-0.195,-0.075
2021-08-19 02:49:41.304,-0.23,-0.035
2021-08-19 02:49:41.308,-0.29,-0.03
2021-08-19 02:49:41.312,-0.28,-0.075
2021-08-19 02:49:41.316,-0.24,-0.045
2021-08-19 02:49:41.320,-0.27,-0.03
2021-08-19 02:49:41.324,-0.3,-0.055
2021-08-19 02:49:41.328,-0.285,-0.09
2021-08-19 02:49:41.332,-0.23,-0.075
2021-08-19 02:49:41.336,-0.265,-0.045
2021-08-19 02:49:41.340,-0.305,-0.135
2021-08-19 02:49:41.344,-0.32,-0.16
2021-08-19 02:49:41.348,-0.29,-0.145
2021-08-19 02:49:41.352,-0.37,-0.045
2021-08-19 02:49:41.356,-0.465,0.025
2021-08-19 02:49:41.360,-0.285,0.19
2021-08-19 02:49:41.364,0.11,0.365
2021-08-19 02:49:41.368,0.525,0.665
2021-08-19 02:49:41.372,0.895,1.015
2021-08-19 02:49:41.376,1.305,0.37
2021-08-19 02:49:41.380,1.63,-0.57
2021-08-19 02:49:41.384,1.66,-1.435
2021-08-19 02:49:41.412,-0.45,-1.955
2021-08-19 02:49:41.416,-0.305,-1.145
2021-08-19 02:49:41.420,-0.36,-0.645
2021-08-19 02:49:41.424,-0.455,-0.415
2021-08-19 02:49:41.428,-0.435,-0.345
2021-08-19 02:49:41.432,-0.42,-0.265
2021-08-19 02:49:41.436,-0.455,-0.21
2021-08-19 02:49:41.440,-0.45,-0.21
2021-08-19 02:49:41.444,-0.4,-0.17
2021-08-19 02:49:41.448,-0.35,-0.14
2021-08-19 02:49:41.452,-0.38,-0.18
2021-08-19 02:49:41.456,-0.39,-0.17
2021-08-19 02:49:41.460,-0.34,-0.19
2021-08-19 02:49:41.464,-0.285,-0.12
2021-08-19 02:49:41.468,-0.32,-0.06
2021-08-19 02:49:41.472,-0.355,-0.07
2021-08-19 02:49:41.476,-0.3,-0.035
2021-08-19 02:49:41.480,-0.265,0.005
2021-08-19 02:49:41.484,-0.335,0.02
2021-08-19 02:49:41.488,-0.37,0.02
2021-08-19 02:49:41.492,-0.335,0.02
2021-08-19 02:49:41.496,-0.315,0.125
2021-08-19 02:49:41.500,-0.3,0.175
2021-08-19 02:49:41.504,-0.32,0.19
2021-08-19 02:49:41.508,-0.275,0.215
2021-08-19 02:49:41.512,-0.23,0.315
2021-08-19 02:49:41.516,-0.28,0.34
2021-08-19 02:49:41.520,-0.29,0.32
2021-08-19 02:49:41.524,-0.29,0.28
2021-08-19 02:49:41.528,-0.27,0.33
2021-08-19 02:49:41.532,-0.295,0.37
2021-08-19 02:49:41.536,-0.32,0.38
2021-08-19 02:49:41.540,-0.28,0.37
2021-08-19 02:49:41.544,-0.25,0.43
2021-08-19 02:49:41.548,-0.22,0.48
2021-08-19 02:49:41.552,-0.265,0.535
2021-08-19 02:49:41.556,-0.23,0.515
2021-08-19 02:49:41.560,-0.205,0.56
2021-08-19 02:49:41.564,-0.175,0.635
2021-08-19 02:49:41.568,-0.28,0.615
2021-08-19 02:49:41.572,-0.26,0.595
2021-08-19 02:49:41.576,-0.22,0.64
2021-08-19 02:49:41.580,-0.225,0.7
2021-08-19 02:49:41.584,-0.24,0.665
2021-08-19 02:49:41.588,-0.285,0.65
2021-08-19 02:49:41.592,-0.245,0.645
2021-08-19 02:49:41.596,-0.235,0.685
2021-08-19 02:49:41.600,-0.235,0.65
2021-08-19 02:49:41.604,-0.245,0.64
2021-08-19 02:49:41.608,-0.195,0.64
2021-08-19 02:49:41.612,-0.135,0.68
2021-08-19 02:49:41.616,-0.185,0.665
2021-08-19 02:49:41.620,-0.185,0.61
2021-08-19 02:49:41.624,-0.135,0.575
2021-08-19 02:49:41.628,-0.105,0.565
2021-08-19 02:49:41.632,-0.175,0.49
2021-08-19 02:49:41.636,-0.19,0.375
2021-08-19 02:49:41.640,-0.125,0.325
2021-08-19 02:49:41.644,-0.12,0.3
2021-08-19 02:49:41.648,-0.2,0.215
2021-08-19 02:49:41.652,-0.24,0.155
2021-08-19 02:49:41.656,-0.185,0.08
2021-08-19 02:49:41.660,-0.15,0.085
2021-08-19 02:49:41.664,-0.215,0.085
2021-08-19 02:49:41.668,-0.275,0.015
2021-08-19 02:49:41.672,-0.225,0.02
2021-08-19 02:49:41.676,-0.23,0.02
2021-08-19 02:49:41.680,-0.22,0.015
2021-08-19 02:49:41.684,-0.255,0.01
2021-08-19 02:49:41.688,-0.225,0.01
2021-08-19 02:49:41.692,-0.23,0.035
2021-08-19 02:49:41.696,-0.285,0.045
2021-08-19 02:49:41.700,-0.345,-0.05
2021-08-19 02:49:41.704,-0.285,-0.08
2021-08-19 02:49:41.708,-0.23,-0.035
2021-08-19 02:49:41.712,-0.265,-0.02
2021-08-19 02:49:41.716,-0.33,-0.06
2021-08-19 02:49:41.720,-0.285,-0.075
2021-08-19 02:49:41.724,-0.235,-0.08
2021-08-19 02:49:41.728,-0.255,-0.025
2021-08-19 02:49:41.732,-0.275,-0.11
2021-08-19 02:49:41.736,-0.265,-0.12
2021-08-19 02:49:41.740,-0.21,-0.115
2021-08-19 02:49:41.744,-0.275,-0.11
2021-08-19 02:49:41.748,-0.32,-0.17
2021-08-19 02:49:41.752,-0.3,-0.205
2021-08-19 02:49:41.756,-0.29,-0.185
2021-08-19 02:49:41.760,-0.31,-0.17
2021-08-19 02:49:41.764,-0.365,-0.2
2021-08-19 02:49:41.768,-0.325,-0.225
2021-08-19 02:49:41.772,-0.28,-0.23
2021-08-19 02:49:41.776,-0.31,-0.2
2021-08-19 02:49:41.780,-0.385,-0.26
2021-08-19 02:49:41.784,-0.36,-0.295
2021-08-19 02:49:41.788,-0.31,-0.215
2021-08-19 02:49:41.792,-0.31,-0.225
2021-08-19 02:49:41.796,-0.37,-0.27
2021-08-19 02:49:41.800,-0.325,-0.315
2021-08-19 02:49:41.804,-0.27,-0.26
2021-08-19 02:49:41.808,-0.345,-0.185
2021-08-19 02:49:41.812,-0.43,-0.14
2021-08-19 02:49:41.816,-0.425,0.03
2021-08-19 02:49:41.820,-0.155,0.275
2021-08-19 02:49:41.824,0.18,0.455
2021-08-19 02:49:41.828,0.53,0.605
2021-08-19 02:49:41.832,0.985,1.045
2021-08-19 02:49:41.836,1.415,0.9
2021-08-19 02:49:41.840,1.59,0.05
2021-08-19 02:49:41.844,1.345,-0.89
2021-08-19 02:49:41.848,0.55,-1.56
2021-08-19 02:49:41.872,-0.4,-1.71
2021-08-19 02:49:41.876,-0.305,-1.015
2021-08-19 02:49:41.880,-0.305,-0.61
2021-08-19 02:49:41.884,-0.315,-0.22
2021-08-19 02:49:41.888,-0.375,-0.105
2021-08-19 02:49:41.892,-0.45,-0.095
2021-08-19 02:49:41.896,-0.425,-0.135
2021-08-19 02:49:41.900,-0.37,-0.12
2021-08-19 02:49:41.904,-0.33,-0.08
2021-08-19 02:49:41.908,-0.36,-0.105
2021-08-19 02:49:41.912,-0.395,-0.12
2021-08-19 02:49:41.916,-0.305,-0.13
2021-08-19 02:49:41.920,-0.31,-0.055
2021-08-19 02:49:41.924,-0.375,-0.08
2021-08-19 02:49:41.928,-0.415,-0.1
2021-08-19 02:49:41.932,-0.34,-0.145
2021-08-19 02:49:41.936,-0.3,-0.105
2021-08-19 02:49:41.940,-0.31,-0.05
2021-08-19 02:49:41.944,-0.34,-0.125
2021-08-19 02:49:41.948,-0.305,-0.16
2021-08-19 02:49:41.952,-0.255,-0.1
2021-08-19 02:49:41.956,-0.295,-0.055
2021-08-19 02:49:41.960,-0.33,-0.09
2021-08-19 02:49:41.964,-0.34,-0.12
2021-08-19 02:49:41.968,-0.265,-0.06
2021-08-19 02:49:41.972,-0.285,-0.03
2021-08-19 02:49:41.976,-0.34,-0.03
2021-08-19 02:49:41.980,-0.345,-0.05
2021-08-19 02:49:41.984,-0.29,-0.01
2021-08-19 02:49:41.988,-0.28,0.08
2021-08-19 02:49:41.992,-0.325,0.095
2021-08-19 02:49:41.996,-0.34,0.06
2021-08-19 02:49:42.000,-0.28,0.12
2021-08-19 02:49:42.004,-0.26,0.165
2021-08-19 02:49:42.008,-0.295,0.195
2021-08-19 02:49:42.012,-0.245,0.175
2021-08-19 02:49:42.016,-0.195,0.235
2021-08-19 02:49:42.020,-0.165,0.345
2021-08-19 02:49:42.024,-0.205,0.34
2021-08-19 02:49:42.028,-0.155,0.35
2021-08-19 02:49:42.032,-0.135,0.41
2021-08-19 02:49:42.036,-0.11,0.495
2021-08-19 02:49:42.040,-0.165,0.51
2021-08-19 02:49:42.044,-0.165,0.47
2021-08-19 02:49:42.048,-0.105,0.455
2021-08-19 02:49:42.052,-0.085,0.54
2021-08-19 02:49:42.056,-0.13,0.5
2021-08-19 02:49:42.060,-0.115,0.485
2021-08-19 02:49:42.064,-0.04,0.535
2021-08-19 02:49:42.068,-0.025,0.635
2021-08-19 02:49:42.072,-0.075,0.64
2021-08-19 02:49:42.076,-0.115,0.515
2021-08-19 02:49:42.080,-0.055,0.465
2021-08-19 02:49:42.084,0.01,0.49
2021-08-19 02:49:42.088,-0.025,0.49
2021-08-19 02:49:42.092,-0.085,0.41
2021-08-19 02:49:42.096,-0.085,0.325
2021-08-19 02:49:42.100,-0.04,0.355
2021-08-19 02:49:42.104,-0.085,0.325
2021-08-19 02:49:42.108,-0.145,0.255
2021-08-19 02:49:42.112,-0.15,0.2
2021-08-19 02:49:42.116,-0.13,0.2
2021-08-19 02:49:42.120,-0.16,0.165
2021-08-19 02:49:42.124,-0.23,0.07
2021-08-19 02:49:42.128,-0.255,0.0
2021-08-19 02:49:42.132,-0.24,-0.03
2021-08-19 02:49:42.136,-0.27,-0.055
2021-08-19 02:49:42.140,-0.335,-0.125
2021-08-19 02:49:42.144,-0.32,-0.18
2021-08-19 02:49:42.148,-0.29,-0.17
2021-08-19 02:49:42.152,-0.26,-0.15
2021-08-19 02:49:42.156,-0.32,-0.175
2021-08-19 02:49:42.160,-0.26,-0.235
2021-08-19 02:49:42.164,-0.22,-0.205
2021-08-19 02:49:42.168,-0.255,-0.17
2021-08-19 02:49:42.172,-0.32,-0.24
2021-08-19 02:49:42.176,-0.305,-0.245
2021-08-19 02:49:42.180,-0.26,-0.24
2021-08-19 02:49:42.184,-0.285,-0.18
2021-08-19 02:49:42.188,-0.33,-0.27
2021-08-19 02:49:42.192,-0.345,-0.29
2021-08-19 02:49:42.196,-0.31,-0.275
2021-08-19 02:49:42.200,-0.29,-0.205
2021-08-19 02:49:42.204,-0.34,-0.22
2021-08-19 02:49:42.208,-0.375,-0.29
2021-08-19 02:49:42.212,-0.35,-0.245
2021-08-19 02:49:42.216,-0.3,-0.205
2021-08-19 02:49:42.220,-0.345,-0.245
2021-08-19 02:49:42.224,-0.39,-0.295
2021-08-19 02:49:42.228,-0.335,-0.28
2021-08-19 02:49:42.232,-0.305,-0.255
2021-08-19 02:49:42.236,-0.32,-0.27
2021-08-19 02:49:42.240,-0.36,-0.315
2021-08-19 02:49:42.244,-0.335,-0.325
2021-08-19 02:49:42.248,-0.305,-0.265
2021-08-19 02:49:42.252,-0.34,-0.29
2021-08-19 02:49:42.256,-0.37,-0.335
2021-08-19 02:49:42.260,-0.34,-0.37
2021-08-19 02:49:42.264,-0.32,-0.28
2021-08-19 02:49:42.268,-0.35,-0.26
2021-08-19 02:49:42.272,-0.395,-0.33
2021-08-19 02:49:42.276,-0.345,-0.345
2021-08-19 02:49:42.280,-0.33,-0.28
2021-08-19 02:49:42.284,-0.37,-0.285
2021-08-19 02:49:42.288,-0.4,-0.335
2021-08-19 02:49:42.292,-0.345,-0.35
2021-08-19 02:49:42.296,-0.295,-0.33
2021-08-19 02:49:42.300,-0.31,-0.32
2021-08-19 02:49:42.304,-0.39,-0.365
2021-08-19 02:49:42.308,-0.395,-0.36
2021-08-19 02:49:42.312,-0.34,-0.345
2021-08-19 02:49:42.316,-0.345,-0.29
2021-08-19 02:49:42.320,-0.4,-0.375
2021-08-19 02:49:42.324,-0.41,-0.45
2021-08-19 02:49:42.328,-0.37,-0.465
2021-08-19 02:49:42.332,-0.44,-0.435
2021-08-19 02:49:42.336,-0.48,-0.505
2021-08-19 02:49:42.340,-0.46,-0.52
2021-08-19 02:49:42.344,-0.415,-0.525
2021-08-19 02:49:42.348,-0.385,-0.515
2021-08-19 02:49:42.352,-0.435,-0.525
2021-08-19 02:49:42.356,-0.42,-0.555
2021-08-19 02:49:42.360,-0.335,-0.505
2021-08-19 02:49:42.364,-0.28,-0.335
2021-08-19 02:49:42.368,-0.33,-0.245
2021-08-19 02:49:42.372,-0.345,-0.26
2021-08-19 02:49:42.376,-0.32,-0.175
2021-08-19 02:49:42.380,-0.275,-0.085
2021-08-19 02:49:42.384,-0.335,-0.1
2021-08-19 02:49:42.388,-0.375,-0.19
2021-08-19 02:49:42.392,-0.36,-0.19
2021-08-19 02:49:42.396,-0.355,-0.2
2021-08-19 02:49:42.400,-0.38,-0.23
2021-08-19 02:49:42.404,-0.41,-0.3
2021-08-19 02:49:42.408,-0.365,-0.29
2021-08-19 02:49:42.412,-0.325,-0.27
2021-08-19 02:49:42.416,-0.37,-0.28
2021-08-19 02:49:42.420,-0.405,-0.335
2021-08-19 02:49:42.424,-0.365,-0.37
2021-08-19 02:49:42.428,-0.325,-0.325
2021-08-19 02:49:42.432,-0.37,-0.28
2021-08-19 02:49:42.436,-0.38,-0.33
2021-08-19 02:49:42.440,-0.375,-0.36
2021-08-19 02:49:42.444,-0.295,-0.27
2021-08-19 02:49:42.448,-0.315,-0.235
2021-08-19 02:49:42.452,-0.39,-0.255
2021-08-19 02:49:42.456,-0.51,-0.215
2021-08-19 02:49:42.460,-0.475,0.02
2021-08-19 02:49:42.464,-0.31,0.27
2021-08-19 02:49:42.468,-0.105,0.27
2021-08-19 02:49:42.472,0.185,0.24
2021-08-19 02:49:42.476,0.645,0.45
2021-08-19 02:49:42.480,1.08,0.815
2021-08-19 02:49:42.484,1.32,0.285
2021-08-19 02:49:42.488,1.33,-0.585
2021-08-19 02:49:42.492,0.845,-1.225
2021-08-19 02:49:42.496,0.11,-1.475
2021-08-19 02:49:42.500,-0.475,-1.805
2021-08-19 02:49:42.520,-0.57,-1.875
2021-08-19 02:49:42.524,-0.41,-1.36
2021-08-19 02:49:42.528,-0.255,-0.86
2021-08-19 02:49:42.532,-0.295,-0.455
2021-08-19 02:49:42.536,-0.395,-0.22
2021-08-19 02:49:42.540,-0.41,-0.175
2021-08-19 02:49:42.544,-0.36,-0.155
2021-08-19 02:49:42.548,-0.35,-0.08
2021-08-19 02:49:42.552,-0.4,-0.1
2021-08-19 02:49:42.556,-0.4,-0.1
2021-08-19 02:49:42.560,-0.37,-0.08
2021-08-19 02:49:42.564,-0.365,-0.03
2021-08-19 02:49:42.568,-0.4,-0.085
2021-08-19 02:49:42.572,-0.4,-0.105
2021-08-19 02:49:42.576,-0.3,-0.09
2021-08-19 02:49:42.580,-0.32,-0.05
2021-08-19 02:49:42.584,-0.375,-0.045
2021-08-19 02:49:42.588,-0.38,-0.07
2021-08-19 02:49:42.592,-0.35,-0.045
2021-08-19 02:49:42.596,-0.305,-0.02
2021-08-19 02:49:42.600,-0.34,-0.01
2021-08-19 02:49:42.604,-0.355,-0.015
2021-08-19 02:49:42.608,-0.315,-0.025
2021-08-19 02:49:42.612,-0.25,0.025
2021-08-19 02:49:42.616,-0.29,0.055
2021-08-19 02:49:42.620,-0.335,0.025
2021-08-19 02:49:42.624,-0.295,0.02
2021-08-19 02:49:42.628,-0.275,0.085
2021-08-19 02:49:42.632,-0.3,0.125
2021-08-19 02:49:42.636,-0.345,0.065
2021-08-19 02:49:42.640,-0.305,0.085
2021-08-19 02:49:42.644,-0.28,0.16
2021-08-19 02:49:42.648,-0.27,0.175
2021-08-19 02:49:42.652,-0.32,0.19
2021-08-19 02:49:42.656,-0.295,0.19
2021-08-19 02:49:42.660,-0.24,0.245
2021-08-19 02:49:42.664,-0.23,0.32
2021-08-19 02:49:42.668,-0.265,0.275
2021-08-19 02:49:42.672,-0.255,0.295
2021-08-19 02:49:42.676,-0.19,0.335
2021-08-19 02:49:42.680,-0.195,0.43
2021-08-19 02:49:42.684,-0.24,0.395
2021-08-19 02:49:42.688,-0.23,0.375
2021-08-19 02:49:42.692,-0.19,0.4
2021-08-19 02:49:42.696,-0.195,0.49
2021-08-19 02:49:42.700,-0.245,0.46
2021-08-19 02:49:42.704,-0.23,0.455
2021-08-19 02:49:42.708,-0.18,0.48
2021-08-19 02:49:42.712,-0.13,0.53
2021-08-19 02:49:42.716,-0.2,0.51
2021-08-19 02:49:42.720,-0.23,0.495
2021-08-19 02:49:42.724,-0.15,0.48
2021-08-19 02:49:42.728,-0.11,0.555
2021-08-19 02:49:42.732,-0.14,0.61
2021-08-19 02:49:42.736,-0.175,0.57
2021-08-19 02:49:42.740,-0.105,0.565
2021-08-19 02:49:42.744,-0.03,0.62
2021-08-19 02:49:42.748,-0.035,0.575
2021-08-19 02:49:42.752,-0.11,0.57
2021-08-19 02:49:42.756,-0.155,0.58
2021-08-19 02:49:42.760,-0.135,0.61
2021-08-19 02:49:42.764,-0.16,0.57
2021-08-19 02:49:42.768,-0.215,0.435
2021-08-19 02:49:42.772,-0.23,0.325
2021-08-19 02:49:42.776,-0.195,0.29
2021-08-19 02:49:42.780,-0.205,0.29
2021-08-19 02:49:42.784,-0.3,0.24
2021-08-19 02:49:42.788,-0.33,0.17
2021-08-19 02:49:42.792,-0.25,0.12
2021-08-19 02:49:42.796,-0.3,0.115
2021-08-19 02:49:42.800,-0.335,0.03
2021-08-19 02:49:42.804,-0.335,-0.02
2021-08-19 02:49:42.808,-0.245,-0.01
2021-08-19 02:49:42.812,-0.24,0.0
2021-08-19 02:49:42.816,-0.29,-0.075
2021-08-19 02:49:42.820,-0.31,-0.105
2021-08-19 02:49:42.824,-0.265,-0.125
2021-08-19 02:49:42.828,-0.305,-0.055
2021-08-19 02:49:42.832,-0.34,-0.15
2021-08-19 02:49:42.836,-0.375,-0.255
2021-08-19 02:49:42.840,-0.36,-0.23
2021-08-19 02:49:42.844,-0.33,-0.2
2021-08-19 02:49:42.848,-0.385,-0.225
2021-08-19 02:49:42.852,-0.35,-0.27
2021-08-19 02:49:42.856,-0.31,-0.27
2021-08-19 02:49:42.860,-0.32,-0.21
2021-08-19 02:49:42.864,-0.335,-0.225
2021-08-19 02:49:42.868,-0.38,-0.26
2021-08-19 02:49:42.872,-0.32,-0.245
2021-08-19 02:49:42.876,-0.295,-0.2
2021-08-19 02:49:42.880,-0.3,-0.17
2021-08-19 02:49:42.884,-0.37,-0.26
2021-08-19 02:49:42.888,-0.29,-0.275
2021-08-19 02:49:42.892,-0.305,-0.215
2021-08-19 02:49:42.896,-0.32,-0.2
2021-08-19 02:49:42.900,-0.39,-0.265
2021-08-19 02:49:42.904,-0.325,-0.245
2021-08-19 02:49:42.908,-0.35,-0.165
2021-08-19 02:49:42.912,-0.425,-0.04
2021-08-19 02:49:42.916,-0.465,0.09
2021-08-19 02:49:42.920,-0.38,0.19
2021-08-19 02:49:42.924,-0.095,0.205
2021-08-19 02:49:42.928,0.285,0.1
2021-08-19 02:49:42.932,0.71,0.28
2021-08-19 02:49:42.936,1.135,0.635
2021-08-19 02:49:42.940,1.38,-0.04
2021-08-19 02:49:42.944,0.995,-0.91
2021-08-19 02:49:42.948,0.28,-1.605
2021-08-19 02:49:42.976,-0.275,-1.46
2021-08-19 02:49:42.980,-0.3,-0.905
2021-08-19 02:49:42.984,-0.36,-0.46
2021-08-19 02:49:42.988,-0.335,-0.245
2021-08-19 02:49:42.992,-0.36,-0.175
2021-08-19 02:49:42.996,-0.42,-0.19
2021-08-19 02:49:43.000,-0.425,-0.19
2021-08-19 02:49:43.004,-0.365,-0.205
2021-08-19 02:49:43.008,-0.35,-0.18
2021-08-19 02:49:43.012,-0.38,-0.17
2021-08-19 02:49:43.016,-0.4,-0.2
2021-08-19 02:49:43.020,-0.355,-0.185
2021-08-19 02:49:43.024,-0.31,-0.14
2021-08-19 02:49:43.028,-0.355,-0.115
2021-08-19 02:49:43.032,-0.365,-0.145
2021-08-19 02:49:43.036,-0.32,-0.14
2021-08-19 02:49:43.040,-0.295,-0.075
2021-08-19 02:49:43.044,-0.35,-0.075
2021-08-19 02:49:43.048,-0.355,-0.115
2021-08-19 02:49:43.052,-0.3,-0.09
2021-08-19 02:49:43.056,-0.26,-0.02
2021-08-19 02:49:43.060,-0.3,0.015
2021-08-19 02:49:43.064,-0.295,-0.05
2021-08-19 02:49:43.068,-0.275,-0.01
2021-08-19 02:49:43.072,-0.225,0.03
2021-08-19 02:49:43.076,-0.245,0.06
2021-08-19 02:49:43.080,-0.29,0.05
2021-08-19 02:49:43.084,-0.24,0.045
2021-08-19 02:49:43.088,-0.185,0.12
2021-08-19 02:49:43.092,-0.2,0.15
2021-08-19 02:49:43.096,-0.255,0.135
2021-08-19 02:49:43.100,-0.235,0.12
2021-08-19 02:49:43.104,-0.185,0.195
2021-08-19 02:49:43.108,-0.18,0.245
2021-08-19 02:49:43.112,-0.24,0.245
2021-08-19 02:49:43.116,-0.215,0.22
2021-08-19 02:49:43.120,-0.15,0.245
2021-08-19 02:49:43.124,-0.155,0.315
2021-08-19 02:49:43.128,-0.19,0.31
2021-08-19 02:49:43.132,-0.245,0.3
2021-08-19 02:49:43.136,-0.14,0.315
2021-08-19 02:49:43.140,-0.15,0.395
2021-08-19 02:49:43.144,-0.18,0.35
2021-08-19 02:49:43.148,-0.19,0.305
2021-08-19 02:49:43.152,-0.135,0.305
2021-08-19 02:49:43.156,-0.105,0.34
2021-08-19 02:49:43.160,-0.15,0.315
2021-08-19 02:49:43.164,-0.15,0.26
2021-08-19 02:49:43.168,-0.105,0.295
2021-08-19 02:49:43.172,-0.08,0.345
2021-08-19 02:49:43.176,-0.135,0.315
2021-08-19 02:49:43.180,-0.19,0.26
2021-08-19 02:49:43.184,-0.16,0.275
2021-08-19 02:49:43.188,-0.13,0.265
2021-08-19 02:49:43.192,-0.195,0.275
2021-08-19 02:49:43.196,-0.265,0.185
2021-08-19 02:49:43.200,-0.265,0.115
2021-08-19 02:49:43.204,-0.235,0.12
2021-08-19 02:49:43.208,-0.305,0.105
2021-08-19 02:49:43.212,-0.345,0.03
2021-08-19 02:49:43.216,-0.33,-0.02
2021-08-19 02:49:43.220,-0.285,0.035
2021-08-19 02:49:43.224,-0.295,-0.005
2021-08-19 02:49:43.228,-0.365,-0.055
2021-08-19 02:49:43.232,-0.33,-0.105
2021-08-19 02:49:43.236,-0.275,-0.08
2021-08-19 02:49:43.240,-0.32,-0.06
2021-08-19 02:49:43.244,-0.36,-0.12
2021-08-19 02:49:43.248,-0.34,-0.14
2021-08-19 02:49:43.252,-0.285,-0.085
2021-08-19 02:49:43.256,-0.31,-0.095
2021-08-19 02:49:43.260,-0.33,-0.12
2021-08-19 02:49:43.264,-0.335,-0.115
2021-08-19 02:49:43.268,-0.3,-0.09
2021-08-19 02:49:43.272,-0.305,-0.065
2021-08-19 02:49:43.276,-0.315,-0.105
2021-08-19 02:49:43.280,-0.315,-0.135
2021-08-19 02:49:43.284,-0.265,-0.115
2021-08-19 02:49:43.288,-0.295,-0.065
2021-08-19 02:49:43.292,-0.33,-0.09
2021-08-19 02:49:43.296,-0.32,-0.13
2021-08-19 02:49:43.300,-0.29,-0.1
2021-08-19 02:49:43.304,-0.31,-0.075
2021-08-19 02:49:43.308,-0.365,-0.105
2021-08-19 02:49:43.312,-0.35,-0.12
2021-08-19 02:49:43.316,-0.295,-0.125
2021-08-19 02:49:43.320,-0.31,-0.115
2021-08-19 02:49:43.324,-0.365,-0.135
2021-08-19 02:49:43.328,-0.35,-0.155
2021-08-19 02:49:43.332,-0.335,-0.14
2021-08-19 02:49:43.336,-0.31,-0.125
2021-08-19 02:49:43.340,-0.405,-0.16
2021-08-19 02:49:43.344,-0.375,-0.215
2021-08-19 02:49:43.348,-0.32,-0.175
2021-08-19 02:49:43.352,-0.315,-0.14
2021-08-19 02:49:43.356,-0.37,-0.175
2021-08-19 02:49:43.360,-0.365,-0.24
2021-08-19 02:49:43.364,-0.32,-0.195
2021-08-19 02:49:43.368,-0.32,-0.135
2021-08-19 02:49:43.372,-0.38,-0.18
2021-08-19 02:49:43.376,-0.37,-0.24
2021-08-19 02:49:43.380,-0.36,-0.2
2021-08-19 02:49:43.384,-0.33,-0.19
2021-08-19 02:49:43.388,-0.365,-0.21
2021-08-19 02:49:43.392,-0.38,-0.24
2021-08-19 02:49:43.396,-0.345,-0.255
2021-08-19 02:49:43.400,-0.315,-0.2
2021-08-19 02:49:43.404,-0.375,-0.195
2021-08-19 02:49:43.408,-0.415,-0.235
2021-08-19 02:49:43.412,-0.34,-0.26
2021-08-19 02:49:43.416,-0.32,-0.22
2021-08-19 02:49:43.420,-0.385,-0.21
2021-08-19 02:49:43.424,-0.42,-0.26
2021-08-19 02:49:43.428,-0.37,-0.25
2021-08-19 02:49:43.432,-0.335,-0.215
2021-08-19 02:49:43.436,-0.375,-0.205
2021-08-19 02:49:43.440,-0.39,-0.24
2021-08-19 02:49:43.444,-0.4,-0.25
2021-08-19 02:49:43.448,-0.33,-0.225
2021-08-19 02:49:43.452,-0.36,-0.205
2021-08-19 02:49:43.456,-0.39,-0.24
2021-08-19 02:49:43.460,-0.37,-0.24
2021-08-19 02:49:43.464,-0.32,-0.215
2021-08-19 02:49:43.468,-0.345,-0.215
2021-08-19 02:49:43.472,-0.4,-0.235
2021-08-19 02:49:43.476,-0.345,-0.25
2021-08-19 02:49:43.480,-0.335,-0.2
2021-08-19 02:49:43.484,-0.34,-0.185
2021-08-19 02:49:43.488,-0.39,-0.25
2021-08-19 02:49:43.492,-0.38,-0.27
2021-08-19 02:49:43.496,-0.335,-0.25
2021-08-19 02:49:43.500,-0.335,-0.205
2021-08-19 02:49:43.504,-0.37,-0.22
2021-08-19 02:49:43.508,-0.385,-0.275
2021-08-19 02:49:43.512,-0.365,-0.265
2021-08-19 02:49:43.516,-0.335,-0.215
2021-08-19 02:49:43.520,-0.37,-0.215
2021-08-19 02:49:43.524,-0.395,-0.245
2021-08-19 02:49:43.528,-0.35,-0.25
2021-08-19 02:49:43.532,-0.315,-0.2
2021-08-19 02:49:43.536,-0.345,-0.21
2021-08-19 02:49:43.540,-0.4,-0.26
2021-08-19 02:49:43.544,-0.36,-0.26
2021-08-19 02:49:43.548,-0.32,-0.235
2021-08-19 02:49:43.552,-0.365,-0.225
2021-08-19 02:49:43.556,-0.405,-0.245
2021-08-19 02:49:43.560,-0.36,-0.245
2021-08-19 02:49:43.564,-0.325,-0.205
2021-08-19 02:49:43.568,-0.37,-0.19
2021-08-19 02:49:43.572,-0.4,-0.27
2021-08-19 02:49:43.576,-0.385,-0.305
2021-08-19 02:49:43.580,-0.35,-0.22
2021-08-19 02:49:43.584,-0.36,-0.175
2021-08-19 02:49:43.588,-0.415,-0.235
2021-08-19 02:49:43.592,-0.375,-0.235
2021-08-19 02:49:43.596,-0.36,-0.205
2021-08-19 02:49:43.600,-0.385,-0.195
2021-08-19 02:49:43.604,-0.42,-0.24
2021-08-19 02:49:43.608,-0.41,-0.24
2021-08-19 02:49:43.612,-0.355,-0.19
2021-08-19 02:49:43.616,-0.365,-0.17
2021-08-19 02:49:43.620,-0.42,-0.21
2021-08-19 02:49:43.624,-0.4,-0.25
2021-08-19 02:49:43.628,-0.35,-0.22
2021-08-19 02:49:43.632,-0.38,-0.165
2021-08-19 02:49:43.636,-0.425,-0.215
2021-08-19 02:49:43.640,-0.425,-0.24
2021-08-19 02:49:43.644,-0.36,-0.25
2021-08-19 02:49:43.648,-0.375,-0.185
2021-08-19 02:49:43.652,-0.4,-0.22
2021-08-19 02:49:43.656,-0.4,-0.23
2021-08-19 02:49:43.660,-0.35,-0.195
2021-08-19 02:49:43.664,-0.32,-0.18
2021-08-19 02:49:43.668,-0.37,-0.215
2021-08-19 02:49:43.672,-0.385,-0.24
2021-08-19 02:49:43.676,-0.34,-0.2
2021-08-19 02:49:43.680,-0.32,-0.15
2021-08-19 02:49:43.684,-0.345,-0.19
2021-08-19 02:49:43.688,-0.32,-0.2
2021-08-19 02:49:43.692,-0.275,-0.16
2021-08-19 02:49:43.696,-0.24,-0.125
2021-08-19 02:49:43.700,-0.27,-0.085
2021-08-19 02:49:43.704,-0.25,-0.04
2021-08-19 02:49:43.708,-0.195,-0.015
2021-08-19 02:49:43.712,-0.195,0.075
2021-08-19 02:49:43.716,-0.175,0.055
2021-08-19 02:49:43.720,-0.14,0.035
2021-08-19 02:49:43.724,-0.135,0.015
2021-08-19 02:49:43.728,-0.17,0.015
2021-08-19 02:49:43.732,-0.195,-0.04
2021-08-19 02:49:43.736,-0.3,-0.165
2021-08-19 02:49:43.740,-0.275,-0.22
2021-08-19 02:49:43.744,-0.275,-0.235
2021-08-19 02:49:43.748,-0.315,-0.26
2021-08-19 02:49:43.752,-0.35,-0.275
2021-08-19 02:49:43.756,-0.33,-0.29
2021-08-19 02:49:43.760,-0.28,-0.275
2021-08-19 02:49:43.764,-0.385,-0.24
2021-08-19 02:49:43.768,-0.445,-0.305
2021-08-19 02:49:43.772,-0.46,-0.28
2021-08-19 02:49:43.776,-0.42,-0.23
2021-08-19 02:49:43.780,-0.46,-0.22
2021-08-19 02:49:43.784,-0.51,-0.275
2021-08-19 02:49:43.788,-0.48,-0.32
2021-08-19 02:49:43.792,-0.43,-0.265
2021-08-19 02:49:43.796,-0.44,-0.24
2021-08-19 02:49:43.800,-0.475,-0.305
2021-08-19 02:49:43.804,-0.435,-0.34
2021-08-19 02:49:43.808,-0.41,-0.29
2021-08-19 02:49:43.812,-0.41,-0.295
2021-08-19 02:49:43.816,-0.46,-0.27
2021-08-19 02:49:43.820,-0.42,-0.31
2021-08-19 02:49:43.824,-0.38,-0.23
2021-08-19 02:49:43.828,-0.42,-0.245
2021-08-19 02:49:43.832,-0.51,-0.195
2021-08-19 02:49:43.836,-0.54,-0.04
2021-08-19 02:49:43.840,-0.365,0.255
2021-08-19 02:49:43.844,-0.21,0.345
2021-08-19 02:49:43.848,0.03,0.27
2021-08-19 02:49:43.852,0.41,0.355
2021-08-19 02:49:43.856,0.845,0.635
2021-08-19 02:49:43.860,1.13,0.175
2021-08-19 02:49:43.864,1.265,-0.675
2021-08-19 02:49:43.868,0.98,-1.355
2021-08-19 02:49:43.872,0.37,-1.72
2021-08-19 02:49:43.876,-0.23,-1.985
2021-08-19 02:49:43.896,-0.585,-1.985
2021-08-19 02:49:43.900,-0.45,-1.445
2021-08-19 02:49:43.904,-0.31,-0.935
2021-08-19 02:49:43.908,-0.295,-0.49
2021-08-19 02:49:43.912,-0.42,-0.215
2021-08-19 02:49:43.916,-0.44,-0.15
2021-08-19 02:49:43.920,-0.405,-0.12
2021-08-19 02:49:43.924,-0.37,-0.1
2021-08-19 02:49:43.928,-0.42,-0.07
2021-08-19 02:49:43.932,-0.44,-0.095
2021-08-19 02:49:43.936,-0.375,-0.07
2021-08-19 02:49:43.940,-0.33,-0.035
2021-08-19 02:49:43.944,-0.365,-0.015
2021-08-19 02:49:43.948,-0.39,-0.045
2021-08-19 02:49:43.952,-0.355,-0.04
2021-08-19 02:49:43.956,-0.315,0.005
2021-08-19 02:49:43.960,-0.34,0.005
2021-08-19 02:49:43.964,-0.375,-0.04
2021-08-19 02:49:43.968,-0.34,-0.045
2021-08-19 02:49:43.972,-0.32,0.03
2021-08-19 02:49:43.976,-0.34,0.04
2021-08-19 02:49:43.980,-0.35,0.01
2021-08-19 02:49:43.984,-0.32,0.01
2021-08-19 02:49:43.988,-0.26,0.035
2021-08-19 02:49:43.992,-0.29,0.09
2021-08-19 02:49:43.996,-0.345,0.055
2021-08-19 02:49:44.000,-0.29,0.06
2021-08-19 02:49:44.004,-0.24,0.115
2021-08-19 02:49:44.008,-0.25,0.15
2021-08-19 02:49:44.012,-0.285,0.145
2021-08-19 02:49:44.016,-0.28,0.115
2021-08-19 02:49:44.020,-0.22,0.175
2021-08-19 02:49:44.024,-0.2,0.235
2021-08-19 02:49:44.028,-0.245,0.245
2021-08-19 02:49:44.032,-0.225,0.205
2021-08-19 02:49:44.036,-0.185,0.285
2021-08-19 02:49:44.040,-0.165,0.325
2021-08-19 02:49:44.044,-0.18,0.365
2021-08-19 02:49:44.048,-0.215,0.345
2021-08-19 02:49:44.052,-0.15,0.375
2021-08-19 02:49:44.056,-0.095,0.445
2021-08-19 02:49:44.060,-0.145,0.49
2021-08-19 02:49:44.064,-0.175,0.415
2021-08-19 02:49:44.068,-0.11,0.51
2021-08-19 02:49:44.072,-0.06,0.6
2021-08-19 02:49:44.076,-0.09,0.62
2021-08-19 02:49:44.080,-0.07,0.625
2021-08-19 02:49:44.084,-0.025,0.565
2021-08-19 02:49:44.088,0.01,0.63
2021-08-19 02:49:44.092,-0.015,0.675
2021-08-19 02:49:44.096,-0.04,0.61
2021-08-19 02:49:44.100,-0.04,0.62
2021-08-19 02:49:44.104,0.015,0.63
2021-08-19 02:49:44.108,-0.02,0.65
2021-08-19 02:49:44.112,-0.03,0.68
2021-08-19 02:49:44.116,-0.015,0.63
2021-08-19 02:49:44.120,0.045,0.655
2021-08-19 02:49:44.124,0.03,0.67
2021-08-19 02:49:44.128,-0.03,0.585
2021-08-19 02:49:44.132,-0.005,0.585
2021-08-19 02:49:44.136,-0.02,0.62
2021-08-19 02:49:44.140,-0.03,0.61
2021-08-19 02:49:44.144,-0.11,0.54
2021-08-19 02:49:44.148,-0.105,0.455
2021-08-19 02:49:44.152,-0.115,0.495
2021-08-19 02:49:44.156,-0.135,0.47
2021-08-19 02:49:44.160,-0.16,0.4
2021-08-19 02:49:44.164,-0.19,0.37
2021-08-19 02:49:44.168,-0.135,0.385
2021-08-19 02:49:44.172,-0.125,0.4
2021-08-19 02:49:44.176,-0.17,0.34
2021-08-19 02:49:44.180,-0.18,0.31
2021-08-19 02:49:44.184,-0.16,0.35
2021-08-19 02:49:44.188,-0.22,0.35
2021-08-19 02:49:44.192,-0.275,0.33
2021-08-19 02:49:44.196,-0.275,0.255
2021-08-19 02:49:44.200,-0.245,0.15
2021-08-19 02:49:44.204,-0.2,0.165
2021-08-19 02:49:44.208,-0.25,0.125
2021-08-19 02:49:44.212,-0.26,0.07
2021-08-19 02:49:44.216,-0.235,0.09
2021-08-19 02:49:44.220,-0.255,0.11
2021-08-19 02:49:44.224,-0.26,0.07
2021-08-19 02:49:44.228,-0.3,0.0
2021-08-19 02:49:44.232,-0.255,-0.015
2021-08-19 02:49:44.236,-0.195,0.01
2021-08-19 02:49:44.240,-0.25,-0.035
2021-08-19 02:49:44.244,-0.245,-0.105
2021-08-19 02:49:44.248,-0.22,-0.07
2021-08-19 02:49:44.252,-0.2,-0.03
2021-08-19 02:49:44.256,-0.255,-0.06
2021-08-19 02:49:44.260,-0.3,-0.145
2021-08-19 02:49:44.264,-0.28,-0.15
2021-08-19 02:49:44.268,-0.26,-0.135
2021-08-19 02:49:44.272,-0.345,-0.155
2021-08-19 02:49:44.276,-0.405,-0.2
2021-08-19 02:49:44.280,-0.37,-0.23
2021-08-19 02:49:44.284,-0.32,-0.195
2021-08-19 02:49:44.288,-0.3,-0.21
2021-08-19 02:49:44.292,-0.36,-0.225
2021-08-19 02:49:44.296,-0.335,-0.255
2021-08-19 02:49:44.300,-0.28,-0.21
2021-08-19 02:49:44.304,-0.255,-0.19
2021-08-19 02:49:44.308,-0.3,-0.225
2021-08-19 02:49:44.312,-0.315,-0.25
2021-08-19 02:49:44.316,-0.28,-0.255
2021-08-19 02:49:44.320,-0.265,-0.225
2021-08-19 02:49:44.324,-0.365,-0.25
2021-08-19 02:49:44.328,-0.395,-0.275
2021-08-19 02:49:44.332,-0.335,-0.21
2021-08-19 02:49:44.336,-0.34,-0.11
2021-08-19 02:49:44.340,-0.445,0.0
2021-08-19 02:49:44.344,-0.47,0.035
2021-08-19 02:49:44.348,-0.28,0.075
2021-08-19 02:49:44.352,0.015,0.06
2021-08-19 02:49:44.356,0.425,-0.015
2021-08-19 02:49:44.360,0.86,0.065
2021-08-19 02:49:44.364,1.315,0.655
2021-08-19 02:49:44.368,1.435,0.82
2021-08-19 02:49:44.372,1.03,0.075
2021-08-19 02:49:44.376,0.315,-0.565
2021-08-19 02:49:44.380,-0.32,-0.945
2021-08-19 02:49:44.384,-0.82,-1.385
2021-08-19 02:49:44.388,-1.12,-1.895
2021-08-19 02:49:44.404,-0.56,-1.64
2021-08-19 02:49:44.408,-0.41,-1.125
2021-08-19 02:49:44.412,-0.295,-0.665
2021-08-19 02:49:44.416,-0.32,-0.235
2021-08-19 02:49:44.420,-0.385,-0.14
2021-08-19 02:49:44.424,-0.415,-0.205
2021-08-19 02:49:44.428,-0.39,-0.255
2021-08-19 02:49:44.432,-0.365,-0.23
2021-08-19 02:49:44.436,-0.335,-0.195
2021-08-19 02:49:44.440,-0.38,-0.215
2021-08-19 02:49:44.444,-0.36,-0.24
2021-08-19 02:49:44.448,-0.31,-0.155
2021-08-19 02:49:44.452,-0.355,-0.145
2021-08-19 02:49:44.456,-0.405,-0.17
2021-08-19 02:49:44.460,-0.415,-0.18
2021-08-19 02:49:44.464,-0.33,-0.13
2021-08-19 02:49:44.468,-0.355,-0.065
2021-08-19 02:49:44.472,-0.415,-0.08
2021-08-19 02:49:44.476,-0.405,-0.125
2021-08-19 02:49:44.480,-0.35,-0.105
2021-08-19 02:49:44.484,-0.335,-0.06
2021-08-19 02:49:44.488,-0.37,-0.09
2021-08-19 02:49:44.492,-0.36,-0.135
2021-08-19 02:49:44.496,-0.3,-0.1
2021-08-19 02:49:44.500,-0.26,-0.065
2021-08-19 02:49:44.504,-0.265,-0.05
2021-08-19 02:49:44.508,-0.29,-0.06
2021-08-19 02:49:44.512,-0.235,-0.045
2021-08-19 02:49:44.516,-0.21,-0.02
2021-08-19 02:49:44.520,-0.265,-0.045
2021-08-19 02:49:44.524,-0.295,-0.095
2021-08-19 02:49:44.528,-0.245,-0.07
2021-08-19 02:49:44.532,-0.235,-0.03
2021-08-19 02:49:44.536,-0.23,-0.025
2021-08-19 02:49:44.540,-0.275,-0.065
2021-08-19 02:49:44.544,-0.185,-0.015
2021-08-19 02:49:44.548,-0.16,0.01
2021-08-19 02:49:44.552,-0.19,0.025
2021-08-19 02:49:44.556,-0.245,-0.03
2021-08-19 02:49:44.560,-0.21,-0.045
2021-08-19 02:49:44.564,-0.175,-0.015
2021-08-19 02:49:44.568,-0.2,-0.02
2021-08-19 02:49:44.572,-0.245,-0.09
2021-08-19 02:49:44.576,-0.185,-0.14
2021-08-19 02:49:44.580,-0.14,-0.045
2021-08-19 02:49:44.584,-0.195,-0.035
2021-08-19 02:49:44.588,-0.24,-0.07
2021-08-19 02:49:44.592,-0.2,-0.11
2021-08-19 02:49:44.596,-0.16,-0.055
2021-08-19 02:49:44.600,-0.18,0.02
2021-08-19 02:49:44.604,-0.24,-0.03
2021-08-19 02:49:44.608,-0.235,-0.01
2021-08-19 02:49:44.612,-0.18,0.0
2021-08-19 02:49:44.616,-0.235,0.04
2021-08-19 02:49:44.620,-0.32,0.02
2021-08-19 02:49:44.624,-0.31,-0.01
2021-08-19 02:49:44.628,-0.285,0.03
2021-08-19 02:49:44.632,-0.29,0.045
2021-08-19 02:49:44.636,-0.38,0.01
2021-08-19 02:49:44.640,-0.375,-0.035
2021-08-19 02:49:44.644,-0.345,-0.03
2021-08-19 02:49:44.648,-0.32,0.0
2021-08-19 02:49:44.652,-0.37,-0.045
2021-08-19 02:49:44.656,-0.415,-0.1
2021-08-19 02:49:44.660,-0.35,-0.1
2021-08-19 02:49:44.664,-0.385,-0.05
2021-08-19 02:49:44.668,-0.42,-0.11
2021-08-19 02:49:44.672,-0.46,-0.15
2021-08-19 02:49:44.676,-0.375,-0.06
2021-08-19 02:49:44.680,-0.365,-0.025
2021-08-19 02:49:44.684,-0.37,-0.07
2021-08-19 02:49:44.688,-0.4,-0.15
2021-08-19 02:49:44.692,-0.35,-0.12
2021-08-19 02:49:44.696,-0.335,-0.06
2021-08-19 02:49:44.700,-0.355,-0.06
2021-08-19 02:49:44.704,-0.375,-0.13
2021-08-19 02:49:44.708,-0.35,-0.135
2021-08-19 02:49:44.712,-0.29,-0.095
2021-08-19 02:49:44.716,-0.285,-0.07
2021-08-19 02:49:44.720,-0.33,-0.12
2021-08-19 02:49:44.724,-0.355,-0.17
2021-08-19 02:49:44.728,-0.29,-0.16
2021-08-19 02:49:44.732,-0.28,-0.13
2021-08-19 02:49:44.736,-0.33,-0.175
2021-08-19 02:49:44.740,-0.335,-0.185
2021-08-19 02:49:44.744,-0.31,-0.155
2021-08-19 02:49:44.748,-0.315,-0.1
2021-08-19 02:49:44.752,-0.42,-0.165
2021-08-19 02:49:44.756,-0.385,-0.205
2021-08-19 02:49:44.760,-0.345,-0.2
2021-08-19 02:49:44.764,-0.37,-0.175
2021-08-19 02:49:44.768,-0.425,-0.22
2021-08-19 02:49:44.772,-0.44,-0.28
2021-08-19 02:49:44.776,-0.365,-0.26
2021-08-19 02:49:44.780,-0.37,-0.24
2021-08-19 02:49:44.784,-0.405,-0.255
2021-08-19 02:49:44.788,-0.42,-0.3
2021-08-19 02:49:44.792,-0.355,-0.275
2021-08-19 02:49:44.796,-0.375,-0.24
2021-08-19 02:49:44.800,-0.445,-0.25
2021-08-19 02:49:44.804,-0.47,-0.29
2021-08-19 02:49:44.808,-0.4,-0.295
2021-08-19 02:49:44.812,-0.36,-0.23
2021-08-19 02:49:44.816,-0.405,-0.23
2021-08-19 02:49:44.820,-0.395,-0.3
2021-08-19 02:49:44.824,-0.36,-0.305
2021-08-19 02:49:44.828,-0.33,-0.265
2021-08-19 02:49:44.832,-0.36,-0.205
2021-08-19 02:49:44.836,-0.4,-0.27
2021-08-19 02:49:44.840,-0.375,-0.26
2021-08-19 02:49:44.844,-0.31,-0.245
2021-08-19 02:49:44.848,-0.355,-0.235
2021-08-19 02:49:44.852,-0.44,-0.23
2021-08-19 02:49:44.856,-0.45,-0.28
2021-08-19 02:49:44.860,-0.405,-0.22
2021-08-19 02:49:44.864,-0.39,-0.135
2021-08-19 02:49:44.868,-0.42,-0.16
2021-08-19 02:49:44.872,-0.4,-0.21
2021-08-19 02:49:44.876,-0.33,-0.18
2021-08-19 02:49:44.880,-0.32,-0.145
2021-08-19 02:49:44.884,-0.4,-0.155
2021-08-19 02:49:44.888,-0.4,-0.19
2021-08-19 02:49:44.892,-0.35,-0.15
2021-08-19 02:49:44.896,-0.335,-0.15
2021-08-19 02:49:44.900,-0.37,-0.175
2021-08-19 02:49:44.904,-0.36,-0.24
2021-08-19 02:49:44.908,-0.285,-0.22
2021-08-19 02:49:44.912,-0.285,-0.16
2021-08-19 02:49:44.916,-0.32,-0.21
2021-08-19 02:49:44.920,-0.3,-0.23
2021-08-19 02:49:44.924,-0.275,-0.225
2021-08-19 02:49:44.928,-0.265,-0.13
2021-08-19 02:49:44.932,-0.305,-0.16
2021-08-19 02:49:44.936,-0.325,-0.16
2021-08-19 02:49:44.940,-0.32,-0.195
2021-08-19 02:49:44.944,-0.275,-0.14
2021-08-19 02:49:44.948,-0.285,-0.15
2021-08-19 02:49:44.952,-0.32,-0.18
2021-08-19 02:49:44.956,-0.335,-0.21
2021-08-19 02:49:44.960,-0.29,-0.22
2021-08-19 02:49:44.964,-0.33,-0.17
2021-08-19 02:49:44.968,-0.385,-0.265
2021-08-19 02:49:44.972,-0.405,-0.285
2021-08-19 02:49:44.976,-0.375,-0.29
2021-08-19 02:49:44.980,-0.345,-0.24
2021-08-19 02:49:44.984,-0.395,-0.275
2021-08-19 02:49:44.988,-0.385,-0.32
2021-08-19 02:49:44.992,-0.335,-0.3
2021-08-19 02:49:44.996,-0.33,-0.24
2021-08-19 02:49:45.000,-0.35,-0.245
2021-08-19 02:49:45.004,-0.365,-0.295
2021-08-19 02:49:45.008,-0.33,-0.26
2021-08-19 02:49:45.012,-0.295,-0.25
2021-08-19 02:49:45.016,-0.365,-0.225
2021-08-19 02:49:45.020,-0.41,-0.22
2021-08-19 02:49:45.024,-0.44,-0.08
2021-08-19 02:49:45.028,-0.4,0.185
2021-08-19 02:49:45.032,-0.185,0.375
2021-08-19 02:49:45.036,0.03,0.39
2021-08-19 02:49:45.040,0.38,0.435
2021-08-19 02:49:45.044,0.805,0.745
2021-08-19 02:49:45.048,1.155,0.935
2021-08-19 02:49:45.052,1.325,0.235
2021-08-19 02:49:45.056,1.305,-0.58
2021-08-19 02:49:45.060,0.805,-1.14
2021-08-19 02:49:45.064,0.005,-1.32
2021-08-19 02:49:45.068,-0.58,-1.77
2021-08-19 02:49:45.088,-0.575,-1.8
2021-08-19 02:49:45.092,-0.395,-1.265
2021-08-19 02:49:45.096,-0.22,-0.79
2021-08-19 02:49:45.100,-0.28,-0.4
2021-08-19 02:49:45.104,-0.365,-0.19
2021-08-19 02:49:45.108,-0.35,-0.08
2021-08-19 02:49:45.112,-0.31,-0.04
2021-08-19 02:49:45.116,-0.345,-0.035
2021-08-19 02:49:45.120,-0.38,-0.075
2021-08-19 02:49:45.124,-0.315,-0.075
2021-08-19 02:49:45.128,-0.285,-0.01
2021-08-19 02:49:45.132,-0.32,0.005
2021-08-19 02:49:45.136,-0.375,-0.02
2021-08-19 02:49:45.140,-0.32,-0.015
2021-08-19 02:49:45.144,-0.3,0.005
2021-08-19 02:49:45.148,-0.345,-0.015
2021-08-19 02:49:45.152,-0.39,-0.1
2021-08-19 02:49:45.156,-0.345,-0.085
2021-08-19 02:49:45.160,-0.295,-0.015
2021-08-19 02:49:45.164,-0.3,0.035
2021-08-19 02:49:45.168,-0.335,-0.035
2021-08-19 02:49:45.172,-0.32,-0.01
2021-08-19 02:49:45.176,-0.3,-0.015
2021-08-19 02:49:45.180,-0.285,0.05
2021-08-19 02:49:45.184,-0.31,0.035
2021-08-19 02:49:45.188,-0.32,0.025
2021-08-19 02:49:45.192,-0.24,0.065
2021-08-19 02:49:45.196,-0.255,0.14
2021-08-19 02:49:45.200,-0.265,0.115
2021-08-19 02:49:45.204,-0.25,0.115
2021-08-19 02:49:45.208,-0.195,0.18
2021-08-19 02:49:45.212,-0.195,0.23
2021-08-19 02:49:45.216,-0.23,0.24
2021-08-19 02:49:45.220,-0.22,0.21
2021-08-19 02:49:45.224,-0.145,0.285
2021-08-19 02:49:45.228,-0.13,0.395
2021-08-19 02:49:45.232,-0.175,0.4
2021-08-19 02:49:45.236,-0.205,0.36
2021-08-19 02:49:45.240,-0.18,0.44
2021-08-19 02:49:45.244,-0.14,0.55
2021-08-19 02:49:45.248,-0.165,0.585
2021-08-19 02:49:45.252,-0.2,0.565
2021-08-19 02:49:45.256,-0.125,0.64
2021-08-19 02:49:45.260,-0.055,0.7
2021-08-19 02:49:45.264,-0.075,0.715
2021-08-19 02:49:45.268,-0.105,0.7
2021-08-19 02:49:45.272,-0.05,0.695
2021-08-19 02:49:45.276,-0.03,0.74
2021-08-19 02:49:45.280,-0.01,0.73
2021-08-19 02:49:45.284,-0.09,0.675
2021-08-19 02:49:45.288,-0.035,0.65
2021-08-19 02:49:45.292,-0.04,0.74
2021-08-19 02:49:45.296,-0.04,0.72
2021-08-19 02:49:45.300,-0.04,0.665
2021-08-19 02:49:45.304,0.01,0.665
2021-08-19 02:49:45.308,0.01,0.69
2021-08-19 02:49:45.312,-0.05,0.675
2021-08-19 02:49:45.316,-0.05,0.58
2021-08-19 02:49:45.320,-0.04,0.535
2021-08-19 02:49:45.324,-0.04,0.505
2021-08-19 02:49:45.328,-0.13,0.465
2021-08-19 02:49:45.332,-0.195,0.355
2021-08-19 02:49:45.336,-0.2,0.28
2021-08-19 02:49:45.340,-0.18,0.245
2021-08-19 02:49:45.344,-0.235,0.235
2021-08-19 02:49:45.348,-0.33,0.105
2021-08-19 02:49:45.352,-0.305,0.07
2021-08-19 02:49:45.356,-0.29,0.045
2021-08-19 02:49:45.360,-0.285,0.03
2021-08-19 02:49:45.364,-0.345,-0.03
2021-08-19 02:49:45.368,-0.325,-0.06
2021-08-19 02:49:45.372,-0.27,-0.05
2021-08-19 02:49:45.376,-0.29,-0.035
2021-08-19 02:49:45.380,-0.335,-0.08
2021-08-19 02:49:45.384,-0.325,-0.115
2021-08-19 02:49:45.388,-0.29,-0.085
2021-08-19 02:49:45.392,-0.285,-0.04
2021-08-19 02:49:45.396,-0.34,-0.065
2021-08-19 02:49:45.400,-0.33,-0.135
2021-08-19 02:49:45.404,-0.265,-0.105
2021-08-19 02:49:45.408,-0.29,-0.085
2021-08-19 02:49:45.412,-0.295,-0.1
2021-08-19 02:49:45.416,-0.345,-0.085
2021-08-19 02:49:45.420,-0.315,-0.095
2021-08-19 02:49:45.424,-0.32,-0.01
2021-08-19 02:49:45.428,-0.38,-0.03
2021-08-19 02:49:45.432,-0.395,-0.085
2021-08-19 02:49:45.436,-0.315,-0.05
2021-08-19 02:49:45.440,-0.28,0.025
2021-08-19 02:49:45.444,-0.305,0.025
2021-08-19 02:49:45.448,-0.295,0.0
2021-08-19 02:49:45.452,-0.24,0.0
2021-08-19 02:49:45.456,-0.235,0.035
2021-08-19 02:49:45.460,-0.265,0.03
2021-08-19 02:49:45.464,-0.305,-0.005
2021-08-19 02:49:45.468,-0.305,0.0
2021-08-19 02:49:45.472,-0.275,0.005
2021-08-19 02:49:45.476,-0.3,0.01
2021-08-19 02:49:45.480,-0.34,-0.035
2021-08-19 02:49:45.484,-0.31,-0.08
2021-08-19 02:49:45.488,-0.27,-0.01
2021-08-19 02:49:45.492,-0.285,-0.01
2021-08-19 02:49:45.496,-0.32,-0.04
2021-08-19 02:49:45.500,-0.32,-0.095
2021-08-19 02:49:45.504,-0.25,-0.035
2021-08-19 02:49:45.508,-0.245,0.015
2021-08-19 02:49:45.512,-0.275,-0.025
2021-08-19 02:49:45.516,-0.29,-0.1
2021-08-19 02:49:45.520,-0.26,-0.12
2021-08-19 02:49:45.524,-0.29,-0.07
2021-08-19 02:49:45.528,-0.345,-0.14
2021-08-19 02:49:45.532,-0.365,-0.185
2021-08-19 02:49:45.536,-0.32,-0.185
2021-08-19 02:49:45.540,-0.325,-0.18
2021-08-19 02:49:45.544,-0.385,-0.22
2021-08-19 02:49:45.548,-0.38,-0.285
2021-08-19 02:49:45.552,-0.32,-0.22
2021-08-19 02:49:45.556,-0.305,-0.185
2021-08-19 02:49:45.560,-0.35,-0.22
2021-08-19 02:49:45.564,-0.365,-0.275
2021-08-19 02:49:45.568,-0.3,-0.22
2021-08-19 02:49:45.572,-0.27,-0.19
2021-08-19 02:49:45.576,-0.32,-0.165
2021-08-19 02:49:45.580,-0.34,-0.255
2021-08-19 02:49:45.584,-0.31,-0.19
2021-08-19 02:49:45.588,-0.265,-0.16
2021-08-19 02:49:45.592,-0.34,-0.115
2021-08-19 02:49:45.596,-0.435,-0.08
2021-08-19 02:49:45.600,-0.34,0.21
2021-08-19 02:49:45.604,-0.095,0.445
2021-08-19 02:49:45.608,0.235,0.475
2021-08-19 02:49:45.612,0.56,0.67
2021-08-19 02:49:45.616,0.935,0.88
2021-08-19 02:49:45.620,1.265,0.205
2021-08-19 02:49:45.624,1.375,-0.715
2021-08-19 02:49:45.628,1.04,-1.495
2021-08-19 02:49:45.656,-0.34,-1.405
2021-08-19 02:49:45.660,-0.265,-0.805
2021-08-19 02:49:45.664,-0.315,-0.4
2021-08-19 02:49:45.668,-0.345,-0.15
2021-08-19 02:49:45.672,-0.395,-0.125
2021-08-19 02:49:45.676,-0.45,-0.125
2021-08-19 02:49:45.680,-0.425,-0.13
2021-08-19 02:49:45.684,-0.38,-0.08
2021-08-19 02:49:45.688,-0.405,-0.045
2021-08-19 02:49:45.692,-0.425,-0.06
2021-08-19 02:49:45.696,-0.42,-0.13
2021-08-19 02:49:45.700,-0.355,-0.055
2021-08-19 02:49:45.704,-0.38,-0.04
2021-08-19 02:49:45.708,-0.39,-0.07
2021-08-19 02:49:45.712,-0.4,-0.11
2021-08-19 02:49:45.716,-0.345,-0.055
2021-08-19 02:49:45.720,-0.325,-0.015
2021-08-19 02:49:45.724,-0.36,-0.05
2021-08-19 02:49:45.728,-0.36,-0.07
2021-08-19 02:49:45.732,-0.31,-0.03
2021-08-19 02:49:45.736,-0.315,-0.04
2021-08-19 02:49:45.740,-0.345,0.02
2021-08-19 02:49:45.744,-0.345,-0.015
2021-08-19 02:49:45.748,-0.31,0.01
2021-08-19 02:49:45.752,-0.31,0.065
2021-08-19 02:49:45.756,-0.335,0.08
2021-08-19 02:49:45.760,-0.345,0.055
2021-08-19 02:49:45.764,-0.3,0.06
2021-08-19 02:49:45.768,-0.265,0.17
2021-08-19 02:49:45.772,-0.275,0.19
2021-08-19 02:49:45.776,-0.27,0.17
2021-08-19 02:49:45.780,-0.225,0.22
2021-08-19 02:49:45.784,-0.165,0.295
2021-08-19 02:49:45.788,-0.24,0.33
2021-08-19 02:49:45.792,-0.27,0.32
2021-08-19 02:49:45.796,-0.23,0.35
2021-08-19 02:49:45.800,-0.22,0.435
2021-08-19 02:49:45.804,-0.255,0.475
2021-08-19 02:49:45.808,-0.305,0.46
2021-08-19 02:49:45.812,-0.23,0.515
2021-08-19 02:49:45.816,-0.205,0.585
2021-08-19 02:49:45.820,-0.23,0.595
2021-08-19 02:49:45.824,-0.21,0.605
2021-08-19 02:49:45.828,-0.185,0.635
2021-08-19 02:49:45.832,-0.14,0.665
2021-08-19 02:49:45.836,-0.16,0.68
2021-08-19 02:49:45.840,-0.175,0.65
2021-08-19 02:49:45.844,-0.14,0.615
2021-08-19 02:49:45.848,-0.075,0.695
2021-08-19 02:49:45.852,-0.09,0.7
2021-08-19 02:49:45.856,-0.15,0.67
2021-08-19 02:49:45.860,-0.115,0.625
2021-08-19 02:49:45.864,-0.06,0.675
2021-08-19 02:49:45.868,-0.105,0.635
2021-08-19 02:49:45.872,-0.195,0.61
2021-08-19 02:49:45.876,-0.165,0.51
2021-08-19 02:49:45.880,-0.12,0.525
2021-08-19 02:49:45.884,-0.15,0.495
2021-08-19 02:49:45.888,-0.225,0.42
2021-08-19 02:49:45.892,-0.225,0.305
2021-08-19 02:49:45.896,-0.16,0.27
2021-08-19 02:49:45.900,-0.19,0.275
2021-08-19 02:49:45.904,-0.29,0.185
2021-08-19 02:49:45.908,-0.285,0.075
2021-08-19 02:49:45.912,-0.235,0.03
2021-08-19 02:49:45.916,-0.25,0.02
2021-08-19 02:49:45.920,-0.3,-0.05
2021-08-19 02:49:45.924,-0.28,-0.065
2021-08-19 02:49:45.928,-0.195,-0.045
2021-08-19 02:49:45.932,-0.23,-0.035
2021-08-19 02:49:45.936,-0.29,-0.075
2021-08-19 02:49:45.940,-0.3,-0.115
2021-08-19 02:49:45.944,-0.255,-0.095
2021-08-19 02:49:45.948,-0.2,-0.075
2021-08-19 02:49:45.952,-0.26,-0.08
2021-08-19 02:49:45.956,-0.26,-0.09
2021-08-19 02:49:45.960,-0.215,-0.065
2021-08-19 02:49:45.964,-0.195,-0.01
2021-08-19 02:49:45.968,-0.275,-0.005
2021-08-19 02:49:45.972,-0.27,-0.04
2021-08-19 02:49:45.976,-0.195,-0.04
2021-08-19 02:49:45.980,-0.235,-0.005
2021-08-19 02:49:45.984,-0.29,-0.005
2021-08-19 02:49:45.988,-0.325,-0.045
2021-08-19 02:49:45.992,-0.28,-0.045
2021-08-19 02:49:45.996,-0.26,0.0
2021-08-19 02:49:46.000,-0.32,0.06
2021-08-19 02:49:46.004,-0.46,0.06
2021-08-19 02:49:46.008,-0.395,0.235
2021-08-19 02:49:46.012,-0.17,0.505
2021-08-19 02:49:46.016,0.165,0.615
2021-08-19 02:49:46.020,0.53,0.875
2021-08-19 02:49:46.024,0.95,1.06
2021-08-19 02:49:46.028,1.31,0.2
2021-08-19 02:49:46.032,1.48,-0.84
2021-08-19 02:49:46.036,1.28,-1.84
2021-08-19 02:49:46.064,-0.295,-1.16
2021-08-19 02:49:46.068,-0.305,-0.695
2021-08-19 02:49:46.072,-0.35,-0.34
2021-08-19 02:49:46.076,-0.355,-0.17
2021-08-19 02:49:46.080,-0.38,-0.09
2021-08-19 02:49:46.084,-0.42,-0.06
2021-08-19 02:49:46.088,-0.385,-0.065
2021-08-19 02:49:46.092,-0.35,-0.035
2021-08-19 02:49:46.096,-0.345,-0.03
2021-08-19 02:49:46.100,-0.38,-0.065
2021-08-19 02:49:46.104,-0.37,-0.09
2021-08-19 02:49:46.108,-0.275,-0.025
2021-08-19 02:49:46.112,-0.305,-0.01
2021-08-19 02:49:46.116,-0.32,-0.02
2021-08-19 02:49:46.120,-0.325,-0.04
2021-08-19 02:49:46.124,-0.255,-0.035
2021-08-19 02:49:46.128,-0.27,0.055
2021-08-19 02:49:46.132,-0.295,0.015
2021-08-19 02:49:46.136,-0.295,-0.015
2021-08-19 02:49:46.140,-0.21,0.01
2021-08-19 02:49:46.144,-0.225,0.085
2021-08-19 02:49:46.148,-0.27,0.105
2021-08-19 02:49:46.152,-0.28,0.07
2021-08-19 02:49:46.156,-0.25,0.125
2021-08-19 02:49:46.160,-0.215,0.185
2021-08-19 02:49:46.164,-0.275,0.215
2021-08-19 02:49:46.168,-0.3,0.16
2021-08-19 02:49:46.172,-0.28,0.175
2021-08-19 02:49:46.176,-0.255,0.21
2021-08-19 02:49:46.180,-0.31,0.255
2021-08-19 02:49:46.184,-0.3,0.255
2021-08-19 02:49:46.188,-0.235,0.275
2021-08-19 02:49:46.192,-0.18,0.34
2021-08-19 02:49:46.196,-0.19,0.39
2021-08-19 02:49:46.200,-0.2,0.4
2021-08-19 02:49:46.204,-0.175,0.42
2021-08-19 02:49:46.208,-0.13,0.485
2021-08-19 02:49:46.212,-0.175,0.465
2021-08-19 02:49:46.216,-0.185,0.48
2021-08-19 02:49:46.220,-0.145,0.485
2021-08-19 02:49:46.224,-0.145,0.565
2021-08-19 02:49:46.228,-0.14,0.57
2021-08-19 02:49:46.232,-0.16,0.55
2021-08-19 02:49:46.236,-0.135,0.535
2021-08-19 02:49:46.240,-0.07,0.6
2021-08-19 02:49:46.244,-0.135,0.605
2021-08-19 02:49:46.248,-0.16,0.53
2021-08-19 02:49:46.252,-0.145,0.515
2021-08-19 02:49:46.256,-0.08,0.53
2021-08-19 02:49:46.260,-0.11,0.515
2021-08-19 02:49:46.264,-0.14,0.465
2021-08-19 02:49:46.268,-0.12,0.445
2021-08-19 02:49:46.272,-0.075,0.43
2021-08-19 02:49:46.276,-0.11,0.395
2021-08-19 02:49:46.280,-0.15,0.325
2021-08-19 02:49:46.284,-0.15,0.27
2021-08-19 02:49:46.288,-0.14,0.245
2021-08-19 02:49:46.292,-0.14,0.22
2021-08-19 02:49:46.296,-0.2,0.145
2021-08-19 02:49:46.300,-0.2,0.075
2021-08-19 02:49:46.304,-0.155,0.095
2021-08-19 02:49:46.308,-0.175,0.09
2021-08-19 02:49:46.312,-0.235,0.055
2021-08-19 02:49:46.316,-0.215,-0.035
2021-08-19 02:49:46.320,-0.165,0.03
2021-08-19 02:49:46.324,-0.21,0.03
2021-08-19 02:49:46.328,-0.285,0.025
2021-08-19 02:49:46.332,-0.225,-0.035
2021-08-19 02:49:46.336,-0.185,0.0
2021-08-19 02:49:46.340,-0.215,0.02
2021-08-19 02:49:46.344,-0.27,-0.035
2021-08-19 02:49:46.348,-0.27,-0.03
2021-08-19 02:49:46.352,-0.265,-0.04
2021-08-19 02:49:46.356,-0.29,0.0
2021-08-19 02:49:46.360,-0.365,-0.065
2021-08-19 02:49:46.364,-0.385,-0.08
2021-08-19 02:49:46.368,-0.34,-0.11
2021-08-19 02:49:46.372,-0.28,-0.02
2021-08-19 02:49:46.376,-0.34,-0.015
2021-08-19 02:49:46.380,-0.36,-0.065
2021-08-19 02:49:46.384,-0.29,-0.055
2021-08-19 02:49:46.388,-0.265,-0.035
2021-08-19 02:49:46.392,-0.3,-0.04
2021-08-19 02:49:46.396,-0.315,-0.105
2021-08-19 02:49:46.400,-0.25,-0.14
2021-08-19 02:49:46.404,-0.245,-0.12
2021-08-19 02:49:46.408,-0.3,-0.065
2021-08-19 02:49:46.412,-0.35,-0.155
2021-08-19 02:49:46.416,-0.31,-0.155
2021-08-19 02:49:46.420,-0.275,-0.12
2021-08-19 02:49:46.424,-0.295,-0.135
2021-08-19 02:49:46.428,-0.365,-0.17
2021-08-19 02:49:46.432,-0.32,-0.21
2021-08-19 02:49:46.436,-0.305,-0.17
2021-08-19 02:49:46.440,-0.32,-0.18
2021-08-19 02:49:46.444,-0.36,-0.24
2021-08-19 02:49:46.448,-0.355,-0.26
2021-08-19 02:49:46.452,-0.275,-0.185
2021-08-19 02:49:46.456,-0.285,-0.19
2021-08-19 02:49:46.460,-0.355,-0.19
2021-08-19 02:49:46.464,-0.32,-0.21
2021-08-19 02:49:46.468,-0.26,-0.205
2021-08-19 02:49:46.472,-0.305,-0.19
2021-08-19 02:49:46.476,-0.345,-0.275
2021-08-19 02:49:46.480,-0.285,-0.32
2021-08-19 02:49:46.484,-0.235,-0.285
2021-08-19 02:49:46.488,-0.27,-0.22
2021-08-19 02:49:46.492,-0.31,-0.285
2021-08-19 02:49:46.496,-0.285,-0.3
2021-08-19 02:49:46.500,-0.24,-0.265
2021-08-19 02:49:46.504,-0.24,-0.215
2021-08-19 02:49:46.508,-0.295,-0.225
2021-08-19 02:49:46.512,-0.275,-0.26
2021-08-19 02:49:46.516,-0.22,-0.23
2021-08-19 02:49:46.520,-0.21,-0.175
2021-08-19 02:49:46.524,-0.27,-0.19
2021-08-19 02:49:46.528,-0.33,-0.26
2021-08-19 02:49:46.532,-0.305,-0.25
2021-08-19 02:49:46.536,-0.28,-0.19
2021-08-19 02:49:46.540,-0.325,-0.195
2021-08-19 02:49:46.544,-0.35,-0.285
2021-08-19 02:49:46.548,-0.335,-0.27
2021-08-19 02:49:46.552,-0.28,-0.225
2021-08-19 02:49:46.556,-0.33,-0.19
2021-08-19 02:49:46.560,-0.36,-0.21
2021-08-19 02:49:46.564,-0.315,-0.18
2021-08-19 02:49:46.568,-0.28,-0.14
2021-08-19 02:49:46.572,-0.32,-0.125
2021-08-19 02:49:46.576,-0.355,-0.155
2021-08-19 02:49:46.580,-0.325,-0.19
2021-08-19 02:49:46.584,-0.3,-0.145
2021-08-19 02:49:46.588,-0.315,-0.125
2021-08-19 02:49:46.592,-0.37,-0.185
2021-08-19 02:49:46.596,-0.31,-0.24
2021-08-19 02:49:46.600,-0.275,-0.2
2021-08-19 02:49:46.604,-0.315,-0.15
2021-08-19 02:49:46.608,-0.355,-0.18
2021-08-19 02:49:46.612,-0.32,-0.2
2021-08-19 02:49:46.616,-0.3,-0.175
2021-08-19 02:49:46.620,-0.315,-0.13
2021-08-19 02:49:46.624,-0.365,-0.175
2021-08-19 02:49:46.628,-0.36,-0.25
2021-08-19 02:49:46.632,-0.345,-0.215
2021-08-19 02:49:46.636,-0.33,-0.2
2021-08-19 02:49:46.640,-0.375,-0.255
2021-08-19 02:49:46.644,-0.36,-0.265
2021-08-19 02:49:46.648,-0.315,-0.255
2021-08-19 02:49:46.652,-0.27,-0.21
2021-08-19 02:49:46.656,-0.36,-0.215
2021-08-19 02:49:46.660,-0.33,-0.225
2021-08-19 02:49:46.664,-0.295,-0.25
2021-08-19 02:49:46.668,-0.275,-0.19
2021-08-19 02:49:46.672,-0.31,-0.22
2021-08-19 02:49:46.676,-0.295,-0.27
2021-08-19 02:49:46.680,-0.26,-0.275
2021-08-19 02:49:46.684,-0.23,-0.2
2021-08-19 02:49:46.688,-0.28,-0.24
2021-08-19 02:49:46.692,-0.28,-0.275
2021-08-19 02:49:46.696,-0.225,-0.25
2021-08-19 02:49:46.700,-0.23,-0.2
2021-08-19 02:49:46.704,-0.275,-0.21
2021-08-19 02:49:46.708,-0.265,-0.29
2021-08-19 02:49:46.712,-0.23,-0.3
2021-08-19 02:49:46.716,-0.24,-0.21
2021-08-19 02:49:46.720,-0.305,-0.24
2021-08-19 02:49:46.724,-0.335,-0.28
2021-08-19 02:49:46.728,-0.3,-0.265
2021-08-19 02:49:46.732,-0.28,-0.18
2021-08-19 02:49:46.736,-0.34,-0.205
2021-08-19 02:49:46.740,-0.355,-0.295
2021-08-19 02:49:46.744,-0.27,-0.24
2021-08-19 02:49:46.748,-0.26,-0.205
2021-08-19 02:49:46.752,-0.32,-0.205
2021-08-19 02:49:46.756,-0.345,-0.265
2021-08-19 02:49:46.760,-0.31,-0.285
2021-08-19 02:49:46.764,-0.245,-0.24
2021-08-19 02:49:46.768,-0.3,-0.215
2021-08-19 02:49:46.772,-0.35,-0.295
2021-08-19 02:49:46.776,-0.32,-0.28
2021-08-19 02:49:46.780,-0.275,-0.245
2021-08-19 02:49:46.784,-0.275,-0.22
2021-08-19 02:49:46.788,-0.36,-0.255
2021-08-19 02:49:46.792,-0.32,-0.25
2021-08-19 02:49:46.796,-0.255,-0.225
2021-08-19 02:49:46.800,-0.29,-0.185
2021-08-19 02:49:46.804,-0.335,-0.26
2021-08-19 02:49:46.808,-0.295,-0.295
2021-08-19 02:49:46.812,-0.26,-0.235
2021-08-19 02:49:46.816,-0.295,-0.235
2021-08-19 02:49:46.820,-0.37,-0.275
2021-08-19 02:49:46.824,-0.34,-0.305
2021-08-19 02:49:46.828,-0.31,-0.255
2021-08-19 02:49:46.832,-0.31,-0.255
2021-08-19 02:49:46.836,-0.32,-0.27
2021-08-19 02:49:46.840,-0.305,-0.25
2021-08-19 02:49:46.844,-0.215,-0.215
2021-08-19 02:49:46.848,-0.22,-0.18
2021-08-19 02:49:46.852,-0.255,-0.235
2021-08-19 02:49:46.856,-0.275,-0.215
2021-08-19 02:49:46.860,-0.21,-0.2
2021-08-19 02:49:46.864,-0.265,-0.135
2021-08-19 02:49:46.868,-0.4,-0.135
2021-08-19 02:49:46.872,-0.375,0.025
2021-08-19 02:49:46.876,-0.165,0.31
2021-08-19 02:49:46.880,0.075,0.42
2021-08-19 02:49:46.884,0.305,0.395
2021-08-19 02:49:46.888,0.665,0.45
2021-08-19 02:49:46.892,1.06,0.845
2021-08-19 02:49:46.896,1.41,0.5
2021-08-19 02:49:46.900,1.455,-0.27
2021-08-19 02:49:46.904,1.03,-1.01
2021-08-19 02:49:46.908,0.33,-1.33
2021-08-19 02:49:46.912,-0.225,-1.64
2021-08-19 02:49:46.916,-0.67,-2.0
2021-08-19 02:49:46.932,-0.59,-1.885
2021-08-19 02:49:46.936,-0.47,-1.385
2021-08-19 02:49:46.940,-0.26,-0.955
2021-08-19 02:49:46.944,-0.195,-0.47
2021-08-19 02:49:46.948,-0.27,-0.21
2021-08-19 02:49:46.952,-0.365,-0.13
2021-08-19 02:49:46.956,-0.335,-0.135
2021-08-19 02:49:46.960,-0.305,-0.095
2021-08-19 02:49:46.964,-0.32,-0.095
2021-08-19 02:49:46.968,-0.36,-0.13
2021-08-19 02:49:46.972,-0.35,-0.16
2021-08-19 02:49:46.976,-0.305,-0.09
2021-08-19 02:49:46.980,-0.32,-0.04
2021-08-19 02:49:46.984,-0.34,-0.085
2021-08-19 02:49:46.988,-0.345,-0.095
2021-08-19 02:49:46.992,-0.265,-0.07
2021-08-19 02:49:46.996,-0.28,-0.04
2021-08-19 02:49:47.000,-0.315,-0.035
2021-08-19 02:49:47.004,-0.26,-0.055
2021-08-19 02:49:47.008,-0.245,-0.01
2021-08-19 02:49:47.012,-0.205,0.015
2021-08-19 02:49:47.016,-0.235,0.0
2021-08-19 02:49:47.020,-0.26,-0.025
2021-08-19 02:49:47.024,-0.195,0.025
2021-08-19 02:49:47.028,-0.165,0.065
2021-08-19 02:49:47.032,-0.22,0.075
2021-08-19 02:49:47.036,-0.225,0.03
2021-08-19 02:49:47.040,-0.135,0.055
2021-08-19 02:49:47.044,-0.115,0.11
2021-08-19 02:49:47.048,-0.14,0.155
2021-08-19 02:49:47.052,-0.15,0.115
2021-08-19 02:49:47.056,-0.135,0.095
2021-08-19 02:49:47.060,-0.085,0.165
2021-08-19 02:49:47.064,-0.115,0.175
2021-08-19 02:49:47.068,-0.175,0.175
2021-08-19 02:49:47.072,-0.11,0.17
2021-08-19 02:49:47.076,-0.09,0.28
2021-08-19 02:49:47.080,-0.095,0.285
2021-08-19 02:49:47.084,-0.155,0.255
2021-08-19 02:49:47.088,-0.17,0.26
2021-08-19 02:49:47.092,-0.095,0.33
2021-08-19 02:49:47.096,-0.135,0.395
2021-08-19 02:49:47.100,-0.19,0.365
2021-08-19 02:49:47.104,-0.16,0.355
2021-08-19 02:49:47.108,-0.07,0.405
2021-08-19 02:49:47.112,-0.08,0.455
2021-08-19 02:49:47.116,-0.085,0.455
2021-08-19 02:49:47.120,-0.065,0.425
2021-08-19 02:49:47.124,-0.005,0.475
2021-08-19 02:49:47.128,-0.015,0.48
2021-08-19 02:49:47.132,-0.04,0.455
2021-08-19 02:49:47.136,0.005,0.425
2021-08-19 02:49:47.140,0.05,0.485
2021-08-19 02:49:47.144,0.08,0.52
2021-08-19 02:49:47.148,0.03,0.5
2021-08-19 02:49:47.152,0.01,0.425
2021-08-19 02:49:47.156,0.1,0.48
2021-08-19 02:49:47.160,0.115,0.525
2021-08-19 02:49:47.164,0.05,0.5
2021-08-19 02:49:47.168,0.0,0.46
2021-08-19 02:49:47.172,0.05,0.445
2021-08-19 02:49:47.176,0.04,0.495
2021-08-19 02:49:47.180,-0.045,0.46
2021-08-19 02:49:47.184,-0.075,0.39
2021-08-19 02:49:47.188,-0.065,0.345
2021-08-19 02:49:47.192,-0.045,0.41
2021-08-19 02:49:47.196,-0.115,0.33
2021-08-19 02:49:47.200,-0.16,0.25
2021-08-19 02:49:47.204,-0.165,0.225
2021-08-19 02:49:47.208,-0.09,0.25
2021-08-19 02:49:47.212,-0.155,0.16
2021-08-19 02:49:47.216,-0.2,0.145
2021-08-19 02:49:47.220,-0.16,0.11
2021-08-19 02:49:47.224,-0.145,0.11
2021-08-19 02:49:47.228,-0.19,0.105
2021-08-19 02:49:47.232,-0.245,0.01
2021-08-19 02:49:47.236,-0.2,-0.02
2021-08-19 02:49:47.240,-0.15,0.0
2021-08-19 02:49:47.244,-0.2,0.015
2021-08-19 02:49:47.248,-0.235,-0.08
2021-08-19 02:49:47.252,-0.2,-0.065
2021-08-19 02:49:47.256,-0.16,-0.08
2021-08-19 02:49:47.260,-0.215,-0.055
2021-08-19 02:49:47.264,-0.275,-0.12
2021-08-19 02:49:47.268,-0.27,-0.185
2021-08-19 02:49:47.272,-0.21,-0.145
2021-08-19 02:49:47.276,-0.25,-0.12
2021-08-19 02:49:47.280,-0.32,-0.115
2021-08-19 02:49:47.284,-0.275,-0.15
2021-08-19 02:49:47.288,-0.23,-0.09
2021-08-19 02:49:47.292,-0.215,-0.065
2021-08-19 02:49:47.296,-0.265,-0.065
2021-08-19 02:49:47.300,-0.275,-0.09
2021-08-19 02:49:47.304,-0.225,-0.07
2021-08-19 02:49:47.308,-0.18,-0.04
2021-08-19 02:49:47.312,-0.235,-0.045
2021-08-19 02:49:47.316,-0.245,-0.08
2021-08-19 02:49:47.320,-0.215,-0.095
2021-08-19 02:49:47.324,-0.19,-0.045
2021-08-19 02:49:47.328,-0.24,-0.03
2021-08-19 02:49:47.332,-0.28,-0.12
2021-08-19 02:49:47.336,-0.25,-0.12
2021-08-19 02:49:47.340,-0.185,-0.115
2021-08-19 02:49:47.344,-0.265,-0.035
2021-08-19 02:49:47.348,-0.27,0.0
2021-08-19 02:49:47.352,-0.175,0.085
2021-08-19 02:49:47.356,-0.1,0.18
2021-08-19 02:49:47.360,-0.02,0.145
2021-08-19 02:49:47.364,0.045,-0.015
2021-08-19 02:49:47.368,0.165,-0.06
2021-08-19 02:49:47.372,0.295,0.01
2021-08-19 02:49:47.376,0.455,0.075
2021-08-19 02:49:47.380,0.485,0.07
2021-08-19 02:49:47.384,0.17,0.155
2021-08-19 02:49:47.388,-0.29,0.59
2021-08-19 02:49:47.392,-0.555,0.955
2021-08-19 02:49:47.396,-0.675,1.345
2021-08-19 02:49:47.400,-0.75,1.575
2021-08-19 02:49:47.404,-0.775,1.745
2021-08-19 02:49:47.408,-0.745,1.785
2021-08-19 02:49:47.412,-0.735,1.535
2021-08-19 02:49:47.416,-0.685,1.445
2021-08-19 02:49:47.420,-0.535,1.895
2021-08-19 02:49:47.448,-0.275,1.09
2021-08-19 02:49:47.452,-0.205,0.085
2021-08-19 02:49:47.456,-0.16,-0.58
2021-08-19 02:49:47.460,-0.135,-0.68
2021-08-19 02:49:47.464,-0.16,-0.625
2021-08-19 02:49:47.468,-0.18,-0.55
2021-08-19 02:49:47.472,-0.185,-0.55
2021-08-19 02:49:47.476,-0.24,-0.555
2021-08-19 02:49:47.480,-0.26,-0.63
2021-08-19 02:49:47.484,-0.215,-0.64
2021-08-19 02:49:47.488,-0.13,-0.62
2021-08-19 02:49:47.492,-0.15,-0.605
2021-08-19 02:49:47.496,-0.205,-0.695
2021-08-19 02:49:47.500,-0.2,-0.73
2021-08-19 02:49:47.504,-0.175,-0.71
2021-08-19 02:49:47.508,-0.175,-0.765
2021-08-19 02:49:47.512,-0.2,-0.81
2021-08-19 02:49:47.516,-0.185,-0.835
2021-08-19 02:49:47.520,-0.16,-0.865
2021-08-19 02:49:47.524,-0.18,-0.85
2021-08-19 02:49:47.528,-0.225,-0.92
2021-08-19 02:49:47.532,-0.2,-0.97
2021-08-19 02:49:47.536,-0.155,-0.94
2021-08-19 02:49:47.540,-0.125,-0.895
2021-08-19 02:49:47.544,-0.13,-0.99
2021-08-19 02:49:47.548,-0.145,-1.06
2021-08-19 02:49:47.552,-0.08,-1.05
2021-08-19 02:49:47.556,-0.03,-1.04
2021-08-19 02:49:47.560,-0.075,-1.12
2021-08-19 02:49:47.564,-0.09,-1.135
2021-08-19 02:49:47.568,-0.05,-1.2
2021-08-19 02:49:47.572,0.0,-1.155
2021-08-19 02:49:47.576,-0.03,-1.17
2021-08-19 02:49:47.580,-0.03,-1.245
2021-08-19 02:49:47.584,0.065,-1.28
2021-08-19 02:49:47.588,0.13,-1.265
2021-08-19 02:49:47.592,0.06,-1.28
2021-08-19 02:49:47.596,0.075,-1.345
2021-08-19 02:49:47.600,0.115,-1.405
2021-08-19 02:49:47.604,0.12,-1.38
2021-08-19 02:49:47.608,0.105,-1.39
2021-08-19 02:49:47.612,0.065,-1.455
2021-08-19 02:49:47.616,0.065,-1.475
2021-08-19 02:49:47.620,0.065,-1.4
2021-08-19 02:49:47.624,0.02,-1.38
2021-08-19 02:49:47.628,-0.05,-1.385
2021-08-19 02:49:47.632,-0.045,-1.395
2021-08-19 02:49:47.636,-0.04,-1.295
2021-08-19 02:49:47.640,-0.1,-1.27
2021-08-19 02:49:47.644,-0.235,-1.265
2021-08-19 02:49:47.648,-0.23,-1.225
2021-08-19 02:49:47.652,-0.215,-1.125
2021-08-19 02:49:47.656,-0.255,-1.03
2021-08-19 02:49:47.660,-0.31,-0.975
2021-08-19 02:49:47.664,-0.3,-0.905
2021-08-19 02:49:47.668,-0.3,-0.8
2021-08-19 02:49:47.672,-0.285,-0.655
2021-08-19 02:49:47.676,-0.39,-0.655
2021-08-19 02:49:47.680,-0.405,-0.625
2021-08-19 02:49:47.684,-0.315,-0.545
2021-08-19 02:49:47.688,-0.3,-0.41
2021-08-19 02:49:47.692,-0.335,-0.42
2021-08-19 02:49:47.696,-0.335,-0.425
2021-08-19 02:49:47.700,-0.275,-0.36
2021-08-19 02:49:47.704,-0.315,-0.265
2021-08-19 02:49:47.708,-0.345,-0.275
2021-08-19 02:49:47.712,-0.38,-0.285
2021-08-19 02:49:47.716,-0.315,-0.28
2021-08-19 02:49:47.720,-0.31,-0.215
2021-08-19 02:49:47.724,-0.375,-0.24
2021-08-19 02:49:47.728,-0.37,-0.3
2021-08-19 02:49:47.732,-0.32,-0.26
2021-08-19 02:49:47.736,-0.295,-0.225
2021-08-19 02:49:47.740,-0.39,-0.245
2021-08-19 02:49:47.744,-0.36,-0.28
2021-08-19 02:49:47.748,-0.325,-0.235
2021-08-19 02:49:47.752,-0.285,-0.23
2021-08-19 02:49:47.756,-0.36,-0.25
2021-08-19 02:49:47.760,-0.34,-0.305
2021-08-19 02:49:47.764,-0.275,-0.26
2021-08-19 02:49:47.768,-0.28,-0.23
2021-08-19 02:49:47.772,-0.33,-0.265
2021-08-19 02:49:47.776,-0.335,-0.28
2021-08-19 02:49:47.780,-0.275,-0.265
2021-08-19 02:49:47.784,-0.295,-0.23
2021-08-19 02:49:47.788,-0.31,-0.255
2021-08-19 02:49:47.792,-0.33,-0.29
2021-08-19 02:49:47.796,-0.255,-0.24
2021-08-19 02:49:47.800,-0.27,-0.23
2021-08-19 02:49:47.804,-0.31,-0.23
2021-08-19 02:49:47.808,-0.32,-0.255
2021-08-19 02:49:47.812,-0.31,-0.245
2021-08-19 02:49:47.816,-0.31,-0.16
2021-08-19 02:49:47.820,-0.36,-0.2
2021-08-19 02:49:47.824,-0.39,-0.23
2021-08-19 02:49:47.828,-0.365,-0.175
2021-08-19 02:49:47.832,-0.39,-0.14
2021-08-19 02:49:47.836,-0.55,-0.08
2021-08-19 02:49:47.840,-0.52,0.075
2021-08-19 02:49:47.844,-0.285,0.26
2021-08-19 02:49:47.848,0.13,0.38
2021-08-19 02:49:47.852,0.52,0.71
2021-08-19 02:49:47.856,0.93,1.02
2021-08-19 02:49:47.860,1.335,0.325
2021-08-19 02:49:47.864,1.525,-0.625
2021-08-19 02:49:47.868,1.2,-1.46
2021-08-19 02:49:47.896,-0.41,-1.405
2021-08-19 02:49:47.900,-0.345,-0.83
2021-08-19 02:49:47.904,-0.38,-0.395
2021-08-19 02:49:47.908,-0.4,-0.195
2021-08-19 02:49:47.912,-0.365,-0.09
2021-08-19 02:49:47.916,-0.42,-0.03
2021-08-19 02:49:47.920,-0.44,-0.07
2021-08-19 02:49:47.924,-0.42,-0.105
2021-08-19 02:49:47.928,-0.42,-0.08
2021-08-19 02:49:47.932,-0.435,-0.075
2021-08-19 02:49:47.936,-0.465,-0.15
2021-08-19 02:49:47.940,-0.42,-0.12
2021-08-19 02:49:47.944,-0.34,-0.075
2021-08-19 02:49:47.948,-0.33,-0.05
2021-08-19 02:49:47.952,-0.38,-0.06
2021-08-19 02:49:47.956,-0.32,-0.08
2021-08-19 02:49:47.960,-0.295,-0.03
2021-08-19 02:49:47.964,-0.28,-0.01
2021-08-19 02:49:47.968,-0.315,0.005
2021-08-19 02:49:47.972,-0.3,-0.01
2021-08-19 02:49:47.976,-0.27,0.03
2021-08-19 02:49:47.980,-0.235,0.09
2021-08-19 02:49:47.984,-0.285,0.1
2021-08-19 02:49:47.988,-0.275,0.07
2021-08-19 02:49:47.992,-0.225,0.155
2021-08-19 02:49:47.996,-0.22,0.195
2021-08-19 02:49:48.000,-0.28,0.2
2021-08-19 02:49:48.004,-0.315,0.185
2021-08-19 02:49:48.008,-0.235,0.21
2021-08-19 02:49:48.012,-0.27,0.305
2021-08-19 02:49:48.016,-0.32,0.3
2021-08-19 02:49:48.020,-0.33,0.315
2021-08-19 02:49:48.024,-0.27,0.37
2021-08-19 02:49:48.028,-0.245,0.48
2021-08-19 02:49:48.032,-0.28,0.525
2021-08-19 02:49:48.036,-0.26,0.49
2021-08-19 02:49:48.040,-0.21,0.61
2021-08-19 02:49:48.044,-0.205,0.64
2021-08-19 02:49:48.048,-0.275,0.65
2021-08-19 02:49:48.052,-0.28,0.64
2021-08-19 02:49:48.056,-0.22,0.695
2021-08-19 02:49:48.060,-0.165,0.795
2021-08-19 02:49:48.064,-0.21,0.79
2021-08-19 02:49:48.068,-0.245,0.775
2021-08-19 02:49:48.072,-0.2,0.78
2021-08-19 02:49:48.076,-0.16,0.85
2021-08-19 02:49:48.080,-0.17,0.895
2021-08-19 02:49:48.084,-0.19,0.88
2021-08-19 02:49:48.088,-0.15,0.84
2021-08-19 02:49:48.092,-0.1,0.875
2021-08-19 02:49:48.096,-0.11,0.895
2021-08-19 02:49:48.100,-0.135,0.855
2021-08-19 02:49:48.104,-0.085,0.77
2021-08-19 02:49:48.108,-0.06,0.8
2021-08-19 02:49:48.112,-0.095,0.76
2021-08-19 02:49:48.116,-0.155,0.66
2021-08-19 02:49:48.120,-0.115,0.53
2021-08-19 02:49:48.124,-0.095,0.495
2021-08-19 02:49:48.128,-0.12,0.45
2021-08-19 02:49:48.132,-0.195,0.34
2021-08-19 02:49:48.136,-0.16,0.255
2021-08-19 02:49:48.140,-0.145,0.19
2021-08-19 02:49:48.144,-0.14,0.2
2021-08-19 02:49:48.148,-0.21,0.1
2021-08-19 02:49:48.152,-0.205,0.055
2021-08-19 02:49:48.156,-0.14,0.02
2021-08-19 02:49:48.160,-0.13,0.03
2021-08-19 02:49:48.164,-0.185,-0.01
2021-08-19 02:49:48.168,-0.2,-0.01
2021-08-19 02:49:48.172,-0.15,-0.02
2021-08-19 02:49:48.176,-0.155,-0.02
2021-08-19 02:49:48.180,-0.23,-0.045
2021-08-19 02:49:48.184,-0.26,-0.085
2021-08-19 02:49:48.188,-0.205,-0.09
2021-08-19 02:49:48.192,-0.23,-0.04
2021-08-19 02:49:48.196,-0.295,-0.075
2021-08-19 02:49:48.200,-0.34,-0.1
2021-08-19 02:49:48.204,-0.26,-0.08
2021-08-19 02:49:48.208,-0.23,-0.07
2021-08-19 02:49:48.212,-0.3,-0.06
2021-08-19 02:49:48.216,-0.3,-0.1
2021-08-19 02:49:48.220,-0.27,-0.08
2021-08-19 02:49:48.224,-0.24,-0.01
2021-08-19 02:49:48.228,-0.31,-0.03
2021-08-19 02:49:48.232,-0.365,-0.075
2021-08-19 02:49:48.236,-0.315,-0.12
2021-08-19 02:49:48.240,-0.275,-0.055
2021-08-19 02:49:48.244,-0.33,-0.085
2021-08-19 02:49:48.248,-0.365,-0.14
2021-08-19 02:49:48.252,-0.31,-0.15
2021-08-19 02:49:48.256,-0.29,-0.115
2021-08-19 02:49:48.260,-0.335,-0.125
2021-08-19 02:49:48.264,-0.36,-0.19
2021-08-19 02:49:48.268,-0.315,-0.185
2021-08-19 02:49:48.272,-0.3,-0.16
2021-08-19 02:49:48.276,-0.325,-0.165
2021-08-19 02:49:48.280,-0.415,-0.2
2021-08-19 02:49:48.284,-0.335,-0.235
2021-08-19 02:49:48.288,-0.3,-0.165
2021-08-19 02:49:48.292,-0.37,-0.14
2021-08-19 02:49:48.296,-0.43,-0.19
2021-08-19 02:49:48.300,-0.505,-0.12
2021-08-19 02:49:48.304,-0.48,0.06
2021-08-19 02:49:48.308,-0.3,0.23
2021-08-19 02:49:48.312,-0.02,0.25
2021-08-19 02:49:48.316,0.42,0.37
2021-08-19 02:49:48.320,0.915,0.83
2021-08-19 02:49:48.324,1.26,0.79
2021-08-19 02:49:48.328,1.45,-0.13
2021-08-19 02:49:48.332,1.275,-1.08
2021-08-19 02:49:48.336,0.56,-1.715
2021-08-19 02:49:48.360,-0.38,-1.75
2021-08-19 02:49:48.364,-0.25,-1.115
2021-08-19 02:49:48.368,-0.195,-0.6
2021-08-19 02:49:48.372,-0.29,-0.22
2021-08-19 02:49:48.376,-0.41,-0.145
2021-08-19 02:49:48.380,-0.44,-0.2
2021-08-19 02:49:48.384,-0.37,-0.17
2021-08-19 02:49:48.388,-0.43,-0.12
2021-08-19 02:49:48.392,-0.41,-0.13
2021-08-19 02:49:48.396,-0.39,-0.155
2021-08-19 02:49:48.400,-0.335,-0.135
2021-08-19 02:49:48.404,-0.36,-0.08
2021-08-19 02:49:48.408,-0.36,-0.105
2021-08-19 02:49:48.412,-0.365,-0.11
2021-08-19 02:49:48.416,-0.31,-0.1
2021-08-19 02:49:48.420,-0.34,-0.05
2021-08-19 02:49:48.424,-0.355,-0.095
2021-08-19 02:49:48.428,-0.32,-0.08
2021-08-19 02:49:48.432,-0.265,-0.06
2021-08-19 02:49:48.436,-0.255,-0.01
2021-08-19 02:49:48.440,-0.32,-0.025
2021-08-19 02:49:48.444,-0.31,-0.06
2021-08-19 02:49:48.448,-0.265,0.01
2021-08-19 02:49:48.452,-0.235,0.015
2021-08-19 02:49:48.456,-0.29,0.03
2021-08-19 02:49:48.460,-0.34,0.0
2021-08-19 02:49:48.464,-0.28,0.015
2021-08-19 02:49:48.468,-0.28,0.07
2021-08-19 02:49:48.472,-0.315,0.07
2021-08-19 02:49:48.476,-0.33,0.035
2021-08-19 02:49:48.480,-0.29,0.03
2021-08-19 02:49:48.484,-0.28,0.09
2021-08-19 02:49:48.488,-0.32,0.1
2021-08-19 02:49:48.492,-0.37,0.095
2021-08-19 02:49:48.496,-0.35,0.095
2021-08-19 02:49:48.500,-0.28,0.18
2021-08-19 02:49:48.504,-0.315,0.21
2021-08-19 02:49:48.508,-0.32,0.165
2021-08-19 02:49:48.512,-0.28,0.2
2021-08-19 02:49:48.516,-0.27,0.245
2021-08-19 02:49:48.520,-0.255,0.255
2021-08-19 02:49:48.524,-0.3,0.22
2021-08-19 02:49:48.528,-0.28,0.205
2021-08-19 02:49:48.532,-0.215,0.23
2021-08-19 02:49:48.536,-0.28,0.28
2021-08-19 02:49:48.540,-0.27,0.21
2021-08-19 02:49:48.544,-0.2,0.255
2021-08-19 02:49:48.548,-0.12,0.305
2021-08-19 02:49:48.552,-0.125,0.385
2021-08-19 02:49:48.556,-0.175,0.36
2021-08-19 02:49:48.560,-0.11,0.31
2021-08-19 02:49:48.564,-0.04,0.405
2021-08-19 02:49:48.568,-0.05,0.395
2021-08-19 02:49:48.572,-0.12,0.4
2021-08-19 02:49:48.576,-0.16,0.355
2021-08-19 02:49:48.580,-0.11,0.365
2021-08-19 02:49:48.584,-0.13,0.3
2021-08-19 02:49:48.588,-0.235,0.24
2021-08-19 02:49:48.592,-0.32,0.165
2021-08-19 02:49:48.596,-0.28,0.125
2021-08-19 02:49:48.600,-0.22,0.16
2021-08-19 02:49:48.604,-0.265,0.12
2021-08-19 02:49:48.608,-0.3,0.075
2021-08-19 02:49:48.612,-0.25,0.02
2021-08-19 02:49:48.616,-0.255,0.07
2021-08-19 02:49:48.620,-0.3,-0.005
2021-08-19 02:49:48.624,-0.315,-0.05
2021-08-19 02:49:48.628,-0.285,-0.075
2021-08-19 02:49:48.632,-0.26,-0.08
2021-08-19 02:49:48.636,-0.28,-0.08
2021-08-19 02:49:48.640,-0.34,-0.115
2021-08-19 02:49:48.644,-0.32,-0.12
2021-08-19 02:49:48.648,-0.285,-0.075
2021-08-19 02:49:48.652,-0.345,-0.115
2021-08-19 02:49:48.656,-0.32,-0.18
2021-08-19 02:49:48.660,-0.28,-0.15
2021-08-19 02:49:48.664,-0.3,-0.12
2021-08-19 02:49:48.668,-0.34,-0.13
2021-08-19 02:49:48.672,-0.38,-0.185
2021-08-19 02:49:48.676,-0.335,-0.185
2021-08-19 02:49:48.680,-0.32,-0.14
2021-08-19 02:49:48.684,-0.36,-0.165
2021-08-19 02:49:48.688,-0.385,-0.235
2021-08-19 02:49:48.692,-0.345,-0.21
2021-08-19 02:49:48.696,-0.33,-0.175
2021-08-19 02:49:48.700,-0.36,-0.16
2021-08-19 02:49:48.704,-0.41,-0.19
2021-08-19 02:49:48.708,-0.365,-0.255
2021-08-19 02:49:48.712,-0.32,-0.2
2021-08-19 02:49:48.716,-0.37,-0.23
2021-08-19 02:49:48.720,-0.415,-0.25
2021-08-19 02:49:48.724,-0.405,-0.275
2021-08-19 02:49:48.728,-0.37,-0.22
2021-08-19 02:49:48.732,-0.38,-0.18
2021-08-19 02:49:48.736,-0.395,-0.21
2021-08-19 02:49:48.740,-0.4,-0.27
2021-08-19 02:49:48.744,-0.33,-0.2
2021-08-19 02:49:48.748,-0.335,-0.18
2021-08-19 02:49:48.752,-0.375,-0.235
2021-08-19 02:49:48.756,-0.33,-0.23
2021-08-19 02:49:48.760,-0.285,-0.225
2021-08-19 02:49:48.764,-0.34,-0.2
2021-08-19 02:49:48.768,-0.34,-0.24
2021-08-19 02:49:48.772,-0.34,-0.28
2021-08-19 02:49:48.776,-0.29,-0.19
2021-08-19 02:49:48.780,-0.335,-0.19
2021-08-19 02:49:48.784,-0.4,-0.265
2021-08-19 02:49:48.788,-0.39,-0.27
2021-08-19 02:49:48.792,-0.34,-0.225
2021-08-19 02:49:48.796,-0.4,-0.175
2021-08-19 02:49:48.800,-0.38,-0.19
2021-08-19 02:49:48.804,-0.375,-0.18
2021-08-19 02:49:48.808,-0.27,-0.155
2021-08-19 02:49:48.812,-0.33,-0.115
2021-08-19 02:49:48.816,-0.38,-0.095
2021-08-19 02:49:48.820,-0.425,-0.1
2021-08-19 02:49:48.824,-0.39,0.08
2021-08-19 02:49:48.828,-0.26,0.325
2021-08-19 02:49:48.832,-0.04,0.395
2021-08-19 02:49:48.836,0.315,0.4
2021-08-19 02:49:48.840,0.77,0.57
2021-08-19 02:49:48.844,1.185,1.075
2021-08-19 02:49:48.848,1.445,0.6
2021-08-19 02:49:48.852,1.48,-0.345
2021-08-19 02:49:48.856,0.99,-1.205
2021-08-19 02:49:48.860,0.14,-1.72
2021-08-19 02:49:48.884,-0.51,-1.765
2021-08-19 02:49:48.888,-0.33,-1.09
2021-08-19 02:49:48.892,-0.31,-0.59
2021-08-19 02:49:48.896,-0.42,-0.275
2021-08-19 02:49:48.900,-0.445,-0.25
2021-08-19 02:49:48.904,-0.41,-0.185
2021-08-19 02:49:48.908,-0.37,-0.115
2021-08-19 02:49:48.912,-0.405,-0.14
2021-08-19 02:49:48.916,-0.395,-0.195
2021-08-19 02:49:48.920,-0.315,-0.165
2021-08-19 02:49:48.924,-0.32,-0.1
2021-08-19 02:49:48.928,-0.35,-0.085
2021-08-19 02:49:48.932,-0.355,-0.11
2021-08-19 02:49:48.936,-0.315,-0.105
2021-08-19 02:49:48.940,-0.27,-0.035
2021-08-19 02:49:48.944,-0.3,-0.05
2021-08-19 02:49:48.948,-0.32,-0.1
2021-08-19 02:49:48.952,-0.295,-0.07
2021-08-19 02:49:48.956,-0.25,-0.005
2021-08-19 02:49:48.960,-0.325,0.0
2021-08-19 02:49:48.964,-0.365,-0.03
2021-08-19 02:49:48.968,-0.36,-0.055
2021-08-19 02:49:48.972,-0.265,-0.01
2021-08-19 02:49:48.976,-0.3,0.01
2021-08-19 02:49:48.980,-0.36,0.025
2021-08-19 02:49:48.984,-0.355,0.025
2021-08-19 02:49:48.988,-0.315,0.1
2021-08-19 02:49:48.992,-0.33,0.13
2021-08-19 02:49:48.996,-0.34,0.11
2021-08-19 02:49:49.000,-0.31,0.13
2021-08-19 02:49:49.004,-0.255,0.175
2021-08-19 02:49:49.008,-0.305,0.255
2021-08-19 02:49:49.012,-0.345,0.235
2021-08-19 02:49:49.016,-0.32,0.22
2021-08-19 02:49:49.020,-0.25,0.28
2021-08-19 02:49:49.024,-0.235,0.35
2021-08-19 02:49:49.028,-0.27,0.375
2021-08-19 02:49:49.032,-0.265,0.35
2021-08-19 02:49:49.036,-0.18,0.395
2021-08-19 02:49:49.040,-0.15,0.45
2021-08-19 02:49:49.044,-0.21,0.485
2021-08-19 02:49:49.048,-0.185,0.45
2021-08-19 02:49:49.052,-0.145,0.535
2021-08-19 02:49:49.056,-0.13,0.6
2021-08-19 02:49:49.060,-0.17,0.595
2021-08-19 02:49:49.064,-0.185,0.57
2021-08-19 02:49:49.068,-0.1,0.58
2021-08-19 02:49:49.072,-0.08,0.64
2021-08-19 02:49:49.076,-0.135,0.625
2021-08-19 02:49:49.080,-0.145,0.625
2021-08-19 02:49:49.084,-0.08,0.61
2021-08-19 02:49:49.088,-0.07,0.67
2021-08-19 02:49:49.092,-0.085,0.68
2021-08-19 02:49:49.096,-0.11,0.68
2021-08-19 02:49:49.100,-0.07,0.625
2021-08-19 02:49:49.104,-0.03,0.625
2021-08-19 02:49:49.108,-0.1,0.585
2021-08-19 02:49:49.112,-0.135,0.52
2021-08-19 02:49:49.116,-0.15,0.49
2021-08-19 02:49:49.120,-0.115,0.47
2021-08-19 02:49:49.124,-0.16,0.425
2021-08-19 02:49:49.128,-0.22,0.34
2021-08-19 02:49:49.132,-0.245,0.245
2021-08-19 02:49:49.136,-0.17,0.22
2021-08-19 02:49:49.140,-0.235,0.195
2021-08-19 02:49:49.144,-0.275,0.14
2021-08-19 02:49:49.148,-0.26,0.035
2021-08-19 02:49:49.152,-0.23,0.04
2021-08-19 02:49:49.156,-0.255,0.01
2021-08-19 02:49:49.160,-0.32,-0.02
2021-08-19 02:49:49.164,-0.29,-0.06
2021-08-19 02:49:49.168,-0.265,-0.035
2021-08-19 02:49:49.172,-0.255,-0.01
2021-08-19 02:49:49.176,-0.3,-0.015
2021-08-19 02:49:49.180,-0.29,-0.07
2021-08-19 02:49:49.184,-0.235,-0.015
2021-08-19 02:49:49.188,-0.28,0.005
2021-08-19 02:49:49.192,-0.33,-0.035
2021-08-19 02:49:49.196,-0.335,-0.115
2021-08-19 02:49:49.200,-0.32,-0.05
2021-08-19 02:49:49.204,-0.33,-0.015
2021-08-19 02:49:49.208,-0.34,-0.05
2021-08-19 02:49:49.212,-0.33,-0.055
2021-08-19 02:49:49.216,-0.27,-0.025
2021-08-19 02:49:49.220,-0.27,-0.035
2021-08-19 02:49:49.224,-0.31,-0.08
2021-08-19 02:49:49.228,-0.32,-0.105
2021-08-19 02:49:49.232,-0.295,-0.11
2021-08-19 02:49:49.236,-0.28,-0.105
2021-08-19 02:49:49.240,-0.345,-0.125
2021-08-19 02:49:49.244,-0.355,-0.19
2021-08-19 02:49:49.248,-0.305,-0.17
2021-08-19 02:49:49.252,-0.27,-0.11
2021-08-19 02:49:49.256,-0.35,-0.095
2021-08-19 02:49:49.260,-0.35,-0.195
2021-08-19 02:49:49.264,-0.325,-0.175
2021-08-19 02:49:49.268,-0.27,-0.145
2021-08-19 02:49:49.272,-0.325,-0.12
2021-08-19 02:49:49.276,-0.34,-0.18
2021-08-19 02:49:49.280,-0.295,-0.185
2021-08-19 02:49:49.284,-0.27,-0.12
2021-08-19 02:49:49.288,-0.3,-0.14
2021-08-19 02:49:49.292,-0.34,-0.185
2021-08-19 02:49:49.296,-0.31,-0.185
2021-08-19 02:49:49.300,-0.27,-0.115
2021-08-19 02:49:49.304,-0.295,-0.135
2021-08-19 02:49:49.308,-0.35,-0.22
2021-08-19 02:49:49.312,-0.335,-0.26
2021-08-19 02:49:49.316,-0.3,-0.17
2021-08-19 02:49:49.320,-0.34,-0.19
2021-08-19 02:49:49.324,-0.37,-0.265
2021-08-19 02:49:49.328,-0.36,-0.255
2021-08-19 02:49:49.332,-0.325,-0.23
2021-08-19 02:49:49.336,-0.405,-0.2
2021-08-19 02:49:49.340,-0.47,-0.295
2021-08-19 02:49:49.344,-0.465,-0.29
2021-08-19 02:49:49.348,-0.41,-0.25
2021-08-19 02:49:49.352,-0.435,-0.21
2021-08-19 02:49:49.356,-0.455,-0.27
2021-08-19 02:49:49.360,-0.4,-0.3
2021-08-19 02:49:49.364,-0.36,-0.27
2021-08-19 02:49:49.368,-0.36,-0.235
2021-08-19 02:49:49.372,-0.43,-0.25
2021-08-19 02:49:49.376,-0.415,-0.265
2021-08-19 02:49:49.380,-0.375,-0.26
2021-08-19 02:49:49.384,-0.355,-0.22
2021-08-19 02:49:49.388,-0.4,-0.23
2021-08-19 02:49:49.392,-0.41,-0.28
2021-08-19 02:49:49.396,-0.355,-0.285
2021-08-19 02:49:49.400,-0.33,-0.24
2021-08-19 02:49:49.404,-0.39,-0.22
2021-08-19 02:49:49.408,-0.395,-0.295
2021-08-19 02:49:49.412,-0.345,-0.315
2021-08-19 02:49:49.416,-0.34,-0.28
2021-08-19 02:49:49.420,-0.37,-0.295
2021-08-19 02:49:49.424,-0.44,-0.28
2021-08-19 02:49:49.428,-0.41,-0.355
2021-08-19 02:49:49.432,-0.365,-0.315
2021-08-19 02:49:49.436,-0.415,-0.34
2021-08-19 02:49:49.440,-0.435,-0.335
2021-08-19 02:49:49.444,-0.4,-0.34
2021-08-19 02:49:49.448,-0.36,-0.285
2021-08-19 02:49:49.452,-0.39,-0.28
2021-08-19 02:49:49.456,-0.415,-0.315
2021-08-19 02:49:49.460,-0.365,-0.32
2021-08-19 02:49:49.464,-0.345,-0.275
2021-08-19 02:49:49.468,-0.37,-0.255
2021-08-19 02:49:49.472,-0.43,-0.295
2021-08-19 02:49:49.476,-0.475,-0.285
2021-08-19 02:49:49.480,-0.48,-0.13
2021-08-19 02:49:49.484,-0.31,0.175
2021-08-19 02:49:49.488,-0.13,0.345
2021-08-19 02:49:49.492,0.18,0.325
2021-08-19 02:49:49.496,0.595,0.485
2021-08-19 02:49:49.500,0.985,0.875
2021-08-19 02:49:49.504,1.26,0.585
2021-08-19 02:49:49.508,1.35,-0.295
2021-08-19 02:49:49.512,1.12,-1.07
2021-08-19 02:49:49.516,0.345,-1.475
2021-08-19 02:49:49.520,-0.34,-1.91
2021-08-19 02:49:49.544,-0.51,-1.51
2021-08-19 02:49:49.548,-0.34,-0.95
2021-08-19 02:49:49.552,-0.385,-0.505
2021-08-19 02:49:49.556,-0.475,-0.255
2021-08-19 02:49:49.560,-0.455,-0.205
2021-08-19 02:49:49.564,-0.435,-0.155
2021-08-19 02:49:49.568,-0.455,-0.12
2021-08-19 02:49:49.572,-0.49,-0.18
2021-08-19 02:49:49.576,-0.46,-0.17
2021-08-19 02:49:49.580,-0.415,-0.145
2021-08-19 02:49:49.584,-0.435,-0.1
2021-08-19 02:49:49.588,-0.46,-0.14
2021-08-19 02:49:49.592,-0.46,-0.185
2021-08-19 02:49:49.596,-0.405,-0.165
2021-08-19 02:49:49.600,-0.4,-0.13
2021-08-19 02:49:49.604,-0.47,-0.155
2021-08-19 02:49:49.608,-0.455,-0.19
2021-08-19 02:49:49.612,-0.43,-0.16
2021-08-19 02:49:49.616,-0.405,-0.13
2021-08-19 02:49:49.620,-0.44,-0.1
2021-08-19 02:49:49.624,-0.46,-0.145
2021-08-19 02:49:49.628,-0.44,-0.155
2021-08-19 02:49:49.632,-0.395,-0.08
2021-08-19 02:49:49.636,-0.41,-0.08
2021-08-19 02:49:49.640,-0.415,-0.11
2021-08-19 02:49:49.644,-0.375,-0.105
2021-08-19 02:49:49.648,-0.34,-0.03
2021-08-19 02:49:49.652,-0.35,0.01
2021-08-19 02:49:49.656,-0.41,0.0
2021-08-19 02:49:49.660,-0.38,-0.05
2021-08-19 02:49:49.664,-0.33,0.055
2021-08-19 02:49:49.668,-0.32,0.09
2021-08-19 02:49:49.672,-0.35,0.075
2021-08-19 02:49:49.676,-0.33,0.08
2021-08-19 02:49:49.680,-0.27,0.14
2021-08-19 02:49:49.684,-0.25,0.17
2021-08-19 02:49:49.688,-0.315,0.165
2021-08-19 02:49:49.692,-0.315,0.17
2021-08-19 02:49:49.696,-0.285,0.18
2021-08-19 02:49:49.700,-0.27,0.25
2021-08-19 02:49:49.704,-0.3,0.275
2021-08-19 02:49:49.708,-0.335,0.235
2021-08-19 02:49:49.712,-0.285,0.26
2021-08-19 02:49:49.716,-0.26,0.27
2021-08-19 02:49:49.720,-0.335,0.29
2021-08-19 02:49:49.724,-0.31,0.305
2021-08-19 02:49:49.728,-0.24,0.3
2021-08-19 02:49:49.732,-0.18,0.345
2021-08-19 02:49:49.736,-0.22,0.37
2021-08-19 02:49:49.740,-0.22,0.35
2021-08-19 02:49:49.744,-0.165,0.35
2021-08-19 02:49:49.748,-0.12,0.42
2021-08-19 02:49:49.752,-0.14,0.405
2021-08-19 02:49:49.756,-0.23,0.385
2021-08-19 02:49:49.760,-0.23,0.33
2021-08-19 02:49:49.764,-0.18,0.43
2021-08-19 02:49:49.768,-0.165,0.45
2021-08-19 02:49:49.772,-0.25,0.39
2021-08-19 02:49:49.776,-0.245,0.335
2021-08-19 02:49:49.780,-0.195,0.295
2021-08-19 02:49:49.784,-0.2,0.28
2021-08-19 02:49:49.788,-0.28,0.22
2021-08-19 02:49:49.792,-0.27,0.16
2021-08-19 02:49:49.796,-0.25,0.105
2021-08-19 02:49:49.800,-0.255,0.125
2021-08-19 02:49:49.804,-0.315,0.055
2021-08-19 02:49:49.808,-0.345,-0.02
2021-08-19 02:49:49.812,-0.295,-0.04
2021-08-19 02:49:49.816,-0.305,-0.005
2021-08-19 02:49:49.820,-0.365,-0.075
2021-08-19 02:49:49.824,-0.365,-0.15
2021-08-19 02:49:49.828,-0.325,-0.13
2021-08-19 02:49:49.832,-0.295,-0.08
2021-08-19 02:49:49.836,-0.35,-0.1
2021-08-19 02:49:49.840,-0.35,-0.16
2021-08-19 02:49:49.844,-0.305,-0.14
2021-08-19 02:49:49.848,-0.29,-0.12
2021-08-19 02:49:49.852,-0.33,-0.14
2021-08-19 02:49:49.856,-0.32,-0.205
2021-08-19 02:49:49.860,-0.27,-0.145
2021-08-19 02:49:49.864,-0.295,-0.12
2021-08-19 02:49:49.868,-0.35,-0.14
2021-08-19 02:49:49.872,-0.355,-0.17
2021-08-19 02:49:49.876,-0.34,-0.185
2021-08-19 02:49:49.880,-0.33,-0.115
2021-08-19 02:49:49.884,-0.36,-0.13
2021-08-19 02:49:49.888,-0.425,-0.16
2021-08-19 02:49:49.892,-0.39,-0.195
2021-08-19 02:49:49.896,-0.4,-0.125
2021-08-19 02:49:49.900,-0.39,-0.155
2021-08-19 02:49:49.904,-0.43,-0.19
2021-08-19 02:49:49.908,-0.4,-0.225
2021-08-19 02:49:49.912,-0.355,-0.155
2021-08-19 02:49:49.916,-0.375,-0.165
2021-08-19 02:49:49.920,-0.415,-0.24
2021-08-19 02:49:49.924,-0.385,-0.24
2021-08-19 02:49:49.928,-0.35,-0.185
2021-08-19 02:49:49.932,-0.385,-0.145
2021-08-19 02:49:49.936,-0.435,-0.205
2021-08-19 02:49:49.940,-0.415,-0.22
2021-08-19 02:49:49.944,-0.385,-0.175
2021-08-19 02:49:49.948,-0.42,-0.14
2021-08-19 02:49:49.952,-0.49,-0.19
2021-08-19 02:49:49.956,-0.51,-0.24
2021-08-19 02:49:49.960,-0.55,-0.16
2021-08-19 02:49:49.964,-0.58,0.02
2021-08-19 02:49:49.968,-0.39,0.15
2021-08-19 02:49:49.972,0.015,0.25
2021-08-19 02:49:49.976,0.575,0.635
2021-08-19 02:49:49.980,0.95,1.045
2021-08-19 02:49:49.984,1.245,0.405
2021-08-19 02:49:49.988,1.465,-0.565
2021-08-19 02:49:49.992,1.375,-1.39
2021-08-19 02:49:49.996,0.68,-1.99
2021-08-19 02:49:50.020,-0.515,-1.85
2021-08-19 02:49:50.024,-0.34,-1.175
2021-08-19 02:49:50.028,-0.31,-0.595
2021-08-19 02:49:50.032,-0.38,-0.285
2021-08-19 02:49:50.036,-0.455,-0.26
2021-08-19 02:49:50.040,-0.42,-0.225
2021-08-19 02:49:50.044,-0.41,-0.085
2021-08-19 02:49:50.048,-0.41,-0.07
2021-08-19 02:49:50.052,-0.46,-0.14
2021-08-19 02:49:50.056,-0.4,-0.135
2021-08-19 02:49:50.060,-0.38,-0.075
2021-08-19 02:49:50.064,-0.42,-0.08
2021-08-19 02:49:50.068,-0.45,-0.12
2021-08-19 02:49:50.072,-0.42,-0.13
2021-08-19 02:49:50.076,-0.39,-0.065
2021-08-19 02:49:50.080,-0.44,-0.06
2021-08-19 02:49:50.084,-0.49,-0.085
2021-08-19 02:49:50.088,-0.445,-0.065
2021-08-19 02:49:50.092,-0.355,-0.01
2021-08-19 02:49:50.096,-0.38,0.05
2021-08-19 02:49:50.100,-0.4,0.01
2021-08-19 02:49:50.104,-0.36,-0.015
2021-08-19 02:49:50.108,-0.335,0.08
2021-08-19 02:49:50.112,-0.36,0.09
2021-08-19 02:49:50.116,-0.42,0.07
2021-08-19 02:49:50.120,-0.41,0.07
2021-08-19 02:49:50.124,-0.365,0.12
2021-08-19 02:49:50.128,-0.355,0.18
2021-08-19 02:49:50.132,-0.415,0.18
2021-08-19 02:49:50.136,-0.395,0.19
2021-08-19 02:49:50.140,-0.375,0.175
2021-08-19 02:49:50.144,-0.37,0.28
2021-08-19 02:49:50.148,-0.435,0.27
2021-08-19 02:49:50.152,-0.41,0.245
2021-08-19 02:49:50.156,-0.35,0.265
2021-08-19 02:49:50.160,-0.345,0.34
2021-08-19 02:49:50.164,-0.375,0.355
2021-08-19 02:49:50.168,-0.4,0.28
2021-08-19 02:49:50.172,-0.35,0.26
2021-08-19 02:49:50.176,-0.375,0.315
2021-08-19 02:49:50.180,-0.385,0.335
2021-08-19 02:49:50.184,-0.435,0.29
2021-08-19 02:49:50.188,-0.365,0.315
2021-08-19 02:49:50.192,-0.325,0.35
2021-08-19 02:49:50.196,-0.33,0.36
2021-08-19 02:49:50.200,-0.34,0.32
2021-08-19 02:49:50.204,-0.26,0.325
2021-08-19 02:49:50.208,-0.215,0.37
2021-08-19 02:49:50.212,-0.245,0.345
2021-08-19 02:49:50.216,-0.24,0.335
2021-08-19 02:49:50.220,-0.185,0.35
2021-08-19 02:49:50.224,-0.19,0.35
2021-08-19 02:49:50.228,-0.245,0.34
2021-08-19 02:49:50.232,-0.265,0.23
2021-08-19 02:49:50.236,-0.23,0.185
2021-08-19 02:49:50.240,-0.25,0.215
2021-08-19 02:49:50.244,-0.29,0.165
2021-08-19 02:49:50.248,-0.335,0.075
2021-08-19 02:49:50.252,-0.32,0.03
2021-08-19 02:49:50.256,-0.32,0.01
2021-08-19 02:49:50.260,-0.37,0.01
2021-08-19 02:49:50.264,-0.41,-0.085
2021-08-19 02:49:50.268,-0.38,-0.135
2021-08-19 02:49:50.272,-0.335,-0.09
2021-08-19 02:49:50.276,-0.37,-0.1
2021-08-19 02:49:50.280,-0.42,-0.135
2021-08-19 02:49:50.284,-0.38,-0.18
2021-08-19 02:49:50.288,-0.345,-0.145
2021-08-19 02:49:50.292,-0.39,-0.135
2021-08-19 02:49:50.296,-0.38,-0.14
2021-08-19 02:49:50.300,-0.36,-0.155
2021-08-19 02:49:50.304,-0.315,-0.125
2021-08-19 02:49:50.308,-0.335,-0.1
2021-08-19 02:49:50.312,-0.385,-0.135
2021-08-19 02:49:50.316,-0.42,-0.14
2021-08-19 02:49:50.320,-0.355,-0.1
2021-08-19 02:49:50.324,-0.405,-0.05
2021-08-19 02:49:50.328,-0.46,-0.125
2021-08-19 02:49:50.332,-0.42,-0.14
2021-08-19 02:49:50.336,-0.395,-0.1
2021-08-19 02:49:50.340,-0.415,-0.075
2021-08-19 02:49:50.344,-0.445,-0.14
2021-08-19 02:49:50.348,-0.41,-0.12
2021-08-19 02:49:50.352,-0.37,-0.08
2021-08-19 02:49:50.356,-0.42,-0.06
2021-08-19 02:49:50.360,-0.45,-0.105
2021-08-19 02:49:50.364,-0.405,-0.16
2021-08-19 02:49:50.368,-0.35,-0.12
2021-08-19 02:49:50.372,-0.37,-0.105
2021-08-19 02:49:50.376,-0.375,-0.175
2021-08-19 02:49:50.380,-0.34,-0.2
2021-08-19 02:49:50.384,-0.295,-0.205
2021-08-19 02:49:50.388,-0.34,-0.195
2021-08-19 02:49:50.392,-0.4,-0.225
2021-08-19 02:49:50.396,-0.365,-0.285
2021-08-19 02:49:50.400,-0.335,-0.21
2021-08-19 02:49:50.404,-0.335,-0.18
2021-08-19 02:49:50.408,-0.38,-0.22
2021-08-19 02:49:50.412,-0.37,-0.27
2021-08-19 02:49:50.416,-0.335,-0.22
2021-08-19 02:49:50.420,-0.34,-0.175
2021-08-19 02:49:50.424,-0.42,-0.205
2021-08-19 02:49:50.428,-0.42,-0.305
2021-08-19 02:49:50.432,-0.41,-0.28
2021-08-19 02:49:50.436,-0.4,-0.21
2021-08-19 02:49:50.440,-0.475,-0.245
2021-08-19 02:49:50.444,-0.48,-0.32
2021-08-19 02:49:50.448,-0.46,-0.33
2021-08-19 02:49:50.452,-0.435,-0.295
2021-08-19 02:49:50.456,-0.47,-0.28
2021-08-19 02:49:50.460,-0.47,-0.345
2021-08-19 02:49:50.464,-0.42,-0.315
2021-08-19 02:49:50.468,-0.42,-0.285
2021-08-19 02:49:50.472,-0.455,-0.31
2021-08-19 02:49:50.476,-0.485,-0.32
2021-08-19 02:49:50.480,-0.445,-0.35
2021-08-19 02:49:50.484,-0.44,-0.305
2021-08-19 02:49:50.488,-0.48,-0.305
2021-08-19 02:49:50.492,-0.525,-0.365
2021-08-19 02:49:50.496,-0.485,-0.365
2021-08-19 02:49:50.500,-0.44,-0.315
2021-08-19 02:49:50.504,-0.495,-0.305
2021-08-19 02:49:50.508,-0.52,-0.34
2021-08-19 02:49:50.512,-0.5,-0.35
2021-08-19 02:49:50.516,-0.46,-0.33
2021-08-19 02:49:50.520,-0.49,-0.31
2021-08-19 02:49:50.524,-0.515,-0.34
2021-08-19 02:49:50.528,-0.49,-0.32
2021-08-19 02:49:50.532,-0.45,-0.34
2021-08-19 02:49:50.536,-0.46,-0.285
2021-08-19 02:49:50.540,-0.49,-0.295
2021-08-19 02:49:50.544,-0.465,-0.365
2021-08-19 02:49:50.548,-0.46,-0.3
2021-08-19 02:49:50.552,-0.42,-0.285
2021-08-19 02:49:50.556,-0.475,-0.27
2021-08-19 02:49:50.560,-0.465,-0.325
2021-08-19 02:49:50.564,-0.415,-0.28
2021-08-19 02:49:50.568,-0.385,-0.24
2021-08-19 02:49:50.572,-0.46,-0.21
2021-08-19 02:49:50.576,-0.525,-0.245
2021-08-19 02:49:50.580,-0.51,-0.135
2021-08-19 02:49:50.584,-0.39,0.13
2021-08-19 02:49:50.588,-0.145,0.335
2021-08-19 02:49:50.592,0.145,0.365
2021-08-19 02:49:50.596,0.6,0.465
2021-08-19 02:49:50.600,0.985,0.85
2021-08-19 02:49:50.604,1.23,0.385
2021-08-19 02:49:50.608,1.31,-0.45
2021-08-19 02:49:50.612,0.96,-1.27
2021-08-19 02:49:50.616,0.145,-1.62
2021-08-19 02:49:50.640,-0.675,-1.945
2021-08-19 02:49:50.644,-0.46,-1.305
2021-08-19 02:49:50.648,-0.32,-0.79
2021-08-19 02:49:50.652,-0.415,-0.42
2021-08-19 02:49:50.656,-0.555,-0.29
2021-08-19 02:49:50.660,-0.55,-0.21
2021-08-19 02:49:50.664,-0.495,-0.17
2021-08-19 02:49:50.668,-0.505,-0.15
2021-08-19 02:49:50.672,-0.545,-0.17
2021-08-19 02:49:50.676,-0.525,-0.21
2021-08-19 02:49:50.680,-0.47,-0.15
2021-08-19 02:49:50.684,-0.505,-0.155
2021-08-19 02:49:50.688,-0.53,-0.155
2021-08-19 02:49:50.692,-0.525,-0.16
2021-08-19 02:49:50.696,-0.45,-0.105
2021-08-19 02:49:50.700,-0.465,-0.07
2021-08-19 02:49:50.704,-0.5,-0.12
2021-08-19 02:49:50.708,-0.52,-0.15
2021-08-19 02:49:50.712,-0.46,-0.105
2021-08-19 02:49:50.716,-0.475,-0.07
2021-08-19 02:49:50.720,-0.505,-0.065
2021-08-19 02:49:50.724,-0.495,-0.08
2021-08-19 02:49:50.728,-0.425,-0.04
2021-08-19 02:49:50.732,-0.4,0.045
2021-08-19 02:49:50.736,-0.465,0.01
2021-08-19 02:49:50.740,-0.48,0.01
2021-08-19 02:49:50.744,-0.42,0.04
2021-08-19 02:49:50.748,-0.425,0.12
2021-08-19 02:49:50.752,-0.45,0.11
2021-08-19 02:49:50.756,-0.42,0.11
2021-08-19 02:49:50.760,-0.345,0.18
2021-08-19 02:49:50.764,-0.33,0.22
2021-08-19 02:49:50.768,-0.33,0.22
2021-08-19 02:49:50.772,-0.33,0.195
2021-08-19 02:49:50.776,-0.265,0.265
2021-08-19 02:49:50.780,-0.24,0.27
2021-08-19 02:49:50.784,-0.315,0.33
2021-08-19 02:49:50.788,-0.34,0.3
2021-08-19 02:49:50.792,-0.29,0.355
2021-08-19 02:49:50.796,-0.275,0.39
2021-08-19 02:49:50.800,-0.34,0.37
2021-08-19 02:49:50.804,-0.315,0.385
2021-08-19 02:49:50.808,-0.29,0.42
2021-08-19 02:49:50.812,-0.255,0.52
2021-08-19 02:49:50.816,-0.29,0.505
2021-08-19 02:49:50.820,-0.29,0.48
2021-08-19 02:49:50.824,-0.225,0.495
2021-08-19 02:49:50.828,-0.2,0.56
2021-08-19 02:49:50.832,-0.225,0.535
2021-08-19 02:49:50.836,-0.24,0.54
2021-08-19 02:49:50.840,-0.215,0.545
2021-08-19 02:49:50.844,-0.155,0.565
2021-08-19 02:49:50.848,-0.22,0.6
2021-08-19 02:49:50.852,-0.27,0.545
2021-08-19 02:49:50.856,-0.25,0.53
2021-08-19 02:49:50.860,-0.21,0.555
2021-08-19 02:49:50.864,-0.245,0.54
2021-08-19 02:49:50.868,-0.275,0.485
2021-08-19 02:49:50.872,-0.29,0.42
2021-08-19 02:49:50.876,-0.265,0.43
2021-08-19 02:49:50.880,-0.33,0.385
2021-08-19 02:49:50.884,-0.36,0.27
2021-08-19 02:49:50.888,-0.345,0.22
2021-08-19 02:49:50.892,-0.3,0.23
2021-08-19 02:49:50.896,-0.365,0.215
2021-08-19 02:49:50.900,-0.41,0.14
2021-08-19 02:49:50.904,-0.405,0.055
2021-08-19 02:49:50.908,-0.34,0.105
2021-08-19 02:49:50.912,-0.385,0.095
2021-08-19 02:49:50.916,-0.42,0.045
2021-08-19 02:49:50.920,-0.42,-0.02
2021-08-19 02:49:50.924,-0.385,0.01
2021-08-19 02:49:50.928,-0.395,0.015
2021-08-19 02:49:50.932,-0.445,-0.015
2021-08-19 02:49:50.936,-0.405,-0.06
2021-08-19 02:49:50.940,-0.37,-0.025
2021-08-19 02:49:50.944,-0.36,-0.005
2021-08-19 02:49:50.948,-0.415,-0.025
2021-08-19 02:49:50.952,-0.42,-0.075
2021-08-19 02:49:50.956,-0.38,-0.08
2021-08-19 02:49:50.960,-0.34,-0.01
2021-08-19 02:49:50.964,-0.38,-0.06
2021-08-19 02:49:50.968,-0.415,-0.12
2021-08-19 02:49:50.972,-0.36,-0.115
2021-08-19 02:49:50.976,-0.35,-0.085
2021-08-19 02:49:50.980,-0.355,-0.07
2021-08-19 02:49:50.984,-0.31,-0.14
2021-08-19 02:49:50.988,-0.34,-0.11
2021-08-19 02:49:50.992,-0.3,-0.05
2021-08-19 02:49:50.996,-0.37,-0.06
2021-08-19 02:49:51.000,-0.38,-0.14
2021-08-19 02:49:51.004,-0.365,-0.155
2021-08-19 02:49:51.008,-0.32,-0.095
2021-08-19 02:49:51.012,-0.38,-0.06
2021-08-19 02:49:51.016,-0.4,-0.125
2021-08-19 02:49:51.020,-0.355,-0.14
2021-08-19 02:49:51.024,-0.335,-0.105
2021-08-19 02:49:51.028,-0.405,-0.1
2021-08-19 02:49:51.032,-0.44,-0.125
2021-08-19 02:49:51.036,-0.425,-0.185
2021-08-19 02:49:51.040,-0.39,-0.13
2021-08-19 02:49:51.044,-0.44,-0.14
2021-08-19 02:49:51.048,-0.485,-0.18
2021-08-19 02:49:51.052,-0.47,-0.225
2021-08-19 02:49:51.056,-0.43,-0.155
2021-08-19 02:49:51.060,-0.43,-0.14
2021-08-19 02:49:51.064,-0.485,-0.175
2021-08-19 02:49:51.068,-0.495,-0.23
2021-08-19 02:49:51.072,-0.455,-0.245
2021-08-19 02:49:51.076,-0.445,-0.195
2021-08-19 02:49:51.080,-0.495,-0.22
2021-08-19 02:49:51.084,-0.5,-0.265
2021-08-19 02:49:51.088,-0.44,-0.24
2021-08-19 02:49:51.092,-0.42,-0.18
2021-08-19 02:49:51.096,-0.485,-0.215
2021-08-19 02:49:51.100,-0.46,-0.27
2021-08-19 02:49:51.104,-0.43,-0.22
2021-08-19 02:49:51.108,-0.44,-0.175
2021-08-19 02:49:51.112,-0.48,-0.195
2021-08-19 02:49:51.116,-0.47,-0.245
2021-08-19 02:49:51.120,-0.45,-0.2
2021-08-19 02:49:51.124,-0.435,-0.16
2021-08-19 02:49:51.128,-0.5,-0.17
2021-08-19 02:49:51.132,-0.475,-0.21
2021-08-19 02:49:51.136,-0.465,-0.2
2021-08-19 02:49:51.140,-0.45,-0.17
2021-08-19 02:49:51.144,-0.52,-0.185
2021-08-19 02:49:51.148,-0.475,-0.23
2021-08-19 02:49:51.152,-0.465,-0.205
2021-08-19 02:49:51.156,-0.465,-0.195
2021-08-19 02:49:51.160,-0.5,-0.185
2021-08-19 02:49:51.164,-0.505,-0.24
2021-08-19 02:49:51.168,-0.48,-0.19
2021-08-19 02:49:51.172,-0.45,-0.145
2021-08-19 02:49:51.176,-0.49,-0.145
2021-08-19 02:49:51.180,-0.505,-0.16
2021-08-19 02:49:51.184,-0.45,-0.155
2021-08-19 02:49:51.188,-0.445,-0.085
2021-08-19 02:49:51.192,-0.455,-0.1
2021-08-19 02:49:51.196,-0.48,-0.11
2021-08-19 02:49:51.200,-0.375,-0.135
2021-08-19 02:49:51.204,-0.37,-0.06
2021-08-19 02:49:51.208,-0.37,-0.055
2021-08-19 02:49:51.212,-0.425,-0.11
2021-08-19 02:49:51.216,-0.4,-0.16
2021-08-19 02:49:51.220,-0.365,-0.125
2021-08-19 02:49:51.224,-0.43,-0.15
2021-08-19 02:49:51.228,-0.495,-0.23
2021-08-19 02:49:51.232,-0.44,-0.29
2021-08-19 02:49:51.236,-0.45,-0.28
2021-08-19 02:49:51.240,-0.49,-0.245
2021-08-19 02:49:51.244,-0.52,-0.35
2021-08-19 02:49:51.248,-0.495,-0.35
2021-08-19 02:49:51.252,-0.455,-0.315
2021-08-19 02:49:51.256,-0.48,-0.315
2021-08-19 02:49:51.260,-0.535,-0.37
2021-08-19 02:49:51.264,-0.48,-0.35
2021-08-19 02:49:51.268,-0.455,-0.29
2021-08-19 02:49:51.272,-0.485,-0.315
2021-08-19 02:49:51.276,-0.52,-0.36
2021-08-19 02:49:51.280,-0.475,-0.41
2021-08-19 02:49:51.284,-0.43,-0.325
2021-08-19 02:49:51.288,-0.45,-0.29
2021-08-19 02:49:51.292,-0.495,-0.33
2021-08-19 02:49:51.296,-0.425,-0.365
2021-08-19 02:49:51.300,-0.39,-0.295
2021-08-19 02:49:51.304,-0.42,-0.265
2021-08-19 02:49:51.308,-0.435,-0.31
2021-08-19 02:49:51.312,-0.45,-0.335
2021-08-19 02:49:51.316,-0.38,-0.27
2021-08-19 02:49:51.320,-0.435,-0.225
2021-08-19 02:49:51.324,-0.47,-0.285
2021-08-19 02:49:51.328,-0.47,-0.29
2021-08-19 02:49:51.332,-0.45,-0.275
2021-08-19 02:49:51.336,-0.465,-0.23
2021-08-19 02:49:51.340,-0.535,-0.275
2021-08-19 02:49:51.344,-0.54,-0.33
2021-08-19 02:49:51.348,-0.47,-0.34
2021-08-19 02:49:51.352,-0.49,-0.285
2021-08-19 02:49:51.356,-0.53,-0.325
2021-08-19 02:49:51.360,-0.54,-0.37
2021-08-19 02:49:51.364,-0.48,-0.29
2021-08-19 02:49:51.368,-0.485,-0.23
2021-08-19 02:49:51.372,-0.53,-0.215
2021-08-19 02:49:51.376,-0.555,-0.24
2021-08-19 02:49:51.380,-0.47,-0.2
2021-08-19 02:49:51.384,-0.45,-0.16
2021-08-19 02:49:51.388,-0.465,-0.165
2021-08-19 02:49:51.392,-0.505,-0.225
2021-08-19 02:49:51.396,-0.45,-0.205
2021-08-19 02:49:51.400,-0.46,-0.135
2021-08-19 02:49:51.404,-0.48,-0.16
2021-08-19 02:49:51.408,-0.53,-0.23
2021-08-19 02:49:51.412,-0.45,-0.26
2021-08-19 02:49:51.416,-0.455,-0.22
2021-08-19 02:49:51.420,-0.47,-0.245
2021-08-19 02:49:51.424,-0.5,-0.285
2021-08-19 02:49:51.428,-0.445,-0.29
2021-08-19 02:49:51.432,-0.435,-0.27
2021-08-19 02:49:51.436,-0.465,-0.23
2021-08-19 02:49:51.440,-0.485,-0.315
2021-08-19 02:49:51.444,-0.44,-0.315
2021-08-19 02:49:51.448,-0.445,-0.29
2021-08-19 02:49:51.452,-0.46,-0.27
2021-08-19 02:49:51.456,-0.52,-0.31
2021-08-19 02:49:51.460,-0.48,-0.32
2021-08-19 02:49:51.464,-0.45,-0.285
2021-08-19 02:49:51.468,-0.465,-0.265
2021-08-19 02:49:51.472,-0.52,-0.33
2021-08-19 02:49:51.476,-0.6,-0.3
2021-08-19 02:49:51.480,-0.555,-0.075
2021-08-19 02:49:51.484,-0.43,0.215
2021-08-19 02:49:51.488,-0.24,0.28
2021-08-19 02:49:51.492,0.055,0.175
2021-08-19 02:49:51.496,0.46,0.335
2021-08-19 02:49:51.500,0.84,0.61
2021-08-19 02:49:51.504,1.11,0.14
2021-08-19 02:49:51.508,1.195,-0.71
2021-08-19 02:49:51.512,0.88,-1.335
2021-08-19 02:49:51.516,0.19,-1.655
2021-08-19 02:49:51.540,-0.81,-1.975
2021-08-19 02:49:51.544,-0.555,-1.345
2021-08-19 02:49:51.548,-0.47,-0.865
2021-08-19 02:49:51.552,-0.535,-0.46
2021-08-19 02:49:51.556,-0.605,-0.28
2021-08-19 02:49:51.560,-0.59,-0.17
2021-08-19 02:49:51.564,-0.555,-0.135
2021-08-19 02:49:51.568,-0.59,-0.065
2021-08-19 02:49:51.572,-0.615,-0.12
2021-08-19 02:49:51.576,-0.555,-0.115
2021-08-19 02:49:51.580,-0.48,-0.105
2021-08-19 02:49:51.584,-0.475,-0.055
2021-08-19 02:49:51.588,-0.49,-0.065
2021-08-19 02:49:51.592,-0.51,-0.08
2021-08-19 02:49:51.596,-0.44,-0.06
2021-08-19 02:49:51.600,-0.45,0.0
2021-08-19 02:49:51.604,-0.47,-0.01
2021-08-19 02:49:51.608,-0.495,-0.065
2021-08-19 02:49:51.612,-0.47,-0.03
2021-08-19 02:49:51.616,-0.44,-0.02
2021-08-19 02:49:51.620,-0.485,-0.02
2021-08-19 02:49:51.624,-0.47,-0.065
2021-08-19 02:49:51.628,-0.425,-0.015
2021-08-19 02:49:51.632,-0.39,0.04
2021-08-19 02:49:51.636,-0.43,0.02
2021-08-19 02:49:51.640,-0.455,0.01
2021-08-19 02:49:51.644,-0.405,0.005
2021-08-19 02:49:51.648,-0.365,0.055
2021-08-19 02:49:51.652,-0.41,0.075
2021-08-19 02:49:51.656,-0.405,0.08
2021-08-19 02:49:51.660,-0.355,0.12
2021-08-19 02:49:51.664,-0.37,0.16
2021-08-19 02:49:51.668,-0.385,0.15
2021-08-19 02:49:51.672,-0.37,0.16
2021-08-19 02:49:51.676,-0.315,0.165
2021-08-19 02:49:51.680,-0.295,0.22
2021-08-19 02:49:51.684,-0.35,0.26
2021-08-19 02:49:51.688,-0.365,0.22
2021-08-19 02:49:51.692,-0.35,0.22
2021-08-19 02:49:51.696,-0.325,0.31
2021-08-19 02:49:51.700,-0.385,0.375
2021-08-19 02:49:51.704,-0.42,0.32
2021-08-19 02:49:51.708,-0.38,0.33
2021-08-19 02:49:51.712,-0.325,0.38
2021-08-19 02:49:51.716,-0.36,0.435
2021-08-19 02:49:51.720,-0.38,0.44
2021-08-19 02:49:51.724,-0.38,0.39
2021-08-19 02:49:51.728,-0.34,0.435
2021-08-19 02:49:51.732,-0.345,0.475
2021-08-19 02:49:51.736,-0.395,0.475
2021-08-19 02:49:51.740,-0.41,0.445
2021-08-19 02:49:51.744,-0.32,0.485
2021-08-19 02:49:51.748,-0.315,0.505
2021-08-19 02:49:51.752,-0.375,0.475
2021-08-19 02:49:51.756,-0.37,0.465
2021-08-19 02:49:51.760,-0.275,0.47
2021-08-19 02:49:51.764,-0.245,0.51
2021-08-19 02:49:51.768,-0.295,0.485
2021-08-19 02:49:51.772,-0.265,0.455
2021-08-19 02:49:51.776,-0.225,0.415
2021-08-19 02:49:51.780,-0.245,0.42
2021-08-19 02:49:51.784,-0.29,0.365
2021-08-19 02:49:51.788,-0.305,0.29
2021-08-19 02:49:51.792,-0.265,0.26
2021-08-19 02:49:51.796,-0.31,0.255
2021-08-19 02:49:51.800,-0.38,0.24
2021-08-19 02:49:51.804,-0.43,0.12
2021-08-19 02:49:51.808,-0.38,0.125
2021-08-19 02:49:51.812,-0.365,0.1
2021-08-19 02:49:51.816,-0.405,0.075
2021-08-19 02:49:51.820,-0.45,-0.015
2021-08-19 02:49:51.824,-0.415,-0.035
2021-08-19 02:49:51.828,-0.375,-0.04
2021-08-19 02:49:51.832,-0.4,-0.015
2021-08-19 02:49:51.836,-0.43,-0.095
2021-08-19 02:49:51.840,-0.41,-0.09
2021-08-19 02:49:51.844,-0.37,-0.085
2021-08-19 02:49:51.848,-0.365,-0.065
2021-08-19 02:49:51.852,-0.4,-0.08
2021-08-19 02:49:51.856,-0.39,-0.1
2021-08-19 02:49:51.860,-0.335,-0.035
2021-08-19 02:49:51.864,-0.355,-0.015
2021-08-19 02:49:51.868,-0.39,-0.02
2021-08-19 02:49:51.872,-0.4,-0.075
2021-08-19 02:49:51.876,-0.38,-0.045
2021-08-19 02:49:51.880,-0.39,-0.04
2021-08-19 02:49:51.884,-0.48,-0.06
2021-08-19 02:49:51.888,-0.455,-0.08
2021-08-19 02:49:51.892,-0.415,-0.045
2021-08-19 02:49:51.896,-0.43,-0.02
2021-08-19 02:49:51.900,-0.53,-0.055
2021-08-19 02:49:51.904,-0.5,-0.105
2021-08-19 02:49:51.908,-0.47,-0.085
2021-08-19 02:49:51.912,-0.465,-0.03
2021-08-19 02:49:51.916,-0.535,-0.085
2021-08-19 02:49:51.920,-0.545,-0.1
2021-08-19 02:49:51.924,-0.48,-0.075
2021-08-19 02:49:51.928,-0.455,-0.06
2021-08-19 02:49:51.932,-0.5,-0.04
2021-08-19 02:49:51.936,-0.51,-0.13
2021-08-19 02:49:51.940,-0.46,-0.105
2021-08-19 02:49:51.944,-0.4,-0.1
2021-08-19 02:49:51.948,-0.44,-0.095
2021-08-19 02:49:51.952,-0.48,-0.14
2021-08-19 02:49:51.956,-0.455,-0.185
2021-08-19 02:49:51.960,-0.385,-0.15
2021-08-19 02:49:51.964,-0.455,-0.13
2021-08-19 02:49:51.968,-0.5,-0.18
2021-08-19 02:49:51.972,-0.475,-0.27
2021-08-19 02:49:51.976,-0.48,-0.265
2021-08-19 02:49:51.980,-0.45,-0.235
2021-08-19 02:49:51.984,-0.49,-0.28
2021-08-19 02:49:51.988,-0.515,-0.325
2021-08-19 02:49:51.992,-0.45,-0.31
2021-08-19 02:49:51.996,-0.42,-0.29
2021-08-19 02:49:52.000,-0.475,-0.3
2021-08-19 02:49:52.004,-0.49,-0.335
2021-08-19 02:49:52.008,-0.42,-0.315
2021-08-19 02:49:52.012,-0.43,-0.275
2021-08-19 02:49:52.016,-0.475,-0.29
2021-08-19 02:49:52.020,-0.485,-0.31
2021-08-19 02:49:52.024,-0.425,-0.285
2021-08-19 02:49:52.028,-0.38,-0.235
2021-08-19 02:49:52.032,-0.38,-0.2
2021-08-19 02:49:52.036,-0.415,-0.265
2021-08-19 02:49:52.040,-0.465,-0.22
2021-08-19 02:49:52.044,-0.495,-0.17
2021-08-19 02:49:52.048,-0.525,0.065
2021-08-19 02:49:52.052,-0.385,0.265
2021-08-19 02:49:52.056,-0.105,0.37
2021-08-19 02:49:52.060,0.345,0.495
2021-08-19 02:49:52.064,0.745,0.9
2021-08-19 02:49:52.068,1.05,0.755
2021-08-19 02:49:52.072,1.29,-0.135
2021-08-19 02:49:52.076,1.37,-1.02
2021-08-19 02:49:52.080,0.845,-1.64
2021-08-19 02:49:52.108,-0.62,-1.615
2021-08-19 02:49:52.112,-0.475,-0.95
2021-08-19 02:49:52.116,-0.515,-0.48
2021-08-19 02:49:52.120,-0.67,-0.24
2021-08-19 02:49:52.124,-0.64,-0.235
2021-08-19 02:49:52.128,-0.605,-0.17
2021-08-19 02:49:52.132,-0.62,-0.145
2021-08-19 02:49:52.136,-0.635,-0.135
2021-08-19 02:49:52.140,-0.62,-0.165
2021-08-19 02:49:52.144,-0.525,-0.17
2021-08-19 02:49:52.148,-0.49,-0.075
2021-08-19 02:49:52.152,-0.505,-0.135
2021-08-19 02:49:52.156,-0.495,-0.16
2021-08-19 02:49:52.160,-0.415,-0.16
2021-08-19 02:49:52.164,-0.44,-0.09
2021-08-19 02:49:52.168,-0.475,-0.095
2021-08-19 02:49:52.172,-0.48,-0.11
2021-08-19 02:49:52.176,-0.46,-0.125
2021-08-19 02:49:52.180,-0.46,-0.065
2021-08-19 02:49:52.184,-0.515,-0.09
2021-08-19 02:49:52.188,-0.535,-0.145
2021-08-19 02:49:52.192,-0.48,-0.1
2021-08-19 02:49:52.196,-0.44,-0.07
2021-08-19 02:49:52.200,-0.49,-0.06
2021-08-19 02:49:52.204,-0.47,-0.125
2021-08-19 02:49:52.208,-0.405,-0.1
2021-08-19 02:49:52.212,-0.41,-0.005
2021-08-19 02:49:52.216,-0.44,0.0
2021-08-19 02:49:52.220,-0.45,0.0
2021-08-19 02:49:52.224,-0.385,0.02
2021-08-19 02:49:52.228,-0.35,0.085
2021-08-19 02:49:52.232,-0.33,0.135
2021-08-19 02:49:52.236,-0.395,0.18
2021-08-19 02:49:52.240,-0.315,0.205
2021-08-19 02:49:52.244,-0.25,0.295
2021-08-19 02:49:52.248,-0.28,0.35
2021-08-19 02:49:52.252,-0.305,0.345
2021-08-19 02:49:52.256,-0.27,0.375
2021-08-19 02:49:52.260,-0.23,0.46
2021-08-19 02:49:52.264,-0.28,0.51
2021-08-19 02:49:52.268,-0.33,0.485
2021-08-19 02:49:52.272,-0.345,0.515
2021-08-19 02:49:52.276,-0.305,0.54
2021-08-19 02:49:52.280,-0.33,0.615
2021-08-19 02:49:52.284,-0.375,0.57
2021-08-19 02:49:52.288,-0.36,0.57
2021-08-19 02:49:52.292,-0.34,0.545
2021-08-19 02:49:52.296,-0.35,0.61
2021-08-19 02:49:52.300,-0.395,0.54
2021-08-19 02:49:52.304,-0.4,0.495
2021-08-19 02:49:52.308,-0.335,0.52
2021-08-19 02:49:52.312,-0.335,0.545
2021-08-19 02:49:52.316,-0.395,0.455
2021-08-19 02:49:52.320,-0.38,0.375
2021-08-19 02:49:52.324,-0.32,0.37
2021-08-19 02:49:52.328,-0.33,0.335
2021-08-19 02:49:52.332,-0.38,0.265
2021-08-19 02:49:52.336,-0.4,0.18
2021-08-19 02:49:52.340,-0.35,0.185
2021-08-19 02:49:52.344,-0.41,0.155
2021-08-19 02:49:52.348,-0.485,0.075
2021-08-19 02:49:52.352,-0.525,-0.04
2021-08-19 02:49:52.356,-0.47,-0.06
2021-08-19 02:49:52.360,-0.44,-0.07
2021-08-19 02:49:52.364,-0.51,-0.125
2021-08-19 02:49:52.368,-0.5,-0.21
2021-08-19 02:49:52.372,-0.465,-0.24
2021-08-19 02:49:52.376,-0.435,-0.165
2021-08-19 02:49:52.380,-0.49,-0.235
2021-08-19 02:49:52.384,-0.53,-0.28
2021-08-19 02:49:52.388,-0.485,-0.31
2021-08-19 02:49:52.392,-0.46,-0.26
2021-08-19 02:49:52.396,-0.49,-0.285
2021-08-19 02:49:52.400,-0.54,-0.305
2021-08-19 02:49:52.404,-0.52,-0.295
2021-08-19 02:49:52.408,-0.54,-0.245
2021-08-19 02:49:52.412,-0.565,-0.215
2021-08-19 02:49:52.416,-0.575,-0.26
2021-08-19 02:49:52.420,-0.515,-0.245
2021-08-19 02:49:52.424,-0.41,-0.195
2021-08-19 02:49:52.428,-0.46,-0.175
2021-08-19 02:49:52.432,-0.455,-0.225
2021-08-19 02:49:52.436,-0.405,-0.175
2021-08-19 02:49:52.440,-0.38,-0.145
2021-08-19 02:49:52.444,-0.445,-0.13
2021-08-19 02:49:52.448,-0.46,-0.14
2021-08-19 02:49:52.452,-0.455,-0.22
2021-08-19 02:49:52.456,-0.41,-0.16
2021-08-19 02:49:52.460,-0.47,-0.175
2021-08-19 02:49:52.464,-0.535,-0.22
2021-08-19 02:49:52.468,-0.52,-0.265
2021-08-19 02:49:52.472,-0.475,-0.24
2021-08-19 02:49:52.476,-0.5,-0.225
2021-08-19 02:49:52.480,-0.58,-0.25
2021-08-19 02:49:52.484,-0.575,-0.26
2021-08-19 02:49:52.488,-0.52,-0.255
2021-08-19 02:49:52.492,-0.55,-0.155
2021-08-19 02:49:52.496,-0.675,-0.145
2021-08-19 02:49:52.500,-0.555,-0.015
2021-08-19 02:49:52.504,-0.285,0.17
2021-08-19 02:49:52.508,0.055,0.335
2021-08-19 02:49:52.512,0.475,0.57
2021-08-19 02:49:52.516,0.915,1.21
2021-08-19 02:49:52.520,1.245,1.1
2021-08-19 02:49:52.524,1.3,0.345
2021-08-19 02:49:52.528,0.965,-0.665
2021-08-19 02:49:52.532,0.105,-1.685
2021-08-19 02:49:52.556,-0.56,-1.45
2021-08-19 02:49:52.560,-0.52,-0.925
2021-08-19 02:49:52.564,-0.54,-0.58
2021-08-19 02:49:52.568,-0.565,-0.34
2021-08-19 02:49:52.572,-0.535,-0.22
2021-08-19 02:49:52.576,-0.6,-0.205
2021-08-19 02:49:52.580,-0.625,-0.25
2021-08-19 02:49:52.584,-0.605,-0.265
2021-08-19 02:49:52.588,-0.57,-0.23
2021-08-19 02:49:52.592,-0.59,-0.17
2021-08-19 02:49:52.596,-0.61,-0.215
2021-08-19 02:49:52.600,-0.565,-0.23
2021-08-19 02:49:52.604,-0.535,-0.215
2021-08-19 02:49:52.608,-0.525,-0.145
2021-08-19 02:49:52.612,-0.575,-0.16
2021-08-19 02:49:52.616,-0.565,-0.18
2021-08-19 02:49:52.620,-0.51,-0.16
2021-08-19 02:49:52.624,-0.5,-0.17
2021-08-19 02:49:52.628,-0.525,-0.145
2021-08-19 02:49:52.632,-0.495,-0.18
2021-08-19 02:49:52.636,-0.4,-0.165
2021-08-19 02:49:52.640,-0.43,-0.15
2021-08-19 02:49:52.644,-0.435,-0.115
2021-08-19 02:49:52.648,-0.48,-0.13
2021-08-19 02:49:52.652,-0.43,-0.105
2021-08-19 02:49:52.656,-0.435,-0.095
2021-08-19 02:49:52.660,-0.505,-0.075
2021-08-19 02:49:52.664,-0.54,-0.155
2021-08-19 02:49:52.668,-0.525,-0.16
2021-08-19 02:49:52.672,-0.495,-0.075
2021-08-19 02:49:52.676,-0.525,-0.025
2021-08-19 02:49:52.680,-0.525,-0.06
2021-08-19 02:49:52.684,-0.455,-0.03
2021-08-19 02:49:52.688,-0.47,0.05
2021-08-19 02:49:52.692,-0.49,0.065
2021-08-19 02:49:52.696,-0.485,0.005
2021-08-19 02:49:52.700,-0.41,0.02
2021-08-19 02:49:52.704,-0.41,0.11
2021-08-19 02:49:52.708,-0.415,0.095
2021-08-19 02:49:52.712,-0.41,0.07
2021-08-19 02:49:52.716,-0.37,0.065
2021-08-19 02:49:52.720,-0.32,0.15
2021-08-19 02:49:52.724,-0.33,0.13
2021-08-19 02:49:52.728,-0.365,0.09
2021-08-19 02:49:52.732,-0.31,0.075
2021-08-19 02:49:52.736,-0.29,0.105
2021-08-19 02:49:52.740,-0.32,0.16
2021-08-19 02:49:52.744,-0.345,0.12
2021-08-19 02:49:52.748,-0.31,0.12
2021-08-19 02:49:52.752,-0.32,0.19
2021-08-19 02:49:52.756,-0.35,0.21
2021-08-19 02:49:52.760,-0.395,0.195
2021-08-19 02:49:52.764,-0.39,0.18
2021-08-19 02:49:52.768,-0.35,0.175
2021-08-19 02:49:52.772,-0.425,0.19
2021-08-19 02:49:52.776,-0.465,0.12
2021-08-19 02:49:52.780,-0.485,0.08
2021-08-19 02:49:52.784,-0.38,0.075
2021-08-19 02:49:52.788,-0.37,0.095
2021-08-19 02:49:52.792,-0.45,0.08
2021-08-19 02:49:52.796,-0.425,0.005
2021-08-19 02:49:52.800,-0.42,0.04
2021-08-19 02:49:52.804,-0.415,0.03
2021-08-19 02:49:52.808,-0.475,0.0
2021-08-19 02:49:52.812,-0.43,-0.055
2021-08-19 02:49:52.816,-0.41,-0.06
2021-08-19 02:49:52.820,-0.39,-0.03
2021-08-19 02:49:52.824,-0.485,-0.04
2021-08-19 02:49:52.828,-0.48,-0.075
2021-08-19 02:49:52.832,-0.46,-0.05
2021-08-19 02:49:52.836,-0.48,-0.05
2021-08-19 02:49:52.840,-0.575,-0.06
2021-08-19 02:49:52.844,-0.585,-0.125
2021-08-19 02:49:52.848,-0.555,-0.175
2021-08-19 02:49:52.852,-0.545,-0.12
2021-08-19 02:49:52.856,-0.56,-0.12
2021-08-19 02:49:52.860,-0.55,-0.105
2021-08-19 02:49:52.864,-0.525,-0.12
2021-08-19 02:49:52.868,-0.55,-0.085
2021-08-19 02:49:52.872,-0.605,-0.125
2021-08-19 02:49:52.876,-0.675,-0.25
2021-08-19 02:49:52.880,-0.63,-0.265
2021-08-19 02:49:52.884,-0.595,-0.245
2021-08-19 02:49:52.888,-0.6,-0.27
2021-08-19 02:49:52.892,-0.615,-0.335
2021-08-19 02:49:52.896,-0.585,-0.33
2021-08-19 02:49:52.900,-0.525,-0.28
2021-08-19 02:49:52.904,-0.585,-0.265
2021-08-19 02:49:52.908,-0.575,-0.3
2021-08-19 02:49:52.912,-0.545,-0.345
2021-08-19 02:49:52.916,-0.51,-0.305
2021-08-19 02:49:52.920,-0.515,-0.265
2021-08-19 02:49:52.924,-0.545,-0.33
2021-08-19 02:49:52.928,-0.545,-0.35
2021-08-19 02:49:52.932,-0.515,-0.31
2021-08-19 02:49:52.936,-0.57,-0.27
2021-08-19 02:49:52.940,-0.6,-0.3
2021-08-19 02:49:52.944,-0.535,-0.34
2021-08-19 02:49:52.948,-0.465,-0.33
2021-08-19 02:49:52.952,-0.5,-0.27
2021-08-19 02:49:52.956,-0.53,-0.3
2021-08-19 02:49:52.960,-0.495,-0.295
2021-08-19 02:49:52.964,-0.46,-0.235
2021-08-19 02:49:52.968,-0.47,-0.195
2021-08-19 02:49:52.972,-0.45,-0.175
2021-08-19 02:49:52.976,-0.435,-0.225
2021-08-19 02:49:52.980,-0.39,-0.17
2021-08-19 02:49:52.984,-0.43,-0.06
2021-08-19 02:49:52.988,-0.565,-0.045
2021-08-19 02:49:52.992,-0.535,0.09
2021-08-19 02:49:52.996,-0.305,0.3
2021-08-19 02:49:53.000,0.0,0.495
2021-08-19 02:49:53.004,0.345,0.58
2021-08-19 02:49:53.008,0.78,0.925
2021-08-19 02:49:53.012,1.205,1.1
2021-08-19 02:49:53.016,1.445,0.42
2021-08-19 02:49:53.020,1.32,-0.51
2021-08-19 02:49:53.024,0.68,-1.225
2021-08-19 02:49:53.028,-0.175,-1.64
2021-08-19 02:49:53.052,-0.66,-1.49
2021-08-19 02:49:53.056,-0.55,-0.955
2021-08-19 02:49:53.060,-0.5,-0.545
2021-08-19 02:49:53.064,-0.53,-0.185
2021-08-19 02:49:53.068,-0.585,-0.09
2021-08-19 02:49:53.072,-0.615,-0.105
2021-08-19 02:49:53.076,-0.575,-0.095
2021-08-19 02:49:53.080,-0.6,-0.06
2021-08-19 02:49:53.084,-0.615,-0.035
2021-08-19 02:49:53.088,-0.62,-0.075
2021-08-19 02:49:53.092,-0.56,-0.085
2021-08-19 02:49:53.096,-0.51,-0.03
2021-08-19 02:49:53.100,-0.555,-0.01
2021-08-19 02:49:53.104,-0.545,-0.065
2021-08-19 02:49:53.108,-0.55,-0.05
2021-08-19 02:49:53.112,-0.52,-0.04
2021-08-19 02:49:53.116,-0.57,-0.03
2021-08-19 02:49:53.120,-0.565,-0.1
2021-08-19 02:49:53.124,-0.54,-0.15
2021-08-19 02:49:53.128,-0.505,-0.185
2021-08-19 02:49:53.132,-0.49,-0.11
2021-08-19 02:49:53.136,-0.49,-0.135
2021-08-19 02:49:53.140,-0.455,-0.145
2021-08-19 02:49:53.144,-0.375,-0.095
2021-08-19 02:49:53.148,-0.375,0.01
2021-08-19 02:49:53.152,-0.45,0.025
2021-08-19 02:49:53.156,-0.455,0.01
2021-08-19 02:49:53.160,-0.39,0.065
2021-08-19 02:49:53.164,-0.38,0.14
2021-08-19 02:49:53.168,-0.385,0.175
2021-08-19 02:49:53.172,-0.39,0.195
2021-08-19 02:49:53.176,-0.335,0.27
2021-08-19 02:49:53.180,-0.3,0.345
2021-08-19 02:49:53.184,-0.35,0.395
2021-08-19 02:49:53.188,-0.355,0.38
2021-08-19 02:49:53.192,-0.32,0.39
2021-08-19 02:49:53.196,-0.345,0.46
2021-08-19 02:49:53.200,-0.395,0.435
2021-08-19 02:49:53.204,-0.4,0.415
2021-08-19 02:49:53.208,-0.355,0.435
2021-08-19 02:49:53.212,-0.385,0.515
2021-08-19 02:49:53.216,-0.425,0.49
2021-08-19 02:49:53.220,-0.41,0.445
2021-08-19 02:49:53.224,-0.375,0.51
2021-08-19 02:49:53.228,-0.365,0.55
2021-08-19 02:49:53.232,-0.38,0.605
2021-08-19 02:49:53.236,-0.375,0.555
2021-08-19 02:49:53.240,-0.32,0.58
2021-08-19 02:49:53.244,-0.305,0.58
2021-08-19 02:49:53.248,-0.34,0.6
2021-08-19 02:49:53.252,-0.325,0.555
2021-08-19 02:49:53.256,-0.28,0.55
2021-08-19 02:49:53.260,-0.32,0.55
2021-08-19 02:49:53.264,-0.38,0.485
2021-08-19 02:49:53.268,-0.39,0.41
2021-08-19 02:49:53.272,-0.38,0.36
2021-08-19 02:49:53.276,-0.365,0.375
2021-08-19 02:49:53.280,-0.405,0.335
2021-08-19 02:49:53.284,-0.435,0.205
2021-08-19 02:49:53.288,-0.43,0.175
2021-08-19 02:49:53.292,-0.405,0.21
2021-08-19 02:49:53.296,-0.47,0.145
2021-08-19 02:49:53.300,-0.52,0.055
2021-08-19 02:49:53.304,-0.485,0.0
2021-08-19 02:49:53.308,-0.455,0.02
2021-08-19 02:49:53.312,-0.47,-0.015
2021-08-19 02:49:53.316,-0.485,-0.09
2021-08-19 02:49:53.320,-0.44,-0.15
2021-08-19 02:49:53.324,-0.38,-0.125
2021-08-19 02:49:53.328,-0.395,-0.125
2021-08-19 02:49:53.332,-0.42,-0.185
2021-08-19 02:49:53.336,-0.36,-0.185
2021-08-19 02:49:53.340,-0.32,-0.135
2021-08-19 02:49:53.344,-0.335,-0.085
2021-08-19 02:49:53.348,-0.38,-0.1
2021-08-19 02:49:53.352,-0.385,-0.095
2021-08-19 02:49:53.356,-0.3,-0.045
2021-08-19 02:49:53.360,-0.31,0.0
2021-08-19 02:49:53.364,-0.415,-0.02
2021-08-19 02:49:53.368,-0.35,-0.06
2021-08-19 02:49:53.372,-0.33,-0.02
2021-08-19 02:49:53.376,-0.37,-0.03
2021-08-19 02:49:53.380,-0.455,-0.075
2021-08-19 02:49:53.384,-0.43,-0.16
2021-08-19 02:49:53.388,-0.415,-0.075
2021-08-19 02:49:53.392,-0.435,-0.07
2021-08-19 02:49:53.396,-0.505,-0.07
2021-08-19 02:49:53.400,-0.475,-0.13
2021-08-19 02:49:53.404,-0.46,-0.085
2021-08-19 02:49:53.408,-0.46,-0.045
2021-08-19 02:49:53.412,-0.5,-0.08
2021-08-19 02:49:53.416,-0.5,-0.09
2021-08-19 02:49:53.420,-0.44,-0.09
2021-08-19 02:49:53.424,-0.46,-0.05
2021-08-19 02:49:53.428,-0.53,-0.08
2021-08-19 02:49:53.432,-0.57,-0.12
2021-08-19 02:49:53.436,-0.485,-0.095
2021-08-19 02:49:53.440,-0.48,-0.09
2021-08-19 02:49:53.444,-0.54,-0.08
2021-08-19 02:49:53.448,-0.58,-0.14
2021-08-19 02:49:53.452,-0.54,-0.15
2021-08-19 02:49:53.456,-0.61,-0.115
2021-08-19 02:49:53.460,-0.77,-0.035
2021-08-19 02:49:53.464,-0.69,0.065
2021-08-19 02:49:53.468,-0.33,0.185
2021-08-19 02:49:53.472,0.145,0.415
2021-08-19 02:49:53.476,0.565,0.935
2021-08-19 02:49:53.480,0.91,0.8
2021-08-19 02:49:53.484,1.26,-0.115
2021-08-19 02:49:53.488,1.37,-1.01
2021-08-19 02:49:53.492,0.915,-1.8
2021-08-19 02:49:53.520,-0.425,-1.295
2021-08-19 02:49:53.524,-0.405,-0.74
2021-08-19 02:49:53.528,-0.5,-0.4
2021-08-19 02:49:53.532,-0.47,-0.265
2021-08-19 02:49:53.536,-0.44,-0.19
2021-08-19 02:49:53.540,-0.435,-0.09
2021-08-19 02:49:53.544,-0.49,-0.075
2021-08-19 02:49:53.548,-0.49,-0.09
2021-08-19 02:49:53.552,-0.455,-0.06
2021-08-19 02:49:53.556,-0.505,-0.04
2021-08-19 02:49:53.560,-0.535,-0.075
2021-08-19 02:49:53.564,-0.56,-0.085
2021-08-19 02:49:53.568,-0.525,-0.08
2021-08-19 02:49:53.572,-0.53,-0.01
2021-08-19 02:49:53.576,-0.6,-0.03
2021-08-19 02:49:53.580,-0.595,-0.085
2021-08-19 02:49:53.584,-0.545,-0.06
2021-08-19 02:49:53.588,-0.53,0.025
2021-08-19 02:49:53.592,-0.55,0.0
2021-08-19 02:49:53.596,-0.54,0.0
2021-08-19 02:49:53.600,-0.515,0.04
2021-08-19 02:49:53.604,-0.51,0.08
2021-08-19 02:49:53.608,-0.55,0.105
2021-08-19 02:49:53.612,-0.555,0.05
2021-08-19 02:49:53.616,-0.52,0.1
2021-08-19 02:49:53.620,-0.515,0.14
2021-08-19 02:49:53.624,-0.525,0.145
2021-08-19 02:49:53.628,-0.555,0.125
2021-08-19 02:49:53.632,-0.495,0.135
2021-08-19 02:49:53.636,-0.47,0.205
2021-08-19 02:49:53.640,-0.505,0.24
2021-08-19 02:49:53.644,-0.52,0.245
2021-08-19 02:49:53.648,-0.5,0.27
2021-08-19 02:49:53.652,-0.5,0.33
2021-08-19 02:49:53.656,-0.5,0.345
2021-08-19 02:49:53.660,-0.535,0.36
2021-08-19 02:49:53.664,-0.505,0.375
2021-08-19 02:49:53.668,-0.48,0.455
2021-08-19 02:49:53.672,-0.5,0.49
2021-08-19 02:49:53.676,-0.505,0.475
2021-08-19 02:49:53.680,-0.44,0.465
2021-08-19 02:49:53.684,-0.365,0.55
2021-08-19 02:49:53.688,-0.395,0.6
2021-08-19 02:49:53.692,-0.42,0.555
