Time,ECG1,ECG2
2021-08-01 00:34:38.344,0.19,-0.295
2021-08-01 00:34:38.348,0.195,-0.285
2021-08-01 00:34:38.352,0.2,-0.3
2021-08-01 00:34:38.356,0.22,-0.295
2021-08-01 00:34:38.360,0.225,-0.285
2021-08-01 00:34:38.364,0.225,-0.275
2021-08-01 00:34:38.368,0.24,-0.25
2021-08-01 00:34:38.372,0.28,-0.22
2021-08-01 00:34:38.376,0.28,-0.225
2021-08-01 00:34:38.380,0.295,-0.2
2021-08-01 00:34:38.384,0.275,-0.235
2021-08-01 00:34:38.388,0.28,-0.255
2021-08-01 00:34:38.392,0.28,-0.265
2021-08-01 00:34:38.396,0.265,-0.265
2021-08-01 00:34:38.400,0.245,-0.295
2021-08-01 00:34:38.404,0.24,-0.29
2021-08-01 00:34:38.408,0.23,-0.29
2021-08-01 00:34:38.412,0.21,-0.285
2021-08-01 00:34:38.416,0.2,-0.27
2021-08-01 00:34:38.420,0.21,-0.26
2021-08-01 00:34:38.424,0.2,-0.245
2021-08-01 00:34:38.428,0.18,-0.235
2021-08-01 00:34:38.432,0.185,-0.23
2021-08-01 00:34:38.436,0.16,-0.235
2021-08-01 00:34:38.440,0.15,-0.205
2021-08-01 00:34:38.444,0.145,-0.205
2021-08-01 00:34:38.448,0.145,-0.205
2021-08-01 00:34:38.452,0.125,-0.22
2021-08-01 00:34:38.456,0.115,-0.215
2021-08-01 00:34:38.460,0.125,-0.205
2021-08-01 00:34:38.464,0.1,-0.205
2021-08-01 00:34:38.468,0.09,-0.2
2021-08-01 00:34:38.472,0.07,-0.215
2021-08-01 00:34:38.476,0.055,-0.225
2021-08-01 00:34:38.480,0.06,-0.225
2021-08-01 00:34:38.484,0.055,-0.245
2021-08-01 00:34:38.488,0.065,-0.245
2021-08-01 00:34:38.492,0.045,-0.235
2021-08-01 00:34:38.496,0.04,-0.245
2021-08-01 00:34:38.500,0.05,-0.25
2021-08-01 00:34:38.504,0.035,-0.25
2021-08-01 00:34:38.508,0.02,-0.26
2021-08-01 00:34:38.512,0.04,-0.27
2021-08-01 00:34:38.516,0.04,-0.28
2021-08-01 00:34:38.520,0.035,-0.28
2021-08-01 00:34:38.524,0.045,-0.295
2021-08-01 00:34:38.528,0.015,-0.305
2021-08-01 00:34:38.532,0.035,-0.295
2021-08-01 00:34:38.536,0.045,-0.28
2021-08-01 00:34:38.540,0.04,-0.285
2021-08-01 00:34:38.544,0.025,-0.295
2021-08-01 00:34:38.548,0.05,-0.285
2021-08-01 00:34:38.552,0.04,-0.295
2021-08-01 00:34:38.556,0.06,-0.3
2021-08-01 00:34:38.560,0.06,-0.24
2021-08-01 00:34:38.564,0.07,-0.03
2021-08-01 00:34:38.568,0.11,0.335
2021-08-01 00:34:38.572,0.155,0.795
2021-08-01 00:34:38.576,0.24,1.3
2021-08-01 00:34:38.580,0.3,1.72
2021-08-01 00:34:38.596,0.62,1.535
2021-08-01 00:34:38.600,0.595,0.925
2021-08-01 00:34:38.604,0.515,0.46
2021-08-01 00:34:38.608,0.35,0.245
2021-08-01 00:34:38.612,0.175,0.14
2021-08-01 00:34:38.616,0.13,0.02
2021-08-01 00:34:38.620,0.115,-0.1
2021-08-01 00:34:38.624,0.105,-0.18
2021-08-01 00:34:38.628,0.06,-0.215
2021-08-01 00:34:38.632,0.03,-0.22
2021-08-01 00:34:38.636,0.045,-0.235
2021-08-01 00:34:38.640,0.05,-0.235
2021-08-01 00:34:38.644,0.02,-0.255
2021-08-01 00:34:38.648,0.055,-0.275
2021-08-01 00:34:38.652,0.04,-0.315
2021-08-01 00:34:38.656,0.035,-0.315
2021-08-01 00:34:38.660,0.035,-0.315
2021-08-01 00:34:38.664,0.035,-0.32
2021-08-01 00:34:38.668,0.035,-0.365
2021-08-01 00:34:38.672,0.025,-0.385
2021-08-01 00:34:38.676,0.015,-0.385
2021-08-01 00:34:38.680,-0.005,-0.39
2021-08-01 00:34:38.684,-0.01,-0.405
2021-08-01 00:34:38.688,-0.03,-0.395
2021-08-01 00:34:38.692,-0.035,-0.39
2021-08-01 00:34:38.696,-0.035,-0.39
2021-08-01 00:34:38.700,-0.04,-0.395
2021-08-01 00:34:38.704,-0.01,-0.42
2021-08-01 00:34:38.708,-0.025,-0.435
2021-08-01 00:34:38.712,-0.02,-0.42
2021-08-01 00:34:38.716,-0.03,-0.43
2021-08-01 00:34:38.720,-0.03,-0.415
2021-08-01 00:34:38.724,-0.02,-0.415
2021-08-01 00:34:38.728,-0.02,-0.42
2021-08-01 00:34:38.732,-0.01,-0.415
2021-08-01 00:34:38.736,-0.03,-0.41
2021-08-01 00:34:38.740,-0.02,-0.42
2021-08-01 00:34:38.744,-0.025,-0.425
2021-08-01 00:34:38.748,-0.03,-0.385
2021-08-01 00:34:38.752,-0.02,-0.405
2021-08-01 00:34:38.756,-0.025,-0.405
2021-08-01 00:34:38.760,-0.01,-0.405
2021-08-01 00:34:38.764,-0.015,-0.405
2021-08-01 00:34:38.768,0.0,-0.41
2021-08-01 00:34:38.772,-0.02,-0.41
2021-08-01 00:34:38.776,-0.015,-0.42
2021-08-01 00:34:38.780,0.01,-0.405
2021-08-01 00:34:38.784,0.0,-0.395
2021-08-01 00:34:38.788,0.025,-0.395
2021-08-01 00:34:38.792,0.03,-0.365
2021-08-01 00:34:38.796,0.02,-0.37
2021-08-01 00:34:38.800,0.04,-0.375
2021-08-01 00:34:38.804,0.015,-0.345
2021-08-01 00:34:38.808,0.025,-0.35
2021-08-01 00:34:38.812,0.045,-0.33
2021-08-01 00:34:38.816,0.045,-0.315
2021-08-01 00:34:38.820,0.045,-0.295
2021-08-01 00:34:38.824,0.06,-0.275
2021-08-01 00:34:38.828,0.065,-0.28
2021-08-01 00:34:38.832,0.065,-0.27
2021-08-01 00:34:38.836,0.075,-0.255
2021-08-01 00:34:38.840,0.095,-0.25
2021-08-01 00:34:38.844,0.105,-0.27
2021-08-01 00:34:38.848,0.115,-0.26
2021-08-01 00:34:38.852,0.125,-0.23
2021-08-01 00:34:38.856,0.12,-0.225
2021-08-01 00:34:38.860,0.115,-0.185
2021-08-01 00:34:38.864,0.15,-0.155
2021-08-01 00:34:38.868,0.145,-0.135
2021-08-01 00:34:38.872,0.17,-0.1
2021-08-01 00:34:38.876,0.17,-0.095
2021-08-01 00:34:38.880,0.175,-0.115
2021-08-01 00:34:38.884,0.135,-0.115
2021-08-01 00:34:38.888,0.135,-0.115
2021-08-01 00:34:38.892,0.135,-0.1
2021-08-01 00:34:38.896,0.15,-0.065
2021-08-01 00:34:38.900,0.15,-0.085
2021-08-01 00:34:38.904,0.15,-0.075
2021-08-01 00:34:38.908,0.135,-0.08
2021-08-01 00:34:38.912,0.135,-0.07
2021-08-01 00:34:38.916,0.135,-0.08
2021-08-01 00:34:38.920,0.145,-0.08
2021-08-01 00:34:38.924,0.115,-0.1
2021-08-01 00:34:38.928,0.1,-0.115
2021-08-01 00:34:38.932,0.11,-0.115
2021-08-01 00:34:38.936,0.09,-0.12
2021-08-01 00:34:38.940,0.1,-0.14
2021-08-01 00:34:38.944,0.075,-0.16
2021-08-01 00:34:38.948,0.075,-0.175
2021-08-01 00:34:38.952,0.045,-0.19
2021-08-01 00:34:38.956,0.05,-0.22
2021-08-01 00:34:38.960,0.035,-0.24
2021-08-01 00:34:38.964,0.025,-0.27
2021-08-01 00:34:38.968,0.025,-0.27
2021-08-01 00:34:38.972,0.02,-0.29
2021-08-01 00:34:38.976,0.04,-0.31
2021-08-01 00:34:38.980,0.0,-0.305
2021-08-01 00:34:38.984,0.02,-0.3
2021-08-01 00:34:38.988,0.025,-0.32
2021-08-01 00:34:38.992,-0.01,-0.335
2021-08-01 00:34:38.996,0.0,-0.335
2021-08-01 00:34:39.000,0.0,-0.34
2021-08-01 00:34:39.004,0.015,-0.33
2021-08-01 00:34:39.008,0.0,-0.325
2021-08-01 00:34:39.012,0.01,-0.34
2021-08-01 00:34:39.016,0.0,-0.31
2021-08-01 00:34:39.020,0.0,-0.335
2021-08-01 00:34:39.024,0.005,-0.355
2021-08-01 00:34:39.028,0.0,-0.32
2021-08-01 00:34:39.032,0.0,-0.32
2021-08-01 00:34:39.036,0.005,-0.33
2021-08-01 00:34:39.040,0.015,-0.31
2021-08-01 00:34:39.044,-0.005,-0.295
2021-08-01 00:34:39.048,0.0,-0.305
2021-08-01 00:34:39.052,0.0,-0.3
2021-08-01 00:34:39.056,0.015,-0.315
2021-08-01 00:34:39.060,0.01,-0.345
2021-08-01 00:34:39.064,0.03,-0.355
2021-08-01 00:34:39.068,0.01,-0.365
2021-08-01 00:34:39.072,0.01,-0.385
2021-08-01 00:34:39.076,0.0,-0.375
2021-08-01 00:34:39.080,0.01,-0.38
2021-08-01 00:34:39.084,0.005,-0.355
2021-08-01 00:34:39.088,0.005,-0.33
2021-08-01 00:34:39.092,0.025,-0.29
2021-08-01 00:34:39.096,0.045,-0.26
2021-08-01 00:34:39.100,0.04,-0.27
2021-08-01 00:34:39.104,0.03,-0.31
2021-08-01 00:34:39.108,0.015,-0.335
2021-08-01 00:34:39.112,0.025,-0.34
2021-08-01 00:34:39.116,0.01,-0.335
2021-08-01 00:34:39.120,-0.005,-0.365
2021-08-01 00:34:39.124,-0.015,-0.395
2021-08-01 00:34:39.128,0.0,-0.39
2021-08-01 00:34:39.132,-0.01,-0.39
2021-08-01 00:34:39.136,-0.045,-0.385
2021-08-01 00:34:39.140,-0.02,-0.41
2021-08-01 00:34:39.144,-0.025,-0.39
2021-08-01 00:34:39.148,-0.04,-0.4
2021-08-01 00:34:39.152,-0.005,-0.4
2021-08-01 00:34:39.156,-0.03,-0.395
2021-08-01 00:34:39.160,-0.025,-0.405
2021-08-01 00:34:39.164,-0.02,-0.39
2021-08-01 00:34:39.168,-0.035,-0.38
2021-08-01 00:34:39.172,-0.035,-0.4
2021-08-01 00:34:39.176,-0.05,-0.395
2021-08-01 00:34:39.180,-0.04,-0.395
2021-08-01 00:34:39.184,-0.025,-0.38
2021-08-01 00:34:39.188,-0.04,-0.39
2021-08-01 00:34:39.192,-0.03,-0.395
2021-08-01 00:34:39.196,-0.025,-0.39
2021-08-01 00:34:39.200,-0.02,-0.38
2021-08-01 00:34:39.204,-0.02,-0.39
2021-08-01 00:34:39.208,-0.025,-0.375
2021-08-01 00:34:39.212,-0.02,-0.37
2021-08-01 00:34:39.216,-0.03,-0.385
2021-08-01 00:34:39.220,-0.02,-0.38
2021-08-01 00:34:39.224,-0.02,-0.365
2021-08-01 00:34:39.228,-0.015,-0.365
2021-08-01 00:34:39.232,-0.005,-0.355
2021-08-01 00:34:39.236,-0.02,-0.345
2021-08-01 00:34:39.240,0.0,-0.355
2021-08-01 00:34:39.244,-0.005,-0.345
2021-08-01 00:34:39.248,0.0,-0.345
2021-08-01 00:34:39.252,0.01,-0.335
2021-08-01 00:34:39.256,-0.005,-0.305
2021-08-01 00:34:39.260,0.0,-0.345
2021-08-01 00:34:39.264,-0.01,-0.345
2021-08-01 00:34:39.268,-0.005,-0.32
2021-08-01 00:34:39.272,0.005,-0.355
2021-08-01 00:34:39.276,-0.025,-0.35
2021-08-01 00:34:39.280,0.0,-0.345
2021-08-01 00:34:39.284,0.01,-0.35
2021-08-01 00:34:39.288,0.02,-0.355
2021-08-01 00:34:39.292,0.0,-0.365
2021-08-01 00:34:39.296,0.02,-0.33
2021-08-01 00:34:39.300,0.015,-0.33
2021-08-01 00:34:39.304,0.03,-0.305
2021-08-01 00:34:39.308,0.03,-0.285
2021-08-01 00:34:39.312,0.025,-0.26
2021-08-01 00:34:39.316,0.025,-0.28
2021-08-01 00:34:39.320,0.03,-0.285
2021-08-01 00:34:39.324,0.02,-0.27
2021-08-01 00:34:39.328,0.025,-0.28
2021-08-01 00:34:39.332,0.02,-0.28
2021-08-01 00:34:39.336,0.025,-0.28
2021-08-01 00:34:39.340,0.045,-0.3
2021-08-01 00:34:39.344,0.03,-0.31
2021-08-01 00:34:39.348,0.035,-0.32
2021-08-01 00:34:39.352,0.035,-0.395
2021-08-01 00:34:39.356,0.02,-0.48
2021-08-01 00:34:39.360,0.045,-0.49
2021-08-01 00:34:39.364,0.03,-0.36
2021-08-01 00:34:39.368,0.04,-0.05
2021-08-01 00:34:39.372,0.09,0.41
2021-08-01 00:34:39.376,0.15,0.955
2021-08-01 00:34:39.380,0.22,1.545
2021-08-01 00:34:39.400,0.365,1.555
2021-08-01 00:34:39.404,0.285,0.935
2021-08-01 00:34:39.408,0.125,0.495
2021-08-01 00:34:39.412,-0.005,0.2
2021-08-01 00:34:39.416,-0.1,0.07
2021-08-01 00:34:39.420,-0.155,0.0
2021-08-01 00:34:39.424,-0.115,-0.065
2021-08-01 00:34:39.428,-0.06,-0.1
2021-08-01 00:34:39.432,-0.01,-0.175
2021-08-01 00:34:39.436,0.025,-0.225
2021-08-01 00:34:39.440,0.035,-0.26
2021-08-01 00:34:39.444,0.04,-0.295
2021-08-01 00:34:39.448,0.01,-0.295
2021-08-01 00:34:39.452,0.015,-0.335
2021-08-01 00:34:39.456,0.02,-0.345
2021-08-01 00:34:39.460,0.02,-0.345
2021-08-01 00:34:39.464,0.03,-0.36
2021-08-01 00:34:39.468,0.03,-0.37
2021-08-01 00:34:39.472,0.01,-0.395
2021-08-01 00:34:39.476,0.035,-0.41
2021-08-01 00:34:39.480,0.025,-0.41
2021-08-01 00:34:39.484,0.055,-0.43
2021-08-01 00:34:39.488,0.03,-0.45
2021-08-01 00:34:39.492,0.025,-0.43
2021-08-01 00:34:39.496,0.05,-0.445
2021-08-01 00:34:39.500,0.04,-0.465
2021-08-01 00:34:39.504,0.04,-0.46
2021-08-01 00:34:39.508,0.04,-0.44
2021-08-01 00:34:39.512,0.04,-0.4
2021-08-01 00:34:39.516,0.04,-0.39
2021-08-01 00:34:39.520,0.08,-0.395
2021-08-01 00:34:39.524,0.09,-0.385
2021-08-01 00:34:39.528,0.07,-0.4
2021-08-01 00:34:39.532,0.06,-0.39
2021-08-01 00:34:39.536,0.075,-0.39
2021-08-01 00:34:39.540,0.065,-0.415
2021-08-01 00:34:39.544,0.05,-0.425
2021-08-01 00:34:39.548,0.04,-0.415
2021-08-01 00:34:39.552,0.045,-0.445
2021-08-01 00:34:39.556,0.04,-0.45
2021-08-01 00:34:39.560,0.05,-0.455
2021-08-01 00:34:39.564,0.035,-0.45
2021-08-01 00:34:39.568,0.045,-0.465
2021-08-01 00:34:39.572,0.055,-0.46
2021-08-01 00:34:39.576,0.05,-0.445
2021-08-01 00:34:39.580,0.065,-0.465
2021-08-01 00:34:39.584,0.055,-0.49
2021-08-01 00:34:39.588,0.045,-0.465
2021-08-01 00:34:39.592,0.035,-0.45
2021-08-01 00:34:39.596,0.045,-0.475
2021-08-01 00:34:39.600,0.075,-0.48
2021-08-01 00:34:39.604,0.07,-0.465
2021-08-01 00:34:39.608,0.065,-0.47
2021-08-01 00:34:39.612,0.1,-0.475
2021-08-01 00:34:39.616,0.07,-0.48
2021-08-01 00:34:39.620,0.095,-0.5
2021-08-01 00:34:39.624,0.09,-0.475
2021-08-01 00:34:39.628,0.095,-0.49
2021-08-01 00:34:39.632,0.1,-0.475
2021-08-01 00:34:39.636,0.12,-0.475
2021-08-01 00:34:39.640,0.125,-0.48
2021-08-01 00:34:39.644,0.13,-0.51
2021-08-01 00:34:39.648,0.135,-0.5
2021-08-01 00:34:39.652,0.135,-0.52
2021-08-01 00:34:39.656,0.145,-0.5
2021-08-01 00:34:39.660,0.145,-0.51
2021-08-01 00:34:39.664,0.15,-0.5
2021-08-01 00:34:39.668,0.15,-0.505
2021-08-01 00:34:39.672,0.185,-0.505
2021-08-01 00:34:39.676,0.175,-0.515
2021-08-01 00:34:39.680,0.19,-0.52
2021-08-01 00:34:39.684,0.18,-0.515
2021-08-01 00:34:39.688,0.17,-0.54
2021-08-01 00:34:39.692,0.17,-0.555
2021-08-01 00:34:39.696,0.175,-0.54
2021-08-01 00:34:39.700,0.185,-0.52
2021-08-01 00:34:39.704,0.18,-0.505
2021-08-01 00:34:39.708,0.19,-0.455
2021-08-01 00:34:39.712,0.19,-0.43
2021-08-01 00:34:39.716,0.185,-0.375
2021-08-01 00:34:39.720,0.195,-0.33
2021-08-01 00:34:39.724,0.18,-0.315
2021-08-01 00:34:39.728,0.155,-0.305
2021-08-01 00:34:39.732,0.16,-0.315
2021-08-01 00:34:39.736,0.17,-0.28
2021-08-01 00:34:39.740,0.115,-0.275
2021-08-01 00:34:39.744,0.11,-0.275
2021-08-01 00:34:39.748,0.11,-0.27
2021-08-01 00:34:39.752,0.115,-0.255
2021-08-01 00:34:39.756,0.095,-0.255
2021-08-01 00:34:39.760,0.085,-0.26
2021-08-01 00:34:39.764,0.09,-0.255
2021-08-01 00:34:39.768,0.07,-0.23
2021-08-01 00:34:39.772,0.065,-0.24
2021-08-01 00:34:39.776,0.06,-0.25
2021-08-01 00:34:39.780,0.06,-0.245
2021-08-01 00:34:39.784,0.05,-0.255
2021-08-01 00:34:39.788,0.05,-0.27
2021-08-01 00:34:39.792,0.035,-0.28
2021-08-01 00:34:39.796,0.045,-0.275
2021-08-01 00:34:39.800,0.055,-0.275
2021-08-01 00:34:39.804,0.045,-0.27
2021-08-01 00:34:39.808,0.04,-0.26
2021-08-01 00:34:39.812,0.05,-0.28
2021-08-01 00:34:39.816,0.025,-0.275
2021-08-01 00:34:39.820,0.05,-0.275
2021-08-01 00:34:39.824,0.035,-0.295
2021-08-01 00:34:39.828,0.025,-0.28
2021-08-01 00:34:39.832,0.045,-0.28
2021-08-01 00:34:39.836,0.05,-0.28
2021-08-01 00:34:39.840,0.04,-0.295
2021-08-01 00:34:39.844,0.045,-0.295
2021-08-01 00:34:39.848,0.05,-0.285
2021-08-01 00:34:39.852,0.025,-0.295
2021-08-01 00:34:39.856,0.07,-0.3
2021-08-01 00:34:39.860,0.045,-0.265
2021-08-01 00:34:39.864,0.05,-0.27
2021-08-01 00:34:39.868,0.06,-0.285
2021-08-01 00:34:39.872,0.065,-0.29
2021-08-01 00:34:39.876,0.065,-0.31
2021-08-01 00:34:39.880,0.07,-0.315
2021-08-01 00:34:39.884,0.065,-0.32
2021-08-01 00:34:39.888,0.06,-0.34
2021-08-01 00:34:39.892,0.05,-0.35
2021-08-01 00:34:39.896,0.045,-0.36
2021-08-01 00:34:39.900,0.045,-0.36
2021-08-01 00:34:39.904,0.05,-0.355
2021-08-01 00:34:39.908,0.07,-0.325
2021-08-01 00:34:39.912,0.06,-0.315
2021-08-01 00:34:39.916,0.055,-0.295
2021-08-01 00:34:39.920,0.06,-0.285
2021-08-01 00:34:39.924,0.06,-0.26
2021-08-01 00:34:39.928,0.045,-0.25
2021-08-01 00:34:39.932,0.06,-0.28
2021-08-01 00:34:39.936,0.045,-0.295
2021-08-01 00:34:39.940,0.03,-0.3
2021-08-01 00:34:39.944,0.065,-0.305
2021-08-01 00:34:39.948,0.045,-0.34
2021-08-01 00:34:39.952,0.045,-0.34
2021-08-01 00:34:39.956,0.025,-0.36
2021-08-01 00:34:39.960,0.005,-0.355
2021-08-01 00:34:39.964,0.02,-0.365
2021-08-01 00:34:39.968,0.01,-0.365
2021-08-01 00:34:39.972,0.0,-0.36
2021-08-01 00:34:39.976,-0.005,-0.38
2021-08-01 00:34:39.980,0.01,-0.375
2021-08-01 00:34:39.984,0.015,-0.4
2021-08-01 00:34:39.988,0.025,-0.395
2021-08-01 00:34:39.992,0.0,-0.375
2021-08-01 00:34:39.996,-0.015,-0.395
2021-08-01 00:34:40.000,0.0,-0.395
2021-08-01 00:34:40.004,0.01,-0.395
2021-08-01 00:34:40.008,0.0,-0.38
2021-08-01 00:34:40.012,0.0,-0.38
2021-08-01 00:34:40.016,0.005,-0.38
2021-08-01 00:34:40.020,-0.005,-0.385
2021-08-01 00:34:40.024,-0.01,-0.39
2021-08-01 00:34:40.028,-0.015,-0.395
2021-08-01 00:34:40.032,-0.01,-0.4
2021-08-01 00:34:40.036,-0.01,-0.395
2021-08-01 00:34:40.040,-0.015,-0.38
2021-08-01 00:34:40.044,0.0,-0.37
2021-08-01 00:34:40.048,-0.005,-0.375
2021-08-01 00:34:40.052,0.005,-0.395
2021-08-01 00:34:40.056,0.015,-0.41
2021-08-01 00:34:40.060,0.01,-0.49
2021-08-01 00:34:40.064,0.0,-0.57
2021-08-01 00:34:40.068,0.005,-0.59
2021-08-01 00:34:40.072,0.0,-0.44
2021-08-01 00:34:40.076,0.02,-0.09
2021-08-01 00:34:40.080,0.08,0.4
2021-08-01 00:34:40.084,0.15,0.97
2021-08-01 00:34:40.088,0.26,1.58
2021-08-01 00:34:40.108,0.395,1.26
2021-08-01 00:34:40.112,0.29,0.72
2021-08-01 00:34:40.116,0.085,0.35
2021-08-01 00:34:40.120,-0.07,0.175
2021-08-01 00:34:40.124,-0.13,0.09
2021-08-01 00:34:40.128,-0.1,0.015
2021-08-01 00:34:40.132,-0.01,-0.05
2021-08-01 00:34:40.136,0.015,-0.12
2021-08-01 00:34:40.140,0.05,-0.175
2021-08-01 00:34:40.144,0.06,-0.23
2021-08-01 00:34:40.148,0.055,-0.275
2021-08-01 00:34:40.152,0.065,-0.3
2021-08-01 00:34:40.156,0.075,-0.355
2021-08-01 00:34:40.160,0.06,-0.36
2021-08-01 00:34:40.164,0.045,-0.365
2021-08-01 00:34:40.168,0.035,-0.395
2021-08-01 00:34:40.172,0.05,-0.405
2021-08-01 00:34:40.176,0.055,-0.41
2021-08-01 00:34:40.180,0.025,-0.405
2021-08-01 00:34:40.184,0.05,-0.42
2021-08-01 00:34:40.188,0.035,-0.425
2021-08-01 00:34:40.192,0.02,-0.425
2021-08-01 00:34:40.196,0.055,-0.43
2021-08-01 00:34:40.200,0.025,-0.435
2021-08-01 00:34:40.204,0.06,-0.43
2021-08-01 00:34:40.208,0.055,-0.42
2021-08-01 00:34:40.212,0.035,-0.425
2021-08-01 00:34:40.216,0.075,-0.435
2021-08-01 00:34:40.220,0.06,-0.455
2021-08-01 00:34:40.224,0.04,-0.42
2021-08-01 00:34:40.228,0.055,-0.43
2021-08-01 00:34:40.232,0.04,-0.445
2021-08-01 00:34:40.236,0.055,-0.44
2021-08-01 00:34:40.240,0.06,-0.43
2021-08-01 00:34:40.244,0.06,-0.425
2021-08-01 00:34:40.248,0.05,-0.425
2021-08-01 00:34:40.252,0.08,-0.445
2021-08-01 00:34:40.256,0.055,-0.44
2021-08-01 00:34:40.260,0.065,-0.45
2021-08-01 00:34:40.264,0.085,-0.435
2021-08-01 00:34:40.268,0.07,-0.43
2021-08-01 00:34:40.272,0.065,-0.41
2021-08-01 00:34:40.276,0.08,-0.45
2021-08-01 00:34:40.280,0.11,-0.435
2021-08-01 00:34:40.284,0.1,-0.44
2021-08-01 00:34:40.288,0.09,-0.435
2021-08-01 00:34:40.292,0.105,-0.435
2021-08-01 00:34:40.296,0.1,-0.445
2021-08-01 00:34:40.300,0.095,-0.455
2021-08-01 00:34:40.304,0.095,-0.47
2021-08-01 00:34:40.308,0.105,-0.475
2021-08-01 00:34:40.312,0.115,-0.48
2021-08-01 00:34:40.316,0.135,-0.46
2021-08-01 00:34:40.320,0.13,-0.44
2021-08-01 00:34:40.324,0.135,-0.415
2021-08-01 00:34:40.328,0.15,-0.42
2021-08-01 00:34:40.332,0.14,-0.385
2021-08-01 00:34:40.336,0.16,-0.38
2021-08-01 00:34:40.340,0.155,-0.405
2021-08-01 00:34:40.344,0.17,-0.41
2021-08-01 00:34:40.348,0.165,-0.42
2021-08-01 00:34:40.352,0.165,-0.43
2021-08-01 00:34:40.356,0.165,-0.435
2021-08-01 00:34:40.360,0.175,-0.415
2021-08-01 00:34:40.364,0.165,-0.45
2021-08-01 00:34:40.368,0.175,-0.42
2021-08-01 00:34:40.372,0.195,-0.41
2021-08-01 00:34:40.376,0.175,-0.42
2021-08-01 00:34:40.380,0.175,-0.425
2021-08-01 00:34:40.384,0.2,-0.43
2021-08-01 00:34:40.388,0.16,-0.42
2021-08-01 00:34:40.392,0.18,-0.42
2021-08-01 00:34:40.396,0.2,-0.4
2021-08-01 00:34:40.400,0.185,-0.395
2021-08-01 00:34:40.404,0.18,-0.36
2021-08-01 00:34:40.408,0.175,-0.355
2021-08-01 00:34:40.412,0.165,-0.34
2021-08-01 00:34:40.416,0.145,-0.34
2021-08-01 00:34:40.420,0.15,-0.325
2021-08-01 00:34:40.424,0.125,-0.295
2021-08-01 00:34:40.428,0.135,-0.28
2021-08-01 00:34:40.432,0.14,-0.265
2021-08-01 00:34:40.436,0.12,-0.24
2021-08-01 00:34:40.440,0.105,-0.225
2021-08-01 00:34:40.444,0.105,-0.22
2021-08-01 00:34:40.448,0.105,-0.215
2021-08-01 00:34:40.452,0.09,-0.225
2021-08-01 00:34:40.456,0.075,-0.24
2021-08-01 00:34:40.460,0.08,-0.23
2021-08-01 00:34:40.464,0.06,-0.24
2021-08-01 00:34:40.468,0.07,-0.23
2021-08-01 00:34:40.472,0.075,-0.22
2021-08-01 00:34:40.476,0.07,-0.225
2021-08-01 00:34:40.480,0.055,-0.225
2021-08-01 00:34:40.484,0.08,-0.225
2021-08-01 00:34:40.488,0.07,-0.22
2021-08-01 00:34:40.492,0.075,-0.25
2021-08-01 00:34:40.496,0.07,-0.25
2021-08-01 00:34:40.500,0.065,-0.27
2021-08-01 00:34:40.504,0.08,-0.275
2021-08-01 00:34:40.508,0.07,-0.275
2021-08-01 00:34:40.512,0.055,-0.28
2021-08-01 00:34:40.516,0.04,-0.295
2021-08-01 00:34:40.520,0.055,-0.31
2021-08-01 00:34:40.524,0.065,-0.3
2021-08-01 00:34:40.528,0.075,-0.27
2021-08-01 00:34:40.532,0.05,-0.275
2021-08-01 00:34:40.536,0.065,-0.245
2021-08-01 00:34:40.540,0.09,-0.25
2021-08-01 00:34:40.544,0.1,-0.23
2021-08-01 00:34:40.548,0.085,-0.21
2021-08-01 00:34:40.552,0.07,-0.23
2021-08-01 00:34:40.556,0.06,-0.225
2021-08-01 00:34:40.560,0.045,-0.235
2021-08-01 00:34:40.564,0.055,-0.245
2021-08-01 00:34:40.568,0.035,-0.245
2021-08-01 00:34:40.572,0.025,-0.25
2021-08-01 00:34:40.576,0.04,-0.235
2021-08-01 00:34:40.580,0.045,-0.245
2021-08-01 00:34:40.584,0.045,-0.245
2021-08-01 00:34:40.588,0.05,-0.245
2021-08-01 00:34:40.592,0.05,-0.255
2021-08-01 00:34:40.596,0.035,-0.26
2021-08-01 00:34:40.600,0.01,-0.275
2021-08-01 00:34:40.604,0.0,-0.265
2021-08-01 00:34:40.608,0.015,-0.265
2021-08-01 00:34:40.612,0.005,-0.265
2021-08-01 00:34:40.616,0.02,-0.265
2021-08-01 00:34:40.620,0.04,-0.28
2021-08-01 00:34:40.624,0.02,-0.29
2021-08-01 00:34:40.628,0.005,-0.275
2021-08-01 00:34:40.632,0.005,-0.28
2021-08-01 00:34:40.636,0.025,-0.3
2021-08-01 00:34:40.640,0.01,-0.3
2021-08-01 00:34:40.644,0.0,-0.295
2021-08-01 00:34:40.648,-0.01,-0.28
2021-08-01 00:34:40.652,-0.005,-0.29
2021-08-01 00:34:40.656,-0.02,-0.29
2021-08-01 00:34:40.660,0.0,-0.285
2021-08-01 00:34:40.664,0.0,-0.285
2021-08-01 00:34:40.668,-0.01,-0.3
2021-08-01 00:34:40.672,-0.02,-0.295
2021-08-01 00:34:40.676,-0.005,-0.29
2021-08-01 00:34:40.680,-0.03,-0.3
2021-08-01 00:34:40.684,-0.02,-0.3
2021-08-01 00:34:40.688,-0.01,-0.295
2021-08-01 00:34:40.692,0.0,-0.29
2021-08-01 00:34:40.696,-0.005,-0.3
2021-08-01 00:34:40.700,0.015,-0.31
2021-08-01 00:34:40.704,0.0,-0.315
2021-08-01 00:34:40.708,0.0,-0.325
2021-08-01 00:34:40.712,-0.03,-0.315
2021-08-01 00:34:40.716,-0.01,-0.315
2021-08-01 00:34:40.720,-0.005,-0.325
2021-08-01 00:34:40.724,0.01,-0.32
2021-08-01 00:34:40.728,0.0,-0.355
2021-08-01 00:34:40.732,-0.015,-0.37
2021-08-01 00:34:40.736,-0.02,-0.37
2021-08-01 00:34:40.740,-0.005,-0.38
2021-08-01 00:34:40.744,-0.015,-0.37
2021-08-01 00:34:40.748,-0.005,-0.36
2021-08-01 00:34:40.752,-0.005,-0.315
2021-08-01 00:34:40.756,-0.005,-0.28
2021-08-01 00:34:40.760,0.015,-0.285
2021-08-01 00:34:40.764,0.0,-0.27
2021-08-01 00:34:40.768,0.015,-0.27
2021-08-01 00:34:40.772,0.0,-0.265
2021-08-01 00:34:40.776,-0.005,-0.28
2021-08-01 00:34:40.780,-0.01,-0.25
2021-08-01 00:34:40.784,-0.01,-0.235
2021-08-01 00:34:40.788,0.0,-0.25
2021-08-01 00:34:40.792,0.0,-0.24
2021-08-01 00:34:40.796,0.015,-0.255
2021-08-01 00:34:40.800,0.015,-0.25
2021-08-01 00:34:40.804,0.005,-0.28
2021-08-01 00:34:40.808,0.0,-0.265
2021-08-01 00:34:40.812,-0.005,-0.28
2021-08-01 00:34:40.816,0.0,-0.26
2021-08-01 00:34:40.820,-0.015,-0.255
2021-08-01 00:34:40.824,-0.01,-0.245
2021-08-01 00:34:40.828,-0.02,-0.24
2021-08-01 00:34:40.832,0.0,-0.265
2021-08-01 00:34:40.836,-0.005,-0.31
2021-08-01 00:34:40.840,0.0,-0.375
2021-08-01 00:34:40.844,0.015,-0.445
2021-08-01 00:34:40.848,0.035,-0.38
2021-08-01 00:34:40.852,0.03,-0.11
2021-08-01 00:34:40.856,0.055,0.325
2021-08-01 00:34:40.860,0.115,0.865
2021-08-01 00:34:40.864,0.22,1.48
2021-08-01 00:34:40.884,0.415,1.685
2021-08-01 00:34:40.888,0.305,1.05
2021-08-01 00:34:40.892,0.155,0.635
2021-08-01 00:34:40.896,-0.03,0.345
2021-08-01 00:34:40.900,-0.13,0.19
2021-08-01 00:34:40.904,-0.17,0.085
2021-08-01 00:34:40.908,-0.12,0.0
2021-08-01 00:34:40.912,-0.045,-0.025
2021-08-01 00:34:40.916,0.01,-0.11
2021-08-01 00:34:40.920,0.055,-0.185
2021-08-01 00:34:40.924,0.065,-0.22
2021-08-01 00:34:40.928,0.055,-0.255
2021-08-01 00:34:40.932,0.035,-0.305
2021-08-01 00:34:40.936,0.045,-0.31
2021-08-01 00:34:40.940,0.04,-0.34
2021-08-01 00:34:40.944,0.035,-0.365
2021-08-01 00:34:40.948,0.02,-0.365
2021-08-01 00:34:40.952,0.025,-0.37
2021-08-01 00:34:40.956,0.04,-0.38
2021-08-01 00:34:40.960,0.02,-0.345
2021-08-01 00:34:40.964,0.035,-0.305
2021-08-01 00:34:40.968,0.035,-0.295
2021-08-01 00:34:40.972,0.04,-0.28
2021-08-01 00:34:40.976,0.055,-0.28
2021-08-01 00:34:40.980,0.05,-0.295
2021-08-01 00:34:40.984,0.055,-0.3
2021-08-01 00:34:40.988,0.06,-0.315
2021-08-01 00:34:40.992,0.06,-0.33
2021-08-01 00:34:40.996,0.055,-0.34
2021-08-01 00:34:41.000,0.045,-0.345
2021-08-01 00:34:41.004,0.06,-0.34
2021-08-01 00:34:41.008,0.065,-0.305
2021-08-01 00:34:41.012,0.055,-0.305
2021-08-01 00:34:41.016,0.05,-0.3
2021-08-01 00:34:41.020,0.065,-0.31
2021-08-01 00:34:41.024,0.055,-0.31
2021-08-01 00:34:41.028,0.06,-0.3
2021-08-01 00:34:41.032,0.065,-0.31
2021-08-01 00:34:41.036,0.065,-0.32
2021-08-01 00:34:41.040,0.07,-0.325
2021-08-01 00:34:41.044,0.055,-0.325
2021-08-01 00:34:41.048,0.07,-0.32
2021-08-01 00:34:41.052,0.06,-0.33
2021-08-01 00:34:41.056,0.07,-0.31
2021-08-01 00:34:41.060,0.09,-0.325
2021-08-01 00:34:41.064,0.065,-0.31
2021-08-01 00:34:41.068,0.08,-0.32
2021-08-01 00:34:41.072,0.08,-0.315
2021-08-01 00:34:41.076,0.085,-0.305
2021-08-01 00:34:41.080,0.105,-0.32
2021-08-01 00:34:41.084,0.095,-0.31
2021-08-01 00:34:41.088,0.085,-0.32
2021-08-01 00:34:41.092,0.1,-0.305
2021-08-01 00:34:41.096,0.1,-0.325
2021-08-01 00:34:41.100,0.105,-0.29
2021-08-01 00:34:41.104,0.125,-0.31
2021-08-01 00:34:41.108,0.125,-0.295
2021-08-01 00:34:41.112,0.16,-0.285
2021-08-01 00:34:41.116,0.13,-0.285
2021-08-01 00:34:41.120,0.155,-0.295
2021-08-01 00:34:41.124,0.155,-0.3
2021-08-01 00:34:41.128,0.17,-0.33
2021-08-01 00:34:41.132,0.195,-0.33
2021-08-01 00:34:41.136,0.2,-0.33
2021-08-01 00:34:41.140,0.205,-0.355
2021-08-01 00:34:41.144,0.21,-0.34
2021-08-01 00:34:41.148,0.21,-0.365
2021-08-01 00:34:41.152,0.19,-0.37
2021-08-01 00:34:41.156,0.205,-0.37
2021-08-01 00:34:41.160,0.205,-0.37
2021-08-01 00:34:41.164,0.215,-0.36
2021-08-01 00:34:41.168,0.22,-0.305
2021-08-01 00:34:41.172,0.21,-0.285
2021-08-01 00:34:41.176,0.245,-0.28
2021-08-01 00:34:41.180,0.235,-0.23
2021-08-01 00:34:41.184,0.22,-0.215
2021-08-01 00:34:41.188,0.205,-0.185
2021-08-01 00:34:41.192,0.22,-0.185
2021-08-01 00:34:41.196,0.21,-0.165
2021-08-01 00:34:41.200,0.205,-0.17
2021-08-01 00:34:41.204,0.19,-0.175
2021-08-01 00:34:41.208,0.18,-0.16
2021-08-01 00:34:41.212,0.17,-0.135
2021-08-01 00:34:41.216,0.17,-0.12
2021-08-01 00:34:41.220,0.14,-0.08
2021-08-01 00:34:41.224,0.115,-0.075
2021-08-01 00:34:41.228,0.13,-0.055
2021-08-01 00:34:41.232,0.14,-0.045
2021-08-01 00:34:41.236,0.115,-0.015
2021-08-01 00:34:41.240,0.12,-0.01
2021-08-01 00:34:41.244,0.13,-0.025
2021-08-01 00:34:41.248,0.105,-0.025
2021-08-01 00:34:41.252,0.105,-0.02
2021-08-01 00:34:41.256,0.1,-0.025
2021-08-01 00:34:41.260,0.09,-0.035
2021-08-01 00:34:41.264,0.07,-0.04
2021-08-01 00:34:41.268,0.1,-0.04
2021-08-01 00:34:41.272,0.065,-0.03
2021-08-01 00:34:41.276,0.075,-0.065
2021-08-01 00:34:41.280,0.075,-0.065
2021-08-01 00:34:41.284,0.1,-0.03
2021-08-01 00:34:41.288,0.075,-0.04
2021-08-01 00:34:41.292,0.08,-0.05
2021-08-01 00:34:41.296,0.07,-0.035
2021-08-01 00:34:41.300,0.055,-0.055
2021-08-01 00:34:41.304,0.07,-0.055
2021-08-01 00:34:41.308,0.09,-0.05
2021-08-01 00:34:41.312,0.095,-0.055
2021-08-01 00:34:41.316,0.08,-0.03
2021-08-01 00:34:41.320,0.09,-0.04
2021-08-01 00:34:41.324,0.075,-0.035
2021-08-01 00:34:41.328,0.08,-0.035
2021-08-01 00:34:41.332,0.075,-0.055
2021-08-01 00:34:41.336,0.09,-0.065
2021-08-01 00:34:41.340,0.07,-0.07
2021-08-01 00:34:41.344,0.08,-0.095
2021-08-01 00:34:41.348,0.075,-0.08
2021-08-01 00:34:41.352,0.075,-0.105
2021-08-01 00:34:41.356,0.085,-0.12
2021-08-01 00:34:41.360,0.08,-0.125
2021-08-01 00:34:41.364,0.065,-0.14
2021-08-01 00:34:41.368,0.08,-0.155
2021-08-01 00:34:41.372,0.065,-0.125
2021-08-01 00:34:41.376,0.07,-0.095
2021-08-01 00:34:41.380,0.08,-0.085
2021-08-01 00:34:41.384,0.095,-0.06
2021-08-01 00:34:41.388,0.075,-0.06
2021-08-01 00:34:41.392,0.09,-0.055
2021-08-01 00:34:41.396,0.075,-0.06
2021-08-01 00:34:41.400,0.07,-0.075
2021-08-01 00:34:41.404,0.06,-0.1
2021-08-01 00:34:41.408,0.07,-0.135
2021-08-01 00:34:41.412,0.055,-0.125
2021-08-01 00:34:41.416,0.03,-0.125
2021-08-01 00:34:41.420,0.015,-0.13
2021-08-01 00:34:41.424,0.02,-0.1
2021-08-01 00:34:41.428,0.01,-0.115
2021-08-01 00:34:41.432,0.04,-0.11
2021-08-01 00:34:41.436,0.05,-0.085
2021-08-01 00:34:41.440,0.055,-0.095
2021-08-01 00:34:41.444,0.045,-0.1
2021-08-01 00:34:41.448,0.05,-0.1
2021-08-01 00:34:41.452,0.035,-0.08
2021-08-01 00:34:41.456,0.055,-0.1
2021-08-01 00:34:41.460,0.05,-0.09
2021-08-01 00:34:41.464,0.03,-0.095
2021-08-01 00:34:41.468,0.05,-0.095
2021-08-01 00:34:41.472,0.05,-0.09
2021-08-01 00:34:41.476,0.02,-0.08
2021-08-01 00:34:41.480,0.025,-0.08
2021-08-01 00:34:41.484,0.04,-0.08
2021-08-01 00:34:41.488,0.035,-0.085
2021-08-01 00:34:41.492,0.025,-0.08
2021-08-01 00:34:41.496,0.03,-0.08
2021-08-01 00:34:41.500,0.005,-0.08
2021-08-01 00:34:41.504,0.04,-0.085
2021-08-01 00:34:41.508,0.035,-0.075
2021-08-01 00:34:41.512,0.045,-0.08
2021-08-01 00:34:41.516,0.02,-0.08
2021-08-01 00:34:41.520,0.025,-0.075
2021-08-01 00:34:41.524,0.03,-0.075
2021-08-01 00:34:41.528,0.025,-0.1
2021-08-01 00:34:41.532,0.03,-0.19
2021-08-01 00:34:41.536,0.045,-0.26
2021-08-01 00:34:41.540,0.05,-0.23
2021-08-01 00:34:41.544,0.055,-0.025
2021-08-01 00:34:41.548,0.055,0.315
2021-08-01 00:34:41.552,0.115,0.76
2021-08-01 00:34:41.556,0.185,1.29
2021-08-01 00:34:41.560,0.295,1.83
2021-08-01 00:34:41.580,0.395,1.42
2021-08-01 00:34:41.584,0.305,0.86
2021-08-01 00:34:41.588,0.145,0.495
2021-08-01 00:34:41.592,-0.005,0.325
2021-08-01 00:34:41.596,-0.08,0.225
2021-08-01 00:34:41.600,-0.095,0.17
2021-08-01 00:34:41.604,-0.035,0.115
2021-08-01 00:34:41.608,0.05,0.08
2021-08-01 00:34:41.612,0.04,0.03
2021-08-01 00:34:41.616,0.06,0.0
2021-08-01 00:34:41.620,0.07,-0.08
2021-08-01 00:34:41.624,0.06,-0.1
2021-08-01 00:34:41.628,0.06,-0.1
2021-08-01 00:34:41.632,0.035,-0.13
2021-08-01 00:34:41.636,0.04,-0.13
2021-08-01 00:34:41.640,0.05,-0.115
2021-08-01 00:34:41.644,0.04,-0.11
2021-08-01 00:34:41.648,0.04,-0.105
2021-08-01 00:34:41.652,0.035,-0.125
2021-08-01 00:34:41.656,0.035,-0.13
2021-08-01 00:34:41.660,0.025,-0.14
2021-08-01 00:34:41.664,0.025,-0.14
2021-08-01 00:34:41.668,0.045,-0.14
2021-08-01 00:34:41.672,0.04,-0.155
2021-08-01 00:34:41.676,0.04,-0.165
2021-08-01 00:34:41.680,0.045,-0.16
2021-08-01 00:34:41.684,0.035,-0.17
2021-08-01 00:34:41.688,0.045,-0.155
2021-08-01 00:34:41.692,0.035,-0.16
2021-08-01 00:34:41.696,0.02,-0.175
2021-08-01 00:34:41.700,0.035,-0.155
2021-08-01 00:34:41.704,0.025,-0.155
2021-08-01 00:34:41.708,0.03,-0.155
2021-08-01 00:34:41.712,0.025,-0.16
2021-08-01 00:34:41.716,0.03,-0.16
2021-08-01 00:34:41.720,0.04,-0.175
2021-08-01 00:34:41.724,0.02,-0.15
2021-08-01 00:34:41.728,0.035,-0.175
2021-08-01 00:34:41.732,0.045,-0.15
2021-08-01 00:34:41.736,0.055,-0.16
2021-08-01 00:34:41.740,0.055,-0.15
2021-08-01 00:34:41.744,0.065,-0.14
2021-08-01 00:34:41.748,0.06,-0.145
2021-08-01 00:34:41.752,0.075,-0.13
2021-08-01 00:34:41.756,0.06,-0.125
2021-08-01 00:34:41.760,0.075,-0.14
2021-08-01 00:34:41.764,0.075,-0.15
2021-08-01 00:34:41.768,0.065,-0.135
2021-08-01 00:34:41.772,0.09,-0.14
2021-08-01 00:34:41.776,0.09,-0.145
2021-08-01 00:34:41.780,0.09,-0.16
2021-08-01 00:34:41.784,0.11,-0.17
2021-08-01 00:34:41.788,0.13,-0.185
2021-08-01 00:34:41.792,0.12,-0.185
2021-08-01 00:34:41.796,0.115,-0.19
2021-08-01 00:34:41.800,0.115,-0.215
2021-08-01 00:34:41.804,0.11,-0.2
2021-08-01 00:34:41.808,0.145,-0.205
2021-08-01 00:34:41.812,0.135,-0.19
2021-08-01 00:34:41.816,0.155,-0.185
2021-08-01 00:34:41.820,0.175,-0.18
2021-08-01 00:34:41.824,0.18,-0.185
2021-08-01 00:34:41.828,0.165,-0.195
2021-08-01 00:34:41.832,0.16,-0.195
2021-08-01 00:34:41.836,0.15,-0.205
2021-08-01 00:34:41.840,0.15,-0.185
2021-08-01 00:34:41.844,0.155,-0.185
2021-08-01 00:34:41.848,0.145,-0.16
2021-08-01 00:34:41.852,0.13,-0.175
2021-08-01 00:34:41.856,0.135,-0.18
2021-08-01 00:34:41.860,0.16,-0.145
2021-08-01 00:34:41.864,0.15,-0.14
2021-08-01 00:34:41.868,0.15,-0.145
2021-08-01 00:34:41.872,0.155,-0.14
2021-08-01 00:34:41.876,0.125,-0.135
2021-08-01 00:34:41.880,0.125,-0.125
2021-08-01 00:34:41.884,0.125,-0.09
2021-08-01 00:34:41.888,0.135,-0.075
2021-08-01 00:34:41.892,0.11,-0.07
2021-08-01 00:34:41.896,0.125,-0.035
2021-08-01 00:34:41.900,0.11,-0.025
2021-08-01 00:34:41.904,0.105,-0.04
2021-08-01 00:34:41.908,0.11,-0.02
2021-08-01 00:34:41.912,0.095,-0.015
2021-08-01 00:34:41.916,0.085,-0.005
2021-08-01 00:34:41.920,0.065,-0.015
2021-08-01 00:34:41.924,0.05,-0.025
2021-08-01 00:34:41.928,0.045,-0.02
2021-08-01 00:34:41.932,0.045,-0.01
2021-08-01 00:34:41.936,0.04,-0.01
2021-08-01 00:34:41.940,0.02,-0.015
2021-08-01 00:34:41.944,0.04,-0.01
2021-08-01 00:34:41.948,0.055,0.005
2021-08-01 00:34:41.952,0.03,-0.005
2021-08-01 00:34:41.956,0.04,-0.005
2021-08-01 00:34:41.960,0.035,-0.02
2021-08-01 00:34:41.964,0.03,-0.015
2021-08-01 00:34:41.968,0.05,-0.02
2021-08-01 00:34:41.972,0.045,-0.02
2021-08-01 00:34:41.976,0.045,0.01
2021-08-01 00:34:41.980,0.035,0.02
2021-08-01 00:34:41.984,0.045,0.02
2021-08-01 00:34:41.988,0.05,0.01
2021-08-01 00:34:41.992,0.07,0.035
2021-08-01 00:34:41.996,0.035,0.03
2021-08-01 00:34:42.000,0.055,0.03
2021-08-01 00:34:42.004,0.065,0.015
2021-08-01 00:34:42.008,0.045,-0.015
2021-08-01 00:34:42.012,0.055,-0.055
2021-08-01 00:34:42.016,0.035,-0.065
2021-08-01 00:34:42.020,0.035,-0.05
2021-08-01 00:34:42.024,0.035,-0.04
2021-08-01 00:34:42.028,0.06,-0.01
2021-08-01 00:34:42.032,0.065,-0.005
2021-08-01 00:34:42.036,0.06,0.0
2021-08-01 00:34:42.040,0.055,0.01
2021-08-01 00:34:42.044,0.05,0.01
2021-08-01 00:34:42.048,0.04,-0.015
2021-08-01 00:34:42.052,0.045,-0.035
2021-08-01 00:34:42.056,0.03,-0.04
2021-08-01 00:34:42.060,0.02,-0.03
2021-08-01 00:34:42.064,0.025,-0.015
2021-08-01 00:34:42.068,0.025,-0.02
2021-08-01 00:34:42.072,0.025,-0.025
2021-08-01 00:34:42.076,0.035,-0.04
2021-08-01 00:34:42.080,0.02,-0.02
2021-08-01 00:34:42.084,0.015,-0.055
2021-08-01 00:34:42.088,0.025,-0.06
2021-08-01 00:34:42.092,0.0,-0.05
2021-08-01 00:34:42.096,0.0,-0.065
2021-08-01 00:34:42.100,-0.01,-0.06
2021-08-01 00:34:42.104,-0.005,-0.075
2021-08-01 00:34:42.108,0.01,-0.06
2021-08-01 00:34:42.112,0.01,-0.04
2021-08-01 00:34:42.116,0.0,-0.06
2021-08-01 00:34:42.120,-0.01,-0.065
2021-08-01 00:34:42.124,0.01,-0.08
2021-08-01 00:34:42.128,0.0,-0.1
2021-08-01 00:34:42.132,-0.005,-0.075
2021-08-01 00:34:42.136,-0.025,-0.075
2021-08-01 00:34:42.140,-0.02,-0.075
2021-08-01 00:34:42.144,-0.01,-0.065
2021-08-01 00:34:42.148,-0.005,-0.075
2021-08-01 00:34:42.152,-0.005,-0.065
2021-08-01 00:34:42.156,0.01,-0.06
2021-08-01 00:34:42.160,-0.005,-0.075
2021-08-01 00:34:42.164,0.0,-0.075
2021-08-01 00:34:42.168,0.0,-0.08
2021-08-01 00:34:42.172,-0.005,-0.085
2021-08-01 00:34:42.176,-0.01,-0.08
2021-08-01 00:34:42.180,0.0,-0.05
2021-08-01 00:34:42.184,0.01,-0.04
2021-08-01 00:34:42.188,-0.01,-0.05
2021-08-01 00:34:42.192,-0.01,-0.025
2021-08-01 00:34:42.196,-0.01,-0.02
2021-08-01 00:34:42.200,0.01,-0.005
2021-08-01 00:34:42.204,0.0,0.015
2021-08-01 00:34:42.208,0.025,0.005
2021-08-01 00:34:42.212,0.03,0.0
2021-08-01 00:34:42.216,0.035,-0.04
2021-08-01 00:34:42.220,0.04,-0.115
2021-08-01 00:34:42.224,0.04,-0.215
2021-08-01 00:34:42.228,0.045,-0.18
2021-08-01 00:34:42.232,0.035,0.025
2021-08-01 00:34:42.236,0.08,0.42
2021-08-01 00:34:42.240,0.12,0.885
2021-08-01 00:34:42.244,0.22,1.425
2021-08-01 00:34:42.248,0.335,1.98
2021-08-01 00:34:42.268,0.415,1.435
2021-08-01 00:34:42.272,0.33,0.895
2021-08-01 00:34:42.276,0.145,0.535
2021-08-01 00:34:42.280,0.0,0.405
2021-08-01 00:34:42.284,-0.07,0.31
2021-08-01 00:34:42.288,-0.075,0.24
2021-08-01 00:34:42.292,-0.035,0.185
2021-08-01 00:34:42.296,0.0,0.135
2021-08-01 00:34:42.300,0.045,0.095
2021-08-01 00:34:42.304,0.06,0.055
2021-08-01 00:34:42.308,0.05,0.03
2021-08-01 00:34:42.312,0.045,0.0
2021-08-01 00:34:42.316,0.06,-0.025
2021-08-01 00:34:42.320,0.02,-0.035
2021-08-01 00:34:42.324,0.04,-0.055
2021-08-01 00:34:42.328,0.015,-0.065
2021-08-01 00:34:42.332,0.05,-0.06
2021-08-01 00:34:42.336,0.055,-0.065
2021-08-01 00:34:42.340,0.035,-0.055
2021-08-01 00:34:42.344,0.045,-0.075
2021-08-01 00:34:42.348,0.06,-0.09
2021-08-01 00:34:42.352,0.03,-0.09
2021-08-01 00:34:42.356,0.04,-0.09
2021-08-01 00:34:42.360,0.025,-0.08
2021-08-01 00:34:42.364,0.03,-0.09
2021-08-01 00:34:42.368,0.03,-0.095
2021-08-01 00:34:42.372,0.025,-0.09
2021-08-01 00:34:42.376,0.02,-0.11
2021-08-01 00:34:42.380,0.035,-0.115
2021-08-01 00:34:42.384,0.02,-0.09
2021-08-01 00:34:42.388,0.02,-0.105
2021-08-01 00:34:42.392,0.03,-0.105
2021-08-01 00:34:42.396,0.03,-0.1
2021-08-01 00:34:42.400,0.025,-0.11
2021-08-01 00:34:42.404,0.035,-0.105
2021-08-01 00:34:42.408,0.03,-0.095
2021-08-01 00:34:42.412,0.04,-0.085
2021-08-01 00:34:42.416,0.03,-0.075
2021-08-01 00:34:42.420,0.035,-0.095
2021-08-01 00:34:42.424,0.07,-0.095
2021-08-01 00:34:42.428,0.045,-0.09
2021-08-01 00:34:42.432,0.065,-0.085
2021-08-01 00:34:42.436,0.065,-0.075
2021-08-01 00:34:42.440,0.07,-0.1
2021-08-01 00:34:42.444,0.08,-0.07
2021-08-01 00:34:42.448,0.08,-0.08
2021-08-01 00:34:42.452,0.08,-0.085
2021-08-01 00:34:42.456,0.1,-0.1
2021-08-01 00:34:42.460,0.11,-0.105
2021-08-01 00:34:42.464,0.105,-0.105
2021-08-01 00:34:42.468,0.095,-0.13
2021-08-01 00:34:42.472,0.11,-0.155
2021-08-01 00:34:42.476,0.125,-0.14
2021-08-01 00:34:42.480,0.14,-0.16
2021-08-01 00:34:42.484,0.13,-0.165
2021-08-01 00:34:42.488,0.135,-0.165
2021-08-01 00:34:42.492,0.145,-0.16
2021-08-01 00:34:42.496,0.15,-0.155
2021-08-01 00:34:42.500,0.17,-0.145
2021-08-01 00:34:42.504,0.165,-0.13
2021-08-01 00:34:42.508,0.175,-0.12
2021-08-01 00:34:42.512,0.155,-0.11
2021-08-01 00:34:42.516,0.17,-0.115
2021-08-01 00:34:42.520,0.16,-0.11
2021-08-01 00:34:42.524,0.17,-0.13
2021-08-01 00:34:42.528,0.17,-0.135
2021-08-01 00:34:42.532,0.175,-0.125
2021-08-01 00:34:42.536,0.175,-0.13
2021-08-01 00:34:42.540,0.155,-0.14
2021-08-01 00:34:42.544,0.155,-0.12
2021-08-01 00:34:42.548,0.13,-0.11
2021-08-01 00:34:42.552,0.135,-0.115
2021-08-01 00:34:42.556,0.145,-0.105
2021-08-01 00:34:42.560,0.15,-0.075
2021-08-01 00:34:42.564,0.15,-0.065
2021-08-01 00:34:42.568,0.135,-0.055
2021-08-01 00:34:42.572,0.115,-0.05
2021-08-01 00:34:42.576,0.105,-0.02
2021-08-01 00:34:42.580,0.095,-0.01
2021-08-01 00:34:42.584,0.09,-0.005
2021-08-01 00:34:42.588,0.075,0.015
2021-08-01 00:34:42.592,0.095,0.015
2021-08-01 00:34:42.596,0.085,0.025
2021-08-01 00:34:42.600,0.075,0.05
2021-08-01 00:34:42.604,0.035,0.02
2021-08-01 00:34:42.608,0.07,0.065
2021-08-01 00:34:42.612,0.05,0.065
2021-08-01 00:34:42.616,0.06,0.065
2021-08-01 00:34:42.620,0.045,0.065
2021-08-01 00:34:42.624,0.04,0.065
2021-08-01 00:34:42.628,0.025,0.065
2021-08-01 00:34:42.632,0.035,0.07
2021-08-01 00:34:42.636,0.03,0.06
2021-08-01 00:34:42.640,0.02,0.07
2021-08-01 00:34:42.644,0.045,0.07
2021-08-01 00:34:42.648,0.03,0.075
2021-08-01 00:34:42.652,0.045,0.08
2021-08-01 00:34:42.656,0.045,0.065
2021-08-01 00:34:42.660,0.055,0.07
2021-08-01 00:34:42.664,0.035,0.07
2021-08-01 00:34:42.668,0.05,0.085
2021-08-01 00:34:42.672,0.035,0.075
2021-08-01 00:34:42.676,0.045,0.06
2021-08-01 00:34:42.680,0.035,0.04
2021-08-01 00:34:42.684,0.035,0.045
2021-08-01 00:34:42.688,0.03,0.025
2021-08-01 00:34:42.692,0.035,0.04
2021-08-01 00:34:42.696,0.04,0.015
2021-08-01 00:34:42.700,0.03,0.04
2021-08-01 00:34:42.704,0.035,0.075
2021-08-01 00:34:42.708,0.045,0.065
2021-08-01 00:34:42.712,0.06,0.075
2021-08-01 00:34:42.716,0.06,0.08
2021-08-01 00:34:42.720,0.055,0.05
2021-08-01 00:34:42.724,0.04,0.065
2021-08-01 00:34:42.728,0.025,0.07
2021-08-01 00:34:42.732,0.02,0.07
2021-08-01 00:34:42.736,0.03,0.075
2021-08-01 00:34:42.740,0.045,0.065
2021-08-01 00:34:42.744,0.045,0.055
2021-08-01 00:34:42.748,0.02,0.05
2021-08-01 00:34:42.752,0.04,0.06
2021-08-01 00:34:42.756,0.0,0.035
2021-08-01 00:34:42.760,0.04,0.035
2021-08-01 00:34:42.764,0.01,-0.025
2021-08-01 00:34:42.768,0.0,-0.125
2021-08-01 00:34:42.772,0.015,-0.11
2021-08-01 00:34:42.776,0.025,0.06
2021-08-01 00:34:42.780,0.04,0.385
2021-08-01 00:34:42.784,0.055,0.88
2021-08-01 00:34:42.788,0.14,1.46
2021-08-01 00:34:42.812,0.33,1.5
2021-08-01 00:34:42.816,0.21,0.95
2021-08-01 00:34:42.820,0.035,0.625
2021-08-01 00:34:42.824,-0.12,0.465
2021-08-01 00:34:42.828,-0.175,0.34
2021-08-01 00:34:42.832,-0.16,0.23
2021-08-01 00:34:42.836,-0.1,0.18
2021-08-01 00:34:42.840,-0.03,0.11
2021-08-01 00:34:42.844,0.0,0.08
2021-08-01 00:34:42.848,-0.005,0.02
2021-08-01 00:34:42.852,0.0,0.015
2021-08-01 00:34:42.856,-0.005,0.005
2021-08-01 00:34:42.860,0.0,-0.025
2021-08-01 00:34:42.864,0.0,-0.03
2021-08-01 00:34:42.868,0.0,-0.045
2021-08-01 00:34:42.872,-0.005,-0.06
2021-08-01 00:34:42.876,0.005,-0.07
2021-08-01 00:34:42.880,0.0,-0.065
2021-08-01 00:34:42.884,-0.015,-0.075
2021-08-01 00:34:42.888,0.02,-0.08
2021-08-01 00:34:42.892,0.025,-0.115
2021-08-01 00:34:42.896,0.015,-0.1
2021-08-01 00:34:42.900,0.025,-0.105
2021-08-01 00:34:42.904,0.02,-0.115
2021-08-01 00:34:42.908,0.03,-0.135
2021-08-01 00:34:42.912,0.015,-0.16
2021-08-01 00:34:42.916,0.0,-0.165
2021-08-01 00:34:42.920,0.015,-0.17
2021-08-01 00:34:42.924,0.015,-0.155
2021-08-01 00:34:42.928,0.015,-0.135
2021-08-01 00:34:42.932,0.04,-0.115
2021-08-01 00:34:42.936,0.05,-0.075
2021-08-01 00:34:42.940,0.05,-0.06
2021-08-01 00:34:42.944,0.045,-0.08
2021-08-01 00:34:42.948,0.035,-0.1
2021-08-01 00:34:42.952,0.04,-0.09
2021-08-01 00:34:42.956,0.025,-0.08
2021-08-01 00:34:42.960,0.02,-0.08
2021-08-01 00:34:42.964,0.06,-0.11
2021-08-01 00:34:42.968,0.03,-0.105
2021-08-01 00:34:42.972,0.04,-0.115
2021-08-01 00:34:42.976,0.04,-0.11
2021-08-01 00:34:42.980,0.015,-0.09
2021-08-01 00:34:42.984,0.02,-0.125
2021-08-01 00:34:42.988,0.04,-0.09
2021-08-01 00:34:42.992,0.04,-0.09
2021-08-01 00:34:42.996,0.06,-0.085
2021-08-01 00:34:43.000,0.04,-0.095
2021-08-01 00:34:43.004,0.055,-0.085
2021-08-01 00:34:43.008,0.055,-0.085
2021-08-01 00:34:43.012,0.05,-0.09
2021-08-01 00:34:43.016,0.055,-0.06
2021-08-01 00:34:43.020,0.05,-0.09
2021-08-01 00:34:43.024,0.08,-0.09
2021-08-01 00:34:43.028,0.075,-0.09
2021-08-01 00:34:43.032,0.08,-0.1
2021-08-01 00:34:43.036,0.1,-0.09
2021-08-01 00:34:43.040,0.105,-0.09
2021-08-01 00:34:43.044,0.09,-0.09
2021-08-01 00:34:43.048,0.13,-0.075
2021-08-01 00:34:43.052,0.105,-0.075
2021-08-01 00:34:43.056,0.1,-0.085
2021-08-01 00:34:43.060,0.11,-0.07
2021-08-01 00:34:43.064,0.11,-0.08
2021-08-01 00:34:43.068,0.14,-0.065
2021-08-01 00:34:43.072,0.12,-0.07
2021-08-01 00:34:43.076,0.135,-0.05
2021-08-01 00:34:43.080,0.145,-0.04
2021-08-01 00:34:43.084,0.13,-0.03
2021-08-01 00:34:43.088,0.145,-0.015
2021-08-01 00:34:43.092,0.13,0.0
2021-08-01 00:34:43.096,0.135,0.01
2021-08-01 00:34:43.100,0.135,0.045
2021-08-01 00:34:43.104,0.14,0.035
2021-08-01 00:34:43.108,0.12,0.07
2021-08-01 00:34:43.112,0.125,0.08
2021-08-01 00:34:43.116,0.13,0.09
2021-08-01 00:34:43.120,0.14,0.1
2021-08-01 00:34:43.124,0.12,0.1
2021-08-01 00:34:43.128,0.115,0.13
2021-08-01 00:34:43.132,0.095,0.11
2021-08-01 00:34:43.136,0.11,0.09
2021-08-01 00:34:43.140,0.085,0.08
2021-08-01 00:34:43.144,0.075,0.06
2021-08-01 00:34:43.148,0.075,0.08
2021-08-01 00:34:43.152,0.07,0.09
2021-08-01 00:34:43.156,0.075,0.1
2021-08-01 00:34:43.160,0.06,0.095
2021-08-01 00:34:43.164,0.08,0.115
2021-08-01 00:34:43.168,0.055,0.12
2021-08-01 00:34:43.172,0.045,0.105
2021-08-01 00:34:43.176,0.025,0.075
2021-08-01 00:34:43.180,0.035,0.07
2021-08-01 00:34:43.184,0.05,0.07
2021-08-01 00:34:43.188,0.035,0.035
2021-08-01 00:34:43.192,0.02,0.015
2021-08-01 00:34:43.196,0.015,0.0
2021-08-01 00:34:43.200,0.01,-0.01
2021-08-01 00:34:43.204,0.0,0.005
2021-08-01 00:34:43.208,-0.01,0.0
2021-08-01 00:34:43.212,-0.02,-0.015
2021-08-01 00:34:43.216,0.0,0.015
2021-08-01 00:34:43.220,0.0,0.015
2021-08-01 00:34:43.224,0.005,0.015
2021-08-01 00:34:43.228,0.015,0.0
2021-08-01 00:34:43.232,0.02,0.005
2021-08-01 00:34:43.236,-0.03,0.0
2021-08-01 00:34:43.240,0.005,0.01
2021-08-01 00:34:43.244,0.005,0.01
2021-08-01 00:34:43.248,0.015,0.01
2021-08-01 00:34:43.252,0.0,0.0
2021-08-01 00:34:43.256,-0.01,0.005
2021-08-01 00:34:43.260,-0.015,0.005
2021-08-01 00:34:43.264,-0.015,0.015
2021-08-01 00:34:43.268,-0.005,-0.005
2021-08-01 00:34:43.272,0.005,-0.005
2021-08-01 00:34:43.276,0.01,0.0
2021-08-01 00:34:43.280,-0.005,0.0
2021-08-01 00:34:43.284,-0.005,0.01
2021-08-01 00:34:43.288,-0.005,-0.005
2021-08-01 00:34:43.292,-0.02,0.0
2021-08-01 00:34:43.296,0.005,0.0
2021-08-01 00:34:43.300,-0.005,0.0
2021-08-01 00:34:43.304,-0.005,0.005
2021-08-01 00:34:43.308,0.0,-0.005
2021-08-01 00:34:43.312,-0.015,0.005
2021-08-01 00:34:43.316,0.0,-0.005
2021-08-01 00:34:43.320,-0.015,0.015
2021-08-01 00:34:43.324,0.0,0.015
2021-08-01 00:34:43.328,0.005,0.01
2021-08-01 00:34:43.332,0.0,-0.015
2021-08-01 00:34:43.336,0.015,-0.02
2021-08-01 00:34:43.340,0.005,-0.02
2021-08-01 00:34:43.344,0.015,-0.03
2021-08-01 00:34:43.348,0.0,-0.03
2021-08-01 00:34:43.352,0.01,-0.04
2021-08-01 00:34:43.356,0.01,-0.04
2021-08-01 00:34:43.360,0.0,-0.045
2021-08-01 00:34:43.364,0.0,-0.04
2021-08-01 00:34:43.368,0.0,-0.03
2021-08-01 00:34:43.372,0.015,-0.005
2021-08-01 00:34:43.376,0.0,0.02
2021-08-01 00:34:43.380,0.02,0.025
2021-08-01 00:34:43.384,0.0,0.04
2021-08-01 00:34:43.388,0.03,0.035
2021-08-01 00:34:43.392,0.025,0.03
2021-08-01 00:34:43.396,0.01,0.025
2021-08-01 00:34:43.400,0.005,0.025
2021-08-01 00:34:43.404,0.0,-0.005
2021-08-01 00:34:43.408,0.005,0.0
2021-08-01 00:34:43.412,-0.005,-0.04
2021-08-01 00:34:43.416,-0.015,-0.13
2021-08-01 00:34:43.420,-0.015,-0.22
2021-08-01 00:34:43.424,0.0,-0.27
2021-08-01 00:34:43.428,-0.005,-0.135
2021-08-01 00:34:43.432,0.0,0.2
2021-08-01 00:34:43.436,0.03,0.655
2021-08-01 00:34:43.440,0.095,1.23
2021-08-01 00:34:43.444,0.21,1.855
2021-08-01 00:34:43.464,0.44,1.835
2021-08-01 00:34:43.468,0.32,1.23
2021-08-01 00:34:43.472,0.13,0.795
2021-08-01 00:34:43.476,-0.025,0.545
2021-08-01 00:34:43.480,-0.145,0.415
2021-08-01 00:34:43.484,-0.175,0.335
2021-08-01 00:34:43.488,-0.12,0.255
2021-08-01 00:34:43.492,-0.05,0.19
2021-08-01 00:34:43.496,-0.005,0.12
2021-08-01 00:34:43.500,0.0,0.095
2021-08-01 00:34:43.504,0.005,0.045
2021-08-01 00:34:43.508,0.0,0.01
2021-08-01 00:34:43.512,-0.015,0.01
2021-08-01 00:34:43.516,-0.005,-0.01
2021-08-01 00:34:43.520,-0.02,-0.025
2021-08-01 00:34:43.524,0.0,-0.03
2021-08-01 00:34:43.528,-0.005,-0.025
2021-08-01 00:34:43.532,-0.005,-0.055
2021-08-01 00:34:43.536,-0.01,-0.05
2021-08-01 00:34:43.540,-0.02,-0.055
2021-08-01 00:34:43.544,-0.01,-0.06
2021-08-01 00:34:43.548,-0.005,-0.07
2021-08-01 00:34:43.552,0.0,-0.07
2021-08-01 00:34:43.556,-0.03,-0.06
2021-08-01 00:34:43.560,0.0,-0.07
2021-08-01 00:34:43.564,0.0,-0.065
2021-08-01 00:34:43.568,0.005,-0.095
2021-08-01 00:34:43.572,-0.005,-0.12
2021-08-01 00:34:43.576,0.01,-0.135
2021-08-01 00:34:43.580,0.0,-0.145
2021-08-01 00:34:43.584,0.005,-0.15
2021-08-01 00:34:43.588,0.01,-0.14
2021-08-01 00:34:43.592,0.02,-0.1
2021-08-01 00:34:43.596,0.01,-0.115
2021-08-01 00:34:43.600,0.02,-0.08
2021-08-01 00:34:43.604,0.035,-0.075
2021-08-01 00:34:43.608,0.035,-0.085
2021-08-01 00:34:43.612,0.02,-0.085
2021-08-01 00:34:43.616,0.03,-0.08
2021-08-01 00:34:43.620,0.025,-0.11
2021-08-01 00:34:43.624,0.02,-0.115
2021-08-01 00:34:43.628,0.02,-0.115
2021-08-01 00:34:43.632,0.015,-0.145
2021-08-01 00:34:43.636,0.02,-0.14
2021-08-01 00:34:43.640,0.015,-0.16
2021-08-01 00:34:43.644,0.005,-0.15
2021-08-01 00:34:43.648,0.0,-0.145
2021-08-01 00:34:43.652,0.025,-0.14
2021-08-01 00:34:43.656,0.02,-0.14
2021-08-01 00:34:43.660,0.02,-0.12
2021-08-01 00:34:43.664,0.035,-0.12
2021-08-01 00:34:43.668,0.065,-0.125
2021-08-01 00:34:43.672,0.04,-0.125
2021-08-01 00:34:43.676,0.055,-0.125
2021-08-01 00:34:43.680,0.065,-0.12
2021-08-01 00:34:43.684,0.065,-0.145
2021-08-01 00:34:43.688,0.07,-0.12
2021-08-01 00:34:43.692,0.075,-0.145
2021-08-01 00:34:43.696,0.075,-0.125
2021-08-01 00:34:43.700,0.075,-0.145
2021-08-01 00:34:43.704,0.095,-0.15
2021-08-01 00:34:43.708,0.12,-0.155
2021-08-01 00:34:43.712,0.08,-0.16
2021-08-01 00:34:43.716,0.095,-0.175
2021-08-01 00:34:43.720,0.095,-0.185
2021-08-01 00:34:43.724,0.11,-0.18
2021-08-01 00:34:43.728,0.1,-0.18
2021-08-01 00:34:43.732,0.1,-0.175
2021-08-01 00:34:43.736,0.115,-0.175
2021-08-01 00:34:43.740,0.115,-0.17
2021-08-01 00:34:43.744,0.11,-0.155
2021-08-01 00:34:43.748,0.115,-0.15
2021-08-01 00:34:43.752,0.105,-0.12
2021-08-01 00:34:43.756,0.085,-0.125
2021-08-01 00:34:43.760,0.1,-0.1
2021-08-01 00:34:43.764,0.1,-0.075
2021-08-01 00:34:43.768,0.1,-0.06
2021-08-01 00:34:43.772,0.095,-0.03
2021-08-01 00:34:43.776,0.11,-0.02
2021-08-01 00:34:43.780,0.085,-0.005
2021-08-01 00:34:43.784,0.075,0.02
2021-08-01 00:34:43.788,0.07,0.025
2021-08-01 00:34:43.792,0.05,0.045
2021-08-01 00:34:43.796,0.055,0.05
2021-08-01 00:34:43.800,0.055,0.075
2021-08-01 00:34:43.804,0.045,0.07
2021-08-01 00:34:43.808,0.05,0.06
2021-08-01 00:34:43.812,0.035,0.09
2021-08-01 00:34:43.816,0.05,0.09
2021-08-01 00:34:43.820,0.045,0.1
2021-08-01 00:34:43.824,0.03,0.12
2021-08-01 00:34:43.828,0.06,0.11
2021-08-01 00:34:43.832,0.045,0.105
2021-08-01 00:34:43.836,0.025,0.105
2021-08-01 00:34:43.840,0.015,0.07
2021-08-01 00:34:43.844,-0.01,0.08
2021-08-01 00:34:43.848,-0.015,0.045
2021-08-01 00:34:43.852,0.0,0.055
2021-08-01 00:34:43.856,-0.005,0.025
2021-08-01 00:34:43.860,-0.005,0.025
2021-08-01 00:34:43.864,-0.015,0.01
2021-08-01 00:34:43.868,-0.005,0.0
2021-08-01 00:34:43.872,-0.01,0.01
2021-08-01 00:34:43.876,-0.02,0.005
2021-08-01 00:34:43.880,-0.01,0.0
2021-08-01 00:34:43.884,-0.02,0.01
2021-08-01 00:34:43.888,-0.005,0.03
2021-08-01 00:34:43.892,-0.01,0.02
2021-08-01 00:34:43.896,-0.025,0.015
2021-08-01 00:34:43.900,0.01,0.015
2021-08-01 00:34:43.904,0.0,0.01
2021-08-01 00:34:43.908,-0.005,0.03
2021-08-01 00:34:43.912,0.0,0.02
2021-08-01 00:34:43.916,0.0,0.02
2021-08-01 00:34:43.920,0.0,0.04
2021-08-01 00:34:43.924,-0.01,0.045
2021-08-01 00:34:43.928,0.015,0.05
2021-08-01 00:34:43.932,0.0,0.025
2021-08-01 00:34:43.936,-0.005,-0.01
2021-08-01 00:34:43.940,0.01,-0.03
2021-08-01 00:34:43.944,-0.005,0.015
2021-08-01 00:34:43.948,0.0,0.21
2021-08-01 00:34:43.952,0.03,0.545
2021-08-01 00:34:43.956,0.1,1.0
2021-08-01 00:34:43.960,0.175,1.53
2021-08-01 00:34:43.984,0.45,1.665
2021-08-01 00:34:43.988,0.305,1.075
2021-08-01 00:34:43.992,0.16,0.74
2021-08-01 00:34:43.996,-0.05,0.58
2021-08-01 00:34:44.000,-0.155,0.455
2021-08-01 00:34:44.004,-0.185,0.33
2021-08-01 00:34:44.008,-0.12,0.23
2021-08-01 00:34:44.012,-0.045,0.195
2021-08-01 00:34:44.016,-0.035,0.1
2021-08-01 00:34:44.020,0.01,0.035
2021-08-01 00:34:44.024,0.005,-0.015
2021-08-01 00:34:44.028,0.015,-0.075
2021-08-01 00:34:44.032,0.0,-0.1
2021-08-01 00:34:44.036,-0.01,-0.115
2021-08-01 00:34:44.040,-0.02,-0.12
2021-08-01 00:34:44.044,-0.02,-0.09
2021-08-01 00:34:44.048,-0.005,-0.09
2021-08-01 00:34:44.052,-0.02,-0.085
2021-08-01 00:34:44.056,-0.015,-0.085
2021-08-01 00:34:44.060,-0.015,-0.13
2021-08-01 00:34:44.064,-0.02,-0.11
2021-08-01 00:34:44.068,-0.02,-0.135
2021-08-01 00:34:44.072,-0.02,-0.155
2021-08-01 00:34:44.076,-0.02,-0.17
2021-08-01 00:34:44.080,-0.06,-0.165
2021-08-01 00:34:44.084,-0.07,-0.165
2021-08-01 00:34:44.088,-0.04,-0.19
2021-08-01 00:34:44.092,-0.04,-0.175
2021-08-01 00:34:44.096,-0.045,-0.19
2021-08-01 00:34:44.100,-0.04,-0.21
2021-08-01 00:34:44.104,-0.04,-0.19
2021-08-01 00:34:44.108,-0.04,-0.225
2021-08-01 00:34:44.112,-0.055,-0.24
2021-08-01 00:34:44.116,-0.085,-0.23
2021-08-01 00:34:44.120,-0.075,-0.215
2021-08-01 00:34:44.124,-0.045,-0.215
2021-08-01 00:34:44.128,-0.035,-0.205
2021-08-01 00:34:44.132,-0.025,-0.185
2021-08-01 00:34:44.136,-0.02,-0.18
2021-08-01 00:34:44.140,-0.01,-0.205
2021-08-01 00:34:44.144,-0.01,-0.195
2021-08-01 00:34:44.148,-0.02,-0.2
2021-08-01 00:34:44.152,0.01,-0.195
2021-08-01 00:34:44.156,-0.005,-0.17
2021-08-01 00:34:44.160,0.0,-0.195
2021-08-01 00:34:44.164,0.0,-0.205
2021-08-01 00:34:44.168,0.015,-0.185
2021-08-01 00:34:44.172,0.025,-0.18
2021-08-01 00:34:44.176,0.025,-0.2
2021-08-01 00:34:44.180,0.03,-0.195
2021-08-01 00:34:44.184,0.035,-0.18
2021-08-01 00:34:44.188,0.035,-0.185
2021-08-01 00:34:44.192,0.03,-0.17
2021-08-01 00:34:44.196,0.035,-0.16
2021-08-01 00:34:44.200,0.055,-0.16
2021-08-01 00:34:44.204,0.055,-0.17
2021-08-01 00:34:44.208,0.06,-0.17
2021-08-01 00:34:44.212,0.065,-0.195
2021-08-01 00:34:44.216,0.095,-0.175
2021-08-01 00:34:44.220,0.065,-0.165
2021-08-01 00:34:44.224,0.09,-0.17
2021-08-01 00:34:44.228,0.1,-0.16
2021-08-01 00:34:44.232,0.095,-0.16
2021-08-01 00:34:44.236,0.1,-0.13
2021-08-01 00:34:44.240,0.115,-0.12
2021-08-01 00:34:44.244,0.13,-0.1
2021-08-01 00:34:44.248,0.14,-0.115
2021-08-01 00:34:44.252,0.145,-0.11
2021-08-01 00:34:44.256,0.15,-0.095
2021-08-01 00:34:44.260,0.155,-0.09
2021-08-01 00:34:44.264,0.14,-0.095
2021-08-01 00:34:44.268,0.14,-0.07
2021-08-01 00:34:44.272,0.15,-0.045
2021-08-01 00:34:44.276,0.14,-0.02
2021-08-01 00:34:44.280,0.135,0.0
2021-08-01 00:34:44.284,0.145,0.02
2021-08-01 00:34:44.288,0.135,0.025
2021-08-01 00:34:44.292,0.125,0.03
2021-08-01 00:34:44.296,0.11,0.035
2021-08-01 00:34:44.300,0.08,0.01
2021-08-01 00:34:44.304,0.1,0.0
2021-08-01 00:34:44.308,0.05,-0.005
2021-08-01 00:34:44.312,0.05,-0.015
2021-08-01 00:34:44.316,0.03,-0.035
2021-08-01 00:34:44.320,0.025,-0.04
2021-08-01 00:34:44.324,0.02,-0.06
2021-08-01 00:34:44.328,0.005,-0.06
2021-08-01 00:34:44.332,0.0,-0.09
2021-08-01 00:34:44.336,-0.01,-0.12
2021-08-01 00:34:44.340,-0.005,-0.125
2021-08-01 00:34:44.344,-0.02,-0.135
2021-08-01 00:34:44.348,-0.02,-0.135
2021-08-01 00:34:44.352,-0.035,-0.135
2021-08-01 00:34:44.356,-0.035,-0.115
2021-08-01 00:34:44.360,-0.035,-0.115
2021-08-01 00:34:44.364,-0.03,-0.11
2021-08-01 00:34:44.368,-0.03,-0.12
2021-08-01 00:34:44.372,-0.03,-0.13
2021-08-01 00:34:44.376,-0.015,-0.14
2021-08-01 00:34:44.380,-0.025,-0.12
2021-08-01 00:34:44.384,-0.025,-0.14
2021-08-01 00:34:44.388,-0.015,-0.125
2021-08-01 00:34:44.392,-0.03,-0.125
2021-08-01 00:34:44.396,-0.015,-0.145
2021-08-01 00:34:44.400,-0.015,-0.145
2021-08-01 00:34:44.404,-0.015,-0.15
2021-08-01 00:34:44.408,-0.04,-0.17
2021-08-01 00:34:44.412,-0.035,-0.14
2021-08-01 00:34:44.416,-0.02,-0.14
2021-08-01 00:34:44.420,-0.04,-0.145
2021-08-01 00:34:44.424,-0.025,-0.14
2021-08-01 00:34:44.428,-0.045,-0.165
2021-08-01 00:34:44.432,-0.03,-0.14
2021-08-01 00:34:44.436,-0.03,-0.12
2021-08-01 00:34:44.440,-0.04,-0.145
2021-08-01 00:34:44.444,-0.025,-0.14
2021-08-01 00:34:44.448,-0.035,-0.16
2021-08-01 00:34:44.452,-0.025,-0.155
2021-08-01 00:34:44.456,-0.02,-0.16
2021-08-01 00:34:44.460,-0.025,-0.15
2021-08-01 00:34:44.464,-0.005,-0.15
2021-08-01 00:34:44.468,-0.03,-0.175
2021-08-01 00:34:44.472,-0.015,-0.2
2021-08-01 00:34:44.476,-0.02,-0.2
2021-08-01 00:34:44.480,-0.025,-0.21
2021-08-01 00:34:44.484,-0.045,-0.19
2021-08-01 00:34:44.488,-0.03,-0.19
2021-08-01 00:34:44.492,0.0,-0.18
2021-08-01 00:34:44.496,-0.005,-0.17
2021-08-01 00:34:44.500,-0.03,-0.165
2021-08-01 00:34:44.504,-0.035,-0.175
2021-08-01 00:34:44.508,-0.04,-0.19
2021-08-01 00:34:44.512,-0.045,-0.19
2021-08-01 00:34:44.516,-0.06,-0.185
2021-08-01 00:34:44.520,-0.04,-0.205
2021-08-01 00:34:44.524,-0.055,-0.195
2021-08-01 00:34:44.528,-0.065,-0.21
2021-08-01 00:34:44.532,-0.045,-0.225
2021-08-01 00:34:44.536,-0.04,-0.245
2021-08-01 00:34:44.540,-0.085,-0.215
2021-08-01 00:34:44.544,-0.075,-0.24
2021-08-01 00:34:44.548,-0.085,-0.24
2021-08-01 00:34:44.552,-0.075,-0.255
2021-08-01 00:34:44.556,-0.06,-0.26
2021-08-01 00:34:44.560,-0.08,-0.265
2021-08-01 00:34:44.564,-0.07,-0.255
2021-08-01 00:34:44.568,-0.07,-0.24
2021-08-01 00:34:44.572,-0.08,-0.245
2021-08-01 00:34:44.576,-0.105,-0.23
2021-08-01 00:34:44.580,-0.065,-0.24
2021-08-01 00:34:44.584,-0.085,-0.24
2021-08-01 00:34:44.588,-0.085,-0.245
2021-08-01 00:34:44.592,-0.085,-0.235
2021-08-01 00:34:44.596,-0.065,-0.25
2021-08-01 00:34:44.600,-0.08,-0.25
2021-08-01 00:34:44.604,-0.09,-0.25
2021-08-01 00:34:44.608,-0.085,-0.255
2021-08-01 00:34:44.612,-0.105,-0.26
2021-08-01 00:34:44.616,-0.08,-0.24
2021-08-01 00:34:44.620,-0.065,-0.265
2021-08-01 00:34:44.624,-0.07,-0.275
2021-08-01 00:34:44.628,-0.1,-0.255
2021-08-01 00:34:44.632,-0.085,-0.255
2021-08-01 00:34:44.636,-0.085,-0.255
2021-08-01 00:34:44.640,-0.075,-0.265
2021-08-01 00:34:44.644,-0.085,-0.27
2021-08-01 00:34:44.648,-0.08,-0.25
2021-08-01 00:34:44.652,-0.07,-0.27
2021-08-01 00:34:44.656,-0.085,-0.265
2021-08-01 00:34:44.660,-0.1,-0.26
2021-08-01 00:34:44.664,-0.09,-0.25
2021-08-01 00:34:44.668,-0.115,-0.25
2021-08-01 00:34:44.672,-0.09,-0.255
2021-08-01 00:34:44.676,-0.075,-0.23
2021-08-01 00:34:44.680,-0.08,-0.245
2021-08-01 00:34:44.684,-0.075,-0.245
2021-08-01 00:34:44.688,-0.075,-0.26
2021-08-01 00:34:44.692,-0.06,-0.285
2021-08-01 00:34:44.696,-0.065,-0.315
2021-08-01 00:34:44.700,-0.05,-0.335
2021-08-01 00:34:44.704,-0.075,-0.38
2021-08-01 00:34:44.708,-0.06,-0.45
2021-08-01 00:34:44.712,-0.05,-0.46
2021-08-01 00:34:44.716,-0.055,-0.285
2021-08-01 00:34:44.720,-0.035,0.055
2021-08-01 00:34:44.724,-0.005,0.53
2021-08-01 00:34:44.728,0.045,1.09
2021-08-01 00:34:44.732,0.145,1.65
2021-08-01 00:34:44.748,0.285,1.945
2021-08-01 00:34:44.752,0.225,1.26
2021-08-01 00:34:44.756,0.125,0.72
2021-08-01 00:34:44.760,-0.04,0.35
2021-08-01 00:34:44.764,-0.17,0.16
2021-08-01 00:34:44.768,-0.255,0.015
2021-08-01 00:34:44.772,-0.255,-0.065
2021-08-01 00:34:44.776,-0.185,-0.13
2021-08-01 00:34:44.780,-0.14,-0.195
2021-08-01 00:34:44.784,-0.11,-0.22
2021-08-01 00:34:44.788,-0.1,-0.27
2021-08-01 00:34:44.792,-0.1,-0.3
2021-08-01 00:34:44.796,-0.075,-0.335
2021-08-01 00:34:44.800,-0.09,-0.35
2021-08-01 00:34:44.804,-0.1,-0.38
2021-08-01 00:34:44.808,-0.12,-0.39
2021-08-01 00:34:44.812,-0.105,-0.41
2021-08-01 00:34:44.816,-0.1,-0.415
2021-08-01 00:34:44.820,-0.105,-0.42
2021-08-01 00:34:44.824,-0.12,-0.42
2021-08-01 00:34:44.828,-0.11,-0.42
2021-08-01 00:34:44.832,-0.115,-0.42
2021-08-01 00:34:44.836,-0.11,-0.435
2021-08-01 00:34:44.840,-0.105,-0.44
2021-08-01 00:34:44.844,-0.135,-0.44
2021-08-01 00:34:44.848,-0.095,-0.445
2021-08-01 00:34:44.852,-0.09,-0.43
2021-08-01 00:34:44.856,-0.09,-0.43
2021-08-01 00:34:44.860,-0.11,-0.455
2021-08-01 00:34:44.864,-0.09,-0.45
2021-08-01 00:34:44.868,-0.085,-0.46
2021-08-01 00:34:44.872,-0.085,-0.45
2021-08-01 00:34:44.876,-0.09,-0.45
2021-08-01 00:34:44.880,-0.09,-0.455
2021-08-01 00:34:44.884,-0.09,-0.455
2021-08-01 00:34:44.888,-0.085,-0.45
2021-08-01 00:34:44.892,-0.07,-0.44
2021-08-01 00:34:44.896,-0.09,-0.45
2021-08-01 00:34:44.900,-0.05,-0.47
2021-08-01 00:34:44.904,-0.06,-0.455
2021-08-01 00:34:44.908,-0.065,-0.45
2021-08-01 00:34:44.912,-0.065,-0.475
2021-08-01 00:34:44.916,-0.06,-0.49
2021-08-01 00:34:44.920,-0.03,-0.47
2021-08-01 00:34:44.924,-0.02,-0.49
2021-08-01 00:34:44.928,-0.02,-0.495
2021-08-01 00:34:44.932,-0.01,-0.45
2021-08-01 00:34:44.936,-0.015,-0.46
2021-08-01 00:34:44.940,-0.015,-0.45
2021-08-01 00:34:44.944,-0.02,-0.445
2021-08-01 00:34:44.948,-0.02,-0.46
2021-08-01 00:34:44.952,-0.02,-0.46
2021-08-01 00:34:44.956,-0.03,-0.45
2021-08-01 00:34:44.960,-0.015,-0.47
2021-08-01 00:34:44.964,-0.03,-0.465
2021-08-01 00:34:44.968,-0.02,-0.465
2021-08-01 00:34:44.972,-0.01,-0.5
2021-08-01 00:34:44.976,0.0,-0.485
2021-08-01 00:34:44.980,0.0,-0.485
2021-08-01 00:34:44.984,-0.015,-0.505
2021-08-01 00:34:44.988,0.005,-0.505
2021-08-01 00:34:44.992,0.0,-0.51
2021-08-01 00:34:44.996,0.005,-0.515
2021-08-01 00:34:45.000,0.015,-0.515
2021-08-01 00:34:45.004,0.04,-0.515
2021-08-01 00:34:45.008,0.025,-0.505
2021-08-01 00:34:45.012,0.06,-0.51
2021-08-01 00:34:45.016,0.035,-0.51
2021-08-01 00:34:45.020,0.05,-0.51
2021-08-01 00:34:45.024,0.06,-0.505
2021-08-01 00:34:45.028,0.05,-0.505
2021-08-01 00:34:45.032,0.065,-0.5
2021-08-01 00:34:45.036,0.055,-0.495
2021-08-01 00:34:45.040,0.055,-0.485
2021-08-01 00:34:45.044,0.05,-0.46
2021-08-01 00:34:45.048,0.035,-0.45
2021-08-01 00:34:45.052,0.035,-0.43
2021-08-01 00:34:45.056,0.02,-0.395
2021-08-01 00:34:45.060,0.03,-0.385
2021-08-01 00:34:45.064,0.025,-0.37
2021-08-01 00:34:45.068,0.025,-0.355
2021-08-01 00:34:45.072,0.015,-0.32
2021-08-01 00:34:45.076,0.02,-0.315
2021-08-01 00:34:45.080,0.01,-0.295
2021-08-01 00:34:45.084,-0.01,-0.255
2021-08-01 00:34:45.088,-0.005,-0.255
2021-08-01 00:34:45.092,0.01,-0.24
2021-08-01 00:34:45.096,0.0,-0.22
2021-08-01 00:34:45.100,-0.005,-0.22
2021-08-01 00:34:45.104,-0.01,-0.22
2021-08-01 00:34:45.108,-0.035,-0.21
2021-08-01 00:34:45.112,-0.025,-0.205
2021-08-01 00:34:45.116,-0.035,-0.205
2021-08-01 00:34:45.120,-0.02,-0.195
2021-08-01 00:34:45.124,-0.03,-0.225
2021-08-01 00:34:45.128,-0.02,-0.245
2021-08-01 00:34:45.132,-0.005,-0.23
2021-08-01 00:34:45.136,-0.015,-0.235
2021-08-01 00:34:45.140,-0.015,-0.22
2021-08-01 00:34:45.144,-0.03,-0.215
2021-08-01 00:34:45.148,-0.01,-0.2
2021-08-01 00:34:45.152,-0.005,-0.205
2021-08-01 00:34:45.156,-0.02,-0.205
2021-08-01 00:34:45.160,-0.015,-0.235
2021-08-01 00:34:45.164,0.0,-0.265
2021-08-01 00:34:45.168,-0.005,-0.24
2021-08-01 00:34:45.172,-0.03,-0.265
2021-08-01 00:34:45.176,-0.03,-0.255
2021-08-01 00:34:45.180,-0.025,-0.245
2021-08-01 00:34:45.184,-0.035,-0.27
2021-08-01 00:34:45.188,-0.05,-0.26
2021-08-01 00:34:45.192,-0.05,-0.275
2021-08-01 00:34:45.196,-0.05,-0.26
2021-08-01 00:34:45.200,-0.07,-0.295
2021-08-01 00:34:45.204,-0.06,-0.275
2021-08-01 00:34:45.208,-0.065,-0.285
2021-08-01 00:34:45.212,-0.08,-0.28
2021-08-01 00:34:45.216,-0.06,-0.26
2021-08-01 00:34:45.220,-0.07,-0.265
2021-08-01 00:34:45.224,-0.05,-0.27
2021-08-01 00:34:45.228,-0.06,-0.26
2021-08-01 00:34:45.232,-0.06,-0.26
2021-08-01 00:34:45.236,-0.055,-0.28
2021-08-01 00:34:45.240,-0.05,-0.29
2021-08-01 00:34:45.244,-0.055,-0.3
2021-08-01 00:34:45.248,-0.05,-0.295
2021-08-01 00:34:45.252,-0.065,-0.305
2021-08-01 00:34:45.256,-0.06,-0.29
2021-08-01 00:34:45.260,-0.065,-0.275
2021-08-01 00:34:45.264,-0.065,-0.28
2021-08-01 00:34:45.268,-0.06,-0.29
2021-08-01 00:34:45.272,-0.06,-0.29
2021-08-01 00:34:45.276,-0.06,-0.285
2021-08-01 00:34:45.280,-0.06,-0.295
2021-08-01 00:34:45.284,-0.08,-0.31
2021-08-01 00:34:45.288,-0.07,-0.31
2021-08-01 00:34:45.292,-0.06,-0.305
2021-08-01 00:34:45.296,-0.04,-0.3
2021-08-01 00:34:45.300,-0.07,-0.305
2021-08-01 00:34:45.304,-0.085,-0.335
2021-08-01 00:34:45.308,-0.08,-0.33
2021-08-01 00:34:45.312,-0.08,-0.315
2021-08-01 00:34:45.316,-0.065,-0.32
2021-08-01 00:34:45.320,-0.08,-0.34
2021-08-01 00:34:45.324,-0.095,-0.34
2021-08-01 00:34:45.328,-0.075,-0.33
2021-08-01 00:34:45.332,-0.09,-0.335
2021-08-01 00:34:45.336,-0.08,-0.335
2021-08-01 00:34:45.340,-0.08,-0.35
2021-08-01 00:34:45.344,-0.08,-0.36
2021-08-01 00:34:45.348,-0.115,-0.375
2021-08-01 00:34:45.352,-0.105,-0.38
2021-08-01 00:34:45.356,-0.075,-0.365
2021-08-01 00:34:45.360,-0.09,-0.33
2021-08-01 00:34:45.364,-0.08,-0.32
2021-08-01 00:34:45.368,-0.1,-0.315
2021-08-01 00:34:45.372,-0.09,-0.31
2021-08-01 00:34:45.376,-0.065,-0.305
2021-08-01 00:34:45.380,-0.06,-0.3
2021-08-01 00:34:45.384,-0.095,-0.315
2021-08-01 00:34:45.388,-0.075,-0.335
2021-08-01 00:34:45.392,-0.095,-0.33
2021-08-01 00:34:45.396,-0.09,-0.33
2021-08-01 00:34:45.400,-0.1,-0.345
2021-08-01 00:34:45.404,-0.1,-0.345
2021-08-01 00:34:45.408,-0.07,-0.32
2021-08-01 00:34:45.412,-0.095,-0.335
2021-08-01 00:34:45.416,-0.105,-0.33
2021-08-01 00:34:45.420,-0.08,-0.32
2021-08-01 00:34:45.424,-0.1,-0.32
2021-08-01 00:34:45.428,-0.08,-0.35
2021-08-01 00:34:45.432,-0.08,-0.385
2021-08-01 00:34:45.436,-0.075,-0.45
2021-08-01 00:34:45.440,-0.07,-0.41
2021-08-01 00:34:45.444,-0.065,-0.245
2021-08-01 00:34:45.448,-0.045,0.11
2021-08-01 00:34:45.452,-0.01,0.59
2021-08-01 00:34:45.456,0.07,1.125
2021-08-01 00:34:45.460,0.18,1.71
2021-08-01 00:34:45.476,0.325,1.9
2021-08-01 00:34:45.480,0.275,1.215
2021-08-01 00:34:45.484,0.18,0.675
2021-08-01 00:34:45.488,0.03,0.295
2021-08-01 00:34:45.492,-0.13,0.125
2021-08-01 00:34:45.496,-0.215,0.04
2021-08-01 00:34:45.500,-0.22,-0.01
2021-08-01 00:34:45.504,-0.175,-0.075
2021-08-01 00:34:45.508,-0.11,-0.12
2021-08-01 00:34:45.512,-0.065,-0.185
2021-08-01 00:34:45.516,-0.06,-0.215
2021-08-01 00:34:45.520,-0.065,-0.26
2021-08-01 00:34:45.524,-0.06,-0.275
2021-08-01 00:34:45.528,-0.065,-0.295
2021-08-01 00:34:45.532,-0.065,-0.3
2021-08-01 00:34:45.536,-0.055,-0.31
2021-08-01 00:34:45.540,-0.075,-0.31
2021-08-01 00:34:45.544,-0.075,-0.34
2021-08-01 00:34:45.548,-0.065,-0.35
2021-08-01 00:34:45.552,-0.065,-0.355
2021-08-01 00:34:45.556,-0.055,-0.36
2021-08-01 00:34:45.560,-0.065,-0.375
2021-08-01 00:34:45.564,-0.08,-0.37
2021-08-01 00:34:45.568,-0.075,-0.375
2021-08-01 00:34:45.572,-0.09,-0.405
2021-08-01 00:34:45.576,-0.065,-0.415
2021-08-01 00:34:45.580,-0.065,-0.425
2021-08-01 00:34:45.584,-0.065,-0.435
2021-08-01 00:34:45.588,-0.08,-0.42
2021-08-01 00:34:45.592,-0.075,-0.42
2021-08-01 00:34:45.596,-0.075,-0.415
2021-08-01 00:34:45.600,-0.08,-0.415
2021-08-01 00:34:45.604,-0.095,-0.39
2021-08-01 00:34:45.608,-0.06,-0.385
2021-08-01 00:34:45.612,-0.055,-0.4
2021-08-01 00:34:45.616,-0.055,-0.39
2021-08-01 00:34:45.620,-0.07,-0.38
2021-08-01 00:34:45.624,-0.05,-0.395
2021-08-01 00:34:45.628,-0.055,-0.39
2021-08-01 00:34:45.632,-0.075,-0.425
2021-08-01 00:34:45.636,-0.085,-0.405
2021-08-01 00:34:45.640,-0.08,-0.405
2021-08-01 00:34:45.644,-0.075,-0.4
2021-08-01 00:34:45.648,-0.05,-0.405
2021-08-01 00:34:45.652,-0.05,-0.39
2021-08-01 00:34:45.656,-0.04,-0.38
2021-08-01 00:34:45.660,-0.035,-0.39
2021-08-01 00:34:45.664,-0.03,-0.38
2021-08-01 00:34:45.668,0.0,-0.365
2021-08-01 00:34:45.672,-0.02,-0.4
2021-08-01 00:34:45.676,-0.035,-0.395
2021-08-01 00:34:45.680,-0.02,-0.39
2021-08-01 00:34:45.684,-0.025,-0.415
2021-08-01 00:34:45.688,-0.025,-0.4
2021-08-01 00:34:45.692,-0.02,-0.4
2021-08-01 00:34:45.696,0.02,-0.405
2021-08-01 00:34:45.700,0.01,-0.4
2021-08-01 00:34:45.704,0.025,-0.41
2021-08-01 00:34:45.708,0.02,-0.425
2021-08-01 00:34:45.712,0.005,-0.42
2021-08-01 00:34:45.716,0.025,-0.445
2021-08-01 00:34:45.720,0.035,-0.425
2021-08-01 00:34:45.724,0.03,-0.445
2021-08-01 00:34:45.728,0.015,-0.455
2021-08-01 00:34:45.732,0.01,-0.455
2021-08-01 00:34:45.736,0.015,-0.46
2021-08-01 00:34:45.740,0.01,-0.445
2021-08-01 00:34:45.744,0.01,-0.455
2021-08-01 00:34:45.748,0.035,-0.44
2021-08-01 00:34:45.752,0.015,-0.45
2021-08-01 00:34:45.756,0.02,-0.455
2021-08-01 00:34:45.760,0.01,-0.435
2021-08-01 00:34:45.764,0.025,-0.4
2021-08-01 00:34:45.768,0.0,-0.39
2021-08-01 00:34:45.772,0.01,-0.375
2021-08-01 00:34:45.776,0.02,-0.34
2021-08-01 00:34:45.780,0.025,-0.315
2021-08-01 00:34:45.784,0.005,-0.295
2021-08-01 00:34:45.788,0.02,-0.275
2021-08-01 00:34:45.792,0.015,-0.29
2021-08-01 00:34:45.796,-0.005,-0.265
2021-08-01 00:34:45.800,0.0,-0.26
2021-08-01 00:34:45.804,-0.02,-0.265
2021-08-01 00:34:45.808,-0.025,-0.255
2021-08-01 00:34:45.812,-0.025,-0.235
2021-08-01 00:34:45.816,-0.035,-0.23
2021-08-01 00:34:45.820,-0.04,-0.2
2021-08-01 00:34:45.824,-0.045,-0.2
2021-08-01 00:34:45.828,-0.025,-0.205
2021-08-01 00:34:45.832,-0.025,-0.195
2021-08-01 00:34:45.836,-0.02,-0.15
2021-08-01 00:34:45.840,-0.015,-0.16
2021-08-01 00:34:45.844,-0.035,-0.185
2021-08-01 00:34:45.848,-0.04,-0.2
2021-08-01 00:34:45.852,-0.055,-0.195
2021-08-01 00:34:45.856,-0.055,-0.21
2021-08-01 00:34:45.860,-0.055,-0.215
2021-08-01 00:34:45.864,-0.06,-0.225
2021-08-01 00:34:45.868,-0.06,-0.235
2021-08-01 00:34:45.872,-0.07,-0.235
2021-08-01 00:34:45.876,-0.085,-0.255
2021-08-01 00:34:45.880,-0.045,-0.265
2021-08-01 00:34:45.884,-0.075,-0.245
2021-08-01 00:34:45.888,-0.065,-0.255
2021-08-01 00:34:45.892,-0.08,-0.25
2021-08-01 00:34:45.896,-0.08,-0.26
2021-08-01 00:34:45.900,-0.08,-0.265
2021-08-01 00:34:45.904,-0.08,-0.265
2021-08-01 00:34:45.908,-0.085,-0.26
2021-08-01 00:34:45.912,-0.09,-0.275
2021-08-01 00:34:45.916,-0.09,-0.26
2021-08-01 00:34:45.920,-0.09,-0.265
2021-08-01 00:34:45.924,-0.08,-0.27
2021-08-01 00:34:45.928,-0.065,-0.27
2021-08-01 00:34:45.932,-0.075,-0.275
2021-08-01 00:34:45.936,-0.085,-0.265
2021-08-01 00:34:45.940,-0.085,-0.26
2021-08-01 00:34:45.944,-0.095,-0.26
2021-08-01 00:34:45.948,-0.08,-0.265
2021-08-01 00:34:45.952,-0.1,-0.28
2021-08-01 00:34:45.956,-0.1,-0.285
2021-08-01 00:34:45.960,-0.105,-0.26
2021-08-01 00:34:45.964,-0.095,-0.265
2021-08-01 00:34:45.968,-0.095,-0.285
2021-08-01 00:34:45.972,-0.095,-0.27
2021-08-01 00:34:45.976,-0.1,-0.275
2021-08-01 00:34:45.980,-0.085,-0.275
2021-08-01 00:34:45.984,-0.1,-0.28
2021-08-01 00:34:45.988,-0.095,-0.29
2021-08-01 00:34:45.992,-0.1,-0.27
2021-08-01 00:34:45.996,-0.095,-0.28
2021-08-01 00:34:46.000,-0.09,-0.285
2021-08-01 00:34:46.004,-0.095,-0.265
2021-08-01 00:34:46.008,-0.11,-0.255
2021-08-01 00:34:46.012,-0.095,-0.245
2021-08-01 00:34:46.016,-0.105,-0.27
2021-08-01 00:34:46.020,-0.095,-0.24
2021-08-01 00:34:46.024,-0.09,-0.245
2021-08-01 00:34:46.028,-0.105,-0.235
2021-08-01 00:34:46.032,-0.095,-0.235
2021-08-01 00:34:46.036,-0.08,-0.245
2021-08-01 00:34:46.040,-0.08,-0.26
2021-08-01 00:34:46.044,-0.095,-0.265
2021-08-01 00:34:46.048,-0.1,-0.26
2021-08-01 00:34:46.052,-0.11,-0.27
2021-08-01 00:34:46.056,-0.105,-0.245
2021-08-01 00:34:46.060,-0.095,-0.225
2021-08-01 00:34:46.064,-0.08,-0.2
2021-08-01 00:34:46.068,-0.07,-0.175
2021-08-01 00:34:46.072,-0.045,-0.17
2021-08-01 00:34:46.076,-0.07,-0.175
2021-08-01 00:34:46.080,-0.075,-0.175
2021-08-01 00:34:46.084,-0.07,-0.17
2021-08-01 00:34:46.088,-0.08,-0.19
2021-08-01 00:34:46.092,-0.065,-0.195
2021-08-01 00:34:46.096,-0.085,-0.195
2021-08-01 00:34:46.100,-0.075,-0.2
2021-08-01 00:34:46.104,-0.07,-0.22
2021-08-01 00:34:46.108,-0.08,-0.22
2021-08-01 00:34:46.112,-0.06,-0.225
2021-08-01 00:34:46.116,-0.07,-0.25
2021-08-01 00:34:46.120,-0.08,-0.24
2021-08-01 00:34:46.124,-0.075,-0.25
2021-08-01 00:34:46.128,-0.095,-0.255
2021-08-01 00:34:46.132,-0.09,-0.25
2021-08-01 00:34:46.136,-0.095,-0.255
2021-08-01 00:34:46.140,-0.09,-0.265
2021-08-01 00:34:46.144,-0.08,-0.265
2021-08-01 00:34:46.148,-0.11,-0.255
2021-08-01 00:34:46.152,-0.1,-0.26
2021-08-01 00:34:46.156,-0.11,-0.275
2021-08-01 00:34:46.160,-0.1,-0.265
2021-08-01 00:34:46.164,-0.085,-0.265
2021-08-01 00:34:46.168,-0.1,-0.25
2021-08-01 00:34:46.172,-0.12,-0.235
2021-08-01 00:34:46.176,-0.105,-0.21
2021-08-01 00:34:46.180,-0.09,-0.22
2021-08-01 00:34:46.184,-0.075,-0.23
2021-08-01 00:34:46.188,-0.065,-0.2
2021-08-01 00:34:46.192,-0.075,-0.215
2021-08-01 00:34:46.196,-0.065,-0.215
2021-08-01 00:34:46.200,-0.08,-0.215
2021-08-01 00:34:46.204,-0.075,-0.21
2021-08-01 00:34:46.208,-0.075,-0.21
2021-08-01 00:34:46.212,-0.075,-0.2
2021-08-01 00:34:46.216,-0.075,-0.19
2021-08-01 00:34:46.220,-0.085,-0.19
2021-08-01 00:34:46.224,-0.085,-0.19
2021-08-01 00:34:46.228,-0.1,-0.2
2021-08-01 00:34:46.232,-0.055,-0.21
2021-08-01 00:34:46.236,-0.085,-0.2
2021-08-01 00:34:46.240,-0.055,-0.21
2021-08-01 00:34:46.244,-0.06,-0.185
2021-08-01 00:34:46.248,-0.06,-0.185
2021-08-01 00:34:46.252,-0.055,-0.19
2021-08-01 00:34:46.256,-0.07,-0.17
2021-08-01 00:34:46.260,-0.06,-0.175
2021-08-01 00:34:46.264,-0.055,-0.185
2021-08-01 00:34:46.268,-0.045,-0.155
2021-08-01 00:34:46.272,-0.04,-0.15
2021-08-01 00:34:46.276,-0.02,-0.18
2021-08-01 00:34:46.280,-0.055,-0.175
2021-08-01 00:34:46.284,-0.045,-0.185
2021-08-01 00:34:46.288,-0.05,-0.185
2021-08-01 00:34:46.292,-0.045,-0.185
2021-08-01 00:34:46.296,-0.045,-0.15
2021-08-01 00:34:46.300,-0.035,-0.14
2021-08-01 00:34:46.304,-0.025,-0.125
2021-08-01 00:34:46.308,-0.005,-0.11
2021-08-01 00:34:46.312,-0.02,-0.095
2021-08-01 00:34:46.316,0.0,-0.12
2021-08-01 00:34:46.320,-0.015,-0.115
2021-08-01 00:34:46.324,-0.02,-0.125
2021-08-01 00:34:46.328,-0.03,-0.155
2021-08-01 00:34:46.332,-0.03,-0.15
2021-08-01 00:34:46.336,-0.025,-0.15
2021-08-01 00:34:46.340,-0.05,-0.165
2021-08-01 00:34:46.344,-0.065,-0.17
2021-08-01 00:34:46.348,-0.065,-0.16
2021-08-01 00:34:46.352,-0.06,-0.175
2021-08-01 00:34:46.356,-0.065,-0.15
2021-08-01 00:34:46.360,-0.075,-0.175
2021-08-01 00:34:46.364,-0.05,-0.165
2021-08-01 00:34:46.368,-0.045,-0.175
2021-08-01 00:34:46.372,-0.03,-0.185
2021-08-01 00:34:46.376,-0.06,-0.195
2021-08-01 00:34:46.380,-0.06,-0.25
2021-08-01 00:34:46.384,-0.055,-0.36
2021-08-01 00:34:46.388,-0.06,-0.385
2021-08-01 00:34:46.392,-0.06,-0.295
2021-08-01 00:34:46.396,-0.05,-0.005
2021-08-01 00:34:46.400,-0.015,0.445
2021-08-01 00:34:46.404,0.05,1.005
2021-08-01 00:34:46.408,0.14,1.6
2021-08-01 00:34:46.432,0.29,1.425
2021-08-01 00:34:46.436,0.15,0.95
2021-08-01 00:34:46.440,-0.03,0.58
2021-08-01 00:34:46.444,-0.15,0.405
2021-08-01 00:34:46.448,-0.2,0.29
2021-08-01 00:34:46.452,-0.185,0.21
2021-08-01 00:34:46.456,-0.13,0.145
2021-08-01 00:34:46.460,-0.09,0.06
2021-08-01 00:34:46.464,-0.03,0.0
2021-08-01 00:34:46.468,-0.015,-0.035
2021-08-01 00:34:46.472,-0.045,-0.08
2021-08-01 00:34:46.476,-0.025,-0.11
2021-08-01 00:34:46.480,-0.02,-0.125
2021-08-01 00:34:46.484,-0.05,-0.15
2021-08-01 00:34:46.488,-0.02,-0.15
2021-08-01 00:34:46.492,-0.03,-0.175
2021-08-01 00:34:46.496,-0.025,-0.185
2021-08-01 00:34:46.500,-0.04,-0.19
2021-08-01 00:34:46.504,-0.015,-0.17
2021-08-01 00:34:46.508,-0.025,-0.18
2021-08-01 00:34:46.512,-0.01,-0.185
2021-08-01 00:34:46.516,0.0,-0.19
2021-08-01 00:34:46.520,-0.01,-0.18
2021-08-01 00:34:46.524,0.005,-0.185
2021-08-01 00:34:46.528,0.01,-0.18
2021-08-01 00:34:46.532,0.04,-0.185
2021-08-01 00:34:46.536,0.02,-0.16
2021-08-01 00:34:46.540,0.035,-0.14
2021-08-01 00:34:46.544,0.035,-0.15
2021-08-01 00:34:46.548,0.025,-0.135
2021-08-01 00:34:46.552,0.035,-0.16
2021-08-01 00:34:46.556,0.01,-0.14
2021-08-01 00:34:46.560,0.025,-0.14
2021-08-01 00:34:46.564,0.005,-0.15
2021-08-01 00:34:46.568,0.04,-0.175
2021-08-01 00:34:46.572,0.05,-0.18
2021-08-01 00:34:46.576,0.025,-0.165
2021-08-01 00:34:46.580,0.015,-0.185
2021-08-01 00:34:46.584,0.01,-0.205
2021-08-01 00:34:46.588,0.03,-0.21
2021-08-01 00:34:46.592,0.02,-0.21
2021-08-01 00:34:46.596,0.0,-0.235
2021-08-01 00:34:46.600,0.0,-0.24
2021-08-01 00:34:46.604,0.01,-0.245
2021-08-01 00:34:46.608,0.005,-0.22
2021-08-01 00:34:46.612,0.01,-0.24
2021-08-01 00:34:46.616,0.025,-0.2
2021-08-01 00:34:46.620,0.045,-0.22
2021-08-01 00:34:46.624,0.04,-0.22
2021-08-01 00:34:46.628,0.035,-0.195
2021-08-01 00:34:46.632,0.065,-0.205
2021-08-01 00:34:46.636,0.08,-0.2
2021-08-01 00:34:46.640,0.07,-0.21
2021-08-01 00:34:46.644,0.085,-0.215
2021-08-01 00:34:46.648,0.085,-0.225
2021-08-01 00:34:46.652,0.1,-0.24
2021-08-01 00:34:46.656,0.09,-0.23
2021-08-01 00:34:46.660,0.105,-0.245
2021-08-01 00:34:46.664,0.125,-0.25
2021-08-01 00:34:46.668,0.105,-0.255
2021-08-01 00:34:46.672,0.115,-0.255
2021-08-01 00:34:46.676,0.11,-0.27
2021-08-01 00:34:46.680,0.115,-0.285
2021-08-01 00:34:46.684,0.13,-0.285
2021-08-01 00:34:46.688,0.125,-0.3
2021-08-01 00:34:46.692,0.12,-0.275
2021-08-01 00:34:46.696,0.13,-0.305
2021-08-01 00:34:46.700,0.13,-0.285
2021-08-01 00:34:46.704,0.135,-0.305
2021-08-01 00:34:46.708,0.12,-0.28
2021-08-01 00:34:46.712,0.125,-0.295
2021-08-01 00:34:46.716,0.115,-0.29
2021-08-01 00:34:46.720,0.12,-0.275
2021-08-01 00:34:46.724,0.11,-0.24
2021-08-01 00:34:46.728,0.11,-0.23
2021-08-01 00:34:46.732,0.11,-0.215
2021-08-01 00:34:46.736,0.1,-0.205
2021-08-01 00:34:46.740,0.1,-0.18
2021-08-01 00:34:46.744,0.125,-0.19
2021-08-01 00:34:46.748,0.12,-0.18
2021-08-01 00:34:46.752,0.11,-0.14
2021-08-01 00:34:46.756,0.095,-0.11
2021-08-01 00:34:46.760,0.085,-0.065
2021-08-01 00:34:46.764,0.095,-0.04
2021-08-01 00:34:46.768,0.1,0.0
2021-08-01 00:34:46.772,0.07,0.015
2021-08-01 00:34:46.776,0.07,0.025
2021-08-01 00:34:46.780,0.06,0.035
2021-08-01 00:34:46.784,0.05,0.06
2021-08-01 00:34:46.788,0.045,0.07
2021-08-01 00:34:46.792,0.045,0.05
2021-08-01 00:34:46.796,0.015,0.03
2021-08-01 00:34:46.800,0.015,0.02
2021-08-01 00:34:46.804,0.025,0.01
2021-08-01 00:34:46.808,0.0,0.0
2021-08-01 00:34:46.812,0.0,-0.005
2021-08-01 00:34:46.816,-0.005,0.0
2021-08-01 00:34:46.820,-0.005,-0.02
2021-08-01 00:34:46.824,0.0,-0.04
2021-08-01 00:34:46.828,-0.005,-0.045
2021-08-01 00:34:46.832,-0.01,-0.055
2021-08-01 00:34:46.836,-0.025,-0.045
2021-08-01 00:34:46.840,-0.015,-0.03
2021-08-01 00:34:46.844,-0.005,-0.03
2021-08-01 00:34:46.848,0.0,-0.035
2021-08-01 00:34:46.852,0.0,-0.01
2021-08-01 00:34:46.856,0.005,-0.01
2021-08-01 00:34:46.860,0.0,-0.015
2021-08-01 00:34:46.864,0.0,-0.025
2021-08-01 00:34:46.868,0.01,-0.025
2021-08-01 00:34:46.872,0.0,-0.015
2021-08-01 00:34:46.876,0.015,-0.02
2021-08-01 00:34:46.880,0.0,-0.015
2021-08-01 00:34:46.884,0.005,-0.025
2021-08-01 00:34:46.888,0.0,-0.02
2021-08-01 00:34:46.892,0.0,-0.015
2021-08-01 00:34:46.896,0.015,-0.025
2021-08-01 00:34:46.900,0.005,-0.02
2021-08-01 00:34:46.904,0.0,-0.01
2021-08-01 00:34:46.908,0.005,-0.04
2021-08-01 00:34:46.912,0.01,-0.02
2021-08-01 00:34:46.916,0.0,-0.005
2021-08-01 00:34:46.920,0.015,-0.005
2021-08-01 00:34:46.924,0.0,-0.015
2021-08-01 00:34:46.928,0.0,-0.015
2021-08-01 00:34:46.932,0.01,-0.02
2021-08-01 00:34:46.936,0.01,-0.02
2021-08-01 00:34:46.940,0.0,-0.005
2021-08-01 00:34:46.944,0.01,-0.01
2021-08-01 00:34:46.948,0.015,-0.01
2021-08-01 00:34:46.952,0.005,-0.01
2021-08-01 00:34:46.956,0.01,-0.01
2021-08-01 00:34:46.960,0.02,-0.015
2021-08-01 00:34:46.964,0.0,-0.02
2021-08-01 00:34:46.968,0.015,-0.01
2021-08-01 00:34:46.972,0.0,-0.025
2021-08-01 00:34:46.976,0.005,-0.02
2021-08-01 00:34:46.980,0.0,0.02
2021-08-01 00:34:46.984,0.02,0.01
2021-08-01 00:34:46.988,0.03,0.015
2021-08-01 00:34:46.992,0.025,0.025
2021-08-01 00:34:46.996,0.025,0.03
2021-08-01 00:34:47.000,0.03,0.005
2021-08-01 00:34:47.004,0.03,0.02
2021-08-01 00:34:47.008,0.03,0.0
2021-08-01 00:34:47.012,0.04,-0.005
2021-08-01 00:34:47.016,0.01,-0.04
2021-08-01 00:34:47.020,0.01,-0.035
2021-08-01 00:34:47.024,0.01,-0.035
2021-08-01 00:34:47.028,0.005,-0.05
2021-08-01 00:34:47.032,-0.005,-0.05
2021-08-01 00:34:47.036,0.0,-0.06
2021-08-01 00:34:47.040,-0.02,-0.065
2021-08-01 00:34:47.044,0.0,-0.05
2021-08-01 00:34:47.048,-0.04,-0.055
2021-08-01 00:34:47.052,-0.025,-0.075
2021-08-01 00:34:47.056,-0.015,-0.08
2021-08-01 00:34:47.060,-0.04,-0.075
2021-08-01 00:34:47.064,-0.02,-0.1
2021-08-01 00:34:47.068,-0.02,-0.105
2021-08-01 00:34:47.072,-0.02,-0.18
2021-08-01 00:34:47.076,-0.035,-0.27
2021-08-01 00:34:47.080,-0.02,-0.25
2021-08-01 00:34:47.084,-0.03,-0.04
2021-08-01 00:34:47.088,-0.005,0.345
2021-08-01 00:34:47.092,0.065,0.855
2021-08-01 00:34:47.096,0.145,1.505
2021-08-01 00:34:47.120,0.42,1.53
2021-08-01 00:34:47.124,0.275,1.025
2021-08-01 00:34:47.128,0.085,0.675
2021-08-01 00:34:47.132,-0.11,0.495
2021-08-01 00:34:47.136,-0.16,0.35
2021-08-01 00:34:47.140,-0.14,0.265
2021-08-01 00:34:47.144,-0.09,0.175
2021-08-01 00:34:47.148,-0.025,0.12
2021-08-01 00:34:47.152,0.01,0.08
2021-08-01 00:34:47.156,0.025,0.025
2021-08-01 00:34:47.160,0.02,-0.01
2021-08-01 00:34:47.164,0.035,-0.03
2021-08-01 00:34:47.168,0.03,-0.05
2021-08-01 00:34:47.172,0.02,-0.04
2021-08-01 00:34:47.176,0.01,-0.06
2021-08-01 00:34:47.180,0.005,-0.06
2021-08-01 00:34:47.184,0.03,-0.075
2021-08-01 00:34:47.188,0.015,-0.1
2021-08-01 00:34:47.192,0.02,-0.115
2021-08-01 00:34:47.196,0.04,-0.1
2021-08-01 00:34:47.200,0.015,-0.1
2021-08-01 00:34:47.204,0.025,-0.09
2021-08-01 00:34:47.208,0.03,-0.075
2021-08-01 00:34:47.212,0.03,-0.08
2021-08-01 00:34:47.216,0.045,-0.075
2021-08-01 00:34:47.220,0.04,-0.065
2021-08-01 00:34:47.224,0.045,-0.04
2021-08-01 00:34:47.228,0.035,-0.06
2021-08-01 00:34:47.232,0.05,-0.075
2021-08-01 00:34:47.236,0.05,-0.08
2021-08-01 00:34:47.240,0.05,-0.1
2021-08-01 00:34:47.244,0.03,-0.09
2021-08-01 00:34:47.248,0.02,-0.095
2021-08-01 00:34:47.252,0.03,-0.1
2021-08-01 00:34:47.256,0.015,-0.1
2021-08-01 00:34:47.260,0.01,-0.1
2021-08-01 00:34:47.264,0.02,-0.12
2021-08-01 00:34:47.268,0.035,-0.13
2021-08-01 00:34:47.272,0.025,-0.13
2021-08-01 00:34:47.276,0.025,-0.15
2021-08-01 00:34:47.280,0.03,-0.145
2021-08-01 00:34:47.284,0.045,-0.16
2021-08-01 00:34:47.288,0.035,-0.15
2021-08-01 00:34:47.292,0.05,-0.14
2021-08-01 00:34:47.296,0.04,-0.13
2021-08-01 00:34:47.300,0.04,-0.11
2021-08-01 00:34:47.304,0.04,-0.12
2021-08-01 00:34:47.308,0.065,-0.1
2021-08-01 00:34:47.312,0.085,-0.07
2021-08-01 00:34:47.316,0.09,-0.1
2021-08-01 00:34:47.320,0.095,-0.09
2021-08-01 00:34:47.324,0.1,-0.095
2021-08-01 00:34:47.328,0.12,-0.1
2021-08-01 00:34:47.332,0.12,-0.095
2021-08-01 00:34:47.336,0.12,-0.1
2021-08-01 00:34:47.340,0.115,-0.105
2021-08-01 00:34:47.344,0.15,-0.09
2021-08-01 00:34:47.348,0.135,-0.105
2021-08-01 00:34:47.352,0.145,-0.09
2021-08-01 00:34:47.356,0.165,-0.1
2021-08-01 00:34:47.360,0.14,-0.1
2021-08-01 00:34:47.364,0.15,-0.095
2021-08-01 00:34:47.368,0.16,-0.095
2021-08-01 00:34:47.372,0.175,-0.11
2021-08-01 00:34:47.376,0.185,-0.12
2021-08-01 00:34:47.380,0.18,-0.1
2021-08-01 00:34:47.384,0.175,-0.085
2021-08-01 00:34:47.388,0.195,-0.085
2021-08-01 00:34:47.392,0.195,-0.06
2021-08-01 00:34:47.396,0.185,-0.04
2021-08-01 00:34:47.400,0.165,-0.03
2021-08-01 00:34:47.404,0.18,-0.025
2021-08-01 00:34:47.408,0.18,0.005
2021-08-01 00:34:47.412,0.15,0.025
2021-08-01 00:34:47.416,0.17,0.05
2021-08-01 00:34:47.420,0.16,0.065
2021-08-01 00:34:47.424,0.175,0.105
2021-08-01 00:34:47.428,0.17,0.135
2021-08-01 00:34:47.432,0.185,0.155
2021-08-01 00:34:47.436,0.175,0.175
2021-08-01 00:34:47.440,0.18,0.185
2021-08-01 00:34:47.444,0.165,0.165
2021-08-01 00:34:47.448,0.145,0.18
2021-08-01 00:34:47.452,0.125,0.165
2021-08-01 00:34:47.456,0.12,0.155
2021-08-01 00:34:47.460,0.125,0.145
2021-08-01 00:34:47.464,0.075,0.12
2021-08-01 00:34:47.468,0.09,0.11
2021-08-01 00:34:47.472,0.085,0.08
2021-08-01 00:34:47.476,0.085,0.065
2021-08-01 00:34:47.480,0.075,0.05
2021-08-01 00:34:47.484,0.055,0.025
2021-08-01 00:34:47.488,0.04,0.01
2021-08-01 00:34:47.492,0.04,0.025
2021-08-01 00:34:47.496,0.025,0.0
2021-08-01 00:34:47.500,0.04,-0.01
2021-08-01 00:34:47.504,0.035,-0.02
2021-08-01 00:34:47.508,0.045,-0.03
2021-08-01 00:34:47.512,0.03,-0.045
2021-08-01 00:34:47.516,0.015,-0.07
2021-08-01 00:34:47.520,0.02,-0.08
2021-08-01 00:34:47.524,0.015,-0.05
2021-08-01 00:34:47.528,0.03,-0.07
2021-08-01 00:34:47.532,0.03,-0.045
2021-08-01 00:34:47.536,0.005,-0.04
2021-08-01 00:34:47.540,0.03,-0.04
2021-08-01 00:34:47.544,0.035,-0.05
2021-08-01 00:34:47.548,0.015,-0.065
2021-08-01 00:34:47.552,0.02,-0.065
2021-08-01 00:34:47.556,0.025,-0.035
2021-08-01 00:34:47.560,0.015,-0.055
2021-08-01 00:34:47.564,0.02,-0.05
2021-08-01 00:34:47.568,0.02,-0.07
2021-08-01 00:34:47.572,0.035,-0.055
2021-08-01 00:34:47.576,0.025,-0.065
2021-08-01 00:34:47.580,0.03,-0.07
2021-08-01 00:34:47.584,0.025,-0.065
2021-08-01 00:34:47.588,0.03,-0.07
2021-08-01 00:34:47.592,0.035,-0.07
2021-08-01 00:34:47.596,0.025,-0.08
2021-08-01 00:34:47.600,0.01,-0.08
2021-08-01 00:34:47.604,0.0,-0.07
2021-08-01 00:34:47.608,0.03,-0.085
2021-08-01 00:34:47.612,0.04,-0.08
2021-08-01 00:34:47.616,0.01,-0.11
2021-08-01 00:34:47.620,0.02,-0.1
2021-08-01 00:34:47.624,0.005,-0.085
2021-08-01 00:34:47.628,0.0,-0.09
2021-08-01 00:34:47.632,0.0,-0.12
2021-08-01 00:34:47.636,0.005,-0.13
2021-08-01 00:34:47.640,0.01,-0.125
2021-08-01 00:34:47.644,-0.005,-0.115
2021-08-01 00:34:47.648,0.005,-0.085
2021-08-01 00:34:47.652,-0.01,-0.06
2021-08-01 00:34:47.656,0.0,-0.01
2021-08-01 00:34:47.660,0.025,-0.025
2021-08-01 00:34:47.664,0.02,-0.005
2021-08-01 00:34:47.668,0.03,-0.025
2021-08-01 00:34:47.672,0.025,-0.04
2021-08-01 00:34:47.676,0.02,-0.055
2021-08-01 00:34:47.680,0.025,-0.04
2021-08-01 00:34:47.684,0.025,-0.07
2021-08-01 00:34:47.688,0.02,-0.095
2021-08-01 00:34:47.692,0.015,-0.105
2021-08-01 00:34:47.696,0.015,-0.1
2021-08-01 00:34:47.700,0.015,-0.1
2021-08-01 00:34:47.704,0.0,-0.11
2021-08-01 00:34:47.708,-0.005,-0.115
2021-08-01 00:34:47.712,0.01,-0.125
2021-08-01 00:34:47.716,-0.01,-0.115
2021-08-01 00:34:47.720,-0.005,-0.14
2021-08-01 00:34:47.724,-0.03,-0.14
2021-08-01 00:34:47.728,0.0,-0.185
2021-08-01 00:34:47.732,0.0,-0.24
2021-08-01 00:34:47.736,-0.005,-0.33
2021-08-01 00:34:47.740,0.01,-0.32
2021-08-01 00:34:47.744,-0.01,-0.195
2021-08-01 00:34:47.748,0.025,0.145
2021-08-01 00:34:47.752,0.04,0.63
2021-08-01 00:34:47.756,0.12,1.19
2021-08-01 00:34:47.760,0.23,1.82
2021-08-01 00:34:47.780,0.42,1.49
2021-08-01 00:34:47.784,0.295,0.95
2021-08-01 00:34:47.788,0.11,0.565
2021-08-01 00:34:47.792,-0.05,0.365
2021-08-01 00:34:47.796,-0.165,0.2
2021-08-01 00:34:47.800,-0.185,0.12
2021-08-01 00:34:47.804,-0.105,0.035
2021-08-01 00:34:47.808,-0.045,-0.025
2021-08-01 00:34:47.812,-0.005,-0.095
2021-08-01 00:34:47.816,0.01,-0.145
2021-08-01 00:34:47.820,0.01,-0.19
2021-08-01 00:34:47.824,0.005,-0.215
2021-08-01 00:34:47.828,-0.02,-0.22
2021-08-01 00:34:47.832,0.0,-0.265
2021-08-01 00:34:47.836,0.0,-0.265
2021-08-01 00:34:47.840,0.0,-0.25
2021-08-01 00:34:47.844,0.0,-0.28
2021-08-01 00:34:47.848,-0.015,-0.29
2021-08-01 00:34:47.852,-0.015,-0.285
2021-08-01 00:34:47.856,-0.01,-0.29
2021-08-01 00:34:47.860,0.0,-0.285
2021-08-01 00:34:47.864,-0.02,-0.3
2021-08-01 00:34:47.868,-0.005,-0.32
2021-08-01 00:34:47.872,-0.005,-0.31
2021-08-01 00:34:47.876,0.0,-0.325
2021-08-01 00:34:47.880,-0.01,-0.33
2021-08-01 00:34:47.884,0.0,-0.315
2021-08-01 00:34:47.888,-0.005,-0.315
2021-08-01 00:34:47.892,0.01,-0.315
2021-08-01 00:34:47.896,0.03,-0.29
2021-08-01 00:34:47.900,0.035,-0.28
2021-08-01 00:34:47.904,0.065,-0.28
2021-08-01 00:34:47.908,0.03,-0.265
2021-08-01 00:34:47.912,0.04,-0.27
2021-08-01 00:34:47.916,0.02,-0.27
2021-08-01 00:34:47.920,0.01,-0.285
2021-08-01 00:34:47.924,0.01,-0.31
2021-08-01 00:34:47.928,0.015,-0.315
2021-08-01 00:34:47.932,0.02,-0.335
2021-08-01 00:34:47.936,0.01,-0.34
2021-08-01 00:34:47.940,0.005,-0.35
2021-08-01 00:34:47.944,0.01,-0.35
2021-08-01 00:34:47.948,0.0,-0.36
2021-08-01 00:34:47.952,0.005,-0.345
2021-08-01 00:34:47.956,0.01,-0.37
2021-08-01 00:34:47.960,0.005,-0.37
2021-08-01 00:34:47.964,0.02,-0.38
2021-08-01 00:34:47.968,0.0,-0.375
2021-08-01 00:34:47.972,0.025,-0.385
2021-08-01 00:34:47.976,0.015,-0.395
2021-08-01 00:34:47.980,0.02,-0.41
2021-08-01 00:34:47.984,0.03,-0.415
2021-08-01 00:34:47.988,0.025,-0.425
2021-08-01 00:34:47.992,0.045,-0.435
2021-08-01 00:34:47.996,0.035,-0.425
2021-08-01 00:34:48.000,0.055,-0.425
2021-08-01 00:34:48.004,0.04,-0.42
2021-08-01 00:34:48.008,0.065,-0.425
2021-08-01 00:34:48.012,0.055,-0.42
2021-08-01 00:34:48.016,0.07,-0.4
2021-08-01 00:34:48.020,0.085,-0.42
2021-08-01 00:34:48.024,0.075,-0.42
2021-08-01 00:34:48.028,0.095,-0.42
2021-08-01 00:34:48.032,0.095,-0.425
2021-08-01 00:34:48.036,0.095,-0.44
2021-08-01 00:34:48.040,0.11,-0.43
2021-08-01 00:34:48.044,0.105,-0.44
2021-08-01 00:34:48.048,0.105,-0.415
2021-08-01 00:34:48.052,0.12,-0.425
2021-08-01 00:34:48.056,0.105,-0.405
2021-08-01 00:34:48.060,0.105,-0.4
2021-08-01 00:34:48.064,0.125,-0.4
2021-08-01 00:34:48.068,0.115,-0.365
2021-08-01 00:34:48.072,0.11,-0.365
2021-08-01 00:34:48.076,0.09,-0.34
2021-08-01 00:34:48.080,0.09,-0.32
2021-08-01 00:34:48.084,0.07,-0.285
2021-08-01 00:34:48.088,0.085,-0.305
2021-08-01 00:34:48.092,0.07,-0.25
2021-08-01 00:34:48.096,0.075,-0.26
2021-08-01 00:34:48.100,0.08,-0.23
2021-08-01 00:34:48.104,0.08,-0.255
2021-08-01 00:34:48.108,0.08,-0.22
2021-08-01 00:34:48.112,0.08,-0.24
2021-08-01 00:34:48.116,0.07,-0.26
2021-08-01 00:34:48.120,0.03,-0.28
2021-08-01 00:34:48.124,0.05,-0.255
2021-08-01 00:34:48.128,0.07,-0.26
2021-08-01 00:34:48.132,0.06,-0.26
2021-08-01 00:34:48.136,0.055,-0.27
2021-08-01 00:34:48.140,0.05,-0.26
2021-08-01 00:34:48.144,0.05,-0.25
2021-08-01 00:34:48.148,0.055,-0.25
2021-08-01 00:34:48.152,0.02,-0.26
2021-08-01 00:34:48.156,0.025,-0.285
2021-08-01 00:34:48.160,0.01,-0.26
2021-08-01 00:34:48.164,0.01,-0.295
2021-08-01 00:34:48.168,0.01,-0.335
2021-08-01 00:34:48.172,0.005,-0.305
2021-08-01 00:34:48.176,-0.01,-0.34
2021-08-01 00:34:48.180,-0.005,-0.34
2021-08-01 00:34:48.184,-0.01,-0.35
2021-08-01 00:34:48.188,-0.015,-0.35
2021-08-01 00:34:48.192,-0.02,-0.35
2021-08-01 00:34:48.196,-0.02,-0.385
2021-08-01 00:34:48.200,0.0,-0.365
2021-08-01 00:34:48.204,-0.005,-0.375
2021-08-01 00:34:48.208,-0.01,-0.38
2021-08-01 00:34:48.212,-0.01,-0.415
2021-08-01 00:34:48.216,-0.025,-0.42
2021-08-01 00:34:48.220,-0.02,-0.395
2021-08-01 00:34:48.224,-0.03,-0.405
2021-08-01 00:34:48.228,-0.035,-0.4
2021-08-01 00:34:48.232,-0.03,-0.4
2021-08-01 00:34:48.236,-0.02,-0.41
2021-08-01 00:34:48.240,-0.01,-0.4
2021-08-01 00:34:48.244,-0.02,-0.4
2021-08-01 00:34:48.248,-0.01,-0.4
2021-08-01 00:34:48.252,-0.025,-0.405
2021-08-01 00:34:48.256,-0.02,-0.395
2021-08-01 00:34:48.260,-0.025,-0.4
2021-08-01 00:34:48.264,-0.02,-0.405
2021-08-01 00:34:48.268,-0.02,-0.4
2021-08-01 00:34:48.272,-0.05,-0.395
2021-08-01 00:34:48.276,-0.015,-0.4
2021-08-01 00:34:48.280,-0.015,-0.41
2021-08-01 00:34:48.284,-0.02,-0.425
2021-08-01 00:34:48.288,-0.035,-0.405
2021-08-01 00:34:48.292,-0.04,-0.4
2021-08-01 00:34:48.296,-0.02,-0.415
2021-08-01 00:34:48.300,-0.04,-0.41
2021-08-01 00:34:48.304,-0.035,-0.415
2021-08-01 00:34:48.308,-0.045,-0.405
2021-08-01 00:34:48.312,-0.04,-0.4
2021-08-01 00:34:48.316,-0.01,-0.395
2021-08-01 00:34:48.320,0.0,-0.425
2021-08-01 00:34:48.324,-0.045,-0.395
2021-08-01 00:34:48.328,-0.02,-0.42
2021-08-01 00:34:48.332,-0.03,-0.39
2021-08-01 00:34:48.336,-0.01,-0.4
2021-08-01 00:34:48.340,-0.015,-0.41
2021-08-01 00:34:48.344,-0.015,-0.395
2021-08-01 00:34:48.348,-0.02,-0.38
2021-08-01 00:34:48.352,0.01,-0.39
2021-08-01 00:34:48.356,0.0,-0.435
2021-08-01 00:34:48.360,0.005,-0.51
2021-08-01 00:34:48.364,0.015,-0.6
2021-08-01 00:34:48.368,0.02,-0.56
2021-08-01 00:34:48.372,-0.015,-0.345
2021-08-01 00:34:48.376,0.025,0.02
2021-08-01 00:34:48.380,0.055,0.505
2021-08-01 00:34:48.384,0.15,1.095
2021-08-01 00:34:48.388,0.255,1.655
2021-08-01 00:34:48.404,0.36,1.545
2021-08-01 00:34:48.408,0.315,0.91
2021-08-01 00:34:48.412,0.18,0.425
2021-08-01 00:34:48.416,0.005,0.125
2021-08-01 00:34:48.420,-0.11,-0.01
2021-08-01 00:34:48.424,-0.175,-0.095
2021-08-01 00:34:48.428,-0.17,-0.205
2021-08-01 00:34:48.432,-0.105,-0.295
2021-08-01 00:34:48.436,-0.065,-0.35
2021-08-01 00:34:48.440,-0.04,-0.405
2021-08-01 00:34:48.444,-0.01,-0.45
2021-08-01 00:34:48.448,-0.055,-0.48
2021-08-01 00:34:48.452,-0.07,-0.485
2021-08-01 00:34:48.456,-0.04,-0.51
2021-08-01 00:34:48.460,-0.055,-0.505
2021-08-01 00:34:48.464,-0.06,-0.52
2021-08-01 00:34:48.468,-0.055,-0.525
2021-08-01 00:34:48.472,-0.03,-0.515
2021-08-01 00:34:48.476,-0.03,-0.53
2021-08-01 00:34:48.480,-0.055,-0.54
2021-08-01 00:34:48.484,-0.045,-0.55
2021-08-01 00:34:48.488,-0.04,-0.55
2021-08-01 00:34:48.492,-0.06,-0.56
2021-08-01 00:34:48.496,-0.03,-0.55
2021-08-01 00:34:48.500,-0.04,-0.555
2021-08-01 00:34:48.504,-0.035,-0.565
2021-08-01 00:34:48.508,-0.045,-0.56
2021-08-01 00:34:48.512,-0.05,-0.555
2021-08-01 00:34:48.516,-0.06,-0.555
2021-08-01 00:34:48.520,-0.04,-0.56
2021-08-01 00:34:48.524,-0.03,-0.57
2021-08-01 00:34:48.528,-0.065,-0.555
2021-08-01 00:34:48.532,-0.045,-0.55
2021-08-01 00:34:48.536,-0.02,-0.56
2021-08-01 00:34:48.540,-0.015,-0.545
2021-08-01 00:34:48.544,-0.02,-0.545
2021-08-01 00:34:48.548,-0.025,-0.54
2021-08-01 00:34:48.552,-0.035,-0.535
2021-08-01 00:34:48.556,-0.01,-0.54
2021-08-01 00:34:48.560,-0.005,-0.54
2021-08-01 00:34:48.564,-0.02,-0.52
2021-08-01 00:34:48.568,-0.01,-0.51
2021-08-01 00:34:48.572,0.0,-0.505
2021-08-01 00:34:48.576,0.01,-0.53
2021-08-01 00:34:48.580,0.025,-0.515
2021-08-01 00:34:48.584,0.015,-0.5
2021-08-01 00:34:48.588,0.05,-0.495
2021-08-01 00:34:48.592,0.015,-0.495
2021-08-01 00:34:48.596,0.055,-0.465
2021-08-01 00:34:48.600,0.065,-0.465
2021-08-01 00:34:48.604,0.05,-0.475
2021-08-01 00:34:48.608,0.03,-0.49
2021-08-01 00:34:48.612,0.05,-0.49
2021-08-01 00:34:48.616,0.03,-0.485
2021-08-01 00:34:48.620,0.065,-0.48
2021-08-01 00:34:48.624,0.07,-0.5
2021-08-01 00:34:48.628,0.06,-0.51
2021-08-01 00:34:48.632,0.035,-0.515
2021-08-01 00:34:48.636,0.055,-0.51
2021-08-01 00:34:48.640,0.07,-0.52
2021-08-01 00:34:48.644,0.08,-0.52
2021-08-01 00:34:48.648,0.065,-0.535
2021-08-01 00:34:48.652,0.08,-0.55
2021-08-01 00:34:48.656,0.095,-0.56
2021-08-01 00:34:48.660,0.075,-0.56
2021-08-01 00:34:48.664,0.065,-0.56
2021-08-01 00:34:48.668,0.07,-0.555
2021-08-01 00:34:48.672,0.06,-0.545
2021-08-01 00:34:48.676,0.06,-0.55
2021-08-01 00:34:48.680,0.075,-0.53
2021-08-01 00:34:48.684,0.07,-0.51
2021-08-01 00:34:48.688,0.05,-0.49
2021-08-01 00:34:48.692,0.055,-0.475
2021-08-01 00:34:48.696,0.055,-0.465
2021-08-01 00:34:48.700,0.065,-0.46
2021-08-01 00:34:48.704,0.08,-0.445
2021-08-01 00:34:48.708,0.065,-0.43
2021-08-01 00:34:48.712,0.055,-0.425
2021-08-01 00:34:48.716,0.055,-0.41
2021-08-01 00:34:48.720,0.025,-0.375
2021-08-01 00:34:48.724,0.045,-0.39
2021-08-01 00:34:48.728,0.02,-0.375
2021-08-01 00:34:48.732,0.02,-0.375
2021-08-01 00:34:48.736,0.01,-0.365
2021-08-01 00:34:48.740,0.015,-0.375
2021-08-01 00:34:48.744,0.005,-0.405
2021-08-01 00:34:48.748,-0.005,-0.415
2021-08-01 00:34:48.752,-0.01,-0.38
2021-08-01 00:34:48.756,-0.02,-0.4
2021-08-01 00:34:48.760,-0.04,-0.42
2021-08-01 00:34:48.764,-0.02,-0.415
2021-08-01 00:34:48.768,-0.025,-0.43
2021-08-01 00:34:48.772,-0.035,-0.41
2021-08-01 00:34:48.776,-0.03,-0.41
2021-08-01 00:34:48.780,-0.035,-0.415
2021-08-01 00:34:48.784,-0.045,-0.395
2021-08-01 00:34:48.788,-0.035,-0.425
2021-08-01 00:34:48.792,-0.02,-0.44
2021-08-01 00:34:48.796,-0.035,-0.42
2021-08-01 00:34:48.800,-0.025,-0.435
2021-08-01 00:34:48.804,-0.01,-0.42
2021-08-01 00:34:48.808,-0.03,-0.405
2021-08-01 00:34:48.812,-0.01,-0.39
2021-08-01 00:34:48.816,-0.01,-0.395
2021-08-01 00:34:48.820,0.0,-0.395
2021-08-01 00:34:48.824,-0.015,-0.38
2021-08-01 00:34:48.828,-0.01,-0.375
2021-08-01 00:34:48.832,-0.015,-0.385
2021-08-01 00:34:48.836,-0.015,-0.385
2021-08-01 00:34:48.840,-0.03,-0.4
2021-08-01 00:34:48.844,-0.035,-0.395
2021-08-01 00:34:48.848,-0.03,-0.42
2021-08-01 00:34:48.852,-0.02,-0.42
2021-08-01 00:34:48.856,-0.04,-0.435
2021-08-01 00:34:48.860,-0.065,-0.44
2021-08-01 00:34:48.864,-0.055,-0.445
2021-08-01 00:34:48.868,-0.07,-0.455
2021-08-01 00:34:48.872,-0.06,-0.475
2021-08-01 00:34:48.876,-0.065,-0.49
2021-08-01 00:34:48.880,-0.075,-0.48
2021-08-01 00:34:48.884,-0.075,-0.495
2021-08-01 00:34:48.888,-0.1,-0.51
2021-08-01 00:34:48.892,-0.075,-0.505
2021-08-01 00:34:48.896,-0.085,-0.5
2021-08-01 00:34:48.900,-0.085,-0.51
2021-08-01 00:34:48.904,-0.095,-0.49
2021-08-01 00:34:48.908,-0.11,-0.49
2021-08-01 00:34:48.912,-0.1,-0.495
2021-08-01 00:34:48.916,-0.1,-0.475
2021-08-01 00:34:48.920,-0.08,-0.47
2021-08-01 00:34:48.924,-0.065,-0.48
2021-08-01 00:34:48.928,-0.07,-0.465
2021-08-01 00:34:48.932,-0.095,-0.475
2021-08-01 00:34:48.936,-0.08,-0.46
2021-08-01 00:34:48.940,-0.08,-0.48
2021-08-01 00:34:48.944,-0.09,-0.48
2021-08-01 00:34:48.948,-0.08,-0.49
2021-08-01 00:34:48.952,-0.065,-0.48
2021-08-01 00:34:48.956,-0.06,-0.48
2021-08-01 00:34:48.960,-0.06,-0.495
2021-08-01 00:34:48.964,-0.075,-0.495
2021-08-01 00:34:48.968,-0.065,-0.49
2021-08-01 00:34:48.972,-0.075,-0.47
2021-08-01 00:34:48.976,-0.075,-0.47
2021-08-01 00:34:48.980,-0.075,-0.475
2021-08-01 00:34:48.984,-0.08,-0.465
2021-08-01 00:34:48.988,-0.085,-0.465
2021-08-01 00:34:48.992,-0.09,-0.44
2021-08-01 00:34:48.996,-0.085,-0.425
2021-08-01 00:34:49.000,-0.07,-0.44
2021-08-01 00:34:49.004,-0.075,-0.445
2021-08-01 00:34:49.008,-0.085,-0.415
2021-08-01 00:34:49.012,-0.065,-0.425
2021-08-01 00:34:49.016,-0.055,-0.43
2021-08-01 00:34:49.020,-0.05,-0.43
2021-08-01 00:34:49.024,-0.065,-0.47
2021-08-01 00:34:49.028,-0.055,-0.465
2021-08-01 00:34:49.032,-0.05,-0.45
2021-08-01 00:34:49.036,-0.035,-0.45
2021-08-01 00:34:49.040,-0.06,-0.41
2021-08-01 00:34:49.044,-0.055,-0.41
2021-08-01 00:34:49.048,-0.055,-0.395
2021-08-01 00:34:49.052,-0.05,-0.42
2021-08-01 00:34:49.056,-0.035,-0.395
2021-08-01 00:34:49.060,-0.06,-0.385
2021-08-01 00:34:49.064,-0.07,-0.4
2021-08-01 00:34:49.068,-0.065,-0.415
2021-08-01 00:34:49.072,-0.065,-0.395
2021-08-01 00:34:49.076,-0.065,-0.415
2021-08-01 00:34:49.080,-0.085,-0.42
2021-08-01 00:34:49.084,-0.08,-0.41
2021-08-01 00:34:49.088,-0.075,-0.44
2021-08-01 00:34:49.092,-0.075,-0.425
2021-08-01 00:34:49.096,-0.06,-0.425
2021-08-01 00:34:49.100,-0.07,-0.41
2021-08-01 00:34:49.104,-0.085,-0.455
2021-08-01 00:34:49.108,-0.07,-0.43
2021-08-01 00:34:49.112,-0.075,-0.44
2021-08-01 00:34:49.116,-0.065,-0.47
2021-08-01 00:34:49.120,-0.09,-0.47
2021-08-01 00:34:49.124,-0.095,-0.47
2021-08-01 00:34:49.128,-0.09,-0.455
2021-08-01 00:34:49.132,-0.09,-0.46
2021-08-01 00:34:49.136,-0.105,-0.45
2021-08-01 00:34:49.140,-0.08,-0.44
2021-08-01 00:34:49.144,-0.085,-0.435
2021-08-01 00:34:49.148,-0.065,-0.42
2021-08-01 00:34:49.152,-0.065,-0.42
2021-08-01 00:34:49.156,-0.08,-0.395
2021-08-01 00:34:49.160,-0.065,-0.405
2021-08-01 00:34:49.164,-0.075,-0.405
2021-08-01 00:34:49.168,-0.065,-0.4
2021-08-01 00:34:49.172,-0.075,-0.415
2021-08-01 00:34:49.176,-0.06,-0.45
2021-08-01 00:34:49.180,-0.07,-0.495
2021-08-01 00:34:49.184,-0.05,-0.545
2021-08-01 00:34:49.188,-0.055,-0.49
2021-08-01 00:34:49.192,-0.045,-0.27
2021-08-01 00:34:49.196,-0.01,0.165
2021-08-01 00:34:49.200,0.045,0.69
2021-08-01 00:34:49.204,0.13,1.24
2021-08-01 00:34:49.208,0.21,1.81
2021-08-01 00:34:49.224,0.335,1.53
2021-08-01 00:34:49.228,0.28,0.91
2021-08-01 00:34:49.232,0.16,0.44
2021-08-01 00:34:49.236,0.015,0.15
2021-08-01 00:34:49.240,-0.11,0.02
2021-08-01 00:34:49.244,-0.16,-0.06
2021-08-01 00:34:49.248,-0.16,-0.14
2021-08-01 00:34:49.252,-0.09,-0.21
2021-08-01 00:34:49.256,-0.04,-0.26
2021-08-01 00:34:49.260,-0.025,-0.325
2021-08-01 00:34:49.264,-0.015,-0.335
2021-08-01 00:34:49.268,0.0,-0.335
2021-08-01 00:34:49.272,0.0,-0.33
2021-08-01 00:34:49.276,0.0,-0.34
2021-08-01 00:34:49.280,-0.015,-0.37
2021-08-01 00:34:49.284,-0.005,-0.385
2021-08-01 00:34:49.288,-0.015,-0.39
2021-08-01 00:34:49.292,-0.025,-0.41
2021-08-01 00:34:49.296,-0.03,-0.41
2021-08-01 00:34:49.300,-0.045,-0.39
2021-08-01 00:34:49.304,-0.03,-0.425
2021-08-01 00:34:49.308,-0.025,-0.41
2021-08-01 00:34:49.312,-0.02,-0.415
2021-08-01 00:34:49.316,-0.045,-0.42
2021-08-01 00:34:49.320,-0.045,-0.445
2021-08-01 00:34:49.324,-0.025,-0.46
2021-08-01 00:34:49.328,-0.04,-0.45
2021-08-01 00:34:49.332,-0.02,-0.46
2021-08-01 00:34:49.336,-0.025,-0.465
2021-08-01 00:34:49.340,-0.04,-0.43
2021-08-01 00:34:49.344,-0.025,-0.435
2021-08-01 00:34:49.348,-0.035,-0.455
2021-08-01 00:34:49.352,-0.015,-0.44
2021-08-01 00:34:49.356,-0.005,-0.44
2021-08-01 00:34:49.360,-0.02,-0.44
2021-08-01 00:34:49.364,-0.015,-0.435
2021-08-01 00:34:49.368,-0.01,-0.42
2021-08-01 00:34:49.372,-0.03,-0.42
2021-08-01 00:34:49.376,-0.02,-0.42
2021-08-01 00:34:49.380,-0.005,-0.4
2021-08-01 00:34:49.384,0.005,-0.42
2021-08-01 00:34:49.388,0.0,-0.425
2021-08-01 00:34:49.392,0.01,-0.425
2021-08-01 00:34:49.396,0.0,-0.415
2021-08-01 00:34:49.400,0.0,-0.425
2021-08-01 00:34:49.404,0.0,-0.415
2021-08-01 00:34:49.408,0.0,-0.405
2021-08-01 00:34:49.412,0.0,-0.4
2021-08-01 00:34:49.416,0.025,-0.41
2021-08-01 00:34:49.420,0.03,-0.43
2021-08-01 00:34:49.424,0.025,-0.4
2021-08-01 00:34:49.428,0.045,-0.39
2021-08-01 00:34:49.432,0.035,-0.39
2021-08-01 00:34:49.436,0.055,-0.365
2021-08-01 00:34:49.440,0.065,-0.39
2021-08-01 00:34:49.444,0.07,-0.38
2021-08-01 00:34:49.448,0.085,-0.38
2021-08-01 00:34:49.452,0.065,-0.37
2021-08-01 00:34:49.456,0.105,-0.39
2021-08-01 00:34:49.460,0.11,-0.39
2021-08-01 00:34:49.464,0.1,-0.405
2021-08-01 00:34:49.468,0.11,-0.42
2021-08-01 00:34:49.472,0.12,-0.43
2021-08-01 00:34:49.476,0.11,-0.43
2021-08-01 00:34:49.480,0.145,-0.43
2021-08-01 00:34:49.484,0.13,-0.42
2021-08-01 00:34:49.488,0.135,-0.4
2021-08-01 00:34:49.492,0.15,-0.375
2021-08-01 00:34:49.496,0.125,-0.395
2021-08-01 00:34:49.500,0.12,-0.375
2021-08-01 00:34:49.504,0.125,-0.38
2021-08-01 00:34:49.508,0.14,-0.365
2021-08-01 00:34:49.512,0.105,-0.345
2021-08-01 00:34:49.516,0.11,-0.355
2021-08-01 00:34:49.520,0.105,-0.34
2021-08-01 00:34:49.524,0.08,-0.32
2021-08-01 00:34:49.528,0.07,-0.31
2021-08-01 00:34:49.532,0.065,-0.295
2021-08-01 00:34:49.536,0.075,-0.265
2021-08-01 00:34:49.540,0.065,-0.25
2021-08-01 00:34:49.544,0.04,-0.245
2021-08-01 00:34:49.548,0.035,-0.22
2021-08-01 00:34:49.552,0.03,-0.22
2021-08-01 00:34:49.556,0.03,-0.22
2021-08-01 00:34:49.560,0.02,-0.235
2021-08-01 00:34:49.564,0.005,-0.21
2021-08-01 00:34:49.568,0.015,-0.195
2021-08-01 00:34:49.572,0.005,-0.185
2021-08-01 00:34:49.576,0.0,-0.175
2021-08-01 00:34:49.580,0.025,-0.15
2021-08-01 00:34:49.584,0.015,-0.145
2021-08-01 00:34:49.588,0.02,-0.155
2021-08-01 00:34:49.592,0.005,-0.185
2021-08-01 00:34:49.596,0.0,-0.17
2021-08-01 00:34:49.600,0.0,-0.17
2021-08-01 00:34:49.604,0.015,-0.17
2021-08-01 00:34:49.608,0.025,-0.17
2021-08-01 00:34:49.612,0.015,-0.18
2021-08-01 00:34:49.616,0.02,-0.155
2021-08-01 00:34:49.620,0.02,-0.16
2021-08-01 00:34:49.624,0.03,-0.15
2021-08-01 00:34:49.628,0.025,-0.15
2021-08-01 00:34:49.632,0.015,-0.155
2021-08-01 00:34:49.636,0.03,-0.115
2021-08-01 00:34:49.640,0.05,-0.08
2021-08-01 00:34:49.644,0.045,0.095
2021-08-01 00:34:49.648,0.095,0.44
2021-08-01 00:34:49.652,0.135,0.905
2021-08-01 00:34:49.656,0.24,1.455
2021-08-01 00:34:49.680,0.57,1.92
2021-08-01 00:34:49.684,0.46,1.165
2021-08-01 00:34:49.688,0.285,0.705
2021-08-01 00:34:49.692,0.065,0.5
2021-08-01 00:34:49.696,-0.06,0.355
2021-08-01 00:34:49.700,-0.06,0.21
2021-08-01 00:34:49.704,-0.025,0.125
2021-08-01 00:34:49.708,0.035,0.04
2021-08-01 00:34:49.712,0.035,-0.01
2021-08-01 00:34:49.716,0.05,-0.06
2021-08-01 00:34:49.720,0.04,-0.095
2021-08-01 00:34:49.724,0.045,-0.155
2021-08-01 00:34:49.728,0.025,-0.165
2021-08-01 00:34:49.732,0.005,-0.21
2021-08-01 00:34:49.736,-0.015,-0.235
2021-08-01 00:34:49.740,-0.025,-0.24
2021-08-01 00:34:49.744,0.005,-0.255
2021-08-01 00:34:49.748,-0.005,-0.27
2021-08-01 00:34:49.752,-0.005,-0.275
2021-08-01 00:34:49.756,-0.015,-0.275
2021-08-01 00:34:49.760,-0.025,-0.275
2021-08-01 00:34:49.764,-0.005,-0.29
2021-08-01 00:34:49.768,-0.035,-0.305
2021-08-01 00:34:49.772,-0.035,-0.31
2021-08-01 00:34:49.776,-0.02,-0.33
2021-08-01 00:34:49.780,-0.04,-0.315
2021-08-01 00:34:49.784,-0.035,-0.33
2021-08-01 00:34:49.788,-0.035,-0.335
2021-08-01 00:34:49.792,-0.035,-0.315
2021-08-01 00:34:49.796,-0.03,-0.335
2021-08-01 00:34:49.800,-0.015,-0.32
2021-08-01 00:34:49.804,-0.03,-0.33
2021-08-01 00:34:49.808,-0.01,-0.305
2021-08-01 00:34:49.812,0.0,-0.29
2021-08-01 00:34:49.816,0.0,-0.29
2021-08-01 00:34:49.820,-0.005,-0.31
2021-08-01 00:34:49.824,0.0,-0.31
2021-08-01 00:34:49.828,-0.015,-0.305
2021-08-01 00:34:49.832,0.0,-0.29
2021-08-01 00:34:49.836,0.01,-0.285
2021-08-01 00:34:49.840,0.005,-0.29
2021-08-01 00:34:49.844,0.02,-0.28
2021-08-01 00:34:49.848,0.03,-0.275
2021-08-01 00:34:49.852,0.015,-0.28
2021-08-01 00:34:49.856,0.005,-0.285
2021-08-01 00:34:49.860,0.015,-0.26
2021-08-01 00:34:49.864,0.035,-0.24
2021-08-01 00:34:49.868,0.035,-0.235
2021-08-01 00:34:49.872,0.05,-0.225
2021-08-01 00:34:49.876,0.05,-0.225
2021-08-01 00:34:49.880,0.065,-0.205
2021-08-01 00:34:49.884,0.07,-0.235
2021-08-01 00:34:49.888,0.095,-0.22
2021-08-01 00:34:49.892,0.095,-0.215
2021-08-01 00:34:49.896,0.095,-0.225
2021-08-01 00:34:49.900,0.115,-0.205
2021-08-01 00:34:49.904,0.12,-0.19
2021-08-01 00:34:49.908,0.135,-0.185
2021-08-01 00:34:49.912,0.145,-0.18
2021-08-01 00:34:49.916,0.13,-0.125
2021-08-01 00:34:49.920,0.15,-0.12
2021-08-01 00:34:49.924,0.155,-0.095
2021-08-01 00:34:49.928,0.145,-0.085
2021-08-01 00:34:49.932,0.17,-0.075
2021-08-01 00:34:49.936,0.165,-0.065
2021-08-01 00:34:49.940,0.16,-0.055
2021-08-01 00:34:49.944,0.185,-0.025
2021-08-01 00:34:49.948,0.18,-0.025
2021-08-01 00:34:49.952,0.155,-0.02
2021-08-01 00:34:49.956,0.175,-0.005
2021-08-01 00:34:49.960,0.17,0.0
2021-08-01 00:34:49.964,0.155,-0.005
2021-08-01 00:34:49.968,0.135,0.0
2021-08-01 00:34:49.972,0.11,-0.01
2021-08-01 00:34:49.976,0.13,0.0
2021-08-01 00:34:49.980,0.125,-0.035
2021-08-01 00:34:49.984,0.12,-0.01
2021-08-01 00:34:49.988,0.1,-0.03
2021-08-01 00:34:49.992,0.085,-0.055
2021-08-01 00:34:49.996,0.055,-0.095
2021-08-01 00:34:50.000,0.065,-0.085
2021-08-01 00:34:50.004,0.02,-0.12
2021-08-01 00:34:50.008,0.04,-0.12
2021-08-01 00:34:50.012,0.02,-0.12
2021-08-01 00:34:50.016,0.0,-0.1
2021-08-01 00:34:50.020,0.02,-0.13
2021-08-01 00:34:50.024,0.025,-0.115
2021-08-01 00:34:50.028,0.01,-0.125
2021-08-01 00:34:50.032,0.015,-0.12
2021-08-01 00:34:50.036,0.03,-0.125
2021-08-01 00:34:50.040,0.01,-0.135
2021-08-01 00:34:50.044,0.025,-0.135
2021-08-01 00:34:50.048,0.01,-0.125
2021-08-01 00:34:50.052,-0.01,-0.14
2021-08-01 00:34:50.056,0.0,-0.135
2021-08-01 00:34:50.060,-0.015,-0.125
2021-08-01 00:34:50.064,-0.01,-0.145
2021-08-01 00:34:50.068,0.0,-0.12
2021-08-01 00:34:50.072,-0.015,-0.135
2021-08-01 00:34:50.076,0.0,-0.14
2021-08-01 00:34:50.080,0.0,-0.12
2021-08-01 00:34:50.084,-0.01,-0.12
2021-08-01 00:34:50.088,0.015,-0.11
2021-08-01 00:34:50.092,0.0,-0.12
2021-08-01 00:34:50.096,-0.005,-0.115
2021-08-01 00:34:50.100,-0.015,-0.115
2021-08-01 00:34:50.104,0.005,-0.13
2021-08-01 00:34:50.108,0.0,-0.125
2021-08-01 00:34:50.112,0.03,-0.145
2021-08-01 00:34:50.116,0.01,-0.16
2021-08-01 00:34:50.120,0.0,-0.155
2021-08-01 00:34:50.124,0.0,-0.14
2021-08-01 00:34:50.128,-0.005,-0.13
2021-08-01 00:34:50.132,0.0,-0.105
2021-08-01 00:34:50.136,0.005,-0.09
2021-08-01 00:34:50.140,-0.005,-0.08
2021-08-01 00:34:50.144,0.005,-0.09
2021-08-01 00:34:50.148,0.01,-0.075
2021-08-01 00:34:50.152,0.02,-0.07
2021-08-01 00:34:50.156,0.015,-0.085
2021-08-01 00:34:50.160,0.01,-0.08
2021-08-01 00:34:50.164,0.005,-0.09
2021-08-01 00:34:50.168,-0.015,-0.095
2021-08-01 00:34:50.172,0.0,-0.125
2021-08-01 00:34:50.176,-0.01,-0.125
2021-08-01 00:34:50.180,-0.01,-0.13
2021-08-01 00:34:50.184,-0.03,-0.145
2021-08-01 00:34:50.188,-0.01,-0.14
2021-08-01 00:34:50.192,-0.02,-0.17
2021-08-01 00:34:50.196,-0.02,-0.17
2021-08-01 00:34:50.200,-0.01,-0.175
2021-08-01 00:34:50.204,-0.04,-0.19
2021-08-01 00:34:50.208,-0.04,-0.19
2021-08-01 00:34:50.212,-0.03,-0.195
2021-08-01 00:34:50.216,-0.04,-0.21
2021-08-01 00:34:50.220,-0.045,-0.215
2021-08-01 00:34:50.224,-0.05,-0.215
2021-08-01 00:34:50.228,-0.04,-0.205
2021-08-01 00:34:50.232,-0.05,-0.19
2021-08-01 00:34:50.236,-0.035,-0.18
2021-08-01 00:34:50.240,-0.03,-0.18
2021-08-01 00:34:50.244,-0.045,-0.17
2021-08-01 00:34:50.248,-0.02,-0.155
2021-08-01 00:34:50.252,-0.025,-0.17
2021-08-01 00:34:50.256,-0.02,-0.17
2021-08-01 00:34:50.260,-0.02,-0.155
2021-08-01 00:34:50.264,-0.04,-0.165
2021-08-01 00:34:50.268,-0.01,-0.16
2021-08-01 00:34:50.272,-0.015,-0.17
2021-08-01 00:34:50.276,-0.04,-0.18
2021-08-01 00:34:50.280,-0.03,-0.175
2021-08-01 00:34:50.284,-0.02,-0.16
2021-08-01 00:34:50.288,-0.005,-0.155
2021-08-01 00:34:50.292,-0.03,-0.17
2021-08-01 00:34:50.296,-0.02,-0.16
2021-08-01 00:34:50.300,-0.01,-0.16
2021-08-01 00:34:50.304,-0.02,-0.155
2021-08-01 00:34:50.308,-0.015,-0.145
2021-08-01 00:34:50.312,-0.01,-0.155
2021-08-01 00:34:50.316,0.025,-0.15
2021-08-01 00:34:50.320,0.005,-0.155
2021-08-01 00:34:50.324,0.02,-0.13
2021-08-01 00:34:50.328,0.015,-0.115
2021-08-01 00:34:50.332,-0.01,-0.105
2021-08-01 00:34:50.336,0.005,-0.105
2021-08-01 00:34:50.340,0.015,-0.105
2021-08-01 00:34:50.344,0.015,-0.11
2021-08-01 00:34:50.348,0.015,-0.11
2021-08-01 00:34:50.352,0.02,-0.08
2021-08-01 00:34:50.356,0.025,-0.08
2021-08-01 00:34:50.360,0.03,-0.08
2021-08-01 00:34:50.364,0.04,-0.075
2021-08-01 00:34:50.368,0.05,-0.17
2021-08-01 00:34:50.372,0.05,-0.255
2021-08-01 00:34:50.376,0.055,-0.245
2021-08-01 00:34:50.380,0.04,-0.045
2021-08-01 00:34:50.384,0.045,0.345
2021-08-01 00:34:50.388,0.11,0.835
2021-08-01 00:34:50.392,0.195,1.425
2021-08-01 00:34:50.416,0.37,1.345
2021-08-01 00:34:50.420,0.22,0.87
2021-08-01 00:34:50.424,0.015,0.51
2021-08-01 00:34:50.428,-0.11,0.33
2021-08-01 00:34:50.432,-0.155,0.235
2021-08-01 00:34:50.436,-0.13,0.155
2021-08-01 00:34:50.440,-0.05,0.07
2021-08-01 00:34:50.444,0.005,0.015
2021-08-01 00:34:50.448,0.0,-0.07
2021-08-01 00:34:50.452,0.0,-0.115
2021-08-01 00:34:50.456,0.0,-0.155
2021-08-01 00:34:50.460,0.005,-0.16
2021-08-01 00:34:50.464,0.0,-0.18
2021-08-01 00:34:50.468,-0.015,-0.175
2021-08-01 00:34:50.472,-0.005,-0.185
2021-08-01 00:34:50.476,0.0,-0.19
2021-08-01 00:34:50.480,0.005,-0.195
2021-08-01 00:34:50.484,0.0,-0.215
2021-08-01 00:34:50.488,0.01,-0.225
2021-08-01 00:34:50.492,0.035,-0.205
2021-08-01 00:34:50.496,0.0,-0.205
2021-08-01 00:34:50.500,0.01,-0.21
2021-08-01 00:34:50.504,0.035,-0.215
2021-08-01 00:34:50.508,0.025,-0.22
2021-08-01 00:34:50.512,0.02,-0.21
2021-08-01 00:34:50.516,0.015,-0.225
2021-08-01 00:34:50.520,0.035,-0.25
2021-08-01 00:34:50.524,0.015,-0.225
2021-08-01 00:34:50.528,0.015,-0.24
2021-08-01 00:34:50.532,0.02,-0.235
2021-08-01 00:34:50.536,0.02,-0.24
2021-08-01 00:34:50.540,0.04,-0.235
2021-08-01 00:34:50.544,0.025,-0.25
2021-08-01 00:34:50.548,0.04,-0.25
2021-08-01 00:34:50.552,0.025,-0.245
2021-08-01 00:34:50.556,0.04,-0.265
2021-08-01 00:34:50.560,0.06,-0.26
2021-08-01 00:34:50.564,0.045,-0.25
2021-08-01 00:34:50.568,0.055,-0.235
2021-08-01 00:34:50.572,0.08,-0.23
2021-08-01 00:34:50.576,0.07,-0.23
2021-08-01 00:34:50.580,0.095,-0.22
2021-08-01 00:34:50.584,0.1,-0.24
2021-08-01 00:34:50.588,0.11,-0.2
2021-08-01 00:34:50.592,0.12,-0.2
2021-08-01 00:34:50.596,0.125,-0.195
2021-08-01 00:34:50.600,0.135,-0.2
2021-08-01 00:34:50.604,0.14,-0.19
2021-08-01 00:34:50.608,0.135,-0.185
2021-08-01 00:34:50.612,0.125,-0.185
2021-08-01 00:34:50.616,0.12,-0.185
2021-08-01 00:34:50.620,0.135,-0.205
2021-08-01 00:34:50.624,0.12,-0.22
2021-08-01 00:34:50.628,0.125,-0.245
2021-08-01 00:34:50.632,0.13,-0.26
2021-08-01 00:34:50.636,0.135,-0.275
2021-08-01 00:34:50.640,0.125,-0.285
2021-08-01 00:34:50.644,0.125,-0.275
2021-08-01 00:34:50.648,0.125,-0.305
2021-08-01 00:34:50.652,0.13,-0.3
2021-08-01 00:34:50.656,0.135,-0.29
2021-08-01 00:34:50.660,0.135,-0.315
2021-08-01 00:34:50.664,0.14,-0.34
2021-08-01 00:34:50.668,0.145,-0.32
2021-08-01 00:34:50.672,0.155,-0.36
2021-08-01 00:34:50.676,0.14,-0.355
2021-08-01 00:34:50.680,0.13,-0.37
2021-08-01 00:34:50.684,0.14,-0.35
2021-08-01 00:34:50.688,0.135,-0.355
2021-08-01 00:34:50.692,0.135,-0.33
2021-08-01 00:34:50.696,0.155,-0.325
2021-08-01 00:34:50.700,0.145,-0.3
2021-08-01 00:34:50.704,0.15,-0.28
2021-08-01 00:34:50.708,0.145,-0.26
2021-08-01 00:34:50.712,0.165,-0.23
2021-08-01 00:34:50.716,0.14,-0.21
2021-08-01 00:34:50.720,0.14,-0.19
2021-08-01 00:34:50.724,0.125,-0.15
2021-08-01 00:34:50.728,0.13,-0.12
2021-08-01 00:34:50.732,0.13,-0.11
2021-08-01 00:34:50.736,0.11,-0.09
2021-08-01 00:34:50.740,0.115,-0.075
2021-08-01 00:34:50.744,0.125,-0.035
2021-08-01 00:34:50.748,0.105,-0.025
2021-08-01 00:34:50.752,0.1,0.005
2021-08-01 00:34:50.756,0.09,0.0
2021-08-01 00:34:50.760,0.085,0.005
2021-08-01 00:34:50.764,0.08,0.01
2021-08-01 00:34:50.768,0.07,0.02
2021-08-01 00:34:50.772,0.075,0.005
2021-08-01 00:34:50.776,0.075,0.02
2021-08-01 00:34:50.780,0.05,0.0
2021-08-01 00:34:50.784,0.075,0.02
2021-08-01 00:34:50.788,0.06,0.02
2021-08-01 00:34:50.792,0.065,0.03
2021-08-01 00:34:50.796,0.07,0.015
2021-08-01 00:34:50.800,0.065,0.02
2021-08-01 00:34:50.804,0.07,0.005
2021-08-01 00:34:50.808,0.085,-0.015
2021-08-01 00:34:50.812,0.08,-0.005
2021-08-01 00:34:50.816,0.095,-0.005
2021-08-01 00:34:50.820,0.105,-0.005
2021-08-01 00:34:50.824,0.115,-0.015
2021-08-01 00:34:50.828,0.12,0.01
2021-08-01 00:34:50.832,0.105,0.0
2021-08-01 00:34:50.836,0.095,0.01
2021-08-01 00:34:50.840,0.1,0.01
2021-08-01 00:34:50.844,0.075,-0.005
2021-08-01 00:34:50.848,0.08,-0.025
2021-08-01 00:34:50.852,0.07,-0.01
2021-08-01 00:34:50.856,0.075,-0.015
2021-08-01 00:34:50.860,0.025,-0.03
2021-08-01 00:34:50.864,0.04,-0.045
2021-08-01 00:34:50.868,0.025,-0.06
2021-08-01 00:34:50.872,0.03,-0.07
2021-08-01 00:34:50.876,0.02,-0.06
2021-08-01 00:34:50.880,0.0,-0.105
2021-08-01 00:34:50.884,0.015,-0.095
2021-08-01 00:34:50.888,0.02,-0.115
2021-08-01 00:34:50.892,0.01,-0.095
2021-08-01 00:34:50.896,0.005,-0.115
2021-08-01 00:34:50.900,0.0,-0.11
2021-08-01 00:34:50.904,0.005,-0.125
2021-08-01 00:34:50.908,0.0,-0.125
2021-08-01 00:34:50.912,-0.005,-0.145
2021-08-01 00:34:50.916,-0.01,-0.14
2021-08-01 00:34:50.920,-0.015,-0.15
2021-08-01 00:34:50.924,-0.015,-0.15
2021-08-01 00:34:50.928,-0.025,-0.135
2021-08-01 00:34:50.932,-0.035,-0.12
2021-08-01 00:34:50.936,0.015,-0.115
2021-08-01 00:34:50.940,-0.005,-0.135
2021-08-01 00:34:50.944,0.0,-0.135
2021-08-01 00:34:50.948,-0.015,-0.13
2021-08-01 00:34:50.952,-0.01,-0.13
2021-08-01 00:34:50.956,-0.015,-0.135
2021-08-01 00:34:50.960,-0.02,-0.12
2021-08-01 00:34:50.964,-0.035,-0.12
2021-08-01 00:34:50.968,-0.04,-0.12
2021-08-01 00:34:50.972,-0.025,-0.125
2021-08-01 00:34:50.976,-0.01,-0.135
2021-08-01 00:34:50.980,-0.02,-0.12
2021-08-01 00:34:50.984,0.0,-0.13
2021-08-01 00:34:50.988,-0.01,-0.11
2021-08-01 00:34:50.992,-0.005,-0.12
2021-08-01 00:34:50.996,-0.005,-0.125
2021-08-01 00:34:51.000,0.005,-0.125
2021-08-01 00:34:51.004,-0.01,-0.125
2021-08-01 00:34:51.008,-0.005,-0.115
2021-08-01 00:34:51.012,-0.005,-0.1
2021-08-01 00:34:51.016,-0.015,-0.12
2021-08-01 00:34:51.020,-0.015,-0.115
2021-08-01 00:34:51.024,0.0,-0.14
2021-08-01 00:34:51.028,-0.005,-0.14
2021-08-01 00:34:51.032,-0.005,-0.21
2021-08-01 00:34:51.036,-0.01,-0.315
2021-08-01 00:34:51.040,0.0,-0.41
2021-08-01 00:34:51.044,0.0,-0.34
2021-08-01 00:34:51.048,-0.005,-0.065
2021-08-01 00:34:51.052,0.01,0.38
2021-08-01 00:34:51.056,0.085,0.935
2021-08-01 00:34:51.060,0.18,1.585
2021-08-01 00:34:51.080,0.515,1.825
2021-08-01 00:34:51.084,0.44,1.195
2021-08-01 00:34:51.088,0.25,0.75
2021-08-01 00:34:51.092,0.035,0.5
2021-08-01 00:34:51.096,-0.125,0.35
2021-08-01 00:34:51.100,-0.15,0.215
2021-08-01 00:34:51.104,-0.125,0.15
2021-08-01 00:34:51.108,-0.045,0.065
2021-08-01 00:34:51.112,0.0,-0.01
2021-08-01 00:34:51.116,0.02,-0.04
2021-08-01 00:34:51.120,0.02,-0.085
2021-08-01 00:34:51.124,0.005,-0.115
2021-08-01 00:34:51.128,0.015,-0.125
2021-08-01 00:34:51.132,0.0,-0.145
2021-08-01 00:34:51.136,0.005,-0.195
2021-08-01 00:34:51.140,-0.005,-0.205
2021-08-01 00:34:51.144,-0.01,-0.21
2021-08-01 00:34:51.148,0.0,-0.215
2021-08-01 00:34:51.152,-0.015,-0.235
2021-08-01 00:34:51.156,-0.02,-0.225
2021-08-01 00:34:51.160,-0.025,-0.215
2021-08-01 00:34:51.164,0.01,-0.23
2021-08-01 00:34:51.168,-0.01,-0.215
2021-08-01 00:34:51.172,-0.03,-0.21
2021-08-01 00:34:51.176,0.005,-0.205
2021-08-01 00:34:51.180,-0.005,-0.21
2021-08-01 00:34:51.184,0.0,-0.2
2021-08-01 00:34:51.188,-0.01,-0.22
2021-08-01 00:34:51.192,-0.01,-0.2
2021-08-01 00:34:51.196,0.0,-0.215
2021-08-01 00:34:51.200,0.02,-0.21
2021-08-01 00:34:51.204,-0.005,-0.19
2021-08-01 00:34:51.208,-0.015,-0.195
2021-08-01 00:34:51.212,0.005,-0.185
2021-08-01 00:34:51.216,0.03,-0.215
2021-08-01 00:34:51.220,0.02,-0.21
2021-08-01 00:34:51.224,0.015,-0.205
2021-08-01 00:34:51.228,0.0,-0.21
2021-08-01 00:34:51.232,0.01,-0.22
2021-08-01 00:34:51.236,0.015,-0.205
2021-08-01 00:34:51.240,0.035,-0.21
2021-08-01 00:34:51.244,0.04,-0.19
2021-08-01 00:34:51.248,0.035,-0.18
2021-08-01 00:34:51.252,0.03,-0.2
2021-08-01 00:34:51.256,0.055,-0.19
2021-08-01 00:34:51.260,0.055,-0.175
2021-08-01 00:34:51.264,0.055,-0.185
2021-08-01 00:34:51.268,0.05,-0.195
2021-08-01 00:34:51.272,0.06,-0.185
2021-08-01 00:34:51.276,0.08,-0.18
2021-08-01 00:34:51.280,0.095,-0.195
2021-08-01 00:34:51.284,0.095,-0.175
2021-08-01 00:34:51.288,0.095,-0.15
2021-08-01 00:34:51.292,0.13,-0.145
2021-08-01 00:34:51.296,0.145,-0.14
2021-08-01 00:34:51.300,0.18,-0.125
2021-08-01 00:34:51.304,0.175,-0.145
2021-08-01 00:34:51.308,0.15,-0.155
2021-08-01 00:34:51.312,0.155,-0.155
2021-08-01 00:34:51.316,0.145,-0.16
2021-08-01 00:34:51.320,0.155,-0.15
2021-08-01 00:34:51.324,0.165,-0.165
2021-08-01 00:34:51.328,0.15,-0.19
2021-08-01 00:34:51.332,0.175,-0.19
2021-08-01 00:34:51.336,0.155,-0.18
2021-08-01 00:34:51.340,0.16,-0.205
2021-08-01 00:34:51.344,0.15,-0.19
2021-08-01 00:34:51.348,0.14,-0.195
2021-08-01 00:34:51.352,0.14,-0.205
2021-08-01 00:34:51.356,0.155,-0.21
2021-08-01 00:34:51.360,0.125,-0.18
2021-08-01 00:34:51.364,0.125,-0.175
2021-08-01 00:34:51.368,0.115,-0.16
2021-08-01 00:34:51.372,0.125,-0.17
2021-08-01 00:34:51.376,0.1,-0.14
2021-08-01 00:34:51.380,0.085,-0.135
2021-08-01 00:34:51.384,0.085,-0.09
2021-08-01 00:34:51.388,0.095,-0.075
2021-08-01 00:34:51.392,0.08,-0.055
2021-08-01 00:34:51.396,0.08,-0.045
2021-08-01 00:34:51.400,0.075,-0.04
2021-08-01 00:34:51.404,0.11,-0.015
2021-08-01 00:34:51.408,0.07,0.0
2021-08-01 00:34:51.412,0.08,0.0
2021-08-01 00:34:51.416,0.075,0.01
2021-08-01 00:34:51.420,0.06,0.015
2021-08-01 00:34:51.424,0.045,0.02
2021-08-01 00:34:51.428,0.05,0.0
2021-08-01 00:34:51.432,0.03,-0.005
2021-08-01 00:34:51.436,0.025,-0.005
2021-08-01 00:34:51.440,0.03,-0.01
2021-08-01 00:34:51.444,0.015,-0.015
2021-08-01 00:34:51.448,0.02,-0.015
2021-08-01 00:34:51.452,0.025,-0.035
2021-08-01 00:34:51.456,0.025,-0.03
2021-08-01 00:34:51.460,0.01,-0.04
2021-08-01 00:34:51.464,0.02,-0.025
2021-08-01 00:34:51.468,0.01,-0.03
2021-08-01 00:34:51.472,0.02,-0.01
2021-08-01 00:34:51.476,0.015,-0.01
2021-08-01 00:34:51.480,0.02,-0.025
2021-08-01 00:34:51.484,0.01,-0.015
2021-08-01 00:34:51.488,0.01,-0.045
2021-08-01 00:34:51.492,0.015,-0.05
2021-08-01 00:34:51.496,0.0,-0.06
2021-08-01 00:34:51.500,0.0,-0.06
2021-08-01 00:34:51.504,0.035,-0.05
2021-08-01 00:34:51.508,0.01,-0.045
2021-08-01 00:34:51.512,0.02,-0.045
2021-08-01 00:34:51.516,0.03,-0.03
2021-08-01 00:34:51.520,0.035,-0.01
2021-08-01 00:34:51.524,0.02,0.0
2021-08-01 00:34:51.528,0.05,0.0
2021-08-01 00:34:51.532,0.065,0.015
2021-08-01 00:34:51.536,0.035,0.02
2021-08-01 00:34:51.540,0.04,0.005
2021-08-01 00:34:51.544,0.025,-0.005
2021-08-01 00:34:51.548,0.035,0.0
2021-08-01 00:34:51.552,-0.005,-0.01
2021-08-01 00:34:51.556,0.02,-0.005
2021-08-01 00:34:51.560,0.01,-0.02
2021-08-01 00:34:51.564,0.015,-0.045
2021-08-01 00:34:51.568,0.02,-0.06
2021-08-01 00:34:51.572,-0.01,-0.07
2021-08-01 00:34:51.576,-0.015,-0.075
2021-08-01 00:34:51.580,-0.01,-0.075
2021-08-01 00:34:51.584,-0.015,-0.075
2021-08-01 00:34:51.588,-0.02,-0.07
2021-08-01 00:34:51.592,-0.04,-0.085
2021-08-01 00:34:51.596,-0.015,-0.095
2021-08-01 00:34:51.600,-0.04,-0.085
2021-08-01 00:34:51.604,-0.03,-0.11
2021-08-01 00:34:51.608,-0.03,-0.11
2021-08-01 00:34:51.612,-0.065,-0.105
2021-08-01 00:34:51.616,-0.035,-0.11
2021-08-01 00:34:51.620,-0.055,-0.1
