Time,ECG1,ECG2
2021-08-19 21:12:49.120,-0.465,-0.03
2021-08-19 21:12:49.124,-0.435,-0.025
2021-08-19 21:12:49.128,-0.425,-0.035
2021-08-19 21:12:49.132,-0.405,-0.055
2021-08-19 21:12:49.136,-0.4,-0.075
2021-08-19 21:12:49.140,-0.375,-0.07
2021-08-19 21:12:49.144,-0.355,-0.09
2021-08-19 21:12:49.148,-0.37,-0.08
2021-08-19 21:12:49.152,-0.345,-0.09
2021-08-19 21:12:49.156,-0.32,-0.095
2021-08-19 21:12:49.160,-0.305,-0.11
2021-08-19 21:12:49.164,-0.325,-0.11
2021-08-19 21:12:49.168,-0.3,-0.135
2021-08-19 21:12:49.172,-0.28,-0.145
2021-08-19 21:12:49.176,-0.31,-0.13
2021-08-19 21:12:49.180,-0.28,-0.13
2021-08-19 21:12:49.184,-0.28,-0.12
2021-08-19 21:12:49.188,-0.26,-0.1
2021-08-19 21:12:49.192,-0.23,-0.13
2021-08-19 21:12:49.196,-0.225,-0.13
2021-08-19 21:12:49.200,-0.235,-0.12
2021-08-19 21:12:49.204,-0.23,-0.125
2021-08-19 21:12:49.208,-0.235,-0.105
2021-08-19 21:12:49.212,-0.22,-0.105
2021-08-19 21:12:49.216,-0.215,-0.135
2021-08-19 21:12:49.220,-0.215,-0.105
2021-08-19 21:12:49.224,-0.205,-0.11
2021-08-19 21:12:49.228,-0.195,-0.1
2021-08-19 21:12:49.232,-0.13,-0.075
2021-08-19 21:12:49.236,-0.125,-0.065
2021-08-19 21:12:49.240,-0.085,-0.06
2021-08-19 21:12:49.244,-0.08,-0.06
2021-08-19 21:12:49.248,-0.06,-0.02
2021-08-19 21:12:49.252,-0.05,-0.025
2021-08-19 21:12:49.256,-0.03,0.005
2021-08-19 21:12:49.260,0.0,0.03
2021-08-19 21:12:49.264,0.035,0.05
2021-08-19 21:12:49.268,0.065,0.065
2021-08-19 21:12:49.272,0.09,0.06
2021-08-19 21:12:49.276,0.14,0.08
2021-08-19 21:12:49.280,0.175,0.09
2021-08-19 21:12:49.284,0.2,0.08
2021-08-19 21:12:49.288,0.175,0.045
2021-08-19 21:12:49.292,0.125,0.025
2021-08-19 21:12:49.296,0.025,0.0
2021-08-19 21:12:49.300,-0.025,-0.005
2021-08-19 21:12:49.304,-0.095,-0.025
2021-08-19 21:12:49.308,-0.045,-0.075
2021-08-19 21:12:49.312,0.135,-0.18
2021-08-19 21:12:49.316,0.425,-0.36
2021-08-19 21:12:49.320,0.75,-0.645
2021-08-19 21:12:49.324,0.935,-0.935
2021-08-19 21:12:49.328,0.925,-1.09
2021-08-19 21:12:49.332,0.665,-1.07
2021-08-19 21:12:49.336,0.255,-0.805
2021-08-19 21:12:49.340,-0.07,-0.44
2021-08-19 21:12:49.344,-0.215,-0.12
2021-08-19 21:12:49.348,-0.28,0.025
2021-08-19 21:12:49.352,-0.29,0.09
2021-08-19 21:12:49.356,-0.305,0.11
2021-08-19 21:12:49.360,-0.34,0.09
2021-08-19 21:12:49.364,-0.33,0.075
2021-08-19 21:12:49.368,-0.325,0.065
2021-08-19 21:12:49.372,-0.335,0.07
2021-08-19 21:12:49.376,-0.355,0.01
2021-08-19 21:12:49.380,-0.34,-0.01
2021-08-19 21:12:49.384,-0.335,0.0
2021-08-19 21:12:49.388,-0.35,-0.005
2021-08-19 21:12:49.392,-0.35,-0.01
2021-08-19 21:12:49.396,-0.34,-0.035
2021-08-19 21:12:49.400,-0.36,-0.025
2021-08-19 21:12:49.404,-0.385,-0.035
2021-08-19 21:12:49.408,-0.395,-0.035
2021-08-19 21:12:49.412,-0.395,-0.04
2021-08-19 21:12:49.416,-0.385,-0.035
2021-08-19 21:12:49.420,-0.39,-0.055
2021-08-19 21:12:49.424,-0.405,-0.055
2021-08-19 21:12:49.428,-0.385,-0.035
2021-08-19 21:12:49.432,-0.39,-0.03
2021-08-19 21:12:49.436,-0.385,-0.02
2021-08-19 21:12:49.440,-0.355,-0.025
2021-08-19 21:12:49.444,-0.345,-0.03
2021-08-19 21:12:49.448,-0.33,-0.035
2021-08-19 21:12:49.452,-0.315,-0.005
2021-08-19 21:12:49.456,-0.32,0.015
2021-08-19 21:12:49.460,-0.285,0.015
2021-08-19 21:12:49.464,-0.275,0.005
2021-08-19 21:12:49.468,-0.285,0.06
2021-08-19 21:12:49.472,-0.25,0.06
2021-08-19 21:12:49.476,-0.24,0.06
2021-08-19 21:12:49.480,-0.25,0.085
2021-08-19 21:12:49.484,-0.25,0.095
2021-08-19 21:12:49.488,-0.28,0.1
2021-08-19 21:12:49.492,-0.315,0.115
2021-08-19 21:12:49.496,-0.32,0.1
2021-08-19 21:12:49.500,-0.355,0.115
2021-08-19 21:12:49.504,-0.36,0.11
2021-08-19 21:12:49.508,-0.385,0.135
2021-08-19 21:12:49.512,-0.39,0.125
2021-08-19 21:12:49.516,-0.39,0.135
2021-08-19 21:12:49.520,-0.395,0.13
2021-08-19 21:12:49.524,-0.4,0.1
2021-08-19 21:12:49.528,-0.37,0.07
2021-08-19 21:12:49.532,-0.35,0.075
2021-08-19 21:12:49.536,-0.325,0.055
2021-08-19 21:12:49.540,-0.295,0.025
2021-08-19 21:12:49.544,-0.27,0.0
2021-08-19 21:12:49.548,-0.255,0.01
2021-08-19 21:12:49.552,-0.25,0.0
2021-08-19 21:12:49.556,-0.235,-0.005
2021-08-19 21:12:49.560,-0.205,-0.035
2021-08-19 21:12:49.564,-0.205,-0.055
2021-08-19 21:12:49.568,-0.17,-0.085
2021-08-19 21:12:49.572,-0.15,-0.08
2021-08-19 21:12:49.576,-0.165,-0.08
2021-08-19 21:12:49.580,-0.17,-0.115
2021-08-19 21:12:49.584,-0.165,-0.09
2021-08-19 21:12:49.588,-0.14,-0.12
2021-08-19 21:12:49.592,-0.145,-0.095
2021-08-19 21:12:49.596,-0.15,-0.1
2021-08-19 21:12:49.600,-0.13,-0.11
2021-08-19 21:12:49.604,-0.135,-0.105
2021-08-19 21:12:49.608,-0.14,-0.1
2021-08-19 21:12:49.612,-0.125,-0.11
2021-08-19 21:12:49.616,-0.13,-0.11
2021-08-19 21:12:49.620,-0.15,-0.12
2021-08-19 21:12:49.624,-0.11,-0.085
2021-08-19 21:12:49.628,-0.12,-0.1
2021-08-19 21:12:49.632,-0.115,-0.105
2021-08-19 21:12:49.636,-0.09,-0.09
2021-08-19 21:12:49.640,-0.09,-0.11
2021-08-19 21:12:49.644,-0.08,-0.095
2021-08-19 21:12:49.648,-0.075,-0.095
2021-08-19 21:12:49.652,-0.05,-0.075
2021-08-19 21:12:49.656,-0.025,-0.075
2021-08-19 21:12:49.660,-0.02,-0.08
2021-08-19 21:12:49.664,0.005,-0.06
2021-08-19 21:12:49.668,0.045,-0.05
2021-08-19 21:12:49.672,0.11,-0.055
2021-08-19 21:12:49.676,0.185,-0.025
2021-08-19 21:12:49.680,0.24,-0.06
2021-08-19 21:12:49.684,0.26,-0.075
2021-08-19 21:12:49.688,0.25,-0.12
2021-08-19 21:12:49.692,0.255,-0.145
2021-08-19 21:12:49.696,0.22,-0.115
2021-08-19 21:12:49.700,0.185,-0.12
2021-08-19 21:12:49.704,0.195,-0.155
2021-08-19 21:12:49.708,0.335,-0.22
2021-08-19 21:12:49.712,0.63,-0.355
2021-08-19 21:12:49.716,0.94,-0.6
2021-08-19 21:12:49.720,1.11,-0.865
2021-08-19 21:12:49.724,0.995,-1.015
2021-08-19 21:12:49.728,0.64,-0.95
2021-08-19 21:12:49.732,0.19,-0.675
2021-08-19 21:12:49.736,-0.11,-0.365
2021-08-19 21:12:49.740,-0.235,-0.14
2021-08-19 21:12:49.744,-0.27,-0.035
2021-08-19 21:12:49.748,-0.265,0.045
2021-08-19 21:12:49.752,-0.275,0.055
2021-08-19 21:12:49.756,-0.275,0.07
2021-08-19 21:12:49.760,-0.3,0.055
2021-08-19 21:12:49.764,-0.285,0.035
2021-08-19 21:12:49.768,-0.32,0.02
2021-08-19 21:12:49.772,-0.305,-0.035
2021-08-19 21:12:49.776,-0.335,-0.06
2021-08-19 21:12:49.780,-0.32,-0.05
2021-08-19 21:12:49.784,-0.335,-0.075
2021-08-19 21:12:49.788,-0.315,-0.05
2021-08-19 21:12:49.792,-0.31,-0.07
2021-08-19 21:12:49.796,-0.3,-0.085
2021-08-19 21:12:49.800,-0.31,-0.085
2021-08-19 21:12:49.804,-0.305,-0.085
2021-08-19 21:12:49.808,-0.285,-0.055
2021-08-19 21:12:49.812,-0.285,-0.075
2021-08-19 21:12:49.816,-0.29,-0.075
2021-08-19 21:12:49.820,-0.275,-0.055
2021-08-19 21:12:49.824,-0.26,-0.07
2021-08-19 21:12:49.828,-0.245,-0.075
2021-08-19 21:12:49.832,-0.26,-0.045
2021-08-19 21:12:49.836,-0.26,-0.07
2021-08-19 21:12:49.840,-0.25,-0.05
2021-08-19 21:12:49.844,-0.24,-0.06
2021-08-19 21:12:49.848,-0.255,-0.05
2021-08-19 21:12:49.852,-0.26,-0.035
2021-08-19 21:12:49.856,-0.27,-0.02
2021-08-19 21:12:49.860,-0.265,-0.005
2021-08-19 21:12:49.864,-0.26,0.01
2021-08-19 21:12:49.868,-0.26,0.0
2021-08-19 21:12:49.872,-0.26,-0.015
2021-08-19 21:12:49.876,-0.25,-0.02
2021-08-19 21:12:49.880,-0.265,-0.02
2021-08-19 21:12:49.884,-0.295,0.0
2021-08-19 21:12:49.888,-0.305,0.0
2021-08-19 21:12:49.892,-0.345,0.005
2021-08-19 21:12:49.896,-0.38,0.01
2021-08-19 21:12:49.900,-0.4,0.005
2021-08-19 21:12:49.904,-0.39,0.03
2021-08-19 21:12:49.908,-0.38,0.02
2021-08-19 21:12:49.912,-0.395,0.015
2021-08-19 21:12:49.916,-0.385,0.01
2021-08-19 21:12:49.920,-0.37,-0.02
2021-08-19 21:12:49.924,-0.37,-0.04
2021-08-19 21:12:49.928,-0.34,-0.055
2021-08-19 21:12:49.932,-0.335,-0.075
2021-08-19 21:12:49.936,-0.34,-0.095
2021-08-19 21:12:49.940,-0.295,-0.085
2021-08-19 21:12:49.944,-0.295,-0.11
2021-08-19 21:12:49.948,-0.275,-0.105
2021-08-19 21:12:49.952,-0.245,-0.115
2021-08-19 21:12:49.956,-0.24,-0.135
2021-08-19 21:12:49.960,-0.245,-0.13
2021-08-19 21:12:49.964,-0.24,-0.15
2021-08-19 21:12:49.968,-0.215,-0.155
2021-08-19 21:12:49.972,-0.22,-0.18
2021-08-19 21:12:49.976,-0.185,-0.2
2021-08-19 21:12:49.980,-0.2,-0.185
2021-08-19 21:12:49.984,-0.18,-0.185
2021-08-19 21:12:49.988,-0.165,-0.18
2021-08-19 21:12:49.992,-0.14,-0.195
2021-08-19 21:12:49.996,-0.135,-0.185
2021-08-19 21:12:50.000,-0.155,-0.19
2021-08-19 21:12:50.004,-0.135,-0.2
2021-08-19 21:12:50.008,-0.13,-0.2
2021-08-19 21:12:50.012,-0.125,-0.19
2021-08-19 21:12:50.016,-0.095,-0.18
2021-08-19 21:12:50.020,-0.09,-0.155
2021-08-19 21:12:50.024,-0.1,-0.165
2021-08-19 21:12:50.028,-0.1,-0.13
2021-08-19 21:12:50.032,-0.08,-0.1
2021-08-19 21:12:50.036,-0.08,-0.11
2021-08-19 21:12:50.040,-0.075,-0.09
2021-08-19 21:12:50.044,-0.065,-0.07
2021-08-19 21:12:50.048,-0.075,-0.07
2021-08-19 21:12:50.052,-0.07,-0.06
2021-08-19 21:12:50.056,-0.055,-0.055
2021-08-19 21:12:50.060,-0.08,-0.06
2021-08-19 21:12:50.064,-0.09,-0.04
2021-08-19 21:12:50.068,-0.1,-0.035
2021-08-19 21:12:50.072,-0.12,-0.035
2021-08-19 21:12:50.076,-0.12,-0.03
2021-08-19 21:12:50.080,-0.13,-0.035
2021-08-19 21:12:50.084,-0.15,-0.03
2021-08-19 21:12:50.088,-0.17,-0.025
2021-08-19 21:12:50.092,-0.195,-0.01
2021-08-19 21:12:50.096,-0.225,0.0
2021-08-19 21:12:50.100,-0.205,0.0
2021-08-19 21:12:50.104,-0.185,0.0
2021-08-19 21:12:50.108,-0.19,0.005
2021-08-19 21:12:50.112,-0.195,-0.02
2021-08-19 21:12:50.116,-0.185,-0.005
2021-08-19 21:12:50.120,-0.12,-0.03
2021-08-19 21:12:50.124,-0.075,-0.05
2021-08-19 21:12:50.128,0.0,-0.065
2021-08-19 21:12:50.132,0.07,-0.08
2021-08-19 21:12:50.136,0.125,-0.105
2021-08-19 21:12:50.140,0.145,-0.155
2021-08-19 21:12:50.144,0.13,-0.175
2021-08-19 21:12:50.148,0.14,-0.195
2021-08-19 21:12:50.152,0.125,-0.205
2021-08-19 21:12:50.156,0.085,-0.23
2021-08-19 21:12:50.160,0.165,-0.315
2021-08-19 21:12:50.164,0.38,-0.46
2021-08-19 21:12:50.168,0.69,-0.665
2021-08-19 21:12:50.172,0.925,-0.955
2021-08-19 21:12:50.176,1.015,-1.19
2021-08-19 21:12:50.180,0.8,-1.28
2021-08-19 21:12:50.184,0.375,-1.095
2021-08-19 21:12:50.188,-0.015,-0.76
2021-08-19 21:12:50.192,-0.25,-0.475
2021-08-19 21:12:50.196,-0.3,-0.3
2021-08-19 21:12:50.200,-0.32,-0.155
2021-08-19 21:12:50.204,-0.32,-0.075
2021-08-19 21:12:50.208,-0.335,-0.015
2021-08-19 21:12:50.212,-0.335,-0.01
2021-08-19 21:12:50.216,-0.32,-0.005
2021-08-19 21:12:50.220,-0.31,0.0
2021-08-19 21:12:50.224,-0.315,-0.02
2021-08-19 21:12:50.228,-0.315,-0.025
2021-08-19 21:12:50.232,-0.29,-0.045
2021-08-19 21:12:50.236,-0.27,-0.03
2021-08-19 21:12:50.240,-0.26,-0.025
2021-08-19 21:12:50.244,-0.245,-0.015
2021-08-19 21:12:50.248,-0.24,0.0
2021-08-19 21:12:50.252,-0.245,0.025
2021-08-19 21:12:50.256,-0.245,0.035
2021-08-19 21:12:50.260,-0.27,0.035
2021-08-19 21:12:50.264,-0.28,0.035
2021-08-19 21:12:50.268,-0.315,0.025
2021-08-19 21:12:50.272,-0.33,0.04
2021-08-19 21:12:50.276,-0.36,0.055
2021-08-19 21:12:50.280,-0.395,0.065
2021-08-19 21:12:50.284,-0.415,0.05
2021-08-19 21:12:50.288,-0.425,0.085
2021-08-19 21:12:50.292,-0.44,0.085
2021-08-19 21:12:50.296,-0.46,0.085
2021-08-19 21:12:50.300,-0.44,0.1
2021-08-19 21:12:50.304,-0.445,0.085
2021-08-19 21:12:50.308,-0.46,0.06
2021-08-19 21:12:50.312,-0.45,0.055
2021-08-19 21:12:50.316,-0.455,0.05
2021-08-19 21:12:50.320,-0.435,0.04
2021-08-19 21:12:50.324,-0.42,0.03
2021-08-19 21:12:50.328,-0.44,0.015
2021-08-19 21:12:50.332,-0.42,0.03
2021-08-19 21:12:50.336,-0.41,0.0
2021-08-19 21:12:50.340,-0.4,-0.005
2021-08-19 21:12:50.344,-0.395,0.005
2021-08-19 21:12:50.348,-0.37,-0.03
2021-08-19 21:12:50.352,-0.36,-0.015
2021-08-19 21:12:50.356,-0.34,-0.04
2021-08-19 21:12:50.360,-0.33,-0.045
2021-08-19 21:12:50.364,-0.33,-0.025
2021-08-19 21:12:50.368,-0.315,-0.03
2021-08-19 21:12:50.372,-0.315,-0.03
2021-08-19 21:12:50.376,-0.305,-0.055
2021-08-19 21:12:50.380,-0.3,-0.06
2021-08-19 21:12:50.384,-0.275,-0.08
2021-08-19 21:12:50.388,-0.27,-0.075
2021-08-19 21:12:50.392,-0.245,-0.095
2021-08-19 21:12:50.396,-0.24,-0.07
2021-08-19 21:12:50.400,-0.22,-0.085
2021-08-19 21:12:50.404,-0.2,-0.09
2021-08-19 21:12:50.408,-0.205,-0.11
2021-08-19 21:12:50.412,-0.185,-0.08
2021-08-19 21:12:50.416,-0.14,-0.09
2021-08-19 21:12:50.420,-0.13,-0.08
2021-08-19 21:12:50.424,-0.105,-0.09
2021-08-19 21:12:50.428,-0.08,-0.075
2021-08-19 21:12:50.432,-0.05,-0.065
2021-08-19 21:12:50.436,-0.04,-0.06
2021-08-19 21:12:50.440,-0.02,-0.05
2021-08-19 21:12:50.444,-0.04,-0.03
2021-08-19 21:12:50.448,-0.04,0.0
2021-08-19 21:12:50.452,-0.02,0.02
2021-08-19 21:12:50.456,-0.04,0.03
2021-08-19 21:12:50.460,-0.025,0.04
2021-08-19 21:12:50.464,-0.075,0.05
2021-08-19 21:12:50.468,-0.075,0.08
2021-08-19 21:12:50.472,-0.09,0.085
2021-08-19 21:12:50.476,-0.095,0.115
2021-08-19 21:12:50.480,-0.11,0.115
2021-08-19 21:12:50.484,-0.145,0.1
2021-08-19 21:12:50.488,-0.165,0.105
2021-08-19 21:12:50.492,-0.165,0.095
2021-08-19 21:12:50.496,-0.18,0.065
2021-08-19 21:12:50.500,-0.215,0.02
2021-08-19 21:12:50.504,-0.235,0.015
2021-08-19 21:12:50.508,-0.26,-0.01
2021-08-19 21:12:50.512,-0.26,-0.025
2021-08-19 21:12:50.516,-0.28,-0.05
2021-08-19 21:12:50.520,-0.25,-0.04
2021-08-19 21:12:50.524,-0.26,-0.05
2021-08-19 21:12:50.528,-0.25,-0.06
2021-08-19 21:12:50.532,-0.255,-0.08
2021-08-19 21:12:50.536,-0.245,-0.08
2021-08-19 21:12:50.540,-0.26,-0.09
2021-08-19 21:12:50.544,-0.245,-0.1
2021-08-19 21:12:50.548,-0.24,-0.085
2021-08-19 21:12:50.552,-0.23,-0.08
2021-08-19 21:12:50.556,-0.24,-0.1
2021-08-19 21:12:50.560,-0.235,-0.105
2021-08-19 21:12:50.564,-0.24,-0.105
2021-08-19 21:12:50.568,-0.215,-0.095
2021-08-19 21:12:50.572,-0.22,-0.08
2021-08-19 21:12:50.576,-0.2,-0.1
2021-08-19 21:12:50.580,-0.205,-0.095
2021-08-19 21:12:50.584,-0.185,-0.08
2021-08-19 21:12:50.588,-0.195,-0.075
2021-08-19 21:12:50.592,-0.18,-0.08
2021-08-19 21:12:50.596,-0.195,-0.085
2021-08-19 21:12:50.600,-0.165,-0.085
2021-08-19 21:12:50.604,-0.15,-0.055
2021-08-19 21:12:50.608,-0.13,-0.08
2021-08-19 21:12:50.612,-0.135,-0.065
2021-08-19 21:12:50.616,-0.13,-0.055
2021-08-19 21:12:50.620,-0.125,-0.055
2021-08-19 21:12:50.624,-0.13,-0.04
2021-08-19 21:12:50.628,-0.125,-0.05
2021-08-19 21:12:50.632,-0.115,-0.05
2021-08-19 21:12:50.636,-0.075,-0.055
2021-08-19 21:12:50.640,-0.04,-0.045
2021-08-19 21:12:50.644,-0.005,-0.025
2021-08-19 21:12:50.648,0.05,-0.06
2021-08-19 21:12:50.652,0.145,-0.035
2021-08-19 21:12:50.656,0.195,-0.065
2021-08-19 21:12:50.660,0.215,-0.06
2021-08-19 21:12:50.664,0.21,-0.115
2021-08-19 21:12:50.668,0.185,-0.135
2021-08-19 21:12:50.672,0.2,-0.11
2021-08-19 21:12:50.676,0.19,-0.13
2021-08-19 21:12:50.680,0.225,-0.215
2021-08-19 21:12:50.684,0.375,-0.335
2021-08-19 21:12:50.688,0.66,-0.51
2021-08-19 21:12:50.692,0.935,-0.755
2021-08-19 21:12:50.696,1.075,-0.995
2021-08-19 21:12:50.700,0.95,-1.115
2021-08-19 21:12:50.704,0.57,-1.04
2021-08-19 21:12:50.708,0.135,-0.71
2021-08-19 21:12:50.712,-0.15,-0.345
2021-08-19 21:12:50.716,-0.25,-0.155
2021-08-19 21:12:50.720,-0.305,-0.02
2021-08-19 21:12:50.724,-0.34,0.045
2021-08-19 21:12:50.728,-0.34,0.09
2021-08-19 21:12:50.732,-0.38,0.085
2021-08-19 21:12:50.736,-0.38,0.07
2021-08-19 21:12:50.740,-0.365,0.07
2021-08-19 21:12:50.744,-0.365,0.05
2021-08-19 21:12:50.748,-0.38,0.0
2021-08-19 21:12:50.752,-0.38,-0.02
2021-08-19 21:12:50.756,-0.39,-0.03
2021-08-19 21:12:50.760,-0.38,-0.04
2021-08-19 21:12:50.764,-0.385,-0.035
2021-08-19 21:12:50.768,-0.4,-0.035
2021-08-19 21:12:50.772,-0.39,-0.04
2021-08-19 21:12:50.776,-0.415,-0.04
2021-08-19 21:12:50.780,-0.425,-0.035
2021-08-19 21:12:50.784,-0.445,-0.03
2021-08-19 21:12:50.788,-0.405,-0.025
2021-08-19 21:12:50.792,-0.405,-0.035
2021-08-19 21:12:50.796,-0.405,-0.005
2021-08-19 21:12:50.800,-0.375,-0.015
2021-08-19 21:12:50.804,-0.38,0.02
2021-08-19 21:12:50.808,-0.36,0.035
2021-08-19 21:12:50.812,-0.365,0.04
2021-08-19 21:12:50.816,-0.355,0.015
2021-08-19 21:12:50.820,-0.355,0.055
2021-08-19 21:12:50.824,-0.365,0.06
2021-08-19 21:12:50.828,-0.355,0.075
2021-08-19 21:12:50.832,-0.345,0.075
2021-08-19 21:12:50.836,-0.37,0.07
2021-08-19 21:12:50.840,-0.365,0.09
2021-08-19 21:12:50.844,-0.39,0.105
2021-08-19 21:12:50.848,-0.405,0.105
2021-08-19 21:12:50.852,-0.445,0.13
2021-08-19 21:12:50.856,-0.47,0.14
2021-08-19 21:12:50.860,-0.505,0.155
2021-08-19 21:12:50.864,-0.505,0.15
2021-08-19 21:12:50.868,-0.515,0.17
2021-08-19 21:12:50.872,-0.51,0.165
2021-08-19 21:12:50.876,-0.525,0.15
2021-08-19 21:12:50.880,-0.51,0.145
2021-08-19 21:12:50.884,-0.495,0.135
2021-08-19 21:12:50.888,-0.48,0.155
2021-08-19 21:12:50.892,-0.475,0.155
2021-08-19 21:12:50.896,-0.465,0.135
2021-08-19 21:12:50.900,-0.42,0.14
2021-08-19 21:12:50.904,-0.4,0.145
2021-08-19 21:12:50.908,-0.37,0.135
2021-08-19 21:12:50.912,-0.345,0.125
2021-08-19 21:12:50.916,-0.32,0.1
2021-08-19 21:12:50.920,-0.32,0.115
2021-08-19 21:12:50.924,-0.305,0.11
2021-08-19 21:12:50.928,-0.3,0.07
2021-08-19 21:12:50.932,-0.275,0.055
2021-08-19 21:12:50.936,-0.275,0.03
2021-08-19 21:12:50.940,-0.28,0.0
2021-08-19 21:12:50.944,-0.28,0.0
2021-08-19 21:12:50.948,-0.27,-0.03
2021-08-19 21:12:50.952,-0.255,0.0
2021-08-19 21:12:50.956,-0.255,-0.025
2021-08-19 21:12:50.960,-0.26,-0.045
2021-08-19 21:12:50.964,-0.24,-0.05
2021-08-19 21:12:50.968,-0.24,-0.035
2021-08-19 21:12:50.972,-0.235,-0.04
2021-08-19 21:12:50.976,-0.205,-0.045
2021-08-19 21:12:50.980,-0.175,-0.04
2021-08-19 21:12:50.984,-0.17,-0.02
2021-08-19 21:12:50.988,-0.18,-0.005
2021-08-19 21:12:50.992,-0.19,-0.02
2021-08-19 21:12:50.996,-0.18,-0.025
2021-08-19 21:12:51.000,-0.17,-0.01
2021-08-19 21:12:51.004,-0.17,0.0
2021-08-19 21:12:51.008,-0.16,0.0
2021-08-19 21:12:51.012,-0.155,0.015
2021-08-19 21:12:51.016,-0.16,0.03
2021-08-19 21:12:51.020,-0.18,0.03
2021-08-19 21:12:51.024,-0.18,0.02
2021-08-19 21:12:51.028,-0.18,0.025
2021-08-19 21:12:51.032,-0.195,0.025
2021-08-19 21:12:51.036,-0.225,0.055
2021-08-19 21:12:51.040,-0.26,0.08
2021-08-19 21:12:51.044,-0.255,0.075
2021-08-19 21:12:51.048,-0.3,0.095
2021-08-19 21:12:51.052,-0.335,0.09
2021-08-19 21:12:51.056,-0.375,0.09
2021-08-19 21:12:51.060,-0.39,0.09
2021-08-19 21:12:51.064,-0.41,0.09
2021-08-19 21:12:51.068,-0.425,0.065
2021-08-19 21:12:51.072,-0.42,0.07
2021-08-19 21:12:51.076,-0.43,0.055
2021-08-19 21:12:51.080,-0.42,0.065
2021-08-19 21:12:51.084,-0.445,0.06
2021-08-19 21:12:51.088,-0.425,0.055
2021-08-19 21:12:51.092,-0.43,0.03
2021-08-19 21:12:51.096,-0.405,0.03
2021-08-19 21:12:51.100,-0.4,0.03
2021-08-19 21:12:51.104,-0.395,0.02
2021-08-19 21:12:51.108,-0.375,0.01
2021-08-19 21:12:51.112,-0.37,0.0
2021-08-19 21:12:51.116,-0.375,0.015
2021-08-19 21:12:51.120,-0.355,0.035
2021-08-19 21:12:51.124,-0.36,0.035
2021-08-19 21:12:51.128,-0.335,0.02
2021-08-19 21:12:51.132,-0.305,0.015
2021-08-19 21:12:51.136,-0.315,-0.005
2021-08-19 21:12:51.140,-0.32,-0.015
2021-08-19 21:12:51.144,-0.295,-0.04
2021-08-19 21:12:51.148,-0.265,-0.035
2021-08-19 21:12:51.152,-0.29,-0.035
2021-08-19 21:12:51.156,-0.26,-0.06
2021-08-19 21:12:51.160,-0.225,-0.075
2021-08-19 21:12:51.164,-0.22,-0.08
2021-08-19 21:12:51.168,-0.225,-0.085
2021-08-19 21:12:51.172,-0.23,-0.105
2021-08-19 21:12:51.176,-0.23,-0.115
2021-08-19 21:12:51.180,-0.23,-0.095
2021-08-19 21:12:51.184,-0.22,-0.09
2021-08-19 21:12:51.188,-0.24,-0.08
2021-08-19 21:12:51.192,-0.23,-0.09
2021-08-19 21:12:51.196,-0.23,-0.085
2021-08-19 21:12:51.200,-0.22,-0.085
2021-08-19 21:12:51.204,-0.215,-0.11
2021-08-19 21:12:51.208,-0.205,-0.085
2021-08-19 21:12:51.212,-0.205,-0.08
2021-08-19 21:12:51.216,-0.195,-0.075
2021-08-19 21:12:51.220,-0.165,-0.07
2021-08-19 21:12:51.224,-0.125,-0.065
2021-08-19 21:12:51.228,-0.11,-0.075
2021-08-19 21:12:51.232,-0.045,-0.06
2021-08-19 21:12:51.236,0.055,-0.055
2021-08-19 21:12:51.240,0.14,-0.04
2021-08-19 21:12:51.244,0.16,-0.065
2021-08-19 21:12:51.248,0.18,-0.095
2021-08-19 21:12:51.252,0.225,-0.13
2021-08-19 21:12:51.256,0.24,-0.11
2021-08-19 21:12:51.260,0.225,-0.085
2021-08-19 21:12:51.264,0.19,-0.145
2021-08-19 21:12:51.268,0.265,-0.205
2021-08-19 21:12:51.272,0.49,-0.355
2021-08-19 21:12:51.276,0.785,-0.6
2021-08-19 21:12:51.280,0.965,-0.84
2021-08-19 21:12:51.284,0.86,-0.98
2021-08-19 21:12:51.288,0.465,-0.98
2021-08-19 21:12:51.292,0.0,-0.735
2021-08-19 21:12:51.296,-0.29,-0.45
2021-08-19 21:12:51.300,-0.4,-0.25
2021-08-19 21:12:51.304,-0.445,-0.16
2021-08-19 21:12:51.308,-0.455,-0.065
2021-08-19 21:12:51.312,-0.46,0.015
2021-08-19 21:12:51.316,-0.48,0.04
2021-08-19 21:12:51.320,-0.51,0.06
2021-08-19 21:12:51.324,-0.53,0.055
2021-08-19 21:12:51.328,-0.53,0.01
2021-08-19 21:12:51.332,-0.54,0.01
2021-08-19 21:12:51.336,-0.54,-0.015
2021-08-19 21:12:51.340,-0.515,-0.005
2021-08-19 21:12:51.344,-0.515,-0.01
2021-08-19 21:12:51.348,-0.51,-0.02
2021-08-19 21:12:51.352,-0.505,-0.01
2021-08-19 21:12:51.356,-0.485,0.0
2021-08-19 21:12:51.360,-0.46,-0.015
2021-08-19 21:12:51.364,-0.445,-0.025
2021-08-19 21:12:51.368,-0.425,0.01
2021-08-19 21:12:51.372,-0.39,0.0
2021-08-19 21:12:51.376,-0.37,-0.005
2021-08-19 21:12:51.380,-0.355,0.0
2021-08-19 21:12:51.384,-0.365,0.01
2021-08-19 21:12:51.388,-0.38,-0.005
2021-08-19 21:12:51.392,-0.395,-0.01
2021-08-19 21:12:51.396,-0.4,-0.03
2021-08-19 21:12:51.400,-0.4,-0.05
2021-08-19 21:12:51.404,-0.395,-0.08
2021-08-19 21:12:51.408,-0.415,-0.1
2021-08-19 21:12:51.412,-0.42,-0.095
2021-08-19 21:12:51.416,-0.4,-0.1
2021-08-19 21:12:51.420,-0.395,-0.085
2021-08-19 21:12:51.424,-0.4,-0.095
2021-08-19 21:12:51.428,-0.435,-0.095
2021-08-19 21:12:51.432,-0.425,-0.065
2021-08-19 21:12:51.436,-0.43,-0.09
2021-08-19 21:12:51.440,-0.445,-0.08
2021-08-19 21:12:51.444,-0.48,-0.065
2021-08-19 21:12:51.448,-0.515,-0.05
2021-08-19 21:12:51.452,-0.52,-0.03
2021-08-19 21:12:51.456,-0.51,-0.04
2021-08-19 21:12:51.460,-0.515,-0.035
2021-08-19 21:12:51.464,-0.505,-0.06
2021-08-19 21:12:51.468,-0.51,-0.06
2021-08-19 21:12:51.472,-0.49,-0.055
2021-08-19 21:12:51.476,-0.495,-0.065
2021-08-19 21:12:51.480,-0.49,-0.08
2021-08-19 21:12:51.484,-0.505,-0.1
2021-08-19 21:12:51.488,-0.48,-0.11
2021-08-19 21:12:51.492,-0.48,-0.115
2021-08-19 21:12:51.496,-0.475,-0.12
2021-08-19 21:12:51.500,-0.46,-0.145
2021-08-19 21:12:51.504,-0.475,-0.16
2021-08-19 21:12:51.508,-0.475,-0.165
2021-08-19 21:12:51.512,-0.48,-0.16
2021-08-19 21:12:51.516,-0.46,-0.185
2021-08-19 21:12:51.520,-0.44,-0.2
2021-08-19 21:12:51.524,-0.42,-0.19
2021-08-19 21:12:51.528,-0.415,-0.195
2021-08-19 21:12:51.532,-0.395,-0.2
2021-08-19 21:12:51.536,-0.38,-0.21
2021-08-19 21:12:51.540,-0.385,-0.2
2021-08-19 21:12:51.544,-0.365,-0.19
2021-08-19 21:12:51.548,-0.335,-0.195
2021-08-19 21:12:51.552,-0.33,-0.2
2021-08-19 21:12:51.556,-0.305,-0.155
2021-08-19 21:12:51.560,-0.295,-0.17
2021-08-19 21:12:51.564,-0.27,-0.18
2021-08-19 21:12:51.568,-0.235,-0.18
2021-08-19 21:12:51.572,-0.195,-0.18
2021-08-19 21:12:51.576,-0.18,-0.17
2021-08-19 21:12:51.580,-0.21,-0.13
2021-08-19 21:12:51.584,-0.18,-0.12
2021-08-19 21:12:51.588,-0.17,-0.115
2021-08-19 21:12:51.592,-0.175,-0.105
2021-08-19 21:12:51.596,-0.165,-0.11
2021-08-19 21:12:51.600,-0.155,-0.08
2021-08-19 21:12:51.604,-0.165,-0.07
2021-08-19 21:12:51.608,-0.155,-0.07
2021-08-19 21:12:51.612,-0.16,-0.055
2021-08-19 21:12:51.616,-0.145,-0.06
2021-08-19 21:12:51.620,-0.105,-0.055
2021-08-19 21:12:51.624,-0.125,-0.035
2021-08-19 21:12:51.628,-0.12,-0.01
2021-08-19 21:12:51.632,-0.115,0.0
2021-08-19 21:12:51.636,-0.12,-0.01
2021-08-19 21:12:51.640,-0.16,0.005
2021-08-19 21:12:51.644,-0.175,0.0
2021-08-19 21:12:51.648,-0.19,-0.015
2021-08-19 21:12:51.652,-0.24,-0.04
2021-08-19 21:12:51.656,-0.25,-0.05
2021-08-19 21:12:51.660,-0.265,-0.06
2021-08-19 21:12:51.664,-0.255,-0.085
2021-08-19 21:12:51.668,-0.25,-0.1
2021-08-19 21:12:51.672,-0.265,-0.105
2021-08-19 21:12:51.676,-0.23,-0.1
2021-08-19 21:12:51.680,-0.245,-0.105
2021-08-19 21:12:51.684,-0.235,-0.115
2021-08-19 21:12:51.688,-0.225,-0.125
2021-08-19 21:12:51.692,-0.235,-0.125
2021-08-19 21:12:51.696,-0.235,-0.125
2021-08-19 21:12:51.700,-0.24,-0.14
2021-08-19 21:12:51.704,-0.225,-0.13
2021-08-19 21:12:51.708,-0.22,-0.115
2021-08-19 21:12:51.712,-0.245,-0.135
2021-08-19 21:12:51.716,-0.245,-0.12
2021-08-19 21:12:51.720,-0.255,-0.14
2021-08-19 21:12:51.724,-0.255,-0.135
2021-08-19 21:12:51.728,-0.265,-0.155
2021-08-19 21:12:51.732,-0.255,-0.15
2021-08-19 21:12:51.736,-0.25,-0.155
2021-08-19 21:12:51.740,-0.245,-0.165
2021-08-19 21:12:51.744,-0.22,-0.16
2021-08-19 21:12:51.748,-0.18,-0.16
2021-08-19 21:12:51.752,-0.1,-0.19
2021-08-19 21:12:51.756,-0.02,-0.195
2021-08-19 21:12:51.760,0.04,-0.18
2021-08-19 21:12:51.764,0.13,-0.22
2021-08-19 21:12:51.768,0.185,-0.25
2021-08-19 21:12:51.772,0.215,-0.295
2021-08-19 21:12:51.776,0.255,-0.285
2021-08-19 21:12:51.780,0.285,-0.305
2021-08-19 21:12:51.784,0.265,-0.325
2021-08-19 21:12:51.788,0.34,-0.39
2021-08-19 21:12:51.792,0.56,-0.515
2021-08-19 21:12:51.796,0.875,-0.695
2021-08-19 21:12:51.800,1.11,-0.965
2021-08-19 21:12:51.804,1.135,-1.115
2021-08-19 21:12:51.808,0.845,-1.145
2021-08-19 21:12:51.812,0.355,-0.91
2021-08-19 21:12:51.816,-0.015,-0.565
2021-08-19 21:12:51.820,-0.18,-0.28
2021-08-19 21:12:51.824,-0.26,-0.12
2021-08-19 21:12:51.828,-0.305,-0.03
2021-08-19 21:12:51.832,-0.315,0.065
2021-08-19 21:12:51.836,-0.35,0.09
2021-08-19 21:12:51.840,-0.395,0.12
2021-08-19 21:12:51.844,-0.41,0.13
2021-08-19 21:12:51.848,-0.45,0.125
2021-08-19 21:12:51.852,-0.48,0.105
2021-08-19 21:12:51.856,-0.47,0.095
2021-08-19 21:12:51.860,-0.45,0.08
2021-08-19 21:12:51.864,-0.455,0.08
2021-08-19 21:12:51.868,-0.445,0.06
2021-08-19 21:12:51.872,-0.455,0.05
2021-08-19 21:12:51.876,-0.445,0.025
2021-08-19 21:12:51.880,-0.455,0.02
2021-08-19 21:12:51.884,-0.455,-0.01
2021-08-19 21:12:51.888,-0.46,-0.005
2021-08-19 21:12:51.892,-0.455,-0.025
2021-08-19 21:12:51.896,-0.44,-0.045
2021-08-19 21:12:51.900,-0.43,-0.035
2021-08-19 21:12:51.904,-0.43,-0.055
2021-08-19 21:12:51.908,-0.42,-0.055
2021-08-19 21:12:51.912,-0.43,-0.04
2021-08-19 21:12:51.916,-0.425,-0.03
2021-08-19 21:12:51.920,-0.44,-0.045
2021-08-19 21:12:51.924,-0.455,-0.04
2021-08-19 21:12:51.928,-0.455,-0.05
2021-08-19 21:12:51.932,-0.45,-0.06
2021-08-19 21:12:51.936,-0.46,-0.07
2021-08-19 21:12:51.940,-0.48,-0.08
2021-08-19 21:12:51.944,-0.455,-0.07
2021-08-19 21:12:51.948,-0.46,-0.045
2021-08-19 21:12:51.952,-0.475,-0.08
2021-08-19 21:12:51.956,-0.46,-0.085
2021-08-19 21:12:51.960,-0.465,-0.085
2021-08-19 21:12:51.964,-0.43,-0.065
2021-08-19 21:12:51.968,-0.42,-0.075
2021-08-19 21:12:51.972,-0.41,-0.06
2021-08-19 21:12:51.976,-0.42,-0.085
2021-08-19 21:12:51.980,-0.38,-0.08
2021-08-19 21:12:51.984,-0.375,-0.055
2021-08-19 21:12:51.988,-0.355,-0.08
2021-08-19 21:12:51.992,-0.35,-0.08
2021-08-19 21:12:51.996,-0.335,-0.075
2021-08-19 21:12:52.000,-0.32,-0.045
2021-08-19 21:12:52.004,-0.31,-0.05
2021-08-19 21:12:52.008,-0.27,-0.035
2021-08-19 21:12:52.012,-0.275,-0.055
2021-08-19 21:12:52.016,-0.26,-0.03
2021-08-19 21:12:52.020,-0.23,-0.06
2021-08-19 21:12:52.024,-0.225,-0.065
2021-08-19 21:12:52.028,-0.21,-0.055
2021-08-19 21:12:52.032,-0.23,-0.04
2021-08-19 21:12:52.036,-0.245,-0.035
2021-08-19 21:12:52.040,-0.27,-0.015
2021-08-19 21:12:52.044,-0.255,-0.03
2021-08-19 21:12:52.048,-0.32,0.0
2021-08-19 21:12:52.052,-0.32,-0.025
2021-08-19 21:12:52.056,-0.36,-0.015
2021-08-19 21:12:52.060,-0.375,-0.015
2021-08-19 21:12:52.064,-0.39,-0.02
2021-08-19 21:12:52.068,-0.36,-0.025
2021-08-19 21:12:52.072,-0.335,-0.045
2021-08-19 21:12:52.076,-0.32,-0.045
2021-08-19 21:12:52.080,-0.29,-0.065
2021-08-19 21:12:52.084,-0.29,-0.08
2021-08-19 21:12:52.088,-0.265,-0.07
2021-08-19 21:12:52.092,-0.275,-0.085
2021-08-19 21:12:52.096,-0.265,-0.08
2021-08-19 21:12:52.100,-0.26,-0.115
2021-08-19 21:12:52.104,-0.27,-0.115
2021-08-19 21:12:52.108,-0.28,-0.11
2021-08-19 21:12:52.112,-0.275,-0.125
2021-08-19 21:12:52.116,-0.265,-0.12
2021-08-19 21:12:52.120,-0.255,-0.115
2021-08-19 21:12:52.124,-0.25,-0.09
2021-08-19 21:12:52.128,-0.24,-0.13
2021-08-19 21:12:52.132,-0.25,-0.14
2021-08-19 21:12:52.136,-0.24,-0.125
2021-08-19 21:12:52.140,-0.235,-0.13
2021-08-19 21:12:52.144,-0.245,-0.115
2021-08-19 21:12:52.148,-0.25,-0.105
2021-08-19 21:12:52.152,-0.25,-0.115
2021-08-19 21:12:52.156,-0.24,-0.105
2021-08-19 21:12:52.160,-0.24,-0.09
2021-08-19 21:12:52.164,-0.235,-0.095
2021-08-19 21:12:52.168,-0.23,-0.085
2021-08-19 21:12:52.172,-0.235,-0.095
2021-08-19 21:12:52.176,-0.195,-0.085
2021-08-19 21:12:52.180,-0.215,-0.08
2021-08-19 21:12:52.184,-0.23,-0.085
2021-08-19 21:12:52.188,-0.21,-0.1
2021-08-19 21:12:52.192,-0.18,-0.08
2021-08-19 21:12:52.196,-0.2,-0.09
2021-08-19 21:12:52.200,-0.185,-0.085
2021-08-19 21:12:52.204,-0.175,-0.085
2021-08-19 21:12:52.208,-0.16,-0.07
2021-08-19 21:12:52.212,-0.13,-0.04
2021-08-19 21:12:52.216,-0.085,-0.06
2021-08-19 21:12:52.220,-0.01,-0.055
2021-08-19 21:12:52.224,0.06,-0.065
2021-08-19 21:12:52.228,0.115,-0.04
2021-08-19 21:12:52.232,0.16,-0.115
2021-08-19 21:12:52.236,0.18,-0.125
2021-08-19 21:12:52.240,0.18,-0.155
2021-08-19 21:12:52.244,0.175,-0.135
2021-08-19 21:12:52.248,0.14,-0.14
2021-08-19 21:12:52.252,0.16,-0.215
2021-08-19 21:12:52.256,0.305,-0.335
2021-08-19 21:12:52.260,0.56,-0.51
2021-08-19 21:12:52.264,0.815,-0.78
2021-08-19 21:12:52.268,0.93,-1.02
2021-08-19 21:12:52.272,0.76,-1.11
2021-08-19 21:12:52.276,0.34,-0.99
2021-08-19 21:12:52.280,-0.095,-0.64
2021-08-19 21:12:52.284,-0.36,-0.34
2021-08-19 21:12:52.288,-0.485,-0.15
2021-08-19 21:12:52.292,-0.515,-0.04
2021-08-19 21:12:52.296,-0.52,0.045
2021-08-19 21:12:52.300,-0.52,0.08
2021-08-19 21:12:52.304,-0.53,0.07
2021-08-19 21:12:52.308,-0.53,0.1
2021-08-19 21:12:52.312,-0.56,0.065
2021-08-19 21:12:52.316,-0.555,0.035
2021-08-19 21:12:52.320,-0.525,0.025
2021-08-19 21:12:52.324,-0.515,0.015
2021-08-19 21:12:52.328,-0.515,-0.005
2021-08-19 21:12:52.332,-0.53,-0.045
2021-08-19 21:12:52.336,-0.505,-0.06
2021-08-19 21:12:52.340,-0.5,-0.06
2021-08-19 21:12:52.344,-0.5,-0.07
2021-08-19 21:12:52.348,-0.495,-0.1
2021-08-19 21:12:52.352,-0.485,-0.115
2021-08-19 21:12:52.356,-0.47,-0.095
2021-08-19 21:12:52.360,-0.43,-0.105
2021-08-19 21:12:52.364,-0.41,-0.085
2021-08-19 21:12:52.368,-0.38,-0.085
2021-08-19 21:12:52.372,-0.385,-0.07
2021-08-19 21:12:52.376,-0.415,-0.07
2021-08-19 21:12:52.380,-0.405,-0.055
2021-08-19 21:12:52.384,-0.415,-0.045
2021-08-19 21:12:52.388,-0.41,-0.015
2021-08-19 21:12:52.392,-0.405,-0.01
2021-08-19 21:12:52.396,-0.4,-0.03
2021-08-19 21:12:52.400,-0.425,0.0
2021-08-19 21:12:52.404,-0.435,-0.01
2021-08-19 21:12:52.408,-0.435,-0.015
2021-08-19 21:12:52.412,-0.42,-0.03
2021-08-19 21:12:52.416,-0.43,-0.01
2021-08-19 21:12:52.420,-0.425,-0.01
2021-08-19 21:12:52.424,-0.415,0.0
2021-08-19 21:12:52.428,-0.415,0.03
2021-08-19 21:12:52.432,-0.405,0.025
2021-08-19 21:12:52.436,-0.4,0.04
2021-08-19 21:12:52.440,-0.395,0.05
2021-08-19 21:12:52.444,-0.4,0.055
2021-08-19 21:12:52.448,-0.39,0.075
2021-08-19 21:12:52.452,-0.385,0.045
2021-08-19 21:12:52.456,-0.375,0.055
2021-08-19 21:12:52.460,-0.36,0.07
2021-08-19 21:12:52.464,-0.37,0.07
2021-08-19 21:12:52.468,-0.39,0.085
2021-08-19 21:12:52.472,-0.415,0.075
2021-08-19 21:12:52.476,-0.425,0.095
2021-08-19 21:12:52.480,-0.425,0.09
2021-08-19 21:12:52.484,-0.43,0.035
2021-08-19 21:12:52.488,-0.415,0.04
2021-08-19 21:12:52.492,-0.43,0.02
2021-08-19 21:12:52.496,-0.415,0.01
2021-08-19 21:12:52.500,-0.385,-0.005
2021-08-19 21:12:52.504,-0.385,0.0
2021-08-19 21:12:52.508,-0.38,0.0
2021-08-19 21:12:52.512,-0.37,-0.015
2021-08-19 21:12:52.516,-0.35,-0.035
2021-08-19 21:12:52.520,-0.345,-0.04
2021-08-19 21:12:52.524,-0.335,-0.04
2021-08-19 21:12:52.528,-0.32,-0.04
2021-08-19 21:12:52.532,-0.31,-0.035
2021-08-19 21:12:52.536,-0.305,-0.065
2021-08-19 21:12:52.540,-0.305,-0.045
2021-08-19 21:12:52.544,-0.305,-0.05
2021-08-19 21:12:52.548,-0.295,-0.04
2021-08-19 21:12:52.552,-0.28,-0.035
2021-08-19 21:12:52.556,-0.29,-0.025
2021-08-19 21:12:52.560,-0.245,-0.04
2021-08-19 21:12:52.564,-0.23,-0.02
2021-08-19 21:12:52.568,-0.225,-0.015
2021-08-19 21:12:52.572,-0.215,0.0
2021-08-19 21:12:52.576,-0.215,0.01
2021-08-19 21:12:52.580,-0.2,0.005
2021-08-19 21:12:52.584,-0.21,0.03
2021-08-19 21:12:52.588,-0.205,0.02
2021-08-19 21:12:52.592,-0.19,0.035
2021-08-19 21:12:52.596,-0.215,0.06
2021-08-19 21:12:52.600,-0.215,0.06
2021-08-19 21:12:52.604,-0.25,0.07
2021-08-19 21:12:52.608,-0.235,0.045
2021-08-19 21:12:52.612,-0.245,0.06
2021-08-19 21:12:52.616,-0.255,0.045
2021-08-19 21:12:52.620,-0.24,0.045
2021-08-19 21:12:52.624,-0.235,0.04
2021-08-19 21:12:52.628,-0.23,0.03
2021-08-19 21:12:52.632,-0.2,0.055
2021-08-19 21:12:52.636,-0.2,0.04
2021-08-19 21:12:52.640,-0.21,0.04
2021-08-19 21:12:52.644,-0.215,0.04
2021-08-19 21:12:52.648,-0.2,0.035
2021-08-19 21:12:52.652,-0.18,0.055
2021-08-19 21:12:52.656,-0.18,0.065
2021-08-19 21:12:52.660,-0.16,0.06
2021-08-19 21:12:52.664,-0.14,0.065
2021-08-19 21:12:52.668,-0.085,0.075
2021-08-19 21:12:52.672,-0.045,0.085
2021-08-19 21:12:52.676,0.01,0.055
2021-08-19 21:12:52.680,0.05,0.025
2021-08-19 21:12:52.684,0.08,-0.015
2021-08-19 21:12:52.688,0.07,-0.09
2021-08-19 21:12:52.692,0.09,-0.14
2021-08-19 21:12:52.696,0.07,-0.15
2021-08-19 21:12:52.700,0.055,-0.15
2021-08-19 21:12:52.704,0.035,-0.24
2021-08-19 21:12:52.708,0.115,-0.325
2021-08-19 21:12:52.712,0.35,-0.495
2021-08-19 21:12:52.716,0.65,-0.73
2021-08-19 21:12:52.720,0.905,-0.985
2021-08-19 21:12:52.724,0.965,-1.23
2021-08-19 21:12:52.728,0.775,-1.295
2021-08-19 21:12:52.732,0.335,-1.095
2021-08-19 21:12:52.736,-0.095,-0.73
2021-08-19 21:12:52.740,-0.355,-0.405
2021-08-19 21:12:52.744,-0.43,-0.195
2021-08-19 21:12:52.748,-0.45,-0.075
2021-08-19 21:12:52.752,-0.475,-0.005
2021-08-19 21:12:52.756,-0.46,0.015
2021-08-19 21:12:52.760,-0.48,0.025
2021-08-19 21:12:52.764,-0.455,0.045
2021-08-19 21:12:52.768,-0.47,0.02
2021-08-19 21:12:52.772,-0.46,0.005
2021-08-19 21:12:52.776,-0.425,0.0
2021-08-19 21:12:52.780,-0.425,0.005
2021-08-19 21:12:52.784,-0.415,-0.005
2021-08-19 21:12:52.788,-0.41,-0.005
2021-08-19 21:12:52.792,-0.39,0.01
2021-08-19 21:12:52.796,-0.405,0.0
2021-08-19 21:12:52.800,-0.41,0.03
2021-08-19 21:12:52.804,-0.415,0.05
2021-08-19 21:12:52.808,-0.425,0.05
2021-08-19 21:12:52.812,-0.42,0.065
2021-08-19 21:12:52.816,-0.44,0.05
2021-08-19 21:12:52.820,-0.425,0.07
2021-08-19 21:12:52.824,-0.445,0.06
2021-08-19 21:12:52.828,-0.44,0.075
2021-08-19 21:12:52.832,-0.44,0.06
2021-08-19 21:12:52.836,-0.445,0.07
2021-08-19 21:12:52.840,-0.47,0.08
2021-08-19 21:12:52.844,-0.47,0.05
2021-08-19 21:12:52.848,-0.48,0.055
2021-08-19 21:12:52.852,-0.49,0.075
2021-08-19 21:12:52.856,-0.49,0.085
2021-08-19 21:12:52.860,-0.475,0.095
2021-08-19 21:12:52.864,-0.475,0.09
2021-08-19 21:12:52.868,-0.485,0.1
2021-08-19 21:12:52.872,-0.525,0.095
2021-08-19 21:12:52.876,-0.51,0.125
2021-08-19 21:12:52.880,-0.525,0.125
2021-08-19 21:12:52.884,-0.565,0.135
2021-08-19 21:12:52.888,-0.55,0.115
2021-08-19 21:12:52.892,-0.53,0.105
2021-08-19 21:12:52.896,-0.5,0.115
2021-08-19 21:12:52.900,-0.49,0.1
2021-08-19 21:12:52.904,-0.465,0.095
2021-08-19 21:12:52.908,-0.435,0.07
2021-08-19 21:12:52.912,-0.42,0.07
2021-08-19 21:12:52.916,-0.4,0.06
2021-08-19 21:12:52.920,-0.4,0.035
2021-08-19 21:12:52.924,-0.395,0.025
2021-08-19 21:12:52.928,-0.4,0.005
2021-08-19 21:12:52.932,-0.385,-0.025
2021-08-19 21:12:52.936,-0.375,-0.035
2021-08-19 21:12:52.940,-0.365,-0.065
2021-08-19 21:12:52.944,-0.38,-0.085
2021-08-19 21:12:52.948,-0.37,-0.1
2021-08-19 21:12:52.952,-0.385,-0.11
2021-08-19 21:12:52.956,-0.375,-0.12
2021-08-19 21:12:52.960,-0.335,-0.12
2021-08-19 21:12:52.964,-0.32,-0.14
2021-08-19 21:12:52.968,-0.31,-0.135
2021-08-19 21:12:52.972,-0.285,-0.155
2021-08-19 21:12:52.976,-0.275,-0.145
2021-08-19 21:12:52.980,-0.26,-0.145
2021-08-19 21:12:52.984,-0.26,-0.16
2021-08-19 21:12:52.988,-0.25,-0.135
2021-08-19 21:12:52.992,-0.225,-0.135
2021-08-19 21:12:52.996,-0.24,-0.14
2021-08-19 21:12:53.000,-0.22,-0.105
2021-08-19 21:12:53.004,-0.22,-0.105
2021-08-19 21:12:53.008,-0.205,-0.09
2021-08-19 21:12:53.012,-0.205,-0.055
2021-08-19 21:12:53.016,-0.22,-0.06
2021-08-19 21:12:53.020,-0.225,-0.07
2021-08-19 21:12:53.024,-0.225,-0.05
2021-08-19 21:12:53.028,-0.22,-0.04
2021-08-19 21:12:53.032,-0.22,-0.05
2021-08-19 21:12:53.036,-0.225,-0.035
2021-08-19 21:12:53.040,-0.25,-0.025
2021-08-19 21:12:53.044,-0.235,-0.03
2021-08-19 21:12:53.048,-0.285,-0.04
2021-08-19 21:12:53.052,-0.275,-0.02
2021-08-19 21:12:53.056,-0.3,0.01
2021-08-19 21:12:53.060,-0.28,0.01
2021-08-19 21:12:53.064,-0.3,-0.005
2021-08-19 21:12:53.068,-0.31,0.0
2021-08-19 21:12:53.072,-0.305,0.0
2021-08-19 21:12:53.076,-0.33,0.02
2021-08-19 21:12:53.080,-0.315,0.01
2021-08-19 21:12:53.084,-0.315,0.03
2021-08-19 21:12:53.088,-0.36,0.06
2021-08-19 21:12:53.092,-0.35,0.04
2021-08-19 21:12:53.096,-0.385,0.04
2021-08-19 21:12:53.100,-0.395,0.035
2021-08-19 21:12:53.104,-0.43,0.05
2021-08-19 21:12:53.108,-0.42,0.01
2021-08-19 21:12:53.112,-0.415,0.0
2021-08-19 21:12:53.116,-0.4,0.0
2021-08-19 21:12:53.120,-0.38,-0.02
2021-08-19 21:12:53.124,-0.335,-0.03
2021-08-19 21:12:53.128,-0.35,-0.02
2021-08-19 21:12:53.132,-0.32,-0.02
2021-08-19 21:12:53.136,-0.325,-0.02
2021-08-19 21:12:53.140,-0.3,-0.03
2021-08-19 21:12:53.144,-0.3,-0.07
2021-08-19 21:12:53.148,-0.31,-0.05
2021-08-19 21:12:53.152,-0.305,-0.08
2021-08-19 21:12:53.156,-0.31,-0.095
2021-08-19 21:12:53.160,-0.32,-0.105
2021-08-19 21:12:53.164,-0.33,-0.11
2021-08-19 21:12:53.168,-0.345,-0.105
2021-08-19 21:12:53.172,-0.345,-0.11
2021-08-19 21:12:53.176,-0.315,-0.12
2021-08-19 21:12:53.180,-0.305,-0.115
2021-08-19 21:12:53.184,-0.285,-0.145
2021-08-19 21:12:53.188,-0.285,-0.135
2021-08-19 21:12:53.192,-0.27,-0.135
2021-08-19 21:12:53.196,-0.255,-0.125
2021-08-19 21:12:53.200,-0.225,-0.135
2021-08-19 21:12:53.204,-0.19,-0.145
2021-08-19 21:12:53.208,-0.11,-0.13
2021-08-19 21:12:53.212,-0.045,-0.135
2021-08-19 21:12:53.216,0.04,-0.145
2021-08-19 21:12:53.220,0.11,-0.155
2021-08-19 21:12:53.224,0.16,-0.19
2021-08-19 21:12:53.228,0.2,-0.21
2021-08-19 21:12:53.232,0.21,-0.235
2021-08-19 21:12:53.236,0.2,-0.25
2021-08-19 21:12:53.240,0.165,-0.25
2021-08-19 21:12:53.244,0.215,-0.285
2021-08-19 21:12:53.248,0.38,-0.42
2021-08-19 21:12:53.252,0.67,-0.62
2021-08-19 21:12:53.256,0.925,-0.865
2021-08-19 21:12:53.260,1.02,-1.075
2021-08-19 21:12:53.264,0.8,-1.205
2021-08-19 21:12:53.268,0.375,-1.055
2021-08-19 21:12:53.272,-0.045,-0.7
2021-08-19 21:12:53.276,-0.265,-0.365
2021-08-19 21:12:53.280,-0.365,-0.185
2021-08-19 21:12:53.284,-0.41,-0.035
2021-08-19 21:12:53.288,-0.44,0.06
2021-08-19 21:12:53.292,-0.465,0.11
2021-08-19 21:12:53.296,-0.505,0.125
2021-08-19 21:12:53.300,-0.52,0.13
2021-08-19 21:12:53.304,-0.535,0.15
2021-08-19 21:12:53.308,-0.55,0.14
2021-08-19 21:12:53.312,-0.575,0.105
2021-08-19 21:12:53.316,-0.585,0.09
2021-08-19 21:12:53.320,-0.575,0.06
2021-08-19 21:12:53.324,-0.58,0.05
2021-08-19 21:12:53.328,-0.59,0.045
2021-08-19 21:12:53.332,-0.53,0.005
2021-08-19 21:12:53.336,-0.52,0.025
2021-08-19 21:12:53.340,-0.51,0.0
2021-08-19 21:12:53.344,-0.505,0.0
2021-08-19 21:12:53.348,-0.49,0.0
2021-08-19 21:12:53.352,-0.475,0.0
2021-08-19 21:12:53.356,-0.495,-0.01
2021-08-19 21:12:53.360,-0.5,-0.01
2021-08-19 21:12:53.364,-0.51,-0.035
2021-08-19 21:12:53.368,-0.505,-0.05
2021-08-19 21:12:53.372,-0.5,-0.05
2021-08-19 21:12:53.376,-0.505,-0.035
2021-08-19 21:12:53.380,-0.505,-0.05
2021-08-19 21:12:53.384,-0.49,-0.04
2021-08-19 21:12:53.388,-0.495,-0.065
2021-08-19 21:12:53.392,-0.495,-0.06
2021-08-19 21:12:53.396,-0.49,-0.05
2021-08-19 21:12:53.400,-0.47,-0.04
2021-08-19 21:12:53.404,-0.465,-0.06
2021-08-19 21:12:53.408,-0.455,-0.045
2021-08-19 21:12:53.412,-0.445,-0.055
2021-08-19 21:12:53.416,-0.43,-0.04
2021-08-19 21:12:53.420,-0.435,-0.04
2021-08-19 21:12:53.424,-0.42,-0.035
2021-08-19 21:12:53.428,-0.41,-0.035
2021-08-19 21:12:53.432,-0.42,-0.035
2021-08-19 21:12:53.436,-0.41,-0.035
2021-08-19 21:12:53.440,-0.4,-0.02
2021-08-19 21:12:53.444,-0.39,-0.025
2021-08-19 21:12:53.448,-0.375,-0.025
2021-08-19 21:12:53.452,-0.35,-0.01
2021-08-19 21:12:53.456,-0.355,-0.03
2021-08-19 21:12:53.460,-0.355,-0.03
2021-08-19 21:12:53.464,-0.35,-0.02
2021-08-19 21:12:53.468,-0.345,-0.02
2021-08-19 21:12:53.472,-0.335,-0.04
2021-08-19 21:12:53.476,-0.34,-0.015
2021-08-19 21:12:53.480,-0.315,-0.03
2021-08-19 21:12:53.484,-0.31,-0.01
2021-08-19 21:12:53.488,-0.32,0.0
2021-08-19 21:12:53.492,-0.335,0.0
2021-08-19 21:12:53.496,-0.325,0.0
2021-08-19 21:12:53.500,-0.315,0.005
2021-08-19 21:12:53.504,-0.335,0.01
2021-08-19 21:12:53.508,-0.355,0.0
2021-08-19 21:12:53.512,-0.36,0.015
2021-08-19 21:12:53.516,-0.35,0.005
2021-08-19 21:12:53.520,-0.35,0.0
2021-08-19 21:12:53.524,-0.355,-0.015
2021-08-19 21:12:53.528,-0.35,-0.02
2021-08-19 21:12:53.532,-0.36,-0.035
2021-08-19 21:12:53.536,-0.345,-0.025
2021-08-19 21:12:53.540,-0.34,-0.02
2021-08-19 21:12:53.544,-0.345,-0.04
2021-08-19 21:12:53.548,-0.34,-0.03
2021-08-19 21:12:53.552,-0.34,-0.06
2021-08-19 21:12:53.556,-0.33,-0.045
2021-08-19 21:12:53.560,-0.32,-0.065
2021-08-19 21:12:53.564,-0.3,-0.06
2021-08-19 21:12:53.568,-0.265,-0.08
2021-08-19 21:12:53.572,-0.28,-0.08
2021-08-19 21:12:53.576,-0.285,-0.055
2021-08-19 21:12:53.580,-0.275,-0.065
2021-08-19 21:12:53.584,-0.26,-0.04
2021-08-19 21:12:53.588,-0.26,-0.03
2021-08-19 21:12:53.592,-0.24,-0.04
2021-08-19 21:12:53.596,-0.265,-0.055
2021-08-19 21:12:53.600,-0.265,-0.065
2021-08-19 21:12:53.604,-0.255,-0.035
2021-08-19 21:12:53.608,-0.295,-0.05
2021-08-19 21:12:53.612,-0.275,-0.06
2021-08-19 21:12:53.616,-0.25,-0.04
2021-08-19 21:12:53.620,-0.26,-0.025
2021-08-19 21:12:53.624,-0.265,-0.02
2021-08-19 21:12:53.628,-0.255,-0.04
2021-08-19 21:12:53.632,-0.24,-0.025
2021-08-19 21:12:53.636,-0.25,-0.03
2021-08-19 21:12:53.640,-0.27,-0.02
2021-08-19 21:12:53.644,-0.265,-0.005
2021-08-19 21:12:53.648,-0.255,0.0
2021-08-19 21:12:53.652,-0.26,-0.02
2021-08-19 21:12:53.656,-0.255,-0.01
2021-08-19 21:12:53.660,-0.26,-0.02
2021-08-19 21:12:53.664,-0.25,-0.005
2021-08-19 21:12:53.668,-0.255,-0.025
2021-08-19 21:12:53.672,-0.26,-0.005
2021-08-19 21:12:53.676,-0.255,0.01
2021-08-19 21:12:53.680,-0.265,0.005
2021-08-19 21:12:53.684,-0.265,0.02
2021-08-19 21:12:53.688,-0.245,0.005
2021-08-19 21:12:53.692,-0.24,0.03
2021-08-19 21:12:53.696,-0.24,0.03
2021-08-19 21:12:53.700,-0.26,0.055
2021-08-19 21:12:53.704,-0.265,0.07
2021-08-19 21:12:53.708,-0.27,0.095
2021-08-19 21:12:53.712,-0.27,0.12
2021-08-19 21:12:53.716,-0.305,0.1
2021-08-19 21:12:53.720,-0.325,0.105
2021-08-19 21:12:53.724,-0.345,0.1
2021-08-19 21:12:53.728,-0.31,0.095
2021-08-19 21:12:53.732,-0.27,0.095
2021-08-19 21:12:53.736,-0.21,0.085
2021-08-19 21:12:53.740,-0.1,0.06
2021-08-19 21:12:53.744,-0.045,0.055
2021-08-19 21:12:53.748,0.025,0.015
2021-08-19 21:12:53.752,0.02,-0.035
2021-08-19 21:12:53.756,0.065,-0.05
2021-08-19 21:12:53.760,0.07,-0.06
2021-08-19 21:12:53.764,0.055,-0.09
2021-08-19 21:12:53.768,0.05,-0.135
2021-08-19 21:12:53.772,0.19,-0.23
2021-08-19 21:12:53.776,0.435,-0.39
2021-08-19 21:12:53.780,0.73,-0.65
2021-08-19 21:12:53.784,0.935,-0.88
2021-08-19 21:12:53.788,0.89,-1.07
2021-08-19 21:12:53.792,0.56,-1.085
2021-08-19 21:12:53.796,0.12,-0.815
2021-08-19 21:12:53.800,-0.195,-0.45
2021-08-19 21:12:53.804,-0.33,-0.2
2021-08-19 21:12:53.808,-0.38,-0.06
2021-08-19 21:12:53.812,-0.395,0.06
2021-08-19 21:12:53.816,-0.39,0.12
2021-08-19 21:12:53.820,-0.385,0.15
2021-08-19 21:12:53.824,-0.435,0.16
2021-08-19 21:12:53.828,-0.44,0.14
2021-08-19 21:12:53.832,-0.46,0.14
2021-08-19 21:12:53.836,-0.44,0.12
2021-08-19 21:12:53.840,-0.42,0.09
2021-08-19 21:12:53.844,-0.435,0.095
2021-08-19 21:12:53.848,-0.435,0.1
2021-08-19 21:12:53.852,-0.45,0.085
2021-08-19 21:12:53.856,-0.45,0.11
2021-08-19 21:12:53.860,-0.44,0.09
2021-08-19 21:12:53.864,-0.475,0.1
2021-08-19 21:12:53.868,-0.48,0.1
2021-08-19 21:12:53.872,-0.47,0.105
2021-08-19 21:12:53.876,-0.48,0.1
2021-08-19 21:12:53.880,-0.5,0.095
2021-08-19 21:12:53.884,-0.49,0.105
2021-08-19 21:12:53.888,-0.5,0.12
2021-08-19 21:12:53.892,-0.495,0.145
2021-08-19 21:12:53.896,-0.49,0.13
2021-08-19 21:12:53.900,-0.49,0.15
2021-08-19 21:12:53.904,-0.48,0.13
2021-08-19 21:12:53.908,-0.51,0.17
2021-08-19 21:12:53.912,-0.51,0.155
2021-08-19 21:12:53.916,-0.515,0.18
2021-08-19 21:12:53.920,-0.545,0.18
2021-08-19 21:12:53.924,-0.56,0.17
2021-08-19 21:12:53.928,-0.55,0.16
2021-08-19 21:12:53.932,-0.56,0.165
2021-08-19 21:12:53.936,-0.575,0.2
2021-08-19 21:12:53.940,-0.59,0.18
2021-08-19 21:12:53.944,-0.58,0.14
2021-08-19 21:12:53.948,-0.61,0.135
2021-08-19 21:12:53.952,-0.58,0.135
2021-08-19 21:12:53.956,-0.56,0.12
2021-08-19 21:12:53.960,-0.56,0.12
2021-08-19 21:12:53.964,-0.555,0.115
2021-08-19 21:12:53.968,-0.54,0.095
2021-08-19 21:12:53.972,-0.56,0.07
2021-08-19 21:12:53.976,-0.55,0.07
2021-08-19 21:12:53.980,-0.55,0.09
2021-08-19 21:12:53.984,-0.56,0.055
2021-08-19 21:12:53.988,-0.51,0.035
2021-08-19 21:12:53.992,-0.51,0.03
2021-08-19 21:12:53.996,-0.49,0.025
2021-08-19 21:12:54.000,-0.47,0.02
2021-08-19 21:12:54.004,-0.43,0.015
2021-08-19 21:12:54.008,-0.425,0.005
2021-08-19 21:12:54.012,-0.425,-0.02
2021-08-19 21:12:54.016,-0.41,0.0
2021-08-19 21:12:54.020,-0.38,-0.005
2021-08-19 21:12:54.024,-0.36,-0.015
2021-08-19 21:12:54.028,-0.34,-0.025
2021-08-19 21:12:54.032,-0.305,-0.02
2021-08-19 21:12:54.036,-0.285,-0.01
2021-08-19 21:12:54.040,-0.29,-0.035
2021-08-19 21:12:54.044,-0.26,-0.035
2021-08-19 21:12:54.048,-0.26,-0.02
2021-08-19 21:12:54.052,-0.275,-0.01
2021-08-19 21:12:54.056,-0.3,0.0
2021-08-19 21:12:54.060,-0.285,0.0
2021-08-19 21:12:54.064,-0.31,-0.015
2021-08-19 21:12:54.068,-0.335,0.0
2021-08-19 21:12:54.072,-0.315,0.005
2021-08-19 21:12:54.076,-0.345,0.0
2021-08-19 21:12:54.080,-0.355,0.02
2021-08-19 21:12:54.084,-0.365,0.025
2021-08-19 21:12:54.088,-0.36,0.02
2021-08-19 21:12:54.092,-0.375,0.005
2021-08-19 21:12:54.096,-0.37,0.0
2021-08-19 21:12:54.100,-0.37,0.015
2021-08-19 21:12:54.104,-0.385,-0.015
2021-08-19 21:12:54.108,-0.385,0.0
2021-08-19 21:12:54.112,-0.355,-0.01
2021-08-19 21:12:54.116,-0.35,0.0
2021-08-19 21:12:54.120,-0.355,0.01
2021-08-19 21:12:54.124,-0.345,0.005
2021-08-19 21:12:54.128,-0.34,0.02
2021-08-19 21:12:54.132,-0.34,0.035
2021-08-19 21:12:54.136,-0.35,0.025
2021-08-19 21:12:54.140,-0.35,0.02
2021-08-19 21:12:54.144,-0.36,0.035
2021-08-19 21:12:54.148,-0.37,0.03
2021-08-19 21:12:54.152,-0.39,0.01
2021-08-19 21:12:54.156,-0.395,0.02
2021-08-19 21:12:54.160,-0.38,0.015
2021-08-19 21:12:54.164,-0.385,0.02
2021-08-19 21:12:54.168,-0.375,0.02
2021-08-19 21:12:54.172,-0.39,0.02
2021-08-19 21:12:54.176,-0.365,0.0
2021-08-19 21:12:54.180,-0.365,0.0
2021-08-19 21:12:54.184,-0.34,-0.02
2021-08-19 21:12:54.188,-0.355,-0.025
2021-08-19 21:12:54.192,-0.33,-0.03
2021-08-19 21:12:54.196,-0.34,-0.05
2021-08-19 21:12:54.200,-0.34,-0.04
2021-08-19 21:12:54.204,-0.355,-0.04
2021-08-19 21:12:54.208,-0.36,-0.04
2021-08-19 21:12:54.212,-0.36,-0.04
2021-08-19 21:12:54.216,-0.33,-0.04
2021-08-19 21:12:54.220,-0.315,-0.055
2021-08-19 21:12:54.224,-0.31,-0.05
2021-08-19 21:12:54.228,-0.29,-0.06
2021-08-19 21:12:54.232,-0.28,-0.04
2021-08-19 21:12:54.236,-0.25,-0.06
2021-08-19 21:12:54.240,-0.24,-0.055
2021-08-19 21:12:54.244,-0.2,-0.055
2021-08-19 21:12:54.248,-0.17,-0.055
2021-08-19 21:12:54.252,-0.09,-0.05
2021-08-19 21:12:54.256,-0.03,-0.04
2021-08-19 21:12:54.260,0.065,-0.035
2021-08-19 21:12:54.264,0.115,-0.055
2021-08-19 21:12:54.268,0.17,-0.09
2021-08-19 21:12:54.272,0.19,-0.105
2021-08-19 21:12:54.276,0.225,-0.13
2021-08-19 21:12:54.280,0.235,-0.13
2021-08-19 21:12:54.284,0.225,-0.15
2021-08-19 21:12:54.288,0.26,-0.21
2021-08-19 21:12:54.292,0.36,-0.29
2021-08-19 21:12:54.296,0.635,-0.45
2021-08-19 21:12:54.300,0.925,-0.675
2021-08-19 21:12:54.304,1.105,-0.9
2021-08-19 21:12:54.308,1.0,-1.085
2021-08-19 21:12:54.312,0.585,-1.02
2021-08-19 21:12:54.316,0.11,-0.725
2021-08-19 21:12:54.320,-0.185,-0.37
2021-08-19 21:12:54.324,-0.32,-0.175
2021-08-19 21:12:54.328,-0.4,-0.025
2021-08-19 21:12:54.332,-0.42,0.045
2021-08-19 21:12:54.336,-0.435,0.135
2021-08-19 21:12:54.340,-0.48,0.165
2021-08-19 21:12:54.344,-0.515,0.185
2021-08-19 21:12:54.348,-0.51,0.17
2021-08-19 21:12:54.352,-0.53,0.15
2021-08-19 21:12:54.356,-0.54,0.125
2021-08-19 21:12:54.360,-0.53,0.12
2021-08-19 21:12:54.364,-0.545,0.1
2021-08-19 21:12:54.368,-0.55,0.1
2021-08-19 21:12:54.372,-0.565,0.08
2021-08-19 21:12:54.376,-0.56,0.055
2021-08-19 21:12:54.380,-0.57,0.03
2021-08-19 21:12:54.384,-0.57,0.0
2021-08-19 21:12:54.388,-0.57,-0.03
2021-08-19 21:12:54.392,-0.56,-0.025
2021-08-19 21:12:54.396,-0.57,-0.03
2021-08-19 21:12:54.400,-0.56,-0.02
2021-08-19 21:12:54.404,-0.565,-0.025
2021-08-19 21:12:54.408,-0.56,-0.025
2021-08-19 21:12:54.412,-0.56,-0.03
2021-08-19 21:12:54.416,-0.565,-0.02
2021-08-19 21:12:54.420,-0.55,-0.05
2021-08-19 21:12:54.424,-0.57,-0.02
2021-08-19 21:12:54.428,-0.565,-0.04
2021-08-19 21:12:54.432,-0.56,-0.035
2021-08-19 21:12:54.436,-0.56,-0.055
2021-08-19 21:12:54.440,-0.54,-0.06
2021-08-19 21:12:54.444,-0.52,-0.045
2021-08-19 21:12:54.448,-0.525,-0.015
2021-08-19 21:12:54.452,-0.495,-0.045
2021-08-19 21:12:54.456,-0.475,-0.04
2021-08-19 21:12:54.460,-0.47,-0.05
2021-08-19 21:12:54.464,-0.45,-0.04
2021-08-19 21:12:54.468,-0.43,-0.045
2021-08-19 21:12:54.472,-0.425,-0.04
2021-08-19 21:12:54.476,-0.405,-0.035
2021-08-19 21:12:54.480,-0.4,-0.025
2021-08-19 21:12:54.484,-0.385,-0.02
2021-08-19 21:12:54.488,-0.39,-0.01
2021-08-19 21:12:54.492,-0.365,-0.01
2021-08-19 21:12:54.496,-0.365,0.0
2021-08-19 21:12:54.500,-0.35,0.0
2021-08-19 21:12:54.504,-0.35,-0.02
2021-08-19 21:12:54.508,-0.34,-0.005
2021-08-19 21:12:54.512,-0.35,-0.01
2021-08-19 21:12:54.516,-0.345,0.01
2021-08-19 21:12:54.520,-0.335,0.0
2021-08-19 21:12:54.524,-0.29,-0.025
2021-08-19 21:12:54.528,-0.305,-0.025
2021-08-19 21:12:54.532,-0.315,0.0
2021-08-19 21:12:54.536,-0.32,0.005
2021-08-19 21:12:54.540,-0.32,0.03
2021-08-19 21:12:54.544,-0.335,0.04
2021-08-19 21:12:54.548,-0.36,0.05
2021-08-19 21:12:54.552,-0.345,0.045
2021-08-19 21:12:54.556,-0.33,0.05
2021-08-19 21:12:54.560,-0.34,0.04
2021-08-19 21:12:54.564,-0.32,0.025
2021-08-19 21:12:54.568,-0.31,0.035
2021-08-19 21:12:54.572,-0.325,0.025
2021-08-19 21:12:54.576,-0.3,0.015
2021-08-19 21:12:54.580,-0.3,0.01
2021-08-19 21:12:54.584,-0.3,0.02
2021-08-19 21:12:54.588,-0.295,0.025
2021-08-19 21:12:54.592,-0.275,0.015
2021-08-19 21:12:54.596,-0.285,0.02
2021-08-19 21:12:54.600,-0.28,0.0
2021-08-19 21:12:54.604,-0.3,-0.005
2021-08-19 21:12:54.608,-0.3,-0.015
2021-08-19 21:12:54.612,-0.315,-0.035
2021-08-19 21:12:54.616,-0.3,-0.06
2021-08-19 21:12:54.620,-0.275,-0.06
2021-08-19 21:12:54.624,-0.26,-0.05
2021-08-19 21:12:54.628,-0.3,-0.08
2021-08-19 21:12:54.632,-0.285,-0.08
2021-08-19 21:12:54.636,-0.295,-0.07
2021-08-19 21:12:54.640,-0.305,-0.07
2021-08-19 21:12:54.644,-0.32,-0.06
2021-08-19 21:12:54.648,-0.305,-0.075
2021-08-19 21:12:54.652,-0.29,-0.085
2021-08-19 21:12:54.656,-0.295,-0.08
2021-08-19 21:12:54.660,-0.27,-0.065
2021-08-19 21:12:54.664,-0.255,-0.085
2021-08-19 21:12:54.668,-0.25,-0.11
2021-08-19 21:12:54.672,-0.24,-0.09
2021-08-19 21:12:54.676,-0.205,-0.07
2021-08-19 21:12:54.680,-0.22,-0.08
2021-08-19 21:12:54.684,-0.185,-0.095
2021-08-19 21:12:54.688,-0.18,-0.09
2021-08-19 21:12:54.692,-0.185,-0.11
2021-08-19 21:12:54.696,-0.18,-0.12
2021-08-19 21:12:54.700,-0.165,-0.1
2021-08-19 21:12:54.704,-0.145,-0.08
2021-08-19 21:12:54.708,-0.13,-0.07
2021-08-19 21:12:54.712,-0.155,-0.06
2021-08-19 21:12:54.716,-0.165,-0.07
2021-08-19 21:12:54.720,-0.17,-0.065
2021-08-19 21:12:54.724,-0.18,-0.045
2021-08-19 21:12:54.728,-0.165,-0.05
2021-08-19 21:12:54.732,-0.165,-0.04
2021-08-19 21:12:54.736,-0.18,-0.035
2021-08-19 21:12:54.740,-0.155,-0.005
2021-08-19 21:12:54.744,-0.17,-0.04
2021-08-19 21:12:54.748,-0.19,-0.03
2021-08-19 21:12:54.752,-0.205,-0.005
2021-08-19 21:12:54.756,-0.25,0.015
2021-08-19 21:12:54.760,-0.25,0.005
2021-08-19 21:12:54.764,-0.29,0.02
2021-08-19 21:12:54.768,-0.325,0.035
2021-08-19 21:12:54.772,-0.345,0.03
2021-08-19 21:12:54.776,-0.335,0.025
2021-08-19 21:12:54.780,-0.32,0.035
2021-08-19 21:12:54.784,-0.33,0.015
2021-08-19 21:12:54.788,-0.305,0.01
2021-08-19 21:12:54.792,-0.3,0.01
2021-08-19 21:12:54.796,-0.31,-0.005
2021-08-19 21:12:54.800,-0.3,-0.015
2021-08-19 21:12:54.804,-0.27,-0.015
2021-08-19 21:12:54.808,-0.255,-0.01
2021-08-19 21:12:54.812,-0.17,-0.03
2021-08-19 21:12:54.816,-0.1,-0.04
2021-08-19 21:12:54.820,-0.045,-0.075
2021-08-19 21:12:54.824,0.03,-0.085
2021-08-19 21:12:54.828,0.075,-0.125
2021-08-19 21:12:54.832,0.09,-0.205
2021-08-19 21:12:54.836,0.12,-0.21
2021-08-19 21:12:54.840,0.125,-0.225
2021-08-19 21:12:54.844,0.09,-0.255
2021-08-19 21:12:54.848,0.13,-0.34
2021-08-19 21:12:54.852,0.295,-0.465
2021-08-19 21:12:54.856,0.565,-0.64
2021-08-19 21:12:54.860,0.88,-0.91
2021-08-19 21:12:54.864,0.995,-1.155
2021-08-19 21:12:54.868,0.86,-1.28
2021-08-19 21:12:54.872,0.5,-1.215
2021-08-19 21:12:54.876,0.045,-0.885
2021-08-19 21:12:54.880,-0.235,-0.54
2021-08-19 21:12:54.884,-0.32,-0.32
2021-08-19 21:12:54.888,-0.34,-0.19
2021-08-19 21:12:54.892,-0.33,-0.08
2021-08-19 21:12:54.896,-0.31,-0.04
2021-08-19 21:12:54.900,-0.305,-0.01
2021-08-19 21:12:54.904,-0.305,0.01
2021-08-19 21:12:54.908,-0.275,-0.005
2021-08-19 21:12:54.912,-0.27,-0.03
2021-08-19 21:12:54.916,-0.255,-0.035
2021-08-19 21:12:54.920,-0.245,-0.015
2021-08-19 21:12:54.924,-0.245,-0.02
2021-08-19 21:12:54.928,-0.215,-0.04
2021-08-19 21:12:54.932,-0.24,-0.04
2021-08-19 21:12:54.936,-0.26,0.0
2021-08-19 21:12:54.940,-0.255,-0.025
2021-08-19 21:12:54.944,-0.285,-0.01
2021-08-19 21:12:54.948,-0.29,0.0
2021-08-19 21:12:54.952,-0.285,-0.005
2021-08-19 21:12:54.956,-0.28,-0.01
2021-08-19 21:12:54.960,-0.29,-0.01
2021-08-19 21:12:54.964,-0.325,0.005
2021-08-19 21:12:54.968,-0.36,0.015
2021-08-19 21:12:54.972,-0.385,0.025
2021-08-19 21:12:54.976,-0.43,0.015
2021-08-19 21:12:54.980,-0.47,0.05
2021-08-19 21:12:54.984,-0.51,0.035
2021-08-19 21:12:54.988,-0.53,0.04
2021-08-19 21:12:54.992,-0.535,0.01
2021-08-19 21:12:54.996,-0.55,0.035
2021-08-19 21:12:55.000,-0.535,0.045
2021-08-19 21:12:55.004,-0.545,0.035
2021-08-19 21:12:55.008,-0.53,0.025
2021-08-19 21:12:55.012,-0.54,0.02
2021-08-19 21:12:55.016,-0.55,0.015
2021-08-19 21:12:55.020,-0.565,0.015
2021-08-19 21:12:55.024,-0.53,0.0
2021-08-19 21:12:55.028,-0.54,-0.005
2021-08-19 21:12:55.032,-0.535,-0.015
2021-08-19 21:12:55.036,-0.54,0.0
2021-08-19 21:12:55.040,-0.53,-0.02
2021-08-19 21:12:55.044,-0.51,-0.04
2021-08-19 21:12:55.048,-0.53,-0.03
2021-08-19 21:12:55.052,-0.505,-0.035
2021-08-19 21:12:55.056,-0.5,-0.045
2021-08-19 21:12:55.060,-0.49,-0.06
2021-08-19 21:12:55.064,-0.47,-0.055
2021-08-19 21:12:55.068,-0.46,-0.08
2021-08-19 21:12:55.072,-0.45,-0.065
2021-08-19 21:12:55.076,-0.44,-0.065
2021-08-19 21:12:55.080,-0.425,-0.085
2021-08-19 21:12:55.084,-0.415,-0.095
2021-08-19 21:12:55.088,-0.415,-0.105
2021-08-19 21:12:55.092,-0.38,-0.11
2021-08-19 21:12:55.096,-0.385,-0.12
2021-08-19 21:12:55.100,-0.34,-0.125
2021-08-19 21:12:55.104,-0.34,-0.13
2021-08-19 21:12:55.108,-0.31,-0.105
2021-08-19 21:12:55.112,-0.25,-0.125
2021-08-19 21:12:55.116,-0.25,-0.13
2021-08-19 21:12:55.120,-0.22,-0.14
2021-08-19 21:12:55.124,-0.21,-0.125
2021-08-19 21:12:55.128,-0.175,-0.12
2021-08-19 21:12:55.132,-0.185,-0.085
2021-08-19 21:12:55.136,-0.16,-0.075
2021-08-19 21:12:55.140,-0.14,-0.075
2021-08-19 21:12:55.144,-0.125,-0.065
2021-08-19 21:12:55.148,-0.115,-0.075
2021-08-19 21:12:55.152,-0.12,-0.055
2021-08-19 21:12:55.156,-0.14,-0.045
2021-08-19 21:12:55.160,-0.13,-0.04
2021-08-19 21:12:55.164,-0.14,-0.045
2021-08-19 21:12:55.168,-0.11,-0.04
2021-08-19 21:12:55.172,-0.11,-0.055
2021-08-19 21:12:55.176,-0.115,-0.055
2021-08-19 21:12:55.180,-0.125,-0.075
2021-08-19 21:12:55.184,-0.115,-0.07
2021-08-19 21:12:55.188,-0.12,-0.07
2021-08-19 21:12:55.192,-0.125,-0.08
2021-08-19 21:12:55.196,-0.115,-0.075
2021-08-19 21:12:55.200,-0.095,-0.09
2021-08-19 21:12:55.204,-0.065,-0.14
2021-08-19 21:12:55.208,-0.065,-0.13
2021-08-19 21:12:55.212,-0.065,-0.15
2021-08-19 21:12:55.216,-0.09,-0.185
2021-08-19 21:12:55.220,-0.125,-0.205
2021-08-19 21:12:55.224,-0.16,-0.19
2021-08-19 21:12:55.228,-0.12,-0.27
2021-08-19 21:12:55.232,0.075,-0.35
2021-08-19 21:12:55.236,0.415,-0.505
2021-08-19 21:12:55.240,0.695,-0.765
2021-08-19 21:12:55.244,0.875,-1.07
2021-08-19 21:12:55.248,0.87,-1.28
2021-08-19 21:12:55.252,0.61,-1.23
2021-08-19 21:12:55.256,0.2,-0.98
2021-08-19 21:12:55.260,-0.155,-0.585
2021-08-19 21:12:55.264,-0.32,-0.285
2021-08-19 21:12:55.268,-0.405,-0.145
2021-08-19 21:12:55.272,-0.44,-0.06
2021-08-19 21:12:55.276,-0.44,-0.025
2021-08-19 21:12:55.280,-0.47,-0.005
2021-08-19 21:12:55.284,-0.47,-0.005
2021-08-19 21:12:55.288,-0.465,-0.025
2021-08-19 21:12:55.292,-0.465,-0.05
2021-08-19 21:12:55.296,-0.48,-0.065
2021-08-19 21:12:55.300,-0.47,-0.1
2021-08-19 21:12:55.304,-0.485,-0.085
2021-08-19 21:12:55.308,-0.48,-0.065
2021-08-19 21:12:55.312,-0.485,-0.075
2021-08-19 21:12:55.316,-0.475,-0.08
2021-08-19 21:12:55.320,-0.5,-0.08
2021-08-19 21:12:55.324,-0.495,-0.055
2021-08-19 21:12:55.328,-0.475,-0.07
2021-08-19 21:12:55.332,-0.465,-0.06
2021-08-19 21:12:55.336,-0.45,-0.055
2021-08-19 21:12:55.340,-0.44,-0.04
2021-08-19 21:12:55.344,-0.44,-0.075
2021-08-19 21:12:55.348,-0.445,-0.035
2021-08-19 21:12:55.352,-0.42,0.0
2021-08-19 21:12:55.356,-0.415,-0.005
2021-08-19 21:12:55.360,-0.395,-0.01
2021-08-19 21:12:55.364,-0.39,0.0
2021-08-19 21:12:55.368,-0.395,0.005
2021-08-19 21:12:55.372,-0.42,0.03
2021-08-19 21:12:55.376,-0.41,0.04
2021-08-19 21:12:55.380,-0.415,0.065
2021-08-19 21:12:55.384,-0.43,0.035
2021-08-19 21:12:55.388,-0.44,0.06
2021-08-19 21:12:55.392,-0.44,0.03
2021-08-19 21:12:55.396,-0.44,0.04
2021-08-19 21:12:55.400,-0.455,0.06
2021-08-19 21:12:55.404,-0.465,0.045
2021-08-19 21:12:55.408,-0.49,0.045
2021-08-19 21:12:55.412,-0.495,0.05
2021-08-19 21:12:55.416,-0.53,0.035
2021-08-19 21:12:55.420,-0.5,0.01
2021-08-19 21:12:55.424,-0.5,0.045
2021-08-19 21:12:55.428,-0.48,0.015
2021-08-19 21:12:55.432,-0.455,0.015
2021-08-19 21:12:55.436,-0.45,0.015
2021-08-19 21:12:55.440,-0.415,0.0
2021-08-19 21:12:55.444,-0.41,-0.02
2021-08-19 21:12:55.448,-0.41,-0.05
2021-08-19 21:12:55.452,-0.375,-0.085
2021-08-19 21:12:55.456,-0.37,-0.105
2021-08-19 21:12:55.460,-0.35,-0.1
2021-08-19 21:12:55.464,-0.34,-0.12
2021-08-19 21:12:55.468,-0.325,-0.105
2021-08-19 21:12:55.472,-0.325,-0.115
2021-08-19 21:12:55.476,-0.285,-0.1
2021-08-19 21:12:55.480,-0.305,-0.135
2021-08-19 21:12:55.484,-0.29,-0.15
2021-08-19 21:12:55.488,-0.3,-0.135
2021-08-19 21:12:55.492,-0.305,-0.145
2021-08-19 21:12:55.496,-0.285,-0.12
2021-08-19 21:12:55.500,-0.29,-0.13
2021-08-19 21:12:55.504,-0.275,-0.135
2021-08-19 21:12:55.508,-0.26,-0.135
2021-08-19 21:12:55.512,-0.255,-0.13
2021-08-19 21:12:55.516,-0.255,-0.13
2021-08-19 21:12:55.520,-0.265,-0.115
2021-08-19 21:12:55.524,-0.25,-0.11
2021-08-19 21:12:55.528,-0.28,-0.12
2021-08-19 21:12:55.532,-0.265,-0.12
2021-08-19 21:12:55.536,-0.265,-0.11
2021-08-19 21:12:55.540,-0.255,-0.115
2021-08-19 21:12:55.544,-0.26,-0.1
2021-08-19 21:12:55.548,-0.245,-0.085
2021-08-19 21:12:55.552,-0.235,-0.1
2021-08-19 21:12:55.556,-0.225,-0.095
2021-08-19 21:12:55.560,-0.195,-0.095
2021-08-19 21:12:55.564,-0.2,-0.07
2021-08-19 21:12:55.568,-0.14,-0.08
2021-08-19 21:12:55.572,-0.07,-0.065
2021-08-19 21:12:55.576,0.02,-0.045
2021-08-19 21:12:55.580,0.07,-0.035
2021-08-19 21:12:55.584,0.125,-0.045
2021-08-19 21:12:55.588,0.135,-0.07
2021-08-19 21:12:55.592,0.115,-0.1
2021-08-19 21:12:55.596,0.13,-0.1
2021-08-19 21:12:55.600,0.12,-0.065
2021-08-19 21:12:55.604,0.09,-0.11
2021-08-19 21:12:55.608,0.155,-0.16
2021-08-19 21:12:55.612,0.345,-0.25
2021-08-19 21:12:55.616,0.665,-0.43
2021-08-19 21:12:55.620,0.925,-0.69
2021-08-19 21:12:55.624,1.005,-0.945
2021-08-19 21:12:55.628,0.81,-1.06
2021-08-19 21:12:55.632,0.36,-0.915
2021-08-19 21:12:55.636,-0.075,-0.57
2021-08-19 21:12:55.640,-0.32,-0.26
2021-08-19 21:12:55.644,-0.43,-0.055
2021-08-19 21:12:55.648,-0.45,0.045
2021-08-19 21:12:55.652,-0.445,0.105
2021-08-19 21:12:55.656,-0.435,0.15
2021-08-19 21:12:55.660,-0.415,0.13
2021-08-19 21:12:55.664,-0.42,0.095
2021-08-19 21:12:55.668,-0.395,0.1
2021-08-19 21:12:55.672,-0.4,0.06
2021-08-19 21:12:55.676,-0.405,0.035
2021-08-19 21:12:55.680,-0.4,0.03
2021-08-19 21:12:55.684,-0.42,0.01
2021-08-19 21:12:55.688,-0.435,-0.01
2021-08-19 21:12:55.692,-0.44,-0.02
2021-08-19 21:12:55.696,-0.45,-0.02
2021-08-19 21:12:55.700,-0.455,-0.03
2021-08-19 21:12:55.704,-0.45,-0.055
2021-08-19 21:12:55.708,-0.45,-0.03
2021-08-19 21:12:55.712,-0.47,-0.035
2021-08-19 21:12:55.716,-0.465,-0.055
2021-08-19 21:12:55.720,-0.485,-0.05
2021-08-19 21:12:55.724,-0.5,-0.055
2021-08-19 21:12:55.728,-0.47,-0.045
2021-08-19 21:12:55.732,-0.475,-0.075
2021-08-19 21:12:55.736,-0.465,-0.055
2021-08-19 21:12:55.740,-0.445,-0.08
2021-08-19 21:12:55.744,-0.445,-0.06
2021-08-19 21:12:55.748,-0.43,-0.06
2021-08-19 21:12:55.752,-0.43,-0.07
2021-08-19 21:12:55.756,-0.43,-0.07
2021-08-19 21:12:55.760,-0.435,-0.055
2021-08-19 21:12:55.764,-0.44,-0.065
2021-08-19 21:12:55.768,-0.42,-0.05
2021-08-19 21:12:55.772,-0.415,-0.05
2021-08-19 21:12:55.776,-0.4,-0.035
2021-08-19 21:12:55.780,-0.38,-0.02
2021-08-19 21:12:55.784,-0.36,-0.025
2021-08-19 21:12:55.788,-0.345,-0.02
2021-08-19 21:12:55.792,-0.32,0.015
2021-08-19 21:12:55.796,-0.305,0.04
2021-08-19 21:12:55.800,-0.29,0.035
2021-08-19 21:12:55.804,-0.29,0.025
2021-08-19 21:12:55.808,-0.28,0.04
2021-08-19 21:12:55.812,-0.28,0.05
2021-08-19 21:12:55.816,-0.265,0.05
2021-08-19 21:12:55.820,-0.265,0.05
2021-08-19 21:12:55.824,-0.285,0.05
2021-08-19 21:12:55.828,-0.31,0.065
2021-08-19 21:12:55.832,-0.3,0.04
2021-08-19 21:12:55.836,-0.29,0.055
2021-08-19 21:12:55.840,-0.29,0.045
2021-08-19 21:12:55.844,-0.32,0.035
2021-08-19 21:12:55.848,-0.355,0.05
2021-08-19 21:12:55.852,-0.39,0.03
2021-08-19 21:12:55.856,-0.385,0.055
2021-08-19 21:12:55.860,-0.385,0.025
2021-08-19 21:12:55.864,-0.375,0.035
2021-08-19 21:12:55.868,-0.37,0.02
2021-08-19 21:12:55.872,-0.38,0.015
2021-08-19 21:12:55.876,-0.37,0.0
2021-08-19 21:12:55.880,-0.395,-0.01
2021-08-19 21:12:55.884,-0.35,-0.01
2021-08-19 21:12:55.888,-0.32,-0.015
2021-08-19 21:12:55.892,-0.305,0.005
2021-08-19 21:12:55.896,-0.275,-0.01
2021-08-19 21:12:55.900,-0.27,-0.02
2021-08-19 21:12:55.904,-0.3,0.0
2021-08-19 21:12:55.908,-0.32,-0.01
2021-08-19 21:12:55.912,-0.29,0.0
2021-08-19 21:12:55.916,-0.3,0.0
2021-08-19 21:12:55.920,-0.3,0.0
2021-08-19 21:12:55.924,-0.315,0.005
2021-08-19 21:12:55.928,-0.32,0.015
2021-08-19 21:12:55.932,-0.335,0.0
2021-08-19 21:12:55.936,-0.34,0.005
2021-08-19 21:12:55.940,-0.34,0.005
2021-08-19 21:12:55.944,-0.35,-0.005
2021-08-19 21:12:55.948,-0.365,-0.02
2021-08-19 21:12:55.952,-0.355,-0.01
2021-08-19 21:12:55.956,-0.355,-0.01
2021-08-19 21:12:55.960,-0.325,-0.03
2021-08-19 21:12:55.964,-0.32,-0.03
2021-08-19 21:12:55.968,-0.33,-0.025
2021-08-19 21:12:55.972,-0.31,-0.02
2021-08-19 21:12:55.976,-0.32,-0.015
2021-08-19 21:12:55.980,-0.305,-0.025
2021-08-19 21:12:55.984,-0.295,-0.02
2021-08-19 21:12:55.988,-0.29,-0.02
2021-08-19 21:12:55.992,-0.275,-0.02
2021-08-19 21:12:55.996,-0.255,-0.02
2021-08-19 21:12:56.000,-0.23,0.005
2021-08-19 21:12:56.004,-0.215,0.005
2021-08-19 21:12:56.008,-0.215,0.01
2021-08-19 21:12:56.012,-0.22,0.02
2021-08-19 21:12:56.016,-0.21,0.035
2021-08-19 21:12:56.020,-0.18,0.055
2021-08-19 21:12:56.024,-0.14,0.05
2021-08-19 21:12:56.028,-0.085,0.05
2021-08-19 21:12:56.032,0.0,0.025
2021-08-19 21:12:56.036,0.05,0.015
2021-08-19 21:12:56.040,0.105,-0.005
2021-08-19 21:12:56.044,0.12,-0.025
2021-08-19 21:12:56.048,0.145,-0.035
2021-08-19 21:12:56.052,0.165,-0.06
2021-08-19 21:12:56.056,0.125,-0.035
2021-08-19 21:12:56.060,0.1,-0.065
2021-08-19 21:12:56.064,0.075,-0.095
2021-08-19 21:12:56.068,0.205,-0.2
2021-08-19 21:12:56.072,0.45,-0.38
2021-08-19 21:12:56.076,0.75,-0.61
2021-08-19 21:12:56.080,0.865,-0.865
2021-08-19 21:12:56.084,0.755,-0.995
2021-08-19 21:12:56.088,0.355,-0.925
2021-08-19 21:12:56.092,-0.07,-0.64
2021-08-19 21:12:56.096,-0.345,-0.31
2021-08-19 21:12:56.100,-0.45,-0.12
2021-08-19 21:12:56.104,-0.49,0.01
2021-08-19 21:12:56.108,-0.5,0.095
2021-08-19 21:12:56.112,-0.5,0.14
2021-08-19 21:12:56.116,-0.5,0.135
2021-08-19 21:12:56.120,-0.49,0.155
2021-08-19 21:12:56.124,-0.495,0.14
2021-08-19 21:12:56.128,-0.505,0.115
2021-08-19 21:12:56.132,-0.52,0.1
2021-08-19 21:12:56.136,-0.525,0.06
2021-08-19 21:12:56.140,-0.52,0.065
2021-08-19 21:12:56.144,-0.555,0.04
2021-08-19 21:12:56.148,-0.52,0.05
2021-08-19 21:12:56.152,-0.535,0.04
2021-08-19 21:12:56.156,-0.53,0.035
2021-08-19 21:12:56.160,-0.525,0.03
2021-08-19 21:12:56.164,-0.535,0.045
2021-08-19 21:12:56.168,-0.53,0.045
2021-08-19 21:12:56.172,-0.525,0.02
2021-08-19 21:12:56.176,-0.51,0.025
2021-08-19 21:12:56.180,-0.505,0.035
2021-08-19 21:12:56.184,-0.5,0.04
2021-08-19 21:12:56.188,-0.485,0.04
2021-08-19 21:12:56.192,-0.48,0.02
2021-08-19 21:12:56.196,-0.485,0.03
2021-08-19 21:12:56.200,-0.48,0.04
2021-08-19 21:12:56.204,-0.485,0.04
2021-08-19 21:12:56.208,-0.47,0.06
2021-08-19 21:12:56.212,-0.455,0.045
2021-08-19 21:12:56.216,-0.45,0.05
2021-08-19 21:12:56.220,-0.44,0.07
2021-08-19 21:12:56.224,-0.425,0.07
2021-08-19 21:12:56.228,-0.42,0.095
2021-08-19 21:12:56.232,-0.41,0.1
2021-08-19 21:12:56.236,-0.415,0.095
2021-08-19 21:12:56.240,-0.4,0.105
2021-08-19 21:12:56.244,-0.395,0.105
2021-08-19 21:12:56.248,-0.42,0.125
2021-08-19 21:12:56.252,-0.405,0.11
2021-08-19 21:12:56.256,-0.415,0.1
2021-08-19 21:12:56.260,-0.405,0.12
2021-08-19 21:12:56.264,-0.435,0.1
2021-08-19 21:12:56.268,-0.425,0.12
2021-08-19 21:12:56.272,-0.44,0.1
2021-08-19 21:12:56.276,-0.475,0.105
2021-08-19 21:12:56.280,-0.49,0.095
2021-08-19 21:12:56.284,-0.525,0.075
2021-08-19 21:12:56.288,-0.555,0.085
2021-08-19 21:12:56.292,-0.53,0.055
2021-08-19 21:12:56.296,-0.525,0.06
2021-08-19 21:12:56.300,-0.51,0.035
2021-08-19 21:12:56.304,-0.495,0.03
2021-08-19 21:12:56.308,-0.495,0.03
2021-08-19 21:12:56.312,-0.475,0.0
2021-08-19 21:12:56.316,-0.45,0.0
2021-08-19 21:12:56.320,-0.44,0.025
2021-08-19 21:12:56.324,-0.455,0.01
2021-08-19 21:12:56.328,-0.44,0.005
2021-08-19 21:12:56.332,-0.435,0.0
2021-08-19 21:12:56.336,-0.405,0.005
2021-08-19 21:12:56.340,-0.355,0.0
2021-08-19 21:12:56.344,-0.34,0.0
2021-08-19 21:12:56.348,-0.33,-0.005
2021-08-19 21:12:56.352,-0.35,-0.005
2021-08-19 21:12:56.356,-0.335,-0.015
2021-08-19 21:12:56.360,-0.345,-0.015
2021-08-19 21:12:56.364,-0.33,-0.015
2021-08-19 21:12:56.368,-0.34,-0.035
2021-08-19 21:12:56.372,-0.35,-0.035
2021-08-19 21:12:56.376,-0.35,-0.04
2021-08-19 21:12:56.380,-0.34,-0.045
2021-08-19 21:12:56.384,-0.365,-0.06
2021-08-19 21:12:56.388,-0.36,-0.035
2021-08-19 21:12:56.392,-0.36,-0.055
2021-08-19 21:12:56.396,-0.36,-0.035
2021-08-19 21:12:56.400,-0.37,-0.04
2021-08-19 21:12:56.404,-0.38,-0.045
2021-08-19 21:12:56.408,-0.37,-0.035
2021-08-19 21:12:56.412,-0.355,-0.04
2021-08-19 21:12:56.416,-0.37,-0.05
2021-08-19 21:12:56.420,-0.345,-0.05
2021-08-19 21:12:56.424,-0.325,-0.045
2021-08-19 21:12:56.428,-0.335,-0.04
2021-08-19 21:12:56.432,-0.31,-0.05
2021-08-19 21:12:56.436,-0.29,-0.03
2021-08-19 21:12:56.440,-0.29,-0.045
2021-08-19 21:12:56.444,-0.25,-0.045
2021-08-19 21:12:56.448,-0.21,-0.03
2021-08-19 21:12:56.452,-0.215,-0.03
2021-08-19 21:12:56.456,-0.185,-0.005
2021-08-19 21:12:56.460,-0.16,0.02
2021-08-19 21:12:56.464,-0.17,0.02
2021-08-19 21:12:56.468,-0.145,0.035
2021-08-19 21:12:56.472,-0.145,0.055
2021-08-19 21:12:56.476,-0.13,0.04
2021-08-19 21:12:56.480,-0.14,0.075
2021-08-19 21:12:56.484,-0.15,0.065
2021-08-19 21:12:56.488,-0.19,0.06
2021-08-19 21:12:56.492,-0.2,0.06
2021-08-19 21:12:56.496,-0.215,0.055
2021-08-19 21:12:56.500,-0.26,0.065
2021-08-19 21:12:56.504,-0.27,0.075
2021-08-19 21:12:56.508,-0.315,0.075
2021-08-19 21:12:56.512,-0.295,0.095
2021-08-19 21:12:56.516,-0.3,0.09
2021-08-19 21:12:56.520,-0.245,0.075
2021-08-19 21:12:56.524,-0.21,0.065
2021-08-19 21:12:56.528,-0.12,0.055
2021-08-19 21:12:56.532,-0.03,0.05
2021-08-19 21:12:56.536,0.035,0.02
2021-08-19 21:12:56.540,0.075,0.0
2021-08-19 21:12:56.544,0.09,-0.03
2021-08-19 21:12:56.548,0.125,-0.05
2021-08-19 21:12:56.552,0.12,-0.055
2021-08-19 21:12:56.556,0.115,-0.065
2021-08-19 21:12:56.560,0.205,-0.155
2021-08-19 21:12:56.564,0.38,-0.275
2021-08-19 21:12:56.568,0.68,-0.48
2021-08-19 21:12:56.572,0.93,-0.705
2021-08-19 21:12:56.576,1.035,-0.95
2021-08-19 21:12:56.580,0.84,-1.065
2021-08-19 21:12:56.584,0.41,-0.93
2021-08-19 21:12:56.588,-0.01,-0.63
2021-08-19 21:12:56.592,-0.23,-0.34
2021-08-19 21:12:56.596,-0.345,-0.16
2021-08-19 21:12:56.600,-0.395,-0.04
2021-08-19 21:12:56.604,-0.42,0.035
2021-08-19 21:12:56.608,-0.43,0.075
2021-08-19 21:12:56.612,-0.45,0.085
2021-08-19 21:12:56.616,-0.45,0.105
2021-08-19 21:12:56.620,-0.435,0.095
2021-08-19 21:12:56.624,-0.46,0.065
2021-08-19 21:12:56.628,-0.46,0.04
2021-08-19 21:12:56.632,-0.48,0.01
2021-08-19 21:12:56.636,-0.46,0.01
2021-08-19 21:12:56.640,-0.46,0.01
2021-08-19 21:12:56.644,-0.45,0.005
2021-08-19 21:12:56.648,-0.43,0.01
2021-08-19 21:12:56.652,-0.435,0.01
2021-08-19 21:12:56.656,-0.44,0.005
2021-08-19 21:12:56.660,-0.405,-0.005
2021-08-19 21:12:56.664,-0.41,0.015
2021-08-19 21:12:56.668,-0.39,0.0
2021-08-19 21:12:56.672,-0.395,0.0
2021-08-19 21:12:56.676,-0.38,0.0
2021-08-19 21:12:56.680,-0.385,0.03
2021-08-19 21:12:56.684,-0.37,0.04
2021-08-19 21:12:56.688,-0.36,0.05
2021-08-19 21:12:56.692,-0.365,0.06
2021-08-19 21:12:56.696,-0.35,0.085
2021-08-19 21:12:56.700,-0.35,0.075
2021-08-19 21:12:56.704,-0.345,0.085
2021-08-19 21:12:56.708,-0.34,0.085
2021-08-19 21:12:56.712,-0.34,0.1
2021-08-19 21:12:56.716,-0.355,0.08
2021-08-19 21:12:56.720,-0.37,0.09
2021-08-19 21:12:56.724,-0.4,0.12
2021-08-19 21:12:56.728,-0.415,0.12
2021-08-19 21:12:56.732,-0.46,0.1
2021-08-19 21:12:56.736,-0.47,0.12
2021-08-19 21:12:56.740,-0.48,0.105
2021-08-19 21:12:56.744,-0.47,0.14
2021-08-19 21:12:56.748,-0.48,0.11
2021-08-19 21:12:56.752,-0.485,0.11
2021-08-19 21:12:56.756,-0.475,0.105
2021-08-19 21:12:56.760,-0.455,0.11
2021-08-19 21:12:56.764,-0.44,0.09
2021-08-19 21:12:56.768,-0.445,0.09
2021-08-19 21:12:56.772,-0.425,0.09
2021-08-19 21:12:56.776,-0.425,0.09
2021-08-19 21:12:56.780,-0.4,0.08
2021-08-19 21:12:56.784,-0.395,0.05
2021-08-19 21:12:56.788,-0.36,0.05
2021-08-19 21:12:56.792,-0.345,0.035
2021-08-19 21:12:56.796,-0.32,0.035
2021-08-19 21:12:56.800,-0.305,0.02
2021-08-19 21:12:56.804,-0.26,0.005
2021-08-19 21:12:56.808,-0.255,0.0
2021-08-19 21:12:56.812,-0.25,-0.02
2021-08-19 21:12:56.816,-0.25,-0.02
2021-08-19 21:12:56.820,-0.255,-0.02
2021-08-19 21:12:56.824,-0.235,-0.055
2021-08-19 21:12:56.828,-0.24,-0.075
2021-08-19 21:12:56.832,-0.24,-0.08
2021-08-19 21:12:56.836,-0.23,-0.1
2021-08-19 21:12:56.840,-0.235,-0.105
2021-08-19 21:12:56.844,-0.24,-0.1
2021-08-19 21:12:56.848,-0.22,-0.1
2021-08-19 21:12:56.852,-0.225,-0.105
2021-08-19 21:12:56.856,-0.21,-0.115
2021-08-19 21:12:56.860,-0.21,-0.115
2021-08-19 21:12:56.864,-0.225,-0.11
2021-08-19 21:12:56.868,-0.225,-0.12
2021-08-19 21:12:56.872,-0.225,-0.1
2021-08-19 21:12:56.876,-0.22,-0.105
2021-08-19 21:12:56.880,-0.22,-0.09
2021-08-19 21:12:56.884,-0.225,-0.09
2021-08-19 21:12:56.888,-0.24,-0.065
2021-08-19 21:12:56.892,-0.235,-0.04
2021-08-19 21:12:56.896,-0.22,-0.03
2021-08-19 21:12:56.900,-0.215,-0.04
2021-08-19 21:12:56.904,-0.22,-0.045
2021-08-19 21:12:56.908,-0.21,-0.025
2021-08-19 21:12:56.912,-0.21,-0.01
2021-08-19 21:12:56.916,-0.19,0.01
2021-08-19 21:12:56.920,-0.2,0.01
2021-08-19 21:12:56.924,-0.195,0.025
2021-08-19 21:12:56.928,-0.21,0.025
2021-08-19 21:12:56.932,-0.215,0.03
2021-08-19 21:12:56.936,-0.205,0.015
2021-08-19 21:12:56.940,-0.215,0.02
2021-08-19 21:12:56.944,-0.225,0.025
2021-08-19 21:12:56.948,-0.265,0.02
2021-08-19 21:12:56.952,-0.27,0.02
2021-08-19 21:12:56.956,-0.3,0.015
2021-08-19 21:12:56.960,-0.32,0.005
2021-08-19 21:12:56.964,-0.34,0.01
2021-08-19 21:12:56.968,-0.365,0.015
2021-08-19 21:12:56.972,-0.34,0.045
2021-08-19 21:12:56.976,-0.335,0.025
2021-08-19 21:12:56.980,-0.355,0.035
2021-08-19 21:12:56.984,-0.36,0.02
2021-08-19 21:12:56.988,-0.355,0.025
2021-08-19 21:12:56.992,-0.37,0.035
2021-08-19 21:12:56.996,-0.345,0.025
2021-08-19 21:12:57.000,-0.33,0.025
2021-08-19 21:12:57.004,-0.33,0.015
2021-08-19 21:12:57.008,-0.335,0.02
2021-08-19 21:12:57.012,-0.31,0.015
2021-08-19 21:12:57.016,-0.3,-0.015
2021-08-19 21:12:57.020,-0.285,0.015
2021-08-19 21:12:57.024,-0.285,-0.01
2021-08-19 21:12:57.028,-0.26,0.0
2021-08-19 21:12:57.032,-0.285,-0.01
2021-08-19 21:12:57.036,-0.26,-0.015
2021-08-19 21:12:57.040,-0.25,-0.025
2021-08-19 21:12:57.044,-0.23,-0.04
2021-08-19 21:12:57.048,-0.24,-0.05
2021-08-19 21:12:57.052,-0.25,-0.06
2021-08-19 21:12:57.056,-0.245,-0.065
2021-08-19 21:12:57.060,-0.205,-0.09
2021-08-19 21:12:57.064,-0.14,-0.095
2021-08-19 21:12:57.068,-0.05,-0.1
2021-08-19 21:12:57.072,0.04,-0.105
2021-08-19 21:12:57.076,0.1,-0.13
2021-08-19 21:12:57.080,0.16,-0.17
2021-08-19 21:12:57.084,0.18,-0.21
2021-08-19 21:12:57.088,0.205,-0.22
2021-08-19 21:12:57.092,0.205,-0.23
2021-08-19 21:12:57.096,0.205,-0.28
2021-08-19 21:12:57.100,0.22,-0.34
2021-08-19 21:12:57.104,0.39,-0.445
2021-08-19 21:12:57.108,0.66,-0.59
2021-08-19 21:12:57.112,0.965,-0.85
2021-08-19 21:12:57.116,1.095,-1.085
2021-08-19 21:12:57.120,0.95,-1.21
2021-08-19 21:12:57.124,0.56,-1.13
2021-08-19 21:12:57.128,0.095,-0.785
2021-08-19 21:12:57.132,-0.17,-0.46
2021-08-19 21:12:57.136,-0.28,-0.24
2021-08-19 21:12:57.140,-0.295,-0.095
2021-08-19 21:12:57.144,-0.335,0.015
2021-08-19 21:12:57.148,-0.35,0.08
2021-08-19 21:12:57.152,-0.34,0.09
2021-08-19 21:12:57.156,-0.375,0.09
2021-08-19 21:12:57.160,-0.39,0.095
2021-08-19 21:12:57.164,-0.405,0.095
2021-08-19 21:12:57.168,-0.455,0.085
2021-08-19 21:12:57.172,-0.47,0.065
2021-08-19 21:12:57.176,-0.465,0.06
2021-08-19 21:12:57.180,-0.485,0.035
2021-08-19 21:12:57.184,-0.5,0.045
2021-08-19 21:12:57.188,-0.505,0.035
2021-08-19 21:12:57.192,-0.51,0.04
2021-08-19 21:12:57.196,-0.51,0.06
2021-08-19 21:12:57.200,-0.505,0.07
2021-08-19 21:12:57.204,-0.5,0.055
2021-08-19 21:12:57.208,-0.505,0.06
2021-08-19 21:12:57.212,-0.505,0.065
2021-08-19 21:12:57.216,-0.52,0.065
2021-08-19 21:12:57.220,-0.52,0.06
2021-08-19 21:12:57.224,-0.525,0.07
2021-08-19 21:12:57.228,-0.515,0.08
2021-08-19 21:12:57.232,-0.5,0.045
2021-08-19 21:12:57.236,-0.51,0.06
2021-08-19 21:12:57.240,-0.51,0.055
2021-08-19 21:12:57.244,-0.49,0.05
2021-08-19 21:12:57.248,-0.475,0.06
2021-08-19 21:12:57.252,-0.445,0.045
2021-08-19 21:12:57.256,-0.47,0.015
2021-08-19 21:12:57.260,-0.445,0.025
2021-08-19 21:12:57.264,-0.445,0.02
2021-08-19 21:12:57.268,-0.445,0.0
2021-08-19 21:12:57.272,-0.46,0.005
2021-08-19 21:12:57.276,-0.45,-0.005
2021-08-19 21:12:57.280,-0.425,-0.02
2021-08-19 21:12:57.284,-0.43,-0.01
2021-08-19 21:12:57.288,-0.41,-0.035
2021-08-19 21:12:57.292,-0.385,-0.055
2021-08-19 21:12:57.296,-0.37,-0.025
2021-08-19 21:12:57.300,-0.34,-0.045
2021-08-19 21:12:57.304,-0.345,-0.055
2021-08-19 21:12:57.308,-0.345,-0.05
2021-08-19 21:12:57.312,-0.315,-0.06
2021-08-19 21:12:57.316,-0.32,-0.1
2021-08-19 21:12:57.320,-0.305,-0.095
2021-08-19 21:12:57.324,-0.3,-0.08
2021-08-19 21:12:57.328,-0.28,-0.08
2021-08-19 21:12:57.332,-0.28,-0.08
2021-08-19 21:12:57.336,-0.265,-0.065
2021-08-19 21:12:57.340,-0.25,-0.085
2021-08-19 21:12:57.344,-0.24,-0.045
2021-08-19 21:12:57.348,-0.235,-0.06
2021-08-19 21:12:57.352,-0.23,-0.08
2021-08-19 21:12:57.356,-0.205,-0.08
2021-08-19 21:12:57.360,-0.185,-0.07
2021-08-19 21:12:57.364,-0.185,-0.075
2021-08-19 21:12:57.368,-0.185,-0.055
2021-08-19 21:12:57.372,-0.18,-0.07
2021-08-19 21:12:57.376,-0.18,-0.065
2021-08-19 21:12:57.380,-0.2,-0.06
2021-08-19 21:12:57.384,-0.235,-0.07
2021-08-19 21:12:57.388,-0.24,-0.03
2021-08-19 21:12:57.392,-0.3,-0.025
2021-08-19 21:12:57.396,-0.27,-0.025
2021-08-19 21:12:57.400,-0.31,-0.015
2021-08-19 21:12:57.404,-0.305,0.0
2021-08-19 21:12:57.408,-0.31,0.005
2021-08-19 21:12:57.412,-0.29,0.0
2021-08-19 21:12:57.416,-0.275,0.01
2021-08-19 21:12:57.420,-0.29,0.015
2021-08-19 21:12:57.424,-0.285,0.015
2021-08-19 21:12:57.428,-0.3,0.015
2021-08-19 21:12:57.432,-0.295,-0.015
2021-08-19 21:12:57.436,-0.32,-0.01
2021-08-19 21:12:57.440,-0.31,0.015
2021-08-19 21:12:57.444,-0.315,0.015
2021-08-19 21:12:57.448,-0.315,0.02
2021-08-19 21:12:57.452,-0.32,0.015
2021-08-19 21:12:57.456,-0.3,0.01
2021-08-19 21:12:57.460,-0.315,0.015
2021-08-19 21:12:57.464,-0.34,0.03
2021-08-19 21:12:57.468,-0.305,0.025
2021-08-19 21:12:57.472,-0.29,0.02
2021-08-19 21:12:57.476,-0.285,0.04
2021-08-19 21:12:57.480,-0.27,0.05
2021-08-19 21:12:57.484,-0.26,0.035
2021-08-19 21:12:57.488,-0.255,0.025
2021-08-19 21:12:57.492,-0.265,0.01
2021-08-19 21:12:57.496,-0.265,-0.015
2021-08-19 21:12:57.500,-0.26,-0.015
2021-08-19 21:12:57.504,-0.25,-0.03
2021-08-19 21:12:57.508,-0.255,-0.035
2021-08-19 21:12:57.512,-0.23,-0.05
2021-08-19 21:12:57.516,-0.225,-0.03
2021-08-19 21:12:57.520,-0.21,-0.07
2021-08-19 21:12:57.524,-0.205,-0.06
2021-08-19 21:12:57.528,-0.2,-0.065
2021-08-19 21:12:57.532,-0.2,-0.05
2021-08-19 21:12:57.536,-0.175,-0.045
2021-08-19 21:12:57.540,-0.17,-0.05
2021-08-19 21:12:57.544,-0.185,-0.02
2021-08-19 21:12:57.548,-0.195,-0.035
2021-08-19 21:12:57.552,-0.165,-0.025
2021-08-19 21:12:57.556,-0.175,-0.005
2021-08-19 21:12:57.560,-0.18,0.0
2021-08-19 21:12:57.564,-0.185,-0.005
2021-08-19 21:12:57.568,-0.165,-0.005
2021-08-19 21:12:57.572,-0.175,-0.015
2021-08-19 21:12:57.576,-0.155,0.0
2021-08-19 21:12:57.580,-0.15,0.0
2021-08-19 21:12:57.584,-0.15,0.02
2021-08-19 21:12:57.588,-0.15,0.02
2021-08-19 21:12:57.592,-0.155,0.03
2021-08-19 21:12:57.596,-0.16,0.02
2021-08-19 21:12:57.600,-0.165,0.0
2021-08-19 21:12:57.604,-0.195,0.01
2021-08-19 21:12:57.608,-0.22,0.025
2021-08-19 21:12:57.612,-0.235,0.02
2021-08-19 21:12:57.616,-0.245,0.0
2021-08-19 21:12:57.620,-0.28,0.005
2021-08-19 21:12:57.624,-0.285,-0.005
2021-08-19 21:12:57.628,-0.3,0.0
2021-08-19 21:12:57.632,-0.295,0.015
2021-08-19 21:12:57.636,-0.28,0.03
2021-08-19 21:12:57.640,-0.275,0.015
2021-08-19 21:12:57.644,-0.28,0.025
2021-08-19 21:12:57.648,-0.265,0.01
2021-08-19 21:12:57.652,-0.26,-0.015
2021-08-19 21:12:57.656,-0.285,-0.01
2021-08-19 21:12:57.660,-0.28,-0.025
2021-08-19 21:12:57.664,-0.285,-0.02
2021-08-19 21:12:57.668,-0.255,-0.015
2021-08-19 21:12:57.672,-0.27,-0.02
2021-08-19 21:12:57.676,-0.285,-0.01
2021-08-19 21:12:57.680,-0.29,-0.015
2021-08-19 21:12:57.684,-0.315,-0.005
2021-08-19 21:12:57.688,-0.305,-0.025
2021-08-19 21:12:57.692,-0.33,-0.03
2021-08-19 21:12:57.696,-0.315,-0.02
2021-08-19 21:12:57.700,-0.295,-0.04
2021-08-19 21:12:57.704,-0.285,-0.035
2021-08-19 21:12:57.708,-0.285,-0.045
2021-08-19 21:12:57.712,-0.27,-0.06
2021-08-19 21:12:57.716,-0.265,-0.045
2021-08-19 21:12:57.720,-0.28,-0.065
2021-08-19 21:12:57.724,-0.265,-0.075
2021-08-19 21:12:57.728,-0.265,-0.08
2021-08-19 21:12:57.732,-0.235,-0.1
2021-08-19 21:12:57.736,-0.235,-0.09
2021-08-19 21:12:57.740,-0.225,-0.095
2021-08-19 21:12:57.744,-0.22,-0.12
2021-08-19 21:12:57.748,-0.2,-0.1
2021-08-19 21:12:57.752,-0.22,-0.105
2021-08-19 21:12:57.756,-0.195,-0.105
2021-08-19 21:12:57.760,-0.195,-0.105
2021-08-19 21:12:57.764,-0.18,-0.11
2021-08-19 21:12:57.768,-0.18,-0.1
2021-08-19 21:12:57.772,-0.19,-0.085
2021-08-19 21:12:57.776,-0.16,-0.08
2021-08-19 21:12:57.780,-0.16,-0.085
2021-08-19 21:12:57.784,-0.165,-0.075
2021-08-19 21:12:57.788,-0.16,-0.045
2021-08-19 21:12:57.792,-0.17,-0.05
2021-08-19 21:12:57.796,-0.165,-0.05
2021-08-19 21:12:57.800,-0.17,-0.04
2021-08-19 21:12:57.804,-0.175,-0.025
2021-08-19 21:12:57.808,-0.17,-0.03
2021-08-19 21:12:57.812,-0.175,-0.015
2021-08-19 21:12:57.816,-0.18,-0.02
2021-08-19 21:12:57.820,-0.17,-0.01
2021-08-19 21:12:57.824,-0.185,-0.015
2021-08-19 21:12:57.828,-0.175,-0.015
2021-08-19 21:12:57.832,-0.195,0.0
2021-08-19 21:12:57.836,-0.195,0.0
2021-08-19 21:12:57.840,-0.22,0.01
2021-08-19 21:12:57.844,-0.225,0.0
2021-08-19 21:12:57.848,-0.225,0.0
2021-08-19 21:12:57.852,-0.245,0.01
2021-08-19 21:12:57.856,-0.225,0.0
2021-08-19 21:12:57.860,-0.205,0.005
2021-08-19 21:12:57.864,-0.14,0.02
2021-08-19 21:12:57.868,-0.06,0.0
2021-08-19 21:12:57.872,0.01,-0.025
2021-08-19 21:12:57.876,0.1,-0.035
2021-08-19 21:12:57.880,0.135,-0.08
2021-08-19 21:12:57.884,0.18,-0.135
2021-08-19 21:12:57.888,0.195,-0.145
2021-08-19 21:12:57.892,0.195,-0.145
2021-08-19 21:12:57.896,0.155,-0.175
2021-08-19 21:12:57.900,0.175,-0.26
2021-08-19 21:12:57.904,0.3,-0.34
2021-08-19 21:12:57.908,0.545,-0.55
2021-08-19 21:12:57.912,0.855,-0.76
2021-08-19 21:12:57.916,1.075,-0.995
2021-08-19 21:12:57.920,1.105,-1.2
2021-08-19 21:12:57.924,0.875,-1.18
2021-08-19 21:12:57.928,0.42,-0.93
2021-08-19 21:12:57.932,0.045,-0.57
2021-08-19 21:12:57.936,-0.16,-0.275
2021-08-19 21:12:57.940,-0.265,-0.11
2021-08-19 21:12:57.944,-0.305,0.005
2021-08-19 21:12:57.948,-0.335,0.045
2021-08-19 21:12:57.952,-0.33,0.08
2021-08-19 21:12:57.956,-0.335,0.07
2021-08-19 21:12:57.960,-0.33,0.045
2021-08-19 21:12:57.964,-0.32,0.05
2021-08-19 21:12:57.968,-0.32,0.02
2021-08-19 21:12:57.972,-0.32,0.005
2021-08-19 21:12:57.976,-0.335,-0.005
2021-08-19 21:12:57.980,-0.35,-0.04
2021-08-19 21:12:57.984,-0.335,-0.015
2021-08-19 21:12:57.988,-0.365,-0.03
2021-08-19 21:12:57.992,-0.37,-0.05
2021-08-19 21:12:57.996,-0.395,-0.01
2021-08-19 21:12:58.000,-0.385,-0.015
2021-08-19 21:12:58.004,-0.39,-0.025
2021-08-19 21:12:58.008,-0.4,-0.015
2021-08-19 21:12:58.012,-0.415,-0.01
2021-08-19 21:12:58.016,-0.435,-0.02
2021-08-19 21:12:58.020,-0.45,-0.01
2021-08-19 21:12:58.024,-0.465,-0.02
2021-08-19 21:12:58.028,-0.465,0.0
2021-08-19 21:12:58.032,-0.45,0.0
2021-08-19 21:12:58.036,-0.46,0.0
2021-08-19 21:12:58.040,-0.45,-0.01
2021-08-19 21:12:58.044,-0.425,-0.005
2021-08-19 21:12:58.048,-0.435,0.0
2021-08-19 21:12:58.052,-0.43,0.0
2021-08-19 21:12:58.056,-0.445,0.005
2021-08-19 21:12:58.060,-0.445,0.01
2021-08-19 21:12:58.064,-0.46,0.0
2021-08-19 21:12:58.068,-0.46,0.045
2021-08-19 21:12:58.072,-0.455,0.02
2021-08-19 21:12:58.076,-0.47,0.04
2021-08-19 21:12:58.080,-0.47,0.04
2021-08-19 21:12:58.084,-0.46,0.04
2021-08-19 21:12:58.088,-0.47,0.075
2021-08-19 21:12:58.092,-0.435,0.065
2021-08-19 21:12:58.096,-0.45,0.06
2021-08-19 21:12:58.100,-0.445,0.025
2021-08-19 21:12:58.104,-0.455,0.035
2021-08-19 21:12:58.108,-0.455,0.015
2021-08-19 21:12:58.112,-0.435,0.005
2021-08-19 21:12:58.116,-0.44,0.03
2021-08-19 21:12:58.120,-0.425,0.02
2021-08-19 21:12:58.124,-0.41,0.01
2021-08-19 21:12:58.128,-0.42,0.0
2021-08-19 21:12:58.132,-0.43,0.0
2021-08-19 21:12:58.136,-0.415,-0.015
2021-08-19 21:12:58.140,-0.38,-0.02
2021-08-19 21:12:58.144,-0.385,-0.025
2021-08-19 21:12:58.148,-0.37,-0.05
2021-08-19 21:12:58.152,-0.36,-0.055
2021-08-19 21:12:58.156,-0.34,-0.095
2021-08-19 21:12:58.160,-0.325,-0.08
2021-08-19 21:12:58.164,-0.36,-0.12
2021-08-19 21:12:58.168,-0.325,-0.105
2021-08-19 21:12:58.172,-0.315,-0.105
2021-08-19 21:12:58.176,-0.29,-0.13
2021-08-19 21:12:58.180,-0.28,-0.115
2021-08-19 21:12:58.184,-0.275,-0.15
2021-08-19 21:12:58.188,-0.255,-0.14
2021-08-19 21:12:58.192,-0.255,-0.15
2021-08-19 21:12:58.196,-0.23,-0.16
2021-08-19 21:12:58.200,-0.205,-0.165
2021-08-19 21:12:58.204,-0.215,-0.13
2021-08-19 21:12:58.208,-0.23,-0.125
2021-08-19 21:12:58.212,-0.23,-0.09
2021-08-19 21:12:58.216,-0.22,-0.09
2021-08-19 21:12:58.220,-0.215,-0.105
2021-08-19 21:12:58.224,-0.215,-0.08
2021-08-19 21:12:58.228,-0.22,-0.08
2021-08-19 21:12:58.232,-0.235,-0.07
2021-08-19 21:12:58.236,-0.23,-0.06
2021-08-19 21:12:58.240,-0.23,-0.06
2021-08-19 21:12:58.244,-0.21,-0.065
2021-08-19 21:12:58.248,-0.225,-0.045
2021-08-19 21:12:58.252,-0.2,-0.055
2021-08-19 21:12:58.256,-0.19,-0.045
2021-08-19 21:12:58.260,-0.2,-0.04
2021-08-19 21:12:58.264,-0.185,-0.02
2021-08-19 21:12:58.268,-0.175,-0.035
2021-08-19 21:12:58.272,-0.195,-0.025
2021-08-19 21:12:58.276,-0.165,-0.035
2021-08-19 21:12:58.280,-0.185,-0.015
2021-08-19 21:12:58.284,-0.175,-0.02
2021-08-19 21:12:58.288,-0.175,-0.015
2021-08-19 21:12:58.292,-0.14,0.005
2021-08-19 21:12:58.296,-0.1,0.0
2021-08-19 21:12:58.300,-0.075,-0.005
2021-08-19 21:12:58.304,-0.035,-0.01
2021-08-19 21:12:58.308,-0.03,-0.03
2021-08-19 21:12:58.312,-0.02,-0.045
2021-08-19 21:12:58.316,-0.05,-0.07
2021-08-19 21:12:58.320,-0.07,-0.075
2021-08-19 21:12:58.324,-0.07,-0.09
2021-08-19 21:12:58.328,0.0,-0.14
2021-08-19 21:12:58.332,0.235,-0.255
2021-08-19 21:12:58.336,0.56,-0.425
2021-08-19 21:12:58.340,0.855,-0.715
2021-08-19 21:12:58.344,0.97,-0.97
2021-08-19 21:12:58.348,0.865,-1.115
2021-08-19 21:12:58.352,0.51,-1.015
2021-08-19 21:12:58.356,0.08,-0.715
2021-08-19 21:12:58.360,-0.2,-0.355
2021-08-19 21:12:58.364,-0.335,-0.085
2021-08-19 21:12:58.368,-0.355,0.04
2021-08-19 21:12:58.372,-0.37,0.1
2021-08-19 21:12:58.376,-0.39,0.11
2021-08-19 21:12:58.380,-0.395,0.115
2021-08-19 21:12:58.384,-0.41,0.1
2021-08-19 21:12:58.388,-0.41,0.09
2021-08-19 21:12:58.392,-0.415,0.075
2021-08-19 21:12:58.396,-0.425,0.04
2021-08-19 21:12:58.400,-0.41,0.01
2021-08-19 21:12:58.404,-0.41,-0.01
2021-08-19 21:12:58.408,-0.425,-0.005
2021-08-19 21:12:58.412,-0.415,-0.025
2021-08-19 21:12:58.416,-0.43,-0.01
2021-08-19 21:12:58.420,-0.43,-0.025
2021-08-19 21:12:58.424,-0.445,-0.035
2021-08-19 21:12:58.428,-0.445,-0.01
2021-08-19 21:12:58.432,-0.46,-0.005
2021-08-19 21:12:58.436,-0.445,-0.015
2021-08-19 21:12:58.440,-0.435,0.0
2021-08-19 21:12:58.444,-0.455,0.0
2021-08-19 21:12:58.448,-0.46,0.01
2021-08-19 21:12:58.452,-0.45,0.035
2021-08-19 21:12:58.456,-0.43,0.025
2021-08-19 21:12:58.460,-0.44,0.035
2021-08-19 21:12:58.464,-0.45,0.025
2021-08-19 21:12:58.468,-0.44,0.05
2021-08-19 21:12:58.472,-0.44,0.04
2021-08-19 21:12:58.476,-0.425,0.055
2021-08-19 21:12:58.480,-0.43,0.045
2021-08-19 21:12:58.484,-0.415,0.035
2021-08-19 21:12:58.488,-0.385,0.05
2021-08-19 21:12:58.492,-0.425,0.065
2021-08-19 21:12:58.496,-0.405,0.045
2021-08-19 21:12:58.500,-0.415,0.035
2021-08-19 21:12:58.504,-0.405,0.06
2021-08-19 21:12:58.508,-0.425,0.07
2021-08-19 21:12:58.512,-0.43,0.075
2021-08-19 21:12:58.516,-0.435,0.08
2021-08-19 21:12:58.520,-0.44,0.065
2021-08-19 21:12:58.524,-0.425,0.085
2021-08-19 21:12:58.528,-0.44,0.07
2021-08-19 21:12:58.532,-0.41,0.095
2021-08-19 21:12:58.536,-0.4,0.095
2021-08-19 21:12:58.540,-0.405,0.06
2021-08-19 21:12:58.544,-0.395,0.065
2021-08-19 21:12:58.548,-0.385,0.06
2021-08-19 21:12:58.552,-0.375,0.04
2021-08-19 21:12:58.556,-0.34,0.035
2021-08-19 21:12:58.560,-0.355,0.035
2021-08-19 21:12:58.564,-0.345,0.02
2021-08-19 21:12:58.568,-0.33,0.0
2021-08-19 21:12:58.572,-0.32,0.035
2021-08-19 21:12:58.576,-0.32,0.025
2021-08-19 21:12:58.580,-0.29,0.015
2021-08-19 21:12:58.584,-0.28,0.015
2021-08-19 21:12:58.588,-0.255,0.01
2021-08-19 21:12:58.592,-0.245,0.015
2021-08-19 21:12:58.596,-0.235,0.015
2021-08-19 21:12:58.600,-0.22,0.01
2021-08-19 21:12:58.604,-0.225,0.0
2021-08-19 21:12:58.608,-0.24,0.01
2021-08-19 21:12:58.612,-0.235,0.0
2021-08-19 21:12:58.616,-0.215,0.0
2021-08-19 21:12:58.620,-0.235,0.0
2021-08-19 21:12:58.624,-0.23,0.005
2021-08-19 21:12:58.628,-0.235,0.0
2021-08-19 21:12:58.632,-0.24,-0.01
2021-08-19 21:12:58.636,-0.24,0.0
2021-08-19 21:12:58.640,-0.26,-0.01
2021-08-19 21:12:58.644,-0.24,0.0
2021-08-19 21:12:58.648,-0.24,-0.005
2021-08-19 21:12:58.652,-0.25,-0.005
2021-08-19 21:12:58.656,-0.25,-0.015
2021-08-19 21:12:58.660,-0.255,-0.03
2021-08-19 21:12:58.664,-0.255,-0.015
2021-08-19 21:12:58.668,-0.24,-0.02
2021-08-19 21:12:58.672,-0.235,-0.005
2021-08-19 21:12:58.676,-0.245,0.005
2021-08-19 21:12:58.680,-0.24,-0.005
2021-08-19 21:12:58.684,-0.225,0.01
2021-08-19 21:12:58.688,-0.225,-0.005
2021-08-19 21:12:58.692,-0.225,-0.01
2021-08-19 21:12:58.696,-0.195,0.0
2021-08-19 21:12:58.700,-0.195,0.0
2021-08-19 21:12:58.704,-0.18,0.0
2021-08-19 21:12:58.708,-0.175,0.015
2021-08-19 21:12:58.712,-0.155,0.02
2021-08-19 21:12:58.716,-0.13,0.01
2021-08-19 21:12:58.720,-0.15,0.005
2021-08-19 21:12:58.724,-0.145,0.01
2021-08-19 21:12:58.728,-0.16,0.015
2021-08-19 21:12:58.732,-0.185,0.005
2021-08-19 21:12:58.736,-0.2,0.005
2021-08-19 21:12:58.740,-0.21,0.02
2021-08-19 21:12:58.744,-0.21,0.005
2021-08-19 21:12:58.748,-0.22,0.01
2021-08-19 21:12:58.752,-0.24,0.04
2021-08-19 21:12:58.756,-0.225,0.04
2021-08-19 21:12:58.760,-0.245,0.025
2021-08-19 21:12:58.764,-0.25,0.01
2021-08-19 21:12:58.768,-0.23,0.0
2021-08-19 21:12:58.772,-0.24,0.015
2021-08-19 21:12:58.776,-0.235,0.02
2021-08-19 21:12:58.780,-0.235,0.005
2021-08-19 21:12:58.784,-0.225,0.015
2021-08-19 21:12:58.788,-0.25,0.02
2021-08-19 21:12:58.792,-0.23,0.02
2021-08-19 21:12:58.796,-0.24,0.02
2021-08-19 21:12:58.800,-0.265,0.025
2021-08-19 21:12:58.804,-0.25,0.035
2021-08-19 21:12:58.808,-0.255,0.025
2021-08-19 21:12:58.812,-0.24,0.01
2021-08-19 21:12:58.816,-0.23,0.005
2021-08-19 21:12:58.820,-0.235,0.005
2021-08-19 21:12:58.824,-0.235,-0.005
2021-08-19 21:12:58.828,-0.235,-0.005
2021-08-19 21:12:58.832,-0.27,-0.02
2021-08-19 21:12:58.836,-0.28,-0.025
2021-08-19 21:12:58.840,-0.28,-0.015
2021-08-19 21:12:58.844,-0.285,-0.03
2021-08-19 21:12:58.848,-0.275,-0.07
2021-08-19 21:12:58.852,-0.29,-0.045
2021-08-19 21:12:58.856,-0.285,-0.06
2021-08-19 21:12:58.860,-0.29,-0.055
2021-08-19 21:12:58.864,-0.28,-0.04
2021-08-19 21:12:58.868,-0.265,-0.06
2021-08-19 21:12:58.872,-0.29,-0.065
2021-08-19 21:12:58.876,-0.27,-0.07
2021-08-19 21:12:58.880,-0.25,-0.07
2021-08-19 21:12:58.884,-0.225,-0.045
2021-08-19 21:12:58.888,-0.225,-0.07
2021-08-19 21:12:58.892,-0.24,-0.045
2021-08-19 21:12:58.896,-0.2,-0.055
2021-08-19 21:12:58.900,-0.205,-0.045
2021-08-19 21:12:58.904,-0.21,-0.035
2021-08-19 21:12:58.908,-0.205,-0.04
2021-08-19 21:12:58.912,-0.19,-0.04
2021-08-19 21:12:58.916,-0.22,-0.035
2021-08-19 21:12:58.920,-0.19,-0.02
2021-08-19 21:12:58.924,-0.19,-0.035
2021-08-19 21:12:58.928,-0.195,-0.035
2021-08-19 21:12:58.932,-0.19,0.0
2021-08-19 21:12:58.936,-0.2,-0.02
2021-08-19 21:12:58.940,-0.18,-0.025
2021-08-19 21:12:58.944,-0.19,-0.015
2021-08-19 21:12:58.948,-0.195,-0.01
2021-08-19 21:12:58.952,-0.195,0.005
2021-08-19 21:12:58.956,-0.205,-0.02
2021-08-19 21:12:58.960,-0.225,-0.015
2021-08-19 21:12:58.964,-0.225,0.0
2021-08-19 21:12:58.968,-0.23,0.005
2021-08-19 21:12:58.972,-0.24,0.0
2021-08-19 21:12:58.976,-0.245,0.02
2021-08-19 21:12:58.980,-0.25,0.025
2021-08-19 21:12:58.984,-0.28,0.05
2021-08-19 21:12:58.988,-0.27,0.04
2021-08-19 21:12:58.992,-0.28,0.04
2021-08-19 21:12:58.996,-0.275,0.045
2021-08-19 21:12:59.000,-0.275,0.03
2021-08-19 21:12:59.004,-0.265,0.04
2021-08-19 21:12:59.008,-0.255,0.025
2021-08-19 21:12:59.012,-0.27,0.025
2021-08-19 21:12:59.016,-0.265,0.055
2021-08-19 21:12:59.020,-0.275,0.035
2021-08-19 21:12:59.024,-0.27,0.05
2021-08-19 21:12:59.028,-0.245,0.015
2021-08-19 21:12:59.032,-0.235,0.035
2021-08-19 21:12:59.036,-0.235,0.015
2021-08-19 21:12:59.040,-0.205,0.0
2021-08-19 21:12:59.044,-0.18,-0.015
2021-08-19 21:12:59.048,-0.155,-0.01
2021-08-19 21:12:59.052,-0.115,-0.03
2021-08-19 21:12:59.056,-0.03,-0.04
2021-08-19 21:12:59.060,0.04,-0.07
2021-08-19 21:12:59.064,0.1,-0.07
2021-08-19 21:12:59.068,0.15,-0.14
2021-08-19 21:12:59.072,0.16,-0.155
2021-08-19 21:12:59.076,0.185,-0.17
2021-08-19 21:12:59.080,0.165,-0.15
2021-08-19 21:12:59.084,0.13,-0.165
2021-08-19 21:12:59.088,0.175,-0.215
2021-08-19 21:12:59.092,0.345,-0.345
2021-08-19 21:12:59.096,0.655,-0.55
2021-08-19 21:12:59.100,0.935,-0.765
2021-08-19 21:12:59.104,1.035,-0.985
2021-08-19 21:12:59.108,0.91,-1.125
2021-08-19 21:12:59.112,0.49,-1.02
2021-08-19 21:12:59.116,0.065,-0.705
2021-08-19 21:12:59.120,-0.17,-0.36
2021-08-19 21:12:59.124,-0.295,-0.12
2021-08-19 21:12:59.128,-0.36,0.015
2021-08-19 21:12:59.132,-0.36,0.11
2021-08-19 21:12:59.136,-0.38,0.16
2021-08-19 21:12:59.140,-0.41,0.18
2021-08-19 21:12:59.144,-0.41,0.18
2021-08-19 21:12:59.148,-0.4,0.16
2021-08-19 21:12:59.152,-0.42,0.16
2021-08-19 21:12:59.156,-0.415,0.115
2021-08-19 21:12:59.160,-0.415,0.075
2021-08-19 21:12:59.164,-0.41,0.075
2021-08-19 21:12:59.168,-0.415,0.095
2021-08-19 21:12:59.172,-0.425,0.085
2021-08-19 21:12:59.176,-0.42,0.1
2021-08-19 21:12:59.180,-0.44,0.115
2021-08-19 21:12:59.184,-0.435,0.12
2021-08-19 21:12:59.188,-0.44,0.11
2021-08-19 21:12:59.192,-0.465,0.155
2021-08-19 21:12:59.196,-0.47,0.15
2021-08-19 21:12:59.200,-0.475,0.15
2021-08-19 21:12:59.204,-0.48,0.15
2021-08-19 21:12:59.208,-0.49,0.14
2021-08-19 21:12:59.212,-0.5,0.14
2021-08-19 21:12:59.216,-0.485,0.145
2021-08-19 21:12:59.220,-0.505,0.135
2021-08-19 21:12:59.224,-0.505,0.135
2021-08-19 21:12:59.228,-0.525,0.125
2021-08-19 21:12:59.232,-0.535,0.13
2021-08-19 21:12:59.236,-0.535,0.13
2021-08-19 21:12:59.240,-0.545,0.12
2021-08-19 21:12:59.244,-0.565,0.13
2021-08-19 21:12:59.248,-0.55,0.135
2021-08-19 21:12:59.252,-0.56,0.125
2021-08-19 21:12:59.256,-0.525,0.13
2021-08-19 21:12:59.260,-0.54,0.105
2021-08-19 21:12:59.264,-0.535,0.075
2021-08-19 21:12:59.268,-0.52,0.1
2021-08-19 21:12:59.272,-0.53,0.095
2021-08-19 21:12:59.276,-0.505,0.085
2021-08-19 21:12:59.280,-0.495,0.06
2021-08-19 21:12:59.284,-0.5,0.05
2021-08-19 21:12:59.288,-0.505,0.035
2021-08-19 21:12:59.292,-0.48,0.04
2021-08-19 21:12:59.296,-0.48,0.025
2021-08-19 21:12:59.300,-0.455,0.0
2021-08-19 21:12:59.304,-0.445,0.0
2021-08-19 21:12:59.308,-0.425,0.015
2021-08-19 21:12:59.312,-0.43,-0.005
2021-08-19 21:12:59.316,-0.415,0.005
2021-08-19 21:12:59.320,-0.405,0.015
2021-08-19 21:12:59.324,-0.39,-0.01
2021-08-19 21:12:59.328,-0.395,0.0
2021-08-19 21:12:59.332,-0.395,0.005
2021-08-19 21:12:59.336,-0.38,0.0
2021-08-19 21:12:59.340,-0.37,0.0
2021-08-19 21:12:59.344,-0.375,0.015
2021-08-19 21:12:59.348,-0.345,0.005
2021-08-19 21:12:59.352,-0.34,-0.015
2021-08-19 21:12:59.356,-0.345,-0.015
2021-08-19 21:12:59.360,-0.345,0.005
2021-08-19 21:12:59.364,-0.355,0.0
2021-08-19 21:12:59.368,-0.345,-0.01
2021-08-19 21:12:59.372,-0.35,-0.005
2021-08-19 21:12:59.376,-0.34,0.0
2021-08-19 21:12:59.380,-0.315,-0.01
2021-08-19 21:12:59.384,-0.285,-0.015
2021-08-19 21:12:59.388,-0.275,-0.005
2021-08-19 21:12:59.392,-0.285,-0.015
2021-08-19 21:12:59.396,-0.255,-0.025
2021-08-19 21:12:59.400,-0.28,0.0
2021-08-19 21:12:59.404,-0.28,0.005
2021-08-19 21:12:59.408,-0.28,0.015
2021-08-19 21:12:59.412,-0.28,0.015
2021-08-19 21:12:59.416,-0.28,0.03
2021-08-19 21:12:59.420,-0.28,0.035
2021-08-19 21:12:59.424,-0.285,0.04
2021-08-19 21:12:59.428,-0.28,0.045
2021-08-19 21:12:59.432,-0.27,0.03
2021-08-19 21:12:59.436,-0.285,0.035
2021-08-19 21:12:59.440,-0.295,0.045
2021-08-19 21:12:59.444,-0.3,0.035
2021-08-19 21:12:59.448,-0.3,0.04
2021-08-19 21:12:59.452,-0.315,0.045
2021-08-19 21:12:59.456,-0.31,0.06
2021-08-19 21:12:59.460,-0.32,0.065
2021-08-19 21:12:59.464,-0.34,0.06
2021-08-19 21:12:59.468,-0.345,0.04
2021-08-19 21:12:59.472,-0.35,0.025
2021-08-19 21:12:59.476,-0.345,0.035
2021-08-19 21:12:59.480,-0.355,0.03
2021-08-19 21:12:59.484,-0.36,0.015
2021-08-19 21:12:59.488,-0.335,0.01
2021-08-19 21:12:59.492,-0.295,0.015
2021-08-19 21:12:59.496,-0.23,0.005
2021-08-19 21:12:59.500,-0.16,0.0
2021-08-19 21:12:59.504,-0.085,-0.03
2021-08-19 21:12:59.508,0.01,-0.04
2021-08-19 21:12:59.512,0.045,-0.05
2021-08-19 21:12:59.516,0.065,-0.09
2021-08-19 21:12:59.520,0.115,-0.11
2021-08-19 21:12:59.524,0.13,-0.11
2021-08-19 21:12:59.528,0.11,-0.095
2021-08-19 21:12:59.532,0.155,-0.135
2021-08-19 21:12:59.536,0.34,-0.18
2021-08-19 21:12:59.540,0.675,-0.315
2021-08-19 21:12:59.544,0.95,-0.585
2021-08-19 21:12:59.548,1.065,-0.825
2021-08-19 21:12:59.552,0.9,-0.975
2021-08-19 21:12:59.556,0.52,-0.905
2021-08-19 21:12:59.560,0.125,-0.645
2021-08-19 21:12:59.564,-0.1,-0.3
2021-08-19 21:12:59.568,-0.22,-0.1
2021-08-19 21:12:59.572,-0.27,0.05
2021-08-19 21:12:59.576,-0.285,0.1
2021-08-19 21:12:59.580,-0.305,0.11
2021-08-19 21:12:59.584,-0.34,0.12
2021-08-19 21:12:59.588,-0.36,0.13
2021-08-19 21:12:59.592,-0.36,0.11
2021-08-19 21:12:59.596,-0.375,0.09
2021-08-19 21:12:59.600,-0.385,0.075
2021-08-19 21:12:59.604,-0.38,0.06
2021-08-19 21:12:59.608,-0.395,0.055
2021-08-19 21:12:59.612,-0.41,0.05
2021-08-19 21:12:59.616,-0.39,0.055
2021-08-19 21:12:59.620,-0.41,0.025
2021-08-19 21:12:59.624,-0.44,0.05
2021-08-19 21:12:59.628,-0.42,0.055
2021-08-19 21:12:59.632,-0.455,0.045
2021-08-19 21:12:59.636,-0.455,0.06
2021-08-19 21:12:59.640,-0.46,0.055
2021-08-19 21:12:59.644,-0.465,0.04
2021-08-19 21:12:59.648,-0.465,0.04
2021-08-19 21:12:59.652,-0.475,0.055
2021-08-19 21:12:59.656,-0.465,0.065
2021-08-19 21:12:59.660,-0.465,0.055
2021-08-19 21:12:59.664,-0.48,0.05
2021-08-19 21:12:59.668,-0.505,0.06
2021-08-19 21:12:59.672,-0.52,0.07
2021-08-19 21:12:59.676,-0.5,0.06
2021-08-19 21:12:59.680,-0.555,0.06
2021-08-19 21:12:59.684,-0.54,0.07
2021-08-19 21:12:59.688,-0.53,0.08
2021-08-19 21:12:59.692,-0.56,0.075
2021-08-19 21:12:59.696,-0.55,0.06
2021-08-19 21:12:59.700,-0.54,0.045
2021-08-19 21:12:59.704,-0.53,0.055
2021-08-19 21:12:59.708,-0.525,0.065
2021-08-19 21:12:59.712,-0.5,0.07
2021-08-19 21:12:59.716,-0.495,0.055
2021-08-19 21:12:59.720,-0.495,0.025
2021-08-19 21:12:59.724,-0.445,0.03
2021-08-19 21:12:59.728,-0.44,0.02
2021-08-19 21:12:59.732,-0.415,0.015
2021-08-19 21:12:59.736,-0.385,0.0
2021-08-19 21:12:59.740,-0.37,0.0
2021-08-19 21:12:59.744,-0.37,0.0
2021-08-19 21:12:59.748,-0.355,0.0
2021-08-19 21:12:59.752,-0.335,0.005
2021-08-19 21:12:59.756,-0.3,0.0
2021-08-19 21:12:59.760,-0.28,-0.015
2021-08-19 21:12:59.764,-0.245,-0.01
2021-08-19 21:12:59.768,-0.23,0.0
2021-08-19 21:12:59.772,-0.23,0.0
2021-08-19 21:12:59.776,-0.205,-0.005
2021-08-19 21:12:59.780,-0.2,0.005
2021-08-19 21:12:59.784,-0.215,0.0
2021-08-19 21:12:59.788,-0.19,0.01
2021-08-19 21:12:59.792,-0.19,0.015
2021-08-19 21:12:59.796,-0.185,0.005
2021-08-19 21:12:59.800,-0.165,0.005
2021-08-19 21:12:59.804,-0.155,0.0
2021-08-19 21:12:59.808,-0.155,0.02
2021-08-19 21:12:59.812,-0.17,0.02
2021-08-19 21:12:59.816,-0.16,0.03
2021-08-19 21:12:59.820,-0.17,0.01
2021-08-19 21:12:59.824,-0.17,0.035
2021-08-19 21:12:59.828,-0.16,0.01
2021-08-19 21:12:59.832,-0.165,0.045
2021-08-19 21:12:59.836,-0.175,0.015
2021-08-19 21:12:59.840,-0.185,0.0
2021-08-19 21:12:59.844,-0.185,0.01
2021-08-19 21:12:59.848,-0.205,0.005
2021-08-19 21:12:59.852,-0.225,-0.01
2021-08-19 21:12:59.856,-0.21,0.005
2021-08-19 21:12:59.860,-0.24,-0.015
2021-08-19 21:12:59.864,-0.25,-0.02
2021-08-19 21:12:59.868,-0.25,-0.03
2021-08-19 21:12:59.872,-0.24,-0.025
2021-08-19 21:12:59.876,-0.235,-0.02
2021-08-19 21:12:59.880,-0.225,-0.035
2021-08-19 21:12:59.884,-0.185,-0.03
2021-08-19 21:12:59.888,-0.11,-0.02
2021-08-19 21:12:59.892,-0.06,-0.04
2021-08-19 21:12:59.896,-0.005,-0.045
2021-08-19 21:12:59.900,0.03,-0.07
2021-08-19 21:12:59.904,0.06,-0.08
2021-08-19 21:12:59.908,0.065,-0.115
2021-08-19 21:12:59.912,0.05,-0.145
2021-08-19 21:12:59.916,0.015,-0.135
2021-08-19 21:12:59.920,-0.01,-0.16
2021-08-19 21:12:59.924,0.065,-0.235
2021-08-19 21:12:59.928,0.285,-0.32
2021-08-19 21:12:59.932,0.61,-0.515
2021-08-19 21:12:59.936,0.895,-0.77
2021-08-19 21:12:59.940,1.0,-1.0
2021-08-19 21:12:59.944,0.835,-1.145
2021-08-19 21:12:59.948,0.45,-0.985
2021-08-19 21:12:59.952,0.005,-0.66
2021-08-19 21:12:59.956,-0.215,-0.33
2021-08-19 21:12:59.960,-0.305,-0.1
2021-08-19 21:12:59.964,-0.325,0.035
2021-08-19 21:12:59.968,-0.3,0.075
2021-08-19 21:12:59.972,-0.32,0.105
2021-08-19 21:12:59.976,-0.31,0.13
2021-08-19 21:12:59.980,-0.285,0.145
2021-08-19 21:12:59.984,-0.3,0.11
2021-08-19 21:12:59.988,-0.3,0.095
2021-08-19 21:12:59.992,-0.315,0.07
2021-08-19 21:12:59.996,-0.305,0.065
2021-08-19 21:13:00.000,-0.325,0.06
2021-08-19 21:13:00.004,-0.335,0.04
2021-08-19 21:13:00.008,-0.315,0.05
2021-08-19 21:13:00.012,-0.33,0.04
2021-08-19 21:13:00.016,-0.33,0.045
2021-08-19 21:13:00.020,-0.325,0.04
2021-08-19 21:13:00.024,-0.34,0.035
2021-08-19 21:13:00.028,-0.36,0.05
2021-08-19 21:13:00.032,-0.385,0.05
2021-08-19 21:13:00.036,-0.37,0.01
2021-08-19 21:13:00.040,-0.38,0.05
2021-08-19 21:13:00.044,-0.375,0.04
2021-08-19 21:13:00.048,-0.35,0.04
2021-08-19 21:13:00.052,-0.345,0.045
2021-08-19 21:13:00.056,-0.38,0.05
2021-08-19 21:13:00.060,-0.4,0.06
2021-08-19 21:13:00.064,-0.405,0.07
2021-08-19 21:13:00.068,-0.41,0.07
2021-08-19 21:13:00.072,-0.4,0.045
2021-08-19 21:13:00.076,-0.415,0.06
2021-08-19 21:13:00.080,-0.425,0.07
2021-08-19 21:13:00.084,-0.4,0.025
2021-08-19 21:13:00.088,-0.4,0.055
2021-08-19 21:13:00.092,-0.415,0.015
2021-08-19 21:13:00.096,-0.39,0.03
2021-08-19 21:13:00.100,-0.38,0.03
2021-08-19 21:13:00.104,-0.39,0.04
2021-08-19 21:13:00.108,-0.38,-0.01
2021-08-19 21:13:00.112,-0.39,0.0
2021-08-19 21:13:00.116,-0.38,0.015
2021-08-19 21:13:00.120,-0.39,0.0
2021-08-19 21:13:00.124,-0.36,0.0
2021-08-19 21:13:00.128,-0.385,-0.01
2021-08-19 21:13:00.132,-0.39,-0.02
2021-08-19 21:13:00.136,-0.395,-0.005
2021-08-19 21:13:00.140,-0.405,-0.025
2021-08-19 21:13:00.144,-0.405,-0.045
2021-08-19 21:13:00.148,-0.405,-0.06
2021-08-19 21:13:00.152,-0.42,-0.07
2021-08-19 21:13:00.156,-0.4,-0.04
2021-08-19 21:13:00.160,-0.395,-0.05
2021-08-19 21:13:00.164,-0.4,-0.075
2021-08-19 21:13:00.168,-0.375,-0.08
2021-08-19 21:13:00.172,-0.36,-0.095
2021-08-19 21:13:00.176,-0.335,-0.07
2021-08-19 21:13:00.180,-0.33,-0.07
2021-08-19 21:13:00.184,-0.31,-0.05
2021-08-19 21:13:00.188,-0.29,-0.035
2021-08-19 21:13:00.192,-0.285,-0.07
2021-08-19 21:13:00.196,-0.265,-0.07
2021-08-19 21:13:00.200,-0.24,-0.025
2021-08-19 21:13:00.204,-0.215,-0.03
2021-08-19 21:13:00.208,-0.175,0.0
2021-08-19 21:13:00.212,-0.17,0.0
2021-08-19 21:13:00.216,-0.13,0.0
2021-08-19 21:13:00.220,-0.14,0.005
2021-08-19 21:13:00.224,-0.135,0.0
2021-08-19 21:13:00.228,-0.15,-0.005
2021-08-19 21:13:00.232,-0.14,-0.035
2021-08-19 21:13:00.236,-0.16,-0.03
2021-08-19 21:13:00.240,-0.18,0.005
2021-08-19 21:13:00.244,-0.16,-0.01
2021-08-19 21:13:00.248,-0.195,-0.01
2021-08-19 21:13:00.252,-0.195,0.0
2021-08-19 21:13:00.256,-0.19,-0.005
2021-08-19 21:13:00.260,-0.21,0.0
2021-08-19 21:13:00.264,-0.22,-0.005
2021-08-19 21:13:00.268,-0.225,0.0
2021-08-19 21:13:00.272,-0.22,-0.015
2021-08-19 21:13:00.276,-0.225,-0.015
2021-08-19 21:13:00.280,-0.235,-0.005
2021-08-19 21:13:00.284,-0.245,-0.02
2021-08-19 21:13:00.288,-0.235,-0.03
2021-08-19 21:13:00.292,-0.24,-0.03
2021-08-19 21:13:00.296,-0.25,-0.045
2021-08-19 21:13:00.300,-0.23,-0.035
2021-08-19 21:13:00.304,-0.235,-0.035
2021-08-19 21:13:00.308,-0.21,-0.035
2021-08-19 21:13:00.312,-0.21,-0.005
2021-08-19 21:13:00.316,-0.22,-0.02
2021-08-19 21:13:00.320,-0.22,-0.02
2021-08-19 21:13:00.324,-0.23,-0.01
2021-08-19 21:13:00.328,-0.21,-0.02
2021-08-19 21:13:00.332,-0.215,-0.01
2021-08-19 21:13:00.336,-0.22,-0.005
2021-08-19 21:13:00.340,-0.23,0.0
2021-08-19 21:13:00.344,-0.22,-0.01
2021-08-19 21:13:00.348,-0.215,-0.025
2021-08-19 21:13:00.352,-0.215,-0.02
2021-08-19 21:13:00.356,-0.215,-0.025
2021-08-19 21:13:00.360,-0.22,-0.005
2021-08-19 21:13:00.364,-0.23,-0.02
2021-08-19 21:13:00.368,-0.225,0.0
2021-08-19 21:13:00.372,-0.25,-0.025
2021-08-19 21:13:00.376,-0.235,0.0
2021-08-19 21:13:00.380,-0.235,0.0
2021-08-19 21:13:00.384,-0.225,0.005
2021-08-19 21:13:00.388,-0.23,-0.015
2021-08-19 21:13:00.392,-0.22,-0.025
2021-08-19 21:13:00.396,-0.21,-0.035
2021-08-19 21:13:00.400,-0.235,-0.045
2021-08-19 21:13:00.404,-0.225,-0.01
2021-08-19 21:13:00.408,-0.22,-0.03
2021-08-19 21:13:00.412,-0.18,-0.01
2021-08-19 21:13:00.416,-0.145,-0.01
2021-08-19 21:13:00.420,-0.075,0.01
2021-08-19 21:13:00.424,-0.01,0.0
2021-08-19 21:13:00.428,0.075,0.015
2021-08-19 21:13:00.432,0.135,-0.01
2021-08-19 21:13:00.436,0.165,-0.02
2021-08-19 21:13:00.440,0.19,-0.05
2021-08-19 21:13:00.444,0.195,-0.065
2021-08-19 21:13:00.448,0.185,-0.06
2021-08-19 21:13:00.452,0.19,-0.09
2021-08-19 21:13:00.456,0.29,-0.175
2021-08-19 21:13:00.460,0.495,-0.35
2021-08-19 21:13:00.464,0.805,-0.56
2021-08-19 21:13:00.468,1.065,-0.845
2021-08-19 21:13:00.472,1.125,-1.08
2021-08-19 21:13:00.476,0.94,-1.18
2021-08-19 21:13:00.480,0.545,-1.09
2021-08-19 21:13:00.484,0.105,-0.755
2021-08-19 21:13:00.488,-0.16,-0.415
2021-08-19 21:13:00.492,-0.295,-0.205
2021-08-19 21:13:00.496,-0.345,-0.09
2021-08-19 21:13:00.500,-0.365,-0.025
2021-08-19 21:13:00.504,-0.38,0.035
2021-08-19 21:13:00.508,-0.39,0.05
2021-08-19 21:13:00.512,-0.4,0.06
2021-08-19 21:13:00.516,-0.4,0.07
2021-08-19 21:13:00.520,-0.405,0.065
2021-08-19 21:13:00.524,-0.415,0.03
2021-08-19 21:13:00.528,-0.415,0.015
2021-08-19 21:13:00.532,-0.41,0.005
2021-08-19 21:13:00.536,-0.4,0.005
2021-08-19 21:13:00.540,-0.405,0.04
2021-08-19 21:13:00.544,-0.41,0.03
2021-08-19 21:13:00.548,-0.41,0.035
2021-08-19 21:13:00.552,-0.43,0.045
2021-08-19 21:13:00.556,-0.425,0.06
2021-08-19 21:13:00.560,-0.42,0.04
2021-08-19 21:13:00.564,-0.42,0.04
2021-08-19 21:13:00.568,-0.425,0.06
2021-08-19 21:13:00.572,-0.41,0.035
2021-08-19 21:13:00.576,-0.425,0.05
2021-08-19 21:13:00.580,-0.43,0.035
2021-08-19 21:13:00.584,-0.435,0.035
2021-08-19 21:13:00.588,-0.43,0.045
2021-08-19 21:13:00.592,-0.41,0.05
2021-08-19 21:13:00.596,-0.41,0.04
2021-08-19 21:13:00.600,-0.405,0.04
2021-08-19 21:13:00.604,-0.395,0.04
2021-08-19 21:13:00.608,-0.39,0.03
2021-08-19 21:13:00.612,-0.365,0.03
2021-08-19 21:13:00.616,-0.345,0.035
2021-08-19 21:13:00.620,-0.355,0.045
2021-08-19 21:13:00.624,-0.345,0.04
2021-08-19 21:13:00.628,-0.345,0.04
2021-08-19 21:13:00.632,-0.34,0.065
2021-08-19 21:13:00.636,-0.33,0.065
2021-08-19 21:13:00.640,-0.33,0.06
2021-08-19 21:13:00.644,-0.32,0.085
2021-08-19 21:13:00.648,-0.32,0.085
2021-08-19 21:13:00.652,-0.305,0.085
2021-08-19 21:13:00.656,-0.305,0.1
2021-08-19 21:13:00.660,-0.29,0.11
2021-08-19 21:13:00.664,-0.3,0.085
2021-08-19 21:13:00.668,-0.305,0.08
2021-08-19 21:13:00.672,-0.295,0.08
2021-08-19 21:13:00.676,-0.27,0.11
2021-08-19 21:13:00.680,-0.27,0.095
2021-08-19 21:13:00.684,-0.27,0.08
2021-08-19 21:13:00.688,-0.23,0.06
2021-08-19 21:13:00.692,-0.21,0.06
2021-08-19 21:13:00.696,-0.185,0.055
2021-08-19 21:13:00.700,-0.175,0.035
2021-08-19 21:13:00.704,-0.175,0.02
2021-08-19 21:13:00.708,-0.16,0.035
2021-08-19 21:13:00.712,-0.175,0.02
2021-08-19 21:13:00.716,-0.17,-0.035
2021-08-19 21:13:00.720,-0.15,-0.05
2021-08-19 21:13:00.724,-0.155,-0.065
2021-08-19 21:13:00.728,-0.145,-0.08
2021-08-19 21:13:00.732,-0.135,-0.075
2021-08-19 21:13:00.736,-0.15,-0.08
2021-08-19 21:13:00.740,-0.15,-0.085
2021-08-19 21:13:00.744,-0.16,-0.09
2021-08-19 21:13:00.748,-0.16,-0.07
2021-08-19 21:13:00.752,-0.15,-0.075
2021-08-19 21:13:00.756,-0.15,-0.065
2021-08-19 21:13:00.760,-0.16,-0.075
2021-08-19 21:13:00.764,-0.17,-0.06
2021-08-19 21:13:00.768,-0.175,-0.05
2021-08-19 21:13:00.772,-0.22,-0.035
2021-08-19 21:13:00.776,-0.22,-0.04
2021-08-19 21:13:00.780,-0.235,-0.045
2021-08-19 21:13:00.784,-0.245,-0.03
2021-08-19 21:13:00.788,-0.22,-0.03
2021-08-19 21:13:00.792,-0.255,-0.035
2021-08-19 21:13:00.796,-0.25,-0.01
2021-08-19 21:13:00.800,-0.255,-0.03
2021-08-19 21:13:00.804,-0.24,-0.05
2021-08-19 21:13:00.808,-0.215,-0.04
2021-08-19 21:13:00.812,-0.22,-0.015
2021-08-19 21:13:00.816,-0.21,-0.025
2021-08-19 21:13:00.820,-0.17,-0.035
2021-08-19 21:13:00.824,-0.17,-0.03
2021-08-19 21:13:00.828,-0.145,-0.025
2021-08-19 21:13:00.832,-0.145,-0.025
2021-08-19 21:13:00.836,-0.14,-0.015
2021-08-19 21:13:00.840,-0.15,-0.03
2021-08-19 21:13:00.844,-0.12,-0.01
2021-08-19 21:13:00.848,-0.13,0.005
2021-08-19 21:13:00.852,-0.13,0.0
2021-08-19 21:13:00.856,-0.095,0.025
2021-08-19 21:13:00.860,-0.095,0.025
2021-08-19 21:13:00.864,-0.095,0.015
2021-08-19 21:13:00.868,-0.08,0.015
2021-08-19 21:13:00.872,-0.105,0.03
2021-08-19 21:13:00.876,-0.125,0.035
2021-08-19 21:13:00.880,-0.125,0.065
2021-08-19 21:13:00.884,-0.105,0.075
2021-08-19 21:13:00.888,-0.1,0.055
2021-08-19 21:13:00.892,-0.1,0.075
2021-08-19 21:13:00.896,-0.135,0.085
2021-08-19 21:13:00.900,-0.165,0.07
2021-08-19 21:13:00.904,-0.19,0.065
2021-08-19 21:13:00.908,-0.18,0.055
2021-08-19 21:13:00.912,-0.16,0.08
2021-08-19 21:13:00.916,-0.18,0.055
2021-08-19 21:13:00.920,-0.16,0.05
2021-08-19 21:13:00.924,-0.15,0.05
2021-08-19 21:13:00.928,-0.12,0.035
2021-08-19 21:13:00.932,-0.13,0.015
2021-08-19 21:13:00.936,-0.125,0.01
2021-08-19 21:13:00.940,-0.14,0.0
2021-08-19 21:13:00.944,-0.14,-0.035
2021-08-19 21:13:00.948,-0.16,-0.035
2021-08-19 21:13:00.952,-0.175,-0.06
2021-08-19 21:13:00.956,-0.195,-0.065
2021-08-19 21:13:00.960,-0.205,-0.055
2021-08-19 21:13:00.964,-0.195,-0.065
2021-08-19 21:13:00.968,-0.195,-0.065
2021-08-19 21:13:00.972,-0.19,-0.075
2021-08-19 21:13:00.976,-0.195,-0.06
2021-08-19 21:13:00.980,-0.205,-0.08
2021-08-19 21:13:00.984,-0.21,-0.075
2021-08-19 21:13:00.988,-0.205,-0.065
2021-08-19 21:13:00.992,-0.22,-0.085
2021-08-19 21:13:00.996,-0.23,-0.075
2021-08-19 21:13:01.000,-0.23,-0.06
2021-08-19 21:13:01.004,-0.225,-0.05
2021-08-19 21:13:01.008,-0.21,-0.06
2021-08-19 21:13:01.012,-0.215,-0.055
2021-08-19 21:13:01.016,-0.22,-0.075
2021-08-19 21:13:01.020,-0.21,-0.075
2021-08-19 21:13:01.024,-0.215,-0.08
2021-08-19 21:13:01.028,-0.19,-0.09
2021-08-19 21:13:01.032,-0.18,-0.105
2021-08-19 21:13:01.036,-0.19,-0.085
2021-08-19 21:13:01.040,-0.16,-0.105
2021-08-19 21:13:01.044,-0.16,-0.095
2021-08-19 21:13:01.048,-0.145,-0.07
2021-08-19 21:13:01.052,-0.14,-0.07
2021-08-19 21:13:01.056,-0.135,-0.06
2021-08-19 21:13:01.060,-0.145,-0.045
2021-08-19 21:13:01.064,-0.135,-0.045
2021-08-19 21:13:01.068,-0.15,-0.045
2021-08-19 21:13:01.072,-0.15,-0.025
2021-08-19 21:13:01.076,-0.155,-0.035
2021-08-19 21:13:01.080,-0.15,-0.035
2021-08-19 21:13:01.084,-0.13,-0.02
2021-08-19 21:13:01.088,-0.145,-0.015
2021-08-19 21:13:01.092,-0.145,-0.02
2021-08-19 21:13:01.096,-0.155,-0.01
2021-08-19 21:13:01.100,-0.155,0.0
2021-08-19 21:13:01.104,-0.175,-0.015
2021-08-19 21:13:01.108,-0.18,0.005
2021-08-19 21:13:01.112,-0.175,0.005
2021-08-19 21:13:01.116,-0.18,0.015
2021-08-19 21:13:01.120,-0.18,0.005
2021-08-19 21:13:01.124,-0.205,-0.005
2021-08-19 21:13:01.128,-0.21,0.0
2021-08-19 21:13:01.132,-0.24,-0.005
2021-08-19 21:13:01.136,-0.24,0.01
2021-08-19 21:13:01.140,-0.23,0.005
2021-08-19 21:13:01.144,-0.25,0.015
2021-08-19 21:13:01.148,-0.24,-0.01
2021-08-19 21:13:01.152,-0.205,-0.03
2021-08-19 21:13:01.156,-0.22,-0.04
2021-08-19 21:13:01.160,-0.21,-0.055
2021-08-19 21:13:01.164,-0.205,-0.055
2021-08-19 21:13:01.168,-0.205,-0.07
2021-08-19 21:13:01.172,-0.225,-0.06
2021-08-19 21:13:01.176,-0.215,-0.08
2021-08-19 21:13:01.180,-0.2,-0.065
2021-08-19 21:13:01.184,-0.205,-0.09
2021-08-19 21:13:01.188,-0.215,-0.095
2021-08-19 21:13:01.192,-0.215,-0.065
2021-08-19 21:13:01.196,-0.23,-0.09
2021-08-19 21:13:01.200,-0.215,-0.1
2021-08-19 21:13:01.204,-0.24,-0.08
2021-08-19 21:13:01.208,-0.25,-0.09
2021-08-19 21:13:01.212,-0.25,-0.09
2021-08-19 21:13:01.216,-0.255,-0.1
2021-08-19 21:13:01.220,-0.225,-0.095
2021-08-19 21:13:01.224,-0.22,-0.105
2021-08-19 21:13:01.228,-0.21,-0.11
2021-08-19 21:13:01.232,-0.19,-0.095
2021-08-19 21:13:01.236,-0.175,-0.09
2021-08-19 21:13:01.240,-0.18,-0.09
2021-08-19 21:13:01.244,-0.15,-0.09
2021-08-19 21:13:01.248,-0.095,-0.07
2021-08-19 21:13:01.252,-0.03,-0.08
2021-08-19 21:13:01.256,0.045,-0.06
2021-08-19 21:13:01.260,0.14,-0.095
2021-08-19 21:13:01.264,0.215,-0.075
2021-08-19 21:13:01.268,0.25,-0.105
2021-08-19 21:13:01.272,0.28,-0.145
2021-08-19 21:13:01.276,0.3,-0.16
2021-08-19 21:13:01.280,0.31,-0.175
2021-08-19 21:13:01.284,0.285,-0.19
2021-08-19 21:13:01.288,0.335,-0.245
2021-08-19 21:13:01.292,0.5,-0.365
2021-08-19 21:13:01.296,0.82,-0.535
2021-08-19 21:13:01.300,1.105,-0.785
2021-08-19 21:13:01.304,1.27,-0.985
2021-08-19 21:13:01.308,1.15,-1.115
2021-08-19 21:13:01.312,0.73,-1.02
2021-08-19 21:13:01.316,0.285,-0.685
2021-08-19 21:13:01.320,0.0,-0.36
2021-08-19 21:13:01.324,-0.15,-0.155
2021-08-19 21:13:01.328,-0.215,0.0
2021-08-19 21:13:01.332,-0.26,0.07
2021-08-19 21:13:01.336,-0.31,0.155
2021-08-19 21:13:01.340,-0.345,0.15
2021-08-19 21:13:01.344,-0.38,0.135
2021-08-19 21:13:01.348,-0.39,0.125
2021-08-19 21:13:01.352,-0.415,0.12
2021-08-19 21:13:01.356,-0.43,0.115
2021-08-19 21:13:01.360,-0.45,0.09
2021-08-19 21:13:01.364,-0.47,0.085
2021-08-19 21:13:01.368,-0.47,0.075
2021-08-19 21:13:01.372,-0.455,0.06
2021-08-19 21:13:01.376,-0.45,0.055
2021-08-19 21:13:01.380,-0.43,0.035
2021-08-19 21:13:01.384,-0.42,0.015
2021-08-19 21:13:01.388,-0.43,0.01
2021-08-19 21:13:01.392,-0.43,-0.01
2021-08-19 21:13:01.396,-0.43,0.01
2021-08-19 21:13:01.400,-0.465,-0.005
2021-08-19 21:13:01.404,-0.465,-0.01
2021-08-19 21:13:01.408,-0.455,0.0
2021-08-19 21:13:01.412,-0.435,0.0
2021-08-19 21:13:01.416,-0.45,-0.04
2021-08-19 21:13:01.420,-0.465,-0.025
2021-08-19 21:13:01.424,-0.465,-0.01
2021-08-19 21:13:01.428,-0.455,-0.01
2021-08-19 21:13:01.432,-0.43,-0.005
2021-08-19 21:13:01.436,-0.435,0.01
2021-08-19 21:13:01.440,-0.41,0.0
2021-08-19 21:13:01.444,-0.41,-0.02
2021-08-19 21:13:01.448,-0.395,-0.025
2021-08-19 21:13:01.452,-0.39,-0.01
2021-08-19 21:13:01.456,-0.385,-0.005
2021-08-19 21:13:01.460,-0.375,0.01
2021-08-19 21:13:01.464,-0.4,0.005
2021-08-19 21:13:01.468,-0.375,0.0
2021-08-19 21:13:01.472,-0.355,0.015
2021-08-19 21:13:01.476,-0.35,0.005
2021-08-19 21:13:01.480,-0.335,0.005
2021-08-19 21:13:01.484,-0.335,0.04
2021-08-19 21:13:01.488,-0.315,0.025
2021-08-19 21:13:01.492,-0.32,0.03
2021-08-19 21:13:01.496,-0.295,0.05
2021-08-19 21:13:01.500,-0.285,0.045
2021-08-19 21:13:01.504,-0.275,0.065
2021-08-19 21:13:01.508,-0.265,0.06
2021-08-19 21:13:01.512,-0.26,0.055
2021-08-19 21:13:01.516,-0.255,0.055
2021-08-19 21:13:01.520,-0.25,0.08
2021-08-19 21:13:01.524,-0.24,0.065
2021-08-19 21:13:01.528,-0.245,0.075
2021-08-19 21:13:01.532,-0.23,0.085
2021-08-19 21:13:01.536,-0.25,0.075
2021-08-19 21:13:01.540,-0.235,0.085
2021-08-19 21:13:01.544,-0.23,0.075
2021-08-19 21:13:01.548,-0.25,0.075
2021-08-19 21:13:01.552,-0.235,0.05
2021-08-19 21:13:01.556,-0.24,0.06
2021-08-19 21:13:01.560,-0.24,0.075
2021-08-19 21:13:01.564,-0.245,0.065
2021-08-19 21:13:01.568,-0.22,0.075
2021-08-19 21:13:01.572,-0.24,0.055
2021-08-19 21:13:01.576,-0.24,0.04
2021-08-19 21:13:01.580,-0.23,0.04
2021-08-19 21:13:01.584,-0.24,0.035
2021-08-19 21:13:01.588,-0.245,0.045
2021-08-19 21:13:01.592,-0.265,0.045
2021-08-19 21:13:01.596,-0.285,0.06
2021-08-19 21:13:01.600,-0.285,0.05
2021-08-19 21:13:01.604,-0.3,0.06
2021-08-19 21:13:01.608,-0.29,0.03
2021-08-19 21:13:01.612,-0.285,0.02
2021-08-19 21:13:01.616,-0.26,0.0
2021-08-19 21:13:01.620,-0.27,0.015
2021-08-19 21:13:01.624,-0.265,0.0
2021-08-19 21:13:01.628,-0.255,-0.005
2021-08-19 21:13:01.632,-0.25,-0.015
2021-08-19 21:13:01.636,-0.25,-0.005
2021-08-19 21:13:01.640,-0.27,-0.015
2021-08-19 21:13:01.644,-0.26,-0.015
2021-08-19 21:13:01.648,-0.265,-0.015
2021-08-19 21:13:01.652,-0.225,0.005
2021-08-19 21:13:01.656,-0.225,0.015
2021-08-19 21:13:01.660,-0.225,0.0
2021-08-19 21:13:01.664,-0.23,0.0
2021-08-19 21:13:01.668,-0.215,0.01
2021-08-19 21:13:01.672,-0.205,0.01
2021-08-19 21:13:01.676,-0.215,0.025
2021-08-19 21:13:01.680,-0.195,0.01
2021-08-19 21:13:01.684,-0.185,-0.005
2021-08-19 21:13:01.688,-0.16,-0.005
2021-08-19 21:13:01.692,-0.155,0.015
2021-08-19 21:13:01.696,-0.155,0.02
2021-08-19 21:13:01.700,-0.15,0.005
2021-08-19 21:13:01.704,-0.14,0.005
2021-08-19 21:13:01.708,-0.14,0.005
2021-08-19 21:13:01.712,-0.17,0.015
2021-08-19 21:13:01.716,-0.16,0.03
2021-08-19 21:13:01.720,-0.145,0.04
2021-08-19 21:13:01.724,-0.15,0.065
2021-08-19 21:13:01.728,-0.15,0.055
2021-08-19 21:13:01.732,-0.16,0.05
2021-08-19 21:13:01.736,-0.15,0.03
2021-08-19 21:13:01.740,-0.165,0.03
2021-08-19 21:13:01.744,-0.155,0.065
2021-08-19 21:13:01.748,-0.145,0.05
2021-08-19 21:13:01.752,-0.15,0.05
2021-08-19 21:13:01.756,-0.16,0.06
2021-08-19 21:13:01.760,-0.17,0.045
2021-08-19 21:13:01.764,-0.17,0.045
2021-08-19 21:13:01.768,-0.16,0.045
2021-08-19 21:13:01.772,-0.165,0.045
2021-08-19 21:13:01.776,-0.165,0.06
2021-08-19 21:13:01.780,-0.165,0.05
2021-08-19 21:13:01.784,-0.18,0.05
2021-08-19 21:13:01.788,-0.18,0.045
2021-08-19 21:13:01.792,-0.195,0.045
2021-08-19 21:13:01.796,-0.2,0.04
2021-08-19 21:13:01.800,-0.215,0.03
2021-08-19 21:13:01.804,-0.22,0.04
2021-08-19 21:13:01.808,-0.235,0.055
2021-08-19 21:13:01.812,-0.24,0.05
2021-08-19 21:13:01.816,-0.255,0.05
2021-08-19 21:13:01.820,-0.22,0.025
2021-08-19 21:13:01.824,-0.18,0.035
2021-08-19 21:13:01.828,-0.135,0.005
2021-08-19 21:13:01.832,-0.05,0.0
2021-08-19 21:13:01.836,0.045,-0.03
2021-08-19 21:13:01.840,0.14,-0.04
2021-08-19 21:13:01.844,0.21,-0.095
2021-08-19 21:13:01.848,0.265,-0.13
2021-08-19 21:13:01.852,0.305,-0.16
2021-08-19 21:13:01.856,0.325,-0.16
2021-08-19 21:13:01.860,0.305,-0.16
2021-08-19 21:13:01.864,0.315,-0.215
2021-08-19 21:13:01.868,0.465,-0.275
2021-08-19 21:13:01.872,0.715,-0.435
2021-08-19 21:13:01.876,0.99,-0.635
2021-08-19 21:13:01.880,1.155,-0.855
2021-08-19 21:13:01.884,1.025,-1.03
2021-08-19 21:13:01.888,0.645,-0.995
2021-08-19 21:13:01.892,0.195,-0.745
2021-08-19 21:13:01.896,-0.065,-0.425
2021-08-19 21:13:01.900,-0.18,-0.21
2021-08-19 21:13:01.904,-0.21,-0.095
2021-08-19 21:13:01.908,-0.2,-0.03
2021-08-19 21:13:01.912,-0.245,0.03
2021-08-19 21:13:01.916,-0.245,0.05
2021-08-19 21:13:01.920,-0.275,0.04
2021-08-19 21:13:01.924,-0.285,0.05
2021-08-19 21:13:01.928,-0.3,0.035
2021-08-19 21:13:01.932,-0.305,0.035
2021-08-19 21:13:01.936,-0.3,0.045
2021-08-19 21:13:01.940,-0.32,0.025
2021-08-19 21:13:01.944,-0.345,0.035
2021-08-19 21:13:01.948,-0.33,0.035
2021-08-19 21:13:01.952,-0.35,0.04
2021-08-19 21:13:01.956,-0.35,0.045
2021-08-19 21:13:01.960,-0.345,0.04
2021-08-19 21:13:01.964,-0.345,0.05
2021-08-19 21:13:01.968,-0.37,0.05
2021-08-19 21:13:01.972,-0.38,0.065
2021-08-19 21:13:01.976,-0.36,0.075
2021-08-19 21:13:01.980,-0.375,0.08
2021-08-19 21:13:01.984,-0.375,0.06
2021-08-19 21:13:01.988,-0.375,0.06
2021-08-19 21:13:01.992,-0.375,0.07
2021-08-19 21:13:01.996,-0.37,0.03
2021-08-19 21:13:02.000,-0.395,0.035
