Time,ECG1,ECG2
2021-08-19 16:52:29.620,-0.465,-0.245
2021-08-19 16:52:29.624,-0.555,-0.255
2021-08-19 16:52:29.628,-0.58,-0.245
2021-08-19 16:52:29.632,-0.51,-0.255
2021-08-19 16:52:29.636,-0.525,-0.285
2021-08-19 16:52:29.640,-0.465,-0.32
2021-08-19 16:52:29.644,-0.41,-0.335
2021-08-19 16:52:29.648,-0.455,-0.345
2021-08-19 16:52:29.652,-0.64,-0.34
2021-08-19 16:52:29.656,-0.72,-0.29
2021-08-19 16:52:29.660,-0.66,-0.32
2021-08-19 16:52:29.664,-0.61,-0.335
2021-08-19 16:52:29.668,-0.6,-0.295
2021-08-19 16:52:29.672,-0.45,-0.275
2021-08-19 16:52:29.676,-0.405,-0.24
2021-08-19 16:52:29.680,-0.38,-0.21
2021-08-19 16:52:29.684,-0.35,-0.18
2021-08-19 16:52:29.688,-0.2,-0.225
2021-08-19 16:52:29.692,-0.095,-0.22
2021-08-19 16:52:29.696,-0.11,-0.255
2021-08-19 16:52:29.700,-0.015,-0.295
2021-08-19 16:52:29.704,-0.01,-0.29
2021-08-19 16:52:29.708,-0.135,-0.27
2021-08-19 16:52:29.712,-0.17,-0.28
2021-08-19 16:52:29.716,-0.095,-0.285
2021-08-19 16:52:29.720,-0.11,-0.31
2021-08-19 16:52:29.724,-0.1,-0.3
2021-08-19 16:52:29.728,-0.015,-0.29
2021-08-19 16:52:29.732,-0.135,-0.275
2021-08-19 16:52:29.736,-0.265,-0.255
2021-08-19 16:52:29.740,-0.185,-0.27
2021-08-19 16:52:29.744,-0.195,-0.285
2021-08-19 16:52:29.748,-0.275,-0.28
2021-08-19 16:52:29.752,-0.215,-0.245
2021-08-19 16:52:29.756,-0.09,-0.26
2021-08-19 16:52:29.760,-0.075,-0.295
2021-08-19 16:52:29.764,-0.17,-0.305
2021-08-19 16:52:29.768,-0.28,-0.25
2021-08-19 16:52:29.772,-0.26,-0.23
2021-08-19 16:52:29.776,-0.21,-0.22
2021-08-19 16:52:29.780,-0.195,-0.22
2021-08-19 16:52:29.784,-0.29,-0.215
2021-08-19 16:52:29.788,-0.285,-0.22
2021-08-19 16:52:29.792,-0.215,-0.21
2021-08-19 16:52:29.796,-0.25,-0.205
2021-08-19 16:52:29.800,-0.245,-0.205
2021-08-19 16:52:29.804,-0.215,-0.195
2021-08-19 16:52:29.808,-0.1,-0.215
2021-08-19 16:52:29.812,-0.03,-0.235
2021-08-19 16:52:29.816,-0.055,-0.15
2021-08-19 16:52:29.820,-0.11,-0.05
2021-08-19 16:52:29.824,0.055,0.05
2021-08-19 16:52:29.828,0.425,0.075
2021-08-19 16:52:29.832,0.935,-0.105
2021-08-19 16:52:29.836,1.36,-0.44
2021-08-19 16:52:29.840,1.74,-0.78
2021-08-19 16:52:29.844,1.75,-1.045
2021-08-19 16:52:29.848,1.09,-1.28
2021-08-19 16:52:29.852,0.075,-1.42
2021-08-19 16:52:29.856,-0.93,-1.455
2021-08-19 16:52:29.860,-1.495,-1.25
2021-08-19 16:52:29.864,-1.57,-0.82
2021-08-19 16:52:29.868,-1.4,-0.335
2021-08-19 16:52:29.872,-1.215,0.105
2021-08-19 16:52:29.876,-1.38,0.305
2021-08-19 16:52:29.880,-1.445,0.435
2021-08-19 16:52:29.884,-1.33,0.495
2021-08-19 16:52:29.888,-1.115,0.385
2021-08-19 16:52:29.892,-0.985,0.22
2021-08-19 16:52:29.896,-0.8,0.075
2021-08-19 16:52:29.900,-0.625,-0.065
2021-08-19 16:52:29.904,-0.52,-0.185
2021-08-19 16:52:29.908,-0.485,-0.2
2021-08-19 16:52:29.912,-0.43,-0.18
2021-08-19 16:52:29.916,-0.48,-0.16
2021-08-19 16:52:29.920,-0.48,-0.19
2021-08-19 16:52:29.924,-0.405,-0.185
2021-08-19 16:52:29.928,-0.245,-0.205
2021-08-19 16:52:29.932,-0.225,-0.24
2021-08-19 16:52:29.936,-0.27,-0.27
2021-08-19 16:52:29.940,-0.27,-0.3
2021-08-19 16:52:29.944,-0.24,-0.27
2021-08-19 16:52:29.948,-0.18,-0.24
2021-08-19 16:52:29.952,-0.22,-0.205
2021-08-19 16:52:29.956,-0.235,-0.225
2021-08-19 16:52:29.960,-0.125,-0.215
2021-08-19 16:52:29.964,-0.1,-0.22
2021-08-19 16:52:29.968,-0.085,-0.25
2021-08-19 16:52:29.972,0.04,-0.235
2021-08-19 16:52:29.976,0.175,-0.24
2021-08-19 16:52:29.980,0.095,-0.24
2021-08-19 16:52:29.984,0.0,-0.25
2021-08-19 16:52:29.988,-0.095,-0.225
2021-08-19 16:52:29.992,0.0,-0.21
2021-08-19 16:52:29.996,0.14,-0.235
2021-08-19 16:52:30.000,0.08,-0.23
2021-08-19 16:52:30.004,0.055,-0.22
2021-08-19 16:52:30.008,0.225,-0.245
2021-08-19 16:52:30.012,0.32,-0.235
2021-08-19 16:52:30.016,0.225,-0.24
2021-08-19 16:52:30.020,0.08,-0.2
2021-08-19 16:52:30.024,0.12,-0.205
2021-08-19 16:52:30.028,0.225,-0.205
2021-08-19 16:52:30.032,0.355,-0.235
2021-08-19 16:52:30.036,0.44,-0.24
2021-08-19 16:52:30.040,0.425,-0.23
2021-08-19 16:52:30.044,0.355,-0.225
2021-08-19 16:52:30.048,0.305,-0.195
2021-08-19 16:52:30.052,0.315,-0.205
2021-08-19 16:52:30.056,0.44,-0.225
2021-08-19 16:52:30.060,0.54,-0.255
2021-08-19 16:52:30.064,0.545,-0.28
2021-08-19 16:52:30.068,0.53,-0.28
2021-08-19 16:52:30.072,0.54,-0.275
2021-08-19 16:52:30.076,0.625,-0.28
2021-08-19 16:52:30.080,0.745,-0.3
2021-08-19 16:52:30.084,0.715,-0.325
2021-08-19 16:52:30.088,0.62,-0.32
2021-08-19 16:52:30.092,0.445,-0.32
2021-08-19 16:52:30.096,0.43,-0.345
2021-08-19 16:52:30.100,0.475,-0.365
2021-08-19 16:52:30.104,0.485,-0.41
2021-08-19 16:52:30.108,0.45,-0.395
2021-08-19 16:52:30.112,0.42,-0.375
2021-08-19 16:52:30.116,0.52,-0.395
2021-08-19 16:52:30.120,0.34,-0.375
2021-08-19 16:52:30.124,0.06,-0.34
2021-08-19 16:52:30.128,-0.02,-0.315
2021-08-19 16:52:30.132,0.07,-0.295
2021-08-19 16:52:30.136,0.09,-0.3
2021-08-19 16:52:30.140,0.04,-0.305
2021-08-19 16:52:30.144,-0.06,-0.305
2021-08-19 16:52:30.148,-0.1,-0.25
2021-08-19 16:52:30.152,-0.05,-0.235
2021-08-19 16:52:30.156,0.065,-0.225
2021-08-19 16:52:30.160,0.095,-0.22
2021-08-19 16:52:30.164,0.025,-0.2
2021-08-19 16:52:30.168,-0.02,-0.205
2021-08-19 16:52:30.172,-0.02,-0.205
2021-08-19 16:52:30.176,-0.025,-0.195
2021-08-19 16:52:30.180,-0.01,-0.18
2021-08-19 16:52:30.184,0.03,-0.185
2021-08-19 16:52:30.188,0.06,-0.185
2021-08-19 16:52:30.192,0.015,-0.205
2021-08-19 16:52:30.196,-0.085,-0.18
2021-08-19 16:52:30.200,-0.095,-0.15
2021-08-19 16:52:30.204,-0.035,-0.17
2021-08-19 16:52:30.208,0.015,-0.2
2021-08-19 16:52:30.212,0.04,-0.2
2021-08-19 16:52:30.216,0.15,-0.215
2021-08-19 16:52:30.220,0.17,-0.22
2021-08-19 16:52:30.224,0.035,-0.245
2021-08-19 16:52:30.228,-0.09,-0.215
2021-08-19 16:52:30.232,-0.075,-0.19
2021-08-19 16:52:30.236,-0.04,-0.185
2021-08-19 16:52:30.240,-0.085,-0.18
2021-08-19 16:52:30.244,-0.11,-0.185
2021-08-19 16:52:30.248,-0.21,-0.185
2021-08-19 16:52:30.252,-0.17,-0.155
2021-08-19 16:52:30.256,-0.07,-0.15
2021-08-19 16:52:30.260,-0.035,-0.185
2021-08-19 16:52:30.264,-0.06,-0.205
2021-08-19 16:52:30.268,-0.1,-0.18
2021-08-19 16:52:30.272,-0.15,-0.17
2021-08-19 16:52:30.276,-0.105,-0.195
2021-08-19 16:52:30.280,-0.06,-0.175
2021-08-19 16:52:30.284,-0.155,-0.185
2021-08-19 16:52:30.288,-0.27,-0.17
2021-08-19 16:52:30.292,-0.27,-0.155
2021-08-19 16:52:30.296,-0.275,-0.16
2021-08-19 16:52:30.300,-0.29,-0.2
2021-08-19 16:52:30.304,-0.3,-0.22
2021-08-19 16:52:30.308,-0.31,-0.215
2021-08-19 16:52:30.312,-0.32,-0.205
2021-08-19 16:52:30.316,-0.285,-0.195
2021-08-19 16:52:30.320,-0.31,-0.225
2021-08-19 16:52:30.324,-0.38,-0.24
2021-08-19 16:52:30.328,-0.38,-0.25
2021-08-19 16:52:30.332,-0.335,-0.235
2021-08-19 16:52:30.336,-0.3,-0.235
2021-08-19 16:52:30.340,-0.29,-0.2
2021-08-19 16:52:30.344,-0.315,-0.2
2021-08-19 16:52:30.348,-0.37,-0.2
2021-08-19 16:52:30.352,-0.33,-0.21
2021-08-19 16:52:30.356,-0.255,-0.17
2021-08-19 16:52:30.360,-0.29,-0.195
2021-08-19 16:52:30.364,-0.14,-0.18
2021-08-19 16:52:30.368,-0.085,-0.195
2021-08-19 16:52:30.372,-0.23,-0.2
2021-08-19 16:52:30.376,-0.235,-0.185
2021-08-19 16:52:30.380,-0.16,-0.185
2021-08-19 16:52:30.384,-0.08,-0.19
2021-08-19 16:52:30.388,-0.085,-0.21
2021-08-19 16:52:30.392,-0.175,-0.205
2021-08-19 16:52:30.396,-0.24,-0.215
2021-08-19 16:52:30.400,-0.2,-0.195
2021-08-19 16:52:30.404,-0.16,-0.205
2021-08-19 16:52:30.408,-0.155,-0.205
2021-08-19 16:52:30.412,-0.2,-0.18
2021-08-19 16:52:30.416,-0.195,-0.2
2021-08-19 16:52:30.420,-0.145,-0.21
2021-08-19 16:52:30.424,-0.11,-0.23
2021-08-19 16:52:30.428,-0.14,-0.22
2021-08-19 16:52:30.432,-0.235,-0.205
2021-08-19 16:52:30.436,-0.24,-0.19
2021-08-19 16:52:30.440,-0.19,-0.19
2021-08-19 16:52:30.444,-0.13,-0.195
2021-08-19 16:52:30.448,-0.07,-0.205
2021-08-19 16:52:30.452,-0.08,-0.22
2021-08-19 16:52:30.456,-0.145,-0.225
2021-08-19 16:52:30.460,-0.14,-0.22
2021-08-19 16:52:30.464,-0.125,-0.225
2021-08-19 16:52:30.468,-0.105,-0.19
2021-08-19 16:52:30.472,-0.145,-0.195
2021-08-19 16:52:30.476,-0.185,-0.18
2021-08-19 16:52:30.480,-0.2,-0.19
2021-08-19 16:52:30.484,-0.195,-0.195
2021-08-19 16:52:30.488,-0.12,-0.19
2021-08-19 16:52:30.492,-0.105,-0.15
2021-08-19 16:52:30.496,-0.15,-0.105
2021-08-19 16:52:30.500,-0.07,-0.025
2021-08-19 16:52:30.504,0.15,-0.03
2021-08-19 16:52:30.508,0.53,-0.155
2021-08-19 16:52:30.512,1.02,-0.245
2021-08-19 16:52:30.516,1.605,-0.285
2021-08-19 16:52:30.528,1.54,-1.0
2021-08-19 16:52:30.532,0.645,-1.08
2021-08-19 16:52:30.536,-0.36,-0.97
2021-08-19 16:52:30.540,-0.785,-0.82
2021-08-19 16:52:30.544,-0.785,-0.67
2021-08-19 16:52:30.548,-0.635,-0.51
2021-08-19 16:52:30.552,-0.455,-0.45
2021-08-19 16:52:30.556,-0.34,-0.41
2021-08-19 16:52:30.560,-0.28,-0.39
2021-08-19 16:52:30.564,-0.325,-0.305
2021-08-19 16:52:30.568,-0.43,-0.22
2021-08-19 16:52:30.572,-0.4,-0.175
2021-08-19 16:52:30.576,-0.29,-0.165
2021-08-19 16:52:30.580,-0.245,-0.15
2021-08-19 16:52:30.584,-0.32,-0.14
2021-08-19 16:52:30.588,-0.355,-0.12
2021-08-19 16:52:30.592,-0.38,-0.155
2021-08-19 16:52:30.596,-0.3,-0.14
2021-08-19 16:52:30.600,-0.185,-0.135
2021-08-19 16:52:30.604,-0.16,-0.14
2021-08-19 16:52:30.608,-0.23,-0.14
2021-08-19 16:52:30.612,-0.225,-0.155
2021-08-19 16:52:30.616,-0.14,-0.16
2021-08-19 16:52:30.620,-0.115,-0.165
2021-08-19 16:52:30.624,-0.17,-0.16
2021-08-19 16:52:30.628,-0.175,-0.17
2021-08-19 16:52:30.632,-0.23,-0.145
2021-08-19 16:52:30.636,-0.27,-0.15
2021-08-19 16:52:30.640,-0.28,-0.15
2021-08-19 16:52:30.644,-0.275,-0.14
2021-08-19 16:52:30.648,-0.28,-0.145
2021-08-19 16:52:30.652,-0.21,-0.135
2021-08-19 16:52:30.656,-0.195,-0.165
2021-08-19 16:52:30.660,-0.23,-0.145
2021-08-19 16:52:30.664,-0.26,-0.13
2021-08-19 16:52:30.668,-0.165,-0.135
2021-08-19 16:52:30.672,-0.1,-0.16
2021-08-19 16:52:30.676,-0.17,-0.15
2021-08-19 16:52:30.680,-0.255,-0.15
2021-08-19 16:52:30.684,-0.26,-0.14
2021-08-19 16:52:30.688,-0.13,-0.13
2021-08-19 16:52:30.692,-0.11,-0.155
2021-08-19 16:52:30.696,-0.14,-0.145
2021-08-19 16:52:30.700,-0.1,-0.135
2021-08-19 16:52:30.704,-0.1,-0.15
2021-08-19 16:52:30.708,-0.1,-0.145
2021-08-19 16:52:30.712,-0.04,-0.14
2021-08-19 16:52:30.716,0.06,-0.16
2021-08-19 16:52:30.720,-0.015,-0.16
2021-08-19 16:52:30.724,-0.24,-0.12
2021-08-19 16:52:30.728,-0.355,-0.1
2021-08-19 16:52:30.732,-0.235,-0.12
2021-08-19 16:52:30.736,-0.205,-0.135
2021-08-19 16:52:30.740,-0.265,-0.145
2021-08-19 16:52:30.744,-0.36,-0.145
2021-08-19 16:52:30.748,-0.36,-0.15
2021-08-19 16:52:30.752,-0.345,-0.145
2021-08-19 16:52:30.756,-0.295,-0.145
2021-08-19 16:52:30.760,-0.23,-0.175
2021-08-19 16:52:30.764,-0.19,-0.17
2021-08-19 16:52:30.768,-0.17,-0.18
2021-08-19 16:52:30.772,-0.25,-0.195
2021-08-19 16:52:30.776,-0.37,-0.17
2021-08-19 16:52:30.780,-0.345,-0.16
2021-08-19 16:52:30.784,-0.225,-0.13
2021-08-19 16:52:30.788,-0.19,-0.12
2021-08-19 16:52:30.792,-0.275,-0.105
2021-08-19 16:52:30.796,-0.2,-0.09
2021-08-19 16:52:30.800,-0.13,-0.1
2021-08-19 16:52:30.804,-0.09,-0.135
2021-08-19 16:52:30.808,0.06,-0.155
2021-08-19 16:52:30.812,0.125,-0.17
2021-08-19 16:52:30.816,-0.045,-0.145
2021-08-19 16:52:30.820,-0.045,-0.155
2021-08-19 16:52:30.824,0.055,-0.17
2021-08-19 16:52:30.828,0.055,-0.17
2021-08-19 16:52:30.832,-0.005,-0.16
2021-08-19 16:52:30.836,0.115,-0.17
2021-08-19 16:52:30.840,0.2,-0.16
2021-08-19 16:52:30.844,0.11,-0.165
2021-08-19 16:52:30.848,0.085,-0.145
2021-08-19 16:52:30.852,0.035,-0.14
2021-08-19 16:52:30.856,0.115,-0.16
2021-08-19 16:52:30.860,0.105,-0.15
2021-08-19 16:52:30.864,-0.06,-0.12
2021-08-19 16:52:30.868,-0.135,-0.125
2021-08-19 16:52:30.872,-0.02,-0.125
2021-08-19 16:52:30.876,0.03,-0.145
2021-08-19 16:52:30.880,0.035,-0.14
2021-08-19 16:52:30.884,0.01,-0.14
2021-08-19 16:52:30.888,0.005,-0.125
2021-08-19 16:52:30.892,0.035,-0.13
2021-08-19 16:52:30.896,0.1,-0.135
2021-08-19 16:52:30.900,-0.03,-0.13
2021-08-19 16:52:30.904,-0.095,-0.11
2021-08-19 16:52:30.908,-0.01,-0.12
2021-08-19 16:52:30.912,0.1,-0.105
2021-08-19 16:52:30.916,0.09,-0.115
2021-08-19 16:52:30.920,-0.02,-0.1
2021-08-19 16:52:30.924,-0.02,-0.1
2021-08-19 16:52:30.928,0.095,-0.12
2021-08-19 16:52:30.932,0.02,-0.105
2021-08-19 16:52:30.936,-0.075,-0.085
2021-08-19 16:52:30.940,-0.185,-0.075
2021-08-19 16:52:30.944,-0.185,-0.095
2021-08-19 16:52:30.948,-0.09,-0.085
2021-08-19 16:52:30.952,-0.05,-0.1
2021-08-19 16:52:30.956,-0.12,-0.09
2021-08-19 16:52:30.960,-0.12,-0.065
2021-08-19 16:52:30.964,-0.105,-0.085
2021-08-19 16:52:30.968,-0.13,-0.1
2021-08-19 16:52:30.972,-0.115,-0.11
2021-08-19 16:52:30.976,-0.04,-0.125
2021-08-19 16:52:30.980,-0.13,-0.14
2021-08-19 16:52:30.984,-0.235,-0.065
2021-08-19 16:52:30.988,-0.08,-0.05
2021-08-19 16:52:30.992,0.02,-0.07
2021-08-19 16:52:30.996,0.07,-0.07
2021-08-19 16:52:31.000,0.03,-0.05
2021-08-19 16:52:31.004,-0.06,-0.065
2021-08-19 16:52:31.008,-0.16,-0.02
2021-08-19 16:52:31.012,-0.11,-0.02
2021-08-19 16:52:31.016,-0.025,-0.05
2021-08-19 16:52:31.020,0.01,-0.095
2021-08-19 16:52:31.024,0.12,-0.125
2021-08-19 16:52:31.028,-0.01,-0.13
2021-08-19 16:52:31.032,-0.105,-0.105
2021-08-19 16:52:31.036,-0.03,-0.1
2021-08-19 16:52:31.040,0.025,-0.125
2021-08-19 16:52:31.044,0.07,-0.12
2021-08-19 16:52:31.048,-0.02,-0.09
2021-08-19 16:52:31.052,0.01,-0.125
2021-08-19 16:52:31.056,0.025,-0.105
2021-08-19 16:52:31.060,-0.085,-0.085
2021-08-19 16:52:31.064,-0.195,-0.045
2021-08-19 16:52:31.068,-0.11,-0.075
2021-08-19 16:52:31.072,-0.01,-0.075
2021-08-19 16:52:31.076,0.055,-0.08
2021-08-19 16:52:31.080,0.135,-0.1
2021-08-19 16:52:31.084,-0.05,-0.06
2021-08-19 16:52:31.088,-0.175,0.0
2021-08-19 16:52:31.092,-0.09,0.06
2021-08-19 16:52:31.096,0.07,0.09
2021-08-19 16:52:31.100,0.4,-0.005
2021-08-19 16:52:31.104,0.99,-0.12
2021-08-19 16:52:31.108,1.55,-0.17
2021-08-19 16:52:31.120,1.77,-0.89
2021-08-19 16:52:31.124,0.95,-1.065
2021-08-19 16:52:31.128,-0.085,-0.985
2021-08-19 16:52:31.132,-0.635,-0.81
2021-08-19 16:52:31.136,-0.54,-0.68
2021-08-19 16:52:31.140,-0.29,-0.485
2021-08-19 16:52:31.144,-0.045,-0.395
2021-08-19 16:52:31.148,-0.13,-0.275
2021-08-19 16:52:31.152,-0.29,-0.17
2021-08-19 16:52:31.156,-0.32,-0.125
2021-08-19 16:52:31.160,-0.3,-0.08
2021-08-19 16:52:31.164,-0.3,-0.065
2021-08-19 16:52:31.168,-0.28,-0.04
2021-08-19 16:52:31.172,-0.22,-0.055
2021-08-19 16:52:31.176,-0.235,-0.05
2021-08-19 16:52:31.180,-0.265,-0.055
2021-08-19 16:52:31.184,-0.24,-0.06
2021-08-19 16:52:31.188,-0.23,-0.08
2021-08-19 16:52:31.192,-0.24,-0.08
2021-08-19 16:52:31.196,-0.235,-0.08
2021-08-19 16:52:31.200,-0.18,-0.065
2021-08-19 16:52:31.204,-0.1,-0.05
2021-08-19 16:52:31.208,-0.005,-0.03
2021-08-19 16:52:31.212,0.01,-0.035
2021-08-19 16:52:31.216,-0.08,-0.02
2021-08-19 16:52:31.220,-0.19,0.01
2021-08-19 16:52:31.224,-0.18,0.02
2021-08-19 16:52:31.228,-0.12,0.015
2021-08-19 16:52:31.232,0.07,-0.005
2021-08-19 16:52:31.236,0.23,-0.04
2021-08-19 16:52:31.240,0.075,-0.075
2021-08-19 16:52:31.244,-0.1,-0.025
2021-08-19 16:52:31.248,-0.135,-0.02
2021-08-19 16:52:31.252,-0.14,-0.01
2021-08-19 16:52:31.256,-0.145,-0.01
2021-08-19 16:52:31.260,-0.05,-0.015
2021-08-19 16:52:31.264,-0.03,-0.05
2021-08-19 16:52:31.268,0.005,-0.025
2021-08-19 16:52:31.272,0.02,-0.045
2021-08-19 16:52:31.276,-0.045,-0.05
2021-08-19 16:52:31.280,-0.095,-0.03
2021-08-19 16:52:31.284,0.01,-0.05
2021-08-19 16:52:31.288,0.12,-0.05
2021-08-19 16:52:31.292,0.21,-0.02
2021-08-19 16:52:31.296,0.175,-0.025
2021-08-19 16:52:31.300,0.06,-0.04
2021-08-19 16:52:31.304,0.18,-0.05
2021-08-19 16:52:31.308,0.335,-0.06
2021-08-19 16:52:31.312,0.155,-0.07
2021-08-19 16:52:31.316,0.06,-0.07
2021-08-19 16:52:31.320,0.055,-0.045
2021-08-19 16:52:31.324,0.015,-0.03
2021-08-19 16:52:31.328,0.035,-0.025
2021-08-19 16:52:31.332,0.075,-0.035
2021-08-19 16:52:31.336,0.17,-0.04
2021-08-19 16:52:31.340,0.23,-0.06
2021-08-19 16:52:31.344,0.235,-0.055
2021-08-19 16:52:31.348,0.29,-0.08
2021-08-19 16:52:31.352,0.335,-0.08
2021-08-19 16:52:31.356,0.305,-0.08
2021-08-19 16:52:31.360,0.225,-0.035
2021-08-19 16:52:31.364,0.085,-0.02
2021-08-19 16:52:31.368,0.04,-0.05
2021-08-19 16:52:31.372,0.07,-0.05
2021-08-19 16:52:31.376,0.19,-0.07
2021-08-19 16:52:31.380,0.205,-0.07
2021-08-19 16:52:31.384,0.05,-0.04
2021-08-19 16:52:31.388,-0.015,-0.005
2021-08-19 16:52:31.392,-0.03,-0.005
2021-08-19 16:52:31.396,-0.155,0.025
2021-08-19 16:52:31.400,-0.125,0.0
2021-08-19 16:52:31.404,-0.18,-0.025
2021-08-19 16:52:31.408,-0.18,0.01
2021-08-19 16:52:31.412,-0.115,0.0
2021-08-19 16:52:31.416,0.035,0.025
2021-08-19 16:52:31.420,0.125,0.02
2021-08-19 16:52:31.424,0.105,0.03
2021-08-19 16:52:31.428,0.06,0.035
2021-08-19 16:52:31.432,-0.085,0.02
2021-08-19 16:52:31.436,-0.16,0.03
2021-08-19 16:52:31.440,0.01,0.035
2021-08-19 16:52:31.444,0.03,0.05
2021-08-19 16:52:31.448,-0.065,-0.005
2021-08-19 16:52:31.452,-0.2,0.015
2021-08-19 16:52:31.456,-0.16,0.025
2021-08-19 16:52:31.460,-0.04,0.02
2021-08-19 16:52:31.464,0.02,0.01
2021-08-19 16:52:31.468,-0.13,0.035
2021-08-19 16:52:31.472,-0.13,0.01
2021-08-19 16:52:31.476,-0.09,0.0
2021-08-19 16:52:31.480,-0.14,0.025
2021-08-19 16:52:31.484,-0.215,0.04
2021-08-19 16:52:31.488,-0.11,0.025
2021-08-19 16:52:31.492,-0.035,0.015
2021-08-19 16:52:31.496,0.01,0.02
2021-08-19 16:52:31.500,0.035,0.045
2021-08-19 16:52:31.504,0.06,0.13
2021-08-19 16:52:31.508,-0.15,0.22
2021-08-19 16:52:31.512,0.13,0.175
2021-08-19 16:52:31.516,0.845,0.015
2021-08-19 16:52:31.520,1.535,-0.1
2021-08-19 16:52:31.532,1.63,-0.84
2021-08-19 16:52:31.536,0.74,-0.945
2021-08-19 16:52:31.540,-0.16,-0.715
2021-08-19 16:52:31.544,-0.425,-0.515
2021-08-19 16:52:31.548,-0.32,-0.405
2021-08-19 16:52:31.552,-0.085,-0.27
2021-08-19 16:52:31.556,-0.035,-0.28
2021-08-19 16:52:31.560,-0.105,-0.175
2021-08-19 16:52:31.564,-0.145,-0.07
2021-08-19 16:52:31.568,-0.05,-0.04
2021-08-19 16:52:31.572,-0.09,-0.035
2021-08-19 16:52:31.576,-0.185,-0.02
2021-08-19 16:52:31.580,-0.245,-0.015
2021-08-19 16:52:31.584,-0.23,-0.01
2021-08-19 16:52:31.588,-0.295,-0.01
2021-08-19 16:52:31.592,-0.345,-0.005
2021-08-19 16:52:31.596,-0.255,-0.02
2021-08-19 16:52:31.600,-0.195,-0.02
2021-08-19 16:52:31.604,-0.29,-0.03
2021-08-19 16:52:31.608,-0.42,-0.02
2021-08-19 16:52:31.612,-0.36,-0.01
2021-08-19 16:52:31.616,-0.38,-0.02
2021-08-19 16:52:31.620,-0.335,-0.02
2021-08-19 16:52:31.624,-0.16,-0.01
2021-08-19 16:52:31.628,0.03,-0.005
2021-08-19 16:52:31.632,0.03,-0.025
2021-08-19 16:52:31.636,-0.06,-0.015
2021-08-19 16:52:31.640,-0.145,0.01
2021-08-19 16:52:31.644,-0.235,0.035
2021-08-19 16:52:31.648,-0.15,0.045
2021-08-19 16:52:31.652,-0.21,0.05
2021-08-19 16:52:31.656,-0.19,0.025
2021-08-19 16:52:31.660,-0.13,0.01
2021-08-19 16:52:31.664,-0.065,-0.015
2021-08-19 16:52:31.668,-0.095,-0.01
2021-08-19 16:52:31.672,0.0,-0.015
2021-08-19 16:52:31.676,0.13,-0.055
2021-08-19 16:52:31.680,0.095,-0.05
2021-08-19 16:52:31.684,-0.045,-0.01
2021-08-19 16:52:31.688,-0.145,0.015
2021-08-19 16:52:31.692,-0.25,0.02
2021-08-19 16:52:31.696,-0.15,0.005
2021-08-19 16:52:31.700,-0.015,-0.005
2021-08-19 16:52:31.704,0.09,-0.025
2021-08-19 16:52:31.708,0.05,-0.035
2021-08-19 16:52:31.712,-0.06,-0.04
2021-08-19 16:52:31.716,-0.01,-0.025
2021-08-19 16:52:31.720,0.095,-0.05
2021-08-19 16:52:31.724,0.245,-0.065
2021-08-19 16:52:31.728,0.125,-0.075
2021-08-19 16:52:31.732,0.0,-0.045
2021-08-19 16:52:31.736,0.07,-0.03
2021-08-19 16:52:31.740,0.1,-0.035
2021-08-19 16:52:31.744,0.065,-0.045
2021-08-19 16:52:31.748,0.125,-0.06
2021-08-19 16:52:31.752,0.225,-0.05
2021-08-19 16:52:31.756,0.105,-0.035
2021-08-19 16:52:31.760,0.045,-0.005
2021-08-19 16:52:31.764,0.11,-0.005
2021-08-19 16:52:31.768,0.12,-0.03
2021-08-19 16:52:31.772,0.11,-0.015
2021-08-19 16:52:31.776,0.15,-0.005
2021-08-19 16:52:31.780,0.14,-0.01
2021-08-19 16:52:31.784,0.135,-0.03
2021-08-19 16:52:31.788,0.21,-0.02
2021-08-19 16:52:31.792,0.17,-0.025
2021-08-19 16:52:31.796,0.11,-0.015
2021-08-19 16:52:31.800,0.08,-0.02
2021-08-19 16:52:31.804,0.02,-0.005
2021-08-19 16:52:31.808,0.085,-0.025
2021-08-19 16:52:31.812,0.135,-0.035
2021-08-19 16:52:31.816,0.01,-0.07
2021-08-19 16:52:31.820,-0.23,-0.025
2021-08-19 16:52:31.824,-0.25,0.015
2021-08-19 16:52:31.828,-0.18,0.025
2021-08-19 16:52:31.832,-0.155,0.015
2021-08-19 16:52:31.836,-0.05,0.02
2021-08-19 16:52:31.840,-0.02,0.03
2021-08-19 16:52:31.844,-0.04,0.03
2021-08-19 16:52:31.848,-0.15,0.035
2021-08-19 16:52:31.852,-0.11,0.065
2021-08-19 16:52:31.856,-0.16,0.075
2021-08-19 16:52:31.860,-0.05,0.13
2021-08-19 16:52:31.864,0.005,0.175
2021-08-19 16:52:31.868,0.275,0.155
2021-08-19 16:52:31.872,0.81,0.05
2021-08-19 16:52:31.876,1.43,0.005
2021-08-19 16:52:31.892,1.41,-0.935
2021-08-19 16:52:31.896,0.495,-1.0
2021-08-19 16:52:31.900,-0.17,-0.93
2021-08-19 16:52:31.904,-0.42,-0.775
2021-08-19 16:52:31.908,-0.26,-0.475
2021-08-19 16:52:31.912,-0.2,-0.32
2021-08-19 16:52:31.916,-0.18,-0.245
2021-08-19 16:52:31.920,-0.11,-0.19
2021-08-19 16:52:31.924,-0.065,-0.115
2021-08-19 16:52:31.928,-0.08,-0.045
2021-08-19 16:52:31.932,-0.09,-0.03
2021-08-19 16:52:31.936,-0.18,-0.035
2021-08-19 16:52:31.940,-0.25,0.0
2021-08-19 16:52:31.944,-0.2,0.01
2021-08-19 16:52:31.948,-0.32,-0.005
2021-08-19 16:52:31.952,-0.43,0.025
2021-08-19 16:52:31.956,-0.335,0.04
2021-08-19 16:52:31.960,-0.135,0.035
2021-08-19 16:52:31.964,-0.205,0.02
2021-08-19 16:52:31.968,-0.335,0.03
2021-08-19 16:52:31.972,-0.31,0.055
2021-08-19 16:52:31.976,-0.29,0.05
2021-08-19 16:52:31.980,-0.255,0.05
2021-08-19 16:52:31.984,-0.255,0.045
2021-08-19 16:52:31.988,-0.35,0.07
2021-08-19 16:52:31.992,-0.37,0.04
2021-08-19 16:52:31.996,-0.295,0.03
2021-08-19 16:52:32.000,-0.3,0.03
2021-08-19 16:52:32.004,-0.37,0.03
2021-08-19 16:52:32.008,-0.35,0.07
2021-08-19 16:52:32.012,-0.18,0.06
2021-08-19 16:52:32.016,-0.305,0.045
2021-08-19 16:52:32.020,-0.43,0.065
2021-08-19 16:52:32.024,-0.385,0.095
2021-08-19 16:52:32.028,-0.41,0.06
2021-08-19 16:52:32.032,-0.415,0.075
2021-08-19 16:52:32.036,-0.305,0.095
2021-08-19 16:52:32.040,-0.215,0.1
2021-08-19 16:52:32.044,-0.23,0.095
2021-08-19 16:52:32.048,-0.295,0.125
2021-08-19 16:52:32.052,-0.265,0.135
2021-08-19 16:52:32.056,-0.15,0.115
2021-08-19 16:52:32.060,-0.17,0.15
2021-08-19 16:52:32.064,-0.27,0.135
2021-08-19 16:52:32.068,-0.15,0.11
2021-08-19 16:52:32.072,-0.12,0.115
2021-08-19 16:52:32.076,-0.155,0.125
2021-08-19 16:52:32.080,-0.115,0.12
2021-08-19 16:52:32.084,-0.05,0.115
2021-08-19 16:52:32.088,0.0,0.105
2021-08-19 16:52:32.092,-0.005,0.075
2021-08-19 16:52:32.096,-0.055,0.105
2021-08-19 16:52:32.100,-0.085,0.125
2021-08-19 16:52:32.104,-0.04,0.115
2021-08-19 16:52:32.108,0.085,0.135
2021-08-19 16:52:32.112,0.125,0.09
2021-08-19 16:52:32.116,0.185,0.06
2021-08-19 16:52:32.120,0.345,0.07
2021-08-19 16:52:32.124,0.365,0.06
2021-08-19 16:52:32.128,0.21,0.065
2021-08-19 16:52:32.132,0.165,0.075
2021-08-19 16:52:32.136,0.245,0.09
2021-08-19 16:52:32.140,0.25,0.045
2021-08-19 16:52:32.144,0.16,0.05
2021-08-19 16:52:32.148,0.21,0.055
2021-08-19 16:52:32.152,0.18,0.005
2021-08-19 16:52:32.156,0.14,0.025
2021-08-19 16:52:32.160,0.055,0.05
2021-08-19 16:52:32.164,0.085,0.025
2021-08-19 16:52:32.168,0.12,0.04
2021-08-19 16:52:32.172,0.045,0.035
2021-08-19 16:52:32.176,-0.04,0.06
2021-08-19 16:52:32.180,-0.06,0.065
2021-08-19 16:52:32.184,0.025,0.075
2021-08-19 16:52:32.188,-0.01,0.08
2021-08-19 16:52:32.192,-0.125,0.09
2021-08-19 16:52:32.196,-0.115,0.09
2021-08-19 16:52:32.200,-0.15,0.06
2021-08-19 16:52:32.204,-0.145,0.06
2021-08-19 16:52:32.208,0.055,0.08
2021-08-19 16:52:32.212,0.015,0.135
2021-08-19 16:52:32.216,-0.15,0.17
2021-08-19 16:52:32.220,-0.165,0.225
2021-08-19 16:52:32.224,0.205,0.165
2021-08-19 16:52:32.228,0.99,-0.025
2021-08-19 16:52:32.232,1.625,-0.175
2021-08-19 16:52:32.244,1.555,-0.755
2021-08-19 16:52:32.248,0.74,-0.835
2021-08-19 16:52:32.252,-0.195,-0.645
2021-08-19 16:52:32.256,-0.54,-0.54
2021-08-19 16:52:32.260,-0.545,-0.495
2021-08-19 16:52:32.264,-0.36,-0.285
2021-08-19 16:52:32.268,-0.14,-0.25
2021-08-19 16:52:32.272,-0.11,-0.145
2021-08-19 16:52:32.276,-0.275,-0.075
2021-08-19 16:52:32.280,-0.305,-0.01
2021-08-19 16:52:32.284,-0.18,0.025
2021-08-19 16:52:32.288,-0.11,0.035
2021-08-19 16:52:32.292,-0.075,0.03
2021-08-19 16:52:32.296,-0.155,0.025
2021-08-19 16:52:32.300,-0.215,0.045
2021-08-19 16:52:32.304,-0.145,0.035
2021-08-19 16:52:32.308,-0.185,0.06
2021-08-19 16:52:32.312,-0.24,0.05
2021-08-19 16:52:32.316,-0.215,0.055
2021-08-19 16:52:32.320,-0.185,0.06
2021-08-19 16:52:32.324,-0.245,0.055
2021-08-19 16:52:32.328,-0.245,0.085
2021-08-19 16:52:32.332,-0.175,0.065
2021-08-19 16:52:32.336,-0.175,0.07
2021-08-19 16:52:32.340,-0.16,0.085
2021-08-19 16:52:32.344,-0.28,0.07
2021-08-19 16:52:32.348,-0.26,0.09
2021-08-19 16:52:32.352,-0.235,0.095
2021-08-19 16:52:32.356,-0.295,0.09
2021-08-19 16:52:32.360,-0.26,0.09
2021-08-19 16:52:32.364,-0.13,0.095
2021-08-19 16:52:32.368,-0.095,0.06
2021-08-19 16:52:32.372,-0.165,0.055
2021-08-19 16:52:32.376,-0.2,0.065
2021-08-19 16:52:32.380,-0.23,0.08
2021-08-19 16:52:32.384,-0.21,0.06
2021-08-19 16:52:32.388,-0.265,0.09
2021-08-19 16:52:32.392,-0.315,0.115
2021-08-19 16:52:32.396,-0.24,0.11
2021-08-19 16:52:32.400,-0.115,0.105
2021-08-19 16:52:32.404,-0.17,0.1
2021-08-19 16:52:32.408,-0.3,0.105
2021-08-19 16:52:32.412,-0.345,0.115
2021-08-19 16:52:32.416,-0.295,0.125
2021-08-19 16:52:32.420,-0.16,0.1
2021-08-19 16:52:32.424,-0.115,0.085
2021-08-19 16:52:32.428,-0.275,0.065
2021-08-19 16:52:32.432,-0.475,0.11
2021-08-19 16:52:32.436,-0.44,0.16
2021-08-19 16:52:32.440,-0.255,0.135
2021-08-19 16:52:32.444,-0.15,0.095
2021-08-19 16:52:32.448,-0.125,0.06
2021-08-19 16:52:32.452,-0.235,0.07
2021-08-19 16:52:32.456,-0.37,0.075
2021-08-19 16:52:32.460,-0.34,0.11
2021-08-19 16:52:32.464,-0.12,0.12
2021-08-19 16:52:32.468,-0.1,0.095
2021-08-19 16:52:32.472,-0.05,0.105
2021-08-19 16:52:32.476,0.07,0.095
2021-08-19 16:52:32.480,0.145,0.07
2021-08-19 16:52:32.484,0.225,0.065
2021-08-19 16:52:32.488,0.15,0.05
2021-08-19 16:52:32.492,0.04,0.08
2021-08-19 16:52:32.496,0.12,0.075
2021-08-19 16:52:32.500,0.175,0.075
2021-08-19 16:52:32.504,0.18,0.06
2021-08-19 16:52:32.508,0.15,0.045
2021-08-19 16:52:32.512,0.065,0.03
2021-08-19 16:52:32.516,0.065,0.045
2021-08-19 16:52:32.520,0.1,0.075
2021-08-19 16:52:32.524,0.105,0.075
2021-08-19 16:52:32.528,0.04,0.06
2021-08-19 16:52:32.532,0.015,0.055
2021-08-19 16:52:32.536,-0.005,0.095
2021-08-19 16:52:32.540,0.005,0.15
2021-08-19 16:52:32.544,0.05,0.185
2021-08-19 16:52:32.548,0.345,0.11
2021-08-19 16:52:32.552,0.91,-0.065
2021-08-19 16:52:32.556,1.485,-0.165
2021-08-19 16:52:32.560,1.96,-0.255
2021-08-19 16:52:32.568,1.965,-0.84
2021-08-19 16:52:32.572,1.265,-0.965
2021-08-19 16:52:32.576,0.34,-0.86
2021-08-19 16:52:32.580,-0.185,-0.755
2021-08-19 16:52:32.584,-0.285,-0.71
2021-08-19 16:52:32.588,-0.14,-0.42
2021-08-19 16:52:32.592,-0.16,-0.28
2021-08-19 16:52:32.596,-0.2,-0.16
2021-08-19 16:52:32.600,-0.215,-0.08
2021-08-19 16:52:32.604,-0.03,-0.045
2021-08-19 16:52:32.608,0.055,-0.02
2021-08-19 16:52:32.612,-0.15,-0.01
2021-08-19 16:52:32.616,-0.205,0.035
2021-08-19 16:52:32.620,-0.17,0.045
2021-08-19 16:52:32.624,-0.36,0.045
2021-08-19 16:52:32.628,-0.485,0.075
2021-08-19 16:52:32.632,-0.445,0.075
2021-08-19 16:52:32.636,-0.345,0.055
2021-08-19 16:52:32.640,-0.325,0.065
2021-08-19 16:52:32.644,-0.375,0.065
2021-08-19 16:52:32.648,-0.38,0.075
2021-08-19 16:52:32.652,-0.395,0.06
2021-08-19 16:52:32.656,-0.36,0.05
2021-08-19 16:52:32.660,-0.295,0.045
2021-08-19 16:52:32.664,-0.3,0.005
2021-08-19 16:52:32.668,-0.31,0.015
2021-08-19 16:52:32.672,-0.48,0.03
2021-08-19 16:52:32.676,-0.6,0.03
2021-08-19 16:52:32.680,-0.39,0.07
2021-08-19 16:52:32.684,-0.22,0.06
2021-08-19 16:52:32.688,-0.28,0.05
2021-08-19 16:52:32.692,-0.405,0.065
2021-08-19 16:52:32.696,-0.435,0.115
2021-08-19 16:52:32.700,-0.395,0.085
2021-08-19 16:52:32.704,-0.345,0.095
2021-08-19 16:52:32.708,-0.32,0.105
2021-08-19 16:52:32.712,-0.315,0.1
2021-08-19 16:52:32.716,-0.25,0.115
2021-08-19 16:52:32.720,-0.185,0.085
2021-08-19 16:52:32.724,-0.125,0.065
2021-08-19 16:52:32.728,-0.125,0.08
2021-08-19 16:52:32.732,-0.14,0.095
2021-08-19 16:52:32.736,-0.155,0.075
2021-08-19 16:52:32.740,-0.055,0.06
2021-08-19 16:52:32.744,-0.045,0.065
2021-08-19 16:52:32.748,-0.175,0.065
2021-08-19 16:52:32.752,-0.225,0.09
2021-08-19 16:52:32.756,-0.09,0.065
2021-08-19 16:52:32.760,-0.015,0.04
2021-08-19 16:52:32.764,-0.075,0.04
2021-08-19 16:52:32.768,-0.295,0.05
2021-08-19 16:52:32.772,-0.375,0.13
2021-08-19 16:52:32.776,-0.17,0.115
2021-08-19 16:52:32.780,-0.055,0.08
2021-08-19 16:52:32.784,-0.01,0.06
2021-08-19 16:52:32.788,0.175,0.03
2021-08-19 16:52:32.792,0.285,0.015
2021-08-19 16:52:32.796,0.185,0.02
2021-08-19 16:52:32.800,0.1,0.045
2021-08-19 16:52:32.804,0.17,0.035
2021-08-19 16:52:32.808,0.195,0.06
2021-08-19 16:52:32.812,0.21,0.05
2021-08-19 16:52:32.816,0.195,0.05
2021-08-19 16:52:32.820,0.2,0.04
2021-08-19 16:52:32.824,0.245,0.045
2021-08-19 16:52:32.828,0.165,0.045
2021-08-19 16:52:32.832,0.065,0.065
2021-08-19 16:52:32.836,-0.045,0.07
2021-08-19 16:52:32.840,-0.055,0.095
2021-08-19 16:52:32.844,-0.05,0.065
2021-08-19 16:52:32.848,0.03,0.055
2021-08-19 16:52:32.852,0.155,0.025
2021-08-19 16:52:32.856,0.08,0.045
2021-08-19 16:52:32.860,-0.1,0.06
2021-08-19 16:52:32.864,-0.1,0.07
2021-08-19 16:52:32.868,-0.08,0.065
2021-08-19 16:52:32.872,-0.135,0.035
2021-08-19 16:52:32.876,-0.22,0.05
2021-08-19 16:52:32.880,-0.235,0.055
2021-08-19 16:52:32.884,-0.1,0.03
2021-08-19 16:52:32.888,-0.005,-0.01
2021-08-19 16:52:32.892,-0.05,-0.015
2021-08-19 16:52:32.896,-0.14,-0.03
2021-08-19 16:52:32.900,-0.14,0.005
2021-08-19 16:52:32.904,-0.245,0.05
2021-08-19 16:52:32.908,-0.22,0.055
2021-08-19 16:52:32.912,-0.155,0.065
2021-08-19 16:52:32.916,-0.14,0.065
2021-08-19 16:52:32.920,-0.155,0.04
2021-08-19 16:52:32.924,-0.155,0.015
2021-08-19 16:52:32.928,-0.16,0.06
2021-08-19 16:52:32.932,-0.12,0.075
2021-08-19 16:52:32.936,-0.06,0.07
2021-08-19 16:52:32.940,-0.055,0.08
2021-08-19 16:52:32.944,-0.085,0.07
2021-08-19 16:52:32.948,-0.07,0.065
2021-08-19 16:52:32.952,0.0,0.04
2021-08-19 16:52:32.956,0.025,0.035
2021-08-19 16:52:32.960,0.035,0.03
2021-08-19 16:52:32.964,0.06,0.015
2021-08-19 16:52:32.968,-0.09,0.03
2021-08-19 16:52:32.972,-0.2,0.045
2021-08-19 16:52:32.976,-0.21,0.07
2021-08-19 16:52:32.980,-0.195,0.07
2021-08-19 16:52:32.984,-0.05,0.06
2021-08-19 16:52:32.988,-0.025,0.025
2021-08-19 16:52:32.992,-0.215,0.035
2021-08-19 16:52:32.996,-0.31,0.045
2021-08-19 16:52:33.000,-0.32,0.07
2021-08-19 16:52:33.004,-0.215,0.05
2021-08-19 16:52:33.008,-0.16,0.065
2021-08-19 16:52:33.012,-0.21,0.06
2021-08-19 16:52:33.016,-0.26,0.075
2021-08-19 16:52:33.020,-0.28,0.065
2021-08-19 16:52:33.024,-0.235,0.07
2021-08-19 16:52:33.028,-0.225,0.08
2021-08-19 16:52:33.032,-0.225,0.065
2021-08-19 16:52:33.036,-0.205,0.08
2021-08-19 16:52:33.040,-0.145,0.075
2021-08-19 16:52:33.044,-0.185,0.05
2021-08-19 16:52:33.048,-0.205,0.075
2021-08-19 16:52:33.052,-0.3,0.075
2021-08-19 16:52:33.056,-0.345,0.09
2021-08-19 16:52:33.060,-0.33,0.095
2021-08-19 16:52:33.064,-0.285,0.095
2021-08-19 16:52:33.068,-0.275,0.09
2021-08-19 16:52:33.072,-0.125,0.08
2021-08-19 16:52:33.076,-0.085,0.03
2021-08-19 16:52:33.080,-0.31,0.02
2021-08-19 16:52:33.084,-0.39,0.055
2021-08-19 16:52:33.088,-0.295,0.07
2021-08-19 16:52:33.092,-0.41,0.065
2021-08-19 16:52:33.096,-0.535,0.095
2021-08-19 16:52:33.100,-0.49,0.055
2021-08-19 16:52:33.104,-0.425,0.055
2021-08-19 16:52:33.108,-0.38,0.065
2021-08-19 16:52:33.112,-0.35,0.07
2021-08-19 16:52:33.116,-0.315,0.065
2021-08-19 16:52:33.120,-0.35,0.08
2021-08-19 16:52:33.124,-0.47,0.135
2021-08-19 16:52:33.128,-0.41,0.22
2021-08-19 16:52:33.132,-0.205,0.23
2021-08-19 16:52:33.136,0.125,0.12
2021-08-19 16:52:33.140,0.73,-0.035
2021-08-19 16:52:33.144,1.36,-0.095
2021-08-19 16:52:33.148,1.9,-0.2
2021-08-19 16:52:33.156,1.565,-0.745
2021-08-19 16:52:33.160,0.76,-0.925
2021-08-19 16:52:33.164,-0.22,-0.815
2021-08-19 16:52:33.168,-0.795,-0.64
2021-08-19 16:52:33.172,-0.865,-0.595
2021-08-19 16:52:33.176,-0.61,-0.385
2021-08-19 16:52:33.180,-0.395,-0.28
2021-08-19 16:52:33.184,-0.16,-0.2
2021-08-19 16:52:33.188,-0.19,-0.14
2021-08-19 16:52:33.192,-0.365,-0.05
2021-08-19 16:52:33.196,-0.49,0.045
2021-08-19 16:52:33.200,-0.32,0.06
2021-08-19 16:52:33.204,-0.22,0.07
2021-08-19 16:52:33.208,-0.25,0.05
2021-08-19 16:52:33.212,-0.345,0.07
2021-08-19 16:52:33.216,-0.29,0.065
2021-08-19 16:52:33.220,-0.26,0.065
2021-08-19 16:52:33.224,-0.3,0.07
2021-08-19 16:52:33.228,-0.375,0.085
2021-08-19 16:52:33.232,-0.32,0.095
2021-08-19 16:52:33.236,-0.21,0.065
2021-08-19 16:52:33.240,-0.175,0.065
2021-08-19 16:52:33.244,-0.26,0.065
2021-08-19 16:52:33.248,-0.325,0.07
2021-08-19 16:52:33.252,-0.36,0.08
2021-08-19 16:52:33.256,-0.31,0.08
2021-08-19 16:52:33.260,-0.23,0.08
2021-08-19 16:52:33.264,-0.35,0.08
2021-08-19 16:52:33.268,-0.49,0.135
2021-08-19 16:52:33.272,-0.49,0.12
2021-08-19 16:52:33.276,-0.36,0.105
2021-08-19 16:52:33.280,-0.28,0.095
2021-08-19 16:52:33.284,-0.315,0.09
2021-08-19 16:52:33.288,-0.33,0.105
2021-08-19 16:52:33.292,-0.38,0.14
2021-08-19 16:52:33.296,-0.455,0.12
2021-08-19 16:52:33.300,-0.43,0.09
2021-08-19 16:52:33.304,-0.33,0.085
2021-08-19 16:52:33.308,-0.425,0.05
2021-08-19 16:52:33.312,-0.435,0.055
2021-08-19 16:52:33.316,-0.395,0.04
2021-08-19 16:52:33.320,-0.42,0.005
2021-08-19 16:52:33.324,-0.47,-0.005
2021-08-19 16:52:33.328,-0.475,0.015
2021-08-19 16:52:33.332,-0.505,-0.005
2021-08-19 16:52:33.336,-0.465,0.03
2021-08-19 16:52:33.340,-0.335,0.04
2021-08-19 16:52:33.344,-0.42,0.02
2021-08-19 16:52:33.348,-0.52,0.0
2021-08-19 16:52:33.352,-0.46,0.015
2021-08-19 16:52:33.356,-0.445,0.01
2021-08-19 16:52:33.360,-0.46,0.01
2021-08-19 16:52:33.364,-0.35,0.025
2021-08-19 16:52:33.368,-0.17,0.005
2021-08-19 16:52:33.372,-0.245,0.02
2021-08-19 16:52:33.376,-0.4,0.06
2021-08-19 16:52:33.380,-0.45,0.065
2021-08-19 16:52:33.384,-0.465,0.075
2021-08-19 16:52:33.388,-0.44,0.065
2021-08-19 16:52:33.392,-0.415,0.055
2021-08-19 16:52:33.396,-0.385,0.045
2021-08-19 16:52:33.400,-0.36,0.045
2021-08-19 16:52:33.404,-0.28,0.03
2021-08-19 16:52:33.408,-0.365,0.025
2021-08-19 16:52:33.412,-0.255,0.05
2021-08-19 16:52:33.416,-0.18,0.01
2021-08-19 16:52:33.420,-0.015,-0.04
2021-08-19 16:52:33.424,-0.035,-0.045
2021-08-19 16:52:33.428,-0.185,-0.01
2021-08-19 16:52:33.432,-0.125,0.025
2021-08-19 16:52:33.436,-0.02,0.05
2021-08-19 16:52:33.440,-0.08,0.06
2021-08-19 16:52:33.444,-0.035,0.05
2021-08-19 16:52:33.448,0.06,0.045
2021-08-19 16:52:33.452,0.06,0.065
2021-08-19 16:52:33.456,-0.095,0.065
2021-08-19 16:52:33.460,-0.13,0.095
2021-08-19 16:52:33.464,-0.115,0.085
2021-08-19 16:52:33.468,-0.145,0.095
2021-08-19 16:52:33.472,-0.105,0.105
2021-08-19 16:52:33.476,-0.04,0.08
2021-08-19 16:52:33.480,-0.165,0.095
2021-08-19 16:52:33.484,-0.215,0.115
2021-08-19 16:52:33.488,-0.13,0.135
2021-08-19 16:52:33.492,-0.195,0.125
2021-08-19 16:52:33.496,-0.25,0.185
2021-08-19 16:52:33.500,-0.215,0.185
2021-08-19 16:52:33.504,-0.13,0.15
2021-08-19 16:52:33.508,-0.13,0.145
2021-08-19 16:52:33.512,-0.105,0.14
2021-08-19 16:52:33.516,-0.155,0.125
2021-08-19 16:52:33.520,-0.21,0.15
2021-08-19 16:52:33.524,-0.31,0.215
2021-08-19 16:52:33.528,-0.46,0.225
2021-08-19 16:52:33.532,-0.31,0.15
2021-08-19 16:52:33.536,0.345,-0.035
2021-08-19 16:52:33.540,1.04,-0.115
2021-08-19 16:52:33.544,1.64,-0.235
2021-08-19 16:52:33.548,1.86,-0.505
2021-08-19 16:52:33.552,1.43,-0.735
2021-08-19 16:52:33.556,0.445,-0.77
2021-08-19 16:52:33.560,-0.585,-0.46
2021-08-19 16:52:33.564,-1.0,-0.185
2021-08-19 16:52:33.568,-1.0,0.0
2021-08-19 16:52:33.572,-0.92,0.26
2021-08-19 16:52:33.576,-1.02,0.37
2021-08-19 16:52:33.580,-1.075,0.5
2021-08-19 16:52:33.584,-0.98,0.62
2021-08-19 16:52:33.588,-0.87,0.66
2021-08-19 16:52:33.592,-0.945,0.675
2021-08-19 16:52:33.596,-0.9,0.695
2021-08-19 16:52:33.600,-0.865,0.695
2021-08-19 16:52:33.604,-0.75,0.655
2021-08-19 16:52:33.608,-0.635,0.525
2021-08-19 16:52:33.612,-0.61,0.425
2021-08-19 16:52:33.616,-0.55,0.285
2021-08-19 16:52:33.620,-0.39,0.155
2021-08-19 16:52:33.624,-0.28,0.065
2021-08-19 16:52:33.628,-0.26,0.02
2021-08-19 16:52:33.632,-0.325,0.03
2021-08-19 16:52:33.636,-0.335,0.025
2021-08-19 16:52:33.640,-0.255,0.02
2021-08-19 16:52:33.644,-0.215,0.015
2021-08-19 16:52:33.648,-0.245,-0.015
2021-08-19 16:52:33.652,-0.16,-0.03
2021-08-19 16:52:33.656,-0.18,-0.035
2021-08-19 16:52:33.660,-0.315,-0.04
2021-08-19 16:52:33.664,-0.43,0.0
2021-08-19 16:52:33.668,-0.365,0.035
2021-08-19 16:52:33.672,-0.245,0.01
2021-08-19 16:52:33.676,-0.24,0.015
2021-08-19 16:52:33.680,-0.235,-0.015
2021-08-19 16:52:33.684,-0.095,-0.05
2021-08-19 16:52:33.688,-0.125,-0.04
2021-08-19 16:52:33.692,-0.24,-0.025
2021-08-19 16:52:33.696,-0.32,-0.02
2021-08-19 16:52:33.700,-0.31,0.0
2021-08-19 16:52:33.704,-0.185,-0.015
2021-08-19 16:52:33.708,-0.14,-0.03
2021-08-19 16:52:33.712,-0.055,-0.02
2021-08-19 16:52:33.716,0.06,-0.02
2021-08-19 16:52:33.720,0.12,-0.055
2021-08-19 16:52:33.724,0.09,-0.065
2021-08-19 16:52:33.728,0.04,-0.08
2021-08-19 16:52:33.732,-0.005,-0.09
2021-08-19 16:52:33.736,0.105,-0.14
2021-08-19 16:52:33.740,0.14,-0.135
2021-08-19 16:52:33.744,0.025,-0.14
2021-08-19 16:52:33.748,-0.005,-0.14
2021-08-19 16:52:33.752,0.06,-0.13
2021-08-19 16:52:33.756,0.105,-0.17
2021-08-19 16:52:33.760,0.06,-0.17
2021-08-19 16:52:33.764,0.015,-0.18
2021-08-19 16:52:33.768,0.005,-0.21
2021-08-19 16:52:33.772,0.17,-0.215
2021-08-19 16:52:33.776,0.245,-0.215
2021-08-19 16:52:33.780,0.275,-0.215
2021-08-19 16:52:33.784,0.38,-0.22
2021-08-19 16:52:33.788,0.38,-0.225
2021-08-19 16:52:33.792,0.375,-0.25
2021-08-19 16:52:33.796,0.35,-0.25
2021-08-19 16:52:33.800,0.385,-0.255
2021-08-19 16:52:33.804,0.325,-0.275
2021-08-19 16:52:33.808,0.245,-0.245
2021-08-19 16:52:33.812,0.205,-0.23
2021-08-19 16:52:33.816,0.265,-0.24
2021-08-19 16:52:33.820,0.29,-0.215
2021-08-19 16:52:33.824,0.17,-0.185
2021-08-19 16:52:33.828,0.04,-0.13
2021-08-19 16:52:33.832,0.075,-0.13
2021-08-19 16:52:33.836,0.165,-0.11
2021-08-19 16:52:33.840,0.02,-0.095
2021-08-19 16:52:33.844,-0.115,-0.07
2021-08-19 16:52:33.848,-0.06,-0.04
2021-08-19 16:52:33.852,-0.015,-0.035
2021-08-19 16:52:33.856,0.015,-0.045
2021-08-19 16:52:33.860,0.01,-0.035
2021-08-19 16:52:33.864,0.09,-0.035
2021-08-19 16:52:33.868,0.04,-0.025
2021-08-19 16:52:33.872,-0.035,-0.02
2021-08-19 16:52:33.876,-0.065,-0.005
2021-08-19 16:52:33.880,-0.065,0.01
2021-08-19 16:52:33.884,-0.125,0.025
2021-08-19 16:52:33.888,-0.05,0.03
2021-08-19 16:52:33.892,0.01,0.025
2021-08-19 16:52:33.896,-0.085,0.01
2021-08-19 16:52:33.900,-0.16,0.01
2021-08-19 16:52:33.904,-0.19,0.015
2021-08-19 16:52:33.908,-0.21,0.055
2021-08-19 16:52:33.912,-0.16,0.06
2021-08-19 16:52:33.916,-0.14,0.065
2021-08-19 16:52:33.920,-0.165,0.1
2021-08-19 16:52:33.924,-0.22,0.17
2021-08-19 16:52:33.928,-0.15,0.215
2021-08-19 16:52:33.932,-0.085,0.185
2021-08-19 16:52:33.936,0.295,0.005
2021-08-19 16:52:33.940,0.845,-0.06
2021-08-19 16:52:33.944,1.525,-0.195
2021-08-19 16:52:33.948,1.78,-0.505
2021-08-19 16:52:33.952,1.265,-0.795
2021-08-19 16:52:33.956,0.4,-0.915
2021-08-19 16:52:33.960,-0.42,-0.715
2021-08-19 16:52:33.964,-0.87,-0.49
2021-08-19 16:52:33.968,-0.91,-0.445
2021-08-19 16:52:33.972,-0.7,-0.315
2021-08-19 16:52:33.976,-0.555,-0.23
2021-08-19 16:52:33.980,-0.465,-0.19
2021-08-19 16:52:33.984,-0.545,-0.13
2021-08-19 16:52:33.988,-0.515,-0.06
2021-08-19 16:52:33.992,-0.44,-0.02
2021-08-19 16:52:33.996,-0.405,0.005
2021-08-19 16:52:34.000,-0.545,0.035
2021-08-19 16:52:34.004,-0.615,0.03
2021-08-19 16:52:34.008,-0.525,0.045
2021-08-19 16:52:34.012,-0.51,0.04
2021-08-19 16:52:34.016,-0.52,0.015
2021-08-19 16:52:34.020,-0.445,0.005
2021-08-19 16:52:34.024,-0.445,0.01
2021-08-19 16:52:34.028,-0.51,0.005
2021-08-19 16:52:34.032,-0.52,0.045
2021-08-19 16:52:34.036,-0.425,0.075
2021-08-19 16:52:34.040,-0.255,0.07
2021-08-19 16:52:34.044,-0.12,0.05
2021-08-19 16:52:34.048,-0.32,0.07
2021-08-19 16:52:34.052,-0.495,0.11
2021-08-19 16:52:34.056,-0.45,0.105
2021-08-19 16:52:34.060,-0.285,0.085
2021-08-19 16:52:34.064,-0.235,0.045
2021-08-19 16:52:34.068,-0.185,0.055
2021-08-19 16:52:34.072,-0.245,0.045
2021-08-19 16:52:34.076,-0.39,0.105
2021-08-19 16:52:34.080,-0.39,0.1
2021-08-19 16:52:34.084,-0.33,0.105
2021-08-19 16:52:34.088,-0.23,0.08
2021-08-19 16:52:34.092,-0.275,0.075
2021-08-19 16:52:34.096,-0.415,0.105
2021-08-19 16:52:34.100,-0.445,0.13
2021-08-19 16:52:34.104,-0.365,0.1
2021-08-19 16:52:34.108,-0.345,0.1
2021-08-19 16:52:34.112,-0.31,0.125
2021-08-19 16:52:34.116,-0.265,0.13
2021-08-19 16:52:34.120,-0.275,0.105
2021-08-19 16:52:34.124,-0.38,0.075
2021-08-19 16:52:34.128,-0.415,0.095
2021-08-19 16:52:34.132,-0.39,0.125
2021-08-19 16:52:34.136,-0.395,0.105
2021-08-19 16:52:34.140,-0.4,0.12
2021-08-19 16:52:34.144,-0.39,0.115
2021-08-19 16:52:34.148,-0.44,0.13
2021-08-19 16:52:34.152,-0.435,0.125
2021-08-19 16:52:34.156,-0.435,0.16
2021-08-19 16:52:34.160,-0.43,0.135
2021-08-19 16:52:34.164,-0.495,0.135
2021-08-19 16:52:34.168,-0.425,0.15
2021-08-19 16:52:34.172,-0.4,0.17
2021-08-19 16:52:34.176,-0.485,0.16
2021-08-19 16:52:34.180,-0.425,0.185
2021-08-19 16:52:34.184,-0.335,0.17
2021-08-19 16:52:34.188,-0.465,0.16
2021-08-19 16:52:34.192,-0.555,0.195
2021-08-19 16:52:34.196,-0.5,0.22
2021-08-19 16:52:34.200,-0.4,0.18
2021-08-19 16:52:34.204,-0.3,0.155
2021-08-19 16:52:34.208,-0.215,0.125
2021-08-19 16:52:34.212,-0.245,0.085
2021-08-19 16:52:34.216,-0.27,0.09
2021-08-19 16:52:34.220,-0.205,0.1
2021-08-19 16:52:34.224,-0.175,0.085
2021-08-19 16:52:34.228,-0.18,0.07
2021-08-19 16:52:34.232,-0.205,0.075
2021-08-19 16:52:34.236,-0.225,0.04
2021-08-19 16:52:34.240,-0.195,0.035
2021-08-19 16:52:34.244,-0.185,0.02
2021-08-19 16:52:34.248,-0.195,0.015
2021-08-19 16:52:34.252,-0.175,-0.005
2021-08-19 16:52:34.256,-0.185,0.01
2021-08-19 16:52:34.260,-0.24,0.035
2021-08-19 16:52:34.264,-0.235,0.03
2021-08-19 16:52:34.268,-0.19,0.01
2021-08-19 16:52:34.272,-0.155,0.03
2021-08-19 16:52:34.276,-0.105,0.05
2021-08-19 16:52:34.280,-0.065,0.065
2021-08-19 16:52:34.284,-0.08,0.04
2021-08-19 16:52:34.288,-0.05,0.025
2021-08-19 16:52:34.292,-0.045,0.02
2021-08-19 16:52:34.296,-0.01,0.015
2021-08-19 16:52:34.300,0.075,0.02
2021-08-19 16:52:34.304,0.01,0.02
2021-08-19 16:52:34.308,-0.13,0.03
2021-08-19 16:52:34.312,-0.16,0.04
2021-08-19 16:52:34.316,-0.08,0.025
2021-08-19 16:52:34.320,-0.08,0.04
2021-08-19 16:52:34.324,-0.11,0.045
2021-08-19 16:52:34.328,-0.105,0.025
2021-08-19 16:52:34.332,-0.075,0.025
2021-08-19 16:52:34.336,-0.09,0.04
2021-08-19 16:52:34.340,-0.055,0.035
2021-08-19 16:52:34.344,-0.035,0.035
2021-08-19 16:52:34.348,-0.065,0.03
2021-08-19 16:52:34.352,-0.07,0.025
2021-08-19 16:52:34.356,-0.015,0.02
2021-08-19 16:52:34.360,0.075,0.02
2021-08-19 16:52:34.364,0.115,0.0
2021-08-19 16:52:34.368,-0.005,0.0
2021-08-19 16:52:34.372,-0.145,0.03
2021-08-19 16:52:34.376,-0.15,0.045
2021-08-19 16:52:34.380,-0.07,0.04
2021-08-19 16:52:34.384,-0.035,0.025
2021-08-19 16:52:34.388,-0.03,0.015
2021-08-19 16:52:34.392,-0.095,0.04
2021-08-19 16:52:34.396,-0.115,0.04
2021-08-19 16:52:34.400,-0.095,0.07
2021-08-19 16:52:34.404,-0.085,0.085
2021-08-19 16:52:34.408,-0.075,0.08
2021-08-19 16:52:34.412,0.005,0.065
2021-08-19 16:52:34.416,-0.01,0.115
2021-08-19 16:52:34.420,-0.065,0.19
2021-08-19 16:52:34.424,-0.01,0.25
2021-08-19 16:52:34.428,0.12,0.175
2021-08-19 16:52:34.432,0.49,-0.015
2021-08-19 16:52:34.436,1.12,-0.165
2021-08-19 16:52:34.440,1.76,-0.34
2021-08-19 16:52:34.444,1.96,-0.66
2021-08-19 16:52:34.448,1.44,-0.98
2021-08-19 16:52:34.452,0.605,-1.12
2021-08-19 16:52:34.456,-0.33,-0.835
2021-08-19 16:52:34.460,-0.865,-0.51
2021-08-19 16:52:34.464,-0.77,-0.43
2021-08-19 16:52:34.468,-0.585,-0.345
2021-08-19 16:52:34.472,-0.385,-0.31
2021-08-19 16:52:34.476,-0.32,-0.26
2021-08-19 16:52:34.480,-0.345,-0.19
2021-08-19 16:52:34.484,-0.33,-0.145
2021-08-19 16:52:34.488,-0.275,-0.085
2021-08-19 16:52:34.492,-0.235,-0.105
2021-08-19 16:52:34.496,-0.24,-0.11
2021-08-19 16:52:34.500,-0.29,-0.12
2021-08-19 16:52:34.504,-0.27,-0.11
2021-08-19 16:52:34.508,-0.155,-0.08
2021-08-19 16:52:34.512,0.12,-0.065
2021-08-19 16:52:34.516,0.275,-0.06
2021-08-19 16:52:34.520,0.06,-0.02
2021-08-19 16:52:34.524,-0.19,0.01
2021-08-19 16:52:34.528,-0.34,0.075
2021-08-19 16:52:34.532,-0.385,0.095
2021-08-19 16:52:34.536,-0.265,0.06
2021-08-19 16:52:34.540,-0.085,0.025
2021-08-19 16:52:34.544,-0.015,0.02
2021-08-19 16:52:34.548,0.0,0.0
2021-08-19 16:52:34.552,-0.02,-0.015
2021-08-19 16:52:34.556,-0.08,0.005
2021-08-19 16:52:34.560,-0.21,0.04
2021-08-19 16:52:34.564,-0.325,0.045
2021-08-19 16:52:34.568,-0.4,0.055
2021-08-19 16:52:34.572,-0.26,0.04
2021-08-19 16:52:34.576,-0.08,0.045
2021-08-19 16:52:34.580,-0.03,0.01
2021-08-19 16:52:34.584,-0.01,0.005
2021-08-19 16:52:34.588,-0.055,0.01
2021-08-19 16:52:34.592,-0.145,0.02
2021-08-19 16:52:34.596,-0.14,0.02
2021-08-19 16:52:34.600,-0.045,0.005
2021-08-19 16:52:34.604,-0.04,0.02
2021-08-19 16:52:34.608,-0.08,0.01
2021-08-19 16:52:34.612,-0.14,0.025
2021-08-19 16:52:34.616,-0.115,0.01
2021-08-19 16:52:34.620,-0.015,0.005
2021-08-19 16:52:34.624,0.025,-0.01
2021-08-19 16:52:34.628,0.04,0.0
2021-08-19 16:52:34.632,0.135,0.005
2021-08-19 16:52:34.636,0.025,0.01
2021-08-19 16:52:34.640,-0.18,0.03
2021-08-19 16:52:34.644,-0.205,0.03
2021-08-19 16:52:34.648,-0.135,0.02
2021-08-19 16:52:34.652,-0.065,0.005
2021-08-19 16:52:34.656,-0.05,-0.015
2021-08-19 16:52:34.660,-0.075,-0.02
2021-08-19 16:52:34.664,-0.115,-0.015
2021-08-19 16:52:34.668,-0.145,-0.05
2021-08-19 16:52:34.672,-0.11,-0.035
2021-08-19 16:52:34.676,-0.05,-0.06
2021-08-19 16:52:34.680,-0.02,-0.05
2021-08-19 16:52:34.684,-0.035,-0.055
2021-08-19 16:52:34.688,-0.02,-0.115
2021-08-19 16:52:34.692,-0.015,-0.185
2021-08-19 16:52:34.696,-0.08,-0.18
2021-08-19 16:52:34.700,-0.11,-0.18
2021-08-19 16:52:34.704,-0.03,-0.185
2021-08-19 16:52:34.708,0.13,-0.205
2021-08-19 16:52:34.712,0.215,-0.205
2021-08-19 16:52:34.716,0.09,-0.2
2021-08-19 16:52:34.720,0.005,-0.16
2021-08-19 16:52:34.724,-0.03,-0.16
2021-08-19 16:52:34.728,-0.015,-0.18
2021-08-19 16:52:34.732,0.02,-0.16
2021-08-19 16:52:34.736,0.08,-0.19
2021-08-19 16:52:34.740,0.08,-0.19
2021-08-19 16:52:34.744,0.015,-0.155
2021-08-19 16:52:34.748,0.025,-0.14
2021-08-19 16:52:34.752,0.065,-0.12
2021-08-19 16:52:34.756,0.02,-0.125
2021-08-19 16:52:34.760,0.0,-0.06
2021-08-19 16:52:34.764,-0.05,-0.03
2021-08-19 16:52:34.768,-0.035,-0.03
2021-08-19 16:52:34.772,0.05,-0.035
2021-08-19 16:52:34.776,0.13,-0.05
2021-08-19 16:52:34.780,0.09,-0.05
2021-08-19 16:52:34.784,0.105,-0.045
2021-08-19 16:52:34.788,0.145,-0.04
2021-08-19 16:52:34.792,0.31,-0.06
2021-08-19 16:52:34.796,0.265,-0.05
2021-08-19 16:52:34.800,0.14,-0.07
2021-08-19 16:52:34.804,0.035,-0.08
2021-08-19 16:52:34.808,-0.02,-0.02
2021-08-19 16:52:34.812,-0.04,-0.04
2021-08-19 16:52:34.816,0.01,-0.045
2021-08-19 16:52:34.820,0.09,-0.04
2021-08-19 16:52:34.824,0.135,-0.02
2021-08-19 16:52:34.828,0.205,-0.025
2021-08-19 16:52:34.832,0.2,0.015
2021-08-19 16:52:34.836,0.135,0.095
2021-08-19 16:52:34.840,0.075,0.115
2021-08-19 16:52:34.844,0.34,0.0
2021-08-19 16:52:34.848,0.875,-0.245
2021-08-19 16:52:34.852,1.355,-0.39
2021-08-19 16:52:34.856,1.765,-0.6
2021-08-19 16:52:34.860,1.78,-0.92
2021-08-19 16:52:34.864,1.04,-1.14
2021-08-19 16:52:34.868,0.195,-1.02
2021-08-19 16:52:34.872,-0.34,-0.465
2021-08-19 16:52:34.876,-0.37,-0.235
2021-08-19 16:52:34.880,-0.23,-0.23
2021-08-19 16:52:34.884,-0.15,-0.205
2021-08-19 16:52:34.888,-0.13,-0.23
2021-08-19 16:52:34.892,-0.07,-0.16
2021-08-19 16:52:34.896,-0.035,-0.085
2021-08-19 16:52:34.900,-0.08,-0.045
2021-08-19 16:52:34.904,-0.07,-0.04
2021-08-19 16:52:34.908,-0.075,-0.05
2021-08-19 16:52:34.912,-0.16,-0.055
2021-08-19 16:52:34.916,-0.205,-0.055
2021-08-19 16:52:34.920,-0.095,-0.075
2021-08-19 16:52:34.924,-0.08,-0.105
2021-08-19 16:52:34.928,-0.22,-0.135
2021-08-19 16:52:34.932,-0.315,-0.095
2021-08-19 16:52:34.936,-0.265,-0.085
2021-08-19 16:52:34.940,-0.175,-0.09
2021-08-19 16:52:34.944,-0.28,-0.095
2021-08-19 16:52:34.948,-0.45,-0.115
2021-08-19 16:52:34.952,-0.465,-0.105
2021-08-19 16:52:34.956,-0.345,-0.105
2021-08-19 16:52:34.960,-0.125,-0.16
2021-08-19 16:52:34.964,-0.07,-0.21
2021-08-19 16:52:34.968,-0.245,-0.175
2021-08-19 16:52:34.972,-0.435,-0.14
2021-08-19 16:52:34.976,-0.375,-0.12
2021-08-19 16:52:34.980,-0.27,-0.125
2021-08-19 16:52:34.984,-0.175,-0.145
2021-08-19 16:52:34.988,-0.255,-0.1
2021-08-19 16:52:34.992,-0.25,-0.07
2021-08-19 16:52:34.996,-0.17,-0.07
2021-08-19 16:52:35.000,-0.145,-0.09
2021-08-19 16:52:35.004,-0.19,-0.065
2021-08-19 16:52:35.008,-0.115,-0.04
2021-08-19 16:52:35.012,-0.065,-0.06
2021-08-19 16:52:35.016,-0.015,-0.09
2021-08-19 16:52:35.020,-0.02,-0.085
2021-08-19 16:52:35.024,-0.045,-0.075
2021-08-19 16:52:35.028,0.0,-0.075
2021-08-19 16:52:35.032,0.0,-0.075
2021-08-19 16:52:35.036,0.005,-0.115
2021-08-19 16:52:35.040,0.06,-0.105
2021-08-19 16:52:35.044,0.0,-0.09
2021-08-19 16:52:35.048,-0.02,-0.11
2021-08-19 16:52:35.052,0.05,-0.095
2021-08-19 16:52:35.056,0.095,-0.1
2021-08-19 16:52:35.060,0.12,-0.125
2021-08-19 16:52:35.064,0.16,-0.115
2021-08-19 16:52:35.068,0.155,-0.08
2021-08-19 16:52:35.072,0.11,-0.11
2021-08-19 16:52:35.076,-0.005,-0.125
2021-08-19 16:52:35.080,0.0,-0.115
2021-08-19 16:52:35.084,0.14,-0.075
2021-08-19 16:52:35.088,0.185,-0.1
2021-08-19 16:52:35.092,0.075,-0.08
2021-08-19 16:52:35.096,0.005,-0.06
2021-08-19 16:52:35.100,0.1,-0.08
2021-08-19 16:52:35.104,0.21,-0.12
2021-08-19 16:52:35.108,0.195,-0.13
2021-08-19 16:52:35.112,0.205,-0.11
2021-08-19 16:52:35.116,0.235,-0.095
2021-08-19 16:52:35.120,0.145,-0.125
2021-08-19 16:52:35.124,0.105,-0.105
2021-08-19 16:52:35.128,0.145,-0.085
2021-08-19 16:52:35.132,0.135,-0.06
2021-08-19 16:52:35.136,0.045,-0.065
2021-08-19 16:52:35.140,-0.02,-0.045
2021-08-19 16:52:35.144,-0.06,-0.065
2021-08-19 16:52:35.148,-0.005,-0.06
2021-08-19 16:52:35.152,0.0,-0.115
2021-08-19 16:52:35.156,-0.145,-0.105
2021-08-19 16:52:35.160,-0.31,-0.105
2021-08-19 16:52:35.164,-0.265,-0.11
2021-08-19 16:52:35.168,-0.13,-0.155
2021-08-19 16:52:35.172,-0.135,-0.19
2021-08-19 16:52:35.176,-0.205,-0.18
2021-08-19 16:52:35.180,-0.28,-0.175
2021-08-19 16:52:35.184,-0.27,-0.17
2021-08-19 16:52:35.188,-0.305,-0.19
2021-08-19 16:52:35.192,-0.32,-0.21
2021-08-19 16:52:35.196,-0.33,-0.2
2021-08-19 16:52:35.200,-0.265,-0.2
2021-08-19 16:52:35.204,-0.195,-0.205
2021-08-19 16:52:35.208,-0.185,-0.21
2021-08-19 16:52:35.212,-0.125,-0.23
2021-08-19 16:52:35.216,-0.08,-0.18
2021-08-19 16:52:35.220,-0.155,-0.07
2021-08-19 16:52:35.224,-0.24,0.03
2021-08-19 16:52:35.228,-0.08,-0.02
2021-08-19 16:52:35.232,0.34,-0.215
2021-08-19 16:52:35.236,0.89,-0.345
2021-08-19 16:52:35.240,1.475,-0.475
2021-08-19 16:52:35.244,1.865,-0.755
2021-08-19 16:52:35.248,1.5,-1.065
2021-08-19 16:52:35.252,0.57,-1.2
2021-08-19 16:52:35.256,-0.335,-0.98
2021-08-19 16:52:35.260,-0.84,-0.655
2021-08-19 16:52:35.264,-0.825,-0.66
2021-08-19 16:52:35.268,-0.605,-0.55
2021-08-19 16:52:35.272,-0.31,-0.415
2021-08-19 16:52:35.276,-0.225,-0.355
2021-08-19 16:52:35.280,-0.17,-0.31
2021-08-19 16:52:35.284,-0.275,-0.225
2021-08-19 16:52:35.288,-0.365,-0.15
2021-08-19 16:52:35.292,-0.37,-0.105
2021-08-19 16:52:35.296,-0.445,-0.075
2021-08-19 16:52:35.300,-0.465,-0.08
2021-08-19 16:52:35.304,-0.375,-0.07
2021-08-19 16:52:35.308,-0.28,-0.08
2021-08-19 16:52:35.312,-0.19,-0.1
2021-08-19 16:52:35.316,-0.255,-0.075
2021-08-19 16:52:35.320,-0.425,-0.045
2021-08-19 16:52:35.324,-0.435,-0.045
2021-08-19 16:52:35.328,-0.36,-0.045
2021-08-19 16:52:35.332,-0.315,-0.055
2021-08-19 16:52:35.336,-0.26,-0.075
2021-08-19 16:52:35.340,-0.29,-0.07
2021-08-19 16:52:35.344,-0.42,-0.02
2021-08-19 16:52:35.348,-0.47,-0.005
2021-08-19 16:52:35.352,-0.405,-0.02
2021-08-19 16:52:35.356,-0.315,-0.04
2021-08-19 16:52:35.360,-0.315,-0.05
2021-08-19 16:52:35.364,-0.175,-0.055
2021-08-19 16:52:35.368,-0.17,-0.05
2021-08-19 16:52:35.372,-0.265,-0.055
2021-08-19 16:52:35.376,-0.305,-0.065
2021-08-19 16:52:35.380,-0.35,-0.055
2021-08-19 16:52:35.384,-0.25,-0.065
2021-08-19 16:52:35.388,-0.17,-0.09
2021-08-19 16:52:35.392,-0.38,-0.08
2021-08-19 16:52:35.396,-0.615,-0.1
2021-08-19 16:52:35.400,-0.62,-0.09
2021-08-19 16:52:35.404,-0.455,-0.105
2021-08-19 16:52:35.408,-0.515,-0.13
2021-08-19 16:52:35.412,-0.585,-0.155
2021-08-19 16:52:35.416,-0.595,-0.145
2021-08-19 16:52:35.420,-0.64,-0.11
2021-08-19 16:52:35.424,-0.65,-0.12
2021-08-19 16:52:35.428,-0.56,-0.145
2021-08-19 16:52:35.432,-0.495,-0.185
2021-08-19 16:52:35.436,-0.45,-0.18
2021-08-19 16:52:35.440,-0.425,-0.22
2021-08-19 16:52:35.444,-0.34,-0.205
2021-08-19 16:52:35.448,-0.415,-0.205
2021-08-19 16:52:35.452,-0.465,-0.205
2021-08-19 16:52:35.456,-0.52,-0.135
2021-08-19 16:52:35.460,-0.44,-0.12
2021-08-19 16:52:35.464,-0.33,-0.105
2021-08-19 16:52:35.468,-0.34,-0.08
2021-08-19 16:52:35.472,-0.31,-0.085
2021-08-19 16:52:35.476,-0.14,-0.11
2021-08-19 16:52:35.480,-0.04,-0.115
2021-08-19 16:52:35.484,-0.03,-0.135
2021-08-19 16:52:35.488,-0.1,-0.15
2021-08-19 16:52:35.492,-0.145,-0.13
2021-08-19 16:52:35.496,-0.145,-0.13
2021-08-19 16:52:35.500,-0.085,-0.14
2021-08-19 16:52:35.504,-0.05,-0.14
2021-08-19 16:52:35.508,-0.035,-0.15
2021-08-19 16:52:35.512,-0.03,-0.16
2021-08-19 16:52:35.516,-0.06,-0.155
2021-08-19 16:52:35.520,-0.105,-0.155
2021-08-19 16:52:35.524,-0.05,-0.155
2021-08-19 16:52:35.528,-0.05,-0.16
2021-08-19 16:52:35.532,-0.135,-0.165
2021-08-19 16:52:35.536,-0.155,-0.14
2021-08-19 16:52:35.540,-0.025,-0.13
2021-08-19 16:52:35.544,-0.065,-0.16
2021-08-19 16:52:35.548,-0.235,-0.15
2021-08-19 16:52:35.552,-0.395,-0.105
2021-08-19 16:52:35.556,-0.34,-0.08
2021-08-19 16:52:35.560,-0.25,-0.075
2021-08-19 16:52:35.564,-0.265,-0.095
2021-08-19 16:52:35.568,-0.27,-0.105
2021-08-19 16:52:35.572,-0.235,-0.1
2021-08-19 16:52:35.576,-0.26,-0.125
2021-08-19 16:52:35.580,-0.31,-0.095
2021-08-19 16:52:35.584,-0.29,-0.09
2021-08-19 16:52:35.588,-0.195,-0.105
2021-08-19 16:52:35.592,-0.16,-0.11
2021-08-19 16:52:35.596,-0.12,-0.095
2021-08-19 16:52:35.600,-0.125,-0.07
2021-08-19 16:52:35.604,-0.26,0.06
2021-08-19 16:52:35.608,-0.235,0.09
2021-08-19 16:52:35.612,0.02,0.03
2021-08-19 16:52:35.616,0.6,-0.185
2021-08-19 16:52:35.620,1.28,-0.29
2021-08-19 16:52:35.624,1.87,-0.425
2021-08-19 16:52:35.632,1.475,-0.935
2021-08-19 16:52:35.636,0.435,-1.015
2021-08-19 16:52:35.640,-0.38,-0.805
2021-08-19 16:52:35.644,-0.575,-0.625
2021-08-19 16:52:35.648,-0.58,-0.6
2021-08-19 16:52:35.652,-0.565,-0.525
2021-08-19 16:52:35.656,-0.465,-0.485
2021-08-19 16:52:35.660,-0.51,-0.415
2021-08-19 16:52:35.664,-0.655,-0.275
2021-08-19 16:52:35.668,-0.62,-0.23
2021-08-19 16:52:35.672,-0.555,-0.215
2021-08-19 16:52:35.676,-0.585,-0.21
2021-08-19 16:52:35.680,-0.6,-0.21
2021-08-19 16:52:35.684,-0.55,-0.23
2021-08-19 16:52:35.688,-0.51,-0.24
2021-08-19 16:52:35.692,-0.57,-0.23
2021-08-19 16:52:35.696,-0.59,-0.235
2021-08-19 16:52:35.700,-0.5,-0.245
2021-08-19 16:52:35.704,-0.58,-0.255
2021-08-19 16:52:35.708,-0.68,-0.24
2021-08-19 16:52:35.712,-0.73,-0.22
2021-08-19 16:52:35.716,-0.66,-0.24
2021-08-19 16:52:35.720,-0.56,-0.275
2021-08-19 16:52:35.724,-0.575,-0.295
2021-08-19 16:52:35.728,-0.545,-0.3
2021-08-19 16:52:35.732,-0.47,-0.3
2021-08-19 16:52:35.736,-0.465,-0.29
2021-08-19 16:52:35.740,-0.5,-0.24
2021-08-19 16:52:35.744,-0.48,-0.195
2021-08-19 16:52:35.748,-0.49,-0.16
2021-08-19 16:52:35.752,-0.525,-0.15
2021-08-19 16:52:35.756,-0.51,-0.15
2021-08-19 16:52:35.760,-0.46,-0.14
2021-08-19 16:52:35.764,-0.43,-0.135
2021-08-19 16:52:35.768,-0.39,-0.14
2021-08-19 16:52:35.772,-0.295,-0.14
2021-08-19 16:52:35.776,-0.24,-0.155
2021-08-19 16:52:35.780,-0.275,-0.145
2021-08-19 16:52:35.784,-0.405,-0.14
2021-08-19 16:52:35.788,-0.44,-0.11
2021-08-19 16:52:35.792,-0.42,-0.13
2021-08-19 16:52:35.796,-0.375,-0.13
2021-08-19 16:52:35.800,-0.39,-0.15
2021-08-19 16:52:35.804,-0.355,-0.165
2021-08-19 16:52:35.808,-0.305,-0.13
2021-08-19 16:52:35.812,-0.29,-0.16
2021-08-19 16:52:35.816,-0.23,-0.165
2021-08-19 16:52:35.820,-0.25,-0.15
2021-08-19 16:52:35.824,-0.245,-0.125
2021-08-19 16:52:35.828,-0.2,-0.115
2021-08-19 16:52:35.832,-0.135,-0.11
2021-08-19 16:52:35.836,-0.195,-0.115
2021-08-19 16:52:35.840,-0.26,-0.13
2021-08-19 16:52:35.844,-0.245,-0.125
2021-08-19 16:52:35.848,-0.17,-0.125
2021-08-19 16:52:35.852,-0.16,-0.14
2021-08-19 16:52:35.856,-0.08,-0.14
2021-08-19 16:52:35.860,-0.01,-0.155
2021-08-19 16:52:35.864,0.015,-0.18
2021-08-19 16:52:35.868,0.135,-0.195
2021-08-19 16:52:35.872,0.215,-0.215
2021-08-19 16:52:35.876,0.175,-0.185
2021-08-19 16:52:35.880,0.06,-0.165
2021-08-19 16:52:35.884,-0.015,-0.15
2021-08-19 16:52:35.888,-0.115,-0.15
2021-08-19 16:52:35.892,-0.105,-0.155
2021-08-19 16:52:35.896,-0.08,-0.14
2021-08-19 16:52:35.900,-0.09,-0.16
2021-08-19 16:52:35.904,-0.125,-0.175
2021-08-19 16:52:35.908,-0.17,-0.175
2021-08-19 16:52:35.912,-0.255,-0.155
2021-08-19 16:52:35.916,-0.23,-0.16
2021-08-19 16:52:35.920,-0.18,-0.125
2021-08-19 16:52:35.924,-0.21,-0.135
2021-08-19 16:52:35.928,-0.205,-0.15
2021-08-19 16:52:35.932,-0.17,-0.17
2021-08-19 16:52:35.936,-0.23,-0.165
2021-08-19 16:52:35.940,-0.305,-0.16
2021-08-19 16:52:35.944,-0.35,-0.15
2021-08-19 16:52:35.948,-0.32,-0.15
2021-08-19 16:52:35.952,-0.23,-0.175
2021-08-19 16:52:35.956,-0.195,-0.2
2021-08-19 16:52:35.960,-0.215,-0.19
2021-08-19 16:52:35.964,-0.255,-0.175
2021-08-19 16:52:35.968,-0.31,-0.205
2021-08-19 16:52:35.972,-0.32,-0.235
2021-08-19 16:52:35.976,-0.285,-0.245
2021-08-19 16:52:35.980,-0.225,-0.255
2021-08-19 16:52:35.984,-0.26,-0.26
2021-08-19 16:52:35.988,-0.24,-0.24
2021-08-19 16:52:35.992,-0.19,-0.22
2021-08-19 16:52:35.996,-0.185,-0.19
2021-08-19 16:52:36.000,-0.13,-0.185
2021-08-19 16:52:36.004,-0.09,-0.145
2021-08-19 16:52:36.008,-0.04,-0.125
2021-08-19 16:52:36.012,0.02,-0.1
2021-08-19 16:52:36.016,-0.025,-0.085
2021-08-19 16:52:36.020,-0.11,-0.09
2021-08-19 16:52:36.024,-0.095,-0.09
2021-08-19 16:52:36.028,0.02,-0.095
2021-08-19 16:52:36.032,-0.015,-0.075
2021-08-19 16:52:36.036,-0.105,-0.075
2021-08-19 16:52:36.040,-0.14,-0.07
2021-08-19 16:52:36.044,-0.085,-0.075
2021-08-19 16:52:36.048,-0.09,-0.1
2021-08-19 16:52:36.052,-0.095,-0.05
2021-08-19 16:52:36.056,-0.145,0.025
2021-08-19 16:52:36.060,-0.155,0.105
2021-08-19 16:52:36.064,0.0,0.09
2021-08-19 16:52:36.068,0.345,-0.05
2021-08-19 16:52:36.072,0.855,-0.115
2021-08-19 16:52:36.076,1.51,-0.19
2021-08-19 16:52:36.084,1.985,-0.76
2021-08-19 16:52:36.088,1.16,-0.965
2021-08-19 16:52:36.092,0.245,-0.88
2021-08-19 16:52:36.096,-0.59,-0.64
2021-08-19 16:52:36.100,-0.66,-0.52
2021-08-19 16:52:36.104,-0.49,-0.36
2021-08-19 16:52:36.108,-0.34,-0.315
2021-08-19 16:52:36.112,-0.155,-0.29
2021-08-19 16:52:36.116,-0.14,-0.24
2021-08-19 16:52:36.120,-0.185,-0.205
2021-08-19 16:52:36.124,-0.22,-0.11
2021-08-19 16:52:36.128,-0.23,-0.075
2021-08-19 16:52:36.132,-0.25,-0.095
2021-08-19 16:52:36.136,-0.265,-0.09
2021-08-19 16:52:36.140,-0.22,-0.1
2021-08-19 16:52:36.144,-0.23,-0.08
2021-08-19 16:52:36.148,-0.26,-0.12
2021-08-19 16:52:36.152,-0.33,-0.095
2021-08-19 16:52:36.156,-0.42,-0.085
2021-08-19 16:52:36.160,-0.425,-0.07
2021-08-19 16:52:36.164,-0.305,-0.09
2021-08-19 16:52:36.168,-0.305,-0.125
2021-08-19 16:52:36.172,-0.395,-0.115
2021-08-19 16:52:36.176,-0.35,-0.1
2021-08-19 16:52:36.180,-0.43,-0.08
2021-08-19 16:52:36.184,-0.48,-0.09
2021-08-19 16:52:36.188,-0.45,-0.07
2021-08-19 16:52:36.192,-0.45,-0.095
2021-08-19 16:52:36.196,-0.465,-0.12
2021-08-19 16:52:36.200,-0.485,-0.125
2021-08-19 16:52:36.204,-0.47,-0.1
2021-08-19 16:52:36.208,-0.435,-0.15
2021-08-19 16:52:36.212,-0.395,-0.17
2021-08-19 16:52:36.216,-0.33,-0.17
2021-08-19 16:52:36.220,-0.375,-0.175
2021-08-19 16:52:36.224,-0.39,-0.175
2021-08-19 16:52:36.228,-0.385,-0.15
2021-08-19 16:52:36.232,-0.345,-0.14
2021-08-19 16:52:36.236,-0.265,-0.09
2021-08-19 16:52:36.240,-0.235,-0.06
2021-08-19 16:52:36.244,-0.24,-0.03
2021-08-19 16:52:36.248,-0.235,-0.035
2021-08-19 16:52:36.252,-0.19,-0.035
2021-08-19 16:52:36.256,-0.13,-0.035
2021-08-19 16:52:36.260,-0.09,-0.04
2021-08-19 16:52:36.264,-0.045,-0.055
2021-08-19 16:52:36.268,-0.1,-0.045
2021-08-19 16:52:36.272,-0.145,-0.065
2021-08-19 16:52:36.276,-0.25,-0.04
2021-08-19 16:52:36.280,-0.3,-0.035
2021-08-19 16:52:36.284,-0.255,-0.04
2021-08-19 16:52:36.288,-0.265,-0.02
2021-08-19 16:52:36.292,-0.285,0.02
2021-08-19 16:52:36.296,-0.255,0.025
2021-08-19 16:52:36.300,-0.195,0.0
2021-08-19 16:52:36.304,-0.165,0.0
2021-08-19 16:52:36.308,-0.065,-0.02
2021-08-19 16:52:36.312,-0.09,-0.02
2021-08-19 16:52:36.316,-0.14,-0.03
2021-08-19 16:52:36.320,-0.19,0.0
2021-08-19 16:52:36.324,-0.12,0.005
2021-08-19 16:52:36.328,-0.035,-0.005
2021-08-19 16:52:36.332,0.015,-0.03
2021-08-19 16:52:36.336,0.065,-0.04
2021-08-19 16:52:36.340,0.08,-0.055
2021-08-19 16:52:36.344,0.135,-0.03
2021-08-19 16:52:36.348,0.15,-0.025
2021-08-19 16:52:36.352,0.115,-0.005
2021-08-19 16:52:36.356,0.09,-0.025
2021-08-19 16:52:36.360,0.13,-0.005
2021-08-19 16:52:36.364,0.105,-0.005
2021-08-19 16:52:36.368,0.08,0.0
2021-08-19 16:52:36.372,0.125,-0.005
2021-08-19 16:52:36.376,0.155,-0.005
2021-08-19 16:52:36.380,0.12,0.0
2021-08-19 16:52:36.384,0.065,0.0
2021-08-19 16:52:36.388,0.035,0.005
2021-08-19 16:52:36.392,-0.01,0.04
2021-08-19 16:52:36.396,-0.08,0.07
2021-08-19 16:52:36.400,-0.095,0.115
2021-08-19 16:52:36.404,0.155,0.04
2021-08-19 16:52:36.408,0.835,-0.145
2021-08-19 16:52:36.412,1.495,-0.27
2021-08-19 16:52:36.416,1.925,-0.445
2021-08-19 16:52:36.424,1.43,-0.87
2021-08-19 16:52:36.428,0.215,-0.835
2021-08-19 16:52:36.432,-0.85,-0.525
2021-08-19 16:52:36.436,-1.24,-0.295
2021-08-19 16:52:36.440,-1.15,-0.1
2021-08-19 16:52:36.444,-0.915,0.225
2021-08-19 16:52:36.448,-1.02,0.38
2021-08-19 16:52:36.452,-1.07,0.51
2021-08-19 16:52:36.456,-0.98,0.63
2021-08-19 16:52:36.460,-0.975,0.67
2021-08-19 16:52:36.464,-0.94,0.68
2021-08-19 16:52:36.468,-0.92,0.685
2021-08-19 16:52:36.472,-0.835,0.625
2021-08-19 16:52:36.476,-0.65,0.47
2021-08-19 16:52:36.480,-0.42,0.305
2021-08-19 16:52:36.484,-0.31,0.175
2021-08-19 16:52:36.488,-0.265,0.04
2021-08-19 16:52:36.492,-0.18,-0.03
2021-08-19 16:52:36.496,-0.085,-0.065
2021-08-19 16:52:36.500,-0.175,-0.02
2021-08-19 16:52:36.504,-0.235,-0.005
2021-08-19 16:52:36.508,-0.145,-0.02
2021-08-19 16:52:36.512,-0.06,-0.02
2021-08-19 16:52:36.516,-0.01,-0.01
2021-08-19 16:52:36.520,-0.04,-0.03
2021-08-19 16:52:36.524,0.005,-0.045
2021-08-19 16:52:36.528,0.03,-0.045
2021-08-19 16:52:36.532,0.0,-0.055
2021-08-19 16:52:36.536,-0.085,-0.04
2021-08-19 16:52:36.540,-0.095,-0.035
2021-08-19 16:52:36.544,0.0,-0.035
2021-08-19 16:52:36.548,0.09,-0.07
2021-08-19 16:52:36.552,0.15,-0.09
2021-08-19 16:52:36.556,0.255,-0.085
2021-08-19 16:52:36.560,0.2,-0.115
2021-08-19 16:52:36.564,0.075,-0.095
2021-08-19 16:52:36.568,0.055,-0.06
2021-08-19 16:52:36.572,0.1,-0.07
2021-08-19 16:52:36.576,0.165,-0.095
2021-08-19 16:52:36.580,0.215,-0.08
2021-08-19 16:52:36.584,0.27,-0.16
2021-08-19 16:52:36.588,0.325,-0.16
2021-08-19 16:52:36.592,0.42,-0.16
2021-08-19 16:52:36.596,0.44,-0.185
2021-08-19 16:52:36.600,0.47,-0.18
2021-08-19 16:52:36.604,0.455,-0.19
2021-08-19 16:52:36.608,0.435,-0.2
2021-08-19 16:52:36.612,0.435,-0.215
2021-08-19 16:52:36.616,0.5,-0.215
2021-08-19 16:52:36.620,0.505,-0.205
2021-08-19 16:52:36.624,0.62,-0.245
2021-08-19 16:52:36.628,0.68,-0.245
2021-08-19 16:52:36.632,0.765,-0.26
2021-08-19 16:52:36.636,0.72,-0.26
2021-08-19 16:52:36.640,0.695,-0.25
2021-08-19 16:52:36.644,0.705,-0.26
2021-08-19 16:52:36.648,0.77,-0.295
2021-08-19 16:52:36.652,0.84,-0.305
2021-08-19 16:52:36.656,0.845,-0.305
2021-08-19 16:52:36.660,0.835,-0.285
2021-08-19 16:52:36.664,0.845,-0.26
2021-08-19 16:52:36.668,0.805,-0.245
2021-08-19 16:52:36.672,0.785,-0.25
2021-08-19 16:52:36.676,0.73,-0.25
2021-08-19 16:52:36.680,0.625,-0.24
2021-08-19 16:52:36.684,0.52,-0.205
2021-08-19 16:52:36.688,0.545,-0.18
2021-08-19 16:52:36.692,0.545,-0.155
2021-08-19 16:52:36.696,0.525,-0.16
2021-08-19 16:52:36.700,0.47,-0.135
2021-08-19 16:52:36.704,0.49,-0.125
2021-08-19 16:52:36.708,0.355,-0.125
2021-08-19 16:52:36.712,0.19,-0.085
2021-08-19 16:52:36.716,0.13,-0.07
2021-08-19 16:52:36.720,0.175,-0.065
2021-08-19 16:52:36.724,0.24,-0.125
2021-08-19 16:52:36.728,0.305,-0.125
2021-08-19 16:52:36.732,0.285,-0.12
2021-08-19 16:52:36.736,0.29,-0.095
2021-08-19 16:52:36.740,0.32,-0.06
2021-08-19 16:52:36.744,0.25,-0.04
2021-08-19 16:52:36.748,0.17,0.0
2021-08-19 16:52:36.752,0.18,0.035
2021-08-19 16:52:36.756,0.24,0.025
2021-08-19 16:52:36.760,0.255,0.015
2021-08-19 16:52:36.764,0.23,0.025
2021-08-19 16:52:36.768,0.17,0.04
2021-08-19 16:52:36.772,0.15,0.03
2021-08-19 16:52:36.776,0.145,0.04
2021-08-19 16:52:36.780,0.11,0.05
2021-08-19 16:52:36.784,0.185,0.04
2021-08-19 16:52:36.788,0.21,0.03
2021-08-19 16:52:36.792,0.085,0.025
2021-08-19 16:52:36.796,-0.035,0.055
2021-08-19 16:52:36.800,0.0,0.075
2021-08-19 16:52:36.804,0.035,0.07
2021-08-19 16:52:36.808,0.065,0.065
2021-08-19 16:52:36.812,0.105,0.06
2021-08-19 16:52:36.816,0.095,0.045
2021-08-19 16:52:36.820,0.03,0.045
2021-08-19 16:52:36.824,-0.025,0.07
2021-08-19 16:52:36.828,0.015,0.06
2021-08-19 16:52:36.832,0.005,0.075
2021-08-19 16:52:36.836,-0.02,0.1
2021-08-19 16:52:36.840,-0.08,0.14
2021-08-19 16:52:36.844,-0.13,0.23
2021-08-19 16:52:36.848,0.005,0.205
2021-08-19 16:52:36.852,0.34,0.08
2021-08-19 16:52:36.856,0.91,-0.01
2021-08-19 16:52:36.860,1.535,-0.035
2021-08-19 16:52:36.872,1.355,-0.875
2021-08-19 16:52:36.876,0.345,-0.87
2021-08-19 16:52:36.880,-0.53,-0.665
2021-08-19 16:52:36.884,-0.645,-0.53
2021-08-19 16:52:36.888,-0.465,-0.38
2021-08-19 16:52:36.892,-0.405,-0.295
2021-08-19 16:52:36.896,-0.42,-0.225
2021-08-19 16:52:36.900,-0.36,-0.115
2021-08-19 16:52:36.904,-0.35,-0.06
2021-08-19 16:52:36.908,-0.32,-0.01
2021-08-19 16:52:36.912,-0.385,0.025
2021-08-19 16:52:36.916,-0.435,0.03
2021-08-19 16:52:36.920,-0.39,0.025
2021-08-19 16:52:36.924,-0.345,0.02
2021-08-19 16:52:36.928,-0.32,0.03
2021-08-19 16:52:36.932,-0.36,0.035
2021-08-19 16:52:36.936,-0.375,0.04
2021-08-19 16:52:36.940,-0.355,0.025
2021-08-19 16:52:36.944,-0.275,0.005
2021-08-19 16:52:36.948,-0.23,0.01
2021-08-19 16:52:36.952,-0.365,0.01
2021-08-19 16:52:36.956,-0.455,0.0
2021-08-19 16:52:36.960,-0.455,0.01
2021-08-19 16:52:36.964,-0.31,0.005
2021-08-19 16:52:36.968,-0.23,0.005
2021-08-19 16:52:36.972,-0.245,0.015
2021-08-19 16:52:36.976,-0.31,0.05
2021-08-19 16:52:36.980,-0.24,0.07
2021-08-19 16:52:36.984,-0.215,0.11
2021-08-19 16:52:36.988,-0.275,0.11
2021-08-19 16:52:36.992,-0.28,0.13
2021-08-19 16:52:36.996,-0.185,0.12
2021-08-19 16:52:37.000,-0.235,0.1
2021-08-19 16:52:37.004,-0.29,0.115
2021-08-19 16:52:37.008,-0.27,0.11
2021-08-19 16:52:37.012,-0.18,0.085
2021-08-19 16:52:37.016,-0.2,0.08
2021-08-19 16:52:37.020,-0.295,0.09
2021-08-19 16:52:37.024,-0.24,0.085
2021-08-19 16:52:37.028,-0.21,0.095
2021-08-19 16:52:37.032,-0.255,0.105
2021-08-19 16:52:37.036,-0.375,0.115
2021-08-19 16:52:37.040,-0.345,0.12
2021-08-19 16:52:37.044,-0.26,0.12
2021-08-19 16:52:37.048,-0.275,0.1
2021-08-19 16:52:37.052,-0.38,0.13
2021-08-19 16:52:37.056,-0.445,0.14
2021-08-19 16:52:37.060,-0.48,0.145
2021-08-19 16:52:37.064,-0.455,0.16
2021-08-19 16:52:37.068,-0.45,0.145
2021-08-19 16:52:37.072,-0.475,0.145
2021-08-19 16:52:37.076,-0.515,0.145
2021-08-19 16:52:37.080,-0.53,0.155
2021-08-19 16:52:37.084,-0.48,0.14
2021-08-19 16:52:37.088,-0.465,0.125
2021-08-19 16:52:37.092,-0.465,0.14
2021-08-19 16:52:37.096,-0.48,0.165
2021-08-19 16:52:37.100,-0.475,0.15
2021-08-19 16:52:37.104,-0.41,0.155
2021-08-19 16:52:37.108,-0.32,0.13
2021-08-19 16:52:37.112,-0.195,0.145
2021-08-19 16:52:37.116,-0.095,0.13
2021-08-19 16:52:37.120,-0.085,0.115
2021-08-19 16:52:37.124,-0.03,0.12
2021-08-19 16:52:37.128,-0.015,0.11
2021-08-19 16:52:37.132,-0.05,0.1
2021-08-19 16:52:37.136,-0.055,0.105
2021-08-19 16:52:37.140,-0.06,0.105
2021-08-19 16:52:37.144,-0.02,0.09
2021-08-19 16:52:37.148,0.045,0.06
2021-08-19 16:52:37.152,0.045,0.06
2021-08-19 16:52:37.156,-0.05,0.06
2021-08-19 16:52:37.160,-0.19,0.095
2021-08-19 16:52:37.164,-0.25,0.11
2021-08-19 16:52:37.168,-0.25,0.095
2021-08-19 16:52:37.172,-0.15,0.085
2021-08-19 16:52:37.176,-0.04,0.08
2021-08-19 16:52:37.180,-0.12,0.065
2021-08-19 16:52:37.184,-0.24,0.06
2021-08-19 16:52:37.188,-0.29,0.08
2021-08-19 16:52:37.192,-0.33,0.105
2021-08-19 16:52:37.196,-0.25,0.105
2021-08-19 16:52:37.200,-0.155,0.125
2021-08-19 16:52:37.204,-0.055,0.115
2021-08-19 16:52:37.208,0.02,0.09
2021-08-19 16:52:37.212,0.02,0.095
2021-08-19 16:52:37.216,0.0,0.06
2021-08-19 16:52:37.220,0.075,0.045
2021-08-19 16:52:37.224,0.08,0.03
2021-08-19 16:52:37.228,0.005,0.065
2021-08-19 16:52:37.232,-0.06,0.125
2021-08-19 16:52:37.236,0.085,0.155
2021-08-19 16:52:37.240,0.045,0.135
2021-08-19 16:52:37.244,0.035,0.115
2021-08-19 16:52:37.248,0.03,0.12
2021-08-19 16:52:37.252,0.005,0.125
2021-08-19 16:52:37.256,0.015,0.115
2021-08-19 16:52:37.260,0.045,0.085
2021-08-19 16:52:37.264,0.035,0.1
2021-08-19 16:52:37.268,0.06,0.1
2021-08-19 16:52:37.272,0.13,0.085
2021-08-19 16:52:37.276,0.12,0.075
2021-08-19 16:52:37.280,0.105,0.085
2021-08-19 16:52:37.284,0.03,0.095
2021-08-19 16:52:37.288,-0.05,0.125
2021-08-19 16:52:37.292,-0.065,0.215
2021-08-19 16:52:37.296,-0.105,0.255
2021-08-19 16:52:37.300,-0.015,0.215
2021-08-19 16:52:37.304,0.235,0.08
2021-08-19 16:52:37.308,0.825,0.0
2021-08-19 16:52:37.312,1.47,-0.08
2021-08-19 16:52:37.316,1.985,-0.36
2021-08-19 16:52:37.320,1.865,-0.72
2021-08-19 16:52:37.324,0.975,-0.945
2021-08-19 16:52:37.328,-0.04,-0.815
2021-08-19 16:52:37.332,-0.8,-0.515
2021-08-19 16:52:37.336,-0.71,-0.365
2021-08-19 16:52:37.340,-0.44,-0.2
2021-08-19 16:52:37.344,-0.22,-0.14
2021-08-19 16:52:37.348,-0.17,-0.1
2021-08-19 16:52:37.352,-0.18,-0.07
2021-08-19 16:52:37.356,-0.135,-0.005
2021-08-19 16:52:37.360,-0.05,0.05
2021-08-19 16:52:37.364,-0.08,0.025
2021-08-19 16:52:37.368,-0.135,0.04
2021-08-19 16:52:37.372,-0.14,0.055
2021-08-19 16:52:37.376,-0.155,0.045
2021-08-19 16:52:37.380,-0.18,0.075
2021-08-19 16:52:37.384,-0.275,0.075
2021-08-19 16:52:37.388,-0.345,0.065
2021-08-19 16:52:37.392,-0.28,0.075
2021-08-19 16:52:37.396,-0.15,0.065
2021-08-19 16:52:37.400,-0.075,0.05
2021-08-19 16:52:37.404,-0.155,0.05
2021-08-19 16:52:37.408,-0.245,0.085
2021-08-19 16:52:37.412,-0.28,0.085
2021-08-19 16:52:37.416,-0.31,0.06
2021-08-19 16:52:37.420,-0.31,0.09
2021-08-19 16:52:37.424,-0.3,0.09
2021-08-19 16:52:37.428,-0.275,0.07
2021-08-19 16:52:37.432,-0.205,0.075
2021-08-19 16:52:37.436,-0.155,0.095
2021-08-19 16:52:37.440,-0.045,0.095
2021-08-19 16:52:37.444,0.0,0.09
2021-08-19 16:52:37.448,-0.05,0.05
2021-08-19 16:52:37.452,-0.13,0.035
2021-08-19 16:52:37.456,-0.175,0.07
2021-08-19 16:52:37.460,-0.165,0.09
2021-08-19 16:52:37.464,-0.08,0.08
2021-08-19 16:52:37.468,0.01,0.105
2021-08-19 16:52:37.472,0.015,0.12
2021-08-19 16:52:37.476,0.035,0.105
2021-08-19 16:52:37.480,0.085,0.11
2021-08-19 16:52:37.484,0.09,0.09
2021-08-19 16:52:37.488,0.12,0.085
2021-08-19 16:52:37.492,0.165,0.095
2021-08-19 16:52:37.496,0.105,0.07
2021-08-19 16:52:37.500,0.05,0.09
2021-08-19 16:52:37.504,0.095,0.095
2021-08-19 16:52:37.508,0.05,0.085
2021-08-19 16:52:37.512,0.075,0.095
2021-08-19 16:52:37.516,0.105,0.075
2021-08-19 16:52:37.520,0.06,0.08
2021-08-19 16:52:37.524,0.035,0.07
2021-08-19 16:52:37.528,0.09,0.075
2021-08-19 16:52:37.532,0.135,0.04
2021-08-19 16:52:37.536,0.165,0.055
2021-08-19 16:52:37.540,0.185,0.055
2021-08-19 16:52:37.544,0.115,0.045
2021-08-19 16:52:37.548,0.11,0.07
2021-08-19 16:52:37.552,0.235,0.065
2021-08-19 16:52:37.556,0.305,0.02
2021-08-19 16:52:37.560,0.33,0.01
2021-08-19 16:52:37.564,0.36,0.025
2021-08-19 16:52:37.568,0.385,0.05
2021-08-19 16:52:37.572,0.405,0.05
2021-08-19 16:52:37.576,0.4,0.025
2021-08-19 16:52:37.580,0.335,0.035
2021-08-19 16:52:37.584,0.265,0.03
2021-08-19 16:52:37.588,0.22,0.07
2021-08-19 16:52:37.592,0.155,0.075
2021-08-19 16:52:37.596,0.07,0.05
2021-08-19 16:52:37.600,0.05,0.09
2021-08-19 16:52:37.604,0.06,0.075
2021-08-19 16:52:37.608,0.05,0.055
2021-08-19 16:52:37.612,0.04,0.055
2021-08-19 16:52:37.616,0.01,0.065
2021-08-19 16:52:37.620,-0.035,0.045
2021-08-19 16:52:37.624,-0.07,0.03
2021-08-19 16:52:37.628,-0.135,0.05
2021-08-19 16:52:37.632,-0.18,0.06
2021-08-19 16:52:37.636,-0.15,0.06
2021-08-19 16:52:37.640,-0.145,0.11
2021-08-19 16:52:37.644,-0.2,0.095
2021-08-19 16:52:37.648,-0.22,0.095
2021-08-19 16:52:37.652,-0.18,0.09
2021-08-19 16:52:37.656,-0.17,0.09
2021-08-19 16:52:37.660,-0.155,0.07
2021-08-19 16:52:37.664,-0.13,0.075
2021-08-19 16:52:37.668,-0.115,0.105
2021-08-19 16:52:37.672,-0.065,0.11
2021-08-19 16:52:37.676,-0.02,0.11
2021-08-19 16:52:37.680,-0.025,0.09
2021-08-19 16:52:37.684,-0.035,0.08
2021-08-19 16:52:37.688,-0.075,0.065
2021-08-19 16:52:37.692,-0.06,0.065
2021-08-19 16:52:37.696,0.005,0.045
2021-08-19 16:52:37.700,0.04,0.02
2021-08-19 16:52:37.704,0.015,0.025
2021-08-19 16:52:37.708,0.075,0.06
2021-08-19 16:52:37.712,0.155,0.075
2021-08-19 16:52:37.716,0.14,0.07
2021-08-19 16:52:37.720,0.08,0.06
2021-08-19 16:52:37.724,0.015,0.1
2021-08-19 16:52:37.728,0.04,0.075
2021-08-19 16:52:37.732,0.09,0.08
2021-08-19 16:52:37.736,0.12,0.07
2021-08-19 16:52:37.740,0.115,0.05
2021-08-19 16:52:37.744,0.1,0.06
2021-08-19 16:52:37.748,0.01,0.075
2021-08-19 16:52:37.752,-0.075,0.09
2021-08-19 16:52:37.756,0.0,0.065
2021-08-19 16:52:37.760,0.035,0.065
2021-08-19 16:52:37.764,-0.05,0.09
2021-08-19 16:52:37.768,-0.13,0.09
2021-08-19 16:52:37.772,-0.115,0.11
2021-08-19 16:52:37.776,-0.055,0.11
2021-08-19 16:52:37.780,-0.045,0.085
2021-08-19 16:52:37.784,-0.07,0.09
2021-08-19 16:52:37.788,-0.155,0.08
2021-08-19 16:52:37.792,-0.19,0.115
2021-08-19 16:52:37.796,-0.12,0.105
2021-08-19 16:52:37.800,-0.095,0.11
2021-08-19 16:52:37.804,-0.09,0.07
2021-08-19 16:52:37.808,-0.085,0.085
2021-08-19 16:52:37.812,-0.115,0.09
2021-08-19 16:52:37.816,-0.135,0.095
2021-08-19 16:52:37.820,-0.1,0.085
2021-08-19 16:52:37.824,-0.055,0.085
2021-08-19 16:52:37.828,-0.07,0.085
2021-08-19 16:52:37.832,-0.175,0.08
2021-08-19 16:52:37.836,-0.215,0.07
2021-08-19 16:52:37.840,-0.2,0.055
2021-08-19 16:52:37.844,-0.2,0.055
2021-08-19 16:52:37.848,-0.27,0.075
2021-08-19 16:52:37.852,-0.35,0.06
2021-08-19 16:52:37.856,-0.33,0.08
2021-08-19 16:52:37.860,-0.3,0.085
2021-08-19 16:52:37.864,-0.305,0.065
2021-08-19 16:52:37.868,-0.305,0.08
2021-08-19 16:52:37.872,-0.3,0.075
2021-08-19 16:52:37.876,-0.37,0.065
2021-08-19 16:52:37.880,-0.375,0.07
2021-08-19 16:52:37.884,-0.34,0.09
2021-08-19 16:52:37.888,-0.34,0.065
2021-08-19 16:52:37.892,-0.325,0.075
2021-08-19 16:52:37.896,-0.255,0.085
2021-08-19 16:52:37.900,-0.165,0.07
2021-08-19 16:52:37.904,-0.165,0.075
2021-08-19 16:52:37.908,-0.23,0.08
2021-08-19 16:52:37.912,-0.275,0.135
2021-08-19 16:52:37.916,-0.28,0.18
2021-08-19 16:52:37.920,-0.265,0.24
2021-08-19 16:52:37.924,-0.06,0.18
2021-08-19 16:52:37.928,0.425,0.025
2021-08-19 16:52:37.932,1.115,-0.01
2021-08-19 16:52:37.936,1.745,-0.07
2021-08-19 16:52:37.944,1.915,-0.64
2021-08-19 16:52:37.948,1.02,-0.88
2021-08-19 16:52:37.952,-0.02,-0.85
2021-08-19 16:52:37.956,-0.705,-0.655
2021-08-19 16:52:37.960,-0.77,-0.63
2021-08-19 16:52:37.964,-0.56,-0.405
2021-08-19 16:52:37.968,-0.15,-0.29
2021-08-19 16:52:37.972,0.015,-0.21
2021-08-19 16:52:37.976,-0.145,-0.12
2021-08-19 16:52:37.980,-0.325,-0.03
2021-08-19 16:52:37.984,-0.375,0.065
2021-08-19 16:52:37.988,-0.31,0.095
2021-08-19 16:52:37.992,-0.21,0.1
2021-08-19 16:52:37.996,-0.24,0.11
2021-08-19 16:52:38.000,-0.245,0.095
2021-08-19 16:52:38.004,-0.205,0.11
2021-08-19 16:52:38.008,-0.24,0.135
2021-08-19 16:52:38.012,-0.245,0.12
2021-08-19 16:52:38.016,-0.215,0.105
2021-08-19 16:52:38.020,-0.2,0.105
2021-08-19 16:52:38.024,-0.19,0.09
2021-08-19 16:52:38.028,-0.16,0.11
2021-08-19 16:52:38.032,-0.17,0.13
2021-08-19 16:52:38.036,-0.165,0.095
2021-08-19 16:52:38.040,-0.095,0.085
2021-08-19 16:52:38.044,-0.12,0.085
2021-08-19 16:52:38.048,-0.135,0.1
2021-08-19 16:52:38.052,-0.055,0.075
2021-08-19 16:52:38.056,-0.045,0.07
2021-08-19 16:52:38.060,-0.255,0.085
2021-08-19 16:52:38.064,-0.35,0.105
2021-08-19 16:52:38.068,-0.45,0.12
2021-08-19 16:52:38.072,-0.41,0.12
2021-08-19 16:52:38.076,-0.285,0.11
2021-08-19 16:52:38.080,-0.175,0.075
2021-08-19 16:52:38.084,-0.225,0.06
2021-08-19 16:52:38.088,-0.395,0.08
2021-08-19 16:52:38.092,-0.465,0.09
2021-08-19 16:52:38.096,-0.43,0.115
2021-08-19 16:52:38.100,-0.375,0.11
2021-08-19 16:52:38.104,-0.29,0.13
2021-08-19 16:52:38.108,-0.305,0.145
2021-08-19 16:52:38.112,-0.305,0.105
2021-08-19 16:52:38.116,-0.255,0.115
2021-08-19 16:52:38.120,-0.345,0.095
2021-08-19 16:52:38.124,-0.385,0.105
2021-08-19 16:52:38.128,-0.36,0.135
2021-08-19 16:52:38.132,-0.325,0.155
2021-08-19 16:52:38.136,-0.34,0.16
2021-08-19 16:52:38.140,-0.28,0.145
2021-08-19 16:52:38.144,-0.265,0.14
2021-08-19 16:52:38.148,-0.26,0.115
2021-08-19 16:52:38.152,-0.28,0.11
2021-08-19 16:52:38.156,-0.28,0.075
2021-08-19 16:52:38.160,-0.245,0.06
2021-08-19 16:52:38.164,-0.175,0.04
2021-08-19 16:52:38.168,-0.15,0.025
2021-08-19 16:52:38.172,-0.145,0.045
2021-08-19 16:52:38.176,-0.145,0.09
2021-08-19 16:52:38.180,-0.125,0.135
2021-08-19 16:52:38.184,-0.1,0.125
2021-08-19 16:52:38.188,0.005,0.095
2021-08-19 16:52:38.192,0.015,0.075
2021-08-19 16:52:38.196,-0.04,0.06
2021-08-19 16:52:38.200,0.01,0.065
2021-08-19 16:52:38.204,0.085,0.07
2021-08-19 16:52:38.208,0.17,0.05
2021-08-19 16:52:38.212,0.265,0.07
2021-08-19 16:52:38.216,0.28,0.055
2021-08-19 16:52:38.220,0.265,0.03
2021-08-19 16:52:38.224,0.155,0.06
2021-08-19 16:52:38.228,0.1,0.105
2021-08-19 16:52:38.232,0.13,0.1
2021-08-19 16:52:38.236,0.15,0.11
2021-08-19 16:52:38.240,0.145,0.105
2021-08-19 16:52:38.244,0.085,0.12
2021-08-19 16:52:38.248,0.095,0.11
2021-08-19 16:52:38.252,0.13,0.115
2021-08-19 16:52:38.256,0.17,0.1
2021-08-19 16:52:38.260,0.2,0.09
2021-08-19 16:52:38.264,0.085,0.125
2021-08-19 16:52:38.268,-0.065,0.135
2021-08-19 16:52:38.272,-0.115,0.14
2021-08-19 16:52:38.276,-0.1,0.18
2021-08-19 16:52:38.280,-0.06,0.21
2021-08-19 16:52:38.284,-0.105,0.27
2021-08-19 16:52:38.288,-0.135,0.275
2021-08-19 16:52:38.292,0.07,0.125
2021-08-19 16:52:38.296,0.57,-0.125
2021-08-19 16:52:38.300,1.005,-0.315
2021-08-19 16:52:38.304,1.345,-0.585
2021-08-19 16:52:38.308,1.23,-0.82
2021-08-19 16:52:38.312,0.535,-0.96
2021-08-19 16:52:38.316,-0.42,-0.895
2021-08-19 16:52:38.320,-1.18,-0.655
2021-08-19 16:52:38.324,-1.235,-0.4
2021-08-19 16:52:38.328,-1.18,-0.135
2021-08-19 16:52:38.332,-0.965,0.25
2021-08-19 16:52:38.336,-0.925,0.425
2021-08-19 16:52:38.340,-1.0,0.58
2021-08-19 16:52:38.344,-0.93,0.715
2021-08-19 16:52:38.348,-0.95,0.765
2021-08-19 16:52:38.352,-1.045,0.795
2021-08-19 16:52:38.356,-1.045,0.835
2021-08-19 16:52:38.360,-0.955,0.785
2021-08-19 16:52:38.364,-0.8,0.685
2021-08-19 16:52:38.368,-0.62,0.56
2021-08-19 16:52:38.372,-0.395,0.465
2021-08-19 16:52:38.376,-0.22,0.3
2021-08-19 16:52:38.380,-0.23,0.205
2021-08-19 16:52:38.384,-0.245,0.155
2021-08-19 16:52:38.388,-0.3,0.125
2021-08-19 16:52:38.392,-0.295,0.095
2021-08-19 16:52:38.396,-0.215,0.09
2021-08-19 16:52:38.400,-0.115,0.055
2021-08-19 16:52:38.404,-0.075,0.04
2021-08-19 16:52:38.408,-0.035,0.055
2021-08-19 16:52:38.412,-0.005,0.12
2021-08-19 16:52:38.416,0.005,0.13
2021-08-19 16:52:38.420,-0.015,0.11
2021-08-19 16:52:38.424,-0.015,0.095
2021-08-19 16:52:38.428,0.01,0.085
2021-08-19 16:52:38.432,0.025,0.07
2021-08-19 16:52:38.436,-0.02,0.09
2021-08-19 16:52:38.440,-0.025,0.095
2021-08-19 16:52:38.444,0.025,0.075
2021-08-19 16:52:38.448,0.09,0.075
2021-08-19 16:52:38.452,0.15,0.055
2021-08-19 16:52:38.456,0.19,0.025
2021-08-19 16:52:38.460,0.115,0.035
2021-08-19 16:52:38.464,0.035,0.065
2021-08-19 16:52:38.468,0.08,0.05
2021-08-19 16:52:38.472,0.18,0.035
2021-08-19 16:52:38.476,0.22,0.03
2021-08-19 16:52:38.480,0.265,0.0
2021-08-19 16:52:38.484,0.245,-0.005
2021-08-19 16:52:38.488,0.23,-0.01
2021-08-19 16:52:38.492,0.25,-0.025
2021-08-19 16:52:38.496,0.325,-0.025
2021-08-19 16:52:38.500,0.34,-0.02
2021-08-19 16:52:38.504,0.34,-0.01
2021-08-19 16:52:38.508,0.37,-0.01
2021-08-19 16:52:38.512,0.42,-0.035
2021-08-19 16:52:38.516,0.44,-0.055
2021-08-19 16:52:38.520,0.565,-0.06
2021-08-19 16:52:38.524,0.63,-0.085
2021-08-19 16:52:38.528,0.585,-0.095
2021-08-19 16:52:38.532,0.59,-0.08
2021-08-19 16:52:38.536,0.635,-0.11
2021-08-19 16:52:38.540,0.68,-0.115
2021-08-19 16:52:38.544,0.755,-0.13
2021-08-19 16:52:38.548,0.765,-0.14
2021-08-19 16:52:38.552,0.765,-0.145
2021-08-19 16:52:38.556,0.76,-0.145
2021-08-19 16:52:38.560,0.71,-0.17
2021-08-19 16:52:38.564,0.63,-0.175
2021-08-19 16:52:38.568,0.56,-0.15
2021-08-19 16:52:38.572,0.515,-0.135
2021-08-19 16:52:38.576,0.5,-0.14
2021-08-19 16:52:38.580,0.42,-0.115
2021-08-19 16:52:38.584,0.35,-0.065
2021-08-19 16:52:38.588,0.285,-0.04
2021-08-19 16:52:38.592,0.305,-0.025
2021-08-19 16:52:38.596,0.29,0.005
2021-08-19 16:52:38.600,0.28,0.01
2021-08-19 16:52:38.604,0.2,0.0
2021-08-19 16:52:38.608,0.16,0.055
2021-08-19 16:52:38.612,0.155,0.12
2021-08-19 16:52:38.616,0.2,0.125
2021-08-19 16:52:38.620,0.42,0.065
2021-08-19 16:52:38.624,0.915,-0.135
2021-08-19 16:52:38.628,1.51,-0.23
2021-08-19 16:52:38.632,1.99,-0.31
2021-08-19 16:52:38.640,1.975,-0.815
2021-08-19 16:52:38.644,1.11,-0.89
2021-08-19 16:52:38.648,-0.01,-0.635
2021-08-19 16:52:38.652,-0.9,-0.275
2021-08-19 16:52:38.656,-1.165,-0.105
2021-08-19 16:52:38.660,-1.01,0.135
2021-08-19 16:52:38.664,-0.88,0.26
2021-08-19 16:52:38.668,-0.93,0.385
2021-08-19 16:52:38.672,-0.95,0.545
2021-08-19 16:52:38.676,-0.865,0.635
2021-08-19 16:52:38.680,-0.855,0.66
2021-08-19 16:52:38.684,-0.915,0.69
2021-08-19 16:52:38.688,-0.91,0.655
2021-08-19 16:52:38.692,-0.8,0.65
2021-08-19 16:52:38.696,-0.705,0.56
2021-08-19 16:52:38.700,-0.595,0.44
2021-08-19 16:52:38.704,-0.5,0.345
2021-08-19 16:52:38.708,-0.4,0.255
2021-08-19 16:52:38.712,-0.35,0.175
2021-08-19 16:52:38.716,-0.265,0.115
2021-08-19 16:52:38.720,-0.265,0.085
2021-08-19 16:52:38.724,-0.32,0.105
2021-08-19 16:52:38.728,-0.275,0.115
2021-08-19 16:52:38.732,-0.165,0.09
2021-08-19 16:52:38.736,-0.2,0.07
2021-08-19 16:52:38.740,-0.26,0.075
2021-08-19 16:52:38.744,-0.275,0.085
2021-08-19 16:52:38.748,-0.29,0.075
2021-08-19 16:52:38.752,-0.215,0.075
2021-08-19 16:52:38.756,-0.135,0.065
2021-08-19 16:52:38.760,-0.155,0.03
2021-08-19 16:52:38.764,-0.24,0.03
2021-08-19 16:52:38.768,-0.28,0.045
2021-08-19 16:52:38.772,-0.305,0.04
2021-08-19 16:52:38.776,-0.285,0.03
2021-08-19 16:52:38.780,-0.27,0.025
2021-08-19 16:52:38.784,-0.275,0.02
2021-08-19 16:52:38.788,-0.285,0.025
2021-08-19 16:52:38.792,-0.305,0.065
2021-08-19 16:52:38.796,-0.36,0.055
2021-08-19 16:52:38.800,-0.34,0.05
2021-08-19 16:52:38.804,-0.235,0.03
2021-08-19 16:52:38.808,-0.205,0.005
2021-08-19 16:52:38.812,-0.24,0.0
2021-08-19 16:52:38.816,-0.225,-0.005
2021-08-19 16:52:38.820,-0.29,0.015
2021-08-19 16:52:38.824,-0.33,0.045
2021-08-19 16:52:38.828,-0.205,0.065
2021-08-19 16:52:38.832,-0.155,0.04
2021-08-19 16:52:38.836,-0.205,0.005
2021-08-19 16:52:38.840,-0.21,0.0
2021-08-19 16:52:38.844,-0.05,-0.015
2021-08-19 16:52:38.848,-0.025,-0.06
2021-08-19 16:52:38.852,0.04,-0.065
2021-08-19 16:52:38.856,0.1,-0.075
2021-08-19 16:52:38.860,0.14,-0.11
2021-08-19 16:52:38.864,0.175,-0.115
2021-08-19 16:52:38.868,0.21,-0.08
2021-08-19 16:52:38.872,0.2,-0.09
2021-08-19 16:52:38.876,0.23,-0.085
2021-08-19 16:52:38.880,0.255,-0.09
2021-08-19 16:52:38.884,0.245,-0.075
2021-08-19 16:52:38.888,0.245,-0.09
2021-08-19 16:52:38.892,0.215,-0.1
2021-08-19 16:52:38.896,0.16,-0.07
2021-08-19 16:52:38.900,0.17,-0.055
2021-08-19 16:52:38.904,0.16,-0.045
2021-08-19 16:52:38.908,0.155,-0.035
2021-08-19 16:52:38.912,0.2,-0.035
2021-08-19 16:52:38.916,0.315,-0.05
2021-08-19 16:52:38.920,0.185,-0.015
2021-08-19 16:52:38.924,0.07,0.0
2021-08-19 16:52:38.928,0.07,0.02
2021-08-19 16:52:38.932,0.03,0.035
2021-08-19 16:52:38.936,-0.125,0.07
2021-08-19 16:52:38.940,-0.105,0.07
2021-08-19 16:52:38.944,-0.085,0.05
2021-08-19 16:52:38.948,-0.12,0.055
2021-08-19 16:52:38.952,-0.095,0.07
2021-08-19 16:52:38.956,-0.08,0.065
2021-08-19 16:52:38.960,-0.06,0.065
2021-08-19 16:52:38.964,-0.055,0.065
2021-08-19 16:52:38.968,-0.04,0.065
2021-08-19 16:52:38.972,-0.07,0.065
2021-08-19 16:52:38.976,-0.095,0.06
2021-08-19 16:52:38.980,-0.08,0.075
2021-08-19 16:52:38.984,-0.07,0.05
2021-08-19 16:52:38.988,-0.01,0.065
2021-08-19 16:52:38.992,0.055,0.055
2021-08-19 16:52:38.996,-0.065,0.035
2021-08-19 16:52:39.000,-0.095,0.055
2021-08-19 16:52:39.004,-0.085,0.055
2021-08-19 16:52:39.008,-0.14,0.05
2021-08-19 16:52:39.012,-0.195,0.065
2021-08-19 16:52:39.016,-0.225,0.08
2021-08-19 16:52:39.020,-0.27,0.06
2021-08-19 16:52:39.024,-0.28,0.065
2021-08-19 16:52:39.028,-0.27,0.04
2021-08-19 16:52:39.032,-0.33,0.025
2021-08-19 16:52:39.036,-0.335,0.04
2021-08-19 16:52:39.040,-0.26,0.05
2021-08-19 16:52:39.044,-0.305,0.035
2021-08-19 16:52:39.048,-0.345,0.06
2021-08-19 16:52:39.052,-0.385,0.04
2021-08-19 16:52:39.056,-0.375,0.06
2021-08-19 16:52:39.060,-0.385,0.07
2021-08-19 16:52:39.064,-0.265,0.05
2021-08-19 16:52:39.068,-0.23,0.045
2021-08-19 16:52:39.072,-0.25,0.035
2021-08-19 16:52:39.076,-0.175,0.02
2021-08-19 16:52:39.080,-0.155,0.02
2021-08-19 16:52:39.084,-0.19,0.02
2021-08-19 16:52:39.088,-0.195,0.05
2021-08-19 16:52:39.092,-0.2,0.095
2021-08-19 16:52:39.096,-0.205,0.105
2021-08-19 16:52:39.100,-0.2,0.1
2021-08-19 16:52:39.104,-0.145,0.1
2021-08-19 16:52:39.108,-0.095,0.105
2021-08-19 16:52:39.112,-0.135,0.085
2021-08-19 16:52:39.116,-0.18,0.13
2021-08-19 16:52:39.120,-0.215,0.14
2021-08-19 16:52:39.124,-0.19,0.14
2021-08-19 16:52:39.128,-0.12,0.12
2021-08-19 16:52:39.132,-0.045,0.095
2021-08-19 16:52:39.136,-0.17,0.115
2021-08-19 16:52:39.140,-0.31,0.13
2021-08-19 16:52:39.144,-0.295,0.145
2021-08-19 16:52:39.148,-0.225,0.1
2021-08-19 16:52:39.152,-0.24,0.085
2021-08-19 16:52:39.156,-0.305,0.115
2021-08-19 16:52:39.160,-0.345,0.145
2021-08-19 16:52:39.164,-0.29,0.105
2021-08-19 16:52:39.168,-0.25,0.115
2021-08-19 16:52:39.172,-0.255,0.1
2021-08-19 16:52:39.176,-0.23,0.1
2021-08-19 16:52:39.180,-0.22,0.105
2021-08-19 16:52:39.184,-0.235,0.105
2021-08-19 16:52:39.188,-0.19,0.09
2021-08-19 16:52:39.192,-0.26,0.1
2021-08-19 16:52:39.196,-0.305,0.115
2021-08-19 16:52:39.200,-0.29,0.12
2021-08-19 16:52:39.204,-0.23,0.105
2021-08-19 16:52:39.208,-0.215,0.085
2021-08-19 16:52:39.212,-0.215,0.08
2021-08-19 16:52:39.216,-0.265,0.075
2021-08-19 16:52:39.220,-0.32,0.075
2021-08-19 16:52:39.224,-0.275,0.08
2021-08-19 16:52:39.228,-0.255,0.09
2021-08-19 16:52:39.232,-0.215,0.06
2021-08-19 16:52:39.236,-0.215,0.09
2021-08-19 16:52:39.240,-0.255,0.075
2021-08-19 16:52:39.244,-0.335,0.07
2021-08-19 16:52:39.248,-0.37,0.06
2021-08-19 16:52:39.252,-0.335,0.045
2021-08-19 16:52:39.256,-0.32,0.03
2021-08-19 16:52:39.260,-0.34,0.04
2021-08-19 16:52:39.264,-0.305,0.025
2021-08-19 16:52:39.268,-0.335,0.035
2021-08-19 16:52:39.272,-0.39,0.065
2021-08-19 16:52:39.276,-0.39,0.085
2021-08-19 16:52:39.280,-0.34,0.045
2021-08-19 16:52:39.284,-0.365,0.03
2021-08-19 16:52:39.288,-0.48,0.085
2021-08-19 16:52:39.292,-0.46,0.135
2021-08-19 16:52:39.296,-0.355,0.19
2021-08-19 16:52:39.300,-0.17,0.18
2021-08-19 16:52:39.304,0.135,0.025
2021-08-19 16:52:39.308,0.705,-0.075
2021-08-19 16:52:39.312,1.35,-0.16
2021-08-19 16:52:39.316,1.865,-0.36
2021-08-19 16:52:39.320,1.965,-0.625
2021-08-19 16:52:39.324,1.37,-0.855
2021-08-19 16:52:39.328,0.42,-0.795
2021-08-19 16:52:39.332,-0.49,-0.535
2021-08-19 16:52:39.336,-0.755,-0.43
2021-08-19 16:52:39.340,-0.66,-0.35
2021-08-19 16:52:39.344,-0.47,-0.21
2021-08-19 16:52:39.348,-0.335,-0.155
2021-08-19 16:52:39.352,-0.25,-0.09
2021-08-19 16:52:39.356,-0.285,-0.035
2021-08-19 16:52:39.360,-0.27,0.035
2021-08-19 16:52:39.364,-0.24,0.055
2021-08-19 16:52:39.368,-0.29,0.065
2021-08-19 16:52:39.372,-0.315,0.095
2021-08-19 16:52:39.376,-0.29,0.1
2021-08-19 16:52:39.380,-0.37,0.095
2021-08-19 16:52:39.384,-0.385,0.115
2021-08-19 16:52:39.388,-0.355,0.115
2021-08-19 16:52:39.392,-0.28,0.095
2021-08-19 16:52:39.396,-0.255,0.09
2021-08-19 16:52:39.400,-0.3,0.105
2021-08-19 16:52:39.404,-0.36,0.105
2021-08-19 16:52:39.408,-0.33,0.1
2021-08-19 16:52:39.412,-0.335,0.12
2021-08-19 16:52:39.416,-0.39,0.12
2021-08-19 16:52:39.420,-0.39,0.125
2021-08-19 16:52:39.424,-0.345,0.13
2021-08-19 16:52:39.428,-0.32,0.095
2021-08-19 16:52:39.432,-0.28,0.09
2021-08-19 16:52:39.436,-0.295,0.085
2021-08-19 16:52:39.440,-0.32,0.04
2021-08-19 16:52:39.444,-0.24,0.05
2021-08-19 16:52:39.448,-0.285,0.065
2021-08-19 16:52:39.452,-0.355,0.055
2021-08-19 16:52:39.456,-0.385,0.075
2021-08-19 16:52:39.460,-0.405,0.06
2021-08-19 16:52:39.464,-0.46,0.065
2021-08-19 16:52:39.468,-0.445,0.065
2021-08-19 16:52:39.472,-0.41,0.05
2021-08-19 16:52:39.476,-0.415,0.035
2021-08-19 16:52:39.480,-0.43,0.04
2021-08-19 16:52:39.484,-0.455,0.015
2021-08-19 16:52:39.488,-0.535,0.035
2021-08-19 16:52:39.492,-0.54,0.03
2021-08-19 16:52:39.496,-0.48,0.02
2021-08-19 16:52:39.500,-0.45,-0.01
2021-08-19 16:52:39.504,-0.425,-0.02
2021-08-19 16:52:39.508,-0.425,-0.045
2021-08-19 16:52:39.512,-0.445,-0.04
2021-08-19 16:52:39.516,-0.47,-0.045
2021-08-19 16:52:39.520,-0.45,-0.035
2021-08-19 16:52:39.524,-0.395,0.02
2021-08-19 16:52:39.528,-0.31,0.07
2021-08-19 16:52:39.532,-0.28,0.1
2021-08-19 16:52:39.536,-0.27,0.095
2021-08-19 16:52:39.540,-0.295,0.075
2021-08-19 16:52:39.544,-0.265,0.085
2021-08-19 16:52:39.548,-0.27,0.065
2021-08-19 16:52:39.552,-0.29,0.055
2021-08-19 16:52:39.556,-0.28,0.04
2021-08-19 16:52:39.560,-0.205,0.025
2021-08-19 16:52:39.564,-0.115,0.025
2021-08-19 16:52:39.568,-0.07,0.0
2021-08-19 16:52:39.572,-0.115,0.005
2021-08-19 16:52:39.576,-0.215,0.02
2021-08-19 16:52:39.580,-0.275,0.01
2021-08-19 16:52:39.584,-0.185,0.0
2021-08-19 16:52:39.588,-0.065,0.0
2021-08-19 16:52:39.592,0.045,-0.01
2021-08-19 16:52:39.596,0.03,0.0
2021-08-19 16:52:39.600,0.01,0.015
2021-08-19 16:52:39.604,0.035,0.04
2021-08-19 16:52:39.608,0.05,0.065
2021-08-19 16:52:39.612,-0.01,0.055
2021-08-19 16:52:39.616,-0.005,0.055
2021-08-19 16:52:39.620,0.01,0.055
2021-08-19 16:52:39.624,-0.005,0.07
2021-08-19 16:52:39.628,0.0,0.06
2021-08-19 16:52:39.632,0.065,0.075
2021-08-19 16:52:39.636,0.11,0.08
2021-08-19 16:52:39.640,0.16,0.075
2021-08-19 16:52:39.644,0.16,0.055
2021-08-19 16:52:39.648,0.06,0.045
2021-08-19 16:52:39.652,-0.025,0.04
2021-08-19 16:52:39.656,0.025,0.045
2021-08-19 16:52:39.660,0.045,0.055
2021-08-19 16:52:39.664,-0.005,0.14
2021-08-19 16:52:39.668,-0.125,0.19
2021-08-19 16:52:39.672,-0.23,0.13
2021-08-19 16:52:39.676,-0.08,-0.05
2021-08-19 16:52:39.680,0.475,-0.225
2021-08-19 16:52:39.684,1.105,-0.435
2021-08-19 16:52:39.688,1.545,-0.695
2021-08-19 16:52:39.692,1.27,-0.93
2021-08-19 16:52:39.696,0.39,-1.03
2021-08-19 16:52:39.700,-0.52,-0.88
2021-08-19 16:52:39.704,-1.13,-0.59
2021-08-19 16:52:39.708,-1.215,-0.375
2021-08-19 16:52:39.712,-1.03,-0.105
2021-08-19 16:52:39.716,-0.735,0.14
2021-08-19 16:52:39.720,-0.8,0.255
2021-08-19 16:52:39.724,-0.86,0.455
2021-08-19 16:52:39.728,-0.86,0.63
2021-08-19 16:52:39.732,-0.99,0.655
2021-08-19 16:52:39.736,-0.95,0.68
2021-08-19 16:52:39.740,-0.835,0.675
2021-08-19 16:52:39.744,-0.7,0.635
2021-08-19 16:52:39.748,-0.555,0.545
2021-08-19 16:52:39.752,-0.47,0.48
2021-08-19 16:52:39.756,-0.56,0.41
2021-08-19 16:52:39.760,-0.605,0.315
2021-08-19 16:52:39.764,-0.46,0.265
2021-08-19 16:52:39.768,-0.315,0.225
2021-08-19 16:52:39.772,-0.26,0.195
2021-08-19 16:52:39.776,-0.295,0.165
2021-08-19 16:52:39.780,-0.32,0.17
2021-08-19 16:52:39.784,-0.345,0.155
2021-08-19 16:52:39.788,-0.305,0.14
2021-08-19 16:52:39.792,-0.225,0.155
2021-08-19 16:52:39.796,-0.225,0.125
2021-08-19 16:52:39.800,-0.225,0.11
2021-08-19 16:52:39.804,-0.28,0.12
2021-08-19 16:52:39.808,-0.275,0.115
2021-08-19 16:52:39.812,-0.235,0.125
2021-08-19 16:52:39.816,-0.19,0.12
2021-08-19 16:52:39.820,-0.175,0.085
2021-08-19 16:52:39.824,-0.175,0.085
2021-08-19 16:52:39.828,-0.17,0.085
2021-08-19 16:52:39.832,-0.18,0.09
2021-08-19 16:52:39.836,-0.135,0.07
2021-08-19 16:52:39.840,-0.085,0.06
2021-08-19 16:52:39.844,-0.065,0.04
2021-08-19 16:52:39.848,-0.035,0.005
2021-08-19 16:52:39.852,-0.005,0.0
2021-08-19 16:52:39.856,0.0,-0.02
2021-08-19 16:52:39.860,0.065,-0.025
2021-08-19 16:52:39.864,0.17,-0.055
2021-08-19 16:52:39.868,0.215,-0.075
2021-08-19 16:52:39.872,0.11,-0.095
2021-08-19 16:52:39.876,0.015,-0.095
2021-08-19 16:52:39.880,0.03,-0.095
2021-08-19 16:52:39.884,0.145,-0.135
2021-08-19 16:52:39.888,0.18,-0.15
2021-08-19 16:52:39.892,0.04,-0.145
2021-08-19 16:52:39.896,0.075,-0.125
2021-08-19 16:52:39.900,0.185,-0.16
2021-08-19 16:52:39.904,0.155,-0.155
2021-08-19 16:52:39.908,0.13,-0.125
2021-08-19 16:52:39.912,0.175,-0.145
2021-08-19 16:52:39.916,0.265,-0.135
2021-08-19 16:52:39.920,0.36,-0.145
2021-08-19 16:52:39.924,0.53,-0.145
2021-08-19 16:52:39.928,0.675,-0.165
2021-08-19 16:52:39.932,0.59,-0.205
2021-08-19 16:52:39.936,0.485,-0.195
2021-08-19 16:52:39.940,0.395,-0.16
2021-08-19 16:52:39.944,0.365,-0.145
2021-08-19 16:52:39.948,0.415,-0.135
2021-08-19 16:52:39.952,0.405,-0.16
2021-08-19 16:52:39.956,0.35,-0.14
2021-08-19 16:52:39.960,0.27,-0.11
2021-08-19 16:52:39.964,0.2,-0.095
2021-08-19 16:52:39.968,0.175,-0.05
2021-08-19 16:52:39.972,0.17,-0.01
2021-08-19 16:52:39.976,0.14,0.02
2021-08-19 16:52:39.980,0.085,0.05
2021-08-19 16:52:39.984,0.03,0.055
2021-08-19 16:52:39.988,0.035,0.075
2021-08-19 16:52:39.992,0.005,0.09
2021-08-19 16:52:39.996,0.04,0.115
2021-08-19 16:52:40.000,0.13,0.15
2021-08-19 16:52:40.004,0.135,0.195
2021-08-19 16:52:40.008,0.21,0.175
2021-08-19 16:52:40.012,0.475,0.065
2021-08-19 16:52:40.016,0.995,-0.09
2021-08-19 16:52:40.020,1.49,-0.165
2021-08-19 16:52:40.024,1.925,-0.31
2021-08-19 16:52:40.032,1.495,-0.865
2021-08-19 16:52:40.036,0.475,-0.835
2021-08-19 16:52:40.040,-0.575,-0.49
2021-08-19 16:52:40.044,-1.115,-0.225
2021-08-19 16:52:40.048,-1.24,-0.07
2021-08-19 16:52:40.052,-1.18,0.155
2021-08-19 16:52:40.056,-1.255,0.275
2021-08-19 16:52:40.060,-1.255,0.37
2021-08-19 16:52:40.064,-1.19,0.495
2021-08-19 16:52:40.068,-1.115,0.54
2021-08-19 16:52:40.072,-1.08,0.545
2021-08-19 16:52:40.076,-1.025,0.525
2021-08-19 16:52:40.080,-0.975,0.53
2021-08-19 16:52:40.084,-0.88,0.52
2021-08-19 16:52:40.088,-0.78,0.41
2021-08-19 16:52:40.092,-0.69,0.32
2021-08-19 16:52:40.096,-0.525,0.245
2021-08-19 16:52:40.100,-0.41,0.17
2021-08-19 16:52:40.104,-0.315,0.105
2021-08-19 16:52:40.108,-0.3,0.065
2021-08-19 16:52:40.112,-0.33,0.05
2021-08-19 16:52:40.116,-0.355,0.045
2021-08-19 16:52:40.120,-0.34,0.015
2021-08-19 16:52:40.124,-0.34,0.01
2021-08-19 16:52:40.128,-0.4,0.0
2021-08-19 16:52:40.132,-0.39,0.01
2021-08-19 16:52:40.136,-0.35,0.025
2021-08-19 16:52:40.140,-0.355,0.005
2021-08-19 16:52:40.144,-0.375,0.015
2021-08-19 16:52:40.148,-0.4,0.01
2021-08-19 16:52:40.152,-0.42,0.0
2021-08-19 16:52:40.156,-0.38,0.01
2021-08-19 16:52:40.160,-0.315,0.02
2021-08-19 16:52:40.164,-0.34,0.01
2021-08-19 16:52:40.168,-0.36,0.005
2021-08-19 16:52:40.172,-0.335,0.02
2021-08-19 16:52:40.176,-0.385,0.03
2021-08-19 16:52:40.180,-0.36,0.035
2021-08-19 16:52:40.184,-0.275,0.02
2021-08-19 16:52:40.188,-0.34,0.005
2021-08-19 16:52:40.192,-0.44,0.01
2021-08-19 16:52:40.196,-0.49,0.025
2021-08-19 16:52:40.200,-0.47,0.035
2021-08-19 16:52:40.204,-0.495,0.075
2021-08-19 16:52:40.208,-0.395,0.1
2021-08-19 16:52:40.212,-0.255,0.115
2021-08-19 16:52:40.216,-0.195,0.095
2021-08-19 16:52:40.220,-0.16,0.1
2021-08-19 16:52:40.224,-0.21,0.1
2021-08-19 16:52:40.228,-0.245,0.1
2021-08-19 16:52:40.232,-0.205,0.11
2021-08-19 16:52:40.236,-0.145,0.095
2021-08-19 16:52:40.240,0.02,0.055
2021-08-19 16:52:40.244,0.075,0.035
2021-08-19 16:52:40.248,0.025,-0.005
2021-08-19 16:52:40.252,0.035,-0.025
2021-08-19 16:52:40.256,0.04,-0.04
2021-08-19 16:52:40.260,0.025,-0.06
2021-08-19 16:52:40.264,0.055,-0.12
2021-08-19 16:52:40.268,0.07,-0.12
2021-08-19 16:52:40.272,0.025,-0.13
2021-08-19 16:52:40.276,0.0,-0.12
2021-08-19 16:52:40.280,-0.005,-0.1
2021-08-19 16:52:40.284,-0.03,-0.13
2021-08-19 16:52:40.288,-0.06,-0.13
2021-08-19 16:52:40.292,-0.045,-0.115
2021-08-19 16:52:40.296,-0.06,-0.075
2021-08-19 16:52:40.300,-0.04,-0.06
2021-08-19 16:52:40.304,-0.01,-0.035
2021-08-19 16:52:40.308,0.03,-0.03
2021-08-19 16:52:40.312,-0.04,-0.03
2021-08-19 16:52:40.316,-0.135,0.005
2021-08-19 16:52:40.320,-0.22,0.02
2021-08-19 16:52:40.324,-0.24,0.015
2021-08-19 16:52:40.328,-0.25,0.025
2021-08-19 16:52:40.332,-0.285,0.04
2021-08-19 16:52:40.336,-0.34,0.055
2021-08-19 16:52:40.340,-0.3,0.05
2021-08-19 16:52:40.344,-0.24,0.045
2021-08-19 16:52:40.348,-0.23,0.035
2021-08-19 16:52:40.352,-0.3,0.015
2021-08-19 16:52:40.356,-0.325,0.0
2021-08-19 16:52:40.360,-0.3,-0.005
2021-08-19 16:52:40.364,-0.27,0.01
2021-08-19 16:52:40.368,-0.28,0.035
2021-08-19 16:52:40.372,-0.305,0.025
2021-08-19 16:52:40.376,-0.33,0.025
2021-08-19 16:52:40.380,-0.325,0.01
2021-08-19 16:52:40.384,-0.32,0.02
2021-08-19 16:52:40.388,-0.335,0.01
2021-08-19 16:52:40.392,-0.36,0.065
2021-08-19 16:52:40.396,-0.35,0.135
2021-08-19 16:52:40.400,-0.275,0.15
2021-08-19 16:52:40.404,-0.285,0.11
2021-08-19 16:52:40.408,-0.175,-0.055
2021-08-19 16:52:40.412,0.255,-0.165
2021-08-19 16:52:40.416,0.865,-0.27
2021-08-19 16:52:40.420,1.4,-0.515
2021-08-19 16:52:40.424,1.24,-0.8
2021-08-19 16:52:40.428,0.335,-0.955
2021-08-19 16:52:40.432,-0.535,-0.805
2021-08-19 16:52:40.436,-1.11,-0.5
2021-08-19 16:52:40.440,-1.065,-0.455
2021-08-19 16:52:40.444,-0.845,-0.36
2021-08-19 16:52:40.448,-0.475,-0.18
2021-08-19 16:52:40.452,-0.365,-0.105
2021-08-19 16:52:40.456,-0.38,-0.055
2021-08-19 16:52:40.460,-0.435,-0.015
2021-08-19 16:52:40.464,-0.44,0.02
2021-08-19 16:52:40.468,-0.415,0.035
2021-08-19 16:52:40.472,-0.475,0.055
2021-08-19 16:52:40.476,-0.435,0.04
2021-08-19 16:52:40.480,-0.375,0.025
2021-08-19 16:52:40.484,-0.32,0.045
2021-08-19 16:52:40.488,-0.365,0.06
2021-08-19 16:52:40.492,-0.5,0.105
2021-08-19 16:52:40.496,-0.55,0.1
2021-08-19 16:52:40.500,-0.45,0.105
2021-08-19 16:52:40.504,-0.41,0.085
2021-08-19 16:52:40.508,-0.395,0.075
2021-08-19 16:52:40.512,-0.395,0.085
2021-08-19 16:52:40.516,-0.43,0.08
2021-08-19 16:52:40.520,-0.455,0.06
2021-08-19 16:52:40.524,-0.45,0.08
2021-08-19 16:52:40.528,-0.48,0.08
2021-08-19 16:52:40.532,-0.43,0.08
2021-08-19 16:52:40.536,-0.43,0.08
2021-08-19 16:52:40.540,-0.445,0.07
2021-08-19 16:52:40.544,-0.46,0.08
2021-08-19 16:52:40.548,-0.435,0.085
2021-08-19 16:52:40.552,-0.435,0.075
2021-08-19 16:52:40.556,-0.415,0.07
2021-08-19 16:52:40.560,-0.345,0.07
2021-08-19 16:52:40.564,-0.34,0.065
2021-08-19 16:52:40.568,-0.495,0.06
2021-08-19 16:52:40.572,-0.525,0.075
2021-08-19 16:52:40.576,-0.525,0.075
2021-08-19 16:52:40.580,-0.51,0.06
2021-08-19 16:52:40.584,-0.52,0.07
2021-08-19 16:52:40.588,-0.5,0.055
2021-08-19 16:52:40.592,-0.49,0.065
2021-08-19 16:52:40.596,-0.425,0.035
2021-08-19 16:52:40.600,-0.39,0.05
2021-08-19 16:52:40.604,-0.375,0.02
2021-08-19 16:52:40.608,-0.42,0.01
2021-08-19 16:52:40.612,-0.46,0.015
2021-08-19 16:52:40.616,-0.54,0.025
2021-08-19 16:52:40.620,-0.59,0.03
2021-08-19 16:52:40.624,-0.65,0.035
2021-08-19 16:52:40.628,-0.685,0.025
2021-08-19 16:52:40.632,-0.68,0.04
2021-08-19 16:52:40.636,-0.615,0.05
2021-08-19 16:52:40.640,-0.555,0.05
2021-08-19 16:52:40.644,-0.53,0.02
2021-08-19 16:52:40.648,-0.495,0.015
2021-08-19 16:52:40.652,-0.46,0.005
2021-08-19 16:52:40.656,-0.41,0.0
2021-08-19 16:52:40.660,-0.415,-0.04
2021-08-19 16:52:40.664,-0.43,-0.065
2021-08-19 16:52:40.668,-0.36,-0.04
2021-08-19 16:52:40.672,-0.265,0.0
2021-08-19 16:52:40.676,-0.215,-0.015
2021-08-19 16:52:40.680,-0.18,0.0
2021-08-19 16:52:40.684,-0.13,-0.005
2021-08-19 16:52:40.688,-0.16,0.0
2021-08-19 16:52:40.692,-0.15,-0.02
2021-08-19 16:52:40.696,-0.11,-0.025
2021-08-19 16:52:40.700,-0.155,-0.02
2021-08-19 16:52:40.704,-0.155,-0.005
2021-08-19 16:52:40.708,-0.09,0.015
2021-08-19 16:52:40.712,-0.14,0.02
2021-08-19 16:52:40.716,-0.155,0.005
2021-08-19 16:52:40.720,-0.05,0.0
2021-08-19 16:52:40.724,-0.08,0.025
2021-08-19 16:52:40.728,-0.205,0.015
2021-08-19 16:52:40.732,-0.225,0.0
2021-08-19 16:52:40.736,-0.21,0.03
2021-08-19 16:52:40.740,-0.195,0.03
2021-08-19 16:52:40.744,-0.15,0.015
2021-08-19 16:52:40.748,-0.17,0.01
2021-08-19 16:52:40.752,-0.24,0.0
2021-08-19 16:52:40.756,-0.295,0.01
2021-08-19 16:52:40.760,-0.3,0.01
2021-08-19 16:52:40.764,-0.315,0.005
2021-08-19 16:52:40.768,-0.245,0.0
2021-08-19 16:52:40.772,-0.26,-0.015
2021-08-19 16:52:40.776,-0.31,0.0
2021-08-19 16:52:40.780,-0.365,0.005
2021-08-19 16:52:40.784,-0.315,0.005
2021-08-19 16:52:40.788,-0.32,-0.005
2021-08-19 16:52:40.792,-0.29,-0.05
2021-08-19 16:52:40.796,-0.27,-0.055
2021-08-19 16:52:40.800,-0.31,-0.06
2021-08-19 16:52:40.804,-0.27,-0.05
2021-08-19 16:52:40.808,-0.275,-0.04
2021-08-19 16:52:40.812,-0.26,-0.045
2021-08-19 16:52:40.816,-0.205,-0.05
2021-08-19 16:52:40.820,-0.215,-0.07
2021-08-19 16:52:40.824,-0.32,-0.06
2021-08-19 16:52:40.828,-0.305,-0.045
2021-08-19 16:52:40.832,-0.18,-0.06
2021-08-19 16:52:40.836,-0.23,-0.07
2021-08-19 16:52:40.840,-0.395,-0.035
2021-08-19 16:52:40.844,-0.525,-0.02
2021-08-19 16:52:40.848,-0.525,-0.025
2021-08-19 16:52:40.852,-0.445,-0.015
2021-08-19 16:52:40.856,-0.355,0.0
2021-08-19 16:52:40.860,-0.32,-0.025
2021-08-19 16:52:40.864,-0.325,-0.01
2021-08-19 16:52:40.868,-0.38,0.0
2021-08-19 16:52:40.872,-0.455,-0.015
2021-08-19 16:52:40.876,-0.41,-0.025
2021-08-19 16:52:40.880,-0.405,-0.01
2021-08-19 16:52:40.884,-0.425,0.005
2021-08-19 16:52:40.888,-0.36,0.01
2021-08-19 16:52:40.892,-0.3,0.02
2021-08-19 16:52:40.896,-0.275,0.0
2021-08-19 16:52:40.900,-0.255,0.01
2021-08-19 16:52:40.904,-0.275,0.03
2021-08-19 16:52:40.908,-0.35,0.01
2021-08-19 16:52:40.912,-0.34,0.02
2021-08-19 16:52:40.916,-0.315,0.005
2021-08-19 16:52:40.920,-0.25,-0.015
2021-08-19 16:52:40.924,-0.215,-0.04
2021-08-19 16:52:40.928,-0.285,-0.025
2021-08-19 16:52:40.932,-0.345,-0.03
2021-08-19 16:52:40.936,-0.375,-0.025
2021-08-19 16:52:40.940,-0.335,0.0
2021-08-19 16:52:40.944,-0.355,-0.02
2021-08-19 16:52:40.948,-0.345,-0.04
2021-08-19 16:52:40.952,-0.355,-0.04
2021-08-19 16:52:40.956,-0.32,-0.04
2021-08-19 16:52:40.960,-0.34,-0.05
2021-08-19 16:52:40.964,-0.305,-0.06
2021-08-19 16:52:40.968,-0.34,-0.04
2021-08-19 16:52:40.972,-0.36,-0.035
2021-08-19 16:52:40.976,-0.355,-0.06
2021-08-19 16:52:40.980,-0.36,-0.05
2021-08-19 16:52:40.984,-0.415,-0.06
2021-08-19 16:52:40.988,-0.39,-0.085
2021-08-19 16:52:40.992,-0.41,-0.08
2021-08-19 16:52:40.996,-0.445,-0.08
2021-08-19 16:52:41.000,-0.46,-0.075
2021-08-19 16:52:41.004,-0.455,-0.075
2021-08-19 16:52:41.008,-0.46,-0.085
2021-08-19 16:52:41.012,-0.43,-0.09
2021-08-19 16:52:41.016,-0.44,-0.095
2021-08-19 16:52:41.020,-0.45,-0.1
2021-08-19 16:52:41.024,-0.46,-0.1
2021-08-19 16:52:41.028,-0.46,-0.09
2021-08-19 16:52:41.032,-0.46,-0.11
2021-08-19 16:52:41.036,-0.445,-0.095
2021-08-19 16:52:41.040,-0.425,-0.085
2021-08-19 16:52:41.044,-0.425,-0.095
2021-08-19 16:52:41.048,-0.44,-0.085
2021-08-19 16:52:41.052,-0.43,-0.085
2021-08-19 16:52:41.056,-0.45,-0.09
2021-08-19 16:52:41.060,-0.455,-0.1
2021-08-19 16:52:41.064,-0.44,-0.1
2021-08-19 16:52:41.068,-0.455,-0.105
2021-08-19 16:52:41.072,-0.47,-0.1
2021-08-19 16:52:41.076,-0.46,-0.07
2021-08-19 16:52:41.080,-0.475,-0.07
2021-08-19 16:52:41.084,-0.455,-0.065
2021-08-19 16:52:41.088,-0.425,-0.04
2021-08-19 16:52:41.092,-0.45,-0.045
2021-08-19 16:52:41.096,-0.465,-0.055
2021-08-19 16:52:41.100,-0.435,-0.045
2021-08-19 16:52:41.104,-0.465,-0.05
2021-08-19 16:52:41.108,-0.47,-0.05
2021-08-19 16:52:41.112,-0.475,-0.01
2021-08-19 16:52:41.116,-0.46,-0.01
2021-08-19 16:52:41.120,-0.4,0.01
2021-08-19 16:52:41.124,-0.31,0.025
2021-08-19 16:52:41.128,-0.3,0.06
2021-08-19 16:52:41.132,-0.33,0.12
2021-08-19 16:52:41.136,-0.415,0.19
2021-08-19 16:52:41.140,-0.39,0.22
2021-08-19 16:52:41.144,-0.14,0.09
2021-08-19 16:52:41.148,0.37,-0.075
2021-08-19 16:52:41.152,0.955,-0.205
2021-08-19 16:52:41.156,1.515,-0.41
2021-08-19 16:52:41.160,1.805,-0.735
2021-08-19 16:52:41.164,1.33,-1.015
2021-08-19 16:52:41.168,0.51,-0.985
2021-08-19 16:52:41.172,-0.24,-0.64
2021-08-19 16:52:41.176,-0.64,-0.41
2021-08-19 16:52:41.180,-0.675,-0.38
2021-08-19 16:52:41.184,-0.585,-0.295
2021-08-19 16:52:41.188,-0.575,-0.28
2021-08-19 16:52:41.192,-0.56,-0.225
2021-08-19 16:52:41.196,-0.525,-0.14
2021-08-19 16:52:41.200,-0.51,-0.115
2021-08-19 16:52:41.204,-0.51,-0.11
2021-08-19 16:52:41.208,-0.495,-0.07
2021-08-19 16:52:41.212,-0.495,-0.085
2021-08-19 16:52:41.216,-0.52,-0.08
2021-08-19 16:52:41.220,-0.52,-0.075
2021-08-19 16:52:41.224,-0.51,-0.04
2021-08-19 16:52:41.228,-0.52,-0.055
2021-08-19 16:52:41.232,-0.46,-0.055
2021-08-19 16:52:41.236,-0.425,-0.04
2021-08-19 16:52:41.240,-0.46,-0.055
2021-08-19 16:52:41.244,-0.44,-0.045
2021-08-19 16:52:41.248,-0.48,-0.06
2021-08-19 16:52:41.252,-0.57,-0.04
2021-08-19 16:52:41.256,-0.61,-0.025
2021-08-19 16:52:41.260,-0.56,-0.015
2021-08-19 16:52:41.264,-0.55,-0.03
2021-08-19 16:52:41.268,-0.55,-0.03
2021-08-19 16:52:41.272,-0.535,-0.02
2021-08-19 16:52:41.276,-0.57,-0.035
2021-08-19 16:52:41.280,-0.565,-0.035
2021-08-19 16:52:41.284,-0.56,-0.02
2021-08-19 16:52:41.288,-0.56,-0.045
2021-08-19 16:52:41.292,-0.54,-0.035
2021-08-19 16:52:41.296,-0.53,-0.02
2021-08-19 16:52:41.300,-0.575,-0.01
2021-08-19 16:52:41.304,-0.56,0.0
2021-08-19 16:52:41.308,-0.535,0.03
2021-08-19 16:52:41.312,-0.555,0.015
2021-08-19 16:52:41.316,-0.55,0.0
2021-08-19 16:52:41.320,-0.475,0.005
2021-08-19 16:52:41.324,-0.475,-0.015
2021-08-19 16:52:41.328,-0.465,-0.005
2021-08-19 16:52:41.332,-0.445,0.035
2021-08-19 16:52:41.336,-0.395,0.06
2021-08-19 16:52:41.340,-0.375,0.07
2021-08-19 16:52:41.344,-0.345,0.09
2021-08-19 16:52:41.348,-0.355,0.09
2021-08-19 16:52:41.352,-0.29,0.085
2021-08-19 16:52:41.356,-0.24,0.095
2021-08-19 16:52:41.360,-0.275,0.1
2021-08-19 16:52:41.364,-0.34,0.095
2021-08-19 16:52:41.368,-0.34,0.085
2021-08-19 16:52:41.372,-0.3,0.085
2021-08-19 16:52:41.376,-0.255,0.07
2021-08-19 16:52:41.380,-0.22,0.015
2021-08-19 16:52:41.384,-0.23,-0.005
2021-08-19 16:52:41.388,-0.23,-0.02
2021-08-19 16:52:41.392,-0.22,-0.03
2021-08-19 16:52:41.396,-0.23,-0.065
2021-08-19 16:52:41.400,-0.23,-0.08
2021-08-19 16:52:41.404,-0.21,-0.11
2021-08-19 16:52:41.408,-0.17,-0.135
2021-08-19 16:52:41.412,-0.19,-0.14
2021-08-19 16:52:41.416,-0.19,-0.195
2021-08-19 16:52:41.420,-0.145,-0.2
2021-08-19 16:52:41.424,-0.17,-0.21
2021-08-19 16:52:41.428,-0.095,-0.24
2021-08-19 16:52:41.432,0.0,-0.24
2021-08-19 16:52:41.436,0.03,-0.225
2021-08-19 16:52:41.440,0.025,-0.205
2021-08-19 16:52:41.444,-0.005,-0.21
2021-08-19 16:52:41.448,-0.06,-0.18
2021-08-19 16:52:41.452,-0.065,-0.16
2021-08-19 16:52:41.456,-0.025,-0.16
2021-08-19 16:52:41.460,-0.045,-0.135
2021-08-19 16:52:41.464,-0.05,-0.135
2021-08-19 16:52:41.468,-0.045,-0.115
2021-08-19 16:52:41.472,-0.07,-0.11
2021-08-19 16:52:41.476,-0.11,-0.1
2021-08-19 16:52:41.480,-0.13,-0.105
2021-08-19 16:52:41.484,-0.135,-0.105
2021-08-19 16:52:41.488,-0.15,-0.095
2021-08-19 16:52:41.492,-0.135,-0.09
2021-08-19 16:52:41.496,-0.165,-0.085
2021-08-19 16:52:41.500,-0.18,-0.07
2021-08-19 16:52:41.504,-0.16,-0.055
2021-08-19 16:52:41.508,-0.165,-0.075
2021-08-19 16:52:41.512,-0.19,-0.065
2021-08-19 16:52:41.516,-0.205,-0.035
2021-08-19 16:52:41.520,-0.215,-0.06
2021-08-19 16:52:41.524,-0.195,-0.05
2021-08-19 16:52:41.528,-0.15,-0.02
2021-08-19 16:52:41.532,-0.12,0.01
2021-08-19 16:52:41.536,-0.165,-0.01
2021-08-19 16:52:41.540,-0.13,-0.01
2021-08-19 16:52:41.544,-0.105,-0.03
2021-08-19 16:52:41.548,-0.1,0.0
2021-08-19 16:52:41.552,-0.06,0.035
2021-08-19 16:52:41.556,-0.01,0.065
2021-08-19 16:52:41.560,0.015,0.065
2021-08-19 16:52:41.564,0.035,0.07
2021-08-19 16:52:41.568,0.04,0.1
2021-08-19 16:52:41.572,0.04,0.105
2021-08-19 16:52:41.576,0.06,0.09
2021-08-19 16:52:41.580,0.075,0.115
2021-08-19 16:52:41.584,0.065,0.125
2021-08-19 16:52:41.588,0.045,0.105
2021-08-19 16:52:41.592,0.06,0.085
2021-08-19 16:52:41.596,0.04,0.09
2021-08-19 16:52:41.600,0.065,0.05
2021-08-19 16:52:41.604,0.045,0.035
2021-08-19 16:52:41.608,0.01,0.02
2021-08-19 16:52:41.612,0.005,0.015
2021-08-19 16:52:41.616,-0.025,0.035
2021-08-19 16:52:41.620,-0.13,0.11
2021-08-19 16:52:41.624,-0.235,0.18
2021-08-19 16:52:41.628,-0.24,0.17
2021-08-19 16:52:41.632,-0.065,0.01
2021-08-19 16:52:41.636,0.445,-0.17
2021-08-19 16:52:41.640,1.075,-0.32
2021-08-19 16:52:41.644,1.605,-0.61
2021-08-19 16:52:41.648,1.58,-0.97
2021-08-19 16:52:41.652,0.73,-1.195
2021-08-19 16:52:41.656,-0.175,-1.04
2021-08-19 16:52:41.660,-0.945,-0.69
2021-08-19 16:52:41.664,-1.065,-0.53
2021-08-19 16:52:41.668,-0.88,-0.4
2021-08-19 16:52:41.672,-0.61,-0.305
2021-08-19 16:52:41.676,-0.41,-0.245
2021-08-19 16:52:41.680,-0.385,-0.185
2021-08-19 16:52:41.684,-0.39,-0.125
2021-08-19 16:52:41.688,-0.38,-0.095
2021-08-19 16:52:41.692,-0.37,-0.075
2021-08-19 16:52:41.696,-0.375,-0.075
2021-08-19 16:52:41.700,-0.38,-0.04
2021-08-19 16:52:41.704,-0.43,-0.04
2021-08-19 16:52:41.708,-0.43,-0.03
2021-08-19 16:52:41.712,-0.41,-0.03
2021-08-19 16:52:41.716,-0.42,-0.025
2021-08-19 16:52:41.720,-0.44,-0.02
2021-08-19 16:52:41.724,-0.46,-0.025
2021-08-19 16:52:41.728,-0.465,-0.035
2021-08-19 16:52:41.732,-0.45,-0.01
2021-08-19 16:52:41.736,-0.455,-0.01
2021-08-19 16:52:41.740,-0.475,-0.02
2021-08-19 16:52:41.744,-0.485,0.0
2021-08-19 16:52:41.748,-0.44,0.045
2021-08-19 16:52:41.752,-0.41,0.03
2021-08-19 16:52:41.756,-0.38,0.02
2021-08-19 16:52:41.760,-0.33,0.025
2021-08-19 16:52:41.764,-0.34,0.02
2021-08-19 16:52:41.768,-0.355,0.04
2021-08-19 16:52:41.772,-0.315,0.07
2021-08-19 16:52:41.776,-0.28,0.085
2021-08-19 16:52:41.780,-0.265,0.1
2021-08-19 16:52:41.784,-0.275,0.105
2021-08-19 16:52:41.788,-0.28,0.125
2021-08-19 16:52:41.792,-0.22,0.135
2021-08-19 16:52:41.796,-0.2,0.12
2021-08-19 16:52:41.800,-0.195,0.145
2021-08-19 16:52:41.804,-0.205,0.135
2021-08-19 16:52:41.808,-0.16,0.14
2021-08-19 16:52:41.812,-0.16,0.15
2021-08-19 16:52:41.816,-0.175,0.14
2021-08-19 16:52:41.820,-0.08,0.145
2021-08-19 16:52:41.824,0.04,0.135
2021-08-19 16:52:41.828,0.025,0.095
2021-08-19 16:52:41.832,-0.025,0.085
2021-08-19 16:52:41.836,-0.065,0.1
2021-08-19 16:52:41.840,-0.1,0.085
2021-08-19 16:52:41.844,-0.085,0.055
2021-08-19 16:52:41.848,-0.075,0.035
2021-08-19 16:52:41.852,-0.105,0.045
2021-08-19 16:52:41.856,-0.085,0.03
2021-08-19 16:52:41.860,-0.08,0.005
2021-08-19 16:52:41.864,-0.085,0.0
2021-08-19 16:52:41.868,-0.09,-0.03
2021-08-19 16:52:41.872,-0.09,-0.04
2021-08-19 16:52:41.876,-0.12,-0.055
2021-08-19 16:52:41.880,-0.04,-0.055
2021-08-19 16:52:41.884,0.025,-0.065
2021-08-19 16:52:41.888,0.04,-0.095
2021-08-19 16:52:41.892,0.025,-0.1
2021-08-19 16:52:41.896,0.05,-0.115
2021-08-19 16:52:41.900,-0.005,-0.1
2021-08-19 16:52:41.904,-0.085,-0.1
2021-08-19 16:52:41.908,-0.07,-0.09
2021-08-19 16:52:41.912,-0.11,-0.1
2021-08-19 16:52:41.916,-0.16,-0.1
2021-08-19 16:52:41.920,-0.19,-0.105
2021-08-19 16:52:41.924,-0.205,-0.1
2021-08-19 16:52:41.928,-0.25,-0.085
2021-08-19 16:52:41.932,-0.245,-0.08
2021-08-19 16:52:41.936,-0.285,-0.085
2021-08-19 16:52:41.940,-0.32,-0.07
2021-08-19 16:52:41.944,-0.32,-0.065
2021-08-19 16:52:41.948,-0.345,-0.085
2021-08-19 16:52:41.952,-0.365,-0.055
2021-08-19 16:52:41.956,-0.365,-0.05
2021-08-19 16:52:41.960,-0.43,-0.04
2021-08-19 16:52:41.964,-0.465,-0.035
2021-08-19 16:52:41.968,-0.435,-0.01
2021-08-19 16:52:41.972,-0.435,0.0
2021-08-19 16:52:41.976,-0.43,0.0
2021-08-19 16:52:41.980,-0.4,0.015
2021-08-19 16:52:41.984,-0.39,-0.005
2021-08-19 16:52:41.988,-0.375,-0.005
2021-08-19 16:52:41.992,-0.365,-0.005
2021-08-19 16:52:41.996,-0.34,0.01
2021-08-19 16:52:42.000,-0.315,0.04
2021-08-19 16:52:42.004,-0.265,0.07
2021-08-19 16:52:42.008,-0.25,0.1
2021-08-19 16:52:42.012,-0.24,0.105
2021-08-19 16:52:42.016,-0.2,0.095
2021-08-19 16:52:42.020,-0.235,0.105
2021-08-19 16:52:42.024,-0.23,0.06
2021-08-19 16:52:42.028,-0.17,0.05
2021-08-19 16:52:42.032,-0.155,0.09
2021-08-19 16:52:42.036,-0.16,0.07
2021-08-19 16:52:42.040,-0.165,0.055
2021-08-19 16:52:42.044,-0.155,0.03
2021-08-19 16:52:42.048,-0.17,0.02
2021-08-19 16:52:42.052,-0.145,0.025
2021-08-19 16:52:42.056,-0.13,0.02
2021-08-19 16:52:42.060,-0.185,0.005
2021-08-19 16:52:42.064,-0.2,0.005
2021-08-19 16:52:42.068,-0.225,0.015
2021-08-19 16:52:42.072,-0.26,0.0
2021-08-19 16:52:42.076,-0.29,-0.01
2021-08-19 16:52:42.080,-0.27,0.0
2021-08-19 16:52:42.084,-0.26,-0.03
2021-08-19 16:52:42.088,-0.28,-0.03
2021-08-19 16:52:42.092,-0.26,-0.035
2021-08-19 16:52:42.096,-0.31,-0.05
2021-08-19 16:52:42.100,-0.305,-0.04
2021-08-19 16:52:42.104,-0.305,-0.08
2021-08-19 16:52:42.108,-0.33,-0.05
2021-08-19 16:52:42.112,-0.33,-0.075
2021-08-19 16:52:42.116,-0.315,-0.05
2021-08-19 16:52:42.120,-0.355,-0.06
2021-08-19 16:52:42.124,-0.375,-0.06
2021-08-19 16:52:42.128,-0.34,-0.065
2021-08-19 16:52:42.132,-0.37,-0.055
2021-08-19 16:52:42.136,-0.395,-0.07
2021-08-19 16:52:42.140,-0.355,-0.075
2021-08-19 16:52:42.144,-0.355,-0.09
2021-08-19 16:52:42.148,-0.36,-0.09
2021-08-19 16:52:42.152,-0.4,-0.075
2021-08-19 16:52:42.156,-0.425,-0.06
2021-08-19 16:52:42.160,-0.42,-0.06
2021-08-19 16:52:42.164,-0.405,-0.05
2021-08-19 16:52:42.168,-0.425,-0.065
2021-08-19 16:52:42.172,-0.48,-0.055
2021-08-19 16:52:42.176,-0.465,-0.06
2021-08-19 16:52:42.180,-0.475,-0.045
2021-08-19 16:52:42.184,-0.51,-0.05
2021-08-19 16:52:42.188,-0.46,-0.025
2021-08-19 16:52:42.192,-0.45,-0.015
2021-08-19 16:52:42.196,-0.45,0.0
2021-08-19 16:52:42.200,-0.415,0.0
2021-08-19 16:52:42.204,-0.44,0.005
2021-08-19 16:52:42.208,-0.455,0.015
2021-08-19 16:52:42.212,-0.5,0.02
2021-08-19 16:52:42.216,-0.435,0.03
2021-08-19 16:52:42.220,-0.37,0.045
2021-08-19 16:52:42.224,-0.285,0.05
2021-08-19 16:52:42.228,-0.235,0.085
2021-08-19 16:52:42.232,-0.235,0.035
2021-08-19 16:52:42.236,-0.225,0.03
2021-08-19 16:52:42.240,-0.2,0.02
2021-08-19 16:52:42.244,-0.245,0.01
2021-08-19 16:52:42.248,-0.255,0.0
2021-08-19 16:52:42.252,-0.21,0.0
2021-08-19 16:52:42.256,-0.285,0.0
2021-08-19 16:52:42.260,-0.3,-0.005
2021-08-19 16:52:42.264,-0.29,0.0
2021-08-19 16:52:42.268,-0.265,0.0
2021-08-19 16:52:42.272,-0.295,0.0
2021-08-19 16:52:42.276,-0.29,-0.03
2021-08-19 16:52:42.280,-0.325,-0.035
2021-08-19 16:52:42.284,-0.355,-0.015
2021-08-19 16:52:42.288,-0.4,0.005
2021-08-19 16:52:42.292,-0.4,0.065
2021-08-19 16:52:42.296,-0.415,0.09
2021-08-19 16:52:42.300,-0.31,0.05
2021-08-19 16:52:42.304,-0.04,-0.13
2021-08-19 16:52:42.308,0.39,-0.31
2021-08-19 16:52:42.312,0.95,-0.425
2021-08-19 16:52:42.316,1.475,-0.655
2021-08-19 16:52:42.320,1.615,-0.925
2021-08-19 16:52:42.324,0.955,-1.155
2021-08-19 16:52:42.328,0.18,-1.025
2021-08-19 16:52:42.332,-0.595,-0.625
2021-08-19 16:52:42.336,-0.885,-0.45
2021-08-19 16:52:42.340,-0.83,-0.36
2021-08-19 16:52:42.344,-0.72,-0.26
2021-08-19 16:52:42.348,-0.645,-0.28
2021-08-19 16:52:42.352,-0.525,-0.245
2021-08-19 16:52:42.356,-0.46,-0.21
2021-08-19 16:52:42.360,-0.45,-0.18
2021-08-19 16:52:42.364,-0.48,-0.14
2021-08-19 16:52:42.368,-0.48,-0.12
2021-08-19 16:52:42.372,-0.48,-0.12
2021-08-19 16:52:42.376,-0.515,-0.105
2021-08-19 16:52:42.380,-0.585,-0.09
2021-08-19 16:52:42.384,-0.58,-0.075
2021-08-19 16:52:42.388,-0.545,-0.085
2021-08-19 16:52:42.392,-0.515,-0.09
2021-08-19 16:52:42.396,-0.535,-0.09
2021-08-19 16:52:42.400,-0.6,-0.085
2021-08-19 16:52:42.404,-0.665,-0.075
2021-08-19 16:52:42.408,-0.6,-0.06
2021-08-19 16:52:42.412,-0.585,-0.065
2021-08-19 16:52:42.416,-0.585,-0.05
2021-08-19 16:52:42.420,-0.565,-0.065
2021-08-19 16:52:42.424,-0.54,-0.055
2021-08-19 16:52:42.428,-0.545,-0.06
2021-08-19 16:52:42.432,-0.505,-0.04
2021-08-19 16:52:42.436,-0.48,-0.05
2021-08-19 16:52:42.440,-0.51,-0.02
2021-08-19 16:52:42.444,-0.49,0.01
2021-08-19 16:52:42.448,-0.45,0.03
2021-08-19 16:52:42.452,-0.44,0.045
2021-08-19 16:52:42.456,-0.405,0.035
2021-08-19 16:52:42.460,-0.39,0.055
2021-08-19 16:52:42.464,-0.37,0.05
2021-08-19 16:52:42.468,-0.375,0.03
2021-08-19 16:52:42.472,-0.32,0.03
2021-08-19 16:52:42.476,-0.28,0.035
2021-08-19 16:52:42.480,-0.295,0.025
2021-08-19 16:52:42.484,-0.26,0.04
2021-08-19 16:52:42.488,-0.245,0.02
2021-08-19 16:52:42.492,-0.24,-0.005
2021-08-19 16:52:42.496,-0.24,-0.035
2021-08-19 16:52:42.500,-0.255,-0.08
2021-08-19 16:52:42.504,-0.295,-0.115
2021-08-19 16:52:42.508,-0.305,-0.11
2021-08-19 16:52:42.512,-0.255,-0.13
2021-08-19 16:52:42.516,-0.325,-0.14
2021-08-19 16:52:42.520,-0.35,-0.11
2021-08-19 16:52:42.524,-0.32,-0.115
2021-08-19 16:52:42.528,-0.355,-0.125
2021-08-19 16:52:42.532,-0.35,-0.12
2021-08-19 16:52:42.536,-0.345,-0.12
2021-08-19 16:52:42.540,-0.395,-0.12
2021-08-19 16:52:42.544,-0.335,-0.145
2021-08-19 16:52:42.548,-0.34,-0.135
2021-08-19 16:52:42.552,-0.38,-0.15
2021-08-19 16:52:42.556,-0.4,-0.15
2021-08-19 16:52:42.560,-0.33,-0.14
2021-08-19 16:52:42.564,-0.35,-0.15
2021-08-19 16:52:42.568,-0.32,-0.165
2021-08-19 16:52:42.572,-0.26,-0.18
2021-08-19 16:52:42.576,-0.235,-0.16
2021-08-19 16:52:42.580,-0.245,-0.195
2021-08-19 16:52:42.584,-0.17,-0.18
2021-08-19 16:52:42.588,-0.185,-0.195
2021-08-19 16:52:42.592,-0.205,-0.19
2021-08-19 16:52:42.596,-0.165,-0.18
2021-08-19 16:52:42.600,-0.175,-0.185
2021-08-19 16:52:42.604,-0.185,-0.18
2021-08-19 16:52:42.608,-0.195,-0.175
2021-08-19 16:52:42.612,-0.255,-0.165
2021-08-19 16:52:42.616,-0.26,-0.13
2021-08-19 16:52:42.620,-0.3,-0.125
2021-08-19 16:52:42.624,-0.29,-0.11
2021-08-19 16:52:42.628,-0.29,-0.085
2021-08-19 16:52:42.632,-0.285,-0.085
