Time,ECG1,ECG2
2021-08-19 23:13:10.040,0.06,-0.32
2021-08-19 23:13:10.044,0.07,-0.305
2021-08-19 23:13:10.048,0.075,-0.29
2021-08-19 23:13:10.052,0.1,-0.31
2021-08-19 23:13:10.056,0.105,-0.285
2021-08-19 23:13:10.060,0.105,-0.29
2021-08-19 23:13:10.064,0.115,-0.29
2021-08-19 23:13:10.068,0.115,-0.29
2021-08-19 23:13:10.072,0.12,-0.265
2021-08-19 23:13:10.076,0.13,-0.285
2021-08-19 23:13:10.080,0.16,-0.23
2021-08-19 23:13:10.084,0.17,-0.2
2021-08-19 23:13:10.088,0.175,-0.19
2021-08-19 23:13:10.092,0.21,-0.16
2021-08-19 23:13:10.096,0.2,-0.16
2021-08-19 23:13:10.100,0.185,-0.165
2021-08-19 23:13:10.104,0.185,-0.18
2021-08-19 23:13:10.108,0.155,-0.18
2021-08-19 23:13:10.112,0.15,-0.185
2021-08-19 23:13:10.116,0.115,-0.195
2021-08-19 23:13:10.120,0.105,-0.165
2021-08-19 23:13:10.124,0.105,-0.175
2021-08-19 23:13:10.128,0.095,-0.17
2021-08-19 23:13:10.132,0.085,-0.165
2021-08-19 23:13:10.136,0.07,-0.15
2021-08-19 23:13:10.140,0.065,-0.15
2021-08-19 23:13:10.144,0.05,-0.135
2021-08-19 23:13:10.148,0.035,-0.145
2021-08-19 23:13:10.152,0.025,-0.135
2021-08-19 23:13:10.156,-0.005,-0.175
2021-08-19 23:13:10.160,-0.015,-0.16
2021-08-19 23:13:10.164,-0.01,-0.17
2021-08-19 23:13:10.168,-0.01,-0.16
2021-08-19 23:13:10.172,-0.03,-0.18
2021-08-19 23:13:10.176,-0.07,-0.195
2021-08-19 23:13:10.180,-0.04,-0.21
2021-08-19 23:13:10.184,-0.035,-0.225
2021-08-19 23:13:10.188,-0.065,-0.25
2021-08-19 23:13:10.192,-0.06,-0.245
2021-08-19 23:13:10.196,-0.05,-0.275
2021-08-19 23:13:10.200,-0.07,-0.255
2021-08-19 23:13:10.204,-0.075,-0.275
2021-08-19 23:13:10.208,-0.1,-0.28
2021-08-19 23:13:10.212,-0.095,-0.29
2021-08-19 23:13:10.216,-0.085,-0.3
2021-08-19 23:13:10.220,-0.09,-0.31
2021-08-19 23:13:10.224,-0.1,-0.315
2021-08-19 23:13:10.228,-0.08,-0.325
2021-08-19 23:13:10.232,-0.08,-0.32
2021-08-19 23:13:10.236,-0.08,-0.33
2021-08-19 23:13:10.240,-0.08,-0.32
2021-08-19 23:13:10.244,-0.105,-0.32
2021-08-19 23:13:10.248,-0.075,-0.325
2021-08-19 23:13:10.252,-0.07,-0.34
2021-08-19 23:13:10.256,-0.05,-0.33
2021-08-19 23:13:10.260,-0.03,-0.195
2021-08-19 23:13:10.264,-0.03,0.1
2021-08-19 23:13:10.268,-0.015,0.475
2021-08-19 23:13:10.272,0.02,0.855
2021-08-19 23:13:10.276,0.07,1.225
2021-08-19 23:13:10.280,0.11,1.57
2021-08-19 23:13:10.284,0.185,1.81
2021-08-19 23:13:10.288,0.26,1.735
2021-08-19 23:13:10.292,0.375,1.365
2021-08-19 23:13:10.296,0.44,0.85
2021-08-19 23:13:10.300,0.44,0.4
2021-08-19 23:13:10.304,0.37,0.15
2021-08-19 23:13:10.308,0.2,0.04
2021-08-19 23:13:10.312,0.095,-0.03
2021-08-19 23:13:10.316,0.055,-0.135
2021-08-19 23:13:10.320,0.02,-0.225
2021-08-19 23:13:10.324,0.0,-0.24
2021-08-19 23:13:10.328,-0.065,-0.23
2021-08-19 23:13:10.332,-0.08,-0.245
2021-08-19 23:13:10.336,-0.07,-0.3
2021-08-19 23:13:10.340,-0.065,-0.305
2021-08-19 23:13:10.344,-0.07,-0.33
2021-08-19 23:13:10.348,-0.065,-0.365
2021-08-19 23:13:10.352,-0.065,-0.34
2021-08-19 23:13:10.356,-0.09,-0.36
2021-08-19 23:13:10.360,-0.095,-0.35
2021-08-19 23:13:10.364,-0.09,-0.305
2021-08-19 23:13:10.368,-0.105,-0.315
2021-08-19 23:13:10.372,-0.085,-0.29
2021-08-19 23:13:10.376,-0.09,-0.31
2021-08-19 23:13:10.380,-0.085,-0.34
2021-08-19 23:13:10.384,-0.075,-0.37
2021-08-19 23:13:10.388,-0.085,-0.37
2021-08-19 23:13:10.392,-0.085,-0.36
2021-08-19 23:13:10.396,-0.09,-0.385
2021-08-19 23:13:10.400,-0.085,-0.38
2021-08-19 23:13:10.404,-0.12,-0.415
2021-08-19 23:13:10.408,-0.13,-0.415
2021-08-19 23:13:10.412,-0.125,-0.415
2021-08-19 23:13:10.416,-0.115,-0.42
2021-08-19 23:13:10.420,-0.13,-0.39
2021-08-19 23:13:10.424,-0.135,-0.4
2021-08-19 23:13:10.428,-0.145,-0.39
2021-08-19 23:13:10.432,-0.125,-0.41
2021-08-19 23:13:10.436,-0.09,-0.425
2021-08-19 23:13:10.440,-0.12,-0.405
2021-08-19 23:13:10.444,-0.1,-0.395
2021-08-19 23:13:10.448,-0.12,-0.39
2021-08-19 23:13:10.452,-0.125,-0.38
2021-08-19 23:13:10.456,-0.095,-0.39
2021-08-19 23:13:10.460,-0.12,-0.375
2021-08-19 23:13:10.464,-0.115,-0.375
2021-08-19 23:13:10.468,-0.07,-0.375
2021-08-19 23:13:10.472,-0.105,-0.375
2021-08-19 23:13:10.476,-0.09,-0.36
2021-08-19 23:13:10.480,-0.095,-0.36
2021-08-19 23:13:10.484,-0.085,-0.345
2021-08-19 23:13:10.488,-0.075,-0.34
2021-08-19 23:13:10.492,-0.08,-0.335
2021-08-19 23:13:10.496,-0.075,-0.34
2021-08-19 23:13:10.500,-0.075,-0.315
2021-08-19 23:13:10.504,-0.065,-0.315
2021-08-19 23:13:10.508,-0.065,-0.285
2021-08-19 23:13:10.512,-0.06,-0.285
2021-08-19 23:13:10.516,-0.05,-0.275
2021-08-19 23:13:10.520,-0.075,-0.245
2021-08-19 23:13:10.524,-0.03,-0.215
2021-08-19 23:13:10.528,-0.035,-0.205
2021-08-19 23:13:10.532,-0.02,-0.19
2021-08-19 23:13:10.536,-0.01,-0.15
2021-08-19 23:13:10.540,-0.015,-0.135
2021-08-19 23:13:10.544,-0.01,-0.13
2021-08-19 23:13:10.548,0.0,-0.105
2021-08-19 23:13:10.552,0.01,-0.095
2021-08-19 23:13:10.556,0.015,-0.085
2021-08-19 23:13:10.560,0.03,-0.065
2021-08-19 23:13:10.564,0.015,-0.05
2021-08-19 23:13:10.568,0.04,-0.06
2021-08-19 23:13:10.572,0.045,-0.03
2021-08-19 23:13:10.576,0.045,-0.015
2021-08-19 23:13:10.580,0.055,0.005
2021-08-19 23:13:10.584,0.045,0.035
2021-08-19 23:13:10.588,0.095,0.085
2021-08-19 23:13:10.592,0.09,0.13
2021-08-19 23:13:10.596,0.08,0.13
2021-08-19 23:13:10.600,0.11,0.13
2021-08-19 23:13:10.604,0.09,0.1
2021-08-19 23:13:10.608,0.07,0.08
2021-08-19 23:13:10.612,0.065,0.065
2021-08-19 23:13:10.616,0.065,0.025
2021-08-19 23:13:10.620,0.06,0.0
2021-08-19 23:13:10.624,0.045,0.0
2021-08-19 23:13:10.628,0.035,-0.04
2021-08-19 23:13:10.632,0.005,-0.07
2021-08-19 23:13:10.636,0.005,-0.115
2021-08-19 23:13:10.640,0.0,-0.115
2021-08-19 23:13:10.644,-0.025,-0.16
2021-08-19 23:13:10.648,-0.045,-0.195
2021-08-19 23:13:10.652,-0.075,-0.195
2021-08-19 23:13:10.656,-0.045,-0.225
2021-08-19 23:13:10.660,-0.045,-0.255
2021-08-19 23:13:10.664,-0.055,-0.255
2021-08-19 23:13:10.668,-0.055,-0.28
2021-08-19 23:13:10.672,-0.055,-0.265
2021-08-19 23:13:10.676,-0.07,-0.28
2021-08-19 23:13:10.680,-0.085,-0.3
2021-08-19 23:13:10.684,-0.08,-0.3
2021-08-19 23:13:10.688,-0.09,-0.315
2021-08-19 23:13:10.692,-0.105,-0.315
2021-08-19 23:13:10.696,-0.1,-0.325
2021-08-19 23:13:10.700,-0.08,-0.33
2021-08-19 23:13:10.704,-0.105,-0.33
2021-08-19 23:13:10.708,-0.105,-0.335
2021-08-19 23:13:10.712,-0.09,-0.32
2021-08-19 23:13:10.716,-0.105,-0.34
2021-08-19 23:13:10.720,-0.12,-0.335
2021-08-19 23:13:10.724,-0.11,-0.325
2021-08-19 23:13:10.728,-0.1,-0.33
2021-08-19 23:13:10.732,-0.095,-0.335
2021-08-19 23:13:10.736,-0.09,-0.32
2021-08-19 23:13:10.740,-0.085,-0.34
2021-08-19 23:13:10.744,-0.11,-0.34
2021-08-19 23:13:10.748,-0.08,-0.335
2021-08-19 23:13:10.752,-0.085,-0.325
2021-08-19 23:13:10.756,-0.08,-0.33
2021-08-19 23:13:10.760,-0.08,-0.33
2021-08-19 23:13:10.764,-0.065,-0.35
2021-08-19 23:13:10.768,-0.08,-0.355
2021-08-19 23:13:10.772,-0.075,-0.37
2021-08-19 23:13:10.776,-0.08,-0.36
2021-08-19 23:13:10.780,-0.085,-0.375
2021-08-19 23:13:10.784,-0.075,-0.36
2021-08-19 23:13:10.788,-0.08,-0.35
2021-08-19 23:13:10.792,-0.055,-0.34
2021-08-19 23:13:10.796,-0.08,-0.335
2021-08-19 23:13:10.800,-0.045,-0.335
2021-08-19 23:13:10.804,-0.055,-0.305
2021-08-19 23:13:10.808,-0.04,-0.295
2021-08-19 23:13:10.812,-0.03,-0.27
2021-08-19 23:13:10.816,-0.075,-0.275
2021-08-19 23:13:10.820,-0.06,-0.275
2021-08-19 23:13:10.824,-0.06,-0.285
2021-08-19 23:13:10.828,-0.06,-0.29
2021-08-19 23:13:10.832,-0.05,-0.33
2021-08-19 23:13:10.836,-0.05,-0.33
2021-08-19 23:13:10.840,-0.055,-0.335
2021-08-19 23:13:10.844,-0.065,-0.345
2021-08-19 23:13:10.848,-0.075,-0.345
2021-08-19 23:13:10.852,-0.08,-0.36
2021-08-19 23:13:10.856,-0.06,-0.36
2021-08-19 23:13:10.860,-0.065,-0.36
2021-08-19 23:13:10.864,-0.07,-0.34
2021-08-19 23:13:10.868,-0.115,-0.355
2021-08-19 23:13:10.872,-0.095,-0.36
2021-08-19 23:13:10.876,-0.095,-0.37
2021-08-19 23:13:10.880,-0.11,-0.37
2021-08-19 23:13:10.884,-0.095,-0.38
2021-08-19 23:13:10.888,-0.11,-0.355
2021-08-19 23:13:10.892,-0.11,-0.35
2021-08-19 23:13:10.896,-0.09,-0.36
2021-08-19 23:13:10.900,-0.11,-0.35
2021-08-19 23:13:10.904,-0.1,-0.355
2021-08-19 23:13:10.908,-0.1,-0.365
2021-08-19 23:13:10.912,-0.085,-0.385
2021-08-19 23:13:10.916,-0.1,-0.37
2021-08-19 23:13:10.920,-0.105,-0.36
2021-08-19 23:13:10.924,-0.115,-0.37
2021-08-19 23:13:10.928,-0.1,-0.355
2021-08-19 23:13:10.932,-0.1,-0.355
2021-08-19 23:13:10.936,-0.125,-0.36
2021-08-19 23:13:10.940,-0.09,-0.36
2021-08-19 23:13:10.944,-0.11,-0.36
2021-08-19 23:13:10.948,-0.12,-0.34
2021-08-19 23:13:10.952,-0.09,-0.325
2021-08-19 23:13:10.956,-0.115,-0.335
2021-08-19 23:13:10.960,-0.105,-0.315
2021-08-19 23:13:10.964,-0.09,-0.34
2021-08-19 23:13:10.968,-0.105,-0.33
2021-08-19 23:13:10.972,-0.11,-0.33
2021-08-19 23:13:10.976,-0.095,-0.35
2021-08-19 23:13:10.980,-0.105,-0.35
2021-08-19 23:13:10.984,-0.1,-0.365
2021-08-19 23:13:10.988,-0.11,-0.35
2021-08-19 23:13:10.992,-0.115,-0.34
2021-08-19 23:13:10.996,-0.085,-0.355
2021-08-19 23:13:11.000,-0.095,-0.365
2021-08-19 23:13:11.004,-0.1,-0.34
2021-08-19 23:13:11.008,-0.08,-0.315
2021-08-19 23:13:11.012,-0.07,-0.31
2021-08-19 23:13:11.016,-0.075,-0.29
2021-08-19 23:13:11.020,-0.09,-0.255
2021-08-19 23:13:11.024,-0.055,-0.26
2021-08-19 23:13:11.028,-0.065,-0.265
2021-08-19 23:13:11.032,-0.06,-0.25
2021-08-19 23:13:11.036,-0.085,-0.235
2021-08-19 23:13:11.040,-0.06,-0.255
2021-08-19 23:13:11.044,-0.08,-0.28
2021-08-19 23:13:11.048,-0.07,-0.34
2021-08-19 23:13:11.052,-0.07,-0.435
2021-08-19 23:13:11.056,-0.06,-0.495
2021-08-19 23:13:11.060,-0.05,-0.435
2021-08-19 23:13:11.064,-0.06,-0.18
2021-08-19 23:13:11.068,-0.015,0.26
2021-08-19 23:13:11.072,0.045,0.81
2021-08-19 23:13:11.076,0.135,1.405
2021-08-19 23:13:11.096,0.345,1.99
2021-08-19 23:13:11.100,0.27,1.24
2021-08-19 23:13:11.104,0.125,0.72
2021-08-19 23:13:11.108,-0.05,0.315
2021-08-19 23:13:11.112,-0.17,0.135
2021-08-19 23:13:11.116,-0.24,0.01
2021-08-19 23:13:11.120,-0.26,-0.07
2021-08-19 23:13:11.124,-0.175,-0.12
2021-08-19 23:13:11.128,-0.125,-0.205
2021-08-19 23:13:11.132,-0.11,-0.245
2021-08-19 23:13:11.136,-0.075,-0.28
2021-08-19 23:13:11.140,-0.075,-0.325
2021-08-19 23:13:11.144,-0.065,-0.36
2021-08-19 23:13:11.148,-0.07,-0.38
2021-08-19 23:13:11.152,-0.1,-0.38
2021-08-19 23:13:11.156,-0.075,-0.385
2021-08-19 23:13:11.160,-0.08,-0.395
2021-08-19 23:13:11.164,-0.075,-0.4
2021-08-19 23:13:11.168,-0.07,-0.39
2021-08-19 23:13:11.172,-0.07,-0.405
2021-08-19 23:13:11.176,-0.065,-0.43
2021-08-19 23:13:11.180,-0.07,-0.42
2021-08-19 23:13:11.184,-0.06,-0.425
2021-08-19 23:13:11.188,-0.075,-0.445
2021-08-19 23:13:11.192,-0.07,-0.445
2021-08-19 23:13:11.196,-0.075,-0.465
2021-08-19 23:13:11.200,-0.075,-0.47
2021-08-19 23:13:11.204,-0.075,-0.48
2021-08-19 23:13:11.208,-0.05,-0.465
2021-08-19 23:13:11.212,-0.05,-0.445
2021-08-19 23:13:11.216,-0.04,-0.41
2021-08-19 23:13:11.220,-0.04,-0.41
2021-08-19 23:13:11.224,-0.04,-0.405
2021-08-19 23:13:11.228,-0.025,-0.405
2021-08-19 23:13:11.232,-0.065,-0.41
2021-08-19 23:13:11.236,-0.055,-0.405
2021-08-19 23:13:11.240,-0.055,-0.405
2021-08-19 23:13:11.244,-0.035,-0.395
2021-08-19 23:13:11.248,-0.04,-0.405
2021-08-19 23:13:11.252,-0.05,-0.4
2021-08-19 23:13:11.256,-0.05,-0.415
2021-08-19 23:13:11.260,-0.045,-0.43
2021-08-19 23:13:11.264,-0.04,-0.445
2021-08-19 23:13:11.268,-0.035,-0.45
2021-08-19 23:13:11.272,-0.035,-0.445
2021-08-19 23:13:11.276,-0.035,-0.46
2021-08-19 23:13:11.280,-0.035,-0.485
2021-08-19 23:13:11.284,-0.015,-0.465
2021-08-19 23:13:11.288,-0.025,-0.46
2021-08-19 23:13:11.292,-0.04,-0.48
2021-08-19 23:13:11.296,-0.01,-0.46
2021-08-19 23:13:11.300,-0.015,-0.465
2021-08-19 23:13:11.304,0.0,-0.46
2021-08-19 23:13:11.308,0.005,-0.46
2021-08-19 23:13:11.312,-0.01,-0.465
2021-08-19 23:13:11.316,0.0,-0.47
2021-08-19 23:13:11.320,0.0,-0.465
2021-08-19 23:13:11.324,0.015,-0.47
2021-08-19 23:13:11.328,0.025,-0.48
2021-08-19 23:13:11.332,0.02,-0.485
2021-08-19 23:13:11.336,0.01,-0.495
2021-08-19 23:13:11.340,0.025,-0.49
2021-08-19 23:13:11.344,0.025,-0.505
2021-08-19 23:13:11.348,0.04,-0.51
2021-08-19 23:13:11.352,0.045,-0.5
2021-08-19 23:13:11.356,0.065,-0.51
2021-08-19 23:13:11.360,0.05,-0.495
2021-08-19 23:13:11.364,0.07,-0.49
2021-08-19 23:13:11.368,0.07,-0.5
2021-08-19 23:13:11.372,0.07,-0.49
2021-08-19 23:13:11.376,0.05,-0.505
2021-08-19 23:13:11.380,0.07,-0.48
2021-08-19 23:13:11.384,0.1,-0.505
2021-08-19 23:13:11.388,0.065,-0.49
2021-08-19 23:13:11.392,0.075,-0.485
2021-08-19 23:13:11.396,0.055,-0.475
2021-08-19 23:13:11.400,0.05,-0.47
2021-08-19 23:13:11.404,0.045,-0.445
2021-08-19 23:13:11.408,0.065,-0.45
2021-08-19 23:13:11.412,0.08,-0.41
2021-08-19 23:13:11.416,0.05,-0.385
2021-08-19 23:13:11.420,0.055,-0.335
2021-08-19 23:13:11.424,0.055,-0.295
2021-08-19 23:13:11.428,0.045,-0.26
2021-08-19 23:13:11.432,0.055,-0.27
2021-08-19 23:13:11.436,0.02,-0.225
2021-08-19 23:13:11.440,0.005,-0.23
2021-08-19 23:13:11.444,-0.005,-0.2
2021-08-19 23:13:11.448,-0.005,-0.175
2021-08-19 23:13:11.452,-0.01,-0.195
2021-08-19 23:13:11.456,-0.02,-0.19
2021-08-19 23:13:11.460,0.0,-0.175
2021-08-19 23:13:11.464,-0.025,-0.185
2021-08-19 23:13:11.468,-0.03,-0.205
2021-08-19 23:13:11.472,-0.035,-0.205
2021-08-19 23:13:11.476,-0.055,-0.195
2021-08-19 23:13:11.480,-0.035,-0.23
2021-08-19 23:13:11.484,-0.025,-0.22
2021-08-19 23:13:11.488,-0.025,-0.23
2021-08-19 23:13:11.492,-0.04,-0.24
2021-08-19 23:13:11.496,-0.045,-0.215
2021-08-19 23:13:11.500,-0.02,-0.22
2021-08-19 23:13:11.504,-0.045,-0.245
2021-08-19 23:13:11.508,-0.055,-0.22
2021-08-19 23:13:11.512,-0.045,-0.235
2021-08-19 23:13:11.516,-0.055,-0.235
2021-08-19 23:13:11.520,-0.03,-0.24
2021-08-19 23:13:11.524,-0.045,-0.24
2021-08-19 23:13:11.528,-0.045,-0.255
2021-08-19 23:13:11.532,-0.05,-0.23
2021-08-19 23:13:11.536,-0.05,-0.24
2021-08-19 23:13:11.540,-0.065,-0.25
2021-08-19 23:13:11.544,-0.06,-0.245
2021-08-19 23:13:11.548,-0.045,-0.245
2021-08-19 23:13:11.552,-0.06,-0.27
2021-08-19 23:13:11.556,-0.06,-0.315
2021-08-19 23:13:11.560,-0.055,-0.315
2021-08-19 23:13:11.564,-0.045,-0.2
2021-08-19 23:13:11.568,-0.025,0.08
2021-08-19 23:13:11.572,0.02,0.54
2021-08-19 23:13:11.576,0.115,1.085
2021-08-19 23:13:11.580,0.195,1.75
2021-08-19 23:13:11.600,0.42,1.735
2021-08-19 23:13:11.604,0.31,1.06
2021-08-19 23:13:11.608,0.115,0.58
2021-08-19 23:13:11.612,-0.105,0.365
2021-08-19 23:13:11.616,-0.245,0.2
2021-08-19 23:13:11.620,-0.245,0.035
2021-08-19 23:13:11.624,-0.175,-0.06
2021-08-19 23:13:11.628,-0.14,-0.125
2021-08-19 23:13:11.632,-0.05,-0.155
2021-08-19 23:13:11.636,-0.05,-0.2
2021-08-19 23:13:11.640,-0.035,-0.225
2021-08-19 23:13:11.644,-0.04,-0.27
2021-08-19 23:13:11.648,-0.065,-0.295
2021-08-19 23:13:11.652,-0.075,-0.315
2021-08-19 23:13:11.656,-0.075,-0.33
2021-08-19 23:13:11.660,-0.07,-0.34
2021-08-19 23:13:11.664,-0.075,-0.36
2021-08-19 23:13:11.668,-0.095,-0.365
2021-08-19 23:13:11.672,-0.11,-0.375
2021-08-19 23:13:11.676,-0.08,-0.375
2021-08-19 23:13:11.680,-0.1,-0.395
2021-08-19 23:13:11.684,-0.11,-0.41
2021-08-19 23:13:11.688,-0.105,-0.415
2021-08-19 23:13:11.692,-0.11,-0.43
2021-08-19 23:13:11.696,-0.105,-0.43
2021-08-19 23:13:11.700,-0.07,-0.44
2021-08-19 23:13:11.704,-0.09,-0.45
2021-08-19 23:13:11.708,-0.11,-0.445
2021-08-19 23:13:11.712,-0.115,-0.44
2021-08-19 23:13:11.716,-0.1,-0.45
2021-08-19 23:13:11.720,-0.075,-0.46
2021-08-19 23:13:11.724,-0.075,-0.455
2021-08-19 23:13:11.728,-0.095,-0.455
2021-08-19 23:13:11.732,-0.09,-0.44
2021-08-19 23:13:11.736,-0.08,-0.44
2021-08-19 23:13:11.740,-0.08,-0.445
2021-08-19 23:13:11.744,-0.085,-0.445
2021-08-19 23:13:11.748,-0.085,-0.435
2021-08-19 23:13:11.752,-0.08,-0.44
2021-08-19 23:13:11.756,-0.085,-0.44
2021-08-19 23:13:11.760,-0.09,-0.435
2021-08-19 23:13:11.764,-0.09,-0.435
2021-08-19 23:13:11.768,-0.065,-0.435
2021-08-19 23:13:11.772,-0.1,-0.45
2021-08-19 23:13:11.776,-0.075,-0.44
2021-08-19 23:13:11.780,-0.07,-0.445
2021-08-19 23:13:11.784,-0.06,-0.46
2021-08-19 23:13:11.788,-0.06,-0.43
2021-08-19 23:13:11.792,-0.075,-0.43
2021-08-19 23:13:11.796,-0.045,-0.405
2021-08-19 23:13:11.800,-0.03,-0.42
2021-08-19 23:13:11.804,-0.035,-0.415
2021-08-19 23:13:11.808,-0.03,-0.38
2021-08-19 23:13:11.812,-0.01,-0.395
2021-08-19 23:13:11.816,-0.01,-0.365
2021-08-19 23:13:11.820,0.005,-0.375
2021-08-19 23:13:11.824,0.025,-0.38
2021-08-19 23:13:11.828,0.05,-0.365
2021-08-19 23:13:11.832,0.02,-0.36
2021-08-19 23:13:11.836,0.06,-0.36
2021-08-19 23:13:11.840,0.075,-0.355
2021-08-19 23:13:11.844,0.08,-0.35
2021-08-19 23:13:11.848,0.07,-0.355
2021-08-19 23:13:11.852,0.07,-0.345
2021-08-19 23:13:11.856,0.11,-0.335
2021-08-19 23:13:11.860,0.09,-0.3
2021-08-19 23:13:11.864,0.1,-0.28
2021-08-19 23:13:11.868,0.115,-0.24
2021-08-19 23:13:11.872,0.145,-0.19
2021-08-19 23:13:11.876,0.145,-0.16
2021-08-19 23:13:11.880,0.13,-0.15
2021-08-19 23:13:11.884,0.1,-0.145
2021-08-19 23:13:11.888,0.095,-0.145
2021-08-19 23:13:11.892,0.105,-0.15
2021-08-19 23:13:11.896,0.09,-0.15
2021-08-19 23:13:11.900,0.08,-0.145
2021-08-19 23:13:11.904,0.075,-0.13
2021-08-19 23:13:11.908,0.07,-0.155
2021-08-19 23:13:11.912,0.055,-0.19
2021-08-19 23:13:11.916,0.04,-0.17
2021-08-19 23:13:11.920,0.025,-0.175
2021-08-19 23:13:11.924,0.025,-0.185
2021-08-19 23:13:11.928,0.0,-0.21
2021-08-19 23:13:11.932,0.005,-0.225
2021-08-19 23:13:11.936,-0.01,-0.24
2021-08-19 23:13:11.940,-0.03,-0.24
2021-08-19 23:13:11.944,-0.005,-0.285
2021-08-19 23:13:11.948,-0.045,-0.285
2021-08-19 23:13:11.952,-0.035,-0.29
2021-08-19 23:13:11.956,-0.035,-0.3
2021-08-19 23:13:11.960,-0.075,-0.31
2021-08-19 23:13:11.964,-0.055,-0.3
2021-08-19 23:13:11.968,-0.075,-0.31
2021-08-19 23:13:11.972,-0.06,-0.32
2021-08-19 23:13:11.976,-0.07,-0.32
2021-08-19 23:13:11.980,-0.08,-0.32
2021-08-19 23:13:11.984,-0.1,-0.305
2021-08-19 23:13:11.988,-0.06,-0.3
2021-08-19 23:13:11.992,-0.09,-0.34
2021-08-19 23:13:11.996,-0.095,-0.32
2021-08-19 23:13:12.000,-0.085,-0.31
2021-08-19 23:13:12.004,-0.08,-0.295
2021-08-19 23:13:12.008,-0.11,-0.3
2021-08-19 23:13:12.012,-0.105,-0.305
2021-08-19 23:13:12.016,-0.085,-0.3
2021-08-19 23:13:12.020,-0.095,-0.295
2021-08-19 23:13:12.024,-0.105,-0.305
2021-08-19 23:13:12.028,-0.09,-0.29
2021-08-19 23:13:12.032,-0.085,-0.28
2021-08-19 23:13:12.036,-0.09,-0.305
2021-08-19 23:13:12.040,-0.065,-0.285
2021-08-19 23:13:12.044,-0.075,-0.285
2021-08-19 23:13:12.048,-0.095,-0.285
2021-08-19 23:13:12.052,-0.09,-0.28
2021-08-19 23:13:12.056,-0.065,-0.29
2021-08-19 23:13:12.060,-0.07,-0.29
2021-08-19 23:13:12.064,-0.05,-0.31
2021-08-19 23:13:12.068,-0.065,-0.3
2021-08-19 23:13:12.072,-0.095,-0.31
2021-08-19 23:13:12.076,-0.07,-0.33
2021-08-19 23:13:12.080,-0.06,-0.355
2021-08-19 23:13:12.084,-0.07,-0.44
2021-08-19 23:13:12.088,-0.08,-0.55
2021-08-19 23:13:12.092,-0.065,-0.59
2021-08-19 23:13:12.096,-0.06,-0.45
2021-08-19 23:13:12.100,-0.06,-0.11
2021-08-19 23:13:12.104,-0.025,0.37
2021-08-19 23:13:12.108,0.06,0.955
2021-08-19 23:13:12.112,0.16,1.555
2021-08-19 23:13:12.132,0.47,1.69
2021-08-19 23:13:12.136,0.365,1.055
2021-08-19 23:13:12.140,0.16,0.61
2021-08-19 23:13:12.144,-0.065,0.325
2021-08-19 23:13:12.148,-0.21,0.17
2021-08-19 23:13:12.152,-0.255,0.045
2021-08-19 23:13:12.156,-0.23,-0.04
2021-08-19 23:13:12.160,-0.15,-0.14
2021-08-19 23:13:12.164,-0.11,-0.19
2021-08-19 23:13:12.168,-0.065,-0.26
2021-08-19 23:13:12.172,-0.06,-0.3
2021-08-19 23:13:12.176,-0.08,-0.305
2021-08-19 23:13:12.180,-0.095,-0.35
2021-08-19 23:13:12.184,-0.1,-0.36
2021-08-19 23:13:12.188,-0.1,-0.39
2021-08-19 23:13:12.192,-0.095,-0.38
2021-08-19 23:13:12.196,-0.085,-0.38
2021-08-19 23:13:12.200,-0.095,-0.395
2021-08-19 23:13:12.204,-0.09,-0.43
2021-08-19 23:13:12.208,-0.105,-0.42
2021-08-19 23:13:12.212,-0.11,-0.41
2021-08-19 23:13:12.216,-0.1,-0.43
2021-08-19 23:13:12.220,-0.075,-0.43
2021-08-19 23:13:12.224,-0.11,-0.42
2021-08-19 23:13:12.228,-0.095,-0.43
2021-08-19 23:13:12.232,-0.105,-0.445
2021-08-19 23:13:12.236,-0.11,-0.445
2021-08-19 23:13:12.240,-0.095,-0.44
2021-08-19 23:13:12.244,-0.09,-0.455
2021-08-19 23:13:12.248,-0.11,-0.445
2021-08-19 23:13:12.252,-0.105,-0.435
2021-08-19 23:13:12.256,-0.105,-0.425
2021-08-19 23:13:12.260,-0.105,-0.45
2021-08-19 23:13:12.264,-0.09,-0.455
2021-08-19 23:13:12.268,-0.09,-0.47
2021-08-19 23:13:12.272,-0.09,-0.465
2021-08-19 23:13:12.276,-0.08,-0.47
2021-08-19 23:13:12.280,-0.095,-0.455
2021-08-19 23:13:12.284,-0.09,-0.46
2021-08-19 23:13:12.288,-0.085,-0.45
2021-08-19 23:13:12.292,-0.08,-0.445
2021-08-19 23:13:12.296,-0.07,-0.43
2021-08-19 23:13:12.300,-0.08,-0.44
2021-08-19 23:13:12.304,-0.06,-0.445
2021-08-19 23:13:12.308,-0.06,-0.46
2021-08-19 23:13:12.312,-0.05,-0.45
2021-08-19 23:13:12.316,-0.05,-0.44
2021-08-19 23:13:12.320,-0.05,-0.425
2021-08-19 23:13:12.324,-0.02,-0.415
2021-08-19 23:13:12.328,-0.005,-0.41
2021-08-19 23:13:12.332,0.005,-0.39
2021-08-19 23:13:12.336,0.01,-0.39
2021-08-19 23:13:12.340,0.015,-0.415
2021-08-19 23:13:12.344,0.015,-0.405
2021-08-19 23:13:12.348,0.015,-0.41
2021-08-19 23:13:12.352,0.02,-0.415
2021-08-19 23:13:12.356,0.02,-0.41
2021-08-19 23:13:12.360,0.04,-0.45
2021-08-19 23:13:12.364,0.02,-0.455
2021-08-19 23:13:12.368,0.03,-0.49
2021-08-19 23:13:12.372,0.02,-0.48
2021-08-19 23:13:12.376,0.015,-0.49
2021-08-19 23:13:12.380,0.01,-0.485
2021-08-19 23:13:12.384,0.04,-0.49
2021-08-19 23:13:12.388,0.04,-0.49
2021-08-19 23:13:12.392,0.04,-0.48
2021-08-19 23:13:12.396,0.04,-0.48
2021-08-19 23:13:12.400,0.04,-0.48
2021-08-19 23:13:12.404,0.04,-0.465
2021-08-19 23:13:12.408,0.045,-0.44
2021-08-19 23:13:12.412,0.03,-0.42
2021-08-19 23:13:12.416,0.03,-0.41
2021-08-19 23:13:12.420,0.03,-0.38
2021-08-19 23:13:12.424,0.015,-0.365
2021-08-19 23:13:12.428,0.015,-0.35
2021-08-19 23:13:12.432,0.04,-0.34
2021-08-19 23:13:12.436,0.02,-0.305
2021-08-19 23:13:12.440,0.02,-0.275
2021-08-19 23:13:12.444,0.02,-0.27
2021-08-19 23:13:12.448,0.01,-0.27
2021-08-19 23:13:12.452,-0.01,-0.25
2021-08-19 23:13:12.456,-0.025,-0.255
2021-08-19 23:13:12.460,-0.04,-0.24
2021-08-19 23:13:12.464,-0.045,-0.24
2021-08-19 23:13:12.468,-0.05,-0.23
2021-08-19 23:13:12.472,-0.05,-0.235
2021-08-19 23:13:12.476,-0.055,-0.225
2021-08-19 23:13:12.480,-0.045,-0.24
2021-08-19 23:13:12.484,-0.055,-0.23
2021-08-19 23:13:12.488,-0.065,-0.25
2021-08-19 23:13:12.492,-0.06,-0.27
2021-08-19 23:13:12.496,-0.075,-0.285
2021-08-19 23:13:12.500,-0.065,-0.285
2021-08-19 23:13:12.504,-0.05,-0.28
2021-08-19 23:13:12.508,-0.07,-0.31
2021-08-19 23:13:12.512,-0.065,-0.27
2021-08-19 23:13:12.516,-0.07,-0.285
2021-08-19 23:13:12.520,-0.06,-0.285
2021-08-19 23:13:12.524,-0.06,-0.26
2021-08-19 23:13:12.528,-0.08,-0.26
2021-08-19 23:13:12.532,-0.06,-0.27
2021-08-19 23:13:12.536,-0.05,-0.205
2021-08-19 23:13:12.540,-0.025,0.05
2021-08-19 23:13:12.544,-0.005,0.455
2021-08-19 23:13:12.548,0.045,1.0
2021-08-19 23:13:12.552,0.145,1.605
2021-08-19 23:13:12.576,0.445,1.48
2021-08-19 23:13:12.580,0.255,0.865
2021-08-19 23:13:12.584,0.02,0.535
2021-08-19 23:13:12.588,-0.19,0.355
2021-08-19 23:13:12.592,-0.28,0.16
2021-08-19 23:13:12.596,-0.205,0.01
2021-08-19 23:13:12.600,-0.16,-0.09
2021-08-19 23:13:12.604,-0.105,-0.185
2021-08-19 23:13:12.608,-0.09,-0.26
2021-08-19 23:13:12.612,-0.065,-0.285
2021-08-19 23:13:12.616,-0.08,-0.33
2021-08-19 23:13:12.620,-0.095,-0.335
2021-08-19 23:13:12.624,-0.095,-0.37
2021-08-19 23:13:12.628,-0.11,-0.385
2021-08-19 23:13:12.632,-0.095,-0.395
2021-08-19 23:13:12.636,-0.115,-0.425
2021-08-19 23:13:12.640,-0.1,-0.445
2021-08-19 23:13:12.644,-0.105,-0.45
2021-08-19 23:13:12.648,-0.115,-0.45
2021-08-19 23:13:12.652,-0.11,-0.46
2021-08-19 23:13:12.656,-0.11,-0.475
2021-08-19 23:13:12.660,-0.11,-0.47
2021-08-19 23:13:12.664,-0.125,-0.48
2021-08-19 23:13:12.668,-0.14,-0.48
2021-08-19 23:13:12.672,-0.13,-0.49
2021-08-19 23:13:12.676,-0.125,-0.47
2021-08-19 23:13:12.680,-0.12,-0.48
2021-08-19 23:13:12.684,-0.11,-0.49
2021-08-19 23:13:12.688,-0.135,-0.49
2021-08-19 23:13:12.692,-0.115,-0.49
2021-08-19 23:13:12.696,-0.11,-0.505
2021-08-19 23:13:12.700,-0.115,-0.5
2021-08-19 23:13:12.704,-0.12,-0.5
2021-08-19 23:13:12.708,-0.1,-0.51
2021-08-19 23:13:12.712,-0.13,-0.505
2021-08-19 23:13:12.716,-0.115,-0.485
2021-08-19 23:13:12.720,-0.13,-0.5
2021-08-19 23:13:12.724,-0.13,-0.495
2021-08-19 23:13:12.728,-0.13,-0.485
2021-08-19 23:13:12.732,-0.12,-0.5
2021-08-19 23:13:12.736,-0.11,-0.5
2021-08-19 23:13:12.740,-0.11,-0.52
2021-08-19 23:13:12.744,-0.1,-0.545
2021-08-19 23:13:12.748,-0.11,-0.525
2021-08-19 23:13:12.752,-0.075,-0.49
2021-08-19 23:13:12.756,-0.075,-0.47
2021-08-19 23:13:12.760,-0.055,-0.44
2021-08-19 23:13:12.764,-0.06,-0.42
2021-08-19 23:13:12.768,-0.055,-0.395
2021-08-19 23:13:12.772,-0.03,-0.38
2021-08-19 23:13:12.776,-0.025,-0.4
2021-08-19 23:13:12.780,-0.045,-0.42
2021-08-19 23:13:12.784,-0.06,-0.42
2021-08-19 23:13:12.788,-0.04,-0.42
2021-08-19 23:13:12.792,-0.06,-0.4
2021-08-19 23:13:12.796,-0.06,-0.4
2021-08-19 23:13:12.800,-0.04,-0.425
2021-08-19 23:13:12.804,-0.045,-0.42
2021-08-19 23:13:12.808,-0.025,-0.41
2021-08-19 23:13:12.812,-0.03,-0.415
2021-08-19 23:13:12.816,-0.035,-0.4
2021-08-19 23:13:12.820,-0.015,-0.42
2021-08-19 23:13:12.824,-0.015,-0.395
2021-08-19 23:13:12.828,0.02,-0.39
2021-08-19 23:13:12.832,0.03,-0.38
2021-08-19 23:13:12.836,0.015,-0.365
2021-08-19 23:13:12.840,0.02,-0.35
2021-08-19 23:13:12.844,0.005,-0.335
2021-08-19 23:13:12.848,0.02,-0.32
2021-08-19 23:13:12.852,0.03,-0.295
2021-08-19 23:13:12.856,0.01,-0.3
2021-08-19 23:13:12.860,0.01,-0.28
2021-08-19 23:13:12.864,0.015,-0.28
2021-08-19 23:13:12.868,0.005,-0.26
2021-08-19 23:13:12.872,0.01,-0.235
2021-08-19 23:13:12.876,0.0,-0.24
2021-08-19 23:13:12.880,0.0,-0.21
2021-08-19 23:13:12.884,-0.02,-0.24
2021-08-19 23:13:12.888,-0.03,-0.24
2021-08-19 23:13:12.892,-0.015,-0.225
2021-08-19 23:13:12.896,-0.045,-0.225
2021-08-19 23:13:12.900,-0.04,-0.25
2021-08-19 23:13:12.904,-0.06,-0.245
2021-08-19 23:13:12.908,-0.07,-0.265
2021-08-19 23:13:12.912,-0.065,-0.26
2021-08-19 23:13:12.916,-0.07,-0.265
2021-08-19 23:13:12.920,-0.065,-0.28
2021-08-19 23:13:12.924,-0.095,-0.3
2021-08-19 23:13:12.928,-0.11,-0.29
2021-08-19 23:13:12.932,-0.1,-0.28
2021-08-19 23:13:12.936,-0.095,-0.31
2021-08-19 23:13:12.940,-0.085,-0.295
2021-08-19 23:13:12.944,-0.1,-0.295
2021-08-19 23:13:12.948,-0.105,-0.3
2021-08-19 23:13:12.952,-0.11,-0.295
2021-08-19 23:13:12.956,-0.13,-0.305
2021-08-19 23:13:12.960,-0.105,-0.315
2021-08-19 23:13:12.964,-0.11,-0.3
2021-08-19 23:13:12.968,-0.145,-0.285
2021-08-19 23:13:12.972,-0.125,-0.29
2021-08-19 23:13:12.976,-0.125,-0.295
2021-08-19 23:13:12.980,-0.12,-0.32
2021-08-19 23:13:12.984,-0.125,-0.305
2021-08-19 23:13:12.988,-0.11,-0.32
2021-08-19 23:13:12.992,-0.115,-0.345
2021-08-19 23:13:12.996,-0.115,-0.345
2021-08-19 23:13:13.000,-0.125,-0.33
2021-08-19 23:13:13.004,-0.145,-0.365
2021-08-19 23:13:13.008,-0.145,-0.385
2021-08-19 23:13:13.012,-0.165,-0.395
2021-08-19 23:13:13.016,-0.14,-0.39
2021-08-19 23:13:13.020,-0.145,-0.365
2021-08-19 23:13:13.024,-0.13,-0.31
2021-08-19 23:13:13.028,-0.1,-0.28
2021-08-19 23:13:13.032,-0.1,-0.265
2021-08-19 23:13:13.036,-0.09,-0.265
2021-08-19 23:13:13.040,-0.1,-0.25
2021-08-19 23:13:13.044,-0.11,-0.26
2021-08-19 23:13:13.048,-0.13,-0.265
2021-08-19 23:13:13.052,-0.115,-0.31
2021-08-19 23:13:13.056,-0.115,-0.32
2021-08-19 23:13:13.060,-0.12,-0.31
2021-08-19 23:13:13.064,-0.115,-0.31
2021-08-19 23:13:13.068,-0.12,-0.32
2021-08-19 23:13:13.072,-0.13,-0.33
2021-08-19 23:13:13.076,-0.14,-0.3
2021-08-19 23:13:13.080,-0.135,-0.32
2021-08-19 23:13:13.084,-0.135,-0.335
2021-08-19 23:13:13.088,-0.125,-0.33
2021-08-19 23:13:13.092,-0.12,-0.32
2021-08-19 23:13:13.096,-0.12,-0.32
2021-08-19 23:13:13.100,-0.13,-0.335
2021-08-19 23:13:13.104,-0.12,-0.335
2021-08-19 23:13:13.108,-0.14,-0.31
2021-08-19 23:13:13.112,-0.12,-0.32
2021-08-19 23:13:13.116,-0.105,-0.33
2021-08-19 23:13:13.120,-0.1,-0.31
2021-08-19 23:13:13.124,-0.12,-0.31
2021-08-19 23:13:13.128,-0.115,-0.315
2021-08-19 23:13:13.132,-0.125,-0.31
2021-08-19 23:13:13.136,-0.125,-0.31
2021-08-19 23:13:13.140,-0.13,-0.31
2021-08-19 23:13:13.144,-0.145,-0.32
2021-08-19 23:13:13.148,-0.11,-0.305
2021-08-19 23:13:13.152,-0.12,-0.32
2021-08-19 23:13:13.156,-0.12,-0.315
2021-08-19 23:13:13.160,-0.135,-0.33
2021-08-19 23:13:13.164,-0.13,-0.34
2021-08-19 23:13:13.168,-0.13,-0.33
2021-08-19 23:13:13.172,-0.115,-0.31
2021-08-19 23:13:13.176,-0.13,-0.315
2021-08-19 23:13:13.180,-0.135,-0.32
2021-08-19 23:13:13.184,-0.13,-0.32
2021-08-19 23:13:13.188,-0.135,-0.31
2021-08-19 23:13:13.192,-0.12,-0.32
2021-08-19 23:13:13.196,-0.12,-0.32
2021-08-19 23:13:13.200,-0.12,-0.335
2021-08-19 23:13:13.204,-0.14,-0.33
2021-08-19 23:13:13.208,-0.11,-0.325
2021-08-19 23:13:13.212,-0.12,-0.31
2021-08-19 23:13:13.216,-0.125,-0.31
2021-08-19 23:13:13.220,-0.13,-0.32
2021-08-19 23:13:13.224,-0.135,-0.32
2021-08-19 23:13:13.228,-0.135,-0.315
2021-08-19 23:13:13.232,-0.13,-0.31
2021-08-19 23:13:13.236,-0.14,-0.32
2021-08-19 23:13:13.240,-0.135,-0.31
2021-08-19 23:13:13.244,-0.13,-0.315
2021-08-19 23:13:13.248,-0.145,-0.31
2021-08-19 23:13:13.252,-0.125,-0.33
2021-08-19 23:13:13.256,-0.095,-0.33
2021-08-19 23:13:13.260,-0.135,-0.32
2021-08-19 23:13:13.264,-0.135,-0.33
2021-08-19 23:13:13.268,-0.16,-0.34
2021-08-19 23:13:13.272,-0.13,-0.34
2021-08-19 23:13:13.276,-0.13,-0.32
2021-08-19 23:13:13.280,-0.125,-0.335
2021-08-19 23:13:13.284,-0.135,-0.32
2021-08-19 23:13:13.288,-0.14,-0.33
2021-08-19 23:13:13.292,-0.14,-0.345
2021-08-19 23:13:13.296,-0.13,-0.32
2021-08-19 23:13:13.300,-0.14,-0.31
2021-08-19 23:13:13.304,-0.135,-0.31
2021-08-19 23:13:13.308,-0.13,-0.315
2021-08-19 23:13:13.312,-0.14,-0.32
2021-08-19 23:13:13.316,-0.125,-0.31
2021-08-19 23:13:13.320,-0.115,-0.33
2021-08-19 23:13:13.324,-0.15,-0.335
2021-08-19 23:13:13.328,-0.15,-0.335
2021-08-19 23:13:13.332,-0.12,-0.34
2021-08-19 23:13:13.336,-0.145,-0.32
2021-08-19 23:13:13.340,-0.16,-0.31
2021-08-19 23:13:13.344,-0.16,-0.315
2021-08-19 23:13:13.348,-0.11,-0.32
2021-08-19 23:13:13.352,-0.155,-0.33
2021-08-19 23:13:13.356,-0.135,-0.335
2021-08-19 23:13:13.360,-0.135,-0.31
2021-08-19 23:13:13.364,-0.15,-0.32
2021-08-19 23:13:13.368,-0.13,-0.3
2021-08-19 23:13:13.372,-0.14,-0.32
2021-08-19 23:13:13.376,-0.16,-0.33
2021-08-19 23:13:13.380,-0.15,-0.38
2021-08-19 23:13:13.384,-0.14,-0.46
2021-08-19 23:13:13.388,-0.13,-0.48
2021-08-19 23:13:13.392,-0.12,-0.36
2021-08-19 23:13:13.396,-0.125,-0.025
2021-08-19 23:13:13.400,-0.08,0.42
2021-08-19 23:13:13.404,-0.02,0.955
2021-08-19 23:13:13.408,0.075,1.535
2021-08-19 23:13:13.428,0.15,1.3
2021-08-19 23:13:13.432,0.06,0.74
2021-08-19 23:13:13.436,-0.08,0.34
2021-08-19 23:13:13.440,-0.23,0.15
2021-08-19 23:13:13.444,-0.3,0.025
2021-08-19 23:13:13.448,-0.29,-0.04
2021-08-19 23:13:13.452,-0.25,-0.12
2021-08-19 23:13:13.456,-0.19,-0.185
2021-08-19 23:13:13.460,-0.15,-0.24
2021-08-19 23:13:13.464,-0.16,-0.3
2021-08-19 23:13:13.468,-0.17,-0.34
2021-08-19 23:13:13.472,-0.165,-0.37
2021-08-19 23:13:13.476,-0.17,-0.36
2021-08-19 23:13:13.480,-0.155,-0.39
2021-08-19 23:13:13.484,-0.16,-0.41
2021-08-19 23:13:13.488,-0.145,-0.425
2021-08-19 23:13:13.492,-0.175,-0.435
2021-08-19 23:13:13.496,-0.16,-0.45
2021-08-19 23:13:13.500,-0.15,-0.43
2021-08-19 23:13:13.504,-0.16,-0.44
2021-08-19 23:13:13.508,-0.155,-0.435
2021-08-19 23:13:13.512,-0.165,-0.455
2021-08-19 23:13:13.516,-0.15,-0.44
2021-08-19 23:13:13.520,-0.15,-0.475
2021-08-19 23:13:13.524,-0.14,-0.47
2021-08-19 23:13:13.528,-0.16,-0.465
2021-08-19 23:13:13.532,-0.18,-0.45
2021-08-19 23:13:13.536,-0.16,-0.465
2021-08-19 23:13:13.540,-0.15,-0.46
2021-08-19 23:13:13.544,-0.14,-0.47
2021-08-19 23:13:13.548,-0.15,-0.485
2021-08-19 23:13:13.552,-0.145,-0.475
2021-08-19 23:13:13.556,-0.155,-0.485
2021-08-19 23:13:13.560,-0.16,-0.48
2021-08-19 23:13:13.564,-0.165,-0.48
2021-08-19 23:13:13.568,-0.15,-0.485
2021-08-19 23:13:13.572,-0.16,-0.485
2021-08-19 23:13:13.576,-0.16,-0.515
2021-08-19 23:13:13.580,-0.16,-0.495
2021-08-19 23:13:13.584,-0.155,-0.495
2021-08-19 23:13:13.588,-0.155,-0.495
2021-08-19 23:13:13.592,-0.13,-0.48
2021-08-19 23:13:13.596,-0.13,-0.48
2021-08-19 23:13:13.600,-0.13,-0.505
2021-08-19 23:13:13.604,-0.125,-0.51
2021-08-19 23:13:13.608,-0.115,-0.51
2021-08-19 23:13:13.612,-0.1,-0.505
2021-08-19 23:13:13.616,-0.11,-0.525
2021-08-19 23:13:13.620,-0.1,-0.5
2021-08-19 23:13:13.624,-0.11,-0.505
2021-08-19 23:13:13.628,-0.105,-0.49
2021-08-19 23:13:13.632,-0.09,-0.5
2021-08-19 23:13:13.636,-0.09,-0.49
2021-08-19 23:13:13.640,-0.075,-0.48
2021-08-19 23:13:13.644,-0.06,-0.48
2021-08-19 23:13:13.648,-0.055,-0.5
2021-08-19 23:13:13.652,-0.06,-0.49
2021-08-19 23:13:13.656,-0.025,-0.485
2021-08-19 23:13:13.660,-0.035,-0.465
2021-08-19 23:13:13.664,-0.02,-0.465
2021-08-19 23:13:13.668,-0.025,-0.475
2021-08-19 23:13:13.672,-0.02,-0.47
2021-08-19 23:13:13.676,0.0,-0.46
2021-08-19 23:13:13.680,-0.01,-0.475
2021-08-19 23:13:13.684,0.0,-0.445
2021-08-19 23:13:13.688,0.005,-0.44
2021-08-19 23:13:13.692,0.02,-0.47
2021-08-19 23:13:13.696,0.005,-0.47
2021-08-19 23:13:13.700,0.0,-0.455
2021-08-19 23:13:13.704,0.035,-0.425
2021-08-19 23:13:13.708,0.005,-0.44
2021-08-19 23:13:13.712,0.015,-0.435
2021-08-19 23:13:13.716,0.025,-0.44
2021-08-19 23:13:13.720,0.02,-0.44
2021-08-19 23:13:13.724,0.01,-0.42
2021-08-19 23:13:13.728,0.015,-0.425
2021-08-19 23:13:13.732,0.0,-0.4
2021-08-19 23:13:13.736,0.025,-0.36
2021-08-19 23:13:13.740,0.005,-0.34
2021-08-19 23:13:13.744,0.0,-0.345
2021-08-19 23:13:13.748,0.01,-0.33
2021-08-19 23:13:13.752,-0.01,-0.305
2021-08-19 23:13:13.756,-0.01,-0.28
2021-08-19 23:13:13.760,-0.025,-0.275
2021-08-19 23:13:13.764,-0.025,-0.255
2021-08-19 23:13:13.768,-0.05,-0.24
2021-08-19 23:13:13.772,-0.03,-0.23
2021-08-19 23:13:13.776,-0.03,-0.215
2021-08-19 23:13:13.780,-0.04,-0.195
2021-08-19 23:13:13.784,-0.045,-0.22
2021-08-19 23:13:13.788,-0.06,-0.2
2021-08-19 23:13:13.792,-0.07,-0.2
2021-08-19 23:13:13.796,-0.045,-0.19
2021-08-19 23:13:13.800,-0.07,-0.205
2021-08-19 23:13:13.804,-0.065,-0.185
2021-08-19 23:13:13.808,-0.065,-0.175
2021-08-19 23:13:13.812,-0.07,-0.165
2021-08-19 23:13:13.816,-0.065,-0.185
2021-08-19 23:13:13.820,-0.06,-0.195
2021-08-19 23:13:13.824,-0.07,-0.19
2021-08-19 23:13:13.828,-0.07,-0.18
2021-08-19 23:13:13.832,-0.08,-0.195
2021-08-19 23:13:13.836,-0.08,-0.185
2021-08-19 23:13:13.840,-0.085,-0.21
2021-08-19 23:13:13.844,-0.075,-0.2
2021-08-19 23:13:13.848,-0.085,-0.195
2021-08-19 23:13:13.852,-0.085,-0.225
2021-08-19 23:13:13.856,-0.08,-0.235
2021-08-19 23:13:13.860,-0.07,-0.22
2021-08-19 23:13:13.864,-0.08,-0.22
2021-08-19 23:13:13.868,-0.08,-0.23
2021-08-19 23:13:13.872,-0.08,-0.24
2021-08-19 23:13:13.876,-0.065,-0.23
2021-08-19 23:13:13.880,-0.085,-0.265
2021-08-19 23:13:13.884,-0.1,-0.255
2021-08-19 23:13:13.888,-0.09,-0.275
2021-08-19 23:13:13.892,-0.1,-0.28
2021-08-19 23:13:13.896,-0.065,-0.27
2021-08-19 23:13:13.900,-0.075,-0.285
2021-08-19 23:13:13.904,-0.11,-0.26
2021-08-19 23:13:13.908,-0.105,-0.26
2021-08-19 23:13:13.912,-0.11,-0.29
2021-08-19 23:13:13.916,-0.095,-0.295
2021-08-19 23:13:13.920,-0.105,-0.3
2021-08-19 23:13:13.924,-0.11,-0.27
2021-08-19 23:13:13.928,-0.115,-0.27
2021-08-19 23:13:13.932,-0.115,-0.3
2021-08-19 23:13:13.936,-0.12,-0.305
2021-08-19 23:13:13.940,-0.12,-0.32
2021-08-19 23:13:13.944,-0.12,-0.31
2021-08-19 23:13:13.948,-0.12,-0.32
2021-08-19 23:13:13.952,-0.13,-0.31
2021-08-19 23:13:13.956,-0.12,-0.28
2021-08-19 23:13:13.960,-0.125,-0.28
2021-08-19 23:13:13.964,-0.125,-0.265
2021-08-19 23:13:13.968,-0.11,-0.25
2021-08-19 23:13:13.972,-0.1,-0.235
2021-08-19 23:13:13.976,-0.09,-0.235
2021-08-19 23:13:13.980,-0.08,-0.26
2021-08-19 23:13:13.984,-0.08,-0.265
2021-08-19 23:13:13.988,-0.09,-0.225
2021-08-19 23:13:13.992,-0.08,-0.21
2021-08-19 23:13:13.996,-0.075,-0.21
2021-08-19 23:13:14.000,-0.08,-0.205
2021-08-19 23:13:14.004,-0.105,-0.2
2021-08-19 23:13:14.008,-0.105,-0.225
2021-08-19 23:13:14.012,-0.09,-0.255
2021-08-19 23:13:14.016,-0.125,-0.265
2021-08-19 23:13:14.020,-0.125,-0.275
2021-08-19 23:13:14.024,-0.15,-0.29
2021-08-19 23:13:14.028,-0.16,-0.25
2021-08-19 23:13:14.032,-0.16,-0.26
2021-08-19 23:13:14.036,-0.175,-0.265
2021-08-19 23:13:14.040,-0.17,-0.3
2021-08-19 23:13:14.044,-0.18,-0.29
2021-08-19 23:13:14.048,-0.155,-0.28
2021-08-19 23:13:14.052,-0.155,-0.305
2021-08-19 23:13:14.056,-0.12,-0.34
2021-08-19 23:13:14.060,-0.15,-0.37
2021-08-19 23:13:14.064,-0.16,-0.36
2021-08-19 23:13:14.068,-0.145,-0.35
2021-08-19 23:13:14.072,-0.155,-0.375
2021-08-19 23:13:14.076,-0.17,-0.37
2021-08-19 23:13:14.080,-0.145,-0.395
2021-08-19 23:13:14.084,-0.155,-0.37
2021-08-19 23:13:14.088,-0.17,-0.39
2021-08-19 23:13:14.092,-0.15,-0.4
2021-08-19 23:13:14.096,-0.155,-0.385
2021-08-19 23:13:14.100,-0.185,-0.4
2021-08-19 23:13:14.104,-0.18,-0.42
2021-08-19 23:13:14.108,-0.175,-0.405
2021-08-19 23:13:14.112,-0.175,-0.395
2021-08-19 23:13:14.116,-0.155,-0.395
2021-08-19 23:13:14.120,-0.16,-0.395
2021-08-19 23:13:14.124,-0.165,-0.38
2021-08-19 23:13:14.128,-0.155,-0.4
2021-08-19 23:13:14.132,-0.16,-0.395
2021-08-19 23:13:14.136,-0.175,-0.425
2021-08-19 23:13:14.140,-0.155,-0.53
2021-08-19 23:13:14.144,-0.18,-0.65
2021-08-19 23:13:14.148,-0.16,-0.73
2021-08-19 23:13:14.152,-0.19,-0.62
2021-08-19 23:13:14.156,-0.175,-0.355
2021-08-19 23:13:14.160,-0.135,0.095
2021-08-19 23:13:14.164,-0.085,0.64
2021-08-19 23:13:14.168,0.035,1.275
2021-08-19 23:13:14.172,0.145,1.915
2021-08-19 23:13:14.188,0.315,1.645
2021-08-19 23:13:14.192,0.255,0.995
2021-08-19 23:13:14.196,0.105,0.495
2021-08-19 23:13:14.200,-0.07,0.16
2021-08-19 23:13:14.204,-0.22,0.0
2021-08-19 23:13:14.208,-0.29,-0.095
2021-08-19 23:13:14.212,-0.3,-0.16
2021-08-19 23:13:14.216,-0.245,-0.24
2021-08-19 23:13:14.220,-0.195,-0.295
2021-08-19 23:13:14.224,-0.155,-0.325
2021-08-19 23:13:14.228,-0.16,-0.375
2021-08-19 23:13:14.232,-0.16,-0.41
2021-08-19 23:13:14.236,-0.155,-0.42
2021-08-19 23:13:14.240,-0.16,-0.45
2021-08-19 23:13:14.244,-0.15,-0.455
2021-08-19 23:13:14.248,-0.15,-0.455
2021-08-19 23:13:14.252,-0.18,-0.46
2021-08-19 23:13:14.256,-0.155,-0.475
2021-08-19 23:13:14.260,-0.15,-0.48
2021-08-19 23:13:14.264,-0.155,-0.475
2021-08-19 23:13:14.268,-0.135,-0.49
2021-08-19 23:13:14.272,-0.135,-0.505
2021-08-19 23:13:14.276,-0.15,-0.48
2021-08-19 23:13:14.280,-0.145,-0.47
2021-08-19 23:13:14.284,-0.135,-0.48
2021-08-19 23:13:14.288,-0.15,-0.5
2021-08-19 23:13:14.292,-0.15,-0.505
2021-08-19 23:13:14.296,-0.165,-0.485
2021-08-19 23:13:14.300,-0.17,-0.5
2021-08-19 23:13:14.304,-0.135,-0.51
2021-08-19 23:13:14.308,-0.14,-0.5
2021-08-19 23:13:14.312,-0.15,-0.505
2021-08-19 23:13:14.316,-0.165,-0.52
2021-08-19 23:13:14.320,-0.135,-0.515
2021-08-19 23:13:14.324,-0.15,-0.505
2021-08-19 23:13:14.328,-0.145,-0.525
2021-08-19 23:13:14.332,-0.16,-0.515
2021-08-19 23:13:14.336,-0.135,-0.51
2021-08-19 23:13:14.340,-0.14,-0.525
2021-08-19 23:13:14.344,-0.135,-0.51
2021-08-19 23:13:14.348,-0.13,-0.51
2021-08-19 23:13:14.352,-0.125,-0.5
2021-08-19 23:13:14.356,-0.13,-0.5
2021-08-19 23:13:14.360,-0.14,-0.505
2021-08-19 23:13:14.364,-0.12,-0.52
2021-08-19 23:13:14.368,-0.135,-0.51
2021-08-19 23:13:14.372,-0.105,-0.51
2021-08-19 23:13:14.376,-0.105,-0.5
2021-08-19 23:13:14.380,-0.12,-0.51
2021-08-19 23:13:14.384,-0.105,-0.49
2021-08-19 23:13:14.388,-0.12,-0.49
2021-08-19 23:13:14.392,-0.09,-0.495
2021-08-19 23:13:14.396,-0.08,-0.515
2021-08-19 23:13:14.400,-0.08,-0.49
2021-08-19 23:13:14.404,-0.1,-0.5
2021-08-19 23:13:14.408,-0.055,-0.5
2021-08-19 23:13:14.412,-0.065,-0.49
2021-08-19 23:13:14.416,-0.06,-0.49
2021-08-19 23:13:14.420,-0.05,-0.49
2021-08-19 23:13:14.424,-0.055,-0.485
2021-08-19 23:13:14.428,-0.04,-0.475
2021-08-19 23:13:14.432,-0.04,-0.5
2021-08-19 23:13:14.436,-0.045,-0.505
2021-08-19 23:13:14.440,-0.03,-0.505
2021-08-19 23:13:14.444,-0.04,-0.49
2021-08-19 23:13:14.448,-0.015,-0.525
2021-08-19 23:13:14.452,-0.015,-0.52
2021-08-19 23:13:14.456,-0.045,-0.505
2021-08-19 23:13:14.460,-0.005,-0.53
2021-08-19 23:13:14.464,0.0,-0.505
2021-08-19 23:13:14.468,-0.03,-0.505
2021-08-19 23:13:14.472,-0.01,-0.52
2021-08-19 23:13:14.476,-0.01,-0.5
2021-08-19 23:13:14.480,-0.03,-0.51
2021-08-19 23:13:14.484,-0.02,-0.515
2021-08-19 23:13:14.488,-0.035,-0.495
2021-08-19 23:13:14.492,-0.045,-0.48
2021-08-19 23:13:14.496,-0.05,-0.485
2021-08-19 23:13:14.500,-0.055,-0.47
2021-08-19 23:13:14.504,-0.055,-0.44
2021-08-19 23:13:14.508,-0.06,-0.445
2021-08-19 23:13:14.512,-0.055,-0.425
2021-08-19 23:13:14.516,-0.07,-0.41
2021-08-19 23:13:14.520,-0.1,-0.38
2021-08-19 23:13:14.524,-0.1,-0.355
2021-08-19 23:13:14.528,-0.115,-0.335
2021-08-19 23:13:14.532,-0.095,-0.34
2021-08-19 23:13:14.536,-0.105,-0.315
2021-08-19 23:13:14.540,-0.115,-0.315
2021-08-19 23:13:14.544,-0.11,-0.335
2021-08-19 23:13:14.548,-0.115,-0.35
2021-08-19 23:13:14.552,-0.115,-0.35
2021-08-19 23:13:14.556,-0.12,-0.345
2021-08-19 23:13:14.560,-0.12,-0.345
2021-08-19 23:13:14.564,-0.13,-0.34
2021-08-19 23:13:14.568,-0.13,-0.355
2021-08-19 23:13:14.572,-0.115,-0.35
2021-08-19 23:13:14.576,-0.145,-0.355
2021-08-19 23:13:14.580,-0.135,-0.35
2021-08-19 23:13:14.584,-0.14,-0.35
2021-08-19 23:13:14.588,-0.15,-0.375
2021-08-19 23:13:14.592,-0.15,-0.365
2021-08-19 23:13:14.596,-0.13,-0.375
2021-08-19 23:13:14.600,-0.14,-0.375
2021-08-19 23:13:14.604,-0.14,-0.37
2021-08-19 23:13:14.608,-0.125,-0.37
2021-08-19 23:13:14.612,-0.12,-0.36
2021-08-19 23:13:14.616,-0.125,-0.39
2021-08-19 23:13:14.620,-0.12,-0.35
2021-08-19 23:13:14.624,-0.135,-0.355
2021-08-19 23:13:14.628,-0.135,-0.37
2021-08-19 23:13:14.632,-0.12,-0.365
2021-08-19 23:13:14.636,-0.105,-0.345
2021-08-19 23:13:14.640,-0.14,-0.38
2021-08-19 23:13:14.644,-0.13,-0.35
2021-08-19 23:13:14.648,-0.115,-0.36
2021-08-19 23:13:14.652,-0.11,-0.35
2021-08-19 23:13:14.656,-0.115,-0.36
2021-08-19 23:13:14.660,-0.13,-0.375
2021-08-19 23:13:14.664,-0.12,-0.365
2021-08-19 23:13:14.668,-0.14,-0.365
2021-08-19 23:13:14.672,-0.115,-0.355
2021-08-19 23:13:14.676,-0.12,-0.36
2021-08-19 23:13:14.680,-0.125,-0.32
2021-08-19 23:13:14.684,-0.11,-0.35
2021-08-19 23:13:14.688,-0.125,-0.35
2021-08-19 23:13:14.692,-0.135,-0.335
2021-08-19 23:13:14.696,-0.14,-0.345
2021-08-19 23:13:14.700,-0.13,-0.36
2021-08-19 23:13:14.704,-0.125,-0.35
2021-08-19 23:13:14.708,-0.135,-0.345
2021-08-19 23:13:14.712,-0.125,-0.33
2021-08-19 23:13:14.716,-0.14,-0.355
2021-08-19 23:13:14.720,-0.15,-0.34
2021-08-19 23:13:14.724,-0.13,-0.365
2021-08-19 23:13:14.728,-0.13,-0.33
2021-08-19 23:13:14.732,-0.125,-0.33
2021-08-19 23:13:14.736,-0.12,-0.335
