Time,ECG1,ECG2
2021-08-01 00:42:08.500,0.46,-0.635
2021-08-01 00:42:08.504,0.455,-0.65
2021-08-01 00:42:08.508,0.455,-0.63
2021-08-01 00:42:08.512,0.475,-0.635
2021-08-01 00:42:08.516,0.465,-0.655
2021-08-01 00:42:08.520,0.455,-0.66
2021-08-01 00:42:08.524,0.455,-0.64
2021-08-01 00:42:08.528,0.45,-0.655
2021-08-01 00:42:08.532,0.46,-0.64
2021-08-01 00:42:08.536,0.455,-0.635
2021-08-01 00:42:08.540,0.45,-0.64
2021-08-01 00:42:08.544,0.44,-0.64
2021-08-01 00:42:08.548,0.445,-0.64
2021-08-01 00:42:08.552,0.46,-0.625
2021-08-01 00:42:08.556,0.44,-0.615
2021-08-01 00:42:08.560,0.415,-0.625
2021-08-01 00:42:08.564,0.435,-0.65
2021-08-01 00:42:08.568,0.41,-0.61
2021-08-01 00:42:08.572,0.43,-0.59
2021-08-01 00:42:08.576,0.43,-0.575
2021-08-01 00:42:08.580,0.46,-0.55
2021-08-01 00:42:08.584,0.495,-0.545
2021-08-01 00:42:08.588,0.52,-0.58
2021-08-01 00:42:08.592,0.54,-0.615
2021-08-01 00:42:08.596,0.54,-0.64
2021-08-01 00:42:08.600,0.505,-0.665
2021-08-01 00:42:08.604,0.495,-0.67
2021-08-01 00:42:08.608,0.475,-0.67
2021-08-01 00:42:08.612,0.46,-0.68
2021-08-01 00:42:08.616,0.435,-0.675
2021-08-01 00:42:08.620,0.415,-0.705
2021-08-01 00:42:08.624,0.43,-0.7
2021-08-01 00:42:08.628,0.435,-0.68
2021-08-01 00:42:08.632,0.425,-0.7
2021-08-01 00:42:08.636,0.405,-0.695
2021-08-01 00:42:08.640,0.425,-0.7
2021-08-01 00:42:08.644,0.405,-0.695
2021-08-01 00:42:08.648,0.395,-0.685
2021-08-01 00:42:08.652,0.42,-0.705
2021-08-01 00:42:08.656,0.43,-0.685
2021-08-01 00:42:08.660,0.42,-0.665
2021-08-01 00:42:08.664,0.415,-0.685
2021-08-01 00:42:08.668,0.4,-0.665
2021-08-01 00:42:08.672,0.405,-0.665
2021-08-01 00:42:08.676,0.425,-0.685
2021-08-01 00:42:08.680,0.415,-0.655
2021-08-01 00:42:08.684,0.42,-0.645
2021-08-01 00:42:08.688,0.415,-0.63
2021-08-01 00:42:08.692,0.415,-0.61
2021-08-01 00:42:08.696,0.4,-0.56
2021-08-01 00:42:08.700,0.39,-0.48
2021-08-01 00:42:08.704,0.425,-0.345
2021-08-01 00:42:08.708,0.455,-0.165
2021-08-01 00:42:08.712,0.51,0.15
2021-08-01 00:42:08.716,0.52,0.415
2021-08-01 00:42:08.720,0.4,0.59
2021-08-01 00:42:08.724,0.11,0.755
2021-08-01 00:42:08.728,-0.385,0.98
2021-08-01 00:42:08.732,-1.05,1.24
2021-08-01 00:42:08.736,-1.685,1.39
2021-08-01 00:42:08.764,-1.885,1.265
2021-08-01 00:42:08.768,-1.715,1.215
2021-08-01 00:42:08.772,-1.52,1.255
2021-08-01 00:42:08.776,-1.43,1.285
2021-08-01 00:42:08.780,-1.32,1.3
2021-08-01 00:42:08.784,-1.16,1.12
2021-08-01 00:42:08.788,-1.01,0.675
2021-08-01 00:42:08.792,-0.9,0.07
2021-08-01 00:42:08.796,-0.81,-0.4
2021-08-01 00:42:08.800,-0.675,-0.68
2021-08-01 00:42:08.804,-0.53,-0.855
2021-08-01 00:42:08.808,-0.385,-0.885
2021-08-01 00:42:08.812,-0.23,-0.87
2021-08-01 00:42:08.816,-0.03,-0.845
2021-08-01 00:42:08.820,0.14,-0.81
2021-08-01 00:42:08.824,0.325,-0.775
2021-08-01 00:42:08.828,0.495,-0.78
2021-08-01 00:42:08.832,0.635,-0.79
2021-08-01 00:42:08.836,0.72,-0.785
2021-08-01 00:42:08.840,0.765,-0.795
2021-08-01 00:42:08.844,0.79,-0.795
2021-08-01 00:42:08.848,0.83,-0.805
2021-08-01 00:42:08.852,0.855,-0.795
2021-08-01 00:42:08.856,0.885,-0.795
2021-08-01 00:42:08.860,0.895,-0.805
2021-08-01 00:42:08.864,0.935,-0.8
2021-08-01 00:42:08.868,0.92,-0.81
2021-08-01 00:42:08.872,0.945,-0.78
2021-08-01 00:42:08.876,0.94,-0.795
2021-08-01 00:42:08.880,0.96,-0.81
2021-08-01 00:42:08.884,0.965,-0.81
2021-08-01 00:42:08.888,0.985,-0.825
2021-08-01 00:42:08.892,0.96,-0.795
2021-08-01 00:42:08.896,0.99,-0.805
2021-08-01 00:42:08.900,1.015,-0.8
2021-08-01 00:42:08.904,1.035,-0.79
2021-08-01 00:42:08.908,1.03,-0.79
2021-08-01 00:42:08.912,1.045,-0.805
2021-08-01 00:42:08.916,1.07,-0.81
2021-08-01 00:42:08.920,1.075,-0.815
2021-08-01 00:42:08.924,1.09,-0.82
2021-08-01 00:42:08.928,1.125,-0.865
2021-08-01 00:42:08.932,1.125,-0.84
2021-08-01 00:42:08.936,1.15,-0.845
2021-08-01 00:42:08.940,1.17,-0.855
2021-08-01 00:42:08.944,1.17,-0.865
2021-08-01 00:42:08.948,1.205,-0.875
2021-08-01 00:42:08.952,1.23,-0.86
2021-08-01 00:42:08.956,1.24,-0.865
2021-08-01 00:42:08.960,1.275,-0.87
2021-08-01 00:42:08.964,1.285,-0.895
2021-08-01 00:42:08.968,1.31,-0.905
2021-08-01 00:42:08.972,1.33,-0.875
2021-08-01 00:42:08.976,1.315,-0.87
2021-08-01 00:42:08.980,1.33,-0.865
2021-08-01 00:42:08.984,1.345,-0.85
2021-08-01 00:42:08.988,1.305,-0.8
2021-08-01 00:42:08.992,1.3,-0.8
2021-08-01 00:42:08.996,1.285,-0.78
2021-08-01 00:42:09.000,1.255,-0.735
2021-08-01 00:42:09.004,1.245,-0.69
2021-08-01 00:42:09.008,1.205,-0.665
2021-08-01 00:42:09.012,1.15,-0.615
2021-08-01 00:42:09.016,1.12,-0.585
2021-08-01 00:42:09.020,1.065,-0.55
2021-08-01 00:42:09.024,1.02,-0.49
2021-08-01 00:42:09.028,0.995,-0.45
2021-08-01 00:42:09.032,0.95,-0.435
2021-08-01 00:42:09.036,0.92,-0.38
2021-08-01 00:42:09.040,0.875,-0.375
2021-08-01 00:42:09.044,0.84,-0.37
2021-08-01 00:42:09.048,0.78,-0.365
2021-08-01 00:42:09.052,0.74,-0.355
2021-08-01 00:42:09.056,0.725,-0.335
2021-08-01 00:42:09.060,0.67,-0.35
2021-08-01 00:42:09.064,0.635,-0.37
2021-08-01 00:42:09.068,0.615,-0.365
2021-08-01 00:42:09.072,0.615,-0.36
2021-08-01 00:42:09.076,0.59,-0.36
2021-08-01 00:42:09.080,0.56,-0.365
2021-08-01 00:42:09.084,0.54,-0.38
2021-08-01 00:42:09.088,0.525,-0.385
2021-08-01 00:42:09.092,0.52,-0.39
2021-08-01 00:42:09.096,0.5,-0.41
2021-08-01 00:42:09.100,0.52,-0.41
2021-08-01 00:42:09.104,0.535,-0.4
2021-08-01 00:42:09.108,0.495,-0.42
2021-08-01 00:42:09.112,0.505,-0.43
2021-08-01 00:42:09.116,0.51,-0.455
2021-08-01 00:42:09.120,0.505,-0.44
2021-08-01 00:42:09.124,0.525,-0.465
2021-08-01 00:42:09.128,0.51,-0.475
2021-08-01 00:42:09.132,0.5,-0.485
2021-08-01 00:42:09.136,0.505,-0.475
2021-08-01 00:42:09.140,0.495,-0.495
2021-08-01 00:42:09.144,0.505,-0.51
2021-08-01 00:42:09.148,0.495,-0.495
2021-08-01 00:42:09.152,0.515,-0.5
2021-08-01 00:42:09.156,0.5,-0.48
2021-08-01 00:42:09.160,0.51,-0.5
2021-08-01 00:42:09.164,0.5,-0.535
2021-08-01 00:42:09.168,0.51,-0.55
2021-08-01 00:42:09.172,0.52,-0.54
2021-08-01 00:42:09.176,0.5,-0.545
2021-08-01 00:42:09.180,0.495,-0.545
2021-08-01 00:42:09.184,0.505,-0.54
2021-08-01 00:42:09.188,0.515,-0.555
2021-08-01 00:42:09.192,0.51,-0.565
2021-08-01 00:42:09.196,0.495,-0.565
2021-08-01 00:42:09.200,0.47,-0.545
2021-08-01 00:42:09.204,0.5,-0.545
2021-08-01 00:42:09.208,0.495,-0.55
2021-08-01 00:42:09.212,0.48,-0.555
2021-08-01 00:42:09.216,0.495,-0.56
2021-08-01 00:42:09.220,0.485,-0.555
2021-08-01 00:42:09.224,0.475,-0.565
2021-08-01 00:42:09.228,0.485,-0.56
2021-08-01 00:42:09.232,0.465,-0.525
2021-08-01 00:42:09.236,0.47,-0.54
2021-08-01 00:42:09.240,0.455,-0.535
2021-08-01 00:42:09.244,0.455,-0.55
2021-08-01 00:42:09.248,0.435,-0.52
2021-08-01 00:42:09.252,0.445,-0.53
2021-08-01 00:42:09.256,0.43,-0.52
2021-08-01 00:42:09.260,0.425,-0.565
2021-08-01 00:42:09.264,0.43,-0.545
2021-08-01 00:42:09.268,0.43,-0.505
2021-08-01 00:42:09.272,0.415,-0.495
2021-08-01 00:42:09.276,0.425,-0.495
2021-08-01 00:42:09.280,0.43,-0.5
2021-08-01 00:42:09.284,0.43,-0.5
2021-08-01 00:42:09.288,0.425,-0.5
2021-08-01 00:42:09.292,0.4,-0.52
2021-08-01 00:42:09.296,0.41,-0.515
2021-08-01 00:42:09.300,0.41,-0.53
2021-08-01 00:42:09.304,0.405,-0.52
2021-08-01 00:42:09.308,0.4,-0.52
2021-08-01 00:42:09.312,0.405,-0.53
2021-08-01 00:42:09.316,0.385,-0.525
2021-08-01 00:42:09.320,0.38,-0.505
2021-08-01 00:42:09.324,0.38,-0.505
2021-08-01 00:42:09.328,0.41,-0.54
2021-08-01 00:42:09.332,0.41,-0.52
2021-08-01 00:42:09.336,0.395,-0.53
2021-08-01 00:42:09.340,0.39,-0.545
2021-08-01 00:42:09.344,0.37,-0.545
2021-08-01 00:42:09.348,0.41,-0.51
2021-08-01 00:42:09.352,0.385,-0.52
2021-08-01 00:42:09.356,0.39,-0.535
2021-08-01 00:42:09.360,0.395,-0.555
2021-08-01 00:42:09.364,0.38,-0.555
2021-08-01 00:42:09.368,0.395,-0.52
2021-08-01 00:42:09.372,0.385,-0.525
2021-08-01 00:42:09.376,0.375,-0.555
2021-08-01 00:42:09.380,0.385,-0.54
2021-08-01 00:42:09.384,0.395,-0.53
2021-08-01 00:42:09.388,0.395,-0.525
2021-08-01 00:42:09.392,0.38,-0.52
2021-08-01 00:42:09.396,0.375,-0.545
2021-08-01 00:42:09.400,0.37,-0.53
2021-08-01 00:42:09.404,0.4,-0.535
2021-08-01 00:42:09.408,0.395,-0.535
2021-08-01 00:42:09.412,0.395,-0.54
2021-08-01 00:42:09.416,0.395,-0.535
2021-08-01 00:42:09.420,0.38,-0.52
2021-08-01 00:42:09.424,0.4,-0.54
2021-08-01 00:42:09.428,0.395,-0.565
2021-08-01 00:42:09.432,0.4,-0.545
2021-08-01 00:42:09.436,0.38,-0.51
2021-08-01 00:42:09.440,0.385,-0.545
2021-08-01 00:42:09.444,0.39,-0.545
2021-08-01 00:42:09.448,0.395,-0.54
2021-08-01 00:42:09.452,0.405,-0.52
2021-08-01 00:42:09.456,0.39,-0.53
2021-08-01 00:42:09.460,0.38,-0.54
2021-08-01 00:42:09.464,0.375,-0.5
2021-08-01 00:42:09.468,0.375,-0.46
2021-08-01 00:42:09.472,0.395,-0.465
2021-08-01 00:42:09.476,0.4,-0.475
2021-08-01 00:42:09.480,0.4,-0.445
2021-08-01 00:42:09.484,0.4,-0.435
2021-08-01 00:42:09.488,0.39,-0.425
2021-08-01 00:42:09.492,0.375,-0.42
2021-08-01 00:42:09.496,0.39,-0.43
2021-08-01 00:42:09.500,0.39,-0.415
2021-08-01 00:42:09.504,0.39,-0.4
2021-08-01 00:42:09.508,0.385,-0.4
2021-08-01 00:42:09.512,0.4,-0.4
2021-08-01 00:42:09.516,0.4,-0.38
2021-08-01 00:42:09.520,0.395,-0.385
2021-08-01 00:42:09.524,0.4,-0.38
2021-08-01 00:42:09.528,0.39,-0.375
2021-08-01 00:42:09.532,0.38,-0.345
2021-08-01 00:42:09.536,0.39,-0.325
2021-08-01 00:42:09.540,0.38,-0.35
2021-08-01 00:42:09.544,0.385,-0.335
2021-08-01 00:42:09.548,0.355,-0.32
2021-08-01 00:42:09.552,0.355,-0.305
2021-08-01 00:42:09.556,0.325,-0.315
2021-08-01 00:42:09.560,0.335,-0.285
2021-08-01 00:42:09.564,0.35,-0.24
2021-08-01 00:42:09.568,0.37,-0.2
2021-08-01 00:42:09.572,0.395,-0.19
2021-08-01 00:42:09.576,0.445,-0.245
2021-08-01 00:42:09.580,0.475,-0.25
2021-08-01 00:42:09.584,0.49,-0.26
2021-08-01 00:42:09.588,0.455,-0.295
2021-08-01 00:42:09.592,0.42,-0.305
2021-08-01 00:42:09.596,0.415,-0.315
2021-08-01 00:42:09.600,0.4,-0.315
2021-08-01 00:42:09.604,0.375,-0.335
2021-08-01 00:42:09.608,0.355,-0.365
2021-08-01 00:42:09.612,0.36,-0.36
2021-08-01 00:42:09.616,0.355,-0.325
2021-08-01 00:42:09.620,0.345,-0.35
2021-08-01 00:42:09.624,0.355,-0.345
2021-08-01 00:42:09.628,0.335,-0.33
2021-08-01 00:42:09.632,0.335,-0.325
2021-08-01 00:42:09.636,0.325,-0.335
2021-08-01 00:42:09.640,0.31,-0.33
2021-08-01 00:42:09.644,0.35,-0.325
2021-08-01 00:42:09.648,0.325,-0.31
2021-08-01 00:42:09.652,0.32,-0.31
2021-08-01 00:42:09.656,0.325,-0.315
2021-08-01 00:42:09.660,0.345,-0.32
2021-08-01 00:42:09.664,0.34,-0.285
2021-08-01 00:42:09.668,0.335,-0.275
2021-08-01 00:42:09.672,0.315,-0.29
2021-08-01 00:42:09.676,0.33,-0.295
2021-08-01 00:42:09.680,0.33,-0.26
2021-08-01 00:42:09.684,0.35,-0.22
2021-08-01 00:42:09.688,0.345,-0.145
2021-08-01 00:42:09.692,0.345,-0.005
2021-08-01 00:42:09.696,0.35,0.185
2021-08-01 00:42:09.700,0.425,0.495
2021-08-01 00:42:09.704,0.46,0.775
2021-08-01 00:42:09.708,0.33,0.94
2021-08-01 00:42:09.712,0.065,1.085
2021-08-01 00:42:09.716,-0.41,1.315
2021-08-01 00:42:09.720,-1.125,1.545
2021-08-01 00:42:09.724,-1.785,1.73
2021-08-01 00:42:09.756,-1.86,1.53
2021-08-01 00:42:09.760,-1.65,1.505
2021-08-01 00:42:09.764,-1.54,1.52
2021-08-01 00:42:09.768,-1.425,1.59
2021-08-01 00:42:09.772,-1.335,1.495
2021-08-01 00:42:09.776,-1.235,1.18
2021-08-01 00:42:09.780,-1.145,0.685
2021-08-01 00:42:09.784,-1.04,0.265
2021-08-01 00:42:09.788,-0.875,-0.01
2021-08-01 00:42:09.792,-0.67,-0.18
2021-08-01 00:42:09.796,-0.45,-0.29
2021-08-01 00:42:09.800,-0.235,-0.355
2021-08-01 00:42:09.804,-0.05,-0.395
2021-08-01 00:42:09.808,0.13,-0.435
2021-08-01 00:42:09.812,0.34,-0.425
2021-08-01 00:42:09.816,0.495,-0.435
2021-08-01 00:42:09.820,0.605,-0.46
2021-08-01 00:42:09.824,0.665,-0.46
2021-08-01 00:42:09.828,0.695,-0.46
2021-08-01 00:42:09.832,0.715,-0.46
2021-08-01 00:42:09.836,0.725,-0.48
2021-08-01 00:42:09.840,0.77,-0.485
2021-08-01 00:42:09.844,0.805,-0.475
2021-08-01 00:42:09.848,0.81,-0.475
2021-08-01 00:42:09.852,0.82,-0.5
2021-08-01 00:42:09.856,0.82,-0.495
2021-08-01 00:42:09.860,0.825,-0.495
2021-08-01 00:42:09.864,0.835,-0.47
2021-08-01 00:42:09.868,0.86,-0.5
2021-08-01 00:42:09.872,0.87,-0.51
2021-08-01 00:42:09.876,0.89,-0.5
2021-08-01 00:42:09.880,0.895,-0.475
2021-08-01 00:42:09.884,0.89,-0.485
2021-08-01 00:42:09.888,0.9,-0.505
2021-08-01 00:42:09.892,0.92,-0.51
2021-08-01 00:42:09.896,0.925,-0.505
2021-08-01 00:42:09.900,0.94,-0.51
2021-08-01 00:42:09.904,0.945,-0.525
2021-08-01 00:42:09.908,0.965,-0.52
2021-08-01 00:42:09.912,0.995,-0.52
2021-08-01 00:42:09.916,1.03,-0.55
2021-08-01 00:42:09.920,1.025,-0.545
2021-08-01 00:42:09.924,1.045,-0.54
2021-08-01 00:42:09.928,1.055,-0.53
2021-08-01 00:42:09.932,1.1,-0.56
2021-08-01 00:42:09.936,1.09,-0.575
2021-08-01 00:42:09.940,1.11,-0.58
2021-08-01 00:42:09.944,1.155,-0.575
2021-08-01 00:42:09.948,1.18,-0.575
2021-08-01 00:42:09.952,1.16,-0.585
2021-08-01 00:42:09.956,1.175,-0.58
2021-08-01 00:42:09.960,1.225,-0.585
2021-08-01 00:42:09.964,1.205,-0.6
2021-08-01 00:42:09.968,1.205,-0.575
2021-08-01 00:42:09.972,1.2,-0.56
2021-08-01 00:42:09.976,1.2,-0.57
2021-08-01 00:42:09.980,1.21,-0.52
2021-08-01 00:42:09.984,1.18,-0.525
2021-08-01 00:42:09.988,1.15,-0.495
2021-08-01 00:42:09.992,1.13,-0.435
2021-08-01 00:42:09.996,1.11,-0.405
2021-08-01 00:42:10.000,1.035,-0.38
2021-08-01 00:42:10.004,1.0,-0.375
2021-08-01 00:42:10.008,0.965,-0.325
2021-08-01 00:42:10.012,0.92,-0.27
2021-08-01 00:42:10.016,0.865,-0.225
2021-08-01 00:42:10.020,0.82,-0.2
2021-08-01 00:42:10.024,0.795,-0.17
2021-08-01 00:42:10.028,0.725,-0.15
2021-08-01 00:42:10.032,0.695,-0.135
2021-08-01 00:42:10.036,0.655,-0.145
2021-08-01 00:42:10.040,0.605,-0.13
2021-08-01 00:42:10.044,0.575,-0.13
2021-08-01 00:42:10.048,0.535,-0.135
2021-08-01 00:42:10.052,0.475,-0.14
2021-08-01 00:42:10.056,0.475,-0.13
2021-08-01 00:42:10.060,0.44,-0.15
2021-08-01 00:42:10.064,0.41,-0.135
2021-08-01 00:42:10.068,0.405,-0.145
2021-08-01 00:42:10.072,0.41,-0.14
2021-08-01 00:42:10.076,0.385,-0.145
2021-08-01 00:42:10.080,0.41,-0.16
2021-08-01 00:42:10.084,0.38,-0.17
2021-08-01 00:42:10.088,0.375,-0.165
2021-08-01 00:42:10.092,0.38,-0.16
2021-08-01 00:42:10.096,0.37,-0.175
2021-08-01 00:42:10.100,0.36,-0.185
2021-08-01 00:42:10.104,0.395,-0.195
2021-08-01 00:42:10.108,0.365,-0.185
2021-08-01 00:42:10.112,0.385,-0.195
2021-08-01 00:42:10.116,0.365,-0.2
2021-08-01 00:42:10.120,0.365,-0.205
2021-08-01 00:42:10.124,0.365,-0.225
2021-08-01 00:42:10.128,0.36,-0.235
2021-08-01 00:42:10.132,0.375,-0.25
2021-08-01 00:42:10.136,0.385,-0.25
2021-08-01 00:42:10.140,0.38,-0.28
2021-08-01 00:42:10.144,0.38,-0.26
2021-08-01 00:42:10.148,0.37,-0.27
2021-08-01 00:42:10.152,0.36,-0.27
2021-08-01 00:42:10.156,0.345,-0.28
2021-08-01 00:42:10.160,0.365,-0.29
2021-08-01 00:42:10.164,0.37,-0.3
2021-08-01 00:42:10.168,0.365,-0.295
2021-08-01 00:42:10.172,0.365,-0.28
2021-08-01 00:42:10.176,0.365,-0.29
2021-08-01 00:42:10.180,0.35,-0.3
2021-08-01 00:42:10.184,0.34,-0.295
2021-08-01 00:42:10.188,0.33,-0.285
2021-08-01 00:42:10.192,0.335,-0.295
2021-08-01 00:42:10.196,0.315,-0.295
2021-08-01 00:42:10.200,0.335,-0.295
2021-08-01 00:42:10.204,0.335,-0.275
2021-08-01 00:42:10.208,0.325,-0.27
2021-08-01 00:42:10.212,0.32,-0.275
2021-08-01 00:42:10.216,0.325,-0.275
2021-08-01 00:42:10.220,0.305,-0.265
2021-08-01 00:42:10.224,0.285,-0.23
2021-08-01 00:42:10.228,0.3,-0.24
2021-08-01 00:42:10.232,0.29,-0.26
2021-08-01 00:42:10.236,0.285,-0.245
2021-08-01 00:42:10.240,0.28,-0.235
2021-08-01 00:42:10.244,0.285,-0.24
2021-08-01 00:42:10.248,0.255,-0.22
2021-08-01 00:42:10.252,0.265,-0.205
2021-08-01 00:42:10.256,0.28,-0.2
2021-08-01 00:42:10.260,0.275,-0.2
2021-08-01 00:42:10.264,0.245,-0.205
2021-08-01 00:42:10.268,0.24,-0.185
2021-08-01 00:42:10.272,0.25,-0.18
2021-08-01 00:42:10.276,0.255,-0.19
2021-08-01 00:42:10.280,0.245,-0.18
2021-08-01 00:42:10.284,0.245,-0.19
2021-08-01 00:42:10.288,0.26,-0.18
2021-08-01 00:42:10.292,0.25,-0.17
2021-08-01 00:42:10.296,0.235,-0.18
2021-08-01 00:42:10.300,0.23,-0.185
2021-08-01 00:42:10.304,0.24,-0.175
2021-08-01 00:42:10.308,0.255,-0.175
2021-08-01 00:42:10.312,0.245,-0.175
2021-08-01 00:42:10.316,0.24,-0.17
2021-08-01 00:42:10.320,0.23,-0.17
2021-08-01 00:42:10.324,0.23,-0.18
2021-08-01 00:42:10.328,0.22,-0.18
2021-08-01 00:42:10.332,0.24,-0.16
2021-08-01 00:42:10.336,0.22,-0.16
2021-08-01 00:42:10.340,0.235,-0.14
2021-08-01 00:42:10.344,0.255,-0.15
2021-08-01 00:42:10.348,0.225,-0.155
2021-08-01 00:42:10.352,0.215,-0.16
2021-08-01 00:42:10.356,0.215,-0.14
2021-08-01 00:42:10.360,0.24,-0.13
2021-08-01 00:42:10.364,0.2,-0.135
2021-08-01 00:42:10.368,0.21,-0.13
2021-08-01 00:42:10.372,0.225,-0.14
2021-08-01 00:42:10.376,0.225,-0.14
2021-08-01 00:42:10.380,0.205,-0.125
2021-08-01 00:42:10.384,0.21,-0.125
2021-08-01 00:42:10.388,0.205,-0.13
2021-08-01 00:42:10.392,0.205,-0.135
2021-08-01 00:42:10.396,0.195,-0.115
2021-08-01 00:42:10.400,0.205,-0.13
2021-08-01 00:42:10.404,0.225,-0.13
2021-08-01 00:42:10.408,0.205,-0.105
2021-08-01 00:42:10.412,0.22,-0.13
2021-08-01 00:42:10.416,0.215,-0.13
2021-08-01 00:42:10.420,0.215,-0.12
2021-08-01 00:42:10.424,0.2,-0.105
2021-08-01 00:42:10.428,0.225,-0.11
2021-08-01 00:42:10.432,0.205,-0.12
2021-08-01 00:42:10.436,0.205,-0.115
2021-08-01 00:42:10.440,0.21,-0.115
2021-08-01 00:42:10.444,0.2,-0.12
2021-08-01 00:42:10.448,0.235,-0.12
2021-08-01 00:42:10.452,0.22,-0.105
2021-08-01 00:42:10.456,0.215,-0.11
2021-08-01 00:42:10.460,0.21,-0.115
2021-08-01 00:42:10.464,0.205,-0.125
2021-08-01 00:42:10.468,0.21,-0.11
2021-08-01 00:42:10.472,0.225,-0.095
2021-08-01 00:42:10.476,0.22,-0.11
2021-08-01 00:42:10.480,0.21,-0.11
2021-08-01 00:42:10.484,0.2,-0.08
2021-08-01 00:42:10.488,0.19,-0.085
2021-08-01 00:42:10.492,0.22,-0.08
2021-08-01 00:42:10.496,0.185,-0.11
2021-08-01 00:42:10.500,0.21,-0.095
2021-08-01 00:42:10.504,0.215,-0.085
2021-08-01 00:42:10.508,0.2,-0.095
2021-08-01 00:42:10.512,0.205,-0.09
2021-08-01 00:42:10.516,0.21,-0.09
2021-08-01 00:42:10.520,0.215,-0.095
2021-08-01 00:42:10.524,0.185,-0.105
2021-08-01 00:42:10.528,0.205,-0.09
2021-08-01 00:42:10.532,0.2,-0.095
2021-08-01 00:42:10.536,0.205,-0.085
2021-08-01 00:42:10.540,0.22,-0.095
2021-08-01 00:42:10.544,0.19,-0.095
2021-08-01 00:42:10.548,0.185,-0.09
2021-08-01 00:42:10.552,0.19,-0.07
2021-08-01 00:42:10.556,0.17,-0.07
2021-08-01 00:42:10.560,0.18,-0.105
2021-08-01 00:42:10.564,0.15,-0.085
2021-08-01 00:42:10.568,0.165,-0.065
2021-08-01 00:42:10.572,0.165,-0.075
2021-08-01 00:42:10.576,0.16,-0.095
2021-08-01 00:42:10.580,0.165,-0.1
2021-08-01 00:42:10.584,0.18,-0.09
2021-08-01 00:42:10.588,0.155,-0.085
2021-08-01 00:42:10.592,0.16,-0.09
2021-08-01 00:42:10.596,0.16,-0.085
2021-08-01 00:42:10.600,0.18,-0.09
2021-08-01 00:42:10.604,0.15,-0.095
2021-08-01 00:42:10.608,0.145,-0.08
2021-08-01 00:42:10.612,0.125,-0.07
2021-08-01 00:42:10.616,0.12,-0.075
2021-08-01 00:42:10.620,0.115,-0.065
2021-08-01 00:42:10.624,0.09,-0.07
2021-08-01 00:42:10.628,0.13,-0.015
2021-08-01 00:42:10.632,0.155,0.015
2021-08-01 00:42:10.636,0.165,0.005
2021-08-01 00:42:10.640,0.225,-0.045
2021-08-01 00:42:10.644,0.26,-0.05
2021-08-01 00:42:10.648,0.265,-0.065
2021-08-01 00:42:10.652,0.215,-0.085
2021-08-01 00:42:10.656,0.185,-0.13
2021-08-01 00:42:10.660,0.18,-0.125
2021-08-01 00:42:10.664,0.175,-0.125
2021-08-01 00:42:10.668,0.145,-0.14
2021-08-01 00:42:10.672,0.115,-0.175
2021-08-01 00:42:10.676,0.115,-0.16
2021-08-01 00:42:10.680,0.12,-0.135
2021-08-01 00:42:10.684,0.11,-0.135
2021-08-01 00:42:10.688,0.115,-0.08
2021-08-01 00:42:10.692,0.11,0.0
2021-08-01 00:42:10.696,0.125,0.09
2021-08-01 00:42:10.700,0.14,0.15
2021-08-01 00:42:10.704,0.17,0.19
2021-08-01 00:42:10.708,0.21,0.065
2021-08-01 00:42:10.712,0.235,-0.025
2021-08-01 00:42:10.716,0.215,0.185
2021-08-01 00:42:10.720,0.17,0.54
2021-08-01 00:42:10.724,0.08,0.42
2021-08-01 00:42:10.728,0.04,-0.36
2021-08-01 00:42:10.732,-0.02,-1.23
2021-08-01 00:42:10.736,0.02,-1.655
2021-08-01 00:42:10.740,0.085,-1.41
2021-08-01 00:42:10.744,0.165,-1.11
2021-08-01 00:42:10.748,0.12,-1.05
2021-08-01 00:42:10.752,0.01,-0.885
2021-08-01 00:42:10.756,-0.175,-0.64
2021-08-01 00:42:10.760,-0.35,-0.41
2021-08-01 00:42:10.764,-0.39,-0.285
2021-08-01 00:42:10.768,-0.415,-0.195
2021-08-01 00:42:10.772,-0.355,-0.195
2021-08-01 00:42:10.776,-0.16,-0.17
2021-08-01 00:42:10.780,0.015,-0.185
2021-08-01 00:42:10.784,0.085,-0.17
2021-08-01 00:42:10.788,0.095,-0.145
2021-08-01 00:42:10.792,0.125,-0.13
2021-08-01 00:42:10.796,0.125,-0.125
2021-08-01 00:42:10.800,0.115,-0.125
2021-08-01 00:42:10.804,0.105,-0.1
2021-08-01 00:42:10.808,0.12,-0.085
2021-08-01 00:42:10.812,0.13,-0.07
2021-08-01 00:42:10.816,0.15,-0.085
2021-08-01 00:42:10.820,0.14,-0.065
2021-08-01 00:42:10.824,0.145,-0.06
2021-08-01 00:42:10.828,0.14,-0.05
2021-08-01 00:42:10.832,0.13,-0.045
2021-08-01 00:42:10.836,0.135,-0.02
2021-08-01 00:42:10.840,0.13,-0.01
2021-08-01 00:42:10.844,0.13,-0.02
2021-08-01 00:42:10.848,0.125,-0.02
2021-08-01 00:42:10.852,0.145,0.005
2021-08-01 00:42:10.856,0.135,0.04
2021-08-01 00:42:10.860,0.11,-0.005
2021-08-01 00:42:10.864,0.13,0.015
2021-08-01 00:42:10.868,0.155,0.035
2021-08-01 00:42:10.872,0.135,0.065
2021-08-01 00:42:10.876,0.115,0.05
2021-08-01 00:42:10.880,0.115,0.045
2021-08-01 00:42:10.884,0.105,0.08
2021-08-01 00:42:10.888,0.13,0.09
2021-08-01 00:42:10.892,0.09,0.115
2021-08-01 00:42:10.896,0.115,0.09
2021-08-01 00:42:10.900,0.09,0.11
2021-08-01 00:42:10.904,0.11,0.125
2021-08-01 00:42:10.908,0.115,0.16
2021-08-01 00:42:10.912,0.105,0.155
2021-08-01 00:42:10.916,0.11,0.19
2021-08-01 00:42:10.920,0.11,0.21
2021-08-01 00:42:10.924,0.095,0.22
2021-08-01 00:42:10.928,0.105,0.235
2021-08-01 00:42:10.932,0.09,0.295
2021-08-01 00:42:10.936,0.095,0.315
2021-08-01 00:42:10.940,0.095,0.335
2021-08-01 00:42:10.944,0.065,0.36
2021-08-01 00:42:10.948,0.06,0.375
2021-08-01 00:42:10.952,0.06,0.41
2021-08-01 00:42:10.956,0.045,0.42
2021-08-01 00:42:10.960,0.045,0.445
2021-08-01 00:42:10.964,0.03,0.45
2021-08-01 00:42:10.968,0.035,0.465
2021-08-01 00:42:10.972,0.01,0.46
2021-08-01 00:42:10.976,-0.01,0.44
2021-08-01 00:42:10.980,0.005,0.435
2021-08-01 00:42:10.984,0.005,0.42
2021-08-01 00:42:10.988,0.005,0.375
2021-08-01 00:42:10.992,0.015,0.33
2021-08-01 00:42:10.996,0.025,0.31
2021-08-01 00:42:11.000,0.045,0.285
2021-08-01 00:42:11.004,0.04,0.23
2021-08-01 00:42:11.008,0.075,0.175
2021-08-01 00:42:11.012,0.085,0.145
2021-08-01 00:42:11.016,0.085,0.13
2021-08-01 00:42:11.020,0.095,0.1
2021-08-01 00:42:11.024,0.105,0.075
2021-08-01 00:42:11.028,0.125,0.055
2021-08-01 00:42:11.032,0.125,0.055
2021-08-01 00:42:11.036,0.115,0.02
2021-08-01 00:42:11.040,0.13,0.005
2021-08-01 00:42:11.044,0.13,0.02
2021-08-01 00:42:11.048,0.15,-0.005
2021-08-01 00:42:11.052,0.125,-0.015
2021-08-01 00:42:11.056,0.135,-0.04
2021-08-01 00:42:11.060,0.115,-0.05
2021-08-01 00:42:11.064,0.14,-0.03
2021-08-01 00:42:11.068,0.13,-0.06
2021-08-01 00:42:11.072,0.105,-0.095
2021-08-01 00:42:11.076,0.125,-0.095
2021-08-01 00:42:11.080,0.125,-0.085
2021-08-01 00:42:11.084,0.115,-0.09
2021-08-01 00:42:11.088,0.12,-0.1
2021-08-01 00:42:11.092,0.125,-0.105
2021-08-01 00:42:11.096,0.12,-0.09
2021-08-01 00:42:11.100,0.125,-0.115
2021-08-01 00:42:11.104,0.13,-0.14
2021-08-01 00:42:11.108,0.125,-0.13
2021-08-01 00:42:11.112,0.125,-0.11
2021-08-01 00:42:11.116,0.11,-0.155
2021-08-01 00:42:11.120,0.11,-0.14
2021-08-01 00:42:11.124,0.135,-0.13
2021-08-01 00:42:11.128,0.14,-0.125
2021-08-01 00:42:11.132,0.12,-0.14
2021-08-01 00:42:11.136,0.1,-0.16
2021-08-01 00:42:11.140,0.115,-0.15
2021-08-01 00:42:11.144,0.11,-0.125
2021-08-01 00:42:11.148,0.1,-0.145
2021-08-01 00:42:11.152,0.1,-0.14
2021-08-01 00:42:11.156,0.095,-0.135
2021-08-01 00:42:11.160,0.095,-0.135
2021-08-01 00:42:11.164,0.09,-0.16
2021-08-01 00:42:11.168,0.095,-0.15
2021-08-01 00:42:11.172,0.095,-0.15
2021-08-01 00:42:11.176,0.075,-0.135
2021-08-01 00:42:11.180,0.07,-0.155
2021-08-01 00:42:11.184,0.055,-0.14
2021-08-01 00:42:11.188,0.055,-0.12
2021-08-01 00:42:11.192,0.04,-0.13
2021-08-01 00:42:11.196,0.04,-0.14
2021-08-01 00:42:11.200,0.04,-0.145
2021-08-01 00:42:11.204,0.055,-0.14
2021-08-01 00:42:11.208,0.04,-0.115
2021-08-01 00:42:11.212,0.045,-0.145
2021-08-01 00:42:11.216,0.05,-0.145
2021-08-01 00:42:11.220,0.055,-0.11
2021-08-01 00:42:11.224,0.05,-0.125
2021-08-01 00:42:11.228,0.04,-0.13
2021-08-01 00:42:11.232,0.015,-0.13
2021-08-01 00:42:11.236,0.045,-0.11
2021-08-01 00:42:11.240,0.035,-0.115
2021-08-01 00:42:11.244,0.045,-0.135
2021-08-01 00:42:11.248,0.05,-0.135
2021-08-01 00:42:11.252,0.03,-0.095
2021-08-01 00:42:11.256,0.04,-0.12
2021-08-01 00:42:11.260,0.03,-0.13
2021-08-01 00:42:11.264,0.025,-0.13
2021-08-01 00:42:11.268,0.035,-0.115
2021-08-01 00:42:11.272,0.02,-0.1
2021-08-01 00:42:11.276,0.02,-0.135
2021-08-01 00:42:11.280,0.04,-0.125
2021-08-01 00:42:11.284,0.06,-0.11
2021-08-01 00:42:11.288,0.04,-0.095
2021-08-01 00:42:11.292,0.03,-0.11
2021-08-01 00:42:11.296,0.055,-0.1
2021-08-01 00:42:11.300,0.045,-0.1
2021-08-01 00:42:11.304,0.035,-0.095
2021-08-01 00:42:11.308,0.03,-0.11
2021-08-01 00:42:11.312,0.025,-0.125
2021-08-01 00:42:11.316,0.04,-0.115
2021-08-01 00:42:11.320,0.06,-0.09
2021-08-01 00:42:11.324,0.02,-0.11
2021-08-01 00:42:11.328,0.02,-0.11
2021-08-01 00:42:11.332,0.02,-0.075
2021-08-01 00:42:11.336,0.005,-0.09
2021-08-01 00:42:11.340,0.005,-0.11
2021-08-01 00:42:11.344,0.03,-0.105
2021-08-01 00:42:11.348,0.015,-0.08
2021-08-01 00:42:11.352,0.02,-0.07
2021-08-01 00:42:11.356,0.005,-0.085
2021-08-01 00:42:11.360,0.025,-0.1
2021-08-01 00:42:11.364,0.03,-0.09
2021-08-01 00:42:11.368,0.035,-0.085
2021-08-01 00:42:11.372,0.025,-0.075
2021-08-01 00:42:11.376,0.005,-0.075
2021-08-01 00:42:11.380,0.025,-0.08
2021-08-01 00:42:11.384,0.03,-0.055
2021-08-01 00:42:11.388,0.035,-0.095
2021-08-01 00:42:11.392,0.03,-0.095
2021-08-01 00:42:11.396,0.015,-0.105
2021-08-01 00:42:11.400,0.005,-0.08
2021-08-01 00:42:11.404,0.015,-0.08
2021-08-01 00:42:11.408,0.01,-0.08
2021-08-01 00:42:11.412,0.02,-0.085
2021-08-01 00:42:11.416,0.005,-0.04
2021-08-01 00:42:11.420,0.025,-0.09
2021-08-01 00:42:11.424,0.01,-0.085
2021-08-01 00:42:11.428,0.01,-0.075
2021-08-01 00:42:11.432,0.005,-0.075
2021-08-01 00:42:11.436,0.0,-0.09
2021-08-01 00:42:11.440,0.02,-0.085
2021-08-01 00:42:11.444,0.005,-0.08
2021-08-01 00:42:11.448,0.05,-0.06
2021-08-01 00:42:11.452,0.055,-0.07
2021-08-01 00:42:11.456,0.005,-0.06
2021-08-01 00:42:11.460,0.03,-0.08
2021-08-01 00:42:11.464,0.035,-0.06
2021-08-01 00:42:11.468,0.02,-0.07
2021-08-01 00:42:11.472,0.02,-0.07
2021-08-01 00:42:11.476,0.025,-0.065
2021-08-01 00:42:11.480,0.035,-0.055
2021-08-01 00:42:11.484,0.02,-0.04
2021-08-01 00:42:11.488,0.015,-0.055
2021-08-01 00:42:11.492,0.01,-0.06
2021-08-01 00:42:11.496,0.035,-0.04
2021-08-01 00:42:11.500,0.02,-0.025
2021-08-01 00:42:11.504,0.025,0.0
2021-08-01 00:42:11.508,0.01,0.075
2021-08-01 00:42:11.512,0.035,0.07
2021-08-01 00:42:11.516,0.03,0.07
2021-08-01 00:42:11.520,0.02,0.07
2021-08-01 00:42:11.524,0.025,0.11
2021-08-01 00:42:11.528,0.03,0.155
2021-08-01 00:42:11.532,0.055,0.18
2021-08-01 00:42:11.536,0.055,0.16
2021-08-01 00:42:11.540,0.075,0.175
2021-08-01 00:42:11.544,0.105,0.215
2021-08-01 00:42:11.548,0.14,0.235
2021-08-01 00:42:11.552,0.135,0.25
2021-08-01 00:42:11.556,0.14,0.255
2021-08-01 00:42:11.560,0.18,0.275
2021-08-01 00:42:11.564,0.175,0.23
2021-08-01 00:42:11.568,0.185,0.18
2021-08-01 00:42:11.572,0.155,0.155
2021-08-01 00:42:11.576,0.115,0.175
2021-08-01 00:42:11.580,0.07,0.165
2021-08-01 00:42:11.584,0.035,0.13
2021-08-01 00:42:11.588,0.015,0.095
2021-08-01 00:42:11.592,0.005,0.07
2021-08-01 00:42:11.596,0.0,0.06
2021-08-01 00:42:11.600,-0.05,0.055
2021-08-01 00:42:11.604,-0.055,0.04
2021-08-01 00:42:11.608,-0.07,0.005
2021-08-01 00:42:11.612,-0.1,-0.045
2021-08-01 00:42:11.616,-0.08,-0.045
2021-08-01 00:42:11.620,-0.05,-0.01
2021-08-01 00:42:11.624,-0.08,0.06
2021-08-01 00:42:11.628,-0.07,0.125
2021-08-01 00:42:11.632,-0.065,0.215
2021-08-01 00:42:11.636,-0.035,0.3
2021-08-01 00:42:11.640,0.01,0.27
2021-08-01 00:42:11.644,0.02,0.105
2021-08-01 00:42:11.648,0.04,0.08
2021-08-01 00:42:11.652,0.015,0.35
2021-08-01 00:42:11.656,-0.05,0.63
2021-08-01 00:42:11.660,-0.14,0.38
2021-08-01 00:42:11.664,-0.2,-0.49
2021-08-01 00:42:11.668,-0.24,-1.33
2021-08-01 00:42:11.672,-0.22,-1.555
2021-08-01 00:42:11.676,-0.14,-1.19
2021-08-01 00:42:11.680,-0.055,-0.965
2021-08-01 00:42:11.684,-0.035,-0.95
2021-08-01 00:42:11.688,-0.085,-0.805
2021-08-01 00:42:11.692,-0.21,-0.55
2021-08-01 00:42:11.696,-0.38,-0.325
2021-08-01 00:42:11.700,-0.485,-0.16
2021-08-01 00:42:11.704,-0.55,-0.095
2021-08-01 00:42:11.708,-0.5,-0.08
2021-08-01 00:42:11.712,-0.32,-0.05
2021-08-01 00:42:11.716,-0.14,-0.045
2021-08-01 00:42:11.720,-0.065,-0.035
2021-08-01 00:42:11.724,-0.04,-0.025
2021-08-01 00:42:11.728,-0.04,-0.03
2021-08-01 00:42:11.732,-0.05,-0.025
2021-08-01 00:42:11.736,-0.035,-0.01
2021-08-01 00:42:11.740,-0.02,-0.01
2021-08-01 00:42:11.744,0.0,0.025
2021-08-01 00:42:11.748,-0.02,0.02
2021-08-01 00:42:11.752,-0.015,0.025
2021-08-01 00:42:11.756,-0.03,0.035
2021-08-01 00:42:11.760,-0.015,0.045
2021-08-01 00:42:11.764,-0.01,0.055
2021-08-01 00:42:11.768,-0.01,0.065
2021-08-01 00:42:11.772,-0.005,0.075
2021-08-01 00:42:11.776,0.005,0.085
2021-08-01 00:42:11.780,-0.01,0.095
2021-08-01 00:42:11.784,-0.005,0.1
2021-08-01 00:42:11.788,0.0,0.135
2021-08-01 00:42:11.792,-0.01,0.14
2021-08-01 00:42:11.796,-0.03,0.145
2021-08-01 00:42:11.800,-0.035,0.14
2021-08-01 00:42:11.804,-0.025,0.16
2021-08-01 00:42:11.808,-0.025,0.17
2021-08-01 00:42:11.812,-0.015,0.19
2021-08-01 00:42:11.816,-0.035,0.2
2021-08-01 00:42:11.820,-0.015,0.21
2021-08-01 00:42:11.824,-0.005,0.225
2021-08-01 00:42:11.828,-0.01,0.22
2021-08-01 00:42:11.832,0.0,0.25
2021-08-01 00:42:11.836,0.015,0.26
2021-08-01 00:42:11.840,0.01,0.28
2021-08-01 00:42:11.844,-0.025,0.28
2021-08-01 00:42:11.848,-0.03,0.3
2021-08-01 00:42:11.852,-0.03,0.32
2021-08-01 00:42:11.856,-0.02,0.36
2021-08-01 00:42:11.860,-0.025,0.38
2021-08-01 00:42:11.864,-0.05,0.4
2021-08-01 00:42:11.868,-0.04,0.44
2021-08-01 00:42:11.872,-0.06,0.45
2021-08-01 00:42:11.876,-0.065,0.48
2021-08-01 00:42:11.880,-0.07,0.5
2021-08-01 00:42:11.884,-0.06,0.54
2021-08-01 00:42:11.888,-0.055,0.56
2021-08-01 00:42:11.892,-0.095,0.59
2021-08-01 00:42:11.896,-0.065,0.615
2021-08-01 00:42:11.900,-0.1,0.6
2021-08-01 00:42:11.904,-0.11,0.63
2021-08-01 00:42:11.908,-0.1,0.6
2021-08-01 00:42:11.912,-0.11,0.595
2021-08-01 00:42:11.916,-0.125,0.6
2021-08-01 00:42:11.920,-0.145,0.56
2021-08-01 00:42:11.924,-0.13,0.54
2021-08-01 00:42:11.928,-0.14,0.495
2021-08-01 00:42:11.932,-0.12,0.485
2021-08-01 00:42:11.936,-0.12,0.445
2021-08-01 00:42:11.940,-0.09,0.4
2021-08-01 00:42:11.944,-0.09,0.37
2021-08-01 00:42:11.948,-0.08,0.34
2021-08-01 00:42:11.952,-0.045,0.28
2021-08-01 00:42:11.956,-0.04,0.255
2021-08-01 00:42:11.960,-0.015,0.215
2021-08-01 00:42:11.964,0.005,0.185
2021-08-01 00:42:11.968,-0.02,0.185
2021-08-01 00:42:11.972,-0.005,0.17
2021-08-01 00:42:11.976,-0.015,0.155
2021-08-01 00:42:11.980,0.005,0.125
2021-08-01 00:42:11.984,0.045,0.1
2021-08-01 00:42:11.988,0.015,0.105
2021-08-01 00:42:11.992,0.005,0.1
2021-08-01 00:42:11.996,0.015,0.11
2021-08-01 00:42:12.000,0.005,0.075
2021-08-01 00:42:12.004,0.025,0.085
2021-08-01 00:42:12.008,0.015,0.06
2021-08-01 00:42:12.012,0.02,0.055
2021-08-01 00:42:12.016,0.02,0.035
2021-08-01 00:42:12.020,0.005,0.05
2021-08-01 00:42:12.024,0.0,0.035
2021-08-01 00:42:12.028,0.005,0.02
2021-08-01 00:42:12.032,0.005,0.015
2021-08-01 00:42:12.036,0.02,0.01
2021-08-01 00:42:12.040,0.0,-0.01
2021-08-01 00:42:12.044,-0.005,0.0
2021-08-01 00:42:12.048,-0.005,-0.015
2021-08-01 00:42:12.052,-0.005,0.0
2021-08-01 00:42:12.056,0.01,-0.01
2021-08-01 00:42:12.060,0.005,-0.02
2021-08-01 00:42:12.064,-0.005,-0.025
2021-08-01 00:42:12.068,0.02,-0.025
2021-08-01 00:42:12.072,0.0,-0.035
2021-08-01 00:42:12.076,0.0,-0.04
2021-08-01 00:42:12.080,0.0,-0.04
2021-08-01 00:42:12.084,0.005,-0.045
2021-08-01 00:42:12.088,0.0,-0.05
2021-08-01 00:42:12.092,-0.005,-0.03
2021-08-01 00:42:12.096,-0.015,-0.03
2021-08-01 00:42:12.100,-0.005,-0.03
2021-08-01 00:42:12.104,-0.015,-0.015
2021-08-01 00:42:12.108,-0.025,-0.035
2021-08-01 00:42:12.112,-0.035,-0.035
2021-08-01 00:42:12.116,-0.03,-0.02
2021-08-01 00:42:12.120,-0.02,-0.025
2021-08-01 00:42:12.124,-0.03,-0.025
2021-08-01 00:42:12.128,-0.04,-0.035
2021-08-01 00:42:12.132,-0.04,-0.035
2021-08-01 00:42:12.136,-0.02,-0.025
2021-08-01 00:42:12.140,-0.045,-0.02
2021-08-01 00:42:12.144,-0.03,-0.025
2021-08-01 00:42:12.148,-0.05,-0.015
2021-08-01 00:42:12.152,-0.04,-0.025
2021-08-01 00:42:12.156,-0.035,-0.04
2021-08-01 00:42:12.160,-0.04,-0.015
2021-08-01 00:42:12.164,-0.05,-0.015
2021-08-01 00:42:12.168,-0.015,-0.02
2021-08-01 00:42:12.172,-0.04,-0.03
2021-08-01 00:42:12.176,-0.035,-0.005
2021-08-01 00:42:12.180,-0.045,-0.015
2021-08-01 00:42:12.184,-0.05,-0.02
2021-08-01 00:42:12.188,-0.06,-0.025
2021-08-01 00:42:12.192,-0.04,-0.005
2021-08-01 00:42:12.196,-0.065,0.0
2021-08-01 00:42:12.200,-0.065,0.0
2021-08-01 00:42:12.204,-0.07,0.0
2021-08-01 00:42:12.208,-0.06,-0.01
2021-08-01 00:42:12.212,-0.055,-0.025
2021-08-01 00:42:12.216,-0.045,-0.025
2021-08-01 00:42:12.220,-0.05,0.0
2021-08-01 00:42:12.224,-0.06,-0.005
2021-08-01 00:42:12.228,-0.06,-0.02
2021-08-01 00:42:12.232,-0.055,-0.015
2021-08-01 00:42:12.236,-0.045,-0.01
2021-08-01 00:42:12.240,-0.025,0.0
2021-08-01 00:42:12.244,-0.055,-0.025
2021-08-01 00:42:12.248,-0.07,-0.02
2021-08-01 00:42:12.252,-0.05,0.0
2021-08-01 00:42:12.256,-0.065,0.0
2021-08-01 00:42:12.260,-0.04,-0.015
2021-08-01 00:42:12.264,-0.035,-0.025
2021-08-01 00:42:12.268,-0.02,-0.015
2021-08-01 00:42:12.272,-0.03,-0.01
2021-08-01 00:42:12.276,-0.025,0.0
2021-08-01 00:42:12.280,-0.035,-0.02
2021-08-01 00:42:12.284,-0.02,-0.015
2021-08-01 00:42:12.288,-0.035,-0.015
2021-08-01 00:42:12.292,-0.045,-0.015
2021-08-01 00:42:12.296,-0.025,0.0
2021-08-01 00:42:12.300,-0.025,-0.02
2021-08-01 00:42:12.304,-0.05,-0.025
2021-08-01 00:42:12.308,-0.03,-0.015
2021-08-01 00:42:12.312,-0.02,0.0
2021-08-01 00:42:12.316,-0.03,0.0
2021-08-01 00:42:12.320,-0.01,-0.01
2021-08-01 00:42:12.324,-0.04,0.0
2021-08-01 00:42:12.328,-0.025,-0.02
2021-08-01 00:42:12.332,-0.05,-0.02
2021-08-01 00:42:12.336,-0.02,-0.025
2021-08-01 00:42:12.340,-0.035,-0.02
2021-08-01 00:42:12.344,-0.035,-0.025
2021-08-01 00:42:12.348,-0.035,-0.035
2021-08-01 00:42:12.352,-0.02,-0.03
2021-08-01 00:42:12.356,-0.05,-0.005
2021-08-01 00:42:12.360,-0.045,-0.005
2021-08-01 00:42:12.364,-0.04,-0.01
2021-08-01 00:42:12.368,-0.045,-0.01
2021-08-01 00:42:12.372,-0.035,-0.015
2021-08-01 00:42:12.376,-0.015,-0.01
2021-08-01 00:42:12.380,-0.04,0.01
2021-08-01 00:42:12.384,-0.02,0.015
2021-08-01 00:42:12.388,-0.035,0.07
2021-08-01 00:42:12.392,-0.025,0.075
2021-08-01 00:42:12.396,-0.04,0.095
2021-08-01 00:42:12.400,-0.01,0.11
2021-08-01 00:42:12.404,0.015,0.15
2021-08-01 00:42:12.408,0.055,0.18
2021-08-01 00:42:12.412,0.06,0.19
2021-08-01 00:42:12.416,0.095,0.195
2021-08-01 00:42:12.420,0.115,0.2
2021-08-01 00:42:12.424,0.125,0.19
2021-08-01 00:42:12.428,0.15,0.16
2021-08-01 00:42:12.432,0.15,0.13
2021-08-01 00:42:12.436,0.13,0.12
2021-08-01 00:42:12.440,0.075,0.115
2021-08-01 00:42:12.444,0.03,0.09
2021-08-01 00:42:12.448,0.015,0.06
2021-08-01 00:42:12.452,-0.02,0.035
2021-08-01 00:42:12.456,-0.025,0.015
2021-08-01 00:42:12.460,-0.035,0.005
2021-08-01 00:42:12.464,-0.06,-0.015
2021-08-01 00:42:12.468,-0.075,-0.03
2021-08-01 00:42:12.472,-0.115,-0.075
2021-08-01 00:42:12.476,-0.12,-0.105
2021-08-01 00:42:12.480,-0.105,-0.115
2021-08-01 00:42:12.484,-0.075,-0.12
2021-08-01 00:42:12.488,-0.08,-0.11
2021-08-01 00:42:12.492,-0.095,-0.115
2021-08-01 00:42:12.496,-0.105,-0.12
2021-08-01 00:42:12.500,-0.1,-0.125
2021-08-01 00:42:12.504,-0.1,-0.1
2021-08-01 00:42:12.508,-0.1,-0.105
2021-08-01 00:42:12.512,-0.085,-0.1
2021-08-01 00:42:12.516,-0.07,-0.1
2021-08-01 00:42:12.520,-0.085,-0.115
2021-08-01 00:42:12.524,-0.095,-0.065
2021-08-01 00:42:12.528,-0.075,-0.09
2021-08-01 00:42:12.532,-0.1,-0.08
2021-08-01 00:42:12.536,-0.08,-0.08
2021-08-01 00:42:12.540,-0.07,-0.075
2021-08-01 00:42:12.544,-0.09,-0.07
2021-08-01 00:42:12.548,-0.08,-0.085
2021-08-01 00:42:12.552,-0.08,-0.085
2021-08-01 00:42:12.556,-0.075,-0.05
2021-08-01 00:42:12.560,-0.085,-0.015
2021-08-01 00:42:12.564,-0.08,0.01
2021-08-01 00:42:12.568,-0.06,0.12
2021-08-01 00:42:12.572,-0.04,0.26
2021-08-01 00:42:12.576,0.0,0.475
2021-08-01 00:42:12.580,0.04,0.77
2021-08-01 00:42:12.584,0.06,0.99
2021-08-01 00:42:12.588,-0.1,1.15
2021-08-01 00:42:12.592,-0.45,1.27
2021-08-01 00:42:12.596,-1.01,1.455
2021-08-01 00:42:12.600,-1.695,1.7
2021-08-01 00:42:12.648,-1.895,1.64
2021-08-01 00:42:12.652,-1.73,1.02
2021-08-01 00:42:12.656,-1.585,0.485
2021-08-01 00:42:12.660,-1.415,0.17
2021-08-01 00:42:12.664,-1.235,0.04
2021-08-01 00:42:12.668,-0.99,-0.085
2021-08-01 00:42:12.672,-0.725,-0.15
2021-08-01 00:42:12.676,-0.44,-0.205
2021-08-01 00:42:12.680,-0.18,-0.245
2021-08-01 00:42:12.684,0.055,-0.24
2021-08-01 00:42:12.688,0.185,-0.235
2021-08-01 00:42:12.692,0.24,-0.265
2021-08-01 00:42:12.696,0.27,-0.275
2021-08-01 00:42:12.700,0.335,-0.265
2021-08-01 00:42:12.704,0.33,-0.255
2021-08-01 00:42:12.708,0.385,-0.25
2021-08-01 00:42:12.712,0.4,-0.27
2021-08-01 00:42:12.716,0.395,-0.25
2021-08-01 00:42:12.720,0.395,-0.24
2021-08-01 00:42:12.724,0.415,-0.255
2021-08-01 00:42:12.728,0.42,-0.265
2021-08-01 00:42:12.732,0.435,-0.265
2021-08-01 00:42:12.736,0.46,-0.25
2021-08-01 00:42:12.740,0.485,-0.24
2021-08-01 00:42:12.744,0.45,-0.265
2021-08-01 00:42:12.748,0.445,-0.28
2021-08-01 00:42:12.752,0.485,-0.265
2021-08-01 00:42:12.756,0.475,-0.27
2021-08-01 00:42:12.760,0.47,-0.285
2021-08-01 00:42:12.764,0.505,-0.28
2021-08-01 00:42:12.768,0.515,-0.27
2021-08-01 00:42:12.772,0.53,-0.25
2021-08-01 00:42:12.776,0.545,-0.3
2021-08-01 00:42:12.780,0.55,-0.305
2021-08-01 00:42:12.784,0.58,-0.295
2021-08-01 00:42:12.788,0.59,-0.28
2021-08-01 00:42:12.792,0.62,-0.315
2021-08-01 00:42:12.796,0.63,-0.34
2021-08-01 00:42:12.800,0.635,-0.32
2021-08-01 00:42:12.804,0.67,-0.33
2021-08-01 00:42:12.808,0.69,-0.35
2021-08-01 00:42:12.812,0.735,-0.39
2021-08-01 00:42:12.816,0.725,-0.365
2021-08-01 00:42:12.820,0.755,-0.385
2021-08-01 00:42:12.824,0.77,-0.38
2021-08-01 00:42:12.828,0.78,-0.405
2021-08-01 00:42:12.832,0.815,-0.44
2021-08-01 00:42:12.836,0.825,-0.42
2021-08-01 00:42:12.840,0.82,-0.42
2021-08-01 00:42:12.844,0.84,-0.435
2021-08-01 00:42:12.848,0.835,-0.44
2021-08-01 00:42:12.852,0.83,-0.41
2021-08-01 00:42:12.856,0.84,-0.38
2021-08-01 00:42:12.860,0.815,-0.34
2021-08-01 00:42:12.864,0.805,-0.345
2021-08-01 00:42:12.868,0.785,-0.315
2021-08-01 00:42:12.872,0.73,-0.275
2021-08-01 00:42:12.876,0.705,-0.255
2021-08-01 00:42:12.880,0.65,-0.2
2021-08-01 00:42:12.884,0.625,-0.175
2021-08-01 00:42:12.888,0.57,-0.11
2021-08-01 00:42:12.892,0.515,-0.095
2021-08-01 00:42:12.896,0.445,-0.065
2021-08-01 00:42:12.900,0.39,-0.025
2021-08-01 00:42:12.904,0.36,0.03
2021-08-01 00:42:12.908,0.315,0.01
2021-08-01 00:42:12.912,0.275,0.025
2021-08-01 00:42:12.916,0.23,0.025
2021-08-01 00:42:12.920,0.2,0.04
2021-08-01 00:42:12.924,0.16,0.03
2021-08-01 00:42:12.928,0.12,0.035
2021-08-01 00:42:12.932,0.135,0.05
2021-08-01 00:42:12.936,0.105,0.055
2021-08-01 00:42:12.940,0.07,0.04
2021-08-01 00:42:12.944,0.07,0.02
2021-08-01 00:42:12.948,0.05,0.035
2021-08-01 00:42:12.952,0.06,0.045
2021-08-01 00:42:12.956,0.02,0.035
2021-08-01 00:42:12.960,0.03,0.01
2021-08-01 00:42:12.964,0.05,-0.005
2021-08-01 00:42:12.968,0.045,0.0
2021-08-01 00:42:12.972,0.02,0.005
2021-08-01 00:42:12.976,0.01,-0.01
2021-08-01 00:42:12.980,0.0,-0.03
2021-08-01 00:42:12.984,0.02,-0.03
2021-08-01 00:42:12.988,0.02,-0.01
2021-08-01 00:42:12.992,0.005,-0.045
2021-08-01 00:42:12.996,0.005,-0.065
2021-08-01 00:42:13.000,0.01,-0.06
2021-08-01 00:42:13.004,0.0,-0.035
2021-08-01 00:42:13.008,0.0,-0.075
2021-08-01 00:42:13.012,-0.015,-0.125
2021-08-01 00:42:13.016,0.01,-0.125
2021-08-01 00:42:13.020,0.005,-0.105
2021-08-01 00:42:13.024,0.02,-0.115
2021-08-01 00:42:13.028,0.02,-0.13
2021-08-01 00:42:13.032,0.01,-0.145
2021-08-01 00:42:13.036,0.0,-0.14
2021-08-01 00:42:13.040,-0.025,-0.145
2021-08-01 00:42:13.044,-0.015,-0.17
2021-08-01 00:42:13.048,-0.01,-0.16
2021-08-01 00:42:13.052,-0.015,-0.135
2021-08-01 00:42:13.056,0.0,-0.14
2021-08-01 00:42:13.060,-0.01,-0.16
2021-08-01 00:42:13.064,0.0,-0.185
2021-08-01 00:42:13.068,0.01,-0.16
2021-08-01 00:42:13.072,-0.005,-0.145
2021-08-01 00:42:13.076,-0.02,-0.155
2021-08-01 00:42:13.080,-0.03,-0.17
2021-08-01 00:42:13.084,-0.04,-0.16
2021-08-01 00:42:13.088,-0.055,-0.15
2021-08-01 00:42:13.092,-0.055,-0.16
2021-08-01 00:42:13.096,-0.07,-0.12
2021-08-01 00:42:13.100,-0.065,-0.11
2021-08-01 00:42:13.104,-0.06,-0.125
2021-08-01 00:42:13.108,-0.07,-0.125
2021-08-01 00:42:13.112,-0.07,-0.15
2021-08-01 00:42:13.116,-0.08,-0.135
2021-08-01 00:42:13.120,-0.07,-0.11
2021-08-01 00:42:13.124,-0.1,-0.115
2021-08-01 00:42:13.128,-0.09,-0.11
2021-08-01 00:42:13.132,-0.09,-0.105
2021-08-01 00:42:13.136,-0.08,-0.09
2021-08-01 00:42:13.140,-0.095,-0.08
2021-08-01 00:42:13.144,-0.11,-0.095
2021-08-01 00:42:13.148,-0.085,-0.095
2021-08-01 00:42:13.152,-0.05,-0.075
2021-08-01 00:42:13.156,-0.085,-0.07
2021-08-01 00:42:13.160,-0.105,-0.1
2021-08-01 00:42:13.164,-0.075,-0.08
2021-08-01 00:42:13.168,-0.08,-0.035
2021-08-01 00:42:13.172,-0.075,-0.045
2021-08-01 00:42:13.176,-0.1,-0.05
2021-08-01 00:42:13.180,-0.08,-0.05
2021-08-01 00:42:13.184,-0.09,-0.045
2021-08-01 00:42:13.188,-0.095,-0.035
2021-08-01 00:42:13.192,-0.085,-0.065
2021-08-01 00:42:13.196,-0.12,-0.04
2021-08-01 00:42:13.200,-0.095,-0.025
2021-08-01 00:42:13.204,-0.105,-0.035
2021-08-01 00:42:13.208,-0.13,-0.045
2021-08-01 00:42:13.212,-0.135,-0.015
2021-08-01 00:42:13.216,-0.115,-0.015
2021-08-01 00:42:13.220,-0.105,-0.02
2021-08-01 00:42:13.224,-0.11,-0.055
2021-08-01 00:42:13.228,-0.115,-0.02
2021-08-01 00:42:13.232,-0.1,0.04
2021-08-01 00:42:13.236,-0.11,0.065
2021-08-01 00:42:13.240,-0.095,0.06
2021-08-01 00:42:13.244,-0.085,0.055
2021-08-01 00:42:13.248,-0.05,0.095
2021-08-01 00:42:13.252,-0.035,0.14
2021-08-01 00:42:13.256,-0.02,0.165
2021-08-01 00:42:13.260,0.01,0.15
2021-08-01 00:42:13.264,0.01,0.185
2021-08-01 00:42:13.268,0.02,0.165
2021-08-01 00:42:13.272,0.04,0.15
2021-08-01 00:42:13.276,0.04,0.105
2021-08-01 00:42:13.280,0.045,0.1
2021-08-01 00:42:13.284,-0.005,0.105
2021-08-01 00:42:13.288,-0.05,0.08
2021-08-01 00:42:13.292,-0.065,0.04
2021-08-01 00:42:13.296,-0.1,0.015
2021-08-01 00:42:13.300,-0.12,-0.005
2021-08-01 00:42:13.304,-0.14,-0.045
2021-08-01 00:42:13.308,-0.165,-0.055
2021-08-01 00:42:13.312,-0.185,-0.055
2021-08-01 00:42:13.316,-0.235,-0.095
2021-08-01 00:42:13.320,-0.235,-0.135
2021-08-01 00:42:13.324,-0.225,-0.15
2021-08-01 00:42:13.328,-0.205,-0.155
2021-08-01 00:42:13.332,-0.215,-0.13
2021-08-01 00:42:13.336,-0.205,-0.15
2021-08-01 00:42:13.340,-0.22,-0.16
2021-08-01 00:42:13.344,-0.23,-0.15
2021-08-01 00:42:13.348,-0.215,-0.15
2021-08-01 00:42:13.352,-0.21,-0.15
2021-08-01 00:42:13.356,-0.21,-0.17
2021-08-01 00:42:13.360,-0.19,-0.19
2021-08-01 00:42:13.364,-0.185,-0.175
2021-08-01 00:42:13.368,-0.205,-0.155
2021-08-01 00:42:13.372,-0.2,-0.2
2021-08-01 00:42:13.376,-0.195,-0.21
2021-08-01 00:42:13.380,-0.18,-0.17
2021-08-01 00:42:13.384,-0.19,-0.16
2021-08-01 00:42:13.388,-0.18,-0.165
2021-08-01 00:42:13.392,-0.18,-0.16
2021-08-01 00:42:13.396,-0.18,-0.155
2021-08-01 00:42:13.400,-0.175,-0.14
2021-08-01 00:42:13.404,-0.2,-0.125
2021-08-01 00:42:13.408,-0.2,-0.065
2021-08-01 00:42:13.412,-0.175,0.01
2021-08-01 00:42:13.416,-0.18,0.165
2021-08-01 00:42:13.420,-0.155,0.385
2021-08-01 00:42:13.424,-0.085,0.71
2021-08-01 00:42:13.428,-0.065,1.02
2021-08-01 00:42:13.432,-0.215,1.21
2021-08-01 00:42:13.436,-0.52,1.335
2021-08-01 00:42:13.440,-1.03,1.495
2021-08-01 00:42:13.444,-1.72,1.765
2021-08-01 00:42:13.488,-1.985,1.685
2021-08-01 00:42:13.492,-1.89,1.765
2021-08-01 00:42:13.496,-1.75,1.685
2021-08-01 00:42:13.500,-1.615,1.295
2021-08-01 00:42:13.504,-1.51,0.705
2021-08-01 00:42:13.508,-1.405,0.165
2021-08-01 00:42:13.512,-1.255,-0.19
2021-08-01 00:42:13.516,-1.105,-0.36
2021-08-01 00:42:13.520,-0.955,-0.465
2021-08-01 00:42:13.524,-0.81,-0.46
2021-08-01 00:42:13.528,-0.6,-0.44
2021-08-01 00:42:13.532,-0.4,-0.4
2021-08-01 00:42:13.536,-0.205,-0.39
2021-08-01 00:42:13.540,-0.065,-0.395
2021-08-01 00:42:13.544,0.095,-0.37
2021-08-01 00:42:13.548,0.205,-0.37
2021-08-01 00:42:13.552,0.215,-0.375
2021-08-01 00:42:13.556,0.27,-0.405
2021-08-01 00:42:13.560,0.3,-0.38
2021-08-01 00:42:13.564,0.31,-0.375
2021-08-01 00:42:13.568,0.35,-0.405
2021-08-01 00:42:13.572,0.365,-0.4
2021-08-01 00:42:13.576,0.375,-0.39
2021-08-01 00:42:13.580,0.37,-0.38
2021-08-01 00:42:13.584,0.38,-0.385
2021-08-01 00:42:13.588,0.395,-0.385
2021-08-01 00:42:13.592,0.415,-0.37
2021-08-01 00:42:13.596,0.435,-0.345
2021-08-01 00:42:13.600,0.475,-0.38
2021-08-01 00:42:13.604,0.44,-0.365
2021-08-01 00:42:13.608,0.475,-0.365
2021-08-01 00:42:13.612,0.465,-0.36
2021-08-01 00:42:13.616,0.475,-0.325
2021-08-01 00:42:13.620,0.515,-0.36
2021-08-01 00:42:13.624,0.53,-0.355
2021-08-01 00:42:13.628,0.54,-0.345
2021-08-01 00:42:13.632,0.545,-0.335
2021-08-01 00:42:13.636,0.555,-0.345
2021-08-01 00:42:13.640,0.59,-0.325
2021-08-01 00:42:13.644,0.61,-0.33
2021-08-01 00:42:13.648,0.645,-0.35
2021-08-01 00:42:13.652,0.655,-0.35
2021-08-01 00:42:13.656,0.675,-0.35
2021-08-01 00:42:13.660,0.685,-0.355
2021-08-01 00:42:13.664,0.7,-0.345
2021-08-01 00:42:13.668,0.73,-0.37
2021-08-01 00:42:13.672,0.745,-0.35
2021-08-01 00:42:13.676,0.76,-0.37
2021-08-01 00:42:13.680,0.79,-0.36
2021-08-01 00:42:13.684,0.8,-0.36
2021-08-01 00:42:13.688,0.79,-0.345
2021-08-01 00:42:13.692,0.815,-0.315
2021-08-01 00:42:13.696,0.825,-0.29
2021-08-01 00:42:13.700,0.82,-0.27
2021-08-01 00:42:13.704,0.83,-0.235
2021-08-01 00:42:13.708,0.795,-0.18
2021-08-01 00:42:13.712,0.76,-0.115
2021-08-01 00:42:13.716,0.735,-0.07
2021-08-01 00:42:13.720,0.705,-0.05
2021-08-01 00:42:13.724,0.67,0.035
2021-08-01 00:42:13.728,0.62,0.08
2021-08-01 00:42:13.732,0.6,0.12
2021-08-01 00:42:13.736,0.53,0.155
2021-08-01 00:42:13.740,0.495,0.2
2021-08-01 00:42:13.744,0.435,0.21
2021-08-01 00:42:13.748,0.365,0.24
2021-08-01 00:42:13.752,0.33,0.23
2021-08-01 00:42:13.756,0.335,0.25
2021-08-01 00:42:13.760,0.275,0.26
2021-08-01 00:42:13.764,0.21,0.235
2021-08-01 00:42:13.768,0.19,0.23
2021-08-01 00:42:13.772,0.175,0.225
2021-08-01 00:42:13.776,0.16,0.22
2021-08-01 00:42:13.780,0.13,0.22
2021-08-01 00:42:13.784,0.125,0.195
2021-08-01 00:42:13.788,0.115,0.195
2021-08-01 00:42:13.792,0.1,0.185
2021-08-01 00:42:13.796,0.075,0.19
2021-08-01 00:42:13.800,0.075,0.18
2021-08-01 00:42:13.804,0.085,0.17
2021-08-01 00:42:13.808,0.075,0.195
2021-08-01 00:42:13.812,0.075,0.165
2021-08-01 00:42:13.816,0.06,0.16
2021-08-01 00:42:13.820,0.075,0.155
2021-08-01 00:42:13.824,0.025,0.145
2021-08-01 00:42:13.828,0.04,0.15
2021-08-01 00:42:13.832,0.035,0.125
2021-08-01 00:42:13.836,0.035,0.12
2021-08-01 00:42:13.840,0.065,0.125
2021-08-01 00:42:13.844,0.075,0.12
2021-08-01 00:42:13.848,0.07,0.11
2021-08-01 00:42:13.852,0.08,0.08
2021-08-01 00:42:13.856,0.07,0.075
2021-08-01 00:42:13.860,0.095,0.09
2021-08-01 00:42:13.864,0.085,0.085
2021-08-01 00:42:13.868,0.07,0.06
2021-08-01 00:42:13.872,0.095,0.07
2021-08-01 00:42:13.876,0.115,0.045
2021-08-01 00:42:13.880,0.1,0.015
2021-08-01 00:42:13.884,0.105,0.015
2021-08-01 00:42:13.888,0.11,0.01
2021-08-01 00:42:13.892,0.11,0.02
2021-08-01 00:42:13.896,0.1,0.03
2021-08-01 00:42:13.900,0.09,0.015
2021-08-01 00:42:13.904,0.085,0.015
2021-08-01 00:42:13.908,0.09,0.03
2021-08-01 00:42:13.912,0.09,0.01
2021-08-01 00:42:13.916,0.085,0.015
2021-08-01 00:42:13.920,0.04,0.0
2021-08-01 00:42:13.924,0.04,0.02
2021-08-01 00:42:13.928,0.055,0.0
2021-08-01 00:42:13.932,0.06,0.01
2021-08-01 00:42:13.936,0.04,0.015
2021-08-01 00:42:13.940,0.045,0.035
2021-08-01 00:42:13.944,0.05,0.03
2021-08-01 00:42:13.948,0.04,0.025
2021-08-01 00:42:13.952,0.02,0.045
2021-08-01 00:42:13.956,0.02,0.04
2021-08-01 00:42:13.960,0.015,0.04
2021-08-01 00:42:13.964,0.03,0.025
2021-08-01 00:42:13.968,0.02,0.03
2021-08-01 00:42:13.972,0.02,0.05
2021-08-01 00:42:13.976,0.025,0.03
2021-08-01 00:42:13.980,0.02,0.04
2021-08-01 00:42:13.984,0.0,0.04
2021-08-01 00:42:13.988,0.025,0.055
2021-08-01 00:42:13.992,0.02,0.03
2021-08-01 00:42:13.996,0.025,0.04
2021-08-01 00:42:14.000,0.0,0.03
2021-08-01 00:42:14.004,0.02,0.055
2021-08-01 00:42:14.008,0.03,0.07
2021-08-01 00:42:14.012,0.015,0.055
2021-08-01 00:42:14.016,0.005,0.065
2021-08-01 00:42:14.020,0.005,0.04
2021-08-01 00:42:14.024,0.03,0.055
2021-08-01 00:42:14.028,0.01,0.065
2021-08-01 00:42:14.032,-0.005,0.045
2021-08-01 00:42:14.036,-0.005,0.065
2021-08-01 00:42:14.040,-0.005,0.09
2021-08-01 00:42:14.044,0.0,0.135
2021-08-01 00:42:14.048,0.0,0.165
2021-08-01 00:42:14.052,0.03,0.145
2021-08-01 00:42:14.056,0.045,0.19
2021-08-01 00:42:14.060,0.075,0.2
2021-08-01 00:42:14.064,0.085,0.215
2021-08-01 00:42:14.068,0.095,0.23
2021-08-01 00:42:14.072,0.115,0.24
2021-08-01 00:42:14.076,0.17,0.215
2021-08-01 00:42:14.080,0.165,0.195
2021-08-01 00:42:14.084,0.15,0.18
2021-08-01 00:42:14.088,0.13,0.17
2021-08-01 00:42:14.092,0.1,0.145
2021-08-01 00:42:14.096,0.08,0.14
2021-08-01 00:42:14.100,0.01,0.1
2021-08-01 00:42:14.104,-0.015,0.08
2021-08-01 00:42:14.108,0.02,0.05
2021-08-01 00:42:14.112,-0.005,0.05
2021-08-01 00:42:14.116,-0.01,0.04
2021-08-01 00:42:14.120,-0.04,0.01
2021-08-01 00:42:14.124,-0.055,-0.035
2021-08-01 00:42:14.128,-0.075,-0.055
2021-08-01 00:42:14.132,-0.06,-0.07
2021-08-01 00:42:14.136,-0.015,-0.065
2021-08-01 00:42:14.140,-0.03,-0.085
2021-08-01 00:42:14.144,-0.03,-0.11
2021-08-01 00:42:14.148,-0.03,-0.085
2021-08-01 00:42:14.152,-0.025,-0.085
2021-08-01 00:42:14.156,-0.025,-0.07
2021-08-01 00:42:14.160,-0.045,-0.07
2021-08-01 00:42:14.164,-0.03,-0.075
2021-08-01 00:42:14.168,-0.035,-0.065
2021-08-01 00:42:14.172,-0.015,-0.05
2021-08-01 00:42:14.176,-0.035,-0.04
2021-08-01 00:42:14.180,-0.045,-0.055
2021-08-01 00:42:14.184,-0.055,-0.055
2021-08-01 00:42:14.188,-0.02,-0.045
2021-08-01 00:42:14.192,-0.02,-0.06
2021-08-01 00:42:14.196,-0.045,-0.03
2021-08-01 00:42:14.200,-0.03,-0.03
2021-08-01 00:42:14.204,-0.03,-0.04
2021-08-01 00:42:14.208,-0.045,-0.04
2021-08-01 00:42:14.212,-0.045,-0.01
2021-08-01 00:42:14.216,-0.035,0.07
2021-08-01 00:42:14.220,-0.045,0.175
2021-08-01 00:42:14.224,-0.025,0.34
2021-08-01 00:42:14.228,0.02,0.605
2021-08-01 00:42:14.232,0.09,0.91
2021-08-01 00:42:14.236,0.035,1.095
2021-08-01 00:42:14.240,-0.2,1.225
2021-08-01 00:42:14.244,-0.66,1.41
2021-08-01 00:42:14.248,-1.33,1.665
2021-08-01 00:42:14.252,-2.0,1.89
2021-08-01 00:42:14.288,-1.985,1.745
2021-08-01 00:42:14.292,-1.88,1.765
2021-08-01 00:42:14.296,-1.74,1.83
2021-08-01 00:42:14.300,-1.585,1.705
2021-08-01 00:42:14.304,-1.445,1.29
2021-08-01 00:42:14.308,-1.34,0.69
2021-08-01 00:42:14.312,-1.245,0.15
2021-08-01 00:42:14.316,-1.13,-0.135
2021-08-01 00:42:14.320,-0.98,-0.34
2021-08-01 00:42:14.324,-0.835,-0.37
2021-08-01 00:42:14.328,-0.69,-0.365
2021-08-01 00:42:14.332,-0.475,-0.315
2021-08-01 00:42:14.336,-0.29,-0.31
2021-08-01 00:42:14.340,-0.105,-0.27
2021-08-01 00:42:14.344,0.065,-0.265
2021-08-01 00:42:14.348,0.205,-0.26
2021-08-01 00:42:14.352,0.3,-0.28
2021-08-01 00:42:14.356,0.36,-0.28
2021-08-01 00:42:14.360,0.405,-0.26
2021-08-01 00:42:14.364,0.43,-0.27
2021-08-01 00:42:14.368,0.46,-0.28
2021-08-01 00:42:14.372,0.465,-0.285
2021-08-01 00:42:14.376,0.48,-0.27
2021-08-01 00:42:14.380,0.51,-0.26
2021-08-01 00:42:14.384,0.545,-0.285
2021-08-01 00:42:14.388,0.525,-0.285
2021-08-01 00:42:14.392,0.545,-0.28
2021-08-01 00:42:14.396,0.56,-0.275
2021-08-01 00:42:14.400,0.57,-0.27
2021-08-01 00:42:14.404,0.585,-0.28
2021-08-01 00:42:14.408,0.595,-0.285
2021-08-01 00:42:14.412,0.61,-0.29
2021-08-01 00:42:14.416,0.625,-0.295
2021-08-01 00:42:14.420,0.645,-0.305
2021-08-01 00:42:14.424,0.65,-0.29
2021-08-01 00:42:14.428,0.685,-0.315
2021-08-01 00:42:14.432,0.69,-0.32
2021-08-01 00:42:14.436,0.71,-0.325
2021-08-01 00:42:14.440,0.715,-0.345
2021-08-01 00:42:14.444,0.73,-0.355
2021-08-01 00:42:14.448,0.765,-0.36
2021-08-01 00:42:14.452,0.775,-0.375
2021-08-01 00:42:14.456,0.815,-0.385
2021-08-01 00:42:14.460,0.815,-0.39
2021-08-01 00:42:14.464,0.85,-0.425
2021-08-01 00:42:14.468,0.885,-0.44
2021-08-01 00:42:14.472,0.91,-0.445
2021-08-01 00:42:14.476,0.93,-0.43
2021-08-01 00:42:14.480,0.95,-0.45
2021-08-01 00:42:14.484,0.955,-0.45
2021-08-01 00:42:14.488,0.985,-0.445
2021-08-01 00:42:14.492,0.965,-0.45
2021-08-01 00:42:14.496,0.96,-0.43
2021-08-01 00:42:14.500,0.96,-0.39
2021-08-01 00:42:14.504,0.93,-0.37
2021-08-01 00:42:14.508,0.94,-0.35
2021-08-01 00:42:14.512,0.945,-0.305
2021-08-01 00:42:14.516,0.91,-0.26
2021-08-01 00:42:14.520,0.88,-0.22
2021-08-01 00:42:14.524,0.855,-0.185
2021-08-01 00:42:14.528,0.785,-0.12
2021-08-01 00:42:14.532,0.74,-0.075
2021-08-01 00:42:14.536,0.705,-0.02
2021-08-01 00:42:14.540,0.645,0.01
2021-08-01 00:42:14.544,0.59,0.045
2021-08-01 00:42:14.548,0.56,0.06
2021-08-01 00:42:14.552,0.52,0.085
2021-08-01 00:42:14.556,0.46,0.095
2021-08-01 00:42:14.560,0.425,0.11
2021-08-01 00:42:14.564,0.385,0.105
2021-08-01 00:42:14.568,0.35,0.09
2021-08-01 00:42:14.572,0.315,0.09
2021-08-01 00:42:14.576,0.265,0.075
2021-08-01 00:42:14.580,0.255,0.08
2021-08-01 00:42:14.584,0.245,0.065
2021-08-01 00:42:14.588,0.22,0.08
2021-08-01 00:42:14.592,0.2,0.065
2021-08-01 00:42:14.596,0.2,0.04
2021-08-01 00:42:14.600,0.195,0.03
2021-08-01 00:42:14.604,0.19,0.015
2021-08-01 00:42:14.608,0.155,0.02
2021-08-01 00:42:14.612,0.185,0.01
2021-08-01 00:42:14.616,0.145,-0.005
2021-08-01 00:42:14.620,0.15,0.015
2021-08-01 00:42:14.624,0.19,-0.01
2021-08-01 00:42:14.628,0.175,-0.02
2021-08-01 00:42:14.632,0.17,-0.02
2021-08-01 00:42:14.636,0.155,0.0
2021-08-01 00:42:14.640,0.17,-0.01
2021-08-01 00:42:14.644,0.165,-0.045
2021-08-01 00:42:14.648,0.145,-0.035
2021-08-01 00:42:14.652,0.16,-0.05
2021-08-01 00:42:14.656,0.15,-0.07
2021-08-01 00:42:14.660,0.15,-0.075
2021-08-01 00:42:14.664,0.15,-0.06
2021-08-01 00:42:14.668,0.15,-0.095
2021-08-01 00:42:14.672,0.155,-0.1
2021-08-01 00:42:14.676,0.15,-0.1
2021-08-01 00:42:14.680,0.15,-0.1
2021-08-01 00:42:14.684,0.145,-0.09
2021-08-01 00:42:14.688,0.14,-0.12
2021-08-01 00:42:14.692,0.12,-0.14
2021-08-01 00:42:14.696,0.125,-0.11
2021-08-01 00:42:14.700,0.14,-0.12
2021-08-01 00:42:14.704,0.15,-0.115
2021-08-01 00:42:14.708,0.14,-0.145
2021-08-01 00:42:14.712,0.155,-0.13
2021-08-01 00:42:14.716,0.16,-0.12
2021-08-01 00:42:14.720,0.16,-0.135
2021-08-01 00:42:14.724,0.145,-0.135
2021-08-01 00:42:14.728,0.14,-0.14
2021-08-01 00:42:14.732,0.125,-0.13
2021-08-01 00:42:14.736,0.13,-0.12
2021-08-01 00:42:14.740,0.13,-0.14
2021-08-01 00:42:14.744,0.13,-0.115
2021-08-01 00:42:14.748,0.125,-0.135
2021-08-01 00:42:14.752,0.14,-0.12
2021-08-01 00:42:14.756,0.13,-0.12
2021-08-01 00:42:14.760,0.12,-0.105
2021-08-01 00:42:14.764,0.15,-0.1
2021-08-01 00:42:14.768,0.125,-0.11
2021-08-01 00:42:14.772,0.105,-0.11
2021-08-01 00:42:14.776,0.12,-0.1
2021-08-01 00:42:14.780,0.08,-0.095
2021-08-01 00:42:14.784,0.09,-0.09
2021-08-01 00:42:14.788,0.115,-0.09
2021-08-01 00:42:14.792,0.13,-0.075
2021-08-01 00:42:14.796,0.1,-0.085
2021-08-01 00:42:14.800,0.1,-0.09
2021-08-01 00:42:14.804,0.1,-0.09
2021-08-01 00:42:14.808,0.095,-0.065
2021-08-01 00:42:14.812,0.08,-0.055
2021-08-01 00:42:14.816,0.09,-0.06
2021-08-01 00:42:14.820,0.1,-0.045
2021-08-01 00:42:14.824,0.095,0.015
2021-08-01 00:42:14.828,0.08,0.015
2021-08-01 00:42:14.832,0.125,0.01
2021-08-01 00:42:14.836,0.15,0.065
2021-08-01 00:42:14.840,0.155,0.085
2021-08-01 00:42:14.844,0.18,0.1
2021-08-01 00:42:14.848,0.195,0.095
2021-08-01 00:42:14.852,0.225,0.11
2021-08-01 00:42:14.856,0.23,0.09
2021-08-01 00:42:14.860,0.23,0.065
2021-08-01 00:42:14.864,0.23,0.035
2021-08-01 00:42:14.868,0.195,0.02
2021-08-01 00:42:14.872,0.16,0.05
2021-08-01 00:42:14.876,0.115,0.015
2021-08-01 00:42:14.880,0.075,-0.035
2021-08-01 00:42:14.884,0.04,-0.045
2021-08-01 00:42:14.888,0.06,-0.06
2021-08-01 00:42:14.892,0.05,-0.055
2021-08-01 00:42:14.896,0.0,-0.09
2021-08-01 00:42:14.900,-0.03,-0.15
2021-08-01 00:42:14.904,-0.015,-0.18
2021-08-01 00:42:14.908,-0.02,-0.19
2021-08-01 00:42:14.912,0.0,-0.22
2021-08-01 00:42:14.916,0.03,-0.2
2021-08-01 00:42:14.920,0.045,-0.2
2021-08-01 00:42:14.924,0.015,-0.22
2021-08-01 00:42:14.928,-0.01,-0.215
2021-08-01 00:42:14.932,0.015,-0.215
2021-08-01 00:42:14.936,0.0,-0.2
2021-08-01 00:42:14.940,0.0,-0.195
2021-08-01 00:42:14.944,-0.02,-0.18
2021-08-01 00:42:14.948,0.005,-0.205
2021-08-01 00:42:14.952,0.0,-0.19
2021-08-01 00:42:14.956,0.015,-0.19
2021-08-01 00:42:14.960,0.025,-0.2
2021-08-01 00:42:14.964,-0.005,-0.2
2021-08-01 00:42:14.968,0.005,-0.2
2021-08-01 00:42:14.972,-0.01,-0.2
2021-08-01 00:42:14.976,-0.02,-0.205
2021-08-01 00:42:14.980,-0.005,-0.2
2021-08-01 00:42:14.984,0.0,-0.18
2021-08-01 00:42:14.988,-0.02,-0.16
2021-08-01 00:42:14.992,-0.025,-0.15
2021-08-01 00:42:14.996,0.0,-0.085
2021-08-01 00:42:15.000,0.0,0.035
2021-08-01 00:42:15.004,-0.01,0.195
2021-08-01 00:42:15.008,0.045,0.45
2021-08-01 00:42:15.012,0.12,0.735
2021-08-01 00:42:15.016,0.05,0.935
2021-08-01 00:42:15.020,-0.215,1.05
2021-08-01 00:42:15.024,-0.7,1.275
2021-08-01 00:42:15.028,-1.4,1.55
2021-08-01 00:42:15.068,-1.92,1.62
2021-08-01 00:42:15.072,-1.815,1.64
2021-08-01 00:42:15.076,-1.71,1.7
2021-08-01 00:42:15.080,-1.56,1.59
2021-08-01 00:42:15.084,-1.42,1.17
2021-08-01 00:42:15.088,-1.34,0.535
2021-08-01 00:42:15.092,-1.25,0.005
2021-08-01 00:42:15.096,-1.125,-0.335
2021-08-01 00:42:15.100,-0.955,-0.52
2021-08-01 00:42:15.104,-0.79,-0.55
2021-08-01 00:42:15.108,-0.64,-0.525
2021-08-01 00:42:15.112,-0.455,-0.525
2021-08-01 00:42:15.116,-0.245,-0.48
2021-08-01 00:42:15.120,-0.05,-0.465
2021-08-01 00:42:15.124,0.11,-0.455
2021-08-01 00:42:15.128,0.255,-0.445
2021-08-01 00:42:15.132,0.33,-0.465
2021-08-01 00:42:15.136,0.38,-0.465
2021-08-01 00:42:15.140,0.435,-0.46
2021-08-01 00:42:15.144,0.46,-0.43
2021-08-01 00:42:15.148,0.46,-0.43
2021-08-01 00:42:15.152,0.48,-0.46
2021-08-01 00:42:15.156,0.52,-0.455
2021-08-01 00:42:15.160,0.54,-0.45
2021-08-01 00:42:15.164,0.535,-0.44
2021-08-01 00:42:15.168,0.52,-0.44
2021-08-01 00:42:15.172,0.555,-0.46
2021-08-01 00:42:15.176,0.575,-0.45
2021-08-01 00:42:15.180,0.615,-0.465
2021-08-01 00:42:15.184,0.62,-0.485
2021-08-01 00:42:15.188,0.625,-0.49
2021-08-01 00:42:15.192,0.635,-0.485
2021-08-01 00:42:15.196,0.65,-0.49
2021-08-01 00:42:15.200,0.675,-0.51
2021-08-01 00:42:15.204,0.7,-0.52
2021-08-01 00:42:15.208,0.71,-0.51
2021-08-01 00:42:15.212,0.715,-0.52
2021-08-01 00:42:15.216,0.725,-0.565
2021-08-01 00:42:15.220,0.76,-0.58
2021-08-01 00:42:15.224,0.775,-0.575
2021-08-01 00:42:15.228,0.79,-0.59
2021-08-01 00:42:15.232,0.825,-0.635
2021-08-01 00:42:15.236,0.87,-0.64
2021-08-01 00:42:15.240,0.895,-0.645
2021-08-01 00:42:15.244,0.925,-0.65
2021-08-01 00:42:15.248,0.93,-0.68
2021-08-01 00:42:15.252,0.955,-0.71
2021-08-01 00:42:15.256,0.975,-0.675
2021-08-01 00:42:15.260,0.99,-0.68
2021-08-01 00:42:15.264,0.99,-0.69
2021-08-01 00:42:15.268,0.99,-0.69
2021-08-01 00:42:15.272,1.005,-0.665
2021-08-01 00:42:15.276,0.985,-0.615
2021-08-01 00:42:15.280,0.985,-0.61
2021-08-01 00:42:15.284,0.93,-0.595
2021-08-01 00:42:15.288,0.905,-0.53
2021-08-01 00:42:15.292,0.89,-0.47
2021-08-01 00:42:15.296,0.835,-0.435
2021-08-01 00:42:15.300,0.765,-0.375
2021-08-01 00:42:15.304,0.745,-0.33
2021-08-01 00:42:15.308,0.665,-0.305
2021-08-01 00:42:15.312,0.67,-0.23
2021-08-01 00:42:15.316,0.585,-0.21
2021-08-01 00:42:15.320,0.505,-0.165
2021-08-01 00:42:15.324,0.47,-0.13
2021-08-01 00:42:15.328,0.425,-0.16
2021-08-01 00:42:15.332,0.42,-0.175
2021-08-01 00:42:15.336,0.365,-0.145
2021-08-01 00:42:15.340,0.325,-0.14
2021-08-01 00:42:15.344,0.275,-0.175
2021-08-01 00:42:15.348,0.245,-0.165
2021-08-01 00:42:15.352,0.22,-0.175
2021-08-01 00:42:15.356,0.22,-0.16
2021-08-01 00:42:15.360,0.2,-0.19
2021-08-01 00:42:15.364,0.18,-0.195
2021-08-01 00:42:15.368,0.185,-0.195
2021-08-01 00:42:15.372,0.165,-0.195
2021-08-01 00:42:15.376,0.15,-0.205
2021-08-01 00:42:15.380,0.135,-0.245
2021-08-01 00:42:15.384,0.145,-0.245
2021-08-01 00:42:15.388,0.135,-0.21
2021-08-01 00:42:15.392,0.16,-0.245
2021-08-01 00:42:15.396,0.15,-0.26
2021-08-01 00:42:15.400,0.17,-0.265
2021-08-01 00:42:15.404,0.13,-0.24
2021-08-01 00:42:15.408,0.14,-0.235
2021-08-01 00:42:15.412,0.13,-0.265
2021-08-01 00:42:15.416,0.145,-0.27
2021-08-01 00:42:15.420,0.125,-0.26
2021-08-01 00:42:15.424,0.145,-0.3
2021-08-01 00:42:15.428,0.16,-0.315
2021-08-01 00:42:15.432,0.17,-0.295
2021-08-01 00:42:15.436,0.165,-0.32
2021-08-01 00:42:15.440,0.165,-0.33
2021-08-01 00:42:15.444,0.155,-0.335
2021-08-01 00:42:15.448,0.17,-0.34
2021-08-01 00:42:15.452,0.175,-0.34
2021-08-01 00:42:15.456,0.175,-0.35
2021-08-01 00:42:15.460,0.17,-0.345
2021-08-01 00:42:15.464,0.14,-0.345
2021-08-01 00:42:15.468,0.17,-0.32
2021-08-01 00:42:15.472,0.17,-0.33
2021-08-01 00:42:15.476,0.17,-0.36
2021-08-01 00:42:15.480,0.19,-0.385
2021-08-01 00:42:15.484,0.155,-0.345
2021-08-01 00:42:15.488,0.17,-0.325
2021-08-01 00:42:15.492,0.15,-0.355
2021-08-01 00:42:15.496,0.185,-0.345
2021-08-01 00:42:15.500,0.175,-0.305
2021-08-01 00:42:15.504,0.18,-0.35
2021-08-01 00:42:15.508,0.145,-0.365
2021-08-01 00:42:15.512,0.16,-0.35
2021-08-01 00:42:15.516,0.145,-0.325
2021-08-01 00:42:15.520,0.135,-0.32
2021-08-01 00:42:15.524,0.12,-0.345
2021-08-01 00:42:15.528,0.145,-0.315
2021-08-01 00:42:15.532,0.145,-0.3
2021-08-01 00:42:15.536,0.14,-0.32
2021-08-01 00:42:15.540,0.15,-0.315
2021-08-01 00:42:15.544,0.155,-0.335
2021-08-01 00:42:15.548,0.13,-0.285
2021-08-01 00:42:15.552,0.115,-0.28
2021-08-01 00:42:15.556,0.145,-0.3
2021-08-01 00:42:15.560,0.13,-0.28
2021-08-01 00:42:15.564,0.135,-0.3
2021-08-01 00:42:15.568,0.15,-0.3
2021-08-01 00:42:15.572,0.125,-0.33
2021-08-01 00:42:15.576,0.135,-0.31
2021-08-01 00:42:15.580,0.13,-0.285
2021-08-01 00:42:15.584,0.12,-0.3
2021-08-01 00:42:15.588,0.1,-0.305
2021-08-01 00:42:15.592,0.11,-0.295
2021-08-01 00:42:15.596,0.115,-0.275
2021-08-01 00:42:15.600,0.105,-0.29
2021-08-01 00:42:15.604,0.105,-0.29
2021-08-01 00:42:15.608,0.1,-0.27
2021-08-01 00:42:15.612,0.12,-0.265
2021-08-01 00:42:15.616,0.1,-0.285
2021-08-01 00:42:15.620,0.09,-0.305
2021-08-01 00:42:15.624,0.1,-0.295
2021-08-01 00:42:15.628,0.09,-0.27
2021-08-01 00:42:15.632,0.095,-0.27
2021-08-01 00:42:15.636,0.07,-0.295
2021-08-01 00:42:15.640,0.085,-0.27
2021-08-01 00:42:15.644,0.11,-0.23
2021-08-01 00:42:15.648,0.105,-0.22
2021-08-01 00:42:15.652,0.09,-0.21
2021-08-01 00:42:15.656,0.115,-0.18
2021-08-01 00:42:15.660,0.135,-0.14
2021-08-01 00:42:15.664,0.17,-0.14
2021-08-01 00:42:15.668,0.175,-0.13
2021-08-01 00:42:15.672,0.22,-0.1
2021-08-01 00:42:15.676,0.225,-0.08
2021-08-01 00:42:15.680,0.245,-0.1
2021-08-01 00:42:15.684,0.25,-0.145
2021-08-01 00:42:15.688,0.27,-0.15
2021-08-01 00:42:15.692,0.245,-0.18
2021-08-01 00:42:15.696,0.195,-0.18
2021-08-01 00:42:15.700,0.16,-0.195
2021-08-01 00:42:15.704,0.115,-0.215
2021-08-01 00:42:15.708,0.105,-0.235
2021-08-01 00:42:15.712,0.07,-0.265
2021-08-01 00:42:15.716,0.095,-0.28
2021-08-01 00:42:15.720,0.06,-0.295
2021-08-01 00:42:15.724,0.03,-0.32
2021-08-01 00:42:15.728,0.035,-0.38
2021-08-01 00:42:15.732,0.005,-0.405
2021-08-01 00:42:15.736,0.01,-0.4
2021-08-01 00:42:15.740,0.04,-0.405
2021-08-01 00:42:15.744,0.03,-0.395
2021-08-01 00:42:15.748,0.035,-0.4
2021-08-01 00:42:15.752,0.015,-0.405
2021-08-01 00:42:15.756,0.015,-0.395
2021-08-01 00:42:15.760,0.015,-0.4
2021-08-01 00:42:15.764,0.01,-0.415
2021-08-01 00:42:15.768,0.015,-0.415
2021-08-01 00:42:15.772,0.03,-0.39
2021-08-01 00:42:15.776,0.02,-0.38
2021-08-01 00:42:15.780,0.015,-0.41
2021-08-01 00:42:15.784,0.05,-0.4
2021-08-01 00:42:15.788,0.055,-0.37
2021-08-01 00:42:15.792,0.045,-0.365
2021-08-01 00:42:15.796,0.045,-0.375
2021-08-01 00:42:15.800,0.04,-0.365
2021-08-01 00:42:15.804,0.03,-0.365
2021-08-01 00:42:15.808,0.035,-0.35
2021-08-01 00:42:15.812,0.05,-0.37
2021-08-01 00:42:15.816,0.045,-0.34
2021-08-01 00:42:15.820,0.06,-0.255
2021-08-01 00:42:15.824,0.07,-0.15
2021-08-01 00:42:15.828,0.055,-0.02
2021-08-01 00:42:15.832,0.105,0.22
2021-08-01 00:42:15.836,0.17,0.545
2021-08-01 00:42:15.840,0.17,0.78
2021-08-01 00:42:15.844,-0.035,0.88
2021-08-01 00:42:15.848,-0.405,1.07
2021-08-01 00:42:15.852,-1.01,1.35
2021-08-01 00:42:15.856,-1.725,1.59
2021-08-01 00:42:15.892,-1.925,1.45
2021-08-01 00:42:15.896,-1.78,1.5
2021-08-01 00:42:15.900,-1.665,1.55
2021-08-01 00:42:15.904,-1.53,1.56
2021-08-01 00:42:15.908,-1.4,1.26
2021-08-01 00:42:15.912,-1.29,0.72
2021-08-01 00:42:15.916,-1.205,0.15
2021-08-01 00:42:15.920,-1.09,-0.25
2021-08-01 00:42:15.924,-0.975,-0.52
2021-08-01 00:42:15.928,-0.825,-0.68
2021-08-01 00:42:15.932,-0.67,-0.7
2021-08-01 00:42:15.936,-0.505,-0.655
2021-08-01 00:42:15.940,-0.31,-0.64
2021-08-01 00:42:15.944,-0.135,-0.655
2021-08-01 00:42:15.948,0.03,-0.625
2021-08-01 00:42:15.952,0.21,-0.61
2021-08-01 00:42:15.956,0.295,-0.615
2021-08-01 00:42:15.960,0.395,-0.625
2021-08-01 00:42:15.964,0.445,-0.64
2021-08-01 00:42:15.968,0.475,-0.63
2021-08-01 00:42:15.972,0.515,-0.605
2021-08-01 00:42:15.976,0.545,-0.64
2021-08-01 00:42:15.980,0.55,-0.665
2021-08-01 00:42:15.984,0.57,-0.65
2021-08-01 00:42:15.988,0.575,-0.635
2021-08-01 00:42:15.992,0.59,-0.655
2021-08-01 00:42:15.996,0.575,-0.67
2021-08-01 00:42:16.000,0.615,-0.625
2021-08-01 00:42:16.004,0.61,-0.63
2021-08-01 00:42:16.008,0.625,-0.66
2021-08-01 00:42:16.012,0.655,-0.66
2021-08-01 00:42:16.016,0.67,-0.665
2021-08-01 00:42:16.020,0.65,-0.63
2021-08-01 00:42:16.024,0.67,-0.68
2021-08-01 00:42:16.028,0.7,-0.68
2021-08-01 00:42:16.032,0.73,-0.69
2021-08-01 00:42:16.036,0.735,-0.68
2021-08-01 00:42:16.040,0.76,-0.7
2021-08-01 00:42:16.044,0.78,-0.72
2021-08-01 00:42:16.048,0.785,-0.71
2021-08-01 00:42:16.052,0.81,-0.71
2021-08-01 00:42:16.056,0.83,-0.73
2021-08-01 00:42:16.060,0.85,-0.775
2021-08-01 00:42:16.064,0.885,-0.78
2021-08-01 00:42:16.068,0.9,-0.785
2021-08-01 00:42:16.072,0.905,-0.79
2021-08-01 00:42:16.076,0.91,-0.815
2021-08-01 00:42:16.080,0.945,-0.815
2021-08-01 00:42:16.084,0.96,-0.825
2021-08-01 00:42:16.088,0.985,-0.82
2021-08-01 00:42:16.092,1.01,-0.85
2021-08-01 00:42:16.096,1.0,-0.83
2021-08-01 00:42:16.100,1.02,-0.83
2021-08-01 00:42:16.104,1.015,-0.81
2021-08-01 00:42:16.108,1.0,-0.795
2021-08-01 00:42:16.112,0.99,-0.78
2021-08-01 00:42:16.116,0.975,-0.725
2021-08-01 00:42:16.120,0.95,-0.7
2021-08-01 00:42:16.124,0.91,-0.64
2021-08-01 00:42:16.128,0.885,-0.615
2021-08-01 00:42:16.132,0.835,-0.535
2021-08-01 00:42:16.136,0.805,-0.48
2021-08-01 00:42:16.140,0.74,-0.465
2021-08-01 00:42:16.144,0.685,-0.415
2021-08-01 00:42:16.148,0.63,-0.35
2021-08-01 00:42:16.152,0.595,-0.335
2021-08-01 00:42:16.156,0.545,-0.33
2021-08-01 00:42:16.160,0.5,-0.28
2021-08-01 00:42:16.164,0.47,-0.275
2021-08-01 00:42:16.168,0.385,-0.3
2021-08-01 00:42:16.172,0.365,-0.3
2021-08-01 00:42:16.176,0.355,-0.305
2021-08-01 00:42:16.180,0.295,-0.3
2021-08-01 00:42:16.184,0.255,-0.31
2021-08-01 00:42:16.188,0.235,-0.31
2021-08-01 00:42:16.192,0.22,-0.32
2021-08-01 00:42:16.196,0.21,-0.31
2021-08-01 00:42:16.200,0.195,-0.33
2021-08-01 00:42:16.204,0.205,-0.33
2021-08-01 00:42:16.208,0.205,-0.345
2021-08-01 00:42:16.212,0.19,-0.335
2021-08-01 00:42:16.216,0.19,-0.35
2021-08-01 00:42:16.220,0.185,-0.38
2021-08-01 00:42:16.224,0.195,-0.38
2021-08-01 00:42:16.228,0.22,-0.365
2021-08-01 00:42:16.232,0.225,-0.39
2021-08-01 00:42:16.236,0.205,-0.375
2021-08-01 00:42:16.240,0.18,-0.4
2021-08-01 00:42:16.244,0.19,-0.41
2021-08-01 00:42:16.248,0.185,-0.405
2021-08-01 00:42:16.252,0.18,-0.41
2021-08-01 00:42:16.256,0.185,-0.4
2021-08-01 00:42:16.260,0.2,-0.4
2021-08-01 00:42:16.264,0.145,-0.425
2021-08-01 00:42:16.268,0.21,-0.425
2021-08-01 00:42:16.272,0.2,-0.455
2021-08-01 00:42:16.276,0.175,-0.445
2021-08-01 00:42:16.280,0.185,-0.44
2021-08-01 00:42:16.284,0.195,-0.48
2021-08-01 00:42:16.288,0.19,-0.495
2021-08-01 00:42:16.292,0.225,-0.475
2021-08-01 00:42:16.296,0.205,-0.455
2021-08-01 00:42:16.300,0.2,-0.48
2021-08-01 00:42:16.304,0.17,-0.52
2021-08-01 00:42:16.308,0.205,-0.49
2021-08-01 00:42:16.312,0.205,-0.47
2021-08-01 00:42:16.316,0.195,-0.475
2021-08-01 00:42:16.320,0.195,-0.49
2021-08-01 00:42:16.324,0.19,-0.505
2021-08-01 00:42:16.328,0.22,-0.485
2021-08-01 00:42:16.332,0.19,-0.485
2021-08-01 00:42:16.336,0.21,-0.51
2021-08-01 00:42:16.340,0.2,-0.495
2021-08-01 00:42:16.344,0.165,-0.465
2021-08-01 00:42:16.348,0.2,-0.475
2021-08-01 00:42:16.352,0.19,-0.485
2021-08-01 00:42:16.356,0.175,-0.475
2021-08-01 00:42:16.360,0.175,-0.465
2021-08-01 00:42:16.364,0.175,-0.485
2021-08-01 00:42:16.368,0.19,-0.465
2021-08-01 00:42:16.372,0.17,-0.48
2021-08-01 00:42:16.376,0.16,-0.47
2021-08-01 00:42:16.380,0.165,-0.445
2021-08-01 00:42:16.384,0.155,-0.47
2021-08-01 00:42:16.388,0.145,-0.475
2021-08-01 00:42:16.392,0.145,-0.46
2021-08-01 00:42:16.396,0.15,-0.45
2021-08-01 00:42:16.400,0.15,-0.44
2021-08-01 00:42:16.404,0.15,-0.455
2021-08-01 00:42:16.408,0.12,-0.44
2021-08-01 00:42:16.412,0.135,-0.43
2021-08-01 00:42:16.416,0.14,-0.435
2021-08-01 00:42:16.420,0.13,-0.46
2021-08-01 00:42:16.424,0.13,-0.43
2021-08-01 00:42:16.428,0.125,-0.43
2021-08-01 00:42:16.432,0.155,-0.435
2021-08-01 00:42:16.436,0.145,-0.42
2021-08-01 00:42:16.440,0.155,-0.41
2021-08-01 00:42:16.444,0.15,-0.41
2021-08-01 00:42:16.448,0.135,-0.42
2021-08-01 00:42:16.452,0.13,-0.425
2021-08-01 00:42:16.456,0.125,-0.42
2021-08-01 00:42:16.460,0.115,-0.415
2021-08-01 00:42:16.464,0.125,-0.435
2021-08-01 00:42:16.468,0.12,-0.41
2021-08-01 00:42:16.472,0.11,-0.425
2021-08-01 00:42:16.476,0.11,-0.41
2021-08-01 00:42:16.480,0.14,-0.405
2021-08-01 00:42:16.484,0.145,-0.4
2021-08-01 00:42:16.488,0.16,-0.415
2021-08-01 00:42:16.492,0.145,-0.38
2021-08-01 00:42:16.496,0.15,-0.375
2021-08-01 00:42:16.500,0.13,-0.395
2021-08-01 00:42:16.504,0.125,-0.395
2021-08-01 00:42:16.508,0.15,-0.39
2021-08-01 00:42:16.512,0.135,-0.36
2021-08-01 00:42:16.516,0.15,-0.315
2021-08-01 00:42:16.520,0.16,-0.315
2021-08-01 00:42:16.524,0.175,-0.295
2021-08-01 00:42:16.528,0.22,-0.28
2021-08-01 00:42:16.532,0.235,-0.255
2021-08-01 00:42:16.536,0.25,-0.245
2021-08-01 00:42:16.540,0.29,-0.17
2021-08-01 00:42:16.544,0.285,-0.185
2021-08-01 00:42:16.548,0.33,-0.185
2021-08-01 00:42:16.552,0.32,-0.215
2021-08-01 00:42:16.556,0.345,-0.23
2021-08-01 00:42:16.560,0.365,-0.24
2021-08-01 00:42:16.564,0.325,-0.27
2021-08-01 00:42:16.568,0.265,-0.28
2021-08-01 00:42:16.572,0.235,-0.285
2021-08-01 00:42:16.576,0.215,-0.32
2021-08-01 00:42:16.580,0.185,-0.345
2021-08-01 00:42:16.584,0.195,-0.37
2021-08-01 00:42:16.588,0.17,-0.395
2021-08-01 00:42:16.592,0.12,-0.39
2021-08-01 00:42:16.596,0.12,-0.42
2021-08-01 00:42:16.600,0.105,-0.48
2021-08-01 00:42:16.604,0.11,-0.505
2021-08-01 00:42:16.608,0.125,-0.505
2021-08-01 00:42:16.612,0.135,-0.485
2021-08-01 00:42:16.616,0.12,-0.5
2021-08-01 00:42:16.620,0.13,-0.5
2021-08-01 00:42:16.624,0.125,-0.525
2021-08-01 00:42:16.628,0.12,-0.485
2021-08-01 00:42:16.632,0.11,-0.47
2021-08-01 00:42:16.636,0.11,-0.455
2021-08-01 00:42:16.640,0.095,-0.48
2021-08-01 00:42:16.644,0.11,-0.46
2021-08-01 00:42:16.648,0.115,-0.485
2021-08-01 00:42:16.652,0.145,-0.495
2021-08-01 00:42:16.656,0.125,-0.48
2021-08-01 00:42:16.660,0.115,-0.465
2021-08-01 00:42:16.664,0.11,-0.45
2021-08-01 00:42:16.668,0.135,-0.46
2021-08-01 00:42:16.672,0.125,-0.47
2021-08-01 00:42:16.676,0.12,-0.445
2021-08-01 00:42:16.680,0.135,-0.46
2021-08-01 00:42:16.684,0.12,-0.445
2021-08-01 00:42:16.688,0.115,-0.43
2021-08-01 00:42:16.692,0.105,-0.365
2021-08-01 00:42:16.696,0.11,-0.3
2021-08-01 00:42:16.700,0.125,-0.19
2021-08-01 00:42:16.704,0.15,-0.02
2021-08-01 00:42:16.708,0.235,0.255
2021-08-01 00:42:16.712,0.275,0.535
2021-08-01 00:42:16.716,0.155,0.695
2021-08-01 00:42:16.720,-0.105,0.82
2021-08-01 00:42:16.724,-0.53,1.015
2021-08-01 00:42:16.728,-1.185,1.275
2021-08-01 00:42:16.732,-1.84,1.505
2021-08-01 00:42:16.764,-1.985,1.395
2021-08-01 00:42:16.768,-1.795,1.36
2021-08-01 00:42:16.772,-1.675,1.38
2021-08-01 00:42:16.776,-1.57,1.44
2021-08-01 00:42:16.780,-1.465,1.435
2021-08-01 00:42:16.784,-1.33,1.155
2021-08-01 00:42:16.788,-1.215,0.66
2021-08-01 00:42:16.792,-1.115,0.075
2021-08-01 00:42:16.796,-1.03,-0.335
2021-08-01 00:42:16.800,-0.875,-0.605
2021-08-01 00:42:16.804,-0.73,-0.74
2021-08-01 00:42:16.808,-0.62,-0.75
2021-08-01 00:42:16.812,-0.425,-0.745
2021-08-01 00:42:16.816,-0.245,-0.72
2021-08-01 00:42:16.820,-0.035,-0.695
2021-08-01 00:42:16.824,0.115,-0.66
2021-08-01 00:42:16.828,0.31,-0.645
2021-08-01 00:42:16.832,0.445,-0.665
2021-08-01 00:42:16.836,0.48,-0.655
2021-08-01 00:42:16.840,0.55,-0.66
2021-08-01 00:42:16.844,0.58,-0.65
2021-08-01 00:42:16.848,0.59,-0.66
2021-08-01 00:42:16.852,0.585,-0.66
2021-08-01 00:42:16.856,0.645,-0.665
2021-08-01 00:42:16.860,0.67,-0.675
2021-08-01 00:42:16.864,0.715,-0.68
2021-08-01 00:42:16.868,0.715,-0.67
2021-08-01 00:42:16.872,0.71,-0.675
2021-08-01 00:42:16.876,0.71,-0.67
2021-08-01 00:42:16.880,0.715,-0.66
2021-08-01 00:42:16.884,0.73,-0.665
2021-08-01 00:42:16.888,0.72,-0.695
2021-08-01 00:42:16.892,0.745,-0.685
2021-08-01 00:42:16.896,0.775,-0.67
2021-08-01 00:42:16.900,0.79,-0.66
2021-08-01 00:42:16.904,0.785,-0.67
2021-08-01 00:42:16.908,0.815,-0.695
2021-08-01 00:42:16.912,0.85,-0.7
2021-08-01 00:42:16.916,0.85,-0.71
2021-08-01 00:42:16.920,0.865,-0.7
2021-08-01 00:42:16.924,0.9,-0.71
2021-08-01 00:42:16.928,0.92,-0.72
2021-08-01 00:42:16.932,0.935,-0.735
2021-08-01 00:42:16.936,0.955,-0.74
2021-08-01 00:42:16.940,0.96,-0.765
2021-08-01 00:42:16.944,1.01,-0.79
2021-08-01 00:42:16.948,1.045,-0.785
2021-08-01 00:42:16.952,1.04,-0.81
2021-08-01 00:42:16.956,1.085,-0.84
2021-08-01 00:42:16.960,1.095,-0.83
2021-08-01 00:42:16.964,1.135,-0.835
2021-08-01 00:42:16.968,1.14,-0.86
2021-08-01 00:42:16.972,1.145,-0.865
2021-08-01 00:42:16.976,1.17,-0.87
2021-08-01 00:42:16.980,1.18,-0.855
2021-08-01 00:42:16.984,1.175,-0.82
2021-08-01 00:42:16.988,1.17,-0.79
2021-08-01 00:42:16.992,1.155,-0.785
2021-08-01 00:42:16.996,1.15,-0.73
2021-08-01 00:42:17.000,1.135,-0.72
2021-08-01 00:42:17.004,1.09,-0.685
2021-08-01 00:42:17.008,1.06,-0.65
2021-08-01 00:42:17.012,1.025,-0.585
2021-08-01 00:42:17.016,0.96,-0.56
2021-08-01 00:42:17.020,0.92,-0.505
2021-08-01 00:42:17.024,0.88,-0.455
2021-08-01 00:42:17.028,0.825,-0.425
2021-08-01 00:42:17.032,0.79,-0.39
2021-08-01 00:42:17.036,0.725,-0.365
2021-08-01 00:42:17.040,0.69,-0.34
2021-08-01 00:42:17.044,0.64,-0.315
2021-08-01 00:42:17.048,0.59,-0.315
2021-08-01 00:42:17.052,0.54,-0.31
2021-08-01 00:42:17.056,0.485,-0.295
2021-08-01 00:42:17.060,0.46,-0.29
2021-08-01 00:42:17.064,0.44,-0.325
2021-08-01 00:42:17.068,0.415,-0.315
2021-08-01 00:42:17.072,0.395,-0.32
2021-08-01 00:42:17.076,0.355,-0.33
2021-08-01 00:42:17.080,0.34,-0.35
2021-08-01 00:42:17.084,0.35,-0.33
2021-08-01 00:42:17.088,0.3,-0.345
2021-08-01 00:42:17.092,0.305,-0.36
2021-08-01 00:42:17.096,0.3,-0.37
2021-08-01 00:42:17.100,0.3,-0.355
2021-08-01 00:42:17.104,0.31,-0.375
2021-08-01 00:42:17.108,0.28,-0.375
2021-08-01 00:42:17.112,0.31,-0.385
2021-08-01 00:42:17.116,0.305,-0.38
2021-08-01 00:42:17.120,0.27,-0.38
2021-08-01 00:42:17.124,0.275,-0.395
2021-08-01 00:42:17.128,0.28,-0.4
2021-08-01 00:42:17.132,0.28,-0.41
2021-08-01 00:42:17.136,0.295,-0.42
2021-08-01 00:42:17.140,0.295,-0.41
2021-08-01 00:42:17.144,0.29,-0.45
2021-08-01 00:42:17.148,0.285,-0.425
2021-08-01 00:42:17.152,0.295,-0.425
2021-08-01 00:42:17.156,0.31,-0.425
2021-08-01 00:42:17.160,0.26,-0.46
2021-08-01 00:42:17.164,0.305,-0.47
2021-08-01 00:42:17.168,0.31,-0.49
2021-08-01 00:42:17.172,0.295,-0.46
2021-08-01 00:42:17.176,0.28,-0.475
2021-08-01 00:42:17.180,0.3,-0.48
2021-08-01 00:42:17.184,0.3,-0.49
2021-08-01 00:42:17.188,0.3,-0.505
2021-08-01 00:42:17.192,0.31,-0.5
2021-08-01 00:42:17.196,0.32,-0.505
2021-08-01 00:42:17.200,0.29,-0.51
2021-08-01 00:42:17.204,0.29,-0.475
2021-08-01 00:42:17.208,0.305,-0.505
2021-08-01 00:42:17.212,0.285,-0.52
2021-08-01 00:42:17.216,0.28,-0.515
2021-08-01 00:42:17.220,0.28,-0.515
2021-08-01 00:42:17.224,0.26,-0.5
2021-08-01 00:42:17.228,0.27,-0.49
2021-08-01 00:42:17.232,0.26,-0.47
2021-08-01 00:42:17.236,0.225,-0.49
2021-08-01 00:42:17.240,0.24,-0.475
2021-08-01 00:42:17.244,0.225,-0.47
2021-08-01 00:42:17.248,0.25,-0.475
2021-08-01 00:42:17.252,0.235,-0.47
2021-08-01 00:42:17.256,0.235,-0.475
2021-08-01 00:42:17.260,0.23,-0.465
2021-08-01 00:42:17.264,0.235,-0.455
2021-08-01 00:42:17.268,0.22,-0.46
2021-08-01 00:42:17.272,0.23,-0.445
2021-08-01 00:42:17.276,0.23,-0.44
2021-08-01 00:42:17.280,0.23,-0.44
2021-08-01 00:42:17.284,0.2,-0.44
2021-08-01 00:42:17.288,0.215,-0.435
2021-08-01 00:42:17.292,0.215,-0.425
2021-08-01 00:42:17.296,0.225,-0.415
2021-08-01 00:42:17.300,0.22,-0.41
2021-08-01 00:42:17.304,0.205,-0.41
2021-08-01 00:42:17.308,0.215,-0.41
2021-08-01 00:42:17.312,0.21,-0.42
2021-08-01 00:42:17.316,0.21,-0.425
2021-08-01 00:42:17.320,0.215,-0.385
2021-08-01 00:42:17.324,0.175,-0.38
2021-08-01 00:42:17.328,0.205,-0.41
2021-08-01 00:42:17.332,0.21,-0.38
2021-08-01 00:42:17.336,0.23,-0.38
2021-08-01 00:42:17.340,0.215,-0.38
2021-08-01 00:42:17.344,0.21,-0.4
2021-08-01 00:42:17.348,0.2,-0.39
2021-08-01 00:42:17.352,0.175,-0.375
2021-08-01 00:42:17.356,0.195,-0.38
2021-08-01 00:42:17.360,0.21,-0.385
2021-08-01 00:42:17.364,0.22,-0.345
2021-08-01 00:42:17.368,0.195,-0.32
2021-08-01 00:42:17.372,0.195,-0.3
2021-08-01 00:42:17.376,0.2,-0.305
2021-08-01 00:42:17.380,0.255,-0.26
2021-08-01 00:42:17.384,0.245,-0.245
2021-08-01 00:42:17.388,0.285,-0.22
2021-08-01 00:42:17.392,0.28,-0.2
2021-08-01 00:42:17.396,0.335,-0.18
2021-08-01 00:42:17.400,0.33,-0.2
2021-08-01 00:42:17.404,0.36,-0.225
2021-08-01 00:42:17.408,0.36,-0.24
2021-08-01 00:42:17.412,0.365,-0.265
2021-08-01 00:42:17.416,0.33,-0.27
2021-08-01 00:42:17.420,0.29,-0.275
2021-08-01 00:42:17.424,0.27,-0.285
2021-08-01 00:42:17.428,0.245,-0.29
2021-08-01 00:42:17.432,0.215,-0.35
2021-08-01 00:42:17.436,0.205,-0.355
2021-08-01 00:42:17.440,0.185,-0.35
2021-08-01 00:42:17.444,0.16,-0.395
2021-08-01 00:42:17.448,0.13,-0.415
2021-08-01 00:42:17.452,0.14,-0.475
2021-08-01 00:42:17.456,0.115,-0.515
2021-08-01 00:42:17.460,0.15,-0.505
2021-08-01 00:42:17.464,0.17,-0.475
2021-08-01 00:42:17.468,0.145,-0.475
2021-08-01 00:42:17.472,0.15,-0.495
2021-08-01 00:42:17.476,0.135,-0.48
2021-08-01 00:42:17.480,0.15,-0.475
2021-08-01 00:42:17.484,0.16,-0.475
2021-08-01 00:42:17.488,0.13,-0.49
2021-08-01 00:42:17.492,0.15,-0.455
2021-08-01 00:42:17.496,0.13,-0.47
2021-08-01 00:42:17.500,0.15,-0.45
2021-08-01 00:42:17.504,0.14,-0.45
2021-08-01 00:42:17.508,0.155,-0.455
2021-08-01 00:42:17.512,0.17,-0.46
2021-08-01 00:42:17.516,0.175,-0.45
2021-08-01 00:42:17.520,0.15,-0.445
2021-08-01 00:42:17.524,0.165,-0.46
2021-08-01 00:42:17.528,0.175,-0.435
2021-08-01 00:42:17.532,0.155,-0.415
2021-08-01 00:42:17.536,0.16,-0.415
2021-08-01 00:42:17.540,0.16,-0.43
2021-08-01 00:42:17.544,0.18,-0.37
2021-08-01 00:42:17.548,0.185,-0.3
2021-08-01 00:42:17.552,0.175,-0.235
2021-08-01 00:42:17.556,0.215,-0.115
2021-08-01 00:42:17.560,0.27,0.115
2021-08-01 00:42:17.564,0.305,0.43
2021-08-01 00:42:17.568,0.29,0.65
2021-08-01 00:42:17.572,0.095,0.76
2021-08-01 00:42:17.576,-0.25,0.94
2021-08-01 00:42:17.580,-0.845,1.18
2021-08-01 00:42:17.584,-1.55,1.425
2021-08-01 00:42:17.620,-1.855,1.365
2021-08-01 00:42:17.624,-1.695,1.435
2021-08-01 00:42:17.628,-1.58,1.47
2021-08-01 00:42:17.632,-1.465,1.475
2021-08-01 00:42:17.636,-1.345,1.2
2021-08-01 00:42:17.640,-1.235,0.645
2021-08-01 00:42:17.644,-1.115,0.085
2021-08-01 00:42:17.648,-0.995,-0.305
2021-08-01 00:42:17.652,-0.88,-0.565
2021-08-01 00:42:17.656,-0.75,-0.705
2021-08-01 00:42:17.660,-0.59,-0.72
2021-08-01 00:42:17.664,-0.445,-0.71
2021-08-01 00:42:17.668,-0.255,-0.685
2021-08-01 00:42:17.672,-0.055,-0.675
2021-08-01 00:42:17.676,0.13,-0.65
2021-08-01 00:42:17.680,0.295,-0.635
2021-08-01 00:42:17.684,0.42,-0.64
2021-08-01 00:42:17.688,0.485,-0.675
2021-08-01 00:42:17.692,0.52,-0.65
2021-08-01 00:42:17.696,0.56,-0.64
2021-08-01 00:42:17.700,0.57,-0.64
2021-08-01 00:42:17.704,0.61,-0.66
2021-08-01 00:42:17.708,0.63,-0.675
2021-08-01 00:42:17.712,0.64,-0.64
2021-08-01 00:42:17.716,0.655,-0.655
2021-08-01 00:42:17.720,0.66,-0.65
2021-08-01 00:42:17.724,0.68,-0.64
2021-08-01 00:42:17.728,0.7,-0.635
2021-08-01 00:42:17.732,0.69,-0.66
2021-08-01 00:42:17.736,0.73,-0.665
2021-08-01 00:42:17.740,0.745,-0.675
2021-08-01 00:42:17.744,0.77,-0.65
2021-08-01 00:42:17.748,0.77,-0.68
2021-08-01 00:42:17.752,0.78,-0.68
2021-08-01 00:42:17.756,0.8,-0.665
2021-08-01 00:42:17.760,0.82,-0.67
2021-08-01 00:42:17.764,0.835,-0.675
2021-08-01 00:42:17.768,0.86,-0.68
2021-08-01 00:42:17.772,0.86,-0.71
2021-08-01 00:42:17.776,0.9,-0.715
2021-08-01 00:42:17.780,0.915,-0.735
2021-08-01 00:42:17.784,0.935,-0.74
2021-08-01 00:42:17.788,0.955,-0.76
2021-08-01 00:42:17.792,0.985,-0.76
2021-08-01 00:42:17.796,1.005,-0.765
2021-08-01 00:42:17.800,1.005,-0.78
2021-08-01 00:42:17.804,1.025,-0.815
2021-08-01 00:42:17.808,1.075,-0.795
2021-08-01 00:42:17.812,1.085,-0.8
2021-08-01 00:42:17.816,1.11,-0.825
2021-08-01 00:42:17.820,1.085,-0.825
2021-08-01 00:42:17.824,1.09,-0.8
2021-08-01 00:42:17.828,1.1,-0.8
2021-08-01 00:42:17.832,1.085,-0.79
2021-08-01 00:42:17.836,1.09,-0.77
2021-08-01 00:42:17.840,1.07,-0.71
2021-08-01 00:42:17.844,1.035,-0.7
2021-08-01 00:42:17.848,1.0,-0.67
2021-08-01 00:42:17.852,0.97,-0.63
2021-08-01 00:42:17.856,0.94,-0.555
2021-08-01 00:42:17.860,0.86,-0.495
2021-08-01 00:42:17.864,0.83,-0.455
2021-08-01 00:42:17.868,0.79,-0.42
2021-08-01 00:42:17.872,0.74,-0.35
2021-08-01 00:42:17.876,0.675,-0.34
2021-08-01 00:42:17.880,0.62,-0.31
2021-08-01 00:42:17.884,0.57,-0.28
2021-08-01 00:42:17.888,0.53,-0.275
2021-08-01 00:42:17.892,0.505,-0.26
2021-08-01 00:42:17.896,0.47,-0.28
2021-08-01 00:42:17.900,0.44,-0.275
2021-08-01 00:42:17.904,0.405,-0.26
2021-08-01 00:42:17.908,0.375,-0.27
2021-08-01 00:42:17.912,0.33,-0.285
2021-08-01 00:42:17.916,0.305,-0.3
2021-08-01 00:42:17.920,0.275,-0.295
2021-08-01 00:42:17.924,0.285,-0.285
2021-08-01 00:42:17.928,0.275,-0.29
2021-08-01 00:42:17.932,0.28,-0.31
2021-08-01 00:42:17.936,0.28,-0.315
2021-08-01 00:42:17.940,0.265,-0.3
2021-08-01 00:42:17.944,0.245,-0.32
2021-08-01 00:42:17.948,0.225,-0.32
2021-08-01 00:42:17.952,0.23,-0.335
2021-08-01 00:42:17.956,0.235,-0.33
2021-08-01 00:42:17.960,0.235,-0.325
2021-08-01 00:42:17.964,0.235,-0.355
2021-08-01 00:42:17.968,0.235,-0.355
2021-08-01 00:42:17.972,0.245,-0.35
2021-08-01 00:42:17.976,0.235,-0.36
2021-08-01 00:42:17.980,0.235,-0.395
2021-08-01 00:42:17.984,0.24,-0.4
2021-08-01 00:42:17.988,0.265,-0.4
2021-08-01 00:42:17.992,0.24,-0.4
2021-08-01 00:42:17.996,0.24,-0.405
2021-08-01 00:42:18.000,0.24,-0.41
2021-08-01 00:42:18.004,0.225,-0.415
2021-08-01 00:42:18.008,0.21,-0.395
2021-08-01 00:42:18.012,0.25,-0.455
2021-08-01 00:42:18.016,0.245,-0.44
2021-08-01 00:42:18.020,0.255,-0.435
2021-08-01 00:42:18.024,0.27,-0.445
2021-08-01 00:42:18.028,0.24,-0.47
2021-08-01 00:42:18.032,0.255,-0.445
2021-08-01 00:42:18.036,0.26,-0.445
2021-08-01 00:42:18.040,0.265,-0.45
2021-08-01 00:42:18.044,0.25,-0.475
2021-08-01 00:42:18.048,0.24,-0.47
2021-08-01 00:42:18.052,0.245,-0.43
2021-08-01 00:42:18.056,0.22,-0.47
2021-08-01 00:42:18.060,0.21,-0.47
2021-08-01 00:42:18.064,0.23,-0.45
2021-08-01 00:42:18.068,0.225,-0.45
2021-08-01 00:42:18.072,0.215,-0.435
2021-08-01 00:42:18.076,0.2,-0.465
2021-08-01 00:42:18.080,0.21,-0.47
2021-08-01 00:42:18.084,0.205,-0.45
2021-08-01 00:42:18.088,0.2,-0.43
2021-08-01 00:42:18.092,0.18,-0.425
2021-08-01 00:42:18.096,0.2,-0.46
2021-08-01 00:42:18.100,0.185,-0.435
2021-08-01 00:42:18.104,0.18,-0.42
2021-08-01 00:42:18.108,0.185,-0.435
2021-08-01 00:42:18.112,0.17,-0.44
2021-08-01 00:42:18.116,0.165,-0.415
2021-08-01 00:42:18.120,0.155,-0.425
2021-08-01 00:42:18.124,0.175,-0.42
2021-08-01 00:42:18.128,0.165,-0.4
2021-08-01 00:42:18.132,0.16,-0.415
2021-08-01 00:42:18.136,0.185,-0.4
2021-08-01 00:42:18.140,0.155,-0.4
2021-08-01 00:42:18.144,0.175,-0.395
2021-08-01 00:42:18.148,0.19,-0.405
2021-08-01 00:42:18.152,0.18,-0.405
2021-08-01 00:42:18.156,0.13,-0.42
2021-08-01 00:42:18.160,0.14,-0.41
2021-08-01 00:42:18.164,0.16,-0.4
2021-08-01 00:42:18.168,0.165,-0.39
2021-08-01 00:42:18.172,0.165,-0.41
2021-08-01 00:42:18.176,0.14,-0.415
2021-08-01 00:42:18.180,0.13,-0.375
2021-08-01 00:42:18.184,0.15,-0.38
2021-08-01 00:42:18.188,0.16,-0.39
2021-08-01 00:42:18.192,0.15,-0.395
2021-08-01 00:42:18.196,0.145,-0.38
2021-08-01 00:42:18.200,0.15,-0.35
2021-08-01 00:42:18.204,0.155,-0.4
2021-08-01 00:42:18.208,0.165,-0.4
2021-08-01 00:42:18.212,0.16,-0.36
2021-08-01 00:42:18.216,0.17,-0.325
2021-08-01 00:42:18.220,0.175,-0.315
2021-08-01 00:42:18.224,0.19,-0.27
2021-08-01 00:42:18.228,0.22,-0.275
2021-08-01 00:42:18.232,0.235,-0.25
2021-08-01 00:42:18.236,0.225,-0.22
2021-08-01 00:42:18.240,0.26,-0.205
2021-08-01 00:42:18.244,0.27,-0.175
2021-08-01 00:42:18.248,0.305,-0.19
2021-08-01 00:42:18.252,0.325,-0.21
2021-08-01 00:42:18.256,0.33,-0.235
2021-08-01 00:42:18.260,0.325,-0.25
2021-08-01 00:42:18.264,0.305,-0.275
2021-08-01 00:42:18.268,0.29,-0.285
2021-08-01 00:42:18.272,0.23,-0.305
2021-08-01 00:42:18.276,0.185,-0.32
2021-08-01 00:42:18.280,0.16,-0.34
2021-08-01 00:42:18.284,0.15,-0.385
2021-08-01 00:42:18.288,0.15,-0.37
2021-08-01 00:42:18.292,0.12,-0.36
2021-08-01 00:42:18.296,0.115,-0.425
2021-08-01 00:42:18.300,0.095,-0.48
2021-08-01 00:42:18.304,0.09,-0.51
2021-08-01 00:42:18.308,0.12,-0.475
2021-08-01 00:42:18.312,0.12,-0.48
2021-08-01 00:42:18.316,0.09,-0.49
2021-08-01 00:42:18.320,0.11,-0.49
2021-08-01 00:42:18.324,0.125,-0.46
2021-08-01 00:42:18.328,0.09,-0.475
2021-08-01 00:42:18.332,0.085,-0.48
2021-08-01 00:42:18.336,0.12,-0.465
2021-08-01 00:42:18.340,0.115,-0.475
2021-08-01 00:42:18.344,0.115,-0.455
2021-08-01 00:42:18.348,0.115,-0.48
2021-08-01 00:42:18.352,0.11,-0.46
2021-08-01 00:42:18.356,0.105,-0.46
2021-08-01 00:42:18.360,0.1,-0.46
2021-08-01 00:42:18.364,0.115,-0.485
2021-08-01 00:42:18.368,0.1,-0.465
2021-08-01 00:42:18.372,0.105,-0.455
2021-08-01 00:42:18.376,0.105,-0.44
2021-08-01 00:42:18.380,0.115,-0.455
2021-08-01 00:42:18.384,0.12,-0.455
2021-08-01 00:42:18.388,0.13,-0.405
2021-08-01 00:42:18.392,0.1,-0.345
2021-08-01 00:42:18.396,0.125,-0.265
2021-08-01 00:42:18.400,0.15,-0.14
2021-08-01 00:42:18.404,0.165,0.09
2021-08-01 00:42:18.408,0.25,0.42
2021-08-01 00:42:18.412,0.235,0.625
2021-08-01 00:42:18.416,0.07,0.76
2021-08-01 00:42:18.420,-0.315,0.925
2021-08-01 00:42:18.424,-0.95,1.175
2021-08-01 00:42:18.428,-1.64,1.41
2021-08-01 00:42:18.464,-1.915,1.355
2021-08-01 00:42:18.468,-1.77,1.405
2021-08-01 00:42:18.472,-1.655,1.475
2021-08-01 00:42:18.476,-1.535,1.46
2021-08-01 00:42:18.480,-1.395,1.18
2021-08-01 00:42:18.484,-1.265,0.65
2021-08-01 00:42:18.488,-1.14,0.075
2021-08-01 00:42:18.492,-1.04,-0.34
2021-08-01 00:42:18.496,-0.91,-0.6
2021-08-01 00:42:18.500,-0.75,-0.705
2021-08-01 00:42:18.504,-0.61,-0.705
2021-08-01 00:42:18.508,-0.43,-0.705
2021-08-01 00:42:18.512,-0.245,-0.7
2021-08-01 00:42:18.516,-0.035,-0.66
2021-08-01 00:42:18.520,0.16,-0.615
2021-08-01 00:42:18.524,0.315,-0.615
2021-08-01 00:42:18.528,0.445,-0.635
2021-08-01 00:42:18.532,0.52,-0.63
2021-08-01 00:42:18.536,0.56,-0.63
2021-08-01 00:42:18.540,0.575,-0.615
2021-08-01 00:42:18.544,0.61,-0.63
2021-08-01 00:42:18.548,0.625,-0.64
2021-08-01 00:42:18.552,0.63,-0.62
2021-08-01 00:42:18.556,0.675,-0.635
2021-08-01 00:42:18.560,0.675,-0.645
2021-08-01 00:42:18.564,0.7,-0.66
2021-08-01 00:42:18.568,0.725,-0.63
2021-08-01 00:42:18.572,0.705,-0.63
2021-08-01 00:42:18.576,0.725,-0.635
2021-08-01 00:42:18.580,0.76,-0.625
2021-08-01 00:42:18.584,0.75,-0.63
2021-08-01 00:42:18.588,0.745,-0.625
2021-08-01 00:42:18.592,0.795,-0.64
2021-08-01 00:42:18.596,0.805,-0.64
2021-08-01 00:42:18.600,0.81,-0.625
2021-08-01 00:42:18.604,0.86,-0.64
2021-08-01 00:42:18.608,0.83,-0.625
2021-08-01 00:42:18.612,0.86,-0.64
2021-08-01 00:42:18.616,0.885,-0.65
2021-08-01 00:42:18.620,0.925,-0.675
2021-08-01 00:42:18.624,0.93,-0.7
2021-08-01 00:42:18.628,0.96,-0.715
2021-08-01 00:42:18.632,0.97,-0.7
2021-08-01 00:42:18.636,1.01,-0.71
2021-08-01 00:42:18.640,1.04,-0.74
2021-08-01 00:42:18.644,1.04,-0.755
2021-08-01 00:42:18.648,1.05,-0.73
2021-08-01 00:42:18.652,1.07,-0.765
2021-08-01 00:42:18.656,1.075,-0.775
2021-08-01 00:42:18.660,1.135,-0.78
2021-08-01 00:42:18.664,1.115,-0.755
2021-08-01 00:42:18.668,1.125,-0.745
2021-08-01 00:42:18.672,1.105,-0.76
2021-08-01 00:42:18.676,1.11,-0.735
2021-08-01 00:42:18.680,1.11,-0.7
2021-08-01 00:42:18.684,1.05,-0.665
2021-08-01 00:42:18.688,1.04,-0.64
2021-08-01 00:42:18.692,1.01,-0.59
2021-08-01 00:42:18.696,0.94,-0.535
2021-08-01 00:42:18.700,0.915,-0.48
2021-08-01 00:42:18.704,0.88,-0.44
2021-08-01 00:42:18.708,0.84,-0.4
2021-08-01 00:42:18.712,0.765,-0.33
2021-08-01 00:42:18.716,0.745,-0.29
2021-08-01 00:42:18.720,0.65,-0.29
2021-08-01 00:42:18.724,0.61,-0.265
2021-08-01 00:42:18.728,0.585,-0.21
2021-08-01 00:42:18.732,0.54,-0.205
2021-08-01 00:42:18.736,0.5,-0.235
2021-08-01 00:42:18.740,0.46,-0.23
2021-08-01 00:42:18.744,0.415,-0.225
2021-08-01 00:42:18.748,0.39,-0.22
2021-08-01 00:42:18.752,0.37,-0.245
2021-08-01 00:42:18.756,0.32,-0.245
2021-08-01 00:42:18.760,0.305,-0.235
2021-08-01 00:42:18.764,0.295,-0.245
2021-08-01 00:42:18.768,0.275,-0.275
2021-08-01 00:42:18.772,0.28,-0.265
2021-08-01 00:42:18.776,0.275,-0.26
2021-08-01 00:42:18.780,0.25,-0.275
2021-08-01 00:42:18.784,0.265,-0.295
2021-08-01 00:42:18.788,0.27,-0.315
2021-08-01 00:42:18.792,0.24,-0.305
2021-08-01 00:42:18.796,0.22,-0.285
2021-08-01 00:42:18.800,0.26,-0.315
2021-08-01 00:42:18.804,0.255,-0.3
2021-08-01 00:42:18.808,0.255,-0.29
2021-08-01 00:42:18.812,0.275,-0.295
2021-08-01 00:42:18.816,0.235,-0.32
2021-08-01 00:42:18.820,0.24,-0.325
2021-08-01 00:42:18.824,0.255,-0.325
2021-08-01 00:42:18.828,0.24,-0.305
2021-08-01 00:42:18.832,0.275,-0.335
2021-08-01 00:42:18.836,0.255,-0.355
2021-08-01 00:42:18.840,0.265,-0.345
2021-08-01 00:42:18.844,0.255,-0.35
2021-08-01 00:42:18.848,0.255,-0.36
2021-08-01 00:42:18.852,0.27,-0.365
2021-08-01 00:42:18.856,0.27,-0.365
2021-08-01 00:42:18.860,0.26,-0.355
2021-08-01 00:42:18.864,0.27,-0.37
2021-08-01 00:42:18.868,0.275,-0.365
2021-08-01 00:42:18.872,0.285,-0.39
2021-08-01 00:42:18.876,0.27,-0.4
2021-08-01 00:42:18.880,0.24,-0.39
2021-08-01 00:42:18.884,0.265,-0.39
2021-08-01 00:42:18.888,0.26,-0.365
2021-08-01 00:42:18.892,0.255,-0.365
2021-08-01 00:42:18.896,0.25,-0.4
2021-08-01 00:42:18.900,0.245,-0.385
2021-08-01 00:42:18.904,0.265,-0.385
2021-08-01 00:42:18.908,0.24,-0.405
2021-08-01 00:42:18.912,0.245,-0.375
2021-08-01 00:42:18.916,0.235,-0.38
2021-08-01 00:42:18.920,0.24,-0.37
2021-08-01 00:42:18.924,0.245,-0.345
2021-08-01 00:42:18.928,0.24,-0.39
2021-08-01 00:42:18.932,0.185,-0.375
2021-08-01 00:42:18.936,0.205,-0.37
2021-08-01 00:42:18.940,0.2,-0.34
2021-08-01 00:42:18.944,0.22,-0.35
2021-08-01 00:42:18.948,0.2,-0.35
2021-08-01 00:42:18.952,0.185,-0.35
2021-08-01 00:42:18.956,0.205,-0.325
2021-08-01 00:42:18.960,0.185,-0.345
2021-08-01 00:42:18.964,0.185,-0.355
2021-08-01 00:42:18.968,0.18,-0.335
2021-08-01 00:42:18.972,0.165,-0.325
2021-08-01 00:42:18.976,0.16,-0.345
2021-08-01 00:42:18.980,0.175,-0.345
2021-08-01 00:42:18.984,0.17,-0.355
2021-08-01 00:42:18.988,0.18,-0.31
2021-08-01 00:42:18.992,0.16,-0.365
2021-08-01 00:42:18.996,0.165,-0.34
2021-08-01 00:42:19.000,0.175,-0.32
2021-08-01 00:42:19.004,0.175,-0.305
2021-08-01 00:42:19.008,0.175,-0.32
2021-08-01 00:42:19.012,0.15,-0.345
2021-08-01 00:42:19.016,0.16,-0.335
2021-08-01 00:42:19.020,0.155,-0.32
2021-08-01 00:42:19.024,0.13,-0.32
2021-08-01 00:42:19.028,0.125,-0.34
2021-08-01 00:42:19.032,0.145,-0.32
2021-08-01 00:42:19.036,0.155,-0.32
2021-08-01 00:42:19.040,0.12,-0.31
2021-08-01 00:42:19.044,0.125,-0.32
2021-08-01 00:42:19.048,0.14,-0.33
2021-08-01 00:42:19.052,0.135,-0.305
2021-08-01 00:42:19.056,0.11,-0.285
2021-08-01 00:42:19.060,0.13,-0.305
2021-08-01 00:42:19.064,0.115,-0.325
2021-08-01 00:42:19.068,0.12,-0.305
2021-08-01 00:42:19.072,0.115,-0.295
2021-08-01 00:42:19.076,0.12,-0.315
2021-08-01 00:42:19.080,0.1,-0.335
2021-08-01 00:42:19.084,0.11,-0.285
2021-08-01 00:42:19.088,0.12,-0.25
2021-08-01 00:42:19.092,0.13,-0.225
2021-08-01 00:42:19.096,0.14,-0.215
2021-08-01 00:42:19.100,0.11,-0.19
2021-08-01 00:42:19.104,0.155,-0.145
2021-08-01 00:42:19.108,0.19,-0.16
2021-08-01 00:42:19.112,0.2,-0.13
2021-08-01 00:42:19.116,0.215,-0.095
2021-08-01 00:42:19.120,0.24,-0.09
2021-08-01 00:42:19.124,0.26,-0.125
2021-08-01 00:42:19.128,0.26,-0.155
2021-08-01 00:42:19.132,0.27,-0.175
2021-08-01 00:42:19.136,0.265,-0.205
2021-08-01 00:42:19.140,0.215,-0.205
2021-08-01 00:42:19.144,0.165,-0.215
2021-08-01 00:42:19.148,0.145,-0.205
2021-08-01 00:42:19.152,0.115,-0.25
2021-08-01 00:42:19.156,0.115,-0.285
2021-08-01 00:42:19.160,0.09,-0.3
2021-08-01 00:42:19.164,0.05,-0.295
2021-08-01 00:42:19.168,0.04,-0.33
2021-08-01 00:42:19.172,0.035,-0.4
2021-08-01 00:42:19.176,0.03,-0.415
2021-08-01 00:42:19.180,0.06,-0.405
2021-08-01 00:42:19.184,0.08,-0.395
2021-08-01 00:42:19.188,0.07,-0.41
2021-08-01 00:42:19.192,0.06,-0.42
2021-08-01 00:42:19.196,0.03,-0.405
2021-08-01 00:42:19.200,0.045,-0.405
2021-08-01 00:42:19.204,0.06,-0.415
2021-08-01 00:42:19.208,0.055,-0.4
2021-08-01 00:42:19.212,0.04,-0.375
2021-08-01 00:42:19.216,0.03,-0.37
2021-08-01 00:42:19.220,0.045,-0.385
2021-08-01 00:42:19.224,0.045,-0.395
2021-08-01 00:42:19.228,0.055,-0.375
2021-08-01 00:42:19.232,0.055,-0.365
2021-08-01 00:42:19.236,0.04,-0.385
2021-08-01 00:42:19.240,0.045,-0.38
2021-08-01 00:42:19.244,0.045,-0.36
2021-08-01 00:42:19.248,0.045,-0.365
2021-08-01 00:42:19.252,0.025,-0.375
2021-08-01 00:42:19.256,0.03,-0.35
2021-08-01 00:42:19.260,0.035,-0.275
2021-08-01 00:42:19.264,0.075,-0.225
2021-08-01 00:42:19.268,0.055,-0.12
2021-08-01 00:42:19.272,0.095,0.05
2021-08-01 00:42:19.276,0.15,0.385
2021-08-01 00:42:19.280,0.2,0.635
2021-08-01 00:42:19.284,0.055,0.765
2021-08-01 00:42:19.288,-0.29,0.9
2021-08-01 00:42:19.292,-0.83,1.11
2021-08-01 00:42:19.296,-1.595,1.385
2021-08-01 00:42:19.336,-1.9,1.385
2021-08-01 00:42:19.340,-1.785,1.43
2021-08-01 00:42:19.344,-1.66,1.42
2021-08-01 00:42:19.348,-1.515,1.24
2021-08-01 00:42:19.352,-1.395,0.74
2021-08-01 00:42:19.356,-1.275,0.165
2021-08-01 00:42:19.360,-1.185,-0.23
2021-08-01 00:42:19.364,-1.04,-0.5
2021-08-01 00:42:19.368,-0.885,-0.61
2021-08-01 00:42:19.372,-0.735,-0.625
2021-08-01 00:42:19.376,-0.55,-0.615
2021-08-01 00:42:19.380,-0.375,-0.61
2021-08-01 00:42:19.384,-0.16,-0.58
2021-08-01 00:42:19.388,0.02,-0.555
2021-08-01 00:42:19.392,0.195,-0.53
2021-08-01 00:42:19.396,0.335,-0.52
2021-08-01 00:42:19.400,0.415,-0.52
2021-08-01 00:42:19.404,0.47,-0.555
2021-08-01 00:42:19.408,0.495,-0.545
2021-08-01 00:42:19.412,0.53,-0.545
2021-08-01 00:42:19.416,0.525,-0.565
2021-08-01 00:42:19.420,0.555,-0.55
2021-08-01 00:42:19.424,0.55,-0.53
2021-08-01 00:42:19.428,0.585,-0.54
2021-08-01 00:42:19.432,0.59,-0.545
2021-08-01 00:42:19.436,0.605,-0.54
2021-08-01 00:42:19.440,0.62,-0.525
2021-08-01 00:42:19.444,0.625,-0.525
2021-08-01 00:42:19.448,0.65,-0.525
2021-08-01 00:42:19.452,0.655,-0.54
2021-08-01 00:42:19.456,0.7,-0.53
2021-08-01 00:42:19.460,0.69,-0.53
2021-08-01 00:42:19.464,0.72,-0.57
2021-08-01 00:42:19.468,0.745,-0.57
2021-08-01 00:42:19.472,0.76,-0.545
2021-08-01 00:42:19.476,0.78,-0.55
2021-08-01 00:42:19.480,0.78,-0.54
2021-08-01 00:42:19.484,0.815,-0.575
2021-08-01 00:42:19.488,0.825,-0.565
2021-08-01 00:42:19.492,0.86,-0.6
2021-08-01 00:42:19.496,0.865,-0.62
2021-08-01 00:42:19.500,0.9,-0.615
2021-08-01 00:42:19.504,0.915,-0.63
2021-08-01 00:42:19.508,0.93,-0.62
2021-08-01 00:42:19.512,0.965,-0.65
2021-08-01 00:42:19.516,0.98,-0.655
2021-08-01 00:42:19.520,1.01,-0.66
2021-08-01 00:42:19.524,1.015,-0.68
2021-08-01 00:42:19.528,1.035,-0.66
2021-08-01 00:42:19.532,1.06,-0.67
2021-08-01 00:42:19.536,1.045,-0.66
2021-08-01 00:42:19.540,1.05,-0.645
2021-08-01 00:42:19.544,1.075,-0.665
2021-08-01 00:42:19.548,1.055,-0.63
2021-08-01 00:42:19.552,1.02,-0.585
2021-08-01 00:42:19.556,0.995,-0.53
2021-08-01 00:42:19.560,0.98,-0.5
2021-08-01 00:42:19.564,0.95,-0.48
2021-08-01 00:42:19.568,0.89,-0.425
2021-08-01 00:42:19.572,0.845,-0.365
2021-08-01 00:42:19.576,0.81,-0.355
2021-08-01 00:42:19.580,0.745,-0.315
2021-08-01 00:42:19.584,0.71,-0.24
2021-08-01 00:42:19.588,0.67,-0.21
2021-08-01 00:42:19.592,0.605,-0.175
2021-08-01 00:42:19.596,0.55,-0.175
2021-08-01 00:42:19.600,0.5,-0.135
2021-08-01 00:42:19.604,0.455,-0.1
2021-08-01 00:42:19.608,0.42,-0.135
2021-08-01 00:42:19.612,0.375,-0.155
2021-08-01 00:42:19.616,0.315,-0.135
2021-08-01 00:42:19.620,0.29,-0.115
2021-08-01 00:42:19.624,0.265,-0.15
2021-08-01 00:42:19.628,0.235,-0.15
2021-08-01 00:42:19.632,0.22,-0.155
2021-08-01 00:42:19.636,0.21,-0.16
2021-08-01 00:42:19.640,0.2,-0.185
2021-08-01 00:42:19.644,0.175,-0.18
2021-08-01 00:42:19.648,0.19,-0.19
2021-08-01 00:42:19.652,0.18,-0.18
2021-08-01 00:42:19.656,0.175,-0.185
2021-08-01 00:42:19.660,0.13,-0.21
2021-08-01 00:42:19.664,0.14,-0.19
2021-08-01 00:42:19.668,0.135,-0.19
2021-08-01 00:42:19.672,0.13,-0.2
2021-08-01 00:42:19.676,0.145,-0.225
2021-08-01 00:42:19.680,0.14,-0.2
2021-08-01 00:42:19.684,0.135,-0.215
2021-08-01 00:42:19.688,0.145,-0.225
2021-08-01 00:42:19.692,0.135,-0.24
2021-08-01 00:42:19.696,0.125,-0.22
2021-08-01 00:42:19.700,0.125,-0.205
2021-08-01 00:42:19.704,0.14,-0.225
2021-08-01 00:42:19.708,0.145,-0.255
2021-08-01 00:42:19.712,0.14,-0.3
2021-08-01 00:42:19.716,0.165,-0.27
2021-08-01 00:42:19.720,0.155,-0.275
2021-08-01 00:42:19.724,0.145,-0.305
2021-08-01 00:42:19.728,0.16,-0.295
2021-08-01 00:42:19.732,0.15,-0.3
2021-08-01 00:42:19.736,0.145,-0.3
2021-08-01 00:42:19.740,0.145,-0.31
2021-08-01 00:42:19.744,0.15,-0.295
2021-08-01 00:42:19.748,0.15,-0.28
2021-08-01 00:42:19.752,0.165,-0.26
2021-08-01 00:42:19.756,0.125,-0.295
2021-08-01 00:42:19.760,0.16,-0.28
2021-08-01 00:42:19.764,0.15,-0.28
2021-08-01 00:42:19.768,0.14,-0.275
2021-08-01 00:42:19.772,0.135,-0.28
2021-08-01 00:42:19.776,0.17,-0.27
2021-08-01 00:42:19.780,0.145,-0.3
2021-08-01 00:42:19.784,0.135,-0.28
2021-08-01 00:42:19.788,0.115,-0.28
2021-08-01 00:42:19.792,0.105,-0.265
2021-08-01 00:42:19.796,0.08,-0.26
2021-08-01 00:42:19.800,0.115,-0.285
2021-08-01 00:42:19.804,0.125,-0.26
2021-08-01 00:42:19.808,0.1,-0.26
2021-08-01 00:42:19.812,0.1,-0.27
2021-08-01 00:42:19.816,0.09,-0.24
2021-08-01 00:42:19.820,0.09,-0.25
2021-08-01 00:42:19.824,0.055,-0.23
2021-08-01 00:42:19.828,0.085,-0.225
2021-08-01 00:42:19.832,0.085,-0.215
2021-08-01 00:42:19.836,0.05,-0.21
2021-08-01 00:42:19.840,0.065,-0.23
2021-08-01 00:42:19.844,0.05,-0.23
2021-08-01 00:42:19.848,0.065,-0.205
2021-08-01 00:42:19.852,0.065,-0.235
2021-08-01 00:42:19.856,0.035,-0.22
2021-08-01 00:42:19.860,0.045,-0.2
2021-08-01 00:42:19.864,0.06,-0.2
2021-08-01 00:42:19.868,0.03,-0.21
2021-08-01 00:42:19.872,0.03,-0.22
2021-08-01 00:42:19.876,0.04,-0.21
2021-08-01 00:42:19.880,0.025,-0.21
2021-08-01 00:42:19.884,0.04,-0.195
2021-08-01 00:42:19.888,0.04,-0.2
2021-08-01 00:42:19.892,0.01,-0.2
2021-08-01 00:42:19.896,0.05,-0.205
2021-08-01 00:42:19.900,0.01,-0.2
2021-08-01 00:42:19.904,0.02,-0.19
2021-08-01 00:42:19.908,0.03,-0.18
2021-08-01 00:42:19.912,0.035,-0.16
2021-08-01 00:42:19.916,0.025,-0.18
2021-08-01 00:42:19.920,0.02,-0.16
2021-08-01 00:42:19.924,0.015,-0.115
2021-08-01 00:42:19.928,0.02,-0.115
2021-08-01 00:42:19.932,0.04,-0.1
2021-08-01 00:42:19.936,0.05,-0.08
2021-08-01 00:42:19.940,0.055,-0.04
2021-08-01 00:42:19.944,0.075,-0.005
2021-08-01 00:42:19.948,0.095,0.025
2021-08-01 00:42:19.952,0.125,0.035
2021-08-01 00:42:19.956,0.155,0.045
2021-08-01 00:42:19.960,0.175,0.01
2021-08-01 00:42:19.964,0.21,-0.005
2021-08-01 00:42:19.968,0.175,-0.055
2021-08-01 00:42:19.972,0.135,-0.065
2021-08-01 00:42:19.976,0.09,-0.05
2021-08-01 00:42:19.980,0.08,-0.08
2021-08-01 00:42:19.984,0.01,-0.135
2021-08-01 00:42:19.988,-0.005,-0.16
2021-08-01 00:42:19.992,-0.005,-0.15
2021-08-01 00:42:19.996,-0.025,-0.145
2021-08-01 00:42:20.000,-0.065,-0.19
2021-08-01 00:42:20.004,-0.095,-0.215
2021-08-01 00:42:20.008,-0.1,-0.26
2021-08-01 00:42:20.012,-0.095,-0.285
2021-08-01 00:42:20.016,-0.08,-0.285
2021-08-01 00:42:20.020,-0.055,-0.305
2021-08-01 00:42:20.024,-0.055,-0.31
2021-08-01 00:42:20.028,-0.065,-0.28
2021-08-01 00:42:20.032,-0.075,-0.29
2021-08-01 00:42:20.036,-0.09,-0.285
2021-08-01 00:42:20.040,-0.105,-0.29
2021-08-01 00:42:20.044,-0.08,-0.275
2021-08-01 00:42:20.048,-0.06,-0.295
2021-08-01 00:42:20.052,-0.08,-0.29
2021-08-01 00:42:20.056,-0.095,-0.28
2021-08-01 00:42:20.060,-0.1,-0.285
2021-08-01 00:42:20.064,-0.09,-0.27
2021-08-01 00:42:20.068,-0.08,-0.265
2021-08-01 00:42:20.072,-0.08,-0.255
2021-08-01 00:42:20.076,-0.08,-0.255
2021-08-01 00:42:20.080,-0.08,-0.26
2021-08-01 00:42:20.084,-0.105,-0.25
2021-08-01 00:42:20.088,-0.09,-0.24
2021-08-01 00:42:20.092,-0.095,-0.235
2021-08-01 00:42:20.096,-0.075,-0.215
2021-08-01 00:42:20.100,-0.09,-0.19
2021-08-01 00:42:20.104,-0.07,-0.12
2021-08-01 00:42:20.108,-0.065,0.005
2021-08-01 00:42:20.112,-0.045,0.15
2021-08-01 00:42:20.116,-0.01,0.405
2021-08-01 00:42:20.120,0.06,0.67
2021-08-01 00:42:20.124,-0.02,0.835
2021-08-01 00:42:20.128,-0.285,0.93
2021-08-01 00:42:20.132,-0.74,1.1
2021-08-01 00:42:20.136,-1.42,1.33
2021-08-01 00:42:20.180,-1.995,1.37
2021-08-01 00:42:20.184,-1.86,1.38
2021-08-01 00:42:20.188,-1.74,1.265
2021-08-01 00:42:20.192,-1.605,0.9
2021-08-01 00:42:20.196,-1.51,0.35
2021-08-01 00:42:20.200,-1.41,-0.145
2021-08-01 00:42:20.204,-1.24,-0.385
2021-08-01 00:42:20.208,-1.08,-0.485
2021-08-01 00:42:20.212,-0.925,-0.515
2021-08-01 00:42:20.216,-0.795,-0.515
2021-08-01 00:42:20.220,-0.595,-0.46
2021-08-01 00:42:20.224,-0.38,-0.46
2021-08-01 00:42:20.228,-0.175,-0.45
2021-08-01 00:42:20.232,0.005,-0.445
2021-08-01 00:42:20.236,0.14,-0.42
2021-08-01 00:42:20.240,0.26,-0.43
2021-08-01 00:42:20.244,0.295,-0.425
2021-08-01 00:42:20.248,0.35,-0.425
2021-08-01 00:42:20.252,0.385,-0.43
2021-08-01 00:42:20.256,0.385,-0.435
2021-08-01 00:42:20.260,0.43,-0.425
2021-08-01 00:42:20.264,0.43,-0.42
2021-08-01 00:42:20.268,0.435,-0.425
2021-08-01 00:42:20.272,0.45,-0.405
2021-08-01 00:42:20.276,0.475,-0.41
2021-08-01 00:42:20.280,0.485,-0.425
2021-08-01 00:42:20.284,0.5,-0.435
2021-08-01 00:42:20.288,0.495,-0.415
2021-08-01 00:42:20.292,0.49,-0.38
2021-08-01 00:42:20.296,0.505,-0.4
2021-08-01 00:42:20.300,0.515,-0.41
2021-08-01 00:42:20.304,0.535,-0.41
2021-08-01 00:42:20.308,0.57,-0.405
2021-08-01 00:42:20.312,0.575,-0.41
2021-08-01 00:42:20.316,0.595,-0.41
2021-08-01 00:42:20.320,0.615,-0.43
2021-08-01 00:42:20.324,0.63,-0.43
2021-08-01 00:42:20.328,0.62,-0.455
2021-08-01 00:42:20.332,0.68,-0.46
2021-08-01 00:42:20.336,0.695,-0.445
2021-08-01 00:42:20.340,0.735,-0.465
2021-08-01 00:42:20.344,0.75,-0.495
2021-08-01 00:42:20.348,0.76,-0.505
2021-08-01 00:42:20.352,0.81,-0.515
2021-08-01 00:42:20.356,0.825,-0.505
2021-08-01 00:42:20.360,0.81,-0.52
2021-08-01 00:42:20.364,0.845,-0.535
2021-08-01 00:42:20.368,0.88,-0.55
2021-08-01 00:42:20.372,0.895,-0.525
2021-08-01 00:42:20.376,0.885,-0.56
2021-08-01 00:42:20.380,0.89,-0.545
2021-08-01 00:42:20.384,0.895,-0.5
2021-08-01 00:42:20.388,0.92,-0.48
2021-08-01 00:42:20.392,0.895,-0.48
2021-08-01 00:42:20.396,0.855,-0.485
2021-08-01 00:42:20.400,0.815,-0.47
2021-08-01 00:42:20.404,0.8,-0.415
2021-08-01 00:42:20.408,0.775,-0.375
2021-08-01 00:42:20.412,0.725,-0.345
2021-08-01 00:42:20.416,0.655,-0.28
2021-08-01 00:42:20.420,0.615,-0.23
2021-08-01 00:42:20.424,0.585,-0.19
2021-08-01 00:42:20.428,0.53,-0.14
2021-08-01 00:42:20.432,0.49,-0.1
2021-08-01 00:42:20.436,0.435,-0.08
2021-08-01 00:42:20.440,0.38,-0.07
2021-08-01 00:42:20.444,0.35,-0.085
2021-08-01 00:42:20.448,0.275,-0.045
2021-08-01 00:42:20.452,0.245,-0.03
2021-08-01 00:42:20.456,0.21,-0.02
2021-08-01 00:42:20.460,0.145,-0.05
2021-08-01 00:42:20.464,0.14,-0.06
2021-08-01 00:42:20.468,0.1,-0.05
2021-08-01 00:42:20.472,0.085,-0.055
2021-08-01 00:42:20.476,0.04,-0.08
2021-08-01 00:42:20.480,0.02,-0.08
2021-08-01 00:42:20.484,0.025,-0.075
2021-08-01 00:42:20.488,0.01,-0.075
2021-08-01 00:42:20.492,0.0,-0.09
2021-08-01 00:42:20.496,0.01,-0.085
2021-08-01 00:42:20.500,0.01,-0.125
2021-08-01 00:42:20.504,0.0,-0.115
2021-08-01 00:42:20.508,0.0,-0.11
2021-08-01 00:42:20.512,0.0,-0.125
2021-08-01 00:42:20.516,0.005,-0.125
2021-08-01 00:42:20.520,0.0,-0.14
2021-08-01 00:42:20.524,0.0,-0.135
2021-08-01 00:42:20.528,0.0,-0.12
2021-08-01 00:42:20.532,0.02,-0.125
2021-08-01 00:42:20.536,0.03,-0.15
2021-08-01 00:42:20.540,0.045,-0.165
2021-08-01 00:42:20.544,0.04,-0.185
2021-08-01 00:42:20.548,0.015,-0.17
2021-08-01 00:42:20.552,0.03,-0.16
2021-08-01 00:42:20.556,0.035,-0.165
2021-08-01 00:42:20.560,0.01,-0.185
2021-08-01 00:42:20.564,0.01,-0.205
2021-08-01 00:42:20.568,0.02,-0.215
2021-08-01 00:42:20.572,0.05,-0.2
2021-08-01 00:42:20.576,0.02,-0.19
2021-08-01 00:42:20.580,0.035,-0.195
2021-08-01 00:42:20.584,0.015,-0.185
2021-08-01 00:42:20.588,0.035,-0.2
2021-08-01 00:42:20.592,0.025,-0.19
2021-08-01 00:42:20.596,-0.005,-0.2
2021-08-01 00:42:20.600,0.025,-0.21
2021-08-01 00:42:20.604,0.02,-0.235
2021-08-01 00:42:20.608,0.04,-0.215
2021-08-01 00:42:20.612,0.01,-0.205
2021-08-01 00:42:20.616,0.015,-0.205
2021-08-01 00:42:20.620,0.01,-0.24
2021-08-01 00:42:20.624,-0.015,-0.21
2021-08-01 00:42:20.628,0.0,-0.19
2021-08-01 00:42:20.632,0.035,-0.195
2021-08-01 00:42:20.636,0.005,-0.18
2021-08-01 00:42:20.640,-0.01,-0.205
2021-08-01 00:42:20.644,-0.025,-0.205
2021-08-01 00:42:20.648,0.0,-0.19
2021-08-01 00:42:20.652,-0.015,-0.185
2021-08-01 00:42:20.656,-0.025,-0.185
2021-08-01 00:42:20.660,-0.02,-0.2
2021-08-01 00:42:20.664,-0.035,-0.185
2021-08-01 00:42:20.668,-0.045,-0.175
2021-08-01 00:42:20.672,-0.04,-0.175
2021-08-01 00:42:20.676,-0.05,-0.19
2021-08-01 00:42:20.680,-0.045,-0.185
2021-08-01 00:42:20.684,-0.055,-0.16
2021-08-01 00:42:20.688,-0.05,-0.185
2021-08-01 00:42:20.692,-0.035,-0.18
2021-08-01 00:42:20.696,-0.035,-0.165
2021-08-01 00:42:20.700,-0.065,-0.17
2021-08-01 00:42:20.704,-0.065,-0.16
2021-08-01 00:42:20.708,-0.07,-0.16
2021-08-01 00:42:20.712,-0.08,-0.145
2021-08-01 00:42:20.716,-0.065,-0.15
2021-08-01 00:42:20.720,-0.055,-0.18
2021-08-01 00:42:20.724,-0.075,-0.155
2021-08-01 00:42:20.728,-0.08,-0.18
2021-08-01 00:42:20.732,-0.08,-0.135
2021-08-01 00:42:20.736,-0.07,-0.15
2021-08-01 00:42:20.740,-0.07,-0.12
2021-08-01 00:42:20.744,-0.075,-0.125
2021-08-01 00:42:20.748,-0.075,-0.125
2021-08-01 00:42:20.752,-0.09,-0.125
2021-08-01 00:42:20.756,-0.105,-0.12
2021-08-01 00:42:20.760,-0.085,-0.135
2021-08-01 00:42:20.764,-0.095,-0.105
2021-08-01 00:42:20.768,-0.09,-0.105
2021-08-01 00:42:20.772,-0.09,-0.055
2021-08-01 00:42:20.776,-0.085,-0.015
2021-08-01 00:42:20.780,-0.07,0.01
2021-08-01 00:42:20.784,-0.06,0.015
2021-08-01 00:42:20.788,-0.02,0.04
2021-08-01 00:42:20.792,-0.015,0.055
2021-08-01 00:42:20.796,0.01,0.085
2021-08-01 00:42:20.800,0.035,0.085
2021-08-01 00:42:20.804,0.04,0.09
2021-08-01 00:42:20.808,0.085,0.09
2021-08-01 00:42:20.812,0.075,0.075
2021-08-01 00:42:20.816,0.085,0.045
2021-08-01 00:42:20.820,0.055,0.0
2021-08-01 00:42:20.824,0.02,0.0
2021-08-01 00:42:20.828,-0.02,-0.03
2021-08-01 00:42:20.832,-0.065,-0.04
2021-08-01 00:42:20.836,-0.1,-0.085
2021-08-01 00:42:20.840,-0.12,-0.085
2021-08-01 00:42:20.844,-0.105,-0.07
2021-08-01 00:42:20.848,-0.155,-0.1
2021-08-01 00:42:20.852,-0.18,-0.155
2021-08-01 00:42:20.856,-0.21,-0.19
2021-08-01 00:42:20.860,-0.205,-0.22
2021-08-01 00:42:20.864,-0.155,-0.215
2021-08-01 00:42:20.868,-0.18,-0.21
2021-08-01 00:42:20.872,-0.155,-0.22
2021-08-01 00:42:20.876,-0.165,-0.215
2021-08-01 00:42:20.880,-0.165,-0.215
2021-08-01 00:42:20.884,-0.16,-0.22
2021-08-01 00:42:20.888,-0.19,-0.22
2021-08-01 00:42:20.892,-0.17,-0.21
2021-08-01 00:42:20.896,-0.185,-0.23
2021-08-01 00:42:20.900,-0.175,-0.21
2021-08-01 00:42:20.904,-0.15,-0.19
2021-08-01 00:42:20.908,-0.145,-0.21
2021-08-01 00:42:20.912,-0.145,-0.215
2021-08-01 00:42:20.916,-0.14,-0.21
2021-08-01 00:42:20.920,-0.18,-0.19
2021-08-01 00:42:20.924,-0.165,-0.18
2021-08-01 00:42:20.928,-0.17,-0.195
2021-08-01 00:42:20.932,-0.175,-0.19
2021-08-01 00:42:20.936,-0.155,-0.19
2021-08-01 00:42:20.940,-0.16,-0.175
2021-08-01 00:42:20.944,-0.165,-0.165
2021-08-01 00:42:20.948,-0.165,-0.145
2021-08-01 00:42:20.952,-0.16,-0.12
2021-08-01 00:42:20.956,-0.145,-0.02
2021-08-01 00:42:20.960,-0.135,0.12
2021-08-01 00:42:20.964,-0.105,0.285
2021-08-01 00:42:20.968,-0.05,0.515
2021-08-01 00:42:20.972,-0.005,0.77
2021-08-01 00:42:20.976,-0.125,0.92
2021-08-01 00:42:20.980,-0.405,1.02
2021-08-01 00:42:20.984,-0.925,1.185
2021-08-01 00:42:20.988,-1.6,1.4
2021-08-01 00:42:21.036,-1.97,1.425
2021-08-01 00:42:21.040,-1.835,1.39
2021-08-01 00:42:21.044,-1.685,1.135
2021-08-01 00:42:21.048,-1.55,0.72
2021-08-01 00:42:21.052,-1.47,0.195
2021-08-01 00:42:21.056,-1.355,-0.17
2021-08-01 00:42:21.060,-1.205,-0.36
2021-08-01 00:42:21.064,-1.065,-0.47
2021-08-01 00:42:21.068,-0.925,-0.475
2021-08-01 00:42:21.072,-0.755,-0.44
2021-08-01 00:42:21.076,-0.55,-0.44
2021-08-01 00:42:21.080,-0.375,-0.415
2021-08-01 00:42:21.084,-0.19,-0.4
2021-08-01 00:42:21.088,-0.015,-0.395
2021-08-01 00:42:21.092,0.085,-0.38
2021-08-01 00:42:21.096,0.19,-0.37
2021-08-01 00:42:21.100,0.245,-0.405
2021-08-01 00:42:21.104,0.285,-0.395
2021-08-01 00:42:21.108,0.305,-0.415
2021-08-01 00:42:21.112,0.32,-0.4
2021-08-01 00:42:21.116,0.36,-0.395
2021-08-01 00:42:21.120,0.37,-0.39
2021-08-01 00:42:21.124,0.38,-0.385
2021-08-01 00:42:21.128,0.395,-0.39
2021-08-01 00:42:21.132,0.395,-0.39
2021-08-01 00:42:21.136,0.42,-0.38
2021-08-01 00:42:21.140,0.43,-0.375
2021-08-01 00:42:21.144,0.455,-0.375
2021-08-01 00:42:21.148,0.45,-0.385
2021-08-01 00:42:21.152,0.465,-0.385
2021-08-01 00:42:21.156,0.455,-0.39
2021-08-01 00:42:21.160,0.505,-0.41
2021-08-01 00:42:21.164,0.5,-0.4
2021-08-01 00:42:21.168,0.515,-0.385
2021-08-01 00:42:21.172,0.545,-0.42
2021-08-01 00:42:21.176,0.57,-0.43
2021-08-01 00:42:21.180,0.59,-0.38
2021-08-01 00:42:21.184,0.605,-0.41
2021-08-01 00:42:21.188,0.62,-0.44
2021-08-01 00:42:21.192,0.64,-0.43
2021-08-01 00:42:21.196,0.66,-0.47
2021-08-01 00:42:21.200,0.68,-0.475
2021-08-01 00:42:21.204,0.715,-0.48
2021-08-01 00:42:21.208,0.73,-0.485
2021-08-01 00:42:21.212,0.77,-0.495
2021-08-01 00:42:21.216,0.815,-0.54
2021-08-01 00:42:21.220,0.81,-0.545
2021-08-01 00:42:21.224,0.835,-0.55
2021-08-01 00:42:21.228,0.84,-0.56
2021-08-01 00:42:21.232,0.845,-0.56
2021-08-01 00:42:21.236,0.835,-0.56
2021-08-01 00:42:21.240,0.855,-0.56
2021-08-01 00:42:21.244,0.855,-0.535
2021-08-01 00:42:21.248,0.84,-0.52
2021-08-01 00:42:21.252,0.83,-0.495
2021-08-01 00:42:21.256,0.82,-0.45
2021-08-01 00:42:21.260,0.8,-0.425
2021-08-01 00:42:21.264,0.76,-0.395
2021-08-01 00:42:21.268,0.7,-0.355
2021-08-01 00:42:21.272,0.66,-0.275
2021-08-01 00:42:21.276,0.595,-0.24
2021-08-01 00:42:21.280,0.565,-0.21
2021-08-01 00:42:21.284,0.505,-0.175
2021-08-01 00:42:21.288,0.455,-0.145
2021-08-01 00:42:21.292,0.415,-0.12
2021-08-01 00:42:21.296,0.375,-0.085
2021-08-01 00:42:21.300,0.315,-0.08
2021-08-01 00:42:21.304,0.265,-0.085
2021-08-01 00:42:21.308,0.23,-0.08
2021-08-01 00:42:21.312,0.19,-0.095
2021-08-01 00:42:21.316,0.145,-0.1
2021-08-01 00:42:21.320,0.13,-0.105
2021-08-01 00:42:21.324,0.105,-0.1
2021-08-01 00:42:21.328,0.065,-0.105
2021-08-01 00:42:21.332,0.025,-0.11
2021-08-01 00:42:21.336,0.015,-0.14
2021-08-01 00:42:21.340,0.005,-0.09
2021-08-01 00:42:21.344,0.015,-0.13
2021-08-01 00:42:21.348,-0.01,-0.12
2021-08-01 00:42:21.352,-0.01,-0.15
2021-08-01 00:42:21.356,-0.01,-0.155
2021-08-01 00:42:21.360,-0.035,-0.16
2021-08-01 00:42:21.364,-0.025,-0.15
2021-08-01 00:42:21.368,0.0,-0.165
2021-08-01 00:42:21.372,-0.005,-0.17
2021-08-01 00:42:21.376,-0.015,-0.155
2021-08-01 00:42:21.380,0.0,-0.16
2021-08-01 00:42:21.384,-0.03,-0.185
2021-08-01 00:42:21.388,-0.025,-0.185
2021-08-01 00:42:21.392,-0.02,-0.185
2021-08-01 00:42:21.396,-0.005,-0.2
2021-08-01 00:42:21.400,-0.03,-0.215
2021-08-01 00:42:21.404,-0.025,-0.21
2021-08-01 00:42:21.408,-0.01,-0.205
2021-08-01 00:42:21.412,-0.02,-0.215
2021-08-01 00:42:21.416,0.005,-0.225
2021-08-01 00:42:21.420,0.0,-0.235
2021-08-01 00:42:21.424,0.015,-0.23
2021-08-01 00:42:21.428,0.03,-0.25
2021-08-01 00:42:21.432,0.02,-0.25
2021-08-01 00:42:21.436,0.0,-0.25
2021-08-01 00:42:21.440,0.0,-0.26
2021-08-01 00:42:21.444,0.0,-0.315
2021-08-01 00:42:21.448,0.0,-0.3
2021-08-01 00:42:21.452,-0.005,-0.29
2021-08-01 00:42:21.456,-0.01,-0.285
2021-08-01 00:42:21.460,0.005,-0.28
2021-08-01 00:42:21.464,0.015,-0.265
2021-08-01 00:42:21.468,0.005,-0.29
2021-08-01 00:42:21.472,0.005,-0.29
2021-08-01 00:42:21.476,0.005,-0.285
2021-08-01 00:42:21.480,-0.02,-0.295
2021-08-01 00:42:21.484,-0.01,-0.295
2021-08-01 00:42:21.488,-0.02,-0.295
2021-08-01 00:42:21.492,-0.015,-0.285
2021-08-01 00:42:21.496,-0.02,-0.29
2021-08-01 00:42:21.500,-0.03,-0.29
2021-08-01 00:42:21.504,-0.05,-0.26
2021-08-01 00:42:21.508,-0.045,-0.265
2021-08-01 00:42:21.512,-0.02,-0.24
2021-08-01 00:42:21.516,-0.04,-0.24
2021-08-01 00:42:21.520,-0.03,-0.23
2021-08-01 00:42:21.524,-0.03,-0.245
2021-08-01 00:42:21.528,-0.045,-0.24
2021-08-01 00:42:21.532,-0.045,-0.24
2021-08-01 00:42:21.536,-0.07,-0.26
2021-08-01 00:42:21.540,-0.05,-0.24
2021-08-01 00:42:21.544,-0.065,-0.245
2021-08-01 00:42:21.548,-0.08,-0.22
2021-08-01 00:42:21.552,-0.07,-0.22
2021-08-01 00:42:21.556,-0.07,-0.225
2021-08-01 00:42:21.560,-0.08,-0.22
2021-08-01 00:42:21.564,-0.085,-0.225
2021-08-01 00:42:21.568,-0.065,-0.25
2021-08-01 00:42:21.572,-0.075,-0.245
2021-08-01 00:42:21.576,-0.075,-0.24
2021-08-01 00:42:21.580,-0.09,-0.24
2021-08-01 00:42:21.584,-0.075,-0.23
2021-08-01 00:42:21.588,-0.07,-0.235
2021-08-01 00:42:21.592,-0.07,-0.235
2021-08-01 00:42:21.596,-0.07,-0.205
2021-08-01 00:42:21.600,-0.085,-0.21
2021-08-01 00:42:21.604,-0.09,-0.22
2021-08-01 00:42:21.608,-0.085,-0.22
2021-08-01 00:42:21.612,-0.085,-0.21
2021-08-01 00:42:21.616,-0.085,-0.215
2021-08-01 00:42:21.620,-0.1,-0.255
2021-08-01 00:42:21.624,-0.085,-0.23
2021-08-01 00:42:21.628,-0.07,-0.2
2021-08-01 00:42:21.632,-0.1,-0.205
2021-08-01 00:42:21.636,-0.095,-0.22
2021-08-01 00:42:21.640,-0.08,-0.245
2021-08-01 00:42:21.644,-0.08,-0.215
2021-08-01 00:42:21.648,-0.08,-0.22
2021-08-01 00:42:21.652,-0.075,-0.2
2021-08-01 00:42:21.656,-0.09,-0.2
2021-08-01 00:42:21.660,-0.085,-0.195
2021-08-01 00:42:21.664,-0.105,-0.175
2021-08-01 00:42:21.668,-0.085,-0.19
2021-08-01 00:42:21.672,-0.085,-0.185
2021-08-01 00:42:21.676,-0.09,-0.155
2021-08-01 00:42:21.680,-0.11,-0.11
2021-08-01 00:42:21.684,-0.075,-0.1
2021-08-01 00:42:21.688,-0.04,-0.08
2021-08-01 00:42:21.692,0.005,-0.055
2021-08-01 00:42:21.696,0.0,-0.025
2021-08-01 00:42:21.700,0.01,0.0
2021-08-01 00:42:21.704,0.025,0.03
2021-08-01 00:42:21.708,0.07,-0.01
2021-08-01 00:42:21.712,0.08,-0.06
2021-08-01 00:42:21.716,0.075,-0.06
2021-08-01 00:42:21.720,0.05,-0.115
2021-08-01 00:42:21.724,-0.005,-0.13
2021-08-01 00:42:21.728,-0.02,-0.13
2021-08-01 00:42:21.732,-0.075,-0.15
2021-08-01 00:42:21.736,-0.125,-0.2
2021-08-01 00:42:21.740,-0.09,-0.215
2021-08-01 00:42:21.744,-0.145,-0.23
2021-08-01 00:42:21.748,-0.18,-0.225
2021-08-01 00:42:21.752,-0.195,-0.265
2021-08-01 00:42:21.756,-0.2,-0.3
2021-08-01 00:42:21.760,-0.215,-0.33
2021-08-01 00:42:21.764,-0.23,-0.365
2021-08-01 00:42:21.768,-0.19,-0.375
2021-08-01 00:42:21.772,-0.19,-0.365
2021-08-01 00:42:21.776,-0.18,-0.335
2021-08-01 00:42:21.780,-0.19,-0.35
2021-08-01 00:42:21.784,-0.2,-0.37
2021-08-01 00:42:21.788,-0.17,-0.375
2021-08-01 00:42:21.792,-0.19,-0.365
2021-08-01 00:42:21.796,-0.175,-0.355
2021-08-01 00:42:21.800,-0.185,-0.36
2021-08-01 00:42:21.804,-0.16,-0.365
2021-08-01 00:42:21.808,-0.16,-0.35
2021-08-01 00:42:21.812,-0.185,-0.355
2021-08-01 00:42:21.816,-0.175,-0.35
2021-08-01 00:42:21.820,-0.18,-0.34
2021-08-01 00:42:21.824,-0.175,-0.35
2021-08-01 00:42:21.828,-0.175,-0.345
2021-08-01 00:42:21.832,-0.195,-0.34
2021-08-01 00:42:21.836,-0.18,-0.315
2021-08-01 00:42:21.840,-0.185,-0.33
2021-08-01 00:42:21.844,-0.175,-0.33
2021-08-01 00:42:21.848,-0.175,-0.295
2021-08-01 00:42:21.852,-0.16,-0.21
2021-08-01 00:42:21.856,-0.15,-0.08
2021-08-01 00:42:21.860,-0.125,0.09
2021-08-01 00:42:21.864,-0.055,0.37
2021-08-01 00:42:21.868,0.0,0.62
2021-08-01 00:42:21.872,-0.12,0.745
2021-08-01 00:42:21.876,-0.445,0.85
2021-08-01 00:42:21.880,-0.98,1.03
2021-08-01 00:42:21.884,-1.71,1.26
2021-08-01 00:42:21.932,-1.965,1.21
2021-08-01 00:42:21.936,-1.825,1.085
2021-08-01 00:42:21.940,-1.685,0.71
2021-08-01 00:42:21.944,-1.565,0.17
2021-08-01 00:42:21.948,-1.47,-0.275
2021-08-01 00:42:21.952,-1.33,-0.49
2021-08-01 00:42:21.956,-1.155,-0.62
2021-08-01 00:42:21.960,-1.01,-0.635
2021-08-01 00:42:21.964,-0.84,-0.645
2021-08-01 00:42:21.968,-0.67,-0.63
2021-08-01 00:42:21.972,-0.455,-0.61
2021-08-01 00:42:21.976,-0.285,-0.595
2021-08-01 00:42:21.980,-0.105,-0.565
2021-08-01 00:42:21.984,0.07,-0.55
2021-08-01 00:42:21.988,0.19,-0.56
2021-08-01 00:42:21.992,0.235,-0.56
2021-08-01 00:42:21.996,0.285,-0.57
