Time,ECG1,ECG2
2021-08-01 00:42:47.500,-0.02,-0.25
2021-08-01 00:42:47.504,0.0,-0.26
2021-08-01 00:42:47.508,-0.01,-0.225
2021-08-01 00:42:47.512,-0.015,-0.19
2021-08-01 00:42:47.516,-0.015,-0.205
2021-08-01 00:42:47.520,-0.035,-0.235
2021-08-01 00:42:47.524,-0.035,-0.24
2021-08-01 00:42:47.528,-0.04,-0.275
2021-08-01 00:42:47.532,-0.08,-0.265
2021-08-01 00:42:47.536,-0.045,-0.25
2021-08-01 00:42:47.540,-0.04,-0.25
2021-08-01 00:42:47.544,-0.015,-0.265
2021-08-01 00:42:47.548,-0.025,-0.26
2021-08-01 00:42:47.552,-0.02,-0.225
2021-08-01 00:42:47.556,0.0,-0.195
2021-08-01 00:42:47.560,-0.025,-0.18
2021-08-01 00:42:47.564,-0.03,-0.2
2021-08-01 00:42:47.568,-0.03,-0.24
2021-08-01 00:42:47.572,-0.025,-0.215
2021-08-01 00:42:47.576,-0.015,-0.195
2021-08-01 00:42:47.580,-0.035,-0.215
2021-08-01 00:42:47.584,-0.045,-0.225
2021-08-01 00:42:47.588,-0.02,-0.2
2021-08-01 00:42:47.592,0.0,-0.205
2021-08-01 00:42:47.596,0.005,-0.23
2021-08-01 00:42:47.600,-0.015,-0.24
2021-08-01 00:42:47.604,0.0,-0.25
2021-08-01 00:42:47.608,0.0,-0.27
2021-08-01 00:42:47.612,-0.01,-0.265
2021-08-01 00:42:47.616,-0.05,-0.265
2021-08-01 00:42:47.620,-0.065,-0.26
2021-08-01 00:42:47.624,-0.055,-0.22
2021-08-01 00:42:47.628,-0.035,-0.215
2021-08-01 00:42:47.632,0.0,-0.19
2021-08-01 00:42:47.636,0.03,-0.2
2021-08-01 00:42:47.640,0.045,-0.225
2021-08-01 00:42:47.644,0.045,-0.25
2021-08-01 00:42:47.648,0.035,-0.265
2021-08-01 00:42:47.652,0.0,-0.25
2021-08-01 00:42:47.656,-0.055,-0.24
2021-08-01 00:42:47.660,-0.07,-0.23
2021-08-01 00:42:47.664,-0.06,-0.215
2021-08-01 00:42:47.668,-0.07,-0.205
2021-08-01 00:42:47.672,-0.095,-0.27
2021-08-01 00:42:47.676,-0.105,-0.345
2021-08-01 00:42:47.680,-0.115,-0.33
2021-08-01 00:42:47.684,-0.14,-0.285
2021-08-01 00:42:47.688,-0.12,-0.29
2021-08-01 00:42:47.692,-0.125,-0.36
2021-08-01 00:42:47.696,-0.135,-0.395
2021-08-01 00:42:47.700,-0.125,-0.33
2021-08-01 00:42:47.704,-0.13,-0.305
2021-08-01 00:42:47.708,-0.125,-0.3
2021-08-01 00:42:47.712,-0.135,-0.32
2021-08-01 00:42:47.716,-0.14,-0.28
2021-08-01 00:42:47.720,-0.145,-0.295
2021-08-01 00:42:47.724,-0.15,-0.285
2021-08-01 00:42:47.728,-0.16,-0.305
2021-08-01 00:42:47.732,-0.17,-0.295
2021-08-01 00:42:47.736,-0.17,-0.265
2021-08-01 00:42:47.740,-0.155,-0.255
2021-08-01 00:42:47.744,-0.16,-0.22
2021-08-01 00:42:47.748,-0.155,-0.16
2021-08-01 00:42:47.752,-0.16,-0.07
2021-08-01 00:42:47.756,-0.16,0.045
2021-08-01 00:42:47.760,-0.12,0.305
2021-08-01 00:42:47.764,-0.05,0.69
2021-08-01 00:42:47.768,-0.055,1.035
2021-08-01 00:42:47.772,-0.225,1.265
2021-08-01 00:42:47.776,-0.525,1.485
2021-08-01 00:42:47.780,-0.98,1.715
2021-08-01 00:42:47.784,-1.62,1.8
2021-08-01 00:42:47.820,-1.825,-0.23
2021-08-01 00:42:47.824,-1.58,-0.225
2021-08-01 00:42:47.828,-1.265,-0.25
2021-08-01 00:42:47.832,-0.875,-0.26
2021-08-01 00:42:47.836,-0.53,-0.315
2021-08-01 00:42:47.840,-0.265,-0.345
2021-08-01 00:42:47.844,-0.1,-0.335
2021-08-01 00:42:47.848,-0.05,-0.33
2021-08-01 00:42:47.852,0.0,-0.345
2021-08-01 00:42:47.856,0.05,-0.35
2021-08-01 00:42:47.860,0.085,-0.325
2021-08-01 00:42:47.864,0.125,-0.34
2021-08-01 00:42:47.868,0.145,-0.335
2021-08-01 00:42:47.872,0.12,-0.35
2021-08-01 00:42:47.876,0.17,-0.31
2021-08-01 00:42:47.880,0.17,-0.29
2021-08-01 00:42:47.884,0.19,-0.32
2021-08-01 00:42:47.888,0.21,-0.305
2021-08-01 00:42:47.892,0.2,-0.275
2021-08-01 00:42:47.896,0.215,-0.215
2021-08-01 00:42:47.900,0.225,-0.21
2021-08-01 00:42:47.904,0.215,-0.19
2021-08-01 00:42:47.908,0.235,-0.24
2021-08-01 00:42:47.912,0.25,-0.34
2021-08-01 00:42:47.916,0.275,-0.37
2021-08-01 00:42:47.920,0.265,-0.32
2021-08-01 00:42:47.924,0.275,-0.295
2021-08-01 00:42:47.928,0.275,-0.275
2021-08-01 00:42:47.932,0.285,-0.28
2021-08-01 00:42:47.936,0.275,-0.305
2021-08-01 00:42:47.940,0.28,-0.3
2021-08-01 00:42:47.944,0.295,-0.305
2021-08-01 00:42:47.948,0.31,-0.29
2021-08-01 00:42:47.952,0.305,-0.3
2021-08-01 00:42:47.956,0.325,-0.29
2021-08-01 00:42:47.960,0.365,-0.27
2021-08-01 00:42:47.964,0.375,-0.28
2021-08-01 00:42:47.968,0.38,-0.275
2021-08-01 00:42:47.972,0.39,-0.275
2021-08-01 00:42:47.976,0.43,-0.27
2021-08-01 00:42:47.980,0.455,-0.25
2021-08-01 00:42:47.984,0.455,-0.265
2021-08-01 00:42:47.988,0.49,-0.24
2021-08-01 00:42:47.992,0.485,-0.25
2021-08-01 00:42:47.996,0.485,-0.24
2021-08-01 00:42:48.000,0.515,-0.245
2021-08-01 00:42:48.004,0.515,-0.24
2021-08-01 00:42:48.008,0.535,-0.24
2021-08-01 00:42:48.012,0.565,-0.215
2021-08-01 00:42:48.016,0.515,-0.215
2021-08-01 00:42:48.020,0.525,-0.22
2021-08-01 00:42:48.024,0.52,-0.175
2021-08-01 00:42:48.028,0.56,-0.15
2021-08-01 00:42:48.032,0.505,-0.165
2021-08-01 00:42:48.036,0.495,-0.135
2021-08-01 00:42:48.040,0.44,-0.12
2021-08-01 00:42:48.044,0.405,-0.105
2021-08-01 00:42:48.048,0.39,-0.095
2021-08-01 00:42:48.052,0.39,-0.085
2021-08-01 00:42:48.056,0.32,-0.07
2021-08-01 00:42:48.060,0.26,-0.055
2021-08-01 00:42:48.064,0.2,-0.085
2021-08-01 00:42:48.068,0.16,-0.09
2021-08-01 00:42:48.072,0.125,-0.08
2021-08-01 00:42:48.076,0.095,-0.085
2021-08-01 00:42:48.080,0.075,-0.105
2021-08-01 00:42:48.084,0.065,-0.08
2021-08-01 00:42:48.088,0.015,-0.09
2021-08-01 00:42:48.092,-0.015,-0.085
2021-08-01 00:42:48.096,0.0,-0.14
2021-08-01 00:42:48.100,-0.03,-0.115
2021-08-01 00:42:48.104,-0.04,-0.135
2021-08-01 00:42:48.108,-0.04,-0.12
2021-08-01 00:42:48.112,-0.04,-0.145
2021-08-01 00:42:48.116,-0.055,-0.15
2021-08-01 00:42:48.120,-0.05,-0.145
2021-08-01 00:42:48.124,-0.045,-0.12
2021-08-01 00:42:48.128,-0.05,-0.145
2021-08-01 00:42:48.132,-0.02,-0.17
2021-08-01 00:42:48.136,-0.04,-0.145
2021-08-01 00:42:48.140,-0.02,-0.145
2021-08-01 00:42:48.144,-0.05,-0.17
2021-08-01 00:42:48.148,-0.045,-0.175
2021-08-01 00:42:48.152,-0.035,-0.2
2021-08-01 00:42:48.156,-0.03,-0.18
2021-08-01 00:42:48.160,-0.035,-0.195
2021-08-01 00:42:48.164,-0.045,-0.23
2021-08-01 00:42:48.168,-0.045,-0.235
2021-08-01 00:42:48.172,-0.03,-0.23
2021-08-01 00:42:48.176,-0.03,-0.24
2021-08-01 00:42:48.180,-0.04,-0.27
2021-08-01 00:42:48.184,-0.045,-0.31
2021-08-01 00:42:48.188,-0.045,-0.295
2021-08-01 00:42:48.192,-0.02,-0.335
2021-08-01 00:42:48.196,-0.02,-0.355
2021-08-01 00:42:48.200,-0.02,-0.33
2021-08-01 00:42:48.204,-0.035,-0.34
2021-08-01 00:42:48.208,-0.03,-0.35
2021-08-01 00:42:48.212,-0.03,-0.38
2021-08-01 00:42:48.216,-0.05,-0.36
2021-08-01 00:42:48.220,-0.04,-0.37
2021-08-01 00:42:48.224,-0.05,-0.37
2021-08-01 00:42:48.228,-0.035,-0.385
2021-08-01 00:42:48.232,-0.07,-0.36
2021-08-01 00:42:48.236,-0.05,-0.36
2021-08-01 00:42:48.240,-0.055,-0.34
2021-08-01 00:42:48.244,-0.085,-0.33
2021-08-01 00:42:48.248,-0.1,-0.35
2021-08-01 00:42:48.252,-0.11,-0.315
2021-08-01 00:42:48.256,-0.105,-0.34
2021-08-01 00:42:48.260,-0.105,-0.33
2021-08-01 00:42:48.264,-0.125,-0.33
2021-08-01 00:42:48.268,-0.125,-0.325
2021-08-01 00:42:48.272,-0.125,-0.31
2021-08-01 00:42:48.276,-0.135,-0.325
2021-08-01 00:42:48.280,-0.15,-0.33
2021-08-01 00:42:48.284,-0.145,-0.32
2021-08-01 00:42:48.288,-0.14,-0.32
2021-08-01 00:42:48.292,-0.13,-0.33
2021-08-01 00:42:48.296,-0.15,-0.32
2021-08-01 00:42:48.300,-0.155,-0.29
2021-08-01 00:42:48.304,-0.16,-0.315
2021-08-01 00:42:48.308,-0.145,-0.305
2021-08-01 00:42:48.312,-0.17,-0.305
2021-08-01 00:42:48.316,-0.185,-0.295
2021-08-01 00:42:48.320,-0.17,-0.275
2021-08-01 00:42:48.324,-0.165,-0.315
2021-08-01 00:42:48.328,-0.17,-0.305
2021-08-01 00:42:48.332,-0.17,-0.305
2021-08-01 00:42:48.336,-0.17,-0.3
2021-08-01 00:42:48.340,-0.18,-0.295
2021-08-01 00:42:48.344,-0.195,-0.295
2021-08-01 00:42:48.348,-0.195,-0.31
2021-08-01 00:42:48.352,-0.195,-0.275
2021-08-01 00:42:48.356,-0.195,-0.285
2021-08-01 00:42:48.360,-0.19,-0.29
2021-08-01 00:42:48.364,-0.185,-0.3
2021-08-01 00:42:48.368,-0.19,-0.305
2021-08-01 00:42:48.372,-0.185,-0.3
2021-08-01 00:42:48.376,-0.195,-0.3
2021-08-01 00:42:48.380,-0.19,-0.29
2021-08-01 00:42:48.384,-0.175,-0.285
2021-08-01 00:42:48.388,-0.195,-0.27
2021-08-01 00:42:48.392,-0.22,-0.28
2021-08-01 00:42:48.396,-0.22,-0.275
2021-08-01 00:42:48.400,-0.205,-0.285
2021-08-01 00:42:48.404,-0.215,-0.3
2021-08-01 00:42:48.408,-0.22,-0.31
2021-08-01 00:42:48.412,-0.22,-0.3
2021-08-01 00:42:48.416,-0.195,-0.29
2021-08-01 00:42:48.420,-0.175,-0.295
2021-08-01 00:42:48.424,-0.19,-0.29
2021-08-01 00:42:48.428,-0.205,-0.29
2021-08-01 00:42:48.432,-0.195,-0.295
2021-08-01 00:42:48.436,-0.205,-0.31
2021-08-01 00:42:48.440,-0.225,-0.3
2021-08-01 00:42:48.444,-0.235,-0.31
2021-08-01 00:42:48.448,-0.225,-0.35
2021-08-01 00:42:48.452,-0.235,-0.355
2021-08-01 00:42:48.456,-0.28,-0.35
2021-08-01 00:42:48.460,-0.29,-0.34
2021-08-01 00:42:48.464,-0.3,-0.34
2021-08-01 00:42:48.468,-0.28,-0.32
2021-08-01 00:42:48.472,-0.265,-0.285
2021-08-01 00:42:48.476,-0.225,-0.265
2021-08-01 00:42:48.480,-0.175,-0.29
2021-08-01 00:42:48.484,-0.135,-0.305
2021-08-01 00:42:48.488,-0.11,-0.35
2021-08-01 00:42:48.492,-0.11,-0.355
2021-08-01 00:42:48.496,-0.16,-0.36
2021-08-01 00:42:48.500,-0.195,-0.335
2021-08-01 00:42:48.504,-0.225,-0.355
2021-08-01 00:42:48.508,-0.255,-0.365
2021-08-01 00:42:48.512,-0.28,-0.345
2021-08-01 00:42:48.516,-0.265,-0.355
2021-08-01 00:42:48.520,-0.23,-0.36
2021-08-01 00:42:48.524,-0.245,-0.365
2021-08-01 00:42:48.528,-0.25,-0.355
2021-08-01 00:42:48.532,-0.25,-0.37
2021-08-01 00:42:48.536,-0.26,-0.37
2021-08-01 00:42:48.540,-0.245,-0.36
2021-08-01 00:42:48.544,-0.235,-0.345
2021-08-01 00:42:48.548,-0.26,-0.37
2021-08-01 00:42:48.552,-0.25,-0.36
2021-08-01 00:42:48.556,-0.285,-0.355
2021-08-01 00:42:48.560,-0.29,-0.34
2021-08-01 00:42:48.564,-0.275,-0.35
2021-08-01 00:42:48.568,-0.285,-0.335
2021-08-01 00:42:48.572,-0.29,-0.335
2021-08-01 00:42:48.576,-0.3,-0.33
2021-08-01 00:42:48.580,-0.28,-0.305
2021-08-01 00:42:48.584,-0.27,-0.325
2021-08-01 00:42:48.588,-0.28,-0.32
2021-08-01 00:42:48.592,-0.27,-0.3
2021-08-01 00:42:48.596,-0.265,-0.24
2021-08-01 00:42:48.600,-0.25,-0.13
2021-08-01 00:42:48.604,-0.265,0.01
2021-08-01 00:42:48.608,-0.22,0.265
2021-08-01 00:42:48.612,-0.15,0.62
2021-08-01 00:42:48.616,-0.115,0.9
2021-08-01 00:42:48.620,-0.26,1.07
2021-08-01 00:42:48.624,-0.55,1.215
2021-08-01 00:42:48.628,-0.985,1.38
2021-08-01 00:42:48.632,-1.585,1.56
2021-08-01 00:42:48.680,-1.97,1.74
2021-08-01 00:42:48.684,-1.885,1.495
2021-08-01 00:42:48.688,-1.755,0.95
2021-08-01 00:42:48.692,-1.615,0.345
2021-08-01 00:42:48.696,-1.465,-0.05
2021-08-01 00:42:48.700,-1.275,-0.24
2021-08-01 00:42:48.704,-1.065,-0.4
2021-08-01 00:42:48.708,-0.84,-0.48
2021-08-01 00:42:48.712,-0.605,-0.515
2021-08-01 00:42:48.716,-0.345,-0.55
2021-08-01 00:42:48.720,-0.14,-0.58
2021-08-01 00:42:48.724,0.0,-0.57
2021-08-01 00:42:48.728,0.085,-0.565
2021-08-01 00:42:48.732,0.13,-0.57
2021-08-01 00:42:48.736,0.15,-0.57
2021-08-01 00:42:48.740,0.17,-0.6
2021-08-01 00:42:48.744,0.19,-0.59
2021-08-01 00:42:48.748,0.22,-0.585
2021-08-01 00:42:48.752,0.23,-0.585
2021-08-01 00:42:48.756,0.24,-0.605
2021-08-01 00:42:48.760,0.24,-0.6
2021-08-01 00:42:48.764,0.26,-0.595
2021-08-01 00:42:48.768,0.27,-0.6
2021-08-01 00:42:48.772,0.28,-0.595
2021-08-01 00:42:48.776,0.28,-0.585
2021-08-01 00:42:48.780,0.29,-0.59
2021-08-01 00:42:48.784,0.32,-0.575
2021-08-01 00:42:48.788,0.335,-0.57
2021-08-01 00:42:48.792,0.34,-0.565
2021-08-01 00:42:48.796,0.36,-0.585
2021-08-01 00:42:48.800,0.365,-0.57
2021-08-01 00:42:48.804,0.37,-0.575
2021-08-01 00:42:48.808,0.38,-0.57
2021-08-01 00:42:48.812,0.42,-0.58
2021-08-01 00:42:48.816,0.425,-0.585
2021-08-01 00:42:48.820,0.43,-0.605
2021-08-01 00:42:48.824,0.455,-0.655
2021-08-01 00:42:48.828,0.485,-0.655
2021-08-01 00:42:48.832,0.52,-0.65
2021-08-01 00:42:48.836,0.545,-0.655
2021-08-01 00:42:48.840,0.555,-0.655
2021-08-01 00:42:48.844,0.56,-0.67
2021-08-01 00:42:48.848,0.605,-0.7
2021-08-01 00:42:48.852,0.625,-0.705
2021-08-01 00:42:48.856,0.605,-0.72
2021-08-01 00:42:48.860,0.645,-0.72
2021-08-01 00:42:48.864,0.66,-0.73
2021-08-01 00:42:48.868,0.665,-0.72
2021-08-01 00:42:48.872,0.685,-0.73
2021-08-01 00:42:48.876,0.705,-0.72
2021-08-01 00:42:48.880,0.7,-0.7
2021-08-01 00:42:48.884,0.665,-0.66
2021-08-01 00:42:48.888,0.68,-0.63
2021-08-01 00:42:48.892,0.665,-0.6
2021-08-01 00:42:48.896,0.655,-0.555
2021-08-01 00:42:48.900,0.575,-0.54
2021-08-01 00:42:48.904,0.56,-0.5
2021-08-01 00:42:48.908,0.52,-0.465
2021-08-01 00:42:48.912,0.465,-0.45
2021-08-01 00:42:48.916,0.43,-0.41
2021-08-01 00:42:48.920,0.375,-0.375
2021-08-01 00:42:48.924,0.355,-0.33
2021-08-01 00:42:48.928,0.305,-0.33
2021-08-01 00:42:48.932,0.25,-0.305
2021-08-01 00:42:48.936,0.235,-0.28
2021-08-01 00:42:48.940,0.175,-0.285
2021-08-01 00:42:48.944,0.12,-0.295
2021-08-01 00:42:48.948,0.07,-0.28
2021-08-01 00:42:48.952,0.04,-0.265
2021-08-01 00:42:48.956,0.0,-0.285
2021-08-01 00:42:48.960,-0.015,-0.275
2021-08-01 00:42:48.964,-0.035,-0.25
2021-08-01 00:42:48.968,-0.03,-0.25
2021-08-01 00:42:48.972,-0.06,-0.26
2021-08-01 00:42:48.976,-0.05,-0.255
2021-08-01 00:42:48.980,-0.065,-0.275
2021-08-01 00:42:48.984,-0.09,-0.27
2021-08-01 00:42:48.988,-0.085,-0.285
2021-08-01 00:42:48.992,-0.06,-0.29
2021-08-01 00:42:48.996,-0.075,-0.315
2021-08-01 00:42:49.000,-0.075,-0.29
2021-08-01 00:42:49.004,-0.09,-0.315
2021-08-01 00:42:49.008,-0.085,-0.315
2021-08-01 00:42:49.012,-0.09,-0.285
2021-08-01 00:42:49.016,-0.095,-0.295
2021-08-01 00:42:49.020,-0.08,-0.335
2021-08-01 00:42:49.024,-0.075,-0.34
2021-08-01 00:42:49.028,-0.06,-0.345
2021-08-01 00:42:49.032,-0.07,-0.335
2021-08-01 00:42:49.036,-0.07,-0.35
2021-08-01 00:42:49.040,-0.08,-0.365
2021-08-01 00:42:49.044,-0.075,-0.405
2021-08-01 00:42:49.048,-0.065,-0.395
2021-08-01 00:42:49.052,-0.065,-0.415
2021-08-01 00:42:49.056,-0.08,-0.41
2021-08-01 00:42:49.060,-0.07,-0.41
2021-08-01 00:42:49.064,-0.08,-0.43
2021-08-01 00:42:49.068,-0.06,-0.415
2021-08-01 00:42:49.072,-0.065,-0.435
2021-08-01 00:42:49.076,-0.07,-0.43
2021-08-01 00:42:49.080,-0.075,-0.43
2021-08-01 00:42:49.084,-0.075,-0.42
2021-08-01 00:42:49.088,-0.07,-0.43
2021-08-01 00:42:49.092,-0.095,-0.435
2021-08-01 00:42:49.096,-0.07,-0.42
2021-08-01 00:42:49.100,-0.065,-0.415
2021-08-01 00:42:49.104,-0.065,-0.395
2021-08-01 00:42:49.108,-0.075,-0.42
2021-08-01 00:42:49.112,-0.065,-0.435
2021-08-01 00:42:49.116,-0.08,-0.415
2021-08-01 00:42:49.120,-0.09,-0.445
2021-08-01 00:42:49.124,-0.09,-0.425
2021-08-01 00:42:49.128,-0.085,-0.42
2021-08-01 00:42:49.132,-0.09,-0.405
2021-08-01 00:42:49.136,-0.095,-0.39
2021-08-01 00:42:49.140,-0.12,-0.42
2021-08-01 00:42:49.144,-0.09,-0.4
2021-08-01 00:42:49.148,-0.105,-0.39
2021-08-01 00:42:49.152,-0.12,-0.365
2021-08-01 00:42:49.156,-0.145,-0.395
2021-08-01 00:42:49.160,-0.115,-0.39
2021-08-01 00:42:49.164,-0.14,-0.39
2021-08-01 00:42:49.168,-0.155,-0.4
2021-08-01 00:42:49.172,-0.135,-0.395
2021-08-01 00:42:49.176,-0.14,-0.385
2021-08-01 00:42:49.180,-0.14,-0.38
2021-08-01 00:42:49.184,-0.125,-0.365
2021-08-01 00:42:49.188,-0.14,-0.35
2021-08-01 00:42:49.192,-0.14,-0.355
2021-08-01 00:42:49.196,-0.155,-0.33
2021-08-01 00:42:49.200,-0.135,-0.295
2021-08-01 00:42:49.204,-0.135,-0.295
2021-08-01 00:42:49.208,-0.145,-0.31
2021-08-01 00:42:49.212,-0.14,-0.32
2021-08-01 00:42:49.216,-0.16,-0.335
2021-08-01 00:42:49.220,-0.15,-0.31
2021-08-01 00:42:49.224,-0.16,-0.305
2021-08-01 00:42:49.228,-0.165,-0.3
2021-08-01 00:42:49.232,-0.145,-0.29
2021-08-01 00:42:49.236,-0.14,-0.3
2021-08-01 00:42:49.240,-0.15,-0.295
2021-08-01 00:42:49.244,-0.155,-0.3
2021-08-01 00:42:49.248,-0.15,-0.275
2021-08-01 00:42:49.252,-0.17,-0.295
2021-08-01 00:42:49.256,-0.155,-0.32
2021-08-01 00:42:49.260,-0.185,-0.32
2021-08-01 00:42:49.264,-0.2,-0.31
2021-08-01 00:42:49.268,-0.175,-0.31
2021-08-01 00:42:49.272,-0.175,-0.295
2021-08-01 00:42:49.276,-0.195,-0.295
2021-08-01 00:42:49.280,-0.175,-0.27
2021-08-01 00:42:49.284,-0.175,-0.27
2021-08-01 00:42:49.288,-0.18,-0.275
2021-08-01 00:42:49.292,-0.185,-0.3
2021-08-01 00:42:49.296,-0.16,-0.295
2021-08-01 00:42:49.300,-0.15,-0.315
2021-08-01 00:42:49.304,-0.185,-0.31
2021-08-01 00:42:49.308,-0.185,-0.305
2021-08-01 00:42:49.312,-0.17,-0.3
2021-08-01 00:42:49.316,-0.205,-0.305
2021-08-01 00:42:49.320,-0.18,-0.305
2021-08-01 00:42:49.324,-0.2,-0.305
2021-08-01 00:42:49.328,-0.195,-0.315
2021-08-01 00:42:49.332,-0.2,-0.275
2021-08-01 00:42:49.336,-0.225,-0.285
2021-08-01 00:42:49.340,-0.195,-0.29
2021-08-01 00:42:49.344,-0.19,-0.31
2021-08-01 00:42:49.348,-0.18,-0.29
2021-08-01 00:42:49.352,-0.21,-0.3
2021-08-01 00:42:49.356,-0.21,-0.315
2021-08-01 00:42:49.360,-0.215,-0.305
2021-08-01 00:42:49.364,-0.225,-0.3
2021-08-01 00:42:49.368,-0.215,-0.295
2021-08-01 00:42:49.372,-0.225,-0.315
2021-08-01 00:42:49.376,-0.235,-0.31
2021-08-01 00:42:49.380,-0.23,-0.305
2021-08-01 00:42:49.384,-0.25,-0.3
2021-08-01 00:42:49.388,-0.26,-0.305
2021-08-01 00:42:49.392,-0.245,-0.315
2021-08-01 00:42:49.396,-0.255,-0.3
2021-08-01 00:42:49.400,-0.27,-0.285
2021-08-01 00:42:49.404,-0.25,-0.25
2021-08-01 00:42:49.408,-0.23,-0.26
2021-08-01 00:42:49.412,-0.21,-0.235
2021-08-01 00:42:49.416,-0.175,-0.275
2021-08-01 00:42:49.420,-0.145,-0.305
2021-08-01 00:42:49.424,-0.12,-0.335
2021-08-01 00:42:49.428,-0.115,-0.36
2021-08-01 00:42:49.432,-0.135,-0.325
2021-08-01 00:42:49.436,-0.185,-0.31
2021-08-01 00:42:49.440,-0.21,-0.355
2021-08-01 00:42:49.444,-0.255,-0.385
2021-08-01 00:42:49.448,-0.26,-0.375
2021-08-01 00:42:49.452,-0.22,-0.395
2021-08-01 00:42:49.456,-0.265,-0.395
2021-08-01 00:42:49.460,-0.26,-0.405
2021-08-01 00:42:49.464,-0.26,-0.39
2021-08-01 00:42:49.468,-0.25,-0.395
2021-08-01 00:42:49.472,-0.28,-0.405
2021-08-01 00:42:49.476,-0.29,-0.415
2021-08-01 00:42:49.480,-0.265,-0.4
2021-08-01 00:42:49.484,-0.26,-0.385
2021-08-01 00:42:49.488,-0.265,-0.425
2021-08-01 00:42:49.492,-0.26,-0.39
2021-08-01 00:42:49.496,-0.27,-0.365
2021-08-01 00:42:49.500,-0.27,-0.38
2021-08-01 00:42:49.504,-0.255,-0.395
2021-08-01 00:42:49.508,-0.255,-0.38
2021-08-01 00:42:49.512,-0.26,-0.38
2021-08-01 00:42:49.516,-0.265,-0.37
2021-08-01 00:42:49.520,-0.28,-0.365
2021-08-01 00:42:49.524,-0.265,-0.37
2021-08-01 00:42:49.528,-0.25,-0.34
2021-08-01 00:42:49.532,-0.245,-0.29
2021-08-01 00:42:49.536,-0.23,-0.195
2021-08-01 00:42:49.540,-0.25,-0.08
2021-08-01 00:42:49.544,-0.225,0.165
2021-08-01 00:42:49.548,-0.16,0.515
2021-08-01 00:42:49.552,-0.15,0.825
2021-08-01 00:42:49.556,-0.215,1.075
2021-08-01 00:42:49.560,-0.435,1.245
2021-08-01 00:42:49.564,-0.77,1.48
2021-08-01 00:42:49.568,-1.275,1.68
2021-08-01 00:42:49.572,-1.835,1.805
2021-08-01 00:42:49.612,-1.98,1.63
2021-08-01 00:42:49.616,-1.885,1.72
2021-08-01 00:42:49.620,-1.755,1.7
2021-08-01 00:42:49.624,-1.615,1.4
2021-08-01 00:42:49.628,-1.505,0.87
2021-08-01 00:42:49.632,-1.41,0.28
2021-08-01 00:42:49.636,-1.305,-0.16
2021-08-01 00:42:49.640,-1.185,-0.475
2021-08-01 00:42:49.644,-1.05,-0.62
2021-08-01 00:42:49.648,-0.885,-0.64
2021-08-01 00:42:49.652,-0.73,-0.635
2021-08-01 00:42:49.656,-0.575,-0.645
2021-08-01 00:42:49.660,-0.395,-0.635
2021-08-01 00:42:49.664,-0.215,-0.6
2021-08-01 00:42:49.668,-0.055,-0.58
2021-08-01 00:42:49.672,0.08,-0.61
2021-08-01 00:42:49.676,0.175,-0.615
2021-08-01 00:42:49.680,0.205,-0.61
2021-08-01 00:42:49.684,0.245,-0.625
2021-08-01 00:42:49.688,0.295,-0.625
2021-08-01 00:42:49.692,0.315,-0.65
2021-08-01 00:42:49.696,0.325,-0.645
2021-08-01 00:42:49.700,0.34,-0.615
2021-08-01 00:42:49.704,0.33,-0.61
2021-08-01 00:42:49.708,0.36,-0.63
2021-08-01 00:42:49.712,0.38,-0.63
2021-08-01 00:42:49.716,0.4,-0.63
2021-08-01 00:42:49.720,0.41,-0.615
2021-08-01 00:42:49.724,0.405,-0.625
2021-08-01 00:42:49.728,0.405,-0.635
2021-08-01 00:42:49.732,0.41,-0.635
2021-08-01 00:42:49.736,0.425,-0.635
2021-08-01 00:42:49.740,0.46,-0.64
2021-08-01 00:42:49.744,0.465,-0.65
2021-08-01 00:42:49.748,0.475,-0.635
2021-08-01 00:42:49.752,0.49,-0.65
2021-08-01 00:42:49.756,0.52,-0.665
2021-08-01 00:42:49.760,0.525,-0.675
2021-08-01 00:42:49.764,0.535,-0.67
2021-08-01 00:42:49.768,0.575,-0.69
2021-08-01 00:42:49.772,0.575,-0.705
2021-08-01 00:42:49.776,0.6,-0.71
2021-08-01 00:42:49.780,0.62,-0.725
2021-08-01 00:42:49.784,0.635,-0.735
2021-08-01 00:42:49.788,0.645,-0.775
2021-08-01 00:42:49.792,0.685,-0.79
2021-08-01 00:42:49.796,0.695,-0.785
2021-08-01 00:42:49.800,0.705,-0.775
2021-08-01 00:42:49.804,0.73,-0.785
2021-08-01 00:42:49.808,0.73,-0.78
2021-08-01 00:42:49.812,0.75,-0.77
2021-08-01 00:42:49.816,0.745,-0.745
2021-08-01 00:42:49.820,0.73,-0.735
2021-08-01 00:42:49.824,0.745,-0.735
2021-08-01 00:42:49.828,0.75,-0.685
2021-08-01 00:42:49.832,0.7,-0.64
2021-08-01 00:42:49.836,0.7,-0.61
2021-08-01 00:42:49.840,0.68,-0.56
2021-08-01 00:42:49.844,0.675,-0.51
2021-08-01 00:42:49.848,0.64,-0.435
2021-08-01 00:42:49.852,0.59,-0.42
2021-08-01 00:42:49.856,0.565,-0.365
2021-08-01 00:42:49.860,0.52,-0.325
2021-08-01 00:42:49.864,0.48,-0.285
2021-08-01 00:42:49.868,0.43,-0.25
2021-08-01 00:42:49.872,0.385,-0.26
2021-08-01 00:42:49.876,0.315,-0.235
2021-08-01 00:42:49.880,0.285,-0.19
2021-08-01 00:42:49.884,0.235,-0.18
2021-08-01 00:42:49.888,0.195,-0.185
2021-08-01 00:42:49.892,0.15,-0.185
2021-08-01 00:42:49.896,0.145,-0.2
2021-08-01 00:42:49.900,0.08,-0.195
2021-08-01 00:42:49.904,0.05,-0.21
2021-08-01 00:42:49.908,0.015,-0.18
2021-08-01 00:42:49.912,0.015,-0.185
2021-08-01 00:42:49.916,0.005,-0.21
2021-08-01 00:42:49.920,-0.015,-0.24
2021-08-01 00:42:49.924,-0.03,-0.24
2021-08-01 00:42:49.928,-0.03,-0.23
2021-08-01 00:42:49.932,-0.045,-0.23
2021-08-01 00:42:49.936,-0.05,-0.25
2021-08-01 00:42:49.940,-0.075,-0.255
2021-08-01 00:42:49.944,-0.045,-0.24
2021-08-01 00:42:49.948,-0.055,-0.24
2021-08-01 00:42:49.952,-0.05,-0.25
2021-08-01 00:42:49.956,-0.05,-0.29
2021-08-01 00:42:49.960,-0.05,-0.27
2021-08-01 00:42:49.964,-0.06,-0.265
2021-08-01 00:42:49.968,-0.07,-0.27
2021-08-01 00:42:49.972,-0.06,-0.3
2021-08-01 00:42:49.976,-0.05,-0.305
2021-08-01 00:42:49.980,-0.02,-0.29
2021-08-01 00:42:49.984,-0.025,-0.305
2021-08-01 00:42:49.988,-0.03,-0.295
2021-08-01 00:42:49.992,-0.06,-0.3
2021-08-01 00:42:49.996,-0.045,-0.315
2021-08-01 00:42:50.000,-0.02,-0.345
2021-08-01 00:42:50.004,-0.03,-0.36
2021-08-01 00:42:50.008,-0.04,-0.345
2021-08-01 00:42:50.012,-0.035,-0.33
2021-08-01 00:42:50.016,-0.035,-0.355
2021-08-01 00:42:50.020,-0.04,-0.375
2021-08-01 00:42:50.024,-0.03,-0.35
2021-08-01 00:42:50.028,-0.03,-0.36
2021-08-01 00:42:50.032,-0.04,-0.385
2021-08-01 00:42:50.036,-0.025,-0.365
2021-08-01 00:42:50.040,-0.055,-0.365
2021-08-01 00:42:50.044,-0.05,-0.355
2021-08-01 00:42:50.048,-0.055,-0.36
2021-08-01 00:42:50.052,-0.05,-0.36
2021-08-01 00:42:50.056,-0.075,-0.345
2021-08-01 00:42:50.060,-0.075,-0.34
2021-08-01 00:42:50.064,-0.055,-0.35
2021-08-01 00:42:50.068,-0.085,-0.345
2021-08-01 00:42:50.072,-0.065,-0.31
2021-08-01 00:42:50.076,-0.095,-0.315
2021-08-01 00:42:50.080,-0.105,-0.35
2021-08-01 00:42:50.084,-0.11,-0.355
2021-08-01 00:42:50.088,-0.12,-0.335
2021-08-01 00:42:50.092,-0.13,-0.32
2021-08-01 00:42:50.096,-0.1,-0.32
2021-08-01 00:42:50.100,-0.115,-0.33
2021-08-01 00:42:50.104,-0.11,-0.3
2021-08-01 00:42:50.108,-0.1,-0.305
2021-08-01 00:42:50.112,-0.125,-0.29
2021-08-01 00:42:50.116,-0.15,-0.305
2021-08-01 00:42:50.120,-0.17,-0.295
2021-08-01 00:42:50.124,-0.175,-0.3
2021-08-01 00:42:50.128,-0.155,-0.31
2021-08-01 00:42:50.132,-0.15,-0.31
2021-08-01 00:42:50.136,-0.15,-0.31
2021-08-01 00:42:50.140,-0.145,-0.295
2021-08-01 00:42:50.144,-0.16,-0.28
2021-08-01 00:42:50.148,-0.185,-0.285
2021-08-01 00:42:50.152,-0.195,-0.295
2021-08-01 00:42:50.156,-0.155,-0.28
2021-08-01 00:42:50.160,-0.16,-0.27
2021-08-01 00:42:50.164,-0.14,-0.285
2021-08-01 00:42:50.168,-0.15,-0.285
2021-08-01 00:42:50.172,-0.175,-0.28
2021-08-01 00:42:50.176,-0.16,-0.31
2021-08-01 00:42:50.180,-0.18,-0.3
2021-08-01 00:42:50.184,-0.16,-0.29
2021-08-01 00:42:50.188,-0.185,-0.295
2021-08-01 00:42:50.192,-0.18,-0.285
2021-08-01 00:42:50.196,-0.17,-0.285
2021-08-01 00:42:50.200,-0.185,-0.295
2021-08-01 00:42:50.204,-0.175,-0.285
2021-08-01 00:42:50.208,-0.155,-0.27
2021-08-01 00:42:50.212,-0.155,-0.265
2021-08-01 00:42:50.216,-0.17,-0.275
2021-08-01 00:42:50.220,-0.185,-0.255
2021-08-01 00:42:50.224,-0.185,-0.275
2021-08-01 00:42:50.228,-0.175,-0.305
2021-08-01 00:42:50.232,-0.185,-0.29
2021-08-01 00:42:50.236,-0.2,-0.26
2021-08-01 00:42:50.240,-0.155,-0.26
2021-08-01 00:42:50.244,-0.175,-0.29
2021-08-01 00:42:50.248,-0.18,-0.285
2021-08-01 00:42:50.252,-0.175,-0.265
2021-08-01 00:42:50.256,-0.195,-0.24
2021-08-01 00:42:50.260,-0.175,-0.26
2021-08-01 00:42:50.264,-0.175,-0.28
2021-08-01 00:42:50.268,-0.21,-0.23
2021-08-01 00:42:50.272,-0.195,-0.26
2021-08-01 00:42:50.276,-0.185,-0.265
2021-08-01 00:42:50.280,-0.195,-0.25
2021-08-01 00:42:50.284,-0.205,-0.255
2021-08-01 00:42:50.288,-0.185,-0.245
2021-08-01 00:42:50.292,-0.19,-0.27
2021-08-01 00:42:50.296,-0.19,-0.265
2021-08-01 00:42:50.300,-0.19,-0.255
2021-08-01 00:42:50.304,-0.215,-0.25
2021-08-01 00:42:50.308,-0.17,-0.23
2021-08-01 00:42:50.312,-0.21,-0.255
2021-08-01 00:42:50.316,-0.175,-0.24
2021-08-01 00:42:50.320,-0.195,-0.255
2021-08-01 00:42:50.324,-0.2,-0.26
2021-08-01 00:42:50.328,-0.185,-0.28
2021-08-01 00:42:50.332,-0.2,-0.27
2021-08-01 00:42:50.336,-0.19,-0.275
2021-08-01 00:42:50.340,-0.19,-0.285
2021-08-01 00:42:50.344,-0.195,-0.285
2021-08-01 00:42:50.348,-0.2,-0.28
2021-08-01 00:42:50.352,-0.21,-0.275
2021-08-01 00:42:50.356,-0.185,-0.265
2021-08-01 00:42:50.360,-0.2,-0.275
2021-08-01 00:42:50.364,-0.2,-0.28
2021-08-01 00:42:50.368,-0.195,-0.29
2021-08-01 00:42:50.372,-0.195,-0.27
2021-08-01 00:42:50.376,-0.19,-0.29
2021-08-01 00:42:50.380,-0.185,-0.255
2021-08-01 00:42:50.384,-0.19,-0.25
2021-08-01 00:42:50.388,-0.2,-0.28
2021-08-01 00:42:50.392,-0.2,-0.285
2021-08-01 00:42:50.396,-0.2,-0.275
2021-08-01 00:42:50.400,-0.19,-0.285
2021-08-01 00:42:50.404,-0.19,-0.265
2021-08-01 00:42:50.408,-0.18,-0.275
2021-08-01 00:42:50.412,-0.175,-0.24
2021-08-01 00:42:50.416,-0.195,-0.255
2021-08-01 00:42:50.420,-0.195,-0.24
2021-08-01 00:42:50.424,-0.195,-0.245
2021-08-01 00:42:50.428,-0.2,-0.245
2021-08-01 00:42:50.432,-0.18,-0.245
2021-08-01 00:42:50.436,-0.195,-0.235
2021-08-01 00:42:50.440,-0.185,-0.215
2021-08-01 00:42:50.444,-0.18,-0.225
2021-08-01 00:42:50.448,-0.125,-0.245
2021-08-01 00:42:50.452,-0.14,-0.265
2021-08-01 00:42:50.456,-0.145,-0.24
2021-08-01 00:42:50.460,-0.175,-0.245
2021-08-01 00:42:50.464,-0.205,-0.255
2021-08-01 00:42:50.468,-0.225,-0.295
2021-08-01 00:42:50.472,-0.255,-0.315
2021-08-01 00:42:50.476,-0.265,-0.34
2021-08-01 00:42:50.480,-0.25,-0.35
2021-08-01 00:42:50.484,-0.25,-0.35
2021-08-01 00:42:50.488,-0.27,-0.34
2021-08-01 00:42:50.492,-0.29,-0.33
2021-08-01 00:42:50.496,-0.315,-0.315
2021-08-01 00:42:50.500,-0.29,-0.315
2021-08-01 00:42:50.504,-0.23,-0.325
2021-08-01 00:42:50.508,-0.235,-0.345
2021-08-01 00:42:50.512,-0.23,-0.37
2021-08-01 00:42:50.516,-0.22,-0.345
2021-08-01 00:42:50.520,-0.24,-0.33
2021-08-01 00:42:50.524,-0.215,-0.335
2021-08-01 00:42:50.528,-0.22,-0.335
2021-08-01 00:42:50.532,-0.225,-0.36
2021-08-01 00:42:50.536,-0.215,-0.35
2021-08-01 00:42:50.540,-0.23,-0.355
2021-08-01 00:42:50.544,-0.23,-0.335
2021-08-01 00:42:50.548,-0.225,-0.355
2021-08-01 00:42:50.552,-0.23,-0.33
2021-08-01 00:42:50.556,-0.215,-0.3
2021-08-01 00:42:50.560,-0.255,-0.285
2021-08-01 00:42:50.564,-0.22,-0.25
2021-08-01 00:42:50.568,-0.2,-0.215
2021-08-01 00:42:50.572,-0.21,-0.12
2021-08-01 00:42:50.576,-0.21,0.03
2021-08-01 00:42:50.580,-0.15,0.335
2021-08-01 00:42:50.584,-0.1,0.665
2021-08-01 00:42:50.588,-0.115,0.885
2021-08-01 00:42:50.592,-0.31,1.065
2021-08-01 00:42:50.596,-0.67,1.28
2021-08-01 00:42:50.600,-1.225,1.55
2021-08-01 00:42:50.604,-1.88,1.75
2021-08-01 00:42:50.644,-1.995,1.745
2021-08-01 00:42:50.648,-1.885,1.825
2021-08-01 00:42:50.652,-1.745,1.74
2021-08-01 00:42:50.656,-1.65,1.365
2021-08-01 00:42:50.660,-1.495,0.735
2021-08-01 00:42:50.664,-1.415,0.155
2021-08-01 00:42:50.668,-1.285,-0.24
2021-08-01 00:42:50.672,-1.155,-0.49
2021-08-01 00:42:50.676,-1.01,-0.585
2021-08-01 00:42:50.680,-0.87,-0.595
2021-08-01 00:42:50.684,-0.685,-0.61
2021-08-01 00:42:50.688,-0.505,-0.585
2021-08-01 00:42:50.692,-0.32,-0.575
2021-08-01 00:42:50.696,-0.15,-0.565
2021-08-01 00:42:50.700,0.005,-0.545
2021-08-01 00:42:50.704,0.1,-0.565
2021-08-01 00:42:50.708,0.19,-0.575
2021-08-01 00:42:50.712,0.235,-0.575
2021-08-01 00:42:50.716,0.26,-0.565
2021-08-01 00:42:50.720,0.28,-0.555
2021-08-01 00:42:50.724,0.31,-0.545
2021-08-01 00:42:50.728,0.34,-0.57
2021-08-01 00:42:50.732,0.355,-0.57
2021-08-01 00:42:50.736,0.36,-0.56
2021-08-01 00:42:50.740,0.38,-0.57
2021-08-01 00:42:50.744,0.41,-0.555
2021-08-01 00:42:50.748,0.41,-0.55
2021-08-01 00:42:50.752,0.405,-0.57
2021-08-01 00:42:50.756,0.43,-0.58
2021-08-01 00:42:50.760,0.43,-0.56
2021-08-01 00:42:50.764,0.445,-0.56
2021-08-01 00:42:50.768,0.47,-0.565
2021-08-01 00:42:50.772,0.485,-0.565
2021-08-01 00:42:50.776,0.485,-0.565
2021-08-01 00:42:50.780,0.525,-0.57
2021-08-01 00:42:50.784,0.54,-0.595
2021-08-01 00:42:50.788,0.56,-0.605
2021-08-01 00:42:50.792,0.57,-0.6
2021-08-01 00:42:50.796,0.59,-0.61
2021-08-01 00:42:50.800,0.605,-0.62
2021-08-01 00:42:50.804,0.635,-0.625
2021-08-01 00:42:50.808,0.65,-0.635
2021-08-01 00:42:50.812,0.67,-0.66
2021-08-01 00:42:50.816,0.695,-0.645
2021-08-01 00:42:50.820,0.69,-0.675
2021-08-01 00:42:50.824,0.75,-0.65
2021-08-01 00:42:50.828,0.785,-0.65
2021-08-01 00:42:50.832,0.785,-0.67
2021-08-01 00:42:50.836,0.78,-0.68
2021-08-01 00:42:50.840,0.805,-0.66
2021-08-01 00:42:50.844,0.83,-0.65
2021-08-01 00:42:50.848,0.81,-0.62
2021-08-01 00:42:50.852,0.785,-0.615
2021-08-01 00:42:50.856,0.795,-0.6
2021-08-01 00:42:50.860,0.805,-0.535
2021-08-01 00:42:50.864,0.77,-0.48
2021-08-01 00:42:50.868,0.73,-0.47
2021-08-01 00:42:50.872,0.695,-0.42
2021-08-01 00:42:50.876,0.63,-0.37
2021-08-01 00:42:50.880,0.61,-0.34
2021-08-01 00:42:50.884,0.55,-0.305
2021-08-01 00:42:50.888,0.51,-0.25
2021-08-01 00:42:50.892,0.45,-0.225
2021-08-01 00:42:50.896,0.39,-0.18
2021-08-01 00:42:50.900,0.355,-0.17
2021-08-01 00:42:50.904,0.295,-0.145
2021-08-01 00:42:50.908,0.235,-0.14
2021-08-01 00:42:50.912,0.195,-0.12
2021-08-01 00:42:50.916,0.195,-0.13
2021-08-01 00:42:50.920,0.145,-0.16
2021-08-01 00:42:50.924,0.075,-0.135
2021-08-01 00:42:50.928,0.02,-0.15
2021-08-01 00:42:50.932,0.04,-0.165
2021-08-01 00:42:50.936,-0.015,-0.175
2021-08-01 00:42:50.940,-0.015,-0.17
2021-08-01 00:42:50.944,-0.055,-0.16
2021-08-01 00:42:50.948,-0.08,-0.18
2021-08-01 00:42:50.952,-0.05,-0.195
2021-08-01 00:42:50.956,-0.07,-0.17
2021-08-01 00:42:50.960,-0.09,-0.205
2021-08-01 00:42:50.964,-0.07,-0.235
2021-08-01 00:42:50.968,-0.1,-0.22
2021-08-01 00:42:50.972,-0.095,-0.225
2021-08-01 00:42:50.976,-0.09,-0.25
2021-08-01 00:42:50.980,-0.095,-0.24
2021-08-01 00:42:50.984,-0.095,-0.225
2021-08-01 00:42:50.988,-0.08,-0.24
2021-08-01 00:42:50.992,-0.075,-0.255
2021-08-01 00:42:50.996,-0.085,-0.265
2021-08-01 00:42:51.000,-0.105,-0.265
2021-08-01 00:42:51.004,-0.075,-0.255
2021-08-01 00:42:51.008,-0.085,-0.265
2021-08-01 00:42:51.012,-0.085,-0.3
2021-08-01 00:42:51.016,-0.09,-0.3
2021-08-01 00:42:51.020,-0.095,-0.275
2021-08-01 00:42:51.024,-0.095,-0.3
2021-08-01 00:42:51.028,-0.095,-0.32
2021-08-01 00:42:51.032,-0.105,-0.33
2021-08-01 00:42:51.036,-0.105,-0.31
2021-08-01 00:42:51.040,-0.09,-0.32
2021-08-01 00:42:51.044,-0.085,-0.335
2021-08-01 00:42:51.048,-0.09,-0.33
2021-08-01 00:42:51.052,-0.08,-0.32
2021-08-01 00:42:51.056,-0.09,-0.335
2021-08-01 00:42:51.060,-0.08,-0.345
2021-08-01 00:42:51.064,-0.075,-0.33
2021-08-01 00:42:51.068,-0.06,-0.33
2021-08-01 00:42:51.072,-0.085,-0.325
2021-08-01 00:42:51.076,-0.075,-0.34
2021-08-01 00:42:51.080,-0.09,-0.32
2021-08-01 00:42:51.084,-0.085,-0.32
2021-08-01 00:42:51.088,-0.095,-0.335
2021-08-01 00:42:51.092,-0.095,-0.33
2021-08-01 00:42:51.096,-0.09,-0.31
2021-08-01 00:42:51.100,-0.1,-0.29
2021-08-01 00:42:51.104,-0.125,-0.295
2021-08-01 00:42:51.108,-0.125,-0.315
2021-08-01 00:42:51.112,-0.115,-0.29
2021-08-01 00:42:51.116,-0.12,-0.285
2021-08-01 00:42:51.120,-0.135,-0.29
2021-08-01 00:42:51.124,-0.15,-0.29
2021-08-01 00:42:51.128,-0.14,-0.275
2021-08-01 00:42:51.132,-0.125,-0.255
2021-08-01 00:42:51.136,-0.155,-0.27
2021-08-01 00:42:51.140,-0.125,-0.27
2021-08-01 00:42:51.144,-0.15,-0.27
2021-08-01 00:42:51.148,-0.17,-0.255
2021-08-01 00:42:51.152,-0.16,-0.245
2021-08-01 00:42:51.156,-0.145,-0.27
2021-08-01 00:42:51.160,-0.175,-0.28
2021-08-01 00:42:51.164,-0.185,-0.26
2021-08-01 00:42:51.168,-0.2,-0.26
2021-08-01 00:42:51.172,-0.18,-0.265
2021-08-01 00:42:51.176,-0.175,-0.25
2021-08-01 00:42:51.180,-0.175,-0.215
2021-08-01 00:42:51.184,-0.19,-0.235
2021-08-01 00:42:51.188,-0.16,-0.24
2021-08-01 00:42:51.192,-0.175,-0.23
2021-08-01 00:42:51.196,-0.195,-0.235
2021-08-01 00:42:51.200,-0.2,-0.235
2021-08-01 00:42:51.204,-0.2,-0.23
2021-08-01 00:42:51.208,-0.19,-0.225
2021-08-01 00:42:51.212,-0.165,-0.22
2021-08-01 00:42:51.216,-0.185,-0.2
2021-08-01 00:42:51.220,-0.19,-0.2
2021-08-01 00:42:51.224,-0.2,-0.205
2021-08-01 00:42:51.228,-0.205,-0.2
2021-08-01 00:42:51.232,-0.2,-0.245
2021-08-01 00:42:51.236,-0.17,-0.25
2021-08-01 00:42:51.240,-0.19,-0.23
2021-08-01 00:42:51.244,-0.2,-0.225
2021-08-01 00:42:51.248,-0.21,-0.205
2021-08-01 00:42:51.252,-0.205,-0.22
2021-08-01 00:42:51.256,-0.195,-0.21
2021-08-01 00:42:51.260,-0.175,-0.195
2021-08-01 00:42:51.264,-0.2,-0.195
2021-08-01 00:42:51.268,-0.215,-0.21
2021-08-01 00:42:51.272,-0.2,-0.21
2021-08-01 00:42:51.276,-0.22,-0.21
2021-08-01 00:42:51.280,-0.2,-0.21
2021-08-01 00:42:51.284,-0.23,-0.225
2021-08-01 00:42:51.288,-0.23,-0.215
2021-08-01 00:42:51.292,-0.21,-0.205
2021-08-01 00:42:51.296,-0.19,-0.225
2021-08-01 00:42:51.300,-0.225,-0.235
2021-08-01 00:42:51.304,-0.215,-0.22
2021-08-01 00:42:51.308,-0.21,-0.215
2021-08-01 00:42:51.312,-0.225,-0.215
2021-08-01 00:42:51.316,-0.205,-0.225
2021-08-01 00:42:51.320,-0.23,-0.225
2021-08-01 00:42:51.324,-0.24,-0.22
2021-08-01 00:42:51.328,-0.25,-0.215
2021-08-01 00:42:51.332,-0.24,-0.22
2021-08-01 00:42:51.336,-0.215,-0.2
2021-08-01 00:42:51.340,-0.2,-0.2
2021-08-01 00:42:51.344,-0.255,-0.24
2021-08-01 00:42:51.348,-0.255,-0.24
2021-08-01 00:42:51.352,-0.24,-0.245
2021-08-01 00:42:51.356,-0.235,-0.23
2021-08-01 00:42:51.360,-0.25,-0.245
2021-08-01 00:42:51.364,-0.235,-0.235
2021-08-01 00:42:51.368,-0.225,-0.23
2021-08-01 00:42:51.372,-0.225,-0.215
2021-08-01 00:42:51.376,-0.235,-0.22
2021-08-01 00:42:51.380,-0.235,-0.225
2021-08-01 00:42:51.384,-0.25,-0.22
2021-08-01 00:42:51.388,-0.255,-0.215
2021-08-01 00:42:51.392,-0.24,-0.245
2021-08-01 00:42:51.396,-0.23,-0.26
2021-08-01 00:42:51.400,-0.23,-0.23
2021-08-01 00:42:51.404,-0.245,-0.215
2021-08-01 00:42:51.408,-0.245,-0.215
2021-08-01 00:42:51.412,-0.27,-0.25
2021-08-01 00:42:51.416,-0.265,-0.235
2021-08-01 00:42:51.420,-0.245,-0.225
2021-08-01 00:42:51.424,-0.27,-0.215
2021-08-01 00:42:51.428,-0.275,-0.225
2021-08-01 00:42:51.432,-0.245,-0.22
2021-08-01 00:42:51.436,-0.25,-0.23
2021-08-01 00:42:51.440,-0.26,-0.245
2021-08-01 00:42:51.444,-0.255,-0.26
2021-08-01 00:42:51.448,-0.26,-0.25
2021-08-01 00:42:51.452,-0.245,-0.225
2021-08-01 00:42:51.456,-0.265,-0.24
2021-08-01 00:42:51.460,-0.27,-0.255
2021-08-01 00:42:51.464,-0.27,-0.215
2021-08-01 00:42:51.468,-0.245,-0.22
2021-08-01 00:42:51.472,-0.275,-0.255
2021-08-01 00:42:51.476,-0.25,-0.265
2021-08-01 00:42:51.480,-0.28,-0.25
2021-08-01 00:42:51.484,-0.27,-0.24
2021-08-01 00:42:51.488,-0.27,-0.235
2021-08-01 00:42:51.492,-0.27,-0.245
2021-08-01 00:42:51.496,-0.26,-0.245
2021-08-01 00:42:51.500,-0.285,-0.205
2021-08-01 00:42:51.504,-0.29,-0.245
2021-08-01 00:42:51.508,-0.28,-0.26
2021-08-01 00:42:51.512,-0.29,-0.24
2021-08-01 00:42:51.516,-0.285,-0.24
2021-08-01 00:42:51.520,-0.265,-0.24
2021-08-01 00:42:51.524,-0.285,-0.28
2021-08-01 00:42:51.528,-0.275,-0.25
2021-08-01 00:42:51.532,-0.27,-0.25
2021-08-01 00:42:51.536,-0.26,-0.25
2021-08-01 00:42:51.540,-0.28,-0.26
2021-08-01 00:42:51.544,-0.28,-0.24
2021-08-01 00:42:51.548,-0.245,-0.22
2021-08-01 00:42:51.552,-0.27,-0.25
2021-08-01 00:42:51.556,-0.27,-0.255
2021-08-01 00:42:51.560,-0.27,-0.235
2021-08-01 00:42:51.564,-0.265,-0.21
2021-08-01 00:42:51.568,-0.28,-0.235
2021-08-01 00:42:51.572,-0.285,-0.27
2021-08-01 00:42:51.576,-0.285,-0.24
2021-08-01 00:42:51.580,-0.295,-0.235
2021-08-01 00:42:51.584,-0.285,-0.225
2021-08-01 00:42:51.588,-0.305,-0.25
2021-08-01 00:42:51.592,-0.31,-0.22
2021-08-01 00:42:51.596,-0.305,-0.21
2021-08-01 00:42:51.600,-0.31,-0.25
2021-08-01 00:42:51.604,-0.3,-0.255
2021-08-01 00:42:51.608,-0.295,-0.255
2021-08-01 00:42:51.612,-0.3,-0.25
2021-08-01 00:42:51.616,-0.305,-0.245
2021-08-01 00:42:51.620,-0.305,-0.24
2021-08-01 00:42:51.624,-0.295,-0.225
2021-08-01 00:42:51.628,-0.31,-0.225
2021-08-01 00:42:51.632,-0.295,-0.22
2021-08-01 00:42:51.636,-0.28,-0.215
2021-08-01 00:42:51.640,-0.285,-0.22
2021-08-01 00:42:51.644,-0.275,-0.18
2021-08-01 00:42:51.648,-0.265,-0.2
2021-08-01 00:42:51.652,-0.265,-0.225
2021-08-01 00:42:51.656,-0.24,-0.2
2021-08-01 00:42:51.660,-0.195,-0.2
2021-08-01 00:42:51.664,-0.19,-0.205
2021-08-01 00:42:51.668,-0.2,-0.205
2021-08-01 00:42:51.672,-0.24,-0.2
2021-08-01 00:42:51.676,-0.28,-0.215
2021-08-01 00:42:51.680,-0.305,-0.235
2021-08-01 00:42:51.684,-0.31,-0.225
2021-08-01 00:42:51.688,-0.31,-0.175
2021-08-01 00:42:51.692,-0.33,-0.095
2021-08-01 00:42:51.696,-0.295,0.06
2021-08-01 00:42:51.700,-0.29,-0.01
2021-08-01 00:42:51.704,-0.26,-0.16
2021-08-01 00:42:51.708,-0.25,-0.1
2021-08-01 00:42:51.712,-0.24,0.19
2021-08-01 00:42:51.716,-0.305,0.365
2021-08-01 00:42:51.720,-0.39,0.005
2021-08-01 00:42:51.724,-0.465,-0.865
2021-08-01 00:42:51.728,-0.485,-1.53
2021-08-01 00:42:51.732,-0.455,-1.53
2021-08-01 00:42:51.736,-0.415,-1.22
2021-08-01 00:42:51.740,-0.365,-1.115
2021-08-01 00:42:51.744,-0.41,-1.135
2021-08-01 00:42:51.748,-0.475,-0.965
2021-08-01 00:42:51.752,-0.565,-0.71
2021-08-01 00:42:51.756,-0.64,-0.53
2021-08-01 00:42:51.760,-0.7,-0.45
2021-08-01 00:42:51.764,-0.755,-0.41
2021-08-01 00:42:51.768,-0.71,-0.395
2021-08-01 00:42:51.772,-0.52,-0.365
2021-08-01 00:42:51.776,-0.36,-0.385
2021-08-01 00:42:51.780,-0.315,-0.365
2021-08-01 00:42:51.784,-0.305,-0.37
2021-08-01 00:42:51.788,-0.3,-0.335
2021-08-01 00:42:51.792,-0.28,-0.335
2021-08-01 00:42:51.796,-0.26,-0.325
2021-08-01 00:42:51.800,-0.245,-0.31
2021-08-01 00:42:51.804,-0.25,-0.275
2021-08-01 00:42:51.808,-0.255,-0.295
2021-08-01 00:42:51.812,-0.25,-0.295
2021-08-01 00:42:51.816,-0.28,-0.265
2021-08-01 00:42:51.820,-0.225,-0.25
2021-08-01 00:42:51.824,-0.23,-0.245
2021-08-01 00:42:51.828,-0.225,-0.255
2021-08-01 00:42:51.832,-0.255,-0.22
2021-08-01 00:42:51.836,-0.22,-0.2
2021-08-01 00:42:51.840,-0.195,-0.185
2021-08-01 00:42:51.844,-0.2,-0.195
2021-08-01 00:42:51.848,-0.21,-0.185
2021-08-01 00:42:51.852,-0.2,-0.175
2021-08-01 00:42:51.856,-0.2,-0.155
2021-08-01 00:42:51.860,-0.2,-0.155
2021-08-01 00:42:51.864,-0.21,-0.135
2021-08-01 00:42:51.868,-0.21,-0.13
2021-08-01 00:42:51.872,-0.205,-0.09
2021-08-01 00:42:51.876,-0.205,-0.09
2021-08-01 00:42:51.880,-0.19,-0.09
2021-08-01 00:42:51.884,-0.185,-0.065
2021-08-01 00:42:51.888,-0.185,-0.035
2021-08-01 00:42:51.892,-0.175,-0.07
2021-08-01 00:42:51.896,-0.195,-0.05
2021-08-01 00:42:51.900,-0.195,-0.015
2021-08-01 00:42:51.904,-0.195,0.0
2021-08-01 00:42:51.908,-0.195,0.005
2021-08-01 00:42:51.912,-0.175,0.005
2021-08-01 00:42:51.916,-0.185,0.045
2021-08-01 00:42:51.920,-0.21,0.055
2021-08-01 00:42:51.924,-0.17,0.05
2021-08-01 00:42:51.928,-0.19,0.075
2021-08-01 00:42:51.932,-0.2,0.125
2021-08-01 00:42:51.936,-0.21,0.145
2021-08-01 00:42:51.940,-0.215,0.165
2021-08-01 00:42:51.944,-0.22,0.18
2021-08-01 00:42:51.948,-0.235,0.23
2021-08-01 00:42:51.952,-0.22,0.22
2021-08-01 00:42:51.956,-0.23,0.215
2021-08-01 00:42:51.960,-0.24,0.215
2021-08-01 00:42:51.964,-0.25,0.25
2021-08-01 00:42:51.968,-0.24,0.255
2021-08-01 00:42:51.972,-0.245,0.245
2021-08-01 00:42:51.976,-0.28,0.205
2021-08-01 00:42:51.980,-0.265,0.19
2021-08-01 00:42:51.984,-0.27,0.14
2021-08-01 00:42:51.988,-0.25,0.105
2021-08-01 00:42:51.992,-0.27,0.06
2021-08-01 00:42:51.996,-0.27,0.035
2021-08-01 00:42:52.000,-0.245,0.04
2021-08-01 00:42:52.004,-0.225,0.015
2021-08-01 00:42:52.008,-0.23,-0.025
2021-08-01 00:42:52.012,-0.21,-0.07
2021-08-01 00:42:52.016,-0.18,-0.09
2021-08-01 00:42:52.020,-0.2,-0.125
2021-08-01 00:42:52.024,-0.17,-0.125
2021-08-01 00:42:52.028,-0.185,-0.15
2021-08-01 00:42:52.032,-0.185,-0.14
2021-08-01 00:42:52.036,-0.2,-0.175
2021-08-01 00:42:52.040,-0.195,-0.18
2021-08-01 00:42:52.044,-0.19,-0.175
2021-08-01 00:42:52.048,-0.2,-0.195
2021-08-01 00:42:52.052,-0.19,-0.17
2021-08-01 00:42:52.056,-0.17,-0.205
2021-08-01 00:42:52.060,-0.16,-0.23
2021-08-01 00:42:52.064,-0.145,-0.23
2021-08-01 00:42:52.068,-0.16,-0.22
2021-08-01 00:42:52.072,-0.165,-0.215
2021-08-01 00:42:52.076,-0.19,-0.24
2021-08-01 00:42:52.080,-0.14,-0.24
2021-08-01 00:42:52.084,-0.145,-0.225
2021-08-01 00:42:52.088,-0.15,-0.235
2021-08-01 00:42:52.092,-0.16,-0.225
2021-08-01 00:42:52.096,-0.175,-0.24
2021-08-01 00:42:52.100,-0.18,-0.23
2021-08-01 00:42:52.104,-0.18,-0.27
2021-08-01 00:42:52.108,-0.18,-0.295
2021-08-01 00:42:52.112,-0.16,-0.26
2021-08-01 00:42:52.116,-0.165,-0.26
2021-08-01 00:42:52.120,-0.16,-0.275
2021-08-01 00:42:52.124,-0.15,-0.295
2021-08-01 00:42:52.128,-0.155,-0.275
2021-08-01 00:42:52.132,-0.17,-0.265
2021-08-01 00:42:52.136,-0.2,-0.295
2021-08-01 00:42:52.140,-0.185,-0.31
2021-08-01 00:42:52.144,-0.19,-0.29
2021-08-01 00:42:52.148,-0.205,-0.28
2021-08-01 00:42:52.152,-0.185,-0.285
2021-08-01 00:42:52.156,-0.2,-0.29
2021-08-01 00:42:52.160,-0.2,-0.3
2021-08-01 00:42:52.164,-0.185,-0.305
2021-08-01 00:42:52.168,-0.2,-0.3
2021-08-01 00:42:52.172,-0.18,-0.31
2021-08-01 00:42:52.176,-0.205,-0.305
2021-08-01 00:42:52.180,-0.22,-0.285
2021-08-01 00:42:52.184,-0.19,-0.275
2021-08-01 00:42:52.188,-0.2,-0.28
2021-08-01 00:42:52.192,-0.2,-0.285
2021-08-01 00:42:52.196,-0.205,-0.28
2021-08-01 00:42:52.200,-0.2,-0.29
2021-08-01 00:42:52.204,-0.21,-0.295
2021-08-01 00:42:52.208,-0.2,-0.3
2021-08-01 00:42:52.212,-0.2,-0.295
2021-08-01 00:42:52.216,-0.205,-0.28
2021-08-01 00:42:52.220,-0.21,-0.28
2021-08-01 00:42:52.224,-0.225,-0.29
2021-08-01 00:42:52.228,-0.235,-0.285
2021-08-01 00:42:52.232,-0.195,-0.285
2021-08-01 00:42:52.236,-0.205,-0.3
2021-08-01 00:42:52.240,-0.225,-0.305
2021-08-01 00:42:52.244,-0.21,-0.275
2021-08-01 00:42:52.248,-0.2,-0.28
2021-08-01 00:42:52.252,-0.21,-0.29
2021-08-01 00:42:52.256,-0.2,-0.27
2021-08-01 00:42:52.260,-0.19,-0.285
2021-08-01 00:42:52.264,-0.185,-0.275
2021-08-01 00:42:52.268,-0.22,-0.285
2021-08-01 00:42:52.272,-0.215,-0.3
2021-08-01 00:42:52.276,-0.195,-0.3
2021-08-01 00:42:52.280,-0.195,-0.28
2021-08-01 00:42:52.284,-0.2,-0.285
2021-08-01 00:42:52.288,-0.195,-0.275
2021-08-01 00:42:52.292,-0.205,-0.28
2021-08-01 00:42:52.296,-0.185,-0.28
2021-08-01 00:42:52.300,-0.2,-0.285
2021-08-01 00:42:52.304,-0.195,-0.29
2021-08-01 00:42:52.308,-0.21,-0.285
2021-08-01 00:42:52.312,-0.21,-0.26
2021-08-01 00:42:52.316,-0.215,-0.26
2021-08-01 00:42:52.320,-0.225,-0.28
2021-08-01 00:42:52.324,-0.22,-0.275
2021-08-01 00:42:52.328,-0.23,-0.27
2021-08-01 00:42:52.332,-0.21,-0.28
2021-08-01 00:42:52.336,-0.225,-0.28
2021-08-01 00:42:52.340,-0.19,-0.26
2021-08-01 00:42:52.344,-0.2,-0.28
2021-08-01 00:42:52.348,-0.22,-0.275
2021-08-01 00:42:52.352,-0.22,-0.285
2021-08-01 00:42:52.356,-0.225,-0.28
2021-08-01 00:42:52.360,-0.185,-0.26
2021-08-01 00:42:52.364,-0.195,-0.27
2021-08-01 00:42:52.368,-0.18,-0.295
2021-08-01 00:42:52.372,-0.18,-0.295
2021-08-01 00:42:52.376,-0.19,-0.29
2021-08-01 00:42:52.380,-0.18,-0.28
2021-08-01 00:42:52.384,-0.195,-0.295
2021-08-01 00:42:52.388,-0.21,-0.28
2021-08-01 00:42:52.392,-0.22,-0.28
2021-08-01 00:42:52.396,-0.21,-0.27
2021-08-01 00:42:52.400,-0.19,-0.27
2021-08-01 00:42:52.404,-0.205,-0.285
2021-08-01 00:42:52.408,-0.19,-0.285
2021-08-01 00:42:52.412,-0.17,-0.265
2021-08-01 00:42:52.416,-0.165,-0.265
2021-08-01 00:42:52.420,-0.195,-0.285
2021-08-01 00:42:52.424,-0.18,-0.275
2021-08-01 00:42:52.428,-0.185,-0.275
2021-08-01 00:42:52.432,-0.18,-0.275
2021-08-01 00:42:52.436,-0.185,-0.255
2021-08-01 00:42:52.440,-0.195,-0.25
2021-08-01 00:42:52.444,-0.165,-0.275
2021-08-01 00:42:52.448,-0.15,-0.28
2021-08-01 00:42:52.452,-0.175,-0.27
2021-08-01 00:42:52.456,-0.175,-0.265
2021-08-01 00:42:52.460,-0.185,-0.26
2021-08-01 00:42:52.464,-0.185,-0.265
2021-08-01 00:42:52.468,-0.195,-0.29
2021-08-01 00:42:52.472,-0.175,-0.28
2021-08-01 00:42:52.476,-0.185,-0.265
2021-08-01 00:42:52.480,-0.15,-0.29
2021-08-01 00:42:52.484,-0.155,-0.295
2021-08-01 00:42:52.488,-0.165,-0.265
2021-08-01 00:42:52.492,-0.155,-0.275
2021-08-01 00:42:52.496,-0.16,-0.28
2021-08-01 00:42:52.500,-0.16,-0.285
2021-08-01 00:42:52.504,-0.145,-0.285
2021-08-01 00:42:52.508,-0.165,-0.265
2021-08-01 00:42:52.512,-0.145,-0.275
2021-08-01 00:42:52.516,-0.16,-0.265
2021-08-01 00:42:52.520,-0.17,-0.295
2021-08-01 00:42:52.524,-0.145,-0.29
2021-08-01 00:42:52.528,-0.165,-0.26
2021-08-01 00:42:52.532,-0.155,-0.26
2021-08-01 00:42:52.536,-0.17,-0.255
2021-08-01 00:42:52.540,-0.15,-0.275
2021-08-01 00:42:52.544,-0.155,-0.27
2021-08-01 00:42:52.548,-0.145,-0.275
2021-08-01 00:42:52.552,-0.135,-0.275
2021-08-01 00:42:52.556,-0.15,-0.27
2021-08-01 00:42:52.560,-0.135,-0.255
2021-08-01 00:42:52.564,-0.145,-0.255
2021-08-01 00:42:52.568,-0.145,-0.28
2021-08-01 00:42:52.572,-0.145,-0.265
2021-08-01 00:42:52.576,-0.165,-0.28
2021-08-01 00:42:52.580,-0.15,-0.275
2021-08-01 00:42:52.584,-0.125,-0.28
2021-08-01 00:42:52.588,-0.155,-0.28
2021-08-01 00:42:52.592,-0.155,-0.275
2021-08-01 00:42:52.596,-0.135,-0.275
2021-08-01 00:42:52.600,-0.135,-0.275
2021-08-01 00:42:52.604,-0.14,-0.26
2021-08-01 00:42:52.608,-0.14,-0.25
2021-08-01 00:42:52.612,-0.145,-0.275
2021-08-01 00:42:52.616,-0.135,-0.25
2021-08-01 00:42:52.620,-0.12,-0.24
2021-08-01 00:42:52.624,-0.135,-0.25
2021-08-01 00:42:52.628,-0.155,-0.25
2021-08-01 00:42:52.632,-0.135,-0.275
2021-08-01 00:42:52.636,-0.12,-0.275
2021-08-01 00:42:52.640,-0.125,-0.255
2021-08-01 00:42:52.644,-0.115,-0.25
2021-08-01 00:42:52.648,-0.155,-0.25
2021-08-01 00:42:52.652,-0.145,-0.26
2021-08-01 00:42:52.656,-0.13,-0.265
2021-08-01 00:42:52.660,-0.1,-0.27
2021-08-01 00:42:52.664,-0.145,-0.27
2021-08-01 00:42:52.668,-0.135,-0.265
2021-08-01 00:42:52.672,-0.13,-0.265
2021-08-01 00:42:52.676,-0.115,-0.26
2021-08-01 00:42:52.680,-0.105,-0.255
2021-08-01 00:42:52.684,-0.115,-0.265
2021-08-01 00:42:52.688,-0.115,-0.27
2021-08-01 00:42:52.692,-0.11,-0.275
2021-08-01 00:42:52.696,-0.115,-0.265
2021-08-01 00:42:52.700,-0.125,-0.26
2021-08-01 00:42:52.704,-0.13,-0.26
2021-08-01 00:42:52.708,-0.115,-0.275
2021-08-01 00:42:52.712,-0.12,-0.27
2021-08-01 00:42:52.716,-0.105,-0.255
2021-08-01 00:42:52.720,-0.145,-0.285
2021-08-01 00:42:52.724,-0.13,-0.285
2021-08-01 00:42:52.728,-0.14,-0.28
2021-08-01 00:42:52.732,-0.155,-0.28
2021-08-01 00:42:52.736,-0.135,-0.285
2021-08-01 00:42:52.740,-0.135,-0.265
2021-08-01 00:42:52.744,-0.14,-0.27
2021-08-01 00:42:52.748,-0.12,-0.26
2021-08-01 00:42:52.752,-0.14,-0.275
2021-08-01 00:42:52.756,-0.15,-0.265
2021-08-01 00:42:52.760,-0.135,-0.275
2021-08-01 00:42:52.764,-0.125,-0.26
2021-08-01 00:42:52.768,-0.155,-0.28
2021-08-01 00:42:52.772,-0.135,-0.275
2021-08-01 00:42:52.776,-0.145,-0.27
2021-08-01 00:42:52.780,-0.145,-0.26
2021-08-01 00:42:52.784,-0.125,-0.265
2021-08-01 00:42:52.788,-0.125,-0.24
2021-08-01 00:42:52.792,-0.105,-0.22
2021-08-01 00:42:52.796,-0.12,-0.175
2021-08-01 00:42:52.800,-0.15,-0.13
2021-08-01 00:42:52.804,-0.135,-0.04
2021-08-01 00:42:52.808,-0.09,0.035
2021-08-01 00:42:52.812,-0.035,0.015
2021-08-01 00:42:52.816,-0.015,-0.09
2021-08-01 00:42:52.820,-0.025,-0.14
2021-08-01 00:42:52.824,-0.015,0.095
2021-08-01 00:42:52.828,-0.07,0.44
2021-08-01 00:42:52.832,-0.175,0.525
2021-08-01 00:42:52.836,-0.24,0.0
2021-08-01 00:42:52.840,-0.285,-0.805
2021-08-01 00:42:52.844,-0.315,-1.265
2021-08-01 00:42:52.848,-0.25,-1.21
2021-08-01 00:42:52.852,-0.175,-1.04
2021-08-01 00:42:52.856,-0.165,-1.065
2021-08-01 00:42:52.860,-0.24,-0.98
2021-08-01 00:42:52.864,-0.34,-0.7
2021-08-01 00:42:52.868,-0.41,-0.47
2021-08-01 00:42:52.872,-0.4,-0.365
2021-08-01 00:42:52.876,-0.42,-0.32
2021-08-01 00:42:52.880,-0.455,-0.3
2021-08-01 00:42:52.884,-0.33,-0.315
2021-08-01 00:42:52.888,-0.17,-0.295
2021-08-01 00:42:52.892,-0.105,-0.305
2021-08-01 00:42:52.896,-0.095,-0.275
2021-08-01 00:42:52.900,-0.065,-0.275
2021-08-01 00:42:52.904,-0.06,-0.27
2021-08-01 00:42:52.908,-0.045,-0.26
2021-08-01 00:42:52.912,-0.035,-0.25
2021-08-01 00:42:52.916,-0.055,-0.26
2021-08-01 00:42:52.920,-0.065,-0.25
2021-08-01 00:42:52.924,-0.04,-0.23
2021-08-01 00:42:52.928,-0.04,-0.24
2021-08-01 00:42:52.932,-0.02,-0.23
2021-08-01 00:42:52.936,-0.025,-0.22
2021-08-01 00:42:52.940,-0.015,-0.23
2021-08-01 00:42:52.944,-0.025,-0.235
2021-08-01 00:42:52.948,-0.015,-0.22
2021-08-01 00:42:52.952,-0.025,-0.195
2021-08-01 00:42:52.956,-0.01,-0.2
2021-08-01 00:42:52.960,0.01,-0.19
2021-08-01 00:42:52.964,-0.01,-0.165
2021-08-01 00:42:52.968,-0.02,-0.19
2021-08-01 00:42:52.972,0.015,-0.16
2021-08-01 00:42:52.976,-0.005,-0.155
2021-08-01 00:42:52.980,0.005,-0.155
2021-08-01 00:42:52.984,0.0,-0.18
2021-08-01 00:42:52.988,-0.01,-0.175
2021-08-01 00:42:52.992,0.005,-0.18
2021-08-01 00:42:52.996,0.005,-0.19
2021-08-01 00:42:53.000,0.015,-0.225
2021-08-01 00:42:53.004,-0.005,-0.23
2021-08-01 00:42:53.008,-0.025,-0.24
2021-08-01 00:42:53.012,-0.01,-0.24
2021-08-01 00:42:53.016,-0.04,-0.24
2021-08-01 00:42:53.020,-0.05,-0.235
2021-08-01 00:42:53.024,-0.065,-0.215
2021-08-01 00:42:53.028,-0.065,-0.205
2021-08-01 00:42:53.032,-0.095,-0.17
2021-08-01 00:42:53.036,-0.125,-0.11
2021-08-01 00:42:53.040,-0.125,-0.025
2021-08-01 00:42:53.044,-0.08,0.005
2021-08-01 00:42:53.048,-0.05,0.015
2021-08-01 00:42:53.052,-0.01,0.05
2021-08-01 00:42:53.056,0.005,0.08
2021-08-01 00:42:53.060,-0.025,0.13
2021-08-01 00:42:53.064,-0.02,0.125
2021-08-01 00:42:53.068,-0.02,0.155
2021-08-01 00:42:53.072,-0.005,0.17
2021-08-01 00:42:53.076,-0.02,0.22
2021-08-01 00:42:53.080,0.0,0.235
2021-08-01 00:42:53.084,0.01,0.2
2021-08-01 00:42:53.088,-0.005,0.22
2021-08-01 00:42:53.092,-0.005,0.235
2021-08-01 00:42:53.096,-0.025,0.2
2021-08-01 00:42:53.100,-0.02,0.195
2021-08-01 00:42:53.104,-0.03,0.155
2021-08-01 00:42:53.108,-0.005,0.12
2021-08-01 00:42:53.112,0.015,0.1
2021-08-01 00:42:53.116,0.025,0.06
2021-08-01 00:42:53.120,0.03,0.005
2021-08-01 00:42:53.124,0.03,-0.025
2021-08-01 00:42:53.128,0.055,-0.035
2021-08-01 00:42:53.132,0.07,-0.065
2021-08-01 00:42:53.136,0.075,-0.105
2021-08-01 00:42:53.140,0.09,-0.1
2021-08-01 00:42:53.144,0.075,-0.11
2021-08-01 00:42:53.148,0.055,-0.115
2021-08-01 00:42:53.152,0.06,-0.125
2021-08-01 00:42:53.156,0.1,-0.16
2021-08-01 00:42:53.160,0.075,-0.14
2021-08-01 00:42:53.164,0.065,-0.15
2021-08-01 00:42:53.168,0.045,-0.19
2021-08-01 00:42:53.172,0.075,-0.165
2021-08-01 00:42:53.176,0.08,-0.145
2021-08-01 00:42:53.180,0.075,-0.15
2021-08-01 00:42:53.184,0.065,-0.175
2021-08-01 00:42:53.188,0.085,-0.195
2021-08-01 00:42:53.192,0.11,-0.18
2021-08-01 00:42:53.196,0.1,-0.17
2021-08-01 00:42:53.200,0.095,-0.18
2021-08-01 00:42:53.204,0.085,-0.205
2021-08-01 00:42:53.208,0.08,-0.195
2021-08-01 00:42:53.212,0.095,-0.17
2021-08-01 00:42:53.216,0.085,-0.175
2021-08-01 00:42:53.220,0.115,-0.17
2021-08-01 00:42:53.224,0.105,-0.18
2021-08-01 00:42:53.228,0.12,-0.17
2021-08-01 00:42:53.232,0.115,-0.2
2021-08-01 00:42:53.236,0.115,-0.21
2021-08-01 00:42:53.240,0.1,-0.2
2021-08-01 00:42:53.244,0.095,-0.18
2021-08-01 00:42:53.248,0.085,-0.18
2021-08-01 00:42:53.252,0.09,-0.2
2021-08-01 00:42:53.256,0.08,-0.195
2021-08-01 00:42:53.260,0.08,-0.185
2021-08-01 00:42:53.264,0.09,-0.19
2021-08-01 00:42:53.268,0.095,-0.2
2021-08-01 00:42:53.272,0.1,-0.205
2021-08-01 00:42:53.276,0.08,-0.195
2021-08-01 00:42:53.280,0.075,-0.2
2021-08-01 00:42:53.284,0.085,-0.2
2021-08-01 00:42:53.288,0.1,-0.215
2021-08-01 00:42:53.292,0.075,-0.195
2021-08-01 00:42:53.296,0.07,-0.19
2021-08-01 00:42:53.300,0.08,-0.225
2021-08-01 00:42:53.304,0.095,-0.195
2021-08-01 00:42:53.308,0.1,-0.185
2021-08-01 00:42:53.312,0.09,-0.18
2021-08-01 00:42:53.316,0.08,-0.19
2021-08-01 00:42:53.320,0.075,-0.18
2021-08-01 00:42:53.324,0.09,-0.185
2021-08-01 00:42:53.328,0.095,-0.19
2021-08-01 00:42:53.332,0.065,-0.185
2021-08-01 00:42:53.336,0.07,-0.195
2021-08-01 00:42:53.340,0.055,-0.19
2021-08-01 00:42:53.344,0.07,-0.17
2021-08-01 00:42:53.348,0.055,-0.205
2021-08-01 00:42:53.352,0.04,-0.23
2021-08-01 00:42:53.356,0.045,-0.215
2021-08-01 00:42:53.360,0.03,-0.205
2021-08-01 00:42:53.364,0.04,-0.19
2021-08-01 00:42:53.368,0.055,-0.205
2021-08-01 00:42:53.372,0.05,-0.19
2021-08-01 00:42:53.376,0.04,-0.18
2021-08-01 00:42:53.380,0.05,-0.17
2021-08-01 00:42:53.384,0.035,-0.215
2021-08-01 00:42:53.388,0.03,-0.205
2021-08-01 00:42:53.392,0.035,-0.195
2021-08-01 00:42:53.396,0.025,-0.2
2021-08-01 00:42:53.400,0.05,-0.22
2021-08-01 00:42:53.404,0.03,-0.205
2021-08-01 00:42:53.408,0.055,-0.18
2021-08-01 00:42:53.412,0.03,-0.195
2021-08-01 00:42:53.416,0.02,-0.235
2021-08-01 00:42:53.420,0.03,-0.21
2021-08-01 00:42:53.424,0.045,-0.225
2021-08-01 00:42:53.428,0.045,-0.23
2021-08-01 00:42:53.432,0.015,-0.245
2021-08-01 00:42:53.436,0.02,-0.255
2021-08-01 00:42:53.440,0.02,-0.24
2021-08-01 00:42:53.444,0.03,-0.225
2021-08-01 00:42:53.448,0.025,-0.24
2021-08-01 00:42:53.452,0.04,-0.225
2021-08-01 00:42:53.456,0.025,-0.22
2021-08-01 00:42:53.460,0.03,-0.23
2021-08-01 00:42:53.464,0.02,-0.235
2021-08-01 00:42:53.468,0.0,-0.24
2021-08-01 00:42:53.472,0.0,-0.24
2021-08-01 00:42:53.476,0.0,-0.22
2021-08-01 00:42:53.480,0.005,-0.225
2021-08-01 00:42:53.484,0.01,-0.24
2021-08-01 00:42:53.488,0.025,-0.225
2021-08-01 00:42:53.492,0.02,-0.205
2021-08-01 00:42:53.496,0.0,-0.235
2021-08-01 00:42:53.500,0.015,-0.235
2021-08-01 00:42:53.504,0.0,-0.215
2021-08-01 00:42:53.508,0.01,-0.215
2021-08-01 00:42:53.512,0.015,-0.225
2021-08-01 00:42:53.516,0.03,-0.225
2021-08-01 00:42:53.520,0.015,-0.22
2021-08-01 00:42:53.524,0.01,-0.23
2021-08-01 00:42:53.528,-0.005,-0.215
2021-08-01 00:42:53.532,-0.01,-0.225
2021-08-01 00:42:53.536,0.015,-0.235
2021-08-01 00:42:53.540,0.02,-0.225
2021-08-01 00:42:53.544,0.0,-0.21
2021-08-01 00:42:53.548,0.0,-0.21
2021-08-01 00:42:53.552,0.015,-0.235
2021-08-01 00:42:53.556,0.02,-0.23
2021-08-01 00:42:53.560,0.02,-0.215
2021-08-01 00:42:53.564,0.02,-0.21
2021-08-01 00:42:53.568,0.005,-0.21
2021-08-01 00:42:53.572,0.01,-0.21
2021-08-01 00:42:53.576,0.0,-0.195
2021-08-01 00:42:53.580,0.01,-0.19
2021-08-01 00:42:53.584,0.015,-0.215
2021-08-01 00:42:53.588,0.01,-0.215
2021-08-01 00:42:53.592,0.0,-0.21
2021-08-01 00:42:53.596,-0.02,-0.225
2021-08-01 00:42:53.600,-0.01,-0.165
2021-08-01 00:42:53.604,0.0,-0.165
2021-08-01 00:42:53.608,0.0,-0.175
2021-08-01 00:42:53.612,0.0,-0.205
2021-08-01 00:42:53.616,0.005,-0.25
2021-08-01 00:42:53.620,0.0,-0.285
2021-08-01 00:42:53.624,-0.005,-0.28
2021-08-01 00:42:53.628,0.01,-0.285
2021-08-01 00:42:53.632,0.005,-0.27
2021-08-01 00:42:53.636,0.005,-0.24
2021-08-01 00:42:53.640,0.005,-0.2
2021-08-01 00:42:53.644,0.0,-0.22
2021-08-01 00:42:53.648,0.0,-0.215
2021-08-01 00:42:53.652,-0.01,-0.25
2021-08-01 00:42:53.656,0.0,-0.25
2021-08-01 00:42:53.660,0.01,-0.25
2021-08-01 00:42:53.664,0.0,-0.255
2021-08-01 00:42:53.668,-0.01,-0.24
2021-08-01 00:42:53.672,-0.01,-0.22
2021-08-01 00:42:53.676,0.0,-0.21
2021-08-01 00:42:53.680,0.0,-0.23
2021-08-01 00:42:53.684,-0.01,-0.24
2021-08-01 00:42:53.688,-0.015,-0.22
2021-08-01 00:42:53.692,-0.005,-0.195
2021-08-01 00:42:53.696,-0.01,-0.24
2021-08-01 00:42:53.700,-0.005,-0.225
2021-08-01 00:42:53.704,0.005,-0.225
2021-08-01 00:42:53.708,0.005,-0.225
2021-08-01 00:42:53.712,0.015,-0.235
2021-08-01 00:42:53.716,-0.03,-0.24
2021-08-01 00:42:53.720,-0.025,-0.225
2021-08-01 00:42:53.724,0.0,-0.225
2021-08-01 00:42:53.728,0.0,-0.23
2021-08-01 00:42:53.732,-0.02,-0.225
2021-08-01 00:42:53.736,-0.02,-0.225
2021-08-01 00:42:53.740,0.0,-0.21
2021-08-01 00:42:53.744,0.01,-0.23
2021-08-01 00:42:53.748,-0.015,-0.24
2021-08-01 00:42:53.752,-0.015,-0.245
2021-08-01 00:42:53.756,0.015,-0.23
2021-08-01 00:42:53.760,0.0,-0.22
2021-08-01 00:42:53.764,0.005,-0.225
2021-08-01 00:42:53.768,-0.015,-0.225
2021-08-01 00:42:53.772,0.015,-0.215
2021-08-01 00:42:53.776,0.005,-0.205
2021-08-01 00:42:53.780,-0.005,-0.215
2021-08-01 00:42:53.784,0.0,-0.205
2021-08-01 00:42:53.788,-0.01,-0.2
2021-08-01 00:42:53.792,0.0,-0.2
2021-08-01 00:42:53.796,0.01,-0.18
2021-08-01 00:42:53.800,0.0,-0.22
2021-08-01 00:42:53.804,0.005,-0.19
2021-08-01 00:42:53.808,0.0,-0.205
2021-08-01 00:42:53.812,0.0,-0.195
2021-08-01 00:42:53.816,0.005,-0.2
2021-08-01 00:42:53.820,0.02,-0.205
2021-08-01 00:42:53.824,0.03,-0.2
2021-08-01 00:42:53.828,0.02,-0.22
2021-08-01 00:42:53.832,0.01,-0.24
2021-08-01 00:42:53.836,0.035,-0.225
2021-08-01 00:42:53.840,0.03,-0.215
2021-08-01 00:42:53.844,0.025,-0.195
2021-08-01 00:42:53.848,0.0,-0.205
2021-08-01 00:42:53.852,0.015,-0.19
2021-08-01 00:42:53.856,0.025,-0.19
2021-08-01 00:42:53.860,0.03,-0.2
2021-08-01 00:42:53.864,0.045,-0.21
2021-08-01 00:42:53.868,0.025,-0.205
2021-08-01 00:42:53.872,0.04,-0.18
2021-08-01 00:42:53.876,0.04,-0.175
2021-08-01 00:42:53.880,0.015,-0.2
2021-08-01 00:42:53.884,0.035,-0.21
2021-08-01 00:42:53.888,0.04,-0.195
2021-08-01 00:42:53.892,0.045,-0.2
2021-08-01 00:42:53.896,0.03,-0.195
2021-08-01 00:42:53.900,0.02,-0.205
2021-08-01 00:42:53.904,0.045,-0.215
2021-08-01 00:42:53.908,0.035,-0.19
2021-08-01 00:42:53.912,0.06,-0.195
2021-08-01 00:42:53.916,0.04,-0.21
2021-08-01 00:42:53.920,0.05,-0.2
2021-08-01 00:42:53.924,0.035,-0.19
2021-08-01 00:42:53.928,0.05,-0.205
2021-08-01 00:42:53.932,0.04,-0.19
2021-08-01 00:42:53.936,0.055,-0.18
2021-08-01 00:42:53.940,0.045,-0.175
2021-08-01 00:42:53.944,0.04,-0.19
2021-08-01 00:42:53.948,0.025,-0.18
2021-08-01 00:42:53.952,0.03,-0.13
2021-08-01 00:42:53.956,0.02,-0.075
2021-08-01 00:42:53.960,0.05,-0.02
2021-08-01 00:42:53.964,0.025,0.01
2021-08-01 00:42:53.968,0.04,0.11
2021-08-01 00:42:53.972,0.115,0.025
2021-08-01 00:42:53.976,0.14,-0.08
2021-08-01 00:42:53.980,0.11,-0.005
2021-08-01 00:42:53.984,0.095,0.31
2021-08-01 00:42:53.988,0.045,0.585
2021-08-01 00:42:53.992,-0.065,0.34
2021-08-01 00:42:53.996,-0.15,-0.435
2021-08-01 00:42:54.000,-0.155,-1.09
2021-08-01 00:42:54.004,-0.115,-1.205
2021-08-01 00:42:54.008,-0.03,-1.01
2021-08-01 00:42:54.012,0.03,-0.935
2021-08-01 00:42:54.016,-0.045,-0.915
2021-08-01 00:42:54.020,-0.19,-0.73
2021-08-01 00:42:54.024,-0.32,-0.49
2021-08-01 00:42:54.028,-0.355,-0.345
2021-08-01 00:42:54.032,-0.335,-0.29
2021-08-01 00:42:54.036,-0.355,-0.29
2021-08-01 00:42:54.040,-0.29,-0.285
2021-08-01 00:42:54.044,-0.14,-0.275
2021-08-01 00:42:54.048,-0.005,-0.28
2021-08-01 00:42:54.052,0.055,-0.26
2021-08-01 00:42:54.056,0.065,-0.22
2021-08-01 00:42:54.060,0.075,-0.255
2021-08-01 00:42:54.064,0.045,-0.255
2021-08-01 00:42:54.068,0.06,-0.235
2021-08-01 00:42:54.072,0.075,-0.24
2021-08-01 00:42:54.076,0.075,-0.245
2021-08-01 00:42:54.080,0.05,-0.23
2021-08-01 00:42:54.084,0.065,-0.205
2021-08-01 00:42:54.088,0.08,-0.195
2021-08-01 00:42:54.092,0.055,-0.195
2021-08-01 00:42:54.096,0.07,-0.195
2021-08-01 00:42:54.100,0.07,-0.185
2021-08-01 00:42:54.104,0.09,-0.15
2021-08-01 00:42:54.108,0.09,-0.18
2021-08-01 00:42:54.112,0.105,-0.18
2021-08-01 00:42:54.116,0.115,-0.15
2021-08-01 00:42:54.120,0.1,-0.115
2021-08-01 00:42:54.124,0.085,-0.155
2021-08-01 00:42:54.128,0.1,-0.145
2021-08-01 00:42:54.132,0.11,-0.15
2021-08-01 00:42:54.136,0.11,-0.125
2021-08-01 00:42:54.140,0.1,-0.13
2021-08-01 00:42:54.144,0.08,-0.12
2021-08-01 00:42:54.148,0.09,-0.1
2021-08-01 00:42:54.152,0.09,-0.1
2021-08-01 00:42:54.156,0.105,-0.115
2021-08-01 00:42:54.160,0.095,-0.12
2021-08-01 00:42:54.164,0.095,-0.135
2021-08-01 00:42:54.168,0.085,-0.13
2021-08-01 00:42:54.172,0.095,-0.155
2021-08-01 00:42:54.176,0.085,-0.19
2021-08-01 00:42:54.180,0.055,-0.195
2021-08-01 00:42:54.184,0.05,-0.18
2021-08-01 00:42:54.188,0.045,-0.16
2021-08-01 00:42:54.192,0.02,-0.165
2021-08-01 00:42:54.196,-0.01,-0.125
2021-08-01 00:42:54.200,-0.01,-0.07
2021-08-01 00:42:54.204,-0.035,-0.005
2021-08-01 00:42:54.208,-0.01,0.065
2021-08-01 00:42:54.212,-0.005,0.115
2021-08-01 00:42:54.216,0.045,0.14
2021-08-01 00:42:54.220,0.095,0.205
2021-08-01 00:42:54.224,0.08,0.215
2021-08-01 00:42:54.228,0.06,0.205
2021-08-01 00:42:54.232,0.05,0.24
2021-08-01 00:42:54.236,0.07,0.255
2021-08-01 00:42:54.240,0.09,0.295
2021-08-01 00:42:54.244,0.075,0.295
2021-08-01 00:42:54.248,0.075,0.28
2021-08-01 00:42:54.252,0.075,0.295
2021-08-01 00:42:54.256,0.09,0.28
2021-08-01 00:42:54.260,0.1,0.22
2021-08-01 00:42:54.264,0.08,0.2
2021-08-01 00:42:54.268,0.07,0.16
2021-08-01 00:42:54.272,0.1,0.12
2021-08-01 00:42:54.276,0.105,0.085
2021-08-01 00:42:54.280,0.11,0.07
2021-08-01 00:42:54.284,0.1,0.01
2021-08-01 00:42:54.288,0.11,-0.03
2021-08-01 00:42:54.292,0.1,-0.07
2021-08-01 00:42:54.296,0.115,-0.075
2021-08-01 00:42:54.300,0.09,-0.08
2021-08-01 00:42:54.304,0.11,-0.095
2021-08-01 00:42:54.308,0.115,-0.125
2021-08-01 00:42:54.312,0.11,-0.16
2021-08-01 00:42:54.316,0.075,-0.17
2021-08-01 00:42:54.320,0.065,-0.16
2021-08-01 00:42:54.324,0.06,-0.175
2021-08-01 00:42:54.328,0.08,-0.2
2021-08-01 00:42:54.332,0.095,-0.17
2021-08-01 00:42:54.336,0.065,-0.175
2021-08-01 00:42:54.340,0.035,-0.175
2021-08-01 00:42:54.344,0.055,-0.185
2021-08-01 00:42:54.348,0.055,-0.16
2021-08-01 00:42:54.352,0.05,-0.175
2021-08-01 00:42:54.356,0.055,-0.185
2021-08-01 00:42:54.360,0.065,-0.205
2021-08-01 00:42:54.364,0.05,-0.2
2021-08-01 00:42:54.368,0.06,-0.185
2021-08-01 00:42:54.372,0.07,-0.22
2021-08-01 00:42:54.376,0.065,-0.22
2021-08-01 00:42:54.380,0.07,-0.22
2021-08-01 00:42:54.384,0.075,-0.225
2021-08-01 00:42:54.388,0.06,-0.225
2021-08-01 00:42:54.392,0.055,-0.23
2021-08-01 00:42:54.396,0.05,-0.22
2021-08-01 00:42:54.400,0.055,-0.225
2021-08-01 00:42:54.404,0.075,-0.24
2021-08-01 00:42:54.408,0.065,-0.22
2021-08-01 00:42:54.412,0.06,-0.23
2021-08-01 00:42:54.416,0.05,-0.225
2021-08-01 00:42:54.420,0.075,-0.235
2021-08-01 00:42:54.424,0.07,-0.225
2021-08-01 00:42:54.428,0.045,-0.235
2021-08-01 00:42:54.432,0.065,-0.23
2021-08-01 00:42:54.436,0.055,-0.225
2021-08-01 00:42:54.440,0.06,-0.225
2021-08-01 00:42:54.444,0.06,-0.235
2021-08-01 00:42:54.448,0.035,-0.23
2021-08-01 00:42:54.452,0.04,-0.25
2021-08-01 00:42:54.456,0.04,-0.24
2021-08-01 00:42:54.460,0.045,-0.23
2021-08-01 00:42:54.464,0.045,-0.22
2021-08-01 00:42:54.468,0.04,-0.24
2021-08-01 00:42:54.472,0.045,-0.24
2021-08-01 00:42:54.476,0.04,-0.24
2021-08-01 00:42:54.480,0.05,-0.24
2021-08-01 00:42:54.484,0.04,-0.24
2021-08-01 00:42:54.488,0.055,-0.245
2021-08-01 00:42:54.492,0.06,-0.255
2021-08-01 00:42:54.496,0.055,-0.23
2021-08-01 00:42:54.500,0.065,-0.24
2021-08-01 00:42:54.504,0.06,-0.245
2021-08-01 00:42:54.508,0.045,-0.2
2021-08-01 00:42:54.512,0.07,-0.21
2021-08-01 00:42:54.516,0.05,-0.22
2021-08-01 00:42:54.520,0.05,-0.235
2021-08-01 00:42:54.524,0.025,-0.24
2021-08-01 00:42:54.528,0.035,-0.25
2021-08-01 00:42:54.532,0.045,-0.25
2021-08-01 00:42:54.536,0.04,-0.25
2021-08-01 00:42:54.540,0.04,-0.24
2021-08-01 00:42:54.544,0.06,-0.24
2021-08-01 00:42:54.548,0.045,-0.24
2021-08-01 00:42:54.552,0.05,-0.24
2021-08-01 00:42:54.556,0.025,-0.24
2021-08-01 00:42:54.560,0.01,-0.225
2021-08-01 00:42:54.564,0.03,-0.25
2021-08-01 00:42:54.568,0.055,-0.24
2021-08-01 00:42:54.572,0.03,-0.255
2021-08-01 00:42:54.576,0.06,-0.245
2021-08-01 00:42:54.580,0.03,-0.24
2021-08-01 00:42:54.584,0.035,-0.24
2021-08-01 00:42:54.588,0.03,-0.24
2021-08-01 00:42:54.592,0.03,-0.245
2021-08-01 00:42:54.596,0.045,-0.25
2021-08-01 00:42:54.600,0.01,-0.25
2021-08-01 00:42:54.604,0.005,-0.225
2021-08-01 00:42:54.608,0.03,-0.26
2021-08-01 00:42:54.612,0.02,-0.26
2021-08-01 00:42:54.616,0.03,-0.235
2021-08-01 00:42:54.620,0.02,-0.23
2021-08-01 00:42:54.624,0.025,-0.25
2021-08-01 00:42:54.628,0.04,-0.24
2021-08-01 00:42:54.632,0.03,-0.245
2021-08-01 00:42:54.636,0.015,-0.27
2021-08-01 00:42:54.640,0.005,-0.275
2021-08-01 00:42:54.644,0.015,-0.26
2021-08-01 00:42:54.648,0.01,-0.25
2021-08-01 00:42:54.652,0.02,-0.245
2021-08-01 00:42:54.656,0.025,-0.245
2021-08-01 00:42:54.660,0.02,-0.26
2021-08-01 00:42:54.664,0.01,-0.25
2021-08-01 00:42:54.668,0.01,-0.26
2021-08-01 00:42:54.672,0.015,-0.245
2021-08-01 00:42:54.676,-0.01,-0.26
2021-08-01 00:42:54.680,0.01,-0.24
2021-08-01 00:42:54.684,0.01,-0.25
2021-08-01 00:42:54.688,0.045,-0.25
2021-08-01 00:42:54.692,0.03,-0.24
2021-08-01 00:42:54.696,0.04,-0.255
2021-08-01 00:42:54.700,0.03,-0.245
2021-08-01 00:42:54.704,0.02,-0.255
2021-08-01 00:42:54.708,0.0,-0.25
2021-08-01 00:42:54.712,0.03,-0.25
2021-08-01 00:42:54.716,0.015,-0.24
2021-08-01 00:42:54.720,0.03,-0.25
2021-08-01 00:42:54.724,0.025,-0.235
2021-08-01 00:42:54.728,0.0,-0.24
2021-08-01 00:42:54.732,0.0,-0.235
2021-08-01 00:42:54.736,-0.01,-0.245
2021-08-01 00:42:54.740,-0.015,-0.255
2021-08-01 00:42:54.744,0.02,-0.24
2021-08-01 00:42:54.748,0.01,-0.265
2021-08-01 00:42:54.752,0.02,-0.25
2021-08-01 00:42:54.756,0.0,-0.25
2021-08-01 00:42:54.760,0.03,-0.245
2021-08-01 00:42:54.764,0.005,-0.24
2021-08-01 00:42:54.768,0.025,-0.265
2021-08-01 00:42:54.772,0.02,-0.26
2021-08-01 00:42:54.776,0.015,-0.27
2021-08-01 00:42:54.780,0.025,-0.24
2021-08-01 00:42:54.784,0.01,-0.25
2021-08-01 00:42:54.788,0.03,-0.26
2021-08-01 00:42:54.792,0.015,-0.26
2021-08-01 00:42:54.796,0.02,-0.265
2021-08-01 00:42:54.800,0.01,-0.26
2021-08-01 00:42:54.804,0.005,-0.26
2021-08-01 00:42:54.808,0.01,-0.265
2021-08-01 00:42:54.812,0.01,-0.265
2021-08-01 00:42:54.816,0.005,-0.265
2021-08-01 00:42:54.820,-0.01,-0.255
2021-08-01 00:42:54.824,0.005,-0.23
2021-08-01 00:42:54.828,0.02,-0.24
2021-08-01 00:42:54.832,0.01,-0.24
2021-08-01 00:42:54.836,0.03,-0.26
2021-08-01 00:42:54.840,0.02,-0.23
2021-08-01 00:42:54.844,0.02,-0.23
2021-08-01 00:42:54.848,0.01,-0.25
2021-08-01 00:42:54.852,0.025,-0.25
2021-08-01 00:42:54.856,0.015,-0.235
2021-08-01 00:42:54.860,0.02,-0.23
2021-08-01 00:42:54.864,0.03,-0.23
2021-08-01 00:42:54.868,0.025,-0.235
2021-08-01 00:42:54.872,0.04,-0.235
2021-08-01 00:42:54.876,0.015,-0.225
2021-08-01 00:42:54.880,0.01,-0.24
2021-08-01 00:42:54.884,0.025,-0.255
2021-08-01 00:42:54.888,0.02,-0.225
2021-08-01 00:42:54.892,0.035,-0.22
2021-08-01 00:42:54.896,0.0,-0.235
2021-08-01 00:42:54.900,0.01,-0.255
2021-08-01 00:42:54.904,0.025,-0.24
2021-08-01 00:42:54.908,0.01,-0.235
2021-08-01 00:42:54.912,0.025,-0.23
2021-08-01 00:42:54.916,0.015,-0.23
2021-08-01 00:42:54.920,0.025,-0.22
2021-08-01 00:42:54.924,0.035,-0.22
2021-08-01 00:42:54.928,0.02,-0.225
2021-08-01 00:42:54.932,0.005,-0.24
2021-08-01 00:42:54.936,0.025,-0.23
2021-08-01 00:42:54.940,0.025,-0.245
2021-08-01 00:42:54.944,0.025,-0.23
2021-08-01 00:42:54.948,0.035,-0.22
2021-08-01 00:42:54.952,0.015,-0.21
2021-08-01 00:42:54.956,0.035,-0.215
2021-08-01 00:42:54.960,0.04,-0.215
2021-08-01 00:42:54.964,0.04,-0.235
2021-08-01 00:42:54.968,0.015,-0.22
2021-08-01 00:42:54.972,0.0,-0.21
2021-08-01 00:42:54.976,-0.01,-0.225
2021-08-01 00:42:54.980,0.03,-0.245
2021-08-01 00:42:54.984,0.02,-0.225
2021-08-01 00:42:54.988,0.015,-0.2
2021-08-01 00:42:54.992,0.025,-0.22
2021-08-01 00:42:54.996,0.025,-0.22
2021-08-01 00:42:55.000,-0.005,-0.23
2021-08-01 00:42:55.004,0.01,-0.22
2021-08-01 00:42:55.008,0.0,-0.225
2021-08-01 00:42:55.012,0.01,-0.21
2021-08-01 00:42:55.016,0.005,-0.22
2021-08-01 00:42:55.020,0.015,-0.225
2021-08-01 00:42:55.024,0.005,-0.22
2021-08-01 00:42:55.028,-0.015,-0.23
2021-08-01 00:42:55.032,-0.025,-0.23
2021-08-01 00:42:55.036,-0.015,-0.2
2021-08-01 00:42:55.040,-0.02,-0.22
2021-08-01 00:42:55.044,-0.01,-0.235
2021-08-01 00:42:55.048,-0.02,-0.225
2021-08-01 00:42:55.052,-0.03,-0.215
2021-08-01 00:42:55.056,-0.03,-0.215
2021-08-01 00:42:55.060,-0.025,-0.24
2021-08-01 00:42:55.064,-0.025,-0.22
2021-08-01 00:42:55.068,-0.02,-0.215
2021-08-01 00:42:55.072,0.005,-0.21
2021-08-01 00:42:55.076,-0.015,-0.23
2021-08-01 00:42:55.080,0.0,-0.22
2021-08-01 00:42:55.084,-0.015,-0.215
2021-08-01 00:42:55.088,-0.015,-0.22
2021-08-01 00:42:55.092,-0.02,-0.215
2021-08-01 00:42:55.096,-0.005,-0.19
2021-08-01 00:42:55.100,-0.02,-0.16
2021-08-01 00:42:55.104,-0.005,-0.125
2021-08-01 00:42:55.108,0.0,-0.08
2021-08-01 00:42:55.112,0.01,0.0
2021-08-01 00:42:55.116,0.035,0.09
2021-08-01 00:42:55.120,0.06,0.08
2021-08-01 00:42:55.124,0.095,-0.08
2021-08-01 00:42:55.128,0.125,-0.135
2021-08-01 00:42:55.132,0.11,0.075
2021-08-01 00:42:55.136,0.03,0.405
2021-08-01 00:42:55.140,-0.045,0.33
2021-08-01 00:42:55.144,-0.15,-0.355
2021-08-01 00:42:55.148,-0.215,-1.165
2021-08-01 00:42:55.152,-0.24,-1.49
2021-08-01 00:42:55.156,-0.155,-1.185
2021-08-01 00:42:55.160,-0.07,-0.995
2021-08-01 00:42:55.164,-0.01,-1.015
2021-08-01 00:42:55.168,-0.07,-0.89
2021-08-01 00:42:55.172,-0.135,-0.64
2021-08-01 00:42:55.176,-0.22,-0.45
2021-08-01 00:42:55.180,-0.27,-0.31
2021-08-01 00:42:55.184,-0.31,-0.27
2021-08-01 00:42:55.188,-0.36,-0.26
2021-08-01 00:42:55.192,-0.2,-0.3
2021-08-01 00:42:55.196,-0.045,-0.27
2021-08-01 00:42:55.200,0.025,-0.245
2021-08-01 00:42:55.204,0.03,-0.255
2021-08-01 00:42:55.208,0.035,-0.265
2021-08-01 00:42:55.212,0.055,-0.23
2021-08-01 00:42:55.216,0.045,-0.235
2021-08-01 00:42:55.220,0.05,-0.25
2021-08-01 00:42:55.224,0.025,-0.235
2021-08-01 00:42:55.228,0.03,-0.23
2021-08-01 00:42:55.232,0.04,-0.21
2021-08-01 00:42:55.236,0.035,-0.245
2021-08-01 00:42:55.240,0.045,-0.215
2021-08-01 00:42:55.244,0.06,-0.2
2021-08-01 00:42:55.248,0.07,-0.21
2021-08-01 00:42:55.252,0.06,-0.205
2021-08-01 00:42:55.256,0.06,-0.2
2021-08-01 00:42:55.260,0.075,-0.185
2021-08-01 00:42:55.264,0.065,-0.155
2021-08-01 00:42:55.268,0.075,-0.15
2021-08-01 00:42:55.272,0.07,-0.175
2021-08-01 00:42:55.276,0.06,-0.135
2021-08-01 00:42:55.280,0.06,-0.13
2021-08-01 00:42:55.284,0.07,-0.14
2021-08-01 00:42:55.288,0.06,-0.14
2021-08-01 00:42:55.292,0.07,-0.12
2021-08-01 00:42:55.296,0.08,-0.12
2021-08-01 00:42:55.300,0.045,-0.15
2021-08-01 00:42:55.304,0.06,-0.175
2021-08-01 00:42:55.308,0.085,-0.18
2021-08-01 00:42:55.312,0.06,-0.2
2021-08-01 00:42:55.316,0.08,-0.22
2021-08-01 00:42:55.320,0.05,-0.21
2021-08-01 00:42:55.324,0.03,-0.205
2021-08-01 00:42:55.328,0.025,-0.205
2021-08-01 00:42:55.332,0.0,-0.22
2021-08-01 00:42:55.336,-0.02,-0.215
2021-08-01 00:42:55.340,-0.02,-0.13
2021-08-01 00:42:55.344,-0.065,-0.05
2021-08-01 00:42:55.348,-0.08,0.01
2021-08-01 00:42:55.352,-0.06,0.055
2021-08-01 00:42:55.356,-0.04,0.095
2021-08-01 00:42:55.360,0.065,0.14
2021-08-01 00:42:55.364,0.05,0.135
2021-08-01 00:42:55.368,0.03,0.175
2021-08-01 00:42:55.372,0.02,0.2
2021-08-01 00:42:55.376,0.03,0.22
2021-08-01 00:42:55.380,0.015,0.23
2021-08-01 00:42:55.384,0.035,0.255
2021-08-01 00:42:55.388,0.015,0.26
2021-08-01 00:42:55.392,0.005,0.235
2021-08-01 00:42:55.396,0.015,0.215
2021-08-01 00:42:55.400,0.015,0.185
2021-08-01 00:42:55.404,0.015,0.155
2021-08-01 00:42:55.408,0.01,0.11
2021-08-01 00:42:55.412,0.0,0.065
2021-08-01 00:42:55.416,0.01,0.03
2021-08-01 00:42:55.420,0.045,0.025
2021-08-01 00:42:55.424,0.03,-0.03
2021-08-01 00:42:55.428,0.04,-0.08
2021-08-01 00:42:55.432,0.055,-0.1
2021-08-01 00:42:55.436,0.075,-0.11
2021-08-01 00:42:55.440,0.05,-0.125
2021-08-01 00:42:55.444,0.07,-0.155
2021-08-01 00:42:55.448,0.055,-0.17
2021-08-01 00:42:55.452,0.05,-0.175
2021-08-01 00:42:55.456,0.05,-0.195
2021-08-01 00:42:55.460,0.04,-0.215
2021-08-01 00:42:55.464,0.05,-0.23
2021-08-01 00:42:55.468,0.05,-0.24
2021-08-01 00:42:55.472,0.03,-0.21
2021-08-01 00:42:55.476,0.015,-0.235
2021-08-01 00:42:55.480,0.035,-0.24
2021-08-01 00:42:55.484,0.035,-0.22
2021-08-01 00:42:55.488,0.05,-0.22
2021-08-01 00:42:55.492,0.04,-0.24
2021-08-01 00:42:55.496,0.06,-0.225
2021-08-01 00:42:55.500,0.04,-0.235
2021-08-01 00:42:55.504,0.03,-0.22
2021-08-01 00:42:55.508,0.04,-0.24
2021-08-01 00:42:55.512,0.045,-0.25
2021-08-01 00:42:55.516,0.04,-0.24
2021-08-01 00:42:55.520,0.045,-0.23
2021-08-01 00:42:55.524,0.035,-0.25
2021-08-01 00:42:55.528,0.055,-0.255
2021-08-01 00:42:55.532,0.04,-0.255
2021-08-01 00:42:55.536,0.05,-0.26
2021-08-01 00:42:55.540,0.035,-0.285
2021-08-01 00:42:55.544,0.02,-0.265
2021-08-01 00:42:55.548,0.045,-0.245
2021-08-01 00:42:55.552,0.035,-0.255
2021-08-01 00:42:55.556,0.04,-0.27
2021-08-01 00:42:55.560,0.03,-0.27
2021-08-01 00:42:55.564,0.045,-0.285
2021-08-01 00:42:55.568,0.055,-0.27
2021-08-01 00:42:55.572,0.045,-0.28
2021-08-01 00:42:55.576,0.025,-0.28
2021-08-01 00:42:55.580,0.035,-0.265
2021-08-01 00:42:55.584,0.04,-0.27
2021-08-01 00:42:55.588,0.025,-0.275
2021-08-01 00:42:55.592,0.03,-0.275
2021-08-01 00:42:55.596,0.045,-0.25
2021-08-01 00:42:55.600,0.065,-0.25
2021-08-01 00:42:55.604,0.045,-0.265
2021-08-01 00:42:55.608,0.045,-0.27
2021-08-01 00:42:55.612,0.04,-0.265
2021-08-01 00:42:55.616,0.015,-0.245
2021-08-01 00:42:55.620,0.03,-0.25
2021-08-01 00:42:55.624,0.05,-0.26
2021-08-01 00:42:55.628,0.055,-0.25
2021-08-01 00:42:55.632,0.03,-0.26
2021-08-01 00:42:55.636,0.055,-0.27
2021-08-01 00:42:55.640,0.025,-0.285
2021-08-01 00:42:55.644,0.03,-0.245
2021-08-01 00:42:55.648,0.02,-0.24
2021-08-01 00:42:55.652,0.025,-0.25
2021-08-01 00:42:55.656,0.03,-0.27
2021-08-01 00:42:55.660,0.025,-0.24
2021-08-01 00:42:55.664,0.025,-0.26
2021-08-01 00:42:55.668,0.025,-0.275
2021-08-01 00:42:55.672,0.015,-0.275
2021-08-01 00:42:55.676,0.03,-0.265
2021-08-01 00:42:55.680,0.01,-0.235
2021-08-01 00:42:55.684,0.02,-0.285
2021-08-01 00:42:55.688,0.01,-0.265
2021-08-01 00:42:55.692,0.01,-0.26
2021-08-01 00:42:55.696,0.02,-0.24
2021-08-01 00:42:55.700,0.0,-0.26
2021-08-01 00:42:55.704,0.0,-0.29
2021-08-01 00:42:55.708,0.025,-0.25
2021-08-01 00:42:55.712,0.0,-0.255
2021-08-01 00:42:55.716,0.0,-0.27
2021-08-01 00:42:55.720,0.02,-0.28
2021-08-01 00:42:55.724,-0.01,-0.26
2021-08-01 00:42:55.728,-0.005,-0.225
2021-08-01 00:42:55.732,0.0,-0.26
2021-08-01 00:42:55.736,-0.015,-0.275
2021-08-01 00:42:55.740,-0.005,-0.26
2021-08-01 00:42:55.744,0.0,-0.255
2021-08-01 00:42:55.748,-0.02,-0.275
2021-08-01 00:42:55.752,0.0,-0.26
2021-08-01 00:42:55.756,0.0,-0.255
2021-08-01 00:42:55.760,-0.02,-0.25
2021-08-01 00:42:55.764,-0.015,-0.29
2021-08-01 00:42:55.768,0.0,-0.29
2021-08-01 00:42:55.772,-0.015,-0.265
2021-08-01 00:42:55.776,-0.015,-0.26
2021-08-01 00:42:55.780,-0.015,-0.275
2021-08-01 00:42:55.784,-0.025,-0.275
2021-08-01 00:42:55.788,-0.025,-0.3
2021-08-01 00:42:55.792,-0.02,-0.28
2021-08-01 00:42:55.796,-0.02,-0.305
2021-08-01 00:42:55.800,-0.03,-0.31
2021-08-01 00:42:55.804,-0.005,-0.29
2021-08-01 00:42:55.808,-0.03,-0.295
2021-08-01 00:42:55.812,-0.03,-0.3
2021-08-01 00:42:55.816,-0.025,-0.315
2021-08-01 00:42:55.820,-0.02,-0.32
2021-08-01 00:42:55.824,-0.02,-0.3
2021-08-01 00:42:55.828,-0.04,-0.32
2021-08-01 00:42:55.832,-0.045,-0.325
2021-08-01 00:42:55.836,-0.035,-0.32
2021-08-01 00:42:55.840,-0.02,-0.3
2021-08-01 00:42:55.844,-0.03,-0.32
2021-08-01 00:42:55.848,-0.04,-0.33
2021-08-01 00:42:55.852,-0.035,-0.31
2021-08-01 00:42:55.856,-0.03,-0.285
2021-08-01 00:42:55.860,-0.05,-0.3
2021-08-01 00:42:55.864,-0.03,-0.315
2021-08-01 00:42:55.868,-0.04,-0.31
2021-08-01 00:42:55.872,-0.02,-0.285
2021-08-01 00:42:55.876,-0.045,-0.32
2021-08-01 00:42:55.880,-0.035,-0.32
2021-08-01 00:42:55.884,-0.025,-0.3
2021-08-01 00:42:55.888,-0.03,-0.28
2021-08-01 00:42:55.892,-0.02,-0.285
2021-08-01 00:42:55.896,-0.025,-0.3
2021-08-01 00:42:55.900,-0.03,-0.28
2021-08-01 00:42:55.904,-0.03,-0.275
2021-08-01 00:42:55.908,-0.035,-0.29
2021-08-01 00:42:55.912,-0.02,-0.295
2021-08-01 00:42:55.916,-0.02,-0.29
2021-08-01 00:42:55.920,-0.02,-0.29
2021-08-01 00:42:55.924,-0.03,-0.305
2021-08-01 00:42:55.928,-0.015,-0.305
2021-08-01 00:42:55.932,-0.005,-0.29
2021-08-01 00:42:55.936,0.0,-0.275
2021-08-01 00:42:55.940,-0.005,-0.275
2021-08-01 00:42:55.944,-0.005,-0.28
2021-08-01 00:42:55.948,-0.02,-0.28
2021-08-01 00:42:55.952,-0.01,-0.285
2021-08-01 00:42:55.956,-0.005,-0.285
2021-08-01 00:42:55.960,-0.005,-0.285
2021-08-01 00:42:55.964,0.0,-0.275
2021-08-01 00:42:55.968,-0.01,-0.29
2021-08-01 00:42:55.972,-0.015,-0.275
2021-08-01 00:42:55.976,-0.025,-0.29
2021-08-01 00:42:55.980,-0.01,-0.275
2021-08-01 00:42:55.984,0.0,-0.285
2021-08-01 00:42:55.988,-0.005,-0.28
2021-08-01 00:42:55.992,-0.025,-0.29
2021-08-01 00:42:55.996,0.0,-0.275
2021-08-01 00:42:56.000,0.0,-0.265
2021-08-01 00:42:56.004,-0.025,-0.28
2021-08-01 00:42:56.008,-0.015,-0.3
2021-08-01 00:42:56.012,-0.01,-0.27
2021-08-01 00:42:56.016,-0.01,-0.28
2021-08-01 00:42:56.020,-0.01,-0.29
2021-08-01 00:42:56.024,-0.015,-0.285
2021-08-01 00:42:56.028,-0.015,-0.285
2021-08-01 00:42:56.032,-0.03,-0.29
2021-08-01 00:42:56.036,-0.025,-0.29
2021-08-01 00:42:56.040,-0.02,-0.29
2021-08-01 00:42:56.044,0.005,-0.29
2021-08-01 00:42:56.048,-0.035,-0.29
2021-08-01 00:42:56.052,-0.01,-0.285
2021-08-01 00:42:56.056,-0.03,-0.275
2021-08-01 00:42:56.060,-0.01,-0.27
2021-08-01 00:42:56.064,-0.01,-0.265
2021-08-01 00:42:56.068,-0.025,-0.255
2021-08-01 00:42:56.072,-0.025,-0.295
2021-08-01 00:42:56.076,-0.03,-0.26
2021-08-01 00:42:56.080,-0.035,-0.28
2021-08-01 00:42:56.084,-0.03,-0.3
2021-08-01 00:42:56.088,-0.03,-0.29
2021-08-01 00:42:56.092,-0.045,-0.295
2021-08-01 00:42:56.096,-0.03,-0.275
2021-08-01 00:42:56.100,-0.02,-0.28
2021-08-01 00:42:56.104,-0.045,-0.3
2021-08-01 00:42:56.108,-0.025,-0.285
2021-08-01 00:42:56.112,-0.02,-0.28
2021-08-01 00:42:56.116,-0.04,-0.28
2021-08-01 00:42:56.120,-0.05,-0.295
2021-08-01 00:42:56.124,-0.01,-0.295
2021-08-01 00:42:56.128,-0.025,-0.275
2021-08-01 00:42:56.132,-0.015,-0.295
2021-08-01 00:42:56.136,-0.03,-0.285
2021-08-01 00:42:56.140,-0.025,-0.265
2021-08-01 00:42:56.144,-0.055,-0.265
2021-08-01 00:42:56.148,-0.045,-0.28
2021-08-01 00:42:56.152,-0.02,-0.295
2021-08-01 00:42:56.156,-0.04,-0.29
2021-08-01 00:42:56.160,-0.045,-0.3
2021-08-01 00:42:56.164,-0.03,-0.28
2021-08-01 00:42:56.168,-0.035,-0.295
2021-08-01 00:42:56.172,-0.015,-0.285
2021-08-01 00:42:56.176,-0.04,-0.27
2021-08-01 00:42:56.180,-0.03,-0.26
2021-08-01 00:42:56.184,-0.035,-0.28
2021-08-01 00:42:56.188,-0.05,-0.29
2021-08-01 00:42:56.192,-0.035,-0.29
2021-08-01 00:42:56.196,-0.03,-0.285
2021-08-01 00:42:56.200,-0.03,-0.27
2021-08-01 00:42:56.204,-0.035,-0.285
2021-08-01 00:42:56.208,-0.045,-0.27
2021-08-01 00:42:56.212,-0.05,-0.27
2021-08-01 00:42:56.216,-0.035,-0.28
2021-08-01 00:42:56.220,-0.04,-0.285
2021-08-01 00:42:56.224,-0.05,-0.285
2021-08-01 00:42:56.228,-0.02,-0.285
2021-08-01 00:42:56.232,-0.035,-0.275
2021-08-01 00:42:56.236,-0.04,-0.285
2021-08-01 00:42:56.240,-0.07,-0.3
2021-08-01 00:42:56.244,-0.055,-0.28
2021-08-01 00:42:56.248,-0.055,-0.285
2021-08-01 00:42:56.252,-0.065,-0.295
2021-08-01 00:42:56.256,-0.06,-0.305
2021-08-01 00:42:56.260,-0.055,-0.28
2021-08-01 00:42:56.264,-0.035,-0.28
2021-08-01 00:42:56.268,-0.055,-0.295
2021-08-01 00:42:56.272,-0.065,-0.265
2021-08-01 00:42:56.276,-0.065,-0.265
2021-08-01 00:42:56.280,-0.06,-0.205
2021-08-01 00:42:56.284,-0.055,-0.145
2021-08-01 00:42:56.288,-0.07,-0.09
2021-08-01 00:42:56.292,-0.04,-0.02
2021-08-01 00:42:56.296,-0.02,0.03
2021-08-01 00:42:56.300,0.02,-0.095
2021-08-01 00:42:56.304,0.05,-0.235
2021-08-01 00:42:56.308,0.055,-0.165
2021-08-01 00:42:56.312,0.005,0.115
2021-08-01 00:42:56.316,-0.06,0.255
2021-08-01 00:42:56.320,-0.185,-0.175
2021-08-01 00:42:56.324,-0.27,-1.065
2021-08-01 00:42:56.328,-0.315,-1.61
2021-08-01 00:42:56.332,-0.31,-1.445
2021-08-01 00:42:56.336,-0.3,-1.085
2021-08-01 00:42:56.340,-0.21,-1.06
2021-08-01 00:42:56.344,-0.15,-1.11
2021-08-01 00:42:56.348,-0.125,-0.99
2021-08-01 00:42:56.352,-0.12,-0.745
2021-08-01 00:42:56.356,-0.195,-0.525
2021-08-01 00:42:56.360,-0.23,-0.385
2021-08-01 00:42:56.364,-0.34,-0.355
2021-08-01 00:42:56.368,-0.39,-0.345
2021-08-01 00:42:56.372,-0.28,-0.355
2021-08-01 00:42:56.376,-0.16,-0.345
2021-08-01 00:42:56.380,-0.085,-0.34
2021-08-01 00:42:56.384,-0.085,-0.34
2021-08-01 00:42:56.388,-0.065,-0.34
2021-08-01 00:42:56.392,-0.045,-0.31
2021-08-01 00:42:56.396,-0.05,-0.315
2021-08-01 00:42:56.400,-0.06,-0.305
2021-08-01 00:42:56.404,-0.065,-0.305
2021-08-01 00:42:56.408,-0.05,-0.315
2021-08-01 00:42:56.412,-0.045,-0.315
2021-08-01 00:42:56.416,-0.055,-0.305
2021-08-01 00:42:56.420,-0.06,-0.3
2021-08-01 00:42:56.424,-0.05,-0.32
2021-08-01 00:42:56.428,-0.06,-0.315
2021-08-01 00:42:56.432,-0.075,-0.325
2021-08-01 00:42:56.436,-0.06,-0.27
2021-08-01 00:42:56.440,-0.055,-0.26
2021-08-01 00:42:56.444,-0.045,-0.27
2021-08-01 00:42:56.448,-0.07,-0.265
2021-08-01 00:42:56.452,-0.065,-0.255
2021-08-01 00:42:56.456,-0.07,-0.24
2021-08-01 00:42:56.460,-0.085,-0.225
2021-08-01 00:42:56.464,-0.07,-0.23
2021-08-01 00:42:56.468,-0.095,-0.22
2021-08-01 00:42:56.472,-0.065,-0.225
2021-08-01 00:42:56.476,-0.035,-0.265
2021-08-01 00:42:56.480,-0.05,-0.28
2021-08-01 00:42:56.484,-0.055,-0.3
2021-08-01 00:42:56.488,-0.05,-0.315
2021-08-01 00:42:56.492,-0.06,-0.33
2021-08-01 00:42:56.496,-0.07,-0.315
2021-08-01 00:42:56.500,-0.105,-0.305
2021-08-01 00:42:56.504,-0.14,-0.3
2021-08-01 00:42:56.508,-0.14,-0.31
2021-08-01 00:42:56.512,-0.135,-0.275
2021-08-01 00:42:56.516,-0.16,-0.245
2021-08-01 00:42:56.520,-0.2,-0.16
2021-08-01 00:42:56.524,-0.205,-0.13
2021-08-01 00:42:56.528,-0.19,-0.07
2021-08-01 00:42:56.532,-0.145,-0.045
2021-08-01 00:42:56.536,-0.095,-0.025
2021-08-01 00:42:56.540,-0.055,0.015
2021-08-01 00:42:56.544,-0.105,0.035
2021-08-01 00:42:56.548,-0.13,0.04
2021-08-01 00:42:56.552,-0.125,0.085
2021-08-01 00:42:56.556,-0.11,0.135
2021-08-01 00:42:56.560,-0.095,0.145
2021-08-01 00:42:56.564,-0.09,0.145
2021-08-01 00:42:56.568,-0.11,0.17
2021-08-01 00:42:56.572,-0.12,0.155
2021-08-01 00:42:56.576,-0.12,0.16
2021-08-01 00:42:56.580,-0.125,0.16
2021-08-01 00:42:56.584,-0.13,0.135
2021-08-01 00:42:56.588,-0.105,0.105
2021-08-01 00:42:56.592,-0.115,0.08
2021-08-01 00:42:56.596,-0.115,0.06
2021-08-01 00:42:56.600,-0.11,0.02
2021-08-01 00:42:56.604,-0.105,-0.02
2021-08-01 00:42:56.608,-0.07,-0.05
2021-08-01 00:42:56.612,-0.045,-0.08
2021-08-01 00:42:56.616,-0.04,-0.115
2021-08-01 00:42:56.620,-0.055,-0.175
2021-08-01 00:42:56.624,-0.03,-0.175
2021-08-01 00:42:56.628,-0.065,-0.2
2021-08-01 00:42:56.632,-0.06,-0.19
2021-08-01 00:42:56.636,-0.065,-0.22
2021-08-01 00:42:56.640,-0.07,-0.23
2021-08-01 00:42:56.644,-0.065,-0.225
2021-08-01 00:42:56.648,-0.075,-0.235
2021-08-01 00:42:56.652,-0.055,-0.255
2021-08-01 00:42:56.656,-0.065,-0.255
2021-08-01 00:42:56.660,-0.055,-0.245
2021-08-01 00:42:56.664,-0.055,-0.25
2021-08-01 00:42:56.668,-0.05,-0.255
2021-08-01 00:42:56.672,-0.055,-0.27
2021-08-01 00:42:56.676,-0.06,-0.265
2021-08-01 00:42:56.680,-0.06,-0.255
2021-08-01 00:42:56.684,-0.08,-0.26
2021-08-01 00:42:56.688,-0.045,-0.27
2021-08-01 00:42:56.692,-0.035,-0.26
2021-08-01 00:42:56.696,-0.08,-0.28
2021-08-01 00:42:56.700,-0.05,-0.27
2021-08-01 00:42:56.704,-0.045,-0.28
2021-08-01 00:42:56.708,-0.03,-0.29
2021-08-01 00:42:56.712,-0.02,-0.29
2021-08-01 00:42:56.716,-0.05,-0.28
2021-08-01 00:42:56.720,-0.035,-0.285
2021-08-01 00:42:56.724,-0.04,-0.29
2021-08-01 00:42:56.728,-0.04,-0.305
2021-08-01 00:42:56.732,-0.03,-0.315
2021-08-01 00:42:56.736,-0.06,-0.32
2021-08-01 00:42:56.740,-0.045,-0.31
2021-08-01 00:42:56.744,-0.05,-0.31
2021-08-01 00:42:56.748,-0.035,-0.31
2021-08-01 00:42:56.752,-0.02,-0.315
2021-08-01 00:42:56.756,-0.045,-0.32
2021-08-01 00:42:56.760,-0.05,-0.3
2021-08-01 00:42:56.764,-0.055,-0.315
2021-08-01 00:42:56.768,-0.055,-0.315
2021-08-01 00:42:56.772,-0.05,-0.33
2021-08-01 00:42:56.776,-0.035,-0.29
2021-08-01 00:42:56.780,-0.045,-0.31
2021-08-01 00:42:56.784,-0.05,-0.32
2021-08-01 00:42:56.788,-0.04,-0.325
2021-08-01 00:42:56.792,-0.08,-0.315
2021-08-01 00:42:56.796,-0.03,-0.31
2021-08-01 00:42:56.800,-0.07,-0.3
2021-08-01 00:42:56.804,-0.055,-0.31
2021-08-01 00:42:56.808,-0.06,-0.31
2021-08-01 00:42:56.812,-0.065,-0.305
2021-08-01 00:42:56.816,-0.065,-0.3
2021-08-01 00:42:56.820,-0.09,-0.315
2021-08-01 00:42:56.824,-0.07,-0.315
2021-08-01 00:42:56.828,-0.065,-0.29
2021-08-01 00:42:56.832,-0.08,-0.29
2021-08-01 00:42:56.836,-0.06,-0.3
2021-08-01 00:42:56.840,-0.05,-0.3
2021-08-01 00:42:56.844,-0.055,-0.285
2021-08-01 00:42:56.848,-0.065,-0.28
2021-08-01 00:42:56.852,-0.075,-0.31
2021-08-01 00:42:56.856,-0.05,-0.31
2021-08-01 00:42:56.860,-0.07,-0.3
2021-08-01 00:42:56.864,-0.055,-0.295
2021-08-01 00:42:56.868,-0.06,-0.305
2021-08-01 00:42:56.872,-0.075,-0.295
2021-08-01 00:42:56.876,-0.06,-0.295
2021-08-01 00:42:56.880,-0.055,-0.29
2021-08-01 00:42:56.884,-0.03,-0.285
2021-08-01 00:42:56.888,-0.07,-0.305
2021-08-01 00:42:56.892,-0.08,-0.27
2021-08-01 00:42:56.896,-0.065,-0.265
2021-08-01 00:42:56.900,-0.06,-0.28
2021-08-01 00:42:56.904,-0.06,-0.27
2021-08-01 00:42:56.908,-0.035,-0.29
2021-08-01 00:42:56.912,-0.05,-0.275
2021-08-01 00:42:56.916,-0.075,-0.275
2021-08-01 00:42:56.920,-0.065,-0.28
2021-08-01 00:42:56.924,-0.045,-0.29
2021-08-01 00:42:56.928,-0.065,-0.26
2021-08-01 00:42:56.932,-0.06,-0.275
2021-08-01 00:42:56.936,-0.065,-0.285
2021-08-01 00:42:56.940,-0.06,-0.27
2021-08-01 00:42:56.944,-0.055,-0.255
2021-08-01 00:42:56.948,-0.04,-0.25
2021-08-01 00:42:56.952,-0.05,-0.26
2021-08-01 00:42:56.956,-0.04,-0.26
2021-08-01 00:42:56.960,-0.045,-0.255
2021-08-01 00:42:56.964,-0.02,-0.265
2021-08-01 00:42:56.968,-0.045,-0.25
2021-08-01 00:42:56.972,-0.055,-0.26
2021-08-01 00:42:56.976,-0.045,-0.24
2021-08-01 00:42:56.980,-0.025,-0.255
2021-08-01 00:42:56.984,-0.05,-0.27
2021-08-01 00:42:56.988,-0.035,-0.27
2021-08-01 00:42:56.992,-0.025,-0.27
2021-08-01 00:42:56.996,-0.01,-0.275
2021-08-01 00:42:57.000,-0.04,-0.26
2021-08-01 00:42:57.004,-0.025,-0.255
2021-08-01 00:42:57.008,-0.035,-0.235
2021-08-01 00:42:57.012,-0.05,-0.235
2021-08-01 00:42:57.016,-0.065,-0.23
2021-08-01 00:42:57.020,-0.035,-0.26
2021-08-01 00:42:57.024,-0.045,-0.265
2021-08-01 00:42:57.028,-0.02,-0.24
2021-08-01 00:42:57.032,-0.04,-0.265
2021-08-01 00:42:57.036,-0.025,-0.265
2021-08-01 00:42:57.040,-0.03,-0.265
2021-08-01 00:42:57.044,-0.015,-0.26
2021-08-01 00:42:57.048,-0.015,-0.245
2021-08-01 00:42:57.052,-0.035,-0.265
2021-08-01 00:42:57.056,-0.04,-0.26
2021-08-01 00:42:57.060,-0.04,-0.245
2021-08-01 00:42:57.064,-0.025,-0.26
2021-08-01 00:42:57.068,-0.05,-0.28
2021-08-01 00:42:57.072,-0.04,-0.265
2021-08-01 00:42:57.076,-0.02,-0.235
2021-08-01 00:42:57.080,-0.035,-0.245
2021-08-01 00:42:57.084,-0.01,-0.26
2021-08-01 00:42:57.088,-0.065,-0.27
2021-08-01 00:42:57.092,-0.03,-0.25
2021-08-01 00:42:57.096,-0.025,-0.27
2021-08-01 00:42:57.100,-0.05,-0.27
2021-08-01 00:42:57.104,-0.03,-0.26
2021-08-01 00:42:57.108,-0.04,-0.25
2021-08-01 00:42:57.112,-0.04,-0.24
2021-08-01 00:42:57.116,-0.05,-0.25
2021-08-01 00:42:57.120,-0.045,-0.265
2021-08-01 00:42:57.124,-0.045,-0.25
2021-08-01 00:42:57.128,-0.035,-0.255
2021-08-01 00:42:57.132,-0.04,-0.25
2021-08-01 00:42:57.136,-0.025,-0.245
2021-08-01 00:42:57.140,-0.05,-0.26
2021-08-01 00:42:57.144,-0.04,-0.24
2021-08-01 00:42:57.148,-0.035,-0.23
2021-08-01 00:42:57.152,-0.025,-0.265
2021-08-01 00:42:57.156,-0.025,-0.265
2021-08-01 00:42:57.160,-0.03,-0.245
2021-08-01 00:42:57.164,-0.02,-0.235
2021-08-01 00:42:57.168,-0.035,-0.255
2021-08-01 00:42:57.172,-0.03,-0.255
2021-08-01 00:42:57.176,-0.025,-0.235
2021-08-01 00:42:57.180,-0.02,-0.25
2021-08-01 00:42:57.184,-0.04,-0.255
2021-08-01 00:42:57.188,-0.04,-0.26
2021-08-01 00:42:57.192,-0.04,-0.235
2021-08-01 00:42:57.196,-0.045,-0.24
2021-08-01 00:42:57.200,-0.06,-0.23
2021-08-01 00:42:57.204,-0.065,-0.255
2021-08-01 00:42:57.208,-0.04,-0.24
2021-08-01 00:42:57.212,-0.03,-0.24
2021-08-01 00:42:57.216,-0.025,-0.24
2021-08-01 00:42:57.220,-0.04,-0.245
2021-08-01 00:42:57.224,-0.04,-0.235
2021-08-01 00:42:57.228,-0.05,-0.24
2021-08-01 00:42:57.232,-0.03,-0.235
2021-08-01 00:42:57.236,-0.04,-0.24
2021-08-01 00:42:57.240,-0.04,-0.265
2021-08-01 00:42:57.244,-0.035,-0.255
2021-08-01 00:42:57.248,-0.03,-0.235
2021-08-01 00:42:57.252,-0.02,-0.255
2021-08-01 00:42:57.256,-0.03,-0.255
2021-08-01 00:42:57.260,-0.005,-0.255
2021-08-01 00:42:57.264,-0.015,-0.235
2021-08-01 00:42:57.268,-0.02,-0.245
2021-08-01 00:42:57.272,-0.025,-0.265
2021-08-01 00:42:57.276,-0.04,-0.25
2021-08-01 00:42:57.280,-0.03,-0.245
2021-08-01 00:42:57.284,-0.045,-0.26
2021-08-01 00:42:57.288,0.0,-0.26
2021-08-01 00:42:57.292,-0.03,-0.245
2021-08-01 00:42:57.296,-0.03,-0.245
2021-08-01 00:42:57.300,-0.04,-0.245
2021-08-01 00:42:57.304,-0.025,-0.265
2021-08-01 00:42:57.308,-0.06,-0.255
2021-08-01 00:42:57.312,-0.04,-0.25
2021-08-01 00:42:57.316,-0.03,-0.235
2021-08-01 00:42:57.320,-0.015,-0.25
2021-08-01 00:42:57.324,-0.035,-0.24
2021-08-01 00:42:57.328,-0.03,-0.23
2021-08-01 00:42:57.332,-0.025,-0.245
2021-08-01 00:42:57.336,-0.035,-0.255
2021-08-01 00:42:57.340,-0.01,-0.24
2021-08-01 00:42:57.344,-0.035,-0.21
2021-08-01 00:42:57.348,-0.035,-0.25
2021-08-01 00:42:57.352,-0.035,-0.265
2021-08-01 00:42:57.356,-0.035,-0.27
2021-08-01 00:42:57.360,-0.02,-0.245
2021-08-01 00:42:57.364,-0.025,-0.24
2021-08-01 00:42:57.368,-0.03,-0.245
2021-08-01 00:42:57.372,-0.035,-0.255
2021-08-01 00:42:57.376,-0.05,-0.25
2021-08-01 00:42:57.380,-0.05,-0.24
2021-08-01 00:42:57.384,-0.04,-0.235
2021-08-01 00:42:57.388,-0.04,-0.265
2021-08-01 00:42:57.392,-0.03,-0.27
2021-08-01 00:42:57.396,-0.04,-0.24
2021-08-01 00:42:57.400,-0.035,-0.255
2021-08-01 00:42:57.404,-0.045,-0.255
2021-08-01 00:42:57.408,-0.02,-0.275
2021-08-01 00:42:57.412,-0.04,-0.26
2021-08-01 00:42:57.416,-0.03,-0.27
2021-08-01 00:42:57.420,-0.055,-0.28
2021-08-01 00:42:57.424,-0.04,-0.29
2021-08-01 00:42:57.428,-0.035,-0.24
2021-08-01 00:42:57.432,-0.045,-0.26
2021-08-01 00:42:57.436,-0.025,-0.265
2021-08-01 00:42:57.440,-0.05,-0.27
2021-08-01 00:42:57.444,-0.015,-0.28
2021-08-01 00:42:57.448,-0.03,-0.28
2021-08-01 00:42:57.452,-0.05,-0.265
2021-08-01 00:42:57.456,-0.045,-0.28
2021-08-01 00:42:57.460,-0.035,-0.26
2021-08-01 00:42:57.464,-0.035,-0.265
2021-08-01 00:42:57.468,-0.045,-0.265
2021-08-01 00:42:57.472,-0.03,-0.275
2021-08-01 00:42:57.476,-0.045,-0.245
2021-08-01 00:42:57.480,-0.06,-0.275
2021-08-01 00:42:57.484,-0.07,-0.25
2021-08-01 00:42:57.488,-0.075,-0.26
2021-08-01 00:42:57.492,-0.04,-0.27
2021-08-01 00:42:57.496,-0.04,-0.26
2021-08-01 00:42:57.500,-0.025,-0.26
2021-08-01 00:42:57.504,-0.045,-0.265
2021-08-01 00:42:57.508,-0.045,-0.25
2021-08-01 00:42:57.512,-0.02,-0.245
2021-08-01 00:42:57.516,-0.025,-0.255
2021-08-01 00:42:57.520,-0.055,-0.275
2021-08-01 00:42:57.524,-0.035,-0.245
2021-08-01 00:42:57.528,-0.04,-0.265
2021-08-01 00:42:57.532,-0.07,-0.26
2021-08-01 00:42:57.536,-0.06,-0.27
2021-08-01 00:42:57.540,-0.05,-0.28
2021-08-01 00:42:57.544,-0.055,-0.25
2021-08-01 00:42:57.548,-0.04,-0.255
2021-08-01 00:42:57.552,-0.05,-0.25
2021-08-01 00:42:57.556,-0.055,-0.25
2021-08-01 00:42:57.560,-0.045,-0.245
2021-08-01 00:42:57.564,-0.04,-0.265
2021-08-01 00:42:57.568,-0.02,-0.265
2021-08-01 00:42:57.572,-0.04,-0.26
2021-08-01 00:42:57.576,-0.03,-0.24
2021-08-01 00:42:57.580,-0.04,-0.24
2021-08-01 00:42:57.584,-0.055,-0.26
2021-08-01 00:42:57.588,-0.05,-0.275
2021-08-01 00:42:57.592,-0.05,-0.25
2021-08-01 00:42:57.596,-0.03,-0.235
2021-08-01 00:42:57.600,-0.025,-0.26
2021-08-01 00:42:57.604,-0.04,-0.26
2021-08-01 00:42:57.608,-0.04,-0.25
2021-08-01 00:42:57.612,-0.04,-0.215
2021-08-01 00:42:57.616,-0.035,-0.21
2021-08-01 00:42:57.620,-0.055,-0.145
2021-08-01 00:42:57.624,-0.035,-0.08
2021-08-01 00:42:57.628,-0.025,-0.01
2021-08-01 00:42:57.632,0.0,0.03
2021-08-01 00:42:57.636,0.05,-0.06
2021-08-01 00:42:57.640,0.075,-0.175
2021-08-01 00:42:57.644,0.08,-0.11
2021-08-01 00:42:57.648,0.04,0.14
2021-08-01 00:42:57.652,-0.04,0.37
2021-08-01 00:42:57.656,-0.12,0.11
2021-08-01 00:42:57.660,-0.21,-0.665
2021-08-01 00:42:57.664,-0.255,-1.36
2021-08-01 00:42:57.668,-0.26,-1.465
2021-08-01 00:42:57.672,-0.24,-1.145
2021-08-01 00:42:57.676,-0.15,-1.005
2021-08-01 00:42:57.680,-0.1,-1.055
2021-08-01 00:42:57.684,-0.135,-0.995
2021-08-01 00:42:57.688,-0.16,-0.775
2021-08-01 00:42:57.692,-0.21,-0.55
2021-08-01 00:42:57.696,-0.24,-0.415
2021-08-01 00:42:57.700,-0.275,-0.335
2021-08-01 00:42:57.704,-0.36,-0.33
2021-08-01 00:42:57.708,-0.32,-0.32
2021-08-01 00:42:57.712,-0.155,-0.295
2021-08-01 00:42:57.716,-0.035,-0.305
2021-08-01 00:42:57.720,0.0,-0.315
2021-08-01 00:42:57.724,0.0,-0.3
2021-08-01 00:42:57.728,-0.005,-0.29
2021-08-01 00:42:57.732,0.015,-0.295
2021-08-01 00:42:57.736,0.0,-0.3
2021-08-01 00:42:57.740,0.0,-0.29
2021-08-01 00:42:57.744,0.035,-0.275
2021-08-01 00:42:57.748,0.01,-0.29
2021-08-01 00:42:57.752,0.02,-0.29
2021-08-01 00:42:57.756,0.065,-0.27
2021-08-01 00:42:57.760,0.045,-0.26
2021-08-01 00:42:57.764,0.055,-0.255
2021-08-01 00:42:57.768,0.045,-0.245
2021-08-01 00:42:57.772,0.04,-0.235
2021-08-01 00:42:57.776,0.045,-0.22
2021-08-01 00:42:57.780,0.05,-0.235
2021-08-01 00:42:57.784,0.065,-0.22
2021-08-01 00:42:57.788,0.07,-0.23
2021-08-01 00:42:57.792,0.085,-0.205
2021-08-01 00:42:57.796,0.07,-0.195
2021-08-01 00:42:57.800,0.085,-0.22
2021-08-01 00:42:57.804,0.07,-0.24
2021-08-01 00:42:57.808,0.05,-0.25
2021-08-01 00:42:57.812,0.075,-0.25
2021-08-01 00:42:57.816,0.075,-0.28
2021-08-01 00:42:57.820,0.065,-0.315
2021-08-01 00:42:57.824,0.035,-0.295
2021-08-01 00:42:57.828,0.025,-0.3
2021-08-01 00:42:57.832,0.005,-0.32
2021-08-01 00:42:57.836,0.01,-0.325
2021-08-01 00:42:57.840,-0.005,-0.29
2021-08-01 00:42:57.844,-0.035,-0.2
2021-08-01 00:42:57.848,-0.055,-0.15
2021-08-01 00:42:57.852,-0.03,-0.115
2021-08-01 00:42:57.856,-0.025,-0.09
2021-08-01 00:42:57.860,0.005,-0.045
2021-08-01 00:42:57.864,0.03,-0.035
2021-08-01 00:42:57.868,0.055,-0.025
2021-08-01 00:42:57.872,0.025,0.0
2021-08-01 00:42:57.876,0.015,0.05
2021-08-01 00:42:57.880,0.045,0.055
2021-08-01 00:42:57.884,0.025,0.09
2021-08-01 00:42:57.888,0.035,0.125
2021-08-01 00:42:57.892,0.03,0.16
2021-08-01 00:42:57.896,0.04,0.165
2021-08-01 00:42:57.900,0.055,0.21
2021-08-01 00:42:57.904,0.03,0.23
2021-08-01 00:42:57.908,0.02,0.26
2021-08-01 00:42:57.912,0.03,0.24
2021-08-01 00:42:57.916,0.03,0.255
2021-08-01 00:42:57.920,0.01,0.25
2021-08-01 00:42:57.924,0.03,0.24
2021-08-01 00:42:57.928,0.035,0.225
2021-08-01 00:42:57.932,0.035,0.17
2021-08-01 00:42:57.936,0.02,0.14
2021-08-01 00:42:57.940,0.05,0.145
2021-08-01 00:42:57.944,0.05,0.075
2021-08-01 00:42:57.948,0.06,0.045
2021-08-01 00:42:57.952,0.065,0.025
2021-08-01 00:42:57.956,0.095,0.0
2021-08-01 00:42:57.960,0.075,-0.02
2021-08-01 00:42:57.964,0.085,-0.055
2021-08-01 00:42:57.968,0.11,-0.085
2021-08-01 00:42:57.972,0.11,-0.08
2021-08-01 00:42:57.976,0.08,-0.115
2021-08-01 00:42:57.980,0.105,-0.115
2021-08-01 00:42:57.984,0.1,-0.13
2021-08-01 00:42:57.988,0.09,-0.125
2021-08-01 00:42:57.992,0.11,-0.125
2021-08-01 00:42:57.996,0.085,-0.16
2021-08-01 00:42:58.000,0.105,-0.145
2021-08-01 00:42:58.004,0.095,-0.16
2021-08-01 00:42:58.008,0.11,-0.125
2021-08-01 00:42:58.012,0.11,-0.155
2021-08-01 00:42:58.016,0.095,-0.16
2021-08-01 00:42:58.020,0.105,-0.14
2021-08-01 00:42:58.024,0.13,-0.14
2021-08-01 00:42:58.028,0.125,-0.155
2021-08-01 00:42:58.032,0.14,-0.175
2021-08-01 00:42:58.036,0.11,-0.16
2021-08-01 00:42:58.040,0.115,-0.16
2021-08-01 00:42:58.044,0.135,-0.18
2021-08-01 00:42:58.048,0.13,-0.17
2021-08-01 00:42:58.052,0.135,-0.18
2021-08-01 00:42:58.056,0.13,-0.18
2021-08-01 00:42:58.060,0.13,-0.18
2021-08-01 00:42:58.064,0.11,-0.19
2021-08-01 00:42:58.068,0.115,-0.21
2021-08-01 00:42:58.072,0.12,-0.2
2021-08-01 00:42:58.076,0.115,-0.195
2021-08-01 00:42:58.080,0.135,-0.215
2021-08-01 00:42:58.084,0.12,-0.2
2021-08-01 00:42:58.088,0.125,-0.215
2021-08-01 00:42:58.092,0.115,-0.21
2021-08-01 00:42:58.096,0.115,-0.23
2021-08-01 00:42:58.100,0.095,-0.235
2021-08-01 00:42:58.104,0.105,-0.235
2021-08-01 00:42:58.108,0.1,-0.24
2021-08-01 00:42:58.112,0.12,-0.23
2021-08-01 00:42:58.116,0.105,-0.235
2021-08-01 00:42:58.120,0.075,-0.225
2021-08-01 00:42:58.124,0.09,-0.24
2021-08-01 00:42:58.128,0.09,-0.245
2021-08-01 00:42:58.132,0.1,-0.225
2021-08-01 00:42:58.136,0.1,-0.24
2021-08-01 00:42:58.140,0.08,-0.225
2021-08-01 00:42:58.144,0.08,-0.24
2021-08-01 00:42:58.148,0.085,-0.245
2021-08-01 00:42:58.152,0.065,-0.235
2021-08-01 00:42:58.156,0.085,-0.235
2021-08-01 00:42:58.160,0.1,-0.225
2021-08-01 00:42:58.164,0.105,-0.225
2021-08-01 00:42:58.168,0.08,-0.2
2021-08-01 00:42:58.172,0.095,-0.215
2021-08-01 00:42:58.176,0.09,-0.235
2021-08-01 00:42:58.180,0.09,-0.23
2021-08-01 00:42:58.184,0.065,-0.245
2021-08-01 00:42:58.188,0.065,-0.22
2021-08-01 00:42:58.192,0.08,-0.22
2021-08-01 00:42:58.196,0.075,-0.225
2021-08-01 00:42:58.200,0.06,-0.215
2021-08-01 00:42:58.204,0.065,-0.215
2021-08-01 00:42:58.208,0.04,-0.225
2021-08-01 00:42:58.212,0.06,-0.225
2021-08-01 00:42:58.216,0.06,-0.215
2021-08-01 00:42:58.220,0.055,-0.195
2021-08-01 00:42:58.224,0.07,-0.215
2021-08-01 00:42:58.228,0.05,-0.225
2021-08-01 00:42:58.232,0.045,-0.22
2021-08-01 00:42:58.236,0.055,-0.215
2021-08-01 00:42:58.240,0.045,-0.205
2021-08-01 00:42:58.244,0.02,-0.21
2021-08-01 00:42:58.248,0.05,-0.21
2021-08-01 00:42:58.252,0.045,-0.195
2021-08-01 00:42:58.256,0.035,-0.2
2021-08-01 00:42:58.260,0.04,-0.21
2021-08-01 00:42:58.264,0.04,-0.215
2021-08-01 00:42:58.268,0.03,-0.225
2021-08-01 00:42:58.272,0.03,-0.22
2021-08-01 00:42:58.276,0.03,-0.23
2021-08-01 00:42:58.280,0.03,-0.225
2021-08-01 00:42:58.284,0.04,-0.21
2021-08-01 00:42:58.288,0.05,-0.21
2021-08-01 00:42:58.292,0.025,-0.215
2021-08-01 00:42:58.296,0.02,-0.225
2021-08-01 00:42:58.300,0.045,-0.225
2021-08-01 00:42:58.304,0.035,-0.225
2021-08-01 00:42:58.308,0.025,-0.24
2021-08-01 00:42:58.312,0.02,-0.235
2021-08-01 00:42:58.316,0.015,-0.205
2021-08-01 00:42:58.320,0.015,-0.21
2021-08-01 00:42:58.324,0.035,-0.215
2021-08-01 00:42:58.328,0.04,-0.22
2021-08-01 00:42:58.332,0.035,-0.21
2021-08-01 00:42:58.336,0.035,-0.22
2021-08-01 00:42:58.340,0.03,-0.225
2021-08-01 00:42:58.344,0.015,-0.22
2021-08-01 00:42:58.348,0.025,-0.225
2021-08-01 00:42:58.352,0.03,-0.235
2021-08-01 00:42:58.356,0.015,-0.215
2021-08-01 00:42:58.360,0.03,-0.21
2021-08-01 00:42:58.364,0.02,-0.205
2021-08-01 00:42:58.368,0.02,-0.22
2021-08-01 00:42:58.372,0.015,-0.21
2021-08-01 00:42:58.376,0.005,-0.225
2021-08-01 00:42:58.380,0.0,-0.235
2021-08-01 00:42:58.384,0.015,-0.23
2021-08-01 00:42:58.388,0.0,-0.24
2021-08-01 00:42:58.392,-0.005,-0.215
2021-08-01 00:42:58.396,0.015,-0.225
2021-08-01 00:42:58.400,0.0,-0.24
2021-08-01 00:42:58.404,0.005,-0.24
2021-08-01 00:42:58.408,0.005,-0.23
2021-08-01 00:42:58.412,-0.005,-0.23
2021-08-01 00:42:58.416,0.0,-0.235
2021-08-01 00:42:58.420,0.0,-0.23
2021-08-01 00:42:58.424,0.005,-0.235
2021-08-01 00:42:58.428,-0.01,-0.225
2021-08-01 00:42:58.432,0.0,-0.23
2021-08-01 00:42:58.436,-0.01,-0.225
2021-08-01 00:42:58.440,0.0,-0.24
2021-08-01 00:42:58.444,-0.02,-0.24
2021-08-01 00:42:58.448,-0.015,-0.21
2021-08-01 00:42:58.452,0.0,-0.24
2021-08-01 00:42:58.456,-0.015,-0.22
2021-08-01 00:42:58.460,-0.03,-0.24
2021-08-01 00:42:58.464,-0.025,-0.23
2021-08-01 00:42:58.468,-0.04,-0.22
2021-08-01 00:42:58.472,-0.035,-0.2
2021-08-01 00:42:58.476,-0.01,-0.22
2021-08-01 00:42:58.480,-0.01,-0.22
2021-08-01 00:42:58.484,-0.015,-0.235
2021-08-01 00:42:58.488,0.0,-0.235
2021-08-01 00:42:58.492,-0.02,-0.225
2021-08-01 00:42:58.496,-0.02,-0.215
2021-08-01 00:42:58.500,-0.015,-0.205
2021-08-01 00:42:58.504,-0.01,-0.2
2021-08-01 00:42:58.508,-0.015,-0.23
2021-08-01 00:42:58.512,-0.01,-0.23
2021-08-01 00:42:58.516,-0.02,-0.235
2021-08-01 00:42:58.520,-0.035,-0.245
2021-08-01 00:42:58.524,-0.02,-0.23
2021-08-01 00:42:58.528,-0.015,-0.22
2021-08-01 00:42:58.532,-0.045,-0.22
2021-08-01 00:42:58.536,-0.015,-0.22
2021-08-01 00:42:58.540,-0.015,-0.23
2021-08-01 00:42:58.544,-0.02,-0.235
2021-08-01 00:42:58.548,-0.005,-0.22
2021-08-01 00:42:58.552,-0.015,-0.21
2021-08-01 00:42:58.556,-0.015,-0.235
2021-08-01 00:42:58.560,-0.005,-0.23
2021-08-01 00:42:58.564,-0.02,-0.235
2021-08-01 00:42:58.568,-0.015,-0.235
2021-08-01 00:42:58.572,0.005,-0.235
2021-08-01 00:42:58.576,0.0,-0.24
2021-08-01 00:42:58.580,0.0,-0.22
2021-08-01 00:42:58.584,-0.02,-0.225
2021-08-01 00:42:58.588,-0.035,-0.235
2021-08-01 00:42:58.592,0.005,-0.235
2021-08-01 00:42:58.596,0.0,-0.225
2021-08-01 00:42:58.600,-0.02,-0.22
2021-08-01 00:42:58.604,-0.015,-0.24
2021-08-01 00:42:58.608,-0.025,-0.23
2021-08-01 00:42:58.612,-0.03,-0.235
2021-08-01 00:42:58.616,0.0,-0.21
2021-08-01 00:42:58.620,0.0,-0.235
2021-08-01 00:42:58.624,0.0,-0.24
2021-08-01 00:42:58.628,-0.02,-0.235
2021-08-01 00:42:58.632,-0.01,-0.245
2021-08-01 00:42:58.636,-0.01,-0.24
2021-08-01 00:42:58.640,0.0,-0.26
2021-08-01 00:42:58.644,0.005,-0.25
2021-08-01 00:42:58.648,-0.005,-0.24
2021-08-01 00:42:58.652,0.0,-0.22
2021-08-01 00:42:58.656,-0.015,-0.23
2021-08-01 00:42:58.660,-0.02,-0.245
2021-08-01 00:42:58.664,-0.035,-0.235
2021-08-01 00:42:58.668,-0.02,-0.245
2021-08-01 00:42:58.672,-0.005,-0.255
2021-08-01 00:42:58.676,0.0,-0.255
2021-08-01 00:42:58.680,-0.005,-0.235
2021-08-01 00:42:58.684,-0.005,-0.235
2021-08-01 00:42:58.688,-0.005,-0.25
2021-08-01 00:42:58.692,-0.005,-0.23
2021-08-01 00:42:58.696,-0.015,-0.22
2021-08-01 00:42:58.700,-0.02,-0.26
2021-08-01 00:42:58.704,-0.005,-0.22
2021-08-01 00:42:58.708,0.0,-0.245
2021-08-01 00:42:58.712,-0.005,-0.245
2021-08-01 00:42:58.716,-0.01,-0.255
2021-08-01 00:42:58.720,0.01,-0.235
2021-08-01 00:42:58.724,-0.015,-0.235
2021-08-01 00:42:58.728,0.0,-0.245
2021-08-01 00:42:58.732,-0.015,-0.24
2021-08-01 00:42:58.736,0.0,-0.265
2021-08-01 00:42:58.740,0.0,-0.25
2021-08-01 00:42:58.744,-0.01,-0.225
2021-08-01 00:42:58.748,-0.015,-0.225
2021-08-01 00:42:58.752,-0.015,-0.245
2021-08-01 00:42:58.756,-0.015,-0.24
2021-08-01 00:42:58.760,0.01,-0.225
2021-08-01 00:42:58.764,-0.015,-0.235
2021-08-01 00:42:58.768,-0.02,-0.235
2021-08-01 00:42:58.772,-0.005,-0.255
2021-08-01 00:42:58.776,-0.025,-0.225
2021-08-01 00:42:58.780,0.0,-0.24
2021-08-01 00:42:58.784,-0.025,-0.235
2021-08-01 00:42:58.788,0.0,-0.23
2021-08-01 00:42:58.792,-0.02,-0.24
2021-08-01 00:42:58.796,-0.03,-0.225
2021-08-01 00:42:58.800,-0.025,-0.235
2021-08-01 00:42:58.804,-0.025,-0.245
2021-08-01 00:42:58.808,-0.02,-0.235
2021-08-01 00:42:58.812,-0.02,-0.245
2021-08-01 00:42:58.816,-0.04,-0.24
2021-08-01 00:42:58.820,-0.015,-0.25
2021-08-01 00:42:58.824,0.005,-0.245
2021-08-01 00:42:58.828,0.0,-0.26
2021-08-01 00:42:58.832,0.0,-0.27
2021-08-01 00:42:58.836,-0.02,-0.27
2021-08-01 00:42:58.840,0.0,-0.24
2021-08-01 00:42:58.844,-0.03,-0.225
2021-08-01 00:42:58.848,-0.035,-0.23
2021-08-01 00:42:58.852,-0.04,-0.245
2021-08-01 00:42:58.856,-0.02,-0.22
2021-08-01 00:42:58.860,0.0,-0.225
2021-08-01 00:42:58.864,-0.025,-0.235
2021-08-01 00:42:58.868,-0.02,-0.22
2021-08-01 00:42:58.872,-0.025,-0.22
2021-08-01 00:42:58.876,-0.005,-0.225
2021-08-01 00:42:58.880,0.0,-0.205
2021-08-01 00:42:58.884,0.0,-0.245
2021-08-01 00:42:58.888,-0.015,-0.22
2021-08-01 00:42:58.892,-0.025,-0.24
2021-08-01 00:42:58.896,0.005,-0.245
2021-08-01 00:42:58.900,0.0,-0.25
2021-08-01 00:42:58.904,-0.005,-0.235
2021-08-01 00:42:58.908,0.0,-0.23
2021-08-01 00:42:58.912,-0.005,-0.245
2021-08-01 00:42:58.916,0.0,-0.24
2021-08-01 00:42:58.920,-0.025,-0.225
2021-08-01 00:42:58.924,-0.01,-0.23
2021-08-01 00:42:58.928,-0.01,-0.255
2021-08-01 00:42:58.932,0.0,-0.24
2021-08-01 00:42:58.936,-0.005,-0.24
2021-08-01 00:42:58.940,0.005,-0.215
2021-08-01 00:42:58.944,0.01,-0.22
2021-08-01 00:42:58.948,0.0,-0.235
2021-08-01 00:42:58.952,0.015,-0.235
2021-08-01 00:42:58.956,0.015,-0.24
2021-08-01 00:42:58.960,0.02,-0.235
2021-08-01 00:42:58.964,0.02,-0.235
2021-08-01 00:42:58.968,0.005,-0.22
2021-08-01 00:42:58.972,0.01,-0.21
2021-08-01 00:42:58.976,0.0,-0.215
2021-08-01 00:42:58.980,0.035,-0.235
2021-08-01 00:42:58.984,0.035,-0.205
2021-08-01 00:42:58.988,0.015,-0.19
2021-08-01 00:42:58.992,0.01,-0.21
2021-08-01 00:42:58.996,0.0,-0.23
2021-08-01 00:42:59.000,0.005,-0.215
2021-08-01 00:42:59.004,0.015,-0.195
2021-08-01 00:42:59.008,0.005,-0.235
2021-08-01 00:42:59.012,0.0,-0.22
2021-08-01 00:42:59.016,0.01,-0.215
2021-08-01 00:42:59.020,0.025,-0.205
2021-08-01 00:42:59.024,0.02,-0.2
2021-08-01 00:42:59.028,0.005,-0.215
2021-08-01 00:42:59.032,0.01,-0.225
2021-08-01 00:42:59.036,0.02,-0.22
2021-08-01 00:42:59.040,0.03,-0.2
2021-08-01 00:42:59.044,0.015,-0.23
2021-08-01 00:42:59.048,0.005,-0.215
2021-08-01 00:42:59.052,0.015,-0.205
2021-08-01 00:42:59.056,0.0,-0.215
2021-08-01 00:42:59.060,0.005,-0.235
2021-08-01 00:42:59.064,0.0,-0.23
2021-08-01 00:42:59.068,0.0,-0.21
2021-08-01 00:42:59.072,-0.01,-0.23
2021-08-01 00:42:59.076,0.005,-0.25
2021-08-01 00:42:59.080,0.0,-0.24
2021-08-01 00:42:59.084,0.0,-0.23
2021-08-01 00:42:59.088,-0.005,-0.2
2021-08-01 00:42:59.092,0.015,-0.205
2021-08-01 00:42:59.096,0.01,-0.215
2021-08-01 00:42:59.100,0.015,-0.21
2021-08-01 00:42:59.104,-0.015,-0.21
2021-08-01 00:42:59.108,-0.025,-0.225
2021-08-01 00:42:59.112,-0.02,-0.225
2021-08-01 00:42:59.116,-0.03,-0.195
2021-08-01 00:42:59.120,0.0,-0.215
2021-08-01 00:42:59.124,-0.015,-0.22
2021-08-01 00:42:59.128,-0.005,-0.235
2021-08-01 00:42:59.132,-0.005,-0.235
2021-08-01 00:42:59.136,0.0,-0.235
2021-08-01 00:42:59.140,-0.01,-0.25
2021-08-01 00:42:59.144,-0.02,-0.2
2021-08-01 00:42:59.148,-0.025,-0.16
2021-08-01 00:42:59.152,-0.02,-0.11
2021-08-01 00:42:59.156,-0.015,-0.06
2021-08-01 00:42:59.160,-0.005,0.015
2021-08-01 00:42:59.164,0.035,0.12
2021-08-01 00:42:59.168,0.12,0.315
2021-08-01 00:42:59.172,0.185,0.605
2021-08-01 00:42:59.176,0.22,0.875
2021-08-01 00:42:59.180,0.135,1.075
2021-08-01 00:42:59.184,-0.07,1.175
2021-08-01 00:42:59.188,-0.39,1.285
2021-08-01 00:42:59.192,-0.83,1.45
2021-08-01 00:42:59.196,-1.29,1.575
2021-08-01 00:42:59.200,-1.74,1.57
2021-08-01 00:42:59.232,-1.94,1.205
2021-08-01 00:42:59.236,-1.835,1.27
2021-08-01 00:42:59.240,-1.73,1.225
2021-08-01 00:42:59.244,-1.62,0.86
2021-08-01 00:42:59.248,-1.505,0.28
2021-08-01 00:42:59.252,-1.41,-0.235
2021-08-01 00:42:59.256,-1.3,-0.535
2021-08-01 00:42:59.260,-1.155,-0.665
2021-08-01 00:42:59.264,-1.01,-0.665
2021-08-01 00:42:59.268,-0.865,-0.64
2021-08-01 00:42:59.272,-0.675,-0.64
2021-08-01 00:42:59.276,-0.48,-0.62
2021-08-01 00:42:59.280,-0.315,-0.615
2021-08-01 00:42:59.284,-0.145,-0.615
2021-08-01 00:42:59.288,0.01,-0.63
2021-08-01 00:42:59.292,0.12,-0.61
2021-08-01 00:42:59.296,0.2,-0.625
2021-08-01 00:42:59.300,0.28,-0.63
2021-08-01 00:42:59.304,0.305,-0.63
2021-08-01 00:42:59.308,0.33,-0.625
2021-08-01 00:42:59.312,0.37,-0.62
2021-08-01 00:42:59.316,0.36,-0.625
2021-08-01 00:42:59.320,0.39,-0.62
2021-08-01 00:42:59.324,0.405,-0.605
2021-08-01 00:42:59.328,0.43,-0.61
2021-08-01 00:42:59.332,0.445,-0.62
2021-08-01 00:42:59.336,0.45,-0.605
2021-08-01 00:42:59.340,0.465,-0.58
2021-08-01 00:42:59.344,0.475,-0.585
2021-08-01 00:42:59.348,0.495,-0.58
2021-08-01 00:42:59.352,0.5,-0.58
2021-08-01 00:42:59.356,0.51,-0.57
2021-08-01 00:42:59.360,0.525,-0.58
2021-08-01 00:42:59.364,0.525,-0.575
2021-08-01 00:42:59.368,0.545,-0.59
2021-08-01 00:42:59.372,0.55,-0.575
2021-08-01 00:42:59.376,0.565,-0.565
2021-08-01 00:42:59.380,0.6,-0.58
2021-08-01 00:42:59.384,0.63,-0.555
2021-08-01 00:42:59.388,0.65,-0.56
2021-08-01 00:42:59.392,0.65,-0.585
2021-08-01 00:42:59.396,0.66,-0.61
2021-08-01 00:42:59.400,0.685,-0.605
2021-08-01 00:42:59.404,0.69,-0.61
2021-08-01 00:42:59.408,0.735,-0.62
2021-08-01 00:42:59.412,0.735,-0.655
2021-08-01 00:42:59.416,0.765,-0.675
2021-08-01 00:42:59.420,0.78,-0.665
2021-08-01 00:42:59.424,0.82,-0.66
2021-08-01 00:42:59.428,0.84,-0.695
2021-08-01 00:42:59.432,0.835,-0.695
2021-08-01 00:42:59.436,0.84,-0.695
2021-08-01 00:42:59.440,0.855,-0.675
2021-08-01 00:42:59.444,0.885,-0.695
2021-08-01 00:42:59.448,0.905,-0.68
2021-08-01 00:42:59.452,0.89,-0.63
2021-08-01 00:42:59.456,0.875,-0.605
2021-08-01 00:42:59.460,0.86,-0.59
2021-08-01 00:42:59.464,0.855,-0.53
2021-08-01 00:42:59.468,0.835,-0.495
2021-08-01 00:42:59.472,0.815,-0.435
2021-08-01 00:42:59.476,0.8,-0.4
2021-08-01 00:42:59.480,0.765,-0.365
2021-08-01 00:42:59.484,0.705,-0.295
2021-08-01 00:42:59.488,0.66,-0.265
2021-08-01 00:42:59.492,0.635,-0.23
2021-08-01 00:42:59.496,0.585,-0.225
2021-08-01 00:42:59.500,0.52,-0.19
2021-08-01 00:42:59.504,0.465,-0.16
2021-08-01 00:42:59.508,0.43,-0.175
2021-08-01 00:42:59.512,0.375,-0.19
2021-08-01 00:42:59.516,0.315,-0.185
2021-08-01 00:42:59.520,0.275,-0.16
2021-08-01 00:42:59.524,0.235,-0.19
2021-08-01 00:42:59.528,0.205,-0.2
2021-08-01 00:42:59.532,0.165,-0.2
2021-08-01 00:42:59.536,0.14,-0.205
2021-08-01 00:42:59.540,0.13,-0.23
2021-08-01 00:42:59.544,0.1,-0.235
2021-08-01 00:42:59.548,0.075,-0.21
2021-08-01 00:42:59.552,0.09,-0.21
2021-08-01 00:42:59.556,0.075,-0.23
2021-08-01 00:42:59.560,0.065,-0.26
2021-08-01 00:42:59.564,0.05,-0.225
2021-08-01 00:42:59.568,0.055,-0.23
2021-08-01 00:42:59.572,0.05,-0.25
2021-08-01 00:42:59.576,0.03,-0.25
2021-08-01 00:42:59.580,0.045,-0.235
2021-08-01 00:42:59.584,0.035,-0.225
2021-08-01 00:42:59.588,0.025,-0.265
2021-08-01 00:42:59.592,0.025,-0.25
2021-08-01 00:42:59.596,0.04,-0.245
2021-08-01 00:42:59.600,0.045,-0.255
2021-08-01 00:42:59.604,0.05,-0.265
2021-08-01 00:42:59.608,0.025,-0.27
2021-08-01 00:42:59.612,0.055,-0.26
2021-08-01 00:42:59.616,0.07,-0.27
2021-08-01 00:42:59.620,0.055,-0.295
2021-08-01 00:42:59.624,0.075,-0.305
2021-08-01 00:42:59.628,0.07,-0.29
2021-08-01 00:42:59.632,0.06,-0.285
2021-08-01 00:42:59.636,0.075,-0.31
2021-08-01 00:42:59.640,0.07,-0.335
2021-08-01 00:42:59.644,0.06,-0.305
2021-08-01 00:42:59.648,0.075,-0.315
2021-08-01 00:42:59.652,0.07,-0.345
2021-08-01 00:42:59.656,0.06,-0.35
2021-08-01 00:42:59.660,0.05,-0.335
2021-08-01 00:42:59.664,0.06,-0.305
2021-08-01 00:42:59.668,0.055,-0.34
2021-08-01 00:42:59.672,0.065,-0.36
2021-08-01 00:42:59.676,0.065,-0.34
2021-08-01 00:42:59.680,0.07,-0.35
2021-08-01 00:42:59.684,0.06,-0.36
2021-08-01 00:42:59.688,0.06,-0.375
2021-08-01 00:42:59.692,0.07,-0.335
2021-08-01 00:42:59.696,0.045,-0.335
2021-08-01 00:42:59.700,0.055,-0.365
2021-08-01 00:42:59.704,0.045,-0.36
2021-08-01 00:42:59.708,0.055,-0.345
2021-08-01 00:42:59.712,0.075,-0.355
2021-08-01 00:42:59.716,0.08,-0.36
2021-08-01 00:42:59.720,0.055,-0.355
2021-08-01 00:42:59.724,0.05,-0.355
2021-08-01 00:42:59.728,0.075,-0.345
2021-08-01 00:42:59.732,0.085,-0.335
2021-08-01 00:42:59.736,0.06,-0.36
2021-08-01 00:42:59.740,0.055,-0.33
2021-08-01 00:42:59.744,0.055,-0.335
2021-08-01 00:42:59.748,0.065,-0.325
2021-08-01 00:42:59.752,0.055,-0.35
2021-08-01 00:42:59.756,0.04,-0.33
2021-08-01 00:42:59.760,0.045,-0.32
2021-08-01 00:42:59.764,0.065,-0.32
2021-08-01 00:42:59.768,0.045,-0.34
2021-08-01 00:42:59.772,0.045,-0.31
2021-08-01 00:42:59.776,0.02,-0.305
2021-08-01 00:42:59.780,0.03,-0.32
2021-08-01 00:42:59.784,0.015,-0.33
2021-08-01 00:42:59.788,0.0,-0.32
2021-08-01 00:42:59.792,0.02,-0.31
2021-08-01 00:42:59.796,0.015,-0.32
2021-08-01 00:42:59.800,0.015,-0.315
2021-08-01 00:42:59.804,0.05,-0.31
2021-08-01 00:42:59.808,0.035,-0.31
2021-08-01 00:42:59.812,0.035,-0.315
2021-08-01 00:42:59.816,0.015,-0.325
2021-08-01 00:42:59.820,0.025,-0.305
2021-08-01 00:42:59.824,0.03,-0.315
2021-08-01 00:42:59.828,0.015,-0.3
2021-08-01 00:42:59.832,0.005,-0.32
2021-08-01 00:42:59.836,0.02,-0.3
2021-08-01 00:42:59.840,0.015,-0.3
2021-08-01 00:42:59.844,0.025,-0.305
2021-08-01 00:42:59.848,0.03,-0.305
2021-08-01 00:42:59.852,0.03,-0.305
2021-08-01 00:42:59.856,0.02,-0.29
2021-08-01 00:42:59.860,0.035,-0.31
2021-08-01 00:42:59.864,0.02,-0.3
2021-08-01 00:42:59.868,0.025,-0.27
2021-08-01 00:42:59.872,0.06,-0.29
2021-08-01 00:42:59.876,0.04,-0.31
2021-08-01 00:42:59.880,0.01,-0.315
2021-08-01 00:42:59.884,0.035,-0.29
2021-08-01 00:42:59.888,0.035,-0.28
2021-08-01 00:42:59.892,0.04,-0.29
2021-08-01 00:42:59.896,0.03,-0.315
2021-08-01 00:42:59.900,0.04,-0.28
2021-08-01 00:42:59.904,0.05,-0.27
2021-08-01 00:42:59.908,0.05,-0.285
2021-08-01 00:42:59.912,0.045,-0.285
2021-08-01 00:42:59.916,0.03,-0.265
2021-08-01 00:42:59.920,0.045,-0.275
2021-08-01 00:42:59.924,0.045,-0.255
2021-08-01 00:42:59.928,0.04,-0.275
2021-08-01 00:42:59.932,0.05,-0.265
2021-08-01 00:42:59.936,0.055,-0.275
2021-08-01 00:42:59.940,0.05,-0.28
2021-08-01 00:42:59.944,0.055,-0.28
2021-08-01 00:42:59.948,0.04,-0.255
2021-08-01 00:42:59.952,0.05,-0.265
2021-08-01 00:42:59.956,0.07,-0.27
2021-08-01 00:42:59.960,0.065,-0.27
2021-08-01 00:42:59.964,0.05,-0.26
2021-08-01 00:42:59.968,0.06,-0.26
2021-08-01 00:42:59.972,0.05,-0.25
2021-08-01 00:42:59.976,0.05,-0.255
2021-08-01 00:42:59.980,0.075,-0.24
2021-08-01 00:42:59.984,0.07,-0.275
2021-08-01 00:42:59.988,0.07,-0.26
2021-08-01 00:42:59.992,0.09,-0.27
2021-08-01 00:42:59.996,0.085,-0.255
2021-08-01 00:43:00.000,0.08,-0.24
2021-08-01 00:43:00.004,0.085,-0.255
2021-08-01 00:43:00.008,0.07,-0.235
2021-08-01 00:43:00.012,0.07,-0.23
2021-08-01 00:43:00.016,0.085,-0.235
2021-08-01 00:43:00.020,0.09,-0.25
2021-08-01 00:43:00.024,0.08,-0.265
2021-08-01 00:43:00.028,0.075,-0.24
2021-08-01 00:43:00.032,0.07,-0.24
2021-08-01 00:43:00.036,0.07,-0.23
2021-08-01 00:43:00.040,0.065,-0.23
2021-08-01 00:43:00.044,0.095,-0.23
2021-08-01 00:43:00.048,0.085,-0.245
2021-08-01 00:43:00.052,0.095,-0.24
2021-08-01 00:43:00.056,0.07,-0.245
2021-08-01 00:43:00.060,0.085,-0.23
2021-08-01 00:43:00.064,0.08,-0.235
2021-08-01 00:43:00.068,0.125,-0.24
2021-08-01 00:43:00.072,0.095,-0.24
2021-08-01 00:43:00.076,0.085,-0.24
2021-08-01 00:43:00.080,0.095,-0.245
2021-08-01 00:43:00.084,0.09,-0.24
2021-08-01 00:43:00.088,0.105,-0.24
2021-08-01 00:43:00.092,0.075,-0.245
2021-08-01 00:43:00.096,0.09,-0.23
2021-08-01 00:43:00.100,0.065,-0.235
2021-08-01 00:43:00.104,0.06,-0.225
2021-08-01 00:43:00.108,0.07,-0.225
2021-08-01 00:43:00.112,0.09,-0.22
2021-08-01 00:43:00.116,0.1,-0.225
2021-08-01 00:43:00.120,0.105,-0.245
2021-08-01 00:43:00.124,0.075,-0.225
2021-08-01 00:43:00.128,0.07,-0.22
2021-08-01 00:43:00.132,0.095,-0.22
2021-08-01 00:43:00.136,0.1,-0.235
2021-08-01 00:43:00.140,0.075,-0.23
2021-08-01 00:43:00.144,0.085,-0.23
2021-08-01 00:43:00.148,0.09,-0.22
2021-08-01 00:43:00.152,0.08,-0.22
2021-08-01 00:43:00.156,0.09,-0.22
2021-08-01 00:43:00.160,0.1,-0.215
2021-08-01 00:43:00.164,0.09,-0.235
2021-08-01 00:43:00.168,0.12,-0.255
2021-08-01 00:43:00.172,0.095,-0.235
2021-08-01 00:43:00.176,0.1,-0.23
2021-08-01 00:43:00.180,0.1,-0.235
2021-08-01 00:43:00.184,0.095,-0.235
2021-08-01 00:43:00.188,0.095,-0.2
2021-08-01 00:43:00.192,0.115,-0.22
2021-08-01 00:43:00.196,0.1,-0.23
2021-08-01 00:43:00.200,0.085,-0.225
2021-08-01 00:43:00.204,0.085,-0.245
2021-08-01 00:43:00.208,0.105,-0.22
2021-08-01 00:43:00.212,0.1,-0.23
2021-08-01 00:43:00.216,0.105,-0.235
2021-08-01 00:43:00.220,0.1,-0.23
2021-08-01 00:43:00.224,0.085,-0.21
2021-08-01 00:43:00.228,0.09,-0.21
2021-08-01 00:43:00.232,0.115,-0.23
2021-08-01 00:43:00.236,0.11,-0.235
2021-08-01 00:43:00.240,0.115,-0.205
2021-08-01 00:43:00.244,0.13,-0.225
2021-08-01 00:43:00.248,0.12,-0.245
2021-08-01 00:43:00.252,0.115,-0.235
2021-08-01 00:43:00.256,0.095,-0.255
2021-08-01 00:43:00.260,0.11,-0.245
2021-08-01 00:43:00.264,0.115,-0.245
2021-08-01 00:43:00.268,0.12,-0.245
2021-08-01 00:43:00.272,0.1,-0.23
2021-08-01 00:43:00.276,0.105,-0.25
2021-08-01 00:43:00.280,0.1,-0.24
2021-08-01 00:43:00.284,0.1,-0.22
2021-08-01 00:43:00.288,0.09,-0.24
2021-08-01 00:43:00.292,0.095,-0.225
2021-08-01 00:43:00.296,0.11,-0.22
2021-08-01 00:43:00.300,0.105,-0.22
2021-08-01 00:43:00.304,0.095,-0.215
2021-08-01 00:43:00.308,0.1,-0.22
2021-08-01 00:43:00.312,0.1,-0.225
2021-08-01 00:43:00.316,0.075,-0.215
2021-08-01 00:43:00.320,0.1,-0.225
2021-08-01 00:43:00.324,0.1,-0.22
2021-08-01 00:43:00.328,0.09,-0.215
2021-08-01 00:43:00.332,0.095,-0.22
2021-08-01 00:43:00.336,0.07,-0.23
2021-08-01 00:43:00.340,0.08,-0.24
2021-08-01 00:43:00.344,0.085,-0.235
2021-08-01 00:43:00.348,0.105,-0.24
2021-08-01 00:43:00.352,0.11,-0.235
2021-08-01 00:43:00.356,0.105,-0.23
2021-08-01 00:43:00.360,0.1,-0.22
2021-08-01 00:43:00.364,0.09,-0.23
2021-08-01 00:43:00.368,0.095,-0.22
2021-08-01 00:43:00.372,0.13,-0.22
2021-08-01 00:43:00.376,0.115,-0.225
2021-08-01 00:43:00.380,0.105,-0.225
2021-08-01 00:43:00.384,0.095,-0.205
2021-08-01 00:43:00.388,0.11,-0.24
2021-08-01 00:43:00.392,0.11,-0.225
2021-08-01 00:43:00.396,0.095,-0.24
2021-08-01 00:43:00.400,0.115,-0.245
2021-08-01 00:43:00.404,0.105,-0.23
2021-08-01 00:43:00.408,0.1,-0.22
2021-08-01 00:43:00.412,0.105,-0.215
2021-08-01 00:43:00.416,0.085,-0.22
2021-08-01 00:43:00.420,0.09,-0.215
2021-08-01 00:43:00.424,0.095,-0.235
2021-08-01 00:43:00.428,0.105,-0.23
2021-08-01 00:43:00.432,0.1,-0.245
2021-08-01 00:43:00.436,0.095,-0.235
2021-08-01 00:43:00.440,0.095,-0.235
2021-08-01 00:43:00.444,0.1,-0.23
2021-08-01 00:43:00.448,0.095,-0.25
2021-08-01 00:43:00.452,0.115,-0.24
2021-08-01 00:43:00.456,0.1,-0.23
2021-08-01 00:43:00.460,0.09,-0.245
2021-08-01 00:43:00.464,0.08,-0.23
2021-08-01 00:43:00.468,0.09,-0.23
2021-08-01 00:43:00.472,0.06,-0.22
2021-08-01 00:43:00.476,0.09,-0.24
2021-08-01 00:43:00.480,0.08,-0.22
2021-08-01 00:43:00.484,0.105,-0.235
2021-08-01 00:43:00.488,0.08,-0.255
2021-08-01 00:43:00.492,0.095,-0.24
2021-08-01 00:43:00.496,0.095,-0.235
2021-08-01 00:43:00.500,0.105,-0.24
2021-08-01 00:43:00.504,0.115,-0.24
2021-08-01 00:43:00.508,0.085,-0.225
2021-08-01 00:43:00.512,0.105,-0.235
2021-08-01 00:43:00.516,0.095,-0.24
2021-08-01 00:43:00.520,0.105,-0.22
2021-08-01 00:43:00.524,0.075,-0.225
2021-08-01 00:43:00.528,0.085,-0.23
