Time,ECG1,ECG2
2021-08-19 02:17:53.000,0.205,-0.145
2021-08-19 02:17:53.000,0.215,-0.145
2021-08-19 02:17:53.000,0.195,-0.15
2021-08-19 02:17:53.000,0.205,-0.15
2021-08-19 02:17:54.000,0.195,-0.15
2021-08-19 02:17:54.000,0.21,-0.15
2021-08-19 02:17:54.000,0.19,-0.15
2021-08-19 02:17:54.000,0.2,-0.15
2021-08-19 02:17:54.000,0.205,-0.11
2021-08-19 02:17:55.000,0.2,-0.12
2021-08-19 02:17:55.000,0.195,-0.1
2021-08-19 02:17:55.000,0.2,-0.115
2021-08-19 02:17:55.000,0.21,-0.085
2021-08-19 02:17:56.000,0.19,-0.08
2021-08-19 02:17:56.000,0.195,-0.06
2021-08-19 02:17:56.000,0.17,-0.035
2021-08-19 02:17:56.000,0.185,-0.025
2021-08-19 02:17:57.000,0.19,-0.015
2021-08-19 02:17:57.000,0.185,0.01
2021-08-19 02:17:57.000,0.155,0.03
2021-08-19 02:17:57.000,0.175,0.035
2021-08-19 02:17:58.000,0.16,0.06
2021-08-19 02:17:58.000,0.135,0.06
2021-08-19 02:17:58.000,0.145,0.06
2021-08-19 02:17:58.000,0.13,0.065
2021-08-19 02:17:59.000,0.125,0.06
2021-08-19 02:17:59.000,0.13,0.065
2021-08-19 02:17:59.000,0.125,0.05
2021-08-19 02:17:59.000,0.12,0.045
2021-08-19 02:18:00.000,0.135,0.055
2021-08-19 02:18:00.000,0.14,0.065
2021-08-19 02:18:00.000,0.115,0.065
2021-08-19 02:18:00.000,0.12,0.055
2021-08-19 02:18:00.000,0.11,0.045
2021-08-19 02:18:01.000,0.145,0.065
2021-08-19 02:18:01.000,0.14,0.04
2021-08-19 02:18:01.000,0.12,0.06
2021-08-19 02:18:01.000,0.13,0.025
2021-08-19 02:18:02.000,0.125,0.04
2021-08-19 02:18:02.000,0.135,0.045
2021-08-19 02:18:02.000,0.14,0.025
2021-08-19 02:18:02.000,0.145,0.035
2021-08-19 02:18:03.000,0.145,0.03
2021-08-19 02:18:03.000,0.15,0.025
2021-08-19 02:18:03.000,0.145,0.035
2021-08-19 02:18:03.000,0.145,0.025
2021-08-19 02:18:04.000,0.15,0.025
2021-08-19 02:18:04.000,0.14,0.03
2021-08-19 02:18:04.000,0.13,0.02
2021-08-19 02:18:04.000,0.125,0.025
2021-08-19 02:18:05.000,0.145,0.02
2021-08-19 02:18:05.000,0.13,0.02
2021-08-19 02:18:05.000,0.145,0.02
2021-08-19 02:18:05.000,0.15,0.015
2021-08-19 02:18:06.000,0.135,0.02
2021-08-19 02:18:06.000,0.14,-0.005
2021-08-19 02:18:06.000,0.155,0.005
2021-08-19 02:18:06.000,0.155,0.02
2021-08-19 02:18:06.000,0.16,0.015
2021-08-19 02:18:07.000,0.18,0.01
2021-08-19 02:18:07.000,0.155,0.02
2021-08-19 02:18:07.000,0.155,0.005
2021-08-19 02:18:07.000,0.145,0.02
2021-08-19 02:18:08.000,0.155,0.015
2021-08-19 02:18:08.000,0.145,0.015
2021-08-19 02:18:08.000,0.155,0.01
2021-08-19 02:18:08.000,0.135,0.015
2021-08-19 02:18:09.000,0.135,0.015
2021-08-19 02:18:09.000,0.15,0.0
2021-08-19 02:18:09.000,0.13,0.0
2021-08-19 02:18:09.000,0.145,0.005
2021-08-19 02:18:10.000,0.14,0.025
2021-08-19 02:18:10.000,0.135,0.005
2021-08-19 02:18:10.000,0.155,0.005
2021-08-19 02:18:10.000,0.13,0.015
2021-08-19 02:18:11.000,0.125,0.0
2021-08-19 02:18:11.000,0.14,0.01
2021-08-19 02:18:11.000,0.13,0.015
2021-08-19 02:18:11.000,0.125,0.005
2021-08-19 02:18:12.000,0.135,-0.01
2021-08-19 02:18:12.000,0.145,0.005
2021-08-19 02:18:12.000,0.125,0.0
2021-08-19 02:18:12.000,0.13,0.0
2021-08-19 02:18:12.000,0.125,0.03
2021-08-19 02:18:13.000,0.145,0.015
2021-08-19 02:18:13.000,0.13,0.0
2021-08-19 02:18:13.000,0.12,0.005
2021-08-19 02:18:13.000,0.12,0.015
2021-08-19 02:18:14.000,0.13,0.0
2021-08-19 02:18:14.000,0.12,0.0
2021-08-19 02:18:14.000,0.11,0.02
2021-08-19 02:18:14.000,0.13,0.0
2021-08-19 02:18:15.000,0.12,0.005
2021-08-19 02:18:15.000,0.135,-0.005
2021-08-19 02:18:15.000,0.105,-0.005
2021-08-19 02:18:15.000,0.11,0.0
2021-08-19 02:18:16.000,0.12,0.005
2021-08-19 02:18:16.000,0.115,-0.005
2021-08-19 02:18:16.000,0.1,-0.01
2021-08-19 02:18:16.000,0.09,-0.005
2021-08-19 02:18:17.000,0.115,0.0
2021-08-19 02:18:17.000,0.11,0.01
2021-08-19 02:18:17.000,0.125,0.005
2021-08-19 02:18:17.000,0.105,0.01
2021-08-19 02:18:18.000,0.12,0.0
2021-08-19 02:18:18.000,0.11,0.0
2021-08-19 02:18:18.000,0.1,0.005
2021-08-19 02:18:18.000,0.11,0.005
2021-08-19 02:18:18.000,0.115,0.02
2021-08-19 02:18:19.000,0.11,0.02
2021-08-19 02:18:19.000,0.13,0.04
2021-08-19 02:18:19.000,0.13,0.055
2021-08-19 02:18:19.000,0.115,0.075
2021-08-19 02:18:20.000,0.11,0.12
2021-08-19 02:18:20.000,0.12,0.145
2021-08-19 02:18:20.000,0.12,0.15
2021-08-19 02:18:20.000,0.12,0.175
2021-08-19 02:18:21.000,0.14,0.175
2021-08-19 02:18:21.000,0.18,0.17
2021-08-19 02:18:21.000,0.18,0.185
2021-08-19 02:18:21.000,0.215,0.16
2021-08-19 02:18:22.000,0.225,0.155
2021-08-19 02:18:22.000,0.215,0.175
2021-08-19 02:18:22.000,0.215,0.165
2021-08-19 02:18:22.000,0.195,0.18
2021-08-19 02:18:23.000,0.18,0.145
2021-08-19 02:18:23.000,0.155,0.11
2021-08-19 02:18:23.000,0.135,0.08
2021-08-19 02:18:23.000,0.11,0.055
2021-08-19 02:18:24.000,0.095,0.045
2021-08-19 02:18:24.000,0.065,0.025
2021-08-19 02:18:24.000,0.035,0.045
2021-08-19 02:18:24.000,0.025,0.045
2021-08-19 02:18:24.000,0.025,0.06
2021-08-19 02:18:25.000,0.03,0.045
2021-08-19 02:18:25.000,0.035,0.015
2021-08-19 02:18:25.000,0.035,0.02
2021-08-19 02:18:25.000,0.04,0.01
2021-08-19 02:18:26.000,0.05,-0.005
2021-08-19 02:18:26.000,0.03,-0.025
2021-08-19 02:18:26.000,0.035,-0.055
2021-08-19 02:18:26.000,0.045,-0.065
2021-08-19 02:18:27.000,0.045,-0.05
2021-08-19 02:18:27.000,0.07,-0.06
2021-08-19 02:18:27.000,0.095,-0.045
2021-08-19 02:18:27.000,0.12,-0.06
2021-08-19 02:18:28.000,0.105,-0.065
2021-08-19 02:18:28.000,0.105,-0.06
2021-08-19 02:18:28.000,0.1,-0.065
2021-08-19 02:18:28.000,0.09,-0.045
2021-08-19 02:18:29.000,0.1,-0.035
2021-08-19 02:18:29.000,0.1,-0.045
2021-08-19 02:18:29.000,0.075,-0.035
2021-08-19 02:18:29.000,0.07,-0.03
2021-08-19 02:18:30.000,0.095,-0.05
2021-08-19 02:18:30.000,0.08,-0.045
2021-08-19 02:18:30.000,0.075,-0.035
2021-08-19 02:18:30.000,0.055,-0.025
2021-08-19 02:18:30.000,0.085,0.02
2021-08-19 02:18:31.000,0.09,0.03
2021-08-19 02:18:31.000,0.075,0.06
2021-08-19 02:18:31.000,0.085,0.055
2021-08-19 02:18:31.000,0.07,0.175
2021-08-19 02:18:32.000,0.08,0.38
2021-08-19 02:18:32.000,0.075,0.61
2021-08-19 02:18:32.000,0.105,0.81
2021-08-19 02:18:32.000,0.13,0.895
2021-08-19 02:18:33.000,0.12,0.95
2021-08-19 02:18:33.000,0.035,0.91
2021-08-19 02:18:33.000,0.005,0.755
2021-08-19 02:18:33.000,-0.035,0.53
2021-08-19 02:18:34.000,-0.17,0.19
2021-08-19 02:18:34.000,-0.435,0.09
2021-08-19 02:18:34.000,-0.79,0.225
2021-08-19 02:18:34.000,-1.105,0.385
2021-08-19 02:18:35.000,-1.37,0.295
2021-08-19 02:18:35.000,-1.44,-0.005
2021-08-19 02:18:35.000,-1.425,-0.265
2021-08-19 02:18:35.000,-1.12,-0.42
2021-08-19 02:18:36.000,-0.655,-0.495
2021-08-19 02:18:36.000,-0.25,-0.445
2021-08-19 02:18:36.000,-0.04,-0.35
2021-08-19 02:18:36.000,-0.035,-0.26
2021-08-19 02:18:36.000,-0.065,-0.23
2021-08-19 02:18:37.000,-0.06,-0.21
2021-08-19 02:18:37.000,-0.06,-0.22
2021-08-19 02:18:37.000,-0.035,-0.225
2021-08-19 02:18:37.000,0.005,-0.21
2021-08-19 02:18:38.000,0.07,-0.2
2021-08-19 02:18:38.000,0.125,-0.205
2021-08-19 02:18:38.000,0.145,-0.205
2021-08-19 02:18:38.000,0.135,-0.22
2021-08-19 02:18:39.000,0.16,-0.2
2021-08-19 02:18:39.000,0.18,-0.205
2021-08-19 02:18:39.000,0.165,-0.205
2021-08-19 02:18:39.000,0.17,-0.215
2021-08-19 02:18:40.000,0.15,-0.205
2021-08-19 02:18:40.000,0.14,-0.205
2021-08-19 02:18:40.000,0.16,-0.205
2021-08-19 02:18:40.000,0.165,-0.21
2021-08-19 02:18:41.000,0.155,-0.19
2021-08-19 02:18:41.000,0.16,-0.195
2021-08-19 02:18:41.000,0.165,-0.21
2021-08-19 02:18:41.000,0.175,-0.21
2021-08-19 02:18:42.000,0.18,-0.18
2021-08-19 02:18:42.000,0.165,-0.2
2021-08-19 02:18:42.000,0.16,-0.2
2021-08-19 02:18:42.000,0.185,-0.21
2021-08-19 02:18:42.000,0.18,-0.215
2021-08-19 02:18:43.000,0.16,-0.22
2021-08-19 02:18:43.000,0.18,-0.205
2021-08-19 02:18:43.000,0.16,-0.24
2021-08-19 02:18:43.000,0.185,-0.235
2021-08-19 02:18:44.000,0.18,-0.25
2021-08-19 02:18:44.000,0.175,-0.245
2021-08-19 02:18:44.000,0.155,-0.275
2021-08-19 02:18:44.000,0.175,-0.25
2021-08-19 02:18:45.000,0.16,-0.265
2021-08-19 02:18:45.000,0.15,-0.265
2021-08-19 02:18:45.000,0.165,-0.285
2021-08-19 02:18:45.000,0.135,-0.265
2021-08-19 02:18:46.000,0.15,-0.28
2021-08-19 02:18:46.000,0.16,-0.28
2021-08-19 02:18:46.000,0.14,-0.285
2021-08-19 02:18:46.000,0.135,-0.27
2021-08-19 02:18:47.000,0.14,-0.285
2021-08-19 02:18:47.000,0.145,-0.255
2021-08-19 02:18:47.000,0.15,-0.265
2021-08-19 02:18:47.000,0.11,-0.265
2021-08-19 02:18:48.000,0.13,-0.26
2021-08-19 02:18:48.000,0.13,-0.24
2021-08-19 02:18:48.000,0.135,-0.235
2021-08-19 02:18:48.000,0.135,-0.225
2021-08-19 02:18:48.000,0.125,-0.205
2021-08-19 02:18:49.000,0.125,-0.18
2021-08-19 02:18:49.000,0.115,-0.2
2021-08-19 02:18:49.000,0.1,-0.17
2021-08-19 02:18:49.000,0.105,-0.14
2021-08-19 02:18:50.000,0.09,-0.13
2021-08-19 02:18:50.000,0.09,-0.11
2021-08-19 02:18:50.000,0.07,-0.12
2021-08-19 02:18:50.000,0.075,-0.1
2021-08-19 02:18:51.000,0.05,-0.07
2021-08-19 02:18:51.000,0.04,-0.055
2021-08-19 02:18:51.000,0.06,-0.08
2021-08-19 02:18:51.000,0.03,-0.08
2021-08-19 02:18:52.000,0.025,-0.09
2021-08-19 02:18:52.000,0.015,-0.085
2021-08-19 02:18:52.000,0.03,-0.075
2021-08-19 02:18:52.000,0.025,-0.075
2021-08-19 02:18:53.000,0.025,-0.08
2021-08-19 02:18:53.000,0.03,-0.095
2021-08-19 02:18:53.000,0.025,-0.095
2021-08-19 02:18:53.000,0.03,-0.085
2021-08-19 02:18:54.000,0.035,-0.09
2021-08-19 02:18:54.000,0.02,-0.1
2021-08-19 02:18:54.000,0.045,-0.1
2021-08-19 02:18:54.000,0.025,-0.1
2021-08-19 02:18:54.000,0.055,-0.115
2021-08-19 02:18:55.000,0.06,-0.115
2021-08-19 02:18:55.000,0.05,-0.115
2021-08-19 02:18:55.000,0.055,-0.09
2021-08-19 02:18:55.000,0.07,-0.09
2021-08-19 02:18:56.000,0.065,-0.1
2021-08-19 02:18:56.000,0.065,-0.115
2021-08-19 02:18:56.000,0.055,-0.095
2021-08-19 02:18:56.000,0.07,-0.1
2021-08-19 02:18:57.000,0.075,-0.115
2021-08-19 02:18:57.000,0.07,-0.12
2021-08-19 02:18:57.000,0.085,-0.1
2021-08-19 02:18:57.000,0.085,-0.09
2021-08-19 02:18:58.000,0.075,-0.095
2021-08-19 02:18:58.000,0.095,-0.125
2021-08-19 02:18:58.000,0.1,-0.105
2021-08-19 02:18:58.000,0.07,-0.105
2021-08-19 02:18:59.000,0.075,-0.09
2021-08-19 02:18:59.000,0.07,-0.1
2021-08-19 02:18:59.000,0.07,-0.09
2021-08-19 02:18:59.000,0.08,-0.1
2021-08-19 02:19:00.000,0.07,-0.095
2021-08-19 02:19:00.000,0.09,-0.11
2021-08-19 02:19:00.000,0.065,-0.12
2021-08-19 02:19:00.000,0.075,-0.11
2021-08-19 02:19:00.000,0.075,-0.115
2021-08-19 02:19:01.000,0.06,-0.12
2021-08-19 02:19:01.000,0.055,-0.12
2021-08-19 02:19:01.000,0.075,-0.11
2021-08-19 02:19:01.000,0.07,-0.09
2021-08-19 02:19:02.000,0.09,-0.105
2021-08-19 02:19:02.000,0.065,-0.12
2021-08-19 02:19:02.000,0.06,-0.105
2021-08-19 02:19:02.000,0.07,-0.115
2021-08-19 02:19:03.000,0.04,-0.105
2021-08-19 02:19:03.000,0.05,-0.1
2021-08-19 02:19:03.000,0.045,-0.125
2021-08-19 02:19:03.000,0.065,-0.11
2021-08-19 02:19:04.000,0.035,-0.105
2021-08-19 02:19:04.000,0.055,-0.095
2021-08-19 02:19:04.000,0.03,-0.1
2021-08-19 02:19:04.000,0.04,-0.115
2021-08-19 02:19:05.000,0.03,-0.1
2021-08-19 02:19:05.000,0.035,-0.105
2021-08-19 02:19:05.000,0.03,-0.1
2021-08-19 02:19:05.000,0.015,-0.12
2021-08-19 02:19:06.000,0.025,-0.095
2021-08-19 02:19:06.000,0.025,-0.12
2021-08-19 02:19:06.000,0.02,-0.105
2021-08-19 02:19:06.000,0.01,-0.1
2021-08-19 02:19:06.000,0.0,-0.12
2021-08-19 02:19:07.000,0.005,-0.1
2021-08-19 02:19:07.000,0.0,-0.11
2021-08-19 02:19:07.000,0.02,-0.105
2021-08-19 02:19:07.000,0.03,-0.12
2021-08-19 02:19:08.000,0.03,-0.12
2021-08-19 02:19:08.000,0.005,-0.11
2021-08-19 02:19:08.000,0.025,-0.1
2021-08-19 02:19:08.000,0.02,-0.1
2021-08-19 02:19:09.000,0.02,-0.125
2021-08-19 02:19:09.000,0.01,-0.115
2021-08-19 02:19:09.000,0.01,-0.095
2021-08-19 02:19:09.000,0.01,-0.105
2021-08-19 02:19:10.000,0.0,-0.12
2021-08-19 02:19:10.000,0.01,-0.095
2021-08-19 02:19:10.000,0.01,-0.105
2021-08-19 02:19:10.000,0.01,-0.09
2021-08-19 02:19:11.000,0.01,-0.045
2021-08-19 02:19:11.000,0.0,-0.035
2021-08-19 02:19:11.000,0.02,-0.005
2021-08-19 02:19:11.000,0.01,0.025
2021-08-19 02:19:12.000,0.03,0.04
2021-08-19 02:19:12.000,0.02,0.025
2021-08-19 02:19:12.000,0.015,0.035
2021-08-19 02:19:12.000,0.045,0.06
2021-08-19 02:19:12.000,0.055,0.06
2021-08-19 02:19:13.000,0.095,0.035
2021-08-19 02:19:13.000,0.11,0.04
2021-08-19 02:19:13.000,0.105,0.035
2021-08-19 02:19:13.000,0.11,0.06
2021-08-19 02:19:14.000,0.1,0.075
2021-08-19 02:19:14.000,0.075,0.06
2021-08-19 02:19:14.000,0.075,0.035
2021-08-19 02:19:14.000,0.07,0.01
2021-08-19 02:19:15.000,0.045,-0.055
2021-08-19 02:19:15.000,0.015,-0.05
2021-08-19 02:19:15.000,-0.005,-0.055
2021-08-19 02:19:15.000,-0.015,-0.055
2021-08-19 02:19:16.000,-0.04,-0.045
2021-08-19 02:19:16.000,-0.055,-0.035
2021-08-19 02:19:16.000,-0.06,-0.045
2021-08-19 02:19:16.000,-0.07,-0.065
2021-08-19 02:19:17.000,-0.075,-0.07
2021-08-19 02:19:17.000,-0.06,-0.085
2021-08-19 02:19:17.000,-0.06,-0.08
2021-08-19 02:19:17.000,-0.03,-0.12
2021-08-19 02:19:18.000,-0.03,-0.115
2021-08-19 02:19:18.000,-0.04,-0.145
2021-08-19 02:19:18.000,-0.035,-0.16
2021-08-19 02:19:18.000,-0.02,-0.155
2021-08-19 02:19:18.000,0.0,-0.145
2021-08-19 02:19:19.000,0.02,-0.145
2021-08-19 02:19:19.000,0.02,-0.14
2021-08-19 02:19:19.000,0.015,-0.14
2021-08-19 02:19:19.000,0.005,-0.14
2021-08-19 02:19:20.000,0.005,-0.145
2021-08-19 02:19:20.000,0.005,-0.15
2021-08-19 02:19:20.000,0.025,-0.15
2021-08-19 02:19:20.000,0.0,-0.135
2021-08-19 02:19:21.000,0.01,-0.135
2021-08-19 02:19:21.000,0.015,-0.145
2021-08-19 02:19:21.000,-0.005,-0.14
2021-08-19 02:19:21.000,0.01,-0.145
2021-08-19 02:19:22.000,0.02,-0.1
2021-08-19 02:19:22.000,-0.01,-0.06
2021-08-19 02:19:22.000,0.005,-0.06
2021-08-19 02:19:22.000,0.0,-0.045
2021-08-19 02:19:23.000,0.005,-0.045
2021-08-19 02:19:23.000,0.0,0.05
2021-08-19 02:19:23.000,0.0,0.28
2021-08-19 02:19:23.000,0.01,0.49
2021-08-19 02:19:24.000,0.035,0.71
2021-08-19 02:19:24.000,0.045,0.855
2021-08-19 02:19:24.000,0.02,0.93
2021-08-19 02:19:24.000,-0.045,0.91
2021-08-19 02:19:24.000,-0.07,0.84
2021-08-19 02:19:25.000,-0.11,0.63
2021-08-19 02:19:25.000,-0.22,0.33
2021-08-19 02:19:25.000,-0.445,0.195
2021-08-19 02:19:25.000,-0.795,0.26
2021-08-19 02:19:26.000,-1.095,0.34
2021-08-19 02:19:26.000,-1.305,0.165
2021-08-19 02:19:26.000,-1.37,-0.13
2021-08-19 02:19:26.000,-1.31,-0.395
2021-08-19 02:19:27.000,-1.06,-0.55
2021-08-19 02:19:27.000,-0.61,-0.61
2021-08-19 02:19:27.000,-0.27,-0.54
2021-08-19 02:19:27.000,-0.13,-0.435
2021-08-19 02:19:28.000,-0.1,-0.375
2021-08-19 02:19:28.000,-0.15,-0.33
2021-08-19 02:19:28.000,-0.165,-0.31
2021-08-19 02:19:28.000,-0.165,-0.31
2021-08-19 02:19:29.000,-0.14,-0.305
2021-08-19 02:19:29.000,-0.1,-0.325
2021-08-19 02:19:29.000,-0.015,-0.325
2021-08-19 02:19:29.000,0.015,-0.32
2021-08-19 02:19:30.000,0.05,-0.31
2021-08-19 02:19:30.000,0.04,-0.33
2021-08-19 02:19:30.000,0.065,-0.315
2021-08-19 02:19:30.000,0.05,-0.32
2021-08-19 02:19:30.000,0.05,-0.325
2021-08-19 02:19:31.000,0.07,-0.32
2021-08-19 02:19:31.000,0.07,-0.33
2021-08-19 02:19:31.000,0.065,-0.33
2021-08-19 02:19:31.000,0.07,-0.33
2021-08-19 02:19:32.000,0.06,-0.35
2021-08-19 02:19:32.000,0.07,-0.34
2021-08-19 02:19:32.000,0.065,-0.345
2021-08-19 02:19:32.000,0.06,-0.345
2021-08-19 02:19:33.000,0.075,-0.34
2021-08-19 02:19:33.000,0.075,-0.32
2021-08-19 02:19:33.000,0.075,-0.34
2021-08-19 02:19:33.000,0.085,-0.34
2021-08-19 02:19:34.000,0.085,-0.34
2021-08-19 02:19:34.000,0.055,-0.34
2021-08-19 02:19:34.000,0.09,-0.35
2021-08-19 02:19:34.000,0.07,-0.365
2021-08-19 02:19:35.000,0.065,-0.345
2021-08-19 02:19:35.000,0.085,-0.35
2021-08-19 02:19:35.000,0.075,-0.36
2021-08-19 02:19:35.000,0.08,-0.36
2021-08-19 02:19:36.000,0.085,-0.365
2021-08-19 02:19:36.000,0.075,-0.385
2021-08-19 02:19:36.000,0.08,-0.36
2021-08-19 02:19:36.000,0.07,-0.37
2021-08-19 02:19:36.000,0.065,-0.385
2021-08-19 02:19:37.000,0.085,-0.38
2021-08-19 02:19:37.000,0.05,-0.39
2021-08-19 02:19:37.000,0.085,-0.39
2021-08-19 02:19:37.000,0.07,-0.385
2021-08-19 02:19:38.000,0.085,-0.395
2021-08-19 02:19:38.000,0.065,-0.4
2021-08-19 02:19:38.000,0.075,-0.415
2021-08-19 02:19:38.000,0.055,-0.38
2021-08-19 02:19:39.000,0.065,-0.385
2021-08-19 02:19:39.000,0.06,-0.37
2021-08-19 02:19:39.000,0.05,-0.385
2021-08-19 02:19:39.000,0.05,-0.38
2021-08-19 02:19:40.000,0.05,-0.36
2021-08-19 02:19:40.000,0.025,-0.345
2021-08-19 02:19:40.000,0.02,-0.32
2021-08-19 02:19:40.000,0.02,-0.305
2021-08-19 02:19:41.000,0.02,-0.295
2021-08-19 02:19:41.000,0.005,-0.28
2021-08-19 02:19:41.000,0.005,-0.255
2021-08-19 02:19:41.000,0.035,-0.24
2021-08-19 02:19:42.000,0.005,-0.22
2021-08-19 02:19:42.000,-0.01,-0.215
2021-08-19 02:19:42.000,-0.01,-0.19
2021-08-19 02:19:42.000,-0.035,-0.2
2021-08-19 02:19:42.000,-0.03,-0.18
2021-08-19 02:19:43.000,-0.01,-0.165
2021-08-19 02:19:43.000,-0.02,-0.17
2021-08-19 02:19:43.000,-0.035,-0.165
2021-08-19 02:19:43.000,-0.025,-0.165
2021-08-19 02:19:44.000,-0.035,-0.17
2021-08-19 02:19:44.000,-0.025,-0.18
2021-08-19 02:19:44.000,-0.015,-0.16
2021-08-19 02:19:44.000,-0.045,-0.16
2021-08-19 02:19:45.000,-0.015,-0.165
2021-08-19 02:19:45.000,-0.025,-0.175
2021-08-19 02:19:45.000,-0.02,-0.16
2021-08-19 02:19:45.000,-0.035,-0.17
2021-08-19 02:19:46.000,-0.02,-0.18
2021-08-19 02:19:46.000,-0.015,-0.205
2021-08-19 02:19:46.000,-0.005,-0.21
2021-08-19 02:19:46.000,-0.005,-0.185
2021-08-19 02:19:47.000,0.01,-0.175
2021-08-19 02:19:47.000,0.0,-0.18
2021-08-19 02:19:47.000,0.0,-0.19
2021-08-19 02:19:47.000,0.0,-0.185
2021-08-19 02:19:48.000,-0.005,-0.195
2021-08-19 02:19:48.000,0.01,-0.19
2021-08-19 02:19:48.000,0.005,-0.185
2021-08-19 02:19:48.000,0.0,-0.195
2021-08-19 02:19:48.000,-0.005,-0.205
2021-08-19 02:19:49.000,-0.015,-0.205
2021-08-19 02:19:49.000,-0.01,-0.185
2021-08-19 02:19:49.000,0.0,-0.195
2021-08-19 02:19:49.000,0.01,-0.185
2021-08-19 02:19:50.000,0.005,-0.2
2021-08-19 02:19:50.000,-0.02,-0.195
2021-08-19 02:19:50.000,0.0,-0.195
2021-08-19 02:19:50.000,0.0,-0.195
2021-08-19 02:19:51.000,0.005,-0.205
2021-08-19 02:19:51.000,0.01,-0.205
2021-08-19 02:19:51.000,0.015,-0.225
2021-08-19 02:19:51.000,0.01,-0.195
2021-08-19 02:19:52.000,0.0,-0.195
2021-08-19 02:19:52.000,0.0,-0.19
2021-08-19 02:19:52.000,-0.005,-0.195
2021-08-19 02:19:52.000,0.0,-0.2
2021-08-19 02:19:53.000,-0.01,-0.195
2021-08-19 02:19:53.000,-0.01,-0.195
2021-08-19 02:19:53.000,0.0,-0.2
2021-08-19 02:19:53.000,0.0,-0.205
2021-08-19 02:19:54.000,-0.015,-0.21
2021-08-19 02:19:54.000,0.005,-0.195
2021-08-19 02:19:54.000,0.0,-0.19
2021-08-19 02:19:54.000,0.0,-0.195
2021-08-19 02:19:54.000,0.0,-0.185
2021-08-19 02:19:55.000,0.0,-0.205
2021-08-19 02:19:55.000,-0.005,-0.21
2021-08-19 02:19:55.000,0.0,-0.205
2021-08-19 02:19:55.000,0.0,-0.195
2021-08-19 02:19:56.000,-0.005,-0.21
2021-08-19 02:19:56.000,-0.025,-0.2
2021-08-19 02:19:56.000,-0.01,-0.21
2021-08-19 02:19:56.000,-0.04,-0.19
2021-08-19 02:19:57.000,0.0,-0.195
2021-08-19 02:19:57.000,-0.02,-0.185
2021-08-19 02:19:57.000,-0.02,-0.22
2021-08-19 02:19:57.000,-0.005,-0.18
2021-08-19 02:19:58.000,-0.015,-0.19
2021-08-19 02:19:58.000,-0.03,-0.21
2021-08-19 02:19:58.000,0.0,-0.21
2021-08-19 02:19:58.000,0.0,-0.215
2021-08-19 02:19:59.000,0.0,-0.185
2021-08-19 02:19:59.000,0.0,-0.19
2021-08-19 02:19:59.000,-0.01,-0.19
2021-08-19 02:19:59.000,0.0,-0.205
2021-08-19 02:20:00.000,-0.005,-0.2
2021-08-19 02:20:00.000,-0.005,-0.19
2021-08-19 02:20:00.000,0.005,-0.195
2021-08-19 02:20:00.000,-0.015,-0.175
2021-08-19 02:20:00.000,0.005,-0.195
2021-08-19 02:20:01.000,-0.015,-0.18
2021-08-19 02:20:01.000,-0.005,-0.18
2021-08-19 02:20:01.000,0.005,-0.185
2021-08-19 02:20:01.000,-0.015,-0.195
2021-08-19 02:20:02.000,0.0,-0.205
2021-08-19 02:20:02.000,0.0,-0.18
2021-08-19 02:20:02.000,-0.01,-0.195
2021-08-19 02:20:02.000,0.005,-0.18
2021-08-19 02:20:03.000,-0.015,-0.155
2021-08-19 02:20:03.000,0.005,-0.115
2021-08-19 02:20:03.000,0.005,-0.075
2021-08-19 02:20:03.000,-0.005,-0.055
2021-08-19 02:20:04.000,0.0,-0.045
2021-08-19 02:20:04.000,0.02,-0.01
2021-08-19 02:20:04.000,0.015,-0.015
2021-08-19 02:20:04.000,0.04,0.0
2021-08-19 02:20:05.000,0.06,-0.02
2021-08-19 02:20:05.000,0.075,-0.005
2021-08-19 02:20:05.000,0.075,-0.02
2021-08-19 02:20:05.000,0.115,-0.02
2021-08-19 02:20:06.000,0.105,-0.015
2021-08-19 02:20:06.000,0.095,0.0
2021-08-19 02:20:06.000,0.08,-0.02
2021-08-19 02:20:06.000,0.075,-0.015
2021-08-19 02:20:06.000,0.055,-0.04
2021-08-19 02:20:07.000,0.055,-0.105
2021-08-19 02:20:07.000,0.015,-0.14
2021-08-19 02:20:07.000,0.0,-0.15
2021-08-19 02:20:07.000,-0.03,-0.145
2021-08-19 02:20:08.000,-0.035,-0.13
2021-08-19 02:20:08.000,-0.045,-0.13
2021-08-19 02:20:08.000,-0.065,-0.135
2021-08-19 02:20:08.000,-0.09,-0.115
2021-08-19 02:20:09.000,-0.08,-0.145
2021-08-19 02:20:09.000,-0.065,-0.135
2021-08-19 02:20:09.000,-0.08,-0.16
2021-08-19 02:20:09.000,-0.07,-0.16
2021-08-19 02:17:52.444,0.235,-0.39
2021-08-19 02:17:52.448,0.225,-0.385
2021-08-19 02:17:52.452,0.205,-0.35
2021-08-19 02:17:52.456,0.21,-0.34
2021-08-19 02:17:52.460,0.22,-0.335
2021-08-19 02:17:52.464,0.2,-0.31
2021-08-19 02:17:52.468,0.205,-0.32
2021-08-19 02:17:52.472,0.205,-0.305
2021-08-19 02:17:52.476,0.195,-0.305
2021-08-19 02:17:52.480,0.185,-0.295
2021-08-19 02:17:52.484,0.185,-0.305
2021-08-19 02:17:52.488,0.185,-0.305
2021-08-19 02:17:52.492,0.2,-0.325
2021-08-19 02:17:52.496,0.2,-0.295
2021-08-19 02:17:52.500,0.185,-0.325
2021-08-19 02:17:52.504,0.175,-0.31
2021-08-19 02:17:52.508,0.21,-0.31
2021-08-19 02:17:52.512,0.205,-0.325
2021-08-19 02:17:52.516,0.195,-0.32
2021-08-19 02:17:52.520,0.2,-0.33
2021-08-19 02:17:52.524,0.2,-0.295
2021-08-19 02:17:52.528,0.205,-0.3
2021-08-19 02:17:52.532,0.2,-0.28
2021-08-19 02:17:52.536,0.195,-0.285
2021-08-19 02:17:52.540,0.19,-0.26
2021-08-19 02:17:52.544,0.21,-0.27
2021-08-19 02:17:52.548,0.225,-0.27
2021-08-19 02:17:52.552,0.235,-0.245
2021-08-19 02:17:52.556,0.24,-0.25
2021-08-19 02:17:52.560,0.275,-0.245
2021-08-19 02:17:52.564,0.29,-0.24
2021-08-19 02:17:52.568,0.27,-0.22
2021-08-19 02:17:52.572,0.275,-0.205
2021-08-19 02:17:52.576,0.25,-0.18
2021-08-19 02:17:52.580,0.255,-0.19
2021-08-19 02:17:52.584,0.245,-0.175
2021-08-19 02:17:52.588,0.245,-0.18
2021-08-19 02:17:52.592,0.23,-0.22
2021-08-19 02:17:52.596,0.235,-0.235
2021-08-19 02:17:52.600,0.25,-0.275
2021-08-19 02:17:52.604,0.245,-0.305
2021-08-19 02:17:52.608,0.285,-0.295
2021-08-19 02:17:52.612,0.305,-0.3
2021-08-19 02:17:52.616,0.335,-0.315
2021-08-19 02:17:52.620,0.33,-0.29
2021-08-19 02:17:52.624,0.325,-0.27
2021-08-19 02:17:52.628,0.305,-0.27
2021-08-19 02:17:52.632,0.35,-0.24
2021-08-19 02:17:52.636,0.34,-0.18
2021-08-19 02:17:52.640,0.33,-0.12
2021-08-19 02:17:52.644,0.355,-0.04
2021-08-19 02:17:52.648,0.355,0.1
2021-08-19 02:17:52.652,0.335,0.35
2021-08-19 02:17:52.656,0.29,0.65
2021-08-19 02:17:52.660,0.265,0.84
2021-08-19 02:17:52.664,0.24,0.905
2021-08-19 02:17:52.668,0.205,0.87
2021-08-19 02:17:52.672,0.145,0.7
2021-08-19 02:17:52.676,0.065,0.37
2021-08-19 02:17:52.680,-0.015,-0.04
2021-08-19 02:17:52.684,-0.135,-0.41
2021-08-19 02:17:52.688,-0.37,-0.535
2021-08-19 02:17:52.692,-0.71,-0.32
2021-08-19 02:17:52.696,-1.05,-0.02
2021-08-19 02:17:52.700,-1.31,0.05
2021-08-19 02:17:52.704,-1.42,-0.125
2021-08-19 02:17:52.708,-1.42,-0.385
2021-08-19 02:17:52.712,-1.305,-0.58
2021-08-19 02:17:52.716,-0.955,-0.745
2021-08-19 02:17:52.720,-0.505,-0.76
2021-08-19 02:17:52.724,-0.135,-0.7
2021-08-19 02:17:52.728,0.015,-0.58
2021-08-19 02:17:52.732,0.065,-0.49
2021-08-19 02:17:52.736,0.05,-0.455
2021-08-19 02:17:52.740,0.03,-0.445
2021-08-19 02:17:52.744,0.03,-0.44
2021-08-19 02:17:52.748,0.07,-0.42
2021-08-19 02:17:52.752,0.12,-0.445
2021-08-19 02:17:52.756,0.185,-0.43
2021-08-19 02:17:52.760,0.245,-0.415
2021-08-19 02:17:52.764,0.28,-0.41
2021-08-19 02:17:52.768,0.265,-0.4
2021-08-19 02:17:52.772,0.265,-0.39
2021-08-19 02:17:52.776,0.25,-0.39
2021-08-19 02:17:52.780,0.26,-0.38
2021-08-19 02:17:52.784,0.28,-0.395
2021-08-19 02:17:52.788,0.275,-0.42
2021-08-19 02:17:52.792,0.295,-0.425
2021-08-19 02:17:52.796,0.295,-0.465
2021-08-19 02:17:52.800,0.35,-0.465
2021-08-19 02:17:52.804,0.37,-0.47
2021-08-19 02:17:52.808,0.4,-0.48
2021-08-19 02:17:52.812,0.395,-0.475
2021-08-19 02:17:52.816,0.38,-0.485
2021-08-19 02:17:52.820,0.39,-0.455
2021-08-19 02:17:52.824,0.405,-0.48
2021-08-19 02:17:52.828,0.425,-0.44
2021-08-19 02:17:52.832,0.435,-0.44
2021-08-19 02:17:52.836,0.425,-0.44
2021-08-19 02:17:52.840,0.4,-0.435
2021-08-19 02:17:52.844,0.375,-0.44
2021-08-19 02:17:52.848,0.34,-0.45
2021-08-19 02:17:52.852,0.295,-0.465
2021-08-19 02:17:52.856,0.285,-0.48
2021-08-19 02:17:52.860,0.255,-0.475
2021-08-19 02:17:52.864,0.23,-0.485
2021-08-19 02:17:52.868,0.25,-0.46
2021-08-19 02:17:52.872,0.235,-0.47
2021-08-19 02:17:52.876,0.24,-0.455
2021-08-19 02:17:52.880,0.24,-0.465
2021-08-19 02:17:52.884,0.26,-0.45
2021-08-19 02:17:52.888,0.27,-0.435
2021-08-19 02:17:52.892,0.265,-0.45
2021-08-19 02:17:52.896,0.285,-0.44
2021-08-19 02:17:52.900,0.31,-0.41
2021-08-19 02:17:52.904,0.315,-0.42
2021-08-19 02:17:52.908,0.31,-0.4
2021-08-19 02:17:52.912,0.33,-0.38
2021-08-19 02:17:52.916,0.33,-0.35
2021-08-19 02:17:52.920,0.36,-0.33
2021-08-19 02:17:52.924,0.35,-0.355
2021-08-19 02:17:52.928,0.33,-0.345
2021-08-19 02:17:52.932,0.325,-0.35
2021-08-19 02:17:52.936,0.34,-0.345
2021-08-19 02:17:52.940,0.37,-0.33
2021-08-19 02:17:52.944,0.34,-0.32
2021-08-19 02:17:52.948,0.345,-0.29
2021-08-19 02:17:52.952,0.345,-0.29
2021-08-19 02:17:52.956,0.335,-0.26
2021-08-19 02:17:52.960,0.325,-0.25
2021-08-19 02:17:52.964,0.33,-0.25
2021-08-19 02:17:52.968,0.325,-0.225
2021-08-19 02:17:52.972,0.32,-0.195
2021-08-19 02:17:52.976,0.32,-0.165
2021-08-19 02:17:52.980,0.345,-0.11
2021-08-19 02:17:52.984,0.35,0.0
2021-08-19 02:17:52.988,0.355,0.13
2021-08-19 02:17:52.992,0.345,0.265
2021-08-19 02:17:52.996,0.34,0.395
2021-08-19 02:17:53.000,0.365,0.55
2021-08-19 02:17:53.004,0.405,0.63
2021-08-19 02:17:53.008,0.435,0.565
2021-08-19 02:17:53.012,0.41,0.315
2021-08-19 02:17:53.016,0.315,-0.02
2021-08-19 02:17:53.020,0.145,-0.34
2021-08-19 02:17:53.024,-0.14,-0.53
2021-08-19 02:17:53.028,-0.5,-0.515
2021-08-19 02:17:53.032,-0.875,-0.33
2021-08-19 02:17:53.036,-1.215,-0.105
2021-08-19 02:17:53.040,-1.46,-0.015
2021-08-19 02:17:53.044,-1.565,-0.11
2021-08-19 02:17:53.048,-1.53,-0.34
2021-08-19 02:17:53.052,-1.35,-0.605
2021-08-19 02:17:53.056,-0.98,-0.74
2021-08-19 02:17:53.060,-0.59,-0.715
2021-08-19 02:17:53.064,-0.245,-0.63
2021-08-19 02:17:53.068,-0.07,-0.51
2021-08-19 02:17:53.072,0.005,-0.425
2021-08-19 02:17:53.076,-0.005,-0.38
2021-08-19 02:17:53.080,-0.035,-0.39
2021-08-19 02:17:53.084,0.0,-0.39
2021-08-19 02:17:53.088,0.06,-0.38
2021-08-19 02:17:53.092,0.14,-0.38
2021-08-19 02:17:53.096,0.21,-0.39
2021-08-19 02:17:53.100,0.235,-0.395
2021-08-19 02:17:53.104,0.285,-0.415
2021-08-19 02:17:53.108,0.29,-0.41
2021-08-19 02:17:53.112,0.3,-0.43
2021-08-19 02:17:53.116,0.3,-0.41
2021-08-19 02:17:53.120,0.29,-0.405
2021-08-19 02:17:53.124,0.285,-0.425
2021-08-19 02:17:53.128,0.295,-0.425
2021-08-19 02:17:53.132,0.285,-0.4
2021-08-19 02:17:53.136,0.275,-0.4
2021-08-19 02:17:53.140,0.32,-0.38
2021-08-19 02:17:53.144,0.285,-0.37
2021-08-19 02:17:53.148,0.29,-0.38
2021-08-19 02:17:53.152,0.315,-0.375
2021-08-19 02:17:53.156,0.34,-0.37
2021-08-19 02:17:53.160,0.36,-0.37
2021-08-19 02:17:53.164,0.39,-0.365
2021-08-19 02:17:53.168,0.41,-0.355
2021-08-19 02:17:53.172,0.45,-0.365
2021-08-19 02:17:53.176,0.45,-0.385
2021-08-19 02:17:53.180,0.45,-0.37
2021-08-19 02:17:53.184,0.455,-0.37
2021-08-19 02:17:53.188,0.455,-0.36
2021-08-19 02:17:53.192,0.46,-0.375
2021-08-19 02:17:53.196,0.405,-0.38
2021-08-19 02:17:53.200,0.41,-0.38
2021-08-19 02:17:53.204,0.365,-0.365
2021-08-19 02:17:53.208,0.35,-0.36
2021-08-19 02:17:53.212,0.315,-0.36
2021-08-19 02:17:53.216,0.295,-0.37
2021-08-19 02:17:53.220,0.29,-0.355
2021-08-19 02:17:53.224,0.26,-0.36
2021-08-19 02:17:53.228,0.265,-0.34
2021-08-19 02:17:53.232,0.285,-0.275
2021-08-19 02:17:53.236,0.295,-0.3
2021-08-19 02:17:53.240,0.29,-0.27
2021-08-19 02:17:53.244,0.31,-0.26
2021-08-19 02:17:53.248,0.32,-0.245
2021-08-19 02:17:53.252,0.3,-0.215
2021-08-19 02:17:53.256,0.335,-0.2
2021-08-19 02:17:53.260,0.345,-0.17
2021-08-19 02:17:53.264,0.365,-0.16
2021-08-19 02:17:53.268,0.355,-0.155
2021-08-19 02:17:53.272,0.38,-0.155
2021-08-19 02:17:53.276,0.37,-0.155
2021-08-19 02:17:53.280,0.39,-0.125
2021-08-19 02:17:53.284,0.355,-0.15
2021-08-19 02:17:53.288,0.37,-0.17
2021-08-19 02:17:53.292,0.34,-0.2
2021-08-19 02:17:53.296,0.35,-0.22
2021-08-19 02:17:53.300,0.31,-0.23
2021-08-19 02:17:53.304,0.305,-0.24
2021-08-19 02:17:53.308,0.31,-0.22
2021-08-19 02:17:53.312,0.28,-0.22
2021-08-19 02:17:53.316,0.27,-0.2
2021-08-19 02:17:53.320,0.255,-0.19
2021-08-19 02:17:53.324,0.25,-0.21
2021-08-19 02:17:53.328,0.225,-0.21
2021-08-19 02:17:53.332,0.2,-0.22
2021-08-19 02:17:53.336,0.185,-0.215
2021-08-19 02:17:53.340,0.21,-0.22
2021-08-19 02:17:53.344,0.24,-0.205
2021-08-19 02:17:53.348,0.275,-0.175
2021-08-19 02:17:53.352,0.275,-0.2
2021-08-19 02:17:53.356,0.295,-0.22
2021-08-19 02:17:53.360,0.28,-0.235
2021-08-19 02:17:53.364,0.3,-0.245
2021-08-19 02:17:53.368,0.29,-0.24
2021-08-19 02:17:53.372,0.27,-0.23
2021-08-19 02:17:53.376,0.26,-0.25
2021-08-19 02:17:53.380,0.225,-0.255
2021-08-19 02:17:53.384,0.175,-0.255
2021-08-19 02:17:53.388,0.125,-0.265
2021-08-19 02:17:53.392,0.085,-0.285
2021-08-19 02:17:53.396,0.075,-0.28
2021-08-19 02:17:53.400,0.095,-0.29
2021-08-19 02:17:53.404,0.09,-0.3
2021-08-19 02:17:53.408,0.075,-0.3
2021-08-19 02:17:53.412,0.07,-0.3
2021-08-19 02:17:53.416,0.09,-0.31
2021-08-19 02:17:53.420,0.08,-0.305
2021-08-19 02:17:53.424,0.07,-0.31
2021-08-19 02:17:53.428,0.09,-0.305
2021-08-19 02:17:53.432,0.08,-0.3
2021-08-19 02:17:53.436,0.08,-0.265
2021-08-19 02:17:53.440,0.105,-0.27
2021-08-19 02:17:53.444,0.11,-0.245
2021-08-19 02:17:53.448,0.1,-0.21
2021-08-19 02:17:53.452,0.105,-0.21
2021-08-19 02:17:53.456,0.13,-0.21
2021-08-19 02:17:53.460,0.145,-0.2
2021-08-19 02:17:53.464,0.14,-0.21
2021-08-19 02:17:53.468,0.155,-0.205
2021-08-19 02:17:53.472,0.165,-0.225
2021-08-19 02:17:53.476,0.18,-0.23
2021-08-19 02:17:53.480,0.18,-0.24
2021-08-19 02:17:53.484,0.18,-0.24
2021-08-19 02:17:53.488,0.17,-0.22
2021-08-19 02:17:53.492,0.18,-0.205
2021-08-19 02:17:53.496,0.145,-0.185
2021-08-19 02:17:53.500,0.14,-0.195
2021-08-19 02:17:53.504,0.15,-0.21
2021-08-19 02:17:53.508,0.14,-0.19
2021-08-19 02:17:53.512,0.12,-0.22
2021-08-19 02:17:53.516,0.115,-0.215
2021-08-19 02:17:53.520,0.095,-0.2
2021-08-19 02:17:53.524,0.11,-0.185
2021-08-19 02:17:53.528,0.14,-0.16
2021-08-19 02:17:53.532,0.155,-0.135
2021-08-19 02:17:53.536,0.21,-0.14
2021-08-19 02:17:53.540,0.255,-0.15
2021-08-19 02:17:53.544,0.28,-0.16
2021-08-19 02:17:53.548,0.265,-0.19
2021-08-19 02:17:53.552,0.285,-0.215
2021-08-19 02:17:53.556,0.245,-0.24
2021-08-19 02:17:53.560,0.205,-0.255
2021-08-19 02:17:53.564,0.165,-0.275
2021-08-19 02:17:53.568,0.145,-0.27
2021-08-19 02:17:53.572,0.12,-0.29
2021-08-19 02:17:53.576,0.085,-0.28
2021-08-19 02:17:53.580,0.07,-0.285
2021-08-19 02:17:53.584,0.06,-0.275
2021-08-19 02:17:53.588,0.065,-0.285
2021-08-19 02:17:53.592,0.065,-0.3
2021-08-19 02:17:53.596,0.08,-0.29
2021-08-19 02:17:53.600,0.065,-0.285
2021-08-19 02:17:53.604,0.075,-0.285
2021-08-19 02:17:53.608,0.085,-0.285
2021-08-19 02:17:53.612,0.085,-0.295
2021-08-19 02:17:53.616,0.085,-0.3
2021-08-19 02:17:53.620,0.095,-0.28
2021-08-19 02:17:53.624,0.08,-0.295
2021-08-19 02:17:53.628,0.07,-0.29
2021-08-19 02:17:53.632,0.07,-0.295
2021-08-19 02:17:53.636,0.075,-0.27
2021-08-19 02:17:53.640,0.075,-0.275
2021-08-19 02:17:53.644,0.105,-0.235
2021-08-19 02:17:53.648,0.095,-0.22
2021-08-19 02:17:53.652,0.09,-0.205
2021-08-19 02:17:53.656,0.09,-0.2
2021-08-19 02:17:53.660,0.09,-0.22
2021-08-19 02:17:53.664,0.11,-0.19
2021-08-19 02:17:53.668,0.115,-0.15
2021-08-19 02:17:53.672,0.12,-0.13
2021-08-19 02:17:53.676,0.125,-0.11
2021-08-19 02:17:53.680,0.135,-0.065
2021-08-19 02:17:53.684,0.145,-0.015
2021-08-19 02:17:53.688,0.11,0.0
2021-08-19 02:17:53.692,0.12,0.1
2021-08-19 02:17:53.696,0.125,0.31
2021-08-19 02:17:53.700,0.12,0.595
2021-08-19 02:17:53.704,0.14,0.855
2021-08-19 02:17:53.708,0.165,1.04
2021-08-19 02:17:53.712,0.13,1.16
2021-08-19 02:17:53.716,0.1,1.185
2021-08-19 02:17:53.720,0.06,1.1
2021-08-19 02:17:53.724,0.03,0.885
2021-08-19 02:17:53.728,-0.01,0.5
2021-08-19 02:17:53.732,-0.13,0.105
2021-08-19 02:17:53.736,-0.345,0.015
2021-08-19 02:17:53.740,-0.64,0.21
2021-08-19 02:17:53.744,-0.89,0.29
2021-08-19 02:17:53.748,-1.05,0.09
2021-08-19 02:17:53.752,-1.085,-0.23
2021-08-19 02:17:53.756,-1.035,-0.515
2021-08-19 02:17:53.760,-0.78,-0.635
2021-08-19 02:17:53.764,-0.43,-0.685
2021-08-19 02:17:53.768,-0.145,-0.635
2021-08-19 02:17:53.772,-0.04,-0.535
2021-08-19 02:17:53.776,-0.07,-0.44
2021-08-19 02:17:53.780,-0.095,-0.385
2021-08-19 02:17:53.784,-0.13,-0.39
2021-08-19 02:17:53.788,-0.12,-0.415
2021-08-19 02:17:53.792,-0.115,-0.425
2021-08-19 02:17:53.796,-0.07,-0.415
2021-08-19 02:17:53.800,-0.01,-0.425
2021-08-19 02:17:53.804,0.025,-0.415
2021-08-19 02:17:53.808,0.05,-0.43
2021-08-19 02:17:53.812,0.08,-0.415
2021-08-19 02:17:53.816,0.11,-0.435
2021-08-19 02:17:53.820,0.1,-0.435
2021-08-19 02:17:53.824,0.1,-0.45
2021-08-19 02:17:53.828,0.1,-0.45
2021-08-19 02:17:53.832,0.09,-0.44
2021-08-19 02:17:53.836,0.12,-0.43
2021-08-19 02:17:53.840,0.105,-0.415
2021-08-19 02:17:53.844,0.095,-0.415
2021-08-19 02:17:53.848,0.115,-0.385
2021-08-19 02:17:53.852,0.16,-0.385
2021-08-19 02:17:53.856,0.115,-0.385
2021-08-19 02:17:53.860,0.155,-0.345
2021-08-19 02:17:53.864,0.14,-0.38
2021-08-19 02:17:53.868,0.13,-0.36
2021-08-19 02:17:53.872,0.13,-0.36
2021-08-19 02:17:53.876,0.14,-0.36
2021-08-19 02:17:53.880,0.115,-0.375
2021-08-19 02:17:53.884,0.125,-0.38
2021-08-19 02:17:53.888,0.14,-0.36
2021-08-19 02:17:53.892,0.145,-0.37
2021-08-19 02:17:53.896,0.165,-0.36
2021-08-19 02:17:53.900,0.145,-0.375
2021-08-19 02:17:53.904,0.165,-0.365
2021-08-19 02:17:53.908,0.15,-0.36
2021-08-19 02:17:53.912,0.155,-0.345
2021-08-19 02:17:53.916,0.145,-0.335
2021-08-19 02:17:53.920,0.135,-0.28
2021-08-19 02:17:53.924,0.125,-0.28
2021-08-19 02:17:53.928,0.145,-0.26
2021-08-19 02:17:53.932,0.16,-0.28
2021-08-19 02:17:53.936,0.16,-0.3
2021-08-19 02:17:53.940,0.2,-0.32
2021-08-19 02:17:53.944,0.245,-0.335
2021-08-19 02:17:53.948,0.26,-0.345
2021-08-19 02:17:53.952,0.27,-0.365
2021-08-19 02:17:53.956,0.265,-0.38
2021-08-19 02:17:53.960,0.245,-0.415
2021-08-19 02:17:53.964,0.215,-0.43
2021-08-19 02:17:53.968,0.185,-0.445
2021-08-19 02:17:53.972,0.145,-0.425
2021-08-19 02:17:53.976,0.105,-0.435
2021-08-19 02:17:53.980,0.09,-0.425
2021-08-19 02:17:53.984,0.075,-0.445
2021-08-19 02:17:53.988,0.07,-0.43
2021-08-19 02:17:53.992,0.065,-0.445
2021-08-19 02:17:53.996,0.055,-0.41
2021-08-19 02:17:54.000,0.065,-0.4
2021-08-19 02:17:54.004,0.05,-0.375
2021-08-19 02:17:54.008,0.045,-0.365
2021-08-19 02:17:54.012,0.06,-0.335
2021-08-19 02:17:54.016,0.04,-0.315
2021-08-19 02:17:54.020,0.055,-0.295
2021-08-19 02:17:54.024,0.075,-0.27
2021-08-19 02:17:54.028,0.075,-0.23
2021-08-19 02:17:54.032,0.07,-0.19
2021-08-19 02:17:54.036,0.07,-0.165
2021-08-19 02:17:54.040,0.07,-0.135
2021-08-19 02:17:54.044,0.085,-0.1
2021-08-19 02:17:54.048,0.08,-0.085
2021-08-19 02:17:54.052,0.075,-0.075
2021-08-19 02:17:54.056,0.09,-0.06
2021-08-19 02:17:54.060,0.1,-0.055
2021-08-19 02:17:54.064,0.09,-0.05
2021-08-19 02:17:54.068,0.11,-0.04
2021-08-19 02:17:54.072,0.105,-0.03
2021-08-19 02:17:54.076,0.11,-0.055
2021-08-19 02:17:54.080,0.13,-0.045
2021-08-19 02:17:54.084,0.11,-0.075
2021-08-19 02:17:54.088,0.13,-0.065
2021-08-19 02:17:54.092,0.11,-0.07
2021-08-19 02:17:54.096,0.12,-0.035
2021-08-19 02:17:54.100,0.115,-0.03
2021-08-19 02:17:54.104,0.135,-0.03
2021-08-19 02:17:54.108,0.115,-0.045
2021-08-19 02:17:54.112,0.125,-0.03
2021-08-19 02:17:54.116,0.11,-0.005
2021-08-19 02:17:54.120,0.13,0.015
2021-08-19 02:17:54.124,0.16,0.02
2021-08-19 02:17:54.128,0.16,0.035
2021-08-19 02:17:54.132,0.17,0.025
2021-08-19 02:17:54.136,0.18,0.015
2021-08-19 02:17:54.140,0.21,0.015
2021-08-19 02:17:54.144,0.215,-0.01
2021-08-19 02:17:54.148,0.215,-0.02
2021-08-19 02:17:54.152,0.215,-0.04
2021-08-19 02:17:54.156,0.195,-0.065
2021-08-19 02:17:54.160,0.16,-0.08
2021-08-19 02:17:54.164,0.145,-0.1
2021-08-19 02:17:54.168,0.105,-0.135
2021-08-19 02:17:54.172,0.08,-0.155
2021-08-19 02:17:54.176,0.04,-0.14
2021-08-19 02:17:54.180,0.04,-0.15
2021-08-19 02:17:54.184,0.04,-0.145
2021-08-19 02:17:54.188,0.03,-0.095
2021-08-19 02:17:54.192,0.035,-0.02
2021-08-19 02:17:54.196,0.015,0.05
2021-08-19 02:17:54.200,0.02,0.14
2021-08-19 02:17:54.204,0.03,0.265
2021-08-19 02:17:54.208,0.03,0.435
2021-08-19 02:17:54.212,0.045,0.54
2021-08-19 02:17:54.216,0.09,0.59
2021-08-19 02:17:54.220,0.115,0.52
2021-08-19 02:17:54.224,0.08,0.35
2021-08-19 02:17:54.228,0.045,0.105
2021-08-19 02:17:54.232,-0.015,-0.18
2021-08-19 02:17:54.236,-0.055,-0.5
2021-08-19 02:17:54.240,-0.12,-0.845
2021-08-19 02:17:54.244,-0.195,-1.025
2021-08-19 02:17:54.248,-0.3,-0.93
2021-08-19 02:17:54.252,-0.345,-0.735
2021-08-19 02:17:54.256,-0.355,-0.7
2021-08-19 02:17:54.260,-0.325,-0.835
2021-08-19 02:17:54.264,-0.235,-1.035
2021-08-19 02:17:54.268,-0.07,-1.195
2021-08-19 02:17:54.272,0.23,-1.26
2021-08-19 02:17:54.276,0.58,-1.265
2021-08-19 02:17:54.280,0.78,-1.16
2021-08-19 02:17:54.284,0.82,-0.97
2021-08-19 02:17:54.288,0.745,-0.85
2021-08-19 02:17:54.292,0.69,-0.725
2021-08-19 02:17:54.296,0.67,-0.655
2021-08-19 02:17:54.300,0.67,-0.605
2021-08-19 02:17:54.304,0.74,-0.555
2021-08-19 02:17:54.308,0.79,-0.495
2021-08-19 02:17:54.312,0.865,-0.43
2021-08-19 02:17:54.316,0.92,-0.39
2021-08-19 02:17:54.320,0.93,-0.35
2021-08-19 02:17:54.324,0.95,-0.305
2021-08-19 02:17:54.328,0.935,-0.24
2021-08-19 02:17:54.332,0.935,-0.185
2021-08-19 02:17:54.336,0.905,-0.145
2021-08-19 02:17:54.340,0.865,-0.115
2021-08-19 02:17:54.344,0.76,-0.15
2021-08-19 02:17:54.348,0.64,-0.15
2021-08-19 02:17:54.352,0.48,-0.175
2021-08-19 02:17:54.356,0.29,-0.195
2021-08-19 02:17:54.360,0.135,-0.22
2021-08-19 02:17:54.364,0.04,-0.255
2021-08-19 02:17:54.368,-0.04,-0.255
2021-08-19 02:17:54.372,-0.065,-0.25
2021-08-19 02:17:54.376,-0.085,-0.245
2021-08-19 02:17:54.380,-0.14,-0.26
2021-08-19 02:17:54.384,-0.15,-0.25
2021-08-19 02:17:54.388,-0.16,-0.26
2021-08-19 02:17:54.392,-0.195,-0.225
2021-08-19 02:17:54.396,-0.2,-0.23
2021-08-19 02:17:54.400,-0.22,-0.225
2021-08-19 02:17:54.404,-0.22,-0.18
2021-08-19 02:17:54.408,-0.235,-0.145
2021-08-19 02:17:54.412,-0.235,-0.13
2021-08-19 02:17:54.416,-0.23,-0.13
2021-08-19 02:17:54.420,-0.235,-0.105
2021-08-19 02:17:54.424,-0.25,-0.09
2021-08-19 02:17:54.428,-0.25,-0.08
2021-08-19 02:17:54.432,-0.235,-0.07
2021-08-19 02:17:54.436,-0.24,-0.06
2021-08-19 02:17:54.440,-0.235,-0.045
2021-08-19 02:17:54.444,-0.23,-0.03
2021-08-19 02:17:54.448,-0.215,-0.03
2021-08-19 02:17:54.452,-0.215,-0.02
2021-08-19 02:17:54.456,-0.21,-0.035
2021-08-19 02:17:54.460,-0.235,-0.01
2021-08-19 02:17:54.464,-0.23,-0.025
2021-08-19 02:17:54.468,-0.215,-0.02
2021-08-19 02:17:54.472,-0.235,0.0
2021-08-19 02:17:54.476,-0.23,0.015
2021-08-19 02:17:54.480,-0.23,0.01
2021-08-19 02:17:54.484,-0.25,0.025
2021-08-19 02:17:54.488,-0.275,0.045
2021-08-19 02:17:54.492,-0.245,0.065
2021-08-19 02:17:54.496,-0.265,0.11
2021-08-19 02:17:54.500,-0.265,0.11
2021-08-19 02:17:54.504,-0.245,0.165
2021-08-19 02:17:54.508,-0.285,0.185
2021-08-19 02:17:54.512,-0.275,0.22
2021-08-19 02:17:54.516,-0.295,0.245
2021-08-19 02:17:54.520,-0.3,0.27
2021-08-19 02:17:54.524,-0.295,0.305
2021-08-19 02:17:54.528,-0.26,0.33
2021-08-19 02:17:54.532,-0.24,0.34
2021-08-19 02:17:54.536,-0.215,0.335
2021-08-19 02:17:54.540,-0.205,0.345
2021-08-19 02:17:54.544,-0.17,0.325
2021-08-19 02:17:54.548,-0.2,0.295
2021-08-19 02:17:54.552,-0.21,0.265
2021-08-19 02:17:54.556,-0.25,0.24
2021-08-19 02:17:54.560,-0.27,0.205
2021-08-19 02:17:54.564,-0.275,0.16
2021-08-19 02:17:54.568,-0.275,0.125
2021-08-19 02:17:54.572,-0.265,0.105
2021-08-19 02:17:54.576,-0.28,0.075
2021-08-19 02:17:54.580,-0.28,0.09
2021-08-19 02:17:54.584,-0.25,0.065
2021-08-19 02:17:54.588,-0.25,0.07
2021-08-19 02:17:54.592,-0.23,0.055
2021-08-19 02:17:54.596,-0.235,0.05
2021-08-19 02:17:54.600,-0.23,0.07
2021-08-19 02:17:54.604,-0.205,0.07
2021-08-19 02:17:54.608,-0.18,0.08
2021-08-19 02:17:54.612,-0.165,0.1
2021-08-19 02:17:54.616,-0.135,0.075
2021-08-19 02:17:54.620,-0.105,0.085
2021-08-19 02:17:54.624,-0.08,0.085
2021-08-19 02:17:54.628,-0.04,0.055
2021-08-19 02:17:54.632,-0.03,0.09
2021-08-19 02:17:54.636,-0.02,0.06
2021-08-19 02:17:54.640,-0.01,0.05
2021-08-19 02:17:54.644,0.01,0.035
2021-08-19 02:17:54.648,0.04,0.005
2021-08-19 02:17:54.652,0.04,0.015
2021-08-19 02:17:54.656,0.095,0.0
2021-08-19 02:17:54.660,0.07,0.005
2021-08-19 02:17:54.664,0.1,0.01
2021-08-19 02:17:54.668,0.095,-0.025
2021-08-19 02:17:54.672,0.085,-0.06
2021-08-19 02:17:54.676,0.115,-0.07
2021-08-19 02:17:54.680,0.115,-0.095
2021-08-19 02:17:54.684,0.105,-0.11
2021-08-19 02:17:54.688,0.125,-0.14
2021-08-19 02:17:54.692,0.125,-0.165
2021-08-19 02:17:54.696,0.135,-0.185
2021-08-19 02:17:54.700,0.14,-0.22
2021-08-19 02:17:54.704,0.14,-0.24
2021-08-19 02:17:54.708,0.125,-0.245
2021-08-19 02:17:54.712,0.115,-0.24
2021-08-19 02:17:54.716,0.105,-0.235
2021-08-19 02:17:54.720,0.13,-0.225
2021-08-19 02:17:54.724,0.095,-0.195
2021-08-19 02:17:54.728,0.095,-0.17
2021-08-19 02:17:54.732,0.1,-0.13
2021-08-19 02:17:54.736,0.1,-0.105
2021-08-19 02:17:54.740,0.125,-0.075
2021-08-19 02:17:54.744,0.13,-0.09
2021-08-19 02:17:54.748,0.125,-0.065
2021-08-19 02:17:54.752,0.135,-0.11
2021-08-19 02:17:54.756,0.115,-0.08
2021-08-19 02:17:54.760,0.11,-0.125
2021-08-19 02:17:54.764,0.1,-0.11
2021-08-19 02:17:54.768,0.095,-0.16
2021-08-19 02:17:54.772,0.085,-0.165
2021-08-19 02:17:54.776,0.09,-0.18
2021-08-19 02:17:54.780,0.075,-0.19
2021-08-19 02:17:54.784,0.08,-0.19
2021-08-19 02:17:54.788,0.085,-0.205
2021-08-19 02:17:54.792,0.09,-0.195
2021-08-19 02:17:54.796,0.085,-0.18
2021-08-19 02:17:54.800,0.08,-0.18
2021-08-19 02:17:54.804,0.08,-0.19
2021-08-19 02:17:54.808,0.07,-0.17
2021-08-19 02:17:54.812,0.06,-0.165
2021-08-19 02:17:54.816,0.085,-0.14
2021-08-19 02:17:54.820,0.11,-0.155
2021-08-19 02:17:54.824,0.105,-0.12
2021-08-19 02:17:54.828,0.09,-0.115
2021-08-19 02:17:54.832,0.1,-0.125
2021-08-19 02:17:54.836,0.12,-0.125
2021-08-19 02:17:54.840,0.115,-0.125
2021-08-19 02:17:54.844,0.12,-0.115
2021-08-19 02:17:54.848,0.12,-0.11
2021-08-19 02:17:54.852,0.13,-0.095
2021-08-19 02:17:54.856,0.135,-0.09
2021-08-19 02:17:54.860,0.135,-0.095
2021-08-19 02:17:54.864,0.14,-0.1
2021-08-19 02:17:54.868,0.18,-0.095
2021-08-19 02:17:54.872,0.145,-0.115
2021-08-19 02:17:54.876,0.15,-0.115
2021-08-19 02:17:54.880,0.155,-0.115
2021-08-19 02:17:54.884,0.155,-0.125
2021-08-19 02:17:54.888,0.155,-0.165
2021-08-19 02:17:54.892,0.185,-0.2
2021-08-19 02:17:54.896,0.165,-0.2
2021-08-19 02:17:54.900,0.155,-0.215
2021-08-19 02:17:54.904,0.15,-0.25
2021-08-19 02:17:54.908,0.14,-0.25
2021-08-19 02:17:54.912,0.14,-0.235
2021-08-19 02:17:54.916,0.125,-0.22
2021-08-19 02:17:54.920,0.125,-0.21
2021-08-19 02:17:54.924,0.095,-0.185
2021-08-19 02:17:54.928,0.08,-0.175
2021-08-19 02:17:54.932,0.08,-0.13
2021-08-19 02:17:54.936,0.095,-0.12
2021-08-19 02:17:54.940,0.13,-0.135
2021-08-19 02:17:54.944,0.14,-0.1
2021-08-19 02:17:54.948,0.125,-0.07
2021-08-19 02:17:54.952,0.155,-0.07
2021-08-19 02:17:54.956,0.2,-0.06
2021-08-19 02:17:54.960,0.2,-0.065
2021-08-19 02:17:54.964,0.23,-0.06
2021-08-19 02:17:54.968,0.22,-0.08
2021-08-19 02:17:54.972,0.205,-0.08
2021-08-19 02:17:54.976,0.195,-0.11
2021-08-19 02:17:54.980,0.19,-0.1
2021-08-19 02:17:54.984,0.14,-0.14
2021-08-19 02:17:54.988,0.1,-0.14
2021-08-19 02:17:54.992,0.085,-0.16
2021-08-19 02:17:54.996,0.07,-0.16
2021-08-19 02:17:55.000,0.06,-0.185
2021-08-19 02:17:55.004,0.04,-0.18
2021-08-19 02:17:55.008,0.035,-0.175
2021-08-19 02:17:55.012,0.03,-0.19
2021-08-19 02:17:55.016,0.035,-0.21
2021-08-19 02:17:55.020,0.035,-0.205
2021-08-19 02:17:55.024,0.04,-0.22
2021-08-19 02:17:55.028,0.025,-0.225
2021-08-19 02:17:55.032,0.075,-0.225
2021-08-19 02:17:55.036,0.055,-0.225
2021-08-19 02:17:55.040,0.06,-0.23
2021-08-19 02:17:55.044,0.045,-0.225
2021-08-19 02:17:55.048,0.03,-0.24
2021-08-19 02:17:55.052,0.05,-0.23
2021-08-19 02:17:55.056,0.05,-0.245
2021-08-19 02:17:55.060,0.055,-0.23
2021-08-19 02:17:55.064,0.06,-0.24
2021-08-19 02:17:55.068,0.04,-0.24
2021-08-19 02:17:55.072,0.045,-0.22
2021-08-19 02:17:55.076,0.04,-0.245
2021-08-19 02:17:55.080,0.065,-0.25
2021-08-19 02:17:55.084,0.055,-0.25
2021-08-19 02:17:55.088,0.055,-0.27
2021-08-19 02:17:55.092,0.055,-0.28
2021-08-19 02:17:55.096,0.045,-0.285
2021-08-19 02:17:55.100,0.06,-0.3
2021-08-19 02:17:55.104,0.075,-0.285
2021-08-19 02:17:55.108,0.055,-0.295
2021-08-19 02:17:55.112,0.04,-0.255
2021-08-19 02:17:55.116,0.04,-0.25
2021-08-19 02:17:55.120,0.025,-0.24
2021-08-19 02:17:55.124,0.02,-0.21
2021-08-19 02:17:55.128,0.04,-0.19
2021-08-19 02:17:55.132,0.06,-0.175
2021-08-19 02:17:55.136,0.05,-0.15
2021-08-19 02:17:55.140,0.055,-0.11
2021-08-19 02:17:55.144,0.06,-0.09
2021-08-19 02:17:55.148,0.075,-0.055
2021-08-19 02:17:55.152,0.09,-0.04
2021-08-19 02:17:55.156,0.095,-0.025
2021-08-19 02:17:55.160,0.11,-0.03
2021-08-19 02:17:55.164,0.135,-0.015
2021-08-19 02:17:55.168,0.175,0.005
2021-08-19 02:17:55.172,0.225,0.005
2021-08-19 02:17:55.176,0.24,0.055
2021-08-19 02:17:55.180,0.22,0.065
2021-08-19 02:17:55.184,0.19,0.105
2021-08-19 02:17:55.188,0.165,0.17
2021-08-19 02:17:55.192,0.155,0.36
2021-08-19 02:17:55.196,0.15,0.675
2021-08-19 02:17:55.200,0.13,0.995
2021-08-19 02:17:55.204,0.13,1.25
2021-08-19 02:17:55.208,0.14,1.405
2021-08-19 02:17:55.212,0.09,1.5
2021-08-19 02:17:55.216,0.045,1.47
2021-08-19 02:17:55.220,0.005,1.255
2021-08-19 02:17:55.224,-0.025,0.86
2021-08-19 02:17:55.228,-0.135,0.345
2021-08-19 02:17:55.232,-0.37,0.0
2021-08-19 02:17:55.236,-0.695,0.045
2021-08-19 02:17:55.240,-0.97,0.21
2021-08-19 02:17:55.244,-1.245,0.165
2021-08-19 02:17:55.248,-1.375,-0.11
2021-08-19 02:17:55.252,-1.37,-0.435
2021-08-19 02:17:55.256,-1.2,-0.66
2021-08-19 02:17:55.260,-0.84,-0.785
2021-08-19 02:17:55.264,-0.46,-0.79
2021-08-19 02:17:55.268,-0.185,-0.7
2021-08-19 02:17:55.272,-0.105,-0.59
2021-08-19 02:17:55.276,-0.105,-0.53
2021-08-19 02:17:55.280,-0.155,-0.51
2021-08-19 02:17:55.284,-0.145,-0.48
2021-08-19 02:17:55.288,-0.13,-0.49
2021-08-19 02:17:55.292,-0.08,-0.51
2021-08-19 02:17:55.296,-0.035,-0.51
2021-08-19 02:17:55.300,0.025,-0.495
2021-08-19 02:17:55.304,0.065,-0.5
2021-08-19 02:17:55.308,0.07,-0.475
2021-08-19 02:17:55.312,0.11,-0.465
2021-08-19 02:17:55.316,0.115,-0.465
2021-08-19 02:17:55.320,0.12,-0.43
2021-08-19 02:17:55.324,0.13,-0.42
2021-08-19 02:17:55.328,0.135,-0.43
2021-08-19 02:17:55.332,0.145,-0.4
2021-08-19 02:17:55.336,0.185,-0.395
2021-08-19 02:17:55.340,0.19,-0.38
2021-08-19 02:17:55.344,0.195,-0.375
2021-08-19 02:17:55.348,0.185,-0.36
2021-08-19 02:17:55.352,0.2,-0.36
2021-08-19 02:17:55.356,0.215,-0.33
2021-08-19 02:17:55.360,0.245,-0.315
2021-08-19 02:17:55.364,0.235,-0.31
2021-08-19 02:17:55.368,0.26,-0.27
2021-08-19 02:17:55.372,0.28,-0.255
2021-08-19 02:17:55.376,0.29,-0.255
2021-08-19 02:17:55.380,0.29,-0.26
2021-08-19 02:17:55.384,0.32,-0.265
2021-08-19 02:17:55.388,0.305,-0.26
2021-08-19 02:17:55.392,0.245,-0.28
2021-08-19 02:17:55.396,0.2,-0.275
2021-08-19 02:17:55.400,0.17,-0.28
2021-08-19 02:17:55.404,0.155,-0.29
2021-08-19 02:17:55.408,0.15,-0.275
2021-08-19 02:17:55.412,0.14,-0.28
2021-08-19 02:17:55.416,0.135,-0.3
2021-08-19 02:17:55.420,0.125,-0.285
2021-08-19 02:17:55.424,0.16,-0.275
2021-08-19 02:17:55.428,0.145,-0.28
2021-08-19 02:17:55.432,0.13,-0.285
2021-08-19 02:17:55.436,0.15,-0.33
2021-08-19 02:17:55.440,0.165,-0.34
2021-08-19 02:17:55.444,0.185,-0.34
2021-08-19 02:17:55.448,0.19,-0.355
2021-08-19 02:17:55.452,0.18,-0.34
2021-08-19 02:17:55.456,0.19,-0.34
2021-08-19 02:17:55.460,0.165,-0.355
2021-08-19 02:17:55.464,0.21,-0.34
2021-08-19 02:17:55.468,0.185,-0.325
2021-08-19 02:17:55.472,0.18,-0.305
2021-08-19 02:17:55.476,0.2,-0.305
2021-08-19 02:17:55.480,0.195,-0.3
2021-08-19 02:17:55.484,0.195,-0.295
2021-08-19 02:17:55.488,0.175,-0.295
2021-08-19 02:17:55.492,0.195,-0.3
2021-08-19 02:17:55.496,0.185,-0.3
2021-08-19 02:17:55.500,0.195,-0.295
2021-08-19 02:17:55.504,0.165,-0.265
2021-08-19 02:17:55.508,0.195,-0.245
2021-08-19 02:17:55.512,0.18,-0.225
2021-08-19 02:17:55.516,0.165,-0.18
2021-08-19 02:17:55.520,0.175,-0.175
2021-08-19 02:17:55.524,0.18,-0.15
2021-08-19 02:17:55.528,0.17,-0.13
2021-08-19 02:17:55.532,0.205,-0.115
2021-08-19 02:17:55.536,0.21,-0.11
2021-08-19 02:17:55.540,0.21,-0.095
2021-08-19 02:17:55.544,0.21,-0.07
2021-08-19 02:17:55.548,0.225,-0.055
2021-08-19 02:17:55.552,0.23,-0.07
2021-08-19 02:17:55.556,0.255,-0.07
2021-08-19 02:17:55.560,0.24,-0.05
2021-08-19 02:17:55.564,0.235,-0.05
2021-08-19 02:17:55.568,0.255,-0.05
2021-08-19 02:17:55.572,0.235,-0.04
2021-08-19 02:17:55.576,0.265,-0.04
2021-08-19 02:17:55.580,0.285,-0.04
2021-08-19 02:17:55.584,0.28,-0.05
2021-08-19 02:17:55.588,0.305,-0.05
2021-08-19 02:17:55.592,0.265,-0.06
2021-08-19 02:17:55.596,0.22,-0.075
2021-08-19 02:17:55.600,0.2,-0.07
2021-08-19 02:17:55.604,0.165,-0.08
2021-08-19 02:17:55.608,0.145,-0.085
2021-08-19 02:17:55.612,0.115,-0.075
2021-08-19 02:17:55.616,0.115,-0.095
2021-08-19 02:17:55.620,0.105,-0.095
2021-08-19 02:17:55.624,0.13,-0.115
2021-08-19 02:17:55.628,0.105,-0.13
2021-08-19 02:17:55.632,0.16,-0.145
2021-08-19 02:17:55.636,0.14,-0.15
2021-08-19 02:17:55.640,0.17,-0.155
2021-08-19 02:17:55.644,0.14,-0.17
2021-08-19 02:17:55.648,0.145,-0.185
2021-08-19 02:17:55.652,0.165,-0.165
2021-08-19 02:17:55.656,0.17,-0.165
2021-08-19 02:17:55.660,0.175,-0.155
2021-08-19 02:17:55.664,0.16,-0.15
2021-08-19 02:17:55.668,0.16,-0.155
2021-08-19 02:17:55.672,0.155,-0.14
2021-08-19 02:17:55.676,0.155,-0.155
2021-08-19 02:17:55.680,0.135,-0.165
2021-08-19 02:17:55.684,0.13,-0.135
2021-08-19 02:17:55.688,0.14,-0.15
2021-08-19 02:17:55.692,0.125,-0.155
2021-08-19 02:17:55.696,0.125,-0.155
2021-08-19 02:17:55.700,0.14,-0.145
2021-08-19 02:17:55.704,0.125,-0.155
2021-08-19 02:17:55.708,0.115,-0.135
2021-08-19 02:17:55.712,0.125,-0.115
2021-08-19 02:17:55.716,0.155,-0.105
2021-08-19 02:17:55.720,0.165,-0.095
2021-08-19 02:17:55.724,0.16,-0.085
2021-08-19 02:17:55.728,0.175,-0.07
2021-08-19 02:17:55.732,0.195,-0.075
2021-08-19 02:17:55.736,0.19,-0.095
2021-08-19 02:17:55.740,0.18,-0.1
2021-08-19 02:17:55.744,0.215,-0.12
2021-08-19 02:17:55.748,0.205,-0.12
2021-08-19 02:17:55.752,0.205,-0.145
2021-08-19 02:17:55.756,0.22,-0.16
2021-08-19 02:17:55.760,0.215,-0.16
2021-08-19 02:17:55.764,0.205,-0.175
2021-08-19 02:17:55.768,0.215,-0.205
2021-08-19 02:17:55.772,0.205,-0.19
2021-08-19 02:17:55.776,0.205,-0.19
2021-08-19 02:17:55.780,0.21,-0.18
2021-08-19 02:17:55.784,0.19,-0.175
2021-08-19 02:17:55.788,0.2,-0.16
2021-08-19 02:17:55.792,0.21,-0.15
2021-08-19 02:17:55.796,0.22,-0.18
2021-08-19 02:17:55.800,0.22,-0.145
2021-08-19 02:17:55.804,0.255,-0.14
2021-08-19 02:17:55.808,0.27,-0.15
2021-08-19 02:17:55.812,0.305,-0.16
2021-08-19 02:17:55.816,0.31,-0.175
2021-08-19 02:17:55.820,0.29,-0.195
2021-08-19 02:17:55.824,0.26,-0.23
2021-08-19 02:17:55.828,0.24,-0.235
2021-08-19 02:17:55.832,0.185,-0.24
2021-08-19 02:17:55.836,0.13,-0.27
2021-08-19 02:17:55.840,0.085,-0.275
2021-08-19 02:17:55.844,0.085,-0.275
2021-08-19 02:17:55.848,0.085,-0.295
2021-08-19 02:17:55.852,0.08,-0.3
2021-08-19 02:17:55.856,0.065,-0.27
2021-08-19 02:17:55.860,0.09,-0.275
2021-08-19 02:17:55.864,0.08,-0.26
2021-08-19 02:17:55.868,0.075,-0.24
2021-08-19 02:17:55.872,0.065,-0.23
2021-08-19 02:17:55.876,0.055,-0.22
2021-08-19 02:17:55.880,0.045,-0.21
2021-08-19 02:17:55.884,0.065,-0.235
2021-08-19 02:17:55.888,0.07,-0.21
2021-08-19 02:17:55.892,0.055,-0.215
2021-08-19 02:17:55.896,0.06,-0.21
2021-08-19 02:17:55.900,0.065,-0.21
2021-08-19 02:17:55.904,0.05,-0.215
2021-08-19 02:17:55.908,0.07,-0.215
2021-08-19 02:17:55.912,0.08,-0.19
2021-08-19 02:17:55.916,0.08,-0.17
2021-08-19 02:17:55.920,0.11,-0.175
2021-08-19 02:17:55.924,0.12,-0.125
2021-08-19 02:17:55.928,0.12,-0.115
2021-08-19 02:17:55.932,0.135,-0.14
2021-08-19 02:17:55.936,0.115,-0.15
2021-08-19 02:17:55.940,0.125,-0.145
2021-08-19 02:17:55.944,0.15,-0.145
2021-08-19 02:17:55.948,0.14,-0.135
2021-08-19 02:17:55.952,0.145,-0.15
2021-08-19 02:17:55.956,0.14,-0.145
2021-08-19 02:17:55.960,0.13,-0.165
2021-08-19 02:17:55.964,0.125,-0.175
2021-08-19 02:17:55.968,0.13,-0.17
2021-08-19 02:17:55.972,0.14,-0.175
2021-08-19 02:17:55.976,0.14,-0.19
2021-08-19 02:17:55.980,0.155,-0.19
2021-08-19 02:17:55.984,0.135,-0.19
2021-08-19 02:17:55.988,0.15,-0.185
2021-08-19 02:17:55.992,0.135,-0.18
2021-08-19 02:17:55.996,0.16,-0.18
2021-08-19 02:17:56.000,0.13,-0.2
2021-08-19 02:17:56.004,0.125,-0.215
2021-08-19 02:17:56.008,0.14,-0.225
2021-08-19 02:17:56.012,0.135,-0.2
2021-08-19 02:17:56.016,0.16,-0.15
2021-08-19 02:17:56.020,0.175,-0.07
2021-08-19 02:17:56.024,0.185,-0.02
2021-08-19 02:17:56.028,0.19,-0.005
2021-08-19 02:17:56.032,0.21,0.07
2021-08-19 02:17:56.036,0.23,0.275
2021-08-19 02:17:56.040,0.24,0.59
2021-08-19 02:17:56.044,0.235,0.82
2021-08-19 02:17:56.048,0.245,1.0
2021-08-19 02:17:56.052,0.21,1.04
2021-08-19 02:17:56.056,0.09,1.02
2021-08-19 02:17:56.060,0.015,0.88
2021-08-19 02:17:56.064,-0.045,0.565
2021-08-19 02:17:56.068,-0.125,0.135
2021-08-19 02:17:56.072,-0.31,-0.18
2021-08-19 02:17:56.076,-0.58,-0.17
2021-08-19 02:17:56.080,-0.915,0.07
2021-08-19 02:17:56.084,-1.2,0.18
2021-08-19 02:17:56.088,-1.43,-0.045
2021-08-19 02:17:56.092,-1.455,-0.355
2021-08-19 02:17:56.096,-1.365,-0.635
2021-08-19 02:17:56.100,-1.045,-0.745
2021-08-19 02:17:56.104,-0.615,-0.76
2021-08-19 02:17:56.108,-0.26,-0.69
2021-08-19 02:17:56.112,-0.115,-0.565
2021-08-19 02:17:56.116,-0.105,-0.455
2021-08-19 02:17:56.120,-0.1,-0.395
2021-08-19 02:17:56.124,-0.1,-0.38
2021-08-19 02:17:56.128,-0.09,-0.375
2021-08-19 02:17:56.132,-0.065,-0.375
2021-08-19 02:17:56.136,-0.01,-0.365
2021-08-19 02:17:56.140,0.06,-0.375
2021-08-19 02:17:56.144,0.12,-0.36
2021-08-19 02:17:56.148,0.145,-0.36
2021-08-19 02:17:56.152,0.175,-0.38
2021-08-19 02:17:56.156,0.175,-0.385
2021-08-19 02:17:56.160,0.205,-0.42
2021-08-19 02:17:56.164,0.185,-0.425
2021-08-19 02:17:56.168,0.21,-0.395
2021-08-19 02:17:56.172,0.22,-0.42
2021-08-19 02:17:56.176,0.21,-0.43
2021-08-19 02:17:56.180,0.205,-0.42
2021-08-19 02:17:56.184,0.22,-0.415
2021-08-19 02:17:56.188,0.185,-0.4
2021-08-19 02:17:56.192,0.215,-0.41
2021-08-19 02:17:56.196,0.215,-0.435
2021-08-19 02:17:56.200,0.23,-0.43
2021-08-19 02:17:56.204,0.25,-0.45
2021-08-19 02:17:56.208,0.26,-0.465
2021-08-19 02:17:56.212,0.245,-0.455
2021-08-19 02:17:56.216,0.26,-0.46
2021-08-19 02:17:56.220,0.28,-0.425
2021-08-19 02:17:56.224,0.275,-0.4
2021-08-19 02:17:56.228,0.285,-0.4
2021-08-19 02:17:56.232,0.31,-0.4
2021-08-19 02:17:56.236,0.315,-0.375
2021-08-19 02:17:56.240,0.295,-0.4
2021-08-19 02:17:56.244,0.26,-0.4
2021-08-19 02:17:56.248,0.195,-0.395
2021-08-19 02:17:56.252,0.175,-0.39
2021-08-19 02:17:56.256,0.185,-0.395
2021-08-19 02:17:56.260,0.175,-0.395
2021-08-19 02:17:56.264,0.165,-0.41
2021-08-19 02:17:56.268,0.14,-0.43
2021-08-19 02:17:56.272,0.155,-0.43
2021-08-19 02:17:56.276,0.155,-0.405
2021-08-19 02:17:56.280,0.16,-0.465
2021-08-19 02:17:56.284,0.185,-0.455
2021-08-19 02:17:56.288,0.185,-0.46
2021-08-19 02:17:56.292,0.17,-0.44
2021-08-19 02:17:56.296,0.165,-0.415
2021-08-19 02:17:56.300,0.17,-0.395
2021-08-19 02:17:56.304,0.19,-0.38
2021-08-19 02:17:56.308,0.18,-0.36
2021-08-19 02:17:56.312,0.175,-0.34
2021-08-19 02:17:56.316,0.17,-0.32
2021-08-19 02:17:56.320,0.2,-0.3
2021-08-19 02:17:56.324,0.215,-0.28
2021-08-19 02:17:56.328,0.235,-0.26
2021-08-19 02:17:56.332,0.255,-0.265
2021-08-19 02:17:56.336,0.25,-0.235
2021-08-19 02:17:56.340,0.24,-0.235
2021-08-19 02:17:56.344,0.255,-0.235
2021-08-19 02:17:56.348,0.265,-0.235
2021-08-19 02:17:56.352,0.27,-0.235
2021-08-19 02:17:56.356,0.28,-0.22
2021-08-19 02:17:56.360,0.27,-0.225
2021-08-19 02:17:56.364,0.255,-0.225
2021-08-19 02:17:56.368,0.25,-0.24
2021-08-19 02:17:56.372,0.24,-0.26
2021-08-19 02:17:56.376,0.22,-0.225
2021-08-19 02:17:56.380,0.22,-0.26
2021-08-19 02:17:56.384,0.23,-0.265
2021-08-19 02:17:56.388,0.23,-0.285
2021-08-19 02:17:56.392,0.23,-0.27
2021-08-19 02:17:56.396,0.225,-0.27
2021-08-19 02:17:56.400,0.195,-0.275
2021-08-19 02:17:56.404,0.215,-0.24
2021-08-19 02:17:56.408,0.185,-0.24
2021-08-19 02:17:56.412,0.2,-0.195
2021-08-19 02:17:56.416,0.195,-0.225
2021-08-19 02:17:56.420,0.205,-0.215
2021-08-19 02:17:56.424,0.19,-0.19
2021-08-19 02:17:56.428,0.185,-0.155
2021-08-19 02:17:56.432,0.19,-0.155
2021-08-19 02:17:56.436,0.17,-0.12
2021-08-19 02:17:56.440,0.2,-0.11
2021-08-19 02:17:56.444,0.195,-0.1
2021-08-19 02:17:56.448,0.22,-0.095
2021-08-19 02:17:56.452,0.255,-0.11
2021-08-19 02:17:56.456,0.27,-0.115
2021-08-19 02:17:56.460,0.275,-0.17
2021-08-19 02:17:56.464,0.3,-0.16
2021-08-19 02:17:56.468,0.255,-0.17
2021-08-19 02:17:56.472,0.23,-0.185
2021-08-19 02:17:56.476,0.175,-0.205
2021-08-19 02:17:56.480,0.12,-0.225
2021-08-19 02:17:56.484,0.08,-0.205
2021-08-19 02:17:56.488,0.07,-0.205
2021-08-19 02:17:56.492,0.075,-0.215
2021-08-19 02:17:56.496,0.045,-0.22
2021-08-19 02:17:56.500,0.05,-0.21
2021-08-19 02:17:56.504,0.07,-0.205
2021-08-19 02:17:56.508,0.1,-0.22
2021-08-19 02:17:56.512,0.09,-0.215
2021-08-19 02:17:56.516,0.11,-0.22
2021-08-19 02:17:56.520,0.12,-0.215
2021-08-19 02:17:56.524,0.13,-0.22
2021-08-19 02:17:56.528,0.135,-0.2
2021-08-19 02:17:56.532,0.165,-0.205
2021-08-19 02:17:56.536,0.17,-0.2
2021-08-19 02:17:56.540,0.185,-0.185
2021-08-19 02:17:56.544,0.185,-0.19
2021-08-19 02:17:56.548,0.195,-0.225
2021-08-19 02:17:56.552,0.175,-0.24
2021-08-19 02:17:56.556,0.185,-0.255
2021-08-19 02:17:56.560,0.17,-0.265
2021-08-19 02:17:56.564,0.195,-0.26
2021-08-19 02:17:56.568,0.185,-0.29
2021-08-19 02:17:56.572,0.185,-0.27
2021-08-19 02:17:56.576,0.18,-0.295
2021-08-19 02:17:56.580,0.175,-0.3
2021-08-19 02:17:56.584,0.17,-0.3
2021-08-19 02:17:56.588,0.155,-0.295
2021-08-19 02:17:56.592,0.145,-0.315
2021-08-19 02:17:56.596,0.135,-0.3
2021-08-19 02:17:56.600,0.125,-0.295
2021-08-19 02:17:56.604,0.145,-0.275
2021-08-19 02:17:56.608,0.12,-0.26
2021-08-19 02:17:56.612,0.115,-0.245
2021-08-19 02:17:56.616,0.105,-0.22
2021-08-19 02:17:56.620,0.115,-0.21
2021-08-19 02:17:56.624,0.11,-0.19
2021-08-19 02:17:56.628,0.12,-0.19
2021-08-19 02:17:56.632,0.115,-0.16
2021-08-19 02:17:56.636,0.105,-0.155
2021-08-19 02:17:56.640,0.115,-0.185
2021-08-19 02:17:56.644,0.125,-0.215
2021-08-19 02:17:56.648,0.13,-0.215
2021-08-19 02:17:56.652,0.13,-0.22
2021-08-19 02:17:56.656,0.15,-0.225
2021-08-19 02:17:56.660,0.165,-0.22
2021-08-19 02:17:56.664,0.15,-0.185
2021-08-19 02:17:56.668,0.175,-0.18
2021-08-19 02:17:56.672,0.195,-0.175
2021-08-19 02:17:56.676,0.185,-0.175
2021-08-19 02:17:56.680,0.21,-0.205
2021-08-19 02:17:56.684,0.235,-0.21
2021-08-19 02:17:56.688,0.25,-0.22
2021-08-19 02:17:56.692,0.235,-0.215
2021-08-19 02:17:56.696,0.215,-0.23
2021-08-19 02:17:56.700,0.19,-0.23
2021-08-19 02:17:56.704,0.145,-0.25
2021-08-19 02:17:56.708,0.085,-0.245
2021-08-19 02:17:56.712,0.04,-0.24
2021-08-19 02:17:56.716,0.05,-0.22
2021-08-19 02:17:56.720,0.055,-0.21
2021-08-19 02:17:56.724,0.085,-0.215
2021-08-19 02:17:56.728,0.09,-0.215
2021-08-19 02:17:56.732,0.09,-0.21
2021-08-19 02:17:56.736,0.095,-0.195
2021-08-19 02:17:56.740,0.115,-0.205
2021-08-19 02:17:56.744,0.095,-0.22
2021-08-19 02:17:56.748,0.11,-0.245
2021-08-19 02:17:56.752,0.115,-0.26
2021-08-19 02:17:56.756,0.1,-0.27
2021-08-19 02:17:56.760,0.11,-0.29
2021-08-19 02:17:56.764,0.1,-0.305
2021-08-19 02:17:56.768,0.115,-0.315
2021-08-19 02:17:56.772,0.09,-0.32
2021-08-19 02:17:56.776,0.09,-0.315
2021-08-19 02:17:56.780,0.095,-0.315
2021-08-19 02:17:56.784,0.08,-0.31
2021-08-19 02:17:56.788,0.07,-0.305
2021-08-19 02:17:56.792,0.075,-0.32
2021-08-19 02:17:56.796,0.065,-0.31
2021-08-19 02:17:56.800,0.055,-0.315
2021-08-19 02:17:56.804,0.055,-0.31
2021-08-19 02:17:56.808,0.05,-0.31
2021-08-19 02:17:56.812,0.08,-0.305
2021-08-19 02:17:56.816,0.065,-0.285
2021-08-19 02:17:56.820,0.065,-0.31
2021-08-19 02:17:56.824,0.055,-0.295
2021-08-19 02:17:56.828,0.07,-0.26
2021-08-19 02:17:56.832,0.075,-0.26
2021-08-19 02:17:56.836,0.06,-0.245
2021-08-19 02:17:56.840,0.06,-0.21
2021-08-19 02:17:56.844,0.055,-0.21
2021-08-19 02:17:56.848,0.045,-0.135
2021-08-19 02:17:56.852,0.05,-0.04
2021-08-19 02:17:56.856,0.05,-0.01
2021-08-19 02:17:56.860,0.07,0.025
2021-08-19 02:17:56.864,0.07,0.155
2021-08-19 02:17:56.868,0.095,0.415
2021-08-19 02:17:56.872,0.115,0.73
2021-08-19 02:17:56.876,0.155,0.945
2021-08-19 02:17:56.880,0.19,1.045
2021-08-19 02:17:56.884,0.19,1.09
2021-08-19 02:17:56.888,0.15,0.995
2021-08-19 02:17:56.892,0.135,0.82
2021-08-19 02:17:56.896,0.095,0.515
2021-08-19 02:17:56.900,-0.015,0.11
2021-08-19 02:17:56.904,-0.27,-0.185
2021-08-19 02:17:56.908,-0.63,-0.1
2021-08-19 02:17:56.912,-1.03,0.16
2021-08-19 02:17:56.916,-1.33,0.255
2021-08-19 02:17:56.920,-1.48,0.02
2021-08-19 02:17:56.924,-1.49,-0.305
2021-08-19 02:17:56.928,-1.3,-0.55
2021-08-19 02:17:56.932,-0.93,-0.675
2021-08-19 02:17:56.936,-0.46,-0.695
2021-08-19 02:17:56.940,-0.195,-0.635
2021-08-19 02:17:56.944,-0.08,-0.52
2021-08-19 02:17:56.948,-0.12,-0.435
2021-08-19 02:17:56.952,-0.14,-0.405
2021-08-19 02:17:56.956,-0.155,-0.425
2021-08-19 02:17:56.960,-0.125,-0.46
2021-08-19 02:17:56.964,-0.105,-0.48
2021-08-19 02:17:56.968,-0.045,-0.485
2021-08-19 02:17:56.972,0.0,-0.475
2021-08-19 02:17:56.976,0.055,-0.49
2021-08-19 02:17:56.980,0.07,-0.49
2021-08-19 02:17:56.984,0.075,-0.485
2021-08-19 02:17:56.988,0.07,-0.5
2021-08-19 02:17:56.992,0.085,-0.51
2021-08-19 02:17:56.996,0.08,-0.485
2021-08-19 02:17:57.000,0.075,-0.49
2021-08-19 02:17:57.004,0.08,-0.525
2021-08-19 02:17:57.008,0.08,-0.5
2021-08-19 02:17:57.012,0.065,-0.5
2021-08-19 02:17:57.016,0.08,-0.505
2021-08-19 02:17:57.020,0.095,-0.48
2021-08-19 02:17:57.024,0.075,-0.475
2021-08-19 02:17:57.028,0.08,-0.47
2021-08-19 02:17:57.032,0.075,-0.475
2021-08-19 02:17:57.036,0.105,-0.475
2021-08-19 02:17:57.040,0.11,-0.475
2021-08-19 02:17:57.044,0.095,-0.485
2021-08-19 02:17:57.048,0.125,-0.505
2021-08-19 02:17:57.052,0.09,-0.515
2021-08-19 02:17:57.056,0.125,-0.515
2021-08-19 02:17:57.060,0.12,-0.5
2021-08-19 02:17:57.064,0.115,-0.48
2021-08-19 02:17:57.068,0.13,-0.485
2021-08-19 02:17:57.072,0.12,-0.5
2021-08-19 02:17:57.076,0.135,-0.475
2021-08-19 02:17:57.080,0.135,-0.49
2021-08-19 02:17:57.084,0.155,-0.5
2021-08-19 02:17:57.088,0.17,-0.505
2021-08-19 02:17:57.092,0.18,-0.495
2021-08-19 02:17:57.096,0.175,-0.485
2021-08-19 02:17:57.100,0.22,-0.485
2021-08-19 02:17:57.104,0.195,-0.47
2021-08-19 02:17:57.108,0.175,-0.465
2021-08-19 02:17:57.112,0.145,-0.455
2021-08-19 02:17:57.116,0.1,-0.46
2021-08-19 02:17:57.120,0.08,-0.475
2021-08-19 02:17:57.124,0.08,-0.48
2021-08-19 02:17:57.128,0.085,-0.47
2021-08-19 02:17:57.132,0.1,-0.465
2021-08-19 02:17:57.136,0.11,-0.445
2021-08-19 02:17:57.140,0.11,-0.45
2021-08-19 02:17:57.144,0.09,-0.455
2021-08-19 02:17:57.148,0.075,-0.445
2021-08-19 02:17:57.152,0.085,-0.455
2021-08-19 02:17:57.156,0.095,-0.46
2021-08-19 02:17:57.160,0.105,-0.455
2021-08-19 02:17:57.164,0.12,-0.455
2021-08-19 02:17:57.168,0.1,-0.46
2021-08-19 02:17:57.172,0.11,-0.455
2021-08-19 02:17:57.176,0.08,-0.445
2021-08-19 02:17:57.180,0.085,-0.425
2021-08-19 02:17:57.184,0.065,-0.395
2021-08-19 02:17:57.188,0.085,-0.38
2021-08-19 02:17:57.192,0.075,-0.355
2021-08-19 02:17:57.196,0.085,-0.35
2021-08-19 02:17:57.200,0.08,-0.335
2021-08-19 02:17:57.204,0.06,-0.295
2021-08-19 02:17:57.208,0.085,-0.3
2021-08-19 02:17:57.212,0.065,-0.27
2021-08-19 02:17:57.216,0.05,-0.285
2021-08-19 02:17:57.220,0.055,-0.27
2021-08-19 02:17:57.224,0.07,-0.27
2021-08-19 02:17:57.228,0.075,-0.25
2021-08-19 02:17:57.232,0.075,-0.25
2021-08-19 02:17:57.236,0.065,-0.24
2021-08-19 02:17:57.240,0.085,-0.25
2021-08-19 02:17:57.244,0.11,-0.245
2021-08-19 02:17:57.248,0.095,-0.245
2021-08-19 02:17:57.252,0.09,-0.255
2021-08-19 02:17:57.256,0.12,-0.255
2021-08-19 02:17:57.260,0.105,-0.245
2021-08-19 02:17:57.264,0.11,-0.25
2021-08-19 02:17:57.268,0.09,-0.215
2021-08-19 02:17:57.272,0.11,-0.235
2021-08-19 02:17:57.276,0.095,-0.2
2021-08-19 02:17:57.280,0.105,-0.2
2021-08-19 02:17:57.284,0.125,-0.22
2021-08-19 02:17:57.288,0.155,-0.195
2021-08-19 02:17:57.292,0.16,-0.195
2021-08-19 02:17:57.296,0.15,-0.2
2021-08-19 02:17:57.300,0.175,-0.19
2021-08-19 02:17:57.304,0.16,-0.19
2021-08-19 02:17:57.308,0.135,-0.22
2021-08-19 02:17:57.312,0.13,-0.225
2021-08-19 02:17:57.316,0.055,-0.235
2021-08-19 02:17:57.320,0.04,-0.215
2021-08-19 02:17:57.324,-0.005,-0.21
2021-08-19 02:17:57.328,0.01,-0.19
2021-08-19 02:17:57.332,-0.005,-0.205
2021-08-19 02:17:57.336,0.0,-0.21
2021-08-19 02:17:57.340,-0.01,-0.22
2021-08-19 02:17:57.344,-0.005,-0.21
2021-08-19 02:17:57.348,0.02,-0.225
2021-08-19 02:17:57.352,0.04,-0.25
2021-08-19 02:17:57.356,0.035,-0.25
2021-08-19 02:17:57.360,0.055,-0.26
2021-08-19 02:17:57.364,0.045,-0.275
2021-08-19 02:17:57.368,0.03,-0.27
2021-08-19 02:17:57.372,0.045,-0.3
2021-08-19 02:17:57.376,0.045,-0.32
2021-08-19 02:17:57.380,0.055,-0.32
2021-08-19 02:17:57.384,0.04,-0.325
2021-08-19 02:17:57.388,0.015,-0.34
2021-08-19 02:17:57.392,0.04,-0.33
2021-08-19 02:17:57.396,0.005,-0.3
2021-08-19 02:17:57.400,0.045,-0.295
2021-08-19 02:17:57.404,0.02,-0.31
2021-08-19 02:17:57.408,0.015,-0.295
2021-08-19 02:17:57.412,0.015,-0.285
2021-08-19 02:17:57.416,0.01,-0.29
2021-08-19 02:17:57.420,0.0,-0.29
2021-08-19 02:17:57.424,0.025,-0.3
2021-08-19 02:17:57.428,0.025,-0.31
2021-08-19 02:17:57.432,0.035,-0.33
2021-08-19 02:17:57.436,0.05,-0.34
2021-08-19 02:17:57.440,0.025,-0.34
2021-08-19 02:17:57.444,0.0,-0.345
2021-08-19 02:17:57.448,0.025,-0.345
2021-08-19 02:17:57.452,0.025,-0.345
2021-08-19 02:17:57.456,0.035,-0.315
2021-08-19 02:17:57.460,0.025,-0.34
2021-08-19 02:17:57.464,0.015,-0.325
2021-08-19 02:17:57.468,0.03,-0.34
2021-08-19 02:17:57.472,0.055,-0.34
2021-08-19 02:17:57.476,0.06,-0.34
2021-08-19 02:17:57.480,0.065,-0.32
2021-08-19 02:17:57.484,0.07,-0.295
2021-08-19 02:17:57.488,0.085,-0.275
2021-08-19 02:17:57.492,0.095,-0.26
2021-08-19 02:17:57.496,0.095,-0.235
2021-08-19 02:17:57.500,0.11,-0.23
2021-08-19 02:17:57.504,0.105,-0.215
2021-08-19 02:17:57.508,0.1,-0.16
2021-08-19 02:17:57.512,0.06,-0.12
2021-08-19 02:17:57.516,0.04,-0.065
2021-08-19 02:17:57.520,0.035,0.0
2021-08-19 02:17:57.524,0.005,0.195
2021-08-19 02:17:57.528,0.02,0.5
2021-08-19 02:17:57.532,-0.01,0.82
2021-08-19 02:17:57.536,0.005,1.05
2021-08-19 02:17:57.540,0.03,1.185
2021-08-19 02:17:57.544,-0.01,1.22
2021-08-19 02:17:57.548,-0.055,1.155
2021-08-19 02:17:57.552,-0.08,0.96
2021-08-19 02:17:57.556,-0.09,0.585
2021-08-19 02:17:57.560,-0.185,0.175
2021-08-19 02:17:57.564,-0.405,-0.035
2021-08-19 02:17:57.568,-0.71,0.055
2021-08-19 02:17:57.572,-1.02,0.19
2021-08-19 02:17:57.576,-1.225,0.08
2021-08-19 02:17:57.580,-1.32,-0.225
2021-08-19 02:17:57.584,-1.28,-0.495
2021-08-19 02:17:57.588,-1.055,-0.67
2021-08-19 02:17:57.592,-0.66,-0.745
2021-08-19 02:17:57.596,-0.3,-0.715
2021-08-19 02:17:57.600,-0.135,-0.62
2021-08-19 02:17:57.604,-0.12,-0.53
2021-08-19 02:17:57.608,-0.125,-0.495
2021-08-19 02:17:57.612,-0.155,-0.48
2021-08-19 02:17:57.616,-0.15,-0.47
2021-08-19 02:17:57.620,-0.155,-0.475
2021-08-19 02:17:57.624,-0.095,-0.465
2021-08-19 02:17:57.628,-0.02,-0.47
2021-08-19 02:17:57.632,0.035,-0.465
2021-08-19 02:17:57.636,0.05,-0.47
2021-08-19 02:17:57.640,0.09,-0.485
2021-08-19 02:17:57.644,0.085,-0.49
2021-08-19 02:17:57.648,0.1,-0.495
2021-08-19 02:17:57.652,0.115,-0.48
2021-08-19 02:17:57.656,0.115,-0.49
2021-08-19 02:17:57.660,0.125,-0.505
2021-08-19 02:17:57.664,0.145,-0.495
2021-08-19 02:17:57.668,0.105,-0.505
2021-08-19 02:17:57.672,0.11,-0.475
2021-08-19 02:17:57.676,0.125,-0.48
2021-08-19 02:17:57.680,0.12,-0.465
2021-08-19 02:17:57.684,0.11,-0.475
2021-08-19 02:17:57.688,0.115,-0.45
2021-08-19 02:17:57.692,0.125,-0.475
2021-08-19 02:17:57.696,0.125,-0.475
2021-08-19 02:17:57.700,0.12,-0.455
2021-08-19 02:17:57.704,0.15,-0.455
2021-08-19 02:17:57.708,0.14,-0.455
2021-08-19 02:17:57.712,0.155,-0.465
2021-08-19 02:17:57.716,0.175,-0.47
2021-08-19 02:17:57.720,0.155,-0.46
2021-08-19 02:17:57.724,0.155,-0.475
2021-08-19 02:17:57.728,0.125,-0.455
2021-08-19 02:17:57.732,0.12,-0.48
2021-08-19 02:17:57.736,0.065,-0.46
2021-08-19 02:17:57.740,0.025,-0.47
2021-08-19 02:17:57.744,0.03,-0.48
2021-08-19 02:17:57.748,0.02,-0.48
2021-08-19 02:17:57.752,0.02,-0.445
2021-08-19 02:17:57.756,0.025,-0.415
2021-08-19 02:17:57.760,0.02,-0.39
2021-08-19 02:17:57.764,-0.005,-0.4
2021-08-19 02:17:57.768,0.005,-0.38
2021-08-19 02:17:57.772,0.015,-0.405
2021-08-19 02:17:57.776,0.0,-0.415
2021-08-19 02:17:57.780,0.015,-0.425
2021-08-19 02:17:57.784,0.005,-0.445
2021-08-19 02:17:57.788,0.05,-0.44
2021-08-19 02:17:57.792,0.05,-0.45
2021-08-19 02:17:57.796,0.075,-0.45
2021-08-19 02:17:57.800,0.09,-0.45
2021-08-19 02:17:57.804,0.08,-0.415
2021-08-19 02:17:57.808,0.085,-0.425
2021-08-19 02:17:57.812,0.085,-0.39
2021-08-19 02:17:57.816,0.07,-0.39
2021-08-19 02:17:57.820,0.07,-0.36
2021-08-19 02:17:57.824,0.065,-0.35
2021-08-19 02:17:57.828,0.07,-0.305
2021-08-19 02:17:57.832,0.06,-0.3
2021-08-19 02:17:57.836,0.065,-0.28
2021-08-19 02:17:57.840,0.06,-0.265
2021-08-19 02:17:57.844,0.055,-0.28
2021-08-19 02:17:57.848,0.075,-0.25
2021-08-19 02:17:57.852,0.065,-0.255
2021-08-19 02:17:57.856,0.055,-0.27
2021-08-19 02:17:57.860,0.065,-0.265
2021-08-19 02:17:57.864,0.07,-0.27
2021-08-19 02:17:57.868,0.075,-0.27
2021-08-19 02:17:57.872,0.075,-0.28
2021-08-19 02:17:57.876,0.08,-0.26
2021-08-19 02:17:57.880,0.07,-0.265
2021-08-19 02:17:57.884,0.075,-0.245
2021-08-19 02:17:57.888,0.065,-0.265
2021-08-19 02:17:57.892,0.075,-0.245
2021-08-19 02:17:57.896,0.065,-0.22
2021-08-19 02:17:57.900,0.08,-0.19
2021-08-19 02:17:57.904,0.08,-0.21
2021-08-19 02:17:57.908,0.115,-0.205
2021-08-19 02:17:57.912,0.11,-0.2
2021-08-19 02:17:57.916,0.115,-0.195
2021-08-19 02:17:57.920,0.145,-0.205
2021-08-19 02:17:57.924,0.115,-0.205
2021-08-19 02:17:57.928,0.15,-0.21
2021-08-19 02:17:57.932,0.155,-0.19
2021-08-19 02:17:57.936,0.155,-0.21
2021-08-19 02:17:57.940,0.13,-0.21
2021-08-19 02:17:57.944,0.125,-0.205
2021-08-19 02:17:57.948,0.1,-0.23
2021-08-19 02:17:57.952,0.09,-0.26
2021-08-19 02:17:57.956,0.065,-0.255
2021-08-19 02:17:57.960,0.04,-0.275
2021-08-19 02:17:57.964,0.0,-0.275
2021-08-19 02:17:57.968,-0.015,-0.29
2021-08-19 02:17:57.972,-0.015,-0.28
2021-08-19 02:17:57.976,-0.02,-0.295
2021-08-19 02:17:57.980,-0.02,-0.3
2021-08-19 02:17:57.984,-0.03,-0.265
2021-08-19 02:17:57.988,-0.035,-0.225
2021-08-19 02:17:57.992,-0.045,-0.215
2021-08-19 02:17:57.996,-0.045,-0.21
2021-08-19 02:17:58.000,-0.07,-0.22
2021-08-19 02:17:58.004,-0.04,-0.22
2021-08-19 02:17:58.008,-0.015,-0.23
2021-08-19 02:17:58.012,-0.01,-0.215
2021-08-19 02:17:58.016,0.015,-0.25
2021-08-19 02:17:58.020,0.045,-0.255
2021-08-19 02:17:58.024,0.05,-0.26
2021-08-19 02:17:58.028,0.055,-0.255
2021-08-19 02:17:58.032,0.055,-0.29
2021-08-19 02:17:58.036,0.045,-0.3
2021-08-19 02:17:58.040,0.04,-0.29
2021-08-19 02:17:58.044,0.035,-0.305
2021-08-19 02:17:58.048,0.025,-0.3
2021-08-19 02:17:58.052,0.025,-0.33
2021-08-19 02:17:58.056,0.025,-0.33
2021-08-19 02:17:58.060,0.015,-0.31
2021-08-19 02:17:58.064,0.03,-0.32
2021-08-19 02:17:58.068,0.015,-0.32
2021-08-19 02:17:58.072,0.04,-0.345
2021-08-19 02:17:58.076,0.01,-0.32
2021-08-19 02:17:58.080,0.01,-0.36
2021-08-19 02:17:58.084,0.015,-0.35
2021-08-19 02:17:58.088,0.01,-0.335
2021-08-19 02:17:58.092,0.005,-0.32
2021-08-19 02:17:58.096,0.01,-0.325
2021-08-19 02:17:58.100,0.01,-0.295
2021-08-19 02:17:58.104,0.015,-0.28
2021-08-19 02:17:58.108,0.02,-0.265
2021-08-19 02:17:58.112,0.015,-0.26
2021-08-19 02:17:58.116,0.0,-0.25
2021-08-19 02:17:58.120,0.03,-0.24
2021-08-19 02:17:58.124,0.04,-0.245
2021-08-19 02:17:58.128,0.075,-0.215
2021-08-19 02:17:58.132,0.085,-0.21
2021-08-19 02:17:58.136,0.09,-0.185
2021-08-19 02:17:58.140,0.095,-0.16
2021-08-19 02:17:58.144,0.095,-0.2
2021-08-19 02:17:58.148,0.1,-0.18
2021-08-19 02:17:58.152,0.08,-0.21
2021-08-19 02:17:58.156,0.095,-0.195
2021-08-19 02:17:58.160,0.07,-0.195
2021-08-19 02:17:58.164,0.015,-0.215
2021-08-19 02:17:58.168,-0.02,-0.21
2021-08-19 02:17:58.172,-0.02,-0.2
2021-08-19 02:17:58.176,-0.035,-0.2
2021-08-19 02:17:58.180,-0.015,-0.195
2021-08-19 02:17:58.184,-0.015,-0.18
2021-08-19 02:17:58.188,-0.035,-0.18
2021-08-19 02:17:58.192,-0.035,-0.19
2021-08-19 02:17:58.196,-0.045,-0.165
2021-08-19 02:17:58.200,-0.035,-0.17
2021-08-19 02:17:58.204,-0.045,-0.175
2021-08-19 02:17:58.208,-0.045,-0.175
2021-08-19 02:17:58.212,-0.015,-0.19
2021-08-19 02:17:58.216,-0.025,-0.185
2021-08-19 02:17:58.220,-0.04,-0.23
2021-08-19 02:17:58.224,-0.015,-0.235
2021-08-19 02:17:58.228,-0.005,-0.24
2021-08-19 02:17:58.232,-0.005,-0.27
2021-08-19 02:17:58.236,0.05,-0.295
2021-08-19 02:17:58.240,0.03,-0.305
2021-08-19 02:17:58.244,0.03,-0.32
2021-08-19 02:17:58.248,0.045,-0.34
2021-08-19 02:17:58.252,0.04,-0.355
2021-08-19 02:17:58.256,0.045,-0.355
2021-08-19 02:17:58.260,0.03,-0.36
2021-08-19 02:17:58.264,0.035,-0.35
2021-08-19 02:17:58.268,0.03,-0.35
2021-08-19 02:17:58.272,0.005,-0.355
2021-08-19 02:17:58.276,-0.005,-0.375
2021-08-19 02:17:58.280,-0.005,-0.37
2021-08-19 02:17:58.284,0.0,-0.385
2021-08-19 02:17:58.288,-0.005,-0.38
2021-08-19 02:17:58.292,0.0,-0.385
2021-08-19 02:17:58.296,0.0,-0.39
2021-08-19 02:17:58.300,0.01,-0.395
2021-08-19 02:17:58.304,0.015,-0.39
2021-08-19 02:17:58.308,0.01,-0.4
2021-08-19 02:17:58.312,0.02,-0.37
2021-08-19 02:17:58.316,0.02,-0.365
2021-08-19 02:17:58.320,0.0,-0.34
2021-08-19 02:17:58.324,0.01,-0.315
2021-08-19 02:17:58.328,0.02,-0.305
2021-08-19 02:17:58.332,0.02,-0.29
2021-08-19 02:17:58.336,0.015,-0.265
2021-08-19 02:17:58.340,0.02,-0.255
2021-08-19 02:17:58.344,0.01,-0.24
2021-08-19 02:17:58.348,0.055,-0.215
2021-08-19 02:17:58.352,0.075,-0.21
2021-08-19 02:17:58.356,0.085,-0.205
2021-08-19 02:17:58.360,0.115,-0.19
2021-08-19 02:17:58.364,0.145,-0.16
2021-08-19 02:17:58.368,0.135,-0.18
2021-08-19 02:17:58.372,0.125,-0.175
2021-08-19 02:17:58.376,0.12,-0.185
2021-08-19 02:17:58.380,0.09,-0.16
2021-08-19 02:17:58.384,0.06,-0.165
2021-08-19 02:17:58.388,0.025,-0.125
2021-08-19 02:17:58.392,-0.005,-0.07
2021-08-19 02:17:58.396,-0.015,-0.015
2021-08-19 02:17:58.400,-0.02,0.04
2021-08-19 02:17:58.404,-0.03,0.105
2021-08-19 02:17:58.408,-0.05,0.335
2021-08-19 02:17:58.412,-0.05,0.64
2021-08-19 02:17:58.416,-0.035,0.97
2021-08-19 02:17:58.420,0.005,1.2
2021-08-19 02:17:58.424,0.01,1.32
2021-08-19 02:17:58.428,-0.025,1.36
2021-08-19 02:17:58.432,-0.045,1.3
2021-08-19 02:17:58.436,-0.065,1.08
2021-08-19 02:17:58.440,-0.09,0.68
2021-08-19 02:17:58.444,-0.165,0.2
2021-08-19 02:17:58.448,-0.37,-0.03
2021-08-19 02:17:58.452,-0.68,0.025
2021-08-19 02:17:58.456,-0.995,0.14
2021-08-19 02:17:58.460,-1.24,0.055
2021-08-19 02:17:58.464,-1.33,-0.23
2021-08-19 02:17:58.468,-1.345,-0.5
2021-08-19 02:17:58.472,-1.125,-0.685
2021-08-19 02:17:58.476,-0.76,-0.765
2021-08-19 02:17:58.480,-0.39,-0.725
2021-08-19 02:17:58.484,-0.17,-0.655
2021-08-19 02:17:58.488,-0.1,-0.525
2021-08-19 02:17:58.492,-0.135,-0.455
2021-08-19 02:17:58.496,-0.135,-0.44
2021-08-19 02:17:58.500,-0.13,-0.435
2021-08-19 02:17:58.504,-0.11,-0.435
2021-08-19 02:17:58.508,-0.075,-0.44
2021-08-19 02:17:58.512,0.0,-0.43
2021-08-19 02:17:58.516,0.03,-0.415
2021-08-19 02:17:58.520,0.07,-0.42
2021-08-19 02:17:58.524,0.095,-0.43
2021-08-19 02:17:58.528,0.1,-0.455
2021-08-19 02:17:58.532,0.095,-0.44
2021-08-19 02:17:58.536,0.09,-0.44
2021-08-19 02:17:58.540,0.1,-0.43
2021-08-19 02:17:58.544,0.08,-0.455
2021-08-19 02:17:58.548,0.1,-0.45
2021-08-19 02:17:58.552,0.12,-0.44
2021-08-19 02:17:58.556,0.11,-0.445
2021-08-19 02:17:58.560,0.12,-0.42
2021-08-19 02:17:58.564,0.115,-0.425
2021-08-19 02:17:58.568,0.13,-0.42
2021-08-19 02:17:58.572,0.135,-0.38
2021-08-19 02:17:58.576,0.135,-0.375
2021-08-19 02:17:58.580,0.165,-0.355
2021-08-19 02:17:58.584,0.16,-0.32
2021-08-19 02:17:58.588,0.2,-0.32
2021-08-19 02:17:58.592,0.22,-0.33
2021-08-19 02:17:58.596,0.215,-0.33
2021-08-19 02:17:58.600,0.24,-0.34
2021-08-19 02:17:58.604,0.24,-0.32
2021-08-19 02:17:58.608,0.215,-0.31
2021-08-19 02:17:58.612,0.175,-0.32
2021-08-19 02:17:58.616,0.125,-0.315
2021-08-19 02:17:58.620,0.1,-0.3
2021-08-19 02:17:58.624,0.08,-0.295
2021-08-19 02:17:58.628,0.055,-0.285
2021-08-19 02:17:58.632,0.06,-0.27
2021-08-19 02:17:58.636,0.065,-0.28
2021-08-19 02:17:58.640,0.065,-0.295
2021-08-19 02:17:58.644,0.065,-0.34
2021-08-19 02:17:58.648,0.095,-0.34
2021-08-19 02:17:58.652,0.11,-0.355
2021-08-19 02:17:58.656,0.155,-0.37
2021-08-19 02:17:58.660,0.135,-0.375
2021-08-19 02:17:58.664,0.17,-0.39
2021-08-19 02:17:58.668,0.15,-0.4
2021-08-19 02:17:58.672,0.13,-0.415
2021-08-19 02:17:58.676,0.14,-0.4
2021-08-19 02:17:58.680,0.15,-0.39
2021-08-19 02:17:58.684,0.145,-0.39
2021-08-19 02:17:58.688,0.14,-0.365
2021-08-19 02:17:58.692,0.14,-0.36
2021-08-19 02:17:58.696,0.125,-0.35
2021-08-19 02:17:58.700,0.14,-0.3
2021-08-19 02:17:58.704,0.13,-0.29
2021-08-19 02:17:58.708,0.13,-0.3
2021-08-19 02:17:58.712,0.125,-0.275
2021-08-19 02:17:58.716,0.13,-0.275
2021-08-19 02:17:58.720,0.16,-0.24
2021-08-19 02:17:58.724,0.145,-0.225
2021-08-19 02:17:58.728,0.135,-0.185
2021-08-19 02:17:58.732,0.11,-0.185
2021-08-19 02:17:58.736,0.13,-0.15
2021-08-19 02:17:58.740,0.11,-0.13
2021-08-19 02:17:58.744,0.11,-0.12
2021-08-19 02:17:58.748,0.105,-0.13
2021-08-19 02:17:58.752,0.09,-0.14
2021-08-19 02:17:58.756,0.09,-0.15
2021-08-19 02:17:58.760,0.11,-0.095
2021-08-19 02:17:58.764,0.11,-0.09
2021-08-19 02:17:58.768,0.1,-0.075
2021-08-19 02:17:58.772,0.105,-0.05
2021-08-19 02:17:58.776,0.085,-0.07
2021-08-19 02:17:58.780,0.09,-0.06
2021-08-19 02:17:58.784,0.09,-0.05
2021-08-19 02:17:58.788,0.1,-0.03
2021-08-19 02:17:58.792,0.1,-0.015
2021-08-19 02:17:58.796,0.11,-0.01
2021-08-19 02:17:58.800,0.13,-0.03
2021-08-19 02:17:58.804,0.16,-0.02
2021-08-19 02:17:58.808,0.15,-0.005
2021-08-19 02:17:58.812,0.16,0.01
2021-08-19 02:17:58.816,0.15,0.0
2021-08-19 02:17:58.820,0.145,0.01
2021-08-19 02:17:58.824,0.125,0.025
2021-08-19 02:17:58.828,0.115,0.02
2021-08-19 02:17:58.832,0.085,0.025
2021-08-19 02:17:58.836,0.065,0.015
2021-08-19 02:17:58.840,0.025,0.025
2021-08-19 02:17:58.844,0.0,0.01
2021-08-19 02:17:58.848,0.0,0.0
2021-08-19 02:17:58.852,-0.005,0.0
2021-08-19 02:17:58.856,-0.02,0.005
2021-08-19 02:17:58.860,0.0,-0.005
2021-08-19 02:17:58.864,0.0,-0.045
2021-08-19 02:17:58.868,0.015,-0.075
2021-08-19 02:17:58.872,0.05,-0.09
2021-08-19 02:17:58.876,0.035,-0.12
2021-08-19 02:17:58.880,0.035,-0.135
2021-08-19 02:17:58.884,0.04,-0.145
2021-08-19 02:17:58.888,0.06,-0.135
2021-08-19 02:17:58.892,0.065,-0.155
2021-08-19 02:17:58.896,0.06,-0.15
2021-08-19 02:17:58.900,0.045,-0.145
2021-08-19 02:17:58.904,0.03,-0.12
2021-08-19 02:17:58.908,0.03,-0.13
2021-08-19 02:17:58.912,0.03,-0.115
2021-08-19 02:17:58.916,0.045,-0.135
2021-08-19 02:17:58.920,0.035,-0.125
2021-08-19 02:17:58.924,0.06,-0.12
2021-08-19 02:17:58.928,0.055,-0.12
2021-08-19 02:17:58.932,0.055,-0.11
2021-08-19 02:17:58.936,0.055,-0.11
2021-08-19 02:17:58.940,0.05,-0.145
2021-08-19 02:17:58.944,0.055,-0.165
2021-08-19 02:17:58.948,0.055,-0.15
2021-08-19 02:17:58.952,0.05,-0.15
2021-08-19 02:17:58.956,0.06,-0.155
2021-08-19 02:17:58.960,0.025,-0.18
2021-08-19 02:17:58.964,0.02,-0.165
2021-08-19 02:17:58.968,0.04,-0.17
2021-08-19 02:17:58.972,0.045,-0.19
2021-08-19 02:17:58.976,0.05,-0.195
2021-08-19 02:17:58.980,0.03,-0.175
2021-08-19 02:17:58.984,0.015,-0.175
2021-08-19 02:17:58.988,0.025,-0.17
2021-08-19 02:17:58.992,0.03,-0.15
2021-08-19 02:17:58.996,0.04,-0.14
2021-08-19 02:17:59.000,0.045,-0.165
2021-08-19 02:17:59.004,0.065,-0.13
2021-08-19 02:17:59.008,0.07,-0.105
2021-08-19 02:17:59.012,0.09,-0.105
2021-08-19 02:17:59.016,0.125,-0.125
2021-08-19 02:17:59.020,0.115,-0.105
2021-08-19 02:17:59.024,0.105,-0.12
2021-08-19 02:17:59.028,0.07,-0.15
2021-08-19 02:17:59.032,0.07,-0.125
2021-08-19 02:17:59.036,0.065,-0.125
2021-08-19 02:17:59.040,0.005,-0.125
2021-08-19 02:17:59.044,-0.015,-0.14
2021-08-19 02:17:59.048,-0.02,-0.14
2021-08-19 02:17:59.052,-0.035,-0.125
2021-08-19 02:17:59.056,-0.045,-0.145
2021-08-19 02:17:59.060,-0.06,-0.14
2021-08-19 02:17:59.064,-0.07,-0.135
2021-08-19 02:17:59.068,-0.085,-0.12
2021-08-19 02:17:59.072,-0.06,-0.11
2021-08-19 02:17:59.076,-0.075,-0.1
2021-08-19 02:17:59.080,-0.04,-0.11
2021-08-19 02:17:59.084,-0.025,-0.115
2021-08-19 02:17:59.088,-0.005,-0.145
2021-08-19 02:17:59.092,0.005,-0.16
2021-08-19 02:17:59.096,0.005,-0.15
2021-08-19 02:17:59.100,-0.005,-0.145
2021-08-19 02:17:59.104,0.0,-0.13
2021-08-19 02:17:59.108,-0.025,-0.14
2021-08-19 02:17:59.112,-0.015,-0.16
2021-08-19 02:17:59.116,-0.035,-0.165
2021-08-19 02:17:59.120,-0.005,-0.145
2021-08-19 02:17:59.124,-0.005,-0.155
2021-08-19 02:17:59.128,0.0,-0.185
2021-08-19 02:17:59.132,0.005,-0.18
2021-08-19 02:17:59.136,-0.025,-0.175
2021-08-19 02:17:59.140,0.0,-0.19
2021-08-19 02:17:59.144,-0.01,-0.21
2021-08-19 02:17:59.148,-0.005,-0.19
2021-08-19 02:17:59.152,-0.02,-0.165
2021-08-19 02:17:59.156,-0.01,-0.18
2021-08-19 02:17:59.160,-0.005,-0.185
2021-08-19 02:17:59.164,-0.01,-0.185
2021-08-19 02:17:59.168,-0.005,-0.18
2021-08-19 02:17:59.172,-0.01,-0.185
2021-08-19 02:17:59.176,0.0,-0.19
2021-08-19 02:17:59.180,0.0,-0.175
2021-08-19 02:17:59.184,0.005,-0.17
2021-08-19 02:17:59.188,0.015,-0.18
2021-08-19 02:17:59.192,-0.015,-0.175
2021-08-19 02:17:59.196,-0.005,-0.19
2021-08-19 02:17:59.200,-0.025,-0.195
2021-08-19 02:17:59.204,0.005,-0.215
2021-08-19 02:17:59.208,0.0,-0.2
2021-08-19 02:17:59.212,-0.03,-0.21
2021-08-19 02:17:59.216,0.0,-0.23
2021-08-19 02:17:59.220,-0.005,-0.205
2021-08-19 02:17:59.224,-0.025,-0.225
2021-08-19 02:17:59.228,-0.015,-0.24
2021-08-19 02:17:59.232,-0.02,-0.235
2021-08-19 02:17:59.236,-0.02,-0.205
2021-08-19 02:17:59.240,-0.01,-0.23
2021-08-19 02:17:59.244,-0.025,-0.23
2021-08-19 02:17:59.248,-0.01,-0.255
2021-08-19 02:17:59.252,-0.02,-0.255
2021-08-19 02:17:59.256,-0.03,-0.24
2021-08-19 02:17:59.260,-0.04,-0.255
2021-08-19 02:17:59.264,-0.035,-0.225
2021-08-19 02:17:59.268,-0.055,-0.21
2021-08-19 02:17:59.272,-0.045,-0.19
2021-08-19 02:17:59.276,-0.06,-0.145
2021-08-19 02:17:59.280,-0.045,-0.08
2021-08-19 02:17:59.284,-0.065,-0.1
2021-08-19 02:17:59.288,-0.065,-0.05
2021-08-19 02:17:59.292,-0.03,-0.06
2021-08-19 02:17:59.296,-0.025,-0.07
2021-08-19 02:17:59.300,0.01,-0.095
2021-08-19 02:17:59.304,0.055,-0.115
2021-08-19 02:17:59.308,0.075,-0.145
2021-08-19 02:17:59.312,0.11,-0.11
2021-08-19 02:17:59.316,0.095,-0.12
2021-08-19 02:17:59.320,0.105,-0.13
2021-08-19 02:17:59.324,0.095,-0.14
2021-08-19 02:17:59.328,0.085,-0.16
2021-08-19 02:17:59.332,0.065,-0.135
2021-08-19 02:17:59.336,0.05,-0.16
2021-08-19 02:17:59.340,0.005,-0.175
2021-08-19 02:17:59.344,-0.03,-0.185
2021-08-19 02:17:59.348,-0.03,-0.195
2021-08-19 02:17:59.352,-0.07,-0.2
2021-08-19 02:17:59.356,-0.105,-0.2
2021-08-19 02:17:59.360,-0.08,-0.21
2021-08-19 02:17:59.364,-0.06,-0.21
2021-08-19 02:17:59.368,-0.07,-0.22
2021-08-19 02:17:59.372,-0.1,-0.225
2021-08-19 02:17:59.376,-0.09,-0.22
2021-08-19 02:17:59.380,-0.08,-0.205
2021-08-19 02:17:59.384,-0.06,-0.23
2021-08-19 02:17:59.388,-0.085,-0.24
2021-08-19 02:17:59.392,-0.075,-0.245
2021-08-19 02:17:59.396,-0.085,-0.22
2021-08-19 02:17:59.400,-0.08,-0.21
2021-08-19 02:17:59.404,-0.1,-0.215
2021-08-19 02:17:59.408,-0.085,-0.235
2021-08-19 02:17:59.412,-0.09,-0.235
2021-08-19 02:17:59.416,-0.1,-0.23
2021-08-19 02:17:59.420,-0.105,-0.21
2021-08-19 02:17:59.424,-0.1,-0.2
2021-08-19 02:17:59.428,-0.1,-0.215
2021-08-19 02:17:59.432,-0.085,-0.205
2021-08-19 02:17:59.436,-0.09,-0.215
2021-08-19 02:17:59.440,-0.09,-0.21
2021-08-19 02:17:59.444,-0.08,-0.21
2021-08-19 02:17:59.448,-0.09,-0.205
2021-08-19 02:17:59.452,-0.08,-0.175
2021-08-19 02:17:59.456,-0.08,-0.17
2021-08-19 02:17:59.460,-0.095,-0.135
2021-08-19 02:17:59.464,-0.065,-0.095
2021-08-19 02:17:59.468,-0.105,-0.07
2021-08-19 02:17:59.472,-0.08,-0.005
2021-08-19 02:17:59.476,-0.07,0.175
2021-08-19 02:17:59.480,-0.07,0.505
2021-08-19 02:17:59.484,-0.035,0.845
2021-08-19 02:17:59.488,-0.04,1.135
2021-08-19 02:17:59.492,-0.04,1.315
2021-08-19 02:17:59.496,-0.06,1.415
2021-08-19 02:17:59.500,-0.1,1.42
2021-08-19 02:17:59.504,-0.115,1.27
2021-08-19 02:17:59.508,-0.075,0.99
2021-08-19 02:17:59.512,-0.15,0.545
2021-08-19 02:17:59.516,-0.35,0.185
2021-08-19 02:17:59.520,-0.61,0.11
2021-08-19 02:17:59.524,-0.905,0.16
2021-08-19 02:17:59.528,-1.145,0.075
2021-08-19 02:17:59.532,-1.26,-0.195
2021-08-19 02:17:59.536,-1.235,-0.46
2021-08-19 02:17:59.540,-1.05,-0.61
2021-08-19 02:17:59.544,-0.735,-0.67
2021-08-19 02:17:59.548,-0.37,-0.625
2021-08-19 02:17:59.552,-0.2,-0.555
2021-08-19 02:17:59.556,-0.165,-0.44
2021-08-19 02:17:59.560,-0.155,-0.38
2021-08-19 02:17:59.564,-0.19,-0.355
2021-08-19 02:17:59.568,-0.155,-0.36
2021-08-19 02:17:59.572,-0.11,-0.375
2021-08-19 02:17:59.576,-0.095,-0.355
2021-08-19 02:17:59.580,-0.05,-0.365
2021-08-19 02:17:59.584,-0.015,-0.35
2021-08-19 02:17:59.588,-0.02,-0.345
2021-08-19 02:17:59.592,-0.035,-0.35
2021-08-19 02:17:59.596,-0.01,-0.365
2021-08-19 02:17:59.600,-0.035,-0.355
2021-08-19 02:17:59.604,-0.04,-0.35
2021-08-19 02:17:59.608,-0.05,-0.35
2021-08-19 02:17:59.612,-0.02,-0.365
2021-08-19 02:17:59.616,-0.015,-0.37
2021-08-19 02:17:59.620,-0.015,-0.365
2021-08-19 02:17:59.624,-0.015,-0.395
2021-08-19 02:17:59.628,0.005,-0.39
2021-08-19 02:17:59.632,0.015,-0.39
2021-08-19 02:17:59.636,0.0,-0.39
2021-08-19 02:17:59.640,0.0,-0.395
2021-08-19 02:17:59.644,0.02,-0.375
2021-08-19 02:17:59.648,0.035,-0.365
2021-08-19 02:17:59.652,0.02,-0.39
2021-08-19 02:17:59.656,0.02,-0.41
2021-08-19 02:17:59.660,0.01,-0.385
2021-08-19 02:17:59.664,0.025,-0.395
2021-08-19 02:17:59.668,0.03,-0.415
2021-08-19 02:17:59.672,0.005,-0.42
2021-08-19 02:17:59.676,0.015,-0.42
2021-08-19 02:17:59.680,0.0,-0.43
2021-08-19 02:17:59.684,0.005,-0.425
2021-08-19 02:17:59.688,0.01,-0.425
2021-08-19 02:17:59.692,0.02,-0.415
2021-08-19 02:17:59.696,0.01,-0.415
2021-08-19 02:17:59.700,0.015,-0.405
2021-08-19 02:17:59.704,0.0,-0.425
2021-08-19 02:17:59.708,0.015,-0.435
2021-08-19 02:17:59.712,0.02,-0.45
2021-08-19 02:17:59.716,0.03,-0.46
2021-08-19 02:17:59.720,0.02,-0.455
2021-08-19 02:17:59.724,0.035,-0.465
2021-08-19 02:17:59.728,0.045,-0.475
2021-08-19 02:17:59.732,0.055,-0.48
2021-08-19 02:17:59.736,0.065,-0.5
2021-08-19 02:17:59.740,0.06,-0.505
2021-08-19 02:17:59.744,0.06,-0.515
2021-08-19 02:17:59.748,0.065,-0.515
2021-08-19 02:17:59.752,0.075,-0.52
2021-08-19 02:17:59.756,0.08,-0.51
2021-08-19 02:17:59.760,0.06,-0.505
2021-08-19 02:17:59.764,0.05,-0.5
2021-08-19 02:17:59.768,0.05,-0.475
2021-08-19 02:17:59.772,0.03,-0.49
2021-08-19 02:17:59.776,0.05,-0.455
2021-08-19 02:17:59.780,0.06,-0.435
2021-08-19 02:17:59.784,0.06,-0.395
2021-08-19 02:17:59.788,0.045,-0.395
2021-08-19 02:17:59.792,0.04,-0.365
2021-08-19 02:17:59.796,-0.02,-0.32
2021-08-19 02:17:59.800,-0.03,-0.285
2021-08-19 02:17:59.804,-0.055,-0.265
2021-08-19 02:17:59.808,-0.06,-0.24
2021-08-19 02:17:59.812,-0.06,-0.21
2021-08-19 02:17:59.816,-0.075,-0.185
2021-08-19 02:17:59.820,-0.06,-0.16
2021-08-19 02:17:59.824,-0.06,-0.165
2021-08-19 02:17:59.828,-0.045,-0.155
2021-08-19 02:17:59.832,-0.025,-0.13
2021-08-19 02:17:59.836,-0.035,-0.11
2021-08-19 02:17:59.840,-0.025,-0.1
2021-08-19 02:17:59.844,-0.02,-0.095
2021-08-19 02:17:59.848,-0.01,-0.095
2021-08-19 02:17:59.852,-0.03,-0.08
2021-08-19 02:17:59.856,-0.03,-0.085
2021-08-19 02:17:59.860,-0.025,-0.08
2021-08-19 02:17:59.864,0.0,-0.09
2021-08-19 02:17:59.868,-0.025,-0.09
2021-08-19 02:17:59.872,-0.025,-0.12
2021-08-19 02:17:59.876,-0.015,-0.12
2021-08-19 02:17:59.880,-0.005,-0.12
2021-08-19 02:17:59.884,0.0,-0.15
2021-08-19 02:17:59.888,-0.01,-0.165
2021-08-19 02:17:59.892,-0.015,-0.155
2021-08-19 02:17:59.896,-0.005,-0.145
2021-08-19 02:17:59.900,-0.005,-0.15
2021-08-19 02:17:59.904,-0.005,-0.15
2021-08-19 02:17:59.908,-0.01,-0.15
2021-08-19 02:17:59.912,0.015,-0.175
2021-08-19 02:17:59.916,0.015,-0.18
2021-08-19 02:17:59.920,0.045,-0.18
2021-08-19 02:17:59.924,0.025,-0.185
2021-08-19 02:17:59.928,0.04,-0.17
2021-08-19 02:17:59.932,0.06,-0.18
2021-08-19 02:17:59.936,0.05,-0.17
2021-08-19 02:17:59.940,0.065,-0.165
2021-08-19 02:17:59.944,0.05,-0.175
2021-08-19 02:17:59.948,0.035,-0.165
2021-08-19 02:17:59.952,0.075,-0.145
2021-08-19 02:17:59.956,0.09,-0.16
2021-08-19 02:17:59.960,0.08,-0.155
2021-08-19 02:17:59.964,0.1,-0.17
2021-08-19 02:17:59.968,0.06,-0.17
2021-08-19 02:17:59.972,0.095,-0.16
2021-08-19 02:17:59.976,0.09,-0.14
2021-08-19 02:17:59.980,0.13,-0.155
2021-08-19 02:17:59.984,0.145,-0.175
2021-08-19 02:17:59.988,0.13,-0.18
2021-08-19 02:17:59.992,0.14,-0.17
2021-08-19 02:17:59.996,0.14,-0.155
2021-08-19 02:18:00.000,0.15,-0.155
2021-08-19 02:18:00.004,0.085,-0.13
2021-08-19 02:18:00.008,0.075,-0.125
2021-08-19 02:18:00.012,0.055,-0.135
2021-08-19 02:18:00.016,0.005,-0.125
2021-08-19 02:18:00.020,0.0,-0.145
2021-08-19 02:18:00.024,0.005,-0.16
2021-08-19 02:18:00.028,-0.005,-0.155
2021-08-19 02:18:00.032,-0.015,-0.165
2021-08-19 02:18:00.036,-0.01,-0.16
2021-08-19 02:18:00.040,-0.02,-0.15
2021-08-19 02:18:00.044,0.0,-0.155
2021-08-19 02:18:00.048,0.005,-0.165
2021-08-19 02:18:00.052,0.0,-0.16
2021-08-19 02:18:00.056,-0.005,-0.175
2021-08-19 02:18:00.060,0.0,-0.19
2021-08-19 02:18:00.064,-0.015,-0.195
2021-08-19 02:18:00.068,-0.015,-0.2
2021-08-19 02:18:00.072,0.0,-0.225
2021-08-19 02:18:00.076,-0.01,-0.235
2021-08-19 02:18:00.080,-0.025,-0.24
2021-08-19 02:18:00.084,-0.025,-0.24
2021-08-19 02:18:00.088,-0.025,-0.24
2021-08-19 02:18:00.092,-0.04,-0.235
2021-08-19 02:18:00.096,-0.035,-0.21
2021-08-19 02:18:00.100,-0.03,-0.195
2021-08-19 02:18:00.104,-0.055,-0.19
2021-08-19 02:18:00.108,-0.035,-0.21
2021-08-19 02:18:00.112,-0.05,-0.21
2021-08-19 02:18:00.116,-0.05,-0.225
2021-08-19 02:18:00.120,-0.03,-0.21
2021-08-19 02:18:00.124,-0.01,-0.225
2021-08-19 02:18:00.128,0.0,-0.22
2021-08-19 02:18:00.132,0.005,-0.225
2021-08-19 02:18:00.136,-0.015,-0.24
2021-08-19 02:18:00.140,0.01,-0.23
2021-08-19 02:18:00.144,0.015,-0.235
2021-08-19 02:18:00.148,0.015,-0.275
2021-08-19 02:18:00.152,0.02,-0.27
2021-08-19 02:18:00.156,0.02,-0.285
2021-08-19 02:18:00.160,0.025,-0.27
2021-08-19 02:18:00.164,0.02,-0.3
2021-08-19 02:18:00.168,0.025,-0.33
2021-08-19 02:18:00.172,0.02,-0.33
2021-08-19 02:18:00.176,-0.005,-0.34
2021-08-19 02:18:00.180,0.005,-0.38
2021-08-19 02:18:00.184,0.01,-0.345
2021-08-19 02:18:00.188,0.005,-0.33
2021-08-19 02:18:00.192,0.0,-0.29
2021-08-19 02:18:00.196,0.03,-0.28
2021-08-19 02:18:00.200,0.03,-0.24
2021-08-19 02:18:00.204,0.05,-0.225
2021-08-19 02:18:00.208,0.06,-0.22
2021-08-19 02:18:00.212,0.025,-0.215
2021-08-19 02:18:00.216,0.02,-0.19
2021-08-19 02:18:00.220,0.025,-0.14
2021-08-19 02:18:00.224,-0.025,-0.13
2021-08-19 02:18:00.228,-0.02,-0.16
2021-08-19 02:18:00.232,-0.03,-0.14
2021-08-19 02:18:00.236,-0.05,-0.14
2021-08-19 02:18:00.240,-0.05,-0.115
2021-08-19 02:18:00.244,-0.035,-0.12
2021-08-19 02:18:00.248,-0.005,-0.11
2021-08-19 02:18:00.252,-0.01,-0.055
2021-08-19 02:18:00.256,0.02,-0.02
2021-08-19 02:18:00.260,-0.005,0.06
2021-08-19 02:18:00.264,0.02,0.275
2021-08-19 02:18:00.268,0.015,0.61
2021-08-19 02:18:00.272,0.005,0.955
2021-08-19 02:18:00.276,0.04,1.245
2021-08-19 02:18:00.280,0.025,1.455
2021-08-19 02:18:00.284,0.03,1.585
2021-08-19 02:18:00.288,-0.005,1.605
2021-08-19 02:18:00.292,-0.005,1.42
2021-08-19 02:18:00.296,-0.075,0.995
2021-08-19 02:18:00.300,-0.125,0.495
2021-08-19 02:18:00.304,-0.33,0.135
2021-08-19 02:18:00.308,-0.63,0.075
2021-08-19 02:18:00.312,-0.925,0.12
2021-08-19 02:18:00.316,-1.155,0.03
2021-08-19 02:18:00.320,-1.285,-0.28
2021-08-19 02:18:00.324,-1.28,-0.53
2021-08-19 02:18:00.328,-1.095,-0.735
2021-08-19 02:18:00.332,-0.74,-0.775
2021-08-19 02:18:00.336,-0.4,-0.77
2021-08-19 02:18:00.340,-0.205,-0.67
2021-08-19 02:18:00.344,-0.155,-0.535
2021-08-19 02:18:00.348,-0.145,-0.485
2021-08-19 02:18:00.352,-0.19,-0.49
2021-08-19 02:18:00.356,-0.19,-0.485
2021-08-19 02:18:00.360,-0.16,-0.48
2021-08-19 02:18:00.364,-0.1,-0.5
2021-08-19 02:18:00.368,-0.04,-0.515
2021-08-19 02:18:00.372,-0.015,-0.5
2021-08-19 02:18:00.376,0.02,-0.46
2021-08-19 02:18:00.380,0.05,-0.465
2021-08-19 02:18:00.384,0.07,-0.46
2021-08-19 02:18:00.388,0.065,-0.455
2021-08-19 02:18:00.392,0.08,-0.465
2021-08-19 02:18:00.396,0.09,-0.45
2021-08-19 02:18:00.400,0.07,-0.475
2021-08-19 02:18:00.404,0.09,-0.48
2021-08-19 02:18:00.408,0.105,-0.465
2021-08-19 02:18:00.412,0.105,-0.46
2021-08-19 02:18:00.416,0.115,-0.43
2021-08-19 02:18:00.420,0.135,-0.425
2021-08-19 02:18:00.424,0.16,-0.415
2021-08-19 02:18:00.428,0.15,-0.39
2021-08-19 02:18:00.432,0.105,-0.365
2021-08-19 02:18:00.436,0.125,-0.365
2021-08-19 02:18:00.440,0.08,-0.355
2021-08-19 02:18:00.444,0.08,-0.37
2021-08-19 02:18:00.448,0.065,-0.38
2021-08-19 02:18:00.452,0.055,-0.39
2021-08-19 02:18:00.456,0.065,-0.41
2021-08-19 02:18:00.460,0.06,-0.415
2021-08-19 02:18:00.464,0.08,-0.42
2021-08-19 02:18:00.468,0.09,-0.41
2021-08-19 02:18:00.472,0.085,-0.435
2021-08-19 02:18:00.476,0.055,-0.455
2021-08-19 02:18:00.480,0.08,-0.465
2021-08-19 02:18:00.484,0.065,-0.505
2021-08-19 02:18:00.488,0.055,-0.5
2021-08-19 02:18:00.492,0.055,-0.515
2021-08-19 02:18:00.496,0.05,-0.52
2021-08-19 02:18:00.500,0.04,-0.535
2021-08-19 02:18:00.504,0.045,-0.54
2021-08-19 02:18:00.508,0.035,-0.51
2021-08-19 02:18:00.512,0.05,-0.5
2021-08-19 02:18:00.516,0.04,-0.51
2021-08-19 02:18:00.520,0.02,-0.51
2021-08-19 02:18:00.524,0.035,-0.51
2021-08-19 02:18:00.528,0.025,-0.48
2021-08-19 02:18:00.532,0.055,-0.48
2021-08-19 02:18:00.536,0.06,-0.45
2021-08-19 02:18:00.540,0.08,-0.455
2021-08-19 02:18:00.544,0.095,-0.445
2021-08-19 02:18:00.548,0.09,-0.44
2021-08-19 02:18:00.552,0.115,-0.41
2021-08-19 02:18:00.556,0.11,-0.4
2021-08-19 02:18:00.560,0.1,-0.34
2021-08-19 02:18:00.564,0.105,-0.33
2021-08-19 02:18:00.568,0.125,-0.3
2021-08-19 02:18:00.572,0.125,-0.275
2021-08-19 02:18:00.576,0.11,-0.26
2021-08-19 02:18:00.580,0.11,-0.24
2021-08-19 02:18:00.584,0.1,-0.22
2021-08-19 02:18:00.588,0.115,-0.205
2021-08-19 02:18:00.592,0.09,-0.175
2021-08-19 02:18:00.596,0.085,-0.15
2021-08-19 02:18:00.600,0.095,-0.125
2021-08-19 02:18:00.604,0.1,-0.085
2021-08-19 02:18:00.608,0.085,-0.07
2021-08-19 02:18:00.612,0.095,-0.04
2021-08-19 02:18:00.616,0.115,-0.055
2021-08-19 02:18:00.620,0.105,-0.035
2021-08-19 02:18:00.624,0.13,-0.05
2021-08-19 02:18:00.628,0.14,-0.065
2021-08-19 02:18:00.632,0.145,-0.09
2021-08-19 02:18:00.636,0.195,-0.085
2021-08-19 02:18:00.640,0.205,-0.115
2021-08-19 02:18:00.644,0.21,-0.115
2021-08-19 02:18:00.648,0.21,-0.125
2021-08-19 02:18:00.652,0.175,-0.14
2021-08-19 02:18:00.656,0.16,-0.155
2021-08-19 02:18:00.660,0.14,-0.185
2021-08-19 02:18:00.664,0.105,-0.195
2021-08-19 02:18:00.668,0.09,-0.205
2021-08-19 02:18:00.672,0.065,-0.205
2021-08-19 02:18:00.676,0.06,-0.22
2021-08-19 02:18:00.680,0.065,-0.245
2021-08-19 02:18:00.684,0.03,-0.26
2021-08-19 02:18:00.688,0.01,-0.275
2021-08-19 02:18:00.692,0.015,-0.28
2021-08-19 02:18:00.696,0.0,-0.27
2021-08-19 02:18:00.700,0.005,-0.29
2021-08-19 02:18:00.704,0.005,-0.28
2021-08-19 02:18:00.708,0.0,-0.285
2021-08-19 02:18:00.712,0.01,-0.265
2021-08-19 02:18:00.716,0.015,-0.265
2021-08-19 02:18:00.720,-0.02,-0.245
2021-08-19 02:18:00.724,0.01,-0.245
2021-08-19 02:18:00.728,0.01,-0.25
2021-08-19 02:18:00.732,0.005,-0.24
2021-08-19 02:18:00.736,0.025,-0.26
2021-08-19 02:18:00.740,0.02,-0.265
2021-08-19 02:18:00.744,0.025,-0.265
2021-08-19 02:18:00.748,0.035,-0.26
2021-08-19 02:18:00.752,0.035,-0.25
2021-08-19 02:18:00.756,0.04,-0.255
2021-08-19 02:18:00.760,0.03,-0.26
2021-08-19 02:18:00.764,0.04,-0.27
2021-08-19 02:18:00.768,0.04,-0.27
2021-08-19 02:18:00.772,0.04,-0.25
2021-08-19 02:18:00.776,0.045,-0.265
2021-08-19 02:18:00.780,0.065,-0.26
2021-08-19 02:18:00.784,0.04,-0.26
2021-08-19 02:18:00.788,0.055,-0.26
2021-08-19 02:18:00.792,0.065,-0.275
2021-08-19 02:18:00.796,0.05,-0.245
2021-08-19 02:18:00.800,0.025,-0.235
2021-08-19 02:18:00.804,0.05,-0.215
2021-08-19 02:18:00.808,0.05,-0.175
2021-08-19 02:18:00.812,0.04,-0.175
2021-08-19 02:18:00.816,0.05,-0.17
2021-08-19 02:18:00.820,0.04,-0.14
2021-08-19 02:18:00.824,0.06,-0.12
2021-08-19 02:18:00.828,0.045,-0.12
2021-08-19 02:18:00.832,0.08,-0.125
2021-08-19 02:18:00.836,0.09,-0.12
2021-08-19 02:18:00.840,0.075,-0.115
2021-08-19 02:18:00.844,0.07,-0.125
2021-08-19 02:18:00.848,0.11,-0.12
2021-08-19 02:18:00.852,0.105,-0.08
2021-08-19 02:18:00.856,0.095,-0.045
2021-08-19 02:18:00.860,0.11,-0.035
2021-08-19 02:18:00.864,0.12,-0.025
2021-08-19 02:18:00.868,0.155,-0.03
2021-08-19 02:18:00.872,0.165,-0.04
2021-08-19 02:18:00.876,0.195,-0.085
2021-08-19 02:18:00.880,0.165,-0.135
2021-08-19 02:18:00.884,0.135,-0.15
2021-08-19 02:18:00.888,0.105,-0.18
2021-08-19 02:18:00.892,0.065,-0.22
2021-08-19 02:18:00.896,0.035,-0.21
2021-08-19 02:18:00.900,0.015,-0.23
2021-08-19 02:18:00.904,0.01,-0.22
2021-08-19 02:18:00.908,0.0,-0.22
2021-08-19 02:18:00.912,-0.03,-0.24
2021-08-19 02:18:00.916,-0.075,-0.25
2021-08-19 02:18:00.920,-0.05,-0.24
2021-08-19 02:18:00.924,-0.055,-0.23
2021-08-19 02:18:00.928,-0.03,-0.255
2021-08-19 02:18:00.932,-0.005,-0.245
2021-08-19 02:18:00.936,0.0,-0.245
2021-08-19 02:18:00.940,0.01,-0.265
2021-08-19 02:18:00.944,0.01,-0.25
2021-08-19 02:18:00.948,-0.01,-0.26
2021-08-19 02:18:00.952,0.03,-0.26
2021-08-19 02:18:00.956,0.015,-0.275
2021-08-19 02:18:00.960,0.005,-0.245
2021-08-19 02:18:00.964,0.02,-0.265
2021-08-19 02:18:00.968,0.02,-0.26
2021-08-19 02:18:00.972,0.0,-0.275
2021-08-19 02:18:00.976,0.0,-0.27
2021-08-19 02:18:00.980,0.005,-0.265
2021-08-19 02:18:00.984,0.005,-0.27
2021-08-19 02:18:00.988,0.0,-0.265
2021-08-19 02:18:00.992,0.0,-0.26
2021-08-19 02:18:00.996,0.005,-0.27
2021-08-19 02:18:01.000,-0.005,-0.265
2021-08-19 02:18:01.004,-0.005,-0.28
2021-08-19 02:18:01.008,0.005,-0.265
2021-08-19 02:18:01.012,0.0,-0.225
2021-08-19 02:18:01.016,0.005,-0.21
2021-08-19 02:18:01.020,0.0,-0.18
2021-08-19 02:18:01.024,0.0,-0.175
2021-08-19 02:18:01.028,0.01,-0.17
2021-08-19 02:18:01.032,0.0,-0.175
2021-08-19 02:18:01.036,0.01,-0.175
2021-08-19 02:18:01.040,0.025,-0.19
2021-08-19 02:18:01.044,0.015,-0.17
2021-08-19 02:18:01.048,0.025,-0.17
2021-08-19 02:18:01.052,0.03,-0.16
2021-08-19 02:18:01.056,0.06,-0.16
2021-08-19 02:18:01.060,0.045,-0.16
2021-08-19 02:18:01.064,0.05,-0.165
2021-08-19 02:18:01.068,0.045,-0.165
2021-08-19 02:18:01.072,0.07,-0.155
2021-08-19 02:18:01.076,0.055,-0.15
2021-08-19 02:18:01.080,0.09,-0.15
2021-08-19 02:18:01.084,0.11,-0.15
2021-08-19 02:18:01.088,0.115,-0.14
2021-08-19 02:18:01.092,0.135,-0.18
2021-08-19 02:18:01.096,0.11,-0.175
2021-08-19 02:18:01.100,0.085,-0.18
2021-08-19 02:18:01.104,0.075,-0.15
2021-08-19 02:18:01.108,0.02,-0.15
2021-08-19 02:18:01.112,0.01,-0.17
2021-08-19 02:18:01.116,-0.015,-0.17
2021-08-19 02:18:01.120,-0.045,-0.155
2021-08-19 02:18:01.124,-0.03,-0.18
2021-08-19 02:18:01.128,-0.005,-0.165
2021-08-19 02:18:01.132,-0.03,-0.155
2021-08-19 02:18:01.136,-0.02,-0.155
2021-08-19 02:18:01.140,-0.005,-0.175
2021-08-19 02:18:01.144,-0.01,-0.165
2021-08-19 02:18:01.148,-0.01,-0.16
2021-08-19 02:18:01.152,0.015,-0.155
2021-08-19 02:18:01.156,0.01,-0.155
2021-08-19 02:18:01.160,0.005,-0.155
2021-08-19 02:18:01.164,0.0,-0.16
2021-08-19 02:18:01.168,0.0,-0.15
2021-08-19 02:18:01.172,0.005,-0.185
2021-08-19 02:18:01.176,0.0,-0.215
2021-08-19 02:18:01.180,0.005,-0.2
2021-08-19 02:18:01.184,0.015,-0.215
2021-08-19 02:18:01.188,0.0,-0.215
2021-08-19 02:18:01.192,0.015,-0.225
2021-08-19 02:18:01.196,0.01,-0.235
2021-08-19 02:18:01.200,-0.005,-0.24
2021-08-19 02:18:01.204,0.01,-0.24
2021-08-19 02:18:01.208,0.005,-0.225
2021-08-19 02:18:01.212,0.01,-0.215
2021-08-19 02:18:01.216,0.01,-0.195
2021-08-19 02:18:01.220,0.005,-0.185
2021-08-19 02:18:01.224,0.005,-0.17
2021-08-19 02:18:01.228,0.005,-0.16
2021-08-19 02:18:01.232,0.02,-0.17
2021-08-19 02:18:01.236,0.03,-0.13
2021-08-19 02:18:01.240,0.025,-0.09
2021-08-19 02:18:01.244,0.05,-0.05
2021-08-19 02:18:01.248,0.05,0.045
2021-08-19 02:18:01.252,0.04,0.285
2021-08-19 02:18:01.256,0.05,0.69
2021-08-19 02:18:01.260,0.075,1.07
2021-08-19 02:18:01.264,0.1,1.405
2021-08-19 02:18:01.268,0.1,1.675
2021-08-19 02:18:01.272,0.105,1.865
2021-08-19 02:18:01.276,0.065,1.89
2021-08-19 02:18:01.280,0.06,1.685
2021-08-19 02:18:01.284,0.025,1.255
2021-08-19 02:18:01.288,-0.075,0.7
2021-08-19 02:18:01.292,-0.285,0.33
2021-08-19 02:18:01.296,-0.59,0.21
2021-08-19 02:18:01.300,-0.865,0.25
2021-08-19 02:18:01.304,-1.04,0.155
2021-08-19 02:18:01.308,-1.175,-0.095
2021-08-19 02:18:01.312,-1.19,-0.42
2021-08-19 02:18:01.316,-1.075,-0.64
2021-08-19 02:18:01.320,-0.8,-0.73
2021-08-19 02:18:01.324,-0.46,-0.74
2021-08-19 02:18:01.328,-0.255,-0.67
2021-08-19 02:18:01.332,-0.145,-0.56
2021-08-19 02:18:01.336,-0.175,-0.46
2021-08-19 02:18:01.340,-0.205,-0.425
2021-08-19 02:18:01.344,-0.19,-0.43
2021-08-19 02:18:01.348,-0.17,-0.43
2021-08-19 02:18:01.352,-0.16,-0.435
2021-08-19 02:18:01.356,-0.1,-0.435
2021-08-19 02:18:01.360,-0.05,-0.45
2021-08-19 02:18:01.364,-0.005,-0.44
2021-08-19 02:18:01.368,0.03,-0.45
2021-08-19 02:18:01.372,0.05,-0.475
2021-08-19 02:18:01.376,0.05,-0.47
2021-08-19 02:18:01.380,0.055,-0.455
2021-08-19 02:18:01.384,0.065,-0.465
2021-08-19 02:18:01.388,0.065,-0.475
2021-08-19 02:18:01.392,0.085,-0.475
2021-08-19 02:18:01.396,0.06,-0.44
2021-08-19 02:18:01.400,0.085,-0.465
2021-08-19 02:18:01.404,0.095,-0.435
2021-08-19 02:18:01.408,0.085,-0.44
2021-08-19 02:18:01.412,0.085,-0.43
2021-08-19 02:18:01.416,0.09,-0.435
2021-08-19 02:18:01.420,0.105,-0.43
2021-08-19 02:18:01.424,0.095,-0.405
2021-08-19 02:18:01.428,0.105,-0.405
2021-08-19 02:18:01.432,0.135,-0.395
2021-08-19 02:18:01.436,0.11,-0.4
2021-08-19 02:18:01.440,0.115,-0.42
2021-08-19 02:18:01.444,0.125,-0.405
2021-08-19 02:18:01.448,0.135,-0.4
2021-08-19 02:18:01.452,0.145,-0.39
2021-08-19 02:18:01.456,0.145,-0.41
2021-08-19 02:18:01.460,0.135,-0.39
2021-08-19 02:18:01.464,0.135,-0.395
2021-08-19 02:18:01.468,0.16,-0.385
2021-08-19 02:18:01.472,0.155,-0.395
2021-08-19 02:18:01.476,0.165,-0.405
2021-08-19 02:18:01.480,0.15,-0.415
2021-08-19 02:18:01.484,0.165,-0.41
2021-08-19 02:18:01.488,0.18,-0.44
2021-08-19 02:18:01.492,0.155,-0.45
2021-08-19 02:18:01.496,0.17,-0.43
2021-08-19 02:18:01.500,0.175,-0.41
2021-08-19 02:18:01.504,0.18,-0.39
2021-08-19 02:18:01.508,0.15,-0.385
2021-08-19 02:18:01.512,0.17,-0.385
2021-08-19 02:18:01.516,0.15,-0.375
2021-08-19 02:18:01.520,0.12,-0.35
2021-08-19 02:18:01.524,0.1,-0.34
2021-08-19 02:18:01.528,0.095,-0.335
2021-08-19 02:18:01.532,0.105,-0.33
2021-08-19 02:18:01.536,0.1,-0.305
2021-08-19 02:18:01.540,0.1,-0.315
2021-08-19 02:18:01.544,0.11,-0.295
2021-08-19 02:18:01.548,0.115,-0.28
2021-08-19 02:18:01.552,0.11,-0.265
2021-08-19 02:18:01.556,0.115,-0.25
2021-08-19 02:18:01.560,0.105,-0.235
2021-08-19 02:18:01.564,0.135,-0.18
2021-08-19 02:18:01.568,0.105,-0.175
2021-08-19 02:18:01.572,0.13,-0.155
2021-08-19 02:18:01.576,0.12,-0.135
2021-08-19 02:18:01.580,0.135,-0.125
2021-08-19 02:18:01.584,0.125,-0.125
2021-08-19 02:18:01.588,0.125,-0.1
2021-08-19 02:18:01.592,0.115,-0.085
2021-08-19 02:18:01.596,0.1,-0.08
2021-08-19 02:18:01.600,0.12,-0.045
2021-08-19 02:18:01.604,0.1,-0.045
2021-08-19 02:18:01.608,0.11,-0.07
2021-08-19 02:18:01.612,0.095,-0.07
2021-08-19 02:18:01.616,0.12,-0.06
2021-08-19 02:18:01.620,0.115,-0.07
2021-08-19 02:18:01.624,0.11,-0.09
2021-08-19 02:18:01.628,0.1,-0.075
2021-08-19 02:18:01.632,0.08,-0.09
2021-08-19 02:18:01.636,0.07,-0.1
2021-08-19 02:18:01.640,0.09,-0.09
2021-08-19 02:18:01.644,0.095,-0.11
2021-08-19 02:18:01.648,0.095,-0.12
2021-08-19 02:18:01.652,0.085,-0.135
2021-08-19 02:18:01.656,0.075,-0.155
2021-08-19 02:18:01.660,0.09,-0.15
2021-08-19 02:18:01.664,0.095,-0.17
2021-08-19 02:18:01.668,0.11,-0.155
2021-08-19 02:18:01.672,0.12,-0.175
2021-08-19 02:18:01.676,0.11,-0.17
2021-08-19 02:18:01.680,0.095,-0.18
2021-08-19 02:18:01.684,0.105,-0.16
2021-08-19 02:18:01.688,0.12,-0.17
2021-08-19 02:18:01.692,0.13,-0.18
2021-08-19 02:18:01.696,0.15,-0.165
2021-08-19 02:18:01.700,0.155,-0.165
2021-08-19 02:18:01.704,0.175,-0.18
2021-08-19 02:18:01.708,0.17,-0.195
2021-08-19 02:18:01.712,0.16,-0.22
2021-08-19 02:18:01.716,0.12,-0.185
2021-08-19 02:18:01.720,0.065,-0.18
2021-08-19 02:18:01.724,0.035,-0.185
2021-08-19 02:18:01.728,0.035,-0.185
2021-08-19 02:18:01.732,0.025,-0.155
2021-08-19 02:18:01.736,0.06,-0.16
2021-08-19 02:18:01.740,0.035,-0.165
2021-08-19 02:18:01.744,0.04,-0.14
2021-08-19 02:18:01.748,0.045,-0.15
2021-08-19 02:18:01.752,0.055,-0.125
2021-08-19 02:18:01.756,0.05,-0.115
2021-08-19 02:18:01.760,0.05,-0.12
2021-08-19 02:18:01.764,0.045,-0.11
2021-08-19 02:18:01.768,0.04,-0.095
2021-08-19 02:18:01.772,0.05,-0.1
2021-08-19 02:18:01.776,0.06,-0.105
2021-08-19 02:18:01.780,0.07,-0.11
2021-08-19 02:18:01.784,0.095,-0.16
2021-08-19 02:18:01.788,0.075,-0.17
2021-08-19 02:18:01.792,0.065,-0.17
2021-08-19 02:18:01.796,0.065,-0.17
2021-08-19 02:18:01.800,0.065,-0.19
2021-08-19 02:18:01.804,0.065,-0.17
2021-08-19 02:18:01.808,0.06,-0.175
2021-08-19 02:18:01.812,0.05,-0.17
2021-08-19 02:18:01.816,0.04,-0.175
2021-08-19 02:18:01.820,0.05,-0.185
2021-08-19 02:18:01.824,0.045,-0.185
2021-08-19 02:18:01.828,0.045,-0.17
2021-08-19 02:18:01.832,0.06,-0.18
2021-08-19 02:18:01.836,0.035,-0.185
2021-08-19 02:18:01.840,0.05,-0.175
2021-08-19 02:18:01.844,0.035,-0.19
2021-08-19 02:18:01.848,0.06,-0.165
2021-08-19 02:18:01.852,0.035,-0.165
2021-08-19 02:18:01.856,0.035,-0.155
2021-08-19 02:18:01.860,0.045,-0.155
2021-08-19 02:18:01.864,0.055,-0.185
2021-08-19 02:18:01.868,0.075,-0.16
2021-08-19 02:18:01.872,0.065,-0.19
2021-08-19 02:18:01.876,0.05,-0.2
2021-08-19 02:18:01.880,0.07,-0.2
2021-08-19 02:18:01.884,0.05,-0.205
2021-08-19 02:18:01.888,0.045,-0.17
2021-08-19 02:18:01.892,0.06,-0.18
2021-08-19 02:18:01.896,0.075,-0.195
2021-08-19 02:18:01.900,0.045,-0.185
2021-08-19 02:18:01.904,0.06,-0.18
2021-08-19 02:18:01.908,0.06,-0.19
2021-08-19 02:18:01.912,0.07,-0.18
2021-08-19 02:18:01.916,0.115,-0.17
2021-08-19 02:18:01.920,0.1,-0.155
2021-08-19 02:18:01.924,0.1,-0.145
2021-08-19 02:18:01.928,0.105,-0.12
2021-08-19 02:18:01.932,0.09,-0.11
2021-08-19 02:18:01.936,0.075,-0.12
2021-08-19 02:18:01.940,0.065,-0.12
2021-08-19 02:18:01.944,0.08,-0.12
2021-08-19 02:18:01.948,0.04,-0.125
2021-08-19 02:18:01.952,0.025,-0.125
2021-08-19 02:18:01.956,0.025,-0.11
2021-08-19 02:18:01.960,0.025,-0.12
2021-08-19 02:18:01.964,0.025,-0.13
2021-08-19 02:18:01.968,0.0,-0.155
2021-08-19 02:18:01.972,0.01,-0.11
2021-08-19 02:18:01.976,-0.005,-0.125
2021-08-19 02:18:01.980,0.025,-0.125
2021-08-19 02:18:01.984,0.03,-0.115
2021-08-19 02:18:01.988,0.015,-0.135
2021-08-19 02:18:01.992,0.005,-0.17
2021-08-19 02:18:01.996,0.01,-0.2
2021-08-19 02:18:02.000,0.015,-0.175
2021-08-19 02:18:02.004,0.01,-0.17
2021-08-19 02:18:02.008,0.01,-0.14
2021-08-19 02:18:02.012,-0.01,-0.09
2021-08-19 02:18:02.016,0.01,0.005
2021-08-19 02:18:02.020,0.005,0.235
2021-08-19 02:18:02.024,-0.005,0.645
2021-08-19 02:18:02.028,-0.025,1.055
2021-08-19 02:18:02.032,-0.015,1.395
2021-08-19 02:18:02.036,0.025,1.635
2021-08-19 02:18:02.040,0.015,1.835
2021-08-19 02:18:02.044,-0.02,1.89
2021-08-19 02:18:02.048,-0.005,1.685
2021-08-19 02:18:02.052,-0.025,1.265
2021-08-19 02:18:02.056,-0.09,0.735
2021-08-19 02:18:02.060,-0.32,0.35
2021-08-19 02:18:02.064,-0.575,0.24
2021-08-19 02:18:02.068,-0.865,0.245
2021-08-19 02:18:02.072,-1.075,0.15
2021-08-19 02:18:02.076,-1.21,-0.12
2021-08-19 02:18:02.080,-1.22,-0.44
2021-08-19 02:18:02.084,-1.09,-0.695
2021-08-19 02:18:02.088,-0.785,-0.85
2021-08-19 02:18:02.092,-0.435,-0.89
2021-08-19 02:18:02.096,-0.225,-0.835
2021-08-19 02:18:02.100,-0.16,-0.69
2021-08-19 02:18:02.104,-0.155,-0.605
2021-08-19 02:18:02.108,-0.175,-0.56
2021-08-19 02:18:02.112,-0.19,-0.52
2021-08-19 02:18:02.116,-0.19,-0.535
2021-08-19 02:18:02.120,-0.16,-0.525
2021-08-19 02:18:02.124,-0.115,-0.51
2021-08-19 02:18:02.128,-0.07,-0.5
2021-08-19 02:18:02.132,0.0,-0.435
2021-08-19 02:18:02.136,0.02,-0.45
2021-08-19 02:18:02.140,0.045,-0.405
2021-08-19 02:18:02.144,0.07,-0.39
2021-08-19 02:18:02.148,0.085,-0.365
2021-08-19 02:18:02.152,0.14,-0.335
2021-08-19 02:18:02.156,0.15,-0.32
2021-08-19 02:18:02.160,0.155,-0.335
2021-08-19 02:18:02.164,0.165,-0.335
2021-08-19 02:18:02.168,0.155,-0.325
2021-08-19 02:18:02.172,0.135,-0.32
2021-08-19 02:18:02.176,0.135,-0.325
2021-08-19 02:18:02.180,0.12,-0.345
2021-08-19 02:18:02.184,0.105,-0.36
2021-08-19 02:18:02.188,0.085,-0.365
2021-08-19 02:18:02.192,0.085,-0.39
2021-08-19 02:18:02.196,0.08,-0.38
2021-08-19 02:18:02.200,0.075,-0.365
2021-08-19 02:18:02.204,0.065,-0.395
2021-08-19 02:18:02.208,0.07,-0.43
2021-08-19 02:18:02.212,0.06,-0.435
2021-08-19 02:18:02.216,0.045,-0.425
2021-08-19 02:18:02.220,0.05,-0.435
2021-08-19 02:18:02.224,0.06,-0.45
2021-08-19 02:18:02.228,0.06,-0.46
2021-08-19 02:18:02.232,0.035,-0.445
2021-08-19 02:18:02.236,0.06,-0.445
2021-08-19 02:18:02.240,0.05,-0.445
2021-08-19 02:18:02.244,0.04,-0.45
2021-08-19 02:18:02.248,0.055,-0.44
2021-08-19 02:18:02.252,0.07,-0.445
2021-08-19 02:18:02.256,0.065,-0.44
2021-08-19 02:18:02.260,0.06,-0.425
2021-08-19 02:18:02.264,0.075,-0.435
2021-08-19 02:18:02.268,0.09,-0.43
2021-08-19 02:18:02.272,0.09,-0.43
2021-08-19 02:18:02.276,0.1,-0.42
2021-08-19 02:18:02.280,0.08,-0.42
2021-08-19 02:18:02.284,0.09,-0.425
2021-08-19 02:18:02.288,0.095,-0.43
2021-08-19 02:18:02.292,0.105,-0.415
2021-08-19 02:18:02.296,0.105,-0.41
2021-08-19 02:18:02.300,0.12,-0.43
2021-08-19 02:18:02.304,0.115,-0.44
2021-08-19 02:18:02.308,0.11,-0.4
2021-08-19 02:18:02.312,0.1,-0.425
2021-08-19 02:18:02.316,0.135,-0.415
2021-08-19 02:18:02.320,0.135,-0.37
2021-08-19 02:18:02.324,0.11,-0.365
2021-08-19 02:18:02.328,0.095,-0.335
2021-08-19 02:18:02.332,0.095,-0.275
2021-08-19 02:18:02.336,0.095,-0.25
2021-08-19 02:18:02.340,0.1,-0.22
2021-08-19 02:18:02.344,0.125,-0.185
2021-08-19 02:18:02.348,0.115,-0.125
2021-08-19 02:18:02.352,0.11,-0.11
2021-08-19 02:18:02.356,0.13,-0.08
2021-08-19 02:18:02.360,0.14,-0.07
2021-08-19 02:18:02.364,0.17,-0.04
2021-08-19 02:18:02.368,0.145,-0.035
2021-08-19 02:18:02.372,0.135,-0.03
2021-08-19 02:18:02.376,0.13,-0.04
2021-08-19 02:18:02.380,0.1,-0.06
2021-08-19 02:18:02.384,0.09,-0.06
2021-08-19 02:18:02.388,0.075,-0.08
2021-08-19 02:18:02.392,0.05,-0.105
2021-08-19 02:18:02.396,0.075,-0.14
2021-08-19 02:18:02.400,0.075,-0.14
2021-08-19 02:18:02.404,0.06,-0.15
2021-08-19 02:18:02.408,0.04,-0.165
2021-08-19 02:18:02.412,0.055,-0.18
2021-08-19 02:18:02.416,0.04,-0.18
2021-08-19 02:18:02.420,0.04,-0.19
2021-08-19 02:18:02.424,0.025,-0.225
2021-08-19 02:18:02.428,0.02,-0.22
2021-08-19 02:18:02.432,0.04,-0.245
2021-08-19 02:18:02.436,0.045,-0.235
2021-08-19 02:18:02.440,0.03,-0.24
2021-08-19 02:18:02.444,0.05,-0.24
2021-08-19 02:18:02.448,0.035,-0.23
2021-08-19 02:18:02.452,0.06,-0.215
2021-08-19 02:18:02.456,0.03,-0.225
2021-08-19 02:18:02.460,0.04,-0.205
2021-08-19 02:18:02.464,0.025,-0.21
2021-08-19 02:18:02.468,0.035,-0.2
2021-08-19 02:18:02.472,0.045,-0.205
2021-08-19 02:18:02.476,0.045,-0.185
2021-08-19 02:18:02.480,0.055,-0.195
2021-08-19 02:18:02.484,0.07,-0.2
2021-08-19 02:18:02.488,0.06,-0.18
2021-08-19 02:18:02.492,0.085,-0.19
2021-08-19 02:18:02.496,0.095,-0.175
2021-08-19 02:18:02.500,0.095,-0.195
2021-08-19 02:18:02.504,0.095,-0.21
2021-08-19 02:18:02.508,0.09,-0.22
2021-08-19 02:18:02.512,0.08,-0.23
2021-08-19 02:18:02.516,0.09,-0.245
2021-08-19 02:18:02.520,0.075,-0.25
2021-08-19 02:18:02.524,0.09,-0.25
2021-08-19 02:18:02.528,0.07,-0.255
2021-08-19 02:18:02.532,0.055,-0.235
2021-08-19 02:18:02.536,0.055,-0.18
2021-08-19 02:18:02.540,0.06,-0.16
2021-08-19 02:18:02.544,0.075,-0.13
2021-08-19 02:18:02.548,0.06,-0.11
2021-08-19 02:18:02.552,0.08,-0.08
2021-08-19 02:18:02.556,0.115,-0.08
2021-08-19 02:18:02.560,0.12,-0.045
2021-08-19 02:18:02.564,0.125,-0.08
2021-08-19 02:18:02.568,0.11,-0.075
2021-08-19 02:18:02.572,0.105,-0.07
2021-08-19 02:18:02.576,0.07,-0.08
2021-08-19 02:18:02.580,0.06,-0.1
2021-08-19 02:18:02.584,0.05,-0.1
2021-08-19 02:18:02.588,0.065,-0.125
2021-08-19 02:18:02.592,0.045,-0.145
2021-08-19 02:18:02.596,0.035,-0.155
2021-08-19 02:18:02.600,0.04,-0.17
2021-08-19 02:18:02.604,0.015,-0.155
2021-08-19 02:18:02.608,0.01,-0.175
2021-08-19 02:18:02.612,0.03,-0.16
2021-08-19 02:18:02.616,0.01,-0.185
2021-08-19 02:18:02.620,0.01,-0.185
2021-08-19 02:18:02.624,0.0,-0.175
2021-08-19 02:18:02.628,0.005,-0.205
2021-08-19 02:18:02.632,-0.005,-0.205
2021-08-19 02:18:02.636,0.0,-0.21
2021-08-19 02:18:02.640,0.0,-0.21
2021-08-19 02:18:02.644,-0.005,-0.215
2021-08-19 02:18:02.648,0.0,-0.24
2021-08-19 02:18:02.652,0.005,-0.235
2021-08-19 02:18:02.656,0.01,-0.24
2021-08-19 02:18:02.660,0.0,-0.225
2021-08-19 02:18:02.664,0.01,-0.225
2021-08-19 02:18:02.668,0.01,-0.185
2021-08-19 02:18:02.672,0.005,-0.18
2021-08-19 02:18:02.676,0.0,-0.17
2021-08-19 02:18:02.680,0.0,-0.13
2021-08-19 02:18:02.684,0.0,-0.08
2021-08-19 02:18:02.688,0.02,-0.045
2021-08-19 02:18:02.692,0.025,0.02
2021-08-19 02:18:02.696,0.0,0.165
2021-08-19 02:18:02.700,0.015,0.49
2021-08-19 02:18:02.704,0.035,0.865
2021-08-19 02:18:02.708,0.045,1.2
2021-08-19 02:18:02.712,0.06,1.42
2021-08-19 02:18:02.716,0.075,1.585
2021-08-19 02:18:02.720,0.045,1.695
2021-08-19 02:18:02.724,0.04,1.6
2021-08-19 02:18:02.728,0.025,1.315
2021-08-19 02:18:02.732,-0.01,0.855
2021-08-19 02:18:02.736,-0.17,0.44
2021-08-19 02:18:02.740,-0.425,0.21
2021-08-19 02:18:02.744,-0.75,0.245
2021-08-19 02:18:02.748,-1.025,0.29
2021-08-19 02:18:02.752,-1.23,0.15
2021-08-19 02:18:02.756,-1.28,-0.1
2021-08-19 02:18:02.760,-1.25,-0.4
2021-08-19 02:18:02.764,-1.02,-0.56
2021-08-19 02:18:02.768,-0.635,-0.615
2021-08-19 02:18:02.772,-0.26,-0.6
2021-08-19 02:18:02.776,-0.085,-0.47
2021-08-19 02:18:02.780,-0.02,-0.345
2021-08-19 02:18:02.784,-0.01,-0.27
2021-08-19 02:18:02.788,-0.025,-0.23
2021-08-19 02:18:02.792,-0.06,-0.23
2021-08-19 02:18:02.796,-0.05,-0.24
2021-08-19 02:18:02.800,-0.04,-0.255
2021-08-19 02:18:02.804,-0.035,-0.265
2021-08-19 02:18:02.808,0.01,-0.275
2021-08-19 02:18:02.812,0.035,-0.28
2021-08-19 02:18:02.816,0.055,-0.3
2021-08-19 02:18:02.820,0.05,-0.295
2021-08-19 02:18:02.824,0.045,-0.305
2021-08-19 02:18:02.828,0.05,-0.32
2021-08-19 02:18:02.832,0.04,-0.335
2021-08-19 02:18:02.836,0.08,-0.35
2021-08-19 02:18:02.840,0.08,-0.365
2021-08-19 02:18:02.844,0.085,-0.365
2021-08-19 02:18:02.848,0.085,-0.38
2021-08-19 02:18:02.852,0.075,-0.36
2021-08-19 02:18:02.856,0.08,-0.365
2021-08-19 02:18:02.860,0.065,-0.365
2021-08-19 02:18:02.864,0.07,-0.36
2021-08-19 02:18:02.868,0.065,-0.355
2021-08-19 02:18:02.872,0.105,-0.35
2021-08-19 02:18:02.876,0.065,-0.34
2021-08-19 02:18:02.880,0.065,-0.3
2021-08-19 02:18:02.884,0.095,-0.29
2021-08-19 02:18:02.888,0.1,-0.285
2021-08-19 02:18:02.892,0.115,-0.27
2021-08-19 02:18:02.896,0.105,-0.27
2021-08-19 02:18:02.900,0.125,-0.26
2021-08-19 02:18:02.904,0.13,-0.27
2021-08-19 02:18:02.908,0.15,-0.27
2021-08-19 02:18:02.912,0.145,-0.28
2021-08-19 02:18:02.916,0.185,-0.29
2021-08-19 02:18:02.920,0.185,-0.315
2021-08-19 02:18:02.924,0.19,-0.3
2021-08-19 02:18:02.928,0.175,-0.325
2021-08-19 02:18:02.932,0.17,-0.33
2021-08-19 02:18:02.936,0.17,-0.35
2021-08-19 02:18:02.940,0.18,-0.38
2021-08-19 02:18:02.944,0.175,-0.36
2021-08-19 02:18:02.948,0.175,-0.35
2021-08-19 02:18:02.952,0.16,-0.32
2021-08-19 02:18:02.956,0.145,-0.315
2021-08-19 02:18:02.960,0.17,-0.3
2021-08-19 02:18:02.964,0.17,-0.29
2021-08-19 02:18:02.968,0.135,-0.275
2021-08-19 02:18:02.972,0.165,-0.255
2021-08-19 02:18:02.976,0.195,-0.245
2021-08-19 02:18:02.980,0.21,-0.215
2021-08-19 02:18:02.984,0.24,-0.16
2021-08-19 02:18:02.988,0.26,-0.135
2021-08-19 02:18:02.992,0.285,-0.12
2021-08-19 02:18:02.996,0.275,-0.09
2021-08-19 02:18:03.000,0.28,-0.085
2021-08-19 02:18:03.004,0.265,-0.09
2021-08-19 02:18:03.008,0.26,-0.06
2021-08-19 02:18:03.012,0.24,-0.065
2021-08-19 02:18:03.016,0.19,-0.065
2021-08-19 02:18:03.020,0.17,-0.065
2021-08-19 02:18:03.024,0.15,-0.085
2021-08-19 02:18:03.028,0.125,-0.055
2021-08-19 02:18:03.032,0.12,-0.075
2021-08-19 02:18:03.036,0.11,-0.045
2021-08-19 02:18:03.040,0.075,-0.06
2021-08-19 02:18:03.044,0.085,-0.065
2021-08-19 02:18:03.048,0.1,-0.075
2021-08-19 02:18:03.052,0.09,-0.075
2021-08-19 02:18:03.056,0.065,-0.08
2021-08-19 02:18:03.060,0.085,-0.105
2021-08-19 02:18:03.064,0.07,-0.095
2021-08-19 02:18:03.068,0.05,-0.12
2021-08-19 02:18:03.072,0.025,-0.12
2021-08-19 02:18:03.076,0.045,-0.135
2021-08-19 02:18:03.080,0.045,-0.13
2021-08-19 02:18:03.084,0.03,-0.13
2021-08-19 02:18:03.088,0.015,-0.12
2021-08-19 02:18:03.092,0.015,-0.135
2021-08-19 02:18:03.096,0.03,-0.12
2021-08-19 02:18:03.100,0.035,-0.105
2021-08-19 02:18:03.104,0.01,-0.125
2021-08-19 02:18:03.108,0.035,-0.12
2021-08-19 02:18:03.112,0.055,-0.135
2021-08-19 02:18:03.116,0.055,-0.125
2021-08-19 02:18:03.120,0.045,-0.125
2021-08-19 02:18:03.124,0.08,-0.16
2021-08-19 02:18:03.128,0.055,-0.14
2021-08-19 02:18:03.132,0.085,-0.16
2021-08-19 02:18:03.136,0.065,-0.16
2021-08-19 02:18:03.140,0.07,-0.195
2021-08-19 02:18:03.144,0.075,-0.215
2021-08-19 02:18:03.148,0.06,-0.235
2021-08-19 02:18:03.152,0.07,-0.265
2021-08-19 02:18:03.156,0.06,-0.245
