Time,ECG1,ECG2
2021-08-19 19:26:51.904,-0.455,-0.315
2021-08-19 19:26:51.908,-0.44,-0.29
2021-08-19 19:26:51.912,-0.425,-0.25
2021-08-19 19:26:51.916,-0.42,-0.195
2021-08-19 19:26:51.920,-0.45,-0.265
2021-08-19 19:26:51.924,-0.46,-0.285
2021-08-19 19:26:51.928,-0.49,-0.28
2021-08-19 19:26:51.932,-0.49,-0.205
2021-08-19 19:26:51.936,-0.44,-0.17
2021-08-19 19:26:51.940,-0.395,-0.175
2021-08-19 19:26:51.944,-0.36,-0.145
2021-08-19 19:26:51.948,-0.37,-0.065
2021-08-19 19:26:51.952,-0.38,-0.04
2021-08-19 19:26:51.956,-0.38,-0.015
2021-08-19 19:26:51.960,-0.37,0.02
2021-08-19 19:26:51.964,-0.345,-0.045
2021-08-19 19:26:51.968,-0.335,-0.055
2021-08-19 19:26:51.972,-0.31,-0.045
2021-08-19 19:26:51.976,-0.325,-0.045
2021-08-19 19:26:51.980,-0.355,-0.115
2021-08-19 19:26:51.984,-0.38,-0.09
2021-08-19 19:26:51.988,-0.41,0.0
2021-08-19 19:26:51.992,-0.405,0.055
2021-08-19 19:26:51.996,-0.36,0.02
2021-08-19 19:26:52.000,-0.345,-0.06
2021-08-19 19:26:52.004,-0.365,-0.095
2021-08-19 19:26:52.008,-0.38,-0.05
2021-08-19 19:26:52.012,-0.415,-0.04
2021-08-19 19:26:52.016,-0.385,-0.045
2021-08-19 19:26:52.020,-0.335,-0.02
2021-08-19 19:26:52.024,-0.32,-0.03
2021-08-19 19:26:52.028,-0.37,-0.04
2021-08-19 19:26:52.032,-0.4,-0.055
2021-08-19 19:26:52.036,-0.435,-0.065
2021-08-19 19:26:52.040,-0.475,-0.05
2021-08-19 19:26:52.044,-0.465,-0.08
2021-08-19 19:26:52.048,-0.45,-0.15
2021-08-19 19:26:52.052,-0.465,-0.23
2021-08-19 19:26:52.056,-0.495,-0.235
2021-08-19 19:26:52.060,-0.495,-0.185
2021-08-19 19:26:52.064,-0.495,-0.115
2021-08-19 19:26:52.068,-0.48,-0.085
2021-08-19 19:26:52.072,-0.45,-0.09
2021-08-19 19:26:52.076,-0.455,-0.11
2021-08-19 19:26:52.080,-0.49,-0.11
2021-08-19 19:26:52.084,-0.5,-0.135
2021-08-19 19:26:52.088,-0.485,-0.21
2021-08-19 19:26:52.092,-0.445,-0.245
2021-08-19 19:26:52.096,-0.435,-0.235
2021-08-19 19:26:52.100,-0.43,-0.17
2021-08-19 19:26:52.104,-0.4,-0.105
2021-08-19 19:26:52.108,-0.335,-0.075
2021-08-19 19:26:52.112,-0.28,-0.11
2021-08-19 19:26:52.116,-0.215,-0.155
2021-08-19 19:26:52.120,-0.09,-0.19
2021-08-19 19:26:52.124,0.015,-0.16
2021-08-19 19:26:52.128,0.07,-0.195
2021-08-19 19:26:52.132,0.11,-0.305
2021-08-19 19:26:52.136,0.165,-0.425
2021-08-19 19:26:52.140,0.205,-0.525
2021-08-19 19:26:52.144,0.19,-0.575
2021-08-19 19:26:52.148,0.2,-0.62
2021-08-19 19:26:52.152,0.33,-0.78
2021-08-19 19:26:52.156,0.615,-1.02
2021-08-19 19:26:52.160,0.895,-1.305
2021-08-19 19:26:52.164,0.99,-1.49
2021-08-19 19:26:52.168,0.84,-1.535
2021-08-19 19:26:52.172,0.365,-1.365
2021-08-19 19:26:52.176,-0.115,-0.965
2021-08-19 19:26:52.180,-0.385,-0.54
2021-08-19 19:26:52.184,-0.525,-0.295
2021-08-19 19:26:52.188,-0.54,-0.14
2021-08-19 19:26:52.192,-0.53,-0.005
2021-08-19 19:26:52.196,-0.545,0.085
2021-08-19 19:26:52.200,-0.61,0.13
2021-08-19 19:26:52.204,-0.625,0.14
2021-08-19 19:26:52.208,-0.645,0.155
2021-08-19 19:26:52.212,-0.66,0.16
2021-08-19 19:26:52.216,-0.675,0.125
2021-08-19 19:26:52.220,-0.695,0.16
2021-08-19 19:26:52.224,-0.69,0.21
2021-08-19 19:26:52.228,-0.735,0.215
2021-08-19 19:26:52.232,-0.735,0.135
2021-08-19 19:26:52.236,-0.7,0.045
2021-08-19 19:26:52.240,-0.605,0.005
2021-08-19 19:26:52.244,-0.58,0.005
2021-08-19 19:26:52.248,-0.62,0.015
2021-08-19 19:26:52.252,-0.63,0.035
2021-08-19 19:26:52.256,-0.635,0.05
2021-08-19 19:26:52.260,-0.615,0.02
2021-08-19 19:26:52.264,-0.62,0.0
2021-08-19 19:26:52.268,-0.605,0.05
2021-08-19 19:26:52.272,-0.595,0.075
2021-08-19 19:26:52.276,-0.58,0.005
2021-08-19 19:26:52.280,-0.575,-0.025
2021-08-19 19:26:52.284,-0.53,0.005
2021-08-19 19:26:52.288,-0.47,0.0
2021-08-19 19:26:52.292,-0.505,0.0
2021-08-19 19:26:52.296,-0.58,0.005
2021-08-19 19:26:52.300,-0.595,0.015
2021-08-19 19:26:52.304,-0.56,0.06
2021-08-19 19:26:52.308,-0.575,0.09
2021-08-19 19:26:52.312,-0.59,0.12
2021-08-19 19:26:52.316,-0.61,0.17
2021-08-19 19:26:52.320,-0.59,0.16
2021-08-19 19:26:52.324,-0.565,0.075
2021-08-19 19:26:52.328,-0.475,0.055
2021-08-19 19:26:52.332,-0.41,0.12
2021-08-19 19:26:52.336,-0.42,0.175
2021-08-19 19:26:52.340,-0.455,0.25
2021-08-19 19:26:52.344,-0.435,0.355
2021-08-19 19:26:52.348,-0.44,0.38
2021-08-19 19:26:52.352,-0.44,0.28
2021-08-19 19:26:52.356,-0.435,0.175
2021-08-19 19:26:52.360,-0.49,0.165
2021-08-19 19:26:52.364,-0.54,0.26
2021-08-19 19:26:52.368,-0.53,0.29
2021-08-19 19:26:52.372,-0.49,0.275
2021-08-19 19:26:52.376,-0.445,0.325
2021-08-19 19:26:52.380,-0.37,0.31
2021-08-19 19:26:52.384,-0.39,0.275
2021-08-19 19:26:52.388,-0.41,0.26
2021-08-19 19:26:52.392,-0.455,0.25
2021-08-19 19:26:52.396,-0.49,0.23
2021-08-19 19:26:52.400,-0.545,0.22
2021-08-19 19:26:52.404,-0.58,0.205
2021-08-19 19:26:52.408,-0.63,0.165
2021-08-19 19:26:52.412,-0.64,0.17
2021-08-19 19:26:52.416,-0.615,0.13
2021-08-19 19:26:52.420,-0.585,0.085
2021-08-19 19:26:52.424,-0.555,0.035
2021-08-19 19:26:52.428,-0.535,0.035
2021-08-19 19:26:52.432,-0.535,0.07
2021-08-19 19:26:52.436,-0.545,0.045
2021-08-19 19:26:52.440,-0.54,0.03
2021-08-19 19:26:52.444,-0.48,-0.05
2021-08-19 19:26:52.448,-0.445,-0.06
2021-08-19 19:26:52.452,-0.45,-0.065
2021-08-19 19:26:52.456,-0.525,-0.065
2021-08-19 19:26:52.460,-0.55,-0.155
2021-08-19 19:26:52.464,-0.56,-0.19
2021-08-19 19:26:52.468,-0.555,-0.125
2021-08-19 19:26:52.472,-0.545,-0.095
2021-08-19 19:26:52.476,-0.54,-0.07
2021-08-19 19:26:52.480,-0.5,-0.12
2021-08-19 19:26:52.484,-0.43,-0.12
2021-08-19 19:26:52.488,-0.415,-0.12
2021-08-19 19:26:52.492,-0.415,-0.125
2021-08-19 19:26:52.496,-0.385,-0.115
2021-08-19 19:26:52.500,-0.4,-0.045
2021-08-19 19:26:52.504,-0.38,0.02
2021-08-19 19:26:52.508,-0.38,0.005
2021-08-19 19:26:52.512,-0.37,-0.045
2021-08-19 19:26:52.516,-0.395,-0.045
2021-08-19 19:26:52.520,-0.42,-0.065
2021-08-19 19:26:52.524,-0.455,-0.045
2021-08-19 19:26:52.528,-0.485,0.035
2021-08-19 19:26:52.532,-0.46,0.075
2021-08-19 19:26:52.536,-0.425,0.035
2021-08-19 19:26:52.540,-0.375,0.0
2021-08-19 19:26:52.544,-0.36,-0.03
2021-08-19 19:26:52.548,-0.405,-0.015
2021-08-19 19:26:52.552,-0.48,-0.005
2021-08-19 19:26:52.556,-0.495,0.0
2021-08-19 19:26:52.560,-0.51,0.04
2021-08-19 19:26:52.564,-0.515,0.07
2021-08-19 19:26:52.568,-0.525,0.06
2021-08-19 19:26:52.572,-0.56,0.045
2021-08-19 19:26:52.576,-0.565,0.045
2021-08-19 19:26:52.580,-0.585,0.1
2021-08-19 19:26:52.584,-0.55,0.12
2021-08-19 19:26:52.588,-0.51,0.065
2021-08-19 19:26:52.592,-0.465,0.035
2021-08-19 19:26:52.596,-0.43,0.005
2021-08-19 19:26:52.600,-0.425,-0.015
2021-08-19 19:26:52.604,-0.445,-0.02
2021-08-19 19:26:52.608,-0.435,-0.04
2021-08-19 19:26:52.612,-0.4,-0.05
2021-08-19 19:26:52.616,-0.32,-0.04
2021-08-19 19:26:52.620,-0.205,-0.04
2021-08-19 19:26:52.624,-0.02,-0.09
2021-08-19 19:26:52.628,0.085,-0.09
2021-08-19 19:26:52.632,0.105,-0.11
2021-08-19 19:26:52.636,0.07,-0.225
2021-08-19 19:26:52.640,0.03,-0.34
2021-08-19 19:26:52.644,0.01,-0.43
2021-08-19 19:26:52.648,-0.035,-0.51
2021-08-19 19:26:52.652,-0.02,-0.675
2021-08-19 19:26:52.656,0.125,-0.92
2021-08-19 19:26:52.660,0.415,-1.2
2021-08-19 19:26:52.664,0.7,-1.465
2021-08-19 19:26:52.668,0.87,-1.585
2021-08-19 19:26:52.672,0.73,-1.61
2021-08-19 19:26:52.676,0.37,-1.415
2021-08-19 19:26:52.680,-0.005,-0.995
2021-08-19 19:26:52.684,-0.225,-0.565
2021-08-19 19:26:52.688,-0.33,-0.305
2021-08-19 19:26:52.692,-0.435,-0.16
2021-08-19 19:26:52.696,-0.475,-0.105
2021-08-19 19:26:52.700,-0.545,-0.05
2021-08-19 19:26:52.704,-0.555,0.015
2021-08-19 19:26:52.708,-0.535,0.07
2021-08-19 19:26:52.712,-0.505,0.105
2021-08-19 19:26:52.716,-0.49,0.105
2021-08-19 19:26:52.720,-0.485,0.05
2021-08-19 19:26:52.724,-0.525,0.06
2021-08-19 19:26:52.728,-0.575,0.125
2021-08-19 19:26:52.732,-0.555,0.195
2021-08-19 19:26:52.736,-0.495,0.175
2021-08-19 19:26:52.740,-0.48,0.105
2021-08-19 19:26:52.744,-0.535,0.025
2021-08-19 19:26:52.748,-0.62,0.065
2021-08-19 19:26:52.752,-0.66,0.14
2021-08-19 19:26:52.756,-0.665,0.2
2021-08-19 19:26:52.760,-0.64,0.255
2021-08-19 19:26:52.764,-0.635,0.235
2021-08-19 19:26:52.768,-0.625,0.205
2021-08-19 19:26:52.772,-0.6,0.17
2021-08-19 19:26:52.776,-0.59,0.155
2021-08-19 19:26:52.780,-0.64,0.215
2021-08-19 19:26:52.784,-0.645,0.285
2021-08-19 19:26:52.788,-0.625,0.265
2021-08-19 19:26:52.792,-0.58,0.15
2021-08-19 19:26:52.796,-0.56,0.035
2021-08-19 19:26:52.800,-0.57,0.065
2021-08-19 19:26:52.804,-0.565,0.15
2021-08-19 19:26:52.808,-0.54,0.175
2021-08-19 19:26:52.812,-0.51,0.1
2021-08-19 19:26:52.816,-0.495,0.03
2021-08-19 19:26:52.820,-0.485,0.055
2021-08-19 19:26:52.824,-0.51,0.105
2021-08-19 19:26:52.828,-0.51,0.16
2021-08-19 19:26:52.832,-0.52,0.13
2021-08-19 19:26:52.836,-0.455,0.09
2021-08-19 19:26:52.840,-0.415,0.085
2021-08-19 19:26:52.844,-0.375,0.01
2021-08-19 19:26:52.848,-0.34,-0.04
2021-08-19 19:26:52.852,-0.36,-0.03
2021-08-19 19:26:52.856,-0.355,-0.015
2021-08-19 19:26:52.860,-0.345,0.04
2021-08-19 19:26:52.864,-0.34,0.125
2021-08-19 19:26:52.868,-0.365,0.135
2021-08-19 19:26:52.872,-0.395,0.065
2021-08-19 19:26:52.876,-0.415,-0.02
2021-08-19 19:26:52.880,-0.42,-0.03
2021-08-19 19:26:52.884,-0.405,0.01
2021-08-19 19:26:52.888,-0.4,0.045
2021-08-19 19:26:52.892,-0.37,0.03
2021-08-19 19:26:52.896,-0.36,0.015
2021-08-19 19:26:52.900,-0.335,0.045
2021-08-19 19:26:52.904,-0.32,0.135
2021-08-19 19:26:52.908,-0.3,0.135
2021-08-19 19:26:52.912,-0.325,0.02
2021-08-19 19:26:52.916,-0.34,-0.055
2021-08-19 19:26:52.920,-0.345,-0.06
2021-08-19 19:26:52.924,-0.295,-0.07
2021-08-19 19:26:52.928,-0.315,-0.04
2021-08-19 19:26:52.932,-0.38,-0.04
2021-08-19 19:26:52.936,-0.415,0.0
2021-08-19 19:26:52.940,-0.415,0.005
2021-08-19 19:26:52.944,-0.435,0.0
2021-08-19 19:26:52.948,-0.44,-0.04
2021-08-19 19:26:52.952,-0.44,-0.04
2021-08-19 19:26:52.956,-0.4,-0.035
2021-08-19 19:26:52.960,-0.39,-0.04
2021-08-19 19:26:52.964,-0.36,-0.035
2021-08-19 19:26:52.968,-0.365,-0.035
2021-08-19 19:26:52.972,-0.395,-0.035
2021-08-19 19:26:52.976,-0.45,-0.03
2021-08-19 19:26:52.980,-0.49,0.02
2021-08-19 19:26:52.984,-0.39,0.125
2021-08-19 19:26:52.988,-0.25,0.15
2021-08-19 19:26:52.992,-0.135,-0.03
2021-08-19 19:26:52.996,-0.105,-0.225
2021-08-19 19:26:53.000,-0.145,-0.31
2021-08-19 19:26:53.004,-0.19,-0.32
2021-08-19 19:26:53.008,-0.295,-0.335
2021-08-19 19:26:53.012,-0.425,-0.375
2021-08-19 19:26:53.016,-0.495,-0.45
2021-08-19 19:26:53.020,-0.36,-0.575
2021-08-19 19:26:53.024,-0.02,-0.8
2021-08-19 19:26:53.028,0.37,-1.065
2021-08-19 19:26:53.032,0.66,-1.36
2021-08-19 19:26:53.036,0.725,-1.56
2021-08-19 19:26:53.040,0.585,-1.58
2021-08-19 19:26:53.044,0.195,-1.28
2021-08-19 19:26:53.048,-0.18,-0.86
2021-08-19 19:26:53.052,-0.355,-0.51
2021-08-19 19:26:53.056,-0.4,-0.36
2021-08-19 19:26:53.060,-0.43,-0.275
2021-08-19 19:26:53.064,-0.45,-0.195
2021-08-19 19:26:53.068,-0.4,-0.115
2021-08-19 19:26:53.072,-0.335,-0.04
2021-08-19 19:26:53.076,-0.34,-0.03
2021-08-19 19:26:53.080,-0.37,-0.02
2021-08-19 19:26:53.084,-0.405,-0.045
2021-08-19 19:26:53.088,-0.41,-0.015
2021-08-19 19:26:53.092,-0.4,0.02
2021-08-19 19:26:53.096,-0.385,0.025
2021-08-19 19:26:53.100,-0.375,-0.035
2021-08-19 19:26:53.104,-0.345,-0.03
2021-08-19 19:26:53.108,-0.36,0.075
2021-08-19 19:26:53.112,-0.395,0.125
2021-08-19 19:26:53.116,-0.45,0.08
2021-08-19 19:26:53.120,-0.46,0.01
2021-08-19 19:26:53.124,-0.435,-0.05
2021-08-19 19:26:53.128,-0.36,-0.02
2021-08-19 19:26:53.132,-0.405,0.02
2021-08-19 19:26:53.136,-0.47,0.055
2021-08-19 19:26:53.140,-0.515,0.13
2021-08-19 19:26:53.144,-0.53,0.175
2021-08-19 19:26:53.148,-0.595,0.09
2021-08-19 19:26:53.152,-0.64,0.06
2021-08-19 19:26:53.156,-0.66,0.105
2021-08-19 19:26:53.160,-0.645,0.15
2021-08-19 19:26:53.164,-0.62,0.08
2021-08-19 19:26:53.168,-0.62,0.015
2021-08-19 19:26:53.172,-0.58,0.055
2021-08-19 19:26:53.176,-0.535,0.125
2021-08-19 19:26:53.180,-0.525,0.095
2021-08-19 19:26:53.184,-0.535,0.01
2021-08-19 19:26:53.188,-0.545,-0.015
2021-08-19 19:26:53.192,-0.555,0.02
2021-08-19 19:26:53.196,-0.585,0.055
2021-08-19 19:26:53.200,-0.595,0.085
2021-08-19 19:26:53.204,-0.585,0.08
2021-08-19 19:26:53.208,-0.565,0.075
2021-08-19 19:26:53.212,-0.565,0.055
2021-08-19 19:26:53.216,-0.565,-0.005
2021-08-19 19:26:53.220,-0.525,-0.02
2021-08-19 19:26:53.224,-0.545,-0.015
2021-08-19 19:26:53.228,-0.515,0.0
2021-08-19 19:26:53.232,-0.495,0.03
2021-08-19 19:26:53.236,-0.525,0.04
2021-08-19 19:26:53.240,-0.535,0.0
2021-08-19 19:26:53.244,-0.52,-0.06
2021-08-19 19:26:53.248,-0.54,-0.02
2021-08-19 19:26:53.252,-0.525,0.035
2021-08-19 19:26:53.256,-0.5,0.01
2021-08-19 19:26:53.260,-0.44,-0.045
2021-08-19 19:26:53.264,-0.4,-0.1
2021-08-19 19:26:53.268,-0.365,-0.14
2021-08-19 19:26:53.272,-0.375,-0.17
2021-08-19 19:26:53.276,-0.335,-0.225
2021-08-19 19:26:53.280,-0.285,-0.225
2021-08-19 19:26:53.284,-0.265,-0.18
2021-08-19 19:26:53.288,-0.26,-0.19
2021-08-19 19:26:53.292,-0.225,-0.21
2021-08-19 19:26:53.296,-0.185,-0.17
2021-08-19 19:26:53.300,-0.185,-0.095
2021-08-19 19:26:53.304,-0.175,-0.16
2021-08-19 19:26:53.308,-0.21,-0.215
2021-08-19 19:26:53.312,-0.23,-0.22
2021-08-19 19:26:53.316,-0.26,-0.215
2021-08-19 19:26:53.320,-0.295,-0.145
2021-08-19 19:26:53.324,-0.34,-0.115
2021-08-19 19:26:53.328,-0.37,-0.115
2021-08-19 19:26:53.332,-0.41,-0.135
2021-08-19 19:26:53.336,-0.465,-0.14
2021-08-19 19:26:53.340,-0.505,-0.11
2021-08-19 19:26:53.344,-0.485,-0.06
2021-08-19 19:26:53.348,-0.475,-0.06
2021-08-19 19:26:53.352,-0.475,-0.075
2021-08-19 19:26:53.356,-0.46,-0.05
2021-08-19 19:26:53.360,-0.45,-0.08
2021-08-19 19:26:53.364,-0.42,-0.12
2021-08-19 19:26:53.368,-0.41,-0.17
2021-08-19 19:26:53.372,-0.43,-0.175
2021-08-19 19:26:53.376,-0.47,-0.155
2021-08-19 19:26:53.380,-0.53,-0.12
2021-08-19 19:26:53.384,-0.535,-0.11
2021-08-19 19:26:53.388,-0.495,-0.12
2021-08-19 19:26:53.392,-0.475,-0.145
2021-08-19 19:26:53.396,-0.48,-0.19
2021-08-19 19:26:53.400,-0.5,-0.18
2021-08-19 19:26:53.404,-0.515,-0.13
2021-08-19 19:26:53.408,-0.525,-0.09
2021-08-19 19:26:53.412,-0.545,-0.08
2021-08-19 19:26:53.416,-0.57,-0.14
2021-08-19 19:26:53.420,-0.62,-0.2
2021-08-19 19:26:53.424,-0.65,-0.235
2021-08-19 19:26:53.428,-0.635,-0.15
2021-08-19 19:26:53.432,-0.6,-0.165
2021-08-19 19:26:53.436,-0.555,-0.195
2021-08-19 19:26:53.440,-0.52,-0.275
2021-08-19 19:26:53.444,-0.52,-0.3
2021-08-19 19:26:53.448,-0.455,-0.25
2021-08-19 19:26:53.452,-0.42,-0.18
2021-08-19 19:26:53.456,-0.395,-0.11
2021-08-19 19:26:53.460,-0.32,-0.135
2021-08-19 19:26:53.464,-0.27,-0.21
2021-08-19 19:26:53.468,-0.28,-0.245
2021-08-19 19:26:53.472,-0.27,-0.265
2021-08-19 19:26:53.476,-0.225,-0.2
2021-08-19 19:26:53.480,-0.285,-0.15
2021-08-19 19:26:53.484,-0.335,-0.13
2021-08-19 19:26:53.488,-0.28,-0.155
2021-08-19 19:26:53.492,-0.2,-0.17
2021-08-19 19:26:53.496,-0.195,-0.125
2021-08-19 19:26:53.500,-0.155,-0.11
2021-08-19 19:26:53.504,-0.05,-0.12
2021-08-19 19:26:53.508,0.09,-0.13
2021-08-19 19:26:53.512,0.2,-0.165
2021-08-19 19:26:53.516,0.265,-0.25
2021-08-19 19:26:53.520,0.28,-0.34
2021-08-19 19:26:53.524,0.275,-0.375
2021-08-19 19:26:53.528,0.23,-0.365
2021-08-19 19:26:53.532,0.135,-0.465
2021-08-19 19:26:53.536,0.0,-0.67
2021-08-19 19:26:53.540,-0.04,-0.835
2021-08-19 19:26:53.544,0.125,-0.975
2021-08-19 19:26:53.548,0.455,-1.215
2021-08-19 19:26:53.552,0.74,-1.41
2021-08-19 19:26:53.556,0.8,-1.565
2021-08-19 19:26:53.560,0.58,-1.525
2021-08-19 19:26:53.564,0.11,-1.27
2021-08-19 19:26:53.568,-0.24,-0.925
2021-08-19 19:26:53.572,-0.4,-0.655
2021-08-19 19:26:53.576,-0.455,-0.44
2021-08-19 19:26:53.580,-0.445,-0.36
2021-08-19 19:26:53.584,-0.445,-0.25
2021-08-19 19:26:53.588,-0.5,-0.145
2021-08-19 19:26:53.592,-0.545,-0.065
2021-08-19 19:26:53.596,-0.55,0.02
2021-08-19 19:26:53.600,-0.545,0.035
2021-08-19 19:26:53.604,-0.57,0.01
2021-08-19 19:26:53.608,-0.62,-0.065
2021-08-19 19:26:53.612,-0.62,-0.075
2021-08-19 19:26:53.616,-0.585,-0.04
2021-08-19 19:26:53.620,-0.58,-0.05
2021-08-19 19:26:53.624,-0.62,-0.085
2021-08-19 19:26:53.628,-0.635,-0.085
2021-08-19 19:26:53.632,-0.71,-0.08
2021-08-19 19:26:53.636,-0.735,-0.03
2021-08-19 19:26:53.640,-0.725,0.015
2021-08-19 19:26:53.644,-0.675,-0.02
2021-08-19 19:26:53.648,-0.64,-0.115
2021-08-19 19:26:53.652,-0.64,-0.165
2021-08-19 19:26:53.656,-0.59,-0.17
2021-08-19 19:26:53.660,-0.5,-0.09
2021-08-19 19:26:53.664,-0.455,-0.025
2021-08-19 19:26:53.668,-0.44,0.035
2021-08-19 19:26:53.672,-0.455,0.015
2021-08-19 19:26:53.676,-0.45,-0.075
2021-08-19 19:26:53.680,-0.425,-0.11
2021-08-19 19:26:53.684,-0.415,-0.045
2021-08-19 19:26:53.688,-0.42,0.0
2021-08-19 19:26:53.692,-0.445,0.025
2021-08-19 19:26:53.696,-0.455,0.07
2021-08-19 19:26:53.700,-0.4,0.105
2021-08-19 19:26:53.704,-0.37,0.12
2021-08-19 19:26:53.708,-0.37,0.095
2021-08-19 19:26:53.712,-0.395,0.065
2021-08-19 19:26:53.716,-0.41,0.09
2021-08-19 19:26:53.720,-0.395,0.12
2021-08-19 19:26:53.724,-0.415,0.145
2021-08-19 19:26:53.728,-0.475,0.19
2021-08-19 19:26:53.732,-0.575,0.18
2021-08-19 19:26:53.736,-0.625,0.19
2021-08-19 19:26:53.740,-0.63,0.19
2021-08-19 19:26:53.744,-0.575,0.16
2021-08-19 19:26:53.748,-0.57,0.095
2021-08-19 19:26:53.752,-0.61,0.08
2021-08-19 19:26:53.756,-0.62,0.125
2021-08-19 19:26:53.760,-0.565,0.15
2021-08-19 19:26:53.764,-0.505,0.095
2021-08-19 19:26:53.768,-0.49,0.005
2021-08-19 19:26:53.772,-0.47,-0.025
2021-08-19 19:26:53.776,-0.465,-0.015
2021-08-19 19:26:53.780,-0.47,-0.03
2021-08-19 19:26:53.784,-0.47,-0.09
2021-08-19 19:26:53.788,-0.5,-0.115
2021-08-19 19:26:53.792,-0.565,-0.09
2021-08-19 19:26:53.796,-0.65,-0.03
2021-08-19 19:26:53.800,-0.66,-0.115
2021-08-19 19:26:53.804,-0.595,-0.16
2021-08-19 19:26:53.808,-0.515,-0.175
2021-08-19 19:26:53.812,-0.42,-0.215
2021-08-19 19:26:53.816,-0.4,-0.24
2021-08-19 19:26:53.820,-0.395,-0.37
2021-08-19 19:26:53.824,-0.39,-0.57
2021-08-19 19:26:53.828,-0.29,-0.665
2021-08-19 19:26:53.832,-0.25,-0.66
2021-08-19 19:26:53.836,-0.24,-0.56
2021-08-19 19:26:53.840,-0.245,-0.4
2021-08-19 19:26:53.844,-0.28,0.025
2021-08-19 19:26:53.848,-0.42,0.59
2021-08-19 19:26:53.852,-0.645,1.025
2021-08-19 19:26:53.856,-0.805,1.2
2021-08-19 19:26:53.860,-0.89,1.25
2021-08-19 19:26:53.864,-0.86,1.24
2021-08-19 19:26:53.868,-0.78,1.185
2021-08-19 19:26:53.872,-0.63,1.105
2021-08-19 19:26:53.876,-0.495,1.1
2021-08-19 19:26:53.880,-0.335,1.2
2021-08-19 19:26:53.884,-0.29,1.34
2021-08-19 19:26:53.888,-0.275,1.325
2021-08-19 19:26:53.892,-0.255,1.16
2021-08-19 19:26:53.896,-0.29,0.895
2021-08-19 19:26:53.900,-0.3,0.645
2021-08-19 19:26:53.904,-0.33,0.405
2021-08-19 19:26:53.908,-0.38,0.145
2021-08-19 19:26:53.912,-0.395,-0.045
2021-08-19 19:26:53.916,-0.385,-0.125
2021-08-19 19:26:53.920,-0.39,-0.195
2021-08-19 19:26:53.924,-0.435,-0.23
2021-08-19 19:26:53.928,-0.455,-0.25
2021-08-19 19:26:53.932,-0.405,-0.24
2021-08-19 19:26:53.936,-0.345,-0.185
2021-08-19 19:26:53.940,-0.32,-0.14
2021-08-19 19:26:53.944,-0.34,-0.28
2021-08-19 19:26:53.948,-0.35,-0.44
2021-08-19 19:26:53.952,-0.375,-0.445
2021-08-19 19:26:53.956,-0.39,-0.385
2021-08-19 19:26:53.960,-0.415,-0.4
2021-08-19 19:26:53.964,-0.41,-0.43
2021-08-19 19:26:53.968,-0.395,-0.44
2021-08-19 19:26:53.972,-0.38,-0.415
2021-08-19 19:26:53.976,-0.395,-0.425
2021-08-19 19:26:53.980,-0.37,-0.455
2021-08-19 19:26:53.984,-0.375,-0.49
2021-08-19 19:26:53.988,-0.345,-0.445
2021-08-19 19:26:53.992,-0.325,-0.42
2021-08-19 19:26:53.996,-0.365,-0.51
2021-08-19 19:26:54.000,-0.39,-0.665
2021-08-19 19:26:54.004,-0.36,-0.685
2021-08-19 19:26:54.008,-0.3,-0.61
2021-08-19 19:26:54.012,-0.25,-0.62
2021-08-19 19:26:54.016,-0.225,-0.695
2021-08-19 19:26:54.020,-0.245,-0.725
2021-08-19 19:26:54.024,-0.26,-0.71
2021-08-19 19:26:54.028,-0.24,-0.68
2021-08-19 19:26:54.032,-0.26,-0.675
2021-08-19 19:26:54.036,-0.28,-0.73
2021-08-19 19:26:54.040,-0.245,-0.785
2021-08-19 19:26:54.044,-0.23,-0.79
2021-08-19 19:26:54.048,-0.22,-0.785
2021-08-19 19:26:54.052,-0.19,-0.77
2021-08-19 19:26:54.056,-0.13,-0.78
2021-08-19 19:26:54.060,-0.11,-0.745
2021-08-19 19:26:54.064,-0.1,-0.69
2021-08-19 19:26:54.068,-0.115,-0.645
2021-08-19 19:26:54.072,-0.17,-0.64
2021-08-19 19:26:54.076,-0.22,-0.615
2021-08-19 19:26:54.080,-0.245,-0.565
2021-08-19 19:26:54.084,-0.25,-0.53
2021-08-19 19:26:54.088,-0.24,-0.56
2021-08-19 19:26:54.092,-0.28,-0.63
2021-08-19 19:26:54.096,-0.29,-0.62
2021-08-19 19:26:54.100,-0.34,-0.595
2021-08-19 19:26:54.104,-0.385,-0.52
2021-08-19 19:26:54.108,-0.415,-0.51
2021-08-19 19:26:54.112,-0.425,-0.485
2021-08-19 19:26:54.116,-0.42,-0.495
2021-08-19 19:26:54.120,-0.435,-0.485
2021-08-19 19:26:54.124,-0.465,-0.405
2021-08-19 19:26:54.128,-0.45,-0.305
2021-08-19 19:26:54.132,-0.42,-0.275
2021-08-19 19:26:54.136,-0.46,-0.325
2021-08-19 19:26:54.140,-0.535,-0.39
2021-08-19 19:26:54.144,-0.57,-0.35
2021-08-19 19:26:54.148,-0.595,-0.245
2021-08-19 19:26:54.152,-0.57,-0.27
2021-08-19 19:26:54.156,-0.53,-0.385
2021-08-19 19:26:54.160,-0.475,-0.425
2021-08-19 19:26:54.164,-0.485,-0.32
2021-08-19 19:26:54.168,-0.505,-0.24
2021-08-19 19:26:54.172,-0.51,-0.165
2021-08-19 19:26:54.176,-0.48,-0.145
2021-08-19 19:26:54.180,-0.465,-0.2
2021-08-19 19:26:54.184,-0.425,-0.265
2021-08-19 19:26:54.188,-0.445,-0.23
2021-08-19 19:26:54.192,-0.44,-0.205
2021-08-19 19:26:54.196,-0.42,-0.245
2021-08-19 19:26:54.200,-0.395,-0.26
2021-08-19 19:26:54.204,-0.345,-0.24
2021-08-19 19:26:54.208,-0.32,-0.265
2021-08-19 19:26:54.212,-0.315,-0.255
2021-08-19 19:26:54.216,-0.37,-0.21
2021-08-19 19:26:54.220,-0.4,-0.12
2021-08-19 19:26:54.224,-0.45,-0.08
2021-08-19 19:26:54.228,-0.47,-0.15
2021-08-19 19:26:54.232,-0.49,-0.23
2021-08-19 19:26:54.236,-0.515,-0.29
2021-08-19 19:26:54.240,-0.51,-0.3
2021-08-19 19:26:54.244,-0.485,-0.255
2021-08-19 19:26:54.248,-0.445,-0.235
2021-08-19 19:26:54.252,-0.4,-0.24
2021-08-19 19:26:54.256,-0.355,-0.275
2021-08-19 19:26:54.260,-0.335,-0.26
2021-08-19 19:26:54.264,-0.3,-0.225
2021-08-19 19:26:54.268,-0.255,-0.225
2021-08-19 19:26:54.272,-0.235,-0.17
2021-08-19 19:26:54.276,-0.245,-0.165
2021-08-19 19:26:54.280,-0.215,-0.135
2021-08-19 19:26:54.284,-0.19,-0.155
2021-08-19 19:26:54.288,-0.19,-0.18
2021-08-19 19:26:54.292,-0.185,-0.26
2021-08-19 19:26:54.296,-0.125,-0.33
2021-08-19 19:26:54.300,-0.025,-0.3
2021-08-19 19:26:54.304,0.075,-0.265
2021-08-19 19:26:54.308,0.115,-0.26
2021-08-19 19:26:54.312,0.13,-0.32
2021-08-19 19:26:54.316,0.14,-0.39
2021-08-19 19:26:54.320,0.125,-0.47
2021-08-19 19:26:54.324,0.095,-0.55
2021-08-19 19:26:54.328,0.085,-0.63
2021-08-19 19:26:54.332,0.11,-0.76
2021-08-19 19:26:54.336,0.245,-0.91
2021-08-19 19:26:54.340,0.5,-1.12
2021-08-19 19:26:54.344,0.755,-1.375
2021-08-19 19:26:54.348,0.885,-1.665
2021-08-19 19:26:54.352,0.79,-1.81
2021-08-19 19:26:54.356,0.38,-1.665
2021-08-19 19:26:54.360,-0.11,-1.23
2021-08-19 19:26:54.364,-0.42,-0.79
2021-08-19 19:26:54.368,-0.545,-0.495
2021-08-19 19:26:54.372,-0.565,-0.34
2021-08-19 19:26:54.376,-0.57,-0.25
2021-08-19 19:26:54.380,-0.545,-0.225
2021-08-19 19:26:54.384,-0.53,-0.11
2021-08-19 19:26:54.388,-0.565,-0.055
2021-08-19 19:26:54.392,-0.545,-0.035
2021-08-19 19:26:54.396,-0.56,-0.035
2021-08-19 19:26:54.400,-0.56,-0.08
2021-08-19 19:26:54.404,-0.56,-0.105
2021-08-19 19:26:54.408,-0.58,-0.075
2021-08-19 19:26:54.412,-0.575,-0.045
2021-08-19 19:26:54.416,-0.585,-0.06
2021-08-19 19:26:54.420,-0.58,-0.13
2021-08-19 19:26:54.424,-0.57,-0.14
2021-08-19 19:26:54.428,-0.575,-0.09
2021-08-19 19:26:54.432,-0.55,-0.06
2021-08-19 19:26:54.436,-0.56,-0.055
2021-08-19 19:26:54.440,-0.53,-0.075
2021-08-19 19:26:54.444,-0.51,-0.05
2021-08-19 19:26:54.448,-0.515,-0.065
2021-08-19 19:26:54.452,-0.535,-0.065
2021-08-19 19:26:54.456,-0.565,-0.05
2021-08-19 19:26:54.460,-0.56,-0.01
2021-08-19 19:26:54.464,-0.535,0.07
2021-08-19 19:26:54.468,-0.545,0.1
2021-08-19 19:26:54.472,-0.525,-0.005
2021-08-19 19:26:54.476,-0.57,-0.07
2021-08-19 19:26:54.480,-0.57,-0.065
2021-08-19 19:26:54.484,-0.545,0.0
2021-08-19 19:26:54.488,-0.545,0.03
2021-08-19 19:26:54.492,-0.495,0.035
2021-08-19 19:26:54.496,-0.43,0.05
2021-08-19 19:26:54.500,-0.41,0.075
2021-08-19 19:26:54.504,-0.42,0.07
2021-08-19 19:26:54.508,-0.42,0.04
2021-08-19 19:26:54.512,-0.41,0.07
2021-08-19 19:26:54.516,-0.425,0.09
2021-08-19 19:26:54.520,-0.39,0.13
2021-08-19 19:26:54.524,-0.395,0.165
2021-08-19 19:26:54.528,-0.38,0.145
2021-08-19 19:26:54.532,-0.37,0.065
2021-08-19 19:26:54.536,-0.405,-0.025
2021-08-19 19:26:54.540,-0.44,-0.02
2021-08-19 19:26:54.544,-0.44,0.01
2021-08-19 19:26:54.548,-0.435,0.02
2021-08-19 19:26:54.552,-0.42,0.015
2021-08-19 19:26:54.556,-0.445,0.055
2021-08-19 19:26:54.560,-0.42,0.115
2021-08-19 19:26:54.564,-0.425,0.095
2021-08-19 19:26:54.568,-0.385,0.12
2021-08-19 19:26:54.572,-0.39,0.135
2021-08-19 19:26:54.576,-0.39,0.065
2021-08-19 19:26:54.580,-0.365,-0.105
2021-08-19 19:26:54.584,-0.395,-0.18
2021-08-19 19:26:54.588,-0.4,-0.1
2021-08-19 19:26:54.592,-0.405,-0.075
2021-08-19 19:26:54.596,-0.4,-0.055
2021-08-19 19:26:54.600,-0.405,-0.05
2021-08-19 19:26:54.604,-0.415,-0.08
2021-08-19 19:26:54.608,-0.43,-0.1
2021-08-19 19:26:54.612,-0.425,-0.145
2021-08-19 19:26:54.616,-0.445,-0.165
2021-08-19 19:26:54.620,-0.43,-0.165
2021-08-19 19:26:54.624,-0.425,-0.155
2021-08-19 19:26:54.628,-0.42,-0.18
2021-08-19 19:26:54.632,-0.42,-0.22
2021-08-19 19:26:54.636,-0.46,-0.21
2021-08-19 19:26:54.640,-0.5,-0.16
2021-08-19 19:26:54.644,-0.445,-0.115
2021-08-19 19:26:54.648,-0.355,-0.12
2021-08-19 19:26:54.652,-0.335,-0.255
2021-08-19 19:26:54.656,-0.36,-0.315
2021-08-19 19:26:54.660,-0.37,-0.245
2021-08-19 19:26:54.664,-0.355,-0.18
2021-08-19 19:26:54.668,-0.315,-0.195
2021-08-19 19:26:54.672,-0.23,-0.275
2021-08-19 19:26:54.676,-0.15,-0.31
2021-08-19 19:26:54.680,-0.115,-0.26
2021-08-19 19:26:54.684,-0.04,-0.245
2021-08-19 19:26:54.688,-0.01,-0.28
2021-08-19 19:26:54.692,-0.055,-0.35
2021-08-19 19:26:54.696,-0.11,-0.36
2021-08-19 19:26:54.700,-0.215,-0.44
2021-08-19 19:26:54.704,-0.31,-0.6
2021-08-19 19:26:54.708,-0.21,-0.735
2021-08-19 19:26:54.712,0.11,-0.91
2021-08-19 19:26:54.716,0.515,-1.09
2021-08-19 19:26:54.720,0.82,-1.405
2021-08-19 19:26:54.724,0.975,-1.69
2021-08-19 19:26:54.728,0.97,-1.715
2021-08-19 19:26:54.732,0.705,-1.42
2021-08-19 19:26:54.736,0.26,-0.97
2021-08-19 19:26:54.740,-0.15,-0.67
2021-08-19 19:26:54.744,-0.38,-0.5
2021-08-19 19:26:54.748,-0.425,-0.325
2021-08-19 19:26:54.752,-0.41,-0.27
2021-08-19 19:26:54.756,-0.43,-0.24
2021-08-19 19:26:54.760,-0.48,-0.21
2021-08-19 19:26:54.764,-0.52,-0.135
2021-08-19 19:26:54.768,-0.51,-0.11
2021-08-19 19:26:54.772,-0.495,-0.115
2021-08-19 19:26:54.776,-0.485,-0.18
2021-08-19 19:26:54.780,-0.455,-0.215
2021-08-19 19:26:54.784,-0.415,-0.195
2021-08-19 19:26:54.788,-0.345,-0.145
2021-08-19 19:26:54.792,-0.32,-0.1
2021-08-19 19:26:54.796,-0.375,-0.14
2021-08-19 19:26:54.800,-0.435,-0.155
2021-08-19 19:26:54.804,-0.48,-0.115
2021-08-19 19:26:54.808,-0.495,-0.045
2021-08-19 19:26:54.812,-0.52,-0.045
2021-08-19 19:26:54.816,-0.52,-0.06
2021-08-19 19:26:54.820,-0.51,-0.085
2021-08-19 19:26:54.824,-0.505,-0.14
2021-08-19 19:26:54.828,-0.515,-0.145
2021-08-19 19:26:54.832,-0.47,-0.135
2021-08-19 19:26:54.836,-0.46,-0.145
2021-08-19 19:26:54.840,-0.475,-0.165
2021-08-19 19:26:54.844,-0.475,-0.135
2021-08-19 19:26:54.848,-0.475,-0.1
2021-08-19 19:26:54.852,-0.48,-0.095
2021-08-19 19:26:54.856,-0.485,-0.05
2021-08-19 19:26:54.860,-0.5,-0.1
2021-08-19 19:26:54.864,-0.54,-0.115
2021-08-19 19:26:54.868,-0.605,-0.08
2021-08-19 19:26:54.872,-0.615,0.015
2021-08-19 19:26:54.876,-0.585,0.015
2021-08-19 19:26:54.880,-0.575,-0.045
2021-08-19 19:26:54.884,-0.545,-0.16
2021-08-19 19:26:54.888,-0.465,-0.19
2021-08-19 19:26:54.892,-0.405,-0.125
2021-08-19 19:26:54.896,-0.435,-0.08
2021-08-19 19:26:54.900,-0.405,-0.105
2021-08-19 19:26:54.904,-0.39,-0.085
2021-08-19 19:26:54.908,-0.42,-0.035
2021-08-19 19:26:54.912,-0.42,0.015
2021-08-19 19:26:54.916,-0.43,0.03
2021-08-19 19:26:54.920,-0.41,-0.07
2021-08-19 19:26:54.924,-0.4,-0.125
2021-08-19 19:26:54.928,-0.35,-0.145
2021-08-19 19:26:54.932,-0.315,-0.115
2021-08-19 19:26:54.936,-0.34,-0.06
2021-08-19 19:26:54.940,-0.34,-0.065
2021-08-19 19:26:54.944,-0.32,-0.09
2021-08-19 19:26:54.948,-0.355,-0.165
2021-08-19 19:26:54.952,-0.385,-0.175
2021-08-19 19:26:54.956,-0.41,-0.165
2021-08-19 19:26:54.960,-0.4,-0.19
2021-08-19 19:26:54.964,-0.38,-0.24
2021-08-19 19:26:54.968,-0.365,-0.235
2021-08-19 19:26:54.972,-0.38,-0.22
2021-08-19 19:26:54.976,-0.36,-0.225
2021-08-19 19:26:54.980,-0.335,-0.235
2021-08-19 19:26:54.984,-0.335,-0.29
2021-08-19 19:26:54.988,-0.37,-0.33
2021-08-19 19:26:54.992,-0.365,-0.355
2021-08-19 19:26:54.996,-0.39,-0.325
2021-08-19 19:26:55.000,-0.39,-0.245
2021-08-19 19:26:55.004,-0.365,-0.18
2021-08-19 19:26:55.008,-0.36,-0.25
2021-08-19 19:26:55.012,-0.39,-0.36
2021-08-19 19:26:55.016,-0.42,-0.39
2021-08-19 19:26:55.020,-0.45,-0.37
2021-08-19 19:26:55.024,-0.415,-0.32
2021-08-19 19:26:55.028,-0.395,-0.285
2021-08-19 19:26:55.032,-0.385,-0.205
2021-08-19 19:26:55.036,-0.385,-0.165
2021-08-19 19:26:55.040,-0.415,-0.22
2021-08-19 19:26:55.044,-0.39,-0.31
2021-08-19 19:26:55.048,-0.365,-0.305
2021-08-19 19:26:55.052,-0.365,-0.235
2021-08-19 19:26:55.056,-0.355,-0.235
2021-08-19 19:26:55.060,-0.395,-0.26
2021-08-19 19:26:55.064,-0.405,-0.34
2021-08-19 19:26:55.068,-0.37,-0.34
2021-08-19 19:26:55.072,-0.345,-0.3
2021-08-19 19:26:55.076,-0.355,-0.26
2021-08-19 19:26:55.080,-0.4,-0.285
2021-08-19 19:26:55.084,-0.43,-0.26
2021-08-19 19:26:55.088,-0.4,-0.29
2021-08-19 19:26:55.092,-0.395,-0.305
2021-08-19 19:26:55.096,-0.37,-0.335
2021-08-19 19:26:55.100,-0.37,-0.32
2021-08-19 19:26:55.104,-0.345,-0.285
2021-08-19 19:26:55.108,-0.37,-0.265
2021-08-19 19:26:55.112,-0.405,-0.255
2021-08-19 19:26:55.116,-0.44,-0.32
2021-08-19 19:26:55.120,-0.385,-0.37
2021-08-19 19:26:55.124,-0.335,-0.4
2021-08-19 19:26:55.128,-0.255,-0.42
2021-08-19 19:26:55.132,-0.155,-0.345
2021-08-19 19:26:55.136,-0.05,-0.295
2021-08-19 19:26:55.140,0.02,-0.3
2021-08-19 19:26:55.144,0.075,-0.405
2021-08-19 19:26:55.148,0.105,-0.47
2021-08-19 19:26:55.152,0.13,-0.515
2021-08-19 19:26:55.156,0.205,-0.56
2021-08-19 19:26:55.160,0.17,-0.6
2021-08-19 19:26:55.164,0.085,-0.71
2021-08-19 19:26:55.168,0.08,-0.86
2021-08-19 19:26:55.172,0.205,-1.025
2021-08-19 19:26:55.176,0.515,-1.25
2021-08-19 19:26:55.180,0.845,-1.495
2021-08-19 19:26:55.184,0.995,-1.69
2021-08-19 19:26:55.188,0.84,-1.765
2021-08-19 19:26:55.192,0.455,-1.635
2021-08-19 19:26:55.196,0.0,-1.23
2021-08-19 19:26:55.200,-0.305,-0.785
2021-08-19 19:26:55.204,-0.45,-0.495
2021-08-19 19:26:55.208,-0.46,-0.32
2021-08-19 19:26:55.212,-0.465,-0.265
2021-08-19 19:26:55.216,-0.45,-0.3
2021-08-19 19:26:55.220,-0.52,-0.31
2021-08-19 19:26:55.224,-0.575,-0.27
2021-08-19 19:26:55.228,-0.56,-0.22
2021-08-19 19:26:55.232,-0.535,-0.23
2021-08-19 19:26:55.236,-0.515,-0.26
2021-08-19 19:26:55.240,-0.48,-0.225
2021-08-19 19:26:55.244,-0.465,-0.175
2021-08-19 19:26:55.248,-0.48,-0.125
2021-08-19 19:26:55.252,-0.565,-0.115
2021-08-19 19:26:55.256,-0.55,-0.11
2021-08-19 19:26:55.260,-0.435,-0.11
2021-08-19 19:26:55.264,-0.37,-0.115
2021-08-19 19:26:55.268,-0.4,-0.14
2021-08-19 19:26:55.272,-0.41,-0.195
2021-08-19 19:26:55.276,-0.43,-0.255
2021-08-19 19:26:55.280,-0.43,-0.25
2021-08-19 19:26:55.284,-0.43,-0.24
2021-08-19 19:26:55.288,-0.455,-0.25
2021-08-19 19:26:55.292,-0.485,-0.19
2021-08-19 19:26:55.296,-0.47,-0.15
2021-08-19 19:26:55.300,-0.43,-0.175
2021-08-19 19:26:55.304,-0.46,-0.2
2021-08-19 19:26:55.308,-0.445,-0.24
2021-08-19 19:26:55.312,-0.46,-0.195
2021-08-19 19:26:55.316,-0.445,-0.18
2021-08-19 19:26:55.320,-0.44,-0.19
2021-08-19 19:26:55.324,-0.44,-0.18
2021-08-19 19:26:55.328,-0.43,-0.115
2021-08-19 19:26:55.332,-0.465,-0.115
2021-08-19 19:26:55.336,-0.48,-0.14
2021-08-19 19:26:55.340,-0.47,-0.245
2021-08-19 19:26:55.344,-0.45,-0.23
2021-08-19 19:26:55.348,-0.415,-0.19
2021-08-19 19:26:55.352,-0.38,-0.17
2021-08-19 19:26:55.356,-0.345,-0.17
2021-08-19 19:26:55.360,-0.32,-0.18
2021-08-19 19:26:55.364,-0.315,-0.16
2021-08-19 19:26:55.368,-0.295,-0.14
2021-08-19 19:26:55.372,-0.295,-0.105
2021-08-19 19:26:55.376,-0.255,-0.13
2021-08-19 19:26:55.380,-0.23,-0.16
2021-08-19 19:26:55.384,-0.235,-0.145
2021-08-19 19:26:55.388,-0.3,-0.135
2021-08-19 19:26:55.392,-0.32,-0.145
2021-08-19 19:26:55.396,-0.3,-0.13
2021-08-19 19:26:55.400,-0.35,-0.1
2021-08-19 19:26:55.404,-0.345,-0.105
2021-08-19 19:26:55.408,-0.33,-0.14
2021-08-19 19:26:55.412,-0.33,-0.14
2021-08-19 19:26:55.416,-0.31,-0.16
2021-08-19 19:26:55.420,-0.315,-0.16
2021-08-19 19:26:55.424,-0.35,-0.18
2021-08-19 19:26:55.428,-0.415,-0.18
2021-08-19 19:26:55.432,-0.45,-0.255
2021-08-19 19:26:55.436,-0.445,-0.275
2021-08-19 19:26:55.440,-0.405,-0.275
2021-08-19 19:26:55.444,-0.415,-0.295
2021-08-19 19:26:55.448,-0.435,-0.335
2021-08-19 19:26:55.452,-0.395,-0.365
2021-08-19 19:26:55.456,-0.32,-0.365
2021-08-19 19:26:55.460,-0.3,-0.36
2021-08-19 19:26:55.464,-0.275,-0.385
2021-08-19 19:26:55.468,-0.28,-0.39
2021-08-19 19:26:55.472,-0.3,-0.385
2021-08-19 19:26:55.476,-0.31,-0.42
2021-08-19 19:26:55.480,-0.275,-0.43
2021-08-19 19:26:55.484,-0.27,-0.445
2021-08-19 19:26:55.488,-0.28,-0.45
2021-08-19 19:26:55.492,-0.32,-0.44
2021-08-19 19:26:55.496,-0.32,-0.365
2021-08-19 19:26:55.500,-0.32,-0.34
2021-08-19 19:26:55.504,-0.3,-0.325
2021-08-19 19:26:55.508,-0.34,-0.355
2021-08-19 19:26:55.512,-0.355,-0.445
2021-08-19 19:26:55.516,-0.345,-0.455
2021-08-19 19:26:55.520,-0.33,-0.37
2021-08-19 19:26:55.524,-0.305,-0.325
2021-08-19 19:26:55.528,-0.275,-0.27
2021-08-19 19:26:55.532,-0.29,-0.32
2021-08-19 19:26:55.536,-0.345,-0.32
2021-08-19 19:26:55.540,-0.35,-0.345
2021-08-19 19:26:55.544,-0.32,-0.335
2021-08-19 19:26:55.548,-0.32,-0.29
2021-08-19 19:26:55.552,-0.33,-0.275
2021-08-19 19:26:55.556,-0.35,-0.33
2021-08-19 19:26:55.560,-0.33,-0.37
2021-08-19 19:26:55.564,-0.32,-0.39
2021-08-19 19:26:55.568,-0.325,-0.34
2021-08-19 19:26:55.572,-0.315,-0.33
2021-08-19 19:26:55.576,-0.32,-0.335
2021-08-19 19:26:55.580,-0.35,-0.3
2021-08-19 19:26:55.584,-0.355,-0.28
2021-08-19 19:26:55.588,-0.32,-0.27
2021-08-19 19:26:55.592,-0.28,-0.27
2021-08-19 19:26:55.596,-0.26,-0.345
2021-08-19 19:26:55.600,-0.22,-0.37
2021-08-19 19:26:55.604,-0.15,-0.345
2021-08-19 19:26:55.608,-0.115,-0.28
2021-08-19 19:26:55.612,-0.005,-0.265
2021-08-19 19:26:55.616,0.085,-0.28
2021-08-19 19:26:55.620,0.155,-0.315
2021-08-19 19:26:55.624,0.21,-0.39
2021-08-19 19:26:55.628,0.215,-0.525
2021-08-19 19:26:55.632,0.205,-0.635
2021-08-19 19:26:55.636,0.16,-0.68
2021-08-19 19:26:55.640,0.15,-0.755
2021-08-19 19:26:55.644,0.215,-0.92
2021-08-19 19:26:55.648,0.37,-1.12
2021-08-19 19:26:55.652,0.575,-1.295
2021-08-19 19:26:55.656,0.755,-1.48
2021-08-19 19:26:55.660,0.86,-1.63
2021-08-19 19:26:55.664,0.645,-1.68
2021-08-19 19:26:55.668,0.22,-1.46
2021-08-19 19:26:55.672,-0.165,-1.09
2021-08-19 19:26:55.676,-0.355,-0.805
2021-08-19 19:26:55.680,-0.405,-0.6
2021-08-19 19:26:55.684,-0.39,-0.4
2021-08-19 19:26:55.688,-0.37,-0.27
2021-08-19 19:26:55.692,-0.38,-0.22
2021-08-19 19:26:55.696,-0.38,-0.19
2021-08-19 19:26:55.700,-0.4,-0.18
2021-08-19 19:26:55.704,-0.415,-0.17
2021-08-19 19:26:55.708,-0.425,-0.225
2021-08-19 19:26:55.712,-0.4,-0.24
2021-08-19 19:26:55.716,-0.41,-0.255
2021-08-19 19:26:55.720,-0.45,-0.245
2021-08-19 19:26:55.724,-0.495,-0.26
2021-08-19 19:26:55.728,-0.515,-0.265
2021-08-19 19:26:55.732,-0.51,-0.245
2021-08-19 19:26:55.736,-0.525,-0.25
2021-08-19 19:26:55.740,-0.57,-0.24
2021-08-19 19:26:55.744,-0.54,-0.24
2021-08-19 19:26:55.748,-0.52,-0.24
2021-08-19 19:26:55.752,-0.525,-0.275
2021-08-19 19:26:55.756,-0.54,-0.255
2021-08-19 19:26:55.760,-0.595,-0.265
2021-08-19 19:26:55.764,-0.62,-0.22
2021-08-19 19:26:55.768,-0.575,-0.2
2021-08-19 19:26:55.772,-0.535,-0.16
2021-08-19 19:26:55.776,-0.5,-0.185
2021-08-19 19:26:55.780,-0.53,-0.205
2021-08-19 19:26:55.784,-0.58,-0.225
2021-08-19 19:26:55.788,-0.565,-0.19
2021-08-19 19:26:55.792,-0.51,-0.16
2021-08-19 19:26:55.796,-0.47,-0.205
2021-08-19 19:26:55.800,-0.455,-0.26
2021-08-19 19:26:55.804,-0.435,-0.16
2021-08-19 19:26:55.808,-0.4,-0.075
2021-08-19 19:26:55.812,-0.4,-0.06
2021-08-19 19:26:55.816,-0.4,-0.15
2021-08-19 19:26:55.820,-0.39,-0.15
2021-08-19 19:26:55.824,-0.375,-0.125
2021-08-19 19:26:55.828,-0.38,-0.135
2021-08-19 19:26:55.832,-0.42,-0.135
2021-08-19 19:26:55.836,-0.43,-0.185
2021-08-19 19:26:55.840,-0.405,-0.15
2021-08-19 19:26:55.844,-0.42,-0.13
2021-08-19 19:26:55.848,-0.425,-0.09
2021-08-19 19:26:55.852,-0.41,-0.07
2021-08-19 19:26:55.856,-0.405,-0.07
2021-08-19 19:26:55.860,-0.425,-0.15
2021-08-19 19:26:55.864,-0.44,-0.15
2021-08-19 19:26:55.868,-0.415,-0.16
2021-08-19 19:26:55.872,-0.395,-0.155
2021-08-19 19:26:55.876,-0.435,-0.2
2021-08-19 19:26:55.880,-0.475,-0.18
2021-08-19 19:26:55.884,-0.47,-0.165
2021-08-19 19:26:55.888,-0.47,-0.17
2021-08-19 19:26:55.892,-0.47,-0.145
2021-08-19 19:26:55.896,-0.45,-0.14
2021-08-19 19:26:55.900,-0.45,-0.12
2021-08-19 19:26:55.904,-0.455,-0.23
2021-08-19 19:26:55.908,-0.485,-0.235
2021-08-19 19:26:55.912,-0.47,-0.215
2021-08-19 19:26:55.916,-0.44,-0.195
2021-08-19 19:26:55.920,-0.4,-0.25
2021-08-19 19:26:55.924,-0.365,-0.3
2021-08-19 19:26:55.928,-0.36,-0.315
2021-08-19 19:26:55.932,-0.35,-0.315
2021-08-19 19:26:55.936,-0.39,-0.315
2021-08-19 19:26:55.940,-0.39,-0.315
2021-08-19 19:26:55.944,-0.37,-0.34
2021-08-19 19:26:55.948,-0.365,-0.385
2021-08-19 19:26:55.952,-0.32,-0.41
2021-08-19 19:26:55.956,-0.31,-0.455
2021-08-19 19:26:55.960,-0.295,-0.44
2021-08-19 19:26:55.964,-0.25,-0.4
2021-08-19 19:26:55.968,-0.225,-0.38
2021-08-19 19:26:55.972,-0.2,-0.375
2021-08-19 19:26:55.976,-0.14,-0.365
2021-08-19 19:26:55.980,-0.045,-0.38
2021-08-19 19:26:55.984,0.005,-0.415
2021-08-19 19:26:55.988,-0.02,-0.475
2021-08-19 19:26:55.992,-0.075,-0.545
2021-08-19 19:26:55.996,-0.14,-0.62
2021-08-19 19:26:56.000,-0.21,-0.715
2021-08-19 19:26:56.004,-0.19,-0.85
2021-08-19 19:26:56.008,0.07,-0.97
2021-08-19 19:26:56.012,0.44,-1.125
2021-08-19 19:26:56.016,0.735,-1.425
2021-08-19 19:26:56.020,0.93,-1.735
2021-08-19 19:26:56.024,0.975,-1.99
2021-08-19 19:26:56.028,0.82,-1.93
2021-08-19 19:26:56.032,0.415,-1.495
2021-08-19 19:26:56.036,0.03,-0.96
2021-08-19 19:26:56.040,-0.195,-0.61
2021-08-19 19:26:56.044,-0.27,-0.495
2021-08-19 19:26:56.048,-0.305,-0.345
2021-08-19 19:26:56.052,-0.34,-0.215
2021-08-19 19:26:56.056,-0.41,-0.11
2021-08-19 19:26:56.060,-0.445,-0.13
2021-08-19 19:26:56.064,-0.44,-0.17
2021-08-19 19:26:56.068,-0.415,-0.215
2021-08-19 19:26:56.072,-0.405,-0.19
2021-08-19 19:26:56.076,-0.415,-0.18
2021-08-19 19:26:56.080,-0.45,-0.215
2021-08-19 19:26:56.084,-0.46,-0.22
2021-08-19 19:26:56.088,-0.535,-0.18
2021-08-19 19:26:56.092,-0.535,-0.13
2021-08-19 19:26:56.096,-0.56,-0.055
2021-08-19 19:26:56.100,-0.565,0.0
2021-08-19 19:26:56.104,-0.58,-0.08
2021-08-19 19:26:56.108,-0.555,-0.23
2021-08-19 19:26:56.112,-0.525,-0.245
2021-08-19 19:26:56.116,-0.515,-0.18
2021-08-19 19:26:56.120,-0.53,-0.16
2021-08-19 19:26:56.124,-0.57,-0.14
2021-08-19 19:26:56.128,-0.595,-0.085
2021-08-19 19:26:56.132,-0.62,-0.045
2021-08-19 19:26:56.136,-0.65,-0.05
2021-08-19 19:26:56.140,-0.69,-0.105
2021-08-19 19:26:56.144,-0.68,-0.13
2021-08-19 19:26:56.148,-0.665,-0.115
2021-08-19 19:26:56.152,-0.625,-0.08
2021-08-19 19:26:56.156,-0.62,-0.08
2021-08-19 19:26:56.160,-0.625,-0.145
2021-08-19 19:26:56.164,-0.635,-0.195
2021-08-19 19:26:56.168,-0.64,-0.175
2021-08-19 19:26:56.172,-0.66,-0.125
2021-08-19 19:26:56.176,-0.65,-0.1
2021-08-19 19:26:56.180,-0.62,-0.09
2021-08-19 19:26:56.184,-0.59,-0.145
2021-08-19 19:26:56.188,-0.5,-0.225
2021-08-19 19:26:56.192,-0.515,-0.305
2021-08-19 19:26:56.196,-0.54,-0.31
2021-08-19 19:26:56.200,-0.56,-0.29
2021-08-19 19:26:56.204,-0.54,-0.245
2021-08-19 19:26:56.208,-0.53,-0.23
2021-08-19 19:26:56.212,-0.515,-0.205
2021-08-19 19:26:56.216,-0.515,-0.215
2021-08-19 19:26:56.220,-0.505,-0.215
2021-08-19 19:26:56.224,-0.47,-0.25
2021-08-19 19:26:56.228,-0.47,-0.26
2021-08-19 19:26:56.232,-0.44,-0.305
2021-08-19 19:26:56.236,-0.39,-0.315
2021-08-19 19:26:56.240,-0.34,-0.3
2021-08-19 19:26:56.244,-0.32,-0.275
2021-08-19 19:26:56.248,-0.31,-0.27
2021-08-19 19:26:56.252,-0.33,-0.205
2021-08-19 19:26:56.256,-0.35,-0.16
2021-08-19 19:26:56.260,-0.335,-0.195
2021-08-19 19:26:56.264,-0.315,-0.27
2021-08-19 19:26:56.268,-0.315,-0.295
2021-08-19 19:26:56.272,-0.305,-0.26
2021-08-19 19:26:56.276,-0.28,-0.25
2021-08-19 19:26:56.280,-0.245,-0.29
2021-08-19 19:26:56.284,-0.26,-0.32
2021-08-19 19:26:56.288,-0.305,-0.285
2021-08-19 19:26:56.292,-0.32,-0.26
2021-08-19 19:26:56.296,-0.315,-0.305
2021-08-19 19:26:56.300,-0.345,-0.315
2021-08-19 19:26:56.304,-0.37,-0.28
2021-08-19 19:26:56.308,-0.36,-0.26
2021-08-19 19:26:56.312,-0.34,-0.265
2021-08-19 19:26:56.316,-0.27,-0.32
2021-08-19 19:26:56.320,-0.195,-0.33
2021-08-19 19:26:56.324,-0.135,-0.335
2021-08-19 19:26:56.328,-0.08,-0.365
2021-08-19 19:26:56.332,-0.07,-0.43
2021-08-19 19:26:56.336,-0.08,-0.46
2021-08-19 19:26:56.340,-0.105,-0.48
2021-08-19 19:26:56.344,-0.2,-0.515
2021-08-19 19:26:56.348,-0.285,-0.595
2021-08-19 19:26:56.352,-0.155,-0.765
2021-08-19 19:26:56.356,0.14,-1.015
2021-08-19 19:26:56.360,0.465,-1.33
2021-08-19 19:26:56.364,0.73,-1.62
2021-08-19 19:26:56.368,0.79,-1.795
2021-08-19 19:26:56.372,0.595,-1.73
2021-08-19 19:26:56.376,0.13,-1.415
2021-08-19 19:26:56.380,-0.285,-1.005
2021-08-19 19:26:56.384,-0.485,-0.705
2021-08-19 19:26:56.388,-0.54,-0.51
2021-08-19 19:26:56.392,-0.54,-0.32
2021-08-19 19:26:56.396,-0.49,-0.27
2021-08-19 19:26:56.400,-0.535,-0.305
2021-08-19 19:26:56.404,-0.63,-0.245
2021-08-19 19:26:56.408,-0.665,-0.17
2021-08-19 19:26:56.412,-0.665,-0.13
2021-08-19 19:26:56.416,-0.64,-0.11
2021-08-19 19:26:56.420,-0.57,-0.14
2021-08-19 19:26:56.424,-0.49,-0.19
2021-08-19 19:26:56.428,-0.465,-0.19
2021-08-19 19:26:56.432,-0.465,-0.23
2021-08-19 19:26:56.436,-0.435,-0.305
2021-08-19 19:26:56.440,-0.435,-0.285
2021-08-19 19:26:56.444,-0.43,-0.26
2021-08-19 19:26:56.448,-0.445,-0.255
2021-08-19 19:26:56.452,-0.47,-0.245
2021-08-19 19:26:56.456,-0.415,-0.22
2021-08-19 19:26:56.460,-0.37,-0.185
2021-08-19 19:26:56.464,-0.35,-0.165
2021-08-19 19:26:56.468,-0.335,-0.17
2021-08-19 19:26:56.472,-0.37,-0.235
2021-08-19 19:26:56.476,-0.4,-0.235
2021-08-19 19:26:56.480,-0.4,-0.2
2021-08-19 19:26:56.484,-0.365,-0.18
2021-08-19 19:26:56.488,-0.345,-0.195
2021-08-19 19:26:56.492,-0.36,-0.185
2021-08-19 19:26:56.496,-0.39,-0.16
2021-08-19 19:26:56.500,-0.43,-0.1
2021-08-19 19:26:56.504,-0.425,-0.08
2021-08-19 19:26:56.508,-0.39,-0.095
2021-08-19 19:26:56.512,-0.37,-0.13
2021-08-19 19:26:56.516,-0.42,-0.115
2021-08-19 19:26:56.520,-0.475,-0.115
2021-08-19 19:26:56.524,-0.53,-0.115
2021-08-19 19:26:56.528,-0.54,-0.06
2021-08-19 19:26:56.532,-0.515,-0.045
2021-08-19 19:26:56.536,-0.48,-0.035
2021-08-19 19:26:56.540,-0.455,-0.07
2021-08-19 19:26:56.544,-0.475,-0.115
2021-08-19 19:26:56.548,-0.51,-0.13
2021-08-19 19:26:56.552,-0.52,-0.11
2021-08-19 19:26:56.556,-0.475,-0.1
2021-08-19 19:26:56.560,-0.51,-0.06
2021-08-19 19:26:56.564,-0.55,-0.055
2021-08-19 19:26:56.568,-0.54,-0.04
2021-08-19 19:26:56.572,-0.51,-0.09
2021-08-19 19:26:56.576,-0.51,-0.145
2021-08-19 19:26:56.580,-0.495,-0.215
2021-08-19 19:26:56.584,-0.515,-0.21
2021-08-19 19:26:56.588,-0.535,-0.21
2021-08-19 19:26:56.592,-0.53,-0.15
2021-08-19 19:26:56.596,-0.49,-0.135
2021-08-19 19:26:56.600,-0.43,-0.15
2021-08-19 19:26:56.604,-0.455,-0.2
2021-08-19 19:26:56.608,-0.485,-0.28
2021-08-19 19:26:56.612,-0.475,-0.255
2021-08-19 19:26:56.616,-0.455,-0.17
2021-08-19 19:26:56.620,-0.4,-0.155
2021-08-19 19:26:56.624,-0.345,-0.325
2021-08-19 19:26:56.628,-0.385,-0.405
2021-08-19 19:26:56.632,-0.38,-0.32
2021-08-19 19:26:56.636,-0.38,-0.255
2021-08-19 19:26:56.640,-0.39,-0.26
2021-08-19 19:26:56.644,-0.41,-0.24
2021-08-19 19:26:56.648,-0.4,-0.255
2021-08-19 19:26:56.652,-0.415,-0.245
2021-08-19 19:26:56.656,-0.37,-0.2
2021-08-19 19:26:56.660,-0.31,-0.21
2021-08-19 19:26:56.664,-0.285,-0.26
2021-08-19 19:26:56.668,-0.265,-0.265
2021-08-19 19:26:56.672,-0.265,-0.24
2021-08-19 19:26:56.676,-0.275,-0.265
2021-08-19 19:26:56.680,-0.27,-0.235
2021-08-19 19:26:56.684,-0.245,-0.265
2021-08-19 19:26:56.688,-0.195,-0.195
2021-08-19 19:26:56.692,-0.2,-0.125
2021-08-19 19:26:56.696,-0.225,-0.16
2021-08-19 19:26:56.700,-0.245,-0.29
2021-08-19 19:26:56.704,-0.235,-0.3
2021-08-19 19:26:56.708,-0.24,-0.285
2021-08-19 19:26:56.712,-0.28,-0.25
2021-08-19 19:26:56.716,-0.33,-0.26
2021-08-19 19:26:56.720,-0.33,-0.26
2021-08-19 19:26:56.724,-0.315,-0.24
2021-08-19 19:26:56.728,-0.33,-0.205
2021-08-19 19:26:56.732,-0.395,-0.195
2021-08-19 19:26:56.736,-0.41,-0.235
2021-08-19 19:26:56.740,-0.42,-0.26
2021-08-19 19:26:56.744,-0.435,-0.32
2021-08-19 19:26:56.748,-0.44,-0.335
2021-08-19 19:26:56.752,-0.41,-0.285
2021-08-19 19:26:56.756,-0.4,-0.215
2021-08-19 19:26:56.760,-0.465,-0.26
2021-08-19 19:26:56.764,-0.485,-0.3
2021-08-19 19:26:56.768,-0.45,-0.28
2021-08-19 19:26:56.772,-0.435,-0.24
2021-08-19 19:26:56.776,-0.44,-0.2
2021-08-19 19:26:56.780,-0.41,-0.225
2021-08-19 19:26:56.784,-0.39,-0.235
2021-08-19 19:26:56.788,-0.425,-0.23
2021-08-19 19:26:56.792,-0.43,-0.25
2021-08-19 19:26:56.796,-0.415,-0.24
2021-08-19 19:26:56.800,-0.43,-0.255
2021-08-19 19:26:56.804,-0.395,-0.26
2021-08-19 19:26:56.808,-0.395,-0.27
2021-08-19 19:26:56.812,-0.39,-0.255
2021-08-19 19:26:56.816,-0.375,-0.215
2021-08-19 19:26:56.820,-0.39,-0.225
2021-08-19 19:26:56.824,-0.43,-0.29
2021-08-19 19:26:56.828,-0.445,-0.315
2021-08-19 19:26:56.832,-0.44,-0.26
2021-08-19 19:26:56.836,-0.435,-0.245
2021-08-19 19:26:56.840,-0.45,-0.35
2021-08-19 19:26:56.844,-0.43,-0.37
2021-08-19 19:26:56.848,-0.4,-0.3
2021-08-19 19:26:56.852,-0.37,-0.25
2021-08-19 19:26:56.856,-0.375,-0.245
2021-08-19 19:26:56.860,-0.375,-0.29
2021-08-19 19:26:56.864,-0.36,-0.36
2021-08-19 19:26:56.868,-0.31,-0.365
2021-08-19 19:26:56.872,-0.315,-0.305
2021-08-19 19:26:56.876,-0.36,-0.225
2021-08-19 19:26:56.880,-0.34,-0.185
2021-08-19 19:26:56.884,-0.365,-0.24
2021-08-19 19:26:56.888,-0.295,-0.29
2021-08-19 19:26:56.892,-0.255,-0.27
2021-08-19 19:26:56.896,-0.275,-0.27
2021-08-19 19:26:56.900,-0.285,-0.265
2021-08-19 19:26:56.904,-0.33,-0.24
2021-08-19 19:26:56.908,-0.345,-0.265
2021-08-19 19:26:56.912,-0.355,-0.215
2021-08-19 19:26:56.916,-0.345,-0.18
2021-08-19 19:26:56.920,-0.335,-0.17
2021-08-19 19:26:56.924,-0.305,-0.225
2021-08-19 19:26:56.928,-0.3,-0.265
2021-08-19 19:26:56.932,-0.3,-0.235
2021-08-19 19:26:56.936,-0.31,-0.21
2021-08-19 19:26:56.940,-0.28,-0.255
2021-08-19 19:26:56.944,-0.24,-0.315
2021-08-19 19:26:56.948,-0.23,-0.32
2021-08-19 19:26:56.952,-0.195,-0.275
2021-08-19 19:26:56.956,-0.15,-0.26
2021-08-19 19:26:56.960,-0.085,-0.24
2021-08-19 19:26:56.964,0.01,-0.225
2021-08-19 19:26:56.968,0.07,-0.295
2021-08-19 19:26:56.972,0.1,-0.415
2021-08-19 19:26:56.976,0.09,-0.485
2021-08-19 19:26:56.980,0.115,-0.485
2021-08-19 19:26:56.984,0.125,-0.505
2021-08-19 19:26:56.988,0.125,-0.565
2021-08-19 19:26:56.992,0.08,-0.67
2021-08-19 19:26:56.996,0.055,-0.845
2021-08-19 19:26:57.000,0.19,-1.02
2021-08-19 19:26:57.004,0.485,-1.26
2021-08-19 19:26:57.008,0.825,-1.5
2021-08-19 19:26:57.012,0.985,-1.725
2021-08-19 19:26:57.016,0.895,-1.83
2021-08-19 19:26:57.020,0.535,-1.615
2021-08-19 19:26:57.024,0.06,-1.2
2021-08-19 19:26:57.028,-0.275,-0.75
2021-08-19 19:26:57.032,-0.455,-0.475
2021-08-19 19:26:57.036,-0.54,-0.35
2021-08-19 19:26:57.040,-0.55,-0.225
2021-08-19 19:26:57.044,-0.525,-0.13
2021-08-19 19:26:57.048,-0.48,-0.04
2021-08-19 19:26:57.052,-0.49,-0.01
2021-08-19 19:26:57.056,-0.535,-0.02
2021-08-19 19:26:57.060,-0.505,-0.05
2021-08-19 19:26:57.064,-0.54,-0.05
2021-08-19 19:26:57.068,-0.545,-0.01
2021-08-19 19:26:57.072,-0.57,-0.025
2021-08-19 19:26:57.076,-0.58,-0.06
2021-08-19 19:26:57.080,-0.55,-0.09
2021-08-19 19:26:57.084,-0.545,-0.105
2021-08-19 19:26:57.088,-0.57,-0.055
2021-08-19 19:26:57.092,-0.61,0.0
2021-08-19 19:26:57.096,-0.595,0.025
2021-08-19 19:26:57.100,-0.57,0.01
2021-08-19 19:26:57.104,-0.485,-0.07
2021-08-19 19:26:57.108,-0.395,-0.13
2021-08-19 19:26:57.112,-0.385,-0.1
2021-08-19 19:26:57.116,-0.4,-0.04
2021-08-19 19:26:57.120,-0.415,0.035
2021-08-19 19:26:57.124,-0.41,0.02
2021-08-19 19:26:57.128,-0.37,-0.01
2021-08-19 19:26:57.132,-0.41,0.025
2021-08-19 19:26:57.136,-0.44,0.055
2021-08-19 19:26:57.140,-0.455,0.01
2021-08-19 19:26:57.144,-0.455,-0.06
2021-08-19 19:26:57.148,-0.44,-0.08
2021-08-19 19:26:57.152,-0.415,-0.01
2021-08-19 19:26:57.156,-0.4,0.03
2021-08-19 19:26:57.160,-0.395,0.055
2021-08-19 19:26:57.164,-0.395,0.03
2021-08-19 19:26:57.168,-0.395,0.02
2021-08-19 19:26:57.172,-0.455,0.02
2021-08-19 19:26:57.176,-0.465,0.1
2021-08-19 19:26:57.180,-0.42,0.115
2021-08-19 19:26:57.184,-0.38,0.05
2021-08-19 19:26:57.188,-0.38,-0.08
2021-08-19 19:26:57.192,-0.37,-0.135
2021-08-19 19:26:57.196,-0.39,-0.09
2021-08-19 19:26:57.200,-0.405,-0.05
2021-08-19 19:26:57.204,-0.425,0.005
2021-08-19 19:26:57.208,-0.445,-0.045
2021-08-19 19:26:57.212,-0.435,-0.095
2021-08-19 19:26:57.216,-0.435,-0.135
2021-08-19 19:26:57.220,-0.415,-0.07
2021-08-19 19:26:57.224,-0.405,-0.03
2021-08-19 19:26:57.228,-0.4,-0.04
2021-08-19 19:26:57.232,-0.41,-0.015
2021-08-19 19:26:57.236,-0.355,0.0
2021-08-19 19:26:57.240,-0.335,-0.02
2021-08-19 19:26:57.244,-0.335,-0.08
2021-08-19 19:26:57.248,-0.375,-0.115
2021-08-19 19:26:57.252,-0.415,-0.1
2021-08-19 19:26:57.256,-0.43,-0.06
2021-08-19 19:26:57.260,-0.455,-0.01
2021-08-19 19:26:57.264,-0.44,-0.01
2021-08-19 19:26:57.268,-0.41,-0.135
2021-08-19 19:26:57.272,-0.385,-0.24
2021-08-19 19:26:57.276,-0.39,-0.215
2021-08-19 19:26:57.280,-0.41,-0.2
2021-08-19 19:26:57.284,-0.415,-0.23
2021-08-19 19:26:57.288,-0.35,-0.185
2021-08-19 19:26:57.292,-0.34,-0.155
2021-08-19 19:26:57.296,-0.345,-0.14
2021-08-19 19:26:57.300,-0.39,-0.145
2021-08-19 19:26:57.304,-0.425,-0.13
2021-08-19 19:26:57.308,-0.41,-0.105
2021-08-19 19:26:57.312,-0.36,-0.135
2021-08-19 19:26:57.316,-0.34,-0.18
2021-08-19 19:26:57.320,-0.38,-0.19
2021-08-19 19:26:57.324,-0.385,-0.16
2021-08-19 19:26:57.328,-0.335,-0.09
2021-08-19 19:26:57.332,-0.275,-0.12
2021-08-19 19:26:57.336,-0.29,-0.2
2021-08-19 19:26:57.340,-0.29,-0.215
2021-08-19 19:26:57.344,-0.285,-0.15
2021-08-19 19:26:57.348,-0.225,-0.09
2021-08-19 19:26:57.352,-0.205,-0.085
2021-08-19 19:26:57.356,-0.24,-0.12
2021-08-19 19:26:57.360,-0.24,-0.155
2021-08-19 19:26:57.364,-0.25,-0.115
2021-08-19 19:26:57.368,-0.26,-0.095
2021-08-19 19:26:57.372,-0.275,-0.04
2021-08-19 19:26:57.376,-0.28,0.015
2021-08-19 19:26:57.380,-0.24,-0.005
2021-08-19 19:26:57.384,-0.255,-0.115
2021-08-19 19:26:57.388,-0.235,-0.16
2021-08-19 19:26:57.392,-0.21,-0.13
2021-08-19 19:26:57.396,-0.145,-0.145
2021-08-19 19:26:57.400,-0.075,-0.165
2021-08-19 19:26:57.404,-0.04,-0.165
2021-08-19 19:26:57.408,-0.025,-0.185
2021-08-19 19:26:57.412,0.0,-0.225
2021-08-19 19:26:57.416,0.0,-0.3
2021-08-19 19:26:57.420,-0.035,-0.41
2021-08-19 19:26:57.424,-0.145,-0.48
2021-08-19 19:26:57.428,-0.22,-0.565
2021-08-19 19:26:57.432,-0.06,-0.68
2021-08-19 19:26:57.436,0.265,-0.93
2021-08-19 19:26:57.440,0.6,-1.24
2021-08-19 19:26:57.444,0.84,-1.53
2021-08-19 19:26:57.448,0.88,-1.645
2021-08-19 19:26:57.452,0.67,-1.635
2021-08-19 19:26:57.456,0.22,-1.26
2021-08-19 19:26:57.460,-0.14,-0.73
2021-08-19 19:26:57.464,-0.39,-0.395
2021-08-19 19:26:57.468,-0.465,-0.215
2021-08-19 19:26:57.472,-0.505,-0.065
2021-08-19 19:26:57.476,-0.515,0.04
2021-08-19 19:26:57.480,-0.47,0.01
2021-08-19 19:26:57.484,-0.37,-0.04
2021-08-19 19:26:57.488,-0.35,0.07
2021-08-19 19:26:57.492,-0.39,0.1
2021-08-19 19:26:57.496,-0.44,0.03
2021-08-19 19:26:57.500,-0.47,-0.085
2021-08-19 19:26:57.504,-0.48,-0.11
2021-08-19 19:26:57.508,-0.48,-0.09
2021-08-19 19:26:57.512,-0.46,-0.145
2021-08-19 19:26:57.516,-0.46,-0.17
2021-08-19 19:26:57.520,-0.475,-0.17
2021-08-19 19:26:57.524,-0.495,-0.115
2021-08-19 19:26:57.528,-0.52,-0.04
2021-08-19 19:26:57.532,-0.505,0.02
2021-08-19 19:26:57.536,-0.47,0.04
2021-08-19 19:26:57.540,-0.44,-0.05
2021-08-19 19:26:57.544,-0.41,-0.13
2021-08-19 19:26:57.548,-0.43,-0.145
2021-08-19 19:26:57.552,-0.41,-0.11
2021-08-19 19:26:57.556,-0.39,-0.095
2021-08-19 19:26:57.560,-0.38,-0.05
2021-08-19 19:26:57.564,-0.36,-0.03
2021-08-19 19:26:57.568,-0.295,-0.02
2021-08-19 19:26:57.572,-0.28,-0.025
2021-08-19 19:26:57.576,-0.315,0.0
2021-08-19 19:26:57.580,-0.315,0.05
2021-08-19 19:26:57.584,-0.33,0.12
2021-08-19 19:26:57.588,-0.35,0.1
2021-08-19 19:26:57.592,-0.38,0.0
2021-08-19 19:26:57.596,-0.4,-0.005
2021-08-19 19:26:57.600,-0.39,0.04
2021-08-19 19:26:57.604,-0.335,0.065
2021-08-19 19:26:57.608,-0.3,0.1
2021-08-19 19:26:57.612,-0.33,0.14
2021-08-19 19:26:57.616,-0.405,0.16
2021-08-19 19:26:57.620,-0.405,0.11
2021-08-19 19:26:57.624,-0.38,0.01
2021-08-19 19:26:57.628,-0.365,-0.01
2021-08-19 19:26:57.632,-0.39,0.005
2021-08-19 19:26:57.636,-0.455,0.08
2021-08-19 19:26:57.640,-0.435,0.1
2021-08-19 19:26:57.644,-0.44,0.05
2021-08-19 19:26:57.648,-0.42,0.01
2021-08-19 19:26:57.652,-0.405,0.03
2021-08-19 19:26:57.656,-0.4,0.055
2021-08-19 19:26:57.660,-0.375,0.055
2021-08-19 19:26:57.664,-0.395,-0.02
2021-08-19 19:26:57.668,-0.405,-0.045
2021-08-19 19:26:57.672,-0.44,0.005
2021-08-19 19:26:57.676,-0.435,0.015
2021-08-19 19:26:57.680,-0.395,0.055
2021-08-19 19:26:57.684,-0.385,0.045
2021-08-19 19:26:57.688,-0.425,-0.075
2021-08-19 19:26:57.692,-0.41,-0.145
2021-08-19 19:26:57.696,-0.41,-0.16
2021-08-19 19:26:57.700,-0.355,-0.13
2021-08-19 19:26:57.704,-0.3,-0.095
2021-08-19 19:26:57.708,-0.25,-0.095
2021-08-19 19:26:57.712,-0.275,-0.075
2021-08-19 19:26:57.716,-0.29,-0.055
2021-08-19 19:26:57.720,-0.31,-0.075
2021-08-19 19:26:57.724,-0.31,-0.105
2021-08-19 19:26:57.728,-0.325,-0.17
2021-08-19 19:26:57.732,-0.355,-0.215
2021-08-19 19:26:57.736,-0.36,-0.185
2021-08-19 19:26:57.740,-0.315,-0.145
2021-08-19 19:26:57.744,-0.275,-0.07
2021-08-19 19:26:57.748,-0.205,-0.095
2021-08-19 19:26:57.752,-0.165,-0.14
2021-08-19 19:26:57.756,-0.165,-0.155
2021-08-19 19:26:57.760,-0.215,-0.09
2021-08-19 19:26:57.764,-0.225,0.005
2021-08-19 19:26:57.768,-0.26,-0.005
2021-08-19 19:26:57.772,-0.26,-0.075
2021-08-19 19:26:57.776,-0.27,-0.15
2021-08-19 19:26:57.780,-0.285,-0.195
2021-08-19 19:26:57.784,-0.24,-0.235
2021-08-19 19:26:57.788,-0.22,-0.215
2021-08-19 19:26:57.792,-0.19,-0.25
2021-08-19 19:26:57.796,-0.19,-0.22
2021-08-19 19:26:57.800,-0.21,-0.22
2021-08-19 19:26:57.804,-0.2,-0.175
2021-08-19 19:26:57.808,-0.175,-0.13
2021-08-19 19:26:57.812,-0.15,-0.12
2021-08-19 19:26:57.816,-0.14,-0.16
2021-08-19 19:26:57.820,-0.16,-0.195
2021-08-19 19:26:57.824,-0.18,-0.175
2021-08-19 19:26:57.828,-0.175,-0.08
2021-08-19 19:26:57.832,-0.24,-0.04
2021-08-19 19:26:57.836,-0.28,-0.065
2021-08-19 19:26:57.840,-0.315,-0.065
2021-08-19 19:26:57.844,-0.36,-0.06
2021-08-19 19:26:57.848,-0.35,-0.12
2021-08-19 19:26:57.852,-0.33,-0.21
2021-08-19 19:26:57.856,-0.34,-0.195
2021-08-19 19:26:57.860,-0.34,-0.155
2021-08-19 19:26:57.864,-0.355,-0.115
2021-08-19 19:26:57.868,-0.325,-0.095
2021-08-19 19:26:57.872,-0.385,-0.13
2021-08-19 19:26:57.876,-0.405,-0.16
2021-08-19 19:26:57.880,-0.425,-0.115
2021-08-19 19:26:57.884,-0.435,-0.09
2021-08-19 19:26:57.888,-0.41,-0.125
2021-08-19 19:26:57.892,-0.41,-0.12
2021-08-19 19:26:57.896,-0.415,-0.17
2021-08-19 19:26:57.900,-0.375,-0.195
2021-08-19 19:26:57.904,-0.375,-0.16
2021-08-19 19:26:57.908,-0.38,-0.12
2021-08-19 19:26:57.912,-0.405,-0.115
2021-08-19 19:26:57.916,-0.395,-0.09
2021-08-19 19:26:57.920,-0.375,-0.085
2021-08-19 19:26:57.924,-0.36,-0.105
2021-08-19 19:26:57.928,-0.39,-0.165
2021-08-19 19:26:57.932,-0.37,-0.175
2021-08-19 19:26:57.936,-0.35,-0.18
2021-08-19 19:26:57.940,-0.355,-0.175
2021-08-19 19:26:57.944,-0.35,-0.185
2021-08-19 19:26:57.948,-0.34,-0.175
2021-08-19 19:26:57.952,-0.32,-0.085
2021-08-19 19:26:57.956,-0.315,-0.125
2021-08-19 19:26:57.960,-0.355,-0.17
2021-08-19 19:26:57.964,-0.385,-0.22
2021-08-19 19:26:57.968,-0.41,-0.215
2021-08-19 19:26:57.972,-0.385,-0.19
2021-08-19 19:26:57.976,-0.37,-0.16
2021-08-19 19:26:57.980,-0.37,-0.145
2021-08-19 19:26:57.984,-0.365,-0.155
2021-08-19 19:26:57.988,-0.365,-0.19
2021-08-19 19:26:57.992,-0.33,-0.195
2021-08-19 19:26:57.996,-0.265,-0.17
2021-08-19 19:26:58.000,-0.215,-0.16
2021-08-19 19:26:58.004,-0.215,-0.145
2021-08-19 19:26:58.008,-0.18,-0.135
2021-08-19 19:26:58.012,-0.145,-0.115
2021-08-19 19:26:58.016,-0.135,-0.16
2021-08-19 19:26:58.020,-0.165,-0.175
2021-08-19 19:26:58.024,-0.155,-0.175
2021-08-19 19:26:58.028,-0.135,-0.165
2021-08-19 19:26:58.032,-0.105,-0.18
2021-08-19 19:26:58.036,-0.08,-0.17
2021-08-19 19:26:58.040,-0.025,-0.21
2021-08-19 19:26:58.044,0.005,-0.23
2021-08-19 19:26:58.048,0.07,-0.26
2021-08-19 19:26:58.052,0.165,-0.27
2021-08-19 19:26:58.056,0.24,-0.295
2021-08-19 19:26:58.060,0.305,-0.37
2021-08-19 19:26:58.064,0.315,-0.45
2021-08-19 19:26:58.068,0.285,-0.535
2021-08-19 19:26:58.072,0.215,-0.61
2021-08-19 19:26:58.076,0.18,-0.72
2021-08-19 19:26:58.080,0.24,-0.895
2021-08-19 19:26:58.084,0.465,-1.21
2021-08-19 19:26:58.088,0.74,-1.5
2021-08-19 19:26:58.092,0.915,-1.645
2021-08-19 19:26:58.096,0.81,-1.665
2021-08-19 19:26:58.100,0.505,-1.545
2021-08-19 19:26:58.104,0.085,-1.245
2021-08-19 19:26:58.108,-0.255,-0.84
2021-08-19 19:26:58.112,-0.41,-0.56
2021-08-19 19:26:58.116,-0.485,-0.41
2021-08-19 19:26:58.120,-0.52,-0.29
2021-08-19 19:26:58.124,-0.55,-0.19
2021-08-19 19:26:58.128,-0.585,-0.085
2021-08-19 19:26:58.132,-0.615,-0.06
2021-08-19 19:26:58.136,-0.61,-0.005
2021-08-19 19:26:58.140,-0.595,0.0
2021-08-19 19:26:58.144,-0.62,-0.03
2021-08-19 19:26:58.148,-0.635,-0.1
2021-08-19 19:26:58.152,-0.605,-0.1
2021-08-19 19:26:58.156,-0.59,-0.085
2021-08-19 19:26:58.160,-0.605,-0.015
2021-08-19 19:26:58.164,-0.625,0.03
2021-08-19 19:26:58.168,-0.6,0.0
2021-08-19 19:26:58.172,-0.555,-0.105
2021-08-19 19:26:58.176,-0.565,-0.115
2021-08-19 19:26:58.180,-0.52,-0.09
2021-08-19 19:26:58.184,-0.505,-0.055
2021-08-19 19:26:58.188,-0.53,-0.02
2021-08-19 19:26:58.192,-0.56,0.02
2021-08-19 19:26:58.196,-0.57,-0.005
2021-08-19 19:26:58.200,-0.555,-0.085
2021-08-19 19:26:58.204,-0.51,-0.11
2021-08-19 19:26:58.208,-0.48,-0.08
2021-08-19 19:26:58.212,-0.505,-0.065
2021-08-19 19:26:58.216,-0.455,-0.01
2021-08-19 19:26:58.220,-0.47,0.005
2021-08-19 19:26:58.224,-0.48,-0.06
2021-08-19 19:26:58.228,-0.46,-0.12
2021-08-19 19:26:58.232,-0.43,-0.1
2021-08-19 19:26:58.236,-0.405,-0.04
2021-08-19 19:26:58.240,-0.375,-0.03
2021-08-19 19:26:58.244,-0.335,-0.03
2021-08-19 19:26:58.248,-0.305,-0.01
2021-08-19 19:26:58.252,-0.31,0.0
2021-08-19 19:26:58.256,-0.36,0.035
2021-08-19 19:26:58.260,-0.35,0.09
2021-08-19 19:26:58.264,-0.3,0.135
2021-08-19 19:26:58.268,-0.285,0.175
2021-08-19 19:26:58.272,-0.285,0.13
2021-08-19 19:26:58.276,-0.32,0.06
2021-08-19 19:26:58.280,-0.375,0.095
2021-08-19 19:26:58.284,-0.39,0.19
2021-08-19 19:26:58.288,-0.375,0.205
2021-08-19 19:26:58.292,-0.35,0.04
2021-08-19 19:26:58.296,-0.37,-0.16
2021-08-19 19:26:58.300,-0.355,-0.165
2021-08-19 19:26:58.304,-0.38,-0.05
2021-08-19 19:26:58.308,-0.435,-0.025
2021-08-19 19:26:58.312,-0.475,0.0
2021-08-19 19:26:58.316,-0.505,-0.02
2021-08-19 19:26:58.320,-0.515,-0.015
2021-08-19 19:26:58.324,-0.53,-0.015
2021-08-19 19:26:58.328,-0.525,0.005
2021-08-19 19:26:58.332,-0.505,-0.035
2021-08-19 19:26:58.336,-0.54,-0.16
2021-08-19 19:26:58.340,-0.565,-0.235
2021-08-19 19:26:58.344,-0.595,-0.16
2021-08-19 19:26:58.348,-0.58,-0.08
2021-08-19 19:26:58.352,-0.565,-0.105
2021-08-19 19:26:58.356,-0.53,-0.19
2021-08-19 19:26:58.360,-0.47,-0.24
2021-08-19 19:26:58.364,-0.44,-0.235
2021-08-19 19:26:58.368,-0.46,-0.255
2021-08-19 19:26:58.372,-0.48,-0.26
2021-08-19 19:26:58.376,-0.47,-0.225
2021-08-19 19:26:58.380,-0.46,-0.18
2021-08-19 19:26:58.384,-0.46,-0.155
2021-08-19 19:26:58.388,-0.47,-0.11
2021-08-19 19:26:58.392,-0.435,-0.085
2021-08-19 19:26:58.396,-0.38,-0.175
2021-08-19 19:26:58.400,-0.375,-0.26
2021-08-19 19:26:58.404,-0.355,-0.265
2021-08-19 19:26:58.408,-0.375,-0.185
2021-08-19 19:26:58.412,-0.38,-0.13
2021-08-19 19:26:58.416,-0.39,-0.14
2021-08-19 19:26:58.420,-0.415,-0.19
2021-08-19 19:26:58.424,-0.395,-0.225
2021-08-19 19:26:58.428,-0.365,-0.225
2021-08-19 19:26:58.432,-0.34,-0.175
2021-08-19 19:26:58.436,-0.305,-0.19
2021-08-19 19:26:58.440,-0.325,-0.21
2021-08-19 19:26:58.444,-0.345,-0.155
2021-08-19 19:26:58.448,-0.29,-0.155
2021-08-19 19:26:58.452,-0.295,-0.13
2021-08-19 19:26:58.456,-0.34,-0.12
2021-08-19 19:26:58.460,-0.335,-0.085
2021-08-19 19:26:58.464,-0.315,-0.105
2021-08-19 19:26:58.468,-0.265,-0.09
2021-08-19 19:26:58.472,-0.27,-0.11
2021-08-19 19:26:58.476,-0.305,-0.11
2021-08-19 19:26:58.480,-0.3,-0.075
2021-08-19 19:26:58.484,-0.29,-0.04
2021-08-19 19:26:58.488,-0.28,-0.035
2021-08-19 19:26:58.492,-0.32,-0.08
2021-08-19 19:26:58.496,-0.355,-0.115
2021-08-19 19:26:58.500,-0.365,-0.16
2021-08-19 19:26:58.504,-0.335,-0.125
2021-08-19 19:26:58.508,-0.295,-0.09
2021-08-19 19:26:58.512,-0.32,-0.1
2021-08-19 19:26:58.516,-0.3,-0.15
2021-08-19 19:26:58.520,-0.245,-0.105
2021-08-19 19:26:58.524,-0.205,-0.095
2021-08-19 19:26:58.528,-0.22,-0.11
2021-08-19 19:26:58.532,-0.3,-0.135
2021-08-19 19:26:58.536,-0.36,-0.095
2021-08-19 19:26:58.540,-0.385,-0.025
2021-08-19 19:26:58.544,-0.37,-0.145
2021-08-19 19:26:58.548,-0.375,-0.29
2021-08-19 19:26:58.552,-0.4,-0.315
2021-08-19 19:26:58.556,-0.41,-0.24
2021-08-19 19:26:58.560,-0.365,-0.2
2021-08-19 19:26:58.564,-0.39,-0.195
2021-08-19 19:26:58.568,-0.435,-0.18
2021-08-19 19:26:58.572,-0.49,-0.195
2021-08-19 19:26:58.576,-0.46,-0.21
2021-08-19 19:26:58.580,-0.38,-0.16
2021-08-19 19:26:58.584,-0.345,-0.19
2021-08-19 19:26:58.588,-0.37,-0.19
2021-08-19 19:26:58.592,-0.42,-0.15
2021-08-19 19:26:58.596,-0.44,-0.105
2021-08-19 19:26:58.600,-0.465,-0.19
2021-08-19 19:26:58.604,-0.425,-0.28
2021-08-19 19:26:58.608,-0.46,-0.33
2021-08-19 19:26:58.612,-0.45,-0.295
2021-08-19 19:26:58.616,-0.435,-0.225
2021-08-19 19:26:58.620,-0.4,-0.175
2021-08-19 19:26:58.624,-0.42,-0.15
2021-08-19 19:26:58.628,-0.405,-0.175
2021-08-19 19:26:58.632,-0.425,-0.2
2021-08-19 19:26:58.636,-0.44,-0.2
2021-08-19 19:26:58.640,-0.395,-0.2
2021-08-19 19:26:58.644,-0.39,-0.185
2021-08-19 19:26:58.648,-0.385,-0.14
2021-08-19 19:26:58.652,-0.425,-0.165
2021-08-19 19:26:58.656,-0.43,-0.11
2021-08-19 19:26:58.660,-0.43,-0.09
2021-08-19 19:26:58.664,-0.405,-0.13
2021-08-19 19:26:58.668,-0.38,-0.2
2021-08-19 19:26:58.672,-0.365,-0.235
2021-08-19 19:26:58.676,-0.38,-0.195
2021-08-19 19:26:58.680,-0.41,-0.145
2021-08-19 19:26:58.684,-0.395,-0.115
2021-08-19 19:26:58.688,-0.36,-0.1
2021-08-19 19:26:58.692,-0.355,-0.095
2021-08-19 19:26:58.696,-0.335,-0.085
2021-08-19 19:26:58.700,-0.3,-0.12
2021-08-19 19:26:58.704,-0.28,-0.205
2021-08-19 19:26:58.708,-0.265,-0.2
2021-08-19 19:26:58.712,-0.28,-0.165
2021-08-19 19:26:58.716,-0.305,-0.14
2021-08-19 19:26:58.720,-0.3,-0.09
2021-08-19 19:26:58.724,-0.29,-0.04
2021-08-19 19:26:58.728,-0.26,-0.005
2021-08-19 19:26:58.732,-0.245,-0.075
2021-08-19 19:26:58.736,-0.23,-0.16
2021-08-19 19:26:58.740,-0.255,-0.175
2021-08-19 19:26:58.744,-0.28,-0.085
2021-08-19 19:26:58.748,-0.28,0.025
2021-08-19 19:26:58.752,-0.3,-0.02
2021-08-19 19:26:58.756,-0.285,-0.16
2021-08-19 19:26:58.760,-0.26,-0.21
2021-08-19 19:26:58.764,-0.275,-0.12
2021-08-19 19:26:58.768,-0.295,-0.06
2021-08-19 19:26:58.772,-0.265,-0.13
2021-08-19 19:26:58.776,-0.2,-0.23
2021-08-19 19:26:58.780,-0.11,-0.235
2021-08-19 19:26:58.784,0.02,-0.265
2021-08-19 19:26:58.788,0.115,-0.34
2021-08-19 19:26:58.792,0.185,-0.395
2021-08-19 19:26:58.796,0.265,-0.415
2021-08-19 19:26:58.800,0.26,-0.46
2021-08-19 19:26:58.804,0.16,-0.495
2021-08-19 19:26:58.808,0.07,-0.6
2021-08-19 19:26:58.812,0.07,-0.74
2021-08-19 19:26:58.816,0.19,-0.91
2021-08-19 19:26:58.820,0.435,-1.2
2021-08-19 19:26:58.824,0.775,-1.52
2021-08-19 19:26:58.828,1.0,-1.805
2021-08-19 19:26:58.832,0.97,-1.89
2021-08-19 19:26:58.836,0.615,-1.675
2021-08-19 19:26:58.840,0.105,-1.195
2021-08-19 19:26:58.844,-0.285,-0.74
2021-08-19 19:26:58.848,-0.435,-0.495
2021-08-19 19:26:58.852,-0.495,-0.325
2021-08-19 19:26:58.856,-0.525,-0.215
2021-08-19 19:26:58.860,-0.505,-0.16
2021-08-19 19:26:58.864,-0.48,-0.125
2021-08-19 19:26:58.868,-0.51,-0.05
2021-08-19 19:26:58.872,-0.52,-0.04
2021-08-19 19:26:58.876,-0.51,-0.085
2021-08-19 19:26:58.880,-0.535,-0.11
2021-08-19 19:26:58.884,-0.54,-0.075
2021-08-19 19:26:58.888,-0.57,-0.02
2021-08-19 19:26:58.892,-0.59,0.0
2021-08-19 19:26:58.896,-0.585,-0.035
2021-08-19 19:26:58.900,-0.55,-0.08
2021-08-19 19:26:58.904,-0.545,-0.035
2021-08-19 19:26:58.908,-0.555,0.005
2021-08-19 19:26:58.912,-0.555,0.0
2021-08-19 19:26:58.916,-0.55,0.015
2021-08-19 19:26:58.920,-0.5,-0.015
2021-08-19 19:26:58.924,-0.435,-0.06
2021-08-19 19:26:58.928,-0.36,-0.065
2021-08-19 19:26:58.932,-0.335,-0.035
2021-08-19 19:26:58.936,-0.39,-0.035
2021-08-19 19:26:58.940,-0.46,0.005
2021-08-19 19:26:58.944,-0.49,0.085
2021-08-19 19:26:58.948,-0.44,0.135
2021-08-19 19:26:58.952,-0.425,0.09
2021-08-19 19:26:58.956,-0.47,0.045
2021-08-19 19:26:58.960,-0.49,0.005
2021-08-19 19:26:58.964,-0.505,0.025
2021-08-19 19:26:58.968,-0.515,0.065
2021-08-19 19:26:58.972,-0.485,0.06
2021-08-19 19:26:58.976,-0.41,0.045
2021-08-19 19:26:58.980,-0.39,0.03
2021-08-19 19:26:58.984,-0.42,-0.04
2021-08-19 19:26:58.988,-0.47,-0.06
2021-08-19 19:26:58.992,-0.48,-0.01
2021-08-19 19:26:58.996,-0.48,0.015
2021-08-19 19:26:59.000,-0.48,-0.02
2021-08-19 19:26:59.004,-0.48,0.0
2021-08-19 19:26:59.008,-0.5,0.045
2021-08-19 19:26:59.012,-0.49,0.015
2021-08-19 19:26:59.016,-0.46,-0.055
2021-08-19 19:26:59.020,-0.415,-0.06
2021-08-19 19:26:59.024,-0.405,-0.015
2021-08-19 19:26:59.028,-0.385,0.065
2021-08-19 19:26:59.032,-0.395,0.055
2021-08-19 19:26:59.036,-0.4,0.0
2021-08-19 19:26:59.040,-0.41,-0.035
2021-08-19 19:26:59.044,-0.445,-0.025
2021-08-19 19:26:59.048,-0.46,0.0
2021-08-19 19:26:59.052,-0.42,-0.04
2021-08-19 19:26:59.056,-0.4,-0.055
2021-08-19 19:26:59.060,-0.425,-0.06
2021-08-19 19:26:59.064,-0.455,-0.055
2021-08-19 19:26:59.068,-0.44,-0.01
2021-08-19 19:26:59.072,-0.43,0.01
2021-08-19 19:26:59.076,-0.455,-0.03
2021-08-19 19:26:59.080,-0.5,-0.13
2021-08-19 19:26:59.084,-0.495,-0.125
2021-08-19 19:26:59.088,-0.455,-0.085
2021-08-19 19:26:59.092,-0.445,-0.17
2021-08-19 19:26:59.096,-0.42,-0.25
2021-08-19 19:26:59.100,-0.43,-0.24
2021-08-19 19:26:59.104,-0.47,-0.2
2021-08-19 19:26:59.108,-0.455,-0.18
2021-08-19 19:26:59.112,-0.42,-0.21
2021-08-19 19:26:59.116,-0.41,-0.25
2021-08-19 19:26:59.120,-0.39,-0.295
2021-08-19 19:26:59.124,-0.365,-0.275
2021-08-19 19:26:59.128,-0.365,-0.24
2021-08-19 19:26:59.132,-0.43,-0.195
2021-08-19 19:26:59.136,-0.46,-0.18
2021-08-19 19:26:59.140,-0.435,-0.12
2021-08-19 19:26:59.144,-0.345,-0.105
2021-08-19 19:26:59.148,-0.29,-0.14
2021-08-19 19:26:59.152,-0.27,-0.21
2021-08-19 19:26:59.156,-0.275,-0.235
2021-08-19 19:26:59.160,-0.32,-0.23
2021-08-19 19:26:59.164,-0.295,-0.16
2021-08-19 19:26:59.168,-0.255,-0.085
2021-08-19 19:26:59.172,-0.245,-0.045
2021-08-19 19:26:59.176,-0.28,-0.005
2021-08-19 19:26:59.180,-0.305,-0.045
2021-08-19 19:26:59.184,-0.29,-0.11
2021-08-19 19:26:59.188,-0.305,-0.155
2021-08-19 19:26:59.192,-0.345,-0.125
2021-08-19 19:26:59.196,-0.365,-0.1
2021-08-19 19:26:59.200,-0.385,-0.05
2021-08-19 19:26:59.204,-0.42,-0.045
2021-08-19 19:26:59.208,-0.425,-0.12
2021-08-19 19:26:59.212,-0.49,-0.185
2021-08-19 19:26:59.216,-0.515,-0.235
2021-08-19 19:26:59.220,-0.505,-0.24
2021-08-19 19:26:59.224,-0.47,-0.225
2021-08-19 19:26:59.228,-0.51,-0.165
2021-08-19 19:26:59.232,-0.555,-0.105
2021-08-19 19:26:59.236,-0.525,-0.075
2021-08-19 19:26:59.240,-0.49,-0.16
2021-08-19 19:26:59.244,-0.46,-0.235
2021-08-19 19:26:59.248,-0.45,-0.205
2021-08-19 19:26:59.252,-0.415,-0.145
2021-08-19 19:26:59.256,-0.41,-0.165
2021-08-19 19:26:59.260,-0.415,-0.215
2021-08-19 19:26:59.264,-0.43,-0.2
2021-08-19 19:26:59.268,-0.425,-0.145
2021-08-19 19:26:59.272,-0.41,-0.175
2021-08-19 19:26:59.276,-0.41,-0.21
2021-08-19 19:26:59.280,-0.42,-0.205
2021-08-19 19:26:59.284,-0.435,-0.15
2021-08-19 19:26:59.288,-0.455,-0.13
2021-08-19 19:26:59.292,-0.44,-0.12
2021-08-19 19:26:59.296,-0.415,-0.185
2021-08-19 19:26:59.300,-0.395,-0.235
2021-08-19 19:26:59.304,-0.345,-0.205
2021-08-19 19:26:59.308,-0.365,-0.175
2021-08-19 19:26:59.312,-0.395,-0.175
2021-08-19 19:26:59.316,-0.42,-0.125
2021-08-19 19:26:59.320,-0.415,-0.135
2021-08-19 19:26:59.324,-0.395,-0.265
2021-08-19 19:26:59.328,-0.41,-0.35
2021-08-19 19:26:59.332,-0.41,-0.33
2021-08-19 19:26:59.336,-0.415,-0.265
2021-08-19 19:26:59.340,-0.4,-0.245
2021-08-19 19:26:59.344,-0.32,-0.22
2021-08-19 19:26:59.348,-0.25,-0.21
2021-08-19 19:26:59.352,-0.185,-0.28
2021-08-19 19:26:59.356,-0.105,-0.32
2021-08-19 19:26:59.360,-0.015,-0.35
2021-08-19 19:26:59.364,0.015,-0.4
2021-08-19 19:26:59.368,0.055,-0.455
2021-08-19 19:26:59.372,0.08,-0.48
2021-08-19 19:26:59.376,0.07,-0.66
2021-08-19 19:26:59.380,0.06,-0.84
2021-08-19 19:26:59.384,0.17,-1.05
2021-08-19 19:26:59.388,0.5,-1.275
2021-08-19 19:26:59.392,0.855,-1.535
2021-08-19 19:26:59.396,1.04,-1.76
2021-08-19 19:26:59.400,0.98,-1.845
2021-08-19 19:26:59.404,0.645,-1.63
2021-08-19 19:26:59.408,0.16,-1.095
2021-08-19 19:26:59.412,-0.195,-0.595
2021-08-19 19:26:59.416,-0.38,-0.345
2021-08-19 19:26:59.420,-0.51,-0.235
2021-08-19 19:26:59.424,-0.5,-0.105
2021-08-19 19:26:59.428,-0.48,-0.04
2021-08-19 19:26:59.432,-0.465,0.04
2021-08-19 19:26:59.436,-0.435,0.075
2021-08-19 19:26:59.440,-0.455,0.065
2021-08-19 19:26:59.444,-0.47,-0.04
2021-08-19 19:26:59.448,-0.47,-0.06
2021-08-19 19:26:59.452,-0.505,-0.05
2021-08-19 19:26:59.456,-0.55,-0.025
2021-08-19 19:26:59.460,-0.57,-0.035
2021-08-19 19:26:59.464,-0.54,-0.055
2021-08-19 19:26:59.468,-0.51,-0.04
2021-08-19 19:26:59.472,-0.52,-0.055
2021-08-19 19:26:59.476,-0.555,-0.08
2021-08-19 19:26:59.480,-0.575,-0.065
2021-08-19 19:26:59.484,-0.59,0.015
2021-08-19 19:26:59.488,-0.6,0.06
2021-08-19 19:26:59.492,-0.585,-0.04
2021-08-19 19:26:59.496,-0.555,-0.09
2021-08-19 19:26:59.500,-0.525,-0.08
2021-08-19 19:26:59.504,-0.515,-0.115
2021-08-19 19:26:59.508,-0.525,-0.09
2021-08-19 19:26:59.512,-0.55,-0.05
2021-08-19 19:26:59.516,-0.585,0.0
2021-08-19 19:26:59.520,-0.575,0.015
2021-08-19 19:26:59.524,-0.555,-0.04
2021-08-19 19:26:59.528,-0.505,-0.03
2021-08-19 19:26:59.532,-0.525,0.015
2021-08-19 19:26:59.536,-0.53,-0.01
2021-08-19 19:26:59.540,-0.525,-0.04
2021-08-19 19:26:59.544,-0.49,-0.035
2021-08-19 19:26:59.548,-0.5,-0.06
2021-08-19 19:26:59.552,-0.565,-0.095
2021-08-19 19:26:59.556,-0.585,-0.095
2021-08-19 19:26:59.560,-0.58,-0.08
2021-08-19 19:26:59.564,-0.545,-0.025
2021-08-19 19:26:59.568,-0.525,0.0
2021-08-19 19:26:59.572,-0.515,-0.015
2021-08-19 19:26:59.576,-0.535,-0.065
2021-08-19 19:26:59.580,-0.525,-0.04
2021-08-19 19:26:59.584,-0.52,-0.045
2021-08-19 19:26:59.588,-0.515,-0.115
2021-08-19 19:26:59.592,-0.49,-0.15
2021-08-19 19:26:59.596,-0.445,-0.155
2021-08-19 19:26:59.600,-0.44,-0.085
2021-08-19 19:26:59.604,-0.44,-0.075
2021-08-19 19:26:59.608,-0.4,-0.075
2021-08-19 19:26:59.612,-0.395,-0.08
2021-08-19 19:26:59.616,-0.42,-0.13
2021-08-19 19:26:59.620,-0.39,-0.125
2021-08-19 19:26:59.624,-0.35,-0.125
2021-08-19 19:26:59.628,-0.325,-0.115
2021-08-19 19:26:59.632,-0.325,-0.16
2021-08-19 19:26:59.636,-0.325,-0.18
2021-08-19 19:26:59.640,-0.335,-0.17
2021-08-19 19:26:59.644,-0.275,-0.13
2021-08-19 19:26:59.648,-0.255,-0.105
2021-08-19 19:26:59.652,-0.27,-0.07
2021-08-19 19:26:59.656,-0.27,-0.115
2021-08-19 19:26:59.660,-0.215,-0.165
2021-08-19 19:26:59.664,-0.175,-0.19
2021-08-19 19:26:59.668,-0.215,-0.195
2021-08-19 19:26:59.672,-0.22,-0.185
2021-08-19 19:26:59.676,-0.21,-0.16
2021-08-19 19:26:59.680,-0.2,-0.08
2021-08-19 19:26:59.684,-0.27,-0.05
2021-08-19 19:26:59.688,-0.335,-0.08
2021-08-19 19:26:59.692,-0.4,-0.19
2021-08-19 19:26:59.696,-0.435,-0.235
2021-08-19 19:26:59.700,-0.45,-0.175
2021-08-19 19:26:59.704,-0.475,-0.095
2021-08-19 19:26:59.708,-0.47,-0.095
2021-08-19 19:26:59.712,-0.395,-0.065
2021-08-19 19:26:59.716,-0.4,-0.085
2021-08-19 19:26:59.720,-0.365,-0.14
2021-08-19 19:26:59.724,-0.385,-0.16
2021-08-19 19:26:59.728,-0.445,-0.105
2021-08-19 19:26:59.732,-0.465,-0.04
2021-08-19 19:26:59.736,-0.475,-0.11
2021-08-19 19:26:59.740,-0.475,-0.18
2021-08-19 19:26:59.744,-0.47,-0.18
2021-08-19 19:26:59.748,-0.425,-0.14
2021-08-19 19:26:59.752,-0.405,-0.15
2021-08-19 19:26:59.756,-0.455,-0.155
2021-08-19 19:26:59.760,-0.44,-0.15
2021-08-19 19:26:59.764,-0.43,-0.18
2021-08-19 19:26:59.768,-0.455,-0.205
2021-08-19 19:26:59.772,-0.45,-0.22
2021-08-19 19:26:59.776,-0.435,-0.22
2021-08-19 19:26:59.780,-0.425,-0.215
2021-08-19 19:26:59.784,-0.425,-0.225
2021-08-19 19:26:59.788,-0.44,-0.2
2021-08-19 19:26:59.792,-0.415,-0.185
2021-08-19 19:26:59.796,-0.42,-0.18
2021-08-19 19:26:59.800,-0.425,-0.175
2021-08-19 19:26:59.804,-0.465,-0.175
2021-08-19 19:26:59.808,-0.495,-0.125
2021-08-19 19:26:59.812,-0.47,-0.145
2021-08-19 19:26:59.816,-0.43,-0.19
2021-08-19 19:26:59.820,-0.47,-0.275
2021-08-19 19:26:59.824,-0.5,-0.295
2021-08-19 19:26:59.828,-0.44,-0.245
2021-08-19 19:26:59.832,-0.345,-0.17
2021-08-19 19:26:59.836,-0.3,-0.15
2021-08-19 19:26:59.840,-0.27,-0.2
2021-08-19 19:26:59.844,-0.2,-0.245
2021-08-19 19:26:59.848,-0.13,-0.27
2021-08-19 19:26:59.852,-0.075,-0.245
2021-08-19 19:26:59.856,-0.01,-0.225
2021-08-19 19:26:59.860,0.075,-0.275
2021-08-19 19:26:59.864,0.175,-0.365
2021-08-19 19:26:59.868,0.22,-0.425
2021-08-19 19:26:59.872,0.195,-0.46
2021-08-19 19:26:59.876,0.135,-0.515
2021-08-19 19:26:59.880,0.065,-0.655
2021-08-19 19:26:59.884,0.145,-0.815
2021-08-19 19:26:59.888,0.435,-1.035
2021-08-19 19:26:59.892,0.785,-1.32
2021-08-19 19:26:59.896,1.015,-1.645
2021-08-19 19:26:59.900,1.025,-1.83
2021-08-19 19:26:59.904,0.84,-1.77
2021-08-19 19:26:59.908,0.44,-1.34
2021-08-19 19:26:59.912,-0.03,-0.87
2021-08-19 19:26:59.916,-0.35,-0.565
2021-08-19 19:26:59.920,-0.515,-0.475
2021-08-19 19:26:59.924,-0.545,-0.38
2021-08-19 19:26:59.928,-0.52,-0.235
2021-08-19 19:26:59.932,-0.525,-0.135
2021-08-19 19:26:59.936,-0.58,-0.095
2021-08-19 19:26:59.940,-0.56,-0.05
2021-08-19 19:26:59.944,-0.53,-0.08
2021-08-19 19:26:59.948,-0.53,-0.075
2021-08-19 19:26:59.952,-0.55,-0.085
2021-08-19 19:26:59.956,-0.61,-0.1
2021-08-19 19:26:59.960,-0.61,-0.08
2021-08-19 19:26:59.964,-0.595,-0.065
2021-08-19 19:26:59.968,-0.585,-0.14
2021-08-19 19:26:59.972,-0.595,-0.17
2021-08-19 19:26:59.976,-0.62,-0.155
2021-08-19 19:26:59.980,-0.61,-0.14
2021-08-19 19:26:59.984,-0.61,-0.12
2021-08-19 19:26:59.988,-0.55,-0.12
2021-08-19 19:26:59.992,-0.51,-0.09
2021-08-19 19:26:59.996,-0.49,-0.11
2021-08-19 19:31:00.000,-0.07,-0.32
2021-08-19 19:31:00.004,-0.07,-0.315
2021-08-19 19:31:00.008,-0.085,-0.325
2021-08-19 19:31:00.012,-0.08,-0.29
2021-08-19 19:31:00.016,-0.085,-0.32
2021-08-19 19:31:00.020,-0.105,-0.345
2021-08-19 19:31:00.024,-0.115,-0.335
2021-08-19 19:31:00.028,-0.105,-0.315
2021-08-19 19:31:00.032,-0.125,-0.33
2021-08-19 19:31:00.036,-0.115,-0.32
2021-08-19 19:31:00.040,-0.09,-0.32
2021-08-19 19:31:00.044,-0.105,-0.3
2021-08-19 19:31:00.048,-0.11,-0.34
2021-08-19 19:31:00.052,-0.1,-0.385
2021-08-19 19:31:00.056,-0.105,-0.39
2021-08-19 19:31:00.060,-0.105,-0.4
2021-08-19 19:31:00.064,-0.1,-0.44
2021-08-19 19:31:00.068,-0.11,-0.48
2021-08-19 19:31:00.072,-0.1,-0.46
2021-08-19 19:31:00.076,-0.09,-0.45
2021-08-19 19:31:00.080,-0.11,-0.45
2021-08-19 19:31:00.084,-0.105,-0.45
2021-08-19 19:31:00.088,-0.12,-0.46
2021-08-19 19:31:00.092,-0.1,-0.46
2021-08-19 19:31:00.096,-0.105,-0.44
2021-08-19 19:31:00.100,-0.115,-0.445
2021-08-19 19:31:00.104,-0.075,-0.43
2021-08-19 19:31:00.108,-0.1,-0.44
2021-08-19 19:31:00.112,-0.09,-0.425
2021-08-19 19:31:00.116,-0.11,-0.43
2021-08-19 19:31:00.120,-0.105,-0.42
2021-08-19 19:31:00.124,-0.095,-0.43
2021-08-19 19:31:00.128,-0.13,-0.425
2021-08-19 19:31:00.132,-0.125,-0.44
2021-08-19 19:31:00.136,-0.12,-0.435
2021-08-19 19:31:00.140,-0.145,-0.44
2021-08-19 19:31:00.144,-0.145,-0.42
2021-08-19 19:31:00.148,-0.16,-0.41
2021-08-19 19:31:00.152,-0.145,-0.425
2021-08-19 19:31:00.156,-0.14,-0.44
2021-08-19 19:31:00.160,-0.175,-0.425
2021-08-19 19:31:00.164,-0.16,-0.425
2021-08-19 19:31:00.168,-0.16,-0.43
2021-08-19 19:31:00.172,-0.145,-0.425
2021-08-19 19:31:00.176,-0.135,-0.415
2021-08-19 19:31:00.180,-0.125,-0.4
2021-08-19 19:31:00.184,-0.125,-0.41
2021-08-19 19:31:00.188,-0.115,-0.39
2021-08-19 19:31:00.192,-0.11,-0.38
2021-08-19 19:31:00.196,-0.09,-0.38
2021-08-19 19:31:00.200,-0.105,-0.36
2021-08-19 19:31:00.204,-0.08,-0.365
2021-08-19 19:31:00.208,-0.08,-0.385
2021-08-19 19:31:00.212,-0.07,-0.37
2021-08-19 19:31:00.216,-0.06,-0.34
2021-08-19 19:31:00.220,-0.075,-0.34
2021-08-19 19:31:00.224,-0.05,-0.32
2021-08-19 19:31:00.228,-0.03,-0.315
2021-08-19 19:31:00.232,-0.045,-0.335
2021-08-19 19:31:00.236,-0.025,-0.31
2021-08-19 19:31:00.240,-0.04,-0.32
2021-08-19 19:31:00.244,-0.04,-0.31
2021-08-19 19:31:00.248,-0.08,-0.31
2021-08-19 19:31:00.252,-0.11,-0.315
2021-08-19 19:31:00.256,-0.115,-0.325
2021-08-19 19:31:00.260,-0.145,-0.3
2021-08-19 19:31:00.264,-0.14,-0.29
2021-08-19 19:31:00.268,-0.15,-0.295
2021-08-19 19:31:00.272,-0.155,-0.335
2021-08-19 19:31:00.276,-0.135,-0.34
2021-08-19 19:31:00.280,-0.115,-0.34
2021-08-19 19:31:00.284,-0.08,-0.345
2021-08-19 19:31:00.288,-0.04,-0.37
2021-08-19 19:31:00.292,-0.03,-0.405
2021-08-19 19:31:00.296,-0.01,-0.41
2021-08-19 19:31:00.300,0.03,-0.435
2021-08-19 19:31:00.304,0.085,-0.425
2021-08-19 19:31:00.308,0.155,-0.46
2021-08-19 19:31:00.312,0.23,-0.515
2021-08-19 19:31:00.316,0.28,-0.545
2021-08-19 19:31:00.320,0.33,-0.6
2021-08-19 19:31:00.324,0.355,-0.645
2021-08-19 19:31:00.328,0.375,-0.64
2021-08-19 19:31:00.332,0.355,-0.715
2021-08-19 19:31:00.336,0.345,-0.84
2021-08-19 19:31:00.340,0.375,-0.945
2021-08-19 19:31:00.344,0.56,-1.16
2021-08-19 19:31:00.348,0.85,-1.4
2021-08-19 19:31:00.352,1.16,-1.645
2021-08-19 19:31:00.356,1.365,-1.795
2021-08-19 19:31:00.360,1.35,-1.775
2021-08-19 19:31:00.364,1.07,-1.455
2021-08-19 19:31:00.368,0.59,-0.985
2021-08-19 19:31:00.372,0.19,-0.665
2021-08-19 19:31:00.376,0.005,-0.525
2021-08-19 19:31:00.380,-0.1,-0.415
2021-08-19 19:31:00.384,-0.15,-0.325
2021-08-19 19:31:00.388,-0.21,-0.29
2021-08-19 19:31:00.392,-0.22,-0.285
2021-08-19 19:31:00.396,-0.23,-0.275
2021-08-19 19:31:00.400,-0.23,-0.29
2021-08-19 19:31:00.404,-0.22,-0.28
2021-08-19 19:31:00.408,-0.235,-0.29
2021-08-19 19:31:00.412,-0.235,-0.29
2021-08-19 19:31:00.416,-0.22,-0.31
2021-08-19 19:31:00.420,-0.235,-0.29
2021-08-19 19:31:00.424,-0.22,-0.265
2021-08-19 19:31:00.428,-0.22,-0.275
2021-08-19 19:31:00.432,-0.23,-0.265
2021-08-19 19:31:00.436,-0.215,-0.265
2021-08-19 19:31:00.440,-0.215,-0.28
2021-08-19 19:31:00.444,-0.205,-0.26
2021-08-19 19:31:00.448,-0.18,-0.26
2021-08-19 19:31:00.452,-0.19,-0.215
2021-08-19 19:31:00.456,-0.155,-0.225
2021-08-19 19:31:00.460,-0.165,-0.23
2021-08-19 19:31:00.464,-0.16,-0.21
2021-08-19 19:31:00.468,-0.175,-0.21
2021-08-19 19:31:00.472,-0.2,-0.2
2021-08-19 19:31:00.476,-0.235,-0.165
2021-08-19 19:31:00.480,-0.25,-0.2
2021-08-19 19:31:00.484,-0.265,-0.17
2021-08-19 19:31:00.488,-0.29,-0.18
2021-08-19 19:31:00.492,-0.29,-0.21
2021-08-19 19:31:00.496,-0.29,-0.21
2021-08-19 19:31:00.500,-0.32,-0.22
2021-08-19 19:31:00.504,-0.33,-0.235
2021-08-19 19:31:00.508,-0.35,-0.24
2021-08-19 19:31:00.512,-0.325,-0.24
2021-08-19 19:31:00.516,-0.32,-0.265
2021-08-19 19:31:00.520,-0.325,-0.27
2021-08-19 19:31:00.524,-0.3,-0.305
2021-08-19 19:31:00.528,-0.255,-0.335
2021-08-19 19:31:00.532,-0.235,-0.33
2021-08-19 19:31:00.536,-0.22,-0.37
2021-08-19 19:31:00.540,-0.215,-0.37
2021-08-19 19:31:00.544,-0.22,-0.38
2021-08-19 19:31:00.548,-0.22,-0.39
2021-08-19 19:31:00.552,-0.23,-0.415
2021-08-19 19:31:00.556,-0.23,-0.42
2021-08-19 19:31:00.560,-0.215,-0.41
2021-08-19 19:31:00.564,-0.19,-0.43
2021-08-19 19:31:00.568,-0.185,-0.435
2021-08-19 19:31:00.572,-0.185,-0.44
2021-08-19 19:31:00.576,-0.15,-0.45
2021-08-19 19:31:00.580,-0.145,-0.445
2021-08-19 19:31:00.584,-0.13,-0.46
2021-08-19 19:31:00.588,-0.14,-0.43
2021-08-19 19:31:00.592,-0.135,-0.43
2021-08-19 19:31:00.596,-0.12,-0.45
2021-08-19 19:31:00.600,-0.12,-0.455
2021-08-19 19:31:00.604,-0.105,-0.465
2021-08-19 19:31:00.608,-0.11,-0.48
2021-08-19 19:31:00.612,-0.08,-0.46
2021-08-19 19:31:00.616,-0.065,-0.47
2021-08-19 19:31:00.620,-0.045,-0.48
2021-08-19 19:31:00.624,-0.05,-0.425
2021-08-19 19:31:00.628,-0.03,-0.43
2021-08-19 19:31:00.632,-0.035,-0.425
2021-08-19 19:31:00.636,-0.025,-0.415
2021-08-19 19:31:00.640,-0.02,-0.41
2021-08-19 19:31:00.644,0.0,-0.41
2021-08-19 19:31:00.648,0.005,-0.38
2021-08-19 19:31:00.652,0.02,-0.405
2021-08-19 19:31:00.656,0.01,-0.365
2021-08-19 19:31:00.660,0.01,-0.38
2021-08-19 19:31:00.664,0.0,-0.37
2021-08-19 19:31:00.668,0.0,-0.37
2021-08-19 19:31:00.672,0.01,-0.355
2021-08-19 19:31:00.676,0.035,-0.33
2021-08-19 19:31:00.680,0.04,-0.345
2021-08-19 19:31:00.684,0.045,-0.33
2021-08-19 19:31:00.688,0.045,-0.315
2021-08-19 19:31:00.692,0.045,-0.3
2021-08-19 19:31:00.696,0.03,-0.295
2021-08-19 19:31:00.700,0.015,-0.28
2021-08-19 19:31:00.704,-0.005,-0.265
2021-08-19 19:31:00.708,0.0,-0.24
2021-08-19 19:31:00.712,0.045,-0.25
2021-08-19 19:31:00.716,0.08,-0.27
2021-08-19 19:31:00.720,0.135,-0.305
2021-08-19 19:31:00.724,0.175,-0.35
2021-08-19 19:31:00.728,0.25,-0.4
2021-08-19 19:31:00.732,0.25,-0.445
2021-08-19 19:31:00.736,0.24,-0.52
2021-08-19 19:31:00.740,0.235,-0.575
2021-08-19 19:31:00.744,0.21,-0.65
2021-08-19 19:31:00.748,0.275,-0.805
2021-08-19 19:31:00.752,0.445,-0.985
2021-08-19 19:31:00.756,0.75,-1.215
2021-08-19 19:31:00.760,1.11,-1.54
2021-08-19 19:31:00.764,1.305,-1.81
2021-08-19 19:31:00.768,1.355,-1.86
2021-08-19 19:31:00.772,1.1,-1.655
2021-08-19 19:31:00.776,0.65,-1.22
2021-08-19 19:31:00.780,0.245,-0.81
2021-08-19 19:31:00.784,0.045,-0.575
2021-08-19 19:31:00.788,-0.05,-0.465
2021-08-19 19:31:00.792,-0.08,-0.395
2021-08-19 19:31:00.796,-0.11,-0.365
2021-08-19 19:31:00.800,-0.105,-0.34
2021-08-19 19:31:00.804,-0.14,-0.31
2021-08-19 19:31:00.808,-0.15,-0.32
2021-08-19 19:31:00.812,-0.165,-0.35
2021-08-19 19:31:00.816,-0.175,-0.335
2021-08-19 19:31:00.820,-0.18,-0.345
2021-08-19 19:31:00.824,-0.17,-0.335
2021-08-19 19:31:00.828,-0.175,-0.32
2021-08-19 19:31:00.832,-0.17,-0.345
2021-08-19 19:31:00.836,-0.185,-0.35
2021-08-19 19:31:00.840,-0.18,-0.315
2021-08-19 19:31:00.844,-0.185,-0.33
2021-08-19 19:31:00.848,-0.165,-0.315
2021-08-19 19:31:00.852,-0.18,-0.29
2021-08-19 19:31:00.856,-0.185,-0.27
2021-08-19 19:31:00.860,-0.16,-0.27
2021-08-19 19:31:00.864,-0.17,-0.255
2021-08-19 19:31:00.868,-0.19,-0.265
2021-08-19 19:31:00.872,-0.2,-0.255
2021-08-19 19:31:00.876,-0.19,-0.25
2021-08-19 19:31:00.880,-0.175,-0.255
2021-08-19 19:31:00.884,-0.175,-0.24
2021-08-19 19:31:00.888,-0.195,-0.25
2021-08-19 19:31:00.892,-0.175,-0.245
2021-08-19 19:31:00.896,-0.15,-0.23
2021-08-19 19:31:00.900,-0.145,-0.215
2021-08-19 19:31:00.904,-0.125,-0.205
2021-08-19 19:31:00.908,-0.115,-0.2
2021-08-19 19:31:00.912,-0.115,-0.195
2021-08-19 19:31:00.916,-0.11,-0.215
2021-08-19 19:31:00.920,-0.12,-0.17
2021-08-19 19:31:00.924,-0.105,-0.185
2021-08-19 19:31:00.928,-0.105,-0.18
2021-08-19 19:31:00.932,-0.115,-0.165
2021-08-19 19:31:00.936,-0.12,-0.18
2021-08-19 19:31:00.940,-0.125,-0.19
2021-08-19 19:31:00.944,-0.11,-0.2
2021-08-19 19:31:00.948,-0.13,-0.195
2021-08-19 19:31:00.952,-0.11,-0.225
2021-08-19 19:31:00.956,-0.095,-0.24
2021-08-19 19:31:00.960,-0.055,-0.265
2021-08-19 19:31:00.964,-0.045,-0.265
2021-08-19 19:31:00.968,-0.035,-0.295
2021-08-19 19:31:00.972,-0.04,-0.305
2021-08-19 19:31:00.976,-0.02,-0.325
2021-08-19 19:31:00.980,-0.005,-0.36
2021-08-19 19:31:00.984,0.01,-0.405
2021-08-19 19:31:00.988,0.02,-0.39
2021-08-19 19:31:00.992,0.0,-0.425
2021-08-19 19:31:00.996,-0.015,-0.435
2021-08-19 19:31:01.000,0.005,-0.45
2021-08-19 19:31:01.004,0.0,-0.48
2021-08-19 19:31:01.008,-0.005,-0.475
2021-08-19 19:31:01.012,0.005,-0.495
2021-08-19 19:31:01.016,0.005,-0.5
2021-08-19 19:31:01.020,0.0,-0.505
2021-08-19 19:31:01.024,-0.03,-0.505
2021-08-19 19:31:01.028,-0.035,-0.515
2021-08-19 19:31:01.032,-0.04,-0.525
2021-08-19 19:31:01.036,-0.06,-0.52
2021-08-19 19:31:01.040,-0.05,-0.49
2021-08-19 19:31:01.044,-0.045,-0.485
2021-08-19 19:31:01.048,-0.055,-0.5
2021-08-19 19:31:01.052,-0.055,-0.49
2021-08-19 19:31:01.056,-0.045,-0.49
2021-08-19 19:31:01.060,-0.07,-0.47
2021-08-19 19:31:01.064,-0.065,-0.455
2021-08-19 19:31:01.068,-0.07,-0.45
2021-08-19 19:31:01.072,-0.055,-0.45
2021-08-19 19:31:01.076,-0.035,-0.455
2021-08-19 19:31:01.080,-0.02,-0.47
2021-08-19 19:31:01.084,-0.015,-0.475
2021-08-19 19:31:01.088,0.0,-0.46
2021-08-19 19:31:01.092,-0.02,-0.45
2021-08-19 19:31:01.096,-0.005,-0.44
2021-08-19 19:31:01.100,0.0,-0.42
2021-08-19 19:31:01.104,-0.005,-0.41
2021-08-19 19:31:01.108,0.0,-0.42
2021-08-19 19:31:01.112,0.0,-0.4
2021-08-19 19:31:01.116,0.015,-0.405
2021-08-19 19:31:01.120,0.035,-0.415
2021-08-19 19:31:01.124,0.035,-0.39
2021-08-19 19:31:01.128,0.065,-0.36
2021-08-19 19:31:01.132,0.075,-0.365
2021-08-19 19:31:01.136,0.07,-0.37
2021-08-19 19:31:01.140,0.085,-0.38
2021-08-19 19:31:01.144,0.075,-0.35
2021-08-19 19:31:01.148,0.07,-0.36
2021-08-19 19:31:01.152,0.07,-0.32
2021-08-19 19:31:01.156,0.06,-0.335
2021-08-19 19:31:01.160,0.075,-0.345
2021-08-19 19:31:01.164,0.06,-0.33
2021-08-19 19:31:01.168,0.05,-0.35
2021-08-19 19:31:01.172,0.02,-0.33
2021-08-19 19:31:01.176,0.025,-0.32
2021-08-19 19:31:01.180,0.025,-0.33
2021-08-19 19:31:01.184,0.035,-0.35
2021-08-19 19:31:01.188,0.04,-0.37
2021-08-19 19:31:01.192,0.04,-0.355
2021-08-19 19:31:01.196,0.04,-0.365
2021-08-19 19:31:01.200,0.07,-0.41
2021-08-19 19:31:01.204,0.065,-0.39
2021-08-19 19:31:01.208,0.09,-0.42
2021-08-19 19:31:01.212,0.11,-0.395
2021-08-19 19:31:01.216,0.12,-0.435
2021-08-19 19:31:01.220,0.115,-0.45
2021-08-19 19:31:01.224,0.105,-0.465
2021-08-19 19:31:01.228,0.105,-0.485
2021-08-19 19:31:01.232,0.11,-0.51
2021-08-19 19:31:01.236,0.155,-0.5
2021-08-19 19:31:01.240,0.21,-0.52
2021-08-19 19:31:01.244,0.28,-0.525
2021-08-19 19:31:01.248,0.355,-0.53
2021-08-19 19:31:01.252,0.42,-0.59
2021-08-19 19:31:01.256,0.48,-0.635
2021-08-19 19:31:01.260,0.545,-0.69
2021-08-19 19:31:01.264,0.6,-0.71
2021-08-19 19:31:01.268,0.595,-0.78
2021-08-19 19:31:01.272,0.585,-0.855
2021-08-19 19:31:01.276,0.625,-0.965
2021-08-19 19:31:01.280,0.77,-1.11
2021-08-19 19:31:01.284,1.015,-1.35
2021-08-19 19:31:01.288,1.31,-1.565
2021-08-19 19:31:01.292,1.435,-1.675
2021-08-19 19:31:01.296,1.285,-1.64
2021-08-19 19:31:01.300,0.82,-1.335
2021-08-19 19:31:01.304,0.375,-0.93
2021-08-19 19:31:01.308,0.13,-0.695
2021-08-19 19:31:01.312,0.005,-0.585
2021-08-19 19:31:01.316,-0.035,-0.47
2021-08-19 19:31:01.320,-0.055,-0.395
2021-08-19 19:31:01.324,-0.08,-0.33
2021-08-19 19:31:01.328,-0.125,-0.325
2021-08-19 19:31:01.332,-0.135,-0.31
2021-08-19 19:31:01.336,-0.155,-0.31
2021-08-19 19:31:01.340,-0.16,-0.3
2021-08-19 19:31:01.344,-0.15,-0.315
2021-08-19 19:31:01.348,-0.16,-0.315
2021-08-19 19:31:01.352,-0.14,-0.31
2021-08-19 19:31:01.356,-0.145,-0.3
2021-08-19 19:31:01.360,-0.135,-0.28
2021-08-19 19:31:01.364,-0.105,-0.26
2021-08-19 19:31:01.368,-0.11,-0.27
2021-08-19 19:31:01.372,-0.1,-0.255
2021-08-19 19:31:01.376,-0.11,-0.245
2021-08-19 19:31:01.380,-0.13,-0.255
2021-08-19 19:31:01.384,-0.145,-0.23
2021-08-19 19:31:01.388,-0.16,-0.23
2021-08-19 19:31:01.392,-0.19,-0.255
2021-08-19 19:31:01.396,-0.175,-0.225
2021-08-19 19:31:01.400,-0.205,-0.21
2021-08-19 19:31:01.404,-0.21,-0.23
2021-08-19 19:31:01.408,-0.205,-0.225
2021-08-19 19:31:01.412,-0.215,-0.205
2021-08-19 19:31:01.416,-0.235,-0.2
2021-08-19 19:31:01.420,-0.225,-0.21
2021-08-19 19:31:01.424,-0.23,-0.21
2021-08-19 19:31:01.428,-0.23,-0.22
2021-08-19 19:31:01.432,-0.225,-0.245
2021-08-19 19:31:01.436,-0.22,-0.235
2021-08-19 19:31:01.440,-0.23,-0.26
2021-08-19 19:31:01.444,-0.21,-0.28
2021-08-19 19:31:01.448,-0.205,-0.295
2021-08-19 19:31:01.452,-0.195,-0.29
2021-08-19 19:31:01.456,-0.175,-0.305
2021-08-19 19:31:01.460,-0.16,-0.315
2021-08-19 19:31:01.464,-0.165,-0.325
2021-08-19 19:31:01.468,-0.165,-0.33
2021-08-19 19:31:01.472,-0.185,-0.33
2021-08-19 19:31:01.476,-0.16,-0.355
2021-08-19 19:31:01.480,-0.16,-0.36
2021-08-19 19:31:01.484,-0.17,-0.35
2021-08-19 19:31:01.488,-0.16,-0.35
2021-08-19 19:31:01.492,-0.16,-0.355
2021-08-19 19:31:01.496,-0.15,-0.37
2021-08-19 19:31:01.500,-0.14,-0.385
2021-08-19 19:31:01.504,-0.145,-0.4
2021-08-19 19:31:01.508,-0.13,-0.395
2021-08-19 19:31:01.512,-0.12,-0.415
2021-08-19 19:31:01.516,-0.12,-0.41
2021-08-19 19:31:01.520,-0.13,-0.42
2021-08-19 19:31:01.524,-0.125,-0.425
2021-08-19 19:31:01.528,-0.135,-0.43
2021-08-19 19:31:01.532,-0.16,-0.435
2021-08-19 19:31:01.536,-0.16,-0.405
2021-08-19 19:31:01.540,-0.18,-0.41
2021-08-19 19:31:01.544,-0.17,-0.41
2021-08-19 19:31:01.548,-0.18,-0.43
2021-08-19 19:31:01.552,-0.17,-0.425
2021-08-19 19:31:01.556,-0.175,-0.425
2021-08-19 19:31:01.560,-0.155,-0.43
2021-08-19 19:31:01.564,-0.12,-0.44
2021-08-19 19:31:01.568,-0.115,-0.45
2021-08-19 19:31:01.572,-0.11,-0.465
2021-08-19 19:31:01.576,-0.09,-0.43
2021-08-19 19:31:01.580,-0.08,-0.46
2021-08-19 19:31:01.584,-0.045,-0.43
2021-08-19 19:31:01.588,-0.005,-0.44
2021-08-19 19:31:01.592,-0.02,-0.415
2021-08-19 19:31:01.596,0.0,-0.37
2021-08-19 19:31:01.600,0.005,-0.34
2021-08-19 19:31:01.604,0.035,-0.33
2021-08-19 19:31:01.608,0.05,-0.29
2021-08-19 19:31:01.612,0.035,-0.265
2021-08-19 19:31:01.616,0.025,-0.25
2021-08-19 19:31:01.620,0.005,-0.245
2021-08-19 19:31:01.624,0.0,-0.27
2021-08-19 19:31:01.628,0.0,-0.295
2021-08-19 19:31:01.632,-0.01,-0.29
2021-08-19 19:31:01.636,-0.025,-0.28
2021-08-19 19:31:01.640,-0.03,-0.27
2021-08-19 19:31:01.644,-0.035,-0.25
2021-08-19 19:31:01.648,-0.035,-0.24
2021-08-19 19:31:01.652,-0.035,-0.24
2021-08-19 19:31:01.656,-0.025,-0.245
2021-08-19 19:31:01.660,-0.03,-0.24
2021-08-19 19:31:01.664,-0.01,-0.275
2021-08-19 19:31:01.668,-0.03,-0.29
2021-08-19 19:31:01.672,-0.01,-0.315
2021-08-19 19:31:01.676,0.0,-0.32
2021-08-19 19:31:01.680,-0.015,-0.35
2021-08-19 19:31:01.684,-0.02,-0.37
2021-08-19 19:31:01.688,-0.02,-0.36
2021-08-19 19:31:01.692,-0.03,-0.37
2021-08-19 19:31:01.696,-0.055,-0.39
2021-08-19 19:31:01.700,-0.045,-0.39
2021-08-19 19:31:01.704,-0.045,-0.365
2021-08-19 19:31:01.708,-0.065,-0.38
2021-08-19 19:31:01.712,-0.07,-0.375
2021-08-19 19:31:01.716,-0.08,-0.385
2021-08-19 19:31:01.720,-0.08,-0.37
2021-08-19 19:31:01.724,-0.085,-0.39
2021-08-19 19:31:01.728,-0.09,-0.38
2021-08-19 19:31:01.732,-0.115,-0.36
2021-08-19 19:31:01.736,-0.12,-0.335
2021-08-19 19:31:01.740,-0.155,-0.355
2021-08-19 19:31:01.744,-0.135,-0.35
2021-08-19 19:31:01.748,-0.15,-0.34
2021-08-19 19:31:01.752,-0.16,-0.36
2021-08-19 19:31:01.756,-0.16,-0.35
2021-08-19 19:31:01.760,-0.19,-0.355
2021-08-19 19:31:01.764,-0.19,-0.35
2021-08-19 19:31:01.768,-0.225,-0.345
2021-08-19 19:31:01.772,-0.225,-0.355
2021-08-19 19:31:01.776,-0.22,-0.355
2021-08-19 19:31:01.780,-0.23,-0.33
2021-08-19 19:31:01.784,-0.23,-0.345
2021-08-19 19:31:01.788,-0.245,-0.365
2021-08-19 19:31:01.792,-0.265,-0.36
2021-08-19 19:31:01.796,-0.275,-0.35
2021-08-19 19:31:01.800,-0.315,-0.36
2021-08-19 19:31:01.804,-0.285,-0.37
2021-08-19 19:31:01.808,-0.275,-0.335
2021-08-19 19:31:01.812,-0.27,-0.355
2021-08-19 19:31:01.816,-0.22,-0.38
2021-08-19 19:31:01.820,-0.155,-0.38
2021-08-19 19:31:01.824,-0.075,-0.37
2021-08-19 19:31:01.828,0.03,-0.39
2021-08-19 19:31:01.832,0.135,-0.415
2021-08-19 19:31:01.836,0.23,-0.48
2021-08-19 19:31:01.840,0.3,-0.515
2021-08-19 19:31:01.844,0.375,-0.54
2021-08-19 19:31:01.848,0.42,-0.57
2021-08-19 19:31:01.852,0.44,-0.68
2021-08-19 19:31:01.856,0.49,-0.775
2021-08-19 19:31:01.860,0.66,-0.955
2021-08-19 19:31:01.864,0.965,-1.185
2021-08-19 19:31:01.868,1.275,-1.425
2021-08-19 19:31:01.872,1.435,-1.56
2021-08-19 19:31:01.876,1.32,-1.52
2021-08-19 19:31:01.880,0.92,-1.19
2021-08-19 19:31:01.884,0.435,-0.735
2021-08-19 19:31:01.888,0.14,-0.43
2021-08-19 19:31:01.892,0.02,-0.275
2021-08-19 19:31:01.896,-0.06,-0.14
2021-08-19 19:31:01.900,-0.065,-0.08
2021-08-19 19:31:01.904,-0.1,-0.055
2021-08-19 19:31:01.908,-0.115,-0.05
2021-08-19 19:31:01.912,-0.13,-0.06
2021-08-19 19:31:01.916,-0.155,-0.095
2021-08-19 19:31:01.920,-0.17,-0.115
2021-08-19 19:31:01.924,-0.185,-0.165
2021-08-19 19:31:01.928,-0.195,-0.18
2021-08-19 19:31:01.932,-0.215,-0.16
2021-08-19 19:31:01.936,-0.23,-0.17
2021-08-19 19:31:01.940,-0.23,-0.17
2021-08-19 19:31:01.944,-0.235,-0.185
2021-08-19 19:31:01.948,-0.235,-0.19
2021-08-19 19:31:01.952,-0.25,-0.195
2021-08-19 19:31:01.956,-0.245,-0.185
2021-08-19 19:31:01.960,-0.245,-0.175
2021-08-19 19:31:01.964,-0.25,-0.185
2021-08-19 19:31:01.968,-0.255,-0.195
2021-08-19 19:31:01.972,-0.26,-0.19
2021-08-19 19:31:01.976,-0.275,-0.2
2021-08-19 19:31:01.980,-0.275,-0.18
2021-08-19 19:31:01.984,-0.25,-0.16
2021-08-19 19:31:01.988,-0.255,-0.14
2021-08-19 19:31:01.992,-0.27,-0.135
2021-08-19 19:31:01.996,-0.265,-0.155
2021-08-19 19:31:02.000,-0.26,-0.135
2021-08-19 19:31:02.004,-0.275,-0.135
2021-08-19 19:31:02.008,-0.275,-0.095
2021-08-19 19:31:02.012,-0.27,-0.105
2021-08-19 19:31:02.016,-0.27,-0.105
2021-08-19 19:31:02.020,-0.3,-0.11
2021-08-19 19:31:02.024,-0.295,-0.11
2021-08-19 19:31:02.028,-0.28,-0.1
2021-08-19 19:31:02.032,-0.305,-0.085
2021-08-19 19:31:02.036,-0.29,-0.13
2021-08-19 19:31:02.040,-0.29,-0.085
2021-08-19 19:31:02.044,-0.305,-0.1
2021-08-19 19:31:02.048,-0.3,-0.095
2021-08-19 19:31:02.052,-0.315,-0.105
2021-08-19 19:31:02.056,-0.31,-0.125
2021-08-19 19:31:02.060,-0.265,-0.105
2021-08-19 19:31:02.064,-0.28,-0.12
2021-08-19 19:31:02.068,-0.285,-0.115
2021-08-19 19:31:02.072,-0.265,-0.13
2021-08-19 19:31:02.076,-0.265,-0.14
2021-08-19 19:31:02.080,-0.28,-0.125
2021-08-19 19:31:02.084,-0.28,-0.155
2021-08-19 19:31:02.088,-0.295,-0.155
2021-08-19 19:31:02.092,-0.29,-0.18
2021-08-19 19:31:02.096,-0.32,-0.16
2021-08-19 19:31:02.100,-0.295,-0.2
2021-08-19 19:31:02.104,-0.315,-0.2
2021-08-19 19:31:02.108,-0.32,-0.18
2021-08-19 19:31:02.112,-0.29,-0.205
2021-08-19 19:31:02.116,-0.285,-0.18
2021-08-19 19:31:02.120,-0.275,-0.23
2021-08-19 19:31:02.124,-0.27,-0.23
2021-08-19 19:31:02.128,-0.24,-0.245
2021-08-19 19:31:02.132,-0.23,-0.235
2021-08-19 19:31:02.136,-0.17,-0.22
2021-08-19 19:31:02.140,-0.145,-0.235
2021-08-19 19:31:02.144,-0.125,-0.205
2021-08-19 19:31:02.148,-0.08,-0.205
2021-08-19 19:31:02.152,-0.05,-0.19
2021-08-19 19:31:02.156,-0.02,-0.14
2021-08-19 19:31:02.160,0.015,-0.145
2021-08-19 19:31:02.164,0.03,-0.1
2021-08-19 19:31:02.168,0.025,-0.095
2021-08-19 19:31:02.172,0.005,-0.095
2021-08-19 19:31:02.176,-0.01,-0.1
2021-08-19 19:31:02.180,-0.03,-0.105
2021-08-19 19:31:02.184,-0.04,-0.13
2021-08-19 19:31:02.188,-0.04,-0.12
2021-08-19 19:31:02.192,-0.07,-0.115
2021-08-19 19:31:02.196,-0.06,-0.11
2021-08-19 19:31:02.200,-0.06,-0.105
2021-08-19 19:31:02.204,-0.075,-0.09
2021-08-19 19:31:02.208,-0.075,-0.105
2021-08-19 19:31:02.212,-0.075,-0.135
2021-08-19 19:31:02.216,-0.075,-0.115
2021-08-19 19:31:02.220,-0.07,-0.14
2021-08-19 19:31:02.224,-0.08,-0.13
2021-08-19 19:31:02.228,-0.095,-0.125
2021-08-19 19:31:02.232,-0.08,-0.135
2021-08-19 19:31:02.236,-0.09,-0.135
2021-08-19 19:31:02.240,-0.06,-0.145
2021-08-19 19:31:02.244,-0.02,-0.155
2021-08-19 19:31:02.248,0.015,-0.125
2021-08-19 19:31:02.252,0.09,-0.15
2021-08-19 19:31:02.256,0.185,-0.15
2021-08-19 19:31:02.260,0.23,-0.195
2021-08-19 19:31:02.264,0.235,-0.26
2021-08-19 19:31:02.268,0.26,-0.315
2021-08-19 19:31:02.272,0.29,-0.34
2021-08-19 19:31:02.276,0.28,-0.415
2021-08-19 19:31:02.280,0.285,-0.52
2021-08-19 19:31:02.284,0.335,-0.62
2021-08-19 19:31:02.288,0.53,-0.825
2021-08-19 19:31:02.292,0.82,-1.075
2021-08-19 19:31:02.296,1.11,-1.35
2021-08-19 19:31:02.300,1.26,-1.51
2021-08-19 19:31:02.304,1.19,-1.49
2021-08-19 19:31:02.308,0.79,-1.135
2021-08-19 19:31:02.312,0.315,-0.715
2021-08-19 19:31:02.316,0.01,-0.43
2021-08-19 19:31:02.320,-0.12,-0.235
2021-08-19 19:31:02.324,-0.185,-0.13
2021-08-19 19:31:02.328,-0.225,-0.075
2021-08-19 19:31:02.332,-0.25,-0.01
2021-08-19 19:31:02.336,-0.27,0.0
2021-08-19 19:31:02.340,-0.285,0.0
2021-08-19 19:31:02.344,-0.27,-0.015
2021-08-19 19:31:02.348,-0.28,-0.02
2021-08-19 19:31:02.352,-0.28,-0.025
2021-08-19 19:31:02.356,-0.275,-0.02
2021-08-19 19:31:02.360,-0.305,-0.035
2021-08-19 19:31:02.364,-0.295,-0.01
2021-08-19 19:31:02.368,-0.305,-0.01
2021-08-19 19:31:02.372,-0.32,-0.02
2021-08-19 19:31:02.376,-0.34,-0.015
2021-08-19 19:31:02.380,-0.36,-0.015
2021-08-19 19:31:02.384,-0.39,-0.015
2021-08-19 19:31:02.388,-0.42,0.0
2021-08-19 19:31:02.392,-0.45,-0.015
2021-08-19 19:31:02.396,-0.475,-0.015
2021-08-19 19:31:02.400,-0.5,-0.015
2021-08-19 19:31:02.404,-0.52,-0.02
2021-08-19 19:31:02.408,-0.525,-0.02
2021-08-19 19:31:02.412,-0.55,-0.045
2021-08-19 19:31:02.416,-0.54,-0.035
2021-08-19 19:31:02.420,-0.535,-0.045
2021-08-19 19:31:02.424,-0.505,-0.055
2021-08-19 19:31:02.428,-0.465,-0.075
2021-08-19 19:31:02.432,-0.445,-0.045
2021-08-19 19:31:02.436,-0.41,-0.055
2021-08-19 19:31:02.440,-0.385,-0.055
2021-08-19 19:31:02.444,-0.36,-0.03
2021-08-19 19:31:02.448,-0.315,-0.015
2021-08-19 19:31:02.452,-0.265,0.035
2021-08-19 19:31:02.456,-0.23,0.015
2021-08-19 19:31:02.460,-0.21,0.03
2021-08-19 19:31:02.464,-0.215,0.02
2021-08-19 19:31:02.468,-0.195,0.03
2021-08-19 19:31:02.472,-0.215,0.015
2021-08-19 19:31:02.476,-0.21,0.015
2021-08-19 19:31:02.480,-0.195,0.025
2021-08-19 19:31:02.484,-0.2,0.01
2021-08-19 19:31:02.488,-0.205,0.03
2021-08-19 19:31:02.492,-0.22,0.03
2021-08-19 19:31:02.496,-0.195,0.0
2021-08-19 19:31:02.500,-0.19,-0.005
2021-08-19 19:31:02.504,-0.2,-0.02
2021-08-19 19:31:02.508,-0.19,-0.015
2021-08-19 19:31:02.512,-0.185,-0.065
2021-08-19 19:31:02.516,-0.195,-0.085
2021-08-19 19:31:02.520,-0.17,-0.085
2021-08-19 19:31:02.524,-0.185,-0.115
2021-08-19 19:31:02.528,-0.175,-0.12
2021-08-19 19:31:02.532,-0.19,-0.12
2021-08-19 19:31:02.536,-0.19,-0.13
2021-08-19 19:31:02.540,-0.175,-0.14
2021-08-19 19:31:02.544,-0.18,-0.15
2021-08-19 19:31:02.548,-0.18,-0.15
2021-08-19 19:31:02.552,-0.165,-0.145
2021-08-19 19:31:02.556,-0.155,-0.155
2021-08-19 19:31:02.560,-0.16,-0.145
2021-08-19 19:31:02.564,-0.165,-0.165
2021-08-19 19:31:02.568,-0.17,-0.125
2021-08-19 19:31:02.572,-0.175,-0.135
2021-08-19 19:31:02.576,-0.18,-0.16
2021-08-19 19:31:02.580,-0.185,-0.14
2021-08-19 19:31:02.584,-0.175,-0.145
2021-08-19 19:31:02.588,-0.165,-0.16
2021-08-19 19:31:02.592,-0.18,-0.135
2021-08-19 19:31:02.596,-0.175,-0.14
2021-08-19 19:31:02.600,-0.2,-0.14
2021-08-19 19:31:02.604,-0.2,-0.115
2021-08-19 19:31:02.608,-0.22,-0.135
2021-08-19 19:31:02.612,-0.21,-0.13
2021-08-19 19:31:02.616,-0.2,-0.12
2021-08-19 19:31:02.620,-0.21,-0.11
2021-08-19 19:31:02.624,-0.19,-0.13
2021-08-19 19:31:02.628,-0.16,-0.125
2021-08-19 19:31:02.632,-0.125,-0.12
2021-08-19 19:31:02.636,-0.075,-0.175
2021-08-19 19:31:02.640,-0.03,-0.19
2021-08-19 19:31:02.644,-0.035,-0.235
2021-08-19 19:31:02.648,-0.03,-0.29
2021-08-19 19:31:02.652,-0.03,-0.335
2021-08-19 19:31:02.656,-0.05,-0.385
2021-08-19 19:31:02.660,-0.065,-0.475
2021-08-19 19:31:02.664,-0.005,-0.61
2021-08-19 19:31:02.668,0.18,-0.79
2021-08-19 19:31:02.672,0.485,-1.03
2021-08-19 19:31:02.676,0.795,-1.29
2021-08-19 19:31:02.680,1.005,-1.51
2021-08-19 19:31:02.684,0.995,-1.555
2021-08-19 19:31:02.688,0.655,-1.265
2021-08-19 19:31:02.692,0.25,-0.84
2021-08-19 19:31:02.696,-0.04,-0.465
2021-08-19 19:31:02.700,-0.16,-0.255
2021-08-19 19:31:02.704,-0.23,-0.12
2021-08-19 19:31:02.708,-0.185,-0.02
2021-08-19 19:31:02.712,-0.175,0.015
2021-08-19 19:31:02.716,-0.155,0.08
2021-08-19 19:31:02.720,-0.135,0.095
2021-08-19 19:31:02.724,-0.145,0.085
2021-08-19 19:31:02.728,-0.155,0.055
2021-08-19 19:31:02.732,-0.185,0.04
2021-08-19 19:31:02.736,-0.215,0.04
2021-08-19 19:31:02.740,-0.22,-0.005
2021-08-19 19:31:02.744,-0.22,0.025
2021-08-19 19:31:02.748,-0.25,0.01
2021-08-19 19:31:02.752,-0.245,0.01
2021-08-19 19:31:02.756,-0.245,0.005
2021-08-19 19:31:02.760,-0.26,-0.01
2021-08-19 19:31:02.764,-0.265,-0.015
2021-08-19 19:31:02.768,-0.28,-0.01
2021-08-19 19:31:02.772,-0.285,0.0
2021-08-19 19:31:02.776,-0.315,-0.025
2021-08-19 19:31:02.780,-0.31,-0.035
2021-08-19 19:31:02.784,-0.315,-0.035
2021-08-19 19:31:02.788,-0.345,-0.02
2021-08-19 19:31:02.792,-0.35,-0.03
2021-08-19 19:31:02.796,-0.35,-0.03
2021-08-19 19:31:02.800,-0.34,-0.015
2021-08-19 19:31:02.804,-0.365,-0.025
2021-08-19 19:31:02.808,-0.365,-0.03
2021-08-19 19:31:02.812,-0.375,-0.04
2021-08-19 19:31:02.816,-0.36,-0.05
2021-08-19 19:31:02.820,-0.375,-0.025
2021-08-19 19:31:02.824,-0.365,-0.02
2021-08-19 19:31:02.828,-0.34,-0.025
2021-08-19 19:31:02.832,-0.355,-0.025
2021-08-19 19:31:02.836,-0.365,-0.04
2021-08-19 19:31:02.840,-0.355,-0.005
2021-08-19 19:31:02.844,-0.355,0.0
2021-08-19 19:31:02.848,-0.36,-0.025
2021-08-19 19:31:02.852,-0.355,-0.01
2021-08-19 19:31:02.856,-0.345,-0.02
2021-08-19 19:31:02.860,-0.36,-0.03
2021-08-19 19:31:02.864,-0.365,-0.025
2021-08-19 19:31:02.868,-0.395,-0.06
2021-08-19 19:31:02.872,-0.395,-0.06
2021-08-19 19:31:02.876,-0.4,-0.07
2021-08-19 19:31:02.880,-0.405,-0.09
2021-08-19 19:31:02.884,-0.405,-0.095
2021-08-19 19:31:02.888,-0.425,-0.11
2021-08-19 19:31:02.892,-0.41,-0.12
2021-08-19 19:31:02.896,-0.41,-0.14
2021-08-19 19:31:02.900,-0.425,-0.16
2021-08-19 19:31:02.904,-0.415,-0.16
2021-08-19 19:31:02.908,-0.42,-0.16
2021-08-19 19:31:02.912,-0.41,-0.16
2021-08-19 19:31:02.916,-0.38,-0.175
2021-08-19 19:31:02.920,-0.35,-0.17
2021-08-19 19:31:02.924,-0.345,-0.19
2021-08-19 19:31:02.928,-0.335,-0.19
2021-08-19 19:31:02.932,-0.32,-0.205
2021-08-19 19:31:02.936,-0.29,-0.175
2021-08-19 19:31:02.940,-0.245,-0.17
2021-08-19 19:31:02.944,-0.19,-0.145
2021-08-19 19:31:02.948,-0.14,-0.13
2021-08-19 19:31:02.952,-0.12,-0.09
2021-08-19 19:31:02.956,-0.075,-0.065
2021-08-19 19:31:02.960,-0.055,-0.06
2021-08-19 19:31:02.964,-0.02,-0.02
2021-08-19 19:31:02.968,-0.02,-0.03
2021-08-19 19:31:02.972,-0.015,-0.045
2021-08-19 19:31:02.976,0.0,-0.065
2021-08-19 19:31:02.980,-0.005,-0.075
2021-08-19 19:31:02.984,-0.01,-0.09
2021-08-19 19:31:02.988,-0.04,-0.105
2021-08-19 19:31:02.992,-0.02,-0.115
2021-08-19 19:31:02.996,-0.05,-0.115
2021-08-19 19:31:03.000,-0.07,-0.135
2021-08-19 19:31:03.004,-0.095,-0.135
2021-08-19 19:31:03.008,-0.11,-0.12
2021-08-19 19:31:03.012,-0.09,-0.155
2021-08-19 19:31:03.016,-0.11,-0.145
2021-08-19 19:31:03.020,-0.105,-0.17
2021-08-19 19:31:03.024,-0.09,-0.18
2021-08-19 19:31:03.028,-0.07,-0.17
2021-08-19 19:31:03.032,-0.01,-0.185
2021-08-19 19:31:03.036,0.05,-0.185
2021-08-19 19:31:03.040,0.12,-0.205
2021-08-19 19:31:03.044,0.18,-0.22
2021-08-19 19:31:03.048,0.24,-0.265
2021-08-19 19:31:03.052,0.28,-0.34
2021-08-19 19:31:03.056,0.315,-0.365
2021-08-19 19:31:03.060,0.355,-0.395
2021-08-19 19:31:03.064,0.34,-0.475
2021-08-19 19:31:03.068,0.365,-0.55
2021-08-19 19:31:03.072,0.5,-0.685
2021-08-19 19:31:03.076,0.75,-0.885
2021-08-19 19:31:03.080,1.02,-1.12
2021-08-19 19:31:03.084,1.23,-1.32
2021-08-19 19:31:03.088,1.14,-1.38
2021-08-19 19:31:03.092,0.77,-1.19
2021-08-19 19:31:03.096,0.31,-0.81
2021-08-19 19:31:03.100,0.02,-0.51
2021-08-19 19:31:03.104,-0.13,-0.345
2021-08-19 19:31:03.108,-0.21,-0.23
2021-08-19 19:31:03.112,-0.24,-0.13
2021-08-19 19:31:03.116,-0.28,-0.065
2021-08-19 19:31:03.120,-0.34,-0.045
2021-08-19 19:31:03.124,-0.35,-0.045
2021-08-19 19:31:03.128,-0.4,-0.06
2021-08-19 19:31:03.132,-0.42,-0.06
2021-08-19 19:31:03.136,-0.455,-0.085
2021-08-19 19:31:03.140,-0.505,-0.08
2021-08-19 19:31:03.144,-0.485,-0.095
2021-08-19 19:31:03.148,-0.51,-0.105
2021-08-19 19:31:03.152,-0.54,-0.11
2021-08-19 19:31:03.156,-0.55,-0.115
2021-08-19 19:31:03.160,-0.555,-0.1
2021-08-19 19:31:03.164,-0.585,-0.105
2021-08-19 19:31:03.168,-0.58,-0.12
2021-08-19 19:31:03.172,-0.575,-0.115
2021-08-19 19:31:03.176,-0.565,-0.1
2021-08-19 19:31:03.180,-0.55,-0.105
2021-08-19 19:31:03.184,-0.535,-0.115
2021-08-19 19:31:03.188,-0.515,-0.105
2021-08-19 19:31:03.192,-0.44,-0.115
2021-08-19 19:31:03.196,-0.395,-0.085
2021-08-19 19:31:03.200,-0.37,-0.045
2021-08-19 19:31:03.204,-0.315,-0.025
2021-08-19 19:31:03.208,-0.27,-0.005
2021-08-19 19:31:03.212,-0.26,-0.01
2021-08-19 19:31:03.216,-0.245,0.01
2021-08-19 19:31:03.220,-0.22,0.02
2021-08-19 19:31:03.224,-0.22,0.02
2021-08-19 19:31:03.228,-0.225,-0.01
2021-08-19 19:31:03.232,-0.24,-0.01
2021-08-19 19:31:03.236,-0.265,0.005
2021-08-19 19:31:03.240,-0.26,-0.02
2021-08-19 19:31:03.244,-0.265,-0.03
2021-08-19 19:31:03.248,-0.28,-0.015
2021-08-19 19:31:03.252,-0.27,-0.045
2021-08-19 19:31:03.256,-0.255,-0.06
2021-08-19 19:31:03.260,-0.26,-0.065
2021-08-19 19:31:03.264,-0.265,-0.09
2021-08-19 19:31:03.268,-0.255,-0.1
2021-08-19 19:31:03.272,-0.26,-0.125
2021-08-19 19:31:03.276,-0.26,-0.115
2021-08-19 19:31:03.280,-0.27,-0.11
2021-08-19 19:31:03.284,-0.27,-0.14
2021-08-19 19:31:03.288,-0.26,-0.16
2021-08-19 19:31:03.292,-0.27,-0.17
2021-08-19 19:31:03.296,-0.255,-0.165
2021-08-19 19:31:03.300,-0.23,-0.195
2021-08-19 19:31:03.304,-0.235,-0.18
2021-08-19 19:31:03.308,-0.21,-0.175
2021-08-19 19:31:03.312,-0.21,-0.165
2021-08-19 19:31:03.316,-0.23,-0.16
2021-08-19 19:31:03.320,-0.215,-0.165
2021-08-19 19:31:03.324,-0.22,-0.16
2021-08-19 19:31:03.328,-0.22,-0.16
2021-08-19 19:31:03.332,-0.21,-0.175
2021-08-19 19:31:03.336,-0.205,-0.155
2021-08-19 19:31:03.340,-0.2,-0.17
2021-08-19 19:31:03.344,-0.205,-0.17
2021-08-19 19:31:03.348,-0.22,-0.16
2021-08-19 19:31:03.352,-0.235,-0.16
2021-08-19 19:31:03.356,-0.23,-0.185
2021-08-19 19:31:03.360,-0.255,-0.16
2021-08-19 19:31:03.364,-0.24,-0.17
2021-08-19 19:31:03.368,-0.275,-0.175
2021-08-19 19:31:03.372,-0.265,-0.18
2021-08-19 19:31:03.376,-0.285,-0.18
2021-08-19 19:31:03.380,-0.3,-0.195
2021-08-19 19:31:03.384,-0.32,-0.2
2021-08-19 19:31:03.388,-0.35,-0.18
2021-08-19 19:31:03.392,-0.375,-0.175
2021-08-19 19:31:03.396,-0.4,-0.185
2021-08-19 19:31:03.400,-0.42,-0.19
2021-08-19 19:31:03.404,-0.425,-0.175
2021-08-19 19:31:03.408,-0.44,-0.18
2021-08-19 19:31:03.412,-0.45,-0.165
2021-08-19 19:31:03.416,-0.48,-0.18
2021-08-19 19:31:03.420,-0.46,-0.2
2021-08-19 19:31:03.424,-0.445,-0.2
2021-08-19 19:31:03.428,-0.46,-0.19
2021-08-19 19:31:03.432,-0.45,-0.205
2021-08-19 19:31:03.436,-0.42,-0.2
2021-08-19 19:31:03.440,-0.41,-0.195
2021-08-19 19:31:03.444,-0.4,-0.175
2021-08-19 19:31:03.448,-0.34,-0.18
2021-08-19 19:31:03.452,-0.3,-0.16
2021-08-19 19:31:03.456,-0.26,-0.11
2021-08-19 19:31:03.460,-0.24,-0.115
2021-08-19 19:31:03.464,-0.205,-0.1
2021-08-19 19:31:03.468,-0.195,-0.08
2021-08-19 19:31:03.472,-0.175,-0.115
2021-08-19 19:31:03.476,-0.17,-0.09
2021-08-19 19:31:03.480,-0.155,-0.1
2021-08-19 19:31:03.484,-0.145,-0.095
2021-08-19 19:31:03.488,-0.155,-0.135
2021-08-19 19:31:03.492,-0.17,-0.12
2021-08-19 19:31:03.496,-0.16,-0.125
2021-08-19 19:31:03.500,-0.15,-0.155
2021-08-19 19:31:03.504,-0.15,-0.155
2021-08-19 19:31:03.508,-0.14,-0.17
2021-08-19 19:31:03.512,-0.075,-0.18
2021-08-19 19:31:03.516,-0.015,-0.185
2021-08-19 19:31:03.520,0.05,-0.195
2021-08-19 19:31:03.524,0.125,-0.24
2021-08-19 19:31:03.528,0.165,-0.29
2021-08-19 19:31:03.532,0.2,-0.345
2021-08-19 19:31:03.536,0.215,-0.375
2021-08-19 19:31:03.540,0.235,-0.435
2021-08-19 19:31:03.544,0.195,-0.54
2021-08-19 19:31:03.548,0.22,-0.66
2021-08-19 19:31:03.552,0.38,-0.825
2021-08-19 19:31:03.556,0.635,-1.07
2021-08-19 19:31:03.560,0.915,-1.285
2021-08-19 19:31:03.564,1.095,-1.505
2021-08-19 19:31:03.568,1.01,-1.545
2021-08-19 19:31:03.572,0.65,-1.355
2021-08-19 19:31:03.576,0.155,-0.93
2021-08-19 19:31:03.580,-0.14,-0.56
2021-08-19 19:31:03.584,-0.305,-0.355
2021-08-19 19:31:03.588,-0.38,-0.23
2021-08-19 19:31:03.592,-0.415,-0.135
2021-08-19 19:31:03.596,-0.46,-0.08
2021-08-19 19:31:03.600,-0.47,-0.04
2021-08-19 19:31:03.604,-0.48,-0.045
2021-08-19 19:31:03.608,-0.505,-0.015
2021-08-19 19:31:03.612,-0.54,-0.045
2021-08-19 19:31:03.616,-0.535,-0.065
2021-08-19 19:31:03.620,-0.53,-0.065
2021-08-19 19:31:03.624,-0.545,-0.04
2021-08-19 19:31:03.628,-0.555,-0.065
2021-08-19 19:31:03.632,-0.57,-0.06
2021-08-19 19:31:03.636,-0.6,-0.07
2021-08-19 19:31:03.640,-0.62,-0.055
2021-08-19 19:31:03.644,-0.635,-0.045
2021-08-19 19:31:03.648,-0.66,-0.04
2021-08-19 19:31:03.652,-0.65,-0.04
2021-08-19 19:31:03.656,-0.66,-0.04
2021-08-19 19:31:03.660,-0.67,-0.075
2021-08-19 19:31:03.664,-0.665,-0.07
2021-08-19 19:31:03.668,-0.67,-0.055
2021-08-19 19:31:03.672,-0.685,-0.05
2021-08-19 19:31:03.676,-0.695,-0.055
2021-08-19 19:31:03.680,-0.69,-0.04
2021-08-19 19:31:03.684,-0.69,-0.065
2021-08-19 19:31:03.688,-0.69,-0.035
2021-08-19 19:31:03.692,-0.69,-0.035
2021-08-19 19:31:03.696,-0.64,-0.01
2021-08-19 19:31:03.700,-0.605,0.0
2021-08-19 19:31:03.704,-0.57,0.0
2021-08-19 19:31:03.708,-0.52,0.015
2021-08-19 19:31:03.712,-0.5,0.045
2021-08-19 19:31:03.716,-0.46,0.05
2021-08-19 19:31:03.720,-0.455,0.05
2021-08-19 19:31:03.724,-0.44,0.08
2021-08-19 19:31:03.728,-0.42,0.07
2021-08-19 19:31:03.732,-0.41,0.06
2021-08-19 19:31:03.736,-0.4,0.045
2021-08-19 19:31:03.740,-0.395,0.015
2021-08-19 19:31:03.744,-0.4,0.02
2021-08-19 19:31:03.748,-0.385,0.015
2021-08-19 19:31:03.752,-0.36,0.01
2021-08-19 19:31:03.756,-0.37,0.005
2021-08-19 19:31:03.760,-0.385,-0.03
2021-08-19 19:31:03.764,-0.4,-0.02
2021-08-19 19:31:03.768,-0.38,-0.04
2021-08-19 19:31:03.772,-0.375,-0.065
2021-08-19 19:31:03.776,-0.355,-0.085
2021-08-19 19:31:03.780,-0.34,-0.07
2021-08-19 19:31:03.784,-0.355,-0.08
2021-08-19 19:31:03.788,-0.355,-0.075
2021-08-19 19:31:03.792,-0.35,-0.105
2021-08-19 19:31:03.796,-0.37,-0.08
2021-08-19 19:31:03.800,-0.365,-0.105
2021-08-19 19:31:03.804,-0.35,-0.1
2021-08-19 19:31:03.808,-0.37,-0.115
2021-08-19 19:31:03.812,-0.355,-0.08
2021-08-19 19:31:03.816,-0.365,-0.1
2021-08-19 19:31:03.820,-0.38,-0.08
2021-08-19 19:31:03.824,-0.37,-0.105
2021-08-19 19:31:03.828,-0.395,-0.105
2021-08-19 19:31:03.832,-0.4,-0.09
2021-08-19 19:31:03.836,-0.395,-0.09
2021-08-19 19:31:03.840,-0.395,-0.095
2021-08-19 19:31:03.844,-0.39,-0.105
2021-08-19 19:31:03.848,-0.39,-0.11
2021-08-19 19:31:03.852,-0.405,-0.095
2021-08-19 19:31:03.856,-0.415,-0.09
2021-08-19 19:31:03.860,-0.42,-0.09
2021-08-19 19:31:03.864,-0.425,-0.085
2021-08-19 19:31:03.868,-0.435,-0.08
2021-08-19 19:31:03.872,-0.455,-0.08
2021-08-19 19:31:03.876,-0.46,-0.06
2021-08-19 19:31:03.880,-0.475,-0.055
2021-08-19 19:31:03.884,-0.475,-0.045
2021-08-19 19:31:03.888,-0.505,-0.045
2021-08-19 19:31:03.892,-0.525,-0.045
2021-08-19 19:31:03.896,-0.54,-0.05
2021-08-19 19:31:03.900,-0.56,-0.03
2021-08-19 19:31:03.904,-0.575,-0.045
2021-08-19 19:31:03.908,-0.59,-0.04
2021-08-19 19:31:03.912,-0.59,-0.04
2021-08-19 19:31:03.916,-0.625,-0.015
2021-08-19 19:31:03.920,-0.64,-0.015
2021-08-19 19:31:03.924,-0.64,-0.035
2021-08-19 19:31:03.928,-0.655,-0.03
2021-08-19 19:31:03.932,-0.625,-0.045
2021-08-19 19:31:03.936,-0.64,-0.05
2021-08-19 19:31:03.940,-0.63,-0.045
2021-08-19 19:31:03.944,-0.61,-0.04
2021-08-19 19:31:03.948,-0.595,-0.06
2021-08-19 19:31:03.952,-0.545,-0.045
2021-08-19 19:31:03.956,-0.52,-0.025
2021-08-19 19:31:03.960,-0.485,-0.025
2021-08-19 19:31:03.964,-0.45,-0.01
2021-08-19 19:31:03.968,-0.44,0.02
2021-08-19 19:31:03.972,-0.4,0.02
2021-08-19 19:31:03.976,-0.385,0.025
2021-08-19 19:31:03.980,-0.355,0.015
2021-08-19 19:31:03.984,-0.34,0.045
2021-08-19 19:31:03.988,-0.33,0.02
2021-08-19 19:31:03.992,-0.34,0.015
2021-08-19 19:31:03.996,-0.36,0.0
2021-08-19 19:31:04.000,-0.36,0.015
2021-08-19 19:31:04.004,-0.37,0.005
2021-08-19 19:31:04.008,-0.34,-0.005
2021-08-19 19:31:04.012,-0.285,-0.01
2021-08-19 19:31:04.016,-0.195,-0.015
2021-08-19 19:31:04.020,-0.13,-0.04
2021-08-19 19:31:04.024,-0.065,-0.07
2021-08-19 19:31:04.028,-0.02,-0.115
2021-08-19 19:31:04.032,0.0,-0.195
2021-08-19 19:31:04.036,0.015,-0.225
2021-08-19 19:31:04.040,0.025,-0.24
2021-08-19 19:31:04.044,0.03,-0.315
2021-08-19 19:31:04.048,0.035,-0.45
2021-08-19 19:31:04.052,0.13,-0.595
2021-08-19 19:31:04.056,0.38,-0.8
2021-08-19 19:31:04.060,0.675,-1.055
2021-08-19 19:31:04.064,0.855,-1.275
2021-08-19 19:31:04.068,0.845,-1.385
2021-08-19 19:31:04.072,0.56,-1.265
2021-08-19 19:31:04.076,0.11,-0.89
2021-08-19 19:31:04.080,-0.255,-0.475
2021-08-19 19:31:04.084,-0.43,-0.235
2021-08-19 19:31:04.088,-0.52,-0.085
2021-08-19 19:31:04.092,-0.595,0.0
2021-08-19 19:31:04.096,-0.605,0.08
2021-08-19 19:31:04.100,-0.64,0.115
2021-08-19 19:31:04.104,-0.65,0.135
2021-08-19 19:31:04.108,-0.66,0.14
2021-08-19 19:31:04.112,-0.665,0.145
2021-08-19 19:31:04.116,-0.695,0.125
2021-08-19 19:31:04.120,-0.68,0.125
2021-08-19 19:31:04.124,-0.7,0.125
2021-08-19 19:31:04.128,-0.715,0.12
2021-08-19 19:31:04.132,-0.71,0.13
2021-08-19 19:31:04.136,-0.73,0.12
2021-08-19 19:31:04.140,-0.77,0.12
2021-08-19 19:31:04.144,-0.79,0.13
2021-08-19 19:31:04.148,-0.8,0.125
2021-08-19 19:31:04.152,-0.78,0.155
2021-08-19 19:31:04.156,-0.805,0.13
2021-08-19 19:31:04.160,-0.815,0.145
2021-08-19 19:31:04.164,-0.83,0.155
2021-08-19 19:31:04.168,-0.845,0.155
2021-08-19 19:31:04.172,-0.85,0.165
2021-08-19 19:31:04.176,-0.86,0.14
2021-08-19 19:31:04.180,-0.875,0.145
2021-08-19 19:31:04.184,-0.86,0.15
2021-08-19 19:31:04.188,-0.86,0.145
2021-08-19 19:31:04.192,-0.855,0.14
2021-08-19 19:31:04.196,-0.805,0.165
2021-08-19 19:31:04.200,-0.79,0.18
2021-08-19 19:31:04.204,-0.75,0.18
2021-08-19 19:31:04.208,-0.7,0.205
2021-08-19 19:31:04.212,-0.66,0.23
2021-08-19 19:31:04.216,-0.64,0.22
2021-08-19 19:31:04.220,-0.615,0.24
2021-08-19 19:31:04.224,-0.58,0.265
2021-08-19 19:31:04.228,-0.575,0.26
2021-08-19 19:31:04.232,-0.575,0.22
2021-08-19 19:31:04.236,-0.55,0.215
2021-08-19 19:31:04.240,-0.535,0.245
2021-08-19 19:31:04.244,-0.515,0.215
2021-08-19 19:31:04.248,-0.5,0.225
2021-08-19 19:31:04.252,-0.49,0.21
2021-08-19 19:31:04.256,-0.5,0.205
2021-08-19 19:31:04.260,-0.505,0.195
2021-08-19 19:31:04.264,-0.525,0.18
2021-08-19 19:31:04.268,-0.51,0.17
2021-08-19 19:31:04.272,-0.51,0.145
2021-08-19 19:31:04.276,-0.495,0.13
2021-08-19 19:31:04.280,-0.5,0.115
2021-08-19 19:31:04.284,-0.5,0.135
2021-08-19 19:31:04.288,-0.505,0.105
2021-08-19 19:31:04.292,-0.52,0.095
2021-08-19 19:31:04.296,-0.51,0.1
2021-08-19 19:31:04.300,-0.525,0.095
2021-08-19 19:31:04.304,-0.525,0.095
2021-08-19 19:31:04.308,-0.505,0.065
2021-08-19 19:31:04.312,-0.505,0.08
2021-08-19 19:31:04.316,-0.52,0.085
2021-08-19 19:31:04.320,-0.53,0.09
2021-08-19 19:31:04.324,-0.515,0.085
2021-08-19 19:31:04.328,-0.5,0.075
2021-08-19 19:31:04.332,-0.5,0.05
2021-08-19 19:31:04.336,-0.51,0.07
2021-08-19 19:31:04.340,-0.52,0.08
2021-08-19 19:31:04.344,-0.5,0.08
2021-08-19 19:31:04.348,-0.51,0.095
2021-08-19 19:31:04.352,-0.51,0.1
2021-08-19 19:31:04.356,-0.52,0.105
2021-08-19 19:31:04.360,-0.54,0.11
2021-08-19 19:31:04.364,-0.54,0.135
2021-08-19 19:31:04.368,-0.545,0.13
2021-08-19 19:31:04.372,-0.545,0.11
2021-08-19 19:31:04.376,-0.56,0.12
2021-08-19 19:31:04.380,-0.575,0.115
2021-08-19 19:31:04.384,-0.585,0.135
2021-08-19 19:31:04.388,-0.63,0.15
2021-08-19 19:31:04.392,-0.665,0.135
2021-08-19 19:31:04.396,-0.69,0.125
2021-08-19 19:31:04.400,-0.71,0.135
2021-08-19 19:31:04.404,-0.705,0.16
2021-08-19 19:31:04.408,-0.75,0.15
2021-08-19 19:31:04.412,-0.75,0.125
2021-08-19 19:31:04.416,-0.765,0.14
2021-08-19 19:31:04.420,-0.77,0.14
2021-08-19 19:31:04.424,-0.76,0.145
2021-08-19 19:31:04.428,-0.755,0.13
2021-08-19 19:31:04.432,-0.75,0.11
2021-08-19 19:31:04.436,-0.75,0.13
2021-08-19 19:31:04.440,-0.735,0.14
2021-08-19 19:31:04.444,-0.705,0.115
2021-08-19 19:31:04.448,-0.685,0.145
2021-08-19 19:31:04.452,-0.65,0.135
2021-08-19 19:31:04.456,-0.63,0.15
2021-08-19 19:31:04.460,-0.58,0.175
2021-08-19 19:31:04.464,-0.56,0.195
2021-08-19 19:31:04.468,-0.515,0.225
2021-08-19 19:31:04.472,-0.495,0.215
2021-08-19 19:31:04.476,-0.45,0.25
2021-08-19 19:31:04.480,-0.425,0.24
2021-08-19 19:31:04.484,-0.4,0.25
2021-08-19 19:31:04.488,-0.395,0.215
2021-08-19 19:31:04.492,-0.405,0.225
2021-08-19 19:31:04.496,-0.4,0.21
2021-08-19 19:31:04.500,-0.415,0.2
2021-08-19 19:31:04.504,-0.385,0.195
2021-08-19 19:31:04.508,-0.35,0.195
2021-08-19 19:31:04.512,-0.265,0.2
2021-08-19 19:31:04.516,-0.2,0.17
2021-08-19 19:31:04.520,-0.11,0.135
2021-08-19 19:31:04.524,-0.045,0.09
2021-08-19 19:31:04.528,-0.02,0.04
2021-08-19 19:31:04.532,0.005,-0.015
2021-08-19 19:31:04.536,0.01,-0.03
2021-08-19 19:31:04.540,0.0,-0.095
2021-08-19 19:31:04.544,-0.005,-0.21
2021-08-19 19:31:04.548,0.06,-0.34
2021-08-19 19:31:04.552,0.27,-0.54
2021-08-19 19:31:04.556,0.56,-0.81
2021-08-19 19:31:04.560,0.775,-1.06
2021-08-19 19:31:04.564,0.815,-1.23
2021-08-19 19:31:04.568,0.555,-1.225
2021-08-19 19:31:04.572,0.075,-0.89
2021-08-19 19:31:04.576,-0.315,-0.47
2021-08-19 19:31:04.580,-0.51,-0.16
2021-08-19 19:31:04.584,-0.58,0.01
2021-08-19 19:31:04.588,-0.635,0.115
2021-08-19 19:31:04.592,-0.635,0.2
2021-08-19 19:31:04.596,-0.675,0.255
2021-08-19 19:31:04.600,-0.675,0.275
2021-08-19 19:31:04.604,-0.675,0.285
2021-08-19 19:31:04.608,-0.715,0.3
2021-08-19 19:31:04.612,-0.735,0.285
2021-08-19 19:31:04.616,-0.73,0.275
2021-08-19 19:31:04.620,-0.745,0.265
2021-08-19 19:31:04.624,-0.765,0.265
2021-08-19 19:31:04.628,-0.775,0.27
2021-08-19 19:31:04.632,-0.8,0.255
2021-08-19 19:31:04.636,-0.805,0.265
2021-08-19 19:31:04.640,-0.83,0.26
2021-08-19 19:31:04.644,-0.83,0.24
2021-08-19 19:31:04.648,-0.86,0.23
2021-08-19 19:31:04.652,-0.885,0.235
2021-08-19 19:31:04.656,-0.915,0.23
2021-08-19 19:31:04.660,-0.93,0.23
2021-08-19 19:31:04.664,-0.935,0.225
2021-08-19 19:31:04.668,-0.935,0.2
2021-08-19 19:31:04.672,-0.915,0.22
2021-08-19 19:31:04.676,-0.925,0.21
2021-08-19 19:31:04.680,-0.895,0.21
2021-08-19 19:31:04.684,-0.9,0.215
2021-08-19 19:31:04.688,-0.885,0.205
