Time,ECG1,ECG2
2021-08-19 01:32:55.000,0.175,0.995
2021-08-19 01:32:55.000,0.155,1.095
2021-08-19 01:32:55.000,0.105,1.15
2021-08-19 01:32:55.000,0.07,1.105
2021-08-19 01:32:56.000,0.01,0.93
2021-08-19 01:32:56.000,-0.06,0.59
2021-08-19 01:32:56.000,-0.24,0.24
2021-08-19 01:32:56.000,-0.52,0.08
2021-08-19 01:32:57.000,-0.87,0.2
2021-08-19 01:32:57.000,-1.175,0.335
2021-08-19 01:32:57.000,-1.355,0.255
2021-08-19 01:32:57.000,-1.41,-0.005
2021-08-19 01:32:58.000,-1.36,-0.275
2021-08-19 01:32:58.000,-1.08,-0.465
2021-08-19 01:32:58.000,-0.655,-0.55
2021-08-19 01:32:58.000,-0.24,-0.57
2021-08-19 01:32:59.000,-0.045,-0.48
2021-08-19 01:32:59.000,-0.005,-0.36
2021-08-19 01:32:59.000,-0.035,-0.295
2021-08-19 01:32:59.000,-0.04,-0.27
2021-08-19 01:33:00.000,-0.05,-0.275
2021-08-19 01:33:00.000,-0.05,-0.265
2021-08-19 01:33:00.000,0.03,-0.3
2021-08-19 01:33:00.000,0.045,-0.27
2021-08-19 01:33:00.000,0.12,-0.27
2021-08-19 01:33:01.000,0.15,-0.285
2021-08-19 01:33:01.000,0.155,-0.29
2021-08-19 01:33:01.000,0.18,-0.28
2021-08-19 01:33:01.000,0.195,-0.28
2021-08-19 01:33:02.000,0.18,-0.28
2021-08-19 01:33:02.000,0.185,-0.28
2021-08-19 01:33:02.000,0.2,-0.29
2021-08-19 01:33:02.000,0.205,-0.29
2021-08-19 01:33:03.000,0.205,-0.285
2021-08-19 01:33:03.000,0.195,-0.275
2021-08-19 01:33:03.000,0.21,-0.275
2021-08-19 01:33:03.000,0.2,-0.275
2021-08-19 01:33:04.000,0.195,-0.275
2021-08-19 01:33:04.000,0.21,-0.255
2021-08-19 01:33:04.000,0.2,-0.255
2021-08-19 01:33:04.000,0.195,-0.265
2021-08-19 01:33:05.000,0.215,-0.265
2021-08-19 01:33:05.000,0.21,-0.27
2021-08-19 01:33:05.000,0.215,-0.27
2021-08-19 01:33:05.000,0.195,-0.28
2021-08-19 01:33:06.000,0.21,-0.28
2021-08-19 01:33:06.000,0.225,-0.28
2021-08-19 01:33:06.000,0.205,-0.3
2021-08-19 01:33:06.000,0.21,-0.275
2021-08-19 01:33:06.000,0.215,-0.29
2021-08-19 01:33:07.000,0.205,-0.3
2021-08-19 01:33:07.000,0.205,-0.305
2021-08-19 01:33:07.000,0.18,-0.3
2021-08-19 01:33:07.000,0.205,-0.305
2021-08-19 01:33:08.000,0.205,-0.3
2021-08-19 01:33:08.000,0.195,-0.32
2021-08-19 01:33:08.000,0.19,-0.325
2021-08-19 01:33:08.000,0.19,-0.32
2021-08-19 01:33:09.000,0.185,-0.32
2021-08-19 01:33:09.000,0.2,-0.32
2021-08-19 01:33:09.000,0.2,-0.3
2021-08-19 01:33:09.000,0.185,-0.32
2021-08-19 01:33:10.000,0.19,-0.315
2021-08-19 01:33:10.000,0.185,-0.3
2021-08-19 01:33:10.000,0.18,-0.3
2021-08-19 01:33:10.000,0.175,-0.3
2021-08-19 01:33:11.000,0.175,-0.295
2021-08-19 01:33:11.000,0.165,-0.29
2021-08-19 01:33:11.000,0.18,-0.28
2021-08-19 01:33:11.000,0.195,-0.265
2021-08-19 01:33:12.000,0.175,-0.265
2021-08-19 01:33:12.000,0.17,-0.255
2021-08-19 01:33:12.000,0.17,-0.24
2021-08-19 01:33:12.000,0.155,-0.21
2021-08-19 01:33:12.000,0.155,-0.2
2021-08-19 01:33:13.000,0.145,-0.18
2021-08-19 01:33:13.000,0.135,-0.16
2021-08-19 01:33:13.000,0.125,-0.14
2021-08-19 01:33:13.000,0.13,-0.155
2021-08-19 01:33:14.000,0.11,-0.13
2021-08-19 01:33:14.000,0.1,-0.14
2021-08-19 01:33:14.000,0.1,-0.125
2021-08-19 01:33:14.000,0.09,-0.12
2021-08-19 01:33:15.000,0.08,-0.12
2021-08-19 01:33:15.000,0.085,-0.115
2021-08-19 01:33:15.000,0.08,-0.12
2021-08-19 01:33:15.000,0.07,-0.115
2021-08-19 01:33:16.000,0.1,-0.11
2021-08-19 01:33:16.000,0.075,-0.095
2021-08-19 01:33:16.000,0.07,-0.12
2021-08-19 01:33:16.000,0.065,-0.125
2021-08-19 01:33:17.000,0.09,-0.115
2021-08-19 01:33:17.000,0.095,-0.12
2021-08-19 01:33:17.000,0.075,-0.125
2021-08-19 01:33:17.000,0.075,-0.14
2021-08-19 01:33:18.000,0.09,-0.14
2021-08-19 01:33:18.000,0.1,-0.13
2021-08-19 01:33:18.000,0.1,-0.145
2021-08-19 01:33:18.000,0.085,-0.145
2021-08-19 01:33:18.000,0.095,-0.145
2021-08-19 01:33:19.000,0.1,-0.15
2021-08-19 01:33:19.000,0.08,-0.135
2021-08-19 01:33:19.000,0.09,-0.17
2021-08-19 01:33:19.000,0.095,-0.17
2021-08-19 01:33:20.000,0.11,-0.16
2021-08-19 01:33:20.000,0.11,-0.15
2021-08-19 01:33:20.000,0.115,-0.18
2021-08-19 01:33:20.000,0.1,-0.17
2021-08-19 01:33:21.000,0.095,-0.16
2021-08-19 01:33:21.000,0.11,-0.195
2021-08-19 01:33:21.000,0.08,-0.18
2021-08-19 01:33:21.000,0.085,-0.16
2021-08-19 01:33:22.000,0.105,-0.175
2021-08-19 01:33:22.000,0.095,-0.17
2021-08-19 01:33:22.000,0.1,-0.18
2021-08-19 01:33:22.000,0.11,-0.18
2021-08-19 01:33:23.000,0.115,-0.16
2021-08-19 01:33:23.000,0.12,-0.18
2021-08-19 01:33:23.000,0.115,-0.18
2021-08-19 01:33:23.000,0.09,-0.17
2021-08-19 01:33:24.000,0.095,-0.185
2021-08-19 01:33:24.000,0.095,-0.165
2021-08-19 01:33:24.000,0.095,-0.165
2021-08-19 01:33:24.000,0.095,-0.175
2021-08-19 01:33:24.000,0.105,-0.175
2021-08-19 01:33:25.000,0.11,-0.185
2021-08-19 01:33:25.000,0.09,-0.18
2021-08-19 01:33:25.000,0.085,-0.18
2021-08-19 01:33:25.000,0.085,-0.16
2021-08-19 01:33:26.000,0.11,-0.18
2021-08-19 01:33:26.000,0.11,-0.185
2021-08-19 01:33:26.000,0.095,-0.17
2021-08-19 01:33:26.000,0.095,-0.175
2021-08-19 01:33:27.000,0.065,-0.195
2021-08-19 01:33:27.000,0.085,-0.165
2021-08-19 01:33:27.000,0.085,-0.175
2021-08-19 01:33:27.000,0.105,-0.17
2021-08-19 01:33:28.000,0.085,-0.185
2021-08-19 01:33:28.000,0.08,-0.175
2021-08-19 01:33:28.000,0.08,-0.165
2021-08-19 01:33:28.000,0.09,-0.185
2021-08-19 01:33:29.000,0.075,-0.175
2021-08-19 01:33:29.000,0.07,-0.155
2021-08-19 01:33:29.000,0.075,-0.16
2021-08-19 01:33:29.000,0.06,-0.16
2021-08-19 01:33:30.000,0.045,-0.175
2021-08-19 01:33:30.000,0.07,-0.15
2021-08-19 01:33:30.000,0.1,-0.18
2021-08-19 01:33:30.000,0.09,-0.175
2021-08-19 01:33:30.000,0.07,-0.175
2021-08-19 01:33:31.000,0.07,-0.185
2021-08-19 01:33:31.000,0.07,-0.165
2021-08-19 01:33:31.000,0.08,-0.15
2021-08-19 01:33:31.000,0.095,-0.165
2021-08-19 01:33:32.000,0.095,-0.175
2021-08-19 01:33:32.000,0.085,-0.17
2021-08-19 01:33:32.000,0.07,-0.15
2021-08-19 01:33:32.000,0.08,-0.155
2021-08-19 01:33:33.000,0.09,-0.15
2021-08-19 01:33:33.000,0.08,-0.16
2021-08-19 01:33:33.000,0.085,-0.15
2021-08-19 01:33:33.000,0.105,-0.16
2021-08-19 01:33:34.000,0.08,-0.165
2021-08-19 01:33:34.000,0.075,-0.165
2021-08-19 01:33:34.000,0.085,-0.15
2021-08-19 01:33:34.000,0.09,-0.12
2021-08-19 01:33:35.000,0.08,-0.11
2021-08-19 01:33:35.000,0.075,-0.06
2021-08-19 01:33:35.000,0.07,-0.035
2021-08-19 01:33:35.000,0.085,0.0
2021-08-19 01:33:36.000,0.08,-0.005
2021-08-19 01:33:36.000,0.105,-0.01
2021-08-19 01:33:36.000,0.12,0.0
2021-08-19 01:33:36.000,0.165,0.02
2021-08-19 01:33:36.000,0.165,-0.005
2021-08-19 01:33:37.000,0.17,0.0
2021-08-19 01:33:37.000,0.195,-0.005
2021-08-19 01:33:37.000,0.18,0.0
2021-08-19 01:33:37.000,0.185,0.0
2021-08-19 01:33:38.000,0.18,0.01
2021-08-19 01:33:38.000,0.135,-0.015
2021-08-19 01:33:38.000,0.12,-0.04
2021-08-19 01:33:38.000,0.11,-0.095
2021-08-19 01:33:39.000,0.045,-0.105
2021-08-19 01:33:39.000,0.03,-0.13
2021-08-19 01:33:39.000,0.015,-0.11
2021-08-19 01:33:39.000,0.0,-0.095
2021-08-19 01:33:40.000,-0.005,-0.11
2021-08-19 01:33:40.000,-0.005,-0.105
2021-08-19 01:33:40.000,-0.015,-0.13
2021-08-19 01:33:40.000,-0.005,-0.105
2021-08-19 01:33:41.000,-0.015,-0.12
2021-08-19 01:33:41.000,0.0,-0.13
2021-08-19 01:33:41.000,0.0,-0.135
2021-08-19 01:33:41.000,0.01,-0.165
2021-08-19 01:33:42.000,0.025,-0.18
2021-08-19 01:33:42.000,0.005,-0.195
2021-08-19 01:33:42.000,0.005,-0.195
2021-08-19 01:33:42.000,0.035,-0.195
2021-08-19 01:33:42.000,0.085,-0.19
2021-08-19 01:33:43.000,0.1,-0.19
2021-08-19 01:33:43.000,0.085,-0.175
2021-08-19 01:33:43.000,0.08,-0.18
2021-08-19 01:33:43.000,0.045,-0.175
2021-08-19 01:33:44.000,0.05,-0.17
2021-08-19 01:33:44.000,0.055,-0.18
2021-08-19 01:33:44.000,0.07,-0.19
2021-08-19 01:33:44.000,0.065,-0.185
2021-08-19 01:33:45.000,0.07,-0.195
2021-08-19 01:33:45.000,0.05,-0.17
2021-08-19 01:33:45.000,0.06,-0.16
2021-08-19 01:33:45.000,0.045,-0.16
2021-08-19 01:33:46.000,0.015,-0.17
2021-08-19 01:33:46.000,0.04,-0.11
2021-08-19 01:33:46.000,0.025,-0.07
2021-08-19 01:33:46.000,0.045,-0.055
2021-08-19 01:32:54.268,-0.015,-0.435
2021-08-19 01:32:54.272,-0.03,-0.445
2021-08-19 01:32:54.276,-0.025,-0.435
2021-08-19 01:32:54.280,-0.005,-0.45
2021-08-19 01:32:54.284,-0.03,-0.45
2021-08-19 01:32:54.288,-0.035,-0.42
2021-08-19 01:32:54.292,-0.01,-0.42
2021-08-19 01:32:54.296,-0.005,-0.405
2021-08-19 01:32:54.300,-0.02,-0.41
2021-08-19 01:32:54.304,-0.015,-0.385
2021-08-19 01:32:54.308,-0.03,-0.375
2021-08-19 01:32:54.312,-0.025,-0.36
2021-08-19 01:32:54.316,-0.005,-0.36
2021-08-19 01:32:54.320,-0.035,-0.32
2021-08-19 01:32:54.324,-0.015,-0.305
2021-08-19 01:32:54.328,-0.005,-0.265
2021-08-19 01:32:54.332,0.0,-0.235
2021-08-19 01:32:54.336,0.0,-0.225
2021-08-19 01:32:54.340,-0.01,-0.185
2021-08-19 01:32:54.344,-0.005,-0.18
2021-08-19 01:32:54.348,0.005,-0.155
2021-08-19 01:32:54.352,0.045,-0.15
2021-08-19 01:32:54.356,0.06,-0.13
2021-08-19 01:32:54.360,0.095,-0.13
2021-08-19 01:32:54.364,0.09,-0.12
2021-08-19 01:32:54.368,0.085,-0.12
2021-08-19 01:32:54.372,0.125,-0.095
2021-08-19 01:32:54.376,0.12,-0.105
2021-08-19 01:32:54.380,0.135,-0.105
2021-08-19 01:32:54.384,0.13,-0.1
2021-08-19 01:32:54.388,0.14,-0.1
2021-08-19 01:32:54.392,0.135,-0.09
2021-08-19 01:32:54.396,0.15,-0.105
2021-08-19 01:32:54.400,0.13,-0.13
2021-08-19 01:32:54.404,0.155,-0.15
2021-08-19 01:32:54.408,0.175,-0.165
2021-08-19 01:32:54.412,0.2,-0.175
2021-08-19 01:32:54.416,0.25,-0.2
2021-08-19 01:32:54.420,0.275,-0.17
2021-08-19 01:32:54.424,0.265,-0.195
2021-08-19 01:32:54.428,0.265,-0.2
2021-08-19 01:32:54.432,0.275,-0.215
2021-08-19 01:32:54.436,0.255,-0.22
2021-08-19 01:32:54.440,0.185,-0.23
2021-08-19 01:32:54.444,0.175,-0.25
2021-08-19 01:32:54.448,0.13,-0.26
2021-08-19 01:32:54.452,0.085,-0.26
2021-08-19 01:32:54.456,0.035,-0.27
2021-08-19 01:32:54.460,0.05,-0.275
2021-08-19 01:32:54.464,0.03,-0.28
2021-08-19 01:32:54.468,0.055,-0.295
2021-08-19 01:32:54.472,0.05,-0.305
2021-08-19 01:32:54.476,0.07,-0.315
2021-08-19 01:32:54.480,0.065,-0.32
2021-08-19 01:32:54.484,0.06,-0.35
2021-08-19 01:32:54.488,0.07,-0.35
2021-08-19 01:32:54.492,0.055,-0.35
2021-08-19 01:32:54.496,0.07,-0.355
2021-08-19 01:32:54.500,0.045,-0.345
2021-08-19 01:32:54.504,0.06,-0.355
2021-08-19 01:32:54.508,0.08,-0.36
2021-08-19 01:32:54.512,0.075,-0.34
2021-08-19 01:32:54.516,0.075,-0.365
2021-08-19 01:32:54.520,0.065,-0.345
2021-08-19 01:32:54.524,0.085,-0.335
2021-08-19 01:32:54.528,0.08,-0.305
2021-08-19 01:32:54.532,0.085,-0.32
2021-08-19 01:32:54.536,0.075,-0.305
2021-08-19 01:32:54.540,0.09,-0.305
2021-08-19 01:32:54.544,0.075,-0.285
2021-08-19 01:32:54.548,0.09,-0.29
2021-08-19 01:32:54.552,0.065,-0.265
2021-08-19 01:32:54.556,0.08,-0.275
2021-08-19 01:32:54.560,0.095,-0.275
2021-08-19 01:32:54.564,0.1,-0.295
2021-08-19 01:32:54.568,0.085,-0.285
2021-08-19 01:32:54.572,0.11,-0.3
2021-08-19 01:32:54.576,0.125,-0.285
2021-08-19 01:32:54.580,0.115,-0.26
2021-08-19 01:32:54.584,0.155,-0.27
2021-08-19 01:32:54.588,0.125,-0.275
2021-08-19 01:32:54.592,0.125,-0.265
2021-08-19 01:32:54.596,0.13,-0.265
2021-08-19 01:32:54.600,0.11,-0.265
2021-08-19 01:32:54.604,0.115,-0.275
2021-08-19 01:32:54.608,0.14,-0.28
2021-08-19 01:32:54.612,0.15,-0.28
2021-08-19 01:32:54.616,0.17,-0.295
2021-08-19 01:32:54.620,0.19,-0.31
2021-08-19 01:32:54.624,0.215,-0.32
2021-08-19 01:32:54.628,0.26,-0.34
2021-08-19 01:32:54.632,0.27,-0.35
2021-08-19 01:32:54.636,0.27,-0.365
2021-08-19 01:32:54.640,0.25,-0.37
2021-08-19 01:32:54.644,0.24,-0.36
2021-08-19 01:32:54.648,0.19,-0.39
2021-08-19 01:32:54.652,0.155,-0.38
2021-08-19 01:32:54.656,0.115,-0.405
2021-08-19 01:32:54.660,0.09,-0.42
2021-08-19 01:32:54.664,0.07,-0.435
2021-08-19 01:32:54.668,0.08,-0.43
2021-08-19 01:32:54.672,0.075,-0.48
2021-08-19 01:32:54.676,0.095,-0.455
2021-08-19 01:32:54.680,0.085,-0.455
2021-08-19 01:32:54.684,0.085,-0.46
2021-08-19 01:32:54.688,0.07,-0.465
2021-08-19 01:32:54.692,0.085,-0.46
2021-08-19 01:32:54.696,0.08,-0.46
2021-08-19 01:32:54.700,0.095,-0.45
2021-08-19 01:32:54.704,0.1,-0.46
2021-08-19 01:32:54.708,0.095,-0.465
2021-08-19 01:32:54.712,0.07,-0.475
2021-08-19 01:32:54.716,0.09,-0.48
2021-08-19 01:32:54.720,0.095,-0.475
2021-08-19 01:32:54.724,0.115,-0.465
2021-08-19 01:32:54.728,0.115,-0.49
2021-08-19 01:32:54.732,0.115,-0.465
2021-08-19 01:32:54.736,0.12,-0.46
2021-08-19 01:32:54.740,0.115,-0.475
2021-08-19 01:32:54.744,0.115,-0.435
2021-08-19 01:32:54.748,0.115,-0.425
2021-08-19 01:32:54.752,0.12,-0.41
2021-08-19 01:32:54.756,0.12,-0.365
2021-08-19 01:32:54.760,0.135,-0.37
2021-08-19 01:32:54.764,0.12,-0.34
2021-08-19 01:32:54.768,0.155,-0.32
2021-08-19 01:32:54.772,0.17,-0.315
2021-08-19 01:32:54.776,0.155,-0.275
2021-08-19 01:32:54.780,0.155,-0.215
2021-08-19 01:32:54.784,0.175,-0.18
2021-08-19 01:32:54.788,0.185,-0.19
2021-08-19 01:32:54.792,0.19,-0.135
2021-08-19 01:32:54.796,0.19,0.035
2021-08-19 01:32:54.800,0.22,0.31
2021-08-19 01:32:54.804,0.22,0.585
2021-08-19 01:32:54.808,0.25,0.81
2021-08-19 01:32:54.812,0.22,0.95
2021-08-19 01:32:54.816,0.2,1.0
2021-08-19 01:32:54.820,0.14,0.995
2021-08-19 01:32:54.824,0.115,0.84
2021-08-19 01:32:54.828,0.075,0.5
2021-08-19 01:32:54.832,-0.025,0.09
2021-08-19 01:32:54.836,-0.22,-0.025
2021-08-19 01:32:54.840,-0.505,0.085
2021-08-19 01:32:54.844,-0.78,0.23
2021-08-19 01:32:54.848,-0.995,0.09
2021-08-19 01:32:54.852,-1.075,-0.255
2021-08-19 01:32:54.856,-1.105,-0.575
2021-08-19 01:32:54.860,-0.915,-0.795
2021-08-19 01:32:54.864,-0.54,-0.89
2021-08-19 01:32:54.868,-0.185,-0.91
2021-08-19 01:32:54.872,-0.015,-0.785
2021-08-19 01:32:54.876,0.01,-0.68
2021-08-19 01:32:54.880,0.0,-0.62
2021-08-19 01:32:54.884,-0.02,-0.61
2021-08-19 01:32:54.888,-0.05,-0.605
2021-08-19 01:32:54.892,-0.06,-0.64
2021-08-19 01:32:54.896,0.0,-0.65
2021-08-19 01:32:54.900,0.075,-0.65
2021-08-19 01:32:54.904,0.11,-0.655
2021-08-19 01:32:54.908,0.165,-0.635
2021-08-19 01:32:54.912,0.185,-0.665
2021-08-19 01:32:54.916,0.185,-0.67
2021-08-19 01:32:54.920,0.2,-0.655
2021-08-19 01:32:54.924,0.2,-0.655
2021-08-19 01:32:54.928,0.185,-0.665
2021-08-19 01:32:54.932,0.22,-0.665
2021-08-19 01:32:54.936,0.22,-0.66
2021-08-19 01:32:54.940,0.21,-0.665
2021-08-19 01:32:54.944,0.215,-0.66
2021-08-19 01:32:54.948,0.205,-0.655
2021-08-19 01:32:54.952,0.23,-0.655
2021-08-19 01:32:54.956,0.22,-0.65
2021-08-19 01:32:54.960,0.235,-0.64
2021-08-19 01:32:54.964,0.225,-0.6
2021-08-19 01:32:54.968,0.2,-0.605
2021-08-19 01:32:54.972,0.24,-0.585
2021-08-19 01:32:54.976,0.24,-0.6
2021-08-19 01:32:54.980,0.245,-0.585
2021-08-19 01:32:54.984,0.265,-0.58
2021-08-19 01:32:54.988,0.265,-0.57
2021-08-19 01:32:54.992,0.265,-0.59
2021-08-19 01:32:54.996,0.29,-0.57
2021-08-19 01:32:55.000,0.285,-0.57
2021-08-19 01:32:55.004,0.295,-0.56
2021-08-19 01:32:55.008,0.315,-0.58
2021-08-19 01:32:55.012,0.31,-0.565
2021-08-19 01:32:55.016,0.32,-0.56
2021-08-19 01:32:55.020,0.31,-0.555
2021-08-19 01:32:55.024,0.31,-0.56
2021-08-19 01:32:55.028,0.315,-0.55
2021-08-19 01:32:55.032,0.295,-0.545
2021-08-19 01:32:55.036,0.275,-0.53
2021-08-19 01:32:55.040,0.295,-0.515
2021-08-19 01:32:55.044,0.285,-0.555
2021-08-19 01:32:55.048,0.31,-0.54
2021-08-19 01:32:55.052,0.305,-0.58
2021-08-19 01:32:55.056,0.33,-0.61
2021-08-19 01:32:55.060,0.39,-0.595
2021-08-19 01:32:55.064,0.415,-0.595
2021-08-19 01:32:55.068,0.415,-0.61
2021-08-19 01:32:55.072,0.42,-0.595
2021-08-19 01:32:55.076,0.41,-0.615
2021-08-19 01:32:55.080,0.37,-0.61
2021-08-19 01:32:55.084,0.385,-0.62
2021-08-19 01:32:55.088,0.32,-0.595
2021-08-19 01:32:55.092,0.29,-0.655
2021-08-19 01:32:55.096,0.235,-0.62
2021-08-19 01:32:55.100,0.21,-0.605
2021-08-19 01:32:55.104,0.185,-0.59
2021-08-19 01:32:55.108,0.175,-0.57
2021-08-19 01:32:55.112,0.165,-0.545
2021-08-19 01:32:55.116,0.165,-0.56
2021-08-19 01:32:55.120,0.18,-0.545
2021-08-19 01:32:55.124,0.175,-0.52
2021-08-19 01:32:55.128,0.175,-0.51
2021-08-19 01:32:55.132,0.175,-0.51
2021-08-19 01:32:55.136,0.19,-0.505
2021-08-19 01:32:55.140,0.175,-0.5
2021-08-19 01:32:55.144,0.155,-0.505
2021-08-19 01:32:55.148,0.155,-0.49
2021-08-19 01:32:55.152,0.175,-0.48
2021-08-19 01:32:55.156,0.165,-0.52
2021-08-19 01:32:55.160,0.15,-0.485
2021-08-19 01:32:55.164,0.15,-0.47
2021-08-19 01:32:55.168,0.135,-0.475
2021-08-19 01:32:55.172,0.16,-0.455
2021-08-19 01:32:55.176,0.16,-0.445
2021-08-19 01:32:55.180,0.165,-0.42
2021-08-19 01:32:55.184,0.17,-0.4
2021-08-19 01:32:55.188,0.165,-0.4
2021-08-19 01:32:55.192,0.18,-0.36
2021-08-19 01:32:55.196,0.195,-0.36
2021-08-19 01:32:55.200,0.19,-0.335
2021-08-19 01:32:55.204,0.23,-0.325
2021-08-19 01:32:55.208,0.23,-0.33
2021-08-19 01:32:55.212,0.24,-0.34
2021-08-19 01:32:55.216,0.27,-0.34
2021-08-19 01:32:55.220,0.28,-0.355
2021-08-19 01:32:55.224,0.3,-0.34
2021-08-19 01:32:55.228,0.29,-0.345
2021-08-19 01:32:55.232,0.285,-0.36
2021-08-19 01:32:55.236,0.285,-0.355
2021-08-19 01:32:55.240,0.285,-0.365
2021-08-19 01:32:55.244,0.295,-0.345
2021-08-19 01:32:55.248,0.275,-0.355
2021-08-19 01:32:55.252,0.255,-0.365
2021-08-19 01:32:55.256,0.275,-0.385
2021-08-19 01:32:55.260,0.28,-0.385
2021-08-19 01:32:55.264,0.28,-0.405
2021-08-19 01:32:55.268,0.34,-0.425
2021-08-19 01:32:55.272,0.34,-0.435
2021-08-19 01:32:55.276,0.355,-0.475
2021-08-19 01:32:55.280,0.375,-0.46
2021-08-19 01:32:55.284,0.39,-0.47
2021-08-19 01:32:55.288,0.41,-0.46
2021-08-19 01:32:55.292,0.38,-0.475
2021-08-19 01:32:55.296,0.365,-0.48
2021-08-19 01:32:55.300,0.34,-0.505
2021-08-19 01:32:55.304,0.305,-0.51
2021-08-19 01:32:55.308,0.255,-0.51
2021-08-19 01:32:55.312,0.19,-0.53
2021-08-19 01:32:55.316,0.165,-0.52
2021-08-19 01:32:55.320,0.15,-0.55
2021-08-19 01:32:55.324,0.12,-0.54
2021-08-19 01:32:55.328,0.14,-0.555
2021-08-19 01:32:55.332,0.13,-0.555
2021-08-19 01:32:55.336,0.115,-0.565
2021-08-19 01:32:55.340,0.12,-0.56
2021-08-19 01:32:55.344,0.125,-0.58
2021-08-19 01:32:55.348,0.13,-0.575
2021-08-19 01:32:55.352,0.125,-0.58
2021-08-19 01:32:55.356,0.14,-0.565
2021-08-19 01:32:55.360,0.15,-0.575
2021-08-19 01:32:55.364,0.11,-0.565
2021-08-19 01:32:55.368,0.135,-0.55
2021-08-19 01:32:55.372,0.115,-0.565
2021-08-19 01:32:55.376,0.13,-0.57
2021-08-19 01:32:55.380,0.11,-0.565
2021-08-19 01:32:55.384,0.11,-0.54
2021-08-19 01:32:55.388,0.125,-0.54
2021-08-19 01:32:55.392,0.135,-0.53
2021-08-19 01:32:55.396,0.13,-0.515
2021-08-19 01:32:55.400,0.115,-0.495
2021-08-19 01:32:55.404,0.115,-0.46
2021-08-19 01:32:55.408,0.135,-0.445
2021-08-19 01:32:55.412,0.13,-0.43
2021-08-19 01:32:55.416,0.135,-0.445
2021-08-19 01:32:55.420,0.155,-0.425
2021-08-19 01:32:55.424,0.17,-0.44
2021-08-19 01:32:55.428,0.18,-0.44
2021-08-19 01:32:55.432,0.205,-0.45
2021-08-19 01:32:55.436,0.195,-0.445
2021-08-19 01:32:55.440,0.21,-0.435
2021-08-19 01:32:55.444,0.19,-0.445
2021-08-19 01:32:55.448,0.195,-0.44
2021-08-19 01:32:55.452,0.175,-0.43
2021-08-19 01:32:55.456,0.175,-0.44
2021-08-19 01:32:55.460,0.165,-0.41
2021-08-19 01:32:55.464,0.17,-0.385
2021-08-19 01:32:55.468,0.16,-0.38
2021-08-19 01:32:55.472,0.155,-0.365
2021-08-19 01:32:55.476,0.185,-0.38
2021-08-19 01:32:55.480,0.185,-0.4
2021-08-19 01:32:55.484,0.195,-0.405
2021-08-19 01:32:55.488,0.235,-0.415
2021-08-19 01:32:55.492,0.26,-0.41
2021-08-19 01:32:55.496,0.265,-0.41
2021-08-19 01:32:55.500,0.305,-0.4
2021-08-19 01:32:55.504,0.33,-0.39
2021-08-19 01:32:55.508,0.33,-0.395
2021-08-19 01:32:55.512,0.345,-0.415
2021-08-19 01:32:55.516,0.315,-0.405
2021-08-19 01:32:55.520,0.28,-0.42
2021-08-19 01:32:55.524,0.255,-0.455
2021-08-19 01:32:55.528,0.21,-0.48
2021-08-19 01:32:55.532,0.18,-0.5
2021-08-19 01:32:55.536,0.135,-0.49
2021-08-19 01:32:55.540,0.12,-0.51
2021-08-19 01:32:55.544,0.095,-0.525
2021-08-19 01:32:55.548,0.11,-0.505
2021-08-19 01:32:55.552,0.115,-0.515
2021-08-19 01:32:55.556,0.115,-0.515
2021-08-19 01:32:55.560,0.11,-0.525
2021-08-19 01:32:55.564,0.13,-0.52
2021-08-19 01:32:55.568,0.135,-0.51
2021-08-19 01:32:55.572,0.115,-0.515
2021-08-19 01:32:55.576,0.11,-0.5
2021-08-19 01:32:55.580,0.105,-0.5
2021-08-19 01:32:55.584,0.125,-0.505
2021-08-19 01:32:55.588,0.125,-0.51
2021-08-19 01:32:55.592,0.125,-0.51
2021-08-19 01:32:55.596,0.13,-0.505
2021-08-19 01:32:55.600,0.12,-0.51
2021-08-19 01:32:55.604,0.155,-0.5
2021-08-19 01:32:55.608,0.13,-0.495
2021-08-19 01:32:55.612,0.14,-0.475
2021-08-19 01:32:55.616,0.135,-0.48
2021-08-19 01:32:55.620,0.165,-0.455
2021-08-19 01:32:55.624,0.155,-0.425
2021-08-19 01:32:55.628,0.155,-0.42
2021-08-19 01:32:55.632,0.145,-0.41
2021-08-19 01:32:55.636,0.155,-0.4
2021-08-19 01:32:55.640,0.155,-0.37
2021-08-19 01:32:55.644,0.16,-0.38
2021-08-19 01:32:55.648,0.17,-0.385
2021-08-19 01:32:55.652,0.205,-0.345
2021-08-19 01:32:55.656,0.2,-0.3
2021-08-19 01:32:55.660,0.2,-0.285
2021-08-19 01:32:55.664,0.2,-0.245
2021-08-19 01:32:55.668,0.2,-0.14
2021-08-19 01:32:55.672,0.2,0.11
2021-08-19 01:32:55.676,0.215,0.39
2021-08-19 01:32:55.680,0.225,0.6
2021-08-19 01:32:55.684,0.23,0.69
2021-08-19 01:32:55.688,0.205,0.7
2021-08-19 01:32:55.692,0.155,0.655
2021-08-19 01:32:55.696,0.105,0.53
2021-08-19 01:32:55.700,0.055,0.28
2021-08-19 01:32:55.704,-0.02,-0.01
2021-08-19 01:32:55.708,-0.245,-0.225
2021-08-19 01:32:55.712,-0.54,-0.14
2021-08-19 01:32:55.716,-0.85,0.12
2021-08-19 01:32:55.720,-1.12,0.215
2021-08-19 01:32:55.724,-1.225,-0.025
2021-08-19 01:32:55.728,-1.255,-0.39
2021-08-19 01:32:55.732,-1.13,-0.685
2021-08-19 01:32:55.736,-0.79,-0.86
2021-08-19 01:32:55.740,-0.29,-0.925
2021-08-19 01:32:55.744,0.02,-0.87
2021-08-19 01:32:55.748,0.1,-0.77
2021-08-19 01:32:55.752,0.1,-0.685
2021-08-19 01:32:55.756,0.015,-0.61
2021-08-19 01:32:55.760,-0.005,-0.595
2021-08-19 01:32:55.764,-0.03,-0.605
2021-08-19 01:32:55.768,-0.01,-0.63
2021-08-19 01:32:55.772,0.035,-0.63
2021-08-19 01:32:55.776,0.085,-0.625
2021-08-19 01:32:55.780,0.17,-0.615
2021-08-19 01:32:55.784,0.175,-0.62
2021-08-19 01:32:55.788,0.215,-0.63
2021-08-19 01:32:55.792,0.22,-0.63
2021-08-19 01:32:55.796,0.24,-0.62
2021-08-19 01:32:55.800,0.245,-0.64
2021-08-19 01:32:55.804,0.235,-0.625
2021-08-19 01:32:55.808,0.245,-0.605
2021-08-19 01:32:55.812,0.25,-0.595
2021-08-19 01:32:55.816,0.255,-0.61
2021-08-19 01:32:55.820,0.245,-0.62
2021-08-19 01:32:55.824,0.265,-0.625
2021-08-19 01:32:55.828,0.27,-0.615
2021-08-19 01:32:55.832,0.275,-0.61
2021-08-19 01:32:55.836,0.275,-0.585
2021-08-19 01:32:55.840,0.275,-0.565
2021-08-19 01:32:55.844,0.27,-0.545
2021-08-19 01:32:55.848,0.295,-0.55
2021-08-19 01:32:55.852,0.305,-0.53
2021-08-19 01:32:55.856,0.29,-0.53
2021-08-19 01:32:55.860,0.315,-0.53
2021-08-19 01:32:55.864,0.305,-0.55
2021-08-19 01:32:55.868,0.325,-0.525
2021-08-19 01:32:55.872,0.32,-0.535
2021-08-19 01:32:55.876,0.33,-0.52
2021-08-19 01:32:55.880,0.36,-0.54
2021-08-19 01:32:55.884,0.34,-0.555
2021-08-19 01:32:55.888,0.345,-0.58
2021-08-19 01:32:55.892,0.33,-0.585
2021-08-19 01:32:55.896,0.315,-0.605
2021-08-19 01:32:55.900,0.325,-0.57
2021-08-19 01:32:55.904,0.335,-0.59
2021-08-19 01:32:55.908,0.335,-0.545
2021-08-19 01:32:55.912,0.31,-0.555
2021-08-19 01:32:55.916,0.315,-0.545
2021-08-19 01:32:55.920,0.295,-0.51
2021-08-19 01:32:55.924,0.275,-0.5
2021-08-19 01:32:55.928,0.285,-0.495
2021-08-19 01:32:55.932,0.3,-0.525
2021-08-19 01:32:55.936,0.33,-0.56
2021-08-19 01:32:55.940,0.35,-0.565
2021-08-19 01:32:55.944,0.36,-0.575
2021-08-19 01:32:55.948,0.39,-0.555
2021-08-19 01:32:55.952,0.4,-0.555
2021-08-19 01:32:55.956,0.39,-0.55
2021-08-19 01:32:55.960,0.38,-0.545
2021-08-19 01:32:55.964,0.36,-0.53
2021-08-19 01:32:55.968,0.325,-0.515
2021-08-19 01:32:55.972,0.295,-0.525
2021-08-19 01:32:55.976,0.275,-0.515
2021-08-19 01:32:55.980,0.225,-0.505
2021-08-19 01:32:55.984,0.185,-0.5
2021-08-19 01:32:55.988,0.175,-0.5
2021-08-19 01:32:55.992,0.16,-0.48
2021-08-19 01:32:55.996,0.15,-0.48
2021-08-19 01:32:56.000,0.14,-0.475
2021-08-19 01:32:56.004,0.145,-0.47
2021-08-19 01:32:56.008,0.125,-0.465
2021-08-19 01:32:56.012,0.12,-0.46
2021-08-19 01:32:56.016,0.115,-0.47
2021-08-19 01:32:56.020,0.115,-0.46
2021-08-19 01:32:56.024,0.12,-0.465
2021-08-19 01:32:56.028,0.115,-0.465
2021-08-19 01:32:56.032,0.1,-0.46
2021-08-19 01:32:56.036,0.11,-0.465
2021-08-19 01:32:56.040,0.105,-0.445
2021-08-19 01:32:56.044,0.11,-0.435
2021-08-19 01:32:56.048,0.125,-0.385
2021-08-19 01:32:56.052,0.105,-0.37
2021-08-19 01:32:56.056,0.125,-0.35
2021-08-19 01:32:56.060,0.135,-0.35
2021-08-19 01:32:56.064,0.125,-0.33
2021-08-19 01:32:56.068,0.155,-0.325
2021-08-19 01:32:56.072,0.155,-0.32
2021-08-19 01:32:56.076,0.165,-0.325
2021-08-19 01:32:56.080,0.185,-0.32
2021-08-19 01:32:56.084,0.205,-0.34
2021-08-19 01:32:56.088,0.2,-0.355
2021-08-19 01:32:56.092,0.215,-0.345
2021-08-19 01:32:56.096,0.215,-0.35
2021-08-19 01:32:56.100,0.225,-0.375
2021-08-19 01:32:56.104,0.215,-0.345
2021-08-19 01:32:56.108,0.205,-0.35
2021-08-19 01:32:56.112,0.235,-0.35
2021-08-19 01:32:56.116,0.235,-0.355
2021-08-19 01:32:56.120,0.23,-0.32
2021-08-19 01:32:56.124,0.235,-0.32
2021-08-19 01:32:56.128,0.235,-0.32
2021-08-19 01:32:56.132,0.23,-0.335
2021-08-19 01:32:56.136,0.23,-0.305
2021-08-19 01:32:56.140,0.23,-0.315
2021-08-19 01:32:56.144,0.26,-0.32
2021-08-19 01:32:56.148,0.275,-0.345
2021-08-19 01:32:56.152,0.29,-0.355
2021-08-19 01:32:56.156,0.305,-0.345
2021-08-19 01:32:56.160,0.315,-0.34
2021-08-19 01:32:56.164,0.345,-0.34
2021-08-19 01:32:56.168,0.315,-0.37
2021-08-19 01:32:56.172,0.26,-0.385
2021-08-19 01:32:56.176,0.23,-0.4
2021-08-19 01:32:56.180,0.175,-0.385
2021-08-19 01:32:56.184,0.145,-0.405
2021-08-19 01:32:56.188,0.135,-0.395
2021-08-19 01:32:56.192,0.125,-0.405
2021-08-19 01:32:56.196,0.1,-0.405
2021-08-19 01:32:56.200,0.11,-0.42
2021-08-19 01:32:56.204,0.115,-0.42
2021-08-19 01:32:56.208,0.12,-0.415
2021-08-19 01:32:56.212,0.11,-0.445
2021-08-19 01:32:56.216,0.125,-0.45
2021-08-19 01:32:56.220,0.125,-0.44
2021-08-19 01:32:56.224,0.1,-0.455
2021-08-19 01:32:56.228,0.1,-0.44
2021-08-19 01:32:56.232,0.11,-0.44
2021-08-19 01:32:56.236,0.12,-0.43
2021-08-19 01:32:56.240,0.1,-0.42
2021-08-19 01:32:56.244,0.075,-0.405
2021-08-19 01:32:56.248,0.095,-0.405
2021-08-19 01:32:56.252,0.095,-0.39
2021-08-19 01:32:56.256,0.11,-0.365
2021-08-19 01:32:56.260,0.095,-0.375
2021-08-19 01:32:56.264,0.115,-0.325
2021-08-19 01:32:56.268,0.125,-0.32
2021-08-19 01:32:56.272,0.105,-0.32
2021-08-19 01:32:56.276,0.1,-0.32
2021-08-19 01:32:56.280,0.115,-0.31
2021-08-19 01:32:56.284,0.135,-0.31
2021-08-19 01:32:56.288,0.13,-0.305
2021-08-19 01:32:56.292,0.135,-0.315
2021-08-19 01:32:56.296,0.15,-0.295
2021-08-19 01:32:56.300,0.17,-0.31
2021-08-19 01:32:56.304,0.185,-0.31
2021-08-19 01:32:56.308,0.175,-0.3
2021-08-19 01:32:56.312,0.175,-0.29
2021-08-19 01:32:56.316,0.155,-0.29
2021-08-19 01:32:56.320,0.18,-0.295
2021-08-19 01:32:56.324,0.18,-0.305
2021-08-19 01:32:56.328,0.14,-0.33
2021-08-19 01:32:56.332,0.155,-0.32
2021-08-19 01:32:56.336,0.18,-0.29
2021-08-19 01:32:56.340,0.17,-0.28
2021-08-19 01:32:56.344,0.165,-0.255
2021-08-19 01:32:56.348,0.19,-0.26
2021-08-19 01:32:56.352,0.195,-0.265
2021-08-19 01:32:56.356,0.205,-0.275
2021-08-19 01:32:56.360,0.235,-0.29
2021-08-19 01:32:56.364,0.25,-0.29
2021-08-19 01:32:56.368,0.25,-0.305
2021-08-19 01:32:56.372,0.275,-0.305
2021-08-19 01:32:56.376,0.25,-0.325
2021-08-19 01:32:56.380,0.22,-0.325
2021-08-19 01:32:56.384,0.16,-0.355
2021-08-19 01:32:56.388,0.135,-0.355
2021-08-19 01:32:56.392,0.1,-0.37
2021-08-19 01:32:56.396,0.075,-0.37
2021-08-19 01:32:56.400,0.09,-0.375
2021-08-19 01:32:56.404,0.075,-0.385
2021-08-19 01:32:56.408,0.07,-0.38
2021-08-19 01:32:56.412,0.095,-0.4
2021-08-19 01:32:56.416,0.09,-0.395
2021-08-19 01:32:56.420,0.1,-0.39
2021-08-19 01:32:56.424,0.085,-0.405
2021-08-19 01:32:56.428,0.08,-0.39
2021-08-19 01:32:56.432,0.085,-0.405
2021-08-19 01:32:56.436,0.095,-0.405
2021-08-19 01:32:56.440,0.095,-0.425
2021-08-19 01:32:56.444,0.085,-0.41
2021-08-19 01:32:56.448,0.085,-0.39
2021-08-19 01:32:56.452,0.07,-0.385
2021-08-19 01:32:56.456,0.085,-0.365
2021-08-19 01:32:56.460,0.08,-0.35
2021-08-19 01:32:56.464,0.08,-0.335
2021-08-19 01:32:56.468,0.085,-0.325
2021-08-19 01:32:56.472,0.085,-0.32
2021-08-19 01:32:56.476,0.08,-0.295
2021-08-19 01:32:56.480,0.09,-0.27
2021-08-19 01:32:56.484,0.085,-0.235
2021-08-19 01:32:56.488,0.09,-0.21
2021-08-19 01:32:56.492,0.095,-0.185
2021-08-19 01:32:56.496,0.12,-0.195
2021-08-19 01:32:56.500,0.11,-0.19
2021-08-19 01:32:56.504,0.1,-0.195
2021-08-19 01:32:56.508,0.12,-0.19
2021-08-19 01:32:56.512,0.14,-0.185
2021-08-19 01:32:56.516,0.125,-0.165
2021-08-19 01:32:56.520,0.12,-0.13
2021-08-19 01:32:56.524,0.14,-0.1
2021-08-19 01:32:56.528,0.145,-0.07
2021-08-19 01:32:56.532,0.14,-0.025
2021-08-19 01:32:56.536,0.175,0.09
2021-08-19 01:32:56.540,0.145,0.355
2021-08-19 01:32:56.544,0.145,0.6
2021-08-19 01:32:56.548,0.205,0.77
2021-08-19 01:32:56.552,0.225,0.855
2021-08-19 01:32:56.556,0.16,0.84
2021-08-19 01:32:56.560,0.145,0.81
2021-08-19 01:32:56.564,0.115,0.695
2021-08-19 01:32:56.568,0.08,0.46
2021-08-19 01:32:56.572,-0.01,0.155
2021-08-19 01:32:56.576,-0.245,0.015
2021-08-19 01:32:56.580,-0.585,0.17
2021-08-19 01:32:56.584,-0.96,0.405
2021-08-19 01:32:56.588,-1.26,0.395
2021-08-19 01:32:56.592,-1.385,0.08
2021-08-19 01:32:56.596,-1.4,-0.26
2021-08-19 01:32:56.600,-1.24,-0.51
2021-08-19 01:32:56.604,-0.825,-0.65
2021-08-19 01:32:56.608,-0.34,-0.66
2021-08-19 01:32:56.612,-0.06,-0.57
2021-08-19 01:32:56.616,0.005,-0.455
2021-08-19 01:32:56.620,-0.01,-0.385
2021-08-19 01:32:56.624,-0.04,-0.33
2021-08-19 01:32:56.628,-0.055,-0.345
2021-08-19 01:32:56.632,-0.07,-0.355
2021-08-19 01:32:56.636,-0.04,-0.35
2021-08-19 01:32:56.640,0.025,-0.375
2021-08-19 01:32:56.644,0.08,-0.37
2021-08-19 01:32:56.648,0.115,-0.4
2021-08-19 01:32:56.652,0.14,-0.39
2021-08-19 01:32:56.656,0.16,-0.39
2021-08-19 01:32:56.660,0.175,-0.405
2021-08-19 01:32:56.664,0.195,-0.375
2021-08-19 01:32:56.668,0.195,-0.375
2021-08-19 01:32:56.672,0.185,-0.375
2021-08-19 01:32:56.676,0.2,-0.355
2021-08-19 01:32:56.680,0.2,-0.335
2021-08-19 01:32:56.684,0.19,-0.325
2021-08-19 01:32:56.688,0.19,-0.305
2021-08-19 01:32:56.692,0.22,-0.285
2021-08-19 01:32:56.696,0.21,-0.265
2021-08-19 01:32:56.700,0.205,-0.245
2021-08-19 01:32:56.704,0.225,-0.255
2021-08-19 01:32:56.708,0.23,-0.25
2021-08-19 01:32:56.712,0.245,-0.255
2021-08-19 01:32:56.716,0.24,-0.255
2021-08-19 01:32:56.720,0.24,-0.28
2021-08-19 01:32:56.724,0.27,-0.255
2021-08-19 01:32:56.728,0.265,-0.29
2021-08-19 01:32:56.732,0.27,-0.3
2021-08-19 01:32:56.736,0.265,-0.28
2021-08-19 01:32:56.740,0.28,-0.275
2021-08-19 01:32:56.744,0.265,-0.285
2021-08-19 01:32:56.748,0.27,-0.305
2021-08-19 01:32:56.752,0.28,-0.315
2021-08-19 01:32:56.756,0.265,-0.34
2021-08-19 01:32:56.760,0.27,-0.32
2021-08-19 01:32:56.764,0.28,-0.32
2021-08-19 01:32:56.768,0.28,-0.31
2021-08-19 01:32:56.772,0.29,-0.295
2021-08-19 01:32:56.776,0.3,-0.28
2021-08-19 01:32:56.780,0.3,-0.275
2021-08-19 01:32:56.784,0.305,-0.31
2021-08-19 01:32:56.788,0.305,-0.34
2021-08-19 01:32:56.792,0.29,-0.365
2021-08-19 01:32:56.796,0.3,-0.4
2021-08-19 01:32:56.800,0.285,-0.42
2021-08-19 01:32:56.804,0.255,-0.405
2021-08-19 01:32:56.808,0.23,-0.405
2021-08-19 01:32:56.812,0.2,-0.385
2021-08-19 01:32:56.816,0.165,-0.375
2021-08-19 01:32:56.820,0.16,-0.37
2021-08-19 01:32:56.824,0.145,-0.36
2021-08-19 01:32:56.828,0.14,-0.345
2021-08-19 01:32:56.832,0.14,-0.35
2021-08-19 01:32:56.836,0.13,-0.325
2021-08-19 01:32:56.840,0.14,-0.32
2021-08-19 01:32:56.844,0.125,-0.3
2021-08-19 01:32:56.848,0.14,-0.28
2021-08-19 01:32:56.852,0.13,-0.26
2021-08-19 01:32:56.856,0.095,-0.265
2021-08-19 01:32:56.860,0.115,-0.245
2021-08-19 01:32:56.864,0.085,-0.245
2021-08-19 01:32:56.868,0.075,-0.23
2021-08-19 01:32:56.872,0.075,-0.205
2021-08-19 01:32:56.876,0.08,-0.17
2021-08-19 01:32:56.880,0.075,-0.15
2021-08-19 01:32:56.884,0.05,-0.16
2021-08-19 01:32:56.888,0.075,-0.12
2021-08-19 01:32:56.892,0.07,-0.125
2021-08-19 01:32:56.896,0.085,-0.105
2021-08-19 01:32:56.900,0.08,-0.11
2021-08-19 01:32:56.904,0.1,-0.07
2021-08-19 01:32:56.908,0.105,-0.075
2021-08-19 01:32:56.912,0.09,-0.065
2021-08-19 01:32:56.916,0.1,-0.045
2021-08-19 01:32:56.920,0.125,-0.015
2021-08-19 01:32:56.924,0.11,-0.045
2021-08-19 01:32:56.928,0.12,-0.05
2021-08-19 01:32:56.932,0.135,-0.045
2021-08-19 01:32:56.936,0.135,-0.055
2021-08-19 01:32:56.940,0.14,-0.05
2021-08-19 01:32:56.944,0.16,-0.05
2021-08-19 01:32:56.948,0.195,-0.055
2021-08-19 01:32:56.952,0.175,-0.07
2021-08-19 01:32:56.956,0.185,-0.06
2021-08-19 01:32:56.960,0.195,-0.025
2021-08-19 01:32:56.964,0.195,-0.035
2021-08-19 01:32:56.968,0.18,-0.045
2021-08-19 01:32:56.972,0.175,-0.03
2021-08-19 01:32:56.976,0.175,-0.02
2021-08-19 01:32:56.980,0.21,-0.03
2021-08-19 01:32:56.984,0.215,-0.015
2021-08-19 01:32:56.988,0.215,-0.015
2021-08-19 01:32:56.992,0.22,-0.035
2021-08-19 01:32:56.996,0.185,-0.095
2021-08-19 01:32:57.000,0.21,-0.12
2021-08-19 01:32:57.004,0.175,-0.15
2021-08-19 01:32:57.008,0.165,-0.175
2021-08-19 01:32:57.012,0.145,-0.195
2021-08-19 01:32:57.016,0.11,-0.2
2021-08-19 01:32:57.020,0.1,-0.21
2021-08-19 01:32:57.024,0.055,-0.235
2021-08-19 01:32:57.028,0.045,-0.225
2021-08-19 01:32:57.032,0.04,-0.245
2021-08-19 01:32:57.036,0.04,-0.235
2021-08-19 01:32:57.040,0.02,-0.21
2021-08-19 01:32:57.044,0.035,-0.21
2021-08-19 01:32:57.048,0.025,-0.205
2021-08-19 01:32:57.052,0.03,-0.19
2021-08-19 01:32:57.056,0.04,-0.2
2021-08-19 01:32:57.060,0.04,-0.2
2021-08-19 01:32:57.064,0.02,-0.18
2021-08-19 01:32:57.068,0.04,-0.175
2021-08-19 01:32:57.072,0.025,-0.175
2021-08-19 01:32:57.076,0.035,-0.18
2021-08-19 01:32:57.080,0.025,-0.17
2021-08-19 01:32:57.084,0.03,-0.15
2021-08-19 01:32:57.088,0.035,-0.145
2021-08-19 01:32:57.092,0.03,-0.15
2021-08-19 01:32:57.096,0.035,-0.12
2021-08-19 01:32:57.100,0.05,-0.11
2021-08-19 01:32:57.104,0.035,-0.08
2021-08-19 01:32:57.108,0.02,-0.06
2021-08-19 01:32:57.112,0.02,-0.105
2021-08-19 01:32:57.116,0.035,-0.08
2021-08-19 01:32:57.120,0.03,-0.105
2021-08-19 01:32:57.124,0.06,-0.1
2021-08-19 01:32:57.128,0.01,-0.095
2021-08-19 01:32:57.132,0.03,-0.08
2021-08-19 01:32:57.136,0.055,-0.08
2021-08-19 01:32:57.140,0.04,-0.06
2021-08-19 01:32:57.144,0.055,-0.085
2021-08-19 01:32:57.148,0.045,-0.08
2021-08-19 01:32:57.152,0.04,-0.09
2021-08-19 01:32:57.156,0.05,-0.1
2021-08-19 01:32:57.160,0.045,-0.105
2021-08-19 01:32:57.164,0.05,-0.115
2021-08-19 01:32:57.168,0.035,-0.12
2021-08-19 01:32:57.172,0.05,-0.14
2021-08-19 01:32:57.176,0.085,-0.14
2021-08-19 01:32:57.180,0.07,-0.14
2021-08-19 01:32:57.184,0.055,-0.125
2021-08-19 01:32:57.188,0.045,-0.11
2021-08-19 01:32:57.192,0.06,-0.1
2021-08-19 01:32:57.196,0.05,-0.055
2021-08-19 01:32:57.200,0.065,-0.065
2021-08-19 01:32:57.204,0.08,-0.075
2021-08-19 01:32:57.208,0.085,-0.105
2021-08-19 01:32:57.212,0.08,-0.105
2021-08-19 01:32:57.216,0.055,-0.165
2021-08-19 01:32:57.220,0.055,-0.185
2021-08-19 01:32:57.224,0.035,-0.19
2021-08-19 01:32:57.228,0.025,-0.195
2021-08-19 01:32:57.232,0.005,-0.22
2021-08-19 01:32:57.236,-0.005,-0.225
2021-08-19 01:32:57.240,-0.01,-0.24
2021-08-19 01:32:57.244,-0.02,-0.23
2021-08-19 01:32:57.248,-0.02,-0.21
2021-08-19 01:32:57.252,-0.025,-0.21
2021-08-19 01:32:57.256,-0.02,-0.19
2021-08-19 01:32:57.260,-0.01,-0.21
2021-08-19 01:32:57.264,-0.035,-0.185
2021-08-19 01:32:57.268,-0.055,-0.195
2021-08-19 01:32:57.272,-0.035,-0.175
2021-08-19 01:32:57.276,-0.045,-0.19
2021-08-19 01:32:57.280,-0.05,-0.17
2021-08-19 01:32:57.284,-0.05,-0.185
2021-08-19 01:32:57.288,-0.05,-0.145
2021-08-19 01:32:57.292,-0.04,-0.145
2021-08-19 01:32:57.296,-0.055,-0.1
2021-08-19 01:32:57.300,-0.045,-0.105
2021-08-19 01:32:57.304,-0.035,-0.095
2021-08-19 01:32:57.308,-0.03,-0.065
2021-08-19 01:32:57.312,-0.025,-0.03
2021-08-19 01:32:57.316,-0.03,0.035
2021-08-19 01:32:57.320,-0.015,0.06
2021-08-19 01:32:57.324,-0.015,0.09
2021-08-19 01:32:57.328,-0.01,0.195
2021-08-19 01:32:57.332,0.005,0.425
2021-08-19 01:32:57.336,0.015,0.675
2021-08-19 01:32:57.340,0.055,0.84
2021-08-19 01:32:57.344,0.07,0.915
2021-08-19 01:32:57.348,0.035,0.925
2021-08-19 01:32:57.352,-0.01,0.87
2021-08-19 01:32:57.356,-0.03,0.75
2021-08-19 01:32:57.360,-0.065,0.565
2021-08-19 01:32:57.364,-0.185,0.305
2021-08-19 01:32:57.368,-0.405,0.205
2021-08-19 01:32:57.372,-0.735,0.375
2021-08-19 01:32:57.376,-1.11,0.6
2021-08-19 01:32:57.380,-1.38,0.56
2021-08-19 01:32:57.384,-1.545,0.205
2021-08-19 01:32:57.388,-1.53,-0.15
2021-08-19 01:32:57.392,-1.335,-0.415
2021-08-19 01:32:57.396,-0.9,-0.555
2021-08-19 01:32:57.400,-0.42,-0.555
2021-08-19 01:32:57.404,-0.115,-0.44
2021-08-19 01:32:57.408,-0.065,-0.32
2021-08-19 01:32:57.412,-0.085,-0.23
2021-08-19 01:32:57.416,-0.11,-0.215
2021-08-19 01:32:57.420,-0.145,-0.185
2021-08-19 01:32:57.424,-0.14,-0.2
2021-08-19 01:32:57.428,-0.12,-0.19
2021-08-19 01:32:57.432,-0.04,-0.17
2021-08-19 01:32:57.436,0.07,-0.18
2021-08-19 01:32:57.440,0.17,-0.15
2021-08-19 01:32:57.444,0.22,-0.15
2021-08-19 01:32:57.448,0.2,-0.16
2021-08-19 01:32:57.452,0.17,-0.16
2021-08-19 01:32:57.456,0.145,-0.18
2021-08-19 01:32:57.460,0.105,-0.2
2021-08-19 01:32:57.464,0.055,-0.22
2021-08-19 01:32:57.468,0.05,-0.26
2021-08-19 01:32:57.472,0.03,-0.26
2021-08-19 01:32:57.476,0.03,-0.27
2021-08-19 01:32:57.480,0.015,-0.26
2021-08-19 01:32:57.484,0.035,-0.27
2021-08-19 01:32:57.488,0.045,-0.245
2021-08-19 01:32:57.492,0.04,-0.26
2021-08-19 01:32:57.496,0.045,-0.255
2021-08-19 01:32:57.500,0.035,-0.24
2021-08-19 01:32:57.504,0.05,-0.24
2021-08-19 01:32:57.508,0.03,-0.25
2021-08-19 01:32:57.512,0.03,-0.23
2021-08-19 01:32:57.516,0.04,-0.22
2021-08-19 01:32:57.520,0.045,-0.21
2021-08-19 01:32:57.524,0.045,-0.235
2021-08-19 01:32:57.528,0.04,-0.215
2021-08-19 01:32:57.532,0.05,-0.225
2021-08-19 01:32:57.536,0.06,-0.205
2021-08-19 01:32:57.540,0.05,-0.225
2021-08-19 01:32:57.544,0.055,-0.24
2021-08-19 01:32:57.548,0.045,-0.235
2021-08-19 01:32:57.552,0.06,-0.225
2021-08-19 01:32:57.556,0.07,-0.22
2021-08-19 01:32:57.560,0.065,-0.23
2021-08-19 01:32:57.564,0.09,-0.24
2021-08-19 01:32:57.568,0.09,-0.25
2021-08-19 01:32:57.572,0.085,-0.25
2021-08-19 01:32:57.576,0.085,-0.27
2021-08-19 01:32:57.580,0.08,-0.255
2021-08-19 01:32:57.584,0.085,-0.27
2021-08-19 01:32:57.588,0.1,-0.265
2021-08-19 01:32:57.592,0.08,-0.26
2021-08-19 01:32:57.596,0.085,-0.28
2021-08-19 01:32:57.600,0.095,-0.28
2021-08-19 01:32:57.604,0.075,-0.275
2021-08-19 01:32:57.608,0.055,-0.275
2021-08-19 01:32:57.612,0.055,-0.295
2021-08-19 01:32:57.616,0.045,-0.28
2021-08-19 01:32:57.620,0.055,-0.27
2021-08-19 01:32:57.624,0.055,-0.27
2021-08-19 01:32:57.628,0.065,-0.205
2021-08-19 01:32:57.632,0.05,-0.2
2021-08-19 01:32:57.636,0.035,-0.16
2021-08-19 01:32:57.640,0.04,-0.16
2021-08-19 01:32:57.644,0.025,-0.14
2021-08-19 01:32:57.648,0.04,-0.135
2021-08-19 01:32:57.652,0.055,-0.115
2021-08-19 01:32:57.656,0.07,-0.105
2021-08-19 01:32:57.660,0.095,-0.06
2021-08-19 01:32:57.664,0.075,-0.055
2021-08-19 01:32:57.668,0.065,-0.03
2021-08-19 01:32:57.672,0.025,-0.04
2021-08-19 01:32:57.676,0.0,-0.05
2021-08-19 01:32:57.680,-0.06,-0.04
2021-08-19 01:32:57.684,-0.08,-0.035
2021-08-19 01:32:57.688,-0.095,-0.06
2021-08-19 01:32:57.692,-0.09,-0.04
2021-08-19 01:32:57.696,-0.09,-0.05
2021-08-19 01:32:57.700,-0.095,-0.05
2021-08-19 01:32:57.704,-0.095,-0.04
2021-08-19 01:32:57.708,-0.085,-0.035
2021-08-19 01:32:57.712,-0.07,-0.04
2021-08-19 01:32:57.716,-0.04,-0.03
2021-08-19 01:32:57.720,-0.07,-0.015
2021-08-19 01:32:57.724,-0.04,-0.02
2021-08-19 01:32:57.728,-0.04,0.0
2021-08-19 01:32:57.732,-0.03,0.0
2021-08-19 01:32:57.736,-0.035,-0.01
2021-08-19 01:32:57.740,-0.03,0.0
2021-08-19 01:32:57.744,-0.02,-0.015
2021-08-19 01:32:57.748,-0.025,-0.01
2021-08-19 01:32:57.752,-0.015,0.0
2021-08-19 01:32:57.756,-0.005,-0.01
2021-08-19 01:32:57.760,-0.01,-0.01
2021-08-19 01:32:57.764,0.005,-0.01
2021-08-19 01:32:57.768,0.005,-0.005
2021-08-19 01:32:57.772,0.01,-0.015
2021-08-19 01:32:57.776,0.01,-0.025
2021-08-19 01:32:57.780,0.005,-0.015
2021-08-19 01:32:57.784,0.005,-0.015
2021-08-19 01:32:57.788,0.015,-0.01
2021-08-19 01:32:57.792,0.02,-0.005
2021-08-19 01:32:57.796,-0.01,0.005
2021-08-19 01:32:57.800,0.02,0.015
2021-08-19 01:32:57.804,0.0,0.01
2021-08-19 01:32:57.808,0.005,-0.005
2021-08-19 01:32:57.812,0.0,-0.005
2021-08-19 01:32:57.816,0.0,-0.01
2021-08-19 01:32:57.820,0.005,0.0
2021-08-19 01:32:57.824,0.0,-0.035
2021-08-19 01:32:57.828,-0.015,-0.005
2021-08-19 01:32:57.832,0.0,0.045
2021-08-19 01:32:57.836,-0.01,0.13
2021-08-19 01:32:57.840,-0.01,0.205
2021-08-19 01:32:57.844,-0.01,0.265
2021-08-19 01:32:57.848,-0.015,0.385
2021-08-19 01:32:57.852,0.005,0.63
2021-08-19 01:32:57.856,0.04,0.85
2021-08-19 01:32:57.860,0.12,1.02
2021-08-19 01:32:57.864,0.155,1.06
2021-08-19 01:32:57.868,0.115,1.04
2021-08-19 01:32:57.872,0.04,0.95
2021-08-19 01:32:57.876,-0.065,0.79
2021-08-19 01:32:57.880,-0.135,0.575
2021-08-19 01:32:57.884,-0.255,0.3
2021-08-19 01:32:57.888,-0.46,0.175
2021-08-19 01:32:57.892,-0.76,0.33
2021-08-19 01:32:57.896,-1.135,0.55
2021-08-19 01:32:57.900,-1.405,0.555
2021-08-19 01:32:57.904,-1.58,0.28
2021-08-19 01:32:57.908,-1.62,-0.02
2021-08-19 01:32:57.912,-1.445,-0.25
2021-08-19 01:32:57.916,-1.08,-0.37
2021-08-19 01:32:57.920,-0.615,-0.405
2021-08-19 01:32:57.924,-0.31,-0.32
2021-08-19 01:32:57.928,-0.22,-0.195
2021-08-19 01:32:57.932,-0.22,-0.12
2021-08-19 01:32:57.936,-0.23,-0.1
2021-08-19 01:32:57.940,-0.255,-0.11
2021-08-19 01:32:57.944,-0.25,-0.105
2021-08-19 01:32:57.948,-0.23,-0.125
2021-08-19 01:32:57.952,-0.185,-0.11
2021-08-19 01:32:57.956,-0.105,-0.11
2021-08-19 01:32:57.960,-0.08,-0.13
2021-08-19 01:32:57.964,-0.06,-0.13
2021-08-19 01:32:57.968,-0.065,-0.14
2021-08-19 01:32:57.972,-0.035,-0.15
2021-08-19 01:32:57.976,-0.025,-0.14
2021-08-19 01:32:57.980,-0.04,-0.155
2021-08-19 01:32:57.984,-0.01,-0.145
2021-08-19 01:32:57.988,-0.035,-0.16
2021-08-19 01:32:57.992,-0.025,-0.185
2021-08-19 01:32:57.996,0.0,-0.16
2021-08-19 01:32:58.000,0.0,-0.155
2021-08-19 01:32:58.004,-0.005,-0.16
2021-08-19 01:32:58.008,0.015,-0.155
2021-08-19 01:32:58.012,0.01,-0.155
2021-08-19 01:32:58.016,0.0,-0.15
2021-08-19 01:32:58.020,0.005,-0.18
2021-08-19 01:32:58.024,0.035,-0.165
2021-08-19 01:32:58.028,0.02,-0.165
2021-08-19 01:32:58.032,0.01,-0.19
2021-08-19 01:32:58.036,0.04,-0.205
2021-08-19 01:32:58.040,0.035,-0.205
2021-08-19 01:32:58.044,0.045,-0.195
2021-08-19 01:32:58.048,0.05,-0.195
2021-08-19 01:32:58.052,0.03,-0.185
2021-08-19 01:32:58.056,0.045,-0.18
2021-08-19 01:32:58.060,0.06,-0.2
2021-08-19 01:32:58.064,0.055,-0.21
2021-08-19 01:32:58.068,0.04,-0.23
2021-08-19 01:32:58.072,0.065,-0.215
2021-08-19 01:32:58.076,0.065,-0.19
2021-08-19 01:32:58.080,0.075,-0.18
2021-08-19 01:32:58.084,0.065,-0.175
2021-08-19 01:32:58.088,0.075,-0.17
2021-08-19 01:32:58.092,0.035,-0.165
2021-08-19 01:32:58.096,0.02,-0.16
2021-08-19 01:32:58.100,0.01,-0.17
2021-08-19 01:32:58.104,-0.02,-0.15
2021-08-19 01:32:58.108,-0.05,-0.13
2021-08-19 01:32:58.112,-0.05,-0.135
2021-08-19 01:32:58.116,-0.05,-0.105
2021-08-19 01:32:58.120,-0.04,-0.09
2021-08-19 01:32:58.124,-0.025,-0.04
2021-08-19 01:32:58.128,-0.04,-0.04
2021-08-19 01:32:58.132,-0.04,-0.06
2021-08-19 01:32:58.136,-0.005,-0.005
2021-08-19 01:32:58.140,-0.045,-0.005
2021-08-19 01:32:58.144,-0.05,0.01
2021-08-19 01:32:58.148,-0.015,0.03
2021-08-19 01:32:58.152,-0.03,0.035
2021-08-19 01:32:58.156,-0.03,0.04
2021-08-19 01:32:58.160,-0.035,0.05
2021-08-19 01:32:58.164,-0.025,0.075
2021-08-19 01:32:58.168,-0.025,0.065
2021-08-19 01:32:58.172,-0.015,0.07
2021-08-19 01:32:58.176,-0.035,0.085
2021-08-19 01:32:58.180,-0.025,0.075
2021-08-19 01:32:58.184,-0.01,0.085
2021-08-19 01:32:58.188,-0.02,0.085
2021-08-19 01:32:58.192,-0.025,0.08
2021-08-19 01:32:58.196,-0.025,0.095
2021-08-19 01:32:58.200,0.0,0.075
2021-08-19 01:32:58.204,-0.005,0.07
2021-08-19 01:32:58.208,-0.005,0.06
2021-08-19 01:32:58.212,0.005,0.065
2021-08-19 01:32:58.216,0.0,0.055
2021-08-19 01:32:58.220,-0.005,0.065
2021-08-19 01:32:58.224,0.0,0.055
2021-08-19 01:32:58.228,-0.005,0.06
2021-08-19 01:32:58.232,-0.01,0.035
2021-08-19 01:32:58.236,0.005,0.005
2021-08-19 01:32:58.240,0.015,0.0
2021-08-19 01:32:58.244,0.005,-0.01
2021-08-19 01:32:58.248,0.015,0.0
2021-08-19 01:32:58.252,0.01,-0.015
2021-08-19 01:32:58.256,0.0,-0.035
2021-08-19 01:32:58.260,0.01,-0.015
2021-08-19 01:32:58.264,0.01,-0.015
2021-08-19 01:32:58.268,-0.005,0.005
2021-08-19 01:32:58.272,0.0,-0.02
2021-08-19 01:32:58.276,0.0,-0.005
2021-08-19 01:32:58.280,0.005,0.01
2021-08-19 01:32:58.284,0.005,0.01
2021-08-19 01:32:58.288,0.02,0.02
2021-08-19 01:32:58.292,0.045,0.06
2021-08-19 01:32:58.296,0.055,0.08
2021-08-19 01:32:58.300,0.09,0.07
2021-08-19 01:32:58.304,0.105,0.055
2021-08-19 01:32:58.308,0.07,0.055
2021-08-19 01:32:58.312,0.065,0.03
2021-08-19 01:32:58.316,0.0,0.005
2021-08-19 01:32:58.320,-0.05,0.0
2021-08-19 01:32:58.324,-0.065,0.0
2021-08-19 01:32:58.328,-0.08,0.005
2021-08-19 01:32:58.332,-0.095,0.0
2021-08-19 01:32:58.336,-0.1,0.015
2021-08-19 01:32:58.340,-0.09,0.04
2021-08-19 01:32:58.344,-0.095,0.06
2021-08-19 01:32:58.348,-0.09,0.055
2021-08-19 01:32:58.352,-0.09,0.06
2021-08-19 01:32:58.356,-0.07,0.08
2021-08-19 01:32:58.360,-0.1,0.07
2021-08-19 01:32:58.364,-0.07,0.08
2021-08-19 01:32:58.368,-0.085,0.08
2021-08-19 01:32:58.372,-0.1,0.06
2021-08-19 01:32:58.376,-0.09,0.075
2021-08-19 01:32:58.380,-0.07,0.06
2021-08-19 01:32:58.384,-0.065,0.05
2021-08-19 01:32:58.388,-0.07,0.045
2021-08-19 01:32:58.392,-0.075,0.04
2021-08-19 01:32:58.396,-0.055,0.05
2021-08-19 01:32:58.400,-0.05,0.04
2021-08-19 01:32:58.404,-0.055,0.07
2021-08-19 01:32:58.408,-0.05,0.065
2021-08-19 01:32:58.412,-0.07,0.065
2021-08-19 01:32:58.416,-0.06,0.05
2021-08-19 01:32:58.420,-0.05,0.05
2021-08-19 01:32:58.424,-0.045,0.05
2021-08-19 01:32:58.428,-0.055,0.02
2021-08-19 01:32:58.432,-0.04,0.035
2021-08-19 01:32:58.436,-0.035,0.035
2021-08-19 01:32:58.440,-0.04,0.02
2021-08-19 01:32:58.444,-0.05,0.015
2021-08-19 01:32:58.448,-0.05,0.02
2021-08-19 01:32:58.452,-0.035,0.005
2021-08-19 01:32:58.456,-0.025,-0.03
2021-08-19 01:32:58.460,-0.015,-0.04
2021-08-19 01:32:58.464,-0.03,0.0
2021-08-19 01:32:58.468,-0.02,-0.005
2021-08-19 01:32:58.472,-0.02,-0.005
2021-08-19 01:32:58.476,-0.02,0.02
2021-08-19 01:32:58.480,-0.01,0.03
2021-08-19 01:32:58.484,0.01,0.015
2021-08-19 01:32:58.488,-0.005,0.025
2021-08-19 01:32:58.492,0.005,0.02
2021-08-19 01:32:58.496,0.0,0.005
2021-08-19 01:32:58.500,0.01,0.0
2021-08-19 01:32:58.504,0.02,0.015
2021-08-19 01:32:58.508,0.01,0.005
2021-08-19 01:32:58.512,0.015,0.0
2021-08-19 01:32:58.516,0.015,0.0
2021-08-19 01:32:58.520,0.02,0.015
2021-08-19 01:32:58.524,0.005,0.015
2021-08-19 01:32:58.528,0.01,0.065
2021-08-19 01:32:58.532,0.025,0.065
2021-08-19 01:32:58.536,0.035,0.08
2021-08-19 01:32:58.540,0.04,0.095
2021-08-19 01:32:58.544,0.065,0.095
2021-08-19 01:32:58.548,0.07,0.095
2021-08-19 01:32:58.552,0.075,0.085
2021-08-19 01:32:58.556,0.09,0.055
2021-08-19 01:32:58.560,0.1,0.05
2021-08-19 01:32:58.564,0.055,0.035
2021-08-19 01:32:58.568,0.035,0.05
2021-08-19 01:32:58.572,-0.02,0.04
2021-08-19 01:32:58.576,-0.05,0.085
2021-08-19 01:32:58.580,-0.065,0.1
2021-08-19 01:32:58.584,-0.06,0.13
2021-08-19 01:32:58.588,-0.055,0.12
2021-08-19 01:32:58.592,-0.065,0.145
2021-08-19 01:32:58.596,-0.05,0.14
2021-08-19 01:32:58.600,-0.06,0.13
2021-08-19 01:32:58.604,-0.06,0.125
2021-08-19 01:32:58.608,-0.01,0.13
2021-08-19 01:32:58.612,-0.02,0.115
2021-08-19 01:32:58.616,-0.005,0.14
2021-08-19 01:32:58.620,-0.03,0.125
2021-08-19 01:32:58.624,-0.02,0.13
2021-08-19 01:32:58.628,-0.02,0.135
2021-08-19 01:32:58.632,-0.005,0.14
2021-08-19 01:32:58.636,-0.01,0.145
2021-08-19 01:32:58.640,-0.01,0.13
2021-08-19 01:32:58.644,-0.01,0.125
2021-08-19 01:32:58.648,0.0,0.13
2021-08-19 01:32:58.652,0.01,0.115
2021-08-19 01:32:58.656,-0.01,0.08
2021-08-19 01:32:58.660,-0.015,0.095
2021-08-19 01:32:58.664,-0.005,0.09
2021-08-19 01:32:58.668,0.02,0.07
2021-08-19 01:32:58.672,0.015,0.05
2021-08-19 01:32:58.676,0.0,0.065
2021-08-19 01:32:58.680,-0.005,0.07
2021-08-19 01:32:58.684,0.015,0.075
2021-08-19 01:32:58.688,0.01,0.095
2021-08-19 01:32:58.692,0.005,0.1
2021-08-19 01:32:58.696,-0.02,0.09
2021-08-19 01:32:58.700,-0.005,0.055
2021-08-19 01:32:58.704,-0.005,0.045
2021-08-19 01:32:58.708,0.005,0.035
2021-08-19 01:32:58.712,0.02,0.045
2021-08-19 01:32:58.716,0.005,0.065
2021-08-19 01:32:58.720,0.015,0.09
2021-08-19 01:32:58.724,0.01,0.12
2021-08-19 01:32:58.728,-0.005,0.175
2021-08-19 01:32:58.732,-0.01,0.195
2021-08-19 01:32:58.736,0.0,0.245
2021-08-19 01:32:58.740,-0.005,0.4
2021-08-19 01:32:58.744,0.0,0.65
2021-08-19 01:32:58.748,0.015,0.935
2021-08-19 01:32:58.752,0.05,1.105
2021-08-19 01:32:58.756,0.05,1.23
2021-08-19 01:32:58.760,0.005,1.265
2021-08-19 01:32:58.764,-0.035,1.205
2021-08-19 01:32:58.768,-0.065,1.06
2021-08-19 01:32:58.772,-0.13,0.77
2021-08-19 01:32:58.776,-0.255,0.445
2021-08-19 01:32:58.780,-0.49,0.36
2021-08-19 01:32:58.784,-0.83,0.53
2021-08-19 01:32:58.788,-1.155,0.75
2021-08-19 01:32:58.792,-1.385,0.615
2021-08-19 01:32:58.796,-1.485,0.315
2021-08-19 01:32:58.800,-1.435,0.04
2021-08-19 01:32:58.804,-1.21,-0.15
2021-08-19 01:32:58.808,-0.78,-0.235
2021-08-19 01:32:58.812,-0.33,-0.205
2021-08-19 01:32:58.816,-0.05,-0.11
2021-08-19 01:32:58.820,-0.015,0.015
2021-08-19 01:32:58.824,-0.055,0.065
2021-08-19 01:32:58.828,-0.13,0.105
2021-08-19 01:32:58.832,-0.145,0.07
2021-08-19 01:32:58.836,-0.14,0.055
2021-08-19 01:32:58.840,-0.14,0.035
2021-08-19 01:32:58.844,-0.06,0.025
2021-08-19 01:32:58.848,-0.02,0.02
2021-08-19 01:32:58.852,0.04,-0.025
2021-08-19 01:32:58.856,0.08,-0.03
2021-08-19 01:32:58.860,0.07,-0.035
2021-08-19 01:32:58.864,0.09,-0.04
2021-08-19 01:32:58.868,0.065,-0.02
2021-08-19 01:32:58.872,0.08,-0.02
2021-08-19 01:32:58.876,0.07,-0.065
2021-08-19 01:32:58.880,0.115,-0.065
2021-08-19 01:32:58.884,0.09,-0.095
2021-08-19 01:32:58.888,0.1,-0.095
2021-08-19 01:32:58.892,0.12,-0.105
2021-08-19 01:32:58.896,0.13,-0.125
2021-08-19 01:32:58.900,0.115,-0.1
2021-08-19 01:32:58.904,0.12,-0.115
2021-08-19 01:32:58.908,0.115,-0.11
2021-08-19 01:32:58.912,0.13,-0.12
2021-08-19 01:32:58.916,0.105,-0.135
2021-08-19 01:32:58.920,0.095,-0.135
2021-08-19 01:32:58.924,0.085,-0.155
2021-08-19 01:32:58.928,0.125,-0.165
2021-08-19 01:32:58.932,0.13,-0.165
2021-08-19 01:32:58.936,0.12,-0.18
2021-08-19 01:32:58.940,0.115,-0.185
2021-08-19 01:32:58.944,0.135,-0.2
2021-08-19 01:32:58.948,0.125,-0.195
2021-08-19 01:32:58.952,0.11,-0.2
2021-08-19 01:32:58.956,0.105,-0.19
2021-08-19 01:32:58.960,0.1,-0.185
2021-08-19 01:32:58.964,0.085,-0.2
2021-08-19 01:32:58.968,0.095,-0.17
2021-08-19 01:32:58.972,0.08,-0.185
2021-08-19 01:32:58.976,0.065,-0.17
2021-08-19 01:32:58.980,0.085,-0.175
2021-08-19 01:32:58.984,0.085,-0.155
2021-08-19 01:32:58.988,0.07,-0.16
2021-08-19 01:32:58.992,0.06,-0.135
2021-08-19 01:32:58.996,0.075,-0.14
2021-08-19 01:32:59.000,0.08,-0.12
2021-08-19 01:32:59.004,0.06,-0.1
2021-08-19 01:32:59.008,0.08,-0.085
2021-08-19 01:32:59.012,0.105,-0.04
2021-08-19 01:32:59.016,0.09,-0.035
2021-08-19 01:32:59.020,0.11,0.0
2021-08-19 01:32:59.024,0.11,0.035
2021-08-19 01:32:59.028,0.11,0.075
2021-08-19 01:32:59.032,0.14,0.13
2021-08-19 01:32:59.036,0.135,0.135
2021-08-19 01:32:59.040,0.15,0.13
2021-08-19 01:32:59.044,0.155,0.13
2021-08-19 01:32:59.048,0.16,0.14
2021-08-19 01:32:59.052,0.17,0.13
2021-08-19 01:32:59.056,0.145,0.14
2021-08-19 01:32:59.060,0.115,0.165
2021-08-19 01:32:59.064,0.105,0.155
2021-08-19 01:32:59.068,0.075,0.16
2021-08-19 01:32:59.072,0.035,0.165
2021-08-19 01:32:59.076,0.02,0.155
2021-08-19 01:32:59.080,0.0,0.145
2021-08-19 01:32:59.084,-0.02,0.15
2021-08-19 01:32:59.088,-0.025,0.135
2021-08-19 01:32:59.092,-0.005,0.13
2021-08-19 01:32:59.096,0.0,0.12
2021-08-19 01:32:59.100,-0.015,0.105
2021-08-19 01:32:59.104,-0.03,0.075
2021-08-19 01:32:59.108,-0.005,0.075
2021-08-19 01:32:59.112,-0.015,0.065
2021-08-19 01:32:59.116,-0.01,0.065
2021-08-19 01:32:59.120,-0.005,0.075
2021-08-19 01:32:59.124,0.01,0.07
2021-08-19 01:32:59.128,0.005,0.09
2021-08-19 01:32:59.132,0.005,0.08
2021-08-19 01:32:59.136,-0.005,0.09
2021-08-19 01:32:59.140,0.01,0.05
2021-08-19 01:32:59.144,0.025,0.07
2021-08-19 01:32:59.148,0.015,0.055
2021-08-19 01:32:59.152,0.035,0.03
2021-08-19 01:32:59.156,0.04,0.03
2021-08-19 01:32:59.160,0.045,0.02
2021-08-19 01:32:59.164,0.05,0.04
2021-08-19 01:32:59.168,0.045,0.015
2021-08-19 01:32:59.172,0.07,0.01
2021-08-19 01:32:59.176,0.06,0.0
2021-08-19 01:32:59.180,0.06,-0.015
2021-08-19 01:32:59.184,0.065,-0.015
2021-08-19 01:32:59.188,0.04,-0.01
2021-08-19 01:32:59.192,0.065,-0.01
2021-08-19 01:32:59.196,0.08,0.0
2021-08-19 01:32:59.200,0.06,-0.005
2021-08-19 01:32:59.204,0.06,0.01
2021-08-19 01:32:59.208,0.06,0.0
2021-08-19 01:32:59.212,0.04,0.01
2021-08-19 01:32:59.216,0.06,0.02
2021-08-19 01:32:59.220,0.07,0.045
2021-08-19 01:32:59.224,0.06,0.045
2021-08-19 01:32:59.228,0.075,0.065
2021-08-19 01:32:59.232,0.065,0.115
2021-08-19 01:32:59.236,0.075,0.155
2021-08-19 01:32:59.240,0.11,0.175
2021-08-19 01:32:59.244,0.12,0.195
2021-08-19 01:32:59.248,0.145,0.23
2021-08-19 01:32:59.252,0.16,0.235
2021-08-19 01:32:59.256,0.16,0.235
2021-08-19 01:32:59.260,0.18,0.195
2021-08-19 01:32:59.264,0.155,0.185
2021-08-19 01:32:59.268,0.18,0.175
2021-08-19 01:32:59.272,0.17,0.17
2021-08-19 01:32:59.276,0.155,0.155
2021-08-19 01:32:59.280,0.1,0.13
2021-08-19 01:32:59.284,0.045,0.12
2021-08-19 01:32:59.288,0.005,0.08
2021-08-19 01:32:59.292,0.01,0.09
2021-08-19 01:32:59.296,0.005,0.05
2021-08-19 01:32:59.300,0.005,0.06
2021-08-19 01:32:59.304,0.02,0.055
2021-08-19 01:32:59.308,0.0,0.05
2021-08-19 01:32:59.312,0.02,0.045
2021-08-19 01:32:59.316,0.005,0.03
2021-08-19 01:32:59.320,-0.015,0.025
2021-08-19 01:32:59.324,-0.005,0.03
2021-08-19 01:32:59.328,0.01,0.025
2021-08-19 01:32:59.332,0.01,0.025
2021-08-19 01:32:59.336,0.02,0.025
2021-08-19 01:32:59.340,0.01,0.045
2021-08-19 01:32:59.344,-0.015,0.035
2021-08-19 01:32:59.348,0.01,0.035
2021-08-19 01:32:59.352,0.0,0.015
2021-08-19 01:32:59.356,0.02,-0.005
2021-08-19 01:32:59.360,0.02,-0.01
2021-08-19 01:32:59.364,0.01,-0.01
2021-08-19 01:32:59.368,0.02,-0.01
2021-08-19 01:32:59.372,0.03,-0.025
2021-08-19 01:32:59.376,0.045,-0.02
2021-08-19 01:32:59.380,0.025,-0.04
2021-08-19 01:32:59.384,0.04,-0.04
2021-08-19 01:32:59.388,0.02,-0.05
2021-08-19 01:32:59.392,0.03,-0.05
2021-08-19 01:32:59.396,0.015,-0.045
2021-08-19 01:32:59.400,0.02,-0.04
2021-08-19 01:32:59.404,0.035,-0.04
2021-08-19 01:32:59.408,0.03,-0.05
2021-08-19 01:32:59.412,0.025,-0.05
2021-08-19 01:32:59.416,0.01,-0.05
2021-08-19 01:32:59.420,0.025,-0.02
2021-08-19 01:32:59.424,0.025,-0.015
2021-08-19 01:32:59.428,0.02,0.01
2021-08-19 01:32:59.432,0.03,0.0
2021-08-19 01:32:59.436,0.015,-0.005
2021-08-19 01:32:59.440,0.02,-0.01
2021-08-19 01:32:59.444,0.025,-0.02
2021-08-19 01:32:59.448,0.03,-0.02
2021-08-19 01:32:59.452,0.035,0.005
2021-08-19 01:32:59.456,0.075,0.035
2021-08-19 01:32:59.460,0.075,0.06
2021-08-19 01:32:59.464,0.085,0.07
2021-08-19 01:32:59.468,0.105,0.11
2021-08-19 01:32:59.472,0.12,0.1
2021-08-19 01:32:59.476,0.135,0.08
2021-08-19 01:32:59.480,0.17,0.11
2021-08-19 01:32:59.484,0.16,0.11
2021-08-19 01:32:59.488,0.155,0.105
2021-08-19 01:32:59.492,0.145,0.085
2021-08-19 01:32:59.496,0.105,0.07
2021-08-19 01:32:59.500,0.07,0.075
2021-08-19 01:32:59.504,0.05,0.065
2021-08-19 01:32:59.508,0.01,0.045
2021-08-19 01:32:59.512,0.035,0.05
2021-08-19 01:32:59.516,0.035,0.04
2021-08-19 01:32:59.520,0.04,0.02
2021-08-19 01:32:59.524,0.055,0.005
2021-08-19 01:32:59.528,0.055,0.0
2021-08-19 01:32:59.532,0.04,-0.01
2021-08-19 01:32:59.536,0.03,-0.03
2021-08-19 01:32:59.540,0.055,-0.03
2021-08-19 01:32:59.544,0.06,-0.06
2021-08-19 01:32:59.548,0.05,-0.04
2021-08-19 01:32:59.552,0.08,-0.055
2021-08-19 01:32:59.556,0.055,-0.035
2021-08-19 01:32:59.560,0.045,-0.02
2021-08-19 01:32:59.564,0.045,-0.045
2021-08-19 01:32:59.568,0.08,-0.05
2021-08-19 01:32:59.572,0.06,-0.065
2021-08-19 01:32:59.576,0.075,-0.075
2021-08-19 01:32:59.580,0.08,-0.075
2021-08-19 01:32:59.584,0.09,-0.095
2021-08-19 01:32:59.588,0.08,-0.08
2021-08-19 01:32:59.592,0.075,-0.09
2021-08-19 01:32:59.596,0.09,-0.075
2021-08-19 01:32:59.600,0.11,-0.085
2021-08-19 01:32:59.604,0.1,-0.075
2021-08-19 01:32:59.608,0.075,-0.08
2021-08-19 01:32:59.612,0.09,-0.08
2021-08-19 01:32:59.616,0.09,-0.085
2021-08-19 01:32:59.620,0.075,-0.075
2021-08-19 01:32:59.624,0.1,-0.08
2021-08-19 01:32:59.628,0.09,-0.075
2021-08-19 01:32:59.632,0.1,-0.06
2021-08-19 01:32:59.636,0.08,-0.055
2021-08-19 01:32:59.640,0.085,-0.08
2021-08-19 01:32:59.644,0.095,-0.075
2021-08-19 01:32:59.648,0.08,-0.07
2021-08-19 01:32:59.652,0.075,-0.06
2021-08-19 01:32:59.656,0.1,-0.03
2021-08-19 01:32:59.660,0.095,-0.025
2021-08-19 01:32:59.664,0.09,0.005
2021-08-19 01:32:59.668,0.075,0.005
2021-08-19 01:32:59.672,0.095,0.01
2021-08-19 01:32:59.676,0.045,0.03
2021-08-19 01:32:59.680,0.095,0.05
2021-08-19 01:32:59.684,0.095,0.07
2021-08-19 01:32:59.688,0.125,0.1
2021-08-19 01:32:59.692,0.15,0.115
2021-08-19 01:32:59.696,0.165,0.11
2021-08-19 01:32:59.700,0.175,0.12
2021-08-19 01:32:59.704,0.19,0.125
2021-08-19 01:32:59.708,0.185,0.115
2021-08-19 01:32:59.712,0.155,0.085
2021-08-19 01:32:59.716,0.11,0.08
2021-08-19 01:32:59.720,0.07,0.08
2021-08-19 01:32:59.724,0.045,0.09
2021-08-19 01:32:59.728,0.045,0.08
2021-08-19 01:32:59.732,0.025,0.09
2021-08-19 01:32:59.736,0.07,0.065
2021-08-19 01:32:59.740,0.05,0.05
2021-08-19 01:32:59.744,0.065,0.05
2021-08-19 01:32:59.748,0.05,0.02
2021-08-19 01:32:59.752,0.05,0.03
2021-08-19 01:32:59.756,0.08,0.02
2021-08-19 01:32:59.760,0.07,0.01
2021-08-19 01:32:59.764,0.06,0.0
2021-08-19 01:32:59.768,0.05,0.03
2021-08-19 01:32:59.772,0.055,0.03
2021-08-19 01:32:59.776,0.06,0.03
2021-08-19 01:32:59.780,0.05,0.02
2021-08-19 01:32:59.784,0.06,0.01
2021-08-19 01:32:59.788,0.055,0.0
2021-08-19 01:32:59.792,0.075,-0.01
2021-08-19 01:32:59.796,0.075,-0.03
2021-08-19 01:32:59.800,0.1,-0.03
2021-08-19 01:32:59.804,0.09,-0.02
2021-08-19 01:32:59.808,0.075,-0.025
2021-08-19 01:32:59.812,0.095,-0.06
2021-08-19 01:32:59.816,0.1,-0.07
2021-08-19 01:32:59.820,0.075,-0.07
2021-08-19 01:32:59.824,0.07,-0.07
2021-08-19 01:32:59.828,0.075,-0.065
2021-08-19 01:32:59.832,0.065,-0.075
2021-08-19 01:32:59.836,0.055,-0.08
2021-08-19 01:32:59.840,0.055,-0.085
2021-08-19 01:32:59.844,0.06,-0.06
2021-08-19 01:32:59.848,0.055,-0.06
2021-08-19 01:32:59.852,0.05,-0.06
2021-08-19 01:32:59.856,0.045,-0.01
2021-08-19 01:32:59.860,0.04,-0.02
2021-08-19 01:32:59.864,0.05,-0.04
2021-08-19 01:32:59.868,0.04,-0.01
2021-08-19 01:32:59.872,0.04,-0.01
2021-08-19 01:32:59.876,0.06,-0.035
2021-08-19 01:32:59.880,0.075,-0.05
2021-08-19 01:32:59.884,0.085,-0.045
2021-08-19 01:32:59.888,0.105,-0.05
2021-08-19 01:32:59.892,0.1,-0.055
2021-08-19 01:32:59.896,0.115,-0.025
2021-08-19 01:32:59.900,0.095,-0.03
2021-08-19 01:32:59.904,0.085,-0.015
2021-08-19 01:32:59.908,0.105,0.015
2021-08-19 01:32:59.912,0.12,0.05
2021-08-19 01:32:59.916,0.125,0.07
2021-08-19 01:32:59.920,0.155,0.08
2021-08-19 01:32:59.924,0.175,0.09
2021-08-19 01:32:59.928,0.185,0.075
2021-08-19 01:32:59.932,0.17,0.075
2021-08-19 01:32:59.936,0.145,0.035
2021-08-19 01:32:59.940,0.115,0.03
2021-08-19 01:32:59.944,0.08,0.03
2021-08-19 01:32:59.948,0.055,0.035
2021-08-19 01:32:59.952,0.045,0.01
2021-08-19 01:32:59.956,0.04,-0.005
2021-08-19 01:32:59.960,0.03,0.0
2021-08-19 01:32:59.964,0.03,-0.025
2021-08-19 01:32:59.968,0.03,-0.025
2021-08-19 01:32:59.972,0.05,-0.03
2021-08-19 01:32:59.976,0.06,-0.045
2021-08-19 01:32:59.980,0.04,-0.025
2021-08-19 01:32:59.984,0.04,-0.005
2021-08-19 01:32:59.988,0.04,-0.005
2021-08-19 01:32:59.992,0.04,-0.005
2021-08-19 01:32:59.996,0.04,0.0
2021-08-19 01:33:00.000,0.06,-0.015
2021-08-19 01:33:00.004,0.05,0.0
2021-08-19 01:33:00.008,0.06,0.02
2021-08-19 01:33:00.012,0.085,0.065
2021-08-19 01:33:00.016,0.09,0.075
2021-08-19 01:33:00.020,0.085,0.09
2021-08-19 01:33:00.024,0.08,0.2
2021-08-19 01:33:00.028,0.06,0.435
2021-08-19 01:33:00.032,0.085,0.65
2021-08-19 01:33:00.036,0.125,0.82
2021-08-19 01:33:00.040,0.12,0.89
2021-08-19 01:33:00.044,0.065,0.91
2021-08-19 01:33:00.048,0.03,0.875
2021-08-19 01:33:00.052,-0.035,0.785
2021-08-19 01:33:00.056,-0.065,0.62
2021-08-19 01:33:00.060,-0.15,0.35
2021-08-19 01:33:00.064,-0.38,0.17
2021-08-19 01:33:00.068,-0.685,0.295
2021-08-19 01:33:00.072,-1.035,0.52
2021-08-19 01:33:00.076,-1.305,0.55
2021-08-19 01:33:00.080,-1.445,0.28
2021-08-19 01:33:00.084,-1.45,-0.065
2021-08-19 01:33:00.088,-1.32,-0.335
2021-08-19 01:33:00.092,-0.955,-0.505
2021-08-19 01:33:00.096,-0.455,-0.55
2021-08-19 01:33:00.100,-0.13,-0.48
2021-08-19 01:33:00.104,0.0,-0.345
2021-08-19 01:33:00.108,-0.005,-0.22
2021-08-19 01:33:00.112,-0.05,-0.17
2021-08-19 01:33:00.116,-0.065,-0.15
2021-08-19 01:33:00.120,-0.08,-0.155
2021-08-19 01:33:00.124,-0.035,-0.145
2021-08-19 01:33:00.128,0.0,-0.125
2021-08-19 01:33:00.132,0.075,-0.115
2021-08-19 01:33:00.136,0.155,-0.095
2021-08-19 01:33:00.140,0.205,-0.07
2021-08-19 01:33:00.144,0.255,-0.06
2021-08-19 01:33:00.148,0.305,-0.04
2021-08-19 01:33:00.152,0.28,-0.045
2021-08-19 01:33:00.156,0.29,-0.05
2021-08-19 01:33:00.160,0.3,-0.045
2021-08-19 01:33:00.164,0.29,-0.05
2021-08-19 01:33:00.168,0.275,-0.08
2021-08-19 01:33:00.172,0.25,-0.11
2021-08-19 01:33:00.176,0.235,-0.11
2021-08-19 01:33:00.180,0.17,-0.15
2021-08-19 01:33:00.184,0.15,-0.165
2021-08-19 01:33:00.188,0.15,-0.17
2021-08-19 01:33:00.192,0.15,-0.175
2021-08-19 01:33:00.196,0.155,-0.15
2021-08-19 01:33:00.200,0.155,-0.16
2021-08-19 01:33:00.204,0.145,-0.16
2021-08-19 01:33:00.208,0.14,-0.165
2021-08-19 01:33:00.212,0.16,-0.195
2021-08-19 01:33:00.216,0.15,-0.205
2021-08-19 01:33:00.220,0.15,-0.22
2021-08-19 01:33:00.224,0.175,-0.225
2021-08-19 01:33:00.228,0.16,-0.23
2021-08-19 01:33:00.232,0.155,-0.22
2021-08-19 01:33:00.236,0.155,-0.235
2021-08-19 01:33:00.240,0.15,-0.235
2021-08-19 01:33:00.244,0.13,-0.24
2021-08-19 01:33:00.248,0.13,-0.265
2021-08-19 01:33:00.252,0.15,-0.29
2021-08-19 01:33:00.256,0.12,-0.315
2021-08-19 01:33:00.260,0.145,-0.325
2021-08-19 01:33:00.264,0.125,-0.33
2021-08-19 01:33:00.268,0.135,-0.32
2021-08-19 01:33:00.272,0.14,-0.345
2021-08-19 01:33:00.276,0.14,-0.34
2021-08-19 01:33:00.280,0.12,-0.33
2021-08-19 01:33:00.284,0.11,-0.335
2021-08-19 01:33:00.288,0.12,-0.325
2021-08-19 01:33:00.292,0.125,-0.34
2021-08-19 01:33:00.296,0.115,-0.345
2021-08-19 01:33:00.300,0.12,-0.35
2021-08-19 01:33:00.304,0.115,-0.345
2021-08-19 01:33:00.308,0.115,-0.345
2021-08-19 01:33:00.312,0.115,-0.32
2021-08-19 01:33:00.316,0.11,-0.34
2021-08-19 01:33:00.320,0.115,-0.33
2021-08-19 01:33:00.324,0.12,-0.32
2021-08-19 01:33:00.328,0.115,-0.285
2021-08-19 01:33:00.332,0.11,-0.3
2021-08-19 01:33:00.336,0.1,-0.25
2021-08-19 01:33:00.340,0.075,-0.26
2021-08-19 01:33:00.344,0.085,-0.245
2021-08-19 01:33:00.348,0.085,-0.205
2021-08-19 01:33:00.352,0.075,-0.18
2021-08-19 01:33:00.356,0.11,-0.175
2021-08-19 01:33:00.360,0.11,-0.15
2021-08-19 01:33:00.364,0.11,-0.13
2021-08-19 01:33:00.368,0.11,-0.11
2021-08-19 01:33:00.372,0.11,-0.1
2021-08-19 01:33:00.376,0.11,-0.09
2021-08-19 01:33:00.380,0.11,-0.07
2021-08-19 01:33:00.384,0.13,-0.035
2021-08-19 01:33:00.388,0.11,-0.03
2021-08-19 01:33:00.392,0.08,-0.02
2021-08-19 01:33:00.396,0.045,-0.03
2021-08-19 01:33:00.400,0.01,-0.05
2021-08-19 01:33:00.404,-0.015,-0.045
2021-08-19 01:33:00.408,-0.01,-0.05
2021-08-19 01:33:00.412,-0.02,-0.065
2021-08-19 01:33:00.416,-0.015,-0.05
2021-08-19 01:33:00.420,-0.02,-0.045
2021-08-19 01:33:00.424,-0.01,-0.025
2021-08-19 01:33:00.428,-0.005,0.0
2021-08-19 01:33:00.432,0.0,0.0
2021-08-19 01:33:00.436,0.0,-0.005
2021-08-19 01:33:00.440,0.015,0.0
2021-08-19 01:33:00.444,0.02,-0.005
2021-08-19 01:33:00.448,0.055,-0.035
2021-08-19 01:33:00.452,0.06,-0.045
2021-08-19 01:33:00.456,0.07,-0.03
2021-08-19 01:33:00.460,0.085,-0.035
2021-08-19 01:33:00.464,0.075,-0.04
2021-08-19 01:33:00.468,0.08,-0.04
2021-08-19 01:33:00.472,0.09,-0.035
2021-08-19 01:33:00.476,0.095,-0.03
2021-08-19 01:33:00.480,0.11,-0.025
2021-08-19 01:33:00.484,0.12,-0.04
2021-08-19 01:33:00.488,0.13,-0.05
2021-08-19 01:33:00.492,0.125,-0.07
2021-08-19 01:33:00.496,0.12,-0.075
2021-08-19 01:33:00.500,0.13,-0.085
2021-08-19 01:33:00.504,0.15,-0.08
2021-08-19 01:33:00.508,0.155,-0.095
2021-08-19 01:33:00.512,0.13,-0.08
2021-08-19 01:33:00.516,0.135,-0.09
2021-08-19 01:33:00.520,0.13,-0.085
2021-08-19 01:33:00.524,0.14,-0.07
2021-08-19 01:33:00.528,0.135,-0.075
2021-08-19 01:33:00.532,0.13,-0.075
2021-08-19 01:33:00.536,0.135,-0.1
2021-08-19 01:33:00.540,0.13,-0.115
2021-08-19 01:33:00.544,0.12,-0.105
2021-08-19 01:33:00.548,0.13,-0.1
2021-08-19 01:33:00.552,0.12,-0.105
2021-08-19 01:33:00.556,0.12,-0.105
2021-08-19 01:33:00.560,0.15,-0.09
2021-08-19 01:33:00.564,0.13,-0.12
2021-08-19 01:33:00.568,0.14,-0.13
2021-08-19 01:33:00.572,0.12,-0.125
2021-08-19 01:33:00.576,0.13,-0.13
2021-08-19 01:33:00.580,0.15,-0.115
2021-08-19 01:33:00.584,0.14,-0.12
2021-08-19 01:33:00.588,0.15,-0.1
2021-08-19 01:33:00.592,0.165,-0.085
2021-08-19 01:33:00.596,0.17,-0.095
2021-08-19 01:33:00.600,0.155,-0.08
2021-08-19 01:33:00.604,0.175,-0.09
2021-08-19 01:33:00.608,0.18,-0.105
2021-08-19 01:33:00.612,0.155,-0.1
2021-08-19 01:33:00.616,0.125,-0.13
2021-08-19 01:33:00.620,0.1,-0.155
2021-08-19 01:33:00.624,0.065,-0.145
2021-08-19 01:33:00.628,0.015,-0.15
2021-08-19 01:33:00.632,0.02,-0.185
2021-08-19 01:33:00.636,0.0,-0.19
2021-08-19 01:33:00.640,0.025,-0.195
2021-08-19 01:33:00.644,0.005,-0.18
2021-08-19 01:33:00.648,0.02,-0.17
2021-08-19 01:33:00.652,0.02,-0.18
2021-08-19 01:33:00.656,0.035,-0.175
2021-08-19 01:33:00.660,0.05,-0.18
2021-08-19 01:33:00.664,0.05,-0.185
2021-08-19 01:33:00.668,0.05,-0.155
2021-08-19 01:33:00.672,0.065,-0.17
2021-08-19 01:33:00.676,0.07,-0.165
2021-08-19 01:33:00.680,0.075,-0.15
2021-08-19 01:33:00.684,0.075,-0.13
2021-08-19 01:33:00.688,0.06,-0.14
2021-08-19 01:33:00.692,0.075,-0.145
2021-08-19 01:33:00.696,0.08,-0.15
2021-08-19 01:33:00.700,0.06,-0.14
2021-08-19 01:33:00.704,0.075,-0.15
2021-08-19 01:33:00.708,0.07,-0.165
2021-08-19 01:33:00.712,0.07,-0.155
2021-08-19 01:33:00.716,0.07,-0.16
2021-08-19 01:33:00.720,0.08,-0.16
2021-08-19 01:33:00.724,0.1,-0.19
2021-08-19 01:33:00.728,0.075,-0.175
2021-08-19 01:33:00.732,0.09,-0.2
2021-08-19 01:33:00.736,0.065,-0.2
2021-08-19 01:33:00.740,0.09,-0.215
2021-08-19 01:33:00.744,0.095,-0.22
2021-08-19 01:33:00.748,0.075,-0.215
2021-08-19 01:33:00.752,0.07,-0.19
2021-08-19 01:33:00.756,0.075,-0.215
2021-08-19 01:33:00.760,0.06,-0.175
2021-08-19 01:33:00.764,0.07,-0.18
2021-08-19 01:33:00.768,0.08,-0.125
2021-08-19 01:33:00.772,0.075,-0.065
2021-08-19 01:33:00.776,0.085,-0.05
2021-08-19 01:33:00.780,0.09,-0.015
2021-08-19 01:33:00.784,0.09,0.11
2021-08-19 01:33:00.788,0.1,0.33
2021-08-19 01:33:00.792,0.11,0.535
2021-08-19 01:33:00.796,0.14,0.655
2021-08-19 01:33:00.800,0.135,0.705
2021-08-19 01:33:00.804,0.1,0.67
2021-08-19 01:33:00.808,0.06,0.63
2021-08-19 01:33:00.812,0.07,0.545
2021-08-19 01:33:00.816,0.015,0.32
2021-08-19 01:33:00.820,-0.145,0.14
2021-08-19 01:33:00.824,-0.39,0.155
2021-08-19 01:33:00.828,-0.705,0.345
2021-08-19 01:33:00.832,-1.04,0.435
2021-08-19 01:33:00.836,-1.275,0.25
2021-08-19 01:33:00.840,-1.38,-0.11
2021-08-19 01:33:00.844,-1.325,-0.39
2021-08-19 01:33:00.848,-1.04,-0.59
2021-08-19 01:33:00.852,-0.63,-0.65
2021-08-19 01:33:00.856,-0.225,-0.6
2021-08-19 01:33:00.860,-0.05,-0.48
2021-08-19 01:33:00.864,-0.065,-0.385
2021-08-19 01:33:00.868,-0.08,-0.355
2021-08-19 01:33:00.872,-0.08,-0.36
2021-08-19 01:33:00.876,-0.105,-0.38
2021-08-19 01:33:00.880,-0.075,-0.385
2021-08-19 01:33:00.884,-0.01,-0.4
2021-08-19 01:33:00.888,0.04,-0.4
2021-08-19 01:33:00.892,0.115,-0.39
2021-08-19 01:33:00.896,0.125,-0.365
2021-08-19 01:33:00.900,0.13,-0.38
2021-08-19 01:33:00.904,0.135,-0.38
2021-08-19 01:33:00.908,0.14,-0.395
2021-08-19 01:33:00.912,0.15,-0.39
2021-08-19 01:33:00.916,0.145,-0.395
2021-08-19 01:33:00.920,0.165,-0.425
2021-08-19 01:33:00.924,0.155,-0.4
2021-08-19 01:33:00.928,0.185,-0.41
2021-08-19 01:33:00.932,0.18,-0.395
2021-08-19 01:33:00.936,0.19,-0.405
2021-08-19 01:33:00.940,0.185,-0.425
2021-08-19 01:33:00.944,0.18,-0.43
2021-08-19 01:33:00.948,0.2,-0.43
2021-08-19 01:33:00.952,0.17,-0.425
2021-08-19 01:33:00.956,0.2,-0.43
2021-08-19 01:33:00.960,0.2,-0.43
2021-08-19 01:33:00.964,0.21,-0.455
2021-08-19 01:33:00.968,0.225,-0.45
2021-08-19 01:33:00.972,0.19,-0.48
2021-08-19 01:33:00.976,0.18,-0.5
2021-08-19 01:33:00.980,0.2,-0.51
2021-08-19 01:33:00.984,0.22,-0.49
2021-08-19 01:33:00.988,0.205,-0.51
2021-08-19 01:33:00.992,0.215,-0.5
2021-08-19 01:33:00.996,0.21,-0.51
2021-08-19 01:33:01.000,0.19,-0.49
2021-08-19 01:33:01.004,0.185,-0.51
2021-08-19 01:33:01.008,0.18,-0.525
2021-08-19 01:33:01.012,0.175,-0.52
2021-08-19 01:33:01.016,0.19,-0.55
2021-08-19 01:33:01.020,0.185,-0.535
2021-08-19 01:33:01.024,0.19,-0.52
2021-08-19 01:33:01.028,0.19,-0.49
2021-08-19 01:33:01.032,0.205,-0.505
2021-08-19 01:33:01.036,0.215,-0.49
2021-08-19 01:33:01.040,0.23,-0.495
2021-08-19 01:33:01.044,0.23,-0.49
2021-08-19 01:33:01.048,0.23,-0.505
2021-08-19 01:33:01.052,0.225,-0.495
2021-08-19 01:33:01.056,0.265,-0.5
2021-08-19 01:33:01.060,0.275,-0.49
2021-08-19 01:33:01.064,0.245,-0.465
2021-08-19 01:33:01.068,0.23,-0.465
2021-08-19 01:33:01.072,0.205,-0.415
2021-08-19 01:33:01.076,0.205,-0.4
2021-08-19 01:33:01.080,0.15,-0.41
2021-08-19 01:33:01.084,0.12,-0.41
2021-08-19 01:33:01.088,0.07,-0.41
2021-08-19 01:33:01.092,0.07,-0.41
2021-08-19 01:33:01.096,0.09,-0.41
2021-08-19 01:33:01.100,0.07,-0.395
2021-08-19 01:33:01.104,0.08,-0.39
2021-08-19 01:33:01.108,0.05,-0.345
2021-08-19 01:33:01.112,0.06,-0.34
2021-08-19 01:33:01.116,0.065,-0.315
2021-08-19 01:33:01.120,0.055,-0.31
2021-08-19 01:33:01.124,0.01,-0.3
2021-08-19 01:33:01.128,0.015,-0.3
2021-08-19 01:33:01.132,0.045,-0.29
2021-08-19 01:33:01.136,0.045,-0.28
2021-08-19 01:33:01.140,0.055,-0.285
2021-08-19 01:33:01.144,0.05,-0.31
2021-08-19 01:33:01.148,0.09,-0.32
2021-08-19 01:33:01.152,0.08,-0.325
2021-08-19 01:33:01.156,0.095,-0.33
2021-08-19 01:33:01.160,0.095,-0.325
2021-08-19 01:33:01.164,0.095,-0.33
2021-08-19 01:33:01.168,0.1,-0.33
2021-08-19 01:33:01.172,0.085,-0.35
2021-08-19 01:33:01.176,0.08,-0.345
2021-08-19 01:33:01.180,0.095,-0.35
2021-08-19 01:33:01.184,0.115,-0.365
2021-08-19 01:33:01.188,0.095,-0.38
2021-08-19 01:33:01.192,0.1,-0.39
2021-08-19 01:33:01.196,0.115,-0.365
2021-08-19 01:33:01.200,0.11,-0.38
2021-08-19 01:33:01.204,0.105,-0.385
2021-08-19 01:33:01.208,0.105,-0.39
2021-08-19 01:33:01.212,0.11,-0.39
2021-08-19 01:33:01.216,0.115,-0.39
2021-08-19 01:33:01.220,0.125,-0.37
2021-08-19 01:33:01.224,0.095,-0.37
2021-08-19 01:33:01.228,0.115,-0.375
2021-08-19 01:33:01.232,0.105,-0.365
2021-08-19 01:33:01.236,0.1,-0.385
2021-08-19 01:33:01.240,0.1,-0.405
2021-08-19 01:33:01.244,0.11,-0.42
2021-08-19 01:33:01.248,0.085,-0.425
2021-08-19 01:33:01.252,0.095,-0.42
2021-08-19 01:33:01.256,0.11,-0.41
2021-08-19 01:33:01.260,0.115,-0.42
2021-08-19 01:33:01.264,0.13,-0.43
2021-08-19 01:33:01.268,0.17,-0.42
2021-08-19 01:33:01.272,0.14,-0.42
2021-08-19 01:33:01.276,0.17,-0.39
2021-08-19 01:33:01.280,0.17,-0.395
2021-08-19 01:33:01.284,0.19,-0.39
2021-08-19 01:33:01.288,0.17,-0.385
2021-08-19 01:33:01.292,0.16,-0.395
2021-08-19 01:33:01.296,0.13,-0.4
2021-08-19 01:33:01.300,0.09,-0.4
2021-08-19 01:33:01.304,0.055,-0.415
2021-08-19 01:33:01.308,0.045,-0.405
2021-08-19 01:33:01.312,0.045,-0.42
2021-08-19 01:33:01.316,0.065,-0.405
2021-08-19 01:33:01.320,0.055,-0.41
2021-08-19 01:33:01.324,0.04,-0.41
2021-08-19 01:33:01.328,0.04,-0.41
2021-08-19 01:33:01.332,0.055,-0.415
2021-08-19 01:33:01.336,0.05,-0.4
2021-08-19 01:33:01.340,0.055,-0.405
2021-08-19 01:33:01.344,0.045,-0.39
2021-08-19 01:33:01.348,0.055,-0.395
2021-08-19 01:33:01.352,0.06,-0.39
2021-08-19 01:33:01.356,0.075,-0.38
2021-08-19 01:33:01.360,0.085,-0.395
2021-08-19 01:33:01.364,0.065,-0.405
2021-08-19 01:33:01.368,0.1,-0.415
2021-08-19 01:33:01.372,0.09,-0.395
2021-08-19 01:33:01.376,0.08,-0.405
2021-08-19 01:33:01.380,0.075,-0.405
2021-08-19 01:33:01.384,0.07,-0.395
2021-08-19 01:33:01.388,0.08,-0.4
2021-08-19 01:33:01.392,0.08,-0.415
2021-08-19 01:33:01.396,0.075,-0.41
2021-08-19 01:33:01.400,0.09,-0.41
2021-08-19 01:33:01.404,0.08,-0.4
2021-08-19 01:33:01.408,0.1,-0.425
2021-08-19 01:33:01.412,0.08,-0.415
2021-08-19 01:33:01.416,0.1,-0.435
2021-08-19 01:33:01.420,0.09,-0.435
2021-08-19 01:33:01.424,0.095,-0.425
2021-08-19 01:33:01.428,0.08,-0.435
2021-08-19 01:33:01.432,0.08,-0.425
2021-08-19 01:33:01.436,0.105,-0.425
2021-08-19 01:33:01.440,0.085,-0.425
2021-08-19 01:33:01.444,0.075,-0.42
2021-08-19 01:33:01.448,0.09,-0.41
2021-08-19 01:33:01.452,0.09,-0.4
2021-08-19 01:33:01.456,0.08,-0.39
2021-08-19 01:33:01.460,0.075,-0.42
2021-08-19 01:33:01.464,0.07,-0.42
2021-08-19 01:33:01.468,0.095,-0.41
2021-08-19 01:33:01.472,0.115,-0.43
2021-08-19 01:33:01.476,0.11,-0.43
2021-08-19 01:33:01.480,0.11,-0.4
2021-08-19 01:33:01.484,0.12,-0.34
2021-08-19 01:33:01.488,0.15,-0.32
2021-08-19 01:33:01.492,0.14,-0.3
2021-08-19 01:33:01.496,0.175,-0.27
2021-08-19 01:33:01.500,0.185,-0.25
2021-08-19 01:33:01.504,0.215,-0.275
2021-08-19 01:33:01.508,0.24,-0.32
2021-08-19 01:33:01.512,0.235,-0.305
2021-08-19 01:33:01.516,0.22,-0.31
2021-08-19 01:33:01.520,0.205,-0.32
2021-08-19 01:33:01.524,0.15,-0.33
2021-08-19 01:33:01.528,0.105,-0.335
2021-08-19 01:33:01.532,0.085,-0.315
2021-08-19 01:33:01.536,0.08,-0.315
2021-08-19 01:33:01.540,0.06,-0.32
2021-08-19 01:33:01.544,0.075,-0.31
2021-08-19 01:33:01.548,0.07,-0.305
2021-08-19 01:33:01.552,0.075,-0.315
2021-08-19 01:33:01.556,0.065,-0.315
2021-08-19 01:33:01.560,0.095,-0.3
2021-08-19 01:33:01.564,0.095,-0.29
2021-08-19 01:33:01.568,0.11,-0.29
2021-08-19 01:33:01.572,0.1,-0.3
2021-08-19 01:33:01.576,0.095,-0.305
2021-08-19 01:33:01.580,0.135,-0.295
2021-08-19 01:33:01.584,0.12,-0.3
2021-08-19 01:33:01.588,0.115,-0.31
2021-08-19 01:33:01.592,0.095,-0.29
2021-08-19 01:33:01.596,0.125,-0.29
2021-08-19 01:33:01.600,0.12,-0.3
2021-08-19 01:33:01.604,0.125,-0.31
2021-08-19 01:33:01.608,0.12,-0.295
2021-08-19 01:33:01.612,0.14,-0.335
2021-08-19 01:33:01.616,0.11,-0.34
2021-08-19 01:33:01.620,0.13,-0.335
2021-08-19 01:33:01.624,0.13,-0.345
2021-08-19 01:33:01.628,0.135,-0.375
2021-08-19 01:33:01.632,0.12,-0.365
2021-08-19 01:33:01.636,0.125,-0.37
2021-08-19 01:33:01.640,0.125,-0.37
2021-08-19 01:33:01.644,0.13,-0.38
2021-08-19 01:33:01.648,0.115,-0.39
2021-08-19 01:33:01.652,0.125,-0.395
2021-08-19 01:33:01.656,0.135,-0.375
2021-08-19 01:33:01.660,0.12,-0.375
2021-08-19 01:33:01.664,0.105,-0.375
2021-08-19 01:33:01.668,0.11,-0.365
2021-08-19 01:33:01.672,0.105,-0.355
2021-08-19 01:33:01.676,0.085,-0.355
2021-08-19 01:33:01.680,0.095,-0.32
2021-08-19 01:33:01.684,0.1,-0.32
2021-08-19 01:33:01.688,0.105,-0.285
2021-08-19 01:33:01.692,0.09,-0.28
2021-08-19 01:33:01.696,0.09,-0.23
2021-08-19 01:33:01.700,0.115,-0.185
2021-08-19 01:33:01.704,0.115,-0.155
2021-08-19 01:33:01.708,0.1,-0.11
2021-08-19 01:33:01.712,0.105,0.045
2021-08-19 01:33:01.716,0.105,0.3
2021-08-19 01:33:01.720,0.125,0.575
2021-08-19 01:33:01.724,0.16,0.765
2021-08-19 01:33:01.728,0.175,0.87
2021-08-19 01:33:01.732,0.13,0.945
2021-08-19 01:33:01.736,0.07,0.905
2021-08-19 01:33:01.740,0.095,0.76
2021-08-19 01:33:01.744,0.1,0.49
2021-08-19 01:33:01.748,0.005,0.18
2021-08-19 01:33:01.752,-0.195,0.125
2021-08-19 01:33:01.756,-0.495,0.245
2021-08-19 01:33:01.760,-0.8,0.335
2021-08-19 01:33:01.764,-1.06,0.14
2021-08-19 01:33:01.768,-1.195,-0.225
2021-08-19 01:33:01.772,-1.175,-0.53
2021-08-19 01:33:01.776,-0.935,-0.725
2021-08-19 01:33:01.780,-0.525,-0.78
2021-08-19 01:33:01.784,-0.15,-0.755
2021-08-19 01:33:01.788,0.02,-0.62
2021-08-19 01:33:01.792,0.015,-0.54
2021-08-19 01:33:01.796,-0.005,-0.475
2021-08-19 01:33:01.800,-0.015,-0.48
2021-08-19 01:33:01.804,-0.025,-0.485
2021-08-19 01:33:01.808,0.0,-0.48
2021-08-19 01:33:01.812,0.045,-0.475
2021-08-19 01:33:01.816,0.105,-0.485
2021-08-19 01:33:01.820,0.14,-0.49
2021-08-19 01:33:01.824,0.19,-0.48
2021-08-19 01:33:01.828,0.205,-0.51
2021-08-19 01:33:01.832,0.2,-0.5
2021-08-19 01:33:01.836,0.215,-0.515
2021-08-19 01:33:01.840,0.205,-0.53
2021-08-19 01:33:01.844,0.195,-0.515
2021-08-19 01:33:01.848,0.23,-0.515
2021-08-19 01:33:01.852,0.195,-0.53
2021-08-19 01:33:01.856,0.21,-0.52
2021-08-19 01:33:01.860,0.205,-0.515
2021-08-19 01:33:01.864,0.205,-0.52
2021-08-19 01:33:01.868,0.205,-0.515
2021-08-19 01:33:01.872,0.2,-0.495
2021-08-19 01:33:01.876,0.235,-0.495
2021-08-19 01:33:01.880,0.21,-0.51
2021-08-19 01:33:01.884,0.21,-0.505
2021-08-19 01:33:01.888,0.2,-0.515
2021-08-19 01:33:01.892,0.21,-0.525
2021-08-19 01:33:01.896,0.205,-0.53
2021-08-19 01:33:01.900,0.215,-0.52
2021-08-19 01:33:01.904,0.19,-0.495
2021-08-19 01:33:01.908,0.195,-0.5
2021-08-19 01:33:01.912,0.22,-0.48
2021-08-19 01:33:01.916,0.195,-0.46
2021-08-19 01:33:01.920,0.205,-0.465
2021-08-19 01:33:01.924,0.23,-0.455
2021-08-19 01:33:01.928,0.21,-0.445
2021-08-19 01:33:01.932,0.22,-0.435
2021-08-19 01:33:01.936,0.2,-0.44
2021-08-19 01:33:01.940,0.22,-0.425
2021-08-19 01:33:01.944,0.24,-0.42
2021-08-19 01:33:01.948,0.25,-0.405
2021-08-19 01:33:01.952,0.24,-0.37
2021-08-19 01:33:01.956,0.25,-0.35
2021-08-19 01:33:01.960,0.24,-0.34
2021-08-19 01:33:01.964,0.265,-0.35
2021-08-19 01:33:01.968,0.265,-0.335
2021-08-19 01:33:01.972,0.265,-0.335
2021-08-19 01:33:01.976,0.28,-0.325
2021-08-19 01:33:01.980,0.29,-0.305
2021-08-19 01:33:01.984,0.295,-0.315
2021-08-19 01:33:01.988,0.31,-0.315
2021-08-19 01:33:01.992,0.315,-0.305
2021-08-19 01:33:01.996,0.305,-0.33
2021-08-19 01:33:02.000,0.31,-0.36
2021-08-19 01:33:02.004,0.335,-0.375
2021-08-19 01:33:02.008,0.3,-0.4
2021-08-19 01:33:02.012,0.255,-0.4
2021-08-19 01:33:02.016,0.225,-0.385
2021-08-19 01:33:02.020,0.19,-0.4
2021-08-19 01:33:02.024,0.15,-0.395
2021-08-19 01:33:02.028,0.145,-0.385
2021-08-19 01:33:02.032,0.115,-0.395
2021-08-19 01:33:02.036,0.115,-0.365
2021-08-19 01:33:02.040,0.115,-0.345
2021-08-19 01:33:02.044,0.105,-0.35
2021-08-19 01:33:02.048,0.105,-0.33
2021-08-19 01:33:02.052,0.085,-0.335
2021-08-19 01:33:02.056,0.075,-0.33
2021-08-19 01:33:02.060,0.085,-0.325
2021-08-19 01:33:02.064,0.08,-0.305
2021-08-19 01:33:02.068,0.075,-0.305
2021-08-19 01:33:02.072,0.09,-0.295
2021-08-19 01:33:02.076,0.095,-0.295
2021-08-19 01:33:02.080,0.065,-0.27
2021-08-19 01:33:02.084,0.075,-0.265
2021-08-19 01:33:02.088,0.07,-0.26
2021-08-19 01:33:02.092,0.075,-0.235
2021-08-19 01:33:02.096,0.105,-0.255
2021-08-19 01:33:02.100,0.095,-0.265
2021-08-19 01:33:02.104,0.09,-0.27
2021-08-19 01:33:02.108,0.095,-0.265
2021-08-19 01:33:02.112,0.115,-0.26
2021-08-19 01:33:02.116,0.115,-0.25
2021-08-19 01:33:02.120,0.105,-0.25
2021-08-19 01:33:02.124,0.11,-0.24
2021-08-19 01:33:02.128,0.115,-0.235
2021-08-19 01:33:02.132,0.11,-0.25
2021-08-19 01:33:02.136,0.11,-0.22
2021-08-19 01:33:02.140,0.125,-0.21
2021-08-19 01:33:02.144,0.125,-0.2
2021-08-19 01:33:02.148,0.13,-0.205
2021-08-19 01:33:02.152,0.145,-0.21
2021-08-19 01:33:02.156,0.12,-0.2
2021-08-19 01:33:02.160,0.14,-0.195
2021-08-19 01:33:02.164,0.155,-0.195
2021-08-19 01:33:02.168,0.155,-0.19
2021-08-19 01:33:02.172,0.17,-0.185
2021-08-19 01:33:02.176,0.145,-0.17
2021-08-19 01:33:02.180,0.155,-0.155
2021-08-19 01:33:02.184,0.17,-0.14
2021-08-19 01:33:02.188,0.19,-0.105
2021-08-19 01:33:02.192,0.165,-0.065
2021-08-19 01:33:02.196,0.165,-0.085
2021-08-19 01:33:02.200,0.19,-0.075
2021-08-19 01:33:02.204,0.21,-0.03
2021-08-19 01:33:02.208,0.235,0.0
2021-08-19 01:33:02.212,0.22,-0.02
2021-08-19 01:33:02.216,0.225,-0.035
2021-08-19 01:33:02.220,0.205,-0.06
2021-08-19 01:33:02.224,0.21,-0.075
2021-08-19 01:33:02.228,0.225,-0.1
2021-08-19 01:33:02.232,0.215,-0.14
2021-08-19 01:33:02.236,0.19,-0.14
2021-08-19 01:33:02.240,0.155,-0.17
2021-08-19 01:33:02.244,0.12,-0.175
2021-08-19 01:33:02.248,0.12,-0.19
2021-08-19 01:33:02.252,0.105,-0.19
2021-08-19 01:33:02.256,0.105,-0.215
2021-08-19 01:33:02.260,0.11,-0.225
2021-08-19 01:33:02.264,0.1,-0.205
2021-08-19 01:33:02.268,0.075,-0.2
2021-08-19 01:33:02.272,0.065,-0.22
2021-08-19 01:33:02.276,0.075,-0.205
2021-08-19 01:33:02.280,0.045,-0.19
2021-08-19 01:33:02.284,0.07,-0.185
2021-08-19 01:33:02.288,0.095,-0.185
2021-08-19 01:33:02.292,0.08,-0.21
2021-08-19 01:33:02.296,0.075,-0.225
2021-08-19 01:33:02.300,0.09,-0.225
2021-08-19 01:33:02.304,0.085,-0.235
2021-08-19 01:33:02.308,0.105,-0.23
2021-08-19 01:33:02.312,0.095,-0.235
2021-08-19 01:33:02.316,0.1,-0.24
2021-08-19 01:33:02.320,0.095,-0.23
2021-08-19 01:33:02.324,0.09,-0.24
2021-08-19 01:33:02.328,0.075,-0.235
2021-08-19 01:33:02.332,0.075,-0.215
2021-08-19 01:33:02.336,0.06,-0.195
2021-08-19 01:33:02.340,0.075,-0.215
2021-08-19 01:33:02.344,0.04,-0.19
2021-08-19 01:33:02.348,0.07,-0.2
2021-08-19 01:33:02.352,0.08,-0.195
2021-08-19 01:33:02.356,0.085,-0.16
2021-08-19 01:33:02.360,0.08,-0.17
2021-08-19 01:33:02.364,0.09,-0.16
2021-08-19 01:33:02.368,0.075,-0.18
2021-08-19 01:33:02.372,0.085,-0.195
2021-08-19 01:33:02.376,0.085,-0.155
2021-08-19 01:33:02.380,0.085,-0.17
2021-08-19 01:33:02.384,0.1,-0.17
2021-08-19 01:33:02.388,0.115,-0.165
2021-08-19 01:33:02.392,0.065,-0.155
2021-08-19 01:33:02.396,0.08,-0.16
2021-08-19 01:33:02.400,0.105,-0.13
2021-08-19 01:33:02.404,0.095,-0.095
2021-08-19 01:33:02.408,0.12,-0.07
2021-08-19 01:33:02.412,0.13,-0.035
2021-08-19 01:33:02.416,0.155,0.005
2021-08-19 01:33:02.420,0.155,0.02
2021-08-19 01:33:02.424,0.175,0.025
2021-08-19 01:33:02.428,0.16,0.015
2021-08-19 01:33:02.432,0.15,0.015
2021-08-19 01:33:02.436,0.13,-0.01
2021-08-19 01:33:02.440,0.105,-0.01
2021-08-19 01:33:02.444,0.075,-0.035
2021-08-19 01:33:02.448,0.065,-0.045
2021-08-19 01:33:02.452,0.065,-0.065
2021-08-19 01:33:02.456,0.11,-0.095
2021-08-19 01:33:02.460,0.105,-0.13
2021-08-19 01:33:02.464,0.095,-0.145
2021-08-19 01:33:02.468,0.095,-0.175
2021-08-19 01:33:02.472,0.11,-0.19
2021-08-19 01:33:02.476,0.08,-0.18
2021-08-19 01:33:02.480,0.08,-0.175
2021-08-19 01:33:02.484,0.1,-0.17
2021-08-19 01:33:02.488,0.08,-0.18
2021-08-19 01:33:02.492,0.075,-0.185
2021-08-19 01:33:02.496,0.085,-0.19
2021-08-19 01:33:02.500,0.075,-0.19
2021-08-19 01:33:02.504,0.085,-0.19
2021-08-19 01:33:02.508,0.075,-0.2
2021-08-19 01:33:02.512,0.095,-0.195
2021-08-19 01:33:02.516,0.085,-0.2
2021-08-19 01:33:02.520,0.08,-0.225
2021-08-19 01:33:02.524,0.1,-0.205
2021-08-19 01:33:02.528,0.095,-0.19
2021-08-19 01:33:02.532,0.08,-0.2
2021-08-19 01:33:02.536,0.09,-0.175
2021-08-19 01:33:02.540,0.075,-0.16
2021-08-19 01:33:02.544,0.065,-0.135
2021-08-19 01:33:02.548,0.07,-0.14
2021-08-19 01:33:02.552,0.07,-0.155
2021-08-19 01:33:02.556,0.07,-0.15
2021-08-19 01:33:02.560,0.07,-0.13
2021-08-19 01:33:02.564,0.08,-0.12
2021-08-19 01:33:02.568,0.1,-0.125
2021-08-19 01:33:02.572,0.11,-0.105
2021-08-19 01:33:02.576,0.1,-0.105
2021-08-19 01:33:02.580,0.08,-0.1
2021-08-19 01:33:02.584,0.095,-0.105
2021-08-19 01:33:02.588,0.12,-0.09
2021-08-19 01:33:02.592,0.09,-0.08
2021-08-19 01:33:02.596,0.09,-0.1
2021-08-19 01:33:02.600,0.095,-0.08
2021-08-19 01:33:02.604,0.115,-0.085
2021-08-19 01:33:02.608,0.1,-0.09
2021-08-19 01:33:02.612,0.105,-0.075
2021-08-19 01:33:02.616,0.115,-0.05
2021-08-19 01:33:02.620,0.12,-0.045
2021-08-19 01:33:02.624,0.105,-0.025
2021-08-19 01:33:02.628,0.125,-0.005
2021-08-19 01:33:02.632,0.12,0.0
2021-08-19 01:33:02.636,0.125,0.035
2021-08-19 01:33:02.640,0.13,0.05
2021-08-19 01:33:02.644,0.15,0.09
2021-08-19 01:33:02.648,0.165,0.175
2021-08-19 01:33:02.652,0.16,0.22
2021-08-19 01:33:02.656,0.195,0.27
2021-08-19 01:33:02.660,0.185,0.26
2021-08-19 01:33:02.664,0.185,0.32
2021-08-19 01:33:02.668,0.22,0.51
2021-08-19 01:33:02.672,0.255,0.75
2021-08-19 01:33:02.676,0.275,0.93
2021-08-19 01:33:02.680,0.275,1.01
2021-08-19 01:33:02.684,0.225,1.0
2021-08-19 01:33:02.688,0.125,0.94
2021-08-19 01:33:02.692,0.03,0.815
2021-08-19 01:33:02.696,-0.005,0.65
2021-08-19 01:33:02.700,-0.06,0.39
2021-08-19 01:33:02.704,-0.235,0.125
2021-08-19 01:33:02.708,-0.495,0.125
2021-08-19 01:33:02.712,-0.86,0.4
2021-08-19 01:33:02.716,-1.19,0.575
2021-08-19 01:33:02.720,-1.405,0.455
2021-08-19 01:33:02.724,-1.475,0.13
2021-08-19 01:33:02.728,-1.425,-0.195
2021-08-19 01:33:02.732,-1.17,-0.435
2021-08-19 01:33:02.736,-0.715,-0.53
2021-08-19 01:33:02.740,-0.28,-0.535
2021-08-19 01:33:02.744,-0.04,-0.395
2021-08-19 01:33:02.748,-0.02,-0.31
2021-08-19 01:33:02.752,-0.06,-0.225
2021-08-19 01:33:02.756,-0.045,-0.195
2021-08-19 01:33:02.760,-0.07,-0.19
2021-08-19 01:33:02.764,-0.065,-0.215
2021-08-19 01:33:02.768,-0.02,-0.175
2021-08-19 01:33:02.772,0.015,-0.19
2021-08-19 01:33:02.776,0.07,-0.175
2021-08-19 01:33:02.780,0.125,-0.195
2021-08-19 01:33:02.784,0.13,-0.205
2021-08-19 01:33:02.788,0.165,-0.215
2021-08-19 01:33:02.792,0.16,-0.215
2021-08-19 01:33:02.796,0.18,-0.23
2021-08-19 01:33:02.800,0.17,-0.21
2021-08-19 01:33:02.804,0.195,-0.19
2021-08-19 01:33:02.808,0.185,-0.19
2021-08-19 01:33:02.812,0.185,-0.18
2021-08-19 01:33:02.816,0.175,-0.17
2021-08-19 01:33:02.820,0.195,-0.185
2021-08-19 01:33:02.824,0.185,-0.19
2021-08-19 01:33:02.828,0.165,-0.18
2021-08-19 01:33:02.832,0.2,-0.185
2021-08-19 01:33:02.836,0.19,-0.18
2021-08-19 01:33:02.840,0.2,-0.19
2021-08-19 01:33:02.844,0.21,-0.2
2021-08-19 01:33:02.848,0.2,-0.18
2021-08-19 01:33:02.852,0.205,-0.18
2021-08-19 01:33:02.856,0.22,-0.185
2021-08-19 01:33:02.860,0.215,-0.155
2021-08-19 01:33:02.864,0.22,-0.16
2021-08-19 01:33:02.868,0.21,-0.15
2021-08-19 01:33:02.872,0.2,-0.105
2021-08-19 01:33:02.876,0.19,-0.085
2021-08-19 01:33:02.880,0.185,-0.07
2021-08-19 01:33:02.884,0.18,-0.08
2021-08-19 01:33:02.888,0.205,-0.095
2021-08-19 01:33:02.892,0.22,-0.08
2021-08-19 01:33:02.896,0.255,-0.1
2021-08-19 01:33:02.900,0.315,-0.115
2021-08-19 01:33:02.904,0.285,-0.135
2021-08-19 01:33:02.908,0.335,-0.135
2021-08-19 01:33:02.912,0.345,-0.115
2021-08-19 01:33:02.916,0.325,-0.09
2021-08-19 01:33:02.920,0.33,-0.095
2021-08-19 01:33:02.924,0.335,-0.1
2021-08-19 01:33:02.928,0.295,-0.11
2021-08-19 01:33:02.932,0.285,-0.12
2021-08-19 01:33:02.936,0.275,-0.155
2021-08-19 01:33:02.940,0.265,-0.16
2021-08-19 01:33:02.944,0.245,-0.155
2021-08-19 01:33:02.948,0.2,-0.155
2021-08-19 01:33:02.952,0.18,-0.155
2021-08-19 01:33:02.956,0.14,-0.16
2021-08-19 01:33:02.960,0.145,-0.13
2021-08-19 01:33:02.964,0.095,-0.145
2021-08-19 01:33:02.968,0.115,-0.12
2021-08-19 01:33:02.972,0.12,-0.13
2021-08-19 01:33:02.976,0.11,-0.11
2021-08-19 01:33:02.980,0.115,-0.11
2021-08-19 01:33:02.984,0.1,-0.085
2021-08-19 01:33:02.988,0.115,-0.07
2021-08-19 01:33:02.992,0.09,-0.05
2021-08-19 01:33:02.996,0.105,-0.045
2021-08-19 01:33:03.000,0.11,-0.055
2021-08-19 01:33:03.004,0.105,-0.025
2021-08-19 01:33:03.008,0.095,-0.02
2021-08-19 01:33:03.012,0.08,-0.02
2021-08-19 01:33:03.016,0.07,0.005
2021-08-19 01:33:03.020,0.075,0.01
2021-08-19 01:33:03.024,0.06,0.0
2021-08-19 01:33:03.028,0.055,0.015
2021-08-19 01:33:03.032,0.07,0.005
2021-08-19 01:33:03.036,0.05,0.015
2021-08-19 01:33:03.040,0.065,0.025
2021-08-19 01:33:03.044,0.06,0.03
2021-08-19 01:33:03.048,0.055,0.03
2021-08-19 01:33:03.052,0.07,0.01
2021-08-19 01:33:03.056,0.06,0.005
2021-08-19 01:33:03.060,0.06,0.0
2021-08-19 01:33:03.064,0.055,0.0
2021-08-19 01:33:03.068,0.05,-0.005
2021-08-19 01:33:03.072,0.06,-0.005
2021-08-19 01:33:03.076,0.07,-0.015
2021-08-19 01:33:03.080,0.065,0.0
2021-08-19 01:33:03.084,0.065,-0.005
2021-08-19 01:33:03.088,0.07,0.0
2021-08-19 01:33:03.092,0.045,0.015
2021-08-19 01:33:03.096,0.05,0.015
2021-08-19 01:33:03.100,0.055,-0.005
2021-08-19 01:33:03.104,0.055,0.0
2021-08-19 01:33:03.108,0.045,-0.005
2021-08-19 01:33:03.112,0.065,-0.005
2021-08-19 01:33:03.116,0.075,-0.025
2021-08-19 01:33:03.120,0.12,-0.01
2021-08-19 01:33:03.124,0.095,-0.015
2021-08-19 01:33:03.128,0.11,0.0
2021-08-19 01:33:03.132,0.135,0.05
2021-08-19 01:33:03.136,0.15,0.065
2021-08-19 01:33:03.140,0.155,0.1
2021-08-19 01:33:03.144,0.175,0.1
2021-08-19 01:33:03.148,0.175,0.1
2021-08-19 01:33:03.152,0.195,0.13
2021-08-19 01:33:03.156,0.195,0.11
2021-08-19 01:33:03.160,0.205,0.12
2021-08-19 01:33:03.164,0.18,0.12
2021-08-19 01:33:03.168,0.17,0.12
2021-08-19 01:33:03.172,0.15,0.15
2021-08-19 01:33:03.176,0.115,0.175
2021-08-19 01:33:03.180,0.075,0.245
2021-08-19 01:33:03.184,0.03,0.31
2021-08-19 01:33:03.188,0.04,0.35
2021-08-19 01:33:03.192,0.03,0.41
2021-08-19 01:33:03.196,0.015,0.515
2021-08-19 01:33:03.200,0.05,0.695
2021-08-19 01:33:03.204,0.09,0.815
2021-08-19 01:33:03.208,0.115,0.825
2021-08-19 01:33:03.212,0.105,0.71
2021-08-19 01:33:03.216,0.04,0.55
2021-08-19 01:33:03.220,-0.06,0.385
2021-08-19 01:33:03.224,-0.115,0.15
2021-08-19 01:33:03.228,-0.24,-0.155
2021-08-19 01:33:03.232,-0.4,-0.35
2021-08-19 01:33:03.236,-0.67,-0.28
2021-08-19 01:33:03.240,-1.005,0.03
2021-08-19 01:33:03.244,-1.315,0.3
2021-08-19 01:33:03.248,-1.56,0.315
2021-08-19 01:33:03.252,-1.68,0.095
2021-08-19 01:33:03.256,-1.7,-0.145
2021-08-19 01:33:03.260,-1.54,-0.33
2021-08-19 01:33:03.264,-1.205,-0.44
2021-08-19 01:33:03.268,-0.74,-0.435
2021-08-19 01:33:03.272,-0.37,-0.335
2021-08-19 01:33:03.276,-0.19,-0.2
2021-08-19 01:33:03.280,-0.135,-0.095
2021-08-19 01:33:03.284,-0.13,-0.06
2021-08-19 01:33:03.288,-0.14,-0.06
2021-08-19 01:33:03.292,-0.155,-0.075
2021-08-19 01:33:03.296,-0.11,-0.07
2021-08-19 01:33:03.300,-0.03,-0.065
2021-08-19 01:33:03.304,0.035,-0.05
2021-08-19 01:33:03.308,0.1,-0.045
2021-08-19 01:33:03.312,0.105,-0.03
2021-08-19 01:33:03.316,0.115,-0.02
2021-08-19 01:33:03.320,0.105,-0.025
2021-08-19 01:33:03.324,0.155,-0.025
2021-08-19 01:33:03.328,0.14,-0.015
2021-08-19 01:33:03.332,0.155,-0.03
2021-08-19 01:33:03.336,0.19,-0.04
2021-08-19 01:33:03.340,0.22,-0.06
2021-08-19 01:33:03.344,0.21,-0.065
2021-08-19 01:33:03.348,0.235,-0.045
2021-08-19 01:33:03.352,0.225,-0.065
2021-08-19 01:33:03.356,0.25,-0.065
2021-08-19 01:33:03.360,0.24,-0.075
2021-08-19 01:33:03.364,0.255,-0.06
2021-08-19 01:33:03.368,0.265,-0.07
2021-08-19 01:33:03.372,0.265,-0.07
2021-08-19 01:33:03.376,0.265,-0.055
2021-08-19 01:33:03.380,0.27,-0.06
2021-08-19 01:33:03.384,0.255,-0.05
2021-08-19 01:33:03.388,0.26,-0.05
2021-08-19 01:33:03.392,0.245,-0.01
2021-08-19 01:33:03.396,0.26,-0.005
2021-08-19 01:33:03.400,0.275,-0.005
2021-08-19 01:33:03.404,0.295,0.01
2021-08-19 01:33:03.408,0.29,0.045
2021-08-19 01:33:03.412,0.27,0.06
2021-08-19 01:33:03.416,0.26,0.07
2021-08-19 01:33:03.420,0.27,0.075
2021-08-19 01:33:03.424,0.285,0.06
2021-08-19 01:33:03.428,0.285,0.065
2021-08-19 01:33:03.432,0.305,0.065
2021-08-19 01:33:03.436,0.33,0.08
2021-08-19 01:33:03.440,0.34,0.08
2021-08-19 01:33:03.444,0.36,0.1
2021-08-19 01:33:03.448,0.345,0.085
2021-08-19 01:33:03.452,0.35,0.085
2021-08-19 01:33:03.456,0.35,0.095
2021-08-19 01:33:03.460,0.335,0.09
2021-08-19 01:33:03.464,0.295,0.06
2021-08-19 01:33:03.468,0.27,0.08
2021-08-19 01:33:03.472,0.245,0.09
2021-08-19 01:33:03.476,0.2,0.105
2021-08-19 01:33:03.480,0.185,0.1
2021-08-19 01:33:03.484,0.14,0.1
2021-08-19 01:33:03.488,0.145,0.085
2021-08-19 01:33:03.492,0.14,0.085
2021-08-19 01:33:03.496,0.155,0.09
2021-08-19 01:33:03.500,0.13,0.105
2021-08-19 01:33:03.504,0.155,0.105
2021-08-19 01:33:03.508,0.125,0.085
2021-08-19 01:33:03.512,0.13,0.095
2021-08-19 01:33:03.516,0.13,0.08
2021-08-19 01:33:03.520,0.09,0.105
2021-08-19 01:33:03.524,0.095,0.105
2021-08-19 01:33:03.528,0.09,0.11
2021-08-19 01:33:03.532,0.08,0.13
2021-08-19 01:33:03.536,0.085,0.105
2021-08-19 01:33:03.540,0.06,0.13
2021-08-19 01:33:03.544,0.035,0.1
2021-08-19 01:33:03.548,0.055,0.08
2021-08-19 01:33:03.552,0.045,0.07
2021-08-19 01:33:03.556,0.05,0.065
2021-08-19 01:33:03.560,0.05,0.08
2021-08-19 01:33:03.564,0.07,0.075
2021-08-19 01:33:03.568,0.07,0.085
2021-08-19 01:33:03.572,0.095,0.05
2021-08-19 01:33:03.576,0.1,0.07
2021-08-19 01:33:03.580,0.085,0.02
2021-08-19 01:33:03.584,0.11,0.035
2021-08-19 01:33:03.588,0.105,0.015
2021-08-19 01:33:03.592,0.11,0.0
2021-08-19 01:33:03.596,0.105,0.01
2021-08-19 01:33:03.600,0.135,0.0
2021-08-19 01:33:03.604,0.1,-0.025
2021-08-19 01:33:03.608,0.1,-0.005
2021-08-19 01:33:03.612,0.09,0.0
2021-08-19 01:33:03.616,0.11,0.015
2021-08-19 01:33:03.620,0.09,0.01
2021-08-19 01:33:03.624,0.075,0.005
2021-08-19 01:33:03.628,0.08,-0.005
2021-08-19 01:33:03.632,0.085,0.005
2021-08-19 01:33:03.636,0.095,0.01
2021-08-19 01:33:03.640,0.085,0.02
2021-08-19 01:33:03.644,0.095,0.025
2021-08-19 01:33:03.648,0.095,0.03
2021-08-19 01:33:03.652,0.085,0.02
2021-08-19 01:33:03.656,0.075,0.04
2021-08-19 01:33:03.660,0.085,0.04
2021-08-19 01:33:03.664,0.1,0.055
2021-08-19 01:33:03.668,0.09,0.08
2021-08-19 01:33:03.672,0.08,0.11
2021-08-19 01:33:03.676,0.085,0.125
2021-08-19 01:33:03.680,0.07,0.14
2021-08-19 01:33:03.684,0.08,0.15
2021-08-19 01:33:03.688,0.075,0.15
2021-08-19 01:33:03.692,0.105,0.155
2021-08-19 01:33:03.696,0.12,0.17
2021-08-19 01:33:03.700,0.155,0.165
2021-08-19 01:33:03.704,0.16,0.165
2021-08-19 01:33:03.708,0.145,0.16
2021-08-19 01:33:03.712,0.135,0.155
2021-08-19 01:33:03.716,0.12,0.13
2021-08-19 01:33:03.720,0.115,0.135
2021-08-19 01:33:03.724,0.065,0.13
2021-08-19 01:33:03.728,0.04,0.12
2021-08-19 01:33:03.732,0.02,0.11
2021-08-19 01:33:03.736,-0.03,0.12
2021-08-19 01:33:03.740,-0.04,0.13
2021-08-19 01:33:03.744,-0.03,0.13
2021-08-19 01:33:03.748,-0.03,0.125
2021-08-19 01:33:03.752,-0.04,0.14
2021-08-19 01:33:03.756,-0.04,0.125
2021-08-19 01:33:03.760,-0.05,0.14
2021-08-19 01:33:03.764,-0.02,0.12
2021-08-19 01:33:03.768,-0.035,0.11
2021-08-19 01:33:03.772,-0.01,0.13
2021-08-19 01:33:03.776,-0.03,0.125
2021-08-19 01:33:03.780,0.0,0.135
2021-08-19 01:33:03.784,0.0,0.14
2021-08-19 01:33:03.788,-0.005,0.145
2021-08-19 01:33:03.792,-0.01,0.165
2021-08-19 01:33:03.796,-0.015,0.145
2021-08-19 01:33:03.800,-0.035,0.145
2021-08-19 01:33:03.804,-0.035,0.135
2021-08-19 01:33:03.808,-0.02,0.105
2021-08-19 01:33:03.812,-0.01,0.095
2021-08-19 01:33:03.816,-0.015,0.07
2021-08-19 01:33:03.820,0.025,0.065
2021-08-19 01:33:03.824,0.04,0.07
2021-08-19 01:33:03.828,0.055,0.06
2021-08-19 01:33:03.832,0.05,0.065
2021-08-19 01:33:03.836,0.035,0.035
2021-08-19 01:33:03.840,0.045,0.045
2021-08-19 01:33:03.844,0.03,0.05
2021-08-19 01:33:03.848,0.035,0.04
2021-08-19 01:33:03.852,0.035,0.06
2021-08-19 01:33:03.856,0.06,0.075
2021-08-19 01:33:03.860,0.03,0.04
2021-08-19 01:33:03.864,0.045,0.045
2021-08-19 01:33:03.868,0.04,0.02
2021-08-19 01:33:03.872,0.02,0.01
2021-08-19 01:33:03.876,0.03,0.015
2021-08-19 01:33:03.880,0.005,0.025
2021-08-19 01:33:03.884,0.005,0.02
2021-08-19 01:33:03.888,0.03,0.01
2021-08-19 01:33:03.892,0.005,0.03
2021-08-19 01:33:03.896,0.015,0.035
2021-08-19 01:33:03.900,0.04,0.04
2021-08-19 01:33:03.904,0.025,0.06
2021-08-19 01:33:03.908,0.045,0.075
2021-08-19 01:33:03.912,0.025,0.085
2021-08-19 01:33:03.916,0.06,0.11
2021-08-19 01:33:03.920,0.065,0.135
2021-08-19 01:33:03.924,0.095,0.16
2021-08-19 01:33:03.928,0.085,0.16
2021-08-19 01:33:03.932,0.11,0.16
2021-08-19 01:33:03.936,0.115,0.16
2021-08-19 01:33:03.940,0.08,0.135
2021-08-19 01:33:03.944,0.08,0.14
2021-08-19 01:33:03.948,0.025,0.12
2021-08-19 01:33:03.952,-0.005,0.105
2021-08-19 01:33:03.956,-0.025,0.095
2021-08-19 01:33:03.960,-0.035,0.1
2021-08-19 01:33:03.964,-0.05,0.115
2021-08-19 01:33:03.968,-0.04,0.11
2021-08-19 01:33:03.972,-0.06,0.105
2021-08-19 01:33:03.976,-0.05,0.11
2021-08-19 01:33:03.980,-0.06,0.115
2021-08-19 01:33:03.984,-0.04,0.13
2021-08-19 01:33:03.988,-0.055,0.135
2021-08-19 01:33:03.992,-0.04,0.16
2021-08-19 01:33:03.996,-0.045,0.16
2021-08-19 01:33:04.000,-0.025,0.19
2021-08-19 01:33:04.004,-0.035,0.23
2021-08-19 01:33:04.008,-0.05,0.245
2021-08-19 01:33:04.012,-0.04,0.285
2021-08-19 01:33:04.016,-0.045,0.36
2021-08-19 01:33:04.020,-0.06,0.54
2021-08-19 01:33:04.024,-0.01,0.77
2021-08-19 01:33:04.028,-0.015,0.95
2021-08-19 01:33:04.032,-0.005,1.03
2021-08-19 01:33:04.036,-0.045,1.035
2021-08-19 01:33:04.040,-0.11,0.975
2021-08-19 01:33:04.044,-0.15,0.89
2021-08-19 01:33:04.048,-0.185,0.715
2021-08-19 01:33:04.052,-0.255,0.46
2021-08-19 01:33:04.056,-0.455,0.315
2021-08-19 01:33:04.060,-0.73,0.455
2021-08-19 01:33:04.064,-1.06,0.66
2021-08-19 01:33:04.068,-1.315,0.67
2021-08-19 01:33:04.072,-1.48,0.365
2021-08-19 01:33:04.076,-1.5,0.03
2021-08-19 01:33:04.080,-1.35,-0.225
2021-08-19 01:33:04.084,-0.98,-0.38
2021-08-19 01:33:04.088,-0.525,-0.435
2021-08-19 01:33:04.092,-0.17,-0.4
2021-08-19 01:33:04.096,-0.08,-0.315
2021-08-19 01:33:04.100,-0.085,-0.24
2021-08-19 01:33:04.104,-0.135,-0.2
2021-08-19 01:33:04.108,-0.16,-0.23
2021-08-19 01:33:04.112,-0.16,-0.215
2021-08-19 01:33:04.116,-0.15,-0.225
2021-08-19 01:33:04.120,-0.105,-0.215
2021-08-19 01:33:04.124,-0.055,-0.2
2021-08-19 01:33:04.128,0.0,-0.16
2021-08-19 01:33:04.132,0.035,-0.12
2021-08-19 01:33:04.136,0.07,-0.095
2021-08-19 01:33:04.140,0.085,-0.06
2021-08-19 01:33:04.144,0.075,-0.05
2021-08-19 01:33:04.148,0.065,-0.02
2021-08-19 01:33:04.152,0.04,-0.035
2021-08-19 01:33:04.156,0.015,-0.05
2021-08-19 01:33:04.160,0.0,-0.04
2021-08-19 01:33:04.164,0.025,-0.045
2021-08-19 01:33:04.168,0.015,-0.065
2021-08-19 01:33:04.172,0.025,-0.06
2021-08-19 01:33:04.176,0.025,-0.075
2021-08-19 01:33:04.180,0.035,-0.075
2021-08-19 01:33:04.184,0.055,-0.075
2021-08-19 01:33:04.188,0.065,-0.07
2021-08-19 01:33:04.192,0.06,-0.1
2021-08-19 01:33:04.196,0.04,-0.1
2021-08-19 01:33:04.200,0.075,-0.1
2021-08-19 01:33:04.204,0.065,-0.1
2021-08-19 01:33:04.208,0.065,-0.115
2021-08-19 01:33:04.212,0.045,-0.125
2021-08-19 01:33:04.216,0.06,-0.135
2021-08-19 01:33:04.220,0.04,-0.155
2021-08-19 01:33:04.224,0.05,-0.15
2021-08-19 01:33:04.228,0.045,-0.15
2021-08-19 01:33:04.232,0.055,-0.14
2021-08-19 01:33:04.236,0.065,-0.12
2021-08-19 01:33:04.240,0.04,-0.12
2021-08-19 01:33:04.244,0.04,-0.11
2021-08-19 01:33:04.248,0.06,-0.125
2021-08-19 01:33:04.252,0.065,-0.115
2021-08-19 01:33:04.256,0.05,-0.11
2021-08-19 01:33:04.260,0.075,-0.08
2021-08-19 01:33:04.264,0.085,-0.045
2021-08-19 01:33:04.268,0.07,-0.06
2021-08-19 01:33:04.272,0.06,-0.045
2021-08-19 01:33:04.276,0.055,-0.03
2021-08-19 01:33:04.280,0.05,-0.045
2021-08-19 01:33:04.284,0.07,-0.055
2021-08-19 01:33:04.288,0.075,-0.04
2021-08-19 01:33:04.292,0.07,-0.06
2021-08-19 01:33:04.296,0.09,-0.085
2021-08-19 01:33:04.300,0.095,-0.115
2021-08-19 01:33:04.304,0.09,-0.12
2021-08-19 01:33:04.308,0.105,-0.145
2021-08-19 01:33:04.312,0.12,-0.15
2021-08-19 01:33:04.316,0.115,-0.145
2021-08-19 01:33:04.320,0.135,-0.135
2021-08-19 01:33:04.324,0.12,-0.105
2021-08-19 01:33:04.328,0.1,-0.075
2021-08-19 01:33:04.332,0.075,-0.06
2021-08-19 01:33:04.336,0.085,-0.07
2021-08-19 01:33:04.340,0.085,-0.055
2021-08-19 01:33:04.344,0.065,-0.02
2021-08-19 01:33:04.348,0.04,0.005
2021-08-19 01:33:04.352,0.04,0.04
2021-08-19 01:33:04.356,0.05,0.06
2021-08-19 01:33:04.360,0.055,0.095
2021-08-19 01:33:04.364,0.065,0.13
2021-08-19 01:33:04.368,0.08,0.115
2021-08-19 01:33:04.372,0.055,0.14
2021-08-19 01:33:04.376,0.055,0.135
2021-08-19 01:33:04.380,0.015,0.12
2021-08-19 01:33:04.384,-0.035,0.12
2021-08-19 01:33:04.388,-0.035,0.11
2021-08-19 01:33:04.392,-0.07,0.105
2021-08-19 01:33:04.396,-0.07,0.08
2021-08-19 01:33:04.400,-0.065,0.09
2021-08-19 01:33:04.404,-0.1,0.085
2021-08-19 01:33:04.408,-0.075,0.085
2021-08-19 01:33:04.412,-0.08,0.095
2021-08-19 01:33:04.416,-0.1,0.095
2021-08-19 01:33:04.420,-0.075,0.095
2021-08-19 01:33:04.424,-0.08,0.07
2021-08-19 01:33:04.428,-0.075,0.07
2021-08-19 01:33:04.432,-0.075,0.075
2021-08-19 01:33:04.436,-0.06,0.065
2021-08-19 01:33:04.440,-0.06,0.065
2021-08-19 01:33:04.444,-0.05,0.055
2021-08-19 01:33:04.448,-0.045,0.05
2021-08-19 01:33:04.452,-0.055,0.07
2021-08-19 01:33:04.456,-0.06,0.055
2021-08-19 01:33:04.460,-0.05,0.05
2021-08-19 01:33:04.464,-0.045,0.06
2021-08-19 01:33:04.468,-0.04,0.055
2021-08-19 01:33:04.472,-0.035,0.04
2021-08-19 01:33:04.476,-0.045,0.06
2021-08-19 01:33:04.480,-0.035,0.04
2021-08-19 01:33:04.484,-0.025,0.06
2021-08-19 01:33:04.488,-0.04,0.085
2021-08-19 01:33:04.492,-0.045,0.075
2021-08-19 01:33:04.496,-0.05,0.08
2021-08-19 01:33:04.500,-0.05,0.075
2021-08-19 01:33:04.504,-0.06,0.08
2021-08-19 01:33:04.508,-0.04,0.08
2021-08-19 01:33:04.512,-0.02,0.1
2021-08-19 01:33:04.516,-0.015,0.095
2021-08-19 01:33:04.520,-0.05,0.105
2021-08-19 01:33:04.524,-0.01,0.155
2021-08-19 01:33:04.528,-0.02,0.215
2021-08-19 01:33:04.532,-0.025,0.275
2021-08-19 01:33:04.536,-0.025,0.305
2021-08-19 01:33:04.540,-0.03,0.39
2021-08-19 01:33:04.544,-0.035,0.51
2021-08-19 01:33:04.548,-0.01,0.615
2021-08-19 01:33:04.552,0.035,0.685
2021-08-19 01:33:04.556,0.045,0.655
2021-08-19 01:33:04.560,0.045,0.55
2021-08-19 01:33:04.564,0.01,0.38
2021-08-19 01:33:04.568,-0.05,0.26
2021-08-19 01:33:04.572,-0.065,0.135
2021-08-19 01:33:04.576,-0.12,0.04
2021-08-19 01:33:04.580,-0.175,0.065
2021-08-19 01:33:04.584,-0.315,0.28
2021-08-19 01:33:04.588,-0.51,0.53
2021-08-19 01:33:04.592,-0.795,0.605
2021-08-19 01:33:04.596,-1.05,0.45
2021-08-19 01:33:04.600,-1.17,0.185
2021-08-19 01:33:04.604,-1.17,-0.025
2021-08-19 01:33:04.608,-0.845,-0.215
2021-08-19 01:33:04.612,-0.445,-0.29
2021-08-19 01:33:04.616,-0.14,-0.21
2021-08-19 01:33:04.620,-0.04,-0.125
2021-08-19 01:33:04.624,-0.095,-0.08
2021-08-19 01:33:04.628,-0.135,-0.055
2021-08-19 01:33:04.632,-0.19,-0.08
2021-08-19 01:33:04.636,-0.19,-0.09
2021-08-19 01:33:04.640,-0.175,-0.1
2021-08-19 01:33:04.644,-0.125,-0.115
2021-08-19 01:33:04.648,-0.085,-0.11
2021-08-19 01:33:04.652,-0.04,-0.11
2021-08-19 01:33:04.656,-0.025,-0.095
2021-08-19 01:33:04.660,-0.025,-0.075
2021-08-19 01:33:04.664,-0.01,-0.115
2021-08-19 01:33:04.668,-0.015,-0.095
2021-08-19 01:33:04.672,-0.005,-0.075
2021-08-19 01:33:04.676,-0.025,-0.08
2021-08-19 01:33:04.680,0.005,-0.085
2021-08-19 01:33:04.684,-0.005,-0.05
2021-08-19 01:33:04.688,-0.005,-0.04
2021-08-19 01:33:04.692,-0.02,-0.03
2021-08-19 01:33:04.696,-0.005,-0.02
2021-08-19 01:33:04.700,-0.025,-0.01
2021-08-19 01:33:04.704,-0.01,0.0
2021-08-19 01:33:04.708,0.005,0.005
2021-08-19 01:33:04.712,-0.01,0.0
2021-08-19 01:33:04.716,0.005,0.0
2021-08-19 01:33:04.720,0.015,0.015
2021-08-19 01:33:04.724,0.005,0.035
2021-08-19 01:33:04.728,0.035,0.02
2021-08-19 01:33:04.732,0.04,0.02
2021-08-19 01:33:04.736,0.03,0.015
2021-08-19 01:33:04.740,0.01,-0.005
2021-08-19 01:33:04.744,0.06,-0.015
2021-08-19 01:33:04.748,0.06,-0.015
2021-08-19 01:33:04.752,0.055,-0.02
2021-08-19 01:33:04.756,0.065,-0.035
2021-08-19 01:33:04.760,0.07,-0.025
2021-08-19 01:33:04.764,0.06,-0.03
2021-08-19 01:33:04.768,0.045,-0.015
2021-08-19 01:33:04.772,0.055,0.0
2021-08-19 01:33:04.776,0.05,0.02
2021-08-19 01:33:04.780,0.025,0.03
2021-08-19 01:33:04.784,0.05,0.05
2021-08-19 01:33:04.788,0.025,0.065
2021-08-19 01:33:04.792,0.035,0.045
2021-08-19 01:33:04.796,0.04,0.035
2021-08-19 01:33:04.800,0.055,0.03
2021-08-19 01:33:04.804,0.04,0.02
2021-08-19 01:33:04.808,0.04,0.0
2021-08-19 01:33:04.812,0.03,-0.005
2021-08-19 01:33:04.816,0.01,-0.02
2021-08-19 01:33:04.820,0.0,-0.04
2021-08-19 01:33:04.824,-0.035,-0.025
2021-08-19 01:33:04.828,-0.04,-0.005
2021-08-19 01:33:04.832,-0.06,0.02
2021-08-19 01:33:04.836,-0.065,-0.005
2021-08-19 01:33:04.840,-0.075,0.01
2021-08-19 01:33:04.844,-0.09,-0.005
2021-08-19 01:33:04.848,-0.1,0.015
2021-08-19 01:33:04.852,-0.1,0.005
2021-08-19 01:33:04.856,-0.08,0.03
2021-08-19 01:33:04.860,-0.09,0.045
2021-08-19 01:33:04.864,-0.105,0.04
2021-08-19 01:33:04.868,-0.085,0.06
2021-08-19 01:33:04.872,-0.11,0.06
2021-08-19 01:33:04.876,-0.1,0.055
2021-08-19 01:33:04.880,-0.09,0.055
2021-08-19 01:33:04.884,-0.105,0.075
2021-08-19 01:33:04.888,-0.09,0.055
2021-08-19 01:33:04.892,-0.11,0.08
2021-08-19 01:33:04.896,-0.09,0.085
2021-08-19 01:33:04.900,-0.08,0.075
2021-08-19 01:33:04.904,-0.08,0.1
2021-08-19 01:33:04.908,-0.075,0.1
2021-08-19 01:33:04.912,-0.08,0.105
2021-08-19 01:33:04.916,-0.075,0.08
2021-08-19 01:33:04.920,-0.055,0.08
2021-08-19 01:33:04.924,-0.07,0.085
2021-08-19 01:33:04.928,-0.065,0.09
2021-08-19 01:33:04.932,-0.06,0.075
2021-08-19 01:33:04.936,-0.04,0.075
2021-08-19 01:33:04.940,-0.03,0.08
2021-08-19 01:33:04.944,-0.055,0.08
2021-08-19 01:33:04.948,-0.045,0.055
2021-08-19 01:33:04.952,-0.025,0.065
2021-08-19 01:33:04.956,-0.025,0.065
2021-08-19 01:33:04.960,-0.02,0.07
2021-08-19 01:33:04.964,-0.025,0.075
2021-08-19 01:33:04.968,-0.025,0.075
2021-08-19 01:33:04.972,-0.03,0.075
2021-08-19 01:33:04.976,-0.015,0.075
2021-08-19 01:33:04.980,-0.01,0.06
2021-08-19 01:33:04.984,-0.02,0.07
2021-08-19 01:33:04.988,-0.005,0.085
2021-08-19 01:33:04.992,0.005,0.095
2021-08-19 01:33:04.996,-0.005,0.115
2021-08-19 01:33:05.000,0.0,0.15
2021-08-19 01:33:05.004,0.0,0.155
2021-08-19 01:33:05.008,0.015,0.175
2021-08-19 01:33:05.012,0.01,0.205
2021-08-19 01:33:05.016,0.01,0.21
2021-08-19 01:33:05.020,-0.01,0.195
2021-08-19 01:33:05.024,-0.02,0.155
2021-08-19 01:33:05.028,-0.015,0.115
2021-08-19 01:33:05.032,-0.03,0.085
2021-08-19 01:33:05.036,-0.03,0.075
2021-08-19 01:33:05.040,-0.045,0.045
2021-08-19 01:33:05.044,-0.075,0.035
2021-08-19 01:33:05.048,-0.065,0.025
2021-08-19 01:33:05.052,-0.065,0.03
2021-08-19 01:33:05.056,-0.065,0.04
2021-08-19 01:33:05.060,-0.095,0.025
2021-08-19 01:33:05.064,-0.085,0.03
2021-08-19 01:33:05.068,-0.105,0.035
2021-08-19 01:33:05.072,-0.115,0.025
2021-08-19 01:33:05.076,-0.095,0.02
2021-08-19 01:33:05.080,-0.095,0.02
2021-08-19 01:33:05.084,-0.105,0.015
2021-08-19 01:33:05.088,-0.08,-0.01
2021-08-19 01:33:05.092,-0.08,-0.005
2021-08-19 01:33:05.096,-0.075,-0.015
2021-08-19 01:33:05.100,-0.075,-0.015
2021-08-19 01:33:05.104,-0.09,-0.01
2021-08-19 01:33:05.108,-0.065,0.0
2021-08-19 01:33:05.112,-0.08,0.02
2021-08-19 01:33:05.116,-0.07,0.01
2021-08-19 01:33:05.120,-0.08,0.005
2021-08-19 01:33:05.124,-0.095,0.025
2021-08-19 01:33:05.128,-0.08,0.025
2021-08-19 01:33:05.132,-0.09,0.025
2021-08-19 01:33:05.136,-0.09,0.035
2021-08-19 01:33:05.140,-0.09,0.035
2021-08-19 01:33:05.144,-0.075,0.02
2021-08-19 01:33:05.148,-0.07,0.01
2021-08-19 01:33:05.152,-0.055,0.01
2021-08-19 01:33:05.156,-0.045,0.005
2021-08-19 01:33:05.160,-0.045,0.005
2021-08-19 01:33:05.164,-0.05,0.005
2021-08-19 01:33:05.168,-0.04,0.005
2021-08-19 01:33:05.172,-0.05,-0.015
2021-08-19 01:33:05.176,-0.05,-0.035
2021-08-19 01:33:05.180,-0.04,-0.015
2021-08-19 01:33:05.184,-0.04,0.0
2021-08-19 01:33:05.188,-0.03,0.0
2021-08-19 01:33:05.192,-0.025,0.0
2021-08-19 01:33:05.196,-0.03,0.015
2021-08-19 01:33:05.200,-0.01,0.0
2021-08-19 01:33:05.204,-0.01,0.005
2021-08-19 01:33:05.208,-0.015,0.025
2021-08-19 01:33:05.212,-0.005,0.055
2021-08-19 01:33:05.216,0.015,0.065
2021-08-19 01:33:05.220,0.035,0.075
2021-08-19 01:33:05.224,0.05,0.095
2021-08-19 01:33:05.228,0.04,0.13
2021-08-19 01:33:05.232,0.015,0.15
2021-08-19 01:33:05.236,-0.01,0.17
2021-08-19 01:33:05.240,-0.045,0.165
2021-08-19 01:33:05.244,-0.05,0.155
2021-08-19 01:33:05.248,-0.055,0.13
2021-08-19 01:33:05.252,-0.065,0.115
2021-08-19 01:33:05.256,-0.055,0.09
2021-08-19 01:33:05.260,-0.04,0.075
2021-08-19 01:33:05.264,0.0,0.065
2021-08-19 01:33:05.268,0.01,0.035
2021-08-19 01:33:05.272,0.01,0.02
2021-08-19 01:33:05.276,0.02,0.005
2021-08-19 01:33:05.280,0.01,0.02
2021-08-19 01:33:05.284,-0.005,0.045
2021-08-19 01:33:05.288,-0.025,0.045
2021-08-19 01:33:05.292,-0.01,0.04
2021-08-19 01:33:05.296,-0.02,0.035
2021-08-19 01:33:05.300,-0.025,0.025
2021-08-19 01:33:05.304,-0.035,0.04
2021-08-19 01:33:05.308,-0.03,0.035
2021-08-19 01:33:05.312,-0.03,0.035
2021-08-19 01:33:05.316,-0.025,0.03
2021-08-19 01:33:05.320,0.0,0.05
2021-08-19 01:33:05.324,-0.015,0.035
2021-08-19 01:33:05.328,-0.035,0.055
2021-08-19 01:33:05.332,-0.03,0.03
2021-08-19 01:33:05.336,-0.01,0.025
2021-08-19 01:33:05.340,-0.005,0.045
2021-08-19 01:33:05.344,-0.005,0.045
2021-08-19 01:33:05.348,-0.01,0.05
2021-08-19 01:33:05.352,-0.01,0.055
2021-08-19 01:33:05.356,-0.015,0.05
2021-08-19 01:33:05.360,-0.005,0.055
2021-08-19 01:33:05.364,-0.015,0.04
2021-08-19 01:33:05.368,0.02,0.055
2021-08-19 01:33:05.372,0.02,0.045
2021-08-19 01:33:05.376,0.0,0.06
2021-08-19 01:33:05.380,0.01,0.05
2021-08-19 01:33:05.384,-0.005,0.005
2021-08-19 01:33:05.388,0.02,0.02
2021-08-19 01:33:05.392,0.025,0.015
2021-08-19 01:33:05.396,0.025,0.005
2021-08-19 01:33:05.400,0.01,-0.005
2021-08-19 01:33:05.404,0.03,0.0
2021-08-19 01:33:05.408,0.01,-0.015
2021-08-19 01:33:05.412,0.015,-0.015
2021-08-19 01:33:05.416,0.035,-0.01
2021-08-19 01:33:05.420,0.015,0.03
2021-08-19 01:33:05.424,0.03,0.025
2021-08-19 01:33:05.428,0.02,0.075
2021-08-19 01:33:05.432,0.035,0.095
2021-08-19 01:33:05.436,0.03,0.115
2021-08-19 01:33:05.440,0.035,0.125
2021-08-19 01:33:05.444,0.045,0.12
2021-08-19 01:33:05.448,0.055,0.135
2021-08-19 01:33:05.452,0.03,0.165
2021-08-19 01:33:05.456,0.005,0.235
2021-08-19 01:33:05.460,-0.02,0.25
2021-08-19 01:33:05.464,-0.04,0.26
2021-08-19 01:33:05.468,-0.055,0.335
2021-08-19 01:33:05.472,-0.05,0.545
2021-08-19 01:33:05.476,-0.04,0.8
2021-08-19 01:33:05.480,0.005,1.01
2021-08-19 01:33:05.484,0.03,1.12
2021-08-19 01:33:05.488,0.035,1.165
2021-08-19 01:33:05.492,-0.02,1.145
2021-08-19 01:33:05.496,-0.05,1.03
2021-08-19 01:33:05.500,-0.09,0.86
2021-08-19 01:33:05.504,-0.135,0.54
2021-08-19 01:33:05.508,-0.325,0.275
2021-08-19 01:33:05.512,-0.59,0.34
2021-08-19 01:33:05.516,-0.94,0.54
2021-08-19 01:33:05.520,-1.235,0.64
2021-08-19 01:33:05.524,-1.42,0.425
2021-08-19 01:33:05.528,-1.495,0.075
2021-08-19 01:33:05.532,-1.395,-0.22
2021-08-19 01:33:05.536,-1.07,-0.395
2021-08-19 01:33:05.540,-0.615,-0.465
2021-08-19 01:33:05.544,-0.225,-0.4
2021-08-19 01:33:05.548,-0.08,-0.27
2021-08-19 01:33:05.552,-0.08,-0.17
2021-08-19 01:33:05.556,-0.085,-0.12
2021-08-19 01:33:05.560,-0.13,-0.12
2021-08-19 01:33:05.564,-0.12,-0.13
2021-08-19 01:33:05.568,-0.105,-0.125
2021-08-19 01:33:05.572,-0.05,-0.125
2021-08-19 01:33:05.576,-0.015,-0.11
2021-08-19 01:33:05.580,0.065,-0.085
2021-08-19 01:33:05.584,0.085,-0.09
2021-08-19 01:33:05.588,0.115,-0.095
2021-08-19 01:33:05.592,0.13,-0.06
2021-08-19 01:33:05.596,0.13,-0.055
2021-08-19 01:33:05.600,0.145,-0.055
2021-08-19 01:33:05.604,0.155,-0.055
2021-08-19 01:33:05.608,0.175,-0.045
2021-08-19 01:33:05.612,0.19,-0.05
2021-08-19 01:33:05.616,0.205,-0.055
2021-08-19 01:33:05.620,0.23,-0.035
2021-08-19 01:33:05.624,0.22,-0.05
2021-08-19 01:33:05.628,0.235,-0.05
2021-08-19 01:33:05.632,0.25,-0.04
2021-08-19 01:33:05.636,0.25,-0.025
2021-08-19 01:33:05.640,0.235,-0.015
2021-08-19 01:33:05.644,0.25,-0.005
2021-08-19 01:33:05.648,0.24,-0.01
2021-08-19 01:33:05.652,0.22,-0.045
2021-08-19 01:33:05.656,0.23,-0.065
2021-08-19 01:33:05.660,0.22,-0.105
2021-08-19 01:33:05.664,0.205,-0.11
2021-08-19 01:33:05.668,0.2,-0.105
2021-08-19 01:33:05.672,0.19,-0.1
2021-08-19 01:33:05.676,0.155,-0.115
2021-08-19 01:33:05.680,0.13,-0.1
2021-08-19 01:33:05.684,0.08,-0.12
2021-08-19 01:33:05.688,0.05,-0.13
2021-08-19 01:33:05.692,0.065,-0.15
2021-08-19 01:33:05.696,0.085,-0.16
2021-08-19 01:33:05.700,0.11,-0.155
2021-08-19 01:33:05.704,0.11,-0.15
2021-08-19 01:33:05.708,0.115,-0.16
2021-08-19 01:33:05.712,0.105,-0.15
2021-08-19 01:33:05.716,0.115,-0.16
2021-08-19 01:33:05.720,0.125,-0.155
2021-08-19 01:33:05.724,0.105,-0.155
2021-08-19 01:33:05.728,0.115,-0.165
2021-08-19 01:33:05.732,0.115,-0.165
2021-08-19 01:33:05.736,0.12,-0.18
2021-08-19 01:33:05.740,0.115,-0.175
2021-08-19 01:33:05.744,0.135,-0.19
2021-08-19 01:33:05.748,0.15,-0.21
2021-08-19 01:33:05.752,0.145,-0.195
2021-08-19 01:33:05.756,0.14,-0.195
2021-08-19 01:33:05.760,0.125,-0.205
2021-08-19 01:33:05.764,0.14,-0.195
2021-08-19 01:33:05.768,0.13,-0.165
2021-08-19 01:33:05.772,0.13,-0.16
2021-08-19 01:33:05.776,0.135,-0.155
2021-08-19 01:33:05.780,0.125,-0.145
2021-08-19 01:33:05.784,0.115,-0.115
2021-08-19 01:33:05.788,0.12,-0.125
2021-08-19 01:33:05.792,0.115,-0.085
2021-08-19 01:33:05.796,0.12,-0.06
2021-08-19 01:33:05.800,0.125,-0.02
2021-08-19 01:33:05.804,0.125,-0.04
2021-08-19 01:33:05.808,0.11,0.015
2021-08-19 01:33:05.812,0.11,0.035
2021-08-19 01:33:05.816,0.12,0.06
2021-08-19 01:33:05.820,0.13,0.065
2021-08-19 01:33:05.824,0.095,0.09
2021-08-19 01:33:05.828,0.115,0.11
2021-08-19 01:33:05.832,0.135,0.125
2021-08-19 01:33:05.836,0.14,0.145
2021-08-19 01:33:05.840,0.13,0.145
2021-08-19 01:33:05.844,0.125,0.165
2021-08-19 01:33:05.848,0.13,0.18
2021-08-19 01:33:05.852,0.15,0.2
2021-08-19 01:33:05.856,0.145,0.23
2021-08-19 01:33:05.860,0.17,0.23
2021-08-19 01:33:05.864,0.17,0.225
2021-08-19 01:33:05.868,0.185,0.225
2021-08-19 01:33:05.872,0.2,0.21
2021-08-19 01:33:05.876,0.205,0.2
2021-08-19 01:33:05.880,0.17,0.18
2021-08-19 01:33:05.884,0.145,0.18
2021-08-19 01:33:05.888,0.12,0.165
2021-08-19 01:33:05.892,0.105,0.17
2021-08-19 01:33:05.896,0.06,0.14
2021-08-19 01:33:05.900,0.03,0.14
2021-08-19 01:33:05.904,0.005,0.11
2021-08-19 01:33:05.908,0.01,0.12
2021-08-19 01:33:05.912,0.02,0.1
2021-08-19 01:33:05.916,0.05,0.085
2021-08-19 01:33:05.920,0.06,0.085
2021-08-19 01:33:05.924,0.06,0.09
2021-08-19 01:33:05.928,0.08,0.085
2021-08-19 01:33:05.932,0.075,0.08
2021-08-19 01:33:05.936,0.07,0.075
2021-08-19 01:33:05.940,0.085,0.085
2021-08-19 01:33:05.944,0.085,0.075
2021-08-19 01:33:05.948,0.095,0.085
2021-08-19 01:33:05.952,0.085,0.09
2021-08-19 01:33:05.956,0.075,0.085
2021-08-19 01:33:05.960,0.09,0.07
2021-08-19 01:33:05.964,0.08,0.065
2021-08-19 01:33:05.968,0.11,0.06
2021-08-19 01:33:05.972,0.105,0.045
2021-08-19 01:33:05.976,0.095,0.04
2021-08-19 01:33:05.980,0.085,0.025
2021-08-19 01:33:05.984,0.095,0.035
2021-08-19 01:33:05.988,0.085,0.03
2021-08-19 01:33:05.992,0.07,0.04
2021-08-19 01:33:05.996,0.085,0.055
2021-08-19 01:33:06.000,0.1,0.08
2021-08-19 01:33:06.004,0.08,0.1
2021-08-19 01:33:06.008,0.065,0.1
2021-08-19 01:33:06.012,0.075,0.08
2021-08-19 01:33:06.016,0.075,0.12
2021-08-19 01:33:06.020,0.075,0.16
2021-08-19 01:33:06.024,0.115,0.165
2021-08-19 01:33:06.028,0.135,0.095
2021-08-19 01:33:06.032,0.115,-0.065
2021-08-19 01:33:06.036,0.08,-0.27
2021-08-19 01:33:06.040,-0.01,-0.45
2021-08-19 01:33:06.044,-0.08,-0.605
2021-08-19 01:33:06.048,-0.17,-0.745
2021-08-19 01:33:06.052,-0.28,-0.675
2021-08-19 01:33:06.056,-0.39,-0.425
2021-08-19 01:33:06.060,-0.48,-0.22
2021-08-19 01:33:06.064,-0.54,-0.285
2021-08-19 01:33:06.068,-0.495,-0.56
2021-08-19 01:33:06.072,-0.365,-0.82
2021-08-19 01:33:06.076,-0.105,-0.975
2021-08-19 01:33:06.080,0.335,-0.995
2021-08-19 01:33:06.084,0.735,-0.885
2021-08-19 01:33:06.088,0.965,-0.66
2021-08-19 01:33:06.092,0.95,-0.47
2021-08-19 01:33:06.096,0.9,-0.295
2021-08-19 01:33:06.100,0.84,-0.19
2021-08-19 01:33:06.104,0.765,-0.15
2021-08-19 01:33:06.108,0.81,-0.08
2021-08-19 01:33:06.112,0.865,-0.07
2021-08-19 01:33:06.116,0.91,-0.05
2021-08-19 01:33:06.120,0.96,-0.07
2021-08-19 01:33:06.124,0.98,-0.08
2021-08-19 01:33:06.128,0.985,-0.095
2021-08-19 01:33:06.132,0.955,-0.075
2021-08-19 01:33:06.136,0.94,-0.025
2021-08-19 01:33:06.140,0.89,0.01
2021-08-19 01:33:06.144,0.83,0.035
2021-08-19 01:33:06.148,0.705,0.035
2021-08-19 01:33:06.152,0.54,0.035
2021-08-19 01:33:06.156,0.34,0.01
2021-08-19 01:33:06.160,0.14,0.005
2021-08-19 01:33:06.164,0.02,0.03
2021-08-19 01:33:06.168,-0.025,0.025
2021-08-19 01:33:06.172,-0.05,0.02
2021-08-19 01:33:06.176,-0.075,0.01
2021-08-19 01:33:06.180,-0.095,0.015
2021-08-19 01:33:06.184,-0.095,0.015
2021-08-19 01:33:06.188,-0.105,0.015
2021-08-19 01:33:06.192,-0.11,0.005
2021-08-19 01:33:06.196,-0.13,0.0
2021-08-19 01:33:06.200,-0.14,0.01
2021-08-19 01:33:06.204,-0.135,0.005
2021-08-19 01:33:06.208,-0.16,0.01
2021-08-19 01:33:06.212,-0.17,0.0
2021-08-19 01:33:06.216,-0.155,-0.005
2021-08-19 01:33:06.220,-0.175,-0.005
2021-08-19 01:33:06.224,-0.18,0.0
2021-08-19 01:33:06.228,-0.2,-0.015
2021-08-19 01:33:06.232,-0.21,0.005
2021-08-19 01:33:06.236,-0.19,0.015
2021-08-19 01:33:06.240,-0.205,0.005
2021-08-19 01:33:06.244,-0.215,0.02
2021-08-19 01:33:06.248,-0.205,0.01
2021-08-19 01:33:06.252,-0.22,0.005
2021-08-19 01:33:06.256,-0.2,0.03
2021-08-19 01:33:06.260,-0.205,0.025
2021-08-19 01:33:06.264,-0.215,0.06
2021-08-19 01:33:06.268,-0.225,0.075
2021-08-19 01:33:06.272,-0.23,0.085
2021-08-19 01:33:06.276,-0.255,0.115
2021-08-19 01:33:06.280,-0.255,0.155
2021-08-19 01:33:06.284,-0.255,0.185
2021-08-19 01:33:06.288,-0.27,0.235
2021-08-19 01:33:06.292,-0.265,0.285
2021-08-19 01:33:06.296,-0.235,0.3
2021-08-19 01:33:06.300,-0.25,0.32
2021-08-19 01:33:06.304,-0.25,0.32
2021-08-19 01:33:06.308,-0.25,0.33
2021-08-19 01:33:06.312,-0.27,0.325
2021-08-19 01:33:06.316,-0.32,0.33
2021-08-19 01:33:06.320,-0.34,0.33
2021-08-19 01:33:06.324,-0.375,0.335
2021-08-19 01:33:06.328,-0.385,0.335
2021-08-19 01:33:06.332,-0.385,0.335
2021-08-19 01:33:06.336,-0.415,0.325
2021-08-19 01:33:06.340,-0.4,0.315
2021-08-19 01:33:06.344,-0.4,0.325
2021-08-19 01:33:06.348,-0.385,0.29
2021-08-19 01:33:06.352,-0.395,0.24
2021-08-19 01:33:06.356,-0.365,0.2
2021-08-19 01:33:06.360,-0.345,0.185
2021-08-19 01:33:06.364,-0.325,0.15
2021-08-19 01:33:06.368,-0.32,0.1
2021-08-19 01:33:06.372,-0.28,0.08
2021-08-19 01:33:06.376,-0.25,0.075
2021-08-19 01:33:06.380,-0.24,0.045
2021-08-19 01:33:06.384,-0.23,0.025
2021-08-19 01:33:06.388,-0.195,0.03
2021-08-19 01:33:06.392,-0.2,0.025
2021-08-19 01:33:06.396,-0.19,0.005
2021-08-19 01:33:06.400,-0.16,0.0
2021-08-19 01:33:06.404,-0.15,0.005
2021-08-19 01:33:06.408,-0.14,-0.005
2021-08-19 01:33:06.412,-0.125,0.005
2021-08-19 01:33:06.416,-0.105,0.005
2021-08-19 01:33:06.420,-0.08,-0.02
2021-08-19 01:33:06.424,-0.055,-0.045
2021-08-19 01:33:06.428,-0.045,-0.015
2021-08-19 01:33:06.432,-0.025,-0.03
2021-08-19 01:33:06.436,0.005,-0.045
2021-08-19 01:33:06.440,-0.01,-0.055
2021-08-19 01:33:06.444,0.01,-0.07
2021-08-19 01:33:06.448,0.0,-0.06
2021-08-19 01:33:06.452,0.015,-0.055
2021-08-19 01:33:06.456,0.015,-0.065
