Time,ECG1,ECG2
2021-08-19 11:54:13.064,0.545,0.75
2021-08-19 11:54:13.068,0.455,0.705
2021-08-19 11:54:13.072,0.355,0.665
2021-08-19 11:54:13.076,0.36,0.61
2021-08-19 11:54:13.080,0.44,0.57
2021-08-19 11:54:13.084,0.53,0.495
2021-08-19 11:54:13.088,0.53,0.515
2021-08-19 11:54:13.092,0.495,0.5
2021-08-19 11:54:13.096,0.5,0.48
2021-08-19 11:54:13.100,0.51,0.47
2021-08-19 11:54:13.104,0.53,0.46
2021-08-19 11:54:13.108,0.53,0.465
2021-08-19 11:54:13.112,0.565,0.445
2021-08-19 11:54:13.116,0.61,0.435
2021-08-19 11:54:13.120,0.59,0.425
2021-08-19 11:54:13.124,0.59,0.445
2021-08-19 11:54:13.128,0.575,0.44
2021-08-19 11:54:13.132,0.6,0.41
2021-08-19 11:54:13.136,0.68,0.44
2021-08-19 11:54:13.140,0.785,0.455
2021-08-19 11:54:13.144,0.75,0.48
2021-08-19 11:54:13.148,0.625,0.5
2021-08-19 11:54:13.152,0.485,0.495
2021-08-19 11:54:13.156,0.46,0.495
2021-08-19 11:54:13.160,0.51,0.515
2021-08-19 11:54:13.164,0.52,0.54
2021-08-19 11:54:13.168,0.53,0.55
2021-08-19 11:54:13.172,0.6,0.57
2021-08-19 11:54:13.176,0.69,0.61
2021-08-19 11:54:13.180,0.71,0.6
2021-08-19 11:54:13.184,0.745,0.585
2021-08-19 11:54:13.188,0.765,0.575
2021-08-19 11:54:13.192,0.735,0.57
2021-08-19 11:54:13.196,0.765,0.56
2021-08-19 11:54:13.200,0.735,0.575
2021-08-19 11:54:13.204,0.715,0.565
2021-08-19 11:54:13.208,0.69,0.525
2021-08-19 11:54:13.212,0.63,0.515
2021-08-19 11:54:13.216,0.625,0.515
2021-08-19 11:54:13.220,0.65,0.515
2021-08-19 11:54:13.224,0.67,0.505
2021-08-19 11:54:13.228,0.72,0.505
2021-08-19 11:54:13.232,0.75,0.52
2021-08-19 11:54:13.236,0.65,0.54
2021-08-19 11:54:13.240,0.585,0.505
2021-08-19 11:54:13.244,0.635,0.505
2021-08-19 11:54:13.248,0.72,0.5
2021-08-19 11:54:13.252,0.68,0.535
2021-08-19 11:54:13.256,0.665,0.52
2021-08-19 11:54:13.260,0.68,0.49
2021-08-19 11:54:13.264,0.495,0.465
2021-08-19 11:54:13.268,0.355,0.445
2021-08-19 11:54:13.272,0.405,0.46
2021-08-19 11:54:13.276,0.5,0.45
2021-08-19 11:54:13.280,0.525,0.475
2021-08-19 11:54:13.284,0.505,0.47
2021-08-19 11:54:13.288,0.435,0.45
2021-08-19 11:54:13.292,0.395,0.42
2021-08-19 11:54:13.296,0.4,0.41
2021-08-19 11:54:13.300,0.415,0.375
2021-08-19 11:54:13.304,0.44,0.405
2021-08-19 11:54:13.308,0.49,0.43
2021-08-19 11:54:13.312,0.605,0.4
2021-08-19 11:54:13.316,0.66,0.42
2021-08-19 11:54:13.320,0.425,0.41
2021-08-19 11:54:13.324,0.22,0.42
2021-08-19 11:54:13.328,0.27,0.385
2021-08-19 11:54:13.332,0.34,0.405
2021-08-19 11:54:13.336,0.315,0.395
2021-08-19 11:54:13.340,0.26,0.395
2021-08-19 11:54:13.344,0.205,0.415
2021-08-19 11:54:13.348,0.185,0.375
2021-08-19 11:54:13.352,0.175,0.39
2021-08-19 11:54:13.356,0.14,0.405
2021-08-19 11:54:13.360,0.11,0.43
2021-08-19 11:54:13.364,0.165,0.435
2021-08-19 11:54:13.368,0.29,0.415
2021-08-19 11:54:13.372,0.435,0.455
2021-08-19 11:54:13.376,0.49,0.5
2021-08-19 11:54:13.380,0.44,0.525
2021-08-19 11:54:13.384,0.37,0.595
2021-08-19 11:54:13.388,0.215,0.52
2021-08-19 11:54:13.392,-0.055,0.24
2021-08-19 11:54:13.396,-0.37,-0.2
2021-08-19 11:54:13.400,-0.705,-0.74
2021-08-19 11:54:13.404,-0.92,-1.465
2021-08-19 11:54:13.488,-0.73,-1.875
2021-08-19 11:54:13.492,-0.585,-1.41
2021-08-19 11:54:13.496,-0.465,-1.045
2021-08-19 11:54:13.500,-0.33,-0.71
2021-08-19 11:54:13.504,-0.2,-0.395
2021-08-19 11:54:13.508,-0.1,-0.185
2021-08-19 11:54:13.512,-0.04,0.04
2021-08-19 11:54:13.516,0.005,0.275
2021-08-19 11:54:13.520,0.05,0.47
2021-08-19 11:54:13.524,0.055,0.63
2021-08-19 11:54:13.528,0.085,0.805
2021-08-19 11:54:13.532,0.085,0.94
2021-08-19 11:54:13.536,0.095,1.01
2021-08-19 11:54:13.540,0.12,1.035
2021-08-19 11:54:13.544,0.115,1.08
2021-08-19 11:54:13.548,0.14,1.09
2021-08-19 11:54:13.552,0.17,1.15
2021-08-19 11:54:13.556,0.18,1.155
2021-08-19 11:54:13.560,0.205,1.18
2021-08-19 11:54:13.564,0.225,1.24
2021-08-19 11:54:13.568,0.24,1.25
2021-08-19 11:54:13.572,0.27,1.26
2021-08-19 11:54:13.576,0.265,1.31
2021-08-19 11:54:13.580,0.28,1.345
2021-08-19 11:54:13.584,0.295,1.39
2021-08-19 11:54:13.588,0.33,1.385
2021-08-19 11:54:13.592,0.365,1.44
2021-08-19 11:54:13.596,0.395,1.455
2021-08-19 11:54:13.600,0.43,1.455
2021-08-19 11:54:13.604,0.425,1.46
2021-08-19 11:54:13.608,0.445,1.48
2021-08-19 11:54:13.612,0.46,1.505
2021-08-19 11:54:13.616,0.495,1.515
2021-08-19 11:54:13.620,0.475,1.51
2021-08-19 11:54:13.624,0.505,1.525
2021-08-19 11:54:13.628,0.515,1.535
2021-08-19 11:54:13.632,0.535,1.54
2021-08-19 11:54:13.636,0.535,1.575
2021-08-19 11:54:13.640,0.51,1.575
2021-08-19 11:54:13.644,0.54,1.62
2021-08-19 11:54:13.648,0.55,1.67
2021-08-19 11:54:13.652,0.53,1.69
2021-08-19 11:54:13.656,0.54,1.705
2021-08-19 11:54:13.660,0.56,1.74
2021-08-19 11:54:13.664,0.555,1.75
2021-08-19 11:54:13.668,0.565,1.78
2021-08-19 11:54:13.672,0.585,1.815
2021-08-19 11:54:13.676,0.56,1.83
2021-08-19 11:54:13.680,0.565,1.84
2021-08-19 11:54:13.684,0.56,1.84
2021-08-19 11:54:13.688,0.55,1.855
2021-08-19 11:54:13.692,0.535,1.855
2021-08-19 11:54:13.696,0.54,1.84
2021-08-19 11:54:13.700,0.54,1.84
2021-08-19 11:54:13.704,0.505,1.82
2021-08-19 11:54:13.708,0.515,1.805
2021-08-19 11:54:13.712,0.48,1.81
2021-08-19 11:54:13.716,0.425,1.78
2021-08-19 11:54:13.720,0.405,1.73
2021-08-19 11:54:13.724,0.37,1.695
2021-08-19 11:54:13.728,0.345,1.675
2021-08-19 11:54:13.732,0.28,1.595
2021-08-19 11:54:13.736,0.26,1.545
2021-08-19 11:54:13.740,0.225,1.485
2021-08-19 11:54:13.744,0.205,1.42
2021-08-19 11:54:13.748,0.17,1.355
2021-08-19 11:54:13.752,0.155,1.285
2021-08-19 11:54:13.756,0.13,1.24
2021-08-19 11:54:13.760,0.105,1.14
2021-08-19 11:54:13.764,0.105,1.1
2021-08-19 11:54:13.768,0.085,1.05
2021-08-19 11:54:13.772,0.075,1.005
2021-08-19 11:54:13.776,0.05,0.93
2021-08-19 11:54:13.780,0.07,0.915
2021-08-19 11:54:13.784,0.14,0.87
2021-08-19 11:54:13.788,0.21,0.82
2021-08-19 11:54:13.792,0.24,0.81
2021-08-19 11:54:13.796,0.22,0.755
2021-08-19 11:54:13.800,0.04,0.715
2021-08-19 11:54:13.804,-0.06,0.7
2021-08-19 11:54:13.808,-0.025,0.68
2021-08-19 11:54:13.812,0.0,0.69
2021-08-19 11:54:13.816,-0.06,0.7
2021-08-19 11:54:13.820,-0.105,0.7
2021-08-19 11:54:13.824,-0.095,0.71
2021-08-19 11:54:13.828,-0.025,0.69
2021-08-19 11:54:13.832,0.04,0.645
2021-08-19 11:54:13.836,0.085,0.62
2021-08-19 11:54:13.840,0.085,0.605
2021-08-19 11:54:13.844,0.105,0.59
2021-08-19 11:54:13.848,0.095,0.6
2021-08-19 11:54:13.852,0.11,0.57
2021-08-19 11:54:13.856,0.145,0.56
2021-08-19 11:54:13.860,0.24,0.59
2021-08-19 11:54:13.864,0.335,0.575
2021-08-19 11:54:13.868,0.515,0.585
2021-08-19 11:54:13.872,0.63,0.565
2021-08-19 11:54:13.876,0.625,0.58
2021-08-19 11:54:13.880,0.47,0.595
2021-08-19 11:54:13.884,0.225,0.61
2021-08-19 11:54:13.888,-0.14,0.5
2021-08-19 11:54:13.892,-0.605,0.19
2021-08-19 11:54:13.896,-0.985,-0.285
2021-08-19 11:54:13.900,-1.15,-0.95
2021-08-19 11:54:13.904,-1.155,-1.775
2021-08-19 11:54:13.976,-0.575,-1.99
2021-08-19 11:54:13.980,-0.465,-1.49
2021-08-19 11:54:13.984,-0.34,-1.02
2021-08-19 11:54:13.988,-0.25,-0.63
2021-08-19 11:54:13.992,-0.155,-0.31
2021-08-19 11:54:13.996,-0.1,-0.025
2021-08-19 11:54:14.000,-0.07,0.22
2021-08-19 11:54:14.004,-0.05,0.43
2021-08-19 11:54:14.008,-0.02,0.63
2021-08-19 11:54:14.012,-0.005,0.81
2021-08-19 11:54:14.016,0.01,0.955
2021-08-19 11:54:14.020,0.03,1.025
2021-08-19 11:54:14.024,0.055,1.09
2021-08-19 11:54:14.028,0.09,1.1
2021-08-19 11:54:14.032,0.135,1.13
2021-08-19 11:54:14.036,0.19,1.165
2021-08-19 11:54:14.040,0.21,1.185
2021-08-19 11:54:14.044,0.25,1.23
2021-08-19 11:54:14.048,0.295,1.27
2021-08-19 11:54:14.052,0.35,1.315
2021-08-19 11:54:14.056,0.4,1.335
2021-08-19 11:54:14.060,0.425,1.395
2021-08-19 11:54:14.064,0.425,1.42
2021-08-19 11:54:14.068,0.425,1.42
2021-08-19 11:54:14.072,0.405,1.43
2021-08-19 11:54:14.076,0.34,1.4
2021-08-19 11:54:14.080,0.285,1.385
2021-08-19 11:54:14.084,0.27,1.38
2021-08-19 11:54:14.088,0.285,1.38
2021-08-19 11:54:14.092,0.315,1.4
2021-08-19 11:54:14.096,0.315,1.39
2021-08-19 11:54:14.100,0.315,1.4
2021-08-19 11:54:14.104,0.31,1.42
2021-08-19 11:54:14.108,0.305,1.415
2021-08-19 11:54:14.112,0.3,1.425
2021-08-19 11:54:14.116,0.285,1.465
2021-08-19 11:54:14.120,0.255,1.47
2021-08-19 11:54:14.124,0.23,1.46
2021-08-19 11:54:14.128,0.235,1.475
2021-08-19 11:54:14.132,0.23,1.48
2021-08-19 11:54:14.136,0.235,1.51
2021-08-19 11:54:14.140,0.205,1.52
2021-08-19 11:54:14.144,0.22,1.53
2021-08-19 11:54:14.148,0.205,1.585
2021-08-19 11:54:14.152,0.185,1.6
2021-08-19 11:54:14.156,0.155,1.63
2021-08-19 11:54:14.160,0.14,1.635
2021-08-19 11:54:14.164,0.155,1.65
2021-08-19 11:54:14.168,0.15,1.655
2021-08-19 11:54:14.172,0.135,1.66
2021-08-19 11:54:14.176,0.155,1.66
2021-08-19 11:54:14.180,0.15,1.67
2021-08-19 11:54:14.184,0.15,1.67
2021-08-19 11:54:14.188,0.13,1.67
2021-08-19 11:54:14.192,0.105,1.645
2021-08-19 11:54:14.196,0.08,1.62
2021-08-19 11:54:14.200,0.06,1.61
2021-08-19 11:54:14.204,0.005,1.595
2021-08-19 11:54:14.208,-0.035,1.55
2021-08-19 11:54:14.212,-0.06,1.48
2021-08-19 11:54:14.216,-0.075,1.4
2021-08-19 11:54:14.220,-0.07,1.345
2021-08-19 11:54:14.224,-0.09,1.3
2021-08-19 11:54:14.228,-0.105,1.23
2021-08-19 11:54:14.232,-0.125,1.17
2021-08-19 11:54:14.236,-0.13,1.125
2021-08-19 11:54:14.240,-0.145,1.06
2021-08-19 11:54:14.244,-0.135,1.02
2021-08-19 11:54:14.248,-0.11,0.975
2021-08-19 11:54:14.252,-0.145,0.925
2021-08-19 11:54:14.256,-0.14,0.865
2021-08-19 11:54:14.260,-0.12,0.82
2021-08-19 11:54:14.264,-0.105,0.8
2021-08-19 11:54:14.268,-0.085,0.765
2021-08-19 11:54:14.272,-0.065,0.72
2021-08-19 11:54:14.276,-0.02,0.715
2021-08-19 11:54:14.280,0.035,0.745
2021-08-19 11:54:14.284,0.045,0.75
2021-08-19 11:54:14.288,-0.005,0.755
2021-08-19 11:54:14.292,-0.02,0.755
2021-08-19 11:54:14.296,-0.03,0.76
2021-08-19 11:54:14.300,-0.01,0.77
2021-08-19 11:54:14.304,0.01,0.79
2021-08-19 11:54:14.308,0.015,0.8
2021-08-19 11:54:14.312,0.02,0.775
2021-08-19 11:54:14.316,-0.005,0.75
2021-08-19 11:54:14.320,-0.02,0.695
2021-08-19 11:54:14.324,-0.03,0.67
2021-08-19 11:54:14.328,-0.02,0.63
2021-08-19 11:54:14.332,-0.03,0.63
2021-08-19 11:54:14.336,-0.055,0.605
2021-08-19 11:54:14.340,-0.06,0.59
2021-08-19 11:54:14.344,-0.09,0.57
2021-08-19 11:54:14.348,-0.105,0.585
2021-08-19 11:54:14.352,-0.11,0.575
2021-08-19 11:54:14.356,-0.145,0.575
2021-08-19 11:54:14.360,-0.16,0.575
2021-08-19 11:54:14.364,-0.17,0.59
2021-08-19 11:54:14.368,-0.185,0.555
2021-08-19 11:54:14.372,-0.205,0.53
2021-08-19 11:54:14.376,-0.21,0.535
2021-08-19 11:54:14.380,-0.215,0.53
2021-08-19 11:54:14.384,-0.22,0.5
2021-08-19 11:54:14.388,-0.225,0.5
2021-08-19 11:54:14.392,-0.22,0.48
2021-08-19 11:54:14.396,-0.225,0.495
2021-08-19 11:54:14.400,-0.24,0.465
2021-08-19 11:54:14.404,-0.25,0.475
2021-08-19 11:54:14.408,-0.255,0.485
2021-08-19 11:54:14.412,-0.26,0.495
2021-08-19 11:54:14.416,-0.255,0.475
2021-08-19 11:54:14.420,-0.255,0.46
2021-08-19 11:54:14.424,-0.24,0.475
2021-08-19 11:54:14.428,-0.24,0.445
2021-08-19 11:54:14.432,-0.215,0.46
2021-08-19 11:54:14.436,-0.205,0.47
2021-08-19 11:54:14.440,-0.205,0.46
2021-08-19 11:54:14.444,-0.17,0.46
2021-08-19 11:54:14.448,-0.15,0.49
2021-08-19 11:54:14.452,-0.155,0.475
2021-08-19 11:54:14.456,-0.18,0.51
2021-08-19 11:54:14.460,-0.2,0.515
2021-08-19 11:54:14.464,-0.215,0.495
2021-08-19 11:54:14.468,-0.2,0.49
2021-08-19 11:54:14.472,-0.19,0.495
2021-08-19 11:54:14.476,-0.16,0.51
2021-08-19 11:54:14.480,-0.145,0.525
2021-08-19 11:54:14.484,-0.135,0.525
2021-08-19 11:54:14.488,-0.115,0.535
2021-08-19 11:54:14.492,-0.11,0.515
2021-08-19 11:54:14.496,-0.08,0.535
2021-08-19 11:54:14.500,-0.1,0.545
2021-08-19 11:54:14.504,-0.135,0.53
2021-08-19 11:54:14.508,-0.18,0.55
2021-08-19 11:54:14.512,-0.165,0.54
2021-08-19 11:54:14.516,-0.055,0.51
2021-08-19 11:54:14.520,0.065,0.51
2021-08-19 11:54:14.524,0.155,0.54
2021-08-19 11:54:14.528,0.12,0.595
2021-08-19 11:54:14.532,0.015,0.655
2021-08-19 11:54:14.536,-0.135,0.7
2021-08-19 11:54:14.540,-0.45,0.545
2021-08-19 11:54:14.544,-0.85,0.125
2021-08-19 11:54:14.548,-1.22,-0.4
2021-08-19 11:54:14.552,-1.52,-1.035
2021-08-19 11:54:14.636,-0.915,-2.0
2021-08-19 11:54:14.640,-0.755,-1.48
2021-08-19 11:54:14.644,-0.595,-1.085
2021-08-19 11:54:14.648,-0.41,-0.73
2021-08-19 11:54:14.652,-0.215,-0.415
2021-08-19 11:54:14.656,-0.065,-0.155
2021-08-19 11:54:14.660,0.01,0.12
2021-08-19 11:54:14.664,0.09,0.355
2021-08-19 11:54:14.668,0.115,0.61
2021-08-19 11:54:14.672,0.12,0.815
2021-08-19 11:54:14.676,0.145,0.975
2021-08-19 11:54:14.680,0.195,1.08
2021-08-19 11:54:14.684,0.2,1.165
2021-08-19 11:54:14.688,0.225,1.2
2021-08-19 11:54:14.692,0.25,1.26
2021-08-19 11:54:14.696,0.26,1.285
2021-08-19 11:54:14.700,0.265,1.325
2021-08-19 11:54:14.704,0.28,1.34
2021-08-19 11:54:14.708,0.27,1.37
2021-08-19 11:54:14.712,0.305,1.41
2021-08-19 11:54:14.716,0.29,1.42
2021-08-19 11:54:14.720,0.29,1.44
2021-08-19 11:54:14.724,0.28,1.44
2021-08-19 11:54:14.728,0.34,1.45
2021-08-19 11:54:14.732,0.355,1.47
2021-08-19 11:54:14.736,0.39,1.475
2021-08-19 11:54:14.740,0.405,1.49
2021-08-19 11:54:14.744,0.405,1.475
2021-08-19 11:54:14.748,0.42,1.505
2021-08-19 11:54:14.752,0.43,1.52
2021-08-19 11:54:14.756,0.425,1.53
2021-08-19 11:54:14.760,0.43,1.55
2021-08-19 11:54:14.764,0.445,1.57
2021-08-19 11:54:14.768,0.455,1.58
2021-08-19 11:54:14.772,0.475,1.59
2021-08-19 11:54:14.776,0.505,1.625
2021-08-19 11:54:14.780,0.53,1.68
2021-08-19 11:54:14.784,0.56,1.69
2021-08-19 11:54:14.788,0.56,1.72
2021-08-19 11:54:14.792,0.565,1.77
2021-08-19 11:54:14.796,0.565,1.775
2021-08-19 11:54:14.800,0.56,1.83
2021-08-19 11:54:14.804,0.53,1.845
2021-08-19 11:54:14.808,0.5,1.855
2021-08-19 11:54:14.812,0.52,1.895
2021-08-19 11:54:14.816,0.56,1.905
2021-08-19 11:54:14.820,0.585,1.905
2021-08-19 11:54:14.824,0.57,1.91
2021-08-19 11:54:14.828,0.59,1.93
2021-08-19 11:54:14.832,0.57,1.945
2021-08-19 11:54:14.836,0.585,1.965
2021-08-19 11:54:14.840,0.57,1.97
2021-08-19 11:54:14.844,0.57,1.955
2021-08-19 11:54:14.848,0.535,1.97
2021-08-19 11:54:14.852,0.52,1.925
2021-08-19 11:54:14.856,0.53,1.915
2021-08-19 11:54:14.860,0.515,1.88
2021-08-19 11:54:14.864,0.5,1.845
2021-08-19 11:54:14.868,0.455,1.8
2021-08-19 11:54:14.872,0.445,1.76
2021-08-19 11:54:14.876,0.425,1.72
2021-08-19 11:54:14.880,0.39,1.655
2021-08-19 11:54:14.884,0.38,1.59
2021-08-19 11:54:14.888,0.35,1.55
2021-08-19 11:54:14.892,0.335,1.455
2021-08-19 11:54:14.896,0.295,1.385
2021-08-19 11:54:14.900,0.245,1.32
2021-08-19 11:54:14.904,0.225,1.275
2021-08-19 11:54:14.908,0.235,1.18
2021-08-19 11:54:14.912,0.23,1.16
2021-08-19 11:54:14.916,0.195,1.08
2021-08-19 11:54:14.920,0.185,1.035
2021-08-19 11:54:14.924,0.17,0.995
2021-08-19 11:54:14.928,0.175,0.97
2021-08-19 11:54:14.932,0.17,0.9
2021-08-19 11:54:14.936,0.17,0.885
2021-08-19 11:54:14.940,0.185,0.835
2021-08-19 11:54:14.944,0.18,0.75
2021-08-19 11:54:14.948,0.19,0.7
2021-08-19 11:54:14.952,0.18,0.67
2021-08-19 11:54:14.956,0.18,0.65
2021-08-19 11:54:14.960,0.175,0.6
2021-08-19 11:54:14.964,0.155,0.58
2021-08-19 11:54:14.968,0.14,0.56
2021-08-19 11:54:14.972,0.145,0.52
2021-08-19 11:54:14.976,0.15,0.5
2021-08-19 11:54:14.980,0.155,0.53
2021-08-19 11:54:14.984,0.155,0.49
2021-08-19 11:54:14.988,0.165,0.495
2021-08-19 11:54:14.992,0.165,0.51
2021-08-19 11:54:14.996,0.145,0.515
2021-08-19 11:54:15.000,0.14,0.52
2021-08-19 11:54:15.004,0.13,0.495
2021-08-19 11:54:15.008,0.13,0.49
2021-08-19 11:54:15.012,0.12,0.495
2021-08-19 11:54:15.016,0.175,0.49
2021-08-19 11:54:15.020,0.245,0.5
2021-08-19 11:54:15.024,0.415,0.46
2021-08-19 11:54:15.028,0.64,0.455
2021-08-19 11:54:15.032,0.805,0.46
2021-08-19 11:54:15.036,0.785,0.46
2021-08-19 11:54:15.040,0.625,0.515
2021-08-19 11:54:15.044,0.4,0.53
2021-08-19 11:54:15.048,-0.015,0.43
2021-08-19 11:54:15.052,-0.475,0.11
2021-08-19 11:54:15.056,-0.855,-0.34
2021-08-19 11:54:15.060,-0.995,-0.995
2021-08-19 11:54:15.064,-0.995,-1.82
2021-08-19 11:54:15.132,-0.11,-1.915
2021-08-19 11:54:15.136,-0.08,-1.43
2021-08-19 11:54:15.140,0.07,-0.995
2021-08-19 11:54:15.144,0.18,-0.545
2021-08-19 11:54:15.148,0.23,-0.21
2021-08-19 11:54:15.152,0.3,0.065
2021-08-19 11:54:15.156,0.36,0.27
2021-08-19 11:54:15.160,0.39,0.425
2021-08-19 11:54:15.164,0.395,0.56
2021-08-19 11:54:15.168,0.355,0.725
2021-08-19 11:54:15.172,0.395,0.82
2021-08-19 11:54:15.176,0.4,0.895
2021-08-19 11:54:15.180,0.365,0.945
2021-08-19 11:54:15.184,0.35,0.955
2021-08-19 11:54:15.188,0.38,0.94
2021-08-19 11:54:15.192,0.375,0.96
2021-08-19 11:54:15.196,0.405,0.99
2021-08-19 11:54:15.200,0.4,0.985
2021-08-19 11:54:15.204,0.395,1.01
2021-08-19 11:54:15.208,0.395,1.035
2021-08-19 11:54:15.212,0.435,1.02
2021-08-19 11:54:15.216,0.45,1.02
2021-08-19 11:54:15.220,0.475,1.025
2021-08-19 11:54:15.224,0.465,1.045
2021-08-19 11:54:15.228,0.47,1.06
2021-08-19 11:54:15.232,0.52,1.055
2021-08-19 11:54:15.236,0.515,1.05
2021-08-19 11:54:15.240,0.485,1.1
2021-08-19 11:54:15.244,0.53,1.17
2021-08-19 11:54:15.248,0.605,1.25
2021-08-19 11:54:15.252,0.63,1.265
2021-08-19 11:54:15.256,0.62,1.275
2021-08-19 11:54:15.260,0.575,1.285
2021-08-19 11:54:15.264,0.58,1.345
2021-08-19 11:54:15.268,0.615,1.395
2021-08-19 11:54:15.272,0.63,1.415
2021-08-19 11:54:15.276,0.65,1.445
2021-08-19 11:54:15.280,0.64,1.46
2021-08-19 11:54:15.284,0.635,1.47
2021-08-19 11:54:15.288,0.655,1.495
2021-08-19 11:54:15.292,0.645,1.52
2021-08-19 11:54:15.296,0.62,1.56
2021-08-19 11:54:15.300,0.565,1.63
2021-08-19 11:54:15.304,0.565,1.62
2021-08-19 11:54:15.308,0.56,1.59
2021-08-19 11:54:15.312,0.545,1.575
2021-08-19 11:54:15.316,0.53,1.605
2021-08-19 11:54:15.320,0.49,1.61
2021-08-19 11:54:15.324,0.465,1.615
2021-08-19 11:54:15.328,0.455,1.59
2021-08-19 11:54:15.332,0.46,1.59
2021-08-19 11:54:15.336,0.46,1.555
2021-08-19 11:54:15.340,0.435,1.56
2021-08-19 11:54:15.344,0.4,1.505
2021-08-19 11:54:15.348,0.37,1.42
2021-08-19 11:54:15.352,0.355,1.39
2021-08-19 11:54:15.356,0.35,1.3
2021-08-19 11:54:15.360,0.34,1.27
2021-08-19 11:54:15.364,0.335,1.16
2021-08-19 11:54:15.368,0.29,1.09
2021-08-19 11:54:15.372,0.225,1.01
2021-08-19 11:54:15.376,0.185,0.955
2021-08-19 11:54:15.380,0.2,0.915
2021-08-19 11:54:15.384,0.2,0.84
2021-08-19 11:54:15.388,0.17,0.785
2021-08-19 11:54:15.392,0.11,0.765
2021-08-19 11:54:15.396,0.1,0.71
2021-08-19 11:54:15.400,0.115,0.66
2021-08-19 11:54:15.404,0.085,0.63
2021-08-19 11:54:15.408,0.1,0.59
2021-08-19 11:54:15.412,0.12,0.545
2021-08-19 11:54:15.416,0.14,0.525
2021-08-19 11:54:15.420,0.12,0.49
2021-08-19 11:54:15.424,0.1,0.455
2021-08-19 11:54:15.428,0.085,0.45
2021-08-19 11:54:15.432,0.12,0.445
2021-08-19 11:54:15.436,0.13,0.46
2021-08-19 11:54:15.440,0.13,0.48
2021-08-19 11:54:15.444,0.14,0.495
2021-08-19 11:54:15.448,0.115,0.475
2021-08-19 11:54:15.452,0.11,0.48
2021-08-19 11:54:15.456,0.13,0.45
2021-08-19 11:54:15.460,0.15,0.425
2021-08-19 11:54:15.464,0.125,0.45
2021-08-19 11:54:15.468,0.13,0.47
2021-08-19 11:54:15.472,0.15,0.47
2021-08-19 11:54:15.476,0.17,0.455
2021-08-19 11:54:15.480,0.135,0.465
2021-08-19 11:54:15.484,0.085,0.455
2021-08-19 11:54:15.488,0.1,0.48
2021-08-19 11:54:15.492,0.09,0.46
2021-08-19 11:54:15.496,0.105,0.45
2021-08-19 11:54:15.500,0.135,0.45
2021-08-19 11:54:15.504,0.09,0.455
2021-08-19 11:54:15.508,0.065,0.47
2021-08-19 11:54:15.512,0.035,0.485
2021-08-19 11:54:15.516,0.01,0.49
2021-08-19 11:54:15.520,0.03,0.5
2021-08-19 11:54:15.524,0.04,0.445
2021-08-19 11:54:15.528,0.055,0.395
2021-08-19 11:54:15.532,0.065,0.35
2021-08-19 11:54:15.536,0.075,0.39
2021-08-19 11:54:15.540,0.07,0.395
2021-08-19 11:54:15.544,0.075,0.36
2021-08-19 11:54:15.548,0.055,0.295
2021-08-19 11:54:15.552,0.045,0.28
2021-08-19 11:54:15.556,0.06,0.31
2021-08-19 11:54:15.560,0.115,0.32
2021-08-19 11:54:15.564,0.11,0.305
2021-08-19 11:54:15.568,0.055,0.28
2021-08-19 11:54:15.572,0.045,0.26
2021-08-19 11:54:15.576,0.09,0.255
2021-08-19 11:54:15.580,0.06,0.275
2021-08-19 11:54:15.584,0.02,0.295
2021-08-19 11:54:15.588,0.04,0.31
2021-08-19 11:54:15.592,0.095,0.295
2021-08-19 11:54:15.596,0.07,0.27
2021-08-19 11:54:15.600,0.065,0.27
2021-08-19 11:54:15.604,0.035,0.29
2021-08-19 11:54:15.608,0.0,0.305
2021-08-19 11:54:15.612,-0.02,0.28
2021-08-19 11:54:15.616,0.0,0.295
2021-08-19 11:54:15.620,0.0,0.27
2021-08-19 11:54:15.624,0.0,0.28
2021-08-19 11:54:15.628,0.01,0.25
2021-08-19 11:54:15.632,0.02,0.275
2021-08-19 11:54:15.636,0.05,0.285
2021-08-19 11:54:15.640,0.095,0.32
2021-08-19 11:54:15.644,0.21,0.325
2021-08-19 11:54:15.648,0.35,0.285
2021-08-19 11:54:15.652,0.335,0.33
2021-08-19 11:54:15.656,0.22,0.415
2021-08-19 11:54:15.660,0.025,0.515
2021-08-19 11:54:15.664,-0.225,0.485
2021-08-19 11:54:15.668,-0.57,0.205
2021-08-19 11:54:15.672,-0.885,-0.225
2021-08-19 11:54:15.676,-1.15,-0.735
2021-08-19 11:54:15.680,-1.275,-1.415
2021-08-19 11:54:15.756,-0.665,-1.91
2021-08-19 11:54:15.760,-0.545,-1.51
2021-08-19 11:54:15.764,-0.42,-1.175
2021-08-19 11:54:15.768,-0.285,-0.895
2021-08-19 11:54:15.772,-0.16,-0.61
2021-08-19 11:54:15.776,-0.08,-0.38
2021-08-19 11:54:15.780,-0.035,-0.135
2021-08-19 11:54:15.784,0.03,0.05
2021-08-19 11:54:15.788,0.085,0.23
2021-08-19 11:54:15.792,0.085,0.415
2021-08-19 11:54:15.796,0.095,0.595
2021-08-19 11:54:15.800,0.12,0.725
2021-08-19 11:54:15.804,0.165,0.84
2021-08-19 11:54:15.808,0.17,0.905
2021-08-19 11:54:15.812,0.175,0.905
2021-08-19 11:54:15.816,0.18,0.94
2021-08-19 11:54:15.820,0.185,0.94
2021-08-19 11:54:15.824,0.21,0.96
2021-08-19 11:54:15.828,0.215,0.97
2021-08-19 11:54:15.832,0.265,0.985
2021-08-19 11:54:15.836,0.28,1.0
2021-08-19 11:54:15.840,0.29,1.065
2021-08-19 11:54:15.844,0.31,1.085
2021-08-19 11:54:15.848,0.315,1.115
2021-08-19 11:54:15.852,0.315,1.16
2021-08-19 11:54:15.856,0.35,1.15
2021-08-19 11:54:15.860,0.375,1.195
2021-08-19 11:54:15.864,0.41,1.21
2021-08-19 11:54:15.868,0.44,1.255
2021-08-19 11:54:15.872,0.47,1.25
2021-08-19 11:54:15.876,0.48,1.28
2021-08-19 11:54:15.880,0.5,1.35
2021-08-19 11:54:15.884,0.495,1.395
2021-08-19 11:54:15.888,0.505,1.42
2021-08-19 11:54:15.892,0.505,1.45
2021-08-19 11:54:15.896,0.53,1.49
2021-08-19 11:54:15.900,0.52,1.53
2021-08-19 11:54:15.904,0.525,1.57
2021-08-19 11:54:15.908,0.51,1.595
2021-08-19 11:54:15.912,0.54,1.625
2021-08-19 11:54:15.916,0.55,1.635
2021-08-19 11:54:15.920,0.555,1.655
2021-08-19 11:54:15.924,0.555,1.64
2021-08-19 11:54:15.928,0.54,1.685
2021-08-19 11:54:15.932,0.52,1.73
2021-08-19 11:54:15.936,0.515,1.76
2021-08-19 11:54:15.940,0.49,1.76
2021-08-19 11:54:15.944,0.505,1.755
2021-08-19 11:54:15.948,0.5,1.73
2021-08-19 11:54:15.952,0.5,1.735
2021-08-19 11:54:15.956,0.465,1.72
2021-08-19 11:54:15.960,0.435,1.68
2021-08-19 11:54:15.964,0.395,1.66
2021-08-19 11:54:15.968,0.36,1.61
2021-08-19 11:54:15.972,0.325,1.605
2021-08-19 11:54:15.976,0.285,1.59
2021-08-19 11:54:15.980,0.255,1.54
2021-08-19 11:54:15.984,0.245,1.505
2021-08-19 11:54:15.988,0.21,1.455
2021-08-19 11:54:15.992,0.19,1.39
2021-08-19 11:54:15.996,0.15,1.3
2021-08-19 11:54:16.000,0.105,1.25
2021-08-19 11:54:16.004,0.095,1.21
2021-08-19 11:54:16.008,0.08,1.16
2021-08-19 11:54:16.012,0.06,1.11
2021-08-19 11:54:16.016,0.025,1.03
2021-08-19 11:54:16.020,0.01,0.965
2021-08-19 11:54:16.024,-0.02,0.89
2021-08-19 11:54:16.028,-0.03,0.83
2021-08-19 11:54:16.032,-0.015,0.78
2021-08-19 11:54:16.036,0.0,0.74
2021-08-19 11:54:16.040,-0.025,0.725
2021-08-19 11:54:16.044,-0.025,0.675
2021-08-19 11:54:16.048,-0.02,0.635
2021-08-19 11:54:16.052,-0.005,0.62
2021-08-19 11:54:16.056,-0.04,0.605
2021-08-19 11:54:16.060,-0.04,0.595
2021-08-19 11:54:16.064,-0.05,0.555
2021-08-19 11:54:16.068,-0.08,0.55
2021-08-19 11:54:16.072,-0.075,0.54
2021-08-19 11:54:16.076,-0.04,0.56
2021-08-19 11:54:16.080,-0.02,0.52
2021-08-19 11:54:16.084,-0.01,0.545
2021-08-19 11:54:16.088,-0.02,0.51
2021-08-19 11:54:16.092,-0.035,0.51
2021-08-19 11:54:16.096,-0.02,0.53
2021-08-19 11:54:16.100,-0.045,0.525
2021-08-19 11:54:16.104,-0.065,0.53
2021-08-19 11:54:16.108,-0.075,0.53
2021-08-19 11:54:16.112,-0.1,0.535
2021-08-19 11:54:16.116,-0.085,0.53
2021-08-19 11:54:16.120,-0.095,0.495
2021-08-19 11:54:16.124,-0.09,0.53
2021-08-19 11:54:16.128,-0.095,0.54
2021-08-19 11:54:16.132,-0.095,0.54
2021-08-19 11:54:16.136,-0.075,0.55
2021-08-19 11:54:16.140,-0.09,0.555
2021-08-19 11:54:16.144,-0.105,0.555
2021-08-19 11:54:16.148,-0.11,0.565
2021-08-19 11:54:16.152,-0.145,0.555
2021-08-19 11:54:16.156,-0.14,0.59
2021-08-19 11:54:16.160,-0.15,0.555
2021-08-19 11:54:16.164,-0.16,0.565
2021-08-19 11:54:16.168,-0.17,0.575
2021-08-19 11:54:16.172,-0.18,0.535
2021-08-19 11:54:16.176,-0.185,0.525
2021-08-19 11:54:16.180,-0.2,0.525
2021-08-19 11:54:16.184,-0.185,0.53
2021-08-19 11:54:16.188,-0.185,0.545
2021-08-19 11:54:16.192,-0.14,0.535
2021-08-19 11:54:16.196,-0.09,0.53
2021-08-19 11:54:16.200,-0.105,0.51
2021-08-19 11:54:16.204,-0.085,0.485
2021-08-19 11:54:16.208,-0.08,0.49
2021-08-19 11:54:16.212,-0.075,0.46
2021-08-19 11:54:16.216,-0.065,0.45
2021-08-19 11:54:16.220,-0.075,0.455
2021-08-19 11:54:16.224,-0.07,0.41
2021-08-19 11:54:16.228,-0.105,0.42
2021-08-19 11:54:16.232,-0.105,0.405
2021-08-19 11:54:16.236,-0.09,0.395
2021-08-19 11:54:16.240,-0.065,0.405
2021-08-19 11:54:16.244,-0.09,0.41
2021-08-19 11:54:16.248,-0.075,0.395
2021-08-19 11:54:16.252,-0.045,0.39
2021-08-19 11:54:16.256,0.0,0.425
2021-08-19 11:54:16.260,0.09,0.415
2021-08-19 11:54:16.264,0.2,0.43
2021-08-19 11:54:16.268,0.335,0.44
2021-08-19 11:54:16.272,0.37,0.49
2021-08-19 11:54:16.276,0.305,0.555
2021-08-19 11:54:16.280,0.155,0.65
2021-08-19 11:54:16.284,-0.14,0.58
2021-08-19 11:54:16.288,-0.45,0.34
2021-08-19 11:54:16.292,-0.73,-0.06
2021-08-19 11:54:16.296,-0.93,-0.54
2021-08-19 11:54:16.300,-1.015,-1.265
2021-08-19 11:54:16.380,-0.85,-1.625
2021-08-19 11:54:16.384,-0.685,-1.195
2021-08-19 11:54:16.388,-0.535,-0.845
2021-08-19 11:54:16.392,-0.405,-0.55
2021-08-19 11:54:16.396,-0.255,-0.29
2021-08-19 11:54:16.400,-0.165,-0.08
2021-08-19 11:54:16.404,-0.085,0.1
2021-08-19 11:54:16.408,-0.035,0.305
2021-08-19 11:54:16.412,0.0,0.5
2021-08-19 11:54:16.416,0.02,0.655
2021-08-19 11:54:16.420,0.04,0.8
2021-08-19 11:54:16.424,0.075,0.91
2021-08-19 11:54:16.428,0.08,0.975
2021-08-19 11:54:16.432,0.09,1.05
2021-08-19 11:54:16.436,0.12,1.08
2021-08-19 11:54:16.440,0.16,1.085
2021-08-19 11:54:16.444,0.215,1.1
2021-08-19 11:54:16.448,0.245,1.11
2021-08-19 11:54:16.452,0.245,1.12
2021-08-19 11:54:16.456,0.26,1.105
2021-08-19 11:54:16.460,0.275,1.14
2021-08-19 11:54:16.464,0.3,1.13
2021-08-19 11:54:16.468,0.35,1.135
2021-08-19 11:54:16.472,0.365,1.15
2021-08-19 11:54:16.476,0.39,1.165
2021-08-19 11:54:16.480,0.39,1.205
2021-08-19 11:54:16.484,0.39,1.23
2021-08-19 11:54:16.488,0.39,1.27
2021-08-19 11:54:16.492,0.4,1.32
2021-08-19 11:54:16.496,0.405,1.345
2021-08-19 11:54:16.500,0.405,1.325
2021-08-19 11:54:16.504,0.405,1.35
2021-08-19 11:54:16.508,0.42,1.375
2021-08-19 11:54:16.512,0.41,1.415
2021-08-19 11:54:16.516,0.37,1.415
2021-08-19 11:54:16.520,0.35,1.475
2021-08-19 11:54:16.524,0.335,1.51
2021-08-19 11:54:16.528,0.315,1.53
2021-08-19 11:54:16.532,0.3,1.525
2021-08-19 11:54:16.536,0.29,1.55
2021-08-19 11:54:16.540,0.28,1.57
2021-08-19 11:54:16.544,0.3,1.61
2021-08-19 11:54:16.548,0.305,1.61
2021-08-19 11:54:16.552,0.31,1.615
2021-08-19 11:54:16.556,0.315,1.64
2021-08-19 11:54:16.560,0.305,1.68
2021-08-19 11:54:16.564,0.305,1.7
2021-08-19 11:54:16.568,0.295,1.725
2021-08-19 11:54:16.572,0.28,1.72
2021-08-19 11:54:16.576,0.265,1.72
2021-08-19 11:54:16.580,0.265,1.73
2021-08-19 11:54:16.584,0.255,1.715
2021-08-19 11:54:16.588,0.235,1.7
2021-08-19 11:54:16.592,0.21,1.685
2021-08-19 11:54:16.596,0.21,1.63
2021-08-19 11:54:16.600,0.185,1.63
2021-08-19 11:54:16.604,0.155,1.555
2021-08-19 11:54:16.608,0.145,1.545
2021-08-19 11:54:16.612,0.13,1.505
2021-08-19 11:54:16.616,0.095,1.455
2021-08-19 11:54:16.620,0.085,1.385
2021-08-19 11:54:16.624,0.055,1.34
2021-08-19 11:54:16.628,0.035,1.27
2021-08-19 11:54:16.632,0.0,1.215
2021-08-19 11:54:16.636,-0.02,1.15
2021-08-19 11:54:16.640,-0.05,1.09
2021-08-19 11:54:16.644,-0.07,1.03
2021-08-19 11:54:16.648,-0.08,1.0
2021-08-19 11:54:16.652,-0.09,0.955
2021-08-19 11:54:16.656,-0.09,0.9
2021-08-19 11:54:16.660,-0.08,0.85
2021-08-19 11:54:16.664,-0.075,0.8
2021-08-19 11:54:16.668,-0.095,0.755
2021-08-19 11:54:16.672,-0.075,0.735
2021-08-19 11:54:16.676,-0.075,0.68
2021-08-19 11:54:16.680,-0.035,0.62
2021-08-19 11:54:16.684,-0.055,0.585
2021-08-19 11:54:16.688,-0.045,0.565
2021-08-19 11:54:16.692,-0.075,0.54
2021-08-19 11:54:16.696,-0.06,0.52
2021-08-19 11:54:16.700,-0.08,0.51
2021-08-19 11:54:16.704,-0.07,0.495
2021-08-19 11:54:16.708,-0.08,0.475
2021-08-19 11:54:16.712,-0.075,0.465
2021-08-19 11:54:16.716,-0.1,0.475
2021-08-19 11:54:16.720,-0.085,0.465
2021-08-19 11:54:16.724,-0.06,0.455
2021-08-19 11:54:16.728,-0.08,0.47
2021-08-19 11:54:16.732,-0.105,0.495
2021-08-19 11:54:16.736,-0.105,0.485
2021-08-19 11:54:16.740,-0.095,0.5
2021-08-19 11:54:16.744,-0.065,0.48
2021-08-19 11:54:16.748,0.0,0.475
2021-08-19 11:54:16.752,0.135,0.465
2021-08-19 11:54:16.756,0.165,0.455
2021-08-19 11:54:16.760,0.145,0.51
2021-08-19 11:54:16.764,0.005,0.59
2021-08-19 11:54:16.768,-0.28,0.645
2021-08-19 11:54:16.772,-0.72,0.505
2021-08-19 11:54:16.776,-1.175,0.205
2021-08-19 11:54:16.780,-1.45,-0.15
2021-08-19 11:54:16.784,-1.59,-0.78
2021-08-19 11:54:16.788,-1.56,-1.63
2021-08-19 11:54:16.864,-0.77,-1.7
2021-08-19 11:54:16.868,-0.63,-1.235
2021-08-19 11:54:16.872,-0.46,-0.89
2021-08-19 11:54:16.876,-0.285,-0.55
2021-08-19 11:54:16.880,-0.12,-0.27
2021-08-19 11:54:16.884,-0.03,-0.055
2021-08-19 11:54:16.888,0.045,0.13
2021-08-19 11:54:16.892,0.11,0.34
2021-08-19 11:54:16.896,0.155,0.53
2021-08-19 11:54:16.900,0.15,0.685
2021-08-19 11:54:16.904,0.18,0.815
2021-08-19 11:54:16.908,0.185,0.93
2021-08-19 11:54:16.912,0.175,1.005
2021-08-19 11:54:16.916,0.18,1.05
2021-08-19 11:54:16.920,0.185,1.05
2021-08-19 11:54:16.924,0.2,1.065
2021-08-19 11:54:16.928,0.195,1.085
2021-08-19 11:54:16.932,0.19,1.095
2021-08-19 11:54:16.936,0.19,1.1
2021-08-19 11:54:16.940,0.225,1.13
2021-08-19 11:54:16.944,0.26,1.15
2021-08-19 11:54:16.948,0.26,1.17
2021-08-19 11:54:16.952,0.26,1.2
2021-08-19 11:54:16.956,0.25,1.22
2021-08-19 11:54:16.960,0.235,1.23
2021-08-19 11:54:16.964,0.23,1.265
2021-08-19 11:54:16.968,0.235,1.27
2021-08-19 11:54:16.972,0.21,1.3
2021-08-19 11:54:16.976,0.245,1.295
2021-08-19 11:54:16.980,0.24,1.29
2021-08-19 11:54:16.984,0.23,1.34
2021-08-19 11:54:16.988,0.235,1.34
2021-08-19 11:54:16.992,0.25,1.39
2021-08-19 11:54:16.996,0.28,1.455
2021-08-19 11:54:17.000,0.29,1.475
2021-08-19 11:54:17.004,0.295,1.495
2021-08-19 11:54:17.008,0.275,1.535
2021-08-19 11:54:17.012,0.305,1.54
2021-08-19 11:54:17.016,0.315,1.57
2021-08-19 11:54:17.020,0.325,1.59
2021-08-19 11:54:17.024,0.33,1.605
2021-08-19 11:54:17.028,0.34,1.635
2021-08-19 11:54:17.032,0.375,1.67
2021-08-19 11:54:17.036,0.365,1.66
2021-08-19 11:54:17.040,0.38,1.7
2021-08-19 11:54:17.044,0.39,1.725
2021-08-19 11:54:17.048,0.4,1.745
2021-08-19 11:54:17.052,0.395,1.75
2021-08-19 11:54:17.056,0.39,1.79
2021-08-19 11:54:17.060,0.385,1.77
2021-08-19 11:54:17.064,0.355,1.755
2021-08-19 11:54:17.068,0.345,1.77
2021-08-19 11:54:17.072,0.325,1.745
2021-08-19 11:54:17.076,0.34,1.73
2021-08-19 11:54:17.080,0.31,1.725
2021-08-19 11:54:17.084,0.265,1.7
2021-08-19 11:54:17.088,0.24,1.655
2021-08-19 11:54:17.092,0.23,1.605
2021-08-19 11:54:17.096,0.2,1.565
2021-08-19 11:54:17.100,0.175,1.515
2021-08-19 11:54:17.104,0.145,1.455
2021-08-19 11:54:17.108,0.13,1.37
2021-08-19 11:54:17.112,0.085,1.3
2021-08-19 11:54:17.116,0.06,1.225
2021-08-19 11:54:17.120,0.03,1.145
2021-08-19 11:54:17.124,0.01,1.085
2021-08-19 11:54:17.128,-0.025,1.015
2021-08-19 11:54:17.132,-0.05,0.93
2021-08-19 11:54:17.136,-0.06,0.88
2021-08-19 11:54:17.140,-0.08,0.815
2021-08-19 11:54:17.144,-0.105,0.775
2021-08-19 11:54:17.148,-0.13,0.72
2021-08-19 11:54:17.152,-0.15,0.685
2021-08-19 11:54:17.156,-0.16,0.635
2021-08-19 11:54:17.160,-0.17,0.595
2021-08-19 11:54:17.164,-0.16,0.565
2021-08-19 11:54:17.168,-0.195,0.565
2021-08-19 11:54:17.172,-0.225,0.545
2021-08-19 11:54:17.176,-0.235,0.52
2021-08-19 11:54:17.180,-0.27,0.52
2021-08-19 11:54:17.184,-0.275,0.495
2021-08-19 11:54:17.188,-0.29,0.48
2021-08-19 11:54:17.192,-0.285,0.465
2021-08-19 11:54:17.196,-0.285,0.455
2021-08-19 11:54:17.200,-0.275,0.45
2021-08-19 11:54:17.204,-0.265,0.435
2021-08-19 11:54:17.208,-0.25,0.415
2021-08-19 11:54:17.212,-0.195,0.43
2021-08-19 11:54:17.216,-0.14,0.45
2021-08-19 11:54:17.220,-0.005,0.46
2021-08-19 11:54:17.224,0.165,0.475
2021-08-19 11:54:17.228,0.245,0.5
2021-08-19 11:54:17.232,0.195,0.54
2021-08-19 11:54:17.236,0.045,0.635
2021-08-19 11:54:17.240,-0.31,0.665
2021-08-19 11:54:17.244,-0.82,0.575
2021-08-19 11:54:17.248,-1.33,0.25
2021-08-19 11:54:17.252,-1.675,-0.12
2021-08-19 11:54:17.256,-1.84,-0.7
2021-08-19 11:54:17.260,-1.855,-1.615
2021-08-19 11:54:17.336,-0.765,-1.965
2021-08-19 11:54:17.340,-0.6,-1.5
2021-08-19 11:54:17.344,-0.475,-1.125
2021-08-19 11:54:17.348,-0.3,-0.775
2021-08-19 11:54:17.352,-0.175,-0.465
2021-08-19 11:54:17.356,-0.07,-0.21
2021-08-19 11:54:17.360,0.0,0.01
2021-08-19 11:54:17.364,0.06,0.255
2021-08-19 11:54:17.368,0.105,0.485
2021-08-19 11:54:17.372,0.1,0.645
2021-08-19 11:54:17.376,0.105,0.795
2021-08-19 11:54:17.380,0.115,0.935
2021-08-19 11:54:17.384,0.11,1.01
2021-08-19 11:54:17.388,0.09,1.07
2021-08-19 11:54:17.392,0.11,1.085
2021-08-19 11:54:17.396,0.07,1.1
2021-08-19 11:54:17.400,0.06,1.16
2021-08-19 11:54:17.404,0.075,1.17
2021-08-19 11:54:17.408,0.065,1.195
2021-08-19 11:54:17.412,0.07,1.2
2021-08-19 11:54:17.416,0.09,1.22
2021-08-19 11:54:17.420,0.07,1.225
2021-08-19 11:54:17.424,0.09,1.23
2021-08-19 11:54:17.428,0.11,1.25
2021-08-19 11:54:17.432,0.115,1.265
2021-08-19 11:54:17.436,0.12,1.285
2021-08-19 11:54:17.440,0.145,1.325
2021-08-19 11:54:17.444,0.185,1.345
2021-08-19 11:54:17.448,0.2,1.38
2021-08-19 11:54:17.452,0.23,1.375
2021-08-19 11:54:17.456,0.24,1.42
2021-08-19 11:54:17.460,0.26,1.45
2021-08-19 11:54:17.464,0.28,1.49
2021-08-19 11:54:17.468,0.315,1.475
2021-08-19 11:54:17.472,0.345,1.525
2021-08-19 11:54:17.476,0.35,1.57
2021-08-19 11:54:17.480,0.39,1.6
2021-08-19 11:54:17.484,0.4,1.625
2021-08-19 11:54:17.488,0.385,1.65
2021-08-19 11:54:17.492,0.395,1.685
2021-08-19 11:54:17.496,0.405,1.705
2021-08-19 11:54:17.500,0.395,1.715
2021-08-19 11:54:17.504,0.43,1.725
2021-08-19 11:54:17.508,0.445,1.75
2021-08-19 11:54:17.512,0.47,1.755
2021-08-19 11:54:17.516,0.465,1.765
2021-08-19 11:54:17.520,0.47,1.79
2021-08-19 11:54:17.524,0.455,1.78
2021-08-19 11:54:17.528,0.46,1.815
2021-08-19 11:54:17.532,0.45,1.785
2021-08-19 11:54:17.536,0.425,1.765
2021-08-19 11:54:17.540,0.41,1.75
2021-08-19 11:54:17.544,0.405,1.71
2021-08-19 11:54:17.548,0.385,1.7
2021-08-19 11:54:17.552,0.355,1.67
2021-08-19 11:54:17.556,0.325,1.64
2021-08-19 11:54:17.560,0.295,1.61
2021-08-19 11:54:17.564,0.245,1.555
2021-08-19 11:54:17.568,0.22,1.52
2021-08-19 11:54:17.572,0.195,1.455
2021-08-19 11:54:17.576,0.14,1.4
2021-08-19 11:54:17.580,0.095,1.35
2021-08-19 11:54:17.584,0.065,1.29
2021-08-19 11:54:17.588,0.045,1.245
2021-08-19 11:54:17.592,0.0,1.165
2021-08-19 11:54:17.596,-0.02,1.115
2021-08-19 11:54:17.600,-0.035,1.045
2021-08-19 11:54:17.604,-0.06,1.01
2021-08-19 11:54:17.608,-0.08,0.95
2021-08-19 11:54:17.612,-0.135,0.9
2021-08-19 11:54:17.616,-0.175,0.87
2021-08-19 11:54:17.620,-0.21,0.85
2021-08-19 11:54:17.624,-0.23,0.85
2021-08-19 11:54:17.628,-0.245,0.78
2021-08-19 11:54:17.632,-0.26,0.735
2021-08-19 11:54:17.636,-0.285,0.705
2021-08-19 11:54:17.640,-0.26,0.68
2021-08-19 11:54:17.644,-0.26,0.665
2021-08-19 11:54:17.648,-0.235,0.65
2021-08-19 11:54:17.652,-0.245,0.645
2021-08-19 11:54:17.656,-0.23,0.655
2021-08-19 11:54:17.660,-0.205,0.675
2021-08-19 11:54:17.664,-0.195,0.71
2021-08-19 11:54:17.668,-0.195,0.685
2021-08-19 11:54:17.672,-0.18,0.675
2021-08-19 11:54:17.676,-0.17,0.68
2021-08-19 11:54:17.680,-0.18,0.685
2021-08-19 11:54:17.684,-0.16,0.67
2021-08-19 11:54:17.688,-0.15,0.685
2021-08-19 11:54:17.692,-0.12,0.695
2021-08-19 11:54:17.696,-0.11,0.695
2021-08-19 11:54:17.700,-0.105,0.705
2021-08-19 11:54:17.704,-0.11,0.73
2021-08-19 11:54:17.708,-0.125,0.72
2021-08-19 11:54:17.712,-0.12,0.72
2021-08-19 11:54:17.716,-0.12,0.725
2021-08-19 11:54:17.720,-0.13,0.695
2021-08-19 11:54:17.724,-0.125,0.655
2021-08-19 11:54:17.728,-0.095,0.605
2021-08-19 11:54:17.732,-0.06,0.58
2021-08-19 11:54:17.736,-0.06,0.575
2021-08-19 11:54:17.740,-0.065,0.57
2021-08-19 11:54:17.744,-0.025,0.575
2021-08-19 11:54:17.748,-0.035,0.585
2021-08-19 11:54:17.752,-0.03,0.6
2021-08-19 11:54:17.756,-0.04,0.6
2021-08-19 11:54:17.760,-0.035,0.61
2021-08-19 11:54:17.764,-0.03,0.615
2021-08-19 11:54:17.768,-0.015,0.625
2021-08-19 11:54:17.772,-0.04,0.625
2021-08-19 11:54:17.776,-0.04,0.615
2021-08-19 11:54:17.780,-0.03,0.62
2021-08-19 11:54:17.784,-0.04,0.605
2021-08-19 11:54:17.788,-0.065,0.64
2021-08-19 11:54:17.792,-0.075,0.625
2021-08-19 11:54:17.796,-0.07,0.63
2021-08-19 11:54:17.800,-0.09,0.62
2021-08-19 11:54:17.804,-0.115,0.61
2021-08-19 11:54:17.808,-0.105,0.63
2021-08-19 11:54:17.812,-0.1,0.59
2021-08-19 11:54:17.816,-0.1,0.585
2021-08-19 11:54:17.820,-0.11,0.575
2021-08-19 11:54:17.824,-0.135,0.57
2021-08-19 11:54:17.828,-0.13,0.57
2021-08-19 11:54:17.832,-0.165,0.54
2021-08-19 11:54:17.836,-0.18,0.575
2021-08-19 11:54:17.840,-0.18,0.55
2021-08-19 11:54:17.844,-0.24,0.52
2021-08-19 11:54:17.848,-0.265,0.51
2021-08-19 11:54:17.852,-0.3,0.485
2021-08-19 11:54:17.856,-0.3,0.47
2021-08-19 11:54:17.860,-0.3,0.47
2021-08-19 11:54:17.864,-0.315,0.45
2021-08-19 11:54:17.868,-0.295,0.445
2021-08-19 11:54:17.872,-0.285,0.43
2021-08-19 11:54:17.876,-0.285,0.445
2021-08-19 11:54:17.880,-0.285,0.435
2021-08-19 11:54:17.884,-0.25,0.415
2021-08-19 11:54:17.888,-0.245,0.445
2021-08-19 11:54:17.892,-0.24,0.445
2021-08-19 11:54:17.896,-0.225,0.43
2021-08-19 11:54:17.900,-0.205,0.435
2021-08-19 11:54:17.904,-0.185,0.425
2021-08-19 11:54:17.908,-0.19,0.44
2021-08-19 11:54:17.912,-0.185,0.445
2021-08-19 11:54:17.916,-0.19,0.44
2021-08-19 11:54:17.920,-0.165,0.445
2021-08-19 11:54:17.924,-0.145,0.45
2021-08-19 11:54:17.928,-0.14,0.45
2021-08-19 11:54:17.932,-0.14,0.465
2021-08-19 11:54:17.936,-0.13,0.49
2021-08-19 11:54:17.940,-0.125,0.48
2021-08-19 11:54:17.944,-0.12,0.455
2021-08-19 11:54:17.948,-0.125,0.435
2021-08-19 11:54:17.952,-0.125,0.425
2021-08-19 11:54:17.956,-0.15,0.415
2021-08-19 11:54:17.960,-0.14,0.38
2021-08-19 11:54:17.964,-0.135,0.355
2021-08-19 11:54:17.968,-0.16,0.35
2021-08-19 11:54:17.972,-0.16,0.33
2021-08-19 11:54:17.976,-0.145,0.31
2021-08-19 11:54:17.980,-0.14,0.295
2021-08-19 11:54:17.984,-0.145,0.295
2021-08-19 11:54:17.988,-0.115,0.28
2021-08-19 11:54:17.992,0.0,0.3
2021-08-19 11:54:17.996,0.08,0.305
2021-08-19 11:54:18.000,0.08,0.355
2021-08-19 11:54:18.004,-0.02,0.415
2021-08-19 11:54:18.008,-0.215,0.495
2021-08-19 11:54:18.012,-0.54,0.45
2021-08-19 11:54:18.016,-0.955,0.16
2021-08-19 11:54:18.020,-1.305,-0.29
2021-08-19 11:54:18.024,-1.565,-0.835
2021-08-19 11:54:18.028,-1.705,-1.69
2021-08-19 11:54:18.112,-0.845,-1.6
2021-08-19 11:54:18.116,-0.655,-1.175
2021-08-19 11:54:18.120,-0.48,-0.835
2021-08-19 11:54:18.124,-0.32,-0.52
2021-08-19 11:54:18.128,-0.19,-0.28
2021-08-19 11:54:18.132,-0.12,-0.04
2021-08-19 11:54:18.136,-0.065,0.155
2021-08-19 11:54:18.140,0.005,0.35
2021-08-19 11:54:18.144,0.015,0.565
2021-08-19 11:54:18.148,0.045,0.73
2021-08-19 11:54:18.152,0.095,0.875
2021-08-19 11:54:18.156,0.13,0.97
2021-08-19 11:54:18.160,0.145,1.055
2021-08-19 11:54:18.164,0.195,1.12
2021-08-19 11:54:18.168,0.195,1.155
2021-08-19 11:54:18.172,0.205,1.195
2021-08-19 11:54:18.176,0.25,1.23
2021-08-19 11:54:18.180,0.27,1.26
2021-08-19 11:54:18.184,0.29,1.255
2021-08-19 11:54:18.188,0.285,1.275
2021-08-19 11:54:18.192,0.31,1.25
2021-08-19 11:54:18.196,0.32,1.235
2021-08-19 11:54:18.200,0.33,1.235
2021-08-19 11:54:18.204,0.305,1.255
2021-08-19 11:54:18.208,0.345,1.265
2021-08-19 11:54:18.212,0.36,1.27
2021-08-19 11:54:18.216,0.34,1.29
2021-08-19 11:54:18.220,0.335,1.31
2021-08-19 11:54:18.224,0.34,1.305
2021-08-19 11:54:18.228,0.31,1.33
2021-08-19 11:54:18.232,0.315,1.345
2021-08-19 11:54:18.236,0.3,1.38
2021-08-19 11:54:18.240,0.305,1.37
2021-08-19 11:54:18.244,0.275,1.37
2021-08-19 11:54:18.248,0.3,1.385
2021-08-19 11:54:18.252,0.32,1.405
2021-08-19 11:54:18.256,0.32,1.45
2021-08-19 11:54:18.260,0.31,1.455
2021-08-19 11:54:18.264,0.305,1.48
2021-08-19 11:54:18.268,0.295,1.515
2021-08-19 11:54:18.272,0.31,1.52
2021-08-19 11:54:18.276,0.325,1.535
2021-08-19 11:54:18.280,0.27,1.535
2021-08-19 11:54:18.284,0.25,1.55
2021-08-19 11:54:18.288,0.245,1.555
2021-08-19 11:54:18.292,0.285,1.58
2021-08-19 11:54:18.296,0.295,1.59
2021-08-19 11:54:18.300,0.28,1.605
2021-08-19 11:54:18.304,0.275,1.605
2021-08-19 11:54:18.308,0.28,1.625
2021-08-19 11:54:18.312,0.27,1.64
2021-08-19 11:54:18.316,0.275,1.61
2021-08-19 11:54:18.320,0.26,1.64
2021-08-19 11:54:18.324,0.27,1.6
2021-08-19 11:54:18.328,0.255,1.605
2021-08-19 11:54:18.332,0.235,1.575
2021-08-19 11:54:18.336,0.245,1.545
2021-08-19 11:54:18.340,0.215,1.52
2021-08-19 11:54:18.344,0.21,1.49
2021-08-19 11:54:18.348,0.2,1.475
2021-08-19 11:54:18.352,0.2,1.44
2021-08-19 11:54:18.356,0.165,1.41
2021-08-19 11:54:18.360,0.11,1.335
2021-08-19 11:54:18.364,0.08,1.34
2021-08-19 11:54:18.368,0.07,1.275
2021-08-19 11:54:18.372,0.05,1.23
2021-08-19 11:54:18.376,0.04,1.18
2021-08-19 11:54:18.380,0.02,1.125
2021-08-19 11:54:18.384,0.0,1.045
2021-08-19 11:54:18.388,-0.005,1.01
2021-08-19 11:54:18.392,-0.015,1.0
2021-08-19 11:54:18.396,-0.02,0.945
2021-08-19 11:54:18.400,-0.03,0.9
2021-08-19 11:54:18.404,-0.005,0.86
2021-08-19 11:54:18.408,-0.005,0.79
2021-08-19 11:54:18.412,-0.005,0.74
2021-08-19 11:54:18.416,-0.005,0.69
2021-08-19 11:54:18.420,-0.025,0.65
2021-08-19 11:54:18.424,-0.01,0.63
2021-08-19 11:54:18.428,-0.03,0.6
2021-08-19 11:54:18.432,-0.055,0.555
2021-08-19 11:54:18.436,-0.09,0.53
2021-08-19 11:54:18.440,-0.095,0.505
2021-08-19 11:54:18.444,-0.13,0.485
2021-08-19 11:54:18.448,-0.17,0.47
2021-08-19 11:54:18.452,-0.21,0.455
2021-08-19 11:54:18.456,-0.2,0.42
2021-08-19 11:54:18.460,-0.18,0.445
2021-08-19 11:54:18.464,-0.21,0.445
2021-08-19 11:54:18.468,-0.195,0.41
2021-08-19 11:54:18.472,-0.19,0.41
2021-08-19 11:54:18.476,-0.195,0.445
2021-08-19 11:54:18.480,-0.185,0.46
2021-08-19 11:54:18.484,-0.22,0.47
2021-08-19 11:54:18.488,-0.235,0.485
2021-08-19 11:54:18.492,-0.235,0.475
2021-08-19 11:54:18.496,-0.25,0.475
2021-08-19 11:54:18.500,-0.225,0.485
2021-08-19 11:54:18.504,-0.19,0.505
2021-08-19 11:54:18.508,-0.135,0.47
2021-08-19 11:54:18.512,-0.155,0.495
2021-08-19 11:54:18.516,-0.165,0.51
2021-08-19 11:54:18.520,-0.15,0.505
2021-08-19 11:54:18.524,-0.125,0.54
2021-08-19 11:54:18.528,-0.12,0.545
2021-08-19 11:54:18.532,-0.14,0.555
2021-08-19 11:54:18.536,-0.12,0.585
2021-08-19 11:54:18.540,-0.11,0.575
2021-08-19 11:54:18.544,-0.105,0.535
2021-08-19 11:54:18.548,-0.105,0.555
2021-08-19 11:54:18.552,-0.07,0.57
2021-08-19 11:54:18.556,-0.06,0.595
2021-08-19 11:54:18.560,-0.025,0.6
2021-08-19 11:54:18.564,-0.1,0.595
2021-08-19 11:54:18.568,-0.1,0.585
2021-08-19 11:54:18.572,-0.06,0.595
2021-08-19 11:54:18.576,-0.075,0.595
2021-08-19 11:54:18.580,-0.05,0.59
2021-08-19 11:54:18.584,-0.045,0.57
2021-08-19 11:54:18.588,-0.01,0.565
2021-08-19 11:54:18.592,-0.03,0.56
2021-08-19 11:54:18.596,-0.05,0.57
2021-08-19 11:54:18.600,-0.04,0.605
2021-08-19 11:54:18.604,-0.03,0.555
2021-08-19 11:54:18.608,-0.005,0.56
2021-08-19 11:54:18.612,0.01,0.515
2021-08-19 11:54:18.616,-0.005,0.515
2021-08-19 11:54:18.620,0.0,0.48
2021-08-19 11:54:18.624,0.01,0.46
2021-08-19 11:54:18.628,0.01,0.43
2021-08-19 11:54:18.632,0.01,0.41
2021-08-19 11:54:18.636,0.04,0.405
2021-08-19 11:54:18.640,0.09,0.395
2021-08-19 11:54:18.644,0.225,0.405
2021-08-19 11:54:18.648,0.295,0.39
2021-08-19 11:54:18.652,0.215,0.425
2021-08-19 11:54:18.656,0.035,0.455
2021-08-19 11:54:18.660,-0.255,0.495
2021-08-19 11:54:18.664,-0.685,0.335
2021-08-19 11:54:18.668,-1.19,-0.025
2021-08-19 11:54:18.672,-1.585,-0.5
2021-08-19 11:54:18.676,-1.845,-1.07
2021-08-19 11:54:18.680,-1.985,-1.915
2021-08-19 11:54:18.760,-0.675,-1.56
2021-08-19 11:54:18.764,-0.53,-1.16
2021-08-19 11:54:18.768,-0.37,-0.845
2021-08-19 11:54:18.772,-0.23,-0.54
2021-08-19 11:54:18.776,-0.135,-0.295
2021-08-19 11:54:18.780,-0.06,-0.08
2021-08-19 11:54:18.784,0.005,0.125
2021-08-19 11:54:18.788,0.095,0.345
2021-08-19 11:54:18.792,0.115,0.525
2021-08-19 11:54:18.796,0.115,0.7
2021-08-19 11:54:18.800,0.15,0.835
2021-08-19 11:54:18.804,0.185,0.925
2021-08-19 11:54:18.808,0.195,0.98
2021-08-19 11:54:18.812,0.205,0.995
2021-08-19 11:54:18.816,0.23,1.035
2021-08-19 11:54:18.820,0.215,1.085
2021-08-19 11:54:18.824,0.245,1.09
2021-08-19 11:54:18.828,0.26,1.11
2021-08-19 11:54:18.832,0.27,1.095
2021-08-19 11:54:18.836,0.3,1.07
2021-08-19 11:54:18.840,0.3,1.06
2021-08-19 11:54:18.844,0.295,1.05
2021-08-19 11:54:18.848,0.315,1.06
2021-08-19 11:54:18.852,0.315,1.065
2021-08-19 11:54:18.856,0.33,1.065
2021-08-19 11:54:18.860,0.35,1.085
2021-08-19 11:54:18.864,0.34,1.075
2021-08-19 11:54:18.868,0.315,1.105
2021-08-19 11:54:18.872,0.33,1.135
2021-08-19 11:54:18.876,0.34,1.16
2021-08-19 11:54:18.880,0.355,1.17
2021-08-19 11:54:18.884,0.345,1.18
2021-08-19 11:54:18.888,0.365,1.21
2021-08-19 11:54:18.892,0.365,1.215
2021-08-19 11:54:18.896,0.355,1.25
2021-08-19 11:54:18.900,0.37,1.28
2021-08-19 11:54:18.904,0.36,1.32
2021-08-19 11:54:18.908,0.36,1.315
2021-08-19 11:54:18.912,0.34,1.35
2021-08-19 11:54:18.916,0.34,1.365
2021-08-19 11:54:18.920,0.32,1.405
2021-08-19 11:54:18.924,0.315,1.43
2021-08-19 11:54:18.928,0.31,1.45
2021-08-19 11:54:18.932,0.3,1.495
2021-08-19 11:54:18.936,0.285,1.495
2021-08-19 11:54:18.940,0.285,1.515
2021-08-19 11:54:18.944,0.255,1.515
2021-08-19 11:54:18.948,0.24,1.52
2021-08-19 11:54:18.952,0.225,1.52
2021-08-19 11:54:18.956,0.225,1.51
2021-08-19 11:54:18.960,0.205,1.495
2021-08-19 11:54:18.964,0.19,1.48
2021-08-19 11:54:18.968,0.17,1.47
2021-08-19 11:54:18.972,0.14,1.44
2021-08-19 11:54:18.976,0.13,1.41
2021-08-19 11:54:18.980,0.11,1.385
2021-08-19 11:54:18.984,0.07,1.36
2021-08-19 11:54:18.988,0.055,1.325
2021-08-19 11:54:18.992,0.02,1.28
2021-08-19 11:54:18.996,0.0,1.205
2021-08-19 11:54:19.000,0.0,1.145
2021-08-19 11:54:19.004,-0.015,1.09
2021-08-19 11:54:19.008,-0.015,1.03
2021-08-19 11:54:19.012,-0.025,0.96
2021-08-19 11:54:19.016,-0.01,0.915
2021-08-19 11:54:19.020,-0.015,0.86
2021-08-19 11:54:19.024,-0.02,0.825
2021-08-19 11:54:19.028,-0.06,0.8
2021-08-19 11:54:19.032,-0.045,0.75
2021-08-19 11:54:19.036,-0.06,0.72
2021-08-19 11:54:19.040,-0.05,0.7
2021-08-19 11:54:19.044,-0.035,0.645
2021-08-19 11:54:19.048,-0.065,0.58
2021-08-19 11:54:19.052,-0.06,0.535
2021-08-19 11:54:19.056,-0.055,0.495
2021-08-19 11:54:19.060,-0.1,0.485
2021-08-19 11:54:19.064,-0.115,0.455
2021-08-19 11:54:19.068,-0.08,0.415
2021-08-19 11:54:19.072,-0.1,0.405
2021-08-19 11:54:19.076,-0.135,0.37
2021-08-19 11:54:19.080,-0.175,0.37
2021-08-19 11:54:19.084,-0.2,0.36
2021-08-19 11:54:19.088,-0.215,0.35
2021-08-19 11:54:19.092,-0.22,0.34
2021-08-19 11:54:19.096,-0.205,0.36
2021-08-19 11:54:19.100,-0.205,0.34
2021-08-19 11:54:19.104,-0.22,0.35
2021-08-19 11:54:19.108,-0.23,0.37
2021-08-19 11:54:19.112,-0.235,0.355
2021-08-19 11:54:19.116,-0.22,0.355
2021-08-19 11:54:19.120,-0.205,0.35
2021-08-19 11:54:19.124,-0.19,0.35
2021-08-19 11:54:19.128,-0.22,0.355
2021-08-19 11:54:19.132,-0.23,0.355
2021-08-19 11:54:19.136,-0.24,0.375
2021-08-19 11:54:19.140,-0.255,0.38
2021-08-19 11:54:19.144,-0.24,0.375
2021-08-19 11:54:19.148,-0.25,0.38
2021-08-19 11:54:19.152,-0.23,0.35
2021-08-19 11:54:19.156,-0.255,0.405
2021-08-19 11:54:19.160,-0.235,0.39
2021-08-19 11:54:19.164,-0.215,0.39
2021-08-19 11:54:19.168,-0.215,0.38
2021-08-19 11:54:19.172,-0.24,0.37
2021-08-19 11:54:19.176,-0.215,0.375
2021-08-19 11:54:19.180,-0.19,0.365
2021-08-19 11:54:19.184,-0.195,0.375
2021-08-19 11:54:19.188,-0.22,0.39
2021-08-19 11:54:19.192,-0.22,0.39
2021-08-19 11:54:19.196,-0.2,0.395
2021-08-19 11:54:19.200,-0.245,0.39
2021-08-19 11:54:19.204,-0.26,0.365
2021-08-19 11:54:19.208,-0.225,0.355
2021-08-19 11:54:19.212,-0.195,0.31
2021-08-19 11:54:19.216,-0.18,0.33
2021-08-19 11:54:19.220,-0.15,0.32
2021-08-19 11:54:19.224,-0.125,0.35
2021-08-19 11:54:19.228,-0.11,0.345
2021-08-19 11:54:19.232,-0.11,0.38
2021-08-19 11:54:19.236,-0.095,0.425
2021-08-19 11:54:19.240,-0.1,0.425
2021-08-19 11:54:19.244,-0.13,0.44
2021-08-19 11:54:19.248,-0.13,0.47
2021-08-19 11:54:19.252,-0.14,0.47
2021-08-19 11:54:19.256,-0.155,0.48
2021-08-19 11:54:19.260,-0.12,0.455
2021-08-19 11:54:19.264,-0.1,0.42
2021-08-19 11:54:19.268,-0.13,0.395
2021-08-19 11:54:19.272,-0.155,0.385
2021-08-19 11:54:19.276,-0.19,0.37
2021-08-19 11:54:19.280,-0.19,0.375
2021-08-19 11:54:19.284,-0.19,0.33
2021-08-19 11:54:19.288,-0.18,0.31
2021-08-19 11:54:19.292,-0.23,0.31
2021-08-19 11:54:19.296,-0.24,0.27
2021-08-19 11:54:19.300,-0.225,0.25
2021-08-19 11:54:19.304,-0.23,0.23
2021-08-19 11:54:19.308,-0.225,0.24
2021-08-19 11:54:19.312,-0.23,0.225
2021-08-19 11:54:19.316,-0.245,0.23
2021-08-19 11:54:19.320,-0.24,0.25
2021-08-19 11:54:19.324,-0.24,0.27
2021-08-19 11:54:19.328,-0.275,0.255
2021-08-19 11:54:19.332,-0.305,0.27
2021-08-19 11:54:19.336,-0.295,0.265
2021-08-19 11:54:19.340,-0.315,0.285
2021-08-19 11:54:19.344,-0.31,0.255
2021-08-19 11:54:19.348,-0.285,0.27
2021-08-19 11:54:19.352,-0.295,0.27
2021-08-19 11:54:19.356,-0.28,0.275
2021-08-19 11:54:19.360,-0.305,0.26
2021-08-19 11:54:19.364,-0.325,0.29
2021-08-19 11:54:19.368,-0.32,0.305
2021-08-19 11:54:19.372,-0.3,0.28
2021-08-19 11:54:19.376,-0.315,0.255
2021-08-19 11:54:19.380,-0.35,0.265
2021-08-19 11:54:19.384,-0.32,0.24
2021-08-19 11:54:19.388,-0.31,0.265
2021-08-19 11:54:19.392,-0.3,0.255
2021-08-19 11:54:19.396,-0.295,0.275
2021-08-19 11:54:19.400,-0.305,0.27
2021-08-19 11:54:19.404,-0.31,0.26
2021-08-19 11:54:19.408,-0.31,0.24
2021-08-19 11:54:19.412,-0.32,0.27
2021-08-19 11:54:19.416,-0.31,0.28
2021-08-19 11:54:19.420,-0.31,0.235
2021-08-19 11:54:19.424,-0.3,0.205
2021-08-19 11:54:19.428,-0.29,0.195
2021-08-19 11:54:19.432,-0.25,0.205
2021-08-19 11:54:19.436,-0.24,0.215
2021-08-19 11:54:19.440,-0.215,0.225
2021-08-19 11:54:19.444,-0.18,0.225
2021-08-19 11:54:19.448,-0.17,0.255
2021-08-19 11:54:19.452,-0.16,0.275
2021-08-19 11:54:19.456,-0.205,0.29
2021-08-19 11:54:19.460,-0.205,0.335
2021-08-19 11:54:19.464,-0.165,0.31
2021-08-19 11:54:19.468,-0.175,0.3
2021-08-19 11:54:19.472,-0.185,0.315
2021-08-19 11:54:19.476,-0.18,0.32
2021-08-19 11:54:19.480,-0.155,0.345
2021-08-19 11:54:19.484,-0.185,0.345
2021-08-19 11:54:19.488,-0.215,0.34
2021-08-19 11:54:19.492,-0.215,0.325
2021-08-19 11:54:19.496,-0.185,0.315
2021-08-19 11:54:19.500,-0.205,0.29
2021-08-19 11:54:19.504,-0.24,0.255
2021-08-19 11:54:19.508,-0.24,0.23
2021-08-19 11:54:19.512,-0.235,0.225
2021-08-19 11:54:19.516,-0.265,0.175
2021-08-19 11:54:19.520,-0.26,0.18
2021-08-19 11:54:19.524,-0.27,0.195
2021-08-19 11:54:19.528,-0.27,0.19
2021-08-19 11:54:19.532,-0.275,0.185
2021-08-19 11:54:19.536,-0.26,0.19
2021-08-19 11:54:19.540,-0.295,0.155
2021-08-19 11:54:19.544,-0.32,0.165
2021-08-19 11:54:19.548,-0.33,0.185
2021-08-19 11:54:19.552,-0.355,0.15
2021-08-19 11:54:19.556,-0.32,0.175
2021-08-19 11:54:19.560,-0.34,0.13
2021-08-19 11:54:19.564,-0.35,0.135
2021-08-19 11:54:19.568,-0.335,0.15
2021-08-19 11:54:19.572,-0.3,0.145
2021-08-19 11:54:19.576,-0.31,0.15
2021-08-19 11:54:19.580,-0.26,0.14
2021-08-19 11:54:19.584,-0.215,0.135
2021-08-19 11:54:19.588,-0.18,0.135
2021-08-19 11:54:19.592,-0.075,0.155
2021-08-19 11:54:19.596,0.005,0.14
2021-08-19 11:54:19.600,0.015,0.21
2021-08-19 11:54:19.604,-0.095,0.27
2021-08-19 11:54:19.608,-0.205,0.325
2021-08-19 11:54:19.612,-0.48,0.195
2021-08-19 11:54:19.616,-0.805,-0.165
2021-08-19 11:54:19.620,-1.085,-0.695
2021-08-19 11:54:19.624,-1.275,-1.325
2021-08-19 11:54:19.704,-0.785,-1.74
2021-08-19 11:54:19.708,-0.63,-1.37
2021-08-19 11:54:19.712,-0.51,-1.025
2021-08-19 11:54:19.716,-0.36,-0.745
2021-08-19 11:54:19.720,-0.235,-0.505
2021-08-19 11:54:19.724,-0.15,-0.325
2021-08-19 11:54:19.728,-0.11,-0.085
2021-08-19 11:54:19.732,-0.07,0.1
2021-08-19 11:54:19.736,-0.025,0.27
2021-08-19 11:54:19.740,-0.055,0.42
2021-08-19 11:54:19.744,-0.09,0.565
2021-08-19 11:54:19.748,-0.075,0.705
2021-08-19 11:54:19.752,-0.04,0.75
2021-08-19 11:54:19.756,-0.045,0.775
2021-08-19 11:54:19.760,-0.035,0.745
2021-08-19 11:54:19.764,-0.015,0.8
2021-08-19 11:54:19.768,0.0,0.82
2021-08-19 11:54:19.772,0.01,0.83
2021-08-19 11:54:19.776,0.0,0.84
2021-08-19 11:54:19.780,0.005,0.84
2021-08-19 11:54:19.784,0.02,0.885
2021-08-19 11:54:19.788,0.045,0.945
2021-08-19 11:54:19.792,0.05,0.965
2021-08-19 11:54:19.796,0.035,0.95
2021-08-19 11:54:19.800,0.06,0.935
2021-08-19 11:54:19.804,0.085,0.96
2021-08-19 11:54:19.808,0.15,0.985
2021-08-19 11:54:19.812,0.125,1.005
2021-08-19 11:54:19.816,0.135,1.015
2021-08-19 11:54:19.820,0.145,1.06
2021-08-19 11:54:19.824,0.165,1.08
2021-08-19 11:54:19.828,0.195,1.08
2021-08-19 11:54:19.832,0.2,1.105
2021-08-19 11:54:19.836,0.225,1.135
2021-08-19 11:54:19.840,0.235,1.185
2021-08-19 11:54:19.844,0.255,1.235
2021-08-19 11:54:19.848,0.29,1.25
2021-08-19 11:54:19.852,0.305,1.295
2021-08-19 11:54:19.856,0.275,1.325
2021-08-19 11:54:19.860,0.25,1.355
2021-08-19 11:54:19.864,0.255,1.395
2021-08-19 11:54:19.868,0.245,1.42
2021-08-19 11:54:19.872,0.235,1.425
2021-08-19 11:54:19.876,0.195,1.46
2021-08-19 11:54:19.880,0.18,1.46
2021-08-19 11:54:19.884,0.175,1.44
2021-08-19 11:54:19.888,0.15,1.445
2021-08-19 11:54:19.892,0.145,1.475
2021-08-19 11:54:19.896,0.14,1.495
2021-08-19 11:54:19.900,0.135,1.47
2021-08-19 11:54:19.904,0.135,1.48
2021-08-19 11:54:19.908,0.14,1.45
2021-08-19 11:54:19.912,0.13,1.43
2021-08-19 11:54:19.916,0.095,1.395
2021-08-19 11:54:19.920,0.03,1.36
2021-08-19 11:54:19.924,-0.005,1.34
2021-08-19 11:54:19.928,-0.04,1.31
2021-08-19 11:54:19.932,-0.04,1.27
2021-08-19 11:54:19.936,-0.05,1.24
2021-08-19 11:54:19.940,-0.075,1.22
2021-08-19 11:54:19.944,-0.065,1.17
2021-08-19 11:54:19.948,-0.13,1.12
2021-08-19 11:54:19.952,-0.18,1.075
2021-08-19 11:54:19.956,-0.2,1.05
2021-08-19 11:54:19.960,-0.22,0.98
2021-08-19 11:54:19.964,-0.25,0.895
2021-08-19 11:54:19.968,-0.3,0.855
2021-08-19 11:54:19.972,-0.3,0.795
2021-08-19 11:54:19.976,-0.305,0.77
2021-08-19 11:54:19.980,-0.325,0.695
2021-08-19 11:54:19.984,-0.32,0.64
2021-08-19 11:54:19.988,-0.29,0.615
2021-08-19 11:54:19.992,-0.32,0.57
2021-08-19 11:54:19.996,-0.35,0.515
2021-08-19 11:54:20.000,-0.355,0.47
2021-08-19 11:54:20.004,-0.35,0.455
2021-08-19 11:54:20.008,-0.36,0.44
2021-08-19 11:54:20.012,-0.365,0.39
2021-08-19 11:54:20.016,-0.345,0.35
2021-08-19 11:54:20.020,-0.32,0.335
2021-08-19 11:54:20.024,-0.335,0.335
2021-08-19 11:54:20.028,-0.27,0.31
2021-08-19 11:54:20.032,-0.23,0.325
2021-08-19 11:54:20.036,-0.265,0.355
2021-08-19 11:54:20.040,-0.28,0.365
2021-08-19 11:54:20.044,-0.235,0.375
2021-08-19 11:54:20.048,-0.215,0.375
2021-08-19 11:54:20.052,-0.215,0.375
2021-08-19 11:54:20.056,-0.23,0.37
2021-08-19 11:54:20.060,-0.21,0.42
2021-08-19 11:54:20.064,-0.21,0.465
2021-08-19 11:54:20.068,-0.215,0.43
2021-08-19 11:54:20.072,-0.255,0.43
2021-08-19 11:54:20.076,-0.265,0.445
2021-08-19 11:54:20.080,-0.25,0.465
2021-08-19 11:54:20.084,-0.25,0.465
2021-08-19 11:54:20.088,-0.245,0.47
2021-08-19 11:54:20.092,-0.235,0.45
2021-08-19 11:54:20.096,-0.24,0.41
2021-08-19 11:54:20.100,-0.27,0.415
2021-08-19 11:54:20.104,-0.255,0.385
2021-08-19 11:54:20.108,-0.245,0.375
2021-08-19 11:54:20.112,-0.275,0.37
2021-08-19 11:54:20.116,-0.3,0.345
2021-08-19 11:54:20.120,-0.31,0.35
2021-08-19 11:54:20.124,-0.33,0.36
2021-08-19 11:54:20.128,-0.35,0.335
2021-08-19 11:54:20.132,-0.38,0.365
2021-08-19 11:54:20.136,-0.375,0.33
2021-08-19 11:54:20.140,-0.37,0.34
2021-08-19 11:54:20.144,-0.34,0.32
2021-08-19 11:54:20.148,-0.37,0.31
2021-08-19 11:54:20.152,-0.365,0.315
2021-08-19 11:54:20.156,-0.34,0.305
2021-08-19 11:54:20.160,-0.375,0.31
2021-08-19 11:54:20.164,-0.41,0.29
2021-08-19 11:54:20.168,-0.42,0.305
2021-08-19 11:54:20.172,-0.44,0.27
2021-08-19 11:54:20.176,-0.45,0.28
2021-08-19 11:54:20.180,-0.46,0.255
2021-08-19 11:54:20.184,-0.46,0.265
2021-08-19 11:54:20.188,-0.445,0.265
2021-08-19 11:54:20.192,-0.46,0.25
2021-08-19 11:54:20.196,-0.47,0.24
2021-08-19 11:54:20.200,-0.5,0.24
2021-08-19 11:54:20.204,-0.515,0.225
2021-08-19 11:54:20.208,-0.51,0.23
2021-08-19 11:54:20.212,-0.46,0.23
2021-08-19 11:54:20.216,-0.435,0.195
2021-08-19 11:54:20.220,-0.365,0.155
2021-08-19 11:54:20.224,-0.255,0.135
2021-08-19 11:54:20.228,-0.08,0.18
2021-08-19 11:54:20.232,0.03,0.2
2021-08-19 11:54:20.236,0.0,0.245
2021-08-19 11:54:20.240,-0.13,0.3
2021-08-19 11:54:20.244,-0.39,0.365
2021-08-19 11:54:20.248,-0.74,0.17
2021-08-19 11:54:20.252,-1.095,-0.195
2021-08-19 11:54:20.256,-1.425,-0.745
2021-08-19 11:54:20.260,-1.595,-1.465
2021-08-19 11:54:20.344,-0.945,-1.56
2021-08-19 11:54:20.348,-0.765,-1.17
2021-08-19 11:54:20.352,-0.6,-0.835
2021-08-19 11:54:20.356,-0.455,-0.585
2021-08-19 11:54:20.360,-0.37,-0.355
2021-08-19 11:54:20.364,-0.275,-0.145
2021-08-19 11:54:20.368,-0.225,0.045
2021-08-19 11:54:20.372,-0.205,0.255
2021-08-19 11:54:20.376,-0.215,0.44
2021-08-19 11:54:20.380,-0.185,0.585
2021-08-19 11:54:20.384,-0.155,0.665
2021-08-19 11:54:20.388,-0.16,0.705
2021-08-19 11:54:20.392,-0.125,0.735
2021-08-19 11:54:20.396,-0.09,0.81
2021-08-19 11:54:20.400,-0.07,0.85
2021-08-19 11:54:20.404,-0.05,0.865
2021-08-19 11:54:20.408,-0.05,0.88
2021-08-19 11:54:20.412,-0.055,0.93
2021-08-19 11:54:20.416,-0.045,0.945
2021-08-19 11:54:20.420,0.0,0.965
2021-08-19 11:54:20.424,0.02,0.975
2021-08-19 11:54:20.428,0.025,0.99
2021-08-19 11:54:20.432,0.06,0.995
2021-08-19 11:54:20.436,0.08,1.005
2021-08-19 11:54:20.440,0.065,1.045
2021-08-19 11:54:20.444,0.095,1.065
2021-08-19 11:54:20.448,0.125,1.09
2021-08-19 11:54:20.452,0.135,1.11
2021-08-19 11:54:20.456,0.18,1.135
2021-08-19 11:54:20.460,0.165,1.155
2021-08-19 11:54:20.464,0.16,1.18
2021-08-19 11:54:20.468,0.19,1.21
2021-08-19 11:54:20.472,0.21,1.25
2021-08-19 11:54:20.476,0.235,1.265
2021-08-19 11:54:20.480,0.235,1.31
2021-08-19 11:54:20.484,0.235,1.345
2021-08-19 11:54:20.488,0.23,1.355
2021-08-19 11:54:20.492,0.25,1.395
2021-08-19 11:54:20.496,0.23,1.42
2021-08-19 11:54:20.500,0.22,1.47
2021-08-19 11:54:20.504,0.21,1.495
2021-08-19 11:54:20.508,0.21,1.505
2021-08-19 11:54:20.512,0.195,1.505
2021-08-19 11:54:20.516,0.215,1.525
2021-08-19 11:54:20.520,0.19,1.525
2021-08-19 11:54:20.524,0.195,1.515
2021-08-19 11:54:20.528,0.17,1.51
2021-08-19 11:54:20.532,0.15,1.51
2021-08-19 11:54:20.536,0.1,1.48
2021-08-19 11:54:20.540,0.06,1.46
2021-08-19 11:54:20.544,0.02,1.46
2021-08-19 11:54:20.548,-0.005,1.46
2021-08-19 11:54:20.552,-0.04,1.425
2021-08-19 11:54:20.556,-0.07,1.385
2021-08-19 11:54:20.560,-0.1,1.335
2021-08-19 11:54:20.564,-0.125,1.305
2021-08-19 11:54:20.568,-0.155,1.21
2021-08-19 11:54:20.572,-0.195,1.19
2021-08-19 11:54:20.576,-0.22,1.13
2021-08-19 11:54:20.580,-0.27,1.055
2021-08-19 11:54:20.584,-0.255,1.0
2021-08-19 11:54:20.588,-0.31,0.945
2021-08-19 11:54:20.592,-0.34,0.875
2021-08-19 11:54:20.596,-0.345,0.815
2021-08-19 11:54:20.600,-0.375,0.76
2021-08-19 11:54:20.604,-0.375,0.7
2021-08-19 11:54:20.608,-0.37,0.655
2021-08-19 11:54:20.612,-0.395,0.625
2021-08-19 11:54:20.616,-0.4,0.59
2021-08-19 11:54:20.620,-0.4,0.52
2021-08-19 11:54:20.624,-0.415,0.51
2021-08-19 11:54:20.628,-0.415,0.475
2021-08-19 11:54:20.632,-0.43,0.46
2021-08-19 11:54:20.636,-0.41,0.43
2021-08-19 11:54:20.640,-0.405,0.39
2021-08-19 11:54:20.644,-0.405,0.385
2021-08-19 11:54:20.648,-0.42,0.385
2021-08-19 11:54:20.652,-0.37,0.355
2021-08-19 11:54:20.656,-0.34,0.375
2021-08-19 11:54:20.660,-0.34,0.365
2021-08-19 11:54:20.664,-0.305,0.365
2021-08-19 11:54:20.668,-0.3,0.36
2021-08-19 11:54:20.672,-0.28,0.385
2021-08-19 11:54:20.676,-0.295,0.4
2021-08-19 11:54:20.680,-0.28,0.395
2021-08-19 11:54:20.684,-0.27,0.385
2021-08-19 11:54:20.688,-0.24,0.415
2021-08-19 11:54:20.692,-0.155,0.4
2021-08-19 11:54:20.696,0.015,0.4
2021-08-19 11:54:20.700,0.145,0.44
2021-08-19 11:54:20.704,0.14,0.465
2021-08-19 11:54:20.708,0.035,0.515
2021-08-19 11:54:20.712,-0.16,0.59
2021-08-19 11:54:20.716,-0.54,0.58
2021-08-19 11:54:20.720,-1.06,0.345
2021-08-19 11:54:20.724,-1.52,-0.005
2021-08-19 11:54:20.728,-1.8,-0.575
2021-08-19 11:54:20.732,-1.89,-1.38
2021-08-19 11:54:20.812,-0.92,-1.84
2021-08-19 11:54:20.816,-0.745,-1.38
2021-08-19 11:54:20.820,-0.585,-1.01
2021-08-19 11:54:20.824,-0.405,-0.705
2021-08-19 11:54:20.828,-0.3,-0.43
2021-08-19 11:54:20.832,-0.215,-0.205
2021-08-19 11:54:20.836,-0.145,0.015
2021-08-19 11:54:20.840,-0.095,0.25
2021-08-19 11:54:20.844,-0.06,0.445
2021-08-19 11:54:20.848,-0.045,0.59
2021-08-19 11:54:20.852,-0.01,0.715
2021-08-19 11:54:20.856,0.005,0.81
2021-08-19 11:54:20.860,0.03,0.89
2021-08-19 11:54:20.864,0.07,0.895
2021-08-19 11:54:20.868,0.095,0.945
2021-08-19 11:54:20.872,0.115,0.97
2021-08-19 11:54:20.876,0.115,0.99
2021-08-19 11:54:20.880,0.13,1.02
2021-08-19 11:54:20.884,0.16,1.05
2021-08-19 11:54:20.888,0.16,1.07
2021-08-19 11:54:20.892,0.165,1.075
2021-08-19 11:54:20.896,0.22,1.1
2021-08-19 11:54:20.900,0.27,1.125
2021-08-19 11:54:20.904,0.265,1.12
2021-08-19 11:54:20.908,0.265,1.18
2021-08-19 11:54:20.912,0.265,1.22
2021-08-19 11:54:20.916,0.265,1.245
2021-08-19 11:54:20.920,0.235,1.265
2021-08-19 11:54:20.924,0.235,1.285
2021-08-19 11:54:20.928,0.22,1.3
2021-08-19 11:54:20.932,0.27,1.33
2021-08-19 11:54:20.936,0.3,1.345
2021-08-19 11:54:20.940,0.335,1.38
2021-08-19 11:54:20.944,0.345,1.425
2021-08-19 11:54:20.948,0.36,1.455
2021-08-19 11:54:20.952,0.345,1.49
2021-08-19 11:54:20.956,0.34,1.515
2021-08-19 11:54:20.960,0.315,1.55
2021-08-19 11:54:20.964,0.31,1.525
2021-08-19 11:54:20.968,0.29,1.515
2021-08-19 11:54:20.972,0.27,1.505
2021-08-19 11:54:20.976,0.275,1.505
2021-08-19 11:54:20.980,0.265,1.535
2021-08-19 11:54:20.984,0.24,1.505
2021-08-19 11:54:20.988,0.245,1.545
2021-08-19 11:54:20.992,0.24,1.55
2021-08-19 11:54:20.996,0.2,1.545
2021-08-19 11:54:21.000,0.205,1.53
2021-08-19 11:54:21.004,0.18,1.535
2021-08-19 11:54:21.008,0.155,1.545
2021-08-19 11:54:21.012,0.155,1.52
2021-08-19 11:54:21.016,0.115,1.49
2021-08-19 11:54:21.020,0.095,1.45
2021-08-19 11:54:21.024,0.05,1.43
2021-08-19 11:54:21.028,0.02,1.38
2021-08-19 11:54:21.032,-0.005,1.325
2021-08-19 11:54:21.036,-0.025,1.31
2021-08-19 11:54:21.040,-0.025,1.205
2021-08-19 11:54:21.044,-0.075,1.17
2021-08-19 11:54:21.048,-0.1,1.135
2021-08-19 11:54:21.052,-0.115,1.05
2021-08-19 11:54:21.056,-0.155,1.005
2021-08-19 11:54:21.060,-0.2,0.92
2021-08-19 11:54:21.064,-0.22,0.87
2021-08-19 11:54:21.068,-0.25,0.815
2021-08-19 11:54:21.072,-0.25,0.765
2021-08-19 11:54:21.076,-0.28,0.715
2021-08-19 11:54:21.080,-0.26,0.665
2021-08-19 11:54:21.084,-0.255,0.63
2021-08-19 11:54:21.088,-0.29,0.59
2021-08-19 11:54:21.092,-0.305,0.56
2021-08-19 11:54:21.096,-0.315,0.53
2021-08-19 11:54:21.100,-0.32,0.53
2021-08-19 11:54:21.104,-0.345,0.5
2021-08-19 11:54:21.108,-0.355,0.48
2021-08-19 11:54:21.112,-0.365,0.455
2021-08-19 11:54:21.116,-0.34,0.445
2021-08-19 11:54:21.120,-0.32,0.43
2021-08-19 11:54:21.124,-0.345,0.43
2021-08-19 11:54:21.128,-0.36,0.415
2021-08-19 11:54:21.132,-0.375,0.43
2021-08-19 11:54:21.136,-0.375,0.43
2021-08-19 11:54:21.140,-0.38,0.44
2021-08-19 11:54:21.144,-0.38,0.425
2021-08-19 11:54:21.148,-0.405,0.42
2021-08-19 11:54:21.152,-0.42,0.42
2021-08-19 11:54:21.156,-0.395,0.4
2021-08-19 11:54:21.160,-0.39,0.39
2021-08-19 11:54:21.164,-0.36,0.395
2021-08-19 11:54:21.168,-0.365,0.385
2021-08-19 11:54:21.172,-0.335,0.4
2021-08-19 11:54:21.176,-0.32,0.415
2021-08-19 11:54:21.180,-0.33,0.415
2021-08-19 11:54:21.184,-0.305,0.405
2021-08-19 11:54:21.188,-0.3,0.43
2021-08-19 11:54:21.192,-0.325,0.435
2021-08-19 11:54:21.196,-0.295,0.445
2021-08-19 11:54:21.200,-0.3,0.45
2021-08-19 11:54:21.204,-0.27,0.445
2021-08-19 11:54:21.208,-0.19,0.43
2021-08-19 11:54:21.212,-0.04,0.46
2021-08-19 11:54:21.216,0.14,0.485
2021-08-19 11:54:21.220,0.19,0.495
2021-08-19 11:54:21.224,0.125,0.575
2021-08-19 11:54:21.228,-0.015,0.64
2021-08-19 11:54:21.232,-0.32,0.63
2021-08-19 11:54:21.236,-0.705,0.38
2021-08-19 11:54:21.240,-1.08,-0.04
2021-08-19 11:54:21.244,-1.315,-0.575
2021-08-19 11:54:21.248,-1.37,-1.345
2021-08-19 11:54:21.332,-0.855,-1.65
2021-08-19 11:54:21.336,-0.725,-1.25
2021-08-19 11:54:21.340,-0.605,-0.905
2021-08-19 11:54:21.344,-0.46,-0.625
2021-08-19 11:54:21.348,-0.355,-0.4
2021-08-19 11:54:21.352,-0.28,-0.155
2021-08-19 11:54:21.356,-0.215,0.045
2021-08-19 11:54:21.360,-0.195,0.255
2021-08-19 11:54:21.364,-0.175,0.475
2021-08-19 11:54:21.368,-0.17,0.62
2021-08-19 11:54:21.372,-0.125,0.74
2021-08-19 11:54:21.376,-0.125,0.84
2021-08-19 11:54:21.380,-0.1,0.88
2021-08-19 11:54:21.384,-0.055,0.91
2021-08-19 11:54:21.388,-0.05,0.96
2021-08-19 11:54:21.392,-0.015,0.985
2021-08-19 11:54:21.396,0.035,1.005
2021-08-19 11:54:21.400,0.04,1.055
2021-08-19 11:54:21.404,0.055,1.075
2021-08-19 11:54:21.408,0.095,1.115
2021-08-19 11:54:21.412,0.11,1.13
2021-08-19 11:54:21.416,0.14,1.155
2021-08-19 11:54:21.420,0.135,1.18
2021-08-19 11:54:21.424,0.165,1.2
2021-08-19 11:54:21.428,0.2,1.25
2021-08-19 11:54:21.432,0.2,1.285
2021-08-19 11:54:21.436,0.24,1.31
2021-08-19 11:54:21.440,0.255,1.335
2021-08-19 11:54:21.444,0.27,1.36
2021-08-19 11:54:21.448,0.28,1.4
2021-08-19 11:54:21.452,0.29,1.415
2021-08-19 11:54:21.456,0.3,1.46
2021-08-19 11:54:21.460,0.32,1.45
2021-08-19 11:54:21.464,0.355,1.49
2021-08-19 11:54:21.468,0.365,1.5
2021-08-19 11:54:21.472,0.38,1.52
2021-08-19 11:54:21.476,0.405,1.51
2021-08-19 11:54:21.480,0.4,1.515
2021-08-19 11:54:21.484,0.415,1.515
2021-08-19 11:54:21.488,0.42,1.53
2021-08-19 11:54:21.492,0.43,1.565
2021-08-19 11:54:21.496,0.425,1.61
2021-08-19 11:54:21.500,0.42,1.605
2021-08-19 11:54:21.504,0.435,1.63
2021-08-19 11:54:21.508,0.445,1.655
2021-08-19 11:54:21.512,0.435,1.65
2021-08-19 11:54:21.516,0.415,1.64
2021-08-19 11:54:21.520,0.41,1.65
2021-08-19 11:54:21.524,0.365,1.665
2021-08-19 11:54:21.528,0.355,1.67
2021-08-19 11:54:21.532,0.315,1.665
2021-08-19 11:54:21.536,0.305,1.65
2021-08-19 11:54:21.540,0.245,1.64
2021-08-19 11:54:21.544,0.185,1.62
2021-08-19 11:54:21.548,0.155,1.585
2021-08-19 11:54:21.552,0.09,1.505
2021-08-19 11:54:21.556,0.055,1.475
2021-08-19 11:54:21.560,-0.005,1.435
2021-08-19 11:54:21.564,-0.045,1.37
2021-08-19 11:54:21.568,-0.075,1.31
2021-08-19 11:54:21.572,-0.115,1.225
2021-08-19 11:54:21.576,-0.16,1.18
2021-08-19 11:54:21.580,-0.185,1.1
2021-08-19 11:54:21.584,-0.25,1.02
2021-08-19 11:54:21.588,-0.28,0.955
2021-08-19 11:54:21.592,-0.295,0.9
2021-08-19 11:54:21.596,-0.32,0.815
2021-08-19 11:54:21.600,-0.32,0.76
2021-08-19 11:54:21.604,-0.33,0.715
2021-08-19 11:54:21.608,-0.34,0.69
2021-08-19 11:54:21.612,-0.345,0.685
2021-08-19 11:54:21.616,-0.32,0.655
2021-08-19 11:54:21.620,-0.33,0.635
2021-08-19 11:54:21.624,-0.335,0.63
2021-08-19 11:54:21.628,-0.355,0.635
2021-08-19 11:54:21.632,-0.375,0.58
2021-08-19 11:54:21.636,-0.345,0.575
2021-08-19 11:54:21.640,-0.36,0.59
2021-08-19 11:54:21.644,-0.33,0.56
2021-08-19 11:54:21.648,-0.32,0.58
2021-08-19 11:54:21.652,-0.32,0.59
2021-08-19 11:54:21.656,-0.295,0.62
2021-08-19 11:54:21.660,-0.27,0.64
2021-08-19 11:54:21.664,-0.255,0.675
2021-08-19 11:54:21.668,-0.255,0.7
2021-08-19 11:54:21.672,-0.275,0.69
2021-08-19 11:54:21.676,-0.245,0.675
2021-08-19 11:54:21.680,-0.22,0.625
2021-08-19 11:54:21.684,-0.215,0.585
2021-08-19 11:54:21.688,-0.185,0.58
2021-08-19 11:54:21.692,-0.175,0.575
2021-08-19 11:54:21.696,-0.18,0.52
2021-08-19 11:54:21.700,-0.155,0.53
2021-08-19 11:54:21.704,-0.155,0.55
2021-08-19 11:54:21.708,-0.14,0.575
2021-08-19 11:54:21.712,-0.145,0.58
2021-08-19 11:54:21.716,-0.14,0.55
2021-08-19 11:54:21.720,-0.145,0.555
2021-08-19 11:54:21.724,-0.15,0.56
2021-08-19 11:54:21.728,-0.18,0.56
2021-08-19 11:54:21.732,-0.195,0.54
2021-08-19 11:54:21.736,-0.185,0.525
2021-08-19 11:54:21.740,-0.185,0.53
2021-08-19 11:54:21.744,-0.195,0.515
2021-08-19 11:54:21.748,-0.2,0.515
2021-08-19 11:54:21.752,-0.205,0.475
2021-08-19 11:54:21.756,-0.265,0.485
2021-08-19 11:54:21.760,-0.28,0.485
2021-08-19 11:54:21.764,-0.31,0.475
2021-08-19 11:54:21.768,-0.32,0.48
2021-08-19 11:54:21.772,-0.32,0.47
2021-08-19 11:54:21.776,-0.32,0.45
2021-08-19 11:54:21.780,-0.335,0.435
2021-08-19 11:54:21.784,-0.34,0.43
2021-08-19 11:54:21.788,-0.33,0.435
2021-08-19 11:54:21.792,-0.315,0.42
2021-08-19 11:54:21.796,-0.31,0.425
2021-08-19 11:54:21.800,-0.32,0.4
2021-08-19 11:54:21.804,-0.345,0.4
2021-08-19 11:54:21.808,-0.325,0.42
2021-08-19 11:54:21.812,-0.33,0.4
2021-08-19 11:54:21.816,-0.305,0.415
2021-08-19 11:54:21.820,-0.3,0.395
2021-08-19 11:54:21.824,-0.28,0.41
2021-08-19 11:54:21.828,-0.27,0.41
2021-08-19 11:54:21.832,-0.275,0.41
2021-08-19 11:54:21.836,-0.26,0.43
2021-08-19 11:54:21.840,-0.265,0.43
2021-08-19 11:54:21.844,-0.275,0.445
2021-08-19 11:54:21.848,-0.295,0.46
2021-08-19 11:54:21.852,-0.295,0.48
2021-08-19 11:54:21.856,-0.285,0.455
2021-08-19 11:54:21.860,-0.295,0.47
2021-08-19 11:54:21.864,-0.275,0.465
2021-08-19 11:54:21.868,-0.265,0.47
2021-08-19 11:54:21.872,-0.235,0.475
2021-08-19 11:54:21.876,-0.265,0.48
2021-08-19 11:54:21.880,-0.265,0.48
2021-08-19 11:54:21.884,-0.24,0.5
2021-08-19 11:54:21.888,-0.25,0.495
2021-08-19 11:54:21.892,-0.285,0.495
2021-08-19 11:54:21.896,-0.285,0.47
2021-08-19 11:54:21.900,-0.275,0.47
2021-08-19 11:54:21.904,-0.25,0.44
2021-08-19 11:54:21.908,-0.22,0.395
2021-08-19 11:54:21.912,-0.215,0.355
2021-08-19 11:54:21.916,-0.18,0.335
2021-08-19 11:54:21.920,-0.2,0.325
2021-08-19 11:54:21.924,-0.21,0.335
2021-08-19 11:54:21.928,-0.22,0.325
2021-08-19 11:54:21.932,-0.21,0.305
2021-08-19 11:54:21.936,-0.255,0.315
2021-08-19 11:54:21.940,-0.255,0.305
2021-08-19 11:54:21.944,-0.26,0.29
2021-08-19 11:54:21.948,-0.275,0.28
2021-08-19 11:54:21.952,-0.27,0.25
2021-08-19 11:54:21.956,-0.28,0.22
2021-08-19 11:54:21.960,-0.31,0.24
2021-08-19 11:54:21.964,-0.32,0.245
2021-08-19 11:54:21.968,-0.335,0.245
2021-08-19 11:54:21.972,-0.36,0.25
2021-08-19 11:54:21.976,-0.385,0.23
2021-08-19 11:54:21.980,-0.385,0.225
2021-08-19 11:54:21.984,-0.415,0.24
2021-08-19 11:54:21.988,-0.415,0.225
2021-08-19 11:54:21.992,-0.37,0.23
2021-08-19 11:54:21.996,-0.305,0.215
2021-08-19 11:54:22.000,-0.17,0.21
2021-08-19 11:54:22.004,-0.1,0.235
2021-08-19 11:54:22.008,-0.16,0.3
2021-08-19 11:54:22.012,-0.275,0.34
2021-08-19 11:54:22.016,-0.465,0.38
2021-08-19 11:54:22.020,-0.81,0.255
2021-08-19 11:54:22.024,-1.19,-0.13
2021-08-19 11:54:22.028,-1.53,-0.56
2021-08-19 11:54:22.032,-1.74,-1.2
2021-08-19 11:54:22.116,-0.92,-1.805
2021-08-19 11:54:22.120,-0.76,-1.37
2021-08-19 11:54:22.124,-0.605,-1.045
2021-08-19 11:54:22.128,-0.41,-0.75
2021-08-19 11:54:22.132,-0.255,-0.47
2021-08-19 11:54:22.136,-0.14,-0.285
2021-08-19 11:54:22.140,-0.05,-0.085
2021-08-19 11:54:22.144,0.02,0.13
2021-08-19 11:54:22.148,0.075,0.325
2021-08-19 11:54:22.152,0.07,0.525
2021-08-19 11:54:22.156,0.1,0.685
2021-08-19 11:54:22.160,0.105,0.795
2021-08-19 11:54:22.164,0.1,0.885
2021-08-19 11:54:22.168,0.075,0.905
2021-08-19 11:54:22.172,0.11,0.93
2021-08-19 11:54:22.176,0.105,0.955
2021-08-19 11:54:22.180,0.105,0.97
2021-08-19 11:54:22.184,0.095,0.995
2021-08-19 11:54:22.188,0.085,1.01
2021-08-19 11:54:22.192,0.06,1.025
2021-08-19 11:54:22.196,0.065,1.065
2021-08-19 11:54:22.200,0.095,1.055
2021-08-19 11:54:22.204,0.105,1.105
2021-08-19 11:54:22.208,0.11,1.12
2021-08-19 11:54:22.212,0.09,1.11
2021-08-19 11:54:22.216,0.12,1.13
2021-08-19 11:54:22.220,0.16,1.14
2021-08-19 11:54:22.224,0.175,1.15
2021-08-19 11:54:22.228,0.155,1.165
2021-08-19 11:54:22.232,0.185,1.2
2021-08-19 11:54:22.236,0.19,1.24
2021-08-19 11:54:22.240,0.255,1.285
2021-08-19 11:54:22.244,0.27,1.305
2021-08-19 11:54:22.248,0.3,1.355
2021-08-19 11:54:22.252,0.295,1.375
2021-08-19 11:54:22.256,0.325,1.39
2021-08-19 11:54:22.260,0.335,1.435
2021-08-19 11:54:22.264,0.345,1.455
2021-08-19 11:54:22.268,0.355,1.48
2021-08-19 11:54:22.272,0.365,1.505
2021-08-19 11:54:22.276,0.345,1.545
2021-08-19 11:54:22.280,0.345,1.54
2021-08-19 11:54:22.284,0.335,1.585
2021-08-19 11:54:22.288,0.35,1.63
2021-08-19 11:54:22.292,0.355,1.635
2021-08-19 11:54:22.296,0.36,1.69
2021-08-19 11:54:22.300,0.375,1.69
2021-08-19 11:54:22.304,0.38,1.66
2021-08-19 11:54:22.308,0.39,1.695
2021-08-19 11:54:22.312,0.375,1.7
2021-08-19 11:54:22.316,0.385,1.71
2021-08-19 11:54:22.320,0.375,1.7
2021-08-19 11:54:22.324,0.315,1.69
2021-08-19 11:54:22.328,0.295,1.685
2021-08-19 11:54:22.332,0.285,1.68
2021-08-19 11:54:22.336,0.275,1.645
2021-08-19 11:54:22.340,0.265,1.61
2021-08-19 11:54:22.344,0.28,1.59
2021-08-19 11:54:22.348,0.25,1.58
2021-08-19 11:54:22.352,0.2,1.53
2021-08-19 11:54:22.356,0.18,1.47
2021-08-19 11:54:22.360,0.165,1.41
2021-08-19 11:54:22.364,0.175,1.345
2021-08-19 11:54:22.368,0.13,1.285
2021-08-19 11:54:22.372,0.09,1.21
2021-08-19 11:54:22.376,0.05,1.16
2021-08-19 11:54:22.380,-0.005,1.08
2021-08-19 11:54:22.384,-0.04,0.99
2021-08-19 11:54:22.388,-0.06,0.89
2021-08-19 11:54:22.392,-0.1,0.855
2021-08-19 11:54:22.396,-0.12,0.785
2021-08-19 11:54:22.400,-0.115,0.725
2021-08-19 11:54:22.404,-0.12,0.66
2021-08-19 11:54:22.408,-0.135,0.625
2021-08-19 11:54:22.412,-0.185,0.595
2021-08-19 11:54:22.416,-0.21,0.53
2021-08-19 11:54:22.420,-0.175,0.51
2021-08-19 11:54:22.424,-0.215,0.48
2021-08-19 11:54:22.428,-0.245,0.45
2021-08-19 11:54:22.432,-0.205,0.45
2021-08-19 11:54:22.436,-0.15,0.425
2021-08-19 11:54:22.440,-0.155,0.405
2021-08-19 11:54:22.444,-0.15,0.41
2021-08-19 11:54:22.448,-0.155,0.4
2021-08-19 11:54:22.452,-0.15,0.42
2021-08-19 11:54:22.456,-0.15,0.395
2021-08-19 11:54:22.460,-0.14,0.38
2021-08-19 11:54:22.464,-0.1,0.395
2021-08-19 11:54:22.468,-0.095,0.395
2021-08-19 11:54:22.472,-0.12,0.4
2021-08-19 11:54:22.476,-0.09,0.425
2021-08-19 11:54:22.480,-0.1,0.435
2021-08-19 11:54:22.484,-0.05,0.445
2021-08-19 11:54:22.488,-0.055,0.455
2021-08-19 11:54:22.492,-0.045,0.475
2021-08-19 11:54:22.496,-0.07,0.495
2021-08-19 11:54:22.500,-0.08,0.505
2021-08-19 11:54:22.504,-0.09,0.49
2021-08-19 11:54:22.508,-0.1,0.53
2021-08-19 11:54:22.512,-0.12,0.505
2021-08-19 11:54:22.516,-0.12,0.505
2021-08-19 11:54:22.520,-0.095,0.515
2021-08-19 11:54:22.524,-0.075,0.515
2021-08-19 11:54:22.528,-0.085,0.525
2021-08-19 11:54:22.532,-0.115,0.545
2021-08-19 11:54:22.536,-0.13,0.525
2021-08-19 11:54:22.540,-0.11,0.52
2021-08-19 11:54:22.544,-0.095,0.555
2021-08-19 11:54:22.548,-0.11,0.56
2021-08-19 11:54:22.552,-0.065,0.56
2021-08-19 11:54:22.556,-0.075,0.54
2021-08-19 11:54:22.560,-0.09,0.545
2021-08-19 11:54:22.564,-0.105,0.55
2021-08-19 11:54:22.568,-0.14,0.565
2021-08-19 11:54:22.572,-0.15,0.585
2021-08-19 11:54:22.576,-0.155,0.565
2021-08-19 11:54:22.580,-0.16,0.58
2021-08-19 11:54:22.584,-0.165,0.56
2021-08-19 11:54:22.588,-0.175,0.535
2021-08-19 11:54:22.592,-0.165,0.49
2021-08-19 11:54:22.596,-0.17,0.465
2021-08-19 11:54:22.600,-0.165,0.42
2021-08-19 11:54:22.604,-0.115,0.4
2021-08-19 11:54:22.608,-0.135,0.36
2021-08-19 11:54:22.612,-0.16,0.385
2021-08-19 11:54:22.616,-0.155,0.355
2021-08-19 11:54:22.620,-0.14,0.355
2021-08-19 11:54:22.624,-0.165,0.36
2021-08-19 11:54:22.628,-0.145,0.335
2021-08-19 11:54:22.632,-0.135,0.32
2021-08-19 11:54:22.636,-0.115,0.335
2021-08-19 11:54:22.640,-0.14,0.325
2021-08-19 11:54:22.644,-0.145,0.305
2021-08-19 11:54:22.648,-0.1,0.3
2021-08-19 11:54:22.652,-0.12,0.315
2021-08-19 11:54:22.656,-0.095,0.32
2021-08-19 11:54:22.660,-0.08,0.345
2021-08-19 11:54:22.664,-0.07,0.345
2021-08-19 11:54:22.668,-0.08,0.325
2021-08-19 11:54:22.672,-0.085,0.325
2021-08-19 11:54:22.676,-0.035,0.33
2021-08-19 11:54:22.680,-0.04,0.305
2021-08-19 11:54:22.684,-0.035,0.33
2021-08-19 11:54:22.688,-0.01,0.315
2021-08-19 11:54:22.692,-0.005,0.33
2021-08-19 11:54:22.696,-0.015,0.335
2021-08-19 11:54:22.700,-0.045,0.36
2021-08-19 11:54:22.704,-0.05,0.375
2021-08-19 11:54:22.708,-0.025,0.385
2021-08-19 11:54:22.712,-0.02,0.365
2021-08-19 11:54:22.716,-0.025,0.34
2021-08-19 11:54:22.720,0.025,0.33
2021-08-19 11:54:22.724,0.105,0.325
2021-08-19 11:54:22.728,0.16,0.35
2021-08-19 11:54:22.732,0.12,0.365
2021-08-19 11:54:22.736,-0.045,0.445
2021-08-19 11:54:22.740,-0.285,0.49
2021-08-19 11:54:22.744,-0.69,0.35
2021-08-19 11:54:22.748,-1.115,0.0
2021-08-19 11:54:22.752,-1.5,-0.45
2021-08-19 11:54:22.756,-1.73,-1.06
2021-08-19 11:54:22.760,-1.915,-1.97
2021-08-19 11:54:22.840,-0.64,-1.565
2021-08-19 11:54:22.844,-0.515,-1.21
2021-08-19 11:54:22.848,-0.375,-0.915
2021-08-19 11:54:22.852,-0.215,-0.625
2021-08-19 11:54:22.856,-0.115,-0.41
2021-08-19 11:54:22.860,-0.04,-0.2
2021-08-19 11:54:22.864,0.045,0.02
2021-08-19 11:54:22.868,0.08,0.21
2021-08-19 11:54:22.872,0.095,0.41
2021-08-19 11:54:22.876,0.105,0.58
2021-08-19 11:54:22.880,0.105,0.71
2021-08-19 11:54:22.884,0.11,0.78
2021-08-19 11:54:22.888,0.1,0.815
2021-08-19 11:54:22.892,0.145,0.845
2021-08-19 11:54:22.896,0.17,0.87
2021-08-19 11:54:22.900,0.19,0.9
2021-08-19 11:54:22.904,0.225,0.91
2021-08-19 11:54:22.908,0.25,0.91
2021-08-19 11:54:22.912,0.28,0.955
2021-08-19 11:54:22.916,0.3,1.0
2021-08-19 11:54:22.920,0.32,1.04
2021-08-19 11:54:22.924,0.315,1.085
2021-08-19 11:54:22.928,0.335,1.11
2021-08-19 11:54:22.932,0.34,1.12
2021-08-19 11:54:22.936,0.36,1.13
2021-08-19 11:54:22.940,0.375,1.165
2021-08-19 11:54:22.944,0.365,1.19
2021-08-19 11:54:22.948,0.38,1.22
2021-08-19 11:54:22.952,0.38,1.225
2021-08-19 11:54:22.956,0.375,1.275
2021-08-19 11:54:22.960,0.375,1.31
2021-08-19 11:54:22.964,0.39,1.32
2021-08-19 11:54:22.968,0.35,1.36
2021-08-19 11:54:22.972,0.36,1.39
2021-08-19 11:54:22.976,0.38,1.42
2021-08-19 11:54:22.980,0.36,1.455
2021-08-19 11:54:22.984,0.395,1.465
2021-08-19 11:54:22.988,0.4,1.525
2021-08-19 11:54:22.992,0.385,1.525
2021-08-19 11:54:22.996,0.38,1.55
2021-08-19 11:54:23.000,0.395,1.58
2021-08-19 11:54:23.004,0.405,1.6
2021-08-19 11:54:23.008,0.4,1.63
2021-08-19 11:54:23.012,0.405,1.635
2021-08-19 11:54:23.016,0.41,1.625
2021-08-19 11:54:23.020,0.41,1.645
2021-08-19 11:54:23.024,0.435,1.62
2021-08-19 11:54:23.028,0.425,1.61
2021-08-19 11:54:23.032,0.425,1.58
2021-08-19 11:54:23.036,0.39,1.57
2021-08-19 11:54:23.040,0.355,1.545
2021-08-19 11:54:23.044,0.345,1.55
2021-08-19 11:54:23.048,0.305,1.535
2021-08-19 11:54:23.052,0.27,1.49
2021-08-19 11:54:23.056,0.25,1.44
2021-08-19 11:54:23.060,0.225,1.37
2021-08-19 11:54:23.064,0.2,1.325
2021-08-19 11:54:23.068,0.16,1.28
2021-08-19 11:54:23.072,0.13,1.215
2021-08-19 11:54:23.076,0.12,1.13
2021-08-19 11:54:23.080,0.08,1.075
2021-08-19 11:54:23.084,0.065,1.03
2021-08-19 11:54:23.088,0.035,0.95
2021-08-19 11:54:23.092,0.005,0.885
2021-08-19 11:54:23.096,-0.015,0.84
2021-08-19 11:54:23.100,-0.005,0.765
2021-08-19 11:54:23.104,-0.015,0.705
2021-08-19 11:54:23.108,-0.03,0.645
2021-08-19 11:54:23.112,-0.025,0.615
2021-08-19 11:54:23.116,-0.015,0.585
2021-08-19 11:54:23.120,-0.025,0.55
2021-08-19 11:54:23.124,-0.04,0.545
2021-08-19 11:54:23.128,-0.05,0.515
2021-08-19 11:54:23.132,-0.055,0.485
2021-08-19 11:54:23.136,-0.065,0.47
2021-08-19 11:54:23.140,-0.07,0.46
2021-08-19 11:54:23.144,-0.1,0.43
2021-08-19 11:54:23.148,-0.12,0.395
2021-08-19 11:54:23.152,-0.145,0.415
2021-08-19 11:54:23.156,-0.16,0.42
2021-08-19 11:54:23.160,-0.15,0.415
2021-08-19 11:54:23.164,-0.16,0.42
2021-08-19 11:54:23.168,-0.17,0.415
2021-08-19 11:54:23.172,-0.16,0.43
2021-08-19 11:54:23.176,-0.18,0.415
2021-08-19 11:54:23.180,-0.165,0.425
2021-08-19 11:54:23.184,-0.16,0.38
2021-08-19 11:54:23.188,-0.175,0.4
2021-08-19 11:54:23.192,-0.16,0.4
2021-08-19 11:54:23.196,-0.155,0.395
2021-08-19 11:54:23.200,-0.18,0.41
2021-08-19 11:54:23.204,-0.17,0.415
2021-08-19 11:54:23.208,-0.18,0.435
2021-08-19 11:54:23.212,-0.18,0.445
2021-08-19 11:54:23.216,-0.19,0.445
2021-08-19 11:54:23.220,-0.165,0.465
2021-08-19 11:54:23.224,-0.14,0.455
2021-08-19 11:54:23.228,-0.115,0.43
2021-08-19 11:54:23.232,-0.095,0.39
2021-08-19 11:54:23.236,-0.075,0.37
2021-08-19 11:54:23.240,-0.03,0.34
2021-08-19 11:54:23.244,-0.04,0.32
2021-08-19 11:54:23.248,0.0,0.305
2021-08-19 11:54:23.252,0.11,0.295
2021-08-19 11:54:23.256,0.28,0.325
2021-08-19 11:54:23.260,0.37,0.315
2021-08-19 11:54:23.264,0.35,0.375
2021-08-19 11:54:23.268,0.255,0.475
2021-08-19 11:54:23.272,0.04,0.465
2021-08-19 11:54:23.276,-0.345,0.255
2021-08-19 11:54:23.280,-0.73,-0.125
2021-08-19 11:54:23.284,-0.985,-0.665
2021-08-19 11:54:23.288,-1.08,-1.405
2021-08-19 11:54:23.368,-0.8,-1.705
2021-08-19 11:54:23.372,-0.62,-1.255
2021-08-19 11:54:23.376,-0.46,-0.875
2021-08-19 11:54:23.380,-0.305,-0.555
2021-08-19 11:54:23.384,-0.21,-0.28
2021-08-19 11:54:23.388,-0.145,-0.065
2021-08-19 11:54:23.392,-0.075,0.19
2021-08-19 11:54:23.396,-0.045,0.38
2021-08-19 11:54:23.400,-0.02,0.58
2021-08-19 11:54:23.404,0.0,0.725
2021-08-19 11:54:23.408,0.035,0.835
2021-08-19 11:54:23.412,0.075,0.925
2021-08-19 11:54:23.416,0.08,0.965
2021-08-19 11:54:23.420,0.135,0.995
2021-08-19 11:54:23.424,0.135,0.98
2021-08-19 11:54:23.428,0.19,1.025
2021-08-19 11:54:23.432,0.21,1.025
2021-08-19 11:54:23.436,0.25,1.055
2021-08-19 11:54:23.440,0.29,1.045
2021-08-19 11:54:23.444,0.325,1.07
2021-08-19 11:54:23.448,0.355,1.065
2021-08-19 11:54:23.452,0.39,1.105
2021-08-19 11:54:23.456,0.385,1.12
2021-08-19 11:54:23.460,0.395,1.17
2021-08-19 11:54:23.464,0.44,1.19
2021-08-19 11:54:23.468,0.475,1.22
2021-08-19 11:54:23.472,0.455,1.24
2021-08-19 11:54:23.476,0.475,1.26
2021-08-19 11:54:23.480,0.485,1.29
2021-08-19 11:54:23.484,0.5,1.295
2021-08-19 11:54:23.488,0.54,1.335
2021-08-19 11:54:23.492,0.545,1.365
2021-08-19 11:54:23.496,0.535,1.395
2021-08-19 11:54:23.500,0.56,1.435
2021-08-19 11:54:23.504,0.535,1.465
2021-08-19 11:54:23.508,0.53,1.475
2021-08-19 11:54:23.512,0.555,1.505
2021-08-19 11:54:23.516,0.575,1.545
2021-08-19 11:54:23.520,0.57,1.58
2021-08-19 11:54:23.524,0.59,1.61
2021-08-19 11:54:23.528,0.585,1.62
2021-08-19 11:54:23.532,0.615,1.64
2021-08-19 11:54:23.536,0.595,1.64
2021-08-19 11:54:23.540,0.59,1.67
2021-08-19 11:54:23.544,0.58,1.69
2021-08-19 11:54:23.548,0.56,1.69
2021-08-19 11:54:23.552,0.535,1.68
2021-08-19 11:54:23.556,0.51,1.69
2021-08-19 11:54:23.560,0.465,1.695
2021-08-19 11:54:23.564,0.46,1.675
2021-08-19 11:54:23.568,0.43,1.655
2021-08-19 11:54:23.572,0.405,1.62
2021-08-19 11:54:23.576,0.37,1.57
2021-08-19 11:54:23.580,0.3,1.56
2021-08-19 11:54:23.584,0.255,1.52
2021-08-19 11:54:23.588,0.22,1.465
2021-08-19 11:54:23.592,0.17,1.395
2021-08-19 11:54:23.596,0.12,1.335
2021-08-19 11:54:23.600,0.06,1.26
2021-08-19 11:54:23.604,0.015,1.165
2021-08-19 11:54:23.608,-0.02,1.085
2021-08-19 11:54:23.612,-0.06,1.0
2021-08-19 11:54:23.616,-0.06,0.94
2021-08-19 11:54:23.620,-0.11,0.88
2021-08-19 11:54:23.624,-0.145,0.86
2021-08-19 11:54:23.628,-0.175,0.82
2021-08-19 11:54:23.632,-0.185,0.735
2021-08-19 11:54:23.636,-0.185,0.7
2021-08-19 11:54:23.640,-0.205,0.63
2021-08-19 11:54:23.644,-0.18,0.575
2021-08-19 11:54:23.648,-0.19,0.535
2021-08-19 11:54:23.652,-0.2,0.52
2021-08-19 11:54:23.656,-0.21,0.49
2021-08-19 11:54:23.660,-0.2,0.495
2021-08-19 11:54:23.664,-0.225,0.5
2021-08-19 11:54:23.668,-0.21,0.51
2021-08-19 11:54:23.672,-0.24,0.47
2021-08-19 11:54:23.676,-0.245,0.475
2021-08-19 11:54:23.680,-0.25,0.45
2021-08-19 11:54:23.684,-0.215,0.455
2021-08-19 11:54:23.688,-0.2,0.45
2021-08-19 11:54:23.692,-0.2,0.425
2021-08-19 11:54:23.696,-0.15,0.43
2021-08-19 11:54:23.700,-0.17,0.47
2021-08-19 11:54:23.704,-0.155,0.47
2021-08-19 11:54:23.708,-0.16,0.51
2021-08-19 11:54:23.712,-0.175,0.515
2021-08-19 11:54:23.716,-0.145,0.52
2021-08-19 11:54:23.720,-0.135,0.545
2021-08-19 11:54:23.724,-0.15,0.53
2021-08-19 11:54:23.728,-0.145,0.535
2021-08-19 11:54:23.732,-0.12,0.575
2021-08-19 11:54:23.736,-0.115,0.54
2021-08-19 11:54:23.740,-0.115,0.535
2021-08-19 11:54:23.744,-0.105,0.555
2021-08-19 11:54:23.748,-0.09,0.53
2021-08-19 11:54:23.752,-0.12,0.54
2021-08-19 11:54:23.756,-0.13,0.54
2021-08-19 11:54:23.760,-0.13,0.545
2021-08-19 11:54:23.764,-0.105,0.54
2021-08-19 11:54:23.768,-0.1,0.545
2021-08-19 11:54:23.772,-0.1,0.525
2021-08-19 11:54:23.776,-0.115,0.51
2021-08-19 11:54:23.780,-0.11,0.505
2021-08-19 11:54:23.784,-0.115,0.5
2021-08-19 11:54:23.788,-0.105,0.49
2021-08-19 11:54:23.792,-0.1,0.51
2021-08-19 11:54:23.796,-0.105,0.495
2021-08-19 11:54:23.800,-0.08,0.48
2021-08-19 11:54:23.804,-0.1,0.445
2021-08-19 11:54:23.808,-0.09,0.435
2021-08-19 11:54:23.812,-0.12,0.405
2021-08-19 11:54:23.816,-0.12,0.375
2021-08-19 11:54:23.820,-0.115,0.36
2021-08-19 11:54:23.824,-0.13,0.35
2021-08-19 11:54:23.828,-0.095,0.345
2021-08-19 11:54:23.832,-0.095,0.345
2021-08-19 11:54:23.836,-0.115,0.335
2021-08-19 11:54:23.840,-0.1,0.355
2021-08-19 11:54:23.844,-0.1,0.335
2021-08-19 11:54:23.848,-0.1,0.34
2021-08-19 11:54:23.852,-0.12,0.315
2021-08-19 11:54:23.856,-0.105,0.31
2021-08-19 11:54:23.860,-0.03,0.295
2021-08-19 11:54:23.864,0.02,0.295
2021-08-19 11:54:23.868,0.145,0.305
2021-08-19 11:54:23.872,0.225,0.295
2021-08-19 11:54:23.876,0.205,0.35
2021-08-19 11:54:23.880,0.12,0.405
2021-08-19 11:54:23.884,-0.08,0.47
2021-08-19 11:54:23.888,-0.44,0.34
2021-08-19 11:54:23.892,-0.855,-0.015
2021-08-19 11:54:23.896,-1.21,-0.5
2021-08-19 11:54:23.900,-1.43,-1.16
2021-08-19 11:54:23.984,-0.855,-1.55
2021-08-19 11:54:23.988,-0.7,-1.14
2021-08-19 11:54:23.992,-0.525,-0.765
2021-08-19 11:54:23.996,-0.355,-0.48
2021-08-19 11:54:24.000,-0.235,-0.285
2021-08-19 11:54:24.004,-0.11,-0.075
2021-08-19 11:54:24.008,-0.05,0.105
2021-08-19 11:54:24.012,-0.02,0.31
2021-08-19 11:54:24.016,0.05,0.495
2021-08-19 11:54:24.020,0.075,0.65
2021-08-19 11:54:24.024,0.13,0.78
2021-08-19 11:54:24.028,0.15,0.84
2021-08-19 11:54:24.032,0.17,0.895
2021-08-19 11:54:24.036,0.175,0.925
2021-08-19 11:54:24.040,0.2,0.965
2021-08-19 11:54:24.044,0.225,1.005
2021-08-19 11:54:24.048,0.24,1.055
2021-08-19 11:54:24.052,0.24,1.085
2021-08-19 11:54:24.056,0.28,1.105
2021-08-19 11:54:24.060,0.28,1.11
2021-08-19 11:54:24.064,0.295,1.15
2021-08-19 11:54:24.068,0.325,1.185
2021-08-19 11:54:24.072,0.355,1.205
2021-08-19 11:54:24.076,0.365,1.225
2021-08-19 11:54:24.080,0.365,1.25
2021-08-19 11:54:24.084,0.4,1.28
2021-08-19 11:54:24.088,0.4,1.305
2021-08-19 11:54:24.092,0.4,1.33
2021-08-19 11:54:24.096,0.395,1.35
2021-08-19 11:54:24.100,0.405,1.385
2021-08-19 11:54:24.104,0.42,1.415
2021-08-19 11:54:24.108,0.43,1.435
2021-08-19 11:54:24.112,0.425,1.46
2021-08-19 11:54:24.116,0.425,1.475
2021-08-19 11:54:24.120,0.4,1.475
2021-08-19 11:54:24.124,0.38,1.53
2021-08-19 11:54:24.128,0.35,1.55
2021-08-19 11:54:24.132,0.365,1.57
2021-08-19 11:54:24.136,0.36,1.595
2021-08-19 11:54:24.140,0.375,1.605
2021-08-19 11:54:24.144,0.365,1.645
2021-08-19 11:54:24.148,0.385,1.695
2021-08-19 11:54:24.152,0.385,1.72
2021-08-19 11:54:24.156,0.375,1.74
2021-08-19 11:54:24.160,0.39,1.74
2021-08-19 11:54:24.164,0.37,1.73
2021-08-19 11:54:24.168,0.345,1.755
2021-08-19 11:54:24.172,0.33,1.745
2021-08-19 11:54:24.176,0.325,1.745
2021-08-19 11:54:24.180,0.305,1.735
2021-08-19 11:54:24.184,0.29,1.705
2021-08-19 11:54:24.188,0.26,1.7
2021-08-19 11:54:24.192,0.22,1.655
2021-08-19 11:54:24.196,0.185,1.6
2021-08-19 11:54:24.200,0.18,1.57
2021-08-19 11:54:24.204,0.135,1.52
2021-08-19 11:54:24.208,0.12,1.445
2021-08-19 11:54:24.212,0.075,1.39
2021-08-19 11:54:24.216,0.03,1.305
2021-08-19 11:54:24.220,0.005,1.215
2021-08-19 11:54:24.224,0.0,1.135
2021-08-19 11:54:24.228,-0.04,1.025
2021-08-19 11:54:24.232,-0.07,0.95
2021-08-19 11:54:24.236,-0.09,0.86
2021-08-19 11:54:24.240,-0.075,0.77
2021-08-19 11:54:24.244,-0.095,0.71
2021-08-19 11:54:24.248,-0.085,0.65
2021-08-19 11:54:24.252,-0.115,0.585
2021-08-19 11:54:24.256,-0.135,0.545
2021-08-19 11:54:24.260,-0.115,0.53
2021-08-19 11:54:24.264,-0.13,0.485
2021-08-19 11:54:24.268,-0.145,0.455
2021-08-19 11:54:24.272,-0.145,0.4
2021-08-19 11:54:24.276,-0.15,0.375
2021-08-19 11:54:24.280,-0.12,0.355
2021-08-19 11:54:24.284,-0.11,0.34
2021-08-19 11:54:24.288,-0.09,0.37
2021-08-19 11:54:24.292,-0.07,0.375
2021-08-19 11:54:24.296,-0.07,0.39
2021-08-19 11:54:24.300,-0.09,0.375
2021-08-19 11:54:24.304,-0.115,0.39
2021-08-19 11:54:24.308,-0.14,0.39
2021-08-19 11:54:24.312,-0.165,0.405
2021-08-19 11:54:24.316,-0.175,0.41
2021-08-19 11:54:24.320,-0.2,0.385
2021-08-19 11:54:24.324,-0.21,0.385
2021-08-19 11:54:24.328,-0.2,0.385
2021-08-19 11:54:24.332,-0.2,0.4
2021-08-19 11:54:24.336,-0.195,0.395
2021-08-19 11:54:24.340,-0.16,0.395
2021-08-19 11:54:24.344,-0.145,0.45
2021-08-19 11:54:24.348,-0.135,0.435
2021-08-19 11:54:24.352,-0.135,0.46
2021-08-19 11:54:24.356,-0.15,0.465
2021-08-19 11:54:24.360,-0.15,0.49
2021-08-19 11:54:24.364,-0.13,0.51
2021-08-19 11:54:24.368,-0.09,0.5
2021-08-19 11:54:24.372,-0.06,0.51
2021-08-19 11:54:24.376,-0.09,0.515
2021-08-19 11:54:24.380,-0.09,0.525
2021-08-19 11:54:24.384,-0.1,0.51
2021-08-19 11:54:24.388,-0.1,0.515
2021-08-19 11:54:24.392,-0.08,0.52
2021-08-19 11:54:24.396,-0.1,0.51
2021-08-19 11:54:24.400,-0.1,0.515
2021-08-19 11:54:24.404,-0.095,0.475
2021-08-19 11:54:24.408,-0.11,0.47
2021-08-19 11:54:24.412,-0.105,0.47
2021-08-19 11:54:24.416,-0.105,0.49
2021-08-19 11:54:24.420,-0.11,0.48
2021-08-19 11:54:24.424,-0.09,0.47
2021-08-19 11:54:24.428,-0.095,0.46
2021-08-19 11:54:24.432,-0.115,0.435
2021-08-19 11:54:24.436,-0.105,0.415
2021-08-19 11:54:24.440,-0.09,0.395
2021-08-19 11:54:24.444,-0.115,0.365
2021-08-19 11:54:24.448,-0.105,0.305
2021-08-19 11:54:24.452,-0.08,0.34
2021-08-19 11:54:24.456,-0.085,0.3
2021-08-19 11:54:24.460,-0.09,0.305
2021-08-19 11:54:24.464,-0.105,0.29
2021-08-19 11:54:24.468,-0.105,0.28
2021-08-19 11:54:24.472,-0.105,0.26
2021-08-19 11:54:24.476,-0.11,0.24
2021-08-19 11:54:24.480,-0.12,0.25
2021-08-19 11:54:24.484,-0.125,0.22
2021-08-19 11:54:24.488,-0.135,0.21
2021-08-19 11:54:24.492,-0.09,0.21
2021-08-19 11:54:24.496,-0.11,0.215
2021-08-19 11:54:24.500,-0.07,0.215
2021-08-19 11:54:24.504,-0.09,0.225
2021-08-19 11:54:24.508,-0.09,0.235
2021-08-19 11:54:24.512,-0.105,0.235
2021-08-19 11:54:24.516,-0.125,0.24
2021-08-19 11:54:24.520,-0.16,0.225
2021-08-19 11:54:24.524,-0.165,0.22
2021-08-19 11:54:24.528,-0.22,0.19
2021-08-19 11:54:24.532,-0.285,0.17
2021-08-19 11:54:24.536,-0.305,0.185
2021-08-19 11:54:24.540,-0.285,0.175
2021-08-19 11:54:24.544,-0.265,0.155
2021-08-19 11:54:24.548,-0.26,0.14
2021-08-19 11:54:24.552,-0.24,0.155
2021-08-19 11:54:24.556,-0.255,0.165
2021-08-19 11:54:24.560,-0.24,0.21
2021-08-19 11:54:24.564,-0.24,0.22
2021-08-19 11:54:24.568,-0.24,0.24
2021-08-19 11:54:24.572,-0.22,0.25
2021-08-19 11:54:24.576,-0.18,0.275
2021-08-19 11:54:24.580,-0.205,0.28
2021-08-19 11:54:24.584,-0.22,0.28
2021-08-19 11:54:24.588,-0.205,0.29
2021-08-19 11:54:24.592,-0.185,0.295
2021-08-19 11:54:24.596,-0.19,0.29
2021-08-19 11:54:24.600,-0.215,0.32
2021-08-19 11:54:24.604,-0.19,0.33
2021-08-19 11:54:24.608,-0.18,0.285
2021-08-19 11:54:24.612,-0.23,0.31
2021-08-19 11:54:24.616,-0.225,0.28
2021-08-19 11:54:24.620,-0.2,0.285
2021-08-19 11:54:24.624,-0.13,0.285
2021-08-19 11:54:24.628,-0.045,0.3
2021-08-19 11:54:24.632,0.09,0.295
2021-08-19 11:54:24.636,0.165,0.31
2021-08-19 11:54:24.640,0.1,0.35
2021-08-19 11:54:24.644,-0.015,0.405
2021-08-19 11:54:24.648,-0.24,0.4
2021-08-19 11:54:24.652,-0.6,0.2
2021-08-19 11:54:24.656,-0.995,-0.205
2021-08-19 11:54:24.660,-1.3,-0.69
2021-08-19 11:54:24.664,-1.51,-1.36
2021-08-19 11:54:24.748,-0.74,-1.75
2021-08-19 11:54:24.752,-0.565,-1.31
2021-08-19 11:54:24.756,-0.425,-0.975
2021-08-19 11:54:24.760,-0.295,-0.68
2021-08-19 11:54:24.764,-0.23,-0.44
2021-08-19 11:54:24.768,-0.15,-0.225
2021-08-19 11:54:24.772,-0.08,-0.035
2021-08-19 11:54:24.776,-0.055,0.145
2021-08-19 11:54:24.780,0.005,0.31
2021-08-19 11:54:24.784,0.055,0.455
2021-08-19 11:54:24.788,0.1,0.615
2021-08-19 11:54:24.792,0.115,0.75
2021-08-19 11:54:24.796,0.13,0.84
2021-08-19 11:54:24.800,0.13,0.905
2021-08-19 11:54:24.804,0.155,0.95
2021-08-19 11:54:24.808,0.155,0.98
2021-08-19 11:54:24.812,0.165,0.98
2021-08-19 11:54:24.816,0.2,1.015
2021-08-19 11:54:24.820,0.175,1.02
2021-08-19 11:54:24.824,0.205,1.045
2021-08-19 11:54:24.828,0.215,1.04
2021-08-19 11:54:24.832,0.245,1.06
2021-08-19 11:54:24.836,0.245,1.07
2021-08-19 11:54:24.840,0.265,1.06
2021-08-19 11:54:24.844,0.285,1.055
2021-08-19 11:54:24.848,0.295,1.095
2021-08-19 11:54:24.852,0.305,1.105
2021-08-19 11:54:24.856,0.31,1.105
2021-08-19 11:54:24.860,0.315,1.105
2021-08-19 11:54:24.864,0.335,1.115
2021-08-19 11:54:24.868,0.34,1.1
2021-08-19 11:54:24.872,0.355,1.12
2021-08-19 11:54:24.876,0.35,1.15
2021-08-19 11:54:24.880,0.36,1.17
2021-08-19 11:54:24.884,0.385,1.17
2021-08-19 11:54:24.888,0.405,1.2
2021-08-19 11:54:24.892,0.38,1.22
2021-08-19 11:54:24.896,0.4,1.245
2021-08-19 11:54:24.900,0.39,1.295
2021-08-19 11:54:24.904,0.415,1.295
2021-08-19 11:54:24.908,0.455,1.3
2021-08-19 11:54:24.912,0.45,1.345
2021-08-19 11:54:24.916,0.45,1.32
2021-08-19 11:54:24.920,0.47,1.36
2021-08-19 11:54:24.924,0.46,1.415
2021-08-19 11:54:24.928,0.46,1.43
2021-08-19 11:54:24.932,0.435,1.435
2021-08-19 11:54:24.936,0.45,1.46
2021-08-19 11:54:24.940,0.425,1.455
2021-08-19 11:54:24.944,0.425,1.465
2021-08-19 11:54:24.948,0.39,1.475
2021-08-19 11:54:24.952,0.345,1.475
2021-08-19 11:54:24.956,0.345,1.47
2021-08-19 11:54:24.960,0.29,1.445
2021-08-19 11:54:24.964,0.26,1.445
2021-08-19 11:54:24.968,0.21,1.41
2021-08-19 11:54:24.972,0.16,1.345
2021-08-19 11:54:24.976,0.09,1.315
2021-08-19 11:54:24.980,0.01,1.29
2021-08-19 11:54:24.984,-0.04,1.235
2021-08-19 11:54:24.988,-0.065,1.19
2021-08-19 11:54:24.992,-0.1,1.115
2021-08-19 11:54:24.996,-0.115,1.055
2021-08-19 11:54:25.000,-0.12,0.98
2021-08-19 11:54:25.004,-0.13,0.93
2021-08-19 11:54:25.008,-0.145,0.865
2021-08-19 11:54:25.012,-0.11,0.805
2021-08-19 11:54:25.016,-0.13,0.765
2021-08-19 11:54:25.020,-0.155,0.74
2021-08-19 11:54:25.024,-0.165,0.7
2021-08-19 11:54:25.028,-0.18,0.68
2021-08-19 11:54:25.032,-0.18,0.625
2021-08-19 11:54:25.036,-0.21,0.61
2021-08-19 11:54:25.040,-0.175,0.555
2021-08-19 11:54:25.044,-0.19,0.52
2021-08-19 11:54:25.048,-0.18,0.48
2021-08-19 11:54:25.052,-0.18,0.445
2021-08-19 11:54:25.056,-0.18,0.41
2021-08-19 11:54:25.060,-0.18,0.385
2021-08-19 11:54:25.064,-0.16,0.34
2021-08-19 11:54:25.068,-0.165,0.32
2021-08-19 11:54:25.072,-0.18,0.315
2021-08-19 11:54:25.076,-0.15,0.305
2021-08-19 11:54:25.080,-0.185,0.285
2021-08-19 11:54:25.084,-0.175,0.275
2021-08-19 11:54:25.088,-0.195,0.25
2021-08-19 11:54:25.092,-0.19,0.255
2021-08-19 11:54:25.096,-0.16,0.24
2021-08-19 11:54:25.100,-0.17,0.225
2021-08-19 11:54:25.104,-0.16,0.24
2021-08-19 11:54:25.108,-0.16,0.235
2021-08-19 11:54:25.112,-0.15,0.26
2021-08-19 11:54:25.116,-0.145,0.28
2021-08-19 11:54:25.120,-0.14,0.305
2021-08-19 11:54:25.124,-0.135,0.3
2021-08-19 11:54:25.128,-0.115,0.34
2021-08-19 11:54:25.132,-0.135,0.33
2021-08-19 11:54:25.136,-0.12,0.34
2021-08-19 11:54:25.140,-0.105,0.345
2021-08-19 11:54:25.144,-0.115,0.335
2021-08-19 11:54:25.148,-0.115,0.35
2021-08-19 11:54:25.152,-0.12,0.36
2021-08-19 11:54:25.156,-0.125,0.365
2021-08-19 11:54:25.160,-0.14,0.375
2021-08-19 11:54:25.164,-0.16,0.375
2021-08-19 11:54:25.168,-0.15,0.365
2021-08-19 11:54:25.172,-0.13,0.35
2021-08-19 11:54:25.176,-0.11,0.35
2021-08-19 11:54:25.180,-0.045,0.355
2021-08-19 11:54:25.184,0.095,0.35
2021-08-19 11:54:25.188,0.14,0.345
2021-08-19 11:54:25.192,0.1,0.375
2021-08-19 11:54:25.196,-0.045,0.42
2021-08-19 11:54:25.200,-0.27,0.475
2021-08-19 11:54:25.204,-0.58,0.395
2021-08-19 11:54:25.208,-0.945,0.09
2021-08-19 11:54:25.212,-1.23,-0.32
2021-08-19 11:54:25.216,-1.48,-0.87
2021-08-19 11:54:25.220,-1.525,-1.68
2021-08-19 11:54:25.300,-0.75,-1.825
2021-08-19 11:54:25.304,-0.61,-1.425
2021-08-19 11:54:25.308,-0.465,-1.07
2021-08-19 11:54:25.312,-0.295,-0.765
2021-08-19 11:54:25.316,-0.16,-0.53
2021-08-19 11:54:25.320,-0.07,-0.3
2021-08-19 11:54:25.324,0.015,-0.09
2021-08-19 11:54:25.328,0.075,0.105
2021-08-19 11:54:25.332,0.095,0.295
2021-08-19 11:54:25.336,0.095,0.475
2021-08-19 11:54:25.340,0.12,0.64
2021-08-19 11:54:25.344,0.16,0.755
2021-08-19 11:54:25.348,0.17,0.845
2021-08-19 11:54:25.352,0.195,0.85
2021-08-19 11:54:25.356,0.2,0.835
2021-08-19 11:54:25.360,0.24,0.875
2021-08-19 11:54:25.364,0.25,0.9
2021-08-19 11:54:25.368,0.26,0.92
2021-08-19 11:54:25.372,0.27,0.98
2021-08-19 11:54:25.376,0.27,1.0
2021-08-19 11:54:25.380,0.29,1.015
2021-08-19 11:54:25.384,0.29,1.015
2021-08-19 11:54:25.388,0.31,1.02
2021-08-19 11:54:25.392,0.315,1.035
2021-08-19 11:54:25.396,0.32,1.08
2021-08-19 11:54:25.400,0.32,1.09
2021-08-19 11:54:25.404,0.325,1.1
2021-08-19 11:54:25.408,0.34,1.13
2021-08-19 11:54:25.412,0.305,1.14
2021-08-19 11:54:25.416,0.3,1.175
2021-08-19 11:54:25.420,0.31,1.205
2021-08-19 11:54:25.424,0.315,1.205
2021-08-19 11:54:25.428,0.35,1.23
2021-08-19 11:54:25.432,0.34,1.28
2021-08-19 11:54:25.436,0.39,1.28
2021-08-19 11:54:25.440,0.395,1.35
2021-08-19 11:54:25.444,0.425,1.4
2021-08-19 11:54:25.448,0.42,1.42
2021-08-19 11:54:25.452,0.425,1.44
2021-08-19 11:54:25.456,0.415,1.5
2021-08-19 11:54:25.460,0.44,1.55
2021-08-19 11:54:25.464,0.44,1.58
2021-08-19 11:54:25.468,0.43,1.58
2021-08-19 11:54:25.472,0.45,1.605
2021-08-19 11:54:25.476,0.445,1.62
2021-08-19 11:54:25.480,0.455,1.62
2021-08-19 11:54:25.484,0.435,1.65
2021-08-19 11:54:25.488,0.435,1.65
2021-08-19 11:54:25.492,0.42,1.66
2021-08-19 11:54:25.496,0.405,1.645
2021-08-19 11:54:25.500,0.37,1.62
2021-08-19 11:54:25.504,0.335,1.615
2021-08-19 11:54:25.508,0.305,1.595
2021-08-19 11:54:25.512,0.265,1.555
2021-08-19 11:54:25.516,0.23,1.505
2021-08-19 11:54:25.520,0.19,1.42
2021-08-19 11:54:25.524,0.17,1.36
2021-08-19 11:54:25.528,0.13,1.29
2021-08-19 11:54:25.532,0.105,1.22
2021-08-19 11:54:25.536,0.075,1.125
2021-08-19 11:54:25.540,0.035,1.055
2021-08-19 11:54:25.544,0.005,1.005
2021-08-19 11:54:25.548,-0.025,0.92
2021-08-19 11:54:25.552,-0.05,0.845
2021-08-19 11:54:25.556,-0.1,0.78
2021-08-19 11:54:25.560,-0.12,0.715
2021-08-19 11:54:25.564,-0.14,0.64
2021-08-19 11:54:25.568,-0.155,0.59
2021-08-19 11:54:25.572,-0.155,0.55
2021-08-19 11:54:25.576,-0.135,0.49
2021-08-19 11:54:25.580,-0.135,0.475
2021-08-19 11:54:25.584,-0.18,0.465
2021-08-19 11:54:25.588,-0.19,0.42
2021-08-19 11:54:25.592,-0.19,0.43
2021-08-19 11:54:25.596,-0.205,0.395
2021-08-19 11:54:25.600,-0.22,0.38
2021-08-19 11:54:25.604,-0.24,0.365
2021-08-19 11:54:25.608,-0.24,0.37
2021-08-19 11:54:25.612,-0.25,0.35
2021-08-19 11:54:25.616,-0.24,0.36
2021-08-19 11:54:25.620,-0.245,0.36
2021-08-19 11:54:25.624,-0.24,0.355
2021-08-19 11:54:25.628,-0.265,0.37
2021-08-19 11:54:25.632,-0.305,0.37
2021-08-19 11:54:25.636,-0.31,0.37
2021-08-19 11:54:25.640,-0.32,0.37
2021-08-19 11:54:25.644,-0.32,0.385
2021-08-19 11:54:25.648,-0.295,0.385
2021-08-19 11:54:25.652,-0.27,0.38
2021-08-19 11:54:25.656,-0.24,0.375
2021-08-19 11:54:25.660,-0.22,0.4
2021-08-19 11:54:25.664,-0.2,0.42
2021-08-19 11:54:25.668,-0.19,0.43
2021-08-19 11:54:25.672,-0.185,0.43
2021-08-19 11:54:25.676,-0.185,0.46
2021-08-19 11:54:25.680,-0.195,0.5
2021-08-19 11:54:25.684,-0.175,0.5
2021-08-19 11:54:25.688,-0.18,0.49
2021-08-19 11:54:25.692,-0.205,0.49
2021-08-19 11:54:25.696,-0.17,0.465
2021-08-19 11:54:25.700,-0.175,0.47
2021-08-19 11:54:25.704,-0.19,0.47
2021-08-19 11:54:25.708,-0.2,0.46
2021-08-19 11:54:25.712,-0.17,0.465
2021-08-19 11:54:25.716,-0.18,0.455
2021-08-19 11:54:25.720,-0.19,0.485
2021-08-19 11:54:25.724,-0.185,0.485
2021-08-19 11:54:25.728,-0.205,0.445
2021-08-19 11:54:25.732,-0.19,0.43
2021-08-19 11:54:25.736,-0.205,0.42
2021-08-19 11:54:25.740,-0.21,0.365
2021-08-19 11:54:25.744,-0.215,0.34
2021-08-19 11:54:25.748,-0.185,0.305
2021-08-19 11:54:25.752,-0.12,0.28
2021-08-19 11:54:25.756,-0.015,0.25
2021-08-19 11:54:25.760,0.13,0.26
2021-08-19 11:54:25.764,0.17,0.255
2021-08-19 11:54:25.768,0.155,0.33
2021-08-19 11:54:25.772,0.06,0.4
2021-08-19 11:54:25.776,-0.145,0.43
2021-08-19 11:54:25.780,-0.495,0.23
2021-08-19 11:54:25.784,-0.855,-0.18
2021-08-19 11:54:25.788,-1.16,-0.64
2021-08-19 11:54:25.792,-1.38,-1.32
2021-08-19 11:54:25.876,-0.93,-1.895
2021-08-19 11:54:25.880,-0.775,-1.395
2021-08-19 11:54:25.884,-0.61,-0.975
2021-08-19 11:54:25.888,-0.465,-0.635
2021-08-19 11:54:25.892,-0.295,-0.345
2021-08-19 11:54:25.896,-0.22,-0.1
2021-08-19 11:54:25.900,-0.13,0.115
2021-08-19 11:54:25.904,-0.075,0.295
2021-08-19 11:54:25.908,-0.025,0.51
2021-08-19 11:54:25.912,-0.02,0.665
2021-08-19 11:54:25.916,-0.01,0.795
2021-08-19 11:54:25.920,0.02,0.89
2021-08-19 11:54:25.924,0.065,0.96
2021-08-19 11:54:25.928,0.095,0.99
2021-08-19 11:54:25.932,0.12,1.015
2021-08-19 11:54:25.936,0.115,1.025
2021-08-19 11:54:25.940,0.145,1.03
2021-08-19 11:54:25.944,0.165,1.03
2021-08-19 11:54:25.948,0.16,1.045
2021-08-19 11:54:25.952,0.185,1.055
2021-08-19 11:54:25.956,0.2,1.055
2021-08-19 11:54:25.960,0.215,1.06
2021-08-19 11:54:25.964,0.245,1.055
2021-08-19 11:54:25.968,0.27,1.105
2021-08-19 11:54:25.972,0.275,1.11
2021-08-19 11:54:25.976,0.3,1.13
2021-08-19 11:54:25.980,0.315,1.165
2021-08-19 11:54:25.984,0.32,1.185
2021-08-19 11:54:25.988,0.31,1.2
2021-08-19 11:54:25.992,0.325,1.23
2021-08-19 11:54:25.996,0.325,1.27
2021-08-19 11:54:26.000,0.345,1.275
2021-08-19 11:54:26.004,0.355,1.29
2021-08-19 11:54:26.008,0.365,1.3
2021-08-19 11:54:26.012,0.38,1.325
2021-08-19 11:54:26.016,0.375,1.35
2021-08-19 11:54:26.020,0.4,1.375
2021-08-19 11:54:26.024,0.385,1.4
2021-08-19 11:54:26.028,0.395,1.45
2021-08-19 11:54:26.032,0.385,1.485
2021-08-19 11:54:26.036,0.38,1.49
2021-08-19 11:54:26.040,0.365,1.505
2021-08-19 11:54:26.044,0.38,1.55
2021-08-19 11:54:26.048,0.38,1.545
2021-08-19 11:54:26.052,0.385,1.585
2021-08-19 11:54:26.056,0.365,1.58
2021-08-19 11:54:26.060,0.365,1.625
2021-08-19 11:54:26.064,0.32,1.62
2021-08-19 11:54:26.068,0.27,1.65
2021-08-19 11:54:26.072,0.265,1.655
2021-08-19 11:54:26.076,0.24,1.645
2021-08-19 11:54:26.080,0.2,1.635
2021-08-19 11:54:26.084,0.21,1.64
2021-08-19 11:54:26.088,0.19,1.62
2021-08-19 11:54:26.092,0.155,1.585
2021-08-19 11:54:26.096,0.15,1.565
2021-08-19 11:54:26.100,0.135,1.52
2021-08-19 11:54:26.104,0.115,1.48
2021-08-19 11:54:26.108,0.065,1.45
2021-08-19 11:54:26.112,0.03,1.385
2021-08-19 11:54:26.116,-0.015,1.36
2021-08-19 11:54:26.120,-0.055,1.28
2021-08-19 11:54:26.124,-0.085,1.19
2021-08-19 11:54:26.128,-0.095,1.13
2021-08-19 11:54:26.132,-0.11,1.065
2021-08-19 11:54:26.136,-0.135,1.025
2021-08-19 11:54:26.140,-0.135,0.935
2021-08-19 11:54:26.144,-0.155,0.87
2021-08-19 11:54:26.148,-0.185,0.795
2021-08-19 11:54:26.152,-0.205,0.735
2021-08-19 11:54:26.156,-0.225,0.685
2021-08-19 11:54:26.160,-0.235,0.6
2021-08-19 11:54:26.164,-0.25,0.555
2021-08-19 11:54:26.168,-0.255,0.515
2021-08-19 11:54:26.172,-0.255,0.48
2021-08-19 11:54:26.176,-0.245,0.445
2021-08-19 11:54:26.180,-0.255,0.42
2021-08-19 11:54:26.184,-0.245,0.38
2021-08-19 11:54:26.188,-0.25,0.36
2021-08-19 11:54:26.192,-0.25,0.385
2021-08-19 11:54:26.196,-0.25,0.365
2021-08-19 11:54:26.200,-0.255,0.35
2021-08-19 11:54:26.204,-0.265,0.36
2021-08-19 11:54:26.208,-0.29,0.33
2021-08-19 11:54:26.212,-0.295,0.32
2021-08-19 11:54:26.216,-0.295,0.33
2021-08-19 11:54:26.220,-0.31,0.32
2021-08-19 11:54:26.224,-0.29,0.3
2021-08-19 11:54:26.228,-0.285,0.315
2021-08-19 11:54:26.232,-0.26,0.32
2021-08-19 11:54:26.236,-0.28,0.315
2021-08-19 11:54:26.240,-0.29,0.34
2021-08-19 11:54:26.244,-0.3,0.335
2021-08-19 11:54:26.248,-0.29,0.35
2021-08-19 11:54:26.252,-0.32,0.355
2021-08-19 11:54:26.256,-0.32,0.375
2021-08-19 11:54:26.260,-0.32,0.37
2021-08-19 11:54:26.264,-0.32,0.345
2021-08-19 11:54:26.268,-0.3,0.33
2021-08-19 11:54:26.272,-0.285,0.355
2021-08-19 11:54:26.276,-0.27,0.345
2021-08-19 11:54:26.280,-0.285,0.36
2021-08-19 11:54:26.284,-0.275,0.35
2021-08-19 11:54:26.288,-0.285,0.365
2021-08-19 11:54:26.292,-0.28,0.375
2021-08-19 11:54:26.296,-0.295,0.36
2021-08-19 11:54:26.300,-0.255,0.345
2021-08-19 11:54:26.304,-0.235,0.34
2021-08-19 11:54:26.308,-0.175,0.37
2021-08-19 11:54:26.312,-0.02,0.355
2021-08-19 11:54:26.316,0.09,0.37
2021-08-19 11:54:26.320,0.145,0.41
2021-08-19 11:54:26.324,0.065,0.46
2021-08-19 11:54:26.328,-0.015,0.52
2021-08-19 11:54:26.332,-0.26,0.545
2021-08-19 11:54:26.336,-0.56,0.315
2021-08-19 11:54:26.340,-0.88,-0.07
2021-08-19 11:54:26.344,-1.165,-0.54
2021-08-19 11:54:26.348,-1.31,-1.24
2021-08-19 11:54:26.436,-0.81,-1.48
2021-08-19 11:54:26.440,-0.65,-1.07
2021-08-19 11:54:26.444,-0.46,-0.74
2021-08-19 11:54:26.448,-0.325,-0.475
2021-08-19 11:54:26.452,-0.245,-0.215
2021-08-19 11:54:26.456,-0.17,0.0
2021-08-19 11:54:26.460,-0.105,0.235
2021-08-19 11:54:26.464,-0.09,0.455
2021-08-19 11:54:26.468,-0.075,0.625
2021-08-19 11:54:26.472,-0.075,0.765
2021-08-19 11:54:26.476,-0.035,0.875
2021-08-19 11:54:26.480,-0.01,0.925
2021-08-19 11:54:26.484,0.01,0.945
2021-08-19 11:54:26.488,0.055,0.965
2021-08-19 11:54:26.492,0.07,1.0
2021-08-19 11:54:26.496,0.105,1.035
2021-08-19 11:54:26.500,0.1,1.065
2021-08-19 11:54:26.504,0.095,1.12
2021-08-19 11:54:26.508,0.085,1.14
2021-08-19 11:54:26.512,0.115,1.175
2021-08-19 11:54:26.516,0.145,1.17
2021-08-19 11:54:26.520,0.155,1.17
2021-08-19 11:54:26.524,0.175,1.2
2021-08-19 11:54:26.528,0.205,1.21
2021-08-19 11:54:26.532,0.255,1.235
2021-08-19 11:54:26.536,0.28,1.295
2021-08-19 11:54:26.540,0.305,1.32
2021-08-19 11:54:26.544,0.34,1.345
2021-08-19 11:54:26.548,0.35,1.365
2021-08-19 11:54:26.552,0.35,1.39
2021-08-19 11:54:26.556,0.365,1.4
2021-08-19 11:54:26.560,0.37,1.42
2021-08-19 11:54:26.564,0.39,1.45
2021-08-19 11:54:26.568,0.405,1.47
2021-08-19 11:54:26.572,0.42,1.495
2021-08-19 11:54:26.576,0.43,1.49
2021-08-19 11:54:26.580,0.455,1.505
2021-08-19 11:54:26.584,0.46,1.54
2021-08-19 11:54:26.588,0.465,1.56
2021-08-19 11:54:26.592,0.47,1.585
2021-08-19 11:54:26.596,0.485,1.6
2021-08-19 11:54:26.600,0.465,1.62
2021-08-19 11:54:26.604,0.46,1.615
2021-08-19 11:54:26.608,0.46,1.615
2021-08-19 11:54:26.612,0.45,1.635
2021-08-19 11:54:26.616,0.455,1.635
2021-08-19 11:54:26.620,0.43,1.635
2021-08-19 11:54:26.624,0.39,1.61
2021-08-19 11:54:26.628,0.355,1.595
2021-08-19 11:54:26.632,0.33,1.595
2021-08-19 11:54:26.636,0.27,1.58
2021-08-19 11:54:26.640,0.24,1.54
2021-08-19 11:54:26.644,0.19,1.505
2021-08-19 11:54:26.648,0.13,1.455
2021-08-19 11:54:26.652,0.095,1.42
2021-08-19 11:54:26.656,0.04,1.335
2021-08-19 11:54:26.660,0.01,1.26
2021-08-19 11:54:26.664,-0.02,1.23
2021-08-19 11:54:26.668,-0.06,1.18
2021-08-19 11:54:26.672,-0.11,1.105
2021-08-19 11:54:26.676,-0.14,1.05
2021-08-19 11:54:26.680,-0.185,0.975
2021-08-19 11:54:26.684,-0.195,0.91
2021-08-19 11:54:26.688,-0.2,0.86
2021-08-19 11:54:26.692,-0.215,0.815
2021-08-19 11:54:26.696,-0.25,0.76
2021-08-19 11:54:26.700,-0.255,0.7
2021-08-19 11:54:26.704,-0.24,0.665
2021-08-19 11:54:26.708,-0.26,0.635
2021-08-19 11:54:26.712,-0.265,0.585
2021-08-19 11:54:26.716,-0.28,0.555
2021-08-19 11:54:26.720,-0.28,0.5
2021-08-19 11:54:26.724,-0.27,0.49
2021-08-19 11:54:26.728,-0.26,0.455
2021-08-19 11:54:26.732,-0.255,0.415
2021-08-19 11:54:26.736,-0.235,0.395
2021-08-19 11:54:26.740,-0.215,0.35
2021-08-19 11:54:26.744,-0.18,0.37
2021-08-19 11:54:26.748,-0.13,0.355
2021-08-19 11:54:26.752,-0.12,0.355
2021-08-19 11:54:26.756,-0.06,0.34
2021-08-19 11:54:26.760,-0.07,0.385
2021-08-19 11:54:26.764,-0.07,0.415
2021-08-19 11:54:26.768,-0.075,0.43
2021-08-19 11:54:26.772,-0.06,0.43
2021-08-19 11:54:26.776,-0.04,0.435
2021-08-19 11:54:26.780,-0.055,0.44
2021-08-19 11:54:26.784,-0.05,0.44
2021-08-19 11:54:26.788,-0.04,0.435
2021-08-19 11:54:26.792,-0.03,0.455
2021-08-19 11:54:26.796,-0.025,0.43
2021-08-19 11:54:26.800,-0.05,0.45
2021-08-19 11:54:26.804,-0.065,0.455
2021-08-19 11:54:26.808,-0.08,0.455
2021-08-19 11:54:26.812,-0.09,0.45
2021-08-19 11:54:26.816,-0.1,0.44
2021-08-19 11:54:26.820,-0.12,0.425
2021-08-19 11:54:26.824,-0.145,0.42
2021-08-19 11:54:26.828,-0.16,0.4
2021-08-19 11:54:26.832,-0.135,0.42
2021-08-19 11:54:26.836,-0.14,0.385
2021-08-19 11:54:26.840,-0.125,0.405
2021-08-19 11:54:26.844,-0.16,0.405
2021-08-19 11:54:26.848,-0.15,0.43
2021-08-19 11:54:26.852,-0.145,0.4
2021-08-19 11:54:26.856,-0.17,0.405
2021-08-19 11:54:26.860,-0.16,0.4
2021-08-19 11:54:26.864,-0.175,0.37
2021-08-19 11:54:26.868,-0.19,0.39
2021-08-19 11:54:26.872,-0.21,0.385
2021-08-19 11:54:26.876,-0.2,0.4
2021-08-19 11:54:26.880,-0.23,0.385
2021-08-19 11:54:26.884,-0.24,0.365
2021-08-19 11:54:26.888,-0.265,0.405
2021-08-19 11:54:26.892,-0.275,0.4
2021-08-19 11:54:26.896,-0.225,0.365
2021-08-19 11:54:26.900,-0.235,0.39
2021-08-19 11:54:26.904,-0.26,0.38
2021-08-19 11:54:26.908,-0.22,0.37
2021-08-19 11:54:26.912,-0.24,0.37
2021-08-19 11:54:26.916,-0.215,0.395
2021-08-19 11:54:26.920,-0.225,0.375
2021-08-19 11:54:26.924,-0.23,0.375
2021-08-19 11:54:26.928,-0.25,0.36
2021-08-19 11:54:26.932,-0.255,0.345
2021-08-19 11:54:26.936,-0.26,0.335
2021-08-19 11:54:26.940,-0.26,0.335
2021-08-19 11:54:26.944,-0.265,0.305
2021-08-19 11:54:26.948,-0.25,0.28
2021-08-19 11:54:26.952,-0.21,0.23
2021-08-19 11:54:26.956,-0.195,0.22
2021-08-19 11:54:26.960,-0.17,0.215
2021-08-19 11:54:26.964,-0.15,0.19
2021-08-19 11:54:26.968,-0.155,0.21
2021-08-19 11:54:26.972,-0.175,0.22
2021-08-19 11:54:26.976,-0.16,0.245
2021-08-19 11:54:26.980,-0.155,0.23
2021-08-19 11:54:26.984,-0.18,0.24
2021-08-19 11:54:26.988,-0.175,0.24
2021-08-19 11:54:26.992,-0.175,0.22
2021-08-19 11:54:26.996,-0.145,0.21
2021-08-19 11:54:27.000,-0.12,0.215
2021-08-19 11:54:27.004,-0.08,0.2
2021-08-19 11:54:27.008,-0.075,0.2
2021-08-19 11:54:27.012,-0.02,0.19
2021-08-19 11:54:27.016,0.11,0.185
2021-08-19 11:54:27.020,0.15,0.195
2021-08-19 11:54:27.024,0.055,0.235
2021-08-19 11:54:27.028,-0.07,0.345
2021-08-19 11:54:27.032,-0.29,0.33
2021-08-19 11:54:27.036,-0.675,0.145
2021-08-19 11:54:27.040,-1.06,-0.305
2021-08-19 11:54:27.044,-1.4,-0.795
2021-08-19 11:54:27.048,-1.595,-1.48
2021-08-19 11:54:27.132,-0.67,-1.54
2021-08-19 11:54:27.136,-0.505,-1.155
2021-08-19 11:54:27.140,-0.35,-0.81
2021-08-19 11:54:27.144,-0.21,-0.535
2021-08-19 11:54:27.148,-0.095,-0.295
2021-08-19 11:54:27.152,-0.025,-0.105
2021-08-19 11:54:27.156,0.03,0.095
2021-08-19 11:54:27.160,0.1,0.305
2021-08-19 11:54:27.164,0.115,0.455
2021-08-19 11:54:27.168,0.16,0.58
2021-08-19 11:54:27.172,0.205,0.705
2021-08-19 11:54:27.176,0.215,0.835
2021-08-19 11:54:27.180,0.25,0.835
2021-08-19 11:54:27.184,0.27,0.865
2021-08-19 11:54:27.188,0.285,0.9
2021-08-19 11:54:27.192,0.255,0.93
2021-08-19 11:54:27.196,0.27,0.965
2021-08-19 11:54:27.200,0.26,0.985
2021-08-19 11:54:27.204,0.265,0.985
2021-08-19 11:54:27.208,0.28,1.005
2021-08-19 11:54:27.212,0.31,1.035
2021-08-19 11:54:27.216,0.315,1.02
2021-08-19 11:54:27.220,0.295,1.04
2021-08-19 11:54:27.224,0.27,1.05
2021-08-19 11:54:27.228,0.255,1.075
2021-08-19 11:54:27.232,0.27,1.095
2021-08-19 11:54:27.236,0.28,1.105
2021-08-19 11:54:27.240,0.285,1.125
2021-08-19 11:54:27.244,0.33,1.16
2021-08-19 11:54:27.248,0.315,1.18
2021-08-19 11:54:27.252,0.315,1.23
2021-08-19 11:54:27.256,0.335,1.28
2021-08-19 11:54:27.260,0.32,1.29
2021-08-19 11:54:27.264,0.335,1.345
2021-08-19 11:54:27.268,0.34,1.375
2021-08-19 11:54:27.272,0.335,1.41
2021-08-19 11:54:27.276,0.325,1.445
2021-08-19 11:54:27.280,0.345,1.475
2021-08-19 11:54:27.284,0.37,1.49
2021-08-19 11:54:27.288,0.355,1.51
2021-08-19 11:54:27.292,0.365,1.52
2021-08-19 11:54:27.296,0.38,1.545
2021-08-19 11:54:27.300,0.375,1.575
2021-08-19 11:54:27.304,0.38,1.6
2021-08-19 11:54:27.308,0.375,1.62
2021-08-19 11:54:27.312,0.37,1.65
2021-08-19 11:54:27.316,0.345,1.625
2021-08-19 11:54:27.320,0.305,1.64
2021-08-19 11:54:27.324,0.3,1.6
2021-08-19 11:54:27.328,0.28,1.62
2021-08-19 11:54:27.332,0.255,1.58
2021-08-19 11:54:27.336,0.265,1.55
2021-08-19 11:54:27.340,0.24,1.52
2021-08-19 11:54:27.344,0.215,1.485
2021-08-19 11:54:27.348,0.17,1.445
2021-08-19 11:54:27.352,0.145,1.375
2021-08-19 11:54:27.356,0.125,1.325
2021-08-19 11:54:27.360,0.075,1.235
2021-08-19 11:54:27.364,0.055,1.15
2021-08-19 11:54:27.368,0.05,1.045
2021-08-19 11:54:27.372,0.035,0.995
2021-08-19 11:54:27.376,0.015,0.92
2021-08-19 11:54:27.380,0.03,0.83
2021-08-19 11:54:27.384,0.02,0.77
2021-08-19 11:54:27.388,0.0,0.73
2021-08-19 11:54:27.392,-0.045,0.675
2021-08-19 11:54:27.396,-0.06,0.635
2021-08-19 11:54:27.400,-0.095,0.57
2021-08-19 11:54:27.404,-0.09,0.53
2021-08-19 11:54:27.408,-0.125,0.485
2021-08-19 11:54:27.412,-0.11,0.45
2021-08-19 11:54:27.416,-0.135,0.395
2021-08-19 11:54:27.420,-0.13,0.395
2021-08-19 11:54:27.424,-0.165,0.36
2021-08-19 11:54:27.428,-0.165,0.335
2021-08-19 11:54:27.432,-0.17,0.3
2021-08-19 11:54:27.436,-0.175,0.32
2021-08-19 11:54:27.440,-0.2,0.31
2021-08-19 11:54:27.444,-0.245,0.29
2021-08-19 11:54:27.448,-0.21,0.265
2021-08-19 11:54:27.452,-0.22,0.265
2021-08-19 11:54:27.456,-0.24,0.255
2021-08-19 11:54:27.460,-0.24,0.26
2021-08-19 11:54:27.464,-0.245,0.28
2021-08-19 11:54:27.468,-0.235,0.3
2021-08-19 11:54:27.472,-0.245,0.325
2021-08-19 11:54:27.476,-0.255,0.345
2021-08-19 11:54:27.480,-0.26,0.335
2021-08-19 11:54:27.484,-0.265,0.36
2021-08-19 11:54:27.488,-0.275,0.35
2021-08-19 11:54:27.492,-0.24,0.35
2021-08-19 11:54:27.496,-0.21,0.36
2021-08-19 11:54:27.500,-0.215,0.38
2021-08-19 11:54:27.504,-0.175,0.36
2021-08-19 11:54:27.508,-0.165,0.38
2021-08-19 11:54:27.512,-0.13,0.4
2021-08-19 11:54:27.516,-0.045,0.405
2021-08-19 11:54:27.520,0.135,0.39
2021-08-19 11:54:27.524,0.355,0.375
2021-08-19 11:54:27.528,0.495,0.355
2021-08-19 11:54:27.532,0.455,0.35
2021-08-19 11:54:27.536,0.245,0.335
2021-08-19 11:54:27.540,-0.035,0.3
2021-08-19 11:54:27.544,-0.44,0.13
2021-08-19 11:54:27.548,-0.895,-0.24
2021-08-19 11:54:27.552,-1.25,-0.73
2021-08-19 11:54:27.556,-1.42,-1.42
2021-08-19 11:54:27.628,-0.425,-1.835
2021-08-19 11:54:27.632,-0.345,-1.415
2021-08-19 11:54:27.636,-0.23,-1.025
2021-08-19 11:54:27.640,-0.145,-0.705
2021-08-19 11:54:27.644,-0.08,-0.42
2021-08-19 11:54:27.648,-0.075,-0.205
2021-08-19 11:54:27.652,-0.07,0.0
2021-08-19 11:54:27.656,-0.055,0.16
2021-08-19 11:54:27.660,-0.065,0.335
2021-08-19 11:54:27.664,-0.09,0.48
2021-08-19 11:54:27.668,-0.08,0.6
2021-08-19 11:54:27.672,-0.075,0.635
2021-08-19 11:54:27.676,-0.06,0.69
2021-08-19 11:54:27.680,-0.055,0.72
2021-08-19 11:54:27.684,-0.06,0.725
2021-08-19 11:54:27.688,-0.05,0.76
2021-08-19 11:54:27.692,-0.035,0.78
2021-08-19 11:54:27.696,-0.01,0.8
2021-08-19 11:54:27.700,0.015,0.8
2021-08-19 11:54:27.704,0.03,0.84
2021-08-19 11:54:27.708,0.07,0.875
2021-08-19 11:54:27.712,0.08,0.885
2021-08-19 11:54:27.716,0.09,0.925
2021-08-19 11:54:27.720,0.11,0.96
2021-08-19 11:54:27.724,0.13,0.975
2021-08-19 11:54:27.728,0.13,0.985
2021-08-19 11:54:27.732,0.125,1.02
2021-08-19 11:54:27.736,0.13,1.03
2021-08-19 11:54:27.740,0.145,1.06
2021-08-19 11:54:27.744,0.18,1.06
2021-08-19 11:54:27.748,0.205,1.09
2021-08-19 11:54:27.752,0.215,1.085
2021-08-19 11:54:27.756,0.24,1.125
2021-08-19 11:54:27.760,0.26,1.13
2021-08-19 11:54:27.764,0.245,1.19
2021-08-19 11:54:27.768,0.265,1.24
2021-08-19 11:54:27.772,0.285,1.275
2021-08-19 11:54:27.776,0.29,1.29
2021-08-19 11:54:27.780,0.3,1.29
2021-08-19 11:54:27.784,0.315,1.325
2021-08-19 11:54:27.788,0.315,1.35
2021-08-19 11:54:27.792,0.295,1.36
2021-08-19 11:54:27.796,0.3,1.41
2021-08-19 11:54:27.800,0.3,1.425
2021-08-19 11:54:27.804,0.29,1.44
2021-08-19 11:54:27.808,0.26,1.46
2021-08-19 11:54:27.812,0.235,1.465
2021-08-19 11:54:27.816,0.225,1.48
2021-08-19 11:54:27.820,0.195,1.485
2021-08-19 11:54:27.824,0.19,1.435
2021-08-19 11:54:27.828,0.17,1.375
2021-08-19 11:54:27.832,0.115,1.315
2021-08-19 11:54:27.836,0.095,1.275
2021-08-19 11:54:27.840,0.07,1.23
2021-08-19 11:54:27.844,0.045,1.17
2021-08-19 11:54:27.848,0.015,1.105
2021-08-19 11:54:27.852,-0.005,1.025
2021-08-19 11:54:27.856,-0.06,0.99
2021-08-19 11:54:27.860,-0.085,0.905
2021-08-19 11:54:27.864,-0.13,0.83
2021-08-19 11:54:27.868,-0.135,0.775
2021-08-19 11:54:27.872,-0.175,0.7
2021-08-19 11:54:27.876,-0.165,0.66
2021-08-19 11:54:27.880,-0.19,0.62
2021-08-19 11:54:27.884,-0.185,0.595
2021-08-19 11:54:27.888,-0.195,0.575
2021-08-19 11:54:27.892,-0.19,0.545
2021-08-19 11:54:27.896,-0.19,0.525
2021-08-19 11:54:27.900,-0.22,0.505
2021-08-19 11:54:27.904,-0.21,0.455
2021-08-19 11:54:27.908,-0.21,0.44
2021-08-19 11:54:27.912,-0.205,0.415
2021-08-19 11:54:27.916,-0.18,0.41
2021-08-19 11:54:27.920,-0.18,0.415
2021-08-19 11:54:27.924,-0.16,0.405
2021-08-19 11:54:27.928,-0.15,0.42
2021-08-19 11:54:27.932,-0.15,0.43
2021-08-19 11:54:27.936,-0.185,0.465
2021-08-19 11:54:27.940,-0.195,0.44
2021-08-19 11:54:27.944,-0.2,0.435
2021-08-19 11:54:27.948,-0.19,0.45
2021-08-19 11:54:27.952,-0.16,0.44
2021-08-19 11:54:27.956,-0.165,0.425
2021-08-19 11:54:27.960,-0.14,0.425
2021-08-19 11:54:27.964,-0.11,0.435
2021-08-19 11:54:27.968,-0.11,0.455
2021-08-19 11:54:27.972,-0.115,0.46
2021-08-19 11:54:27.976,-0.1,0.5
2021-08-19 11:54:27.980,-0.1,0.485
2021-08-19 11:54:27.984,-0.115,0.49
2021-08-19 11:54:27.988,-0.1,0.51
2021-08-19 11:54:27.992,-0.11,0.505
2021-08-19 11:54:27.996,-0.1,0.51
2021-08-19 11:54:28.000,-0.11,0.49
2021-08-19 11:54:28.004,-0.09,0.505
2021-08-19 11:54:28.008,-0.11,0.515
2021-08-19 11:54:28.012,-0.105,0.51
2021-08-19 11:54:28.016,-0.11,0.505
2021-08-19 11:54:28.020,-0.11,0.505
2021-08-19 11:54:28.024,-0.095,0.495
2021-08-19 11:54:28.028,-0.09,0.46
2021-08-19 11:54:28.032,-0.065,0.435
2021-08-19 11:54:28.036,-0.08,0.41
2021-08-19 11:54:28.040,-0.06,0.395
2021-08-19 11:54:28.044,-0.065,0.375
2021-08-19 11:54:28.048,-0.04,0.335
2021-08-19 11:54:28.052,-0.065,0.31
2021-08-19 11:54:28.056,-0.06,0.31
2021-08-19 11:54:28.060,-0.08,0.28
2021-08-19 11:54:28.064,-0.08,0.255
2021-08-19 11:54:28.068,-0.11,0.28
