Time,ECG1,ECG2
2021-08-19 15:52:35.448,0.265,1.135
2021-08-19 15:52:35.452,0.3,1.15
2021-08-19 15:52:35.456,0.315,1.19
2021-08-19 15:52:35.460,0.3,1.21
2021-08-19 15:52:35.464,0.33,1.22
2021-08-19 15:52:35.468,0.31,1.23
2021-08-19 15:52:35.472,0.32,1.22
2021-08-19 15:52:35.476,0.3,1.225
2021-08-19 15:52:35.480,0.3,1.265
2021-08-19 15:52:35.484,0.275,1.245
2021-08-19 15:52:35.488,0.23,1.21
2021-08-19 15:52:35.492,0.205,1.22
2021-08-19 15:52:35.496,0.17,1.19
2021-08-19 15:52:35.500,0.135,1.14
2021-08-19 15:52:35.504,0.115,1.11
2021-08-19 15:52:35.508,0.06,1.04
2021-08-19 15:52:35.512,0.05,0.99
2021-08-19 15:52:35.516,-0.015,0.965
2021-08-19 15:52:35.520,-0.045,0.91
2021-08-19 15:52:35.524,-0.04,0.87
2021-08-19 15:52:35.528,-0.055,0.74
2021-08-19 15:52:35.532,-0.155,0.69
2021-08-19 15:52:35.536,-0.265,0.62
2021-08-19 15:52:35.540,-0.325,0.55
2021-08-19 15:52:35.544,-0.335,0.495
2021-08-19 15:52:35.548,-0.36,0.425
2021-08-19 15:52:35.552,-0.395,0.375
2021-08-19 15:52:35.556,-0.415,0.335
2021-08-19 15:52:35.560,-0.395,0.305
2021-08-19 15:52:35.564,-0.37,0.26
2021-08-19 15:52:35.568,-0.3,0.24
2021-08-19 15:52:35.572,-0.305,0.175
2021-08-19 15:52:35.576,-0.36,0.145
2021-08-19 15:52:35.580,-0.4,0.105
2021-08-19 15:52:35.584,-0.385,0.1
2021-08-19 15:52:35.588,-0.34,0.095
2021-08-19 15:52:35.592,-0.275,0.1
2021-08-19 15:52:35.596,-0.235,0.12
2021-08-19 15:52:35.600,-0.175,0.13
2021-08-19 15:52:35.604,-0.17,0.14
2021-08-19 15:52:35.608,-0.175,0.15
2021-08-19 15:52:35.612,-0.095,0.15
2021-08-19 15:52:35.616,-0.02,0.145
2021-08-19 15:52:35.620,0.01,0.175
2021-08-19 15:52:35.624,0.08,0.2
2021-08-19 15:52:35.628,0.285,0.22
2021-08-19 15:52:35.632,0.57,0.28
2021-08-19 15:52:35.636,0.695,0.295
2021-08-19 15:52:35.640,0.39,0.295
2021-08-19 15:52:35.644,-0.15,0.285
2021-08-19 15:52:35.648,-0.69,0.235
2021-08-19 15:52:35.652,-1.405,0.1
2021-08-19 15:52:35.736,-0.45,-1.96
2021-08-19 15:52:35.740,-0.24,-1.465
2021-08-19 15:52:35.744,-0.125,-1.085
2021-08-19 15:52:35.748,-0.075,-0.8
2021-08-19 15:52:35.752,-0.08,-0.545
2021-08-19 15:52:35.756,-0.1,-0.315
2021-08-19 15:52:35.760,-0.205,-0.115
2021-08-19 15:52:35.764,-0.3,0.045
2021-08-19 15:52:35.768,-0.255,0.165
2021-08-19 15:52:35.772,-0.125,0.265
2021-08-19 15:52:35.776,-0.16,0.345
2021-08-19 15:52:35.780,-0.29,0.405
2021-08-19 15:52:35.784,-0.31,0.47
2021-08-19 15:52:35.788,-0.255,0.51
2021-08-19 15:52:35.792,-0.175,0.53
2021-08-19 15:52:35.796,-0.07,0.55
2021-08-19 15:52:35.800,0.035,0.58
2021-08-19 15:52:35.804,0.095,0.555
2021-08-19 15:52:35.808,0.085,0.58
2021-08-19 15:52:35.812,0.1,0.62
2021-08-19 15:52:35.816,0.12,0.635
2021-08-19 15:52:35.820,0.1,0.655
2021-08-19 15:52:35.824,0.055,0.7
2021-08-19 15:52:35.828,0.045,0.72
2021-08-19 15:52:35.832,-0.005,0.73
2021-08-19 15:52:35.836,-0.025,0.73
2021-08-19 15:52:35.840,-0.04,0.725
2021-08-19 15:52:35.844,-0.04,0.71
2021-08-19 15:52:35.848,0.005,0.69
2021-08-19 15:52:35.852,0.005,0.66
2021-08-19 15:52:35.856,0.005,0.645
2021-08-19 15:52:35.860,0.085,0.65
2021-08-19 15:52:35.864,0.17,0.68
2021-08-19 15:52:35.868,0.19,0.675
2021-08-19 15:52:35.872,0.06,0.67
2021-08-19 15:52:35.876,-0.175,0.66
2021-08-19 15:52:35.880,-0.34,0.645
2021-08-19 15:52:35.884,-0.345,0.66
2021-08-19 15:52:35.888,-0.285,0.675
2021-08-19 15:52:35.892,-0.23,0.69
2021-08-19 15:52:35.896,-0.245,0.705
2021-08-19 15:52:35.900,-0.245,0.735
2021-08-19 15:52:35.904,-0.245,0.74
2021-08-19 15:52:35.908,-0.215,0.75
2021-08-19 15:52:35.912,-0.155,0.785
2021-08-19 15:52:35.916,-0.08,0.805
2021-08-19 15:52:35.920,-0.11,0.8
2021-08-19 15:52:35.924,-0.235,0.82
2021-08-19 15:52:35.928,-0.255,0.795
2021-08-19 15:52:35.932,-0.14,0.825
2021-08-19 15:52:35.936,-0.015,0.82
2021-08-19 15:52:35.940,-0.145,0.875
2021-08-19 15:52:35.944,-0.37,0.905
2021-08-19 15:52:35.948,-0.5,0.89
2021-08-19 15:52:35.952,-0.45,0.855
2021-08-19 15:52:35.956,-0.395,0.885
2021-08-19 15:52:35.960,-0.32,0.87
2021-08-19 15:52:35.964,-0.27,0.845
2021-08-19 15:52:35.968,-0.28,0.8
2021-08-19 15:52:35.972,-0.28,0.775
2021-08-19 15:52:35.976,-0.29,0.72
2021-08-19 15:52:35.980,-0.285,0.68
2021-08-19 15:52:35.984,-0.29,0.64
2021-08-19 15:52:35.988,-0.305,0.55
2021-08-19 15:52:35.992,-0.275,0.555
2021-08-19 15:52:35.996,-0.22,0.525
2021-08-19 15:52:36.000,-0.22,0.5
2021-08-19 15:52:36.004,-0.2,0.44
2021-08-19 15:52:36.008,-0.18,0.4
2021-08-19 15:52:36.012,-0.215,0.35
2021-08-19 15:52:36.016,-0.25,0.37
2021-08-19 15:52:36.020,-0.22,0.37
2021-08-19 15:52:36.024,-0.245,0.35
2021-08-19 15:52:36.028,-0.305,0.305
2021-08-19 15:52:36.032,-0.315,0.24
2021-08-19 15:52:36.036,-0.355,0.165
2021-08-19 15:52:36.040,-0.315,0.13
2021-08-19 15:52:36.044,-0.3,0.11
2021-08-19 15:52:36.048,-0.305,0.095
2021-08-19 15:52:36.052,-0.36,0.055
2021-08-19 15:52:36.056,-0.435,0.01
2021-08-19 15:52:36.060,-0.49,-0.01
2021-08-19 15:52:36.064,-0.485,-0.035
2021-08-19 15:52:36.068,-0.43,-0.02
2021-08-19 15:52:36.072,-0.34,-0.01
2021-08-19 15:52:36.076,-0.25,-0.035
2021-08-19 15:52:36.080,-0.2,0.0
2021-08-19 15:52:36.084,-0.32,-0.005
2021-08-19 15:52:36.088,-0.555,-0.04
2021-08-19 15:52:36.092,-0.635,-0.055
2021-08-19 15:52:36.096,-0.675,-0.1
2021-08-19 15:52:36.100,-0.685,-0.1
2021-08-19 15:52:36.104,-0.645,-0.115
2021-08-19 15:52:36.108,-0.56,-0.085
2021-08-19 15:52:36.112,-0.465,-0.065
2021-08-19 15:52:36.116,-0.37,-0.08
2021-08-19 15:52:36.120,-0.39,-0.09
2021-08-19 15:52:36.124,-0.515,-0.11
2021-08-19 15:52:36.128,-0.535,-0.1
2021-08-19 15:52:36.132,-0.41,-0.11
2021-08-19 15:52:36.136,-0.235,-0.125
2021-08-19 15:52:36.140,-0.17,-0.1
2021-08-19 15:52:36.144,-0.32,-0.1
2021-08-19 15:52:36.148,-0.575,-0.13
2021-08-19 15:52:36.152,-0.65,-0.15
2021-08-19 15:52:36.156,-0.585,-0.145
2021-08-19 15:52:36.160,-0.505,-0.12
2021-08-19 15:52:36.164,-0.445,-0.065
2021-08-19 15:52:36.168,-0.395,-0.02
2021-08-19 15:52:36.172,-0.32,0.0
2021-08-19 15:52:36.176,-0.25,-0.005
2021-08-19 15:52:36.180,-0.245,0.02
2021-08-19 15:52:36.184,-0.265,0.025
2021-08-19 15:52:36.188,-0.25,0.0
2021-08-19 15:52:36.192,-0.185,0.015
2021-08-19 15:52:36.196,-0.17,0.025
2021-08-19 15:52:36.200,-0.23,0.045
2021-08-19 15:52:36.204,-0.315,0.045
2021-08-19 15:52:36.208,-0.37,0.05
2021-08-19 15:52:36.212,-0.415,0.075
2021-08-19 15:52:36.216,-0.425,0.075
2021-08-19 15:52:36.220,-0.36,0.035
2021-08-19 15:52:36.224,-0.295,0.005
2021-08-19 15:52:36.228,-0.175,-0.05
2021-08-19 15:52:36.232,-0.06,-0.08
2021-08-19 15:52:36.236,-0.045,-0.085
2021-08-19 15:52:36.240,-0.11,-0.055
2021-08-19 15:52:36.244,-0.255,0.01
2021-08-19 15:52:36.248,-0.55,0.1
2021-08-19 15:52:36.252,-1.025,0.01
2021-08-19 15:52:36.256,-1.575,-0.39
2021-08-19 15:52:36.348,-0.66,-1.635
2021-08-19 15:52:36.352,-0.39,-1.23
2021-08-19 15:52:36.356,-0.225,-0.87
2021-08-19 15:52:36.360,-0.105,-0.59
2021-08-19 15:52:36.364,0.005,-0.38
2021-08-19 15:52:36.368,0.0,-0.18
2021-08-19 15:52:36.372,-0.08,0.055
2021-08-19 15:52:36.376,-0.06,0.225
2021-08-19 15:52:36.380,0.07,0.335
2021-08-19 15:52:36.384,0.18,0.475
2021-08-19 15:52:36.388,0.195,0.61
2021-08-19 15:52:36.392,0.13,0.65
2021-08-19 15:52:36.396,0.04,0.65
2021-08-19 15:52:36.400,-0.015,0.665
2021-08-19 15:52:36.404,0.025,0.665
2021-08-19 15:52:36.408,0.06,0.68
2021-08-19 15:52:36.412,0.1,0.67
2021-08-19 15:52:36.416,0.11,0.67
2021-08-19 15:52:36.420,0.075,0.67
2021-08-19 15:52:36.424,0.03,0.7
2021-08-19 15:52:36.428,0.05,0.69
2021-08-19 15:52:36.432,0.115,0.69
2021-08-19 15:52:36.436,0.235,0.69
2021-08-19 15:52:36.440,0.245,0.74
2021-08-19 15:52:36.444,0.175,0.76
2021-08-19 15:52:36.448,0.11,0.775
2021-08-19 15:52:36.452,0.105,0.75
2021-08-19 15:52:36.456,0.125,0.75
2021-08-19 15:52:36.460,0.175,0.77
2021-08-19 15:52:36.464,0.245,0.805
2021-08-19 15:52:36.468,0.285,0.82
2021-08-19 15:52:36.472,0.235,0.86
2021-08-19 15:52:36.476,0.18,0.87
2021-08-19 15:52:36.480,0.235,0.875
2021-08-19 15:52:36.484,0.225,0.915
2021-08-19 15:52:36.488,0.175,0.925
2021-08-19 15:52:36.492,0.16,0.955
2021-08-19 15:52:36.496,0.185,1.005
2021-08-19 15:52:36.500,0.19,1.06
2021-08-19 15:52:36.504,0.165,1.09
2021-08-19 15:52:36.508,0.18,1.1
2021-08-19 15:52:36.512,0.285,1.115
2021-08-19 15:52:36.516,0.41,1.185
2021-08-19 15:52:36.520,0.46,1.215
2021-08-19 15:52:36.524,0.395,1.24
2021-08-19 15:52:36.528,0.32,1.27
2021-08-19 15:52:36.532,0.34,1.285
2021-08-19 15:52:36.536,0.465,1.305
2021-08-19 15:52:36.540,0.585,1.335
2021-08-19 15:52:36.544,0.6,1.375
2021-08-19 15:52:36.548,0.445,1.425
2021-08-19 15:52:36.552,0.235,1.415
2021-08-19 15:52:36.556,0.155,1.415
2021-08-19 15:52:36.560,0.215,1.41
2021-08-19 15:52:36.564,0.37,1.415
2021-08-19 15:52:36.568,0.53,1.385
2021-08-19 15:52:36.572,0.525,1.39
2021-08-19 15:52:36.576,0.295,1.305
2021-08-19 15:52:36.580,0.11,1.21
2021-08-19 15:52:36.584,0.03,1.14
2021-08-19 15:52:36.588,0.04,1.17
2021-08-19 15:52:36.592,0.19,1.19
2021-08-19 15:52:36.596,0.21,1.08
2021-08-19 15:52:36.600,0.065,0.935
2021-08-19 15:52:36.604,-0.025,0.84
2021-08-19 15:52:36.608,-0.045,0.76
2021-08-19 15:52:36.612,-0.14,0.645
2021-08-19 15:52:36.616,-0.195,0.57
2021-08-19 15:52:36.620,-0.18,0.5
2021-08-19 15:52:36.624,-0.27,0.435
2021-08-19 15:52:36.628,-0.38,0.39
2021-08-19 15:52:36.632,-0.42,0.32
2021-08-19 15:52:36.636,-0.335,0.25
2021-08-19 15:52:36.640,-0.265,0.23
2021-08-19 15:52:36.644,-0.16,0.235
2021-08-19 15:52:36.648,-0.025,0.205
2021-08-19 15:52:36.652,0.03,0.135
2021-08-19 15:52:36.656,-0.055,0.14
2021-08-19 15:52:36.660,-0.245,0.09
2021-08-19 15:52:36.664,-0.425,0.04
2021-08-19 15:52:36.668,-0.45,0.045
2021-08-19 15:52:36.672,-0.455,0.06
2021-08-19 15:52:36.676,-0.445,0.045
2021-08-19 15:52:36.680,-0.345,0.05
2021-08-19 15:52:36.684,-0.105,0.085
2021-08-19 15:52:36.688,0.185,0.075
2021-08-19 15:52:36.692,0.29,0.09
2021-08-19 15:52:36.696,0.01,0.105
2021-08-19 15:52:36.700,-0.335,0.135
2021-08-19 15:52:36.704,-0.67,0.175
2021-08-19 15:52:36.708,-1.21,0.165
2021-08-19 15:52:36.712,-1.895,-0.015
2021-08-19 15:52:36.804,-0.395,-1.68
2021-08-19 15:52:36.808,-0.24,-1.345
2021-08-19 15:52:36.812,-0.06,-0.955
2021-08-19 15:52:36.816,0.09,-0.66
2021-08-19 15:52:36.820,0.175,-0.415
2021-08-19 15:52:36.824,0.14,-0.185
2021-08-19 15:52:36.828,0.01,0.025
2021-08-19 15:52:36.832,-0.175,0.195
2021-08-19 15:52:36.836,-0.21,0.355
2021-08-19 15:52:36.840,-0.095,0.46
2021-08-19 15:52:36.844,0.035,0.525
2021-08-19 15:52:36.848,0.065,0.55
2021-08-19 15:52:36.852,-0.015,0.53
2021-08-19 15:52:36.856,-0.135,0.54
2021-08-19 15:52:36.860,-0.08,0.57
2021-08-19 15:52:36.864,0.025,0.575
2021-08-19 15:52:36.868,0.145,0.625
2021-08-19 15:52:36.872,0.26,0.685
2021-08-19 15:52:36.876,0.31,0.71
2021-08-19 15:52:36.880,0.245,0.67
2021-08-19 15:52:36.884,0.055,0.655
2021-08-19 15:52:36.888,-0.12,0.655
2021-08-19 15:52:36.892,-0.145,0.715
2021-08-19 15:52:36.896,-0.16,0.73
2021-08-19 15:52:36.900,-0.145,0.705
2021-08-19 15:52:36.904,-0.07,0.715
2021-08-19 15:52:36.908,0.055,0.725
2021-08-19 15:52:36.912,0.08,0.745
2021-08-19 15:52:36.916,0.0,0.795
2021-08-19 15:52:36.920,-0.03,0.795
2021-08-19 15:52:36.924,0.08,0.81
2021-08-19 15:52:36.928,0.255,0.8
2021-08-19 15:52:36.932,0.395,0.83
2021-08-19 15:52:36.936,0.22,0.86
2021-08-19 15:52:36.940,-0.11,0.855
2021-08-19 15:52:36.944,-0.125,0.875
2021-08-19 15:52:36.948,0.155,0.89
2021-08-19 15:52:36.952,0.29,0.9
2021-08-19 15:52:36.956,0.165,0.945
2021-08-19 15:52:36.960,-0.05,0.975
2021-08-19 15:52:36.964,-0.185,0.96
2021-08-19 15:52:36.968,-0.11,0.975
2021-08-19 15:52:36.972,0.025,0.99
2021-08-19 15:52:36.976,0.045,0.995
2021-08-19 15:52:36.980,-0.025,1.04
2021-08-19 15:52:36.984,0.0,1.1
2021-08-19 15:52:36.988,0.1,1.1
2021-08-19 15:52:36.992,0.235,1.115
2021-08-19 15:52:36.996,0.37,1.175
2021-08-19 15:52:37.000,0.475,1.22
2021-08-19 15:52:37.004,0.61,1.185
2021-08-19 15:52:37.008,0.605,1.185
2021-08-19 15:52:37.012,0.36,1.195
2021-08-19 15:52:37.016,0.02,1.165
2021-08-19 15:52:37.020,-0.115,1.125
2021-08-19 15:52:37.024,-0.185,1.055
2021-08-19 15:52:37.028,-0.25,0.975
2021-08-19 15:52:37.032,-0.21,0.95
2021-08-19 15:52:37.036,-0.035,0.91
2021-08-19 15:52:37.040,0.075,0.89
2021-08-19 15:52:37.044,0.05,0.825
2021-08-19 15:52:37.048,-0.13,0.755
2021-08-19 15:52:37.052,-0.345,0.685
2021-08-19 15:52:37.056,-0.315,0.62
2021-08-19 15:52:37.060,-0.1,0.52
2021-08-19 15:52:37.064,0.04,0.44
2021-08-19 15:52:37.068,0.01,0.42
2021-08-19 15:52:37.072,-0.23,0.4
2021-08-19 15:52:37.076,-0.585,0.345
2021-08-19 15:52:37.080,-0.635,0.275
2021-08-19 15:52:37.084,-0.44,0.235
2021-08-19 15:52:37.088,-0.365,0.195
2021-08-19 15:52:37.092,-0.33,0.19
2021-08-19 15:52:37.096,-0.22,0.185
2021-08-19 15:52:37.100,-0.16,0.175
2021-08-19 15:52:37.104,-0.255,0.17
2021-08-19 15:52:37.108,-0.315,0.175
2021-08-19 15:52:37.112,-0.225,0.13
2021-08-19 15:52:37.116,-0.275,0.12
2021-08-19 15:52:37.120,-0.4,0.095
2021-08-19 15:52:37.124,-0.36,0.09
2021-08-19 15:52:37.128,-0.265,0.1
2021-08-19 15:52:37.132,-0.31,0.055
2021-08-19 15:52:37.136,-0.51,0.03
2021-08-19 15:52:37.140,-0.575,0.06
2021-08-19 15:52:37.144,-0.46,0.115
2021-08-19 15:52:37.148,-0.285,0.09
2021-08-19 15:52:37.152,-0.115,0.06
2021-08-19 15:52:37.156,-0.105,0.07
2021-08-19 15:52:37.160,-0.245,0.075
2021-08-19 15:52:37.164,-0.17,-0.01
2021-08-19 15:52:37.168,0.0,0.0
2021-08-19 15:52:37.172,-0.115,0.02
2021-08-19 15:52:37.176,-0.455,0.01
2021-08-19 15:52:37.180,-0.65,-0.02
2021-08-19 15:52:37.184,-0.655,-0.02
2021-08-19 15:52:37.188,-0.66,-0.025
2021-08-19 15:52:37.192,-0.685,-0.03
2021-08-19 15:52:37.196,-0.7,-0.02
2021-08-19 15:52:37.200,-0.61,0.035
2021-08-19 15:52:37.204,-0.48,0.08
2021-08-19 15:52:37.208,-0.44,0.065
2021-08-19 15:52:37.212,-0.52,0.025
2021-08-19 15:52:37.216,-0.605,0.0
2021-08-19 15:52:37.220,-0.49,-0.065
2021-08-19 15:52:37.224,-0.305,-0.07
2021-08-19 15:52:37.228,-0.235,-0.075
2021-08-19 15:52:37.232,-0.34,0.0
2021-08-19 15:52:37.236,-0.375,0.02
2021-08-19 15:52:37.240,-0.145,0.0
2021-08-19 15:52:37.244,-0.015,-0.005
2021-08-19 15:52:37.248,-0.345,0.045
2021-08-19 15:52:37.252,-0.66,0.095
2021-08-19 15:52:37.256,-0.61,0.085
2021-08-19 15:52:37.260,-0.415,0.085
2021-08-19 15:52:37.264,-0.175,0.095
2021-08-19 15:52:37.268,-0.015,0.135
2021-08-19 15:52:37.272,-0.22,0.145
2021-08-19 15:52:37.276,-0.63,0.135
2021-08-19 15:52:37.280,-0.81,0.05
2021-08-19 15:52:37.284,-0.77,-0.005
2021-08-19 15:52:37.288,-0.725,-0.025
2021-08-19 15:52:37.292,-0.585,-0.05
2021-08-19 15:52:37.296,-0.39,-0.055
2021-08-19 15:52:37.300,-0.25,-0.09
2021-08-19 15:52:37.304,-0.215,-0.09
2021-08-19 15:52:37.308,-0.305,-0.085
2021-08-19 15:52:37.312,-0.455,-0.12
2021-08-19 15:52:37.316,-0.45,-0.14
2021-08-19 15:52:37.320,-0.255,-0.15
2021-08-19 15:52:37.324,-0.19,-0.14
2021-08-19 15:52:37.328,-0.27,-0.07
2021-08-19 15:52:37.332,-0.285,-0.055
2021-08-19 15:52:37.336,-0.3,-0.1
2021-08-19 15:52:37.340,-0.455,-0.165
2021-08-19 15:52:37.344,-0.59,-0.175
2021-08-19 15:52:37.348,-0.63,-0.165
2021-08-19 15:52:37.352,-0.575,-0.15
2021-08-19 15:52:37.356,-0.44,-0.12
2021-08-19 15:52:37.360,-0.34,-0.12
2021-08-19 15:52:37.364,-0.365,-0.14
2021-08-19 15:52:37.368,-0.395,-0.165
2021-08-19 15:52:37.372,-0.295,-0.13
2021-08-19 15:52:37.376,-0.21,-0.12
2021-08-19 15:52:37.380,-0.215,-0.12
2021-08-19 15:52:37.384,-0.25,-0.125
2021-08-19 15:52:37.388,-0.3,-0.095
2021-08-19 15:52:37.392,-0.5,0.0
2021-08-19 15:52:37.396,-0.865,0.045
2021-08-19 15:52:37.400,-1.17,-0.07
2021-08-19 15:52:37.404,-1.49,-0.465
2021-08-19 15:52:37.408,-1.825,-1.0
2021-08-19 15:52:37.496,-0.59,-1.76
2021-08-19 15:52:37.500,-0.565,-1.365
2021-08-19 15:52:37.504,-0.4,-1.025
2021-08-19 15:52:37.508,-0.295,-0.795
2021-08-19 15:52:37.512,-0.175,-0.605
2021-08-19 15:52:37.516,0.04,-0.405
2021-08-19 15:52:37.520,0.18,-0.21
2021-08-19 15:52:37.524,0.115,-0.025
2021-08-19 15:52:37.528,-0.01,0.095
2021-08-19 15:52:37.532,-0.22,0.235
2021-08-19 15:52:37.536,-0.42,0.36
2021-08-19 15:52:37.540,-0.485,0.52
2021-08-19 15:52:37.544,-0.425,0.61
2021-08-19 15:52:37.548,-0.305,0.64
2021-08-19 15:52:37.552,-0.2,0.675
2021-08-19 15:52:37.556,-0.16,0.685
2021-08-19 15:52:37.560,-0.145,0.69
2021-08-19 15:52:37.564,-0.115,0.7
2021-08-19 15:52:37.568,-0.13,0.715
2021-08-19 15:52:37.572,-0.07,0.72
2021-08-19 15:52:37.576,-0.07,0.715
2021-08-19 15:52:37.580,-0.055,0.72
2021-08-19 15:52:37.584,-0.055,0.77
2021-08-19 15:52:37.588,-0.03,0.78
2021-08-19 15:52:37.592,-0.015,0.795
2021-08-19 15:52:37.596,0.025,0.82
2021-08-19 15:52:37.600,0.075,0.82
2021-08-19 15:52:37.604,0.06,0.845
2021-08-19 15:52:37.608,0.025,0.835
2021-08-19 15:52:37.612,0.04,0.85
2021-08-19 15:52:37.616,0.03,0.875
2021-08-19 15:52:37.620,0.035,0.87
2021-08-19 15:52:37.624,0.195,0.905
2021-08-19 15:52:37.628,0.315,0.925
2021-08-19 15:52:37.632,0.16,0.935
2021-08-19 15:52:37.636,-0.035,0.945
2021-08-19 15:52:37.640,-0.06,0.97
2021-08-19 15:52:37.644,0.0,1.025
2021-08-19 15:52:37.648,-0.005,1.095
2021-08-19 15:52:37.652,0.055,1.1
2021-08-19 15:52:37.656,0.11,1.11
2021-08-19 15:52:37.660,0.105,1.125
2021-08-19 15:52:37.664,0.07,1.17
2021-08-19 15:52:37.668,0.085,1.175
2021-08-19 15:52:37.672,0.16,1.17
2021-08-19 15:52:37.676,0.185,1.21
2021-08-19 15:52:37.680,0.235,1.3
2021-08-19 15:52:37.684,0.29,1.355
2021-08-19 15:52:37.688,0.305,1.34
2021-08-19 15:52:37.692,0.365,1.355
2021-08-19 15:52:37.696,0.425,1.375
2021-08-19 15:52:37.700,0.375,1.41
2021-08-19 15:52:37.704,0.295,1.45
2021-08-19 15:52:37.708,0.235,1.45
2021-08-19 15:52:37.712,0.29,1.44
2021-08-19 15:52:37.716,0.36,1.44
2021-08-19 15:52:37.720,0.305,1.48
2021-08-19 15:52:37.724,0.215,1.46
2021-08-19 15:52:37.728,0.105,1.425
2021-08-19 15:52:37.732,0.055,1.375
2021-08-19 15:52:37.736,0.07,1.375
2021-08-19 15:52:37.740,0.065,1.335
2021-08-19 15:52:37.744,0.04,1.3
2021-08-19 15:52:37.748,-0.01,1.235
2021-08-19 15:52:37.752,-0.09,1.185
2021-08-19 15:52:37.756,-0.12,1.095
2021-08-19 15:52:37.760,-0.11,1.06
2021-08-19 15:52:37.764,-0.085,1.02
2021-08-19 15:52:37.768,-0.07,0.955
2021-08-19 15:52:37.772,-0.02,0.88
2021-08-19 15:52:37.776,-0.03,0.83
2021-08-19 15:52:37.780,-0.165,0.765
2021-08-19 15:52:37.784,-0.27,0.72
2021-08-19 15:52:37.788,-0.245,0.64
2021-08-19 15:52:37.792,-0.16,0.545
2021-08-19 15:52:37.796,-0.175,0.49
2021-08-19 15:52:37.800,-0.265,0.455
2021-08-19 15:52:37.804,-0.215,0.43
2021-08-19 15:52:37.808,-0.195,0.375
2021-08-19 15:52:37.812,-0.3,0.295
2021-08-19 15:52:37.816,-0.41,0.315
2021-08-19 15:52:37.820,-0.455,0.345
2021-08-19 15:52:37.824,-0.455,0.305
2021-08-19 15:52:37.828,-0.405,0.27
2021-08-19 15:52:37.832,-0.375,0.245
2021-08-19 15:52:37.836,-0.245,0.205
2021-08-19 15:52:37.840,-0.14,0.205
2021-08-19 15:52:37.844,-0.12,0.215
2021-08-19 15:52:37.848,-0.255,0.175
2021-08-19 15:52:37.852,-0.41,0.165
2021-08-19 15:52:37.856,-0.4,0.19
2021-08-19 15:52:37.860,-0.3,0.19
2021-08-19 15:52:37.864,-0.22,0.185
2021-08-19 15:52:37.868,-0.18,0.225
2021-08-19 15:52:37.872,-0.19,0.215
2021-08-19 15:52:37.876,-0.215,0.215
2021-08-19 15:52:37.880,-0.18,0.18
2021-08-19 15:52:37.884,-0.11,0.2
2021-08-19 15:52:37.888,-0.12,0.215
2021-08-19 15:52:37.892,-0.245,0.21
2021-08-19 15:52:37.896,-0.365,0.205
2021-08-19 15:52:37.900,-0.405,0.185
2021-08-19 15:52:37.904,-0.425,0.195
2021-08-19 15:52:37.908,-0.395,0.2
2021-08-19 15:52:37.912,-0.305,0.21
2021-08-19 15:52:37.916,-0.345,0.235
2021-08-19 15:52:37.920,-0.485,0.25
2021-08-19 15:52:37.924,-0.525,0.28
2021-08-19 15:52:37.928,-0.48,0.275
2021-08-19 15:52:37.932,-0.4,0.32
2021-08-19 15:52:37.936,-0.355,0.265
2021-08-19 15:52:37.940,-0.33,0.25
2021-08-19 15:52:37.944,-0.235,0.19
2021-08-19 15:52:37.948,-0.225,0.155
2021-08-19 15:52:37.952,-0.305,0.16
2021-08-19 15:52:37.956,-0.39,0.19
2021-08-19 15:52:37.960,-0.38,0.21
2021-08-19 15:52:37.964,-0.34,0.2
2021-08-19 15:52:37.968,-0.305,0.19
2021-08-19 15:52:37.972,-0.29,0.2
2021-08-19 15:52:37.976,-0.285,0.16
2021-08-19 15:52:37.980,-0.245,0.125
2021-08-19 15:52:37.984,-0.31,0.135
2021-08-19 15:52:37.988,-0.41,0.155
2021-08-19 15:52:37.992,-0.44,0.175
2021-08-19 15:52:37.996,-0.35,0.19
2021-08-19 15:52:38.000,-0.325,0.185
2021-08-19 15:52:38.004,-0.315,0.205
2021-08-19 15:52:38.008,-0.365,0.205
2021-08-19 15:52:38.012,-0.395,0.175
2021-08-19 15:52:38.016,-0.38,0.165
2021-08-19 15:52:38.020,-0.325,0.145
2021-08-19 15:52:38.024,-0.275,0.145
2021-08-19 15:52:38.028,-0.26,0.145
2021-08-19 15:52:38.032,-0.325,0.14
2021-08-19 15:52:38.036,-0.355,0.17
2021-08-19 15:52:38.040,-0.33,0.16
2021-08-19 15:52:38.044,-0.305,0.155
2021-08-19 15:52:38.048,-0.3,0.165
2021-08-19 15:52:38.052,-0.28,0.17
2021-08-19 15:52:38.056,-0.29,0.16
2021-08-19 15:52:38.060,-0.26,0.145
2021-08-19 15:52:38.064,-0.275,0.155
2021-08-19 15:52:38.068,-0.245,0.135
2021-08-19 15:52:38.072,-0.23,0.14
2021-08-19 15:52:38.076,-0.235,0.13
2021-08-19 15:52:38.080,-0.24,0.165
2021-08-19 15:52:38.084,-0.235,0.115
2021-08-19 15:52:38.088,-0.245,0.07
2021-08-19 15:52:38.092,-0.26,0.09
2021-08-19 15:52:38.096,-0.24,0.16
2021-08-19 15:52:38.100,-0.25,0.185
2021-08-19 15:52:38.104,-0.305,0.155
2021-08-19 15:52:38.108,-0.32,0.115
2021-08-19 15:52:38.112,-0.235,0.095
2021-08-19 15:52:38.116,-0.19,0.09
2021-08-19 15:52:38.120,-0.18,0.09
2021-08-19 15:52:38.124,-0.17,0.11
2021-08-19 15:52:38.128,-0.17,0.095
2021-08-19 15:52:38.132,-0.245,0.09
2021-08-19 15:52:38.136,-0.335,0.11
2021-08-19 15:52:38.140,-0.315,0.09
2021-08-19 15:52:38.144,-0.27,0.075
2021-08-19 15:52:38.148,-0.27,0.095
2021-08-19 15:52:38.152,-0.175,0.15
2021-08-19 15:52:38.156,-0.04,0.115
2021-08-19 15:52:38.160,0.02,0.075
2021-08-19 15:52:38.164,-0.135,0.07
2021-08-19 15:52:38.168,-0.375,0.045
2021-08-19 15:52:38.172,-0.485,0.05
2021-08-19 15:52:38.176,-0.48,0.065
2021-08-19 15:52:38.180,-0.44,0.04
2021-08-19 15:52:38.184,-0.36,0.11
2021-08-19 15:52:38.188,-0.305,0.11
2021-08-19 15:52:38.192,-0.295,0.105
2021-08-19 15:52:38.196,-0.295,0.085
2021-08-19 15:52:38.200,-0.255,0.085
2021-08-19 15:52:38.204,-0.225,0.07
2021-08-19 15:52:38.208,-0.235,0.06
2021-08-19 15:52:38.212,-0.265,0.03
2021-08-19 15:52:38.216,-0.255,0.02
2021-08-19 15:52:38.220,-0.24,0.105
2021-08-19 15:52:38.224,-0.215,0.115
2021-08-19 15:52:38.228,-0.225,0.09
2021-08-19 15:52:38.232,-0.235,0.065
2021-08-19 15:52:38.236,-0.24,0.105
2021-08-19 15:52:38.240,-0.235,0.105
2021-08-19 15:52:38.244,-0.245,0.095
2021-08-19 15:52:38.248,-0.25,0.045
2021-08-19 15:52:38.252,-0.215,0.035
2021-08-19 15:52:38.256,-0.175,0.045
2021-08-19 15:52:38.260,-0.155,0.05
2021-08-19 15:52:38.264,-0.155,0.055
2021-08-19 15:52:38.268,-0.13,0.075
2021-08-19 15:52:38.272,-0.125,0.1
2021-08-19 15:52:38.276,-0.17,0.105
2021-08-19 15:52:38.280,-0.205,0.055
2021-08-19 15:52:38.284,-0.26,0.025
2021-08-19 15:52:38.288,-0.3,0.055
2021-08-19 15:52:38.292,-0.3,0.065
2021-08-19 15:52:38.296,-0.255,0.135
2021-08-19 15:52:38.300,-0.225,0.105
2021-08-19 15:52:38.304,-0.23,0.06
2021-08-19 15:52:38.308,-0.22,0.04
2021-08-19 15:52:38.312,-0.155,0.05
2021-08-19 15:52:38.316,-0.185,0.095
2021-08-19 15:52:38.320,-0.25,0.12
2021-08-19 15:52:38.324,-0.285,0.085
2021-08-19 15:52:38.328,-0.28,0.065
2021-08-19 15:52:38.332,-0.29,0.11
2021-08-19 15:52:38.336,-0.28,0.075
2021-08-19 15:52:38.340,-0.24,0.065
2021-08-19 15:52:38.344,-0.24,-0.01
2021-08-19 15:52:38.348,-0.24,-0.05
2021-08-19 15:52:38.352,-0.215,-0.005
2021-08-19 15:52:38.356,-0.215,0.1
2021-08-19 15:52:38.360,-0.215,0.15
2021-08-19 15:52:38.364,-0.19,0.125
2021-08-19 15:52:38.368,-0.14,0.09
2021-08-19 15:52:38.372,-0.18,0.065
2021-08-19 15:52:38.376,-0.22,0.065
2021-08-19 15:52:38.380,-0.24,0.095
2021-08-19 15:52:38.384,-0.225,0.075
2021-08-19 15:52:38.388,-0.225,0.065
2021-08-19 15:52:38.392,-0.245,0.115
2021-08-19 15:52:38.396,-0.235,0.1
2021-08-19 15:52:38.400,-0.205,0.105
2021-08-19 15:52:38.404,-0.18,0.1
2021-08-19 15:52:38.408,-0.195,0.095
2021-08-19 15:52:38.412,-0.215,0.06
2021-08-19 15:52:38.416,-0.195,0.015
2021-08-19 15:52:38.420,-0.2,0.0
2021-08-19 15:52:38.424,-0.195,0.04
2021-08-19 15:52:38.428,-0.2,0.09
2021-08-19 15:52:38.432,-0.21,0.115
2021-08-19 15:52:38.436,-0.23,0.115
2021-08-19 15:52:38.440,-0.28,0.095
2021-08-19 15:52:38.444,-0.27,0.035
2021-08-19 15:52:38.448,-0.24,0.025
2021-08-19 15:52:38.452,-0.215,0.035
2021-08-19 15:52:38.456,-0.245,0.055
2021-08-19 15:52:38.460,-0.255,0.085
2021-08-19 15:52:38.464,-0.25,0.055
2021-08-19 15:52:38.468,-0.21,0.05
2021-08-19 15:52:38.472,-0.225,0.035
2021-08-19 15:52:38.476,-0.17,0.055
2021-08-19 15:52:38.480,-0.175,0.055
2021-08-19 15:52:38.484,-0.185,0.055
2021-08-19 15:52:38.488,-0.18,0.01
2021-08-19 15:52:38.492,-0.195,0.03
2021-08-19 15:52:38.496,-0.215,0.075
2021-08-19 15:52:38.500,-0.215,0.095
2021-08-19 15:52:38.504,-0.2,0.095
2021-08-19 15:52:38.508,-0.18,0.05
2021-08-19 15:52:38.512,-0.16,0.04
2021-08-19 15:52:38.516,-0.175,0.03
2021-08-19 15:52:38.520,-0.2,0.055
2021-08-19 15:52:38.524,-0.225,0.065
2021-08-19 15:52:38.528,-0.2,0.085
2021-08-19 15:52:38.532,-0.175,0.065
2021-08-19 15:52:38.536,-0.185,0.02
2021-08-19 15:52:38.540,-0.16,0.045
2021-08-19 15:52:38.544,-0.14,0.1
2021-08-19 15:52:38.548,-0.155,0.07
2021-08-19 15:52:38.552,-0.185,0.08
2021-08-19 15:52:38.556,-0.21,0.075
2021-08-19 15:52:38.560,-0.195,0.055
2021-08-19 15:52:38.564,-0.22,0.05
2021-08-19 15:52:38.568,-0.215,0.045
2021-08-19 15:52:38.572,-0.215,0.06
2021-08-19 15:52:38.576,-0.2,0.035
2021-08-19 15:52:38.580,-0.19,0.04
2021-08-19 15:52:38.584,-0.175,0.075
2021-08-19 15:52:38.588,-0.155,0.07
2021-08-19 15:52:38.592,-0.06,0.055
2021-08-19 15:52:38.596,0.075,0.06
2021-08-19 15:52:38.600,0.215,0.065
2021-08-19 15:52:38.604,0.215,0.075
2021-08-19 15:52:38.608,0.08,0.115
2021-08-19 15:52:38.612,-0.18,0.2
2021-08-19 15:52:38.616,-0.625,0.22
2021-08-19 15:52:38.620,-1.16,-0.035
2021-08-19 15:52:38.624,-1.585,-0.52
2021-08-19 15:52:38.628,-1.825,-1.16
2021-08-19 15:52:38.632,-1.935,-1.96
2021-08-19 15:52:38.716,-0.395,-1.575
2021-08-19 15:52:38.720,-0.21,-1.14
2021-08-19 15:52:38.724,0.0,-0.8
2021-08-19 15:52:38.728,0.15,-0.545
2021-08-19 15:52:38.732,0.23,-0.27
2021-08-19 15:52:38.736,0.25,-0.03
2021-08-19 15:52:38.740,0.27,0.19
2021-08-19 15:52:38.744,0.285,0.35
2021-08-19 15:52:38.748,0.3,0.475
2021-08-19 15:52:38.752,0.305,0.61
2021-08-19 15:52:38.756,0.33,0.705
2021-08-19 15:52:38.760,0.3,0.755
2021-08-19 15:52:38.764,0.285,0.785
2021-08-19 15:52:38.768,0.305,0.82
2021-08-19 15:52:38.772,0.385,0.81
2021-08-19 15:52:38.776,0.42,0.79
2021-08-19 15:52:38.780,0.43,0.755
2021-08-19 15:52:38.784,0.395,0.785
2021-08-19 15:52:38.788,0.385,0.835
2021-08-19 15:52:38.792,0.37,0.905
2021-08-19 15:52:38.796,0.345,0.995
2021-08-19 15:52:38.800,0.295,1.015
2021-08-19 15:52:38.804,0.265,0.945
2021-08-19 15:52:38.808,0.265,0.945
2021-08-19 15:52:38.812,0.3,0.93
2021-08-19 15:52:38.816,0.275,0.905
2021-08-19 15:52:38.820,0.22,0.88
2021-08-19 15:52:38.824,0.17,0.885
2021-08-19 15:52:38.828,0.195,0.895
2021-08-19 15:52:38.832,0.185,0.95
2021-08-19 15:52:38.836,0.19,1.0
2021-08-19 15:52:38.840,0.23,0.985
2021-08-19 15:52:38.844,0.28,0.995
2021-08-19 15:52:38.848,0.305,0.945
2021-08-19 15:52:38.852,0.305,0.935
2021-08-19 15:52:38.856,0.295,0.94
2021-08-19 15:52:38.860,0.295,1.05
2021-08-19 15:52:38.864,0.295,1.14
2021-08-19 15:52:38.868,0.32,1.15
2021-08-19 15:52:38.872,0.35,1.155
2021-08-19 15:52:38.876,0.315,1.16
2021-08-19 15:52:38.880,0.335,1.165
2021-08-19 15:52:38.884,0.35,1.17
2021-08-19 15:52:38.888,0.365,1.225
2021-08-19 15:52:38.892,0.39,1.265
2021-08-19 15:52:38.896,0.4,1.335
2021-08-19 15:52:38.900,0.41,1.32
2021-08-19 15:52:38.904,0.435,1.34
2021-08-19 15:52:38.908,0.465,1.37
2021-08-19 15:52:38.912,0.47,1.4
2021-08-19 15:52:38.916,0.45,1.39
2021-08-19 15:52:38.920,0.475,1.43
2021-08-19 15:52:38.924,0.48,1.45
2021-08-19 15:52:38.928,0.485,1.485
2021-08-19 15:52:38.932,0.49,1.5
2021-08-19 15:52:38.936,0.51,1.53
2021-08-19 15:52:38.940,0.54,1.51
2021-08-19 15:52:38.944,0.555,1.485
2021-08-19 15:52:38.948,0.51,1.48
2021-08-19 15:52:38.952,0.39,1.51
2021-08-19 15:52:38.956,0.305,1.515
2021-08-19 15:52:38.960,0.27,1.485
2021-08-19 15:52:38.964,0.235,1.435
2021-08-19 15:52:38.968,0.25,1.38
2021-08-19 15:52:38.972,0.225,1.315
2021-08-19 15:52:38.976,0.22,1.25
2021-08-19 15:52:38.980,0.185,1.205
2021-08-19 15:52:38.984,0.15,1.17
2021-08-19 15:52:38.988,0.13,1.09
2021-08-19 15:52:38.992,0.115,1.035
2021-08-19 15:52:38.996,0.08,0.955
2021-08-19 15:52:39.000,0.045,0.88
2021-08-19 15:52:39.004,0.03,0.815
2021-08-19 15:52:39.008,-0.005,0.765
2021-08-19 15:52:39.012,-0.005,0.695
2021-08-19 15:52:39.016,-0.025,0.645
2021-08-19 15:52:39.020,-0.035,0.57
2021-08-19 15:52:39.024,-0.045,0.525
2021-08-19 15:52:39.028,-0.065,0.495
2021-08-19 15:52:39.032,-0.06,0.465
2021-08-19 15:52:39.036,-0.06,0.435
2021-08-19 15:52:39.040,-0.045,0.38
2021-08-19 15:52:39.044,-0.05,0.355
2021-08-19 15:52:39.048,-0.065,0.28
2021-08-19 15:52:39.052,-0.07,0.28
2021-08-19 15:52:39.056,-0.03,0.29
2021-08-19 15:52:39.060,0.035,0.25
2021-08-19 15:52:39.064,-0.02,0.26
2021-08-19 15:52:39.068,-0.07,0.3
2021-08-19 15:52:39.072,-0.045,0.27
2021-08-19 15:52:39.076,0.02,0.205
2021-08-19 15:52:39.080,-0.01,0.195
2021-08-19 15:52:39.084,-0.12,0.205
2021-08-19 15:52:39.088,-0.275,0.195
2021-08-19 15:52:39.092,-0.355,0.205
2021-08-19 15:52:39.096,-0.295,0.215
2021-08-19 15:52:39.100,-0.275,0.215
2021-08-19 15:52:39.104,-0.225,0.22
2021-08-19 15:52:39.108,-0.17,0.205
2021-08-19 15:52:39.112,-0.135,0.17
2021-08-19 15:52:39.116,-0.115,0.17
2021-08-19 15:52:39.120,-0.105,0.2
2021-08-19 15:52:39.124,-0.125,0.18
2021-08-19 15:52:39.128,-0.09,0.18
2021-08-19 15:52:39.132,-0.08,0.225
2021-08-19 15:52:39.136,-0.11,0.235
2021-08-19 15:52:39.140,-0.125,0.19
2021-08-19 15:52:39.144,-0.145,0.175
2021-08-19 15:52:39.148,-0.12,0.18
2021-08-19 15:52:39.152,-0.1,0.185
2021-08-19 15:52:39.156,-0.12,0.175
2021-08-19 15:52:39.160,-0.115,0.175
2021-08-19 15:52:39.164,-0.115,0.14
2021-08-19 15:52:39.168,-0.105,0.145
2021-08-19 15:52:39.172,-0.085,0.145
2021-08-19 15:52:39.176,-0.105,0.175
2021-08-19 15:52:39.180,-0.105,0.185
2021-08-19 15:52:39.184,-0.105,0.165
2021-08-19 15:52:39.188,-0.08,0.145
2021-08-19 15:52:39.192,-0.07,0.16
2021-08-19 15:52:39.196,-0.12,0.155
2021-08-19 15:52:39.200,-0.12,0.085
2021-08-19 15:52:39.204,-0.125,0.005
2021-08-19 15:52:39.208,-0.11,0.04
2021-08-19 15:52:39.212,-0.08,0.145
2021-08-19 15:52:39.216,-0.09,0.165
2021-08-19 15:52:39.220,-0.18,0.095
2021-08-19 15:52:39.224,-0.275,0.085
2021-08-19 15:52:39.228,-0.285,0.065
2021-08-19 15:52:39.232,-0.24,0.07
2021-08-19 15:52:39.236,-0.21,0.02
2021-08-19 15:52:39.240,-0.19,-0.015
2021-08-19 15:52:39.244,-0.17,0.01
2021-08-19 15:52:39.248,-0.165,0.075
2021-08-19 15:52:39.252,-0.155,0.09
2021-08-19 15:52:39.256,-0.16,0.075
2021-08-19 15:52:39.260,-0.19,0.05
2021-08-19 15:52:39.264,-0.205,0.03
2021-08-19 15:52:39.268,-0.19,0.01
2021-08-19 15:52:39.272,-0.175,0.03
2021-08-19 15:52:39.276,-0.18,0.08
2021-08-19 15:52:39.280,-0.18,0.055
2021-08-19 15:52:39.284,-0.17,0.04
2021-08-19 15:52:39.288,-0.14,0.04
2021-08-19 15:52:39.292,-0.15,0.0
2021-08-19 15:52:39.296,-0.19,0.0
2021-08-19 15:52:39.300,-0.205,0.04
2021-08-19 15:52:39.304,-0.21,0.04
2021-08-19 15:52:39.308,-0.185,0.045
2021-08-19 15:52:39.312,-0.185,0.02
2021-08-19 15:52:39.316,-0.15,-0.07
2021-08-19 15:52:39.320,-0.145,-0.07
2021-08-19 15:52:39.324,-0.16,-0.005
2021-08-19 15:52:39.328,-0.155,0.07
2021-08-19 15:52:39.332,-0.15,0.11
2021-08-19 15:52:39.336,-0.155,0.075
2021-08-19 15:52:39.340,-0.165,0.015
2021-08-19 15:52:39.344,-0.155,-0.005
2021-08-19 15:52:39.348,-0.145,-0.02
2021-08-19 15:52:39.352,-0.18,0.005
2021-08-19 15:52:39.356,-0.18,0.015
2021-08-19 15:52:39.360,-0.175,0.05
2021-08-19 15:52:39.364,-0.195,0.025
2021-08-19 15:52:39.368,-0.175,0.035
2021-08-19 15:52:39.372,-0.09,0.055
2021-08-19 15:52:39.376,-0.085,0.045
2021-08-19 15:52:39.380,-0.155,0.025
2021-08-19 15:52:39.384,-0.235,0.01
2021-08-19 15:52:39.388,-0.255,0.02
2021-08-19 15:52:39.392,-0.235,0.025
2021-08-19 15:52:39.396,-0.21,-0.01
2021-08-19 15:52:39.400,-0.21,0.02
2021-08-19 15:52:39.404,-0.17,0.05
2021-08-19 15:52:39.408,-0.175,0.035
2021-08-19 15:52:39.412,-0.195,0.035
2021-08-19 15:52:39.416,-0.2,0.005
2021-08-19 15:52:39.420,-0.185,-0.025
2021-08-19 15:52:39.424,-0.155,-0.025
2021-08-19 15:52:39.428,-0.13,0.0
2021-08-19 15:52:39.432,-0.13,0.035
2021-08-19 15:52:39.436,-0.18,0.04
2021-08-19 15:52:39.440,-0.145,0.06
2021-08-19 15:52:39.444,-0.09,0.14
2021-08-19 15:52:39.448,-0.08,0.11
2021-08-19 15:52:39.452,-0.11,0.06
2021-08-19 15:52:39.456,-0.17,0.01
2021-08-19 15:52:39.460,-0.23,0.0
2021-08-19 15:52:39.464,-0.235,0.01
2021-08-19 15:52:39.468,-0.21,0.01
2021-08-19 15:52:39.472,-0.195,0.025
2021-08-19 15:52:39.476,-0.165,0.02
2021-08-19 15:52:39.480,-0.175,0.03
2021-08-19 15:52:39.484,-0.185,0.025
2021-08-19 15:52:39.488,-0.19,0.04
2021-08-19 15:52:39.492,-0.2,0.03
2021-08-19 15:52:39.496,-0.19,0.035
2021-08-19 15:52:39.500,-0.2,0.03
2021-08-19 15:52:39.504,-0.17,0.03
2021-08-19 15:52:39.508,-0.18,0.005
2021-08-19 15:52:39.512,-0.17,0.0
2021-08-19 15:52:39.516,-0.16,-0.03
2021-08-19 15:52:39.520,-0.125,-0.04
2021-08-19 15:52:39.524,-0.105,-0.065
2021-08-19 15:52:39.528,-0.145,0.005
2021-08-19 15:52:39.532,-0.135,0.135
2021-08-19 15:52:39.536,-0.15,0.1
2021-08-19 15:52:39.540,-0.185,0.05
2021-08-19 15:52:39.544,-0.195,0.025
2021-08-19 15:52:39.548,-0.185,0.015
2021-08-19 15:52:39.552,-0.19,-0.02
2021-08-19 15:52:39.556,-0.165,-0.03
2021-08-19 15:52:39.560,-0.145,-0.03
2021-08-19 15:52:39.564,-0.125,-0.06
2021-08-19 15:52:39.568,-0.105,-0.045
2021-08-19 15:52:39.572,-0.115,0.01
2021-08-19 15:52:39.576,-0.16,0.04
2021-08-19 15:52:39.580,-0.125,0.015
2021-08-19 15:52:39.584,-0.105,-0.02
2021-08-19 15:52:39.588,-0.115,-0.05
2021-08-19 15:52:39.592,-0.11,-0.08
2021-08-19 15:52:39.596,-0.15,-0.11
2021-08-19 15:52:39.600,-0.2,-0.045
2021-08-19 15:52:39.604,-0.26,0.06
2021-08-19 15:52:39.608,-0.28,0.095
2021-08-19 15:52:39.612,-0.24,0.01
2021-08-19 15:52:39.616,-0.2,0.0
2021-08-19 15:52:39.620,-0.175,-0.02
2021-08-19 15:52:39.624,-0.195,-0.035
2021-08-19 15:52:39.628,-0.225,-0.02
2021-08-19 15:52:39.632,-0.215,0.005
2021-08-19 15:52:39.636,-0.155,-0.005
2021-08-19 15:52:39.640,-0.11,-0.01
2021-08-19 15:52:39.644,-0.105,0.0
2021-08-19 15:52:39.648,-0.16,0.035
2021-08-19 15:52:39.652,-0.185,0.005
2021-08-19 15:52:39.656,-0.175,0.015
2021-08-19 15:52:39.660,-0.14,0.04
2021-08-19 15:52:39.664,-0.135,0.1
2021-08-19 15:52:39.668,-0.115,0.105
2021-08-19 15:52:39.672,-0.045,0.095
2021-08-19 15:52:39.676,-0.065,0.055
2021-08-19 15:52:39.680,-0.05,0.005
2021-08-19 15:52:39.684,-0.02,0.025
2021-08-19 15:52:39.688,0.0,0.1
2021-08-19 15:52:39.692,0.07,0.14
2021-08-19 15:52:39.696,0.07,0.175
2021-08-19 15:52:39.700,0.05,0.16
2021-08-19 15:52:39.704,0.015,0.155
2021-08-19 15:52:39.708,-0.01,0.18
2021-08-19 15:52:39.712,-0.015,0.16
2021-08-19 15:52:39.716,-0.025,0.145
2021-08-19 15:52:39.720,-0.05,0.115
2021-08-19 15:52:39.724,-0.06,0.07
2021-08-19 15:52:39.728,-0.005,0.07
2021-08-19 15:52:39.732,0.055,0.05
2021-08-19 15:52:39.736,0.165,0.025
2021-08-19 15:52:39.740,0.33,0.015
2021-08-19 15:52:39.744,0.445,0.035
2021-08-19 15:52:39.748,0.41,0.075
2021-08-19 15:52:39.752,0.135,0.15
2021-08-19 15:52:39.756,-0.195,0.255
2021-08-19 15:52:39.760,-0.695,0.295
2021-08-19 15:52:39.764,-1.235,0.04
2021-08-19 15:52:39.768,-1.62,-0.42
2021-08-19 15:52:39.772,-1.89,-0.975
2021-08-19 15:52:39.776,-1.965,-1.805
2021-08-19 15:52:39.852,-0.41,-1.93
2021-08-19 15:52:39.856,-0.205,-1.53
2021-08-19 15:52:39.860,-0.06,-1.15
2021-08-19 15:52:39.864,0.015,-0.83
2021-08-19 15:52:39.868,0.03,-0.58
2021-08-19 15:52:39.872,-0.01,-0.36
2021-08-19 15:52:39.876,0.01,-0.16
2021-08-19 15:52:39.880,0.05,0.035
2021-08-19 15:52:39.884,0.045,0.225
2021-08-19 15:52:39.888,0.09,0.365
2021-08-19 15:52:39.892,0.14,0.455
2021-08-19 15:52:39.896,0.155,0.51
2021-08-19 15:52:39.900,0.13,0.59
2021-08-19 15:52:39.904,0.155,0.685
2021-08-19 15:52:39.908,0.175,0.765
2021-08-19 15:52:39.912,0.235,0.78
2021-08-19 15:52:39.916,0.255,0.76
2021-08-19 15:52:39.920,0.25,0.74
2021-08-19 15:52:39.924,0.255,0.74
2021-08-19 15:52:39.928,0.255,0.795
2021-08-19 15:52:39.932,0.235,0.83
2021-08-19 15:52:39.936,0.22,0.805
2021-08-19 15:52:39.940,0.23,0.775
2021-08-19 15:52:39.944,0.245,0.775
2021-08-19 15:52:39.948,0.26,0.805
2021-08-19 15:52:39.952,0.265,0.815
2021-08-19 15:52:39.956,0.31,0.825
2021-08-19 15:52:39.960,0.335,0.845
2021-08-19 15:52:39.964,0.35,0.87
2021-08-19 15:52:39.968,0.345,0.87
2021-08-19 15:52:39.972,0.37,0.91
2021-08-19 15:52:39.976,0.385,0.94
2021-08-19 15:52:39.980,0.38,0.975
2021-08-19 15:52:39.984,0.39,0.975
2021-08-19 15:52:39.988,0.39,0.945
2021-08-19 15:52:39.992,0.395,0.97
2021-08-19 15:52:39.996,0.42,0.99
2021-08-19 15:52:40.000,0.435,1.005
2021-08-19 15:52:40.004,0.42,1.05
2021-08-19 15:52:40.008,0.435,1.06
2021-08-19 15:52:40.012,0.455,1.1
2021-08-19 15:52:40.016,0.47,1.11
2021-08-19 15:52:40.020,0.51,1.12
2021-08-19 15:52:40.024,0.455,1.15
2021-08-19 15:52:40.028,0.45,1.18
2021-08-19 15:52:40.032,0.44,1.17
2021-08-19 15:52:40.036,0.49,1.21
2021-08-19 15:52:40.040,0.49,1.215
2021-08-19 15:52:40.044,0.485,1.22
2021-08-19 15:52:40.048,0.49,1.26
2021-08-19 15:52:40.052,0.495,1.29
2021-08-19 15:52:40.056,0.495,1.335
2021-08-19 15:52:40.060,0.49,1.315
2021-08-19 15:52:40.064,0.49,1.32
2021-08-19 15:52:40.068,0.46,1.34
2021-08-19 15:52:40.072,0.455,1.365
2021-08-19 15:52:40.076,0.45,1.34
2021-08-19 15:52:40.080,0.465,1.35
2021-08-19 15:52:40.084,0.48,1.345
2021-08-19 15:52:40.088,0.455,1.3
2021-08-19 15:52:40.092,0.45,1.27
2021-08-19 15:52:40.096,0.43,1.31
2021-08-19 15:52:40.100,0.455,1.325
2021-08-19 15:52:40.104,0.5,1.285
2021-08-19 15:52:40.108,0.55,1.235
2021-08-19 15:52:40.112,0.595,1.19
2021-08-19 15:52:40.116,0.565,1.12
2021-08-19 15:52:40.120,0.525,1.115
2021-08-19 15:52:40.124,0.44,1.18
2021-08-19 15:52:40.128,0.38,1.145
2021-08-19 15:52:40.132,0.265,1.09
2021-08-19 15:52:40.136,0.195,1.015
2021-08-19 15:52:40.140,0.125,0.92
2021-08-19 15:52:40.144,0.09,0.82
2021-08-19 15:52:40.148,0.055,0.72
2021-08-19 15:52:40.152,0.035,0.625
2021-08-19 15:52:40.156,0.01,0.5
2021-08-19 15:52:40.160,-0.015,0.445
2021-08-19 15:52:40.164,-0.04,0.38
2021-08-19 15:52:40.168,-0.08,0.33
2021-08-19 15:52:40.172,-0.11,0.28
2021-08-19 15:52:40.176,-0.115,0.28
2021-08-19 15:52:40.180,-0.145,0.25
2021-08-19 15:52:40.184,-0.13,0.22
2021-08-19 15:52:40.188,-0.125,0.17
2021-08-19 15:52:40.192,-0.145,0.17
2021-08-19 15:52:40.196,-0.13,0.135
2021-08-19 15:52:40.200,-0.145,0.11
2021-08-19 15:52:40.204,-0.145,0.085
2021-08-19 15:52:40.208,-0.16,0.145
2021-08-19 15:52:40.212,-0.14,0.175
2021-08-19 15:52:40.216,-0.13,0.15
2021-08-19 15:52:40.220,-0.135,0.13
2021-08-19 15:52:40.224,-0.16,0.14
2021-08-19 15:52:40.228,-0.18,0.16
2021-08-19 15:52:40.232,-0.17,0.165
2021-08-19 15:52:40.236,-0.17,0.1
2021-08-19 15:52:40.240,-0.155,0.105
2021-08-19 15:52:40.244,-0.17,0.11
2021-08-19 15:52:40.248,-0.165,0.145
2021-08-19 15:52:40.252,-0.16,0.16
2021-08-19 15:52:40.256,-0.165,0.13
2021-08-19 15:52:40.260,-0.16,0.11
2021-08-19 15:52:40.264,-0.135,0.09
2021-08-19 15:52:40.268,-0.155,0.16
2021-08-19 15:52:40.272,-0.15,0.18
2021-08-19 15:52:40.276,-0.175,0.135
2021-08-19 15:52:40.280,-0.19,0.12
2021-08-19 15:52:40.284,-0.185,0.125
2021-08-19 15:52:40.288,-0.2,0.11
2021-08-19 15:52:40.292,-0.135,0.115
2021-08-19 15:52:40.296,-0.01,0.115
2021-08-19 15:52:40.300,0.14,0.095
2021-08-19 15:52:40.304,0.205,0.095
2021-08-19 15:52:40.308,0.105,0.11
2021-08-19 15:52:40.312,-0.13,0.15
2021-08-19 15:52:40.316,-0.49,0.225
2021-08-19 15:52:40.320,-1.135,0.14
2021-08-19 15:52:40.324,-1.645,-0.16
2021-08-19 15:52:40.412,-0.415,-1.88
2021-08-19 15:52:40.416,-0.245,-1.48
2021-08-19 15:52:40.420,-0.1,-1.13
2021-08-19 15:52:40.424,0.005,-0.825
2021-08-19 15:52:40.428,0.07,-0.55
2021-08-19 15:52:40.432,0.09,-0.31
2021-08-19 15:52:40.436,0.11,-0.07
2021-08-19 15:52:40.440,0.105,0.11
2021-08-19 15:52:40.444,0.11,0.28
2021-08-19 15:52:40.448,0.11,0.44
2021-08-19 15:52:40.452,0.12,0.54
2021-08-19 15:52:40.456,0.14,0.61
2021-08-19 15:52:40.460,0.12,0.66
2021-08-19 15:52:40.464,0.14,0.685
2021-08-19 15:52:40.468,0.125,0.69
2021-08-19 15:52:40.472,0.13,0.715
2021-08-19 15:52:40.476,0.155,0.72
2021-08-19 15:52:40.480,0.195,0.715
2021-08-19 15:52:40.484,0.215,0.765
2021-08-19 15:52:40.488,0.235,0.77
2021-08-19 15:52:40.492,0.235,0.795
2021-08-19 15:52:40.496,0.235,0.815
2021-08-19 15:52:40.500,0.25,0.815
2021-08-19 15:52:40.504,0.24,0.82
2021-08-19 15:52:40.508,0.235,0.84
2021-08-19 15:52:40.512,0.3,0.88
2021-08-19 15:52:40.516,0.34,0.88
2021-08-19 15:52:40.520,0.35,0.885
2021-08-19 15:52:40.524,0.295,0.91
2021-08-19 15:52:40.528,0.285,0.9
2021-08-19 15:52:40.532,0.3,0.925
2021-08-19 15:52:40.536,0.33,0.965
2021-08-19 15:52:40.540,0.355,0.985
2021-08-19 15:52:40.544,0.355,1.025
2021-08-19 15:52:40.548,0.355,1.03
2021-08-19 15:52:40.552,0.375,1.06
2021-08-19 15:52:40.556,0.42,1.1
2021-08-19 15:52:40.560,0.44,1.17
2021-08-19 15:52:40.564,0.475,1.15
2021-08-19 15:52:40.568,0.5,1.135
2021-08-19 15:52:40.572,0.515,1.17
2021-08-19 15:52:40.576,0.52,1.22
2021-08-19 15:52:40.580,0.505,1.25
2021-08-19 15:52:40.584,0.47,1.3
2021-08-19 15:52:40.588,0.45,1.305
2021-08-19 15:52:40.592,0.405,1.315
2021-08-19 15:52:40.596,0.41,1.295
2021-08-19 15:52:40.600,0.38,1.31
2021-08-19 15:52:40.604,0.36,1.3
2021-08-19 15:52:40.608,0.355,1.29
2021-08-19 15:52:40.612,0.335,1.295
2021-08-19 15:52:40.616,0.32,1.315
2021-08-19 15:52:40.620,0.265,1.275
2021-08-19 15:52:40.624,0.255,1.26
2021-08-19 15:52:40.628,0.215,1.26
2021-08-19 15:52:40.632,0.165,1.255
2021-08-19 15:52:40.636,0.15,1.245
2021-08-19 15:52:40.640,0.14,1.19
2021-08-19 15:52:40.644,0.11,1.15
2021-08-19 15:52:40.648,0.055,1.12
2021-08-19 15:52:40.652,0.02,1.04
2021-08-19 15:52:40.656,-0.02,1.015
2021-08-19 15:52:40.660,-0.045,0.965
2021-08-19 15:52:40.664,-0.065,0.9
2021-08-19 15:52:40.668,-0.1,0.86
2021-08-19 15:52:40.672,-0.16,0.82
2021-08-19 15:52:40.676,-0.17,0.75
2021-08-19 15:52:40.680,-0.2,0.705
2021-08-19 15:52:40.684,-0.185,0.62
2021-08-19 15:52:40.688,-0.15,0.575
2021-08-19 15:52:40.692,-0.15,0.525
2021-08-19 15:52:40.696,-0.15,0.445
2021-08-19 15:52:40.700,-0.16,0.38
2021-08-19 15:52:40.704,-0.18,0.365
2021-08-19 15:52:40.708,-0.17,0.315
2021-08-19 15:52:40.712,-0.205,0.285
2021-08-19 15:52:40.716,-0.205,0.33
2021-08-19 15:52:40.720,-0.2,0.34
2021-08-19 15:52:40.724,-0.185,0.305
2021-08-19 15:52:40.728,-0.16,0.28
2021-08-19 15:52:40.732,-0.16,0.28
2021-08-19 15:52:40.736,-0.135,0.265
2021-08-19 15:52:40.740,-0.14,0.245
2021-08-19 15:52:40.744,-0.12,0.28
2021-08-19 15:52:40.748,-0.115,0.28
2021-08-19 15:52:40.752,-0.075,0.305
2021-08-19 15:52:40.756,-0.06,0.3
2021-08-19 15:52:40.760,-0.05,0.32
2021-08-19 15:52:40.764,-0.05,0.29
2021-08-19 15:52:40.768,-0.005,0.295
2021-08-19 15:52:40.772,-0.03,0.32
2021-08-19 15:52:40.776,-0.03,0.32
2021-08-19 15:52:40.780,-0.075,0.315
2021-08-19 15:52:40.784,-0.09,0.365
2021-08-19 15:52:40.788,-0.12,0.37
2021-08-19 15:52:40.792,-0.125,0.35
2021-08-19 15:52:40.796,-0.145,0.305
2021-08-19 15:52:40.800,-0.15,0.3
2021-08-19 15:52:40.804,-0.17,0.27
2021-08-19 15:52:40.808,-0.195,0.245
2021-08-19 15:52:40.812,-0.205,0.21
2021-08-19 15:52:40.816,-0.205,0.165
2021-08-19 15:52:40.820,-0.215,0.16
2021-08-19 15:52:40.824,-0.215,0.155
2021-08-19 15:52:40.828,-0.21,0.115
2021-08-19 15:52:40.832,-0.205,0.11
2021-08-19 15:52:40.836,-0.195,0.095
2021-08-19 15:52:40.840,-0.225,0.095
2021-08-19 15:52:40.844,-0.27,0.08
2021-08-19 15:52:40.848,-0.3,0.095
2021-08-19 15:52:40.852,-0.3,0.075
2021-08-19 15:52:40.856,-0.325,0.065
2021-08-19 15:52:40.860,-0.3,0.055
2021-08-19 15:52:40.864,-0.305,0.045
2021-08-19 15:52:40.868,-0.32,0.055
2021-08-19 15:52:40.872,-0.31,0.07
2021-08-19 15:52:40.876,-0.3,0.07
2021-08-19 15:52:40.880,-0.295,0.045
2021-08-19 15:52:40.884,-0.275,0.045
2021-08-19 15:52:40.888,-0.27,0.06
2021-08-19 15:52:40.892,-0.285,0.055
2021-08-19 15:52:40.896,-0.32,0.065
2021-08-19 15:52:40.900,-0.335,0.065
2021-08-19 15:52:40.904,-0.32,0.05
2021-08-19 15:52:40.908,-0.35,0.04
2021-08-19 15:52:40.912,-0.355,0.06
2021-08-19 15:52:40.916,-0.33,0.045
2021-08-19 15:52:40.920,-0.28,0.015
2021-08-19 15:52:40.924,-0.27,0.05
2021-08-19 15:52:40.928,-0.27,0.055
2021-08-19 15:52:40.932,-0.265,0.075
2021-08-19 15:52:40.936,-0.27,0.09
2021-08-19 15:52:40.940,-0.265,0.09
2021-08-19 15:52:40.944,-0.245,0.085
2021-08-19 15:52:40.948,-0.265,0.105
2021-08-19 15:52:40.952,-0.245,0.1
2021-08-19 15:52:40.956,-0.21,0.095
2021-08-19 15:52:40.960,-0.195,0.11
2021-08-19 15:52:40.964,-0.185,0.125
2021-08-19 15:52:40.968,-0.17,0.135
2021-08-19 15:52:40.972,-0.145,0.145
2021-08-19 15:52:40.976,-0.11,0.175
2021-08-19 15:52:40.980,-0.1,0.185
2021-08-19 15:52:40.984,-0.08,0.2
2021-08-19 15:52:40.988,-0.1,0.225
2021-08-19 15:52:40.992,-0.125,0.24
2021-08-19 15:52:40.996,-0.14,0.265
2021-08-19 15:52:41.000,-0.115,0.245
2021-08-19 15:52:41.004,-0.1,0.22
2021-08-19 15:52:41.008,-0.075,0.185
2021-08-19 15:52:41.012,0.055,0.165
2021-08-19 15:52:41.016,0.185,0.145
2021-08-19 15:52:41.020,0.225,0.135
2021-08-19 15:52:41.024,0.105,0.15
2021-08-19 15:52:41.028,-0.155,0.21
2021-08-19 15:52:41.032,-0.46,0.27
2021-08-19 15:52:41.036,-0.96,0.23
2021-08-19 15:52:41.040,-1.5,-0.08
2021-08-19 15:52:41.044,-1.94,-0.625
2021-08-19 15:52:41.136,-0.645,-1.51
2021-08-19 15:52:41.140,-0.45,-1.13
2021-08-19 15:52:41.144,-0.265,-0.85
2021-08-19 15:52:41.148,-0.15,-0.585
2021-08-19 15:52:41.152,-0.1,-0.37
2021-08-19 15:52:41.156,-0.075,-0.155
2021-08-19 15:52:41.160,-0.03,0.04
2021-08-19 15:52:41.164,-0.005,0.265
2021-08-19 15:52:41.168,0.005,0.425
2021-08-19 15:52:41.172,0.01,0.55
2021-08-19 15:52:41.176,0.025,0.63
2021-08-19 15:52:41.180,0.055,0.695
2021-08-19 15:52:41.184,0.075,0.73
2021-08-19 15:52:41.188,0.145,0.76
2021-08-19 15:52:41.192,0.195,0.79
2021-08-19 15:52:41.196,0.235,0.835
2021-08-19 15:52:41.200,0.25,0.82
2021-08-19 15:52:41.204,0.21,0.865
2021-08-19 15:52:41.208,0.185,0.885
2021-08-19 15:52:41.212,0.185,0.9
2021-08-19 15:52:41.216,0.175,0.87
2021-08-19 15:52:41.220,0.19,0.845
2021-08-19 15:52:41.224,0.19,0.83
2021-08-19 15:52:41.228,0.2,0.81
2021-08-19 15:52:41.232,0.21,0.83
2021-08-19 15:52:41.236,0.22,0.835
2021-08-19 15:52:41.240,0.235,0.815
2021-08-19 15:52:41.244,0.24,0.785
2021-08-19 15:52:41.248,0.255,0.835
2021-08-19 15:52:41.252,0.235,0.86
2021-08-19 15:52:41.256,0.24,0.9
2021-08-19 15:52:41.260,0.235,0.925
2021-08-19 15:52:41.264,0.23,0.935
2021-08-19 15:52:41.268,0.205,0.93
2021-08-19 15:52:41.272,0.215,0.935
2021-08-19 15:52:41.276,0.23,0.94
2021-08-19 15:52:41.280,0.24,0.96
2021-08-19 15:52:41.284,0.255,1.005
2021-08-19 15:52:41.288,0.255,1.035
2021-08-19 15:52:41.292,0.27,1.05
2021-08-19 15:52:41.296,0.255,1.085
2021-08-19 15:52:41.300,0.25,1.145
2021-08-19 15:52:41.304,0.275,1.155
2021-08-19 15:52:41.308,0.26,1.21
2021-08-19 15:52:41.312,0.285,1.22
2021-08-19 15:52:41.316,0.3,1.22
2021-08-19 15:52:41.320,0.295,1.27
2021-08-19 15:52:41.324,0.315,1.27
2021-08-19 15:52:41.328,0.315,1.29
2021-08-19 15:52:41.332,0.315,1.305
2021-08-19 15:52:41.336,0.33,1.345
2021-08-19 15:52:41.340,0.295,1.375
2021-08-19 15:52:41.344,0.295,1.415
2021-08-19 15:52:41.348,0.275,1.415
2021-08-19 15:52:41.352,0.255,1.395
2021-08-19 15:52:41.356,0.24,1.37
2021-08-19 15:52:41.360,0.195,1.36
2021-08-19 15:52:41.364,0.17,1.35
2021-08-19 15:52:41.368,0.11,1.305
2021-08-19 15:52:41.372,0.1,1.285
2021-08-19 15:52:41.376,0.08,1.27
2021-08-19 15:52:41.380,0.06,1.215
2021-08-19 15:52:41.384,0.06,1.15
2021-08-19 15:52:41.388,0.06,1.07
2021-08-19 15:52:41.392,0.06,1.025
2021-08-19 15:52:41.396,0.025,0.975
2021-08-19 15:52:41.400,0.0,0.925
2021-08-19 15:52:41.404,0.01,0.885
2021-08-19 15:52:41.408,0.0,0.845
2021-08-19 15:52:41.412,-0.005,0.82
2021-08-19 15:52:41.416,-0.035,0.765
2021-08-19 15:52:41.420,-0.005,0.73
2021-08-19 15:52:41.424,-0.025,0.71
2021-08-19 15:52:41.428,-0.05,0.625
2021-08-19 15:52:41.432,-0.085,0.565
2021-08-19 15:52:41.436,-0.125,0.48
2021-08-19 15:52:41.440,-0.14,0.44
2021-08-19 15:52:41.444,-0.12,0.395
2021-08-19 15:52:41.448,-0.115,0.305
2021-08-19 15:52:41.452,-0.155,0.24
2021-08-19 15:52:41.456,-0.145,0.275
2021-08-19 15:52:41.460,-0.135,0.255
2021-08-19 15:52:41.464,-0.15,0.21
2021-08-19 15:52:41.468,-0.215,0.15
2021-08-19 15:52:41.472,-0.25,0.07
2021-08-19 15:52:41.476,-0.255,0.045
2021-08-19 15:52:41.480,-0.27,0.075
2021-08-19 15:52:41.484,-0.29,0.135
2021-08-19 15:52:41.488,-0.245,0.15
2021-08-19 15:52:41.492,-0.155,0.12
2021-08-19 15:52:41.496,-0.045,0.075
2021-08-19 15:52:41.500,0.18,0.07
2021-08-19 15:52:41.504,0.26,0.07
2021-08-19 15:52:41.508,0.13,0.095
2021-08-19 15:52:41.512,-0.195,0.17
2021-08-19 15:52:41.516,-0.65,0.3
2021-08-19 15:52:41.520,-1.265,0.275
2021-08-19 15:52:41.524,-1.93,0.0
2021-08-19 15:52:41.616,-0.455,-1.69
2021-08-19 15:52:41.620,-0.305,-1.295
2021-08-19 15:52:41.624,-0.13,-0.95
2021-08-19 15:52:41.628,-0.025,-0.655
2021-08-19 15:52:41.632,0.025,-0.385
2021-08-19 15:52:41.636,0.08,-0.17
2021-08-19 15:52:41.640,0.105,0.065
2021-08-19 15:52:41.644,0.11,0.295
2021-08-19 15:52:41.648,0.13,0.43
2021-08-19 15:52:41.652,0.125,0.565
2021-08-19 15:52:41.656,0.155,0.63
2021-08-19 15:52:41.660,0.185,0.68
2021-08-19 15:52:41.664,0.195,0.695
2021-08-19 15:52:41.668,0.175,0.705
2021-08-19 15:52:41.672,0.19,0.7
2021-08-19 15:52:41.676,0.17,0.695
2021-08-19 15:52:41.680,0.115,0.745
2021-08-19 15:52:41.684,0.11,0.735
2021-08-19 15:52:41.688,0.155,0.725
2021-08-19 15:52:41.692,0.19,0.72
2021-08-19 15:52:41.696,0.165,0.72
2021-08-19 15:52:41.700,0.15,0.725
2021-08-19 15:52:41.704,0.12,0.71
2021-08-19 15:52:41.708,0.125,0.71
2021-08-19 15:52:41.712,0.115,0.71
2021-08-19 15:52:41.716,0.11,0.715
2021-08-19 15:52:41.720,0.09,0.735
2021-08-19 15:52:41.724,0.07,0.8
2021-08-19 15:52:41.728,0.09,0.77
2021-08-19 15:52:41.732,0.115,0.775
2021-08-19 15:52:41.736,0.12,0.76
2021-08-19 15:52:41.740,0.1,0.805
2021-08-19 15:52:41.744,0.11,0.805
2021-08-19 15:52:41.748,0.095,0.825
2021-08-19 15:52:41.752,0.07,0.835
2021-08-19 15:52:41.756,0.08,0.88
2021-08-19 15:52:41.760,0.065,0.895
2021-08-19 15:52:41.764,0.035,0.93
2021-08-19 15:52:41.768,0.02,0.935
2021-08-19 15:52:41.772,0.015,0.955
2021-08-19 15:52:41.776,0.06,0.945
2021-08-19 15:52:41.780,0.075,0.98
2021-08-19 15:52:41.784,0.085,0.995
2021-08-19 15:52:41.788,0.09,1.035
2021-08-19 15:52:41.792,0.07,1.055
2021-08-19 15:52:41.796,0.05,1.095
2021-08-19 15:52:41.800,0.05,1.115
2021-08-19 15:52:41.804,0.07,1.145
2021-08-19 15:52:41.808,0.09,1.15
2021-08-19 15:52:41.812,0.09,1.155
2021-08-19 15:52:41.816,0.105,1.18
2021-08-19 15:52:41.820,0.09,1.2
2021-08-19 15:52:41.824,0.125,1.21
2021-08-19 15:52:41.828,0.14,1.22
2021-08-19 15:52:41.832,0.145,1.21
2021-08-19 15:52:41.836,0.135,1.22
2021-08-19 15:52:41.840,0.105,1.225
2021-08-19 15:52:41.844,0.085,1.205
2021-08-19 15:52:41.848,0.085,1.175
2021-08-19 15:52:41.852,0.06,1.175
2021-08-19 15:52:41.856,0.04,1.11
2021-08-19 15:52:41.860,0.01,1.045
2021-08-19 15:52:41.864,0.005,0.985
2021-08-19 15:52:41.868,0.005,0.915
2021-08-19 15:52:41.872,0.0,0.835
2021-08-19 15:52:41.876,-0.015,0.765
2021-08-19 15:52:41.880,-0.02,0.685
2021-08-19 15:52:41.884,-0.045,0.64
2021-08-19 15:52:41.888,-0.04,0.575
2021-08-19 15:52:41.892,-0.065,0.545
2021-08-19 15:52:41.896,-0.055,0.475
2021-08-19 15:52:41.900,-0.065,0.435
2021-08-19 15:52:41.904,-0.1,0.36
2021-08-19 15:52:41.908,-0.11,0.315
2021-08-19 15:52:41.912,-0.06,0.305
2021-08-19 15:52:41.916,0.075,0.285
2021-08-19 15:52:41.920,0.235,0.215
2021-08-19 15:52:41.924,0.33,0.19
2021-08-19 15:52:41.928,0.29,0.2
2021-08-19 15:52:41.932,0.045,0.255
2021-08-19 15:52:41.936,-0.45,0.305
2021-08-19 15:52:41.940,-1.15,0.19
2021-08-19 15:52:41.944,-1.83,-0.125
2021-08-19 15:52:42.032,-0.375,-1.76
2021-08-19 15:52:42.036,-0.215,-1.335
2021-08-19 15:52:42.040,-0.075,-1.005
2021-08-19 15:52:42.044,0.035,-0.685
2021-08-19 15:52:42.048,0.125,-0.445
2021-08-19 15:52:42.052,0.185,-0.22
2021-08-19 15:52:42.056,0.2,-0.005
2021-08-19 15:52:42.060,0.225,0.2
2021-08-19 15:52:42.064,0.22,0.36
2021-08-19 15:52:42.068,0.23,0.49
2021-08-19 15:52:42.072,0.255,0.58
2021-08-19 15:52:42.076,0.24,0.665
2021-08-19 15:52:42.080,0.27,0.715
2021-08-19 15:52:42.084,0.275,0.74
2021-08-19 15:52:42.088,0.28,0.74
2021-08-19 15:52:42.092,0.285,0.74
2021-08-19 15:52:42.096,0.31,0.735
2021-08-19 15:52:42.100,0.31,0.735
2021-08-19 15:52:42.104,0.33,0.775
2021-08-19 15:52:42.108,0.315,0.775
2021-08-19 15:52:42.112,0.31,0.785
2021-08-19 15:52:42.116,0.34,0.805
2021-08-19 15:52:42.120,0.325,0.795
2021-08-19 15:52:42.124,0.32,0.79
2021-08-19 15:52:42.128,0.3,0.815
2021-08-19 15:52:42.132,0.3,0.82
2021-08-19 15:52:42.136,0.28,0.81
2021-08-19 15:52:42.140,0.26,0.795
2021-08-19 15:52:42.144,0.285,0.81
2021-08-19 15:52:42.148,0.295,0.82
2021-08-19 15:52:42.152,0.275,0.835
2021-08-19 15:52:42.156,0.27,0.875
2021-08-19 15:52:42.160,0.255,0.915
2021-08-19 15:52:42.164,0.23,0.94
2021-08-19 15:52:42.168,0.22,0.95
2021-08-19 15:52:42.172,0.21,0.96
2021-08-19 15:52:42.176,0.26,0.96
2021-08-19 15:52:42.180,0.255,0.975
2021-08-19 15:52:42.184,0.26,0.94
2021-08-19 15:52:42.188,0.27,0.97
2021-08-19 15:52:42.192,0.3,1.105
2021-08-19 15:52:42.196,0.305,1.165
2021-08-19 15:52:42.200,0.31,1.13
2021-08-19 15:52:42.204,0.315,1.125
2021-08-19 15:52:42.208,0.355,1.155
2021-08-19 15:52:42.212,0.39,1.17
2021-08-19 15:52:42.216,0.35,1.155
2021-08-19 15:52:42.220,0.285,1.175
2021-08-19 15:52:42.224,0.22,1.205
2021-08-19 15:52:42.228,0.215,1.25
2021-08-19 15:52:42.232,0.235,1.24
2021-08-19 15:52:42.236,0.26,1.25
2021-08-19 15:52:42.240,0.25,1.275
2021-08-19 15:52:42.244,0.205,1.295
2021-08-19 15:52:42.248,0.19,1.29
2021-08-19 15:52:42.252,0.17,1.275
2021-08-19 15:52:42.256,0.145,1.24
2021-08-19 15:52:42.260,0.12,1.195
2021-08-19 15:52:42.264,0.09,1.16
2021-08-19 15:52:42.268,0.105,1.12
2021-08-19 15:52:42.272,0.095,1.035
2021-08-19 15:52:42.276,0.065,0.945
2021-08-19 15:52:42.280,0.065,0.87
2021-08-19 15:52:42.284,0.06,0.83
2021-08-19 15:52:42.288,0.045,0.785
2021-08-19 15:52:42.292,0.03,0.73
2021-08-19 15:52:42.296,0.01,0.63
2021-08-19 15:52:42.300,-0.02,0.615
2021-08-19 15:52:42.304,-0.04,0.595
2021-08-19 15:52:42.308,-0.035,0.54
2021-08-19 15:52:42.312,-0.055,0.475
2021-08-19 15:52:42.316,-0.05,0.455
2021-08-19 15:52:42.320,-0.075,0.38
2021-08-19 15:52:42.324,-0.085,0.35
2021-08-19 15:52:42.328,-0.075,0.34
2021-08-19 15:52:42.332,-0.06,0.3
2021-08-19 15:52:42.336,0.005,0.29
2021-08-19 15:52:42.340,0.135,0.265
2021-08-19 15:52:42.344,0.31,0.235
2021-08-19 15:52:42.348,0.335,0.245
2021-08-19 15:52:42.352,0.18,0.28
2021-08-19 15:52:42.356,-0.17,0.355
2021-08-19 15:52:42.360,-0.76,0.38
2021-08-19 15:52:42.364,-1.48,0.23
2021-08-19 15:52:42.452,-0.455,-1.82
2021-08-19 15:52:42.456,-0.315,-1.375
2021-08-19 15:52:42.460,-0.185,-1.005
2021-08-19 15:52:42.464,-0.045,-0.665
2021-08-19 15:52:42.468,0.065,-0.445
2021-08-19 15:52:42.472,0.115,-0.25
2021-08-19 15:52:42.476,0.15,-0.035
2021-08-19 15:52:42.480,0.155,0.205
2021-08-19 15:52:42.484,0.17,0.34
2021-08-19 15:52:42.488,0.18,0.435
2021-08-19 15:52:42.492,0.23,0.545
2021-08-19 15:52:42.496,0.25,0.65
2021-08-19 15:52:42.500,0.275,0.705
2021-08-19 15:52:42.504,0.27,0.725
2021-08-19 15:52:42.508,0.3,0.79
2021-08-19 15:52:42.512,0.315,0.835
2021-08-19 15:52:42.516,0.335,0.82
2021-08-19 15:52:42.520,0.325,0.82
2021-08-19 15:52:42.524,0.345,0.83
2021-08-19 15:52:42.528,0.365,0.835
2021-08-19 15:52:42.532,0.37,0.885
2021-08-19 15:52:42.536,0.36,0.875
2021-08-19 15:52:42.540,0.345,0.855
2021-08-19 15:52:42.544,0.3,0.875
2021-08-19 15:52:42.548,0.25,0.885
2021-08-19 15:52:42.552,0.225,0.89
2021-08-19 15:52:42.556,0.235,0.9
2021-08-19 15:52:42.560,0.25,0.9
2021-08-19 15:52:42.564,0.26,0.91
2021-08-19 15:52:42.568,0.3,0.94
2021-08-19 15:52:42.572,0.39,0.96
2021-08-19 15:52:42.576,0.43,0.97
2021-08-19 15:52:42.580,0.385,0.99
2021-08-19 15:52:42.584,0.395,1.005
2021-08-19 15:52:42.588,0.405,1.05
2021-08-19 15:52:42.592,0.33,1.08
2021-08-19 15:52:42.596,0.355,1.105
2021-08-19 15:52:42.600,0.49,1.13
2021-08-19 15:52:42.604,0.545,1.12
2021-08-19 15:52:42.608,0.36,1.135
2021-08-19 15:52:42.612,0.225,1.16
2021-08-19 15:52:42.616,0.15,1.18
2021-08-19 15:52:42.620,0.125,1.225
2021-08-19 15:52:42.624,0.105,1.255
2021-08-19 15:52:42.628,0.16,1.245
2021-08-19 15:52:42.632,0.205,1.265
2021-08-19 15:52:42.636,0.22,1.305
2021-08-19 15:52:42.640,0.245,1.33
2021-08-19 15:52:42.644,0.29,1.325
2021-08-19 15:52:42.648,0.36,1.365
2021-08-19 15:52:42.652,0.36,1.39
2021-08-19 15:52:42.656,0.36,1.375
2021-08-19 15:52:42.660,0.345,1.395
2021-08-19 15:52:42.664,0.3,1.41
2021-08-19 15:52:42.668,0.285,1.415
2021-08-19 15:52:42.672,0.245,1.4
2021-08-19 15:52:42.676,0.22,1.345
2021-08-19 15:52:42.680,0.215,1.28
2021-08-19 15:52:42.684,0.18,1.21
2021-08-19 15:52:42.688,0.145,1.145
2021-08-19 15:52:42.692,0.135,1.09
2021-08-19 15:52:42.696,0.1,1.02
2021-08-19 15:52:42.700,0.095,0.965
2021-08-19 15:52:42.704,0.055,0.885
2021-08-19 15:52:42.708,0.075,0.82
2021-08-19 15:52:42.712,0.025,0.765
2021-08-19 15:52:42.716,0.015,0.695
2021-08-19 15:52:42.720,0.0,0.635
2021-08-19 15:52:42.724,-0.01,0.575
2021-08-19 15:52:42.728,-0.05,0.515
2021-08-19 15:52:42.732,-0.045,0.5
2021-08-19 15:52:42.736,-0.05,0.47
2021-08-19 15:52:42.740,-0.05,0.435
2021-08-19 15:52:42.744,-0.06,0.405
2021-08-19 15:52:42.748,-0.05,0.4
2021-08-19 15:52:42.752,-0.08,0.415
2021-08-19 15:52:42.756,-0.075,0.415
2021-08-19 15:52:42.760,-0.105,0.42
2021-08-19 15:52:42.764,-0.105,0.385
2021-08-19 15:52:42.768,-0.1,0.35
2021-08-19 15:52:42.772,-0.065,0.325
2021-08-19 15:52:42.776,0.02,0.3
2021-08-19 15:52:42.780,0.185,0.3
2021-08-19 15:52:42.784,0.34,0.295
2021-08-19 15:52:42.788,0.41,0.335
2021-08-19 15:52:42.792,0.28,0.38
2021-08-19 15:52:42.796,0.01,0.5
2021-08-19 15:52:42.800,-0.505,0.57
2021-08-19 15:52:42.804,-1.215,0.45
2021-08-19 15:52:42.808,-1.88,0.11
2021-08-19 15:52:42.892,-0.33,-1.78
2021-08-19 15:52:42.896,-0.205,-1.37
2021-08-19 15:52:42.900,-0.04,-0.975
2021-08-19 15:52:42.904,0.115,-0.635
2021-08-19 15:52:42.908,0.19,-0.395
2021-08-19 15:52:42.912,0.165,-0.195
2021-08-19 15:52:42.916,0.15,-0.01
2021-08-19 15:52:42.920,0.155,0.21
2021-08-19 15:52:42.924,0.2,0.375
2021-08-19 15:52:42.928,0.225,0.55
2021-08-19 15:52:42.932,0.26,0.635
2021-08-19 15:52:42.936,0.18,0.78
2021-08-19 15:52:42.940,0.13,0.86
2021-08-19 15:52:42.944,0.105,0.9
2021-08-19 15:52:42.948,0.11,0.9
2021-08-19 15:52:42.952,0.125,0.925
2021-08-19 15:52:42.956,0.17,0.925
2021-08-19 15:52:42.960,0.205,0.96
2021-08-19 15:52:42.964,0.235,0.935
2021-08-19 15:52:42.968,0.27,0.945
2021-08-19 15:52:42.972,0.31,0.975
2021-08-19 15:52:42.976,0.31,1.02
2021-08-19 15:52:42.980,0.29,1.025
2021-08-19 15:52:42.984,0.275,1.06
2021-08-19 15:52:42.988,0.285,1.06
2021-08-19 15:52:42.992,0.28,1.095
2021-08-19 15:52:42.996,0.3,1.105
2021-08-19 15:52:43.000,0.315,1.1
2021-08-19 15:52:43.004,0.315,1.135
2021-08-19 15:52:43.008,0.345,1.12
2021-08-19 15:52:43.012,0.36,1.16
2021-08-19 15:52:43.016,0.365,1.18
2021-08-19 15:52:43.020,0.385,1.23
2021-08-19 15:52:43.024,0.395,1.225
2021-08-19 15:52:43.028,0.405,1.25
2021-08-19 15:52:43.032,0.405,1.27
2021-08-19 15:52:43.036,0.39,1.305
2021-08-19 15:52:43.040,0.385,1.325
2021-08-19 15:52:43.044,0.385,1.345
2021-08-19 15:52:43.048,0.405,1.36
2021-08-19 15:52:43.052,0.445,1.36
2021-08-19 15:52:43.056,0.455,1.39
2021-08-19 15:52:43.060,0.455,1.41
2021-08-19 15:52:43.064,0.485,1.45
2021-08-19 15:52:43.068,0.525,1.48
2021-08-19 15:52:43.072,0.52,1.505
2021-08-19 15:52:43.076,0.46,1.545
2021-08-19 15:52:43.080,0.455,1.585
2021-08-19 15:52:43.084,0.46,1.595
2021-08-19 15:52:43.088,0.435,1.59
2021-08-19 15:52:43.092,0.44,1.585
2021-08-19 15:52:43.096,0.43,1.56
2021-08-19 15:52:43.100,0.41,1.545
2021-08-19 15:52:43.104,0.365,1.535
2021-08-19 15:52:43.108,0.31,1.545
2021-08-19 15:52:43.112,0.275,1.495
2021-08-19 15:52:43.116,0.245,1.45
2021-08-19 15:52:43.120,0.215,1.385
2021-08-19 15:52:43.124,0.19,1.33
2021-08-19 15:52:43.128,0.17,1.255
2021-08-19 15:52:43.132,0.125,1.17
2021-08-19 15:52:43.136,0.08,1.085
2021-08-19 15:52:43.140,0.065,1.015
2021-08-19 15:52:43.144,0.04,0.95
2021-08-19 15:52:43.148,0.02,0.895
2021-08-19 15:52:43.152,-0.01,0.8
2021-08-19 15:52:43.156,-0.045,0.74
2021-08-19 15:52:43.160,-0.085,0.675
2021-08-19 15:52:43.164,-0.115,0.6
2021-08-19 15:52:43.168,-0.125,0.535
2021-08-19 15:52:43.172,-0.165,0.46
2021-08-19 15:52:43.176,-0.175,0.405
2021-08-19 15:52:43.180,-0.155,0.38
2021-08-19 15:52:43.184,-0.15,0.36
2021-08-19 15:52:43.188,-0.16,0.345
2021-08-19 15:52:43.192,-0.165,0.36
2021-08-19 15:52:43.196,-0.17,0.395
2021-08-19 15:52:43.200,-0.2,0.345
2021-08-19 15:52:43.204,-0.2,0.305
2021-08-19 15:52:43.208,-0.235,0.295
2021-08-19 15:52:43.212,-0.21,0.32
2021-08-19 15:52:43.216,-0.19,0.31
2021-08-19 15:52:43.220,-0.17,0.305
2021-08-19 15:52:43.224,-0.18,0.275
2021-08-19 15:52:43.228,-0.17,0.255
2021-08-19 15:52:43.232,-0.195,0.245
2021-08-19 15:52:43.236,-0.215,0.265
2021-08-19 15:52:43.240,-0.215,0.23
2021-08-19 15:52:43.244,-0.205,0.295
2021-08-19 15:52:43.248,-0.225,0.26
2021-08-19 15:52:43.252,-0.25,0.255
2021-08-19 15:52:43.256,-0.26,0.295
2021-08-19 15:52:43.260,-0.255,0.275
2021-08-19 15:52:43.264,-0.16,0.285
2021-08-19 15:52:43.268,0.08,0.29
2021-08-19 15:52:43.272,0.3,0.255
2021-08-19 15:52:43.276,0.39,0.275
2021-08-19 15:52:43.280,0.2,0.32
2021-08-19 15:52:43.284,-0.095,0.435
2021-08-19 15:52:43.288,-0.505,0.54
2021-08-19 15:52:43.292,-1.025,0.435
2021-08-19 15:52:43.296,-1.49,0.07
2021-08-19 15:52:43.300,-1.88,-0.455
2021-08-19 15:52:43.384,-0.585,-1.73
2021-08-19 15:52:43.388,-0.405,-1.315
2021-08-19 15:52:43.392,-0.23,-0.935
2021-08-19 15:52:43.396,-0.095,-0.62
2021-08-19 15:52:43.400,-0.035,-0.355
2021-08-19 15:52:43.404,-0.005,-0.105
2021-08-19 15:52:43.408,0.045,0.125
2021-08-19 15:52:43.412,0.075,0.325
2021-08-19 15:52:43.416,0.105,0.47
2021-08-19 15:52:43.420,0.12,0.61
2021-08-19 15:52:43.424,0.15,0.77
2021-08-19 15:52:43.428,0.165,0.82
2021-08-19 15:52:43.432,0.175,0.86
2021-08-19 15:52:43.436,0.18,0.83
2021-08-19 15:52:43.440,0.195,0.86
2021-08-19 15:52:43.444,0.23,0.895
2021-08-19 15:52:43.448,0.285,0.925
2021-08-19 15:52:43.452,0.295,0.935
2021-08-19 15:52:43.456,0.32,0.965
2021-08-19 15:52:43.460,0.35,1.01
2021-08-19 15:52:43.464,0.355,1.02
2021-08-19 15:52:43.468,0.33,1.02
2021-08-19 15:52:43.472,0.36,1.06
2021-08-19 15:52:43.476,0.37,1.1
2021-08-19 15:52:43.480,0.37,1.105
2021-08-19 15:52:43.484,0.35,1.12
2021-08-19 15:52:43.488,0.385,1.165
2021-08-19 15:52:43.492,0.405,1.19
2021-08-19 15:52:43.496,0.42,1.19
2021-08-19 15:52:43.500,0.48,1.225
2021-08-19 15:52:43.504,0.49,1.255
2021-08-19 15:52:43.508,0.47,1.27
2021-08-19 15:52:43.512,0.48,1.28
2021-08-19 15:52:43.516,0.47,1.24
2021-08-19 15:52:43.520,0.475,1.32
2021-08-19 15:52:43.524,0.525,1.415
2021-08-19 15:52:43.528,0.54,1.42
2021-08-19 15:52:43.532,0.525,1.39
2021-08-19 15:52:43.536,0.515,1.4
2021-08-19 15:52:43.540,0.52,1.46
2021-08-19 15:52:43.544,0.52,1.485
2021-08-19 15:52:43.548,0.54,1.47
2021-08-19 15:52:43.552,0.545,1.515
2021-08-19 15:52:43.556,0.545,1.545
2021-08-19 15:52:43.560,0.515,1.585
2021-08-19 15:52:43.564,0.505,1.62
2021-08-19 15:52:43.568,0.46,1.625
2021-08-19 15:52:43.572,0.455,1.655
2021-08-19 15:52:43.576,0.435,1.59
2021-08-19 15:52:43.580,0.43,1.575
2021-08-19 15:52:43.584,0.425,1.57
2021-08-19 15:52:43.588,0.405,1.58
2021-08-19 15:52:43.592,0.365,1.515
2021-08-19 15:52:43.596,0.32,1.445
2021-08-19 15:52:43.600,0.285,1.415
2021-08-19 15:52:43.604,0.235,1.35
2021-08-19 15:52:43.608,0.195,1.25
2021-08-19 15:52:43.612,0.15,1.195
2021-08-19 15:52:43.616,0.1,1.13
2021-08-19 15:52:43.620,0.08,1.075
2021-08-19 15:52:43.624,0.06,1.0
2021-08-19 15:52:43.628,0.05,0.95
2021-08-19 15:52:43.632,0.03,0.85
2021-08-19 15:52:43.636,-0.005,0.805
2021-08-19 15:52:43.640,-0.03,0.755
2021-08-19 15:52:43.644,-0.04,0.69
2021-08-19 15:52:43.648,-0.09,0.62
2021-08-19 15:52:43.652,-0.11,0.58
2021-08-19 15:52:43.656,-0.095,0.52
2021-08-19 15:52:43.660,-0.075,0.495
2021-08-19 15:52:43.664,-0.08,0.42
2021-08-19 15:52:43.668,-0.085,0.4
2021-08-19 15:52:43.672,-0.06,0.43
2021-08-19 15:52:43.676,-0.04,0.46
2021-08-19 15:52:43.680,-0.055,0.43
2021-08-19 15:52:43.684,-0.08,0.42
2021-08-19 15:52:43.688,-0.09,0.41
2021-08-19 15:52:43.692,-0.115,0.435
2021-08-19 15:52:43.696,-0.14,0.445
2021-08-19 15:52:43.700,-0.135,0.435
2021-08-19 15:52:43.704,-0.125,0.42
2021-08-19 15:52:43.708,-0.12,0.425
2021-08-19 15:52:43.712,-0.12,0.435
2021-08-19 15:52:43.716,-0.11,0.425
2021-08-19 15:52:43.720,-0.095,0.43
2021-08-19 15:52:43.724,-0.12,0.425
2021-08-19 15:52:43.728,-0.125,0.405
2021-08-19 15:52:43.732,-0.155,0.43
2021-08-19 15:52:43.736,-0.17,0.43
2021-08-19 15:52:43.740,-0.175,0.42
2021-08-19 15:52:43.744,-0.215,0.43
2021-08-19 15:52:43.748,-0.235,0.435
2021-08-19 15:52:43.752,-0.245,0.43
2021-08-19 15:52:43.756,-0.25,0.43
2021-08-19 15:52:43.760,-0.25,0.43
2021-08-19 15:52:43.764,-0.26,0.405
2021-08-19 15:52:43.768,-0.265,0.41
2021-08-19 15:52:43.772,-0.255,0.405
2021-08-19 15:52:43.776,-0.24,0.36
2021-08-19 15:52:43.780,-0.235,0.355
2021-08-19 15:52:43.784,-0.24,0.38
2021-08-19 15:52:43.788,-0.26,0.42
2021-08-19 15:52:43.792,-0.27,0.385
2021-08-19 15:52:43.796,-0.26,0.38
2021-08-19 15:52:43.800,-0.26,0.39
2021-08-19 15:52:43.804,-0.255,0.375
2021-08-19 15:52:43.808,-0.265,0.355
2021-08-19 15:52:43.812,-0.245,0.355
2021-08-19 15:52:43.816,-0.235,0.41
2021-08-19 15:52:43.820,-0.245,0.455
2021-08-19 15:52:43.824,-0.24,0.37
2021-08-19 15:52:43.828,-0.245,0.28
2021-08-19 15:52:43.832,-0.245,0.26
2021-08-19 15:52:43.836,-0.275,0.225
2021-08-19 15:52:43.840,-0.3,0.255
2021-08-19 15:52:43.844,-0.285,0.26
2021-08-19 15:52:43.848,-0.24,0.26
2021-08-19 15:52:43.852,-0.175,0.26
2021-08-19 15:52:43.856,-0.165,0.195
2021-08-19 15:52:43.860,-0.2,0.2
2021-08-19 15:52:43.864,-0.21,0.23
2021-08-19 15:52:43.868,-0.205,0.225
2021-08-19 15:52:43.872,-0.2,0.18
2021-08-19 15:52:43.876,-0.225,0.2
2021-08-19 15:52:43.880,-0.185,0.22
2021-08-19 15:52:43.884,-0.165,0.225
2021-08-19 15:52:43.888,-0.13,0.24
2021-08-19 15:52:43.892,-0.135,0.235
2021-08-19 15:52:43.896,-0.135,0.22
2021-08-19 15:52:43.900,-0.175,0.24
2021-08-19 15:52:43.904,-0.22,0.235
2021-08-19 15:52:43.908,-0.195,0.26
2021-08-19 15:52:43.912,-0.125,0.295
2021-08-19 15:52:43.916,-0.075,0.345
2021-08-19 15:52:43.920,-0.105,0.31
2021-08-19 15:52:43.924,-0.16,0.235
2021-08-19 15:52:43.928,-0.205,0.22
2021-08-19 15:52:43.932,-0.175,0.265
2021-08-19 15:52:43.936,-0.16,0.285
2021-08-19 15:52:43.940,-0.15,0.28
2021-08-19 15:52:43.944,-0.15,0.305
2021-08-19 15:52:43.948,-0.085,0.25
2021-08-19 15:52:43.952,0.03,0.245
2021-08-19 15:52:43.956,0.155,0.25
2021-08-19 15:52:43.960,0.155,0.31
2021-08-19 15:52:43.964,-0.015,0.37
2021-08-19 15:52:43.968,-0.265,0.44
2021-08-19 15:52:43.972,-0.69,0.43
2021-08-19 15:52:43.976,-1.195,0.145
2021-08-19 15:52:43.980,-1.62,-0.38
2021-08-19 15:52:43.984,-1.935,-1.02
2021-08-19 15:52:44.068,-0.67,-1.815
2021-08-19 15:52:44.072,-0.47,-1.375
2021-08-19 15:52:44.076,-0.305,-1.0
2021-08-19 15:52:44.080,-0.16,-0.625
2021-08-19 15:52:44.084,-0.07,-0.345
2021-08-19 15:52:44.088,-0.055,-0.11
2021-08-19 15:52:44.092,-0.01,0.085
2021-08-19 15:52:44.096,0.0,0.245
2021-08-19 15:52:44.100,0.02,0.4
2021-08-19 15:52:44.104,0.04,0.535
2021-08-19 15:52:44.108,0.08,0.66
2021-08-19 15:52:44.112,0.115,0.76
2021-08-19 15:52:44.116,0.13,0.815
2021-08-19 15:52:44.120,0.15,0.87
2021-08-19 15:52:44.124,0.16,0.89
2021-08-19 15:52:44.128,0.14,0.95
2021-08-19 15:52:44.132,0.175,0.965
2021-08-19 15:52:44.136,0.26,0.965
2021-08-19 15:52:44.140,0.28,0.985
2021-08-19 15:52:44.144,0.265,0.99
2021-08-19 15:52:44.148,0.245,0.995
2021-08-19 15:52:44.152,0.24,1.055
2021-08-19 15:52:44.156,0.255,1.085
2021-08-19 15:52:44.160,0.255,1.085
2021-08-19 15:52:44.164,0.235,1.11
2021-08-19 15:52:44.168,0.26,1.13
2021-08-19 15:52:44.172,0.28,1.135
2021-08-19 15:52:44.176,0.29,1.165
2021-08-19 15:52:44.180,0.245,1.165
2021-08-19 15:52:44.184,0.24,1.175
2021-08-19 15:52:44.188,0.27,1.205
2021-08-19 15:52:44.192,0.285,1.205
2021-08-19 15:52:44.196,0.315,1.25
2021-08-19 15:52:44.200,0.37,1.27
2021-08-19 15:52:44.204,0.4,1.28
2021-08-19 15:52:44.208,0.43,1.32
2021-08-19 15:52:44.212,0.475,1.34
2021-08-19 15:52:44.216,0.475,1.38
2021-08-19 15:52:44.220,0.48,1.4
2021-08-19 15:52:44.224,0.475,1.425
2021-08-19 15:52:44.228,0.485,1.45
2021-08-19 15:52:44.232,0.535,1.475
2021-08-19 15:52:44.236,0.625,1.525
2021-08-19 15:52:44.240,0.65,1.55
2021-08-19 15:52:44.244,0.655,1.535
2021-08-19 15:52:44.248,0.63,1.53
2021-08-19 15:52:44.252,0.63,1.5
2021-08-19 15:52:44.256,0.575,1.54
2021-08-19 15:52:44.260,0.565,1.58
2021-08-19 15:52:44.264,0.58,1.56
2021-08-19 15:52:44.268,0.66,1.565
2021-08-19 15:52:44.272,0.67,1.575
2021-08-19 15:52:44.276,0.62,1.545
2021-08-19 15:52:44.280,0.575,1.51
2021-08-19 15:52:44.284,0.53,1.585
2021-08-19 15:52:44.288,0.47,1.635
2021-08-19 15:52:44.292,0.425,1.545
2021-08-19 15:52:44.296,0.385,1.475
2021-08-19 15:52:44.300,0.355,1.465
2021-08-19 15:52:44.304,0.315,1.43
2021-08-19 15:52:44.308,0.26,1.34
2021-08-19 15:52:44.312,0.195,1.285
2021-08-19 15:52:44.316,0.155,1.24
2021-08-19 15:52:44.320,0.115,1.145
2021-08-19 15:52:44.324,0.11,1.045
2021-08-19 15:52:44.328,0.055,1.01
2021-08-19 15:52:44.332,0.055,0.935
2021-08-19 15:52:44.336,0.095,0.88
2021-08-19 15:52:44.340,0.165,0.825
2021-08-19 15:52:44.344,0.205,0.77
2021-08-19 15:52:44.348,0.185,0.715
2021-08-19 15:52:44.352,-0.04,0.68
2021-08-19 15:52:44.356,-0.335,0.61
2021-08-19 15:52:44.360,-0.425,0.555
2021-08-19 15:52:44.364,-0.335,0.49
2021-08-19 15:52:44.368,-0.265,0.485
2021-08-19 15:52:44.372,-0.25,0.47
2021-08-19 15:52:44.376,-0.265,0.465
2021-08-19 15:52:44.380,-0.285,0.42
2021-08-19 15:52:44.384,-0.315,0.375
2021-08-19 15:52:44.388,-0.215,0.35
2021-08-19 15:52:44.392,-0.015,0.355
2021-08-19 15:52:44.396,0.12,0.37
2021-08-19 15:52:44.400,0.105,0.39
2021-08-19 15:52:44.404,-0.17,0.455
2021-08-19 15:52:44.408,-0.64,0.535
2021-08-19 15:52:44.412,-1.375,0.49
2021-08-19 15:52:44.504,-0.555,-1.685
2021-08-19 15:52:44.508,-0.345,-1.275
2021-08-19 15:52:44.512,-0.215,-0.915
2021-08-19 15:52:44.516,-0.125,-0.65
2021-08-19 15:52:44.520,-0.065,-0.37
2021-08-19 15:52:44.524,-0.045,-0.085
2021-08-19 15:52:44.528,-0.025,0.17
2021-08-19 15:52:44.532,-0.005,0.32
2021-08-19 15:52:44.536,0.0,0.42
2021-08-19 15:52:44.540,0.0,0.525
2021-08-19 15:52:44.544,0.03,0.605
2021-08-19 15:52:44.548,0.06,0.645
2021-08-19 15:52:44.552,0.055,0.68
2021-08-19 15:52:44.556,0.085,0.7
2021-08-19 15:52:44.560,0.1,0.705
2021-08-19 15:52:44.564,0.095,0.695
2021-08-19 15:52:44.568,0.095,0.71
2021-08-19 15:52:44.572,0.075,0.765
2021-08-19 15:52:44.576,0.07,0.775
2021-08-19 15:52:44.580,0.07,0.81
2021-08-19 15:52:44.584,0.05,0.785
2021-08-19 15:52:44.588,0.035,0.785
2021-08-19 15:52:44.592,0.05,0.81
2021-08-19 15:52:44.596,0.07,0.83
2021-08-19 15:52:44.600,0.075,0.83
2021-08-19 15:52:44.604,0.04,0.845
2021-08-19 15:52:44.608,0.055,0.83
2021-08-19 15:52:44.612,0.06,0.815
2021-08-19 15:52:44.616,0.05,0.8
2021-08-19 15:52:44.620,0.02,0.86
2021-08-19 15:52:44.624,0.01,0.895
2021-08-19 15:52:44.628,-0.015,0.9
2021-08-19 15:52:44.632,-0.055,0.885
2021-08-19 15:52:44.636,-0.035,0.925
2021-08-19 15:52:44.640,-0.01,0.93
2021-08-19 15:52:44.644,-0.005,0.905
2021-08-19 15:52:44.648,-0.025,0.915
2021-08-19 15:52:44.652,-0.02,0.98
2021-08-19 15:52:44.656,-0.02,1.015
2021-08-19 15:52:44.660,-0.015,0.995
2021-08-19 15:52:44.664,-0.01,0.97
2021-08-19 15:52:44.668,-0.025,1.0
2021-08-19 15:52:44.672,-0.04,1.015
2021-08-19 15:52:44.676,-0.045,1.05
2021-08-19 15:52:44.680,0.01,1.06
2021-08-19 15:52:44.684,0.015,1.065
2021-08-19 15:52:44.688,0.02,1.075
2021-08-19 15:52:44.692,0.035,1.03
2021-08-19 15:52:44.696,0.025,1.05
2021-08-19 15:52:44.700,-0.005,1.085
2021-08-19 15:52:44.704,-0.015,1.045
2021-08-19 15:52:44.708,-0.015,1.06
2021-08-19 15:52:44.712,-0.02,1.065
2021-08-19 15:52:44.716,-0.005,1.045
2021-08-19 15:52:44.720,-0.055,0.99
2021-08-19 15:52:44.724,-0.08,0.94
2021-08-19 15:52:44.728,-0.075,0.925
2021-08-19 15:52:44.732,-0.095,0.89
2021-08-19 15:52:44.736,-0.12,0.875
2021-08-19 15:52:44.740,-0.155,0.835
2021-08-19 15:52:44.744,-0.145,0.775
2021-08-19 15:52:44.748,-0.155,0.725
2021-08-19 15:52:44.752,-0.16,0.655
2021-08-19 15:52:44.756,-0.19,0.59
2021-08-19 15:52:44.760,-0.18,0.61
2021-08-19 15:52:44.764,-0.225,0.535
2021-08-19 15:52:44.768,-0.235,0.455
2021-08-19 15:52:44.772,-0.23,0.425
2021-08-19 15:52:44.776,-0.245,0.4
2021-08-19 15:52:44.780,-0.25,0.365
2021-08-19 15:52:44.784,-0.23,0.335
2021-08-19 15:52:44.788,-0.2,0.335
2021-08-19 15:52:44.792,-0.08,0.31
2021-08-19 15:52:44.796,0.11,0.285
2021-08-19 15:52:44.800,0.285,0.295
2021-08-19 15:52:44.804,0.27,0.27
2021-08-19 15:52:44.808,0.04,0.295
2021-08-19 15:52:44.812,-0.36,0.345
2021-08-19 15:52:44.816,-0.98,0.305
2021-08-19 15:52:44.820,-1.625,0.0
2021-08-19 15:52:44.908,-0.58,-1.765
2021-08-19 15:52:44.912,-0.42,-1.43
2021-08-19 15:52:44.916,-0.26,-1.085
2021-08-19 15:52:44.920,-0.105,-0.78
2021-08-19 15:52:44.924,-0.025,-0.52
2021-08-19 15:52:44.928,0.0,-0.3
2021-08-19 15:52:44.932,0.04,-0.075
2021-08-19 15:52:44.936,0.06,0.11
2021-08-19 15:52:44.940,0.06,0.33
2021-08-19 15:52:44.944,0.09,0.51
2021-08-19 15:52:44.948,0.13,0.615
2021-08-19 15:52:44.952,0.145,0.675
2021-08-19 15:52:44.956,0.175,0.7
2021-08-19 15:52:44.960,0.19,0.76
2021-08-19 15:52:44.964,0.185,0.785
2021-08-19 15:52:44.968,0.19,0.825
2021-08-19 15:52:44.972,0.19,0.8
2021-08-19 15:52:44.976,0.19,0.84
2021-08-19 15:52:44.980,0.18,0.865
2021-08-19 15:52:44.984,0.2,0.82
2021-08-19 15:52:44.988,0.205,0.83
2021-08-19 15:52:44.992,0.22,0.87
2021-08-19 15:52:44.996,0.25,0.91
2021-08-19 15:52:45.000,0.25,0.895
2021-08-19 15:52:45.004,0.245,0.9
2021-08-19 15:52:45.008,0.26,0.925
2021-08-19 15:52:45.012,0.235,0.93
2021-08-19 15:52:45.016,0.255,0.955
2021-08-19 15:52:45.020,0.235,1.01
2021-08-19 15:52:45.024,0.225,1.015
2021-08-19 15:52:45.028,0.23,0.995
2021-08-19 15:52:45.032,0.235,1.01
2021-08-19 15:52:45.036,0.255,1.025
2021-08-19 15:52:45.040,0.265,1.045
2021-08-19 15:52:45.044,0.245,1.12
2021-08-19 15:52:45.048,0.245,1.165
2021-08-19 15:52:45.052,0.26,1.17
2021-08-19 15:52:45.056,0.275,1.17
2021-08-19 15:52:45.060,0.28,1.15
2021-08-19 15:52:45.064,0.3,1.175
2021-08-19 15:52:45.068,0.325,1.22
2021-08-19 15:52:45.072,0.315,1.26
2021-08-19 15:52:45.076,0.31,1.295
2021-08-19 15:52:45.080,0.315,1.29
2021-08-19 15:52:45.084,0.3,1.31
2021-08-19 15:52:45.088,0.305,1.335
2021-08-19 15:52:45.092,0.325,1.335
2021-08-19 15:52:45.096,0.31,1.325
2021-08-19 15:52:45.100,0.315,1.31
2021-08-19 15:52:45.104,0.275,1.325
2021-08-19 15:52:45.108,0.26,1.29
2021-08-19 15:52:45.112,0.23,1.24
2021-08-19 15:52:45.116,0.215,1.235
2021-08-19 15:52:45.120,0.18,1.21
2021-08-19 15:52:45.124,0.145,1.095
2021-08-19 15:52:45.128,0.13,1.03
2021-08-19 15:52:45.132,0.12,0.935
2021-08-19 15:52:45.136,0.115,0.88
2021-08-19 15:52:45.140,0.085,0.855
2021-08-19 15:52:45.144,0.04,0.815
2021-08-19 15:52:45.148,0.01,0.745
2021-08-19 15:52:45.152,0.02,0.69
2021-08-19 15:52:45.156,-0.01,0.615
2021-08-19 15:52:45.160,-0.035,0.55
2021-08-19 15:52:45.164,-0.05,0.535
2021-08-19 15:52:45.168,-0.075,0.445
2021-08-19 15:52:45.172,-0.065,0.365
2021-08-19 15:52:45.176,-0.07,0.34
2021-08-19 15:52:45.180,-0.08,0.315
2021-08-19 15:52:45.184,-0.09,0.26
2021-08-19 15:52:45.188,-0.14,0.21
2021-08-19 15:52:45.192,-0.18,0.23
2021-08-19 15:52:45.196,-0.215,0.225
2021-08-19 15:52:45.200,-0.19,0.25
2021-08-19 15:52:45.204,-0.22,0.18
2021-08-19 15:52:45.208,-0.23,0.14
2021-08-19 15:52:45.212,-0.23,0.155
2021-08-19 15:52:45.216,-0.235,0.19
2021-08-19 15:52:45.220,-0.225,0.145
2021-08-19 15:52:45.224,-0.25,0.12
2021-08-19 15:52:45.228,-0.275,0.13
2021-08-19 15:52:45.232,-0.295,0.115
2021-08-19 15:52:45.236,-0.315,0.15
2021-08-19 15:52:45.240,-0.315,0.16
2021-08-19 15:52:45.244,-0.325,0.155
2021-08-19 15:52:45.248,-0.33,0.165
2021-08-19 15:52:45.252,-0.34,0.175
2021-08-19 15:52:45.256,-0.375,0.17
2021-08-19 15:52:45.260,-0.34,0.15
2021-08-19 15:52:45.264,-0.335,0.15
2021-08-19 15:52:45.268,-0.345,0.16
2021-08-19 15:52:45.272,-0.345,0.165
2021-08-19 15:52:45.276,-0.335,0.145
2021-08-19 15:52:45.280,-0.335,0.145
2021-08-19 15:52:45.284,-0.34,0.125
2021-08-19 15:52:45.288,-0.38,0.155
2021-08-19 15:52:45.292,-0.36,0.165
2021-08-19 15:52:45.296,-0.355,0.145
2021-08-19 15:52:45.300,-0.32,0.115
2021-08-19 15:52:45.304,-0.27,0.035
2021-08-19 15:52:45.308,-0.18,0.005
2021-08-19 15:52:45.312,-0.075,0.035
2021-08-19 15:52:45.316,0.07,0.07
2021-08-19 15:52:45.320,0.145,0.09
2021-08-19 15:52:45.324,0.11,0.11
2021-08-19 15:52:45.328,-0.065,0.155
2021-08-19 15:52:45.332,-0.3,0.225
2021-08-19 15:52:45.336,-0.705,0.185
2021-08-19 15:52:45.340,-1.13,-0.11
2021-08-19 15:52:45.344,-1.51,-0.57
2021-08-19 15:52:45.348,-1.785,-1.1
2021-08-19 15:52:45.352,-1.915,-1.905
2021-08-19 15:52:45.432,-0.48,-1.76
2021-08-19 15:52:45.436,-0.34,-1.365
2021-08-19 15:52:45.440,-0.21,-0.97
2021-08-19 15:52:45.444,-0.115,-0.695
2021-08-19 15:52:45.448,-0.075,-0.46
2021-08-19 15:52:45.452,-0.05,-0.22
2021-08-19 15:52:45.456,-0.055,0.01
2021-08-19 15:52:45.460,-0.035,0.22
2021-08-19 15:52:45.464,-0.05,0.39
2021-08-19 15:52:45.468,-0.02,0.53
2021-08-19 15:52:45.472,-0.005,0.635
2021-08-19 15:52:45.476,0.005,0.71
2021-08-19 15:52:45.480,0.035,0.765
2021-08-19 15:52:45.484,0.035,0.77
2021-08-19 15:52:45.488,0.09,0.81
2021-08-19 15:52:45.492,0.105,0.785
2021-08-19 15:52:45.496,0.11,0.855
2021-08-19 15:52:45.500,0.105,0.905
2021-08-19 15:52:45.504,0.11,0.93
2021-08-19 15:52:45.508,0.11,0.945
2021-08-19 15:52:45.512,0.125,0.96
2021-08-19 15:52:45.516,0.155,0.945
2021-08-19 15:52:45.520,0.18,0.95
2021-08-19 15:52:45.524,0.22,0.935
2021-08-19 15:52:45.528,0.215,0.93
2021-08-19 15:52:45.532,0.255,0.945
2021-08-19 15:52:45.536,0.275,0.955
2021-08-19 15:52:45.540,0.295,0.99
2021-08-19 15:52:45.544,0.3,1.01
2021-08-19 15:52:45.548,0.31,1.025
2021-08-19 15:52:45.552,0.33,1.005
2021-08-19 15:52:45.556,0.36,1.035
2021-08-19 15:52:45.560,0.355,1.09
2021-08-19 15:52:45.564,0.38,1.12
2021-08-19 15:52:45.568,0.4,1.125
2021-08-19 15:52:45.572,0.395,1.125
2021-08-19 15:52:45.576,0.43,1.16
2021-08-19 15:52:45.580,0.46,1.18
2021-08-19 15:52:45.584,0.455,1.21
2021-08-19 15:52:45.588,0.445,1.22
2021-08-19 15:52:45.592,0.47,1.23
2021-08-19 15:52:45.596,0.485,1.28
2021-08-19 15:52:45.600,0.495,1.29
2021-08-19 15:52:45.604,0.505,1.325
2021-08-19 15:52:45.608,0.5,1.35
2021-08-19 15:52:45.612,0.505,1.385
2021-08-19 15:52:45.616,0.51,1.43
2021-08-19 15:52:45.620,0.49,1.43
2021-08-19 15:52:45.624,0.475,1.435
2021-08-19 15:52:45.628,0.455,1.475
2021-08-19 15:52:45.632,0.445,1.48
2021-08-19 15:52:45.636,0.405,1.425
2021-08-19 15:52:45.640,0.35,1.425
2021-08-19 15:52:45.644,0.33,1.415
2021-08-19 15:52:45.648,0.26,1.425
2021-08-19 15:52:45.652,0.22,1.385
2021-08-19 15:52:45.656,0.18,1.365
2021-08-19 15:52:45.660,0.145,1.315
2021-08-19 15:52:45.664,0.105,1.26
2021-08-19 15:52:45.668,0.085,1.175
2021-08-19 15:52:45.672,0.06,1.135
2021-08-19 15:52:45.676,0.05,1.09
2021-08-19 15:52:45.680,0.015,1.03
2021-08-19 15:52:45.684,0.0,0.955
2021-08-19 15:52:45.688,-0.075,0.885
2021-08-19 15:52:45.692,-0.09,0.815
2021-08-19 15:52:45.696,-0.13,0.775
2021-08-19 15:52:45.700,-0.165,0.745
2021-08-19 15:52:45.704,-0.19,0.685
2021-08-19 15:52:45.708,-0.185,0.61
2021-08-19 15:52:45.712,-0.2,0.56
2021-08-19 15:52:45.716,-0.205,0.52
2021-08-19 15:52:45.720,-0.16,0.47
2021-08-19 15:52:45.724,-0.16,0.445
2021-08-19 15:52:45.728,-0.18,0.44
2021-08-19 15:52:45.732,-0.19,0.395
2021-08-19 15:52:45.736,-0.185,0.395
2021-08-19 15:52:45.740,-0.16,0.395
2021-08-19 15:52:45.744,-0.18,0.39
2021-08-19 15:52:45.748,-0.195,0.365
2021-08-19 15:52:45.752,-0.185,0.38
2021-08-19 15:52:45.756,-0.19,0.39
2021-08-19 15:52:45.760,-0.205,0.375
2021-08-19 15:52:45.764,-0.175,0.315
2021-08-19 15:52:45.768,-0.18,0.29
2021-08-19 15:52:45.772,-0.17,0.3
2021-08-19 15:52:45.776,-0.17,0.305
2021-08-19 15:52:45.780,-0.175,0.29
2021-08-19 15:52:45.784,-0.185,0.295
2021-08-19 15:52:45.788,-0.185,0.295
2021-08-19 15:52:45.792,-0.195,0.275
2021-08-19 15:52:45.796,-0.19,0.235
2021-08-19 15:52:45.800,-0.19,0.225
2021-08-19 15:52:45.804,-0.195,0.255
2021-08-19 15:52:45.808,-0.195,0.28
2021-08-19 15:52:45.812,-0.165,0.27
2021-08-19 15:52:45.816,-0.18,0.25
2021-08-19 15:52:45.820,-0.19,0.235
2021-08-19 15:52:45.824,-0.185,0.255
2021-08-19 15:52:45.828,-0.205,0.295
2021-08-19 15:52:45.832,-0.215,0.28
2021-08-19 15:52:45.836,-0.205,0.295
2021-08-19 15:52:45.840,-0.22,0.295
2021-08-19 15:52:45.844,-0.23,0.295
2021-08-19 15:52:45.848,-0.205,0.265
2021-08-19 15:52:45.852,-0.205,0.25
2021-08-19 15:52:45.856,-0.235,0.25
2021-08-19 15:52:45.860,-0.225,0.28
2021-08-19 15:52:45.864,-0.23,0.295
2021-08-19 15:52:45.868,-0.24,0.3
2021-08-19 15:52:45.872,-0.265,0.31
2021-08-19 15:52:45.876,-0.28,0.33
2021-08-19 15:52:45.880,-0.27,0.34
2021-08-19 15:52:45.884,-0.265,0.33
2021-08-19 15:52:45.888,-0.28,0.295
2021-08-19 15:52:45.892,-0.295,0.26
2021-08-19 15:52:45.896,-0.305,0.245
2021-08-19 15:52:45.900,-0.305,0.21
2021-08-19 15:52:45.904,-0.31,0.23
2021-08-19 15:52:45.908,-0.31,0.255
2021-08-19 15:52:45.912,-0.295,0.25
2021-08-19 15:52:45.916,-0.28,0.255
2021-08-19 15:52:45.920,-0.265,0.255
2021-08-19 15:52:45.924,-0.265,0.245
2021-08-19 15:52:45.928,-0.27,0.225
2021-08-19 15:52:45.932,-0.275,0.24
2021-08-19 15:52:45.936,-0.26,0.27
2021-08-19 15:52:45.940,-0.245,0.24
2021-08-19 15:52:45.944,-0.235,0.215
2021-08-19 15:52:45.948,-0.23,0.22
2021-08-19 15:52:45.952,-0.22,0.23
2021-08-19 15:52:45.956,-0.22,0.285
2021-08-19 15:52:45.960,-0.23,0.31
2021-08-19 15:52:45.964,-0.24,0.255
2021-08-19 15:52:45.968,-0.23,0.255
2021-08-19 15:52:45.972,-0.22,0.27
2021-08-19 15:52:45.976,-0.26,0.25
2021-08-19 15:52:45.980,-0.255,0.265
2021-08-19 15:52:45.984,-0.21,0.2
2021-08-19 15:52:45.988,-0.22,0.165
2021-08-19 15:52:45.992,-0.225,0.185
2021-08-19 15:52:45.996,-0.235,0.195
2021-08-19 15:52:46.000,-0.25,0.2
2021-08-19 15:52:46.004,-0.255,0.15
2021-08-19 15:52:46.008,-0.265,0.13
2021-08-19 15:52:46.012,-0.285,0.115
2021-08-19 15:52:46.016,-0.3,0.115
2021-08-19 15:52:46.020,-0.305,0.12
2021-08-19 15:52:46.024,-0.32,0.05
2021-08-19 15:52:46.028,-0.34,0.06
2021-08-19 15:52:46.032,-0.36,0.06
2021-08-19 15:52:46.036,-0.365,0.02
2021-08-19 15:52:46.040,-0.35,-0.005
2021-08-19 15:52:46.044,-0.355,0.0
2021-08-19 15:52:46.048,-0.325,-0.05
2021-08-19 15:52:46.052,-0.335,-0.075
2021-08-19 15:52:46.056,-0.345,-0.065
2021-08-19 15:52:46.060,-0.355,-0.065
2021-08-19 15:52:46.064,-0.355,-0.005
2021-08-19 15:52:46.068,-0.37,0.085
2021-08-19 15:52:46.072,-0.39,0.055
2021-08-19 15:52:46.076,-0.405,0.025
2021-08-19 15:52:46.080,-0.385,0.03
2021-08-19 15:52:46.084,-0.36,0.105
2021-08-19 15:52:46.088,-0.335,0.05
2021-08-19 15:52:46.092,-0.295,-0.005
2021-08-19 15:52:46.096,-0.21,0.015
2021-08-19 15:52:46.100,-0.065,0.09
2021-08-19 15:52:46.104,0.045,0.085
2021-08-19 15:52:46.108,0.025,0.09
2021-08-19 15:52:46.112,-0.14,0.125
2021-08-19 15:52:46.116,-0.41,0.255
2021-08-19 15:52:46.120,-0.835,0.29
2021-08-19 15:52:46.124,-1.36,0.055
2021-08-19 15:52:46.128,-1.835,-0.405
2021-08-19 15:52:46.220,-0.5,-1.67
2021-08-19 15:52:46.224,-0.35,-1.32
2021-08-19 15:52:46.228,-0.19,-1.01
2021-08-19 15:52:46.232,-0.1,-0.73
2021-08-19 15:52:46.236,-0.025,-0.47
2021-08-19 15:52:46.240,0.02,-0.285
2021-08-19 15:52:46.244,0.045,-0.095
2021-08-19 15:52:46.248,0.045,0.095
2021-08-19 15:52:46.252,0.06,0.25
2021-08-19 15:52:46.256,0.065,0.355
2021-08-19 15:52:46.260,0.065,0.455
2021-08-19 15:52:46.264,0.075,0.595
2021-08-19 15:52:46.268,0.11,0.635
2021-08-19 15:52:46.272,0.14,0.66
2021-08-19 15:52:46.276,0.155,0.725
2021-08-19 15:52:46.280,0.195,0.765
2021-08-19 15:52:46.284,0.195,0.735
2021-08-19 15:52:46.288,0.19,0.75
2021-08-19 15:52:46.292,0.2,0.82
2021-08-19 15:52:46.296,0.185,0.88
2021-08-19 15:52:46.300,0.19,0.895
2021-08-19 15:52:46.304,0.21,0.855
2021-08-19 15:52:46.308,0.215,0.89
2021-08-19 15:52:46.312,0.195,0.98
2021-08-19 15:52:46.316,0.22,0.96
2021-08-19 15:52:46.320,0.25,0.955
2021-08-19 15:52:46.324,0.265,0.96
2021-08-19 15:52:46.328,0.265,0.985
2021-08-19 15:52:46.332,0.25,1.005
2021-08-19 15:52:46.336,0.25,1.005
2021-08-19 15:52:46.340,0.25,1.005
2021-08-19 15:52:46.344,0.265,1.09
2021-08-19 15:52:46.348,0.27,1.15
2021-08-19 15:52:46.352,0.31,1.135
2021-08-19 15:52:46.356,0.34,1.135
2021-08-19 15:52:46.360,0.365,1.135
2021-08-19 15:52:46.364,0.365,1.16
2021-08-19 15:52:46.368,0.405,1.225
2021-08-19 15:52:46.372,0.42,1.27
2021-08-19 15:52:46.376,0.435,1.295
2021-08-19 15:52:46.380,0.46,1.335
2021-08-19 15:52:46.384,0.445,1.385
2021-08-19 15:52:46.388,0.475,1.385
2021-08-19 15:52:46.392,0.5,1.375
2021-08-19 15:52:46.396,0.535,1.365
2021-08-19 15:52:46.400,0.555,1.43
2021-08-19 15:52:46.404,0.55,1.45
2021-08-19 15:52:46.408,0.565,1.455
2021-08-19 15:52:46.412,0.555,1.445
2021-08-19 15:52:46.416,0.555,1.455
2021-08-19 15:52:46.420,0.595,1.475
2021-08-19 15:52:46.424,0.595,1.51
2021-08-19 15:52:46.428,0.57,1.515
2021-08-19 15:52:46.432,0.57,1.51
2021-08-19 15:52:46.436,0.555,1.5
2021-08-19 15:52:46.440,0.515,1.5
2021-08-19 15:52:46.444,0.515,1.475
2021-08-19 15:52:46.448,0.475,1.46
2021-08-19 15:52:46.452,0.44,1.41
2021-08-19 15:52:46.456,0.43,1.39
2021-08-19 15:52:46.460,0.395,1.37
2021-08-19 15:52:46.464,0.37,1.35
2021-08-19 15:52:46.468,0.33,1.305
2021-08-19 15:52:46.472,0.255,1.24
2021-08-19 15:52:46.476,0.21,1.175
2021-08-19 15:52:46.480,0.15,1.1
2021-08-19 15:52:46.484,0.13,1.055
2021-08-19 15:52:46.488,0.095,0.975
2021-08-19 15:52:46.492,0.065,0.925
2021-08-19 15:52:46.496,0.03,0.84
2021-08-19 15:52:46.500,-0.01,0.79
2021-08-19 15:52:46.504,-0.03,0.74
2021-08-19 15:52:46.508,-0.065,0.7
2021-08-19 15:52:46.512,-0.115,0.65
2021-08-19 15:52:46.516,-0.155,0.62
2021-08-19 15:52:46.520,-0.16,0.58
2021-08-19 15:52:46.524,-0.19,0.55
2021-08-19 15:52:46.528,-0.215,0.515
2021-08-19 15:52:46.532,-0.23,0.48
2021-08-19 15:52:46.536,-0.25,0.46
2021-08-19 15:52:46.540,-0.26,0.425
2021-08-19 15:52:46.544,-0.245,0.41
2021-08-19 15:52:46.548,-0.235,0.39
2021-08-19 15:52:46.552,-0.215,0.375
2021-08-19 15:52:46.556,-0.21,0.39
2021-08-19 15:52:46.560,-0.2,0.42
2021-08-19 15:52:46.564,-0.205,0.425
2021-08-19 15:52:46.568,-0.215,0.425
2021-08-19 15:52:46.572,-0.23,0.42
2021-08-19 15:52:46.576,-0.235,0.42
2021-08-19 15:52:46.580,-0.235,0.42
2021-08-19 15:52:46.584,-0.24,0.425
2021-08-19 15:52:46.588,-0.25,0.405
2021-08-19 15:52:46.592,-0.215,0.385
2021-08-19 15:52:46.596,-0.195,0.375
2021-08-19 15:52:46.600,-0.21,0.335
2021-08-19 15:52:46.604,-0.225,0.355
2021-08-19 15:52:46.608,-0.24,0.365
2021-08-19 15:52:46.612,-0.225,0.35
2021-08-19 15:52:46.616,-0.24,0.345
2021-08-19 15:52:46.620,-0.265,0.33
2021-08-19 15:52:46.624,-0.26,0.325
2021-08-19 15:52:46.628,-0.275,0.3
2021-08-19 15:52:46.632,-0.275,0.3
2021-08-19 15:52:46.636,-0.28,0.285
2021-08-19 15:52:46.640,-0.275,0.275
2021-08-19 15:52:46.644,-0.275,0.235
2021-08-19 15:52:46.648,-0.285,0.24
2021-08-19 15:52:46.652,-0.3,0.235
2021-08-19 15:52:46.656,-0.305,0.235
2021-08-19 15:52:46.660,-0.355,0.255
2021-08-19 15:52:46.664,-0.345,0.235
2021-08-19 15:52:46.668,-0.375,0.2
2021-08-19 15:52:46.672,-0.36,0.205
2021-08-19 15:52:46.676,-0.355,0.205
2021-08-19 15:52:46.680,-0.36,0.22
2021-08-19 15:52:46.684,-0.345,0.2
2021-08-19 15:52:46.688,-0.34,0.195
2021-08-19 15:52:46.692,-0.36,0.2
2021-08-19 15:52:46.696,-0.33,0.19
2021-08-19 15:52:46.700,-0.345,0.195
2021-08-19 15:52:46.704,-0.35,0.215
2021-08-19 15:52:46.708,-0.34,0.245
2021-08-19 15:52:46.712,-0.345,0.235
2021-08-19 15:52:46.716,-0.29,0.225
2021-08-19 15:52:46.720,-0.215,0.235
2021-08-19 15:52:46.724,-0.075,0.23
2021-08-19 15:52:46.728,0.07,0.25
2021-08-19 15:52:46.732,0.13,0.275
2021-08-19 15:52:46.736,-0.015,0.315
2021-08-19 15:52:46.740,-0.25,0.405
2021-08-19 15:52:46.744,-0.66,0.46
2021-08-19 15:52:46.748,-1.22,0.31
2021-08-19 15:52:46.752,-1.725,-0.07
2021-08-19 15:52:46.844,-0.6,-1.805
2021-08-19 15:52:46.848,-0.405,-1.39
2021-08-19 15:52:46.852,-0.23,-0.98
2021-08-19 15:52:46.856,-0.125,-0.7
2021-08-19 15:52:46.860,-0.055,-0.44
2021-08-19 15:52:46.864,-0.04,-0.195
2021-08-19 15:52:46.868,-0.035,0.025
2021-08-19 15:52:46.872,-0.005,0.215
2021-08-19 15:52:46.876,0.0,0.375
2021-08-19 15:52:46.880,0.005,0.535
2021-08-19 15:52:46.884,0.015,0.66
2021-08-19 15:52:46.888,0.015,0.71
2021-08-19 15:52:46.892,0.02,0.76
2021-08-19 15:52:46.896,0.03,0.78
2021-08-19 15:52:46.900,0.015,0.815
2021-08-19 15:52:46.904,0.055,0.84
2021-08-19 15:52:46.908,0.075,0.905
2021-08-19 15:52:46.912,0.11,0.895
2021-08-19 15:52:46.916,0.12,0.915
2021-08-19 15:52:46.920,0.135,0.945
2021-08-19 15:52:46.924,0.145,0.97
2021-08-19 15:52:46.928,0.15,0.99
2021-08-19 15:52:46.932,0.16,0.995
2021-08-19 15:52:46.936,0.16,1.005
2021-08-19 15:52:46.940,0.16,0.99
2021-08-19 15:52:46.944,0.17,1.045
2021-08-19 15:52:46.948,0.19,1.095
2021-08-19 15:52:46.952,0.195,1.075
2021-08-19 15:52:46.956,0.19,1.105
2021-08-19 15:52:46.960,0.185,1.095
2021-08-19 15:52:46.964,0.23,1.09
2021-08-19 15:52:46.968,0.24,1.105
2021-08-19 15:52:46.972,0.265,1.11
2021-08-19 15:52:46.976,0.24,1.135
2021-08-19 15:52:46.980,0.25,1.16
2021-08-19 15:52:46.984,0.285,1.2
2021-08-19 15:52:46.988,0.315,1.2
2021-08-19 15:52:46.992,0.315,1.25
2021-08-19 15:52:46.996,0.35,1.275
2021-08-19 15:52:47.000,0.375,1.295
2021-08-19 15:52:47.004,0.385,1.29
2021-08-19 15:52:47.008,0.38,1.295
2021-08-19 15:52:47.012,0.385,1.33
2021-08-19 15:52:47.016,0.41,1.375
2021-08-19 15:52:47.020,0.405,1.425
2021-08-19 15:52:47.024,0.44,1.455
2021-08-19 15:52:47.028,0.435,1.44
2021-08-19 15:52:47.032,0.42,1.4
2021-08-19 15:52:47.036,0.41,1.4
2021-08-19 15:52:47.040,0.365,1.405
2021-08-19 15:52:47.044,0.32,1.395
2021-08-19 15:52:47.048,0.31,1.37
2021-08-19 15:52:47.052,0.27,1.335
2021-08-19 15:52:47.056,0.235,1.3
2021-08-19 15:52:47.060,0.175,1.27
2021-08-19 15:52:47.064,0.11,1.23
2021-08-19 15:52:47.068,0.065,1.185
2021-08-19 15:52:47.072,0.025,1.15
2021-08-19 15:52:47.076,-0.02,1.09
2021-08-19 15:52:47.080,-0.05,1.01
2021-08-19 15:52:47.084,-0.085,0.975
2021-08-19 15:52:47.088,-0.11,0.865
2021-08-19 15:52:47.092,-0.115,0.81
2021-08-19 15:52:47.096,-0.135,0.72
2021-08-19 15:52:47.100,-0.145,0.665
2021-08-19 15:52:47.104,-0.185,0.625
2021-08-19 15:52:47.108,-0.205,0.585
2021-08-19 15:52:47.112,-0.24,0.56
2021-08-19 15:52:47.116,-0.28,0.545
2021-08-19 15:52:47.120,-0.295,0.495
2021-08-19 15:52:47.124,-0.32,0.395
2021-08-19 15:52:47.128,-0.325,0.34
2021-08-19 15:52:47.132,-0.32,0.32
2021-08-19 15:52:47.136,-0.3,0.32
2021-08-19 15:52:47.140,-0.285,0.33
2021-08-19 15:52:47.144,-0.295,0.32
2021-08-19 15:52:47.148,-0.3,0.285
2021-08-19 15:52:47.152,-0.345,0.25
2021-08-19 15:52:47.156,-0.365,0.245
2021-08-19 15:52:47.160,-0.395,0.26
2021-08-19 15:52:47.164,-0.375,0.235
2021-08-19 15:52:47.168,-0.35,0.215
2021-08-19 15:52:47.172,-0.34,0.225
2021-08-19 15:52:47.176,-0.29,0.22
2021-08-19 15:52:47.180,-0.27,0.23
2021-08-19 15:52:47.184,-0.26,0.225
2021-08-19 15:52:47.188,-0.26,0.215
2021-08-19 15:52:47.192,-0.26,0.245
2021-08-19 15:52:47.196,-0.26,0.285
2021-08-19 15:52:47.200,-0.255,0.285
2021-08-19 15:52:47.204,-0.28,0.285
2021-08-19 15:52:47.208,-0.28,0.25
2021-08-19 15:52:47.212,-0.28,0.26
2021-08-19 15:52:47.216,-0.26,0.235
2021-08-19 15:52:47.220,-0.265,0.245
2021-08-19 15:52:47.224,-0.23,0.235
2021-08-19 15:52:47.228,-0.22,0.24
2021-08-19 15:52:47.232,-0.24,0.215
2021-08-19 15:52:47.236,-0.25,0.205
2021-08-19 15:52:47.240,-0.25,0.235
2021-08-19 15:52:47.244,-0.28,0.24
2021-08-19 15:52:47.248,-0.295,0.215
2021-08-19 15:52:47.252,-0.275,0.185
2021-08-19 15:52:47.256,-0.285,0.165
2021-08-19 15:52:47.260,-0.315,0.175
2021-08-19 15:52:47.264,-0.32,0.155
2021-08-19 15:52:47.268,-0.315,0.08
2021-08-19 15:52:47.272,-0.29,0.04
2021-08-19 15:52:47.276,-0.24,0.08
2021-08-19 15:52:47.280,-0.15,0.085
2021-08-19 15:52:47.284,-0.01,0.06
2021-08-19 15:52:47.288,0.09,0.025
2021-08-19 15:52:47.292,0.095,0.07
2021-08-19 15:52:47.296,-0.045,0.15
2021-08-19 15:52:47.300,-0.31,0.25
2021-08-19 15:52:47.304,-0.76,0.22
2021-08-19 15:52:47.308,-1.255,-0.12
2021-08-19 15:52:47.312,-1.64,-0.635
2021-08-19 15:52:47.316,-1.94,-1.355
2021-08-19 15:52:47.400,-0.465,-1.575
2021-08-19 15:52:47.404,-0.295,-1.185
2021-08-19 15:52:47.408,-0.185,-0.88
2021-08-19 15:52:47.412,-0.125,-0.605
2021-08-19 15:52:47.416,-0.09,-0.36
2021-08-19 15:52:47.420,-0.06,-0.125
2021-08-19 15:52:47.424,-0.06,0.115
2021-08-19 15:52:47.428,-0.025,0.29
2021-08-19 15:52:47.432,-0.02,0.395
2021-08-19 15:52:47.436,-0.005,0.525
2021-08-19 15:52:47.440,0.03,0.61
2021-08-19 15:52:47.444,0.03,0.67
2021-08-19 15:52:47.448,0.05,0.685
2021-08-19 15:52:47.452,0.07,0.705
2021-08-19 15:52:47.456,0.095,0.72
2021-08-19 15:52:47.460,0.11,0.76
2021-08-19 15:52:47.464,0.155,0.8
2021-08-19 15:52:47.468,0.165,0.815
2021-08-19 15:52:47.472,0.155,0.825
2021-08-19 15:52:47.476,0.155,0.84
2021-08-19 15:52:47.480,0.14,0.845
2021-08-19 15:52:47.484,0.17,0.84
2021-08-19 15:52:47.488,0.185,0.87
2021-08-19 15:52:47.492,0.195,0.91
2021-08-19 15:52:47.496,0.205,0.92
2021-08-19 15:52:47.500,0.235,0.94
2021-08-19 15:52:47.504,0.24,0.945
2021-08-19 15:52:47.508,0.245,0.95
2021-08-19 15:52:47.512,0.235,0.95
2021-08-19 15:52:47.516,0.25,0.965
2021-08-19 15:52:47.520,0.245,0.95
2021-08-19 15:52:47.524,0.25,0.96
2021-08-19 15:52:47.528,0.26,0.995
2021-08-19 15:52:47.532,0.235,1.07
2021-08-19 15:52:47.536,0.235,1.06
2021-08-19 15:52:47.540,0.24,1.095
2021-08-19 15:52:47.544,0.26,1.115
2021-08-19 15:52:47.548,0.28,1.155
2021-08-19 15:52:47.552,0.28,1.135
2021-08-19 15:52:47.556,0.285,1.175
2021-08-19 15:52:47.560,0.255,1.22
2021-08-19 15:52:47.564,0.255,1.235
2021-08-19 15:52:47.568,0.255,1.24
2021-08-19 15:52:47.572,0.28,1.24
2021-08-19 15:52:47.576,0.305,1.25
2021-08-19 15:52:47.580,0.34,1.27
2021-08-19 15:52:47.584,0.335,1.275
2021-08-19 15:52:47.588,0.335,1.315
2021-08-19 15:52:47.592,0.32,1.34
2021-08-19 15:52:47.596,0.31,1.355
2021-08-19 15:52:47.600,0.24,1.355
2021-08-19 15:52:47.604,0.215,1.28
2021-08-19 15:52:47.608,0.18,1.21
2021-08-19 15:52:47.612,0.165,1.16
2021-08-19 15:52:47.616,0.155,1.09
2021-08-19 15:52:47.620,0.115,1.045
2021-08-19 15:52:47.624,0.085,1.015
2021-08-19 15:52:47.628,0.06,0.945
2021-08-19 15:52:47.632,0.04,0.9
2021-08-19 15:52:47.636,-0.01,0.845
2021-08-19 15:52:47.640,-0.03,0.78
2021-08-19 15:52:47.644,-0.095,0.72
2021-08-19 15:52:47.648,-0.12,0.64
2021-08-19 15:52:47.652,-0.13,0.595
2021-08-19 15:52:47.656,-0.13,0.495
2021-08-19 15:52:47.660,-0.13,0.46
2021-08-19 15:52:47.664,-0.14,0.405
2021-08-19 15:52:47.668,-0.155,0.345
2021-08-19 15:52:47.672,-0.16,0.305
2021-08-19 15:52:47.676,-0.16,0.27
2021-08-19 15:52:47.680,-0.155,0.28
2021-08-19 15:52:47.684,-0.16,0.275
2021-08-19 15:52:47.688,-0.16,0.225
2021-08-19 15:52:47.692,-0.13,0.205
2021-08-19 15:52:47.696,-0.12,0.21
2021-08-19 15:52:47.700,-0.12,0.205
2021-08-19 15:52:47.704,-0.14,0.21
2021-08-19 15:52:47.708,-0.14,0.2
2021-08-19 15:52:47.712,-0.13,0.15
2021-08-19 15:52:47.716,-0.13,0.145
2021-08-19 15:52:47.720,-0.135,0.16
2021-08-19 15:52:47.724,-0.125,0.175
2021-08-19 15:52:47.728,-0.13,0.185
2021-08-19 15:52:47.732,-0.155,0.17
2021-08-19 15:52:47.736,-0.185,0.19
2021-08-19 15:52:47.740,-0.18,0.165
2021-08-19 15:52:47.744,-0.17,0.16
2021-08-19 15:52:47.748,-0.2,0.16
2021-08-19 15:52:47.752,-0.22,0.155
2021-08-19 15:52:47.756,-0.23,0.18
2021-08-19 15:52:47.760,-0.255,0.205
2021-08-19 15:52:47.764,-0.285,0.175
2021-08-19 15:52:47.768,-0.32,0.175
2021-08-19 15:52:47.772,-0.36,0.175
2021-08-19 15:52:47.776,-0.375,0.17
2021-08-19 15:52:47.780,-0.4,0.18
2021-08-19 15:52:47.784,-0.405,0.17
2021-08-19 15:52:47.788,-0.425,0.165
2021-08-19 15:52:47.792,-0.43,0.155
2021-08-19 15:52:47.796,-0.415,0.155
2021-08-19 15:52:47.800,-0.375,0.15
2021-08-19 15:52:47.804,-0.345,0.155
2021-08-19 15:52:47.808,-0.34,0.16
2021-08-19 15:52:47.812,-0.34,0.125
2021-08-19 15:52:47.816,-0.34,0.125
2021-08-19 15:52:47.820,-0.345,0.095
2021-08-19 15:52:47.824,-0.365,0.07
2021-08-19 15:52:47.828,-0.345,0.05
2021-08-19 15:52:47.832,-0.34,0.0
2021-08-19 15:52:47.836,-0.34,-0.02
2021-08-19 15:52:47.840,-0.335,-0.025
2021-08-19 15:52:47.844,-0.295,-0.01
2021-08-19 15:52:47.848,-0.265,-0.005
2021-08-19 15:52:47.852,-0.265,-0.045
2021-08-19 15:52:47.856,-0.27,-0.06
2021-08-19 15:52:47.860,-0.26,0.02
2021-08-19 15:52:47.864,-0.295,0.035
2021-08-19 15:52:47.868,-0.27,0.03
2021-08-19 15:52:47.872,-0.295,0.01
2021-08-19 15:52:47.876,-0.285,0.02
2021-08-19 15:52:47.880,-0.275,0.02
2021-08-19 15:52:47.884,-0.25,-0.025
2021-08-19 15:52:47.888,-0.22,0.005
2021-08-19 15:52:47.892,-0.22,0.005
2021-08-19 15:52:47.896,-0.215,0.0
2021-08-19 15:52:47.900,-0.2,0.03
2021-08-19 15:52:47.904,-0.18,0.025
2021-08-19 15:52:47.908,-0.175,0.02
2021-08-19 15:52:47.912,-0.175,0.045
2021-08-19 15:52:47.916,-0.185,0.05
2021-08-19 15:52:47.920,-0.21,0.06
2021-08-19 15:52:47.924,-0.2,0.055
2021-08-19 15:52:47.928,-0.205,0.035
2021-08-19 15:52:47.932,-0.22,0.03
2021-08-19 15:52:47.936,-0.195,0.025
2021-08-19 15:52:47.940,-0.225,0.025
2021-08-19 15:52:47.944,-0.225,0.06
2021-08-19 15:52:47.948,-0.245,0.035
2021-08-19 15:52:47.952,-0.245,0.02
2021-08-19 15:52:47.956,-0.215,-0.005
2021-08-19 15:52:47.960,-0.165,0.02
2021-08-19 15:52:47.964,-0.06,0.0
2021-08-19 15:52:47.968,0.035,-0.005
2021-08-19 15:52:47.972,0.025,0.01
2021-08-19 15:52:47.976,-0.125,0.055
2021-08-19 15:52:47.980,-0.375,0.1
2021-08-19 15:52:47.984,-0.77,0.12
2021-08-19 15:52:47.988,-1.28,-0.115
2021-08-19 15:52:47.992,-1.74,-0.57
2021-08-19 15:52:48.076,-0.53,-1.965
2021-08-19 15:52:48.080,-0.365,-1.565
2021-08-19 15:52:48.084,-0.245,-1.185
2021-08-19 15:52:48.088,-0.135,-0.865
2021-08-19 15:52:48.092,-0.07,-0.61
2021-08-19 15:52:48.096,-0.02,-0.4
2021-08-19 15:52:48.100,0.04,-0.2
2021-08-19 15:52:48.104,0.055,-0.015
2021-08-19 15:52:48.108,0.11,0.15
2021-08-19 15:52:48.112,0.13,0.315
2021-08-19 15:52:48.116,0.145,0.435
2021-08-19 15:52:48.120,0.175,0.56
2021-08-19 15:52:48.124,0.195,0.59
2021-08-19 15:52:48.128,0.195,0.645
2021-08-19 15:52:48.132,0.195,0.675
2021-08-19 15:52:48.136,0.23,0.715
2021-08-19 15:52:48.140,0.255,0.73
2021-08-19 15:52:48.144,0.255,0.75
2021-08-19 15:52:48.148,0.28,0.775
2021-08-19 15:52:48.152,0.295,0.795
2021-08-19 15:52:48.156,0.295,0.795
2021-08-19 15:52:48.160,0.28,0.855
2021-08-19 15:52:48.164,0.27,0.865
2021-08-19 15:52:48.168,0.245,0.86
2021-08-19 15:52:48.172,0.235,0.865
2021-08-19 15:52:48.176,0.235,0.86
2021-08-19 15:52:48.180,0.25,0.89
2021-08-19 15:52:48.184,0.29,0.87
2021-08-19 15:52:48.188,0.335,0.875
2021-08-19 15:52:48.192,0.355,0.885
2021-08-19 15:52:48.196,0.36,0.91
2021-08-19 15:52:48.200,0.34,0.99
2021-08-19 15:52:48.204,0.345,1.035
2021-08-19 15:52:48.208,0.34,1.07
2021-08-19 15:52:48.212,0.345,1.085
2021-08-19 15:52:48.216,0.365,1.13
2021-08-19 15:52:48.220,0.35,1.125
2021-08-19 15:52:48.224,0.355,1.125
2021-08-19 15:52:48.228,0.395,1.145
2021-08-19 15:52:48.232,0.405,1.14
2021-08-19 15:52:48.236,0.405,1.185
2021-08-19 15:52:48.240,0.425,1.195
2021-08-19 15:52:48.244,0.41,1.225
2021-08-19 15:52:48.248,0.425,1.255
2021-08-19 15:52:48.252,0.43,1.25
2021-08-19 15:52:48.256,0.425,1.245
2021-08-19 15:52:48.260,0.44,1.255
2021-08-19 15:52:48.264,0.435,1.275
2021-08-19 15:52:48.268,0.42,1.27
2021-08-19 15:52:48.272,0.41,1.25
2021-08-19 15:52:48.276,0.4,1.26
2021-08-19 15:52:48.280,0.385,1.26
2021-08-19 15:52:48.284,0.37,1.27
2021-08-19 15:52:48.288,0.35,1.255
2021-08-19 15:52:48.292,0.33,1.235
2021-08-19 15:52:48.296,0.32,1.245
2021-08-19 15:52:48.300,0.27,1.23
2021-08-19 15:52:48.304,0.225,1.17
2021-08-19 15:52:48.308,0.22,1.105
2021-08-19 15:52:48.312,0.17,1.06
2021-08-19 15:52:48.316,0.125,1.0
2021-08-19 15:52:48.320,0.1,0.94
2021-08-19 15:52:48.324,0.055,0.885
2021-08-19 15:52:48.328,0.025,0.82
2021-08-19 15:52:48.332,-0.025,0.74
2021-08-19 15:52:48.336,-0.08,0.685
2021-08-19 15:52:48.340,-0.1,0.62
2021-08-19 15:52:48.344,-0.12,0.565
2021-08-19 15:52:48.348,-0.175,0.495
2021-08-19 15:52:48.352,-0.205,0.42
2021-08-19 15:52:48.356,-0.2,0.375
2021-08-19 15:52:48.360,-0.205,0.3
2021-08-19 15:52:48.364,-0.185,0.265
2021-08-19 15:52:48.368,-0.195,0.23
2021-08-19 15:52:48.372,-0.225,0.215
2021-08-19 15:52:48.376,-0.24,0.19
2021-08-19 15:52:48.380,-0.245,0.19
2021-08-19 15:52:48.384,-0.225,0.2
2021-08-19 15:52:48.388,-0.185,0.155
2021-08-19 15:52:48.392,-0.17,0.14
2021-08-19 15:52:48.396,-0.175,0.125
2021-08-19 15:52:48.400,-0.175,0.13
2021-08-19 15:52:48.404,-0.18,0.17
2021-08-19 15:52:48.408,-0.2,0.19
2021-08-19 15:52:48.412,-0.2,0.215
2021-08-19 15:52:48.416,-0.185,0.235
2021-08-19 15:52:48.420,-0.16,0.22
2021-08-19 15:52:48.424,-0.165,0.19
2021-08-19 15:52:48.428,-0.165,0.185
2021-08-19 15:52:48.432,-0.175,0.16
2021-08-19 15:52:48.436,-0.165,0.15
2021-08-19 15:52:48.440,-0.16,0.14
2021-08-19 15:52:48.444,-0.15,0.12
2021-08-19 15:52:48.448,-0.14,0.11
2021-08-19 15:52:48.452,-0.16,0.1
2021-08-19 15:52:48.456,-0.115,0.08
2021-08-19 15:52:48.460,-0.1,0.095
2021-08-19 15:52:48.464,-0.055,0.09
2021-08-19 15:52:48.468,0.085,0.09
2021-08-19 15:52:48.472,0.275,0.12
2021-08-19 15:52:48.476,0.405,0.1
2021-08-19 15:52:48.480,0.315,0.115
2021-08-19 15:52:48.484,0.115,0.165
2021-08-19 15:52:48.488,-0.255,0.23
2021-08-19 15:52:48.492,-0.765,0.15
2021-08-19 15:52:48.496,-1.31,-0.185
2021-08-19 15:52:48.500,-1.665,-0.7
2021-08-19 15:52:48.504,-1.83,-1.45
2021-08-19 15:52:48.584,-0.63,-1.825
2021-08-19 15:52:48.588,-0.395,-1.44
2021-08-19 15:52:48.592,-0.21,-1.125
2021-08-19 15:52:48.596,-0.095,-0.84
2021-08-19 15:52:48.600,-0.025,-0.59
2021-08-19 15:52:48.604,-0.005,-0.285
2021-08-19 15:52:48.608,0.01,-0.005
2021-08-19 15:52:48.612,0.055,0.195
2021-08-19 15:52:48.616,0.06,0.365
2021-08-19 15:52:48.620,0.055,0.485
2021-08-19 15:52:48.624,0.08,0.57
2021-08-19 15:52:48.628,0.11,0.67
2021-08-19 15:52:48.632,0.145,0.72
2021-08-19 15:52:48.636,0.18,0.72
2021-08-19 15:52:48.640,0.19,0.755
2021-08-19 15:52:48.644,0.19,0.75
2021-08-19 15:52:48.648,0.215,0.77
2021-08-19 15:52:48.652,0.205,0.77
2021-08-19 15:52:48.656,0.21,0.795
2021-08-19 15:52:48.660,0.23,0.78
2021-08-19 15:52:48.664,0.22,0.775
2021-08-19 15:52:48.668,0.235,0.77
2021-08-19 15:52:48.672,0.265,0.765
2021-08-19 15:52:48.676,0.29,0.77
2021-08-19 15:52:48.680,0.31,0.775
2021-08-19 15:52:48.684,0.3,0.795
2021-08-19 15:52:48.688,0.285,0.83
2021-08-19 15:52:48.692,0.32,0.855
2021-08-19 15:52:48.696,0.33,0.84
2021-08-19 15:52:48.700,0.335,0.885
2021-08-19 15:52:48.704,0.38,0.885
2021-08-19 15:52:48.708,0.42,0.915
2021-08-19 15:52:48.712,0.395,0.945
2021-08-19 15:52:48.716,0.41,0.96
2021-08-19 15:52:48.720,0.415,0.97
2021-08-19 15:52:48.724,0.42,0.995
2021-08-19 15:52:48.728,0.45,1.03
2021-08-19 15:52:48.732,0.435,1.025
2021-08-19 15:52:48.736,0.405,1.07
2021-08-19 15:52:48.740,0.415,1.11
2021-08-19 15:52:48.744,0.395,1.145
2021-08-19 15:52:48.748,0.385,1.16
2021-08-19 15:52:48.752,0.365,1.155
2021-08-19 15:52:48.756,0.395,1.17
2021-08-19 15:52:48.760,0.395,1.185
2021-08-19 15:52:48.764,0.385,1.22
2021-08-19 15:52:48.768,0.355,1.22
2021-08-19 15:52:48.772,0.33,1.235
2021-08-19 15:52:48.776,0.3,1.26
2021-08-19 15:52:48.780,0.26,1.255
2021-08-19 15:52:48.784,0.245,1.24
2021-08-19 15:52:48.788,0.235,1.22
2021-08-19 15:52:48.792,0.2,1.18
2021-08-19 15:52:48.796,0.165,1.135
2021-08-19 15:52:48.800,0.135,1.11
2021-08-19 15:52:48.804,0.11,1.08
2021-08-19 15:52:48.808,0.09,1.05
2021-08-19 15:52:48.812,0.065,1.005
2021-08-19 15:52:48.816,0.035,0.945
2021-08-19 15:52:48.820,-0.005,0.875
2021-08-19 15:52:48.824,-0.045,0.855
2021-08-19 15:52:48.828,-0.075,0.765
2021-08-19 15:52:48.832,-0.09,0.705
2021-08-19 15:52:48.836,-0.105,0.65
2021-08-19 15:52:48.840,-0.12,0.575
2021-08-19 15:52:48.844,-0.125,0.52
2021-08-19 15:52:48.848,-0.11,0.485
2021-08-19 15:52:48.852,-0.15,0.45
2021-08-19 15:52:48.856,-0.17,0.405
2021-08-19 15:52:48.860,-0.17,0.38
2021-08-19 15:52:48.864,-0.195,0.38
2021-08-19 15:52:48.868,-0.205,0.335
2021-08-19 15:52:48.872,-0.2,0.32
2021-08-19 15:52:48.876,-0.155,0.285
2021-08-19 15:52:48.880,-0.12,0.265
2021-08-19 15:52:48.884,-0.115,0.215
2021-08-19 15:52:48.888,-0.115,0.2
2021-08-19 15:52:48.892,-0.1,0.175
2021-08-19 15:52:48.896,-0.075,0.155
2021-08-19 15:52:48.900,-0.06,0.11
2021-08-19 15:52:48.904,-0.06,0.08
2021-08-19 15:52:48.908,-0.06,0.11
2021-08-19 15:52:48.912,-0.065,0.085
2021-08-19 15:52:48.916,-0.075,0.14
2021-08-19 15:52:48.920,-0.09,0.14
2021-08-19 15:52:48.924,-0.085,0.13
2021-08-19 15:52:48.928,-0.075,0.11
2021-08-19 15:52:48.932,-0.095,0.12
2021-08-19 15:52:48.936,-0.085,0.11
2021-08-19 15:52:48.940,-0.09,0.11
2021-08-19 15:52:48.944,-0.07,0.105
2021-08-19 15:52:48.948,-0.07,0.085
2021-08-19 15:52:48.952,-0.09,0.115
2021-08-19 15:52:48.956,-0.125,0.135
2021-08-19 15:52:48.960,-0.16,0.13
2021-08-19 15:52:48.964,-0.18,0.105
2021-08-19 15:52:48.968,-0.235,0.07
2021-08-19 15:52:48.972,-0.295,0.02
2021-08-19 15:52:48.976,-0.3,-0.035
2021-08-19 15:52:48.980,-0.265,-0.03
2021-08-19 15:52:48.984,-0.24,-0.055
2021-08-19 15:52:48.988,-0.24,-0.03
2021-08-19 15:52:48.992,-0.22,0.0
2021-08-19 15:52:48.996,-0.2,0.015
2021-08-19 15:52:49.000,-0.235,0.04
2021-08-19 15:52:49.004,-0.22,0.06
2021-08-19 15:52:49.008,-0.24,0.04
2021-08-19 15:52:49.012,-0.245,0.03
2021-08-19 15:52:49.016,-0.26,0.06
2021-08-19 15:52:49.020,-0.265,0.045
2021-08-19 15:52:49.024,-0.265,0.01
2021-08-19 15:52:49.028,-0.25,0.035
2021-08-19 15:52:49.032,-0.25,0.04
2021-08-19 15:52:49.036,-0.285,0.03
2021-08-19 15:52:49.040,-0.3,0.015
2021-08-19 15:52:49.044,-0.28,0.01
2021-08-19 15:52:49.048,-0.275,0.005
2021-08-19 15:52:49.052,-0.28,0.005
2021-08-19 15:52:49.056,-0.32,0.0
2021-08-19 15:52:49.060,-0.305,-0.015
2021-08-19 15:52:49.064,-0.32,-0.01
2021-08-19 15:52:49.068,-0.315,-0.035
2021-08-19 15:52:49.072,-0.32,-0.04
2021-08-19 15:52:49.076,-0.285,-0.045
2021-08-19 15:52:49.080,-0.29,-0.055
2021-08-19 15:52:49.084,-0.265,-0.055
2021-08-19 15:52:49.088,-0.27,-0.06
2021-08-19 15:52:49.092,-0.28,-0.06
2021-08-19 15:52:49.096,-0.28,-0.085
2021-08-19 15:52:49.100,-0.24,-0.085
2021-08-19 15:52:49.104,-0.23,-0.12
2021-08-19 15:52:49.108,-0.23,-0.125
2021-08-19 15:52:49.112,-0.225,-0.135
2021-08-19 15:52:49.116,-0.205,-0.115
2021-08-19 15:52:49.120,-0.18,-0.105
2021-08-19 15:52:49.124,-0.17,-0.115
2021-08-19 15:52:49.128,-0.16,-0.095
2021-08-19 15:52:49.132,-0.145,-0.1
2021-08-19 15:52:49.136,-0.135,-0.095
2021-08-19 15:52:49.140,-0.14,-0.115
2021-08-19 15:52:49.144,-0.15,-0.12
2021-08-19 15:52:49.148,-0.13,-0.08
2021-08-19 15:52:49.152,-0.16,-0.08
2021-08-19 15:52:49.156,-0.18,-0.07
2021-08-19 15:52:49.160,-0.19,-0.06
2021-08-19 15:52:49.164,-0.18,-0.06
2021-08-19 15:52:49.168,-0.2,-0.08
2021-08-19 15:52:49.172,-0.2,-0.06
2021-08-19 15:52:49.176,-0.23,-0.07
2021-08-19 15:52:49.180,-0.24,-0.05
2021-08-19 15:52:49.184,-0.265,-0.09
2021-08-19 15:52:49.188,-0.255,-0.105
2021-08-19 15:52:49.192,-0.245,-0.085
2021-08-19 15:52:49.196,-0.21,-0.14
2021-08-19 15:52:49.200,-0.21,-0.115
2021-08-19 15:52:49.204,-0.195,-0.035
2021-08-19 15:52:49.208,-0.125,-0.015
2021-08-19 15:52:49.212,0.0,-0.005
2021-08-19 15:52:49.216,0.105,-0.015
2021-08-19 15:52:49.220,0.1,0.015
2021-08-19 15:52:49.224,-0.03,0.09
2021-08-19 15:52:49.228,-0.29,0.165
2021-08-19 15:52:49.232,-0.69,0.195
2021-08-19 15:52:49.236,-1.185,-0.01
2021-08-19 15:52:49.240,-1.61,-0.49
2021-08-19 15:52:49.244,-1.925,-1.1
2021-08-19 15:52:49.328,-0.57,-1.98
2021-08-19 15:52:49.332,-0.42,-1.625
2021-08-19 15:52:49.336,-0.28,-1.31
2021-08-19 15:52:49.340,-0.145,-1.05
2021-08-19 15:52:49.344,-0.05,-0.815
2021-08-19 15:52:49.348,-0.01,-0.6
2021-08-19 15:52:49.352,0.015,-0.395
2021-08-19 15:52:49.356,0.075,-0.21
2021-08-19 15:52:49.360,0.115,-0.035
2021-08-19 15:52:49.364,0.135,0.105
2021-08-19 15:52:49.368,0.135,0.245
2021-08-19 15:52:49.372,0.155,0.39
2021-08-19 15:52:49.376,0.185,0.445
2021-08-19 15:52:49.380,0.2,0.49
2021-08-19 15:52:49.384,0.23,0.56
2021-08-19 15:52:49.388,0.2,0.595
2021-08-19 15:52:49.392,0.215,0.62
2021-08-19 15:52:49.396,0.25,0.62
2021-08-19 15:52:49.400,0.26,0.63
2021-08-19 15:52:49.404,0.27,0.69
2021-08-19 15:52:49.408,0.27,0.75
2021-08-19 15:52:49.412,0.295,0.755
2021-08-19 15:52:49.416,0.28,0.78
2021-08-19 15:52:49.420,0.305,0.795
2021-08-19 15:52:49.424,0.315,0.805
2021-08-19 15:52:49.428,0.315,0.83
2021-08-19 15:52:49.432,0.295,0.82
2021-08-19 15:52:49.436,0.295,0.83
2021-08-19 15:52:49.440,0.305,0.88
2021-08-19 15:52:49.444,0.325,0.89
2021-08-19 15:52:49.448,0.31,0.925
2021-08-19 15:52:49.452,0.295,0.955
2021-08-19 15:52:49.456,0.3,0.97
2021-08-19 15:52:49.460,0.29,1.005
2021-08-19 15:52:49.464,0.31,0.98
2021-08-19 15:52:49.468,0.33,0.98
2021-08-19 15:52:49.472,0.345,0.99
2021-08-19 15:52:49.476,0.37,1.025
2021-08-19 15:52:49.480,0.365,1.065
2021-08-19 15:52:49.484,0.37,1.06
2021-08-19 15:52:49.488,0.385,1.08
2021-08-19 15:52:49.492,0.415,1.145
2021-08-19 15:52:49.496,0.435,1.155
2021-08-19 15:52:49.500,0.435,1.18
2021-08-19 15:52:49.504,0.455,1.18
2021-08-19 15:52:49.508,0.47,1.185
2021-08-19 15:52:49.512,0.48,1.23
2021-08-19 15:52:49.516,0.48,1.235
2021-08-19 15:52:49.520,0.475,1.23
2021-08-19 15:52:49.524,0.46,1.19
2021-08-19 15:52:49.528,0.485,1.195
2021-08-19 15:52:49.532,0.465,1.185
2021-08-19 15:52:49.536,0.43,1.185
2021-08-19 15:52:49.540,0.4,1.17
2021-08-19 15:52:49.544,0.39,1.14
2021-08-19 15:52:49.548,0.395,1.13
2021-08-19 15:52:49.552,0.335,1.135
2021-08-19 15:52:49.556,0.27,1.09
2021-08-19 15:52:49.560,0.245,1.05
2021-08-19 15:52:49.564,0.24,1.02
2021-08-19 15:52:49.568,0.22,0.96
2021-08-19 15:52:49.572,0.145,0.91
2021-08-19 15:52:49.576,0.14,0.84
2021-08-19 15:52:49.580,0.105,0.805
2021-08-19 15:52:49.584,0.075,0.74
2021-08-19 15:52:49.588,0.03,0.7
2021-08-19 15:52:49.592,-0.02,0.66
2021-08-19 15:52:49.596,-0.025,0.58
2021-08-19 15:52:49.600,-0.02,0.535
2021-08-19 15:52:49.604,-0.03,0.46
2021-08-19 15:52:49.608,-0.03,0.425
2021-08-19 15:52:49.612,-0.03,0.365
2021-08-19 15:52:49.616,-0.075,0.345
2021-08-19 15:52:49.620,-0.095,0.305
2021-08-19 15:52:49.624,-0.08,0.28
2021-08-19 15:52:49.628,-0.1,0.28
2021-08-19 15:52:49.632,-0.11,0.26
2021-08-19 15:52:49.636,-0.13,0.24
2021-08-19 15:52:49.640,-0.13,0.19
2021-08-19 15:52:49.644,-0.115,0.21
2021-08-19 15:52:49.648,-0.1,0.205
2021-08-19 15:52:49.652,-0.05,0.18
2021-08-19 15:52:49.656,-0.015,0.18
2021-08-19 15:52:49.660,-0.005,0.19
2021-08-19 15:52:49.664,-0.05,0.21
2021-08-19 15:52:49.668,-0.05,0.225
2021-08-19 15:52:49.672,-0.085,0.255
2021-08-19 15:52:49.676,-0.12,0.27
2021-08-19 15:52:49.680,-0.16,0.27
2021-08-19 15:52:49.684,-0.175,0.26
2021-08-19 15:52:49.688,-0.135,0.225
2021-08-19 15:52:49.692,-0.135,0.25
2021-08-19 15:52:49.696,-0.145,0.265
2021-08-19 15:52:49.700,-0.17,0.205
2021-08-19 15:52:49.704,-0.16,0.205
2021-08-19 15:52:49.708,-0.16,0.19
2021-08-19 15:52:49.712,-0.135,0.23
2021-08-19 15:52:49.716,-0.165,0.235
2021-08-19 15:52:49.720,-0.18,0.245
2021-08-19 15:52:49.724,-0.18,0.25
2021-08-19 15:52:49.728,-0.195,0.235
2021-08-19 15:52:49.732,-0.205,0.2
2021-08-19 15:52:49.736,-0.21,0.2
2021-08-19 15:52:49.740,-0.2,0.185
2021-08-19 15:52:49.744,-0.175,0.205
2021-08-19 15:52:49.748,-0.16,0.19
2021-08-19 15:52:49.752,-0.18,0.17
2021-08-19 15:52:49.756,-0.175,0.17
2021-08-19 15:52:49.760,-0.17,0.145
2021-08-19 15:52:49.764,-0.22,0.13
2021-08-19 15:52:49.768,-0.26,0.1
2021-08-19 15:52:49.772,-0.25,0.07
2021-08-19 15:52:49.776,-0.25,0.035
2021-08-19 15:52:49.780,-0.235,0.06
2021-08-19 15:52:49.784,-0.22,0.03
2021-08-19 15:52:49.788,-0.21,0.005
2021-08-19 15:52:49.792,-0.195,-0.01
2021-08-19 15:52:49.796,-0.175,-0.02
2021-08-19 15:52:49.800,-0.17,0.0
2021-08-19 15:52:49.804,-0.145,0.005
2021-08-19 15:52:49.808,-0.15,0.015
2021-08-19 15:52:49.812,-0.13,0.045
2021-08-19 15:52:49.816,-0.16,0.055
2021-08-19 15:52:49.820,-0.15,0.04
2021-08-19 15:52:49.824,-0.165,0.04
2021-08-19 15:52:49.828,-0.155,0.045
2021-08-19 15:52:49.832,-0.14,0.06
2021-08-19 15:52:49.836,-0.13,0.03
2021-08-19 15:52:49.840,-0.11,0.06
2021-08-19 15:52:49.844,-0.1,0.05
2021-08-19 15:52:49.848,-0.125,-0.01
2021-08-19 15:52:49.852,-0.105,-0.005
2021-08-19 15:52:49.856,-0.085,0.015
2021-08-19 15:52:49.860,-0.075,0.04
2021-08-19 15:52:49.864,-0.045,0.01
2021-08-19 15:52:49.868,-0.005,0.015
2021-08-19 15:52:49.872,0.06,0.03
2021-08-19 15:52:49.876,0.195,0.02
2021-08-19 15:52:49.880,0.285,0.03
2021-08-19 15:52:49.884,0.22,0.07
2021-08-19 15:52:49.888,0.0,0.115
2021-08-19 15:52:49.892,-0.32,0.21
2021-08-19 15:52:49.896,-0.75,0.22
2021-08-19 15:52:49.900,-1.22,-0.02
2021-08-19 15:52:49.904,-1.605,-0.48
2021-08-19 15:52:49.908,-1.875,-1.09
2021-08-19 15:52:49.992,-0.54,-1.86
2021-08-19 15:52:49.996,-0.395,-1.51
2021-08-19 15:52:50.000,-0.255,-1.195
2021-08-19 15:52:50.004,-0.135,-0.935
2021-08-19 15:52:50.008,-0.06,-0.69
2021-08-19 15:52:50.012,-0.055,-0.505
2021-08-19 15:52:50.016,-0.04,-0.33
2021-08-19 15:52:50.020,0.0,-0.16
2021-08-19 15:52:50.024,0.045,0.01
2021-08-19 15:52:50.028,0.07,0.14
2021-08-19 15:52:50.032,0.1,0.27
2021-08-19 15:52:50.036,0.115,0.395
2021-08-19 15:52:50.040,0.15,0.485
2021-08-19 15:52:50.044,0.17,0.505
2021-08-19 15:52:50.048,0.2,0.52
2021-08-19 15:52:50.052,0.205,0.53
2021-08-19 15:52:50.056,0.235,0.595
2021-08-19 15:52:50.060,0.245,0.625
2021-08-19 15:52:50.064,0.285,0.62
2021-08-19 15:52:50.068,0.29,0.625
2021-08-19 15:52:50.072,0.335,0.64
2021-08-19 15:52:50.076,0.32,0.685
2021-08-19 15:52:50.080,0.345,0.7
2021-08-19 15:52:50.084,0.365,0.73
2021-08-19 15:52:50.088,0.39,0.745
2021-08-19 15:52:50.092,0.41,0.775
2021-08-19 15:52:50.096,0.415,0.8
2021-08-19 15:52:50.100,0.42,0.805
2021-08-19 15:52:50.104,0.43,0.8
2021-08-19 15:52:50.108,0.495,0.835
2021-08-19 15:52:50.112,0.54,0.87
2021-08-19 15:52:50.116,0.555,0.91
2021-08-19 15:52:50.120,0.525,0.91
2021-08-19 15:52:50.124,0.51,0.965
2021-08-19 15:52:50.128,0.475,1.02
2021-08-19 15:52:50.132,0.48,1.055
2021-08-19 15:52:50.136,0.495,1.07
2021-08-19 15:52:50.140,0.47,1.095
2021-08-19 15:52:50.144,0.475,1.09
2021-08-19 15:52:50.148,0.48,1.11
2021-08-19 15:52:50.152,0.525,1.14
2021-08-19 15:52:50.156,0.525,1.18
2021-08-19 15:52:50.160,0.54,1.225
2021-08-19 15:52:50.164,0.515,1.23
2021-08-19 15:52:50.168,0.495,1.26
2021-08-19 15:52:50.172,0.48,1.275
2021-08-19 15:52:50.176,0.485,1.295
2021-08-19 15:52:50.180,0.47,1.29
2021-08-19 15:52:50.184,0.465,1.295
2021-08-19 15:52:50.188,0.46,1.325
2021-08-19 15:52:50.192,0.41,1.345
2021-08-19 15:52:50.196,0.41,1.345
2021-08-19 15:52:50.200,0.39,1.32
2021-08-19 15:52:50.204,0.395,1.32
2021-08-19 15:52:50.208,0.36,1.32
2021-08-19 15:52:50.212,0.31,1.29
2021-08-19 15:52:50.216,0.265,1.285
2021-08-19 15:52:50.220,0.24,1.23
2021-08-19 15:52:50.224,0.215,1.17
2021-08-19 15:52:50.228,0.155,1.07
2021-08-19 15:52:50.232,0.115,1.0
2021-08-19 15:52:50.236,0.075,0.93
2021-08-19 15:52:50.240,0.03,0.845
2021-08-19 15:52:50.244,0.02,0.76
2021-08-19 15:52:50.248,0.01,0.685
2021-08-19 15:52:50.252,0.0,0.565
2021-08-19 15:52:50.256,-0.025,0.515
2021-08-19 15:52:50.260,-0.05,0.475
2021-08-19 15:52:50.264,-0.08,0.42
2021-08-19 15:52:50.268,-0.09,0.365
2021-08-19 15:52:50.272,-0.08,0.33
2021-08-19 15:52:50.276,-0.11,0.265
2021-08-19 15:52:50.280,-0.13,0.185
2021-08-19 15:52:50.284,-0.125,0.145
2021-08-19 15:52:50.288,-0.13,0.15
2021-08-19 15:52:50.292,-0.105,0.105
2021-08-19 15:52:50.296,-0.12,0.05
2021-08-19 15:52:50.300,-0.11,0.05
2021-08-19 15:52:50.304,-0.1,0.055
2021-08-19 15:52:50.308,-0.09,0.095
2021-08-19 15:52:50.312,-0.08,0.09
2021-08-19 15:52:50.316,-0.07,0.05
2021-08-19 15:52:50.320,-0.04,0.03
2021-08-19 15:52:50.324,-0.02,0.05
2021-08-19 15:52:50.328,-0.025,0.07
2021-08-19 15:52:50.332,-0.04,0.12
2021-08-19 15:52:50.336,-0.02,0.105
2021-08-19 15:52:50.340,0.035,0.1
2021-08-19 15:52:50.344,0.06,0.11
2021-08-19 15:52:50.348,0.1,0.13
2021-08-19 15:52:50.352,0.11,0.085
2021-08-19 15:52:50.356,0.105,0.07
2021-08-19 15:52:50.360,0.075,0.15
2021-08-19 15:52:50.364,0.055,0.205
2021-08-19 15:52:50.368,0.025,0.27
2021-08-19 15:52:50.372,-0.03,0.265
2021-08-19 15:52:50.376,-0.07,0.235
2021-08-19 15:52:50.380,-0.085,0.195
2021-08-19 15:52:50.384,-0.105,0.18
2021-08-19 15:52:50.388,-0.115,0.2
2021-08-19 15:52:50.392,-0.12,0.185
2021-08-19 15:52:50.396,-0.115,0.125
2021-08-19 15:52:50.400,-0.115,0.115
2021-08-19 15:52:50.404,-0.145,0.135
2021-08-19 15:52:50.408,-0.14,0.16
2021-08-19 15:52:50.412,-0.145,0.17
2021-08-19 15:52:50.416,-0.175,0.135
2021-08-19 15:52:50.420,-0.18,0.13
2021-08-19 15:52:50.424,-0.2,0.105
2021-08-19 15:52:50.428,-0.2,0.08
2021-08-19 15:52:50.432,-0.225,0.12
2021-08-19 15:52:50.436,-0.2,0.15
2021-08-19 15:52:50.440,-0.2,0.145
2021-08-19 15:52:50.444,-0.195,0.09
2021-08-19 15:52:50.448,-0.22,0.06
2021-08-19 15:52:50.452,-0.2,0.085
2021-08-19 15:52:50.456,-0.22,0.13
2021-08-19 15:52:50.460,-0.255,0.14
2021-08-19 15:52:50.464,-0.25,0.12
2021-08-19 15:52:50.468,-0.26,0.11
2021-08-19 15:52:50.472,-0.25,0.095
2021-08-19 15:52:50.476,-0.22,0.085
2021-08-19 15:52:50.480,-0.22,0.045
2021-08-19 15:52:50.484,-0.22,0.08
2021-08-19 15:52:50.488,-0.2,0.055
2021-08-19 15:52:50.492,-0.2,0.065
2021-08-19 15:52:50.496,-0.17,0.055
2021-08-19 15:52:50.500,-0.18,0.04
2021-08-19 15:52:50.504,-0.195,-0.005
2021-08-19 15:52:50.508,-0.215,0.04
2021-08-19 15:52:50.512,-0.2,0.02
2021-08-19 15:52:50.516,-0.17,0.005
2021-08-19 15:52:50.520,-0.18,-0.03
2021-08-19 15:52:50.524,-0.19,-0.025
2021-08-19 15:52:50.528,-0.15,-0.06
2021-08-19 15:52:50.532,-0.135,-0.065
2021-08-19 15:52:50.536,-0.145,-0.06
2021-08-19 15:52:50.540,-0.115,-0.03
2021-08-19 15:52:50.544,-0.115,-0.025
2021-08-19 15:52:50.548,-0.1,0.04
2021-08-19 15:52:50.552,-0.08,0.08
