Time,ECG1,ECG2
2021-08-19 19:23:09.392,-0.555,0.115
2021-08-19 19:23:09.396,-0.545,0.09
2021-08-19 19:23:09.400,-0.52,0.09
2021-08-19 19:23:09.404,-0.51,0.07
2021-08-19 19:23:09.408,-0.5,0.05
2021-08-19 19:23:09.412,-0.485,0.03
2021-08-19 19:23:09.416,-0.485,0.015
2021-08-19 19:23:09.420,-0.455,0.005
2021-08-19 19:23:09.424,-0.465,0.0
2021-08-19 19:23:09.428,-0.44,-0.04
2021-08-19 19:23:09.432,-0.42,-0.03
2021-08-19 19:23:09.436,-0.41,-0.055
2021-08-19 19:23:09.440,-0.39,-0.065
2021-08-19 19:23:09.444,-0.385,-0.08
2021-08-19 19:23:09.448,-0.36,-0.09
2021-08-19 19:23:09.452,-0.345,-0.085
2021-08-19 19:23:09.456,-0.325,-0.09
2021-08-19 19:23:09.460,-0.32,-0.065
2021-08-19 19:23:09.464,-0.32,-0.08
2021-08-19 19:23:09.468,-0.285,-0.07
2021-08-19 19:23:09.472,-0.26,-0.075
2021-08-19 19:23:09.476,-0.255,-0.075
2021-08-19 19:23:09.480,-0.22,-0.06
2021-08-19 19:23:09.484,-0.22,-0.07
2021-08-19 19:23:09.488,-0.22,-0.08
2021-08-19 19:23:09.492,-0.19,-0.06
2021-08-19 19:23:09.496,-0.16,-0.04
2021-08-19 19:23:09.500,-0.115,-0.005
2021-08-19 19:23:09.504,-0.09,0.005
2021-08-19 19:23:09.508,-0.085,0.015
2021-08-19 19:23:09.512,-0.075,0.03
2021-08-19 19:23:09.516,-0.04,0.025
2021-08-19 19:23:09.520,-0.035,0.045
2021-08-19 19:23:09.524,-0.065,0.06
2021-08-19 19:23:09.528,-0.07,0.085
2021-08-19 19:23:09.532,-0.085,0.065
2021-08-19 19:23:09.536,-0.04,0.07
2021-08-19 19:23:09.540,-0.015,0.08
2021-08-19 19:23:09.544,0.02,0.07
2021-08-19 19:23:09.548,0.025,0.03
2021-08-19 19:23:09.552,0.045,-0.015
2021-08-19 19:23:09.556,-0.015,-0.07
2021-08-19 19:23:09.560,-0.085,-0.17
2021-08-19 19:23:09.564,-0.175,-0.3
2021-08-19 19:23:09.568,-0.16,-0.475
2021-08-19 19:23:09.572,0.015,-0.68
2021-08-19 19:23:09.576,0.325,-0.955
2021-08-19 19:23:09.580,0.665,-1.255
2021-08-19 19:23:09.584,0.925,-1.615
2021-08-19 19:23:09.588,1.005,-1.86
2021-08-19 19:23:09.592,0.825,-1.88
2021-08-19 19:23:09.596,0.41,-1.605
2021-08-19 19:23:09.600,0.03,-1.11
2021-08-19 19:23:09.604,-0.185,-0.7
2021-08-19 19:23:09.608,-0.305,-0.43
2021-08-19 19:23:09.612,-0.36,-0.265
2021-08-19 19:23:09.616,-0.365,-0.155
2021-08-19 19:23:09.620,-0.41,-0.05
2021-08-19 19:23:09.624,-0.43,0.01
2021-08-19 19:23:09.628,-0.445,0.035
2021-08-19 19:23:09.632,-0.455,0.04
2021-08-19 19:23:09.636,-0.465,0.035
2021-08-19 19:23:09.640,-0.48,0.03
2021-08-19 19:23:09.644,-0.47,0.025
2021-08-19 19:23:09.648,-0.49,0.015
2021-08-19 19:23:09.652,-0.485,0.02
2021-08-19 19:23:09.656,-0.505,0.04
2021-08-19 19:23:09.660,-0.525,0.04
2021-08-19 19:23:09.664,-0.505,0.03
2021-08-19 19:23:09.668,-0.47,0.055
2021-08-19 19:23:09.672,-0.475,0.04
2021-08-19 19:23:09.676,-0.46,0.04
2021-08-19 19:23:09.680,-0.43,0.055
2021-08-19 19:23:09.684,-0.41,0.07
2021-08-19 19:23:09.688,-0.405,0.075
2021-08-19 19:23:09.692,-0.375,0.105
2021-08-19 19:23:09.696,-0.345,0.13
2021-08-19 19:23:09.700,-0.34,0.135
2021-08-19 19:23:09.704,-0.34,0.17
2021-08-19 19:23:09.708,-0.35,0.18
2021-08-19 19:23:09.712,-0.35,0.19
2021-08-19 19:23:09.716,-0.31,0.2
2021-08-19 19:23:09.720,-0.35,0.195
2021-08-19 19:23:09.724,-0.365,0.22
2021-08-19 19:23:09.728,-0.415,0.2
2021-08-19 19:23:09.732,-0.45,0.22
2021-08-19 19:23:09.736,-0.5,0.23
2021-08-19 19:23:09.740,-0.53,0.23
2021-08-19 19:23:09.744,-0.565,0.25
2021-08-19 19:23:09.748,-0.575,0.265
2021-08-19 19:23:09.752,-0.575,0.255
2021-08-19 19:23:09.756,-0.56,0.26
2021-08-19 19:23:09.760,-0.56,0.235
2021-08-19 19:23:09.764,-0.525,0.18
2021-08-19 19:23:09.768,-0.52,0.165
2021-08-19 19:23:09.772,-0.515,0.14
2021-08-19 19:23:09.776,-0.495,0.115
2021-08-19 19:23:09.780,-0.46,0.075
2021-08-19 19:23:09.784,-0.44,0.08
2021-08-19 19:23:09.788,-0.435,0.03
2021-08-19 19:23:09.792,-0.42,0.005
2021-08-19 19:23:09.796,-0.405,-0.04
2021-08-19 19:23:09.800,-0.39,-0.06
2021-08-19 19:23:09.804,-0.37,-0.08
2021-08-19 19:23:09.808,-0.365,-0.095
2021-08-19 19:23:09.812,-0.36,-0.11
2021-08-19 19:23:09.816,-0.35,-0.105
2021-08-19 19:23:09.820,-0.325,-0.125
2021-08-19 19:23:09.824,-0.3,-0.12
2021-08-19 19:23:09.828,-0.29,-0.11
2021-08-19 19:23:09.832,-0.3,-0.12
2021-08-19 19:23:09.836,-0.3,-0.14
2021-08-19 19:23:09.840,-0.28,-0.125
2021-08-19 19:23:09.844,-0.285,-0.13
2021-08-19 19:23:09.848,-0.26,-0.12
2021-08-19 19:23:09.852,-0.245,-0.115
2021-08-19 19:23:09.856,-0.25,-0.095
2021-08-19 19:23:09.860,-0.23,-0.12
2021-08-19 19:23:09.864,-0.225,-0.11
2021-08-19 19:23:09.868,-0.225,-0.09
2021-08-19 19:23:09.872,-0.2,-0.105
2021-08-19 19:23:09.876,-0.18,-0.07
2021-08-19 19:23:09.880,-0.175,-0.07
2021-08-19 19:23:09.884,-0.17,-0.05
2021-08-19 19:23:09.888,-0.19,-0.045
2021-08-19 19:23:09.892,-0.15,-0.05
2021-08-19 19:23:09.896,-0.165,0.0
2021-08-19 19:23:09.900,-0.14,-0.02
2021-08-19 19:23:09.904,-0.14,-0.02
2021-08-19 19:23:09.908,-0.175,-0.035
2021-08-19 19:23:09.912,-0.175,0.0
2021-08-19 19:23:09.916,-0.19,0.015
2021-08-19 19:23:09.920,-0.215,0.01
2021-08-19 19:23:09.924,-0.255,0.045
2021-08-19 19:23:09.928,-0.3,0.045
2021-08-19 19:23:09.932,-0.325,0.08
2021-08-19 19:23:09.936,-0.355,0.09
2021-08-19 19:23:09.940,-0.355,0.11
2021-08-19 19:23:09.944,-0.34,0.125
2021-08-19 19:23:09.948,-0.355,0.095
2021-08-19 19:23:09.952,-0.35,0.07
2021-08-19 19:23:09.956,-0.34,0.06
2021-08-19 19:23:09.960,-0.32,0.035
2021-08-19 19:23:09.964,-0.295,0.03
2021-08-19 19:23:09.968,-0.29,0.0
2021-08-19 19:23:09.972,-0.275,-0.01
2021-08-19 19:23:09.976,-0.29,-0.055
2021-08-19 19:23:09.980,-0.28,-0.08
2021-08-19 19:23:09.984,-0.285,-0.105
2021-08-19 19:23:09.988,-0.29,-0.13
2021-08-19 19:23:09.992,-0.28,-0.115
2021-08-19 19:23:09.996,-0.295,-0.15
2021-08-19 19:23:10.000,-0.32,-0.15
2021-08-19 19:23:10.004,-0.33,-0.17
2021-08-19 19:23:10.008,-0.32,-0.14
2021-08-19 19:23:10.012,-0.3,-0.12
2021-08-19 19:23:10.016,-0.3,-0.135
2021-08-19 19:23:10.020,-0.32,-0.14
2021-08-19 19:23:10.024,-0.31,-0.145
2021-08-19 19:23:10.028,-0.295,-0.155
2021-08-19 19:23:10.032,-0.29,-0.14
2021-08-19 19:23:10.036,-0.25,-0.13
2021-08-19 19:23:10.040,-0.235,-0.16
2021-08-19 19:23:10.044,-0.225,-0.16
2021-08-19 19:23:10.048,-0.205,-0.13
2021-08-19 19:23:10.052,-0.2,-0.14
2021-08-19 19:23:10.056,-0.185,-0.11
2021-08-19 19:23:10.060,-0.17,-0.08
2021-08-19 19:23:10.064,-0.175,-0.07
2021-08-19 19:23:10.068,-0.165,-0.055
2021-08-19 19:23:10.072,-0.16,-0.03
2021-08-19 19:23:10.076,-0.14,-0.02
2021-08-19 19:23:10.080,-0.17,-0.045
2021-08-19 19:23:10.084,-0.14,-0.03
2021-08-19 19:23:10.088,-0.12,-0.04
2021-08-19 19:23:10.092,-0.125,-0.05
2021-08-19 19:23:10.096,-0.13,-0.03
2021-08-19 19:23:10.100,-0.16,-0.025
2021-08-19 19:23:10.104,-0.17,-0.03
2021-08-19 19:23:10.108,-0.2,-0.02
2021-08-19 19:23:10.112,-0.26,0.005
2021-08-19 19:23:10.116,-0.275,0.0
2021-08-19 19:23:10.120,-0.29,0.005
2021-08-19 19:23:10.124,-0.31,0.02
2021-08-19 19:23:10.128,-0.34,0.035
2021-08-19 19:23:10.132,-0.365,0.015
2021-08-19 19:23:10.136,-0.37,0.0
2021-08-19 19:23:10.140,-0.37,0.0
2021-08-19 19:23:10.144,-0.345,-0.02
2021-08-19 19:23:10.148,-0.33,-0.025
2021-08-19 19:23:10.152,-0.225,-0.045
2021-08-19 19:23:10.156,-0.125,-0.04
2021-08-19 19:23:10.160,-0.03,-0.085
2021-08-19 19:23:10.164,0.07,-0.125
2021-08-19 19:23:10.168,0.135,-0.18
2021-08-19 19:23:10.172,0.22,-0.3
2021-08-19 19:23:10.176,0.27,-0.385
2021-08-19 19:23:10.180,0.31,-0.48
2021-08-19 19:23:10.184,0.28,-0.58
2021-08-19 19:23:10.188,0.245,-0.73
2021-08-19 19:23:10.192,0.315,-0.91
2021-08-19 19:23:10.196,0.49,-1.17
2021-08-19 19:23:10.200,0.81,-1.44
2021-08-19 19:23:10.204,1.05,-1.7
2021-08-19 19:23:10.208,1.07,-1.9
2021-08-19 19:23:10.212,0.835,-1.91
2021-08-19 19:23:10.216,0.375,-1.64
2021-08-19 19:23:10.220,-0.04,-1.13
2021-08-19 19:23:10.224,-0.255,-0.72
2021-08-19 19:23:10.228,-0.315,-0.52
2021-08-19 19:23:10.232,-0.33,-0.35
2021-08-19 19:23:10.236,-0.325,-0.2
2021-08-19 19:23:10.240,-0.34,-0.1
2021-08-19 19:23:10.244,-0.33,0.0
2021-08-19 19:23:10.248,-0.35,0.045
2021-08-19 19:23:10.252,-0.355,0.05
2021-08-19 19:23:10.256,-0.34,0.065
2021-08-19 19:23:10.260,-0.32,0.095
2021-08-19 19:23:10.264,-0.305,0.105
2021-08-19 19:23:10.268,-0.31,0.125
2021-08-19 19:23:10.272,-0.285,0.145
2021-08-19 19:23:10.276,-0.28,0.14
2021-08-19 19:23:10.280,-0.275,0.185
2021-08-19 19:23:10.284,-0.26,0.19
2021-08-19 19:23:10.288,-0.255,0.21
2021-08-19 19:23:10.292,-0.26,0.2
2021-08-19 19:23:10.296,-0.27,0.22
2021-08-19 19:23:10.300,-0.29,0.24
2021-08-19 19:23:10.304,-0.33,0.24
2021-08-19 19:23:10.308,-0.355,0.245
2021-08-19 19:23:10.312,-0.41,0.24
2021-08-19 19:23:10.316,-0.46,0.27
2021-08-19 19:23:10.320,-0.47,0.29
2021-08-19 19:23:10.324,-0.49,0.3
2021-08-19 19:23:10.328,-0.49,0.335
2021-08-19 19:23:10.332,-0.505,0.31
2021-08-19 19:23:10.336,-0.5,0.28
2021-08-19 19:23:10.340,-0.505,0.255
2021-08-19 19:23:10.344,-0.51,0.22
2021-08-19 19:23:10.348,-0.5,0.195
2021-08-19 19:23:10.352,-0.485,0.17
2021-08-19 19:23:10.356,-0.525,0.16
2021-08-19 19:23:10.360,-0.54,0.15
2021-08-19 19:23:10.364,-0.52,0.14
2021-08-19 19:23:10.368,-0.52,0.12
2021-08-19 19:23:10.372,-0.515,0.1
2021-08-19 19:23:10.376,-0.505,0.115
2021-08-19 19:23:10.380,-0.52,0.115
2021-08-19 19:23:10.384,-0.525,0.115
2021-08-19 19:23:10.388,-0.51,0.115
2021-08-19 19:23:10.392,-0.51,0.12
2021-08-19 19:23:10.396,-0.505,0.13
2021-08-19 19:23:10.400,-0.48,0.11
2021-08-19 19:23:10.404,-0.46,0.12
2021-08-19 19:23:10.408,-0.47,0.12
2021-08-19 19:23:10.412,-0.44,0.115
2021-08-19 19:23:10.416,-0.45,0.1
2021-08-19 19:23:10.420,-0.42,0.1
2021-08-19 19:23:10.424,-0.425,0.085
2021-08-19 19:23:10.428,-0.365,0.065
2021-08-19 19:23:10.432,-0.35,0.04
2021-08-19 19:23:10.436,-0.34,0.07
2021-08-19 19:23:10.440,-0.315,0.02
2021-08-19 19:23:10.444,-0.28,-0.005
2021-08-19 19:23:10.448,-0.26,-0.005
2021-08-19 19:23:10.452,-0.21,0.02
2021-08-19 19:23:10.456,-0.19,0.02
2021-08-19 19:23:10.460,-0.15,0.005
2021-08-19 19:23:10.464,-0.145,-0.015
2021-08-19 19:23:10.468,-0.14,0.025
2021-08-19 19:23:10.472,-0.13,0.03
2021-08-19 19:23:10.476,-0.12,0.025
2021-08-19 19:23:10.480,-0.095,0.035
2021-08-19 19:23:10.484,-0.1,0.025
2021-08-19 19:23:10.488,-0.08,0.02
2021-08-19 19:23:10.492,-0.125,0.04
2021-08-19 19:23:10.496,-0.15,0.06
2021-08-19 19:23:10.500,-0.205,0.04
2021-08-19 19:23:10.504,-0.24,0.06
2021-08-19 19:23:10.508,-0.275,0.065
2021-08-19 19:23:10.512,-0.3,0.075
2021-08-19 19:23:10.516,-0.295,0.075
2021-08-19 19:23:10.520,-0.28,0.075
2021-08-19 19:23:10.524,-0.275,0.07
2021-08-19 19:23:10.528,-0.25,0.04
2021-08-19 19:23:10.532,-0.22,0.025
2021-08-19 19:23:10.536,-0.195,0.0
2021-08-19 19:23:10.540,-0.22,-0.045
2021-08-19 19:23:10.544,-0.225,-0.02
2021-08-19 19:23:10.548,-0.22,-0.02
2021-08-19 19:23:10.552,-0.235,-0.015
2021-08-19 19:23:10.556,-0.24,-0.02
2021-08-19 19:23:10.560,-0.23,-0.045
2021-08-19 19:23:10.564,-0.2,-0.04
2021-08-19 19:23:10.568,-0.175,-0.04
2021-08-19 19:23:10.572,-0.12,-0.055
2021-08-19 19:23:10.576,-0.055,-0.07
2021-08-19 19:23:10.580,-0.005,-0.095
2021-08-19 19:23:10.584,0.04,-0.145
2021-08-19 19:23:10.588,0.055,-0.22
2021-08-19 19:23:10.592,0.03,-0.305
2021-08-19 19:23:10.596,0.01,-0.42
2021-08-19 19:23:10.600,-0.05,-0.54
2021-08-19 19:23:10.604,0.0,-0.73
2021-08-19 19:23:10.608,0.2,-0.92
2021-08-19 19:23:10.612,0.505,-1.18
2021-08-19 19:23:10.616,0.835,-1.53
2021-08-19 19:23:10.620,1.1,-1.885
2021-08-19 19:23:10.632,0.49,-1.66
2021-08-19 19:23:10.636,0.08,-1.145
2021-08-19 19:23:10.640,-0.165,-0.72
2021-08-19 19:23:10.644,-0.255,-0.47
2021-08-19 19:23:10.648,-0.26,-0.295
2021-08-19 19:23:10.652,-0.26,-0.13
2021-08-19 19:23:10.656,-0.27,-0.02
2021-08-19 19:23:10.660,-0.29,0.05
2021-08-19 19:23:10.664,-0.28,0.105
2021-08-19 19:23:10.668,-0.295,0.115
2021-08-19 19:23:10.672,-0.275,0.135
2021-08-19 19:23:10.676,-0.285,0.13
2021-08-19 19:23:10.680,-0.285,0.15
2021-08-19 19:23:10.684,-0.32,0.155
2021-08-19 19:23:10.688,-0.33,0.175
2021-08-19 19:23:10.692,-0.385,0.185
2021-08-19 19:23:10.696,-0.44,0.19
2021-08-19 19:23:10.700,-0.485,0.22
2021-08-19 19:23:10.704,-0.51,0.235
2021-08-19 19:23:10.708,-0.535,0.235
2021-08-19 19:23:10.712,-0.535,0.245
2021-08-19 19:23:10.716,-0.555,0.255
2021-08-19 19:23:10.720,-0.555,0.25
2021-08-19 19:23:10.724,-0.545,0.205
2021-08-19 19:23:10.728,-0.52,0.185
2021-08-19 19:23:10.732,-0.51,0.155
2021-08-19 19:23:10.736,-0.505,0.13
2021-08-19 19:23:10.740,-0.5,0.11
2021-08-19 19:23:10.744,-0.505,0.09
2021-08-19 19:23:10.748,-0.515,0.085
2021-08-19 19:23:10.752,-0.525,0.095
2021-08-19 19:23:10.756,-0.53,0.1
2021-08-19 19:23:10.760,-0.535,0.11
2021-08-19 19:23:10.764,-0.52,0.105
2021-08-19 19:23:10.768,-0.535,0.105
2021-08-19 19:23:10.772,-0.51,0.115
2021-08-19 19:23:10.776,-0.485,0.1
2021-08-19 19:23:10.780,-0.5,0.12
2021-08-19 19:23:10.784,-0.48,0.105
2021-08-19 19:23:10.788,-0.475,0.115
2021-08-19 19:23:10.792,-0.47,0.115
2021-08-19 19:23:10.796,-0.45,0.105
2021-08-19 19:23:10.800,-0.465,0.12
2021-08-19 19:23:10.804,-0.45,0.11
2021-08-19 19:23:10.808,-0.435,0.1
2021-08-19 19:23:10.812,-0.395,0.09
2021-08-19 19:23:10.816,-0.37,0.08
2021-08-19 19:23:10.820,-0.385,0.065
2021-08-19 19:23:10.824,-0.37,0.06
2021-08-19 19:23:10.828,-0.34,0.055
2021-08-19 19:23:10.832,-0.365,0.045
2021-08-19 19:23:10.836,-0.31,0.065
2021-08-19 19:23:10.840,-0.3,0.03
2021-08-19 19:23:10.844,-0.27,0.035
2021-08-19 19:23:10.848,-0.26,-0.005
2021-08-19 19:23:10.852,-0.245,0.0
2021-08-19 19:23:10.856,-0.22,-0.02
2021-08-19 19:23:10.860,-0.2,0.0
2021-08-19 19:23:10.864,-0.18,-0.005
2021-08-19 19:23:10.868,-0.185,-0.01
2021-08-19 19:23:10.872,-0.195,0.0
2021-08-19 19:23:10.876,-0.21,-0.025
2021-08-19 19:23:10.880,-0.25,-0.015
2021-08-19 19:23:10.884,-0.28,0.0
2021-08-19 19:23:10.888,-0.27,0.02
2021-08-19 19:23:10.892,-0.3,0.015
2021-08-19 19:23:10.896,-0.325,0.04
2021-08-19 19:23:10.900,-0.32,0.045
2021-08-19 19:23:10.904,-0.36,0.055
2021-08-19 19:23:10.908,-0.36,0.065
2021-08-19 19:23:10.912,-0.375,0.055
2021-08-19 19:23:10.916,-0.38,0.04
2021-08-19 19:23:10.920,-0.38,0.035
2021-08-19 19:23:10.924,-0.38,0.035
2021-08-19 19:23:10.928,-0.37,0.005
2021-08-19 19:23:10.932,-0.375,0.01
2021-08-19 19:23:10.936,-0.345,0.0
2021-08-19 19:23:10.940,-0.325,-0.025
2021-08-19 19:23:10.944,-0.34,-0.035
2021-08-19 19:23:10.948,-0.355,-0.055
2021-08-19 19:23:10.952,-0.36,-0.075
2021-08-19 19:23:10.956,-0.345,-0.105
2021-08-19 19:23:10.960,-0.33,-0.08
2021-08-19 19:23:10.964,-0.3,-0.11
2021-08-19 19:23:10.968,-0.23,-0.12
2021-08-19 19:23:10.972,-0.155,-0.14
2021-08-19 19:23:10.976,-0.07,-0.14
2021-08-19 19:23:10.980,-0.02,-0.185
2021-08-19 19:23:10.984,0.015,-0.22
2021-08-19 19:23:10.988,0.04,-0.31
2021-08-19 19:23:10.992,0.05,-0.385
2021-08-19 19:23:10.996,0.07,-0.465
2021-08-19 19:23:11.000,0.04,-0.61
2021-08-19 19:23:11.004,0.09,-0.775
2021-08-19 19:23:11.008,0.29,-0.98
2021-08-19 19:23:11.012,0.635,-1.245
2021-08-19 19:23:11.016,0.96,-1.51
2021-08-19 19:23:11.020,1.165,-1.81
2021-08-19 19:23:11.024,1.15,-1.945
2021-08-19 19:23:11.028,0.84,-1.84
2021-08-19 19:23:11.032,0.36,-1.415
2021-08-19 19:23:11.036,-0.01,-0.905
2021-08-19 19:23:11.040,-0.165,-0.56
2021-08-19 19:23:11.044,-0.26,-0.345
2021-08-19 19:23:11.048,-0.27,-0.185
2021-08-19 19:23:11.052,-0.295,-0.05
2021-08-19 19:23:11.056,-0.3,0.05
2021-08-19 19:23:11.060,-0.325,0.12
2021-08-19 19:23:11.064,-0.34,0.16
2021-08-19 19:23:11.068,-0.365,0.18
2021-08-19 19:23:11.072,-0.39,0.21
2021-08-19 19:23:11.076,-0.425,0.225
2021-08-19 19:23:11.080,-0.45,0.225
2021-08-19 19:23:11.084,-0.46,0.22
2021-08-19 19:23:11.088,-0.47,0.235
2021-08-19 19:23:11.092,-0.5,0.25
2021-08-19 19:23:11.096,-0.505,0.235
2021-08-19 19:23:11.100,-0.525,0.235
2021-08-19 19:23:11.104,-0.535,0.235
2021-08-19 19:23:11.108,-0.54,0.22
2021-08-19 19:23:11.112,-0.57,0.21
2021-08-19 19:23:11.116,-0.58,0.19
2021-08-19 19:23:11.120,-0.58,0.185
2021-08-19 19:23:11.124,-0.585,0.145
2021-08-19 19:23:11.128,-0.535,0.135
2021-08-19 19:23:11.132,-0.555,0.125
2021-08-19 19:23:11.136,-0.535,0.11
2021-08-19 19:23:11.140,-0.525,0.12
2021-08-19 19:23:11.144,-0.535,0.1
2021-08-19 19:23:11.148,-0.56,0.08
2021-08-19 19:23:11.152,-0.56,0.075
2021-08-19 19:23:11.156,-0.56,0.08
2021-08-19 19:23:11.160,-0.55,0.08
2021-08-19 19:23:11.164,-0.585,0.06
2021-08-19 19:23:11.168,-0.55,0.075
2021-08-19 19:23:11.172,-0.55,0.055
2021-08-19 19:23:11.176,-0.53,0.08
2021-08-19 19:23:11.180,-0.53,0.07
2021-08-19 19:23:11.184,-0.52,0.08
2021-08-19 19:23:11.188,-0.51,0.06
2021-08-19 19:23:11.192,-0.48,0.09
2021-08-19 19:23:11.196,-0.45,0.05
2021-08-19 19:23:11.200,-0.445,0.075
2021-08-19 19:23:11.204,-0.43,0.085
2021-08-19 19:23:11.208,-0.425,0.09
2021-08-19 19:23:11.212,-0.42,0.11
2021-08-19 19:23:11.216,-0.405,0.09
2021-08-19 19:23:11.220,-0.415,0.1
2021-08-19 19:23:11.224,-0.37,0.105
2021-08-19 19:23:11.228,-0.36,0.085
2021-08-19 19:23:11.232,-0.36,0.1
2021-08-19 19:23:11.236,-0.335,0.09
2021-08-19 19:23:11.240,-0.33,0.095
2021-08-19 19:23:11.244,-0.33,0.075
2021-08-19 19:23:11.248,-0.3,0.075
2021-08-19 19:23:11.252,-0.26,0.05
2021-08-19 19:23:11.256,-0.285,0.075
2021-08-19 19:23:11.260,-0.27,0.1
2021-08-19 19:23:11.264,-0.275,0.09
2021-08-19 19:23:11.268,-0.3,0.115
2021-08-19 19:23:11.272,-0.29,0.095
2021-08-19 19:23:11.276,-0.295,0.095
2021-08-19 19:23:11.280,-0.305,0.105
2021-08-19 19:23:11.284,-0.3,0.13
2021-08-19 19:23:11.288,-0.28,0.125
2021-08-19 19:23:11.292,-0.28,0.115
2021-08-19 19:23:11.296,-0.28,0.1
2021-08-19 19:23:11.300,-0.3,0.085
2021-08-19 19:23:11.304,-0.295,0.085
2021-08-19 19:23:11.308,-0.295,0.05
2021-08-19 19:23:11.312,-0.33,0.055
2021-08-19 19:23:11.316,-0.31,0.02
2021-08-19 19:23:11.320,-0.295,0.025
2021-08-19 19:23:11.324,-0.29,0.005
2021-08-19 19:23:11.328,-0.265,-0.015
2021-08-19 19:23:11.332,-0.26,-0.02
2021-08-19 19:23:11.336,-0.23,-0.055
2021-08-19 19:23:11.340,-0.235,-0.05
2021-08-19 19:23:11.344,-0.225,-0.06
2021-08-19 19:23:11.348,-0.15,-0.075
2021-08-19 19:23:11.352,-0.12,-0.095
2021-08-19 19:23:11.356,-0.04,-0.1
2021-08-19 19:23:11.360,-0.005,-0.13
2021-08-19 19:23:11.364,0.02,-0.205
2021-08-19 19:23:11.368,0.03,-0.255
2021-08-19 19:23:11.372,0.02,-0.32
2021-08-19 19:23:11.376,-0.02,-0.425
2021-08-19 19:23:11.380,-0.04,-0.56
2021-08-19 19:23:11.384,0.04,-0.715
2021-08-19 19:23:11.388,0.26,-0.935
2021-08-19 19:23:11.392,0.62,-1.18
2021-08-19 19:23:11.396,0.92,-1.47
2021-08-19 19:23:11.400,1.115,-1.785
2021-08-19 19:23:11.404,1.12,-1.945
2021-08-19 19:23:11.408,0.805,-1.81
2021-08-19 19:23:11.412,0.38,-1.38
2021-08-19 19:23:11.416,0.015,-0.895
2021-08-19 19:23:11.420,-0.16,-0.52
2021-08-19 19:23:11.424,-0.245,-0.305
2021-08-19 19:23:11.428,-0.26,-0.15
2021-08-19 19:23:11.432,-0.275,-0.055
2021-08-19 19:23:11.436,-0.305,0.07
2021-08-19 19:23:11.440,-0.32,0.11
2021-08-19 19:23:11.444,-0.355,0.16
2021-08-19 19:23:11.448,-0.34,0.175
2021-08-19 19:23:11.452,-0.355,0.17
2021-08-19 19:23:11.456,-0.39,0.15
2021-08-19 19:23:11.460,-0.42,0.185
2021-08-19 19:23:11.464,-0.475,0.205
2021-08-19 19:23:11.468,-0.49,0.22
2021-08-19 19:23:11.472,-0.475,0.215
2021-08-19 19:23:11.476,-0.515,0.225
2021-08-19 19:23:11.480,-0.495,0.24
2021-08-19 19:23:11.484,-0.495,0.26
2021-08-19 19:23:11.488,-0.5,0.255
2021-08-19 19:23:11.492,-0.505,0.245
2021-08-19 19:23:11.496,-0.525,0.255
2021-08-19 19:23:11.500,-0.52,0.24
2021-08-19 19:23:11.504,-0.515,0.22
2021-08-19 19:23:11.508,-0.505,0.24
2021-08-19 19:23:11.512,-0.52,0.23
2021-08-19 19:23:11.516,-0.525,0.21
2021-08-19 19:23:11.520,-0.49,0.195
2021-08-19 19:23:11.524,-0.485,0.195
2021-08-19 19:23:11.528,-0.505,0.155
2021-08-19 19:23:11.532,-0.495,0.15
2021-08-19 19:23:11.536,-0.485,0.145
2021-08-19 19:23:11.540,-0.49,0.145
2021-08-19 19:23:11.544,-0.48,0.135
2021-08-19 19:23:11.548,-0.49,0.14
2021-08-19 19:23:11.552,-0.495,0.125
2021-08-19 19:23:11.556,-0.49,0.125
2021-08-19 19:23:11.560,-0.485,0.12
2021-08-19 19:23:11.564,-0.47,0.105
2021-08-19 19:23:11.568,-0.45,0.115
2021-08-19 19:23:11.572,-0.44,0.085
2021-08-19 19:23:11.576,-0.415,0.11
2021-08-19 19:23:11.580,-0.4,0.095
2021-08-19 19:23:11.584,-0.34,0.085
2021-08-19 19:23:11.588,-0.315,0.095
2021-08-19 19:23:11.592,-0.325,0.09
2021-08-19 19:23:11.596,-0.295,0.09
2021-08-19 19:23:11.600,-0.275,0.105
2021-08-19 19:23:11.604,-0.235,0.115
2021-08-19 19:23:11.608,-0.23,0.095
2021-08-19 19:23:11.612,-0.2,0.11
2021-08-19 19:23:11.616,-0.18,0.09
2021-08-19 19:23:11.620,-0.165,0.095
2021-08-19 19:23:11.624,-0.16,0.09
2021-08-19 19:23:11.628,-0.135,0.1
2021-08-19 19:23:11.632,-0.13,0.11
2021-08-19 19:23:11.636,-0.11,0.075
2021-08-19 19:23:11.640,-0.13,0.065
2021-08-19 19:23:11.644,-0.13,0.075
2021-08-19 19:23:11.648,-0.15,0.065
2021-08-19 19:23:11.652,-0.17,0.09
2021-08-19 19:23:11.656,-0.19,0.105
2021-08-19 19:23:11.660,-0.22,0.085
2021-08-19 19:23:11.664,-0.25,0.105
2021-08-19 19:23:11.668,-0.29,0.125
2021-08-19 19:23:11.672,-0.295,0.13
2021-08-19 19:23:11.676,-0.315,0.11
2021-08-19 19:23:11.680,-0.305,0.115
2021-08-19 19:23:11.684,-0.31,0.115
2021-08-19 19:23:11.688,-0.33,0.095
2021-08-19 19:23:11.692,-0.34,0.065
2021-08-19 19:23:11.696,-0.33,0.08
2021-08-19 19:23:11.700,-0.33,0.045
2021-08-19 19:23:11.704,-0.345,0.035
2021-08-19 19:23:11.708,-0.32,0.035
2021-08-19 19:23:11.712,-0.3,0.0
2021-08-19 19:23:11.716,-0.225,-0.02
2021-08-19 19:23:11.720,-0.155,-0.06
2021-08-19 19:23:11.724,-0.1,-0.075
2021-08-19 19:23:11.728,-0.035,-0.15
2021-08-19 19:23:11.732,-0.01,-0.2
2021-08-19 19:23:11.736,-0.055,-0.275
2021-08-19 19:23:11.740,-0.085,-0.33
2021-08-19 19:23:11.744,-0.125,-0.435
2021-08-19 19:23:11.748,-0.185,-0.565
2021-08-19 19:23:11.752,-0.125,-0.74
2021-08-19 19:23:11.756,0.07,-0.945
2021-08-19 19:23:11.760,0.385,-1.19
2021-08-19 19:23:11.764,0.73,-1.51
2021-08-19 19:23:11.768,0.96,-1.83
2021-08-19 19:23:11.776,0.71,-1.935
2021-08-19 19:23:11.780,0.29,-1.545
2021-08-19 19:23:11.784,-0.065,-1.005
2021-08-19 19:23:11.788,-0.255,-0.57
2021-08-19 19:23:11.792,-0.335,-0.36
2021-08-19 19:23:11.796,-0.34,-0.22
2021-08-19 19:23:11.800,-0.32,-0.1
2021-08-19 19:23:11.804,-0.36,0.01
2021-08-19 19:23:11.808,-0.365,0.07
2021-08-19 19:23:11.812,-0.34,0.095
2021-08-19 19:23:11.816,-0.32,0.115
2021-08-19 19:23:11.820,-0.325,0.135
2021-08-19 19:23:11.824,-0.32,0.13
2021-08-19 19:23:11.828,-0.32,0.14
2021-08-19 19:23:11.832,-0.29,0.145
2021-08-19 19:23:11.836,-0.3,0.16
2021-08-19 19:23:11.840,-0.305,0.165
2021-08-19 19:23:11.844,-0.315,0.145
2021-08-19 19:23:11.848,-0.315,0.17
2021-08-19 19:23:11.852,-0.345,0.175
2021-08-19 19:23:11.856,-0.39,0.205
2021-08-19 19:23:11.860,-0.42,0.215
2021-08-19 19:23:11.864,-0.44,0.215
2021-08-19 19:23:11.868,-0.46,0.23
2021-08-19 19:23:11.872,-0.485,0.245
2021-08-19 19:23:11.876,-0.515,0.265
2021-08-19 19:23:11.880,-0.505,0.3
2021-08-19 19:23:11.884,-0.515,0.285
2021-08-19 19:23:11.888,-0.53,0.28
2021-08-19 19:23:11.892,-0.52,0.255
2021-08-19 19:23:11.896,-0.525,0.27
2021-08-19 19:23:11.900,-0.54,0.24
2021-08-19 19:23:11.904,-0.555,0.23
2021-08-19 19:23:11.908,-0.545,0.22
2021-08-19 19:23:11.912,-0.54,0.195
2021-08-19 19:23:11.916,-0.535,0.175
2021-08-19 19:23:11.920,-0.515,0.155
2021-08-19 19:23:11.924,-0.515,0.135
2021-08-19 19:23:11.928,-0.49,0.135
2021-08-19 19:23:11.932,-0.495,0.135
2021-08-19 19:23:11.936,-0.515,0.11
2021-08-19 19:23:11.940,-0.485,0.105
2021-08-19 19:23:11.944,-0.475,0.095
2021-08-19 19:23:11.948,-0.48,0.09
2021-08-19 19:23:11.952,-0.5,0.065
2021-08-19 19:23:11.956,-0.48,0.095
2021-08-19 19:23:11.960,-0.465,0.05
2021-08-19 19:23:11.964,-0.46,0.05
2021-08-19 19:23:11.968,-0.425,0.025
2021-08-19 19:23:11.972,-0.39,0.025
2021-08-19 19:23:11.976,-0.37,0.03
2021-08-19 19:23:11.980,-0.315,0.01
2021-08-19 19:23:11.984,-0.3,-0.005
2021-08-19 19:23:11.988,-0.28,-0.015
2021-08-19 19:23:11.992,-0.26,-0.015
2021-08-19 19:23:11.996,-0.245,0.005
2021-08-19 19:23:12.000,-0.2,0.0
2021-08-19 19:23:12.004,-0.2,0.005
2021-08-19 19:23:12.008,-0.16,0.01
2021-08-19 19:23:12.012,-0.16,0.025
2021-08-19 19:23:12.016,-0.15,0.035
2021-08-19 19:23:12.020,-0.14,0.035
2021-08-19 19:23:12.024,-0.16,0.045
2021-08-19 19:23:12.028,-0.14,0.04
2021-08-19 19:23:12.032,-0.12,0.035
2021-08-19 19:23:12.036,-0.115,0.04
2021-08-19 19:23:12.040,-0.11,0.05
2021-08-19 19:23:12.044,-0.145,0.06
2021-08-19 19:23:12.048,-0.165,0.07
2021-08-19 19:23:12.052,-0.19,0.075
2021-08-19 19:23:12.056,-0.235,0.11
2021-08-19 19:23:12.060,-0.275,0.1
2021-08-19 19:23:12.064,-0.305,0.135
2021-08-19 19:23:12.068,-0.32,0.135
2021-08-19 19:23:12.072,-0.34,0.145
2021-08-19 19:23:12.076,-0.355,0.165
2021-08-19 19:23:12.080,-0.36,0.155
2021-08-19 19:23:12.084,-0.345,0.12
2021-08-19 19:23:12.088,-0.34,0.14
2021-08-19 19:23:12.092,-0.34,0.12
2021-08-19 19:23:12.096,-0.325,0.09
2021-08-19 19:23:12.100,-0.3,0.08
2021-08-19 19:23:12.104,-0.3,0.06
2021-08-19 19:23:12.108,-0.295,0.025
2021-08-19 19:23:12.112,-0.26,-0.01
2021-08-19 19:23:12.116,-0.25,-0.025
2021-08-19 19:23:12.120,-0.21,-0.06
2021-08-19 19:23:12.124,-0.15,-0.075
2021-08-19 19:23:12.128,-0.075,-0.075
2021-08-19 19:23:12.132,-0.035,-0.105
2021-08-19 19:23:12.136,0.01,-0.145
2021-08-19 19:23:12.140,0.035,-0.215
2021-08-19 19:23:12.144,0.055,-0.285
2021-08-19 19:23:12.148,0.02,-0.38
2021-08-19 19:23:12.152,0.0,-0.48
2021-08-19 19:23:12.156,-0.025,-0.635
2021-08-19 19:23:12.160,0.055,-0.82
2021-08-19 19:23:12.164,0.265,-1.06
2021-08-19 19:23:12.168,0.61,-1.335
2021-08-19 19:23:12.172,0.91,-1.675
2021-08-19 19:23:12.176,1.07,-1.95
2021-08-19 19:23:12.184,0.565,-1.825
2021-08-19 19:23:12.188,0.14,-1.32
2021-08-19 19:23:12.192,-0.11,-0.84
2021-08-19 19:23:12.196,-0.235,-0.48
2021-08-19 19:23:12.200,-0.29,-0.28
2021-08-19 19:23:12.204,-0.31,-0.12
2021-08-19 19:23:12.208,-0.29,0.0
2021-08-19 19:23:12.212,-0.27,0.075
2021-08-19 19:23:12.216,-0.28,0.145
2021-08-19 19:23:12.220,-0.295,0.165
2021-08-19 19:23:12.224,-0.315,0.2
2021-08-19 19:23:12.228,-0.3,0.195
2021-08-19 19:23:12.232,-0.295,0.195
2021-08-19 19:23:12.236,-0.305,0.21
2021-08-19 19:23:12.240,-0.29,0.195
2021-08-19 19:23:12.244,-0.32,0.205
2021-08-19 19:23:12.248,-0.335,0.215
2021-08-19 19:23:12.252,-0.35,0.21
2021-08-19 19:23:12.256,-0.41,0.215
2021-08-19 19:23:12.260,-0.42,0.235
2021-08-19 19:23:12.264,-0.465,0.255
2021-08-19 19:23:12.268,-0.49,0.27
2021-08-19 19:23:12.272,-0.49,0.27
2021-08-19 19:23:12.276,-0.495,0.29
2021-08-19 19:23:12.280,-0.51,0.295
2021-08-19 19:23:12.284,-0.51,0.32
2021-08-19 19:23:12.288,-0.52,0.31
2021-08-19 19:23:12.292,-0.515,0.28
2021-08-19 19:23:12.296,-0.505,0.27
2021-08-19 19:23:12.300,-0.48,0.245
2021-08-19 19:23:12.304,-0.455,0.225
2021-08-19 19:23:12.308,-0.45,0.225
2021-08-19 19:23:12.312,-0.455,0.195
2021-08-19 19:23:12.316,-0.43,0.19
2021-08-19 19:23:12.320,-0.425,0.19
2021-08-19 19:23:12.324,-0.43,0.18
2021-08-19 19:23:12.328,-0.42,0.19
2021-08-19 19:23:12.332,-0.41,0.17
2021-08-19 19:23:12.336,-0.4,0.175
2021-08-19 19:23:12.340,-0.39,0.15
2021-08-19 19:23:12.344,-0.395,0.155
2021-08-19 19:23:12.348,-0.405,0.135
2021-08-19 19:23:12.352,-0.405,0.13
2021-08-19 19:23:12.356,-0.405,0.125
2021-08-19 19:23:12.360,-0.395,0.115
2021-08-19 19:23:12.364,-0.37,0.105
2021-08-19 19:23:12.368,-0.355,0.135
2021-08-19 19:23:12.372,-0.335,0.12
2021-08-19 19:23:12.376,-0.315,0.085
2021-08-19 19:23:12.380,-0.275,0.03
2021-08-19 19:23:12.384,-0.27,0.02
2021-08-19 19:23:12.388,-0.245,0.045
2021-08-19 19:23:12.392,-0.24,0.025
2021-08-19 19:23:12.396,-0.24,0.01
2021-08-19 19:23:12.400,-0.23,0.01
2021-08-19 19:23:12.404,-0.225,0.015
2021-08-19 19:23:12.408,-0.21,0.01
2021-08-19 19:23:12.412,-0.175,0.03
2021-08-19 19:23:12.416,-0.17,0.025
2021-08-19 19:23:12.420,-0.16,0.015
2021-08-19 19:23:12.424,-0.135,0.015
2021-08-19 19:23:12.428,-0.115,0.01
2021-08-19 19:23:12.432,-0.1,0.03
2021-08-19 19:23:12.436,-0.1,0.005
2021-08-19 19:23:12.440,-0.12,0.045
2021-08-19 19:23:12.444,-0.105,0.04
2021-08-19 19:23:12.448,-0.14,0.045
2021-08-19 19:23:12.452,-0.17,0.06
2021-08-19 19:23:12.456,-0.195,0.05
2021-08-19 19:23:12.460,-0.23,0.05
2021-08-19 19:23:12.464,-0.235,0.1
2021-08-19 19:23:12.468,-0.26,0.095
2021-08-19 19:23:12.472,-0.265,0.11
2021-08-19 19:23:12.476,-0.27,0.11
2021-08-19 19:23:12.480,-0.265,0.135
2021-08-19 19:23:12.484,-0.27,0.135
2021-08-19 19:23:12.488,-0.29,0.11
2021-08-19 19:23:12.492,-0.28,0.095
2021-08-19 19:23:12.496,-0.27,0.08
2021-08-19 19:23:12.500,-0.26,0.075
2021-08-19 19:23:12.504,-0.25,0.045
2021-08-19 19:23:12.508,-0.24,0.02
2021-08-19 19:23:12.512,-0.255,0.0
2021-08-19 19:23:12.516,-0.24,-0.01
2021-08-19 19:23:12.520,-0.24,-0.005
2021-08-19 19:23:12.524,-0.255,-0.02
2021-08-19 19:23:12.528,-0.23,-0.04
2021-08-19 19:23:12.532,-0.26,-0.015
2021-08-19 19:23:12.536,-0.28,-0.045
2021-08-19 19:23:12.540,-0.3,-0.05
2021-08-19 19:23:12.544,-0.29,-0.04
2021-08-19 19:23:12.548,-0.315,-0.06
2021-08-19 19:23:12.552,-0.32,-0.055
2021-08-19 19:23:12.556,-0.285,-0.035
2021-08-19 19:23:12.560,-0.285,-0.055
2021-08-19 19:23:12.564,-0.25,-0.08
2021-08-19 19:23:12.568,-0.245,-0.075
2021-08-19 19:23:12.572,-0.2,-0.08
2021-08-19 19:23:12.576,-0.195,-0.085
2021-08-19 19:23:12.580,-0.17,-0.07
2021-08-19 19:23:12.584,-0.14,-0.08
2021-08-19 19:23:12.588,-0.12,-0.06
2021-08-19 19:23:12.592,-0.085,-0.04
2021-08-19 19:23:12.596,-0.03,-0.035
2021-08-19 19:23:12.600,0.04,-0.035
2021-08-19 19:23:12.604,0.125,-0.01
2021-08-19 19:23:12.608,0.205,-0.05
2021-08-19 19:23:12.612,0.295,-0.08
2021-08-19 19:23:12.616,0.37,-0.145
2021-08-19 19:23:12.620,0.42,-0.245
2021-08-19 19:23:12.624,0.47,-0.315
2021-08-19 19:23:12.628,0.475,-0.415
2021-08-19 19:23:12.632,0.435,-0.555
2021-08-19 19:23:12.636,0.49,-0.715
2021-08-19 19:23:12.640,0.665,-0.92
2021-08-19 19:23:12.644,0.935,-1.195
2021-08-19 19:23:12.648,1.18,-1.47
2021-08-19 19:23:12.652,1.2,-1.655
2021-08-19 19:23:12.656,0.915,-1.705
2021-08-19 19:23:12.660,0.435,-1.455
2021-08-19 19:23:12.664,0.0,-0.98
2021-08-19 19:23:12.668,-0.23,-0.555
2021-08-19 19:23:12.672,-0.335,-0.3
2021-08-19 19:23:12.676,-0.405,-0.135
2021-08-19 19:23:12.680,-0.405,0.025
2021-08-19 19:23:12.684,-0.42,0.155
2021-08-19 19:23:12.688,-0.455,0.21
2021-08-19 19:23:12.692,-0.455,0.24
2021-08-19 19:23:12.696,-0.46,0.24
2021-08-19 19:23:12.700,-0.465,0.225
2021-08-19 19:23:12.704,-0.445,0.215
2021-08-19 19:23:12.708,-0.43,0.19
2021-08-19 19:23:12.712,-0.425,0.155
2021-08-19 19:23:12.716,-0.425,0.15
2021-08-19 19:23:12.720,-0.42,0.13
2021-08-19 19:23:12.724,-0.415,0.13
2021-08-19 19:23:12.728,-0.44,0.11
2021-08-19 19:23:12.732,-0.445,0.13
2021-08-19 19:23:12.736,-0.455,0.1
2021-08-19 19:23:12.740,-0.44,0.12
2021-08-19 19:23:12.744,-0.45,0.11
2021-08-19 19:23:12.748,-0.455,0.09
2021-08-19 19:23:12.752,-0.455,0.105
2021-08-19 19:23:12.756,-0.465,0.1
2021-08-19 19:23:12.760,-0.465,0.095
2021-08-19 19:23:12.764,-0.47,0.09
2021-08-19 19:23:12.768,-0.465,0.105
2021-08-19 19:23:12.772,-0.445,0.09
2021-08-19 19:23:12.776,-0.44,0.085
2021-08-19 19:23:12.780,-0.425,0.105
2021-08-19 19:23:12.784,-0.435,0.105
2021-08-19 19:23:12.788,-0.42,0.12
2021-08-19 19:23:12.792,-0.415,0.115
2021-08-19 19:23:12.796,-0.41,0.135
2021-08-19 19:23:12.800,-0.415,0.17
2021-08-19 19:23:12.804,-0.395,0.165
2021-08-19 19:23:12.808,-0.37,0.18
2021-08-19 19:23:12.812,-0.38,0.18
2021-08-19 19:23:12.816,-0.35,0.19
2021-08-19 19:23:12.820,-0.32,0.2
2021-08-19 19:23:12.824,-0.315,0.175
2021-08-19 19:23:12.828,-0.305,0.19
2021-08-19 19:23:12.832,-0.285,0.175
2021-08-19 19:23:12.836,-0.28,0.195
2021-08-19 19:23:12.840,-0.275,0.155
2021-08-19 19:23:12.844,-0.275,0.17
2021-08-19 19:23:12.848,-0.315,0.175
2021-08-19 19:23:12.852,-0.31,0.17
2021-08-19 19:23:12.856,-0.325,0.165
2021-08-19 19:23:12.860,-0.355,0.15
2021-08-19 19:23:12.864,-0.415,0.165
2021-08-19 19:23:12.868,-0.41,0.175
2021-08-19 19:23:12.872,-0.42,0.2
2021-08-19 19:23:12.876,-0.435,0.15
2021-08-19 19:23:12.880,-0.425,0.145
2021-08-19 19:23:12.884,-0.415,0.12
2021-08-19 19:23:12.888,-0.4,0.09
2021-08-19 19:23:12.892,-0.375,0.065
2021-08-19 19:23:12.896,-0.355,0.045
2021-08-19 19:23:12.900,-0.355,0.03
2021-08-19 19:23:12.904,-0.37,-0.005
2021-08-19 19:23:12.908,-0.36,-0.025
2021-08-19 19:23:12.912,-0.33,-0.035
2021-08-19 19:23:12.916,-0.315,-0.04
2021-08-19 19:23:12.920,-0.29,-0.07
2021-08-19 19:23:12.924,-0.285,-0.075
2021-08-19 19:23:12.928,-0.295,-0.095
2021-08-19 19:23:12.932,-0.275,-0.07
2021-08-19 19:23:12.936,-0.25,-0.1
2021-08-19 19:23:12.940,-0.24,-0.09
2021-08-19 19:23:12.944,-0.22,-0.08
2021-08-19 19:23:12.948,-0.22,-0.085
2021-08-19 19:23:12.952,-0.21,-0.085
2021-08-19 19:23:12.956,-0.21,-0.055
2021-08-19 19:23:12.960,-0.205,-0.055
2021-08-19 19:23:12.964,-0.19,-0.055
2021-08-19 19:23:12.968,-0.2,-0.04
2021-08-19 19:23:12.972,-0.175,-0.03
2021-08-19 19:23:12.976,-0.16,-0.05
2021-08-19 19:23:12.980,-0.16,-0.03
2021-08-19 19:23:12.984,-0.185,-0.01
2021-08-19 19:23:12.988,-0.18,-0.035
2021-08-19 19:23:12.992,-0.205,-0.015
2021-08-19 19:23:12.996,-0.205,-0.01
2021-08-19 19:23:13.000,-0.225,0.0
2021-08-19 19:23:13.004,-0.205,0.0
2021-08-19 19:23:13.008,-0.185,-0.005
2021-08-19 19:23:13.012,-0.17,-0.01
2021-08-19 19:23:13.016,-0.18,0.0
2021-08-19 19:23:13.020,-0.17,0.0
2021-08-19 19:23:13.024,-0.19,-0.015
2021-08-19 19:23:13.028,-0.185,0.0
2021-08-19 19:23:13.032,-0.185,0.005
2021-08-19 19:23:13.036,-0.18,0.0
2021-08-19 19:23:13.040,-0.2,0.01
2021-08-19 19:23:13.044,-0.22,0.0
2021-08-19 19:23:13.048,-0.225,0.005
2021-08-19 19:23:13.052,-0.23,0.035
2021-08-19 19:23:13.056,-0.27,0.055
2021-08-19 19:23:13.060,-0.305,0.07
2021-08-19 19:23:13.064,-0.29,0.07
2021-08-19 19:23:13.068,-0.305,0.07
2021-08-19 19:23:13.072,-0.29,0.07
2021-08-19 19:23:13.076,-0.29,0.095
2021-08-19 19:23:13.080,-0.315,0.09
2021-08-19 19:23:13.084,-0.32,0.08
2021-08-19 19:23:13.088,-0.33,0.06
2021-08-19 19:23:13.092,-0.33,0.08
2021-08-19 19:23:13.096,-0.34,0.07
2021-08-19 19:23:13.100,-0.33,0.045
2021-08-19 19:23:13.104,-0.345,0.06
2021-08-19 19:23:13.108,-0.335,0.045
2021-08-19 19:23:13.112,-0.35,0.05
2021-08-19 19:23:13.116,-0.345,0.035
2021-08-19 19:23:13.120,-0.355,0.045
2021-08-19 19:23:13.124,-0.36,0.01
2021-08-19 19:23:13.128,-0.345,0.005
2021-08-19 19:23:13.132,-0.335,-0.02
2021-08-19 19:23:13.136,-0.33,-0.03
2021-08-19 19:23:13.140,-0.315,-0.06
2021-08-19 19:23:13.144,-0.32,-0.06
2021-08-19 19:23:13.148,-0.3,-0.095
2021-08-19 19:23:13.152,-0.28,-0.115
2021-08-19 19:23:13.156,-0.28,-0.095
2021-08-19 19:23:13.160,-0.275,-0.095
2021-08-19 19:23:13.164,-0.255,-0.095
2021-08-19 19:23:13.168,-0.21,-0.1
2021-08-19 19:23:13.172,-0.16,-0.095
2021-08-19 19:23:13.176,-0.075,-0.1
2021-08-19 19:23:13.180,0.02,-0.095
2021-08-19 19:23:13.184,0.095,-0.13
2021-08-19 19:23:13.188,0.145,-0.13
2021-08-19 19:23:13.192,0.195,-0.185
2021-08-19 19:23:13.196,0.215,-0.255
2021-08-19 19:23:13.200,0.2,-0.345
2021-08-19 19:23:13.204,0.175,-0.43
2021-08-19 19:23:13.208,0.16,-0.565
2021-08-19 19:23:13.212,0.21,-0.76
2021-08-19 19:23:13.216,0.405,-0.975
2021-08-19 19:23:13.220,0.71,-1.27
2021-08-19 19:23:13.224,1.015,-1.6
2021-08-19 19:23:13.228,1.13,-1.865
2021-08-19 19:23:13.232,1.02,-1.975
2021-08-19 19:23:13.236,0.625,-1.8
2021-08-19 19:23:13.240,0.165,-1.33
2021-08-19 19:23:13.244,-0.145,-0.84
2021-08-19 19:23:13.248,-0.32,-0.485
2021-08-19 19:23:13.252,-0.4,-0.265
2021-08-19 19:23:13.256,-0.45,-0.095
2021-08-19 19:23:13.260,-0.48,0.03
2021-08-19 19:23:13.264,-0.505,0.13
2021-08-19 19:23:13.268,-0.5,0.19
2021-08-19 19:23:13.272,-0.495,0.215
2021-08-19 19:23:13.276,-0.495,0.23
2021-08-19 19:23:13.280,-0.51,0.215
2021-08-19 19:23:13.284,-0.505,0.195
2021-08-19 19:23:13.288,-0.49,0.195
2021-08-19 19:23:13.292,-0.49,0.2
2021-08-19 19:23:13.296,-0.485,0.205
2021-08-19 19:23:13.300,-0.48,0.225
2021-08-19 19:23:13.304,-0.475,0.21
2021-08-19 19:23:13.308,-0.44,0.21
2021-08-19 19:23:13.312,-0.465,0.24
2021-08-19 19:23:13.316,-0.475,0.23
2021-08-19 19:23:13.320,-0.47,0.22
2021-08-19 19:23:13.324,-0.49,0.235
2021-08-19 19:23:13.328,-0.475,0.235
2021-08-19 19:23:13.332,-0.47,0.195
2021-08-19 19:23:13.336,-0.47,0.22
2021-08-19 19:23:13.340,-0.465,0.19
2021-08-19 19:23:13.344,-0.445,0.18
2021-08-19 19:23:13.348,-0.435,0.18
2021-08-19 19:23:13.352,-0.42,0.18
2021-08-19 19:23:13.356,-0.42,0.16
2021-08-19 19:23:13.360,-0.415,0.13
2021-08-19 19:23:13.364,-0.415,0.15
2021-08-19 19:23:13.368,-0.43,0.165
2021-08-19 19:23:13.372,-0.4,0.16
2021-08-19 19:23:13.376,-0.385,0.17
2021-08-19 19:23:13.380,-0.39,0.17
2021-08-19 19:23:13.384,-0.35,0.18
2021-08-19 19:23:13.388,-0.355,0.195
2021-08-19 19:23:13.392,-0.355,0.2
2021-08-19 19:23:13.396,-0.35,0.185
2021-08-19 19:23:13.400,-0.36,0.185
2021-08-19 19:23:13.404,-0.32,0.19
2021-08-19 19:23:13.408,-0.305,0.19
2021-08-19 19:23:13.412,-0.295,0.195
2021-08-19 19:23:13.416,-0.3,0.195
2021-08-19 19:23:13.420,-0.295,0.185
2021-08-19 19:23:13.424,-0.3,0.17
2021-08-19 19:23:13.428,-0.265,0.165
2021-08-19 19:23:13.432,-0.265,0.16
2021-08-19 19:23:13.436,-0.27,0.16
2021-08-19 19:23:13.440,-0.29,0.14
2021-08-19 19:23:13.444,-0.305,0.13
2021-08-19 19:23:13.448,-0.325,0.155
2021-08-19 19:23:13.452,-0.35,0.14
2021-08-19 19:23:13.456,-0.395,0.14
2021-08-19 19:23:13.460,-0.4,0.115
2021-08-19 19:23:13.464,-0.415,0.12
2021-08-19 19:23:13.468,-0.4,0.09
2021-08-19 19:23:13.472,-0.395,0.09
2021-08-19 19:23:13.476,-0.38,0.04
2021-08-19 19:23:13.480,-0.365,0.02
2021-08-19 19:23:13.484,-0.36,0.03
2021-08-19 19:23:13.488,-0.345,0.015
2021-08-19 19:23:13.492,-0.305,0.0
2021-08-19 19:23:13.496,-0.335,0.0
2021-08-19 19:23:13.500,-0.33,-0.005
2021-08-19 19:23:13.504,-0.325,0.015
2021-08-19 19:23:13.508,-0.32,-0.01
2021-08-19 19:23:13.512,-0.31,0.02
2021-08-19 19:23:13.516,-0.305,0.03
2021-08-19 19:23:13.520,-0.305,0.03
2021-08-19 19:23:13.524,-0.295,-0.01
2021-08-19 19:23:13.528,-0.28,0.025
2021-08-19 19:23:13.532,-0.275,0.015
2021-08-19 19:23:13.536,-0.29,0.025
2021-08-19 19:23:13.540,-0.275,0.015
2021-08-19 19:23:13.544,-0.255,0.035
2021-08-19 19:23:13.548,-0.28,0.035
2021-08-19 19:23:13.552,-0.26,0.04
2021-08-19 19:23:13.556,-0.265,0.045
2021-08-19 19:23:13.560,-0.235,0.07
2021-08-19 19:23:13.564,-0.215,0.055
2021-08-19 19:23:13.568,-0.195,0.07
2021-08-19 19:23:13.572,-0.15,0.07
2021-08-19 19:23:13.576,-0.13,0.095
2021-08-19 19:23:13.580,-0.125,0.105
2021-08-19 19:23:13.584,-0.125,0.115
2021-08-19 19:23:13.588,-0.1,0.105
2021-08-19 19:23:13.592,-0.1,0.13
2021-08-19 19:23:13.596,-0.1,0.14
2021-08-19 19:23:13.600,-0.13,0.115
2021-08-19 19:23:13.604,-0.13,0.095
2021-08-19 19:23:13.608,-0.14,0.08
2021-08-19 19:23:13.612,-0.14,0.065
2021-08-19 19:23:13.616,-0.14,0.045
2021-08-19 19:23:13.620,-0.16,0.04
2021-08-19 19:23:13.624,-0.155,0.03
2021-08-19 19:23:13.628,-0.155,0.005
2021-08-19 19:23:13.632,-0.15,0.0
2021-08-19 19:23:13.636,-0.15,0.005
2021-08-19 19:23:13.640,-0.145,-0.01
2021-08-19 19:23:13.644,-0.16,0.0
2021-08-19 19:23:13.648,-0.15,0.02
2021-08-19 19:23:13.652,-0.15,0.025
2021-08-19 19:23:13.656,-0.145,0.045
2021-08-19 19:23:13.660,-0.105,0.06
2021-08-19 19:23:13.664,-0.04,0.055
2021-08-19 19:23:13.668,-0.01,0.02
2021-08-19 19:23:13.672,0.045,-0.025
2021-08-19 19:23:13.676,0.055,-0.11
2021-08-19 19:23:13.680,0.07,-0.205
2021-08-19 19:23:13.684,0.045,-0.3
2021-08-19 19:23:13.688,0.005,-0.445
2021-08-19 19:23:13.692,0.015,-0.62
2021-08-19 19:23:13.696,0.13,-0.84
2021-08-19 19:23:13.700,0.43,-1.09
2021-08-19 19:23:13.704,0.75,-1.42
2021-08-19 19:23:13.708,0.965,-1.725
2021-08-19 19:23:13.712,0.935,-1.945
2021-08-19 19:23:13.716,0.65,-1.905
2021-08-19 19:23:13.720,0.195,-1.57
2021-08-19 19:23:13.724,-0.205,-1.005
2021-08-19 19:23:13.728,-0.425,-0.595
2021-08-19 19:23:13.732,-0.495,-0.37
2021-08-19 19:23:13.736,-0.51,-0.23
2021-08-19 19:23:13.740,-0.5,-0.12
2021-08-19 19:23:13.744,-0.505,-0.02
2021-08-19 19:23:13.748,-0.525,0.05
2021-08-19 19:23:13.752,-0.51,0.06
2021-08-19 19:23:13.756,-0.5,0.09
2021-08-19 19:23:13.760,-0.5,0.075
2021-08-19 19:23:13.764,-0.5,0.085
2021-08-19 19:23:13.768,-0.48,0.09
2021-08-19 19:23:13.772,-0.45,0.12
2021-08-19 19:23:13.776,-0.435,0.11
2021-08-19 19:23:13.780,-0.425,0.115
2021-08-19 19:23:13.784,-0.415,0.15
2021-08-19 19:23:13.788,-0.36,0.165
2021-08-19 19:23:13.792,-0.325,0.17
2021-08-19 19:23:13.796,-0.305,0.175
2021-08-19 19:23:13.800,-0.295,0.2
2021-08-19 19:23:13.804,-0.3,0.22
2021-08-19 19:23:13.808,-0.315,0.23
2021-08-19 19:23:13.812,-0.34,0.26
2021-08-19 19:23:13.816,-0.365,0.255
2021-08-19 19:23:13.820,-0.36,0.275
2021-08-19 19:23:13.824,-0.37,0.265
2021-08-19 19:23:13.828,-0.38,0.27
2021-08-19 19:23:13.832,-0.375,0.26
2021-08-19 19:23:13.836,-0.395,0.245
2021-08-19 19:23:13.840,-0.4,0.225
2021-08-19 19:23:13.844,-0.405,0.21
2021-08-19 19:23:13.848,-0.44,0.235
2021-08-19 19:23:13.852,-0.49,0.215
2021-08-19 19:23:13.856,-0.495,0.23
2021-08-19 19:23:13.860,-0.52,0.25
2021-08-19 19:23:13.864,-0.55,0.26
2021-08-19 19:23:13.868,-0.545,0.245
2021-08-19 19:23:13.872,-0.54,0.245
2021-08-19 19:23:13.876,-0.525,0.22
2021-08-19 19:23:13.880,-0.535,0.205
2021-08-19 19:23:13.884,-0.525,0.195
2021-08-19 19:23:13.888,-0.51,0.185
2021-08-19 19:23:13.892,-0.505,0.16
2021-08-19 19:23:13.896,-0.505,0.145
2021-08-19 19:23:13.900,-0.48,0.125
2021-08-19 19:23:13.904,-0.5,0.135
2021-08-19 19:23:13.908,-0.485,0.12
2021-08-19 19:23:13.912,-0.465,0.11
2021-08-19 19:23:13.916,-0.44,0.1
2021-08-19 19:23:13.920,-0.455,0.085
2021-08-19 19:23:13.924,-0.43,0.05
2021-08-19 19:23:13.928,-0.43,0.045
2021-08-19 19:23:13.932,-0.42,0.04
2021-08-19 19:23:13.936,-0.4,0.025
2021-08-19 19:23:13.940,-0.4,-0.005
2021-08-19 19:23:13.944,-0.39,-0.005
2021-08-19 19:23:13.948,-0.375,-0.01
2021-08-19 19:23:13.952,-0.36,-0.025
2021-08-19 19:23:13.956,-0.355,-0.035
2021-08-19 19:23:13.960,-0.32,-0.04
2021-08-19 19:23:13.964,-0.315,-0.04
2021-08-19 19:23:13.968,-0.31,-0.07
2021-08-19 19:23:13.972,-0.285,-0.06
2021-08-19 19:23:13.976,-0.255,-0.04
2021-08-19 19:23:13.980,-0.25,-0.045
2021-08-19 19:23:13.984,-0.245,-0.04
2021-08-19 19:23:13.988,-0.205,-0.04
2021-08-19 19:23:13.992,-0.24,-0.01
2021-08-19 19:23:13.996,-0.215,0.0
2021-08-19 19:23:14.000,-0.205,0.0
2021-08-19 19:23:14.004,-0.215,0.005
2021-08-19 19:23:14.008,-0.18,0.025
2021-08-19 19:23:14.012,-0.2,0.035
2021-08-19 19:23:14.016,-0.185,0.035
2021-08-19 19:23:14.020,-0.16,0.065
2021-08-19 19:23:14.024,-0.17,0.065
2021-08-19 19:23:14.028,-0.16,0.1
2021-08-19 19:23:14.032,-0.155,0.105
2021-08-19 19:23:14.036,-0.145,0.12
2021-08-19 19:23:14.040,-0.15,0.12
2021-08-19 19:23:14.044,-0.15,0.125
2021-08-19 19:23:14.048,-0.18,0.115
2021-08-19 19:23:14.052,-0.195,0.13
2021-08-19 19:23:14.056,-0.24,0.15
2021-08-19 19:23:14.060,-0.255,0.15
2021-08-19 19:23:14.064,-0.31,0.155
2021-08-19 19:23:14.068,-0.33,0.15
2021-08-19 19:23:14.072,-0.35,0.125
2021-08-19 19:23:14.076,-0.35,0.13
2021-08-19 19:23:14.080,-0.345,0.085
2021-08-19 19:23:14.084,-0.37,0.055
2021-08-19 19:23:14.088,-0.365,0.035
2021-08-19 19:23:14.092,-0.38,0.035
2021-08-19 19:23:14.096,-0.385,0.015
2021-08-19 19:23:14.100,-0.41,0.0
2021-08-19 19:23:14.104,-0.38,-0.005
2021-08-19 19:23:14.108,-0.375,-0.005
2021-08-19 19:23:14.112,-0.39,-0.04
2021-08-19 19:23:14.116,-0.375,-0.03
2021-08-19 19:23:14.120,-0.365,-0.045
2021-08-19 19:23:14.124,-0.365,-0.06
2021-08-19 19:23:14.128,-0.39,-0.05
2021-08-19 19:23:14.132,-0.37,-0.035
2021-08-19 19:23:14.136,-0.375,-0.06
2021-08-19 19:23:14.140,-0.37,-0.06
2021-08-19 19:23:14.144,-0.355,-0.065
2021-08-19 19:23:14.148,-0.36,-0.05
2021-08-19 19:23:14.152,-0.345,-0.07
2021-08-19 19:23:14.156,-0.325,-0.055
2021-08-19 19:23:14.160,-0.32,-0.065
2021-08-19 19:23:14.164,-0.305,-0.085
2021-08-19 19:23:14.168,-0.295,-0.075
2021-08-19 19:23:14.172,-0.285,-0.06
2021-08-19 19:23:14.176,-0.275,-0.075
2021-08-19 19:23:14.180,-0.255,-0.04
2021-08-19 19:23:14.184,-0.23,-0.05
2021-08-19 19:23:14.188,-0.175,-0.045
2021-08-19 19:23:14.192,-0.115,-0.045
2021-08-19 19:23:14.196,-0.035,-0.025
2021-08-19 19:23:14.200,0.055,-0.045
2021-08-19 19:23:14.204,0.12,-0.05
2021-08-19 19:23:14.208,0.17,-0.095
2021-08-19 19:23:14.212,0.23,-0.155
2021-08-19 19:23:14.216,0.2,-0.23
2021-08-19 19:23:14.220,0.2,-0.325
2021-08-19 19:23:14.224,0.185,-0.47
2021-08-19 19:23:14.228,0.185,-0.63
2021-08-19 19:23:14.232,0.33,-0.86
2021-08-19 19:23:14.236,0.625,-1.11
2021-08-19 19:23:14.240,0.97,-1.425
2021-08-19 19:23:14.244,1.185,-1.71
2021-08-19 19:23:14.248,1.135,-1.875
2021-08-19 19:23:14.252,0.8,-1.805
2021-08-19 19:23:14.256,0.315,-1.395
2021-08-19 19:23:14.260,-0.05,-0.87
2021-08-19 19:23:14.264,-0.24,-0.48
2021-08-19 19:23:14.268,-0.315,-0.24
2021-08-19 19:23:14.272,-0.355,-0.07
2021-08-19 19:23:14.276,-0.385,0.075
2021-08-19 19:23:14.280,-0.425,0.18
2021-08-19 19:23:14.284,-0.43,0.245
2021-08-19 19:23:14.288,-0.455,0.27
2021-08-19 19:23:14.292,-0.465,0.275
2021-08-19 19:23:14.296,-0.49,0.275
2021-08-19 19:23:14.300,-0.48,0.23
2021-08-19 19:23:14.304,-0.485,0.19
2021-08-19 19:23:14.308,-0.49,0.165
2021-08-19 19:23:14.312,-0.51,0.165
2021-08-19 19:23:14.316,-0.505,0.145
2021-08-19 19:23:14.320,-0.485,0.135
2021-08-19 19:23:14.324,-0.49,0.13
2021-08-19 19:23:14.328,-0.49,0.14
2021-08-19 19:23:14.332,-0.495,0.15
2021-08-19 19:23:14.336,-0.515,0.145
2021-08-19 19:23:14.340,-0.525,0.13
2021-08-19 19:23:14.344,-0.52,0.13
2021-08-19 19:23:14.348,-0.515,0.14
2021-08-19 19:23:14.352,-0.51,0.13
2021-08-19 19:23:14.356,-0.515,0.14
2021-08-19 19:23:14.360,-0.5,0.125
2021-08-19 19:23:14.364,-0.47,0.135
2021-08-19 19:23:14.368,-0.48,0.125
2021-08-19 19:23:14.372,-0.485,0.145
2021-08-19 19:23:14.376,-0.48,0.165
2021-08-19 19:23:14.380,-0.46,0.175
2021-08-19 19:23:14.384,-0.455,0.17
2021-08-19 19:23:14.388,-0.455,0.18
2021-08-19 19:23:14.392,-0.45,0.165
2021-08-19 19:23:14.396,-0.43,0.185
2021-08-19 19:23:14.400,-0.405,0.19
2021-08-19 19:23:14.404,-0.375,0.225
2021-08-19 19:23:14.408,-0.365,0.225
2021-08-19 19:23:14.412,-0.335,0.225
2021-08-19 19:23:14.416,-0.32,0.245
2021-08-19 19:23:14.420,-0.33,0.24
2021-08-19 19:23:14.424,-0.33,0.225
2021-08-19 19:23:14.428,-0.335,0.235
2021-08-19 19:23:14.432,-0.33,0.245
2021-08-19 19:23:14.436,-0.29,0.245
2021-08-19 19:23:14.440,-0.27,0.235
2021-08-19 19:23:14.444,-0.26,0.225
2021-08-19 19:23:14.448,-0.26,0.23
2021-08-19 19:23:14.452,-0.245,0.21
2021-08-19 19:23:14.456,-0.255,0.22
2021-08-19 19:23:14.460,-0.28,0.195
2021-08-19 19:23:14.464,-0.285,0.19
2021-08-19 19:23:14.468,-0.295,0.175
2021-08-19 19:23:14.472,-0.295,0.175
2021-08-19 19:23:14.476,-0.295,0.175
2021-08-19 19:23:14.480,-0.32,0.17
2021-08-19 19:23:14.484,-0.34,0.16
2021-08-19 19:23:14.488,-0.34,0.15
2021-08-19 19:23:14.492,-0.325,0.145
2021-08-19 19:23:14.496,-0.31,0.135
2021-08-19 19:23:14.500,-0.31,0.115
2021-08-19 19:23:14.504,-0.285,0.105
2021-08-19 19:23:14.508,-0.28,0.09
2021-08-19 19:23:14.512,-0.275,0.08
2021-08-19 19:23:14.516,-0.28,0.07
2021-08-19 19:23:14.520,-0.26,0.035
2021-08-19 19:23:14.524,-0.275,0.055
2021-08-19 19:23:14.528,-0.26,0.015
2021-08-19 19:23:14.532,-0.25,0.0
2021-08-19 19:23:14.536,-0.28,0.0
2021-08-19 19:23:14.540,-0.275,-0.04
2021-08-19 19:23:14.544,-0.26,-0.02
2021-08-19 19:23:14.548,-0.25,-0.025
2021-08-19 19:23:14.552,-0.265,-0.03
2021-08-19 19:23:14.556,-0.265,-0.045
2021-08-19 19:23:14.560,-0.26,-0.045
2021-08-19 19:23:14.564,-0.265,-0.04
2021-08-19 19:23:14.568,-0.255,-0.035
2021-08-19 19:23:14.572,-0.26,-0.025
2021-08-19 19:23:14.576,-0.26,-0.03
2021-08-19 19:23:14.580,-0.27,-0.025
2021-08-19 19:23:14.584,-0.26,-0.005
2021-08-19 19:23:14.588,-0.235,-0.01
2021-08-19 19:23:14.592,-0.225,0.01
2021-08-19 19:23:14.596,-0.215,0.005
2021-08-19 19:23:14.600,-0.215,0.01
2021-08-19 19:23:14.604,-0.205,0.005
2021-08-19 19:23:14.608,-0.19,0.02
2021-08-19 19:23:14.612,-0.19,0.005
2021-08-19 19:23:14.616,-0.195,0.015
2021-08-19 19:23:14.620,-0.19,0.005
2021-08-19 19:23:14.624,-0.205,0.02
2021-08-19 19:23:14.628,-0.195,0.005
2021-08-19 19:23:14.632,-0.2,0.015
2021-08-19 19:23:14.636,-0.185,0.03
2021-08-19 19:23:14.640,-0.17,0.03
2021-08-19 19:23:14.644,-0.13,0.0
2021-08-19 19:23:14.648,-0.095,0.02
2021-08-19 19:23:14.652,-0.08,0.015
2021-08-19 19:23:14.656,-0.07,0.045
2021-08-19 19:23:14.660,-0.055,0.03
2021-08-19 19:23:14.664,-0.025,0.04
2021-08-19 19:23:14.668,0.01,0.03
2021-08-19 19:23:14.672,0.06,0.045
2021-08-19 19:23:14.676,0.1,0.05
2021-08-19 19:23:14.680,0.145,0.045
2021-08-19 19:23:14.684,0.19,0.025
2021-08-19 19:23:14.688,0.2,0.005
2021-08-19 19:23:14.692,0.21,-0.06
2021-08-19 19:23:14.696,0.265,-0.17
2021-08-19 19:23:14.700,0.275,-0.265
2021-08-19 19:23:14.704,0.255,-0.395
2021-08-19 19:23:14.708,0.25,-0.585
2021-08-19 19:23:14.712,0.33,-0.77
2021-08-19 19:23:14.716,0.555,-1.025
2021-08-19 19:23:14.720,0.87,-1.34
2021-08-19 19:23:14.724,1.08,-1.605
2021-08-19 19:23:14.728,1.025,-1.805
2021-08-19 19:23:14.732,0.7,-1.8
2021-08-19 19:23:14.736,0.2,-1.435
2021-08-19 19:23:14.740,-0.14,-0.94
2021-08-19 19:23:14.744,-0.28,-0.57
2021-08-19 19:23:14.748,-0.335,-0.35
2021-08-19 19:23:14.752,-0.36,-0.195
2021-08-19 19:23:14.756,-0.375,-0.065
2021-08-19 19:23:14.760,-0.41,0.0
2021-08-19 19:23:14.764,-0.415,0.07
2021-08-19 19:23:14.768,-0.415,0.08
2021-08-19 19:23:14.772,-0.415,0.09
2021-08-19 19:23:14.776,-0.395,0.095
2021-08-19 19:23:14.780,-0.405,0.08
2021-08-19 19:23:14.784,-0.38,0.1
2021-08-19 19:23:14.788,-0.37,0.09
2021-08-19 19:23:14.792,-0.375,0.1
2021-08-19 19:23:14.796,-0.365,0.08
2021-08-19 19:23:14.800,-0.365,0.09
2021-08-19 19:23:14.804,-0.37,0.09
2021-08-19 19:23:14.808,-0.385,0.1
2021-08-19 19:23:14.812,-0.39,0.125
2021-08-19 19:23:14.816,-0.36,0.135
2021-08-19 19:23:14.820,-0.365,0.12
2021-08-19 19:23:14.824,-0.415,0.115
2021-08-19 19:23:14.828,-0.425,0.125
2021-08-19 19:23:14.832,-0.44,0.12
2021-08-19 19:23:14.836,-0.43,0.13
2021-08-19 19:23:14.840,-0.425,0.155
2021-08-19 19:23:14.844,-0.415,0.145
2021-08-19 19:23:14.848,-0.43,0.17
2021-08-19 19:23:14.852,-0.41,0.16
2021-08-19 19:23:14.856,-0.39,0.165
2021-08-19 19:23:14.860,-0.4,0.14
2021-08-19 19:23:14.864,-0.38,0.15
2021-08-19 19:23:14.868,-0.38,0.165
2021-08-19 19:23:14.872,-0.36,0.19
2021-08-19 19:23:14.876,-0.355,0.185
2021-08-19 19:23:14.880,-0.35,0.2
2021-08-19 19:23:14.884,-0.35,0.21
2021-08-19 19:23:14.888,-0.365,0.24
2021-08-19 19:23:14.892,-0.375,0.235
2021-08-19 19:23:14.896,-0.42,0.225
2021-08-19 19:23:14.900,-0.42,0.25
2021-08-19 19:23:14.904,-0.395,0.21
2021-08-19 19:23:14.908,-0.405,0.21
2021-08-19 19:23:14.912,-0.405,0.19
2021-08-19 19:23:14.916,-0.38,0.17
2021-08-19 19:23:14.920,-0.385,0.155
2021-08-19 19:23:14.924,-0.365,0.125
2021-08-19 19:23:14.928,-0.36,0.135
2021-08-19 19:23:14.932,-0.355,0.11
2021-08-19 19:23:14.936,-0.375,0.075
2021-08-19 19:23:14.940,-0.37,0.075
2021-08-19 19:23:14.944,-0.37,0.04
2021-08-19 19:23:14.948,-0.36,0.035
2021-08-19 19:23:14.952,-0.35,0.02
2021-08-19 19:23:14.956,-0.36,-0.01
2021-08-19 19:23:14.960,-0.335,-0.04
2021-08-19 19:23:14.964,-0.32,-0.05
2021-08-19 19:23:14.968,-0.295,-0.065
2021-08-19 19:23:14.972,-0.3,-0.08
2021-08-19 19:23:14.976,-0.29,-0.115
2021-08-19 19:23:14.980,-0.25,-0.09
2021-08-19 19:23:14.984,-0.235,-0.105
2021-08-19 19:23:14.988,-0.215,-0.115
2021-08-19 19:23:14.992,-0.19,-0.1
2021-08-19 19:23:14.996,-0.195,-0.1
2021-08-19 19:23:15.000,-0.185,-0.105
2021-08-19 19:23:15.004,-0.17,-0.07
2021-08-19 19:23:15.008,-0.155,-0.08
2021-08-19 19:23:15.012,-0.155,-0.045
2021-08-19 19:23:15.016,-0.13,-0.06
2021-08-19 19:23:15.020,-0.14,-0.05
2021-08-19 19:23:15.024,-0.145,-0.025
2021-08-19 19:23:15.028,-0.15,-0.03
2021-08-19 19:23:15.032,-0.14,-0.035
2021-08-19 19:23:15.036,-0.16,-0.01
2021-08-19 19:23:15.040,-0.15,-0.005
2021-08-19 19:23:15.044,-0.165,-0.015
2021-08-19 19:23:15.048,-0.18,0.0
2021-08-19 19:23:15.052,-0.195,0.02
2021-08-19 19:23:15.056,-0.195,0.025
2021-08-19 19:23:15.060,-0.205,-0.005
2021-08-19 19:23:15.064,-0.185,0.015
2021-08-19 19:23:15.068,-0.175,0.0
2021-08-19 19:23:15.072,-0.195,0.02
2021-08-19 19:23:15.076,-0.195,0.01
2021-08-19 19:23:15.080,-0.2,0.03
2021-08-19 19:23:15.084,-0.195,0.025
2021-08-19 19:23:15.088,-0.205,0.035
2021-08-19 19:23:15.092,-0.235,0.045
2021-08-19 19:23:15.096,-0.26,0.035
2021-08-19 19:23:15.100,-0.275,0.045
2021-08-19 19:23:15.104,-0.295,0.07
2021-08-19 19:23:15.108,-0.285,0.06
2021-08-19 19:23:15.112,-0.295,0.01
2021-08-19 19:23:15.116,-0.29,0.01
2021-08-19 19:23:15.120,-0.28,-0.015
2021-08-19 19:23:15.124,-0.27,-0.025
2021-08-19 19:23:15.128,-0.265,-0.025
2021-08-19 19:23:15.132,-0.275,-0.025
2021-08-19 19:23:15.136,-0.26,-0.03
2021-08-19 19:23:15.140,-0.255,-0.02
2021-08-19 19:23:15.144,-0.265,-0.025
2021-08-19 19:23:15.148,-0.265,-0.03
2021-08-19 19:23:15.152,-0.28,-0.02
2021-08-19 19:23:15.156,-0.285,-0.045
2021-08-19 19:23:15.160,-0.275,-0.045
2021-08-19 19:23:15.164,-0.275,-0.025
2021-08-19 19:23:15.168,-0.26,-0.025
2021-08-19 19:23:15.172,-0.255,-0.05
2021-08-19 19:23:15.176,-0.24,-0.05
2021-08-19 19:23:15.180,-0.19,-0.085
2021-08-19 19:23:15.184,-0.17,-0.07
2021-08-19 19:23:15.188,-0.125,-0.08
2021-08-19 19:23:15.192,-0.02,-0.065
2021-08-19 19:23:15.196,0.075,-0.115
2021-08-19 19:23:15.200,0.175,-0.14
2021-08-19 19:23:15.204,0.235,-0.17
2021-08-19 19:23:15.208,0.3,-0.28
2021-08-19 19:23:15.212,0.36,-0.36
2021-08-19 19:23:15.216,0.37,-0.45
2021-08-19 19:23:15.220,0.36,-0.585
2021-08-19 19:23:15.224,0.37,-0.745
2021-08-19 19:23:15.228,0.485,-0.935
2021-08-19 19:23:15.232,0.75,-1.165
2021-08-19 19:23:15.236,1.07,-1.48
2021-08-19 19:23:15.240,1.28,-1.72
2021-08-19 19:23:15.244,1.235,-1.885
2021-08-19 19:23:15.248,0.905,-1.825
2021-08-19 19:23:15.252,0.4,-1.43
2021-08-19 19:23:15.256,0.045,-0.935
2021-08-19 19:23:15.260,-0.115,-0.56
2021-08-19 19:23:15.264,-0.175,-0.355
2021-08-19 19:23:15.268,-0.195,-0.19
2021-08-19 19:23:15.272,-0.225,-0.045
2021-08-19 19:23:15.276,-0.24,0.045
2021-08-19 19:23:15.280,-0.27,0.125
2021-08-19 19:23:15.284,-0.26,0.17
2021-08-19 19:23:15.288,-0.31,0.185
2021-08-19 19:23:15.292,-0.32,0.215
2021-08-19 19:23:15.296,-0.32,0.25
2021-08-19 19:23:15.300,-0.365,0.225
2021-08-19 19:23:15.304,-0.39,0.25
2021-08-19 19:23:15.308,-0.405,0.24
2021-08-19 19:23:15.312,-0.44,0.245
2021-08-19 19:23:15.316,-0.44,0.25
2021-08-19 19:23:15.320,-0.465,0.225
2021-08-19 19:23:15.324,-0.46,0.2
2021-08-19 19:23:15.328,-0.46,0.205
2021-08-19 19:23:15.332,-0.465,0.175
2021-08-19 19:23:15.336,-0.48,0.185
2021-08-19 19:23:15.340,-0.48,0.165
2021-08-19 19:23:15.344,-0.485,0.155
2021-08-19 19:23:15.348,-0.48,0.145
2021-08-19 19:23:15.352,-0.505,0.155
2021-08-19 19:23:15.356,-0.5,0.14
2021-08-19 19:23:15.360,-0.52,0.165
2021-08-19 19:23:15.364,-0.53,0.155
2021-08-19 19:23:15.368,-0.545,0.15
2021-08-19 19:23:15.372,-0.56,0.17
2021-08-19 19:23:15.376,-0.565,0.17
2021-08-19 19:23:15.380,-0.535,0.18
2021-08-19 19:23:15.384,-0.55,0.195
2021-08-19 19:23:15.388,-0.52,0.2
2021-08-19 19:23:15.392,-0.5,0.19
2021-08-19 19:23:15.396,-0.48,0.19
2021-08-19 19:23:15.400,-0.475,0.185
2021-08-19 19:23:15.404,-0.45,0.18
2021-08-19 19:23:15.408,-0.455,0.17
2021-08-19 19:23:15.412,-0.425,0.17
2021-08-19 19:23:15.416,-0.405,0.17
2021-08-19 19:23:15.420,-0.41,0.175
2021-08-19 19:23:15.424,-0.39,0.185
2021-08-19 19:23:15.428,-0.38,0.185
2021-08-19 19:23:15.432,-0.385,0.18
2021-08-19 19:23:15.436,-0.37,0.19
2021-08-19 19:23:15.440,-0.385,0.15
2021-08-19 19:23:15.444,-0.37,0.165
2021-08-19 19:23:15.448,-0.37,0.14
2021-08-19 19:23:15.452,-0.36,0.125
2021-08-19 19:23:15.456,-0.365,0.095
2021-08-19 19:23:15.460,-0.345,0.08
2021-08-19 19:23:15.464,-0.34,0.05
2021-08-19 19:23:15.468,-0.325,0.045
2021-08-19 19:23:15.472,-0.29,0.025
2021-08-19 19:23:15.476,-0.275,0.02
2021-08-19 19:23:15.480,-0.26,0.0
2021-08-19 19:23:15.484,-0.24,-0.01
2021-08-19 19:23:15.488,-0.255,-0.02
2021-08-19 19:23:15.492,-0.215,-0.005
2021-08-19 19:23:15.496,-0.215,0.005
2021-08-19 19:23:15.500,-0.215,0.01
2021-08-19 19:23:15.504,-0.205,0.01
2021-08-19 19:23:15.508,-0.225,0.025
2021-08-19 19:23:15.512,-0.235,0.035
2021-08-19 19:23:15.516,-0.255,0.04
2021-08-19 19:23:15.520,-0.25,0.025
2021-08-19 19:23:15.524,-0.24,0.03
2021-08-19 19:23:15.528,-0.26,0.03
2021-08-19 19:23:15.532,-0.245,0.0
2021-08-19 19:23:15.536,-0.24,0.0
2021-08-19 19:23:15.540,-0.23,-0.01
2021-08-19 19:23:15.544,-0.255,0.0
2021-08-19 19:23:15.548,-0.255,0.0
2021-08-19 19:23:15.552,-0.24,-0.01
2021-08-19 19:23:15.556,-0.27,-0.03
2021-08-19 19:23:15.560,-0.27,-0.02
2021-08-19 19:23:15.564,-0.28,-0.025
2021-08-19 19:23:15.568,-0.27,-0.045
2021-08-19 19:23:15.572,-0.26,-0.02
2021-08-19 19:23:15.576,-0.275,-0.015
2021-08-19 19:23:15.580,-0.225,-0.03
2021-08-19 19:23:15.584,-0.175,-0.02
2021-08-19 19:23:15.588,-0.11,-0.025
2021-08-19 19:23:15.592,-0.03,-0.04
2021-08-19 19:23:15.596,0.045,-0.075
2021-08-19 19:23:15.600,0.105,-0.085
2021-08-19 19:23:15.604,0.12,-0.16
2021-08-19 19:23:15.608,0.13,-0.23
2021-08-19 19:23:15.612,0.115,-0.32
2021-08-19 19:23:15.616,0.075,-0.45
2021-08-19 19:23:15.620,0.1,-0.625
2021-08-19 19:23:15.624,0.265,-0.8
2021-08-19 19:23:15.628,0.575,-1.06
2021-08-19 19:23:15.632,0.9,-1.38
2021-08-19 19:23:15.636,1.19,-1.685
2021-08-19 19:23:15.640,1.275,-1.925
2021-08-19 19:23:15.644,1.1,-1.94
2021-08-19 19:23:15.648,0.7,-1.665
2021-08-19 19:23:15.652,0.255,-1.14
2021-08-19 19:23:15.656,-0.02,-0.7
2021-08-19 19:23:15.660,-0.17,-0.4
2021-08-19 19:23:15.664,-0.24,-0.255
2021-08-19 19:23:15.668,-0.27,-0.105
2021-08-19 19:23:15.672,-0.28,0.0
2021-08-19 19:23:15.676,-0.315,0.105
2021-08-19 19:23:15.680,-0.34,0.14
2021-08-19 19:23:15.684,-0.355,0.175
2021-08-19 19:23:15.688,-0.37,0.19
2021-08-19 19:23:15.692,-0.39,0.195
2021-08-19 19:23:15.696,-0.375,0.195
2021-08-19 19:23:15.700,-0.36,0.165
2021-08-19 19:23:15.704,-0.37,0.165
2021-08-19 19:23:15.708,-0.37,0.175
2021-08-19 19:23:15.712,-0.375,0.175
2021-08-19 19:23:15.716,-0.4,0.195
2021-08-19 19:23:15.720,-0.455,0.185
2021-08-19 19:23:15.724,-0.47,0.175
2021-08-19 19:23:15.728,-0.5,0.195
2021-08-19 19:23:15.732,-0.535,0.17
2021-08-19 19:23:15.736,-0.515,0.155
2021-08-19 19:23:15.740,-0.505,0.175
2021-08-19 19:23:15.744,-0.515,0.15
2021-08-19 19:23:15.748,-0.505,0.155
2021-08-19 19:23:15.752,-0.49,0.14
2021-08-19 19:23:15.756,-0.505,0.14
2021-08-19 19:23:15.760,-0.49,0.115
2021-08-19 19:23:15.764,-0.5,0.1
2021-08-19 19:23:15.768,-0.5,0.11
2021-08-19 19:23:15.772,-0.525,0.1
2021-08-19 19:23:15.776,-0.525,0.115
2021-08-19 19:23:15.780,-0.535,0.1
2021-08-19 19:23:15.784,-0.525,0.11
2021-08-19 19:23:15.788,-0.54,0.12
2021-08-19 19:23:15.792,-0.52,0.11
2021-08-19 19:23:15.796,-0.51,0.095
2021-08-19 19:23:15.800,-0.515,0.1
2021-08-19 19:23:15.804,-0.495,0.125
2021-08-19 19:23:15.808,-0.465,0.115
2021-08-19 19:23:15.812,-0.445,0.12
2021-08-19 19:23:15.816,-0.43,0.11
2021-08-19 19:23:15.820,-0.425,0.105
2021-08-19 19:23:15.824,-0.395,0.1
2021-08-19 19:23:15.828,-0.385,0.1
2021-08-19 19:23:15.832,-0.37,0.11
2021-08-19 19:23:15.836,-0.35,0.11
2021-08-19 19:23:15.840,-0.325,0.08
2021-08-19 19:23:15.844,-0.325,0.08
2021-08-19 19:23:15.848,-0.31,0.04
2021-08-19 19:23:15.852,-0.29,0.045
2021-08-19 19:23:15.856,-0.27,0.02
2021-08-19 19:23:15.860,-0.24,0.015
2021-08-19 19:23:15.864,-0.245,-0.025
2021-08-19 19:23:15.868,-0.215,-0.005
2021-08-19 19:23:15.872,-0.22,-0.015
2021-08-19 19:23:15.876,-0.18,-0.015
2021-08-19 19:23:15.880,-0.195,-0.005
2021-08-19 19:23:15.884,-0.2,0.0
2021-08-19 19:23:15.888,-0.16,-0.01
2021-08-19 19:23:15.892,-0.18,0.0
2021-08-19 19:23:15.896,-0.18,0.015
2021-08-19 19:23:15.900,-0.155,0.035
2021-08-19 19:23:15.904,-0.15,0.02
2021-08-19 19:23:15.908,-0.14,0.025
2021-08-19 19:23:15.912,-0.14,0.04
2021-08-19 19:23:15.916,-0.12,0.045
2021-08-19 19:23:15.920,-0.14,0.05
2021-08-19 19:23:15.924,-0.185,0.06
2021-08-19 19:23:15.928,-0.19,0.075
2021-08-19 19:23:15.932,-0.23,0.07
2021-08-19 19:23:15.936,-0.27,0.06
2021-08-19 19:23:15.940,-0.265,0.06
2021-08-19 19:23:15.944,-0.29,0.045
2021-08-19 19:23:15.948,-0.285,0.035
2021-08-19 19:23:15.952,-0.29,0.01
2021-08-19 19:23:15.956,-0.315,0.0
2021-08-19 19:23:15.960,-0.33,-0.01
2021-08-19 19:23:15.964,-0.34,0.0
2021-08-19 19:23:15.968,-0.345,-0.02
2021-08-19 19:23:15.972,-0.34,-0.04
2021-08-19 19:23:15.976,-0.34,-0.04
2021-08-19 19:23:15.980,-0.35,-0.055
2021-08-19 19:23:15.984,-0.345,-0.065
2021-08-19 19:23:15.988,-0.34,-0.095
2021-08-19 19:23:15.992,-0.345,-0.095
2021-08-19 19:23:15.996,-0.34,-0.085
2021-08-19 19:23:16.000,-0.31,-0.095
2021-08-19 19:23:16.004,-0.33,-0.13
2021-08-19 19:23:16.008,-0.345,-0.11
2021-08-19 19:23:16.012,-0.335,-0.11
2021-08-19 19:23:16.016,-0.31,-0.1
2021-08-19 19:23:16.020,-0.315,-0.09
2021-08-19 19:23:16.024,-0.305,-0.105
2021-08-19 19:23:16.028,-0.295,-0.13
2021-08-19 19:23:16.032,-0.295,-0.12
2021-08-19 19:23:16.036,-0.27,-0.095
2021-08-19 19:23:16.040,-0.255,-0.1
2021-08-19 19:23:16.044,-0.24,-0.08
2021-08-19 19:23:16.048,-0.22,-0.075
2021-08-19 19:23:16.052,-0.22,-0.05
2021-08-19 19:23:16.056,-0.22,-0.045
2021-08-19 19:23:16.060,-0.22,-0.025
2021-08-19 19:23:16.064,-0.205,-0.035
2021-08-19 19:23:16.068,-0.195,-0.015
2021-08-19 19:23:16.072,-0.205,-0.02
2021-08-19 19:23:16.076,-0.2,-0.035
2021-08-19 19:23:16.080,-0.205,-0.065
2021-08-19 19:23:16.084,-0.24,-0.07
2021-08-19 19:23:16.088,-0.26,-0.075
2021-08-19 19:23:16.092,-0.27,-0.06
2021-08-19 19:23:16.096,-0.25,-0.04
2021-08-19 19:23:16.100,-0.23,-0.045
2021-08-19 19:23:16.104,-0.23,-0.035
2021-08-19 19:23:16.108,-0.215,-0.035
2021-08-19 19:23:16.112,-0.21,-0.035
2021-08-19 19:23:16.116,-0.19,-0.025
2021-08-19 19:23:16.120,-0.19,-0.02
2021-08-19 19:23:16.124,-0.185,-0.005
2021-08-19 19:23:16.128,-0.185,-0.015
2021-08-19 19:23:16.132,-0.22,0.02
2021-08-19 19:23:16.136,-0.23,0.025
2021-08-19 19:23:16.140,-0.24,0.0
2021-08-19 19:23:16.144,-0.265,0.02
2021-08-19 19:23:16.148,-0.27,-0.005
2021-08-19 19:23:16.152,-0.285,-0.01
2021-08-19 19:23:16.156,-0.29,0.005
2021-08-19 19:23:16.160,-0.285,0.005
2021-08-19 19:23:16.164,-0.295,-0.015
2021-08-19 19:23:16.168,-0.31,-0.025
2021-08-19 19:23:16.172,-0.285,-0.05
2021-08-19 19:23:16.176,-0.295,-0.075
2021-08-19 19:23:16.180,-0.275,-0.07
2021-08-19 19:23:16.184,-0.185,-0.095
2021-08-19 19:23:16.188,-0.095,-0.115
2021-08-19 19:23:16.192,-0.015,-0.125
2021-08-19 19:23:16.196,0.04,-0.16
2021-08-19 19:23:16.200,0.095,-0.195
2021-08-19 19:23:16.204,0.125,-0.3
2021-08-19 19:23:16.208,0.145,-0.4
2021-08-19 19:23:16.212,0.145,-0.5
2021-08-19 19:23:16.216,0.105,-0.615
2021-08-19 19:23:16.220,0.105,-0.82
2021-08-19 19:23:16.224,0.245,-1.035
2021-08-19 19:23:16.228,0.505,-1.295
2021-08-19 19:23:16.232,0.805,-1.61
2021-08-19 19:23:16.236,1.04,-1.88
2021-08-19 19:23:16.248,0.27,-1.625
2021-08-19 19:23:16.252,-0.09,-1.095
2021-08-19 19:23:16.256,-0.265,-0.665
2021-08-19 19:23:16.260,-0.325,-0.445
2021-08-19 19:23:16.264,-0.345,-0.295
2021-08-19 19:23:16.268,-0.365,-0.13
2021-08-19 19:23:16.272,-0.375,-0.035
2021-08-19 19:23:16.276,-0.395,0.035
2021-08-19 19:23:16.280,-0.4,0.07
2021-08-19 19:23:16.284,-0.425,0.115
2021-08-19 19:23:16.288,-0.42,0.105
2021-08-19 19:23:16.292,-0.38,0.09
2021-08-19 19:23:16.296,-0.355,0.125
2021-08-19 19:23:16.300,-0.37,0.12
2021-08-19 19:23:16.304,-0.355,0.135
2021-08-19 19:23:16.308,-0.36,0.115
2021-08-19 19:23:16.312,-0.385,0.12
2021-08-19 19:23:16.316,-0.36,0.135
2021-08-19 19:23:16.320,-0.37,0.13
2021-08-19 19:23:16.324,-0.365,0.14
2021-08-19 19:23:16.328,-0.37,0.155
2021-08-19 19:23:16.332,-0.37,0.16
2021-08-19 19:23:16.336,-0.37,0.175
2021-08-19 19:23:16.340,-0.375,0.195
2021-08-19 19:23:16.344,-0.38,0.19
2021-08-19 19:23:16.348,-0.425,0.21
2021-08-19 19:23:16.352,-0.415,0.21
2021-08-19 19:23:16.356,-0.45,0.22
2021-08-19 19:23:16.360,-0.43,0.225
2021-08-19 19:23:16.364,-0.45,0.22
2021-08-19 19:23:16.368,-0.43,0.2
2021-08-19 19:23:16.372,-0.435,0.205
2021-08-19 19:23:16.376,-0.43,0.205
2021-08-19 19:23:16.380,-0.44,0.19
2021-08-19 19:23:16.384,-0.42,0.185
2021-08-19 19:23:16.388,-0.435,0.185
2021-08-19 19:23:16.392,-0.435,0.155
2021-08-19 19:23:16.396,-0.445,0.165
2021-08-19 19:23:16.400,-0.45,0.155
2021-08-19 19:23:16.404,-0.445,0.145
2021-08-19 19:23:16.408,-0.415,0.155
2021-08-19 19:23:16.412,-0.435,0.14
2021-08-19 19:23:16.416,-0.42,0.135
2021-08-19 19:23:16.420,-0.41,0.13
2021-08-19 19:23:16.424,-0.415,0.115
2021-08-19 19:23:16.428,-0.41,0.11
2021-08-19 19:23:16.432,-0.385,0.105
2021-08-19 19:23:16.436,-0.375,0.095
2021-08-19 19:23:16.440,-0.38,0.075
2021-08-19 19:23:16.444,-0.365,0.085
2021-08-19 19:23:16.448,-0.355,0.07
2021-08-19 19:23:16.452,-0.35,0.07
2021-08-19 19:23:16.456,-0.32,0.055
2021-08-19 19:23:16.460,-0.33,0.035
2021-08-19 19:23:16.464,-0.3,0.025
2021-08-19 19:23:16.468,-0.275,0.0
2021-08-19 19:23:16.472,-0.275,-0.02
2021-08-19 19:23:16.476,-0.275,-0.025
2021-08-19 19:23:16.480,-0.275,-0.02
2021-08-19 19:23:16.484,-0.27,-0.025
2021-08-19 19:23:16.488,-0.255,-0.03
2021-08-19 19:23:16.492,-0.245,-0.06
2021-08-19 19:23:16.496,-0.27,-0.06
2021-08-19 19:23:16.500,-0.26,-0.06
2021-08-19 19:23:16.504,-0.245,-0.075
2021-08-19 19:23:16.508,-0.22,-0.1
2021-08-19 19:23:16.512,-0.2,-0.105
2021-08-19 19:23:16.516,-0.185,-0.11
2021-08-19 19:23:16.520,-0.19,-0.115
2021-08-19 19:23:16.524,-0.195,-0.085
2021-08-19 19:23:16.528,-0.18,-0.09
2021-08-19 19:23:16.532,-0.15,-0.07
2021-08-19 19:23:16.536,-0.135,-0.035
2021-08-19 19:23:16.540,-0.125,-0.02
2021-08-19 19:23:16.544,-0.11,0.005
2021-08-19 19:23:16.548,-0.115,0.025
2021-08-19 19:23:16.552,-0.115,0.04
2021-08-19 19:23:16.556,-0.14,0.025
2021-08-19 19:23:16.560,-0.165,0.01
2021-08-19 19:23:16.564,-0.18,0.035
2021-08-19 19:23:16.568,-0.215,0.06
2021-08-19 19:23:16.572,-0.24,0.045
2021-08-19 19:23:16.576,-0.21,0.035
2021-08-19 19:23:16.580,-0.21,0.035
2021-08-19 19:23:16.584,-0.2,0.03
2021-08-19 19:23:16.588,-0.21,0.01
2021-08-19 19:23:16.592,-0.205,0.03
2021-08-19 19:23:16.596,-0.2,0.0
2021-08-19 19:23:16.600,-0.195,-0.01
2021-08-19 19:23:16.604,-0.195,0.0
2021-08-19 19:23:16.608,-0.19,0.0
2021-08-19 19:23:16.612,-0.205,-0.02
2021-08-19 19:23:16.616,-0.205,-0.01
2021-08-19 19:23:16.620,-0.22,-0.04
2021-08-19 19:23:16.624,-0.225,-0.06
2021-08-19 19:23:16.628,-0.2,-0.045
2021-08-19 19:23:16.632,-0.2,-0.07
2021-08-19 19:23:16.636,-0.18,-0.06
2021-08-19 19:23:16.640,-0.22,-0.07
2021-08-19 19:23:16.644,-0.235,-0.09
2021-08-19 19:23:16.648,-0.21,-0.105
2021-08-19 19:23:16.652,-0.225,-0.105
2021-08-19 19:23:16.656,-0.2,-0.105
2021-08-19 19:23:16.660,-0.175,-0.085
2021-08-19 19:23:16.664,-0.15,-0.1
2021-08-19 19:23:16.668,-0.14,-0.08
2021-08-19 19:23:16.672,-0.16,-0.1
2021-08-19 19:23:16.676,-0.14,-0.09
2021-08-19 19:23:16.680,-0.155,-0.09
2021-08-19 19:23:16.684,-0.155,-0.1
2021-08-19 19:23:16.688,-0.15,-0.08
2021-08-19 19:23:16.692,-0.175,-0.065
2021-08-19 19:23:16.696,-0.175,-0.035
2021-08-19 19:23:16.700,-0.17,-0.04
2021-08-19 19:23:16.704,-0.17,-0.05
2021-08-19 19:23:16.708,-0.17,-0.02
2021-08-19 19:23:16.712,-0.185,-0.03
2021-08-19 19:23:16.716,-0.18,-0.06
2021-08-19 19:23:16.720,-0.17,-0.035
2021-08-19 19:23:16.724,-0.185,-0.025
2021-08-19 19:23:16.728,-0.18,-0.025
2021-08-19 19:23:16.732,-0.195,-0.03
2021-08-19 19:23:16.736,-0.195,-0.015
2021-08-19 19:23:16.740,-0.18,-0.015
2021-08-19 19:23:16.744,-0.17,-0.02
2021-08-19 19:23:16.748,-0.17,-0.01
2021-08-19 19:23:16.752,-0.165,-0.02
2021-08-19 19:23:16.756,-0.175,0.0
2021-08-19 19:23:16.760,-0.215,-0.015
2021-08-19 19:23:16.764,-0.22,-0.005
2021-08-19 19:23:16.768,-0.21,0.0
2021-08-19 19:23:16.772,-0.235,0.0
2021-08-19 19:23:16.776,-0.23,0.01
2021-08-19 19:23:16.780,-0.235,0.03
2021-08-19 19:23:16.784,-0.215,0.005
2021-08-19 19:23:16.788,-0.2,-0.005
2021-08-19 19:23:16.792,-0.19,-0.035
2021-08-19 19:23:16.796,-0.195,-0.085
2021-08-19 19:23:16.800,-0.215,-0.105
2021-08-19 19:23:16.804,-0.21,-0.115
2021-08-19 19:23:16.808,-0.2,-0.155
2021-08-19 19:23:16.812,-0.21,-0.15
2021-08-19 19:23:16.816,-0.25,-0.18
2021-08-19 19:23:16.820,-0.24,-0.17
2021-08-19 19:23:16.824,-0.265,-0.155
2021-08-19 19:23:16.828,-0.25,-0.165
2021-08-19 19:23:16.832,-0.24,-0.19
2021-08-19 19:23:16.836,-0.255,-0.185
2021-08-19 19:23:16.840,-0.245,-0.185
2021-08-19 19:23:16.844,-0.25,-0.2
2021-08-19 19:23:16.848,-0.245,-0.17
2021-08-19 19:23:16.852,-0.255,-0.17
2021-08-19 19:23:16.856,-0.255,-0.175
2021-08-19 19:23:16.860,-0.245,-0.175
2021-08-19 19:23:16.864,-0.255,-0.175
2021-08-19 19:23:16.868,-0.245,-0.165
2021-08-19 19:23:16.872,-0.23,-0.14
2021-08-19 19:23:16.876,-0.23,-0.16
2021-08-19 19:23:16.880,-0.21,-0.185
2021-08-19 19:23:16.884,-0.215,-0.19
2021-08-19 19:23:16.888,-0.22,-0.155
2021-08-19 19:23:16.892,-0.2,-0.18
2021-08-19 19:23:16.896,-0.2,-0.175
2021-08-19 19:23:16.900,-0.19,-0.175
2021-08-19 19:23:16.904,-0.21,-0.145
2021-08-19 19:23:16.908,-0.23,-0.16
2021-08-19 19:23:16.912,-0.23,-0.135
2021-08-19 19:23:16.916,-0.245,-0.13
2021-08-19 19:23:16.920,-0.255,-0.13
2021-08-19 19:23:16.924,-0.23,-0.12
2021-08-19 19:23:16.928,-0.235,-0.135
2021-08-19 19:23:16.932,-0.225,-0.125
2021-08-19 19:23:16.936,-0.23,-0.115
2021-08-19 19:23:16.940,-0.215,-0.12
2021-08-19 19:23:16.944,-0.205,-0.105
2021-08-19 19:23:16.948,-0.195,-0.095
2021-08-19 19:23:16.952,-0.205,-0.1
2021-08-19 19:23:16.956,-0.185,-0.11
2021-08-19 19:23:16.960,-0.175,-0.095
2021-08-19 19:23:16.964,-0.185,-0.08
2021-08-19 19:23:16.968,-0.215,-0.065
2021-08-19 19:23:16.972,-0.225,-0.055
2021-08-19 19:23:16.976,-0.225,-0.05
2021-08-19 19:23:16.980,-0.23,-0.05
2021-08-19 19:23:16.984,-0.24,-0.03
2021-08-19 19:23:16.988,-0.235,-0.015
2021-08-19 19:23:16.992,-0.24,-0.025
2021-08-19 19:23:16.996,-0.235,-0.015
2021-08-19 19:23:17.000,-0.23,-0.025
2021-08-19 19:23:17.004,-0.27,-0.04
2021-08-19 19:23:17.008,-0.24,-0.05
2021-08-19 19:23:17.012,-0.235,-0.03
2021-08-19 19:23:17.016,-0.195,-0.04
2021-08-19 19:23:17.020,-0.175,-0.055
2021-08-19 19:23:17.024,-0.115,-0.055
2021-08-19 19:23:17.028,-0.05,-0.085
2021-08-19 19:23:17.032,0.04,-0.11
2021-08-19 19:23:17.036,0.12,-0.14
2021-08-19 19:23:17.040,0.205,-0.2
2021-08-19 19:23:17.044,0.27,-0.265
2021-08-19 19:23:17.048,0.32,-0.36
2021-08-19 19:23:17.052,0.33,-0.455
2021-08-19 19:23:17.056,0.325,-0.535
2021-08-19 19:23:17.060,0.275,-0.72
2021-08-19 19:23:17.064,0.265,-0.875
2021-08-19 19:23:17.068,0.405,-1.09
2021-08-19 19:23:17.072,0.67,-1.375
2021-08-19 19:23:17.076,0.98,-1.69
2021-08-19 19:23:17.080,1.2,-1.95
2021-08-19 19:23:17.092,0.485,-1.635
2021-08-19 19:23:17.096,0.115,-1.09
2021-08-19 19:23:17.100,-0.06,-0.7
2021-08-19 19:23:17.104,-0.145,-0.51
2021-08-19 19:23:17.108,-0.165,-0.34
2021-08-19 19:23:17.112,-0.19,-0.21
2021-08-19 19:23:17.116,-0.23,-0.09
2021-08-19 19:23:17.120,-0.255,-0.03
2021-08-19 19:23:17.124,-0.285,0.03
2021-08-19 19:23:17.128,-0.325,0.03
2021-08-19 19:23:17.132,-0.335,0.04
2021-08-19 19:23:17.136,-0.35,0.05
2021-08-19 19:23:17.140,-0.37,0.055
2021-08-19 19:23:17.144,-0.39,0.055
2021-08-19 19:23:17.148,-0.4,0.045
2021-08-19 19:23:17.152,-0.395,0.025
2021-08-19 19:23:17.156,-0.405,0.035
2021-08-19 19:23:17.160,-0.4,0.035
2021-08-19 19:23:17.164,-0.395,0.05
2021-08-19 19:23:17.168,-0.4,0.05
2021-08-19 19:23:17.172,-0.395,0.04
2021-08-19 19:23:17.176,-0.395,0.055
2021-08-19 19:23:17.180,-0.395,0.065
2021-08-19 19:23:17.184,-0.455,0.08
2021-08-19 19:23:17.188,-0.435,0.105
2021-08-19 19:23:17.192,-0.46,0.09
2021-08-19 19:23:17.196,-0.47,0.115
2021-08-19 19:23:17.200,-0.465,0.16
2021-08-19 19:23:17.204,-0.455,0.145
2021-08-19 19:23:17.208,-0.45,0.155
2021-08-19 19:23:17.212,-0.435,0.165
2021-08-19 19:23:17.216,-0.445,0.155
2021-08-19 19:23:17.220,-0.415,0.165
2021-08-19 19:23:17.224,-0.41,0.14
2021-08-19 19:23:17.228,-0.435,0.14
2021-08-19 19:23:17.232,-0.44,0.12
2021-08-19 19:23:17.236,-0.43,0.125
2021-08-19 19:23:17.240,-0.42,0.125
2021-08-19 19:23:17.244,-0.425,0.135
2021-08-19 19:23:17.248,-0.415,0.14
2021-08-19 19:23:17.252,-0.385,0.11
2021-08-19 19:23:17.256,-0.355,0.11
2021-08-19 19:23:17.260,-0.36,0.12
2021-08-19 19:23:17.264,-0.375,0.075
2021-08-19 19:23:17.268,-0.375,0.07
2021-08-19 19:23:17.272,-0.39,0.085
2021-08-19 19:23:17.276,-0.385,0.04
2021-08-19 19:23:17.280,-0.37,0.05
2021-08-19 19:23:17.284,-0.36,0.035
2021-08-19 19:23:17.288,-0.36,0.05
2021-08-19 19:23:17.292,-0.34,0.02
2021-08-19 19:23:17.296,-0.33,0.0
2021-08-19 19:23:17.300,-0.305,0.0
2021-08-19 19:23:17.304,-0.29,0.0
2021-08-19 19:23:17.308,-0.265,-0.005
2021-08-19 19:23:17.312,-0.255,-0.025
2021-08-19 19:23:17.316,-0.235,-0.01
2021-08-19 19:23:17.320,-0.22,-0.035
2021-08-19 19:23:17.324,-0.22,-0.03
2021-08-19 19:23:17.328,-0.215,-0.045
2021-08-19 19:23:17.332,-0.205,-0.03
2021-08-19 19:23:17.336,-0.185,-0.035
2021-08-19 19:23:17.340,-0.18,-0.03
2021-08-19 19:23:17.344,-0.175,-0.05
2021-08-19 19:23:17.348,-0.18,-0.055
2021-08-19 19:23:17.352,-0.155,-0.07
2021-08-19 19:23:17.356,-0.15,-0.07
2021-08-19 19:23:17.360,-0.14,-0.075
2021-08-19 19:23:17.364,-0.15,-0.065
2021-08-19 19:23:17.368,-0.13,-0.065
2021-08-19 19:23:17.372,-0.12,-0.04
2021-08-19 19:23:17.376,-0.12,-0.075
2021-08-19 19:23:17.380,-0.11,-0.055
2021-08-19 19:23:17.384,-0.14,-0.07
2021-08-19 19:23:17.388,-0.14,-0.055
2021-08-19 19:23:17.392,-0.18,-0.035
2021-08-19 19:23:17.396,-0.21,-0.025
2021-08-19 19:23:17.400,-0.22,-0.03
2021-08-19 19:23:17.404,-0.22,-0.02
2021-08-19 19:23:17.408,-0.23,0.015
2021-08-19 19:23:17.412,-0.21,0.015
2021-08-19 19:23:17.416,-0.25,0.015
2021-08-19 19:23:17.420,-0.225,0.01
2021-08-19 19:23:17.424,-0.215,-0.015
2021-08-19 19:23:17.428,-0.205,-0.025
2021-08-19 19:23:17.432,-0.175,-0.005
2021-08-19 19:23:17.436,-0.115,0.005
2021-08-19 19:23:17.440,-0.07,-0.015
2021-08-19 19:23:17.444,-0.005,-0.03
2021-08-19 19:23:17.448,0.06,-0.055
2021-08-19 19:23:17.452,0.1,-0.105
2021-08-19 19:23:17.456,0.085,-0.205
2021-08-19 19:23:17.460,0.065,-0.285
2021-08-19 19:23:17.464,0.005,-0.385
2021-08-19 19:23:17.468,-0.02,-0.54
2021-08-19 19:23:17.472,0.105,-0.73
2021-08-19 19:23:17.476,0.38,-0.97
2021-08-19 19:23:17.480,0.755,-1.25
2021-08-19 19:23:17.484,1.055,-1.65
2021-08-19 19:23:17.488,1.22,-1.945
2021-08-19 19:23:17.496,0.81,-1.905
2021-08-19 19:23:17.500,0.355,-1.47
2021-08-19 19:23:17.504,0.03,-0.99
2021-08-19 19:23:17.508,-0.13,-0.635
2021-08-19 19:23:17.512,-0.205,-0.44
2021-08-19 19:23:17.516,-0.24,-0.3
2021-08-19 19:23:17.520,-0.245,-0.15
2021-08-19 19:23:17.524,-0.27,-0.06
2021-08-19 19:23:17.528,-0.27,-0.025
2021-08-19 19:23:17.532,-0.26,0.035
2021-08-19 19:23:17.536,-0.27,0.035
2021-08-19 19:23:17.540,-0.275,0.035
2021-08-19 19:23:17.544,-0.295,0.05
2021-08-19 19:23:17.548,-0.275,0.07
2021-08-19 19:23:17.552,-0.275,0.075
2021-08-19 19:23:17.556,-0.295,0.09
2021-08-19 19:23:17.560,-0.28,0.105
2021-08-19 19:23:17.564,-0.29,0.115
2021-08-19 19:23:17.568,-0.285,0.12
2021-08-19 19:23:17.572,-0.325,0.125
2021-08-19 19:23:17.576,-0.31,0.145
2021-08-19 19:23:17.580,-0.32,0.14
2021-08-19 19:23:17.584,-0.32,0.14
2021-08-19 19:23:17.588,-0.345,0.15
2021-08-19 19:23:17.592,-0.375,0.135
2021-08-19 19:23:17.596,-0.395,0.16
2021-08-19 19:23:17.600,-0.405,0.165
2021-08-19 19:23:17.604,-0.435,0.16
2021-08-19 19:23:17.608,-0.49,0.175
2021-08-19 19:23:17.612,-0.505,0.175
2021-08-19 19:23:17.616,-0.505,0.175
2021-08-19 19:23:17.620,-0.51,0.18
2021-08-19 19:23:17.624,-0.505,0.19
2021-08-19 19:23:17.628,-0.5,0.16
2021-08-19 19:23:17.632,-0.505,0.165
2021-08-19 19:23:17.636,-0.505,0.14
2021-08-19 19:23:17.640,-0.51,0.15
2021-08-19 19:23:17.644,-0.49,0.13
2021-08-19 19:23:17.648,-0.515,0.125
2021-08-19 19:23:17.652,-0.51,0.125
2021-08-19 19:23:17.656,-0.52,0.135
2021-08-19 19:23:17.660,-0.52,0.1
2021-08-19 19:23:17.664,-0.5,0.095
2021-08-19 19:23:17.668,-0.505,0.105
2021-08-19 19:23:17.672,-0.51,0.065
2021-08-19 19:23:17.676,-0.47,0.075
2021-08-19 19:23:17.680,-0.46,0.055
2021-08-19 19:23:17.684,-0.46,0.025
2021-08-19 19:23:17.688,-0.435,0.03
2021-08-19 19:23:17.692,-0.415,0.02
2021-08-19 19:23:17.696,-0.4,0.0
2021-08-19 19:23:17.700,-0.385,-0.01
2021-08-19 19:23:17.704,-0.385,-0.015
2021-08-19 19:23:17.708,-0.34,-0.025
2021-08-19 19:23:17.712,-0.335,-0.055
2021-08-19 19:23:17.716,-0.3,-0.07
2021-08-19 19:23:17.720,-0.25,-0.03
2021-08-19 19:23:17.724,-0.255,-0.04
2021-08-19 19:23:17.728,-0.22,-0.055
2021-08-19 19:23:17.732,-0.23,-0.07
2021-08-19 19:23:17.736,-0.2,-0.055
2021-08-19 19:23:17.740,-0.185,-0.07
2021-08-19 19:23:17.744,-0.15,-0.045
2021-08-19 19:23:17.748,-0.125,-0.035
2021-08-19 19:23:17.752,-0.105,-0.04
2021-08-19 19:23:17.756,-0.07,-0.045
2021-08-19 19:23:17.760,-0.045,-0.04
2021-08-19 19:23:17.764,-0.035,-0.045
2021-08-19 19:23:17.768,-0.045,-0.055
2021-08-19 19:23:17.772,-0.045,-0.08
2021-08-19 19:23:17.776,-0.06,-0.06
2021-08-19 19:23:17.780,-0.08,-0.07
2021-08-19 19:23:17.784,-0.065,-0.04
2021-08-19 19:23:17.788,-0.075,-0.035
2021-08-19 19:23:17.792,-0.075,-0.03
2021-08-19 19:23:17.796,-0.07,-0.025
2021-08-19 19:23:17.800,-0.07,0.0
2021-08-19 19:23:17.804,-0.095,0.015
2021-08-19 19:23:17.808,-0.11,0.03
2021-08-19 19:23:17.812,-0.15,0.035
2021-08-19 19:23:17.816,-0.17,0.025
2021-08-19 19:23:17.820,-0.19,0.02
2021-08-19 19:23:17.824,-0.195,0.04
2021-08-19 19:23:17.828,-0.235,0.05
2021-08-19 19:23:17.832,-0.23,0.045
2021-08-19 19:23:17.836,-0.25,0.05
2021-08-19 19:23:17.840,-0.26,0.02
2021-08-19 19:23:17.844,-0.26,0.0
2021-08-19 19:23:17.848,-0.265,-0.01
2021-08-19 19:23:17.852,-0.26,-0.035
2021-08-19 19:23:17.856,-0.255,-0.03
2021-08-19 19:23:17.860,-0.285,-0.06
2021-08-19 19:23:17.864,-0.27,-0.055
2021-08-19 19:23:17.868,-0.28,-0.105
2021-08-19 19:23:17.872,-0.27,-0.11
2021-08-19 19:23:17.876,-0.27,-0.13
2021-08-19 19:23:17.880,-0.27,-0.13
2021-08-19 19:23:17.884,-0.275,-0.12
2021-08-19 19:23:17.888,-0.285,-0.145
2021-08-19 19:23:17.892,-0.245,-0.15
2021-08-19 19:23:17.896,-0.2,-0.16
2021-08-19 19:23:17.900,-0.165,-0.145
2021-08-19 19:23:17.904,-0.095,-0.15
2021-08-19 19:23:17.908,-0.01,-0.185
2021-08-19 19:23:17.912,0.065,-0.21
2021-08-19 19:23:17.916,0.105,-0.3
2021-08-19 19:23:17.920,0.135,-0.37
2021-08-19 19:23:17.924,0.15,-0.44
2021-08-19 19:23:17.928,0.14,-0.525
2021-08-19 19:23:17.932,0.115,-0.64
2021-08-19 19:23:17.936,0.155,-0.83
2021-08-19 19:23:17.940,0.305,-1.065
2021-08-19 19:23:17.944,0.615,-1.32
2021-08-19 19:23:17.948,0.93,-1.605
2021-08-19 19:23:17.952,1.11,-1.875
2021-08-19 19:23:17.960,0.655,-1.88
2021-08-19 19:23:17.964,0.175,-1.48
2021-08-19 19:23:17.968,-0.14,-0.97
2021-08-19 19:23:17.972,-0.28,-0.61
2021-08-19 19:23:17.976,-0.32,-0.405
2021-08-19 19:23:17.980,-0.32,-0.26
2021-08-19 19:23:17.984,-0.32,-0.135
2021-08-19 19:23:17.988,-0.31,-0.015
2021-08-19 19:23:17.992,-0.32,0.045
2021-08-19 19:23:17.996,-0.32,0.075
2021-08-19 19:23:18.000,-0.3,0.11
2021-08-19 19:23:18.004,-0.285,0.125
2021-08-19 19:23:18.008,-0.295,0.12
2021-08-19 19:23:18.012,-0.295,0.125
2021-08-19 19:23:18.016,-0.335,0.145
2021-08-19 19:23:18.020,-0.37,0.155
2021-08-19 19:23:18.024,-0.395,0.135
2021-08-19 19:23:18.028,-0.425,0.135
2021-08-19 19:23:18.032,-0.435,0.145
2021-08-19 19:23:18.036,-0.445,0.125
2021-08-19 19:23:18.040,-0.45,0.13
2021-08-19 19:23:18.044,-0.45,0.13
2021-08-19 19:23:18.048,-0.47,0.125
2021-08-19 19:23:18.052,-0.465,0.115
2021-08-19 19:23:18.056,-0.455,0.12
2021-08-19 19:23:18.060,-0.46,0.11
2021-08-19 19:23:18.064,-0.49,0.11
2021-08-19 19:23:18.068,-0.495,0.12
2021-08-19 19:23:18.072,-0.48,0.14
2021-08-19 19:23:18.076,-0.495,0.105
2021-08-19 19:23:18.080,-0.5,0.105
2021-08-19 19:23:18.084,-0.51,0.11
2021-08-19 19:23:18.088,-0.47,0.13
2021-08-19 19:23:18.092,-0.495,0.12
2021-08-19 19:23:18.096,-0.49,0.12
2021-08-19 19:23:18.100,-0.49,0.13
2021-08-19 19:23:18.104,-0.505,0.105
2021-08-19 19:23:18.108,-0.51,0.11
2021-08-19 19:23:18.112,-0.495,0.09
2021-08-19 19:23:18.116,-0.5,0.08
2021-08-19 19:23:18.120,-0.49,0.07
2021-08-19 19:23:18.124,-0.48,0.075
2021-08-19 19:23:18.128,-0.465,0.065
2021-08-19 19:23:18.132,-0.47,0.08
2021-08-19 19:23:18.136,-0.465,0.085
2021-08-19 19:23:18.140,-0.445,0.075
2021-08-19 19:23:18.144,-0.435,0.075
2021-08-19 19:23:18.148,-0.435,0.04
2021-08-19 19:23:18.152,-0.43,0.06
2021-08-19 19:23:18.156,-0.395,0.065
2021-08-19 19:23:18.160,-0.4,0.045
2021-08-19 19:23:18.164,-0.38,0.015
2021-08-19 19:23:18.168,-0.345,0.0
2021-08-19 19:23:18.172,-0.32,0.0
2021-08-19 19:23:18.176,-0.315,0.0
2021-08-19 19:23:18.180,-0.32,0.0
2021-08-19 19:23:18.184,-0.275,-0.025
2021-08-19 19:23:18.188,-0.265,-0.02
2021-08-19 19:23:18.192,-0.24,-0.02
2021-08-19 19:23:18.196,-0.235,-0.045
2021-08-19 19:23:18.200,-0.185,-0.03
2021-08-19 19:23:18.204,-0.145,-0.04
2021-08-19 19:23:18.208,-0.135,-0.04
2021-08-19 19:23:18.212,-0.12,-0.025
2021-08-19 19:23:18.216,-0.09,-0.025
2021-08-19 19:23:18.220,-0.1,-0.04
2021-08-19 19:23:18.224,-0.09,-0.02
2021-08-19 19:23:18.228,-0.135,0.0
2021-08-19 19:23:18.232,-0.155,-0.01
2021-08-19 19:23:18.236,-0.175,-0.01
2021-08-19 19:23:18.240,-0.205,0.0
2021-08-19 19:23:18.244,-0.22,0.03
2021-08-19 19:23:18.248,-0.27,0.05
2021-08-19 19:23:18.252,-0.275,0.055
2021-08-19 19:23:18.256,-0.29,0.045
2021-08-19 19:23:18.260,-0.26,0.06
2021-08-19 19:23:18.264,-0.26,0.05
2021-08-19 19:23:18.268,-0.25,0.045
2021-08-19 19:23:18.272,-0.26,0.03
2021-08-19 19:23:18.276,-0.285,-0.005
2021-08-19 19:23:18.280,-0.275,0.005
2021-08-19 19:23:18.284,-0.28,-0.025
2021-08-19 19:23:18.288,-0.295,-0.03
2021-08-19 19:23:18.292,-0.3,-0.045
2021-08-19 19:23:18.296,-0.265,-0.05
2021-08-19 19:23:18.300,-0.28,-0.04
2021-08-19 19:23:18.304,-0.285,-0.04
2021-08-19 19:23:18.308,-0.285,-0.055
2021-08-19 19:23:18.312,-0.3,-0.05
2021-08-19 19:23:18.316,-0.27,-0.05
2021-08-19 19:23:18.320,-0.275,-0.055
2021-08-19 19:23:18.324,-0.26,-0.05
2021-08-19 19:23:18.328,-0.255,-0.06
2021-08-19 19:23:18.332,-0.24,-0.085
2021-08-19 19:23:18.336,-0.245,-0.08
2021-08-19 19:23:18.340,-0.26,-0.07
2021-08-19 19:23:18.344,-0.25,-0.075
2021-08-19 19:23:18.348,-0.265,-0.08
2021-08-19 19:23:18.352,-0.265,-0.065
2021-08-19 19:23:18.356,-0.275,-0.08
2021-08-19 19:23:18.360,-0.25,-0.07
2021-08-19 19:23:18.364,-0.26,-0.1
2021-08-19 19:23:18.368,-0.27,-0.1
2021-08-19 19:23:18.372,-0.24,-0.105
2021-08-19 19:23:18.376,-0.25,-0.105
2021-08-19 19:23:18.380,-0.245,-0.085
2021-08-19 19:23:18.384,-0.23,-0.09
2021-08-19 19:23:18.388,-0.225,-0.11
2021-08-19 19:23:18.392,-0.175,-0.09
2021-08-19 19:23:18.396,-0.13,-0.115
2021-08-19 19:23:18.400,-0.035,-0.1
2021-08-19 19:23:18.404,0.045,-0.115
2021-08-19 19:23:18.408,0.125,-0.14
2021-08-19 19:23:18.412,0.19,-0.2
2021-08-19 19:23:18.416,0.215,-0.285
2021-08-19 19:23:18.420,0.225,-0.35
2021-08-19 19:23:18.424,0.235,-0.47
2021-08-19 19:23:18.428,0.225,-0.585
2021-08-19 19:23:18.432,0.255,-0.755
2021-08-19 19:23:18.436,0.41,-0.97
2021-08-19 19:23:18.440,0.705,-1.235
2021-08-19 19:23:18.444,1.02,-1.495
2021-08-19 19:23:18.448,1.2,-1.765
2021-08-19 19:23:18.452,1.12,-1.885
2021-08-19 19:23:18.456,0.735,-1.78
2021-08-19 19:23:18.460,0.24,-1.35
2021-08-19 19:23:18.464,-0.1,-0.85
2021-08-19 19:23:18.468,-0.305,-0.53
2021-08-19 19:23:18.472,-0.385,-0.295
2021-08-19 19:23:18.476,-0.42,-0.125
2021-08-19 19:23:18.480,-0.405,0.005
2021-08-19 19:23:18.484,-0.425,0.13
2021-08-19 19:23:18.488,-0.475,0.175
2021-08-19 19:23:18.492,-0.45,0.2
2021-08-19 19:23:18.496,-0.45,0.22
2021-08-19 19:23:18.500,-0.455,0.205
2021-08-19 19:23:18.504,-0.425,0.185
2021-08-19 19:23:18.508,-0.445,0.195
2021-08-19 19:23:18.512,-0.41,0.17
2021-08-19 19:23:18.516,-0.4,0.19
2021-08-19 19:23:18.520,-0.415,0.18
2021-08-19 19:23:18.524,-0.41,0.17
2021-08-19 19:23:18.528,-0.425,0.155
2021-08-19 19:23:18.532,-0.42,0.14
2021-08-19 19:23:18.536,-0.435,0.105
2021-08-19 19:23:18.540,-0.425,0.085
2021-08-19 19:23:18.544,-0.435,0.065
2021-08-19 19:23:18.548,-0.465,0.05
2021-08-19 19:23:18.552,-0.445,0.06
2021-08-19 19:23:18.556,-0.46,0.055
2021-08-19 19:23:18.560,-0.44,0.065
2021-08-19 19:23:18.564,-0.455,0.07
2021-08-19 19:23:18.568,-0.445,0.055
2021-08-19 19:23:18.572,-0.46,0.055
2021-08-19 19:23:18.576,-0.47,0.055
2021-08-19 19:23:18.580,-0.48,0.06
2021-08-19 19:23:18.584,-0.46,0.09
2021-08-19 19:23:18.588,-0.495,0.07
2021-08-19 19:23:18.592,-0.485,0.06
2021-08-19 19:23:18.596,-0.49,0.07
2021-08-19 19:23:18.600,-0.475,0.08
2021-08-19 19:23:18.604,-0.445,0.085
2021-08-19 19:23:18.608,-0.44,0.08
2021-08-19 19:23:18.612,-0.44,0.08
2021-08-19 19:23:18.616,-0.41,0.045
2021-08-19 19:23:18.620,-0.41,0.07
2021-08-19 19:23:18.624,-0.41,0.05
2021-08-19 19:23:18.628,-0.39,0.035
2021-08-19 19:23:18.632,-0.385,0.055
2021-08-19 19:23:18.636,-0.37,0.06
2021-08-19 19:23:18.640,-0.365,0.075
2021-08-19 19:23:18.644,-0.335,0.085
2021-08-19 19:23:18.648,-0.335,0.075
2021-08-19 19:23:18.652,-0.305,0.07
2021-08-19 19:23:18.656,-0.29,0.07
2021-08-19 19:23:18.660,-0.27,0.08
2021-08-19 19:23:18.664,-0.26,0.075
2021-08-19 19:23:18.668,-0.255,0.075
2021-08-19 19:23:18.672,-0.275,0.05
2021-08-19 19:23:18.676,-0.28,0.06
2021-08-19 19:23:18.680,-0.285,0.04
2021-08-19 19:23:18.684,-0.29,0.02
2021-08-19 19:23:18.688,-0.305,0.035
2021-08-19 19:23:18.692,-0.295,0.035
2021-08-19 19:23:18.696,-0.3,0.045
2021-08-19 19:23:18.700,-0.27,0.05
2021-08-19 19:23:18.704,-0.265,0.07
2021-08-19 19:23:18.708,-0.28,0.045
2021-08-19 19:23:18.712,-0.285,0.025
2021-08-19 19:23:18.716,-0.29,0.035
2021-08-19 19:23:18.720,-0.265,0.0
2021-08-19 19:23:18.724,-0.285,0.015
2021-08-19 19:23:18.728,-0.28,0.01
2021-08-19 19:23:18.732,-0.285,-0.005
2021-08-19 19:23:18.736,-0.27,-0.005
2021-08-19 19:23:18.740,-0.245,0.01
2021-08-19 19:23:18.744,-0.22,-0.035
2021-08-19 19:23:18.748,-0.205,-0.015
2021-08-19 19:23:18.752,-0.2,-0.015
2021-08-19 19:23:18.756,-0.195,-0.025
2021-08-19 19:23:18.760,-0.2,-0.01
2021-08-19 19:23:18.764,-0.21,0.0
2021-08-19 19:23:18.768,-0.21,0.0
2021-08-19 19:23:18.772,-0.19,-0.005
2021-08-19 19:23:18.776,-0.205,-0.015
2021-08-19 19:23:18.780,-0.2,-0.02
2021-08-19 19:23:18.784,-0.185,-0.045
2021-08-19 19:23:18.788,-0.145,-0.08
2021-08-19 19:23:18.792,-0.085,-0.11
2021-08-19 19:23:18.796,0.0,-0.1
2021-08-19 19:23:18.800,0.045,-0.1
2021-08-19 19:23:18.804,0.125,-0.16
2021-08-19 19:23:18.808,0.14,-0.225
2021-08-19 19:23:18.812,0.15,-0.285
2021-08-19 19:23:18.816,0.095,-0.38
2021-08-19 19:23:18.820,0.04,-0.505
2021-08-19 19:23:18.824,0.035,-0.64
2021-08-19 19:23:18.828,0.135,-0.825
2021-08-19 19:23:18.832,0.39,-1.08
2021-08-19 19:23:18.836,0.73,-1.39
2021-08-19 19:23:18.840,1.035,-1.74
2021-08-19 19:23:18.852,0.765,-1.955
2021-08-19 19:23:18.856,0.29,-1.445
2021-08-19 19:23:18.860,-0.045,-0.925
2021-08-19 19:23:18.864,-0.2,-0.58
2021-08-19 19:23:18.868,-0.29,-0.405
2021-08-19 19:23:18.872,-0.32,-0.27
2021-08-19 19:23:18.876,-0.335,-0.14
2021-08-19 19:23:18.880,-0.325,-0.04
2021-08-19 19:23:18.884,-0.32,0.025
2021-08-19 19:23:18.888,-0.325,0.055
2021-08-19 19:23:18.892,-0.345,0.09
2021-08-19 19:23:18.896,-0.365,0.095
2021-08-19 19:23:18.900,-0.395,0.11
2021-08-19 19:23:18.904,-0.42,0.125
2021-08-19 19:23:18.908,-0.445,0.11
2021-08-19 19:23:18.912,-0.465,0.14
2021-08-19 19:23:18.916,-0.48,0.165
2021-08-19 19:23:18.920,-0.495,0.195
2021-08-19 19:23:18.924,-0.49,0.22
2021-08-19 19:23:18.928,-0.485,0.195
2021-08-19 19:23:18.932,-0.505,0.21
2021-08-19 19:23:18.936,-0.5,0.19
2021-08-19 19:23:18.940,-0.515,0.175
2021-08-19 19:23:18.944,-0.545,0.175
2021-08-19 19:23:18.948,-0.545,0.175
2021-08-19 19:23:18.952,-0.57,0.14
2021-08-19 19:23:18.956,-0.575,0.165
2021-08-19 19:23:18.960,-0.575,0.16
2021-08-19 19:23:18.964,-0.6,0.15
2021-08-19 19:23:18.968,-0.605,0.125
2021-08-19 19:23:18.972,-0.605,0.13
2021-08-19 19:23:18.976,-0.59,0.135
2021-08-19 19:23:18.980,-0.59,0.13
2021-08-19 19:23:18.984,-0.58,0.14
2021-08-19 19:23:18.988,-0.58,0.12
2021-08-19 19:23:18.992,-0.58,0.09
2021-08-19 19:23:18.996,-0.58,0.11
2021-08-19 19:23:19.000,-0.58,0.12
2021-08-19 19:23:19.004,-0.54,0.115
2021-08-19 19:23:19.008,-0.535,0.13
2021-08-19 19:23:19.012,-0.51,0.125
2021-08-19 19:23:19.016,-0.46,0.13
2021-08-19 19:23:19.020,-0.425,0.135
2021-08-19 19:23:19.024,-0.38,0.135
2021-08-19 19:23:19.028,-0.37,0.155
2021-08-19 19:23:19.032,-0.35,0.155
2021-08-19 19:23:19.036,-0.34,0.16
2021-08-19 19:23:19.040,-0.32,0.135
2021-08-19 19:23:19.044,-0.315,0.11
2021-08-19 19:23:19.048,-0.285,0.045
2021-08-19 19:23:19.052,-0.28,0.01
2021-08-19 19:23:19.056,-0.26,-0.015
2021-08-19 19:23:19.060,-0.23,-0.055
2021-08-19 19:23:19.064,-0.245,-0.09
2021-08-19 19:23:19.068,-0.245,-0.09
2021-08-19 19:23:19.072,-0.235,-0.1
2021-08-19 19:23:19.076,-0.24,-0.1
2021-08-19 19:23:19.080,-0.22,-0.115
2021-08-19 19:23:19.084,-0.21,-0.11
2021-08-19 19:23:19.088,-0.215,-0.09
2021-08-19 19:23:19.092,-0.2,-0.115
2021-08-19 19:23:19.096,-0.2,-0.12
2021-08-19 19:23:19.100,-0.19,-0.085
2021-08-19 19:23:19.104,-0.205,-0.065
2021-08-19 19:23:19.108,-0.22,-0.04
2021-08-19 19:23:19.112,-0.24,-0.02
2021-08-19 19:23:19.116,-0.26,-0.025
2021-08-19 19:23:19.120,-0.29,-0.015
2021-08-19 19:23:19.124,-0.275,0.005
2021-08-19 19:23:19.128,-0.3,0.0
2021-08-19 19:23:19.132,-0.31,0.01
2021-08-19 19:23:19.136,-0.305,0.005
2021-08-19 19:23:19.140,-0.31,-0.01
2021-08-19 19:23:19.144,-0.335,-0.005
2021-08-19 19:23:19.148,-0.315,-0.015
2021-08-19 19:23:19.152,-0.285,-0.01
2021-08-19 19:23:19.156,-0.3,-0.02
2021-08-19 19:23:19.160,-0.32,-0.025
2021-08-19 19:23:19.164,-0.335,-0.005
2021-08-19 19:23:19.168,-0.32,-0.025
2021-08-19 19:23:19.172,-0.31,-0.015
2021-08-19 19:23:19.176,-0.335,-0.035
2021-08-19 19:23:19.180,-0.34,-0.025
2021-08-19 19:23:19.184,-0.34,-0.025
2021-08-19 19:23:19.188,-0.34,-0.045
2021-08-19 19:23:19.192,-0.355,-0.045
2021-08-19 19:23:19.196,-0.345,-0.05
2021-08-19 19:23:19.200,-0.335,-0.035
2021-08-19 19:23:19.204,-0.35,-0.065
2021-08-19 19:23:19.208,-0.34,-0.08
2021-08-19 19:23:19.212,-0.34,-0.075
2021-08-19 19:23:19.216,-0.33,-0.06
2021-08-19 19:23:19.220,-0.33,-0.08
2021-08-19 19:23:19.224,-0.315,-0.09
2021-08-19 19:23:19.228,-0.3,-0.07
2021-08-19 19:23:19.232,-0.31,-0.1
2021-08-19 19:23:19.236,-0.29,-0.09
2021-08-19 19:23:19.240,-0.27,-0.07
2021-08-19 19:23:19.244,-0.27,-0.07
2021-08-19 19:23:19.248,-0.265,-0.08
2021-08-19 19:23:19.252,-0.245,-0.095
2021-08-19 19:23:19.256,-0.22,-0.055
2021-08-19 19:23:19.260,-0.205,-0.085
2021-08-19 19:23:19.264,-0.195,-0.075
2021-08-19 19:23:19.268,-0.18,-0.075
2021-08-19 19:23:19.272,-0.16,-0.095
2021-08-19 19:23:19.276,-0.165,-0.065
2021-08-19 19:23:19.280,-0.15,-0.08
2021-08-19 19:23:19.284,-0.145,-0.055
2021-08-19 19:23:19.288,-0.125,-0.045
2021-08-19 19:23:19.292,-0.09,-0.04
2021-08-19 19:23:19.296,-0.1,-0.03
2021-08-19 19:23:19.300,-0.085,-0.02
2021-08-19 19:23:19.304,-0.07,-0.01
2021-08-19 19:23:19.308,-0.07,-0.005
2021-08-19 19:23:19.312,-0.085,0.01
2021-08-19 19:23:19.316,-0.11,0.01
2021-08-19 19:23:19.320,-0.13,0.0
2021-08-19 19:23:19.324,-0.18,-0.01
2021-08-19 19:23:19.328,-0.195,-0.04
2021-08-19 19:23:19.332,-0.235,-0.055
2021-08-19 19:23:19.336,-0.245,-0.04
2021-08-19 19:23:19.340,-0.26,-0.04
2021-08-19 19:23:19.344,-0.28,-0.045
2021-08-19 19:23:19.348,-0.295,-0.05
2021-08-19 19:23:19.352,-0.305,-0.07
2021-08-19 19:23:19.356,-0.315,-0.085
2021-08-19 19:23:19.360,-0.325,-0.095
2021-08-19 19:23:19.364,-0.3,-0.065
2021-08-19 19:23:19.368,-0.31,-0.075
2021-08-19 19:23:19.372,-0.33,-0.06
2021-08-19 19:23:19.376,-0.32,-0.09
2021-08-19 19:23:19.380,-0.32,-0.075
2021-08-19 19:23:19.384,-0.3,-0.08
2021-08-19 19:23:19.388,-0.295,-0.085
2021-08-19 19:23:19.392,-0.285,-0.085
2021-08-19 19:23:19.396,-0.265,-0.1
2021-08-19 19:23:19.400,-0.25,-0.115
2021-08-19 19:23:19.404,-0.23,-0.115
2021-08-19 19:23:19.408,-0.2,-0.11
2021-08-19 19:23:19.412,-0.13,-0.11
2021-08-19 19:23:19.416,-0.08,-0.105
2021-08-19 19:23:19.420,0.01,-0.14
2021-08-19 19:23:19.424,0.1,-0.17
2021-08-19 19:23:19.428,0.165,-0.22
2021-08-19 19:23:19.432,0.24,-0.32
2021-08-19 19:23:19.436,0.26,-0.41
2021-08-19 19:23:19.440,0.255,-0.515
2021-08-19 19:23:19.444,0.225,-0.675
2021-08-19 19:23:19.448,0.215,-0.845
2021-08-19 19:23:19.452,0.34,-1.07
2021-08-19 19:23:19.456,0.65,-1.37
2021-08-19 19:23:19.460,0.98,-1.675
2021-08-19 19:23:19.464,1.18,-1.945
2021-08-19 19:23:19.472,0.71,-1.905
2021-08-19 19:23:19.476,0.235,-1.44
2021-08-19 19:23:19.480,-0.06,-0.925
2021-08-19 19:23:19.484,-0.215,-0.585
2021-08-19 19:23:19.488,-0.28,-0.385
2021-08-19 19:23:19.492,-0.275,-0.24
2021-08-19 19:23:19.496,-0.275,-0.08
2021-08-19 19:23:19.500,-0.27,-0.005
2021-08-19 19:23:19.504,-0.29,0.055
2021-08-19 19:23:19.508,-0.3,0.07
2021-08-19 19:23:19.512,-0.28,0.095
2021-08-19 19:23:19.516,-0.285,0.09
2021-08-19 19:23:19.520,-0.285,0.105
2021-08-19 19:23:19.524,-0.305,0.115
2021-08-19 19:23:19.528,-0.29,0.16
2021-08-19 19:23:19.532,-0.3,0.155
2021-08-19 19:23:19.536,-0.3,0.17
2021-08-19 19:23:19.540,-0.28,0.19
2021-08-19 19:23:19.544,-0.28,0.2
2021-08-19 19:23:19.548,-0.27,0.205
2021-08-19 19:23:19.552,-0.265,0.22
2021-08-19 19:23:19.556,-0.315,0.21
2021-08-19 19:23:19.560,-0.335,0.21
2021-08-19 19:23:19.564,-0.37,0.195
2021-08-19 19:23:19.568,-0.385,0.145
2021-08-19 19:23:19.572,-0.385,0.14
2021-08-19 19:23:19.576,-0.43,0.125
2021-08-19 19:23:19.580,-0.445,0.125
2021-08-19 19:23:19.584,-0.465,0.105
2021-08-19 19:23:19.588,-0.47,0.1
2021-08-19 19:23:19.592,-0.47,0.11
2021-08-19 19:23:19.596,-0.47,0.095
2021-08-19 19:23:19.600,-0.485,0.125
2021-08-19 19:23:19.604,-0.495,0.11
2021-08-19 19:23:19.608,-0.48,0.13
2021-08-19 19:23:19.612,-0.485,0.1
2021-08-19 19:23:19.616,-0.495,0.09
2021-08-19 19:23:19.620,-0.475,0.1
2021-08-19 19:23:19.624,-0.485,0.105
2021-08-19 19:23:19.628,-0.49,0.085
2021-08-19 19:23:19.632,-0.46,0.095
2021-08-19 19:23:19.636,-0.445,0.1
2021-08-19 19:23:19.640,-0.44,0.085
2021-08-19 19:23:19.644,-0.44,0.085
2021-08-19 19:23:19.648,-0.42,0.095
2021-08-19 19:23:19.652,-0.41,0.085
2021-08-19 19:23:19.656,-0.405,0.06
2021-08-19 19:23:19.660,-0.36,0.08
2021-08-19 19:23:19.664,-0.375,0.065
2021-08-19 19:23:19.668,-0.36,0.065
2021-08-19 19:23:19.672,-0.355,0.05
2021-08-19 19:23:19.676,-0.34,0.04
2021-08-19 19:23:19.680,-0.345,0.025
2021-08-19 19:23:19.684,-0.365,0.015
2021-08-19 19:23:19.688,-0.34,0.0
2021-08-19 19:23:19.692,-0.315,-0.015
2021-08-19 19:23:19.696,-0.305,-0.035
2021-08-19 19:23:19.700,-0.275,-0.04
2021-08-19 19:23:19.704,-0.27,-0.07
2021-08-19 19:23:19.708,-0.235,-0.08
2021-08-19 19:23:19.712,-0.23,-0.065
2021-08-19 19:23:19.716,-0.22,-0.08
2021-08-19 19:23:19.720,-0.225,-0.085
2021-08-19 19:23:19.724,-0.22,-0.065
2021-08-19 19:23:19.728,-0.2,-0.045
2021-08-19 19:23:19.732,-0.2,-0.07
2021-08-19 19:23:19.736,-0.16,-0.05
2021-08-19 19:23:19.740,-0.185,-0.025
2021-08-19 19:23:19.744,-0.17,-0.035
2021-08-19 19:23:19.748,-0.185,-0.03
2021-08-19 19:23:19.752,-0.135,-0.05
2021-08-19 19:23:19.756,-0.135,-0.04
2021-08-19 19:23:19.760,-0.12,-0.02
2021-08-19 19:23:19.764,-0.08,-0.01
2021-08-19 19:23:19.768,-0.07,0.0
2021-08-19 19:23:19.772,-0.07,-0.015
2021-08-19 19:23:19.776,-0.07,0.01
2021-08-19 19:23:19.780,-0.1,0.015
2021-08-19 19:23:19.784,-0.13,0.0
2021-08-19 19:23:19.788,-0.145,-0.01
2021-08-19 19:23:19.792,-0.14,-0.005
2021-08-19 19:23:19.796,-0.155,-0.01
2021-08-19 19:23:19.800,-0.165,-0.025
2021-08-19 19:23:19.804,-0.19,-0.05
2021-08-19 19:23:19.808,-0.2,-0.04
2021-08-19 19:23:19.812,-0.245,-0.07
2021-08-19 19:23:19.816,-0.245,-0.075
2021-08-19 19:23:19.820,-0.265,-0.075
2021-08-19 19:23:19.824,-0.265,-0.085
2021-08-19 19:23:19.828,-0.27,-0.09
2021-08-19 19:23:19.832,-0.28,-0.11
2021-08-19 19:23:19.836,-0.27,-0.1
2021-08-19 19:23:19.840,-0.275,-0.105
2021-08-19 19:23:19.844,-0.28,-0.1
2021-08-19 19:23:19.848,-0.25,-0.14
2021-08-19 19:23:19.852,-0.26,-0.13
2021-08-19 19:23:19.856,-0.25,-0.13
2021-08-19 19:23:19.860,-0.26,-0.14
2021-08-19 19:23:19.864,-0.24,-0.125
2021-08-19 19:23:19.868,-0.25,-0.145
2021-08-19 19:23:19.872,-0.23,-0.13
2021-08-19 19:23:19.876,-0.205,-0.145
2021-08-19 19:23:19.880,-0.23,-0.13
2021-08-19 19:23:19.884,-0.22,-0.135
2021-08-19 19:23:19.888,-0.215,-0.15
2021-08-19 19:23:19.892,-0.21,-0.135
2021-08-19 19:23:19.896,-0.21,-0.115
2021-08-19 19:23:19.900,-0.205,-0.125
2021-08-19 19:23:19.904,-0.205,-0.105
2021-08-19 19:23:19.908,-0.185,-0.135
2021-08-19 19:23:19.912,-0.18,-0.12
2021-08-19 19:23:19.916,-0.16,-0.13
2021-08-19 19:23:19.920,-0.18,-0.13
2021-08-19 19:23:19.924,-0.18,-0.13
2021-08-19 19:23:19.928,-0.205,-0.125
2021-08-19 19:23:19.932,-0.205,-0.13
2021-08-19 19:23:19.936,-0.22,-0.115
2021-08-19 19:23:19.940,-0.23,-0.095
2021-08-19 19:23:19.944,-0.25,-0.09
2021-08-19 19:23:19.948,-0.255,-0.075
2021-08-19 19:23:19.952,-0.225,-0.08
2021-08-19 19:23:19.956,-0.245,-0.085
2021-08-19 19:23:19.960,-0.245,-0.115
2021-08-19 19:23:19.964,-0.245,-0.135
2021-08-19 19:23:19.968,-0.24,-0.12
2021-08-19 19:23:19.972,-0.22,-0.12
2021-08-19 19:23:19.976,-0.23,-0.115
2021-08-19 19:23:19.980,-0.22,-0.14
2021-08-19 19:23:19.984,-0.22,-0.1
2021-08-19 19:23:19.988,-0.23,-0.12
2021-08-19 19:23:19.992,-0.215,-0.1
2021-08-19 19:23:19.996,-0.2,-0.085
2021-08-19 19:23:20.000,-0.2,-0.1
2021-08-19 19:23:20.004,-0.215,-0.085
2021-08-19 19:23:20.008,-0.18,-0.055
2021-08-19 19:23:20.012,-0.2,-0.03
2021-08-19 19:23:20.016,-0.185,-0.02
2021-08-19 19:23:20.020,-0.18,-0.025
2021-08-19 19:23:20.024,-0.195,-0.04
2021-08-19 19:23:20.028,-0.195,-0.035
2021-08-19 19:23:20.032,-0.21,-0.075
2021-08-19 19:23:20.036,-0.245,-0.08
2021-08-19 19:23:20.040,-0.24,-0.11
2021-08-19 19:23:20.044,-0.235,-0.135
2021-08-19 19:23:20.048,-0.255,-0.145
2021-08-19 19:23:20.052,-0.25,-0.13
2021-08-19 19:23:20.056,-0.26,-0.12
2021-08-19 19:23:20.060,-0.26,-0.14
2021-08-19 19:23:20.064,-0.255,-0.15
2021-08-19 19:23:20.068,-0.28,-0.145
2021-08-19 19:23:20.072,-0.27,-0.14
2021-08-19 19:23:20.076,-0.275,-0.13
2021-08-19 19:23:20.080,-0.26,-0.15
2021-08-19 19:23:20.084,-0.25,-0.14
2021-08-19 19:23:20.088,-0.26,-0.14
2021-08-19 19:23:20.092,-0.255,-0.14
2021-08-19 19:23:20.096,-0.24,-0.145
2021-08-19 19:23:20.100,-0.23,-0.125
2021-08-19 19:23:20.104,-0.235,-0.14
2021-08-19 19:23:20.108,-0.22,-0.12
2021-08-19 19:23:20.112,-0.195,-0.14
2021-08-19 19:23:20.116,-0.15,-0.13
2021-08-19 19:23:20.120,-0.05,-0.145
2021-08-19 19:23:20.124,0.0,-0.16
2021-08-19 19:23:20.128,0.095,-0.145
2021-08-19 19:23:20.132,0.2,-0.18
2021-08-19 19:23:20.136,0.24,-0.205
2021-08-19 19:23:20.140,0.28,-0.28
2021-08-19 19:23:20.144,0.335,-0.34
2021-08-19 19:23:20.148,0.39,-0.44
2021-08-19 19:23:20.152,0.37,-0.535
2021-08-19 19:23:20.156,0.35,-0.695
2021-08-19 19:23:20.160,0.41,-0.9
2021-08-19 19:23:20.164,0.64,-1.14
2021-08-19 19:23:20.168,0.98,-1.44
2021-08-19 19:23:20.172,1.22,-1.74
2021-08-19 19:23:20.176,1.26,-1.94
2021-08-19 19:23:20.180,1.01,-1.94
2021-08-19 19:23:20.184,0.53,-1.62
2021-08-19 19:23:20.188,0.09,-1.11
2021-08-19 19:23:20.192,-0.145,-0.71
2021-08-19 19:23:20.196,-0.27,-0.495
2021-08-19 19:23:20.200,-0.3,-0.335
2021-08-19 19:23:20.204,-0.35,-0.17
2021-08-19 19:23:20.208,-0.36,-0.09
2021-08-19 19:23:20.212,-0.38,-0.015
2021-08-19 19:23:20.216,-0.425,0.025
2021-08-19 19:23:20.220,-0.44,0.06
2021-08-19 19:23:20.224,-0.46,0.06
2021-08-19 19:23:20.228,-0.48,0.1
2021-08-19 19:23:20.232,-0.47,0.095
2021-08-19 19:23:20.236,-0.46,0.105
2021-08-19 19:23:20.240,-0.455,0.12
2021-08-19 19:23:20.244,-0.45,0.14
2021-08-19 19:23:20.248,-0.45,0.14
2021-08-19 19:23:20.252,-0.45,0.195
2021-08-19 19:23:20.256,-0.465,0.2
2021-08-19 19:23:20.260,-0.47,0.19
2021-08-19 19:23:20.264,-0.46,0.185
2021-08-19 19:23:20.268,-0.45,0.18
2021-08-19 19:23:20.272,-0.46,0.175
2021-08-19 19:23:20.276,-0.46,0.15
2021-08-19 19:23:20.280,-0.475,0.105
2021-08-19 19:23:20.284,-0.465,0.09
2021-08-19 19:23:20.288,-0.46,0.075
2021-08-19 19:23:20.292,-0.49,0.06
2021-08-19 19:23:20.296,-0.485,0.065
2021-08-19 19:23:20.300,-0.475,0.06
2021-08-19 19:23:20.304,-0.49,0.065
2021-08-19 19:23:20.308,-0.48,0.04
2021-08-19 19:23:20.312,-0.48,0.05
2021-08-19 19:23:20.316,-0.46,0.045
2021-08-19 19:23:20.320,-0.445,0.05
2021-08-19 19:23:20.324,-0.43,0.05
2021-08-19 19:23:20.328,-0.44,0.065
2021-08-19 19:23:20.332,-0.42,0.08
2021-08-19 19:23:20.336,-0.435,0.07
2021-08-19 19:23:20.340,-0.435,0.095
2021-08-19 19:23:20.344,-0.44,0.11
2021-08-19 19:23:20.348,-0.43,0.125
2021-08-19 19:23:20.352,-0.445,0.14
2021-08-19 19:23:20.356,-0.45,0.15
2021-08-19 19:23:20.360,-0.43,0.135
2021-08-19 19:23:20.364,-0.435,0.115
2021-08-19 19:23:20.368,-0.39,0.11
2021-08-19 19:23:20.372,-0.39,0.09
2021-08-19 19:23:20.376,-0.38,0.075
2021-08-19 19:23:20.380,-0.355,0.065
2021-08-19 19:23:20.384,-0.34,0.065
2021-08-19 19:23:20.388,-0.335,0.065
2021-08-19 19:23:20.392,-0.32,0.06
2021-08-19 19:23:20.396,-0.3,0.045
2021-08-19 19:23:20.400,-0.29,0.015
2021-08-19 19:23:20.404,-0.275,0.015
2021-08-19 19:23:20.408,-0.28,-0.005
2021-08-19 19:23:20.412,-0.29,-0.02
2021-08-19 19:23:20.416,-0.31,-0.01
2021-08-19 19:23:20.420,-0.3,-0.04
2021-08-19 19:23:20.424,-0.32,-0.045
2021-08-19 19:23:20.428,-0.335,-0.035
2021-08-19 19:23:20.432,-0.345,-0.04
2021-08-19 19:23:20.436,-0.34,-0.04
2021-08-19 19:23:20.440,-0.32,-0.05
2021-08-19 19:23:20.444,-0.315,-0.065
2021-08-19 19:23:20.448,-0.3,-0.095
2021-08-19 19:23:20.452,-0.295,-0.105
2021-08-19 19:23:20.456,-0.305,-0.065
2021-08-19 19:23:20.460,-0.29,-0.09
2021-08-19 19:23:20.464,-0.28,-0.08
2021-08-19 19:23:20.468,-0.295,-0.095
2021-08-19 19:23:20.472,-0.3,-0.08
2021-08-19 19:23:20.476,-0.31,-0.065
2021-08-19 19:23:20.480,-0.28,-0.05
2021-08-19 19:23:20.484,-0.275,-0.045
2021-08-19 19:23:20.488,-0.205,-0.035
2021-08-19 19:23:20.492,-0.19,-0.02
2021-08-19 19:23:20.496,-0.17,-0.005
2021-08-19 19:23:20.500,-0.17,0.005
2021-08-19 19:23:20.504,-0.16,0.015
2021-08-19 19:23:20.508,-0.15,0.005
2021-08-19 19:23:20.512,-0.135,0.01
2021-08-19 19:23:20.516,-0.13,0.0
2021-08-19 19:23:20.520,-0.12,-0.035
2021-08-19 19:23:20.524,-0.125,-0.03
2021-08-19 19:23:20.528,-0.135,-0.045
2021-08-19 19:23:20.532,-0.13,-0.05
2021-08-19 19:23:20.536,-0.135,-0.07
2021-08-19 19:23:20.540,-0.155,-0.075
2021-08-19 19:23:20.544,-0.165,-0.085
2021-08-19 19:23:20.548,-0.18,-0.07
2021-08-19 19:23:20.552,-0.19,-0.06
2021-08-19 19:23:20.556,-0.18,-0.075
2021-08-19 19:23:20.560,-0.2,-0.065
2021-08-19 19:23:20.564,-0.21,-0.1
2021-08-19 19:23:20.568,-0.235,-0.07
2021-08-19 19:23:20.572,-0.24,-0.08
2021-08-19 19:23:20.576,-0.235,-0.05
2021-08-19 19:23:20.580,-0.245,-0.075
2021-08-19 19:23:20.584,-0.21,-0.08
2021-08-19 19:23:20.588,-0.23,-0.095
2021-08-19 19:23:20.592,-0.24,-0.095
2021-08-19 19:23:20.596,-0.235,-0.12
2021-08-19 19:23:20.600,-0.205,-0.135
2021-08-19 19:23:20.604,-0.195,-0.1
2021-08-19 19:23:20.608,-0.2,-0.135
2021-08-19 19:23:20.612,-0.19,-0.115
2021-08-19 19:23:20.616,-0.185,-0.125
2021-08-19 19:23:20.620,-0.195,-0.11
2021-08-19 19:23:20.624,-0.18,-0.105
2021-08-19 19:23:20.628,-0.16,-0.105
2021-08-19 19:23:20.632,-0.165,-0.09
2021-08-19 19:23:20.636,-0.17,-0.08
2021-08-19 19:23:20.640,-0.18,-0.1
2021-08-19 19:23:20.644,-0.19,-0.1
2021-08-19 19:23:20.648,-0.19,-0.1
2021-08-19 19:23:20.652,-0.205,-0.08
2021-08-19 19:23:20.656,-0.225,-0.08
2021-08-19 19:23:20.660,-0.225,-0.065
2021-08-19 19:23:20.664,-0.24,-0.08
2021-08-19 19:23:20.668,-0.24,-0.075
2021-08-19 19:23:20.672,-0.17,-0.08
2021-08-19 19:23:20.676,-0.135,-0.09
2021-08-19 19:23:20.680,-0.04,-0.13
2021-08-19 19:23:20.684,0.01,-0.155
2021-08-19 19:23:20.688,0.035,-0.23
2021-08-19 19:23:20.692,0.065,-0.3
2021-08-19 19:23:20.696,0.08,-0.395
2021-08-19 19:23:20.700,0.03,-0.515
2021-08-19 19:23:20.704,0.02,-0.64
2021-08-19 19:23:20.708,0.055,-0.84
2021-08-19 19:23:20.712,0.22,-1.065
2021-08-19 19:23:20.716,0.56,-1.33
2021-08-19 19:23:20.720,0.92,-1.635
2021-08-19 19:23:20.724,1.115,-1.91
2021-08-19 19:23:20.732,0.72,-1.88
2021-08-19 19:23:20.736,0.24,-1.42
2021-08-19 19:23:20.740,-0.1,-0.915
2021-08-19 19:23:20.744,-0.23,-0.57
2021-08-19 19:23:20.748,-0.285,-0.38
2021-08-19 19:23:20.752,-0.27,-0.22
2021-08-19 19:23:20.756,-0.25,-0.07
2021-08-19 19:23:20.760,-0.27,0.025
2021-08-19 19:23:20.764,-0.275,0.1
2021-08-19 19:23:20.768,-0.29,0.13
2021-08-19 19:23:20.772,-0.315,0.19
2021-08-19 19:23:20.776,-0.33,0.205
2021-08-19 19:23:20.780,-0.39,0.2
2021-08-19 19:23:20.784,-0.39,0.18
2021-08-19 19:23:20.788,-0.41,0.135
2021-08-19 19:23:20.792,-0.435,0.08
2021-08-19 19:23:20.796,-0.425,0.05
2021-08-19 19:23:20.800,-0.41,0.035
2021-08-19 19:23:20.804,-0.41,0.035
2021-08-19 19:23:20.808,-0.415,0.0
2021-08-19 19:23:20.812,-0.43,0.0
2021-08-19 19:23:20.816,-0.425,0.005
2021-08-19 19:23:20.820,-0.43,-0.025
2021-08-19 19:23:20.824,-0.455,-0.01
2021-08-19 19:23:20.828,-0.45,-0.015
2021-08-19 19:23:20.832,-0.445,-0.015
2021-08-19 19:23:20.836,-0.455,-0.01
2021-08-19 19:23:20.840,-0.455,0.01
2021-08-19 19:23:20.844,-0.44,0.005
2021-08-19 19:23:20.848,-0.42,0.0
2021-08-19 19:23:20.852,-0.4,0.01
2021-08-19 19:23:20.856,-0.395,0.02
2021-08-19 19:23:20.860,-0.395,0.04
2021-08-19 19:23:20.864,-0.405,0.045
2021-08-19 19:23:20.868,-0.41,0.06
2021-08-19 19:23:20.872,-0.4,0.08
2021-08-19 19:23:20.876,-0.43,0.1
2021-08-19 19:23:20.880,-0.435,0.095
2021-08-19 19:23:20.884,-0.45,0.12
2021-08-19 19:23:20.888,-0.46,0.09
2021-08-19 19:23:20.892,-0.46,0.085
2021-08-19 19:23:20.896,-0.465,0.085
2021-08-19 19:23:20.900,-0.495,0.105
2021-08-19 19:23:20.904,-0.51,0.1
2021-08-19 19:23:20.908,-0.525,0.075
2021-08-19 19:23:20.912,-0.545,0.07
2021-08-19 19:23:20.916,-0.535,0.085
2021-08-19 19:23:20.920,-0.52,0.07
2021-08-19 19:23:20.924,-0.53,0.07
2021-08-19 19:23:20.928,-0.53,0.055
2021-08-19 19:23:20.932,-0.515,0.015
2021-08-19 19:23:20.936,-0.5,0.005
2021-08-19 19:23:20.940,-0.465,0.005
2021-08-19 19:23:20.944,-0.445,-0.025
2021-08-19 19:23:20.948,-0.455,-0.04
2021-08-19 19:23:20.952,-0.405,-0.045
2021-08-19 19:23:20.956,-0.39,-0.04
2021-08-19 19:23:20.960,-0.36,-0.055
2021-08-19 19:23:20.964,-0.335,-0.06
2021-08-19 19:23:20.968,-0.28,-0.07
2021-08-19 19:23:20.972,-0.25,-0.075
2021-08-19 19:23:20.976,-0.255,-0.1
2021-08-19 19:23:20.980,-0.23,-0.085
2021-08-19 19:23:20.984,-0.23,-0.075
2021-08-19 19:23:20.988,-0.22,-0.06
2021-08-19 19:23:20.992,-0.235,-0.04
2021-08-19 19:23:20.996,-0.225,-0.045
2021-08-19 19:23:21.000,-0.24,-0.025
2021-08-19 19:23:21.004,-0.26,-0.02
2021-08-19 19:23:21.008,-0.25,-0.01
2021-08-19 19:23:21.012,-0.24,-0.03
2021-08-19 19:23:21.016,-0.2,-0.025
2021-08-19 19:23:21.020,-0.225,-0.05
2021-08-19 19:23:21.024,-0.215,-0.04
2021-08-19 19:23:21.028,-0.215,-0.03
2021-08-19 19:23:21.032,-0.195,-0.05
2021-08-19 19:23:21.036,-0.185,-0.025
2021-08-19 19:23:21.040,-0.185,-0.04
2021-08-19 19:23:21.044,-0.19,-0.06
2021-08-19 19:23:21.048,-0.185,-0.08
2021-08-19 19:23:21.052,-0.195,-0.075
2021-08-19 19:23:21.056,-0.195,-0.105
2021-08-19 19:23:21.060,-0.205,-0.11
2021-08-19 19:23:21.064,-0.2,-0.13
2021-08-19 19:23:21.068,-0.19,-0.125
2021-08-19 19:23:21.072,-0.205,-0.115
2021-08-19 19:23:21.076,-0.185,-0.12
2021-08-19 19:23:21.080,-0.205,-0.125
2021-08-19 19:23:21.084,-0.19,-0.115
2021-08-19 19:23:21.088,-0.18,-0.12
2021-08-19 19:23:21.092,-0.19,-0.11
2021-08-19 19:23:21.096,-0.18,-0.125
2021-08-19 19:23:21.100,-0.18,-0.1
2021-08-19 19:23:21.104,-0.21,-0.105
2021-08-19 19:23:21.108,-0.2,-0.105
2021-08-19 19:23:21.112,-0.18,-0.105
2021-08-19 19:23:21.116,-0.215,-0.11
2021-08-19 19:23:21.120,-0.205,-0.11
2021-08-19 19:23:21.124,-0.225,-0.115
2021-08-19 19:23:21.128,-0.25,-0.115
2021-08-19 19:23:21.132,-0.25,-0.13
2021-08-19 19:23:21.136,-0.245,-0.13
2021-08-19 19:23:21.140,-0.265,-0.11
2021-08-19 19:23:21.144,-0.295,-0.105
2021-08-19 19:23:21.148,-0.3,-0.1
2021-08-19 19:23:21.152,-0.33,-0.105
2021-08-19 19:23:21.156,-0.33,-0.1
2021-08-19 19:23:21.160,-0.32,-0.11
2021-08-19 19:23:21.164,-0.31,-0.09
2021-08-19 19:23:21.168,-0.295,-0.115
2021-08-19 19:23:21.172,-0.22,-0.115
2021-08-19 19:23:21.176,-0.125,-0.12
2021-08-19 19:23:21.180,-0.025,-0.15
2021-08-19 19:23:21.184,0.04,-0.18
2021-08-19 19:23:21.188,0.075,-0.285
2021-08-19 19:23:21.192,0.08,-0.365
2021-08-19 19:23:21.196,0.1,-0.475
2021-08-19 19:23:21.200,0.075,-0.555
2021-08-19 19:23:21.204,0.045,-0.715
2021-08-19 19:23:21.208,0.125,-0.91
2021-08-19 19:23:21.212,0.355,-1.145
2021-08-19 19:23:21.216,0.67,-1.445
2021-08-19 19:23:21.220,0.95,-1.74
2021-08-19 19:23:21.224,1.03,-1.96
2021-08-19 19:23:21.228,0.805,-1.97
2021-08-19 19:23:21.232,0.385,-1.67
2021-08-19 19:23:21.236,-0.09,-1.13
2021-08-19 19:23:21.240,-0.325,-0.69
2021-08-19 19:23:21.244,-0.435,-0.46
2021-08-19 19:23:21.248,-0.48,-0.305
2021-08-19 19:23:21.252,-0.45,-0.175
2021-08-19 19:23:21.256,-0.45,-0.065
2021-08-19 19:23:21.260,-0.45,0.015
2021-08-19 19:23:21.264,-0.435,0.03
2021-08-19 19:23:21.268,-0.415,0.045
2021-08-19 19:23:21.272,-0.44,0.045
2021-08-19 19:23:21.276,-0.425,0.03
2021-08-19 19:23:21.280,-0.415,0.005
2021-08-19 19:23:21.284,-0.425,0.015
2021-08-19 19:23:21.288,-0.41,0.015
2021-08-19 19:23:21.292,-0.405,0.02
2021-08-19 19:23:21.296,-0.39,0.02
2021-08-19 19:23:21.300,-0.4,0.03
2021-08-19 19:23:21.304,-0.4,0.045
2021-08-19 19:23:21.308,-0.405,0.08
2021-08-19 19:23:21.312,-0.41,0.08
2021-08-19 19:23:21.316,-0.385,0.095
2021-08-19 19:23:21.320,-0.4,0.095
2021-08-19 19:23:21.324,-0.385,0.075
2021-08-19 19:23:21.328,-0.4,0.085
2021-08-19 19:23:21.332,-0.4,0.105
2021-08-19 19:23:21.336,-0.37,0.1
2021-08-19 19:23:21.340,-0.36,0.105
2021-08-19 19:23:21.344,-0.38,0.11
2021-08-19 19:23:21.348,-0.405,0.135
2021-08-19 19:23:21.352,-0.425,0.13
2021-08-19 19:23:21.356,-0.43,0.15
2021-08-19 19:23:21.360,-0.425,0.15
2021-08-19 19:23:21.364,-0.455,0.14
2021-08-19 19:23:21.368,-0.455,0.17
2021-08-19 19:23:21.372,-0.48,0.15
2021-08-19 19:23:21.376,-0.505,0.155
2021-08-19 19:23:21.380,-0.5,0.17
2021-08-19 19:23:21.384,-0.52,0.16
2021-08-19 19:23:21.388,-0.54,0.17
2021-08-19 19:23:21.392,-0.52,0.18
2021-08-19 19:23:21.396,-0.51,0.155
2021-08-19 19:23:21.400,-0.495,0.15
2021-08-19 19:23:21.404,-0.495,0.165
2021-08-19 19:23:21.408,-0.48,0.155
2021-08-19 19:23:21.412,-0.495,0.175
2021-08-19 19:23:21.416,-0.49,0.165
2021-08-19 19:23:21.420,-0.495,0.155
2021-08-19 19:23:21.424,-0.49,0.155
2021-08-19 19:23:21.428,-0.48,0.125
2021-08-19 19:23:21.432,-0.465,0.11
2021-08-19 19:23:21.436,-0.46,0.045
2021-08-19 19:23:21.440,-0.45,0.045
2021-08-19 19:23:21.444,-0.4,0.01
2021-08-19 19:23:21.448,-0.43,0.0
2021-08-19 19:23:21.452,-0.4,0.0
2021-08-19 19:23:21.456,-0.37,-0.035
2021-08-19 19:23:21.460,-0.36,-0.02
2021-08-19 19:23:21.464,-0.34,-0.04
2021-08-19 19:23:21.468,-0.315,-0.045
2021-08-19 19:23:21.472,-0.325,-0.035
2021-08-19 19:23:21.476,-0.305,-0.055
2021-08-19 19:23:21.480,-0.295,-0.06
2021-08-19 19:23:21.484,-0.265,-0.06
2021-08-19 19:23:21.488,-0.235,-0.08
2021-08-19 19:23:21.492,-0.225,-0.075
2021-08-19 19:23:21.496,-0.185,-0.1
2021-08-19 19:23:21.500,-0.16,-0.105
2021-08-19 19:23:21.504,-0.16,-0.115
2021-08-19 19:23:21.508,-0.155,-0.12
2021-08-19 19:23:21.512,-0.15,-0.095
2021-08-19 19:23:21.516,-0.17,-0.1
2021-08-19 19:23:21.520,-0.16,-0.105
2021-08-19 19:23:21.524,-0.145,-0.065
2021-08-19 19:23:21.528,-0.13,-0.045
2021-08-19 19:23:21.532,-0.125,-0.06
2021-08-19 19:23:21.536,-0.12,-0.055
2021-08-19 19:23:21.540,-0.105,-0.045
2021-08-19 19:23:21.544,-0.13,-0.04
2021-08-19 19:23:21.548,-0.12,-0.05
2021-08-19 19:23:21.552,-0.14,-0.04
2021-08-19 19:23:21.556,-0.14,-0.035
2021-08-19 19:23:21.560,-0.16,-0.025
2021-08-19 19:23:21.564,-0.145,-0.035
2021-08-19 19:23:21.568,-0.135,-0.035
2021-08-19 19:23:21.572,-0.14,-0.04
2021-08-19 19:23:21.576,-0.125,-0.025
2021-08-19 19:23:21.580,-0.155,-0.04
2021-08-19 19:23:21.584,-0.165,-0.04
2021-08-19 19:23:21.588,-0.155,-0.02
2021-08-19 19:23:21.592,-0.155,-0.01
2021-08-19 19:23:21.596,-0.175,0.0
2021-08-19 19:23:21.600,-0.16,-0.005
2021-08-19 19:23:21.604,-0.18,-0.01
2021-08-19 19:23:21.608,-0.18,-0.005
2021-08-19 19:23:21.612,-0.2,0.005
2021-08-19 19:23:21.616,-0.225,0.02
2021-08-19 19:23:21.620,-0.245,0.03
2021-08-19 19:23:21.624,-0.245,0.02
2021-08-19 19:23:21.628,-0.27,0.015
2021-08-19 19:23:21.632,-0.285,0.0
2021-08-19 19:23:21.636,-0.295,-0.01
2021-08-19 19:23:21.640,-0.28,-0.045
2021-08-19 19:23:21.644,-0.28,-0.065
2021-08-19 19:23:21.648,-0.29,-0.08
2021-08-19 19:23:21.652,-0.305,-0.09
2021-08-19 19:23:21.656,-0.305,-0.105
2021-08-19 19:23:21.660,-0.29,-0.125
2021-08-19 19:23:21.664,-0.24,-0.135
2021-08-19 19:23:21.668,-0.2,-0.135
2021-08-19 19:23:21.672,-0.13,-0.175
2021-08-19 19:23:21.676,-0.055,-0.175
2021-08-19 19:23:21.680,0.01,-0.21
2021-08-19 19:23:21.684,0.05,-0.255
2021-08-19 19:23:21.688,0.06,-0.33
2021-08-19 19:23:21.692,0.07,-0.405
2021-08-19 19:23:21.696,0.08,-0.495
2021-08-19 19:23:21.700,0.045,-0.64
2021-08-19 19:23:21.704,0.07,-0.83
2021-08-19 19:23:21.708,0.265,-1.075
2021-08-19 19:23:21.712,0.585,-1.34
2021-08-19 19:23:21.716,0.935,-1.67
2021-08-19 19:23:21.720,1.19,-1.975
2021-08-19 19:23:21.732,0.41,-1.6
2021-08-19 19:23:21.736,0.04,-1.075
2021-08-19 19:23:21.740,-0.1,-0.68
2021-08-19 19:23:21.744,-0.22,-0.435
2021-08-19 19:23:21.748,-0.225,-0.255
2021-08-19 19:23:21.752,-0.23,-0.13
2021-08-19 19:23:21.756,-0.24,-0.04
2021-08-19 19:23:21.760,-0.265,0.0
2021-08-19 19:23:21.764,-0.295,0.035
2021-08-19 19:23:21.768,-0.305,0.05
2021-08-19 19:23:21.772,-0.32,0.08
2021-08-19 19:23:21.776,-0.325,0.07
2021-08-19 19:23:21.780,-0.325,0.07
2021-08-19 19:23:21.784,-0.375,0.085
2021-08-19 19:23:21.788,-0.36,0.11
2021-08-19 19:23:21.792,-0.37,0.105
2021-08-19 19:23:21.796,-0.395,0.135
2021-08-19 19:23:21.800,-0.39,0.13
2021-08-19 19:23:21.804,-0.41,0.135
2021-08-19 19:23:21.808,-0.42,0.17
2021-08-19 19:23:21.812,-0.43,0.145
2021-08-19 19:23:21.816,-0.42,0.165
2021-08-19 19:23:21.820,-0.42,0.155
2021-08-19 19:23:21.824,-0.425,0.15
2021-08-19 19:23:21.828,-0.42,0.14
2021-08-19 19:23:21.832,-0.43,0.145
2021-08-19 19:23:21.836,-0.455,0.125
2021-08-19 19:23:21.840,-0.44,0.125
2021-08-19 19:23:21.844,-0.445,0.1
2021-08-19 19:23:21.848,-0.45,0.105
2021-08-19 19:23:21.852,-0.465,0.1
2021-08-19 19:23:21.856,-0.46,0.12
2021-08-19 19:23:21.860,-0.47,0.12
2021-08-19 19:23:21.864,-0.46,0.1
2021-08-19 19:23:21.868,-0.465,0.08
2021-08-19 19:23:21.872,-0.47,0.08
2021-08-19 19:23:21.876,-0.48,0.08
2021-08-19 19:23:21.880,-0.505,0.09
2021-08-19 19:23:21.884,-0.48,0.095
2021-08-19 19:23:21.888,-0.495,0.1
2021-08-19 19:23:21.892,-0.49,0.08
2021-08-19 19:23:21.896,-0.505,0.065
2021-08-19 19:23:21.900,-0.5,0.045
2021-08-19 19:23:21.904,-0.485,0.04
2021-08-19 19:23:21.908,-0.47,0.025
2021-08-19 19:23:21.912,-0.46,0.045
2021-08-19 19:23:21.916,-0.45,0.03
2021-08-19 19:23:21.920,-0.45,0.03
2021-08-19 19:23:21.924,-0.435,0.025
2021-08-19 19:23:21.928,-0.435,0.03
2021-08-19 19:23:21.932,-0.405,0.0
2021-08-19 19:23:21.936,-0.385,-0.01
2021-08-19 19:23:21.940,-0.35,-0.03
2021-08-19 19:23:21.944,-0.305,-0.06
2021-08-19 19:23:21.948,-0.27,-0.07
2021-08-19 19:23:21.952,-0.21,-0.07
2021-08-19 19:23:21.956,-0.185,-0.06
2021-08-19 19:23:21.960,-0.145,-0.085
2021-08-19 19:23:21.964,-0.11,-0.09
2021-08-19 19:23:21.968,-0.125,-0.12
2021-08-19 19:23:21.972,-0.14,-0.12
2021-08-19 19:23:21.976,-0.12,-0.115
2021-08-19 19:23:21.980,-0.115,-0.1
2021-08-19 19:23:21.984,-0.12,-0.095
2021-08-19 19:23:21.988,-0.12,-0.1
2021-08-19 19:23:21.992,-0.155,-0.1
2021-08-19 19:23:21.996,-0.16,-0.07
2021-08-19 19:23:22.000,-0.18,-0.055
2021-08-19 19:23:22.004,-0.2,-0.025
2021-08-19 19:23:22.008,-0.19,-0.045
2021-08-19 19:23:22.012,-0.215,-0.04
2021-08-19 19:23:22.016,-0.23,-0.05
2021-08-19 19:23:22.020,-0.27,-0.055
2021-08-19 19:23:22.024,-0.28,-0.05
2021-08-19 19:23:22.028,-0.27,-0.02
2021-08-19 19:23:22.032,-0.27,-0.035
2021-08-19 19:23:22.036,-0.265,-0.04
2021-08-19 19:23:22.040,-0.285,-0.03
2021-08-19 19:23:22.044,-0.27,-0.035
2021-08-19 19:23:22.048,-0.27,-0.055
2021-08-19 19:23:22.052,-0.26,-0.04
2021-08-19 19:23:22.056,-0.275,-0.07
2021-08-19 19:23:22.060,-0.25,-0.06
2021-08-19 19:23:22.064,-0.24,-0.07
2021-08-19 19:23:22.068,-0.23,-0.07
2021-08-19 19:23:22.072,-0.225,-0.085
2021-08-19 19:23:22.076,-0.235,-0.07
2021-08-19 19:23:22.080,-0.215,-0.07
2021-08-19 19:23:22.084,-0.225,-0.105
2021-08-19 19:23:22.088,-0.23,-0.12
2021-08-19 19:23:22.092,-0.23,-0.13
2021-08-19 19:23:22.096,-0.22,-0.135
2021-08-19 19:23:22.100,-0.225,-0.13
2021-08-19 19:23:22.104,-0.25,-0.13
2021-08-19 19:23:22.108,-0.24,-0.14
2021-08-19 19:23:22.112,-0.225,-0.145
2021-08-19 19:23:22.116,-0.245,-0.15
2021-08-19 19:23:22.120,-0.25,-0.11
2021-08-19 19:23:22.124,-0.235,-0.13
2021-08-19 19:23:22.128,-0.24,-0.15
2021-08-19 19:23:22.132,-0.24,-0.16
2021-08-19 19:23:22.136,-0.235,-0.16
2021-08-19 19:23:22.140,-0.235,-0.14
2021-08-19 19:23:22.144,-0.22,-0.145
2021-08-19 19:23:22.148,-0.205,-0.145
2021-08-19 19:23:22.152,-0.22,-0.135
2021-08-19 19:23:22.156,-0.225,-0.135
2021-08-19 19:23:22.160,-0.19,-0.105
2021-08-19 19:23:22.164,-0.17,-0.115
2021-08-19 19:23:22.168,-0.12,-0.1
2021-08-19 19:23:22.172,-0.085,-0.095
2021-08-19 19:23:22.176,-0.055,-0.095
2021-08-19 19:23:22.180,-0.03,-0.08
2021-08-19 19:23:22.184,-0.06,-0.075
2021-08-19 19:23:22.188,-0.03,-0.07
2021-08-19 19:23:22.192,-0.055,-0.07
2021-08-19 19:23:22.196,-0.115,-0.085
2021-08-19 19:23:22.200,-0.15,-0.075
2021-08-19 19:23:22.204,-0.185,-0.06
2021-08-19 19:23:22.208,-0.21,-0.07
2021-08-19 19:23:22.212,-0.195,-0.09
2021-08-19 19:23:22.216,-0.205,-0.12
2021-08-19 19:23:22.220,-0.21,-0.12
2021-08-19 19:23:22.224,-0.25,-0.115
2021-08-19 19:23:22.228,-0.27,-0.125
2021-08-19 19:23:22.232,-0.26,-0.125
2021-08-19 19:23:22.236,-0.27,-0.125
2021-08-19 19:23:22.240,-0.29,-0.12
2021-08-19 19:23:22.244,-0.3,-0.12
2021-08-19 19:23:22.248,-0.315,-0.125
2021-08-19 19:23:22.252,-0.325,-0.14
2021-08-19 19:23:22.256,-0.315,-0.13
2021-08-19 19:23:22.260,-0.315,-0.125
2021-08-19 19:23:22.264,-0.3,-0.13
2021-08-19 19:23:22.268,-0.32,-0.12
2021-08-19 19:23:22.272,-0.31,-0.13
2021-08-19 19:23:22.276,-0.285,-0.13
2021-08-19 19:23:22.280,-0.295,-0.14
2021-08-19 19:23:22.284,-0.285,-0.14
2021-08-19 19:23:22.288,-0.27,-0.135
2021-08-19 19:23:22.292,-0.27,-0.155
2021-08-19 19:23:22.296,-0.27,-0.15
2021-08-19 19:23:22.300,-0.24,-0.16
2021-08-19 19:23:22.304,-0.25,-0.16
2021-08-19 19:23:22.308,-0.24,-0.14
2021-08-19 19:23:22.312,-0.23,-0.14
2021-08-19 19:23:22.316,-0.25,-0.145
2021-08-19 19:23:22.320,-0.235,-0.12
2021-08-19 19:23:22.324,-0.205,-0.125
2021-08-19 19:23:22.328,-0.195,-0.125
2021-08-19 19:23:22.332,-0.17,-0.15
2021-08-19 19:23:22.336,-0.115,-0.145
2021-08-19 19:23:22.340,-0.045,-0.165
2021-08-19 19:23:22.344,0.05,-0.19
2021-08-19 19:23:22.348,0.14,-0.205
2021-08-19 19:23:22.352,0.22,-0.25
2021-08-19 19:23:22.356,0.31,-0.345
2021-08-19 19:23:22.360,0.36,-0.425
2021-08-19 19:23:22.364,0.39,-0.51
