Time,ECG1,ECG2
2021-08-19 12:08:45.340,0.96,1.555
2021-08-19 12:08:45.344,0.91,1.555
2021-08-19 12:08:45.348,0.88,1.525
2021-08-19 12:08:45.352,0.835,1.51
2021-08-19 12:08:45.356,0.81,1.495
2021-08-19 12:08:45.360,0.785,1.455
2021-08-19 12:08:45.364,0.73,1.44
2021-08-19 12:08:45.368,0.665,1.43
2021-08-19 12:08:45.372,0.595,1.39
2021-08-19 12:08:45.376,0.545,1.39
2021-08-19 12:08:45.380,0.49,1.355
2021-08-19 12:08:45.384,0.45,1.33
2021-08-19 12:08:45.388,0.41,1.28
2021-08-19 12:08:45.392,0.39,1.245
2021-08-19 12:08:45.396,0.355,1.18
2021-08-19 12:08:45.400,0.31,1.135
2021-08-19 12:08:45.404,0.26,1.085
2021-08-19 12:08:45.408,0.21,1.04
2021-08-19 12:08:45.412,0.15,1.0
2021-08-19 12:08:45.416,0.08,0.92
2021-08-19 12:08:45.420,0.04,0.865
2021-08-19 12:08:45.424,0.015,0.795
2021-08-19 12:08:45.428,-0.01,0.74
2021-08-19 12:08:45.432,-0.035,0.685
2021-08-19 12:08:45.436,-0.095,0.63
2021-08-19 12:08:45.440,-0.13,0.515
2021-08-19 12:08:45.444,-0.135,0.485
2021-08-19 12:08:45.448,-0.115,0.47
2021-08-19 12:08:45.452,-0.14,0.42
2021-08-19 12:08:45.456,-0.155,0.38
2021-08-19 12:08:45.460,-0.16,0.325
2021-08-19 12:08:45.464,-0.19,0.315
2021-08-19 12:08:45.468,-0.19,0.29
2021-08-19 12:08:45.472,-0.2,0.24
2021-08-19 12:08:45.476,-0.2,0.235
2021-08-19 12:08:45.480,-0.22,0.255
2021-08-19 12:08:45.484,-0.225,0.215
2021-08-19 12:08:45.488,-0.2,0.19
2021-08-19 12:08:45.492,-0.16,0.19
2021-08-19 12:08:45.496,-0.105,0.185
2021-08-19 12:08:45.500,0.0,0.2
2021-08-19 12:08:45.504,0.13,0.21
2021-08-19 12:08:45.508,0.23,0.2
2021-08-19 12:08:45.512,0.155,0.185
2021-08-19 12:08:45.516,-0.08,0.155
2021-08-19 12:08:45.520,-0.5,0.155
2021-08-19 12:08:45.524,-1.04,0.095
2021-08-19 12:08:45.528,-1.59,-0.1
2021-08-19 12:08:45.604,-0.1,-1.79
2021-08-19 12:08:45.608,-0.095,-1.535
2021-08-19 12:08:45.612,-0.06,-1.215
2021-08-19 12:08:45.616,0.02,-0.88
2021-08-19 12:08:45.620,0.09,-0.56
2021-08-19 12:08:45.624,0.15,-0.31
2021-08-19 12:08:45.628,0.16,-0.105
2021-08-19 12:08:45.632,0.145,0.065
2021-08-19 12:08:45.636,0.1,0.24
2021-08-19 12:08:45.640,0.09,0.385
2021-08-19 12:08:45.644,0.06,0.48
2021-08-19 12:08:45.648,0.02,0.565
2021-08-19 12:08:45.652,0.02,0.595
2021-08-19 12:08:45.656,0.03,0.62
2021-08-19 12:08:45.660,0.03,0.64
2021-08-19 12:08:45.664,0.025,0.67
2021-08-19 12:08:45.668,0.025,0.7
2021-08-19 12:08:45.672,0.03,0.72
2021-08-19 12:08:45.676,0.02,0.715
2021-08-19 12:08:45.680,0.01,0.715
2021-08-19 12:08:45.684,0.02,0.75
2021-08-19 12:08:45.688,0.025,0.745
2021-08-19 12:08:45.692,0.045,0.76
2021-08-19 12:08:45.696,0.065,0.77
2021-08-19 12:08:45.700,0.05,0.78
2021-08-19 12:08:45.704,0.07,0.815
2021-08-19 12:08:45.708,0.075,0.805
2021-08-19 12:08:45.712,0.11,0.825
2021-08-19 12:08:45.716,0.105,0.855
2021-08-19 12:08:45.720,0.09,0.86
2021-08-19 12:08:45.724,0.1,0.85
2021-08-19 12:08:45.728,0.115,0.91
2021-08-19 12:08:45.732,0.145,0.98
2021-08-19 12:08:45.736,0.19,0.945
2021-08-19 12:08:45.740,0.215,0.92
2021-08-19 12:08:45.744,0.215,0.935
2021-08-19 12:08:45.748,0.225,0.975
2021-08-19 12:08:45.752,0.22,1.03
2021-08-19 12:08:45.756,0.22,1.06
2021-08-19 12:08:45.760,0.215,1.085
2021-08-19 12:08:45.764,0.22,1.095
2021-08-19 12:08:45.768,0.25,1.1
2021-08-19 12:08:45.772,0.25,1.11
2021-08-19 12:08:45.776,0.245,1.095
2021-08-19 12:08:45.780,0.255,1.125
2021-08-19 12:08:45.784,0.27,1.16
2021-08-19 12:08:45.788,0.28,1.18
2021-08-19 12:08:45.792,0.3,1.205
2021-08-19 12:08:45.796,0.305,1.2
2021-08-19 12:08:45.800,0.355,1.225
2021-08-19 12:08:45.804,0.4,1.225
2021-08-19 12:08:45.808,0.375,1.21
2021-08-19 12:08:45.812,0.36,1.22
2021-08-19 12:08:45.816,0.36,1.225
2021-08-19 12:08:45.820,0.345,1.205
2021-08-19 12:08:45.824,0.28,1.175
2021-08-19 12:08:45.828,0.235,1.12
2021-08-19 12:08:45.832,0.18,1.06
2021-08-19 12:08:45.836,0.125,1.005
2021-08-19 12:08:45.840,0.06,0.955
2021-08-19 12:08:45.844,-0.01,0.87
2021-08-19 12:08:45.848,-0.07,0.8
2021-08-19 12:08:45.852,-0.125,0.74
2021-08-19 12:08:45.856,-0.15,0.68
2021-08-19 12:08:45.860,-0.2,0.635
2021-08-19 12:08:45.864,-0.22,0.54
2021-08-19 12:08:45.868,-0.27,0.51
2021-08-19 12:08:45.872,-0.32,0.455
2021-08-19 12:08:45.876,-0.345,0.435
2021-08-19 12:08:45.880,-0.395,0.365
2021-08-19 12:08:45.884,-0.43,0.36
2021-08-19 12:08:45.888,-0.41,0.315
2021-08-19 12:08:45.892,-0.41,0.29
2021-08-19 12:08:45.896,-0.42,0.275
2021-08-19 12:08:45.900,-0.455,0.235
2021-08-19 12:08:45.904,-0.435,0.23
2021-08-19 12:08:45.908,-0.4,0.23
2021-08-19 12:08:45.912,-0.42,0.2
2021-08-19 12:08:45.916,-0.45,0.24
2021-08-19 12:08:45.920,-0.4,0.21
2021-08-19 12:08:45.924,-0.32,0.195
2021-08-19 12:08:45.928,-0.325,0.205
2021-08-19 12:08:45.932,-0.41,0.205
2021-08-19 12:08:45.936,-0.45,0.185
2021-08-19 12:08:45.940,-0.475,0.19
2021-08-19 12:08:45.944,-0.455,0.195
2021-08-19 12:08:45.948,-0.49,0.18
2021-08-19 12:08:45.952,-0.485,0.18
2021-08-19 12:08:45.956,-0.435,0.19
2021-08-19 12:08:45.960,-0.325,0.24
2021-08-19 12:08:45.964,-0.23,0.225
2021-08-19 12:08:45.968,-0.235,0.22
2021-08-19 12:08:45.972,-0.365,0.25
2021-08-19 12:08:45.976,-0.48,0.295
2021-08-19 12:08:45.980,-0.495,0.28
2021-08-19 12:08:45.984,-0.475,0.215
2021-08-19 12:08:45.988,-0.385,0.115
2021-08-19 12:08:45.992,-0.34,0.07
2021-08-19 12:08:45.996,-0.325,0.095
2021-08-19 12:08:46.000,-0.33,0.13
2021-08-19 12:08:46.004,-0.32,0.14
2021-08-19 12:08:46.008,-0.33,0.195
2021-08-19 12:08:46.012,-0.365,0.25
2021-08-19 12:08:46.016,-0.355,0.29
2021-08-19 12:08:46.020,-0.325,0.255
2021-08-19 12:08:46.024,-0.275,0.24
2021-08-19 12:08:46.028,-0.215,0.245
2021-08-19 12:08:46.032,-0.185,0.255
2021-08-19 12:08:46.036,-0.2,0.265
2021-08-19 12:08:46.040,-0.195,0.3
2021-08-19 12:08:46.044,-0.175,0.315
2021-08-19 12:08:46.048,-0.215,0.3
2021-08-19 12:08:46.052,-0.24,0.27
2021-08-19 12:08:46.056,-0.29,0.27
2021-08-19 12:08:46.060,-0.325,0.255
2021-08-19 12:08:46.064,-0.33,0.21
2021-08-19 12:08:46.068,-0.35,0.21
2021-08-19 12:08:46.072,-0.33,0.205
2021-08-19 12:08:46.076,-0.38,0.2
2021-08-19 12:08:46.080,-0.4,0.16
2021-08-19 12:08:46.084,-0.385,0.14
2021-08-19 12:08:46.088,-0.405,0.13
2021-08-19 12:08:46.092,-0.435,0.11
2021-08-19 12:08:46.096,-0.445,0.13
2021-08-19 12:08:46.100,-0.37,0.135
2021-08-19 12:08:46.104,-0.26,0.105
2021-08-19 12:08:46.108,-0.27,0.135
2021-08-19 12:08:46.112,-0.475,0.135
2021-08-19 12:08:46.116,-0.79,0.225
2021-08-19 12:08:46.120,-1.25,0.245
2021-08-19 12:08:46.124,-1.84,0.15
2021-08-19 12:08:46.216,-1.08,-1.855
2021-08-19 12:08:46.220,-1.145,-1.525
2021-08-19 12:08:46.224,-1.085,-1.17
2021-08-19 12:08:46.228,-0.9,-0.91
2021-08-19 12:08:46.232,-0.705,-0.66
2021-08-19 12:08:46.236,-0.48,-0.44
2021-08-19 12:08:46.240,-0.34,-0.255
2021-08-19 12:08:46.244,-0.21,-0.08
2021-08-19 12:08:46.248,-0.125,0.11
2021-08-19 12:08:46.252,-0.065,0.265
2021-08-19 12:08:46.256,-0.02,0.44
2021-08-19 12:08:46.260,0.015,0.585
2021-08-19 12:08:46.264,0.085,0.695
2021-08-19 12:08:46.268,0.125,0.775
2021-08-19 12:08:46.272,0.145,0.8
2021-08-19 12:08:46.276,0.115,0.805
2021-08-19 12:08:46.280,0.115,0.83
2021-08-19 12:08:46.284,0.145,0.82
2021-08-19 12:08:46.288,0.16,0.835
2021-08-19 12:08:46.292,0.125,0.835
2021-08-19 12:08:46.296,0.14,0.82
2021-08-19 12:08:46.300,0.14,0.825
2021-08-19 12:08:46.304,0.155,0.83
2021-08-19 12:08:46.308,0.125,0.855
2021-08-19 12:08:46.312,0.065,0.91
2021-08-19 12:08:46.316,0.005,0.915
2021-08-19 12:08:46.320,0.04,0.91
2021-08-19 12:08:46.324,0.035,0.89
2021-08-19 12:08:46.328,0.03,0.9
2021-08-19 12:08:46.332,0.06,0.93
2021-08-19 12:08:46.336,0.09,0.94
2021-08-19 12:08:46.340,0.115,0.96
2021-08-19 12:08:46.344,0.18,1.04
2021-08-19 12:08:46.348,0.175,1.075
2021-08-19 12:08:46.352,0.195,1.06
2021-08-19 12:08:46.356,0.175,1.05
2021-08-19 12:08:46.360,0.16,1.075
2021-08-19 12:08:46.364,0.18,1.055
2021-08-19 12:08:46.368,0.225,1.04
2021-08-19 12:08:46.372,0.26,1.05
2021-08-19 12:08:46.376,0.26,1.095
2021-08-19 12:08:46.380,0.26,1.115
2021-08-19 12:08:46.384,0.275,1.155
2021-08-19 12:08:46.388,0.27,1.19
2021-08-19 12:08:46.392,0.275,1.23
2021-08-19 12:08:46.396,0.29,1.24
2021-08-19 12:08:46.400,0.275,1.25
2021-08-19 12:08:46.404,0.26,1.25
2021-08-19 12:08:46.408,0.21,1.265
2021-08-19 12:08:46.412,0.22,1.255
2021-08-19 12:08:46.416,0.225,1.215
2021-08-19 12:08:46.420,0.235,1.235
2021-08-19 12:08:46.424,0.21,1.225
2021-08-19 12:08:46.428,0.17,1.215
2021-08-19 12:08:46.432,0.12,1.215
2021-08-19 12:08:46.436,0.1,1.215
2021-08-19 12:08:46.440,0.085,1.185
2021-08-19 12:08:46.444,0.035,1.145
2021-08-19 12:08:46.448,0.0,1.125
2021-08-19 12:08:46.452,-0.025,1.07
2021-08-19 12:08:46.456,-0.02,1.045
2021-08-19 12:08:46.460,-0.04,1.0
2021-08-19 12:08:46.464,-0.085,0.98
2021-08-19 12:08:46.468,-0.135,0.945
2021-08-19 12:08:46.472,-0.105,0.93
2021-08-19 12:08:46.476,-0.045,0.895
2021-08-19 12:08:46.480,-0.03,0.845
2021-08-19 12:08:46.484,-0.075,0.765
2021-08-19 12:08:46.488,-0.145,0.7
2021-08-19 12:08:46.492,-0.19,0.725
2021-08-19 12:08:46.496,-0.19,0.66
2021-08-19 12:08:46.500,-0.25,0.52
2021-08-19 12:08:46.504,-0.31,0.445
2021-08-19 12:08:46.508,-0.305,0.425
2021-08-19 12:08:46.512,-0.265,0.395
2021-08-19 12:08:46.516,-0.215,0.35
2021-08-19 12:08:46.520,-0.25,0.315
2021-08-19 12:08:46.524,-0.365,0.32
2021-08-19 12:08:46.528,-0.495,0.325
2021-08-19 12:08:46.532,-0.545,0.3
2021-08-19 12:08:46.536,-0.555,0.305
2021-08-19 12:08:46.540,-0.565,0.275
2021-08-19 12:08:46.544,-0.62,0.24
2021-08-19 12:08:46.548,-0.62,0.235
2021-08-19 12:08:46.552,-0.575,0.225
2021-08-19 12:08:46.556,-0.585,0.2
2021-08-19 12:08:46.560,-0.615,0.19
2021-08-19 12:08:46.564,-0.63,0.21
2021-08-19 12:08:46.568,-0.655,0.2
2021-08-19 12:08:46.572,-0.67,0.215
2021-08-19 12:08:46.576,-0.635,0.24
2021-08-19 12:08:46.580,-0.65,0.235
2021-08-19 12:08:46.584,-0.635,0.22
2021-08-19 12:08:46.588,-0.625,0.225
2021-08-19 12:08:46.592,-0.61,0.23
2021-08-19 12:08:46.596,-0.61,0.23
2021-08-19 12:08:46.600,-0.63,0.22
2021-08-19 12:08:46.604,-0.61,0.23
2021-08-19 12:08:46.608,-0.595,0.25
2021-08-19 12:08:46.612,-0.585,0.255
2021-08-19 12:08:46.616,-0.605,0.245
2021-08-19 12:08:46.620,-0.55,0.285
2021-08-19 12:08:46.624,-0.55,0.295
2021-08-19 12:08:46.628,-0.585,0.28
2021-08-19 12:08:46.632,-0.555,0.26
2021-08-19 12:08:46.636,-0.53,0.265
2021-08-19 12:08:46.640,-0.52,0.285
2021-08-19 12:08:46.644,-0.545,0.265
2021-08-19 12:08:46.648,-0.555,0.25
2021-08-19 12:08:46.652,-0.5,0.26
2021-08-19 12:08:46.656,-0.49,0.36
2021-08-19 12:08:46.660,-0.495,0.385
2021-08-19 12:08:46.664,-0.485,0.325
2021-08-19 12:08:46.668,-0.425,0.22
2021-08-19 12:08:46.672,-0.41,0.165
2021-08-19 12:08:46.676,-0.41,0.15
2021-08-19 12:08:46.680,-0.38,0.18
2021-08-19 12:08:46.684,-0.265,0.225
2021-08-19 12:08:46.688,-0.11,0.26
2021-08-19 12:08:46.692,-0.04,0.27
2021-08-19 12:08:46.696,-0.13,0.295
2021-08-19 12:08:46.700,-0.415,0.34
2021-08-19 12:08:46.704,-0.8,0.395
2021-08-19 12:08:46.708,-1.32,0.435
2021-08-19 12:08:46.712,-1.89,0.2
2021-08-19 12:08:46.804,-1.09,-1.71
2021-08-19 12:08:46.808,-0.91,-1.35
2021-08-19 12:08:46.812,-0.715,-1.05
2021-08-19 12:08:46.816,-0.57,-0.75
2021-08-19 12:08:46.820,-0.425,-0.545
2021-08-19 12:08:46.824,-0.33,-0.395
2021-08-19 12:08:46.828,-0.265,-0.22
2021-08-19 12:08:46.832,-0.21,-0.025
2021-08-19 12:08:46.836,-0.16,0.15
2021-08-19 12:08:46.840,-0.105,0.275
2021-08-19 12:08:46.844,-0.105,0.42
2021-08-19 12:08:46.848,-0.095,0.535
2021-08-19 12:08:46.852,-0.04,0.61
2021-08-19 12:08:46.856,0.015,0.66
2021-08-19 12:08:46.860,0.07,0.715
2021-08-19 12:08:46.864,0.055,0.77
2021-08-19 12:08:46.868,0.065,0.845
2021-08-19 12:08:46.872,0.055,0.865
2021-08-19 12:08:46.876,0.1,0.865
2021-08-19 12:08:46.880,0.135,0.815
2021-08-19 12:08:46.884,0.145,0.835
2021-08-19 12:08:46.888,0.205,0.845
2021-08-19 12:08:46.892,0.25,0.86
2021-08-19 12:08:46.896,0.31,0.88
2021-08-19 12:08:46.900,0.35,0.93
2021-08-19 12:08:46.904,0.355,0.97
2021-08-19 12:08:46.908,0.38,0.99
2021-08-19 12:08:46.912,0.33,1.06
2021-08-19 12:08:46.916,0.315,1.085
2021-08-19 12:08:46.920,0.38,1.095
2021-08-19 12:08:46.924,0.43,1.095
2021-08-19 12:08:46.928,0.47,1.105
2021-08-19 12:08:46.932,0.515,1.145
2021-08-19 12:08:46.936,0.515,1.175
2021-08-19 12:08:46.940,0.52,1.19
2021-08-19 12:08:46.944,0.51,1.21
2021-08-19 12:08:46.948,0.48,1.23
2021-08-19 12:08:46.952,0.465,1.24
2021-08-19 12:08:46.956,0.45,1.265
2021-08-19 12:08:46.960,0.45,1.245
2021-08-19 12:08:46.964,0.425,1.245
2021-08-19 12:08:46.968,0.44,1.24
2021-08-19 12:08:46.972,0.435,1.265
2021-08-19 12:08:46.976,0.435,1.25
2021-08-19 12:08:46.980,0.43,1.265
2021-08-19 12:08:46.984,0.395,1.28
2021-08-19 12:08:46.988,0.375,1.285
2021-08-19 12:08:46.992,0.38,1.3
2021-08-19 12:08:46.996,0.36,1.3
2021-08-19 12:08:47.000,0.305,1.285
2021-08-19 12:08:47.004,0.255,1.285
2021-08-19 12:08:47.008,0.18,1.26
2021-08-19 12:08:47.012,0.175,1.22
2021-08-19 12:08:47.016,0.13,1.175
2021-08-19 12:08:47.020,0.1,1.16
2021-08-19 12:08:47.024,0.06,1.11
2021-08-19 12:08:47.028,0.005,1.045
2021-08-19 12:08:47.032,-0.04,1.01
2021-08-19 12:08:47.036,-0.08,0.975
2021-08-19 12:08:47.040,-0.115,0.95
2021-08-19 12:08:47.044,-0.16,0.86
2021-08-19 12:08:47.048,-0.235,0.81
2021-08-19 12:08:47.052,-0.25,0.765
2021-08-19 12:08:47.056,-0.27,0.72
2021-08-19 12:08:47.060,-0.295,0.66
2021-08-19 12:08:47.064,-0.295,0.595
2021-08-19 12:08:47.068,-0.31,0.54
2021-08-19 12:08:47.072,-0.335,0.49
2021-08-19 12:08:47.076,-0.335,0.485
2021-08-19 12:08:47.080,-0.355,0.455
2021-08-19 12:08:47.084,-0.37,0.42
2021-08-19 12:08:47.088,-0.37,0.425
2021-08-19 12:08:47.092,-0.365,0.38
2021-08-19 12:08:47.096,-0.36,0.35
2021-08-19 12:08:47.100,-0.36,0.34
2021-08-19 12:08:47.104,-0.36,0.325
2021-08-19 12:08:47.108,-0.335,0.33
2021-08-19 12:08:47.112,-0.32,0.35
2021-08-19 12:08:47.116,-0.33,0.34
2021-08-19 12:08:47.120,-0.335,0.36
2021-08-19 12:08:47.124,-0.32,0.375
2021-08-19 12:08:47.128,-0.285,0.37
2021-08-19 12:08:47.132,-0.24,0.4
2021-08-19 12:08:47.136,-0.225,0.34
2021-08-19 12:08:47.140,-0.22,0.375
2021-08-19 12:08:47.144,-0.2,0.395
2021-08-19 12:08:47.148,-0.175,0.39
2021-08-19 12:08:47.152,-0.21,0.38
2021-08-19 12:08:47.156,-0.195,0.365
2021-08-19 12:08:47.160,-0.175,0.365
2021-08-19 12:08:47.164,-0.155,0.365
2021-08-19 12:08:47.168,-0.04,0.33
2021-08-19 12:08:47.172,0.135,0.315
2021-08-19 12:08:47.176,0.265,0.285
2021-08-19 12:08:47.180,0.255,0.255
2021-08-19 12:08:47.184,0.05,0.265
2021-08-19 12:08:47.188,-0.295,0.255
2021-08-19 12:08:47.192,-0.775,0.205
2021-08-19 12:08:47.196,-1.355,0.01
2021-08-19 12:08:47.200,-1.865,-0.34
2021-08-19 12:08:47.276,-0.55,-1.99
2021-08-19 12:08:47.280,-0.565,-1.635
2021-08-19 12:08:47.284,-0.57,-1.305
2021-08-19 12:08:47.288,-0.52,-0.95
2021-08-19 12:08:47.292,-0.42,-0.64
2021-08-19 12:08:47.296,-0.305,-0.39
2021-08-19 12:08:47.300,-0.255,-0.215
2021-08-19 12:08:47.304,-0.21,-0.04
2021-08-19 12:08:47.308,-0.165,0.085
2021-08-19 12:08:47.312,-0.125,0.27
2021-08-19 12:08:47.316,-0.1,0.415
2021-08-19 12:08:47.320,-0.095,0.55
2021-08-19 12:08:47.324,-0.07,0.66
2021-08-19 12:08:47.328,-0.005,0.715
2021-08-19 12:08:47.332,0.0,0.78
2021-08-19 12:08:47.336,0.03,0.81
2021-08-19 12:08:47.340,0.015,0.85
2021-08-19 12:08:47.344,0.065,0.865
2021-08-19 12:08:47.348,0.09,0.89
2021-08-19 12:08:47.352,0.145,0.94
2021-08-19 12:08:47.356,0.17,0.97
2021-08-19 12:08:47.360,0.2,0.96
2021-08-19 12:08:47.364,0.21,1.01
2021-08-19 12:08:47.368,0.175,1.045
2021-08-19 12:08:47.372,0.17,1.085
2021-08-19 12:08:47.376,0.175,1.085
2021-08-19 12:08:47.380,0.17,1.065
2021-08-19 12:08:47.384,0.2,1.045
2021-08-19 12:08:47.388,0.205,1.035
2021-08-19 12:08:47.392,0.235,1.045
2021-08-19 12:08:47.396,0.225,1.07
2021-08-19 12:08:47.400,0.225,1.07
2021-08-19 12:08:47.404,0.22,1.11
2021-08-19 12:08:47.408,0.26,1.12
2021-08-19 12:08:47.412,0.27,1.145
2021-08-19 12:08:47.416,0.265,1.17
2021-08-19 12:08:47.420,0.26,1.17
2021-08-19 12:08:47.424,0.29,1.225
2021-08-19 12:08:47.428,0.285,1.235
2021-08-19 12:08:47.432,0.265,1.295
2021-08-19 12:08:47.436,0.225,1.28
2021-08-19 12:08:47.440,0.23,1.255
2021-08-19 12:08:47.444,0.22,1.24
2021-08-19 12:08:47.448,0.23,1.255
2021-08-19 12:08:47.452,0.235,1.3
2021-08-19 12:08:47.456,0.25,1.34
2021-08-19 12:08:47.460,0.245,1.31
2021-08-19 12:08:47.464,0.265,1.28
2021-08-19 12:08:47.468,0.2,1.275
2021-08-19 12:08:47.472,0.14,1.26
2021-08-19 12:08:47.476,0.07,1.255
2021-08-19 12:08:47.480,0.055,1.25
2021-08-19 12:08:47.484,-0.005,1.28
2021-08-19 12:08:47.488,-0.03,1.255
2021-08-19 12:08:47.492,-0.08,1.155
2021-08-19 12:08:47.496,-0.11,1.095
2021-08-19 12:08:47.500,-0.135,1.05
2021-08-19 12:08:47.504,-0.205,1.025
2021-08-19 12:08:47.508,-0.225,0.98
2021-08-19 12:08:47.512,-0.25,0.935
2021-08-19 12:08:47.516,-0.245,0.88
2021-08-19 12:08:47.520,-0.24,0.86
2021-08-19 12:08:47.524,-0.265,0.825
2021-08-19 12:08:47.528,-0.29,0.745
2021-08-19 12:08:47.532,-0.295,0.66
2021-08-19 12:08:47.536,-0.29,0.625
2021-08-19 12:08:47.540,-0.285,0.62
2021-08-19 12:08:47.544,-0.305,0.595
2021-08-19 12:08:47.548,-0.37,0.575
2021-08-19 12:08:47.552,-0.35,0.57
2021-08-19 12:08:47.556,-0.34,0.545
2021-08-19 12:08:47.560,-0.28,0.505
2021-08-19 12:08:47.564,-0.28,0.515
2021-08-19 12:08:47.568,-0.255,0.515
2021-08-19 12:08:47.572,-0.21,0.505
2021-08-19 12:08:47.576,-0.17,0.545
2021-08-19 12:08:47.580,-0.16,0.605
2021-08-19 12:08:47.584,-0.185,0.57
2021-08-19 12:08:47.588,-0.215,0.455
2021-08-19 12:08:47.592,-0.225,0.425
2021-08-19 12:08:47.596,-0.2,0.47
2021-08-19 12:08:47.600,-0.205,0.475
2021-08-19 12:08:47.604,-0.185,0.455
2021-08-19 12:08:47.608,-0.16,0.4
2021-08-19 12:08:47.612,-0.125,0.35
2021-08-19 12:08:47.616,-0.16,0.295
2021-08-19 12:08:47.620,-0.255,0.325
2021-08-19 12:08:47.624,-0.37,0.37
2021-08-19 12:08:47.628,-0.375,0.355
2021-08-19 12:08:47.632,-0.37,0.36
2021-08-19 12:08:47.636,-0.325,0.34
2021-08-19 12:08:47.640,-0.315,0.325
2021-08-19 12:08:47.644,-0.29,0.285
2021-08-19 12:08:47.648,-0.255,0.27
2021-08-19 12:08:47.652,-0.105,0.275
2021-08-19 12:08:47.656,0.07,0.28
2021-08-19 12:08:47.660,0.08,0.295
2021-08-19 12:08:47.664,-0.15,0.315
2021-08-19 12:08:47.668,-0.5,0.37
2021-08-19 12:08:47.672,-1.015,0.415
2021-08-19 12:08:47.676,-1.645,0.23
2021-08-19 12:08:47.764,-0.915,-1.695
2021-08-19 12:08:47.768,-0.76,-1.29
2021-08-19 12:08:47.772,-0.625,-0.97
2021-08-19 12:08:47.776,-0.425,-0.7
2021-08-19 12:08:47.780,-0.23,-0.45
2021-08-19 12:08:47.784,-0.11,-0.255
2021-08-19 12:08:47.788,-0.04,-0.075
2021-08-19 12:08:47.792,0.055,0.105
2021-08-19 12:08:47.796,0.085,0.305
2021-08-19 12:08:47.800,0.115,0.495
2021-08-19 12:08:47.804,0.14,0.645
2021-08-19 12:08:47.808,0.15,0.76
2021-08-19 12:08:47.812,0.19,0.84
2021-08-19 12:08:47.816,0.23,0.86
2021-08-19 12:08:47.820,0.26,0.885
2021-08-19 12:08:47.824,0.28,0.88
2021-08-19 12:08:47.828,0.305,0.875
2021-08-19 12:08:47.832,0.31,0.895
2021-08-19 12:08:47.836,0.315,0.935
2021-08-19 12:08:47.840,0.31,0.98
2021-08-19 12:08:47.844,0.305,0.975
2021-08-19 12:08:47.848,0.315,1.0
2021-08-19 12:08:47.852,0.315,1.02
2021-08-19 12:08:47.856,0.35,1.015
2021-08-19 12:08:47.860,0.34,1.005
2021-08-19 12:08:47.864,0.355,1.035
2021-08-19 12:08:47.868,0.375,1.01
2021-08-19 12:08:47.872,0.37,1.03
2021-08-19 12:08:47.876,0.365,1.065
2021-08-19 12:08:47.880,0.365,1.1
2021-08-19 12:08:47.884,0.365,1.105
2021-08-19 12:08:47.888,0.36,1.135
2021-08-19 12:08:47.892,0.395,1.16
2021-08-19 12:08:47.896,0.43,1.175
2021-08-19 12:08:47.900,0.435,1.2
2021-08-19 12:08:47.904,0.445,1.2
2021-08-19 12:08:47.908,0.465,1.225
2021-08-19 12:08:47.912,0.485,1.25
2021-08-19 12:08:47.916,0.48,1.275
2021-08-19 12:08:47.920,0.485,1.3
2021-08-19 12:08:47.924,0.5,1.335
2021-08-19 12:08:47.928,0.485,1.325
2021-08-19 12:08:47.932,0.455,1.345
2021-08-19 12:08:47.936,0.47,1.325
2021-08-19 12:08:47.940,0.46,1.36
2021-08-19 12:08:47.944,0.44,1.38
2021-08-19 12:08:47.948,0.455,1.36
2021-08-19 12:08:47.952,0.42,1.325
2021-08-19 12:08:47.956,0.35,1.335
2021-08-19 12:08:47.960,0.34,1.315
2021-08-19 12:08:47.964,0.295,1.305
2021-08-19 12:08:47.968,0.29,1.285
2021-08-19 12:08:47.972,0.24,1.225
2021-08-19 12:08:47.976,0.19,1.205
2021-08-19 12:08:47.980,0.14,1.145
2021-08-19 12:08:47.984,0.16,1.13
2021-08-19 12:08:47.988,0.12,1.09
2021-08-19 12:08:47.992,0.13,1.035
2021-08-19 12:08:47.996,0.14,1.0
2021-08-19 12:08:48.000,0.145,0.96
2021-08-19 12:08:48.004,0.165,0.925
2021-08-19 12:08:48.008,0.18,0.855
2021-08-19 12:08:48.012,0.105,0.85
2021-08-19 12:08:48.016,0.0,0.775
2021-08-19 12:08:48.020,-0.035,0.735
2021-08-19 12:08:48.024,-0.12,0.67
2021-08-19 12:08:48.028,-0.26,0.605
2021-08-19 12:08:48.032,-0.395,0.575
2021-08-19 12:08:48.036,-0.44,0.525
2021-08-19 12:08:48.040,-0.44,0.46
2021-08-19 12:08:48.044,-0.44,0.435
2021-08-19 12:08:48.048,-0.425,0.42
2021-08-19 12:08:48.052,-0.415,0.405
2021-08-19 12:08:48.056,-0.435,0.37
2021-08-19 12:08:48.060,-0.42,0.37
2021-08-19 12:08:48.064,-0.38,0.32
2021-08-19 12:08:48.068,-0.37,0.295
2021-08-19 12:08:48.072,-0.385,0.305
2021-08-19 12:08:48.076,-0.385,0.28
2021-08-19 12:08:48.080,-0.36,0.26
2021-08-19 12:08:48.084,-0.3,0.31
2021-08-19 12:08:48.088,-0.29,0.37
2021-08-19 12:08:48.092,-0.205,0.33
2021-08-19 12:08:48.096,-0.01,0.295
2021-08-19 12:08:48.100,0.185,0.225
2021-08-19 12:08:48.104,0.135,0.225
2021-08-19 12:08:48.108,-0.11,0.235
2021-08-19 12:08:48.112,-0.535,0.25
2021-08-19 12:08:48.116,-1.095,0.245
2021-08-19 12:08:48.120,-1.685,0.075
2021-08-19 12:08:48.196,-0.715,-1.765
2021-08-19 12:08:48.200,-0.71,-1.38
2021-08-19 12:08:48.204,-0.63,-1.02
2021-08-19 12:08:48.208,-0.485,-0.695
2021-08-19 12:08:48.212,-0.34,-0.42
2021-08-19 12:08:48.216,-0.195,-0.195
2021-08-19 12:08:48.220,-0.05,0.005
2021-08-19 12:08:48.224,0.015,0.2
2021-08-19 12:08:48.228,0.035,0.365
2021-08-19 12:08:48.232,0.065,0.505
2021-08-19 12:08:48.236,0.09,0.695
2021-08-19 12:08:48.240,0.06,0.815
2021-08-19 12:08:48.244,0.03,0.87
2021-08-19 12:08:48.248,0.025,0.875
2021-08-19 12:08:48.252,0.035,0.875
2021-08-19 12:08:48.256,0.015,0.905
2021-08-19 12:08:48.260,0.02,0.895
2021-08-19 12:08:48.264,0.035,0.87
2021-08-19 12:08:48.268,0.065,0.895
2021-08-19 12:08:48.272,0.055,0.915
2021-08-19 12:08:48.276,0.03,0.935
2021-08-19 12:08:48.280,0.01,0.95
2021-08-19 12:08:48.284,0.035,0.96
2021-08-19 12:08:48.288,0.015,0.975
2021-08-19 12:08:48.292,0.02,0.975
2021-08-19 12:08:48.296,0.04,0.975
2021-08-19 12:08:48.300,0.025,0.995
2021-08-19 12:08:48.304,0.035,1.015
2021-08-19 12:08:48.308,0.005,1.015
2021-08-19 12:08:48.312,0.045,1.025
2021-08-19 12:08:48.316,0.06,1.015
2021-08-19 12:08:48.320,0.08,1.085
2021-08-19 12:08:48.324,0.06,1.115
2021-08-19 12:08:48.328,0.065,1.13
2021-08-19 12:08:48.332,0.055,1.125
2021-08-19 12:08:48.336,0.075,1.155
2021-08-19 12:08:48.340,0.085,1.2
2021-08-19 12:08:48.344,0.09,1.25
2021-08-19 12:08:48.348,0.09,1.255
2021-08-19 12:08:48.352,0.1,1.235
2021-08-19 12:08:48.356,0.11,1.225
2021-08-19 12:08:48.360,0.105,1.235
2021-08-19 12:08:48.364,0.12,1.265
2021-08-19 12:08:48.368,0.105,1.26
2021-08-19 12:08:48.372,0.095,1.265
2021-08-19 12:08:48.376,0.065,1.275
2021-08-19 12:08:48.380,0.045,1.28
2021-08-19 12:08:48.384,0.045,1.255
2021-08-19 12:08:48.388,0.055,1.25
2021-08-19 12:08:48.392,0.075,1.245
2021-08-19 12:08:48.396,0.1,1.21
2021-08-19 12:08:48.400,0.095,1.17
2021-08-19 12:08:48.404,0.035,1.145
2021-08-19 12:08:48.408,0.0,1.125
2021-08-19 12:08:48.412,-0.04,1.065
2021-08-19 12:08:48.416,-0.135,1.045
2021-08-19 12:08:48.420,-0.2,1.01
2021-08-19 12:08:48.424,-0.195,0.965
2021-08-19 12:08:48.428,-0.18,0.945
2021-08-19 12:08:48.432,-0.175,0.875
2021-08-19 12:08:48.436,-0.185,0.805
2021-08-19 12:08:48.440,-0.175,0.815
2021-08-19 12:08:48.444,-0.17,0.78
2021-08-19 12:08:48.448,-0.205,0.66
2021-08-19 12:08:48.452,-0.18,0.635
2021-08-19 12:08:48.456,-0.155,0.65
2021-08-19 12:08:48.460,-0.175,0.675
2021-08-19 12:08:48.464,-0.205,0.625
2021-08-19 12:08:48.468,-0.23,0.585
2021-08-19 12:08:48.472,-0.25,0.545
2021-08-19 12:08:48.476,-0.26,0.52
2021-08-19 12:08:48.480,-0.24,0.47
2021-08-19 12:08:48.484,-0.24,0.41
2021-08-19 12:08:48.488,-0.27,0.39
2021-08-19 12:08:48.492,-0.285,0.39
2021-08-19 12:08:48.496,-0.29,0.395
2021-08-19 12:08:48.500,-0.275,0.405
2021-08-19 12:08:48.504,-0.265,0.39
2021-08-19 12:08:48.508,-0.255,0.365
2021-08-19 12:08:48.512,-0.31,0.345
2021-08-19 12:08:48.516,-0.27,0.35
2021-08-19 12:08:48.520,-0.285,0.34
2021-08-19 12:08:48.524,-0.3,0.34
2021-08-19 12:08:48.528,-0.285,0.36
2021-08-19 12:08:48.532,-0.225,0.34
2021-08-19 12:08:48.536,-0.12,0.35
2021-08-19 12:08:48.540,0.035,0.375
2021-08-19 12:08:48.544,0.045,0.41
2021-08-19 12:08:48.548,-0.11,0.4
2021-08-19 12:08:48.552,-0.48,0.49
2021-08-19 12:08:48.556,-1.04,0.52
2021-08-19 12:08:48.560,-1.665,0.36
2021-08-19 12:08:48.644,-0.84,-1.76
2021-08-19 12:08:48.648,-0.72,-1.245
2021-08-19 12:08:48.652,-0.55,-0.83
2021-08-19 12:08:48.656,-0.38,-0.59
2021-08-19 12:08:48.660,-0.18,-0.405
2021-08-19 12:08:48.664,-0.055,-0.235
2021-08-19 12:08:48.668,-0.04,-0.04
2021-08-19 12:08:48.672,0.02,0.14
2021-08-19 12:08:48.676,0.095,0.34
2021-08-19 12:08:48.680,0.135,0.53
2021-08-19 12:08:48.684,0.165,0.705
2021-08-19 12:08:48.688,0.195,0.825
2021-08-19 12:08:48.692,0.195,0.89
2021-08-19 12:08:48.696,0.195,0.92
2021-08-19 12:08:48.700,0.195,0.93
2021-08-19 12:08:48.704,0.235,0.955
2021-08-19 12:08:48.708,0.265,0.96
2021-08-19 12:08:48.712,0.29,0.965
2021-08-19 12:08:48.716,0.3,0.99
2021-08-19 12:08:48.720,0.335,0.975
2021-08-19 12:08:48.724,0.355,0.98
2021-08-19 12:08:48.728,0.355,1.0
2021-08-19 12:08:48.732,0.365,1.025
2021-08-19 12:08:48.736,0.395,1.065
2021-08-19 12:08:48.740,0.405,1.08
2021-08-19 12:08:48.744,0.395,1.09
2021-08-19 12:08:48.748,0.39,1.13
2021-08-19 12:08:48.752,0.41,1.15
2021-08-19 12:08:48.756,0.42,1.165
2021-08-19 12:08:48.760,0.455,1.205
2021-08-19 12:08:48.764,0.47,1.185
2021-08-19 12:08:48.768,0.495,1.225
2021-08-19 12:08:48.772,0.525,1.255
2021-08-19 12:08:48.776,0.54,1.275
2021-08-19 12:08:48.780,0.545,1.32
2021-08-19 12:08:48.784,0.535,1.355
2021-08-19 12:08:48.788,0.535,1.4
2021-08-19 12:08:48.792,0.565,1.395
2021-08-19 12:08:48.796,0.585,1.42
2021-08-19 12:08:48.800,0.605,1.43
2021-08-19 12:08:48.804,0.615,1.42
2021-08-19 12:08:48.808,0.62,1.445
2021-08-19 12:08:48.812,0.61,1.5
2021-08-19 12:08:48.816,0.59,1.485
2021-08-19 12:08:48.820,0.585,1.495
2021-08-19 12:08:48.824,0.575,1.51
2021-08-19 12:08:48.828,0.555,1.495
2021-08-19 12:08:48.832,0.49,1.48
2021-08-19 12:08:48.836,0.465,1.425
2021-08-19 12:08:48.840,0.425,1.4
2021-08-19 12:08:48.844,0.42,1.38
2021-08-19 12:08:48.848,0.395,1.325
2021-08-19 12:08:48.852,0.39,1.29
2021-08-19 12:08:48.856,0.35,1.255
2021-08-19 12:08:48.860,0.315,1.225
2021-08-19 12:08:48.864,0.255,1.17
2021-08-19 12:08:48.868,0.205,1.13
2021-08-19 12:08:48.872,0.18,1.095
2021-08-19 12:08:48.876,0.165,1.055
2021-08-19 12:08:48.880,0.15,0.975
2021-08-19 12:08:48.884,0.12,0.945
2021-08-19 12:08:48.888,0.15,0.905
2021-08-19 12:08:48.892,0.155,0.86
2021-08-19 12:08:48.896,0.15,0.825
2021-08-19 12:08:48.900,0.13,0.795
2021-08-19 12:08:48.904,0.115,0.785
2021-08-19 12:08:48.908,0.11,0.765
2021-08-19 12:08:48.912,0.11,0.75
2021-08-19 12:08:48.916,0.185,0.705
2021-08-19 12:08:48.920,0.15,0.64
2021-08-19 12:08:48.924,0.05,0.6
2021-08-19 12:08:48.928,-0.175,0.59
2021-08-19 12:08:48.932,-0.605,0.615
2021-08-19 12:08:48.936,-1.21,0.56
2021-08-19 12:08:48.940,-1.805,0.325
2021-08-19 12:08:49.020,-0.73,-1.83
2021-08-19 12:08:49.024,-0.66,-1.43
2021-08-19 12:08:49.028,-0.555,-1.07
2021-08-19 12:08:49.032,-0.45,-0.745
2021-08-19 12:08:49.036,-0.325,-0.485
2021-08-19 12:08:49.040,-0.25,-0.265
2021-08-19 12:08:49.044,-0.135,-0.09
2021-08-19 12:08:49.048,-0.04,0.11
2021-08-19 12:08:49.052,0.025,0.29
2021-08-19 12:08:49.056,0.05,0.46
2021-08-19 12:08:49.060,0.085,0.605
2021-08-19 12:08:49.064,0.1,0.77
2021-08-19 12:08:49.068,0.105,0.835
2021-08-19 12:08:49.072,0.135,0.905
2021-08-19 12:08:49.076,0.125,0.94
2021-08-19 12:08:49.080,0.16,1.0
2021-08-19 12:08:49.084,0.2,1.005
2021-08-19 12:08:49.088,0.23,1.01
2021-08-19 12:08:49.092,0.235,1.015
2021-08-19 12:08:49.096,0.265,1.065
2021-08-19 12:08:49.100,0.3,1.07
2021-08-19 12:08:49.104,0.305,1.09
2021-08-19 12:08:49.108,0.31,1.12
2021-08-19 12:08:49.112,0.31,1.14
2021-08-19 12:08:49.116,0.32,1.155
2021-08-19 12:08:49.120,0.33,1.17
2021-08-19 12:08:49.124,0.36,1.175
2021-08-19 12:08:49.128,0.355,1.195
2021-08-19 12:08:49.132,0.375,1.235
2021-08-19 12:08:49.136,0.38,1.235
2021-08-19 12:08:49.140,0.37,1.2
2021-08-19 12:08:49.144,0.405,1.19
2021-08-19 12:08:49.148,0.425,1.175
2021-08-19 12:08:49.152,0.405,1.21
2021-08-19 12:08:49.156,0.365,1.2
2021-08-19 12:08:49.160,0.355,1.205
2021-08-19 12:08:49.164,0.365,1.21
2021-08-19 12:08:49.168,0.345,1.205
2021-08-19 12:08:49.172,0.33,1.225
2021-08-19 12:08:49.176,0.375,1.18
2021-08-19 12:08:49.180,0.39,1.175
2021-08-19 12:08:49.184,0.345,1.2
2021-08-19 12:08:49.188,0.36,1.22
2021-08-19 12:08:49.192,0.32,1.18
2021-08-19 12:08:49.196,0.285,1.13
2021-08-19 12:08:49.200,0.275,1.12
2021-08-19 12:08:49.204,0.255,1.18
2021-08-19 12:08:49.208,0.21,1.2
2021-08-19 12:08:49.212,0.185,1.16
2021-08-19 12:08:49.216,0.15,1.1
2021-08-19 12:08:49.220,0.13,1.08
2021-08-19 12:08:49.224,0.1,1.045
2021-08-19 12:08:49.228,0.07,0.98
2021-08-19 12:08:49.232,0.02,0.97
2021-08-19 12:08:49.236,-0.005,0.955
2021-08-19 12:08:49.240,-0.06,0.98
2021-08-19 12:08:49.244,-0.115,0.935
2021-08-19 12:08:49.248,-0.105,0.86
2021-08-19 12:08:49.252,-0.1,0.84
2021-08-19 12:08:49.256,-0.115,0.785
2021-08-19 12:08:49.260,-0.13,0.755
2021-08-19 12:08:49.264,-0.14,0.74
2021-08-19 12:08:49.268,-0.155,0.71
2021-08-19 12:08:49.272,-0.165,0.685
2021-08-19 12:08:49.276,-0.19,0.68
2021-08-19 12:08:49.280,-0.175,0.7
2021-08-19 12:08:49.284,-0.205,0.675
2021-08-19 12:08:49.288,-0.205,0.665
2021-08-19 12:08:49.292,-0.17,0.64
2021-08-19 12:08:49.296,-0.17,0.66
2021-08-19 12:08:49.300,-0.14,0.665
2021-08-19 12:08:49.304,-0.13,0.655
2021-08-19 12:08:49.308,-0.11,0.635
2021-08-19 12:08:49.312,-0.135,0.625
2021-08-19 12:08:49.316,-0.11,0.665
2021-08-19 12:08:49.320,-0.105,0.66
2021-08-19 12:08:49.324,-0.125,0.68
2021-08-19 12:08:49.328,-0.14,0.67
2021-08-19 12:08:49.332,-0.14,0.655
2021-08-19 12:08:49.336,-0.15,0.64
2021-08-19 12:08:49.340,-0.155,0.595
2021-08-19 12:08:49.344,-0.15,0.62
2021-08-19 12:08:49.348,-0.14,0.645
2021-08-19 12:08:49.352,-0.175,0.635
2021-08-19 12:08:49.356,-0.17,0.59
2021-08-19 12:08:49.360,-0.13,0.58
2021-08-19 12:08:49.364,-0.145,0.535
2021-08-19 12:08:49.368,-0.185,0.495
2021-08-19 12:08:49.372,-0.215,0.485
2021-08-19 12:08:49.376,-0.205,0.45
2021-08-19 12:08:49.380,-0.19,0.43
2021-08-19 12:08:49.384,-0.23,0.435
2021-08-19 12:08:49.388,-0.22,0.455
2021-08-19 12:08:49.392,-0.2,0.41
2021-08-19 12:08:49.396,-0.2,0.395
2021-08-19 12:08:49.400,-0.19,0.395
2021-08-19 12:08:49.404,-0.185,0.39
2021-08-19 12:08:49.408,-0.18,0.385
2021-08-19 12:08:49.412,-0.23,0.38
2021-08-19 12:08:49.416,-0.255,0.38
2021-08-19 12:08:49.420,-0.275,0.36
2021-08-19 12:08:49.424,-0.27,0.37
2021-08-19 12:08:49.428,-0.24,0.35
2021-08-19 12:08:49.432,-0.175,0.31
2021-08-19 12:08:49.436,-0.07,0.3
2021-08-19 12:08:49.440,0.02,0.3
2021-08-19 12:08:49.444,0.04,0.34
2021-08-19 12:08:49.448,-0.125,0.375
2021-08-19 12:08:49.452,-0.425,0.46
2021-08-19 12:08:49.456,-0.89,0.485
2021-08-19 12:08:49.460,-1.49,0.32
2021-08-19 12:08:49.548,-0.785,-1.65
2021-08-19 12:08:49.552,-0.73,-1.275
2021-08-19 12:08:49.556,-0.64,-0.985
2021-08-19 12:08:49.560,-0.51,-0.725
2021-08-19 12:08:49.564,-0.325,-0.5
2021-08-19 12:08:49.568,-0.17,-0.31
2021-08-19 12:08:49.572,-0.05,-0.125
2021-08-19 12:08:49.576,0.04,0.06
2021-08-19 12:08:49.580,0.115,0.2
2021-08-19 12:08:49.584,0.13,0.355
2021-08-19 12:08:49.588,0.16,0.495
2021-08-19 12:08:49.592,0.18,0.64
2021-08-19 12:08:49.596,0.23,0.74
2021-08-19 12:08:49.600,0.265,0.805
2021-08-19 12:08:49.604,0.26,0.865
2021-08-19 12:08:49.608,0.275,0.86
2021-08-19 12:08:49.612,0.285,0.9
2021-08-19 12:08:49.616,0.26,0.925
2021-08-19 12:08:49.620,0.25,0.965
2021-08-19 12:08:49.624,0.28,0.955
2021-08-19 12:08:49.628,0.325,0.965
2021-08-19 12:08:49.632,0.36,0.97
2021-08-19 12:08:49.636,0.4,0.985
2021-08-19 12:08:49.640,0.435,0.98
2021-08-19 12:08:49.644,0.445,1.0
2021-08-19 12:08:49.648,0.46,1.03
2021-08-19 12:08:49.652,0.45,1.06
2021-08-19 12:08:49.656,0.46,1.13
2021-08-19 12:08:49.660,0.445,1.16
2021-08-19 12:08:49.664,0.47,1.14
2021-08-19 12:08:49.668,0.515,1.165
2021-08-19 12:08:49.672,0.515,1.19
2021-08-19 12:08:49.676,0.555,1.2
2021-08-19 12:08:49.680,0.56,1.215
2021-08-19 12:08:49.684,0.59,1.235
2021-08-19 12:08:49.688,0.63,1.27
2021-08-19 12:08:49.692,0.645,1.3
2021-08-19 12:08:49.696,0.645,1.345
2021-08-19 12:08:49.700,0.645,1.38
2021-08-19 12:08:49.704,0.68,1.395
2021-08-19 12:08:49.708,0.675,1.435
2021-08-19 12:08:49.712,0.705,1.4
2021-08-19 12:08:49.716,0.695,1.435
2021-08-19 12:08:49.720,0.69,1.455
2021-08-19 12:08:49.724,0.72,1.455
2021-08-19 12:08:49.728,0.73,1.465
2021-08-19 12:08:49.732,0.705,1.47
2021-08-19 12:08:49.736,0.68,1.48
2021-08-19 12:08:49.740,0.645,1.49
2021-08-19 12:08:49.744,0.605,1.49
2021-08-19 12:08:49.748,0.575,1.48
2021-08-19 12:08:49.752,0.585,1.475
2021-08-19 12:08:49.756,0.565,1.435
2021-08-19 12:08:49.760,0.55,1.42
2021-08-19 12:08:49.764,0.515,1.39
2021-08-19 12:08:49.768,0.49,1.39
2021-08-19 12:08:49.772,0.45,1.35
2021-08-19 12:08:49.776,0.375,1.285
2021-08-19 12:08:49.780,0.345,1.22
2021-08-19 12:08:49.784,0.3,1.175
2021-08-19 12:08:49.788,0.265,1.125
2021-08-19 12:08:49.792,0.245,1.085
2021-08-19 12:08:49.796,0.205,1.04
2021-08-19 12:08:49.800,0.135,0.955
2021-08-19 12:08:49.804,0.11,0.865
2021-08-19 12:08:49.808,0.08,0.765
2021-08-19 12:08:49.812,0.065,0.71
2021-08-19 12:08:49.816,0.045,0.655
2021-08-19 12:08:49.820,0.05,0.58
2021-08-19 12:08:49.824,0.005,0.54
2021-08-19 12:08:49.828,-0.01,0.505
2021-08-19 12:08:49.832,-0.03,0.465
2021-08-19 12:08:49.836,-0.065,0.465
2021-08-19 12:08:49.840,-0.075,0.425
2021-08-19 12:08:49.844,-0.12,0.39
2021-08-19 12:08:49.848,-0.125,0.37
2021-08-19 12:08:49.852,-0.13,0.35
2021-08-19 12:08:49.856,-0.12,0.335
2021-08-19 12:08:49.860,-0.12,0.3
2021-08-19 12:08:49.864,-0.11,0.305
2021-08-19 12:08:49.868,-0.11,0.285
2021-08-19 12:08:49.872,-0.135,0.26
2021-08-19 12:08:49.876,-0.12,0.245
2021-08-19 12:08:49.880,-0.06,0.265
2021-08-19 12:08:49.884,0.08,0.325
2021-08-19 12:08:49.888,0.23,0.325
2021-08-19 12:08:49.892,0.285,0.31
2021-08-19 12:08:49.896,0.18,0.27
2021-08-19 12:08:49.900,-0.06,0.29
2021-08-19 12:08:49.904,-0.5,0.315
2021-08-19 12:08:49.908,-1.085,0.26
2021-08-19 12:08:49.912,-1.67,0.1
2021-08-19 12:08:49.988,-0.38,-1.9
2021-08-19 12:08:49.992,-0.35,-1.59
2021-08-19 12:08:49.996,-0.355,-1.275
2021-08-19 12:08:50.000,-0.32,-0.94
2021-08-19 12:08:50.004,-0.225,-0.61
2021-08-19 12:08:50.008,-0.115,-0.36
2021-08-19 12:08:50.012,-0.05,-0.16
2021-08-19 12:08:50.016,0.01,-0.005
2021-08-19 12:08:50.020,0.03,0.135
2021-08-19 12:08:50.024,0.035,0.26
2021-08-19 12:08:50.028,0.035,0.385
2021-08-19 12:08:50.032,0.055,0.525
2021-08-19 12:08:50.036,0.09,0.625
2021-08-19 12:08:50.040,0.1,0.645
2021-08-19 12:08:50.044,0.14,0.69
2021-08-19 12:08:50.048,0.14,0.69
2021-08-19 12:08:50.052,0.18,0.695
2021-08-19 12:08:50.056,0.155,0.715
2021-08-19 12:08:50.060,0.185,0.74
2021-08-19 12:08:50.064,0.22,0.77
2021-08-19 12:08:50.068,0.205,0.81
2021-08-19 12:08:50.072,0.225,0.815
2021-08-19 12:08:50.076,0.255,0.85
2021-08-19 12:08:50.080,0.265,0.865
2021-08-19 12:08:50.084,0.28,0.875
2021-08-19 12:08:50.088,0.28,0.87
2021-08-19 12:08:50.092,0.31,0.91
2021-08-19 12:08:50.096,0.29,0.915
2021-08-19 12:08:50.100,0.29,0.935
2021-08-19 12:08:50.104,0.275,0.925
2021-08-19 12:08:50.108,0.29,0.925
2021-08-19 12:08:50.112,0.28,0.95
2021-08-19 12:08:50.116,0.29,0.98
2021-08-19 12:08:50.120,0.3,0.97
2021-08-19 12:08:50.124,0.295,1.01
2021-08-19 12:08:50.128,0.295,1.055
2021-08-19 12:08:50.132,0.265,1.06
2021-08-19 12:08:50.136,0.26,1.095
2021-08-19 12:08:50.140,0.285,1.09
2021-08-19 12:08:50.144,0.255,1.12
2021-08-19 12:08:50.148,0.265,1.135
2021-08-19 12:08:50.152,0.28,1.135
2021-08-19 12:08:50.156,0.305,1.105
2021-08-19 12:08:50.160,0.28,1.13
2021-08-19 12:08:50.164,0.275,1.125
2021-08-19 12:08:50.168,0.26,1.17
2021-08-19 12:08:50.172,0.24,1.175
2021-08-19 12:08:50.176,0.23,1.2
2021-08-19 12:08:50.180,0.23,1.165
2021-08-19 12:08:50.184,0.21,1.145
2021-08-19 12:08:50.188,0.2,1.135
2021-08-19 12:08:50.192,0.16,1.145
2021-08-19 12:08:50.196,0.175,1.115
2021-08-19 12:08:50.200,0.145,1.075
2021-08-19 12:08:50.204,0.14,1.055
2021-08-19 12:08:50.208,0.13,1.005
2021-08-19 12:08:50.212,0.12,0.995
2021-08-19 12:08:50.216,0.08,0.965
2021-08-19 12:08:50.220,0.045,0.92
2021-08-19 12:08:50.224,0.025,0.895
2021-08-19 12:08:50.228,0.0,0.855
2021-08-19 12:08:50.232,-0.03,0.835
2021-08-19 12:08:50.236,-0.08,0.77
2021-08-19 12:08:50.240,-0.115,0.74
2021-08-19 12:08:50.244,-0.13,0.705
2021-08-19 12:08:50.248,-0.13,0.635
2021-08-19 12:08:50.252,-0.13,0.66
2021-08-19 12:08:50.256,-0.085,0.625
2021-08-19 12:08:50.260,-0.08,0.58
2021-08-19 12:08:50.264,-0.085,0.525
2021-08-19 12:08:50.268,-0.105,0.49
2021-08-19 12:08:50.272,-0.085,0.455
2021-08-19 12:08:50.276,-0.05,0.435
2021-08-19 12:08:50.280,-0.055,0.415
2021-08-19 12:08:50.284,-0.025,0.43
2021-08-19 12:08:50.288,-0.005,0.39
2021-08-19 12:08:50.292,0.015,0.385
2021-08-19 12:08:50.296,0.02,0.38
2021-08-19 12:08:50.300,0.03,0.375
2021-08-19 12:08:50.304,0.07,0.41
2021-08-19 12:08:50.308,0.105,0.42
2021-08-19 12:08:50.312,0.13,0.41
2021-08-19 12:08:50.316,0.04,0.425
2021-08-19 12:08:50.320,0.03,0.425
2021-08-19 12:08:50.324,0.035,0.42
2021-08-19 12:08:50.328,0.1,0.41
2021-08-19 12:08:50.332,0.16,0.42
2021-08-19 12:08:50.336,0.21,0.41
2021-08-19 12:08:50.340,0.14,0.395
2021-08-19 12:08:50.344,0.005,0.395
2021-08-19 12:08:50.348,-0.1,0.405
2021-08-19 12:08:50.352,-0.105,0.395
2021-08-19 12:08:50.356,-0.1,0.4
2021-08-19 12:08:50.360,-0.085,0.425
2021-08-19 12:08:50.364,-0.05,0.42
2021-08-19 12:08:50.368,0.0,0.43
2021-08-19 12:08:50.372,0.08,0.405
2021-08-19 12:08:50.376,0.13,0.42
2021-08-19 12:08:50.380,0.04,0.39
2021-08-19 12:08:50.384,-0.04,0.38
2021-08-19 12:08:50.388,-0.005,0.38
2021-08-19 12:08:50.392,0.015,0.365
2021-08-19 12:08:50.396,0.01,0.4
2021-08-19 12:08:50.400,0.01,0.405
2021-08-19 12:08:50.404,0.055,0.395
2021-08-19 12:08:50.408,0.15,0.365
2021-08-19 12:08:50.412,0.23,0.375
2021-08-19 12:08:50.416,0.495,0.365
2021-08-19 12:08:50.420,0.65,0.395
2021-08-19 12:08:50.424,0.35,0.405
2021-08-19 12:08:50.428,-0.12,0.38
2021-08-19 12:08:50.432,-0.28,0.385
2021-08-19 12:08:50.436,-0.225,0.36
2021-08-19 12:08:50.440,-0.16,0.375
2021-08-19 12:08:50.444,-0.08,0.445
2021-08-19 12:08:50.448,-0.025,0.465
2021-08-19 12:08:50.452,-0.075,0.465
2021-08-19 12:08:50.456,-0.08,0.465
2021-08-19 12:08:50.460,0.025,0.465
2021-08-19 12:08:50.464,0.185,0.49
2021-08-19 12:08:50.468,0.225,0.5
2021-08-19 12:08:50.472,0.255,0.485
2021-08-19 12:08:50.476,0.28,0.45
2021-08-19 12:08:50.480,0.305,0.44
2021-08-19 12:08:50.484,0.31,0.45
2021-08-19 12:08:50.488,0.305,0.44
2021-08-19 12:08:50.492,0.315,0.41
2021-08-19 12:08:50.496,0.34,0.4
2021-08-19 12:08:50.500,0.39,0.37
2021-08-19 12:08:50.504,0.4,0.36
2021-08-19 12:08:50.508,0.44,0.33
2021-08-19 12:08:50.512,0.49,0.33
2021-08-19 12:08:50.516,0.53,0.335
2021-08-19 12:08:50.520,0.6,0.36
2021-08-19 12:08:50.524,0.71,0.345
2021-08-19 12:08:50.528,0.69,0.32
2021-08-19 12:08:50.532,0.51,0.355
2021-08-19 12:08:50.536,0.23,0.4
2021-08-19 12:08:50.540,-0.08,0.42
2021-08-19 12:08:50.544,-0.525,0.37
2021-08-19 12:08:50.548,-1.02,0.145
2021-08-19 12:08:50.552,-1.46,-0.175
2021-08-19 12:08:50.556,-1.78,-0.575
2021-08-19 12:08:50.560,-1.91,-1.145
2021-08-19 12:08:50.564,-1.88,-1.885
2021-08-19 12:08:50.632,0.205,-1.995
2021-08-19 12:08:50.636,0.245,-1.65
2021-08-19 12:08:50.640,0.25,-1.32
2021-08-19 12:08:50.644,0.285,-0.955
2021-08-19 12:08:50.648,0.42,-0.655
2021-08-19 12:08:50.652,0.545,-0.42
2021-08-19 12:08:50.656,0.655,-0.265
2021-08-19 12:08:50.660,0.755,-0.115
2021-08-19 12:08:50.664,0.83,0.05
2021-08-19 12:08:50.668,0.89,0.225
2021-08-19 12:08:50.672,0.915,0.36
2021-08-19 12:08:50.676,0.98,0.52
2021-08-19 12:08:50.680,0.995,0.715
2021-08-19 12:08:50.684,1.005,0.835
2021-08-19 12:08:50.688,0.99,0.93
2021-08-19 12:08:50.692,1.05,0.965
2021-08-19 12:08:50.696,1.12,0.99
2021-08-19 12:08:50.700,1.27,1.03
2021-08-19 12:08:50.704,1.255,1.055
2021-08-19 12:08:50.708,1.035,1.07
2021-08-19 12:08:50.712,0.885,1.07
2021-08-19 12:08:50.716,0.935,1.035
2021-08-19 12:08:50.720,1.085,1.01
2021-08-19 12:08:50.724,1.12,1.055
2021-08-19 12:08:50.728,0.97,1.11
2021-08-19 12:08:50.732,0.85,1.09
2021-08-19 12:08:50.736,0.88,1.03
2021-08-19 12:08:50.740,0.955,1.01
2021-08-19 12:08:50.744,1.025,1.045
2021-08-19 12:08:50.748,1.12,1.08
2021-08-19 12:08:50.752,1.18,1.075
2021-08-19 12:08:50.756,1.18,1.11
2021-08-19 12:08:50.760,1.17,1.16
2021-08-19 12:08:50.764,1.16,1.19
2021-08-19 12:08:50.768,1.18,1.21
2021-08-19 12:08:50.772,1.215,1.145
2021-08-19 12:08:50.776,1.225,1.13
2021-08-19 12:08:50.780,1.295,1.225
2021-08-19 12:08:50.784,1.34,1.255
2021-08-19 12:08:50.788,1.285,1.255
2021-08-19 12:08:50.792,1.2,1.28
2021-08-19 12:08:50.796,1.2,1.305
2021-08-19 12:08:50.800,1.235,1.29
2021-08-19 12:08:50.804,1.37,1.255
2021-08-19 12:08:50.808,1.545,1.305
2021-08-19 12:08:50.812,1.51,1.32
2021-08-19 12:08:50.816,1.275,1.36
2021-08-19 12:08:50.820,1.13,1.375
2021-08-19 12:08:50.824,1.1,1.385
2021-08-19 12:08:50.828,1.175,1.355
2021-08-19 12:08:50.832,1.225,1.375
2021-08-19 12:08:50.836,1.265,1.395
2021-08-19 12:08:50.840,1.35,1.405
2021-08-19 12:08:50.844,1.38,1.4
2021-08-19 12:08:50.848,1.27,1.36
2021-08-19 12:08:50.852,1.11,1.32
2021-08-19 12:08:50.856,1.06,1.27
2021-08-19 12:08:50.860,1.075,1.25
2021-08-19 12:08:50.864,1.08,1.245
2021-08-19 12:08:50.868,1.07,1.26
2021-08-19 12:08:50.872,1.035,1.22
2021-08-19 12:08:50.876,0.995,1.17
2021-08-19 12:08:50.880,0.99,1.15
2021-08-19 12:08:50.884,0.98,1.11
2021-08-19 12:08:50.888,0.93,1.04
2021-08-19 12:08:50.892,0.825,0.985
2021-08-19 12:08:50.896,0.685,1.0
2021-08-19 12:08:50.900,0.615,0.96
2021-08-19 12:08:50.904,0.59,0.875
2021-08-19 12:08:50.908,0.61,0.81
2021-08-19 12:08:50.912,0.615,0.805
2021-08-19 12:08:50.916,0.55,0.775
2021-08-19 12:08:50.920,0.55,0.745
2021-08-19 12:08:50.924,0.65,0.68
2021-08-19 12:08:50.928,0.71,0.63
2021-08-19 12:08:50.932,0.53,0.585
2021-08-19 12:08:50.936,0.315,0.545
2021-08-19 12:08:50.940,0.295,0.43
2021-08-19 12:08:50.944,0.335,0.35
2021-08-19 12:08:50.948,0.365,0.37
2021-08-19 12:08:50.952,0.38,0.39
2021-08-19 12:08:50.956,0.46,0.355
2021-08-19 12:08:50.960,0.485,0.32
2021-08-19 12:08:50.964,0.48,0.24
2021-08-19 12:08:50.968,0.44,0.17
2021-08-19 12:08:50.972,0.46,0.18
2021-08-19 12:08:50.976,0.485,0.2
2021-08-19 12:08:50.980,0.49,0.26
2021-08-19 12:08:50.984,0.5,0.26
2021-08-19 12:08:50.988,0.51,0.25
2021-08-19 12:08:50.992,0.51,0.275
2021-08-19 12:08:50.996,0.495,0.29
2021-08-19 12:08:51.000,0.48,0.32
2021-08-19 12:08:51.004,0.445,0.315
2021-08-19 12:08:51.008,0.475,0.34
2021-08-19 12:08:51.012,0.47,0.325
2021-08-19 12:08:51.016,0.49,0.31
2021-08-19 12:08:51.020,0.495,0.27
2021-08-19 12:08:51.024,0.48,0.275
2021-08-19 12:08:51.028,0.42,0.29
2021-08-19 12:08:51.032,0.375,0.315
2021-08-19 12:08:51.036,0.39,0.34
2021-08-19 12:08:51.040,0.42,0.325
2021-08-19 12:08:51.044,0.415,0.31
2021-08-19 12:08:51.048,0.385,0.31
2021-08-19 12:08:51.052,0.405,0.29
2021-08-19 12:08:51.056,0.43,0.255
2021-08-19 12:08:51.060,0.435,0.265
2021-08-19 12:08:51.064,0.375,0.28
2021-08-19 12:08:51.068,0.365,0.315
2021-08-19 12:08:51.072,0.39,0.345
2021-08-19 12:08:51.076,0.35,0.35
2021-08-19 12:08:51.080,0.32,0.3
2021-08-19 12:08:51.084,0.345,0.25
2021-08-19 12:08:51.088,0.37,0.255
2021-08-19 12:08:51.092,0.4,0.26
2021-08-19 12:08:51.096,0.4,0.255
2021-08-19 12:08:51.100,0.355,0.235
2021-08-19 12:08:51.104,0.355,0.26
2021-08-19 12:08:51.108,0.535,0.265
2021-08-19 12:08:51.112,0.74,0.265
2021-08-19 12:08:51.116,0.505,0.255
2021-08-19 12:08:51.120,0.09,0.23
2021-08-19 12:08:51.124,-0.07,0.17
2021-08-19 12:08:51.128,0.045,0.2
2021-08-19 12:08:51.132,0.12,0.245
2021-08-19 12:08:51.136,0.15,0.265
2021-08-19 12:08:51.140,0.135,0.25
2021-08-19 12:08:51.144,0.175,0.265
2021-08-19 12:08:51.148,0.18,0.23
2021-08-19 12:08:51.152,0.205,0.165
2021-08-19 12:08:51.156,0.21,0.12
2021-08-19 12:08:51.160,0.22,0.09
2021-08-19 12:08:51.164,0.225,0.1
2021-08-19 12:08:51.168,0.235,0.135
2021-08-19 12:08:51.172,0.265,0.125
2021-08-19 12:08:51.176,0.265,0.02
2021-08-19 12:08:51.180,0.27,-0.045
2021-08-19 12:08:51.184,0.29,-0.035
2021-08-19 12:08:51.188,0.305,-0.005
2021-08-19 12:08:51.192,0.265,0.0
2021-08-19 12:08:51.196,0.31,0.02
2021-08-19 12:08:51.200,0.355,0.045
2021-08-19 12:08:51.204,0.405,0.05
2021-08-19 12:08:51.208,0.505,0.03
2021-08-19 12:08:51.212,0.56,0.035
2021-08-19 12:08:51.216,0.535,0.095
2021-08-19 12:08:51.220,0.36,0.135
2021-08-19 12:08:51.224,0.105,0.15
2021-08-19 12:08:51.228,-0.275,0.17
2021-08-19 12:08:51.232,-0.865,0.065
2021-08-19 12:08:51.236,-1.47,-0.115
2021-08-19 12:08:51.240,-1.94,-0.375
2021-08-19 12:08:51.320,-0.125,-1.97
2021-08-19 12:08:51.324,-0.06,-1.72
2021-08-19 12:08:51.328,-0.01,-1.43
2021-08-19 12:08:51.332,0.12,-1.215
2021-08-19 12:08:51.336,0.19,-0.97
2021-08-19 12:08:51.340,0.29,-0.735
2021-08-19 12:08:51.344,0.42,-0.53
2021-08-19 12:08:51.348,0.565,-0.375
2021-08-19 12:08:51.352,0.62,-0.225
2021-08-19 12:08:51.356,0.605,-0.085
2021-08-19 12:08:51.360,0.555,0.075
2021-08-19 12:08:51.364,0.49,0.245
2021-08-19 12:08:51.368,0.5,0.345
2021-08-19 12:08:51.372,0.51,0.455
2021-08-19 12:08:51.376,0.52,0.54
2021-08-19 12:08:51.380,0.53,0.595
2021-08-19 12:08:51.384,0.535,0.575
2021-08-19 12:08:51.388,0.585,0.57
2021-08-19 12:08:51.392,0.605,0.56
2021-08-19 12:08:51.396,0.61,0.56
2021-08-19 12:08:51.400,0.61,0.56
2021-08-19 12:08:51.404,0.635,0.565
2021-08-19 12:08:51.408,0.66,0.6
2021-08-19 12:08:51.412,0.695,0.595
2021-08-19 12:08:51.416,0.715,0.59
2021-08-19 12:08:51.420,0.715,0.6
2021-08-19 12:08:51.424,0.755,0.62
2021-08-19 12:08:51.428,0.79,0.645
2021-08-19 12:08:51.432,0.785,0.66
2021-08-19 12:08:51.436,0.73,0.735
2021-08-19 12:08:51.440,0.735,0.775
2021-08-19 12:08:51.444,0.74,0.72
2021-08-19 12:08:51.448,0.8,0.74
2021-08-19 12:08:51.452,0.815,0.815
2021-08-19 12:08:51.456,0.78,0.82
2021-08-19 12:08:51.460,0.785,0.85
2021-08-19 12:08:51.464,0.785,0.89
2021-08-19 12:08:51.468,0.78,0.9
2021-08-19 12:08:51.472,0.79,0.91
2021-08-19 12:08:51.476,0.78,0.94
2021-08-19 12:08:51.480,0.765,0.98
2021-08-19 12:08:51.484,0.76,1.015
2021-08-19 12:08:51.488,0.79,1.04
2021-08-19 12:08:51.492,0.785,1.045
2021-08-19 12:08:51.496,0.83,1.05
2021-08-19 12:08:51.500,0.925,0.99
2021-08-19 12:08:51.504,0.925,1.02
2021-08-19 12:08:51.508,0.795,1.095
2021-08-19 12:08:51.512,0.65,1.085
2021-08-19 12:08:51.516,0.645,1.07
2021-08-19 12:08:51.520,0.645,1.065
2021-08-19 12:08:51.524,0.645,1.045
2021-08-19 12:08:51.528,0.635,1.025
2021-08-19 12:08:51.532,0.63,1.015
2021-08-19 12:08:51.536,0.615,0.99
2021-08-19 12:08:51.540,0.56,0.975
2021-08-19 12:08:51.544,0.535,0.945
2021-08-19 12:08:51.548,0.475,0.9
2021-08-19 12:08:51.552,0.46,0.86
2021-08-19 12:08:51.556,0.46,0.815
2021-08-19 12:08:51.560,0.435,0.745
2021-08-19 12:08:51.564,0.425,0.715
2021-08-19 12:08:51.568,0.445,0.635
2021-08-19 12:08:51.572,0.435,0.595
2021-08-19 12:08:51.576,0.41,0.55
2021-08-19 12:08:51.580,0.39,0.505
2021-08-19 12:08:51.584,0.335,0.49
2021-08-19 12:08:51.588,0.32,0.495
2021-08-19 12:08:51.592,0.29,0.425
2021-08-19 12:08:51.596,0.3,0.375
2021-08-19 12:08:51.600,0.285,0.33
2021-08-19 12:08:51.604,0.26,0.245
2021-08-19 12:08:51.608,0.25,0.17
2021-08-19 12:08:51.612,0.25,0.11
2021-08-19 12:08:51.616,0.235,0.05
2021-08-19 12:08:51.620,0.22,0.02
2021-08-19 12:08:51.624,0.23,-0.01
2021-08-19 12:08:51.628,0.22,-0.04
2021-08-19 12:08:51.632,0.225,-0.055
2021-08-19 12:08:51.636,0.225,-0.04
2021-08-19 12:08:51.640,0.21,-0.025
2021-08-19 12:08:51.644,0.185,-0.025
2021-08-19 12:08:51.648,0.155,-0.02
2021-08-19 12:08:51.652,0.14,-0.01
2021-08-19 12:08:51.656,0.17,0.0
2021-08-19 12:08:51.660,0.165,0.01
2021-08-19 12:08:51.664,0.17,-0.015
2021-08-19 12:08:51.668,0.155,0.025
2021-08-19 12:08:51.672,0.12,0.01
2021-08-19 12:08:51.676,0.15,0.0
2021-08-19 12:08:51.680,0.14,0.005
2021-08-19 12:08:51.684,0.15,0.035
2021-08-19 12:08:51.688,0.16,0.04
2021-08-19 12:08:51.692,0.165,-0.02
2021-08-19 12:08:51.696,0.145,-0.015
2021-08-19 12:08:51.700,0.16,0.035
2021-08-19 12:08:51.704,0.195,0.06
2021-08-19 12:08:51.708,0.265,0.085
2021-08-19 12:08:51.712,0.365,0.06
2021-08-19 12:08:51.716,0.505,0.055
2021-08-19 12:08:51.720,0.465,0.05
2021-08-19 12:08:51.724,0.2,0.06
2021-08-19 12:08:51.728,-0.1,0.125
2021-08-19 12:08:51.732,-0.51,0.195
2021-08-19 12:08:51.736,-1.095,0.135
2021-08-19 12:08:51.740,-1.59,-0.135
2021-08-19 12:08:51.744,-1.975,-0.47
2021-08-19 12:08:51.820,-0.23,-1.985
2021-08-19 12:08:51.824,-0.18,-1.685
2021-08-19 12:08:51.828,-0.12,-1.41
2021-08-19 12:08:51.832,0.0,-1.14
2021-08-19 12:08:51.836,0.125,-0.92
2021-08-19 12:08:51.840,0.27,-0.71
2021-08-19 12:08:51.844,0.35,-0.505
2021-08-19 12:08:51.848,0.36,-0.415
2021-08-19 12:08:51.852,0.41,-0.27
2021-08-19 12:08:51.856,0.46,-0.095
2021-08-19 12:08:51.860,0.49,0.085
2021-08-19 12:08:51.864,0.54,0.235
2021-08-19 12:08:51.868,0.535,0.38
2021-08-19 12:08:51.872,0.515,0.495
2021-08-19 12:08:51.876,0.535,0.53
2021-08-19 12:08:51.880,0.57,0.575
2021-08-19 12:08:51.884,0.57,0.635
2021-08-19 12:08:51.888,0.575,0.635
2021-08-19 12:08:51.892,0.59,0.66
2021-08-19 12:08:51.896,0.615,0.69
2021-08-19 12:08:51.900,0.62,0.705
2021-08-19 12:08:51.904,0.63,0.715
2021-08-19 12:08:51.908,0.66,0.75
2021-08-19 12:08:51.912,0.695,0.735
2021-08-19 12:08:51.916,0.725,0.745
2021-08-19 12:08:51.920,0.735,0.795
2021-08-19 12:08:51.924,0.69,0.86
2021-08-19 12:08:51.928,0.685,0.92
2021-08-19 12:08:51.932,0.725,0.965
2021-08-19 12:08:51.936,0.77,0.995
2021-08-19 12:08:51.940,0.83,0.98
2021-08-19 12:08:51.944,0.8,0.985
2021-08-19 12:08:51.948,0.725,1.015
2021-08-19 12:08:51.952,0.685,1.06
2021-08-19 12:08:51.956,0.745,1.115
2021-08-19 12:08:51.960,0.81,1.125
2021-08-19 12:08:51.964,0.81,1.145
2021-08-19 12:08:51.968,0.73,1.155
2021-08-19 12:08:51.972,0.725,1.155
2021-08-19 12:08:51.976,0.765,1.185
2021-08-19 12:08:51.980,0.77,1.2
2021-08-19 12:08:51.984,0.78,1.205
2021-08-19 12:08:51.988,0.775,1.245
2021-08-19 12:08:51.992,0.805,1.23
2021-08-19 12:08:51.996,0.805,1.24
2021-08-19 12:08:52.000,0.79,1.225
2021-08-19 12:08:52.004,0.755,1.25
2021-08-19 12:08:52.008,0.745,1.245
2021-08-19 12:08:52.012,0.73,1.22
2021-08-19 12:08:52.016,0.71,1.2
2021-08-19 12:08:52.020,0.655,1.19
2021-08-19 12:08:52.024,0.63,1.15
2021-08-19 12:08:52.028,0.6,1.105
2021-08-19 12:08:52.032,0.59,1.015
2021-08-19 12:08:52.036,0.55,0.99
2021-08-19 12:08:52.040,0.475,0.97
2021-08-19 12:08:52.044,0.38,0.935
2021-08-19 12:08:52.048,0.35,0.895
2021-08-19 12:08:52.052,0.365,0.85
2021-08-19 12:08:52.056,0.37,0.72
2021-08-19 12:08:52.060,0.38,0.64
2021-08-19 12:08:52.064,0.37,0.635
2021-08-19 12:08:52.068,0.34,0.61
2021-08-19 12:08:52.072,0.32,0.56
2021-08-19 12:08:52.076,0.37,0.535
2021-08-19 12:08:52.080,0.39,0.445
2021-08-19 12:08:52.084,0.39,0.375
2021-08-19 12:08:52.088,0.35,0.33
2021-08-19 12:08:52.092,0.295,0.31
2021-08-19 12:08:52.096,0.27,0.285
2021-08-19 12:08:52.100,0.27,0.255
2021-08-19 12:08:52.104,0.29,0.23
2021-08-19 12:08:52.108,0.325,0.195
2021-08-19 12:08:52.112,0.33,0.16
2021-08-19 12:08:52.116,0.37,0.16
2021-08-19 12:08:52.120,0.35,0.15
2021-08-19 12:08:52.124,0.295,0.135
2021-08-19 12:08:52.128,0.235,0.13
2021-08-19 12:08:52.132,0.215,0.12
2021-08-19 12:08:52.136,0.195,0.125
2021-08-19 12:08:52.140,0.225,0.12
2021-08-19 12:08:52.144,0.24,0.125
2021-08-19 12:08:52.148,0.235,0.095
2021-08-19 12:08:52.152,0.24,0.11
2021-08-19 12:08:52.156,0.22,0.135
2021-08-19 12:08:52.160,0.21,0.155
2021-08-19 12:08:52.164,0.195,0.135
2021-08-19 12:08:52.168,0.195,0.075
2021-08-19 12:08:52.172,0.195,0.05
2021-08-19 12:08:52.176,0.165,0.01
2021-08-19 12:08:52.180,0.155,0.06
2021-08-19 12:08:52.184,0.165,0.195
2021-08-19 12:08:52.188,0.18,0.235
2021-08-19 12:08:52.192,0.2,0.115
2021-08-19 12:08:52.196,0.21,0.01
2021-08-19 12:08:52.200,0.205,0.02
2021-08-19 12:08:52.204,0.2,0.095
2021-08-19 12:08:52.208,0.185,0.23
2021-08-19 12:08:52.212,0.21,0.215
2021-08-19 12:08:52.216,0.255,0.155
2021-08-19 12:08:52.220,0.235,0.135
2021-08-19 12:08:52.224,0.225,0.15
2021-08-19 12:08:52.228,0.22,0.16
2021-08-19 12:08:52.232,0.24,0.175
2021-08-19 12:08:52.236,0.27,0.2
2021-08-19 12:08:52.240,0.275,0.18
2021-08-19 12:08:52.244,0.255,0.19
2021-08-19 12:08:52.248,0.235,0.15
2021-08-19 12:08:52.252,0.215,0.175
2021-08-19 12:08:52.256,0.205,0.185
2021-08-19 12:08:52.260,0.17,0.21
2021-08-19 12:08:52.264,0.175,0.175
2021-08-19 12:08:52.268,0.155,0.17
2021-08-19 12:08:52.272,0.13,0.155
2021-08-19 12:08:52.276,0.195,0.1
2021-08-19 12:08:52.280,0.25,0.04
2021-08-19 12:08:52.284,0.295,0.09
2021-08-19 12:08:52.288,0.305,0.24
2021-08-19 12:08:52.292,0.335,0.315
2021-08-19 12:08:52.296,0.31,0.285
2021-08-19 12:08:52.300,0.315,0.28
2021-08-19 12:08:52.304,0.335,0.28
2021-08-19 12:08:52.308,0.325,0.115
2021-08-19 12:08:52.312,0.36,0.045
2021-08-19 12:08:52.316,0.325,0.205
2021-08-19 12:08:52.320,0.315,0.395
2021-08-19 12:08:52.324,0.31,0.315
2021-08-19 12:08:52.328,0.345,0.14
2021-08-19 12:08:52.332,0.35,0.14
2021-08-19 12:08:52.336,0.455,0.195
2021-08-19 12:08:52.340,0.52,0.155
2021-08-19 12:08:52.344,0.55,0.11
2021-08-19 12:08:52.348,0.435,0.13
2021-08-19 12:08:52.352,0.2,0.165
2021-08-19 12:08:52.356,-0.105,0.265
2021-08-19 12:08:52.360,-0.605,0.19
2021-08-19 12:08:52.364,-1.11,-0.065
2021-08-19 12:08:52.368,-1.52,-0.445
2021-08-19 12:08:52.372,-1.825,-0.77
2021-08-19 12:08:52.376,-1.955,-1.315
2021-08-19 12:08:52.380,-1.935,-1.99
2021-08-19 12:08:52.440,-0.11,-1.75
2021-08-19 12:08:52.444,-0.01,-1.49
2021-08-19 12:08:52.448,0.025,-1.14
2021-08-19 12:08:52.452,0.02,-0.765
2021-08-19 12:08:52.456,0.015,-0.425
2021-08-19 12:08:52.460,0.055,-0.11
2021-08-19 12:08:52.464,0.155,0.14
2021-08-19 12:08:52.468,0.29,0.33
2021-08-19 12:08:52.472,0.405,0.48
2021-08-19 12:08:52.476,0.5,0.645
2021-08-19 12:08:52.480,0.56,0.76
2021-08-19 12:08:52.484,0.635,0.895
2021-08-19 12:08:52.488,0.645,1.155
2021-08-19 12:08:52.492,0.665,1.315
2021-08-19 12:08:52.496,0.605,1.395
2021-08-19 12:08:52.500,0.58,1.45
2021-08-19 12:08:52.504,0.555,1.485
2021-08-19 12:08:52.508,0.525,1.525
2021-08-19 12:08:52.512,0.58,1.48
2021-08-19 12:08:52.516,0.625,1.47
2021-08-19 12:08:52.520,0.65,1.44
2021-08-19 12:08:52.524,0.7,1.475
2021-08-19 12:08:52.528,0.7,1.495
2021-08-19 12:08:52.532,0.695,1.505
2021-08-19 12:08:52.536,0.705,1.505
2021-08-19 12:08:52.540,0.715,1.535
2021-08-19 12:08:52.544,0.715,1.545
2021-08-19 12:08:52.548,0.73,1.57
2021-08-19 12:08:52.552,0.74,1.585
2021-08-19 12:08:52.556,0.74,1.585
2021-08-19 12:08:52.560,0.75,1.6
2021-08-19 12:08:52.564,0.775,1.61
2021-08-19 12:08:52.568,0.795,1.645
2021-08-19 12:08:52.572,0.805,1.655
2021-08-19 12:08:52.576,0.795,1.655
2021-08-19 12:08:52.580,0.785,1.71
2021-08-19 12:08:52.584,0.795,1.71
2021-08-19 12:08:52.588,0.815,1.74
2021-08-19 12:08:52.592,0.81,1.76
2021-08-19 12:08:52.596,0.82,1.74
2021-08-19 12:08:52.600,0.85,1.76
2021-08-19 12:08:52.604,0.85,1.78
2021-08-19 12:08:52.608,0.85,1.775
2021-08-19 12:08:52.612,0.855,1.825
2021-08-19 12:08:52.616,0.83,1.845
2021-08-19 12:08:52.620,0.84,1.86
2021-08-19 12:08:52.624,0.835,1.845
2021-08-19 12:08:52.628,0.835,1.84
2021-08-19 12:08:52.632,0.82,1.87
2021-08-19 12:08:52.636,0.805,1.84
2021-08-19 12:08:52.640,0.805,1.83
2021-08-19 12:08:52.644,0.77,1.815
2021-08-19 12:08:52.648,0.77,1.79
2021-08-19 12:08:52.652,0.75,1.775
2021-08-19 12:08:52.656,0.71,1.74
2021-08-19 12:08:52.660,0.605,1.71
2021-08-19 12:08:52.664,0.57,1.685
2021-08-19 12:08:52.668,0.56,1.66
2021-08-19 12:08:52.672,0.535,1.57
2021-08-19 12:08:52.676,0.5,1.515
2021-08-19 12:08:52.680,0.475,1.46
2021-08-19 12:08:52.684,0.465,1.405
2021-08-19 12:08:52.688,0.425,1.39
2021-08-19 12:08:52.692,0.405,1.4
2021-08-19 12:08:52.696,0.4,1.34
2021-08-19 12:08:52.700,0.365,1.265
2021-08-19 12:08:52.704,0.31,1.2
2021-08-19 12:08:52.708,0.26,1.16
2021-08-19 12:08:52.712,0.235,1.095
2021-08-19 12:08:52.716,0.225,1.035
2021-08-19 12:08:52.720,0.185,0.955
2021-08-19 12:08:52.724,0.145,0.91
2021-08-19 12:08:52.728,0.16,0.875
2021-08-19 12:08:52.732,0.17,0.85
2021-08-19 12:08:52.736,0.2,0.81
2021-08-19 12:08:52.740,0.21,0.795
2021-08-19 12:08:52.744,0.225,0.795
2021-08-19 12:08:52.748,0.23,0.795
2021-08-19 12:08:52.752,0.24,0.82
2021-08-19 12:08:52.756,0.23,0.83
2021-08-19 12:08:52.760,0.2,0.825
2021-08-19 12:08:52.764,0.19,0.845
2021-08-19 12:08:52.768,0.195,0.865
2021-08-19 12:08:52.772,0.185,0.855
2021-08-19 12:08:52.776,0.175,0.875
2021-08-19 12:08:52.780,0.15,0.91
2021-08-19 12:08:52.784,0.155,0.885
2021-08-19 12:08:52.788,0.13,0.895
2021-08-19 12:08:52.792,0.1,0.89
2021-08-19 12:08:52.796,0.095,0.89
2021-08-19 12:08:52.800,0.1,0.895
2021-08-19 12:08:52.804,0.085,0.87
2021-08-19 12:08:52.808,0.09,0.89
2021-08-19 12:08:52.812,0.075,0.9
2021-08-19 12:08:52.816,0.075,0.89
2021-08-19 12:08:52.820,0.045,0.925
2021-08-19 12:08:52.824,0.05,0.915
2021-08-19 12:08:52.828,0.01,0.89
2021-08-19 12:08:52.832,0.035,0.92
2021-08-19 12:08:52.836,0.035,0.91
2021-08-19 12:08:52.840,0.035,0.92
2021-08-19 12:08:52.844,0.045,0.89
2021-08-19 12:08:52.848,0.025,0.88
2021-08-19 12:08:52.852,0.01,0.905
2021-08-19 12:08:52.856,0.02,0.925
2021-08-19 12:08:52.860,-0.005,0.925
2021-08-19 12:08:52.864,0.0,0.905
2021-08-19 12:08:52.868,-0.005,0.935
2021-08-19 12:08:52.872,-0.02,0.94
2021-08-19 12:08:52.876,-0.02,0.93
2021-08-19 12:08:52.880,-0.01,0.94
2021-08-19 12:08:52.884,-0.01,0.955
2021-08-19 12:08:52.888,-0.035,0.945
2021-08-19 12:08:52.892,-0.015,0.91
2021-08-19 12:08:52.896,-0.025,0.925
2021-08-19 12:08:52.900,-0.03,0.935
2021-08-19 12:08:52.904,-0.015,0.92
2021-08-19 12:08:52.908,0.025,0.93
2021-08-19 12:08:52.912,0.02,0.93
2021-08-19 12:08:52.916,0.005,0.915
2021-08-19 12:08:52.920,-0.005,0.9
2021-08-19 12:08:52.924,0.005,0.895
2021-08-19 12:08:52.928,0.005,0.875
2021-08-19 12:08:52.932,-0.06,0.865
2021-08-19 12:08:52.936,-0.14,0.82
2021-08-19 12:08:52.940,-0.16,0.735
2021-08-19 12:08:52.944,-0.16,0.695
2021-08-19 12:08:52.948,-0.135,0.645
2021-08-19 12:08:52.952,-0.1,0.535
2021-08-19 12:08:52.956,-0.115,0.455
2021-08-19 12:08:52.960,-0.095,0.375
2021-08-19 12:08:52.964,-0.055,0.345
2021-08-19 12:08:52.968,-0.07,0.31
2021-08-19 12:08:52.972,-0.06,0.26
2021-08-19 12:08:52.976,-0.045,0.25
2021-08-19 12:08:52.980,-0.02,0.275
2021-08-19 12:08:52.984,-0.015,0.24
2021-08-19 12:08:52.988,-0.045,0.225
2021-08-19 12:08:52.992,-0.075,0.25
2021-08-19 12:08:52.996,-0.12,0.265
2021-08-19 12:08:53.000,-0.135,0.255
2021-08-19 12:08:53.004,-0.11,0.195
2021-08-19 12:08:53.008,-0.105,0.14
2021-08-19 12:08:53.012,-0.125,0.065
2021-08-19 12:08:53.016,-0.115,0.055
2021-08-19 12:08:53.020,-0.05,0.09
2021-08-19 12:08:53.024,0.055,0.115
2021-08-19 12:08:53.028,0.135,0.12
2021-08-19 12:08:53.032,0.085,0.12
2021-08-19 12:08:53.036,-0.09,0.18
2021-08-19 12:08:53.040,-0.375,0.24
2021-08-19 12:08:53.044,-0.835,0.28
2021-08-19 12:08:53.048,-1.405,0.14
2021-08-19 12:08:53.052,-1.975,-0.145
2021-08-19 12:08:53.136,-0.57,-1.89
2021-08-19 12:08:53.140,-0.51,-1.555
2021-08-19 12:08:53.144,-0.375,-1.245
2021-08-19 12:08:53.148,-0.225,-0.98
2021-08-19 12:08:53.152,-0.095,-0.785
2021-08-19 12:08:53.156,-0.045,-0.605
2021-08-19 12:08:53.160,-0.025,-0.395
2021-08-19 12:08:53.164,-0.005,-0.205
2021-08-19 12:08:53.168,0.05,-0.055
2021-08-19 12:08:53.172,0.105,0.09
2021-08-19 12:08:53.176,0.185,0.22
2021-08-19 12:08:53.180,0.24,0.34
2021-08-19 12:08:53.184,0.255,0.47
2021-08-19 12:08:53.188,0.295,0.54
2021-08-19 12:08:53.192,0.295,0.59
2021-08-19 12:08:53.196,0.31,0.625
2021-08-19 12:08:53.200,0.34,0.67
2021-08-19 12:08:53.204,0.34,0.69
2021-08-19 12:08:53.208,0.39,0.66
2021-08-19 12:08:53.212,0.41,0.655
2021-08-19 12:08:53.216,0.42,0.685
2021-08-19 12:08:53.220,0.43,0.71
2021-08-19 12:08:53.224,0.47,0.735
2021-08-19 12:08:53.228,0.505,0.75
2021-08-19 12:08:53.232,0.47,0.765
2021-08-19 12:08:53.236,0.375,0.77
2021-08-19 12:08:53.240,0.345,0.78
2021-08-19 12:08:53.244,0.335,0.79
2021-08-19 12:08:53.248,0.355,0.795
2021-08-19 12:08:53.252,0.36,0.8
2021-08-19 12:08:53.256,0.38,0.815
2021-08-19 12:08:53.260,0.405,0.825
2021-08-19 12:08:53.264,0.435,0.835
2021-08-19 12:08:53.268,0.435,0.865
2021-08-19 12:08:53.272,0.47,0.895
2021-08-19 12:08:53.276,0.485,0.94
2021-08-19 12:08:53.280,0.495,0.955
2021-08-19 12:08:53.284,0.48,0.95
2021-08-19 12:08:53.288,0.46,0.965
2021-08-19 12:08:53.292,0.48,0.995
2021-08-19 12:08:53.296,0.495,1.015
2021-08-19 12:08:53.300,0.505,1.02
2021-08-19 12:08:53.304,0.53,1.02
2021-08-19 12:08:53.308,0.52,0.995
2021-08-19 12:08:53.312,0.495,1.005
2021-08-19 12:08:53.316,0.5,1.005
2021-08-19 12:08:53.320,0.505,1.02
2021-08-19 12:08:53.324,0.49,1.025
2021-08-19 12:08:53.328,0.455,1.015
2021-08-19 12:08:53.332,0.43,0.995
2021-08-19 12:08:53.336,0.395,0.965
2021-08-19 12:08:53.340,0.39,0.94
2021-08-19 12:08:53.344,0.365,0.895
2021-08-19 12:08:53.348,0.345,0.84
2021-08-19 12:08:53.352,0.33,0.815
2021-08-19 12:08:53.356,0.31,0.785
2021-08-19 12:08:53.360,0.285,0.78
2021-08-19 12:08:53.364,0.25,0.695
2021-08-19 12:08:53.368,0.215,0.635
2021-08-19 12:08:53.372,0.16,0.61
2021-08-19 12:08:53.376,0.115,0.565
2021-08-19 12:08:53.380,0.08,0.51
2021-08-19 12:08:53.384,0.07,0.395
2021-08-19 12:08:53.388,0.01,0.3
2021-08-19 12:08:53.392,-0.005,0.25
2021-08-19 12:08:53.396,0.01,0.22
2021-08-19 12:08:53.400,0.0,0.195
2021-08-19 12:08:53.404,0.0,0.14
2021-08-19 12:08:53.408,-0.01,0.015
2021-08-19 12:08:53.412,-0.02,-0.035
2021-08-19 12:08:53.416,-0.035,-0.04
2021-08-19 12:08:53.420,-0.045,-0.08
2021-08-19 12:08:53.424,-0.035,-0.115
2021-08-19 12:08:53.428,-0.035,-0.18
2021-08-19 12:08:53.432,-0.015,-0.205
2021-08-19 12:08:53.436,-0.045,-0.22
2021-08-19 12:08:53.440,-0.085,-0.25
2021-08-19 12:08:53.444,-0.075,-0.255
2021-08-19 12:08:53.448,-0.085,-0.28
2021-08-19 12:08:53.452,-0.07,-0.3
2021-08-19 12:08:53.456,-0.035,-0.3
2021-08-19 12:08:53.460,-0.085,-0.32
2021-08-19 12:08:53.464,-0.08,-0.315
2021-08-19 12:08:53.468,-0.08,-0.29
2021-08-19 12:08:53.472,-0.11,-0.25
2021-08-19 12:08:53.476,-0.135,-0.215
2021-08-19 12:08:53.480,-0.165,-0.195
2021-08-19 12:08:53.484,-0.175,-0.22
2021-08-19 12:08:53.488,-0.19,-0.245
2021-08-19 12:08:53.492,-0.2,-0.265
2021-08-19 12:08:53.496,-0.215,-0.26
2021-08-19 12:08:53.500,-0.235,-0.26
2021-08-19 12:08:53.504,-0.2,-0.25
2021-08-19 12:08:53.508,-0.18,-0.265
2021-08-19 12:08:53.512,-0.23,-0.32
2021-08-19 12:08:53.516,-0.23,-0.31
2021-08-19 12:08:53.520,-0.235,-0.285
2021-08-19 12:08:53.524,-0.24,-0.255
2021-08-19 12:08:53.528,-0.23,-0.24
2021-08-19 12:08:53.532,-0.24,-0.27
2021-08-19 12:08:53.536,-0.225,-0.275
2021-08-19 12:08:53.540,-0.21,-0.26
2021-08-19 12:08:53.544,-0.225,-0.27
2021-08-19 12:08:53.548,-0.23,-0.24
2021-08-19 12:08:53.552,-0.23,-0.265
2021-08-19 12:08:53.556,-0.185,-0.25
2021-08-19 12:08:53.560,-0.155,-0.255
2021-08-19 12:08:53.564,-0.095,-0.285
2021-08-19 12:08:53.568,0.015,-0.27
2021-08-19 12:08:53.572,0.035,-0.255
2021-08-19 12:08:53.576,-0.105,-0.22
2021-08-19 12:08:53.580,-0.36,-0.18
2021-08-19 12:08:53.584,-0.7,-0.07
2021-08-19 12:08:53.588,-1.15,-0.09
2021-08-19 12:08:53.592,-1.71,-0.37
2021-08-19 12:08:53.684,-0.46,-1.865
2021-08-19 12:08:53.688,-0.36,-1.58
2021-08-19 12:08:53.692,-0.275,-1.325
2021-08-19 12:08:53.696,-0.175,-1.12
2021-08-19 12:08:53.700,-0.075,-0.905
2021-08-19 12:08:53.704,-0.03,-0.74
2021-08-19 12:08:53.708,0.045,-0.575
2021-08-19 12:08:53.712,0.085,-0.405
2021-08-19 12:08:53.716,0.105,-0.22
2021-08-19 12:08:53.720,0.1,-0.11
2021-08-19 12:08:53.724,0.135,0.035
2021-08-19 12:08:53.728,0.14,0.175
2021-08-19 12:08:53.732,0.13,0.23
2021-08-19 12:08:53.736,0.155,0.285
2021-08-19 12:08:53.740,0.155,0.295
2021-08-19 12:08:53.744,0.175,0.33
2021-08-19 12:08:53.748,0.15,0.36
2021-08-19 12:08:53.752,0.18,0.415
2021-08-19 12:08:53.756,0.215,0.4
2021-08-19 12:08:53.760,0.28,0.44
2021-08-19 12:08:53.764,0.31,0.455
2021-08-19 12:08:53.768,0.335,0.495
2021-08-19 12:08:53.772,0.35,0.52
2021-08-19 12:08:53.776,0.345,0.545
2021-08-19 12:08:53.780,0.375,0.61
2021-08-19 12:08:53.784,0.39,0.635
2021-08-19 12:08:53.788,0.375,0.655
2021-08-19 12:08:53.792,0.39,0.68
2021-08-19 12:08:53.796,0.395,0.68
2021-08-19 12:08:53.800,0.44,0.76
2021-08-19 12:08:53.804,0.465,0.82
2021-08-19 12:08:53.808,0.485,0.845
2021-08-19 12:08:53.812,0.49,0.85
2021-08-19 12:08:53.816,0.49,0.865
2021-08-19 12:08:53.820,0.49,0.88
2021-08-19 12:08:53.824,0.49,0.95
2021-08-19 12:08:53.828,0.46,0.96
2021-08-19 12:08:53.832,0.445,0.99
2021-08-19 12:08:53.836,0.46,1.0
2021-08-19 12:08:53.840,0.465,0.97
2021-08-19 12:08:53.844,0.505,0.98
2021-08-19 12:08:53.848,0.5,1.01
2021-08-19 12:08:53.852,0.485,1.035
2021-08-19 12:08:53.856,0.455,1.085
2021-08-19 12:08:53.860,0.475,1.08
2021-08-19 12:08:53.864,0.475,1.06
2021-08-19 12:08:53.868,0.45,1.05
2021-08-19 12:08:53.872,0.445,1.025
2021-08-19 12:08:53.876,0.415,1.0
2021-08-19 12:08:53.880,0.37,0.98
2021-08-19 12:08:53.884,0.31,0.93
2021-08-19 12:08:53.888,0.27,0.875
2021-08-19 12:08:53.892,0.24,0.815
2021-08-19 12:08:53.896,0.2,0.715
2021-08-19 12:08:53.900,0.155,0.62
2021-08-19 12:08:53.904,0.15,0.555
2021-08-19 12:08:53.908,0.13,0.51
2021-08-19 12:08:53.912,0.095,0.475
2021-08-19 12:08:53.916,0.075,0.435
2021-08-19 12:08:53.920,0.04,0.345
2021-08-19 12:08:53.924,-0.01,0.3
2021-08-19 12:08:53.928,-0.025,0.215
2021-08-19 12:08:53.932,-0.04,0.16
2021-08-19 12:08:53.936,-0.07,0.11
2021-08-19 12:08:53.940,-0.09,0.045
2021-08-19 12:08:53.944,-0.12,-0.005
2021-08-19 12:08:53.948,-0.155,-0.015
2021-08-19 12:08:53.952,-0.165,-0.04
2021-08-19 12:08:53.956,-0.18,-0.09
2021-08-19 12:08:53.960,-0.2,-0.125
2021-08-19 12:08:53.964,-0.19,-0.165
2021-08-19 12:08:53.968,-0.225,-0.185
2021-08-19 12:08:53.972,-0.25,-0.185
2021-08-19 12:08:53.976,-0.255,-0.185
2021-08-19 12:08:53.980,-0.235,-0.175
2021-08-19 12:08:53.984,-0.185,-0.16
2021-08-19 12:08:53.988,-0.18,-0.195
2021-08-19 12:08:53.992,-0.175,-0.205
2021-08-19 12:08:53.996,-0.22,-0.22
2021-08-19 12:08:54.000,-0.245,-0.15
2021-08-19 12:08:54.004,-0.23,-0.11
2021-08-19 12:08:54.008,-0.195,-0.12
2021-08-19 12:08:54.012,-0.185,-0.105
2021-08-19 12:08:54.016,-0.195,-0.115
2021-08-19 12:08:54.020,-0.175,-0.17
2021-08-19 12:08:54.024,-0.16,-0.19
2021-08-19 12:08:54.028,-0.15,-0.185
2021-08-19 12:08:54.032,-0.15,-0.145
2021-08-19 12:08:54.036,-0.13,-0.095
2021-08-19 12:08:54.040,-0.115,-0.085
2021-08-19 12:08:54.044,-0.16,-0.095
2021-08-19 12:08:54.048,-0.205,-0.09
2021-08-19 12:08:54.052,-0.24,-0.09
2021-08-19 12:08:54.056,-0.255,-0.075
2021-08-19 12:08:54.060,-0.28,-0.1
2021-08-19 12:08:54.064,-0.26,-0.135
2021-08-19 12:08:54.068,-0.255,-0.155
2021-08-19 12:08:54.072,-0.26,-0.16
2021-08-19 12:08:54.076,-0.25,-0.16
2021-08-19 12:08:54.080,-0.23,-0.12
2021-08-19 12:08:54.084,-0.225,-0.145
2021-08-19 12:08:54.088,-0.22,-0.16
2021-08-19 12:08:54.092,-0.205,-0.15
2021-08-19 12:08:54.096,-0.195,-0.075
2021-08-19 12:08:54.100,-0.165,-0.105
2021-08-19 12:08:54.104,-0.185,-0.15
2021-08-19 12:08:54.108,-0.195,-0.14
2021-08-19 12:08:54.112,-0.215,-0.17
2021-08-19 12:08:54.116,-0.2,-0.205
2021-08-19 12:08:54.120,-0.2,-0.225
2021-08-19 12:08:54.124,-0.21,-0.23
2021-08-19 12:08:54.128,-0.21,-0.27
2021-08-19 12:08:54.132,-0.23,-0.28
2021-08-19 12:08:54.136,-0.25,-0.25
2021-08-19 12:08:54.140,-0.26,-0.24
2021-08-19 12:08:54.144,-0.24,-0.22
2021-08-19 12:08:54.148,-0.23,-0.255
2021-08-19 12:08:54.152,-0.24,-0.31
2021-08-19 12:08:54.156,-0.24,-0.305
2021-08-19 12:08:54.160,-0.23,-0.295
2021-08-19 12:08:54.164,-0.255,-0.275
2021-08-19 12:08:54.168,-0.285,-0.25
2021-08-19 12:08:54.172,-0.285,-0.25
2021-08-19 12:08:54.176,-0.285,-0.23
2021-08-19 12:08:54.180,-0.285,-0.24
2021-08-19 12:08:54.184,-0.335,-0.29
2021-08-19 12:08:54.188,-0.385,-0.285
2021-08-19 12:08:54.192,-0.36,-0.29
2021-08-19 12:08:54.196,-0.33,-0.3
2021-08-19 12:08:54.200,-0.3,-0.315
2021-08-19 12:08:54.204,-0.22,-0.285
2021-08-19 12:08:54.208,-0.14,-0.28
2021-08-19 12:08:54.212,-0.115,-0.28
2021-08-19 12:08:54.216,-0.27,-0.265
2021-08-19 12:08:54.220,-0.545,-0.19
2021-08-19 12:08:54.224,-0.825,-0.125
2021-08-19 12:08:54.228,-1.265,-0.11
2021-08-19 12:08:54.232,-1.805,-0.29
2021-08-19 12:08:54.324,-0.57,-1.97
2021-08-19 12:08:54.328,-0.455,-1.7
2021-08-19 12:08:54.332,-0.36,-1.455
2021-08-19 12:08:54.336,-0.255,-1.185
2021-08-19 12:08:54.340,-0.155,-0.92
2021-08-19 12:08:54.344,-0.065,-0.73
2021-08-19 12:08:54.348,-0.02,-0.53
2021-08-19 12:08:54.352,0.0,-0.375
2021-08-19 12:08:54.356,0.06,-0.3
2021-08-19 12:08:54.360,0.095,-0.195
2021-08-19 12:08:54.364,0.115,-0.06
2021-08-19 12:08:54.368,0.105,0.09
2021-08-19 12:08:54.372,0.11,0.175
2021-08-19 12:08:54.376,0.145,0.26
2021-08-19 12:08:54.380,0.19,0.315
2021-08-19 12:08:54.384,0.205,0.325
2021-08-19 12:08:54.388,0.205,0.36
2021-08-19 12:08:54.392,0.2,0.385
2021-08-19 12:08:54.396,0.205,0.44
2021-08-19 12:08:54.400,0.21,0.46
2021-08-19 12:08:54.404,0.195,0.47
2021-08-19 12:08:54.408,0.23,0.44
2021-08-19 12:08:54.412,0.22,0.475
2021-08-19 12:08:54.416,0.225,0.51
2021-08-19 12:08:54.420,0.245,0.53
2021-08-19 12:08:54.424,0.25,0.55
2021-08-19 12:08:54.428,0.275,0.54
2021-08-19 12:08:54.432,0.27,0.565
2021-08-19 12:08:54.436,0.31,0.61
2021-08-19 12:08:54.440,0.35,0.64
2021-08-19 12:08:54.444,0.335,0.68
2021-08-19 12:08:54.448,0.325,0.74
2021-08-19 12:08:54.452,0.355,0.745
2021-08-19 12:08:54.456,0.4,0.765
2021-08-19 12:08:54.460,0.4,0.8
2021-08-19 12:08:54.464,0.405,0.84
2021-08-19 12:08:54.468,0.405,0.895
2021-08-19 12:08:54.472,0.435,0.935
2021-08-19 12:08:54.476,0.435,0.945
2021-08-19 12:08:54.480,0.44,0.97
2021-08-19 12:08:54.484,0.46,0.96
2021-08-19 12:08:54.488,0.45,1.0
2021-08-19 12:08:54.492,0.445,1.02
2021-08-19 12:08:54.496,0.42,1.03
2021-08-19 12:08:54.500,0.425,1.045
2021-08-19 12:08:54.504,0.46,1.03
2021-08-19 12:08:54.508,0.44,1.065
2021-08-19 12:08:54.512,0.435,1.1
2021-08-19 12:08:54.516,0.445,1.155
2021-08-19 12:08:54.520,0.435,1.17
2021-08-19 12:08:54.524,0.415,1.15
2021-08-19 12:08:54.528,0.4,1.12
2021-08-19 12:08:54.532,0.39,1.11
2021-08-19 12:08:54.536,0.36,1.095
2021-08-19 12:08:54.540,0.31,1.08
2021-08-19 12:08:54.544,0.275,0.99
2021-08-19 12:08:54.548,0.225,0.93
2021-08-19 12:08:54.552,0.195,0.89
2021-08-19 12:08:54.556,0.155,0.88
2021-08-19 12:08:54.560,0.095,0.835
2021-08-19 12:08:54.564,0.07,0.77
2021-08-19 12:08:54.568,0.08,0.695
2021-08-19 12:08:54.572,0.045,0.605
2021-08-19 12:08:54.576,0.005,0.52
2021-08-19 12:08:54.580,-0.035,0.445
2021-08-19 12:08:54.584,-0.06,0.34
2021-08-19 12:08:54.588,-0.11,0.27
2021-08-19 12:08:54.592,-0.135,0.225
2021-08-19 12:08:54.596,-0.135,0.175
2021-08-19 12:08:54.600,-0.15,0.045
2021-08-19 12:08:54.604,-0.16,-0.005
2021-08-19 12:08:54.608,-0.19,-0.025
2021-08-19 12:08:54.612,-0.2,-0.03
2021-08-19 12:08:54.616,-0.235,-0.075
2021-08-19 12:08:54.620,-0.235,-0.105
2021-08-19 12:08:54.624,-0.21,-0.165
2021-08-19 12:08:54.628,-0.185,-0.16
2021-08-19 12:08:54.632,-0.22,-0.145
2021-08-19 12:08:54.636,-0.25,-0.155
2021-08-19 12:08:54.640,-0.31,-0.18
2021-08-19 12:08:54.644,-0.325,-0.165
2021-08-19 12:08:54.648,-0.33,-0.185
2021-08-19 12:08:54.652,-0.315,-0.19
2021-08-19 12:08:54.656,-0.305,-0.185
2021-08-19 12:08:54.660,-0.32,-0.17
2021-08-19 12:08:54.664,-0.3,-0.195
2021-08-19 12:08:54.668,-0.295,-0.2
2021-08-19 12:08:54.672,-0.275,-0.19
2021-08-19 12:08:54.676,-0.285,-0.16
2021-08-19 12:08:54.680,-0.28,-0.115
2021-08-19 12:08:54.684,-0.29,-0.095
2021-08-19 12:08:54.688,-0.285,-0.07
2021-08-19 12:08:54.692,-0.275,-0.06
2021-08-19 12:08:54.696,-0.275,-0.09
2021-08-19 12:08:54.700,-0.245,-0.1
2021-08-19 12:08:54.704,-0.27,-0.11
2021-08-19 12:08:54.708,-0.275,-0.085
2021-08-19 12:08:54.712,-0.27,-0.055
2021-08-19 12:08:54.716,-0.25,-0.01
2021-08-19 12:08:54.720,-0.215,0.0
2021-08-19 12:08:54.724,-0.21,-0.02
2021-08-19 12:08:54.728,-0.17,-0.05
2021-08-19 12:08:54.732,-0.18,-0.05
2021-08-19 12:08:54.736,-0.19,-0.05
2021-08-19 12:08:54.740,-0.22,-0.02
2021-08-19 12:08:54.744,-0.24,-0.005
2021-08-19 12:08:54.748,-0.21,0.015
2021-08-19 12:08:54.752,-0.19,-0.02
2021-08-19 12:08:54.756,-0.2,-0.025
2021-08-19 12:08:54.760,-0.19,-0.02
2021-08-19 12:08:54.764,-0.18,-0.03
2021-08-19 12:08:54.768,-0.2,-0.03
2021-08-19 12:08:54.772,-0.2,-0.04
2021-08-19 12:08:54.776,-0.215,-0.04
2021-08-19 12:08:54.780,-0.205,-0.015
2021-08-19 12:08:54.784,-0.11,-0.015
2021-08-19 12:08:54.788,-0.05,-0.025
2021-08-19 12:08:54.792,-0.095,-0.025
2021-08-19 12:08:54.796,-0.28,-0.02
2021-08-19 12:08:54.800,-0.55,0.025
2021-08-19 12:08:54.804,-0.98,0.01
2021-08-19 12:08:54.808,-1.495,-0.205
2021-08-19 12:08:54.812,-1.945,-0.595
2021-08-19 12:08:54.900,-0.77,-1.875
2021-08-19 12:08:54.904,-0.69,-1.54
2021-08-19 12:08:54.908,-0.58,-1.29
2021-08-19 12:08:54.912,-0.455,-1.03
2021-08-19 12:08:54.916,-0.3,-0.865
2021-08-19 12:08:54.920,-0.215,-0.75
2021-08-19 12:08:54.924,-0.135,-0.61
2021-08-19 12:08:54.928,-0.065,-0.38
2021-08-19 12:08:54.932,-0.01,-0.195
2021-08-19 12:08:54.936,-0.01,0.0
2021-08-19 12:08:54.940,0.005,0.15
2021-08-19 12:08:54.944,0.055,0.285
2021-08-19 12:08:54.948,0.08,0.4
2021-08-19 12:08:54.952,0.065,0.47
2021-08-19 12:08:54.956,0.13,0.49
2021-08-19 12:08:54.960,0.16,0.525
2021-08-19 12:08:54.964,0.17,0.53
2021-08-19 12:08:54.968,0.17,0.585
2021-08-19 12:08:54.972,0.235,0.635
2021-08-19 12:08:54.976,0.22,0.68
2021-08-19 12:08:54.980,0.205,0.675
2021-08-19 12:08:54.984,0.235,0.73
2021-08-19 12:08:54.988,0.3,0.805
2021-08-19 12:08:54.992,0.355,0.795
2021-08-19 12:08:54.996,0.36,0.78
2021-08-19 12:08:55.000,0.33,0.85
2021-08-19 12:08:55.004,0.315,0.955
2021-08-19 12:08:55.008,0.345,1.045
2021-08-19 12:08:55.012,0.355,1.04
2021-08-19 12:08:55.016,0.355,0.915
2021-08-19 12:08:55.020,0.34,0.92
2021-08-19 12:08:55.024,0.28,0.985
2021-08-19 12:08:55.028,0.295,1.01
2021-08-19 12:08:55.032,0.29,1.025
2021-08-19 12:08:55.036,0.35,1.03
2021-08-19 12:08:55.040,0.38,1.025
2021-08-19 12:08:55.044,0.37,1.015
2021-08-19 12:08:55.048,0.335,1.005
2021-08-19 12:08:55.052,0.34,1.01
2021-08-19 12:08:55.056,0.36,1.035
2021-08-19 12:08:55.060,0.355,1.055
2021-08-19 12:08:55.064,0.355,1.05
2021-08-19 12:08:55.068,0.375,1.05
2021-08-19 12:08:55.072,0.37,1.08
2021-08-19 12:08:55.076,0.35,1.035
2021-08-19 12:08:55.080,0.355,1.02
2021-08-19 12:08:55.084,0.34,1.045
2021-08-19 12:08:55.088,0.335,1.01
2021-08-19 12:08:55.092,0.325,0.985
2021-08-19 12:08:55.096,0.265,0.99
2021-08-19 12:08:55.100,0.26,0.885
2021-08-19 12:08:55.104,0.2,0.705
2021-08-19 12:08:55.108,0.1,0.675
2021-08-19 12:08:55.112,0.08,0.7
2021-08-19 12:08:55.116,0.065,0.655
2021-08-19 12:08:55.120,0.02,0.575
2021-08-19 12:08:55.124,0.01,0.5
2021-08-19 12:08:55.128,-0.06,0.47
2021-08-19 12:08:55.132,-0.11,0.465
2021-08-19 12:08:55.136,-0.115,0.45
2021-08-19 12:08:55.140,-0.08,0.42
2021-08-19 12:08:55.144,-0.13,0.315
2021-08-19 12:08:55.148,-0.255,0.165
2021-08-19 12:08:55.152,-0.27,0.085
2021-08-19 12:08:55.156,-0.235,0.045
2021-08-19 12:08:55.160,-0.235,0.0
2021-08-19 12:08:55.164,-0.255,-0.01
2021-08-19 12:08:55.168,-0.25,-0.025
2021-08-19 12:08:55.172,-0.26,0.02
2021-08-19 12:08:55.176,-0.215,-0.015
2021-08-19 12:08:55.180,-0.14,-0.095
2021-08-19 12:08:55.184,-0.1,-0.07
2021-08-19 12:08:55.188,-0.04,-0.01
2021-08-19 12:08:55.192,-0.04,0.015
2021-08-19 12:08:55.196,-0.065,-0.005
2021-08-19 12:08:55.200,-0.165,-0.1
2021-08-19 12:08:55.204,-0.195,-0.17
2021-08-19 12:08:55.208,-0.14,-0.12
2021-08-19 12:08:55.212,-0.11,-0.03
2021-08-19 12:08:55.216,-0.065,0.03
2021-08-19 12:08:55.220,-0.025,0.06
2021-08-19 12:08:55.224,-0.04,0.09
2021-08-19 12:08:55.228,-0.06,0.08
2021-08-19 12:08:55.232,-0.06,0.02
2021-08-19 12:08:55.236,-0.07,0.055
2021-08-19 12:08:55.240,-0.14,0.13
2021-08-19 12:08:55.244,-0.12,0.19
2021-08-19 12:08:55.248,-0.09,0.085
2021-08-19 12:08:55.252,-0.04,-0.06
2021-08-19 12:08:55.256,-0.01,-0.165
2021-08-19 12:08:55.260,0.045,-0.155
2021-08-19 12:08:55.264,0.09,-0.05
2021-08-19 12:08:55.268,0.055,-0.08
2021-08-19 12:08:55.272,0.01,-0.145
2021-08-19 12:08:55.276,-0.015,-0.12
2021-08-19 12:08:55.280,-0.055,-0.115
2021-08-19 12:08:55.284,-0.04,-0.08
2021-08-19 12:08:55.288,-0.04,-0.065
2021-08-19 12:08:55.292,-0.055,-0.07
2021-08-19 12:08:55.296,-0.02,-0.235
2021-08-19 12:08:55.300,-0.04,-0.33
2021-08-19 12:08:55.304,-0.07,-0.21
2021-08-19 12:08:55.308,-0.01,-0.15
2021-08-19 12:08:55.312,0.11,-0.16
2021-08-19 12:08:55.316,0.195,-0.225
2021-08-19 12:08:55.320,0.17,-0.22
2021-08-19 12:08:55.324,0.125,-0.205
2021-08-19 12:08:55.328,0.145,-0.125
2021-08-19 12:08:55.332,0.17,-0.08
2021-08-19 12:08:55.336,0.155,-0.045
2021-08-19 12:08:55.340,0.13,-0.04
2021-08-19 12:08:55.344,0.12,-0.145
2021-08-19 12:08:55.348,0.15,-0.25
2021-08-19 12:08:55.352,0.22,-0.22
2021-08-19 12:08:55.356,0.2,-0.175
2021-08-19 12:08:55.360,0.155,-0.28
2021-08-19 12:08:55.364,0.18,-0.28
2021-08-19 12:08:55.368,0.18,-0.15
2021-08-19 12:08:55.372,0.21,-0.08
2021-08-19 12:08:55.376,0.285,-0.055
2021-08-19 12:08:55.380,0.365,-0.105
2021-08-19 12:08:55.384,0.34,-0.11
2021-08-19 12:08:55.388,0.195,-0.08
2021-08-19 12:08:55.392,-0.01,-0.03
2021-08-19 12:08:55.396,-0.38,-0.02
2021-08-19 12:08:55.400,-0.96,-0.17
2021-08-19 12:08:55.404,-1.5,-0.435
2021-08-19 12:08:55.408,-1.95,-0.765
2021-08-19 12:08:55.488,-0.175,-1.98
2021-08-19 12:08:55.492,-0.14,-1.745
2021-08-19 12:08:55.496,-0.07,-1.51
2021-08-19 12:08:55.500,0.03,-1.19
2021-08-19 12:08:55.504,0.155,-0.9
2021-08-19 12:08:55.508,0.32,-0.74
2021-08-19 12:08:55.512,0.415,-0.705
2021-08-19 12:08:55.516,0.435,-0.555
2021-08-19 12:08:55.520,0.475,-0.345
2021-08-19 12:08:55.524,0.535,-0.145
2021-08-19 12:08:55.528,0.545,0.0
2021-08-19 12:08:55.532,0.545,0.11
2021-08-19 12:08:55.536,0.55,0.205
2021-08-19 12:08:55.540,0.535,0.34
2021-08-19 12:08:55.544,0.56,0.47
2021-08-19 12:08:55.548,0.545,0.515
2021-08-19 12:08:55.552,0.575,0.51
2021-08-19 12:08:55.556,0.585,0.46
2021-08-19 12:08:55.560,0.565,0.495
2021-08-19 12:08:55.564,0.545,0.58
2021-08-19 12:08:55.568,0.585,0.6
2021-08-19 12:08:55.572,0.59,0.61
2021-08-19 12:08:55.576,0.6,0.56
2021-08-19 12:08:55.580,0.635,0.58
2021-08-19 12:08:55.584,0.605,0.7
2021-08-19 12:08:55.588,0.64,0.7
2021-08-19 12:08:55.592,0.635,0.74
2021-08-19 12:08:55.596,0.65,0.77
2021-08-19 12:08:55.600,0.64,0.85
2021-08-19 12:08:55.604,0.64,0.91
2021-08-19 12:08:55.608,0.675,0.885
2021-08-19 12:08:55.612,0.7,0.895
2021-08-19 12:08:55.616,0.7,0.93
2021-08-19 12:08:55.620,0.685,0.985
2021-08-19 12:08:55.624,0.645,1.01
2021-08-19 12:08:55.628,0.59,1.055
2021-08-19 12:08:55.632,0.64,1.095
2021-08-19 12:08:55.636,0.65,1.14
2021-08-19 12:08:55.640,0.615,1.14
2021-08-19 12:08:55.644,0.61,1.075
2021-08-19 12:08:55.648,0.6,1.125
2021-08-19 12:08:55.652,0.56,1.18
2021-08-19 12:08:55.656,0.61,1.165
2021-08-19 12:08:55.660,0.665,1.195
2021-08-19 12:08:55.664,0.605,1.19
2021-08-19 12:08:55.668,0.57,1.175
2021-08-19 12:08:55.672,0.555,1.25
2021-08-19 12:08:55.676,0.56,1.32
2021-08-19 12:08:55.680,0.605,1.285
2021-08-19 12:08:55.684,0.575,1.21
2021-08-19 12:08:55.688,0.505,1.22
2021-08-19 12:08:55.692,0.47,1.24
2021-08-19 12:08:55.696,0.425,1.18
2021-08-19 12:08:55.700,0.355,1.105
2021-08-19 12:08:55.704,0.335,1.09
2021-08-19 12:08:55.708,0.31,1.08
2021-08-19 12:08:55.712,0.28,1.055
2021-08-19 12:08:55.716,0.25,0.89
2021-08-19 12:08:55.720,0.235,0.79
2021-08-19 12:08:55.724,0.165,0.745
2021-08-19 12:08:55.728,0.13,0.735
2021-08-19 12:08:55.732,0.075,0.66
2021-08-19 12:08:55.736,0.02,0.55
2021-08-19 12:08:55.740,0.02,0.46
2021-08-19 12:08:55.744,-0.02,0.395
2021-08-19 12:08:55.748,-0.05,0.335
2021-08-19 12:08:55.752,-0.04,0.295
2021-08-19 12:08:55.756,-0.065,0.255
2021-08-19 12:08:55.760,-0.11,0.25
2021-08-19 12:08:55.764,-0.18,0.14
2021-08-19 12:08:55.768,-0.14,0.11
2021-08-19 12:08:55.772,-0.125,0.135
2021-08-19 12:08:55.776,-0.09,0.12
2021-08-19 12:08:55.780,-0.095,0.005
2021-08-19 12:08:55.784,-0.12,-0.04
2021-08-19 12:08:55.788,-0.155,-0.02
2021-08-19 12:08:55.792,-0.15,0.055
2021-08-19 12:08:55.796,-0.155,0.045
2021-08-19 12:08:55.800,-0.215,0.02
2021-08-19 12:08:55.804,-0.24,0.02
2021-08-19 12:08:55.808,-0.22,0.01
2021-08-19 12:08:55.812,-0.2,0.01
2021-08-19 12:08:55.816,-0.18,-0.02
2021-08-19 12:08:55.820,-0.16,-0.025
2021-08-19 12:08:55.824,-0.15,0.01
2021-08-19 12:08:55.828,-0.2,0.055
2021-08-19 12:08:55.832,-0.175,0.1
2021-08-19 12:08:55.836,-0.195,0.14
2021-08-19 12:08:55.840,-0.215,0.14
2021-08-19 12:08:55.844,-0.24,0.115
2021-08-19 12:08:55.848,-0.23,0.095
2021-08-19 12:08:55.852,-0.22,0.12
2021-08-19 12:08:55.856,-0.225,0.15
2021-08-19 12:08:55.860,-0.195,0.195
2021-08-19 12:08:55.864,-0.145,0.175
2021-08-19 12:08:55.868,-0.165,0.125
2021-08-19 12:08:55.872,-0.175,0.18
2021-08-19 12:08:55.876,-0.2,0.215
2021-08-19 12:08:55.880,-0.2,0.3
2021-08-19 12:08:55.884,-0.19,0.295
2021-08-19 12:08:55.888,-0.17,0.28
2021-08-19 12:08:55.892,-0.16,0.27
2021-08-19 12:08:55.896,-0.145,0.285
2021-08-19 12:08:55.900,-0.13,0.315
2021-08-19 12:08:55.904,-0.1,0.31
2021-08-19 12:08:55.908,-0.11,0.32
2021-08-19 12:08:55.912,-0.11,0.34
2021-08-19 12:08:55.916,-0.17,0.335
2021-08-19 12:08:55.920,-0.185,0.305
2021-08-19 12:08:55.924,-0.19,0.33
2021-08-19 12:08:55.928,-0.195,0.29
2021-08-19 12:08:55.932,-0.185,0.25
2021-08-19 12:08:55.936,-0.18,0.205
2021-08-19 12:08:55.940,-0.2,0.17
2021-08-19 12:08:55.944,-0.205,0.21
2021-08-19 12:08:55.948,-0.19,0.235
2021-08-19 12:08:55.952,-0.225,0.2
2021-08-19 12:08:55.956,-0.22,0.13
2021-08-19 12:08:55.960,-0.215,0.12
2021-08-19 12:08:55.964,-0.225,0.16
2021-08-19 12:08:55.968,-0.24,0.18
2021-08-19 12:08:55.972,-0.275,0.19
2021-08-19 12:08:55.976,-0.26,0.19
2021-08-19 12:08:55.980,-0.2,0.145
2021-08-19 12:08:55.984,-0.21,0.105
2021-08-19 12:08:55.988,-0.215,0.13
2021-08-19 12:08:55.992,-0.255,0.13
2021-08-19 12:08:55.996,-0.22,0.135
2021-08-19 12:08:56.000,-0.185,0.17
2021-08-19 12:08:56.004,-0.22,0.12
2021-08-19 12:08:56.008,-0.26,0.09
2021-08-19 12:08:56.012,-0.255,0.135
2021-08-19 12:08:56.016,-0.265,0.135
2021-08-19 12:08:56.020,-0.255,0.11
2021-08-19 12:08:56.024,-0.26,0.13
2021-08-19 12:08:56.028,-0.27,0.15
2021-08-19 12:08:56.032,-0.225,0.09
2021-08-19 12:08:56.036,-0.15,0.125
2021-08-19 12:08:56.040,-0.015,0.11
2021-08-19 12:08:56.044,0.035,0.155
2021-08-19 12:08:56.048,-0.115,0.225
2021-08-19 12:08:56.052,-0.375,0.245
2021-08-19 12:08:56.056,-0.785,0.28
2021-08-19 12:08:56.060,-1.385,0.19
2021-08-19 12:08:56.064,-1.94,-0.105
2021-08-19 12:08:56.144,-0.485,-1.74
2021-08-19 12:08:56.148,-0.495,-1.425
2021-08-19 12:08:56.152,-0.49,-1.125
2021-08-19 12:08:56.156,-0.39,-0.805
2021-08-19 12:08:56.160,-0.25,-0.61
2021-08-19 12:08:56.164,-0.105,-0.47
2021-08-19 12:08:56.168,0.01,-0.36
2021-08-19 12:08:56.172,0.1,-0.185
2021-08-19 12:08:56.176,0.17,-0.005
2021-08-19 12:08:56.180,0.22,0.11
2021-08-19 12:08:56.184,0.26,0.225
2021-08-19 12:08:56.188,0.31,0.395
2021-08-19 12:08:56.192,0.315,0.515
2021-08-19 12:08:56.196,0.295,0.585
2021-08-19 12:08:56.200,0.275,0.7
2021-08-19 12:08:56.204,0.305,0.74
2021-08-19 12:08:56.208,0.33,0.76
2021-08-19 12:08:56.212,0.3,0.735
2021-08-19 12:08:56.216,0.325,0.735
2021-08-19 12:08:56.220,0.36,0.79
2021-08-19 12:08:56.224,0.36,0.77
2021-08-19 12:08:56.228,0.355,0.755
2021-08-19 12:08:56.232,0.34,0.82
2021-08-19 12:08:56.236,0.345,0.86
2021-08-19 12:08:56.240,0.375,0.865
2021-08-19 12:08:56.244,0.35,0.86
2021-08-19 12:08:56.248,0.375,0.88
2021-08-19 12:08:56.252,0.425,0.945
2021-08-19 12:08:56.256,0.445,0.975
2021-08-19 12:08:56.260,0.44,1.0
2021-08-19 12:08:56.264,0.41,0.985
2021-08-19 12:08:56.268,0.415,1.075
2021-08-19 12:08:56.272,0.47,1.17
2021-08-19 12:08:56.276,0.5,1.18
2021-08-19 12:08:56.280,0.51,1.16
2021-08-19 12:08:56.284,0.47,1.16
2021-08-19 12:08:56.288,0.425,1.18
2021-08-19 12:08:56.292,0.455,1.24
2021-08-19 12:08:56.296,0.49,1.295
2021-08-19 12:08:56.300,0.54,1.34
2021-08-19 12:08:56.304,0.575,1.34
2021-08-19 12:08:56.308,0.56,1.305
2021-08-19 12:08:56.312,0.495,1.315
2021-08-19 12:08:56.316,0.5,1.38
2021-08-19 12:08:56.320,0.485,1.44
2021-08-19 12:08:56.324,0.455,1.445
2021-08-19 12:08:56.328,0.43,1.435
2021-08-19 12:08:56.332,0.395,1.415
2021-08-19 12:08:56.336,0.385,1.415
2021-08-19 12:08:56.340,0.365,1.44
2021-08-19 12:08:56.344,0.355,1.445
2021-08-19 12:08:56.348,0.315,1.375
2021-08-19 12:08:56.352,0.3,1.335
2021-08-19 12:08:56.356,0.265,1.325
2021-08-19 12:08:56.360,0.24,1.26
2021-08-19 12:08:56.364,0.2,1.22
2021-08-19 12:08:56.368,0.145,1.2
2021-08-19 12:08:56.372,0.07,1.155
2021-08-19 12:08:56.376,0.02,1.115
2021-08-19 12:08:56.380,0.0,1.055
2021-08-19 12:08:56.384,-0.025,0.965
2021-08-19 12:08:56.388,-0.03,0.88
2021-08-19 12:08:56.392,-0.015,0.78
2021-08-19 12:08:56.396,0.04,0.71
2021-08-19 12:08:56.400,0.005,0.68
2021-08-19 12:08:56.404,-0.11,0.645
2021-08-19 12:08:56.408,-0.29,0.605
2021-08-19 12:08:56.412,-0.41,0.485
2021-08-19 12:08:56.416,-0.415,0.35
2021-08-19 12:08:56.420,-0.28,0.345
2021-08-19 12:08:56.424,-0.24,0.385
2021-08-19 12:08:56.428,-0.405,0.37
2021-08-19 12:08:56.432,-0.565,0.34
2021-08-19 12:08:56.436,-0.58,0.255
2021-08-19 12:08:56.440,-0.395,0.22
2021-08-19 12:08:56.444,-0.225,0.25
2021-08-19 12:08:56.448,-0.14,0.285
2021-08-19 12:08:56.452,-0.175,0.27
2021-08-19 12:08:56.456,-0.285,0.26
2021-08-19 12:08:56.460,-0.25,0.22
2021-08-19 12:08:56.464,-0.11,0.225
2021-08-19 12:08:56.468,-0.07,0.25
2021-08-19 12:08:56.472,-0.275,0.215
2021-08-19 12:08:56.476,-0.71,0.215
2021-08-19 12:08:56.480,-1.295,0.265
2021-08-19 12:08:56.484,-1.96,0.185
2021-08-19 12:08:56.560,-0.58,-1.665
2021-08-19 12:08:56.564,-0.47,-1.38
2021-08-19 12:08:56.568,-0.47,-1.095
2021-08-19 12:08:56.572,-0.565,-0.735
2021-08-19 12:08:56.576,-0.545,-0.455
2021-08-19 12:08:56.580,-0.545,-0.265
2021-08-19 12:08:56.584,-0.565,-0.07
2021-08-19 12:08:56.588,-0.565,0.11
2021-08-19 12:08:56.592,-0.49,0.26
2021-08-19 12:08:56.596,-0.42,0.42
2021-08-19 12:08:56.600,-0.36,0.5
2021-08-19 12:08:56.604,-0.335,0.59
2021-08-19 12:08:56.608,-0.33,0.69
2021-08-19 12:08:56.612,-0.285,0.73
2021-08-19 12:08:56.616,-0.225,0.78
2021-08-19 12:08:56.620,-0.18,0.795
2021-08-19 12:08:56.624,-0.21,0.78
2021-08-19 12:08:56.628,-0.245,0.77
2021-08-19 12:08:56.632,-0.21,0.755
2021-08-19 12:08:56.636,-0.195,0.815
2021-08-19 12:08:56.640,-0.19,0.825
2021-08-19 12:08:56.644,-0.16,0.87
2021-08-19 12:08:56.648,-0.105,0.91
2021-08-19 12:08:56.652,-0.08,0.885
2021-08-19 12:08:56.656,-0.04,0.85
2021-08-19 12:08:56.660,0.035,0.845
2021-08-19 12:08:56.664,0.055,0.9
2021-08-19 12:08:56.668,-0.06,0.915
2021-08-19 12:08:56.672,-0.21,0.94
2021-08-19 12:08:56.676,-0.295,0.97
2021-08-19 12:08:56.680,-0.225,0.995
2021-08-19 12:08:56.684,-0.07,0.995
2021-08-19 12:08:56.688,0.005,0.995
2021-08-19 12:08:56.692,-0.08,0.995
2021-08-19 12:08:56.696,-0.23,1.025
2021-08-19 12:08:56.700,-0.275,1.055
2021-08-19 12:08:56.704,-0.255,1.085
2021-08-19 12:08:56.708,-0.17,1.105
2021-08-19 12:08:56.712,-0.125,1.115
2021-08-19 12:08:56.716,-0.12,1.13
2021-08-19 12:08:56.720,-0.135,1.115
2021-08-19 12:08:56.724,-0.15,1.115
2021-08-19 12:08:56.728,-0.13,1.125
2021-08-19 12:08:56.732,-0.12,1.15
2021-08-19 12:08:56.736,-0.135,1.145
2021-08-19 12:08:56.740,-0.145,1.135
2021-08-19 12:08:56.744,-0.19,1.155
2021-08-19 12:08:56.748,-0.22,1.125
2021-08-19 12:08:56.752,-0.265,1.11
2021-08-19 12:08:56.756,-0.265,1.11
2021-08-19 12:08:56.760,-0.285,1.075
2021-08-19 12:08:56.764,-0.285,1.05
2021-08-19 12:08:56.768,-0.305,1.005
2021-08-19 12:08:56.772,-0.315,0.965
2021-08-19 12:08:56.776,-0.35,0.94
2021-08-19 12:08:56.780,-0.37,0.885
2021-08-19 12:08:56.784,-0.405,0.86
2021-08-19 12:08:56.788,-0.43,0.82
2021-08-19 12:08:56.792,-0.465,0.775
2021-08-19 12:08:56.796,-0.545,0.735
2021-08-19 12:08:56.800,-0.56,0.665
2021-08-19 12:08:56.804,-0.565,0.62
2021-08-19 12:08:56.808,-0.59,0.57
2021-08-19 12:08:56.812,-0.57,0.49
2021-08-19 12:08:56.816,-0.57,0.44
2021-08-19 12:08:56.820,-0.55,0.41
2021-08-19 12:08:56.824,-0.565,0.4
2021-08-19 12:08:56.828,-0.6,0.37
2021-08-19 12:08:56.832,-0.565,0.365
2021-08-19 12:08:56.836,-0.545,0.33
2021-08-19 12:08:56.840,-0.545,0.33
2021-08-19 12:08:56.844,-0.545,0.255
2021-08-19 12:08:56.848,-0.505,0.25
2021-08-19 12:08:56.852,-0.515,0.25
2021-08-19 12:08:56.856,-0.5,0.265
2021-08-19 12:08:56.860,-0.485,0.24
2021-08-19 12:08:56.864,-0.475,0.23
2021-08-19 12:08:56.868,-0.495,0.25
2021-08-19 12:08:56.872,-0.475,0.26
2021-08-19 12:08:56.876,-0.45,0.27
2021-08-19 12:08:56.880,-0.455,0.235
2021-08-19 12:08:56.884,-0.455,0.19
2021-08-19 12:08:56.888,-0.445,0.175
2021-08-19 12:08:56.892,-0.465,0.22
2021-08-19 12:08:56.896,-0.51,0.23
2021-08-19 12:08:56.900,-0.51,0.205
2021-08-19 12:08:56.904,-0.48,0.215
2021-08-19 12:08:56.908,-0.52,0.23
2021-08-19 12:08:56.912,-0.545,0.225
2021-08-19 12:08:56.916,-0.5,0.22
2021-08-19 12:08:56.920,-0.47,0.195
2021-08-19 12:08:56.924,-0.495,0.19
2021-08-19 12:08:56.928,-0.5,0.175
2021-08-19 12:08:56.932,-0.505,0.21
2021-08-19 12:08:56.936,-0.5,0.245
2021-08-19 12:08:56.940,-0.48,0.25
2021-08-19 12:08:56.944,-0.47,0.225
2021-08-19 12:08:56.948,-0.48,0.2
2021-08-19 12:08:56.952,-0.515,0.175
2021-08-19 12:08:56.956,-0.53,0.2
2021-08-19 12:08:56.960,-0.49,0.22
2021-08-19 12:08:56.964,-0.36,0.225
2021-08-19 12:08:56.968,-0.265,0.2
2021-08-19 12:08:56.972,-0.305,0.2
2021-08-19 12:08:56.976,-0.525,0.235
2021-08-19 12:08:56.980,-0.81,0.35
2021-08-19 12:08:56.984,-1.17,0.405
2021-08-19 12:08:56.988,-1.74,0.225
2021-08-19 12:08:57.080,-0.795,-1.735
2021-08-19 12:08:57.084,-0.775,-1.375
2021-08-19 12:08:57.088,-0.685,-1.06
2021-08-19 12:08:57.092,-0.515,-0.755
2021-08-19 12:08:57.096,-0.35,-0.5
2021-08-19 12:08:57.100,-0.255,-0.3
2021-08-19 12:08:57.104,-0.25,-0.16
2021-08-19 12:08:57.108,-0.23,0.06
2021-08-19 12:08:57.112,-0.21,0.305
2021-08-19 12:08:57.116,-0.2,0.475
2021-08-19 12:08:57.120,-0.19,0.645
2021-08-19 12:08:57.124,-0.185,0.785
2021-08-19 12:08:57.128,-0.155,0.87
2021-08-19 12:08:57.132,-0.125,0.88
2021-08-19 12:08:57.136,-0.095,0.88
2021-08-19 12:08:57.140,-0.05,0.93
2021-08-19 12:08:57.144,-0.02,0.985
2021-08-19 12:08:57.148,-0.06,1.035
2021-08-19 12:08:57.152,-0.075,1.055
2021-08-19 12:08:57.156,-0.065,1.075
2021-08-19 12:08:57.160,-0.035,1.09
2021-08-19 12:08:57.164,0.01,1.1
2021-08-19 12:08:57.168,0.03,1.105
2021-08-19 12:08:57.172,0.055,1.115
2021-08-19 12:08:57.176,0.11,1.155
2021-08-19 12:08:57.180,0.125,1.2
2021-08-19 12:08:57.184,0.125,1.235
2021-08-19 12:08:57.188,0.135,1.29
2021-08-19 12:08:57.192,0.19,1.34
2021-08-19 12:08:57.196,0.23,1.365
2021-08-19 12:08:57.200,0.22,1.36
2021-08-19 12:08:57.204,0.2,1.405
2021-08-19 12:08:57.208,0.215,1.465
2021-08-19 12:08:57.212,0.285,1.505
2021-08-19 12:08:57.216,0.35,1.53
2021-08-19 12:08:57.220,0.42,1.56
2021-08-19 12:08:57.224,0.435,1.585
2021-08-19 12:08:57.228,0.44,1.645
2021-08-19 12:08:57.232,0.4,1.695
2021-08-19 12:08:57.236,0.355,1.745
2021-08-19 12:08:57.240,0.37,1.745
2021-08-19 12:08:57.244,0.33,1.78
2021-08-19 12:08:57.248,0.305,1.785
2021-08-19 12:08:57.252,0.3,1.8
2021-08-19 12:08:57.256,0.27,1.75
2021-08-19 12:08:57.260,0.275,1.7
2021-08-19 12:08:57.264,0.225,1.7
2021-08-19 12:08:57.268,0.17,1.645
2021-08-19 12:08:57.272,0.15,1.625
2021-08-19 12:08:57.276,0.11,1.59
2021-08-19 12:08:57.280,0.07,1.545
2021-08-19 12:08:57.284,0.055,1.475
2021-08-19 12:08:57.288,0.015,1.425
2021-08-19 12:08:57.292,-0.04,1.335
2021-08-19 12:08:57.296,-0.065,1.255
2021-08-19 12:08:57.300,-0.07,1.205
2021-08-19 12:08:57.304,-0.115,1.125
2021-08-19 12:08:57.308,-0.14,1.035
2021-08-19 12:08:57.312,-0.125,0.985
2021-08-19 12:08:57.316,-0.14,0.93
2021-08-19 12:08:57.320,-0.215,0.87
2021-08-19 12:08:57.324,-0.24,0.8
2021-08-19 12:08:57.328,-0.29,0.735
2021-08-19 12:08:57.332,-0.315,0.69
2021-08-19 12:08:57.336,-0.335,0.635
2021-08-19 12:08:57.340,-0.365,0.575
2021-08-19 12:08:57.344,-0.345,0.495
2021-08-19 12:08:57.348,-0.375,0.455
2021-08-19 12:08:57.352,-0.465,0.43
2021-08-19 12:08:57.356,-0.495,0.44
2021-08-19 12:08:57.360,-0.485,0.425
2021-08-19 12:08:57.364,-0.49,0.415
2021-08-19 12:08:57.368,-0.495,0.39
2021-08-19 12:08:57.372,-0.445,0.345
2021-08-19 12:08:57.376,-0.455,0.335
2021-08-19 12:08:57.380,-0.48,0.305
2021-08-19 12:08:57.384,-0.49,0.3
2021-08-19 12:08:57.388,-0.475,0.32
2021-08-19 12:08:57.392,-0.465,0.335
2021-08-19 12:08:57.396,-0.45,0.345
2021-08-19 12:08:57.400,-0.47,0.375
2021-08-19 12:08:57.404,-0.47,0.355
2021-08-19 12:08:57.408,-0.465,0.36
2021-08-19 12:08:57.412,-0.5,0.36
2021-08-19 12:08:57.416,-0.465,0.37
2021-08-19 12:08:57.420,-0.415,0.385
2021-08-19 12:08:57.424,-0.415,0.42
2021-08-19 12:08:57.428,-0.385,0.415
2021-08-19 12:08:57.432,-0.4,0.395
2021-08-19 12:08:57.436,-0.4,0.41
2021-08-19 12:08:57.440,-0.47,0.44
2021-08-19 12:08:57.444,-0.44,0.455
2021-08-19 12:08:57.448,-0.35,0.44
2021-08-19 12:08:57.452,-0.27,0.435
2021-08-19 12:08:57.456,-0.25,0.415
2021-08-19 12:08:57.460,-0.4,0.425
2021-08-19 12:08:57.464,-0.705,0.46
2021-08-19 12:08:57.468,-1.08,0.49
2021-08-19 12:08:57.472,-1.6,0.35
2021-08-19 12:08:57.564,-0.99,-1.86
2021-08-19 12:08:57.568,-0.85,-1.465
2021-08-19 12:08:57.572,-0.69,-1.1
2021-08-19 12:08:57.576,-0.545,-0.83
2021-08-19 12:08:57.580,-0.4,-0.585
2021-08-19 12:08:57.584,-0.34,-0.4
2021-08-19 12:08:57.588,-0.3,-0.265
2021-08-19 12:08:57.592,-0.25,-0.07
2021-08-19 12:08:57.596,-0.21,0.145
2021-08-19 12:08:57.600,-0.16,0.335
2021-08-19 12:08:57.604,-0.17,0.52
2021-08-19 12:08:57.608,-0.175,0.65
2021-08-19 12:08:57.612,-0.165,0.78
2021-08-19 12:08:57.616,-0.14,0.86
2021-08-19 12:08:57.620,-0.175,0.885
2021-08-19 12:08:57.624,-0.145,0.88
2021-08-19 12:08:57.628,-0.1,0.905
2021-08-19 12:08:57.632,-0.095,0.955
2021-08-19 12:08:57.636,-0.045,0.93
2021-08-19 12:08:57.640,-0.015,0.95
2021-08-19 12:08:57.644,0.01,0.99
2021-08-19 12:08:57.648,0.015,1.055
2021-08-19 12:08:57.652,0.045,1.07
2021-08-19 12:08:57.656,0.02,1.1
2021-08-19 12:08:57.660,0.025,1.115
2021-08-19 12:08:57.664,0.045,1.12
2021-08-19 12:08:57.668,0.07,1.205
2021-08-19 12:08:57.672,0.12,1.295
2021-08-19 12:08:57.676,0.04,1.335
2021-08-19 12:08:57.680,0.045,1.285
2021-08-19 12:08:57.684,0.095,1.225
2021-08-19 12:08:57.688,0.135,1.24
2021-08-19 12:08:57.692,0.145,1.285
2021-08-19 12:08:57.696,0.11,1.31
2021-08-19 12:08:57.700,0.15,1.315
2021-08-19 12:08:57.704,0.22,1.35
2021-08-19 12:08:57.708,0.265,1.45
2021-08-19 12:08:57.712,0.26,1.435
2021-08-19 12:08:57.716,0.24,1.375
2021-08-19 12:08:57.720,0.26,1.305
2021-08-19 12:08:57.724,0.28,1.285
2021-08-19 12:08:57.728,0.275,1.33
2021-08-19 12:08:57.732,0.24,1.38
2021-08-19 12:08:57.736,0.235,1.41
2021-08-19 12:08:57.740,0.2,1.36
2021-08-19 12:08:57.744,0.18,1.315
2021-08-19 12:08:57.748,0.17,1.265
2021-08-19 12:08:57.752,0.145,1.235
2021-08-19 12:08:57.756,0.135,1.22
2021-08-19 12:08:57.760,0.14,1.185
2021-08-19 12:08:57.764,0.065,1.135
2021-08-19 12:08:57.768,0.01,1.08
2021-08-19 12:08:57.772,-0.01,1.065
2021-08-19 12:08:57.776,-0.05,1.03
2021-08-19 12:08:57.780,-0.105,0.98
2021-08-19 12:08:57.784,-0.195,0.905
2021-08-19 12:08:57.788,-0.23,0.725
2021-08-19 12:08:57.792,-0.28,0.6
2021-08-19 12:08:57.796,-0.315,0.58
2021-08-19 12:08:57.800,-0.305,0.58
2021-08-19 12:08:57.804,-0.305,0.595
2021-08-19 12:08:57.808,-0.35,0.48
2021-08-19 12:08:57.812,-0.415,0.295
2021-08-19 12:08:57.816,-0.515,0.26
2021-08-19 12:08:57.820,-0.5,0.31
2021-08-19 12:08:57.824,-0.41,0.3
2021-08-19 12:08:57.828,-0.375,0.265
2021-08-19 12:08:57.832,-0.365,0.34
2021-08-19 12:08:57.836,-0.375,0.375
2021-08-19 12:08:57.840,-0.39,0.295
2021-08-19 12:08:57.844,-0.405,0.18
2021-08-19 12:08:57.848,-0.445,0.065
2021-08-19 12:08:57.852,-0.505,0.09
2021-08-19 12:08:57.856,-0.575,0.155
2021-08-19 12:08:57.860,-0.595,0.235
2021-08-19 12:08:57.864,-0.515,0.235
2021-08-19 12:08:57.868,-0.345,0.225
2021-08-19 12:08:57.872,-0.34,0.415
2021-08-19 12:08:57.876,-0.38,0.47
2021-08-19 12:08:57.880,-0.465,0.125
2021-08-19 12:08:57.884,-0.525,-0.09
2021-08-19 12:08:57.888,-0.555,0.055
2021-08-19 12:08:57.892,-0.535,0.21
2021-08-19 12:08:57.896,-0.525,0.265
2021-08-19 12:08:57.900,-0.55,0.245
2021-08-19 12:08:57.904,-0.54,0.085
2021-08-19 12:08:57.908,-0.53,0.0
2021-08-19 12:08:57.912,-0.53,0.02
2021-08-19 12:08:57.916,-0.555,0.025
2021-08-19 12:08:57.920,-0.565,0.04
2021-08-19 12:08:57.924,-0.53,0.02
2021-08-19 12:08:57.928,-0.435,0.055
2021-08-19 12:08:57.932,-0.41,0.155
2021-08-19 12:08:57.936,-0.455,0.155
2021-08-19 12:08:57.940,-0.49,0.02
2021-08-19 12:08:57.944,-0.42,-0.065
2021-08-19 12:08:57.948,-0.385,-0.025
2021-08-19 12:08:57.952,-0.42,-0.06
2021-08-19 12:08:57.956,-0.455,-0.105
2021-08-19 12:08:57.960,-0.385,-0.08
2021-08-19 12:08:57.964,-0.335,0.205
2021-08-19 12:08:57.968,-0.3,0.41
2021-08-19 12:08:57.972,-0.315,0.25
2021-08-19 12:08:57.976,-0.32,-0.095
2021-08-19 12:08:57.980,-0.35,-0.215
2021-08-19 12:08:57.984,-0.355,-0.145
2021-08-19 12:08:57.988,-0.37,-0.06
2021-08-19 12:08:57.992,-0.395,-0.06
2021-08-19 12:08:57.996,-0.42,-0.01
2021-08-19 12:08:58.000,-0.445,0.035
2021-08-19 12:08:58.004,-0.495,0.01
2021-08-19 12:08:58.008,-0.48,-0.035
2021-08-19 12:08:58.012,-0.43,-0.04
2021-08-19 12:08:58.016,-0.41,0.02
2021-08-19 12:08:58.020,-0.44,0.0
2021-08-19 12:08:58.024,-0.48,-0.065
2021-08-19 12:08:58.028,-0.415,-0.035
2021-08-19 12:08:58.032,-0.375,0.05
2021-08-19 12:08:58.036,-0.42,0.18
2021-08-19 12:08:58.040,-0.46,0.185
2021-08-19 12:08:58.044,-0.5,-0.02
2021-08-19 12:08:58.048,-0.575,-0.12
2021-08-19 12:08:58.052,-0.585,0.025
2021-08-19 12:08:58.056,-0.47,0.02
2021-08-19 12:08:58.060,-0.3,-0.11
2021-08-19 12:08:58.064,-0.3,0.01
2021-08-19 12:08:58.068,-0.34,-0.02
2021-08-19 12:08:58.072,-0.39,-0.135
2021-08-19 12:08:58.076,-0.37,0.08
2021-08-19 12:08:58.080,-0.35,0.16
2021-08-19 12:08:58.084,-0.4,0.095
2021-08-19 12:08:58.088,-0.44,0.0
2021-08-19 12:08:58.092,-0.44,-0.135
2021-08-19 12:08:58.096,-0.475,-0.065
2021-08-19 12:08:58.100,-0.435,0.045
2021-08-19 12:08:58.104,-0.375,0.045
2021-08-19 12:08:58.108,-0.355,0.015
2021-08-19 12:08:58.112,-0.41,-0.035
2021-08-19 12:08:58.116,-0.445,-0.07
2021-08-19 12:08:58.120,-0.415,-0.025
2021-08-19 12:08:58.124,-0.4,0.065
2021-08-19 12:08:58.128,-0.38,0.115
2021-08-19 12:08:58.132,-0.355,0.085
2021-08-19 12:08:58.136,-0.345,0.0
2021-08-19 12:08:58.140,-0.275,-0.1
2021-08-19 12:08:58.144,-0.235,-0.115
2021-08-19 12:08:58.148,-0.29,0.04
2021-08-19 12:08:58.152,-0.38,0.07
2021-08-19 12:08:58.156,-0.445,0.005
2021-08-19 12:08:58.160,-0.43,-0.02
2021-08-19 12:08:58.164,-0.4,0.005
2021-08-19 12:08:58.168,-0.365,0.025
2021-08-19 12:08:58.172,-0.32,0.07
2021-08-19 12:08:58.176,-0.395,0.02
2021-08-19 12:08:58.180,-0.505,-0.035
2021-08-19 12:08:58.184,-0.52,-0.13
2021-08-19 12:08:58.188,-0.495,-0.165
2021-08-19 12:08:58.192,-0.49,-0.125
2021-08-19 12:08:58.196,-0.475,-0.035
2021-08-19 12:08:58.200,-0.39,-0.035
2021-08-19 12:08:58.204,-0.38,-0.055
2021-08-19 12:08:58.208,-0.435,-0.14
2021-08-19 12:08:58.212,-0.48,-0.275
2021-08-19 12:08:58.216,-0.57,-0.33
2021-08-19 12:08:58.220,-0.605,-0.245
2021-08-19 12:08:58.224,-0.495,-0.155
2021-08-19 12:08:58.228,-0.3,-0.11
2021-08-19 12:08:58.232,-0.21,-0.06
2021-08-19 12:08:58.236,-0.245,-0.06
2021-08-19 12:08:58.240,-0.465,-0.13
2021-08-19 12:08:58.244,-0.78,-0.04
2021-08-19 12:08:58.248,-1.27,0.105
2021-08-19 12:08:58.252,-1.89,0.08
2021-08-19 12:08:58.348,-0.84,-1.72
2021-08-19 12:08:58.352,-0.595,-1.37
2021-08-19 12:08:58.356,-0.44,-1.225
2021-08-19 12:08:58.360,-0.33,-1.285
2021-08-19 12:08:58.364,-0.23,-1.115
2021-08-19 12:08:58.368,-0.215,-0.805
2021-08-19 12:08:58.372,-0.22,-0.67
2021-08-19 12:08:58.376,-0.145,-0.53
2021-08-19 12:08:58.380,0.0,-0.31
2021-08-19 12:08:58.384,0.06,-0.03
2021-08-19 12:08:58.388,0.065,0.14
2021-08-19 12:08:58.392,0.09,0.075
2021-08-19 12:08:58.396,0.1,0.05
2021-08-19 12:08:58.400,0.09,0.185
2021-08-19 12:08:58.404,0.065,0.28
2021-08-19 12:08:58.408,0.04,0.3
2021-08-19 12:08:58.412,0.075,0.36
2021-08-19 12:08:58.416,0.105,0.345
2021-08-19 12:08:58.420,0.145,0.385
2021-08-19 12:08:58.424,0.14,0.42
2021-08-19 12:08:58.428,0.16,0.545
2021-08-19 12:08:58.432,0.155,0.57
2021-08-19 12:08:58.436,0.14,0.555
2021-08-19 12:08:58.440,0.15,0.505
2021-08-19 12:08:58.444,0.165,0.475
2021-08-19 12:08:58.448,0.195,0.425
2021-08-19 12:08:58.452,0.19,0.5
2021-08-19 12:08:58.456,0.185,0.47
2021-08-19 12:08:58.460,0.185,0.465
2021-08-19 12:08:58.464,0.195,0.6
2021-08-19 12:08:58.468,0.205,0.695
2021-08-19 12:08:58.472,0.185,0.655
2021-08-19 12:08:58.476,0.185,0.65
2021-08-19 12:08:58.480,0.23,0.69
2021-08-19 12:08:58.484,0.205,0.75
2021-08-19 12:08:58.488,0.14,0.73
2021-08-19 12:08:58.492,0.2,0.72
2021-08-19 12:08:58.496,0.245,0.795
2021-08-19 12:08:58.500,0.23,0.875
2021-08-19 12:08:58.504,0.2,0.865
2021-08-19 12:08:58.508,0.195,0.81
2021-08-19 12:08:58.512,0.21,0.82
2021-08-19 12:08:58.516,0.205,0.865
2021-08-19 12:08:58.520,0.19,0.93
2021-08-19 12:08:58.524,0.205,0.94
2021-08-19 12:08:58.528,0.19,0.87
2021-08-19 12:08:58.532,0.2,0.895
2021-08-19 12:08:58.536,0.155,0.935
2021-08-19 12:08:58.540,0.095,0.93
2021-08-19 12:08:58.544,0.075,0.935
2021-08-19 12:08:58.548,0.025,1.0
2021-08-19 12:08:58.552,0.01,1.025
2021-08-19 12:08:58.556,-0.02,0.92
2021-08-19 12:08:58.560,-0.04,0.825
2021-08-19 12:08:58.564,-0.05,0.81
2021-08-19 12:08:58.568,-0.065,0.81
2021-08-19 12:08:58.572,-0.11,0.765
2021-08-19 12:08:58.576,-0.09,0.665
2021-08-19 12:08:58.580,-0.085,0.62
2021-08-19 12:08:58.584,-0.085,0.655
2021-08-19 12:08:58.588,-0.11,0.7
2021-08-19 12:08:58.592,-0.15,0.69
2021-08-19 12:08:58.596,-0.205,0.46
2021-08-19 12:08:58.600,-0.235,0.355
2021-08-19 12:08:58.604,-0.265,0.38
2021-08-19 12:08:58.608,-0.23,0.395
2021-08-19 12:08:58.612,-0.215,0.305
2021-08-19 12:08:58.616,-0.225,0.255
2021-08-19 12:08:58.620,-0.23,0.23
2021-08-19 12:08:58.624,-0.27,0.22
2021-08-19 12:08:58.628,-0.3,0.145
2021-08-19 12:08:58.632,-0.315,0.065
2021-08-19 12:08:58.636,-0.31,0.04
2021-08-19 12:08:58.640,-0.34,0.025
2021-08-19 12:08:58.644,-0.38,0.055
2021-08-19 12:08:58.648,-0.425,0.105
2021-08-19 12:08:58.652,-0.43,0.04
2021-08-19 12:08:58.656,-0.385,-0.08
2021-08-19 12:08:58.660,-0.39,-0.135
2021-08-19 12:08:58.664,-0.405,-0.145
2021-08-19 12:08:58.668,-0.445,-0.115
2021-08-19 12:08:58.672,-0.49,-0.06
2021-08-19 12:08:58.676,-0.505,-0.03
2021-08-19 12:08:58.680,-0.52,-0.005
2021-08-19 12:08:58.684,-0.53,-0.005
2021-08-19 12:08:58.688,-0.53,-0.03
2021-08-19 12:08:58.692,-0.545,-0.025
2021-08-19 12:08:58.696,-0.53,0.0
2021-08-19 12:08:58.700,-0.545,0.015
2021-08-19 12:08:58.704,-0.57,0.055
2021-08-19 12:08:58.708,-0.585,0.075
2021-08-19 12:08:58.712,-0.605,0.09
2021-08-19 12:08:58.716,-0.605,0.105
2021-08-19 12:08:58.720,-0.615,0.1
2021-08-19 12:08:58.724,-0.64,0.09
2021-08-19 12:08:58.728,-0.68,0.1
2021-08-19 12:08:58.732,-0.7,0.135
2021-08-19 12:08:58.736,-0.695,0.13
2021-08-19 12:08:58.740,-0.675,0.07
2021-08-19 12:08:58.744,-0.7,0.06
2021-08-19 12:08:58.748,-0.715,0.105
2021-08-19 12:08:58.752,-0.72,0.11
2021-08-19 12:08:58.756,-0.75,0.1
2021-08-19 12:08:58.760,-0.745,0.12
2021-08-19 12:08:58.764,-0.63,0.185
2021-08-19 12:08:58.768,-0.505,0.22
2021-08-19 12:08:58.772,-0.42,0.165
2021-08-19 12:08:58.776,-0.47,0.095
2021-08-19 12:08:58.780,-0.69,0.085
2021-08-19 12:08:58.784,-1.06,0.06
2021-08-19 12:08:58.788,-1.49,-0.025
2021-08-19 12:08:58.876,-1.18,-1.76
2021-08-19 12:08:58.880,-1.105,-1.42
2021-08-19 12:08:58.884,-1.005,-1.1
2021-08-19 12:08:58.888,-0.9,-0.865
2021-08-19 12:08:58.892,-0.845,-0.635
2021-08-19 12:08:58.896,-0.795,-0.41
2021-08-19 12:08:58.900,-0.755,-0.215
2021-08-19 12:08:58.904,-0.77,-0.04
2021-08-19 12:08:58.908,-0.76,0.105
2021-08-19 12:08:58.912,-0.715,0.285
2021-08-19 12:08:58.916,-0.695,0.4
2021-08-19 12:08:58.920,-0.68,0.47
2021-08-19 12:08:58.924,-0.7,0.55
2021-08-19 12:08:58.928,-0.725,0.63
2021-08-19 12:08:58.932,-0.695,0.665
2021-08-19 12:08:58.936,-0.685,0.7
2021-08-19 12:08:58.940,-0.68,0.715
2021-08-19 12:08:58.944,-0.645,0.71
2021-08-19 12:08:58.948,-0.615,0.73
2021-08-19 12:08:58.952,-0.585,0.76
2021-08-19 12:08:58.956,-0.59,0.805
2021-08-19 12:08:58.960,-0.595,0.825
2021-08-19 12:08:58.964,-0.585,0.785
2021-08-19 12:08:58.968,-0.6,0.83
2021-08-19 12:08:58.972,-0.585,0.88
2021-08-19 12:08:58.976,-0.605,0.915
2021-08-19 12:08:58.980,-0.615,0.965
2021-08-19 12:08:58.984,-0.615,0.995
2021-08-19 12:08:58.988,-0.62,0.99
2021-08-19 12:08:58.992,-0.66,0.97
2021-08-19 12:08:58.996,-0.66,1.015
2021-08-19 12:08:59.000,-0.705,1.04
2021-08-19 12:08:59.004,-0.71,1.04
2021-08-19 12:08:59.008,-0.675,1.08
2021-08-19 12:08:59.012,-0.68,1.08
2021-08-19 12:08:59.016,-0.665,1.065
2021-08-19 12:08:59.020,-0.645,1.075
2021-08-19 12:08:59.024,-0.635,1.105
2021-08-19 12:08:59.028,-0.605,1.115
2021-08-19 12:08:59.032,-0.595,1.14
2021-08-19 12:08:59.036,-0.565,1.165
2021-08-19 12:08:59.040,-0.535,1.155
2021-08-19 12:08:59.044,-0.545,1.17
2021-08-19 12:08:59.048,-0.55,1.185
2021-08-19 12:08:59.052,-0.545,1.19
2021-08-19 12:08:59.056,-0.55,1.22
2021-08-19 12:08:59.060,-0.585,1.21
2021-08-19 12:08:59.064,-0.615,1.175
2021-08-19 12:08:59.068,-0.665,1.165
2021-08-19 12:08:59.072,-0.68,1.16
2021-08-19 12:08:59.076,-0.715,1.13
2021-08-19 12:08:59.080,-0.705,1.09
2021-08-19 12:08:59.084,-0.735,1.05
2021-08-19 12:08:59.088,-0.745,1.0
2021-08-19 12:08:59.092,-0.8,0.96
2021-08-19 12:08:59.096,-0.86,0.93
2021-08-19 12:08:59.100,-0.91,0.9
2021-08-19 12:08:59.104,-0.955,0.87
2021-08-19 12:08:59.108,-1.01,0.81
2021-08-19 12:08:59.112,-1.01,0.72
2021-08-19 12:08:59.116,-0.99,0.67
2021-08-19 12:08:59.120,-1.0,0.605
2021-08-19 12:08:59.124,-1.05,0.56
2021-08-19 12:08:59.128,-1.06,0.57
2021-08-19 12:08:59.132,-1.04,0.52
2021-08-19 12:08:59.136,-1.08,0.47
2021-08-19 12:08:59.140,-1.095,0.445
2021-08-19 12:08:59.144,-1.105,0.44
2021-08-19 12:08:59.148,-1.12,0.425
2021-08-19 12:08:59.152,-1.14,0.4
2021-08-19 12:08:59.156,-1.15,0.405
2021-08-19 12:08:59.160,-1.15,0.41
2021-08-19 12:08:59.164,-1.125,0.34
2021-08-19 12:08:59.168,-1.08,0.38
2021-08-19 12:08:59.172,-1.015,0.365
2021-08-19 12:08:59.176,-1.025,0.375
2021-08-19 12:08:59.180,-1.075,0.36
2021-08-19 12:08:59.184,-1.13,0.345
2021-08-19 12:08:59.188,-1.18,0.355
2021-08-19 12:08:59.192,-1.21,0.35
2021-08-19 12:08:59.196,-1.215,0.37
2021-08-19 12:08:59.200,-1.155,0.39
2021-08-19 12:08:59.204,-1.145,0.37
2021-08-19 12:08:59.208,-1.15,0.355
2021-08-19 12:08:59.212,-1.125,0.355
2021-08-19 12:08:59.216,-1.16,0.355
2021-08-19 12:08:59.220,-1.175,0.39
2021-08-19 12:08:59.224,-1.125,0.385
2021-08-19 12:08:59.228,-1.105,0.375
2021-08-19 12:08:59.232,-1.135,0.38
2021-08-19 12:08:59.236,-1.11,0.34
2021-08-19 12:08:59.240,-1.055,0.325
2021-08-19 12:08:59.244,-0.96,0.32
2021-08-19 12:08:59.248,-0.88,0.325
2021-08-19 12:08:59.252,-0.96,0.285
2021-08-19 12:08:59.256,-1.055,0.295
2021-08-19 12:08:59.260,-0.975,0.285
2021-08-19 12:08:59.264,-0.86,0.29
2021-08-19 12:08:59.268,-0.83,0.275
2021-08-19 12:08:59.272,-0.82,0.27
2021-08-19 12:08:59.276,-0.76,0.27
2021-08-19 12:08:59.280,-0.615,0.28
2021-08-19 12:08:59.284,-0.49,0.335
2021-08-19 12:08:59.288,-0.615,0.36
2021-08-19 12:08:59.292,-1.045,0.42
2021-08-19 12:08:59.296,-1.615,0.4
2021-08-19 12:08:59.388,-1.355,-1.88
2021-08-19 12:08:59.392,-1.27,-1.46
2021-08-19 12:08:59.396,-1.135,-1.065
2021-08-19 12:08:59.400,-1.0,-0.765
2021-08-19 12:08:59.404,-0.86,-0.545
2021-08-19 12:08:59.408,-0.72,-0.335
2021-08-19 12:08:59.412,-0.61,-0.15
2021-08-19 12:08:59.416,-0.51,0.05
2021-08-19 12:08:59.420,-0.455,0.24
2021-08-19 12:08:59.424,-0.425,0.39
2021-08-19 12:08:59.428,-0.38,0.56
2021-08-19 12:08:59.432,-0.36,0.685
2021-08-19 12:08:59.436,-0.4,0.845
2021-08-19 12:08:59.440,-0.395,0.94
2021-08-19 12:08:59.444,-0.385,0.98
2021-08-19 12:08:59.448,-0.4,1.0
2021-08-19 12:08:59.452,-0.385,1.01
2021-08-19 12:08:59.456,-0.375,1.025
2021-08-19 12:08:59.460,-0.37,1.05
2021-08-19 12:08:59.464,-0.32,1.05
2021-08-19 12:08:59.468,-0.25,1.13
2021-08-19 12:08:59.472,-0.21,1.135
2021-08-19 12:08:59.476,-0.175,1.145
2021-08-19 12:08:59.480,-0.165,1.17
2021-08-19 12:08:59.484,-0.14,1.23
2021-08-19 12:08:59.488,-0.1,1.265
2021-08-19 12:08:59.492,0.0,1.27
2021-08-19 12:08:59.496,0.025,1.275
2021-08-19 12:08:59.500,0.01,1.31
2021-08-19 12:08:59.504,-0.02,1.325
2021-08-19 12:08:59.508,-0.02,1.32
2021-08-19 12:08:59.512,0.04,1.365
2021-08-19 12:08:59.516,0.09,1.425
2021-08-19 12:08:59.520,0.1,1.435
2021-08-19 12:08:59.524,0.13,1.46
2021-08-19 12:08:59.528,0.135,1.505
2021-08-19 12:08:59.532,0.145,1.52
2021-08-19 12:08:59.536,0.185,1.535
2021-08-19 12:08:59.540,0.205,1.565
2021-08-19 12:08:59.544,0.23,1.585
2021-08-19 12:08:59.548,0.225,1.59
2021-08-19 12:08:59.552,0.235,1.575
2021-08-19 12:08:59.556,0.225,1.585
2021-08-19 12:08:59.560,0.195,1.61
2021-08-19 12:08:59.564,0.175,1.625
2021-08-19 12:08:59.568,0.155,1.605
2021-08-19 12:08:59.572,0.125,1.595
2021-08-19 12:08:59.576,0.075,1.545
2021-08-19 12:08:59.580,0.05,1.54
2021-08-19 12:08:59.584,0.01,1.485
2021-08-19 12:08:59.588,-0.025,1.465
2021-08-19 12:08:59.592,-0.04,1.43
2021-08-19 12:08:59.596,-0.075,1.38
2021-08-19 12:08:59.600,-0.115,1.33
2021-08-19 12:08:59.604,-0.125,1.265
2021-08-19 12:08:59.608,-0.145,1.215
2021-08-19 12:08:59.612,-0.185,1.185
2021-08-19 12:08:59.616,-0.25,1.115
2021-08-19 12:08:59.620,-0.32,1.025
2021-08-19 12:08:59.624,-0.395,0.94
2021-08-19 12:08:59.628,-0.42,0.895
2021-08-19 12:08:59.632,-0.435,0.83
2021-08-19 12:08:59.636,-0.435,0.77
2021-08-19 12:08:59.640,-0.435,0.715
2021-08-19 12:08:59.644,-0.45,0.675
2021-08-19 12:08:59.648,-0.475,0.63
2021-08-19 12:08:59.652,-0.49,0.635
2021-08-19 12:08:59.656,-0.535,0.6
2021-08-19 12:08:59.660,-0.56,0.555
2021-08-19 12:08:59.664,-0.645,0.485
2021-08-19 12:08:59.668,-0.66,0.44
2021-08-19 12:08:59.672,-0.695,0.445
2021-08-19 12:08:59.676,-0.71,0.41
2021-08-19 12:08:59.680,-0.72,0.37
2021-08-19 12:08:59.684,-0.7,0.365
2021-08-19 12:08:59.688,-0.66,0.36
2021-08-19 12:08:59.692,-0.64,0.32
2021-08-19 12:08:59.696,-0.625,0.32
2021-08-19 12:08:59.700,-0.615,0.33
2021-08-19 12:08:59.704,-0.6,0.315
2021-08-19 12:08:59.708,-0.61,0.29
2021-08-19 12:08:59.712,-0.61,0.295
2021-08-19 12:08:59.716,-0.59,0.325
2021-08-19 12:08:59.720,-0.565,0.335
2021-08-19 12:08:59.724,-0.545,0.32
2021-08-19 12:08:59.728,-0.525,0.33
2021-08-19 12:08:59.732,-0.525,0.295
2021-08-19 12:08:59.736,-0.515,0.29
2021-08-19 12:08:59.740,-0.54,0.315
2021-08-19 12:08:59.744,-0.545,0.37
2021-08-19 12:08:59.748,-0.55,0.35
2021-08-19 12:08:59.752,-0.56,0.345
2021-08-19 12:08:59.756,-0.52,0.35
2021-08-19 12:08:59.760,-0.525,0.345
2021-08-19 12:08:59.764,-0.51,0.38
2021-08-19 12:08:59.768,-0.51,0.35
2021-08-19 12:08:59.772,-0.495,0.37
2021-08-19 12:08:59.776,-0.54,0.37
2021-08-19 12:08:59.780,-0.575,0.375
2021-08-19 12:08:59.784,-0.585,0.36
2021-08-19 12:08:59.788,-0.6,0.36
2021-08-19 12:08:59.792,-0.605,0.33
2021-08-19 12:08:59.796,-0.62,0.345
2021-08-19 12:08:59.800,-0.625,0.36
2021-08-19 12:08:59.804,-0.59,0.355
2021-08-19 12:08:59.808,-0.635,0.3
2021-08-19 12:08:59.812,-0.625,0.3
2021-08-19 12:08:59.816,-0.64,0.28
2021-08-19 12:08:59.820,-0.655,0.315
2021-08-19 12:08:59.824,-0.635,0.35
2021-08-19 12:08:59.828,-0.65,0.35
2021-08-19 12:08:59.832,-0.625,0.32
2021-08-19 12:08:59.836,-0.585,0.305
2021-08-19 12:08:59.840,-0.585,0.27
2021-08-19 12:08:59.844,-0.605,0.265
2021-08-19 12:08:59.848,-0.605,0.28
2021-08-19 12:08:59.852,-0.595,0.265
2021-08-19 12:08:59.856,-0.59,0.245
2021-08-19 12:08:59.860,-0.595,0.25
2021-08-19 12:08:59.864,-0.63,0.21
2021-08-19 12:08:59.868,-0.655,0.23
2021-08-19 12:08:59.872,-0.66,0.24
2021-08-19 12:08:59.876,-0.63,0.245
2021-08-19 12:08:59.880,-0.635,0.245
2021-08-19 12:08:59.884,-0.67,0.2
2021-08-19 12:08:59.888,-0.71,0.195
2021-08-19 12:08:59.892,-0.72,0.255
2021-08-19 12:08:59.896,-0.715,0.22
2021-08-19 12:08:59.900,-0.67,0.18
2021-08-19 12:08:59.904,-0.575,0.16
2021-08-19 12:08:59.908,-0.465,0.19
2021-08-19 12:08:59.912,-0.485,0.18
2021-08-19 12:08:59.916,-0.675,0.26
2021-08-19 12:08:59.920,-0.975,0.31
2021-08-19 12:08:59.924,-1.41,0.37
2021-08-19 12:08:59.928,-2.0,0.235
2021-08-19 12:20:00.000,-0.3,0.49
2021-08-19 12:20:00.004,-0.305,0.475
2021-08-19 12:20:00.008,-0.305,0.47
2021-08-19 12:20:00.012,-0.29,0.515
2021-08-19 12:20:00.016,-0.27,0.52
2021-08-19 12:20:00.020,-0.22,0.505
2021-08-19 12:20:00.024,-0.21,0.51
2021-08-19 12:20:00.028,-0.235,0.505
2021-08-19 12:20:00.032,-0.265,0.525
2021-08-19 12:20:00.036,-0.26,0.53
2021-08-19 12:20:00.040,-0.28,0.535
2021-08-19 12:20:00.044,-0.25,0.49
2021-08-19 12:20:00.048,-0.245,0.48
2021-08-19 12:20:00.052,-0.24,0.545
2021-08-19 12:20:00.056,-0.18,0.56
2021-08-19 12:20:00.060,-0.08,0.535
2021-08-19 12:20:00.064,0.02,0.53
2021-08-19 12:20:00.068,-0.02,0.545
2021-08-19 12:20:00.072,-0.17,0.64
2021-08-19 12:20:00.076,-0.44,0.7
2021-08-19 12:20:00.080,-0.82,0.745
2021-08-19 12:20:00.084,-1.275,0.565
2021-08-19 12:20:00.088,-1.58,0.145
2021-08-19 12:20:00.092,-1.885,-0.345
2021-08-19 12:20:00.176,-0.395,-1.75
2021-08-19 12:20:00.180,-0.355,-1.325
2021-08-19 12:20:00.184,-0.28,-0.92
2021-08-19 12:20:00.188,-0.175,-0.63
2021-08-19 12:20:00.192,-0.075,-0.42
2021-08-19 12:20:00.196,0.005,-0.13
2021-08-19 12:20:00.200,0.095,0.2
2021-08-19 12:20:00.204,0.14,0.465
2021-08-19 12:20:00.208,0.07,0.615
2021-08-19 12:20:00.212,0.015,0.755
2021-08-19 12:20:00.216,0.03,0.905
2021-08-19 12:20:00.220,0.065,1.045
2021-08-19 12:20:00.224,0.06,1.145
2021-08-19 12:20:00.228,0.08,1.19
2021-08-19 12:20:00.232,0.125,1.23
2021-08-19 12:20:00.236,0.19,1.28
2021-08-19 12:20:00.240,0.225,1.295
2021-08-19 12:20:00.244,0.255,1.32
2021-08-19 12:20:00.248,0.28,1.38
2021-08-19 12:20:00.252,0.27,1.395
2021-08-19 12:20:00.256,0.31,1.43
2021-08-19 12:20:00.260,0.33,1.44
2021-08-19 12:20:00.264,0.35,1.465
2021-08-19 12:20:00.268,0.375,1.515
2021-08-19 12:20:00.272,0.4,1.55
2021-08-19 12:20:00.276,0.385,1.55
2021-08-19 12:20:00.280,0.42,1.58
2021-08-19 12:20:00.284,0.435,1.65
2021-08-19 12:20:00.288,0.495,1.69
2021-08-19 12:20:00.292,0.51,1.72
2021-08-19 12:20:00.296,0.535,1.75
2021-08-19 12:20:00.300,0.595,1.82
2021-08-19 12:20:00.304,0.61,1.84
2021-08-19 12:20:00.308,0.63,1.855
2021-08-19 12:20:00.312,0.605,1.925
2021-08-19 12:20:00.316,0.595,1.92
2021-08-19 12:20:00.320,0.54,1.925
2021-08-19 12:20:00.324,0.54,1.975
2021-08-19 12:20:00.328,0.535,1.96
2021-08-19 12:20:00.332,0.53,1.95
2021-08-19 12:20:00.336,0.505,1.915
2021-08-19 12:20:00.340,0.5,1.915
2021-08-19 12:20:00.344,0.475,1.915
2021-08-19 12:20:00.348,0.435,1.94
2021-08-19 12:20:00.352,0.46,1.94
2021-08-19 12:20:00.356,0.415,1.9
2021-08-19 12:20:00.360,0.37,1.86
2021-08-19 12:20:00.364,0.34,1.775
2021-08-19 12:20:00.368,0.315,1.715
2021-08-19 12:20:00.372,0.275,1.73
2021-08-19 12:20:00.376,0.22,1.775
2021-08-19 12:20:00.380,0.235,1.73
2021-08-19 12:20:00.384,0.2,1.62
2021-08-19 12:20:00.388,0.17,1.525
2021-08-19 12:20:00.392,0.105,1.465
2021-08-19 12:20:00.396,0.02,1.415
2021-08-19 12:20:00.400,0.02,1.325
2021-08-19 12:20:00.404,0.01,1.28
2021-08-19 12:20:00.408,0.005,1.24
2021-08-19 12:20:00.412,-0.005,1.16
2021-08-19 12:20:00.416,-0.005,1.055
2021-08-19 12:20:00.420,-0.025,1.01
2021-08-19 12:20:00.424,-0.03,0.98
2021-08-19 12:20:00.428,-0.065,0.96
2021-08-19 12:20:00.432,-0.105,0.895
2021-08-19 12:20:00.436,-0.105,0.845
2021-08-19 12:20:00.440,-0.105,0.81
2021-08-19 12:20:00.444,-0.085,0.79
2021-08-19 12:20:00.448,-0.095,0.735
2021-08-19 12:20:00.452,-0.115,0.7
2021-08-19 12:20:00.456,-0.06,0.68
2021-08-19 12:20:00.460,-0.03,0.665
2021-08-19 12:20:00.464,-0.035,0.645
2021-08-19 12:20:00.468,-0.025,0.65
2021-08-19 12:20:00.472,0.005,0.635
2021-08-19 12:20:00.476,0.025,0.65
2021-08-19 12:20:00.480,0.01,0.62
2021-08-19 12:20:00.484,0.015,0.575
2021-08-19 12:20:00.488,0.02,0.555
2021-08-19 12:20:00.492,0.0,0.535
2021-08-19 12:20:00.496,-0.045,0.535
2021-08-19 12:20:00.500,-0.06,0.54
2021-08-19 12:20:00.504,-0.05,0.565
2021-08-19 12:20:00.508,-0.035,0.555
2021-08-19 12:20:00.512,-0.035,0.545
2021-08-19 12:20:00.516,-0.05,0.545
2021-08-19 12:20:00.520,-0.06,0.555
2021-08-19 12:20:00.524,-0.11,0.53
2021-08-19 12:20:00.528,-0.145,0.535
2021-08-19 12:20:00.532,-0.135,0.595
2021-08-19 12:20:00.536,-0.125,0.665
2021-08-19 12:20:00.540,-0.085,0.62
2021-08-19 12:20:00.544,-0.08,0.595
2021-08-19 12:20:00.548,-0.065,0.565
2021-08-19 12:20:00.552,-0.055,0.605
2021-08-19 12:20:00.556,-0.045,0.625
2021-08-19 12:20:00.560,0.065,0.635
2021-08-19 12:20:00.564,0.2,0.635
2021-08-19 12:20:00.568,0.28,0.65
2021-08-19 12:20:00.572,0.25,0.68
2021-08-19 12:20:00.576,0.04,0.72
2021-08-19 12:20:00.580,-0.22,0.8
2021-08-19 12:20:00.584,-0.645,0.82
2021-08-19 12:20:00.588,-1.15,0.655
2021-08-19 12:20:00.592,-1.525,0.315
2021-08-19 12:20:00.596,-1.73,-0.13
2021-08-19 12:20:00.600,-1.82,-0.665
2021-08-19 12:20:00.604,-1.75,-1.405
2021-08-19 12:20:00.672,-0.255,-1.955
2021-08-19 12:20:00.676,-0.22,-1.57
2021-08-19 12:20:00.680,-0.16,-1.19
2021-08-19 12:20:00.684,-0.08,-0.87
2021-08-19 12:20:00.688,-0.02,-0.595
2021-08-19 12:20:00.692,-0.01,-0.335
2021-08-19 12:20:00.696,-0.01,-0.12
2021-08-19 12:20:00.700,0.05,0.04
2021-08-19 12:20:00.704,0.035,0.23
2021-08-19 12:20:00.708,0.005,0.46
2021-08-19 12:20:00.712,0.045,0.605
2021-08-19 12:20:00.716,0.075,0.755
2021-08-19 12:20:00.720,0.12,0.835
2021-08-19 12:20:00.724,0.15,0.925
2021-08-19 12:20:00.728,0.15,0.95
2021-08-19 12:20:00.732,0.14,0.99
2021-08-19 12:20:00.736,0.15,1.05
2021-08-19 12:20:00.740,0.2,1.09
2021-08-19 12:20:00.744,0.245,1.12
2021-08-19 12:20:00.748,0.245,1.13
2021-08-19 12:20:00.752,0.24,1.165
2021-08-19 12:20:00.756,0.215,1.16
