Time,ECG1,ECG2
2021-08-19 09:14:04.136,0.445,-0.09
2021-08-19 09:14:04.140,0.445,-0.1
2021-08-19 09:14:04.144,0.42,-0.105
2021-08-19 09:14:04.148,0.39,-0.125
2021-08-19 09:14:04.152,0.35,-0.15
2021-08-19 09:14:04.156,0.315,-0.155
2021-08-19 09:14:04.160,0.265,-0.14
2021-08-19 09:14:04.164,0.22,-0.14
2021-08-19 09:14:04.168,0.2,-0.125
2021-08-19 09:14:04.172,0.16,-0.115
2021-08-19 09:14:04.176,0.175,-0.08
2021-08-19 09:14:04.180,0.12,-0.055
2021-08-19 09:14:04.184,0.12,-0.045
2021-08-19 09:14:04.188,0.115,-0.065
2021-08-19 09:14:04.192,0.11,-0.05
2021-08-19 09:14:04.196,0.105,-0.065
2021-08-19 09:14:04.200,0.08,-0.055
2021-08-19 09:14:04.204,0.055,-0.055
2021-08-19 09:14:04.208,0.09,-0.07
2021-08-19 09:14:04.212,0.075,-0.07
2021-08-19 09:14:04.216,0.075,-0.08
2021-08-19 09:14:04.220,0.06,-0.085
2021-08-19 09:14:04.224,0.045,-0.085
2021-08-19 09:14:04.228,0.045,-0.1
2021-08-19 09:14:04.232,0.09,-0.12
2021-08-19 09:14:04.236,0.05,-0.145
2021-08-19 09:14:04.240,0.05,-0.125
2021-08-19 09:14:04.244,0.055,-0.15
2021-08-19 09:14:04.248,0.05,-0.14
2021-08-19 09:14:04.252,0.065,-0.16
2021-08-19 09:14:04.256,0.03,-0.165
2021-08-19 09:14:04.260,0.055,-0.165
2021-08-19 09:14:04.264,0.055,-0.16
2021-08-19 09:14:04.268,0.055,-0.175
2021-08-19 09:14:04.272,0.05,-0.145
2021-08-19 09:14:04.276,0.05,-0.15
2021-08-19 09:14:04.280,0.08,-0.13
2021-08-19 09:14:04.284,0.055,-0.12
2021-08-19 09:14:04.288,0.07,-0.115
2021-08-19 09:14:04.292,0.06,-0.105
2021-08-19 09:14:04.296,0.08,-0.09
2021-08-19 09:14:04.300,0.095,-0.065
2021-08-19 09:14:04.304,0.095,-0.07
2021-08-19 09:14:04.308,0.115,-0.07
2021-08-19 09:14:04.312,0.125,-0.08
2021-08-19 09:14:04.316,0.135,-0.06
2021-08-19 09:14:04.320,0.175,-0.055
2021-08-19 09:14:04.324,0.17,-0.015
2021-08-19 09:14:04.328,0.16,0.02
2021-08-19 09:14:04.332,0.175,0.04
2021-08-19 09:14:04.336,0.165,0.05
2021-08-19 09:14:04.340,0.135,0.035
2021-08-19 09:14:04.344,0.15,0.06
2021-08-19 09:14:04.348,0.135,0.06
2021-08-19 09:14:04.352,0.14,0.05
2021-08-19 09:14:04.356,0.17,0.075
2021-08-19 09:14:04.360,0.155,0.105
2021-08-19 09:14:04.364,0.175,0.165
2021-08-19 09:14:04.368,0.17,0.23
2021-08-19 09:14:04.372,0.18,0.34
2021-08-19 09:14:04.376,0.205,0.48
2021-08-19 09:14:04.380,0.235,0.715
2021-08-19 09:14:04.384,0.255,1.055
2021-08-19 09:14:04.388,0.31,1.365
2021-08-19 09:14:04.392,0.325,1.5
2021-08-19 09:14:04.396,0.33,1.455
2021-08-19 09:14:04.400,0.255,1.28
2021-08-19 09:14:04.404,0.205,1.01
2021-08-19 09:14:04.408,0.135,0.6
2021-08-19 09:14:04.412,0.045,0.03
2021-08-19 09:14:04.416,-0.03,-0.475
2021-08-19 09:14:04.420,-0.19,-0.655
2021-08-19 09:14:04.424,-0.38,-0.615
2021-08-19 09:14:04.428,-0.61,-0.46
2021-08-19 09:14:04.432,-0.785,-0.43
2021-08-19 09:14:04.436,-0.94,-0.535
2021-08-19 09:14:04.440,-0.96,-0.68
2021-08-19 09:14:04.444,-0.92,-0.735
2021-08-19 09:14:04.448,-0.76,-0.76
2021-08-19 09:14:04.452,-0.545,-0.725
2021-08-19 09:14:04.456,-0.35,-0.615
2021-08-19 09:14:04.460,-0.21,-0.48
2021-08-19 09:14:04.464,-0.155,-0.415
2021-08-19 09:14:04.468,-0.15,-0.37
2021-08-19 09:14:04.472,-0.145,-0.35
2021-08-19 09:14:04.476,-0.145,-0.325
2021-08-19 09:14:04.480,-0.09,-0.3
2021-08-19 09:14:04.484,-0.04,-0.29
2021-08-19 09:14:04.488,0.01,-0.28
2021-08-19 09:14:04.492,0.06,-0.275
2021-08-19 09:14:04.496,0.105,-0.275
2021-08-19 09:14:04.500,0.135,-0.265
2021-08-19 09:14:04.504,0.145,-0.24
2021-08-19 09:14:04.508,0.16,-0.225
2021-08-19 09:14:04.512,0.165,-0.235
2021-08-19 09:14:04.516,0.185,-0.225
2021-08-19 09:14:04.520,0.18,-0.21
2021-08-19 09:14:04.524,0.2,-0.185
2021-08-19 09:14:04.528,0.205,-0.195
2021-08-19 09:14:04.532,0.19,-0.18
2021-08-19 09:14:04.536,0.185,-0.175
2021-08-19 09:14:04.540,0.2,-0.145
2021-08-19 09:14:04.544,0.185,-0.15
2021-08-19 09:14:04.548,0.205,-0.11
2021-08-19 09:14:04.552,0.195,-0.105
2021-08-19 09:14:04.556,0.195,-0.08
2021-08-19 09:14:04.560,0.195,-0.08
2021-08-19 09:14:04.564,0.21,-0.08
2021-08-19 09:14:04.568,0.24,-0.07
2021-08-19 09:14:04.572,0.23,-0.065
2021-08-19 09:14:04.576,0.245,-0.095
2021-08-19 09:14:04.580,0.265,-0.12
2021-08-19 09:14:04.584,0.31,-0.15
2021-08-19 09:14:04.588,0.34,-0.175
2021-08-19 09:14:04.592,0.35,-0.19
2021-08-19 09:14:04.596,0.365,-0.2
2021-08-19 09:14:04.600,0.395,-0.215
2021-08-19 09:14:04.604,0.355,-0.22
2021-08-19 09:14:04.608,0.31,-0.25
2021-08-19 09:14:04.612,0.275,-0.25
2021-08-19 09:14:04.616,0.25,-0.29
2021-08-19 09:14:04.620,0.235,-0.29
2021-08-19 09:14:04.624,0.205,-0.295
2021-08-19 09:14:04.628,0.215,-0.295
2021-08-19 09:14:04.632,0.2,-0.31
2021-08-19 09:14:04.636,0.195,-0.31
2021-08-19 09:14:04.640,0.165,-0.32
2021-08-19 09:14:04.644,0.15,-0.32
2021-08-19 09:14:04.648,0.145,-0.315
2021-08-19 09:14:04.652,0.16,-0.32
2021-08-19 09:14:04.656,0.145,-0.305
2021-08-19 09:14:04.660,0.155,-0.305
2021-08-19 09:14:04.664,0.145,-0.28
2021-08-19 09:14:04.668,0.18,-0.245
2021-08-19 09:14:04.672,0.16,-0.22
2021-08-19 09:14:04.676,0.17,-0.18
2021-08-19 09:14:04.680,0.18,-0.165
2021-08-19 09:14:04.684,0.16,-0.13
2021-08-19 09:14:04.688,0.19,-0.115
2021-08-19 09:14:04.692,0.19,-0.1
2021-08-19 09:14:04.696,0.195,-0.07
2021-08-19 09:14:04.700,0.21,-0.055
2021-08-19 09:14:04.704,0.215,-0.025
2021-08-19 09:14:04.708,0.215,-0.035
2021-08-19 09:14:04.712,0.24,-0.01
2021-08-19 09:14:04.716,0.24,-0.015
2021-08-19 09:14:04.720,0.22,-0.025
2021-08-19 09:14:04.724,0.205,-0.065
2021-08-19 09:14:04.728,0.205,-0.07
2021-08-19 09:14:04.732,0.205,-0.08
2021-08-19 09:14:04.736,0.195,-0.075
2021-08-19 09:14:04.740,0.205,-0.075
2021-08-19 09:14:04.744,0.175,-0.04
2021-08-19 09:14:04.748,0.185,-0.035
2021-08-19 09:14:04.752,0.175,0.0
2021-08-19 09:14:04.756,0.17,0.05
2021-08-19 09:14:04.760,0.175,0.12
2021-08-19 09:14:04.764,0.175,0.2
2021-08-19 09:14:04.768,0.18,0.295
2021-08-19 09:14:04.772,0.165,0.505
2021-08-19 09:14:04.776,0.2,0.81
2021-08-19 09:14:04.780,0.23,1.2
2021-08-19 09:14:04.784,0.255,1.555
2021-08-19 09:14:04.788,0.315,1.77
2021-08-19 09:14:04.792,0.345,1.885
2021-08-19 09:14:04.796,0.355,1.85
2021-08-19 09:14:04.800,0.31,1.63
2021-08-19 09:14:04.804,0.27,1.255
2021-08-19 09:14:04.808,0.225,0.655
2021-08-19 09:14:04.812,0.11,0.1
2021-08-19 09:14:04.816,-0.08,-0.235
2021-08-19 09:14:04.820,-0.345,-0.305
2021-08-19 09:14:04.824,-0.545,-0.23
2021-08-19 09:14:04.828,-0.77,-0.295
2021-08-19 09:14:04.832,-0.87,-0.445
2021-08-19 09:14:04.836,-0.89,-0.59
2021-08-19 09:14:04.840,-0.84,-0.705
2021-08-19 09:14:04.844,-0.67,-0.755
2021-08-19 09:14:04.848,-0.47,-0.725
2021-08-19 09:14:04.852,-0.285,-0.6
2021-08-19 09:14:04.856,-0.195,-0.485
2021-08-19 09:14:04.860,-0.14,-0.435
2021-08-19 09:14:04.864,-0.145,-0.4
2021-08-19 09:14:04.868,-0.125,-0.375
2021-08-19 09:14:04.872,-0.095,-0.375
2021-08-19 09:14:04.876,-0.06,-0.36
2021-08-19 09:14:04.880,-0.005,-0.36
2021-08-19 09:14:04.884,0.04,-0.34
2021-08-19 09:14:04.888,0.09,-0.34
2021-08-19 09:14:04.892,0.115,-0.345
2021-08-19 09:14:04.896,0.13,-0.33
2021-08-19 09:14:04.900,0.15,-0.345
2021-08-19 09:14:04.904,0.155,-0.3
2021-08-19 09:14:04.908,0.165,-0.3
2021-08-19 09:14:04.912,0.18,-0.305
2021-08-19 09:14:04.916,0.18,-0.3
2021-08-19 09:14:04.920,0.175,-0.31
2021-08-19 09:14:04.924,0.2,-0.315
2021-08-19 09:14:04.928,0.2,-0.315
2021-08-19 09:14:04.932,0.205,-0.31
2021-08-19 09:14:04.936,0.215,-0.31
2021-08-19 09:14:04.940,0.23,-0.335
2021-08-19 09:14:04.944,0.21,-0.32
2021-08-19 09:14:04.948,0.21,-0.31
2021-08-19 09:14:04.952,0.21,-0.305
2021-08-19 09:14:04.956,0.22,-0.28
2021-08-19 09:14:04.960,0.225,-0.26
2021-08-19 09:14:04.964,0.235,-0.245
2021-08-19 09:14:04.968,0.235,-0.25
2021-08-19 09:14:04.972,0.27,-0.245
2021-08-19 09:14:04.976,0.275,-0.26
2021-08-19 09:14:04.980,0.28,-0.28
2021-08-19 09:14:04.984,0.29,-0.29
2021-08-19 09:14:04.988,0.32,-0.28
2021-08-19 09:14:04.992,0.3,-0.305
2021-08-19 09:14:04.996,0.315,-0.335
2021-08-19 09:14:05.000,0.285,-0.345
2021-08-19 09:14:05.004,0.275,-0.395
2021-08-19 09:14:05.008,0.265,-0.42
2021-08-19 09:14:05.012,0.245,-0.43
2021-08-19 09:14:05.016,0.215,-0.46
2021-08-19 09:14:05.020,0.23,-0.475
2021-08-19 09:14:05.024,0.225,-0.5
2021-08-19 09:14:05.028,0.19,-0.495
2021-08-19 09:14:05.032,0.175,-0.5
2021-08-19 09:14:05.036,0.185,-0.465
2021-08-19 09:14:05.040,0.175,-0.485
2021-08-19 09:14:05.044,0.155,-0.465
2021-08-19 09:14:05.048,0.14,-0.45
2021-08-19 09:14:05.052,0.15,-0.42
2021-08-19 09:14:05.056,0.125,-0.39
2021-08-19 09:14:05.060,0.15,-0.365
2021-08-19 09:14:05.064,0.125,-0.335
2021-08-19 09:14:05.068,0.175,-0.285
2021-08-19 09:14:05.072,0.165,-0.26
2021-08-19 09:14:05.076,0.155,-0.215
2021-08-19 09:14:05.080,0.175,-0.22
2021-08-19 09:14:05.084,0.185,-0.18
2021-08-19 09:14:05.088,0.19,-0.145
2021-08-19 09:14:05.092,0.18,-0.11
2021-08-19 09:14:05.096,0.185,-0.125
2021-08-19 09:14:05.100,0.18,-0.115
2021-08-19 09:14:05.104,0.195,-0.09
2021-08-19 09:14:05.108,0.19,-0.065
2021-08-19 09:14:05.112,0.195,-0.075
2021-08-19 09:14:05.116,0.195,-0.08
2021-08-19 09:14:05.120,0.175,-0.08
2021-08-19 09:14:05.124,0.19,-0.09
2021-08-19 09:14:05.128,0.185,-0.085
2021-08-19 09:14:05.132,0.155,-0.08
2021-08-19 09:14:05.136,0.165,-0.085
2021-08-19 09:14:05.140,0.17,-0.105
2021-08-19 09:14:05.144,0.165,-0.1
2021-08-19 09:14:05.148,0.165,-0.095
2021-08-19 09:14:05.152,0.145,-0.08
2021-08-19 09:14:05.156,0.14,-0.065
2021-08-19 09:14:05.160,0.145,-0.04
2021-08-19 09:14:05.164,0.13,-0.03
2021-08-19 09:14:05.168,0.15,-0.04
2021-08-19 09:14:05.172,0.18,-0.025
2021-08-19 09:14:05.176,0.19,-0.03
2021-08-19 09:14:05.180,0.195,-0.035
2021-08-19 09:14:05.184,0.215,-0.045
2021-08-19 09:14:05.188,0.21,-0.045
2021-08-19 09:14:05.192,0.185,-0.03
2021-08-19 09:14:05.196,0.17,-0.04
2021-08-19 09:14:05.200,0.175,-0.075
2021-08-19 09:14:05.204,0.165,-0.09
2021-08-19 09:14:05.208,0.145,-0.11
2021-08-19 09:14:05.212,0.125,-0.15
2021-08-19 09:14:05.216,0.13,-0.165
2021-08-19 09:14:05.220,0.095,-0.18
2021-08-19 09:14:05.224,0.095,-0.19
2021-08-19 09:14:05.228,0.1,-0.2
2021-08-19 09:14:05.232,0.1,-0.235
2021-08-19 09:14:05.236,0.09,-0.245
2021-08-19 09:14:05.240,0.08,-0.22
2021-08-19 09:14:05.244,0.065,-0.245
2021-08-19 09:14:05.248,0.065,-0.25
2021-08-19 09:14:05.252,0.07,-0.235
2021-08-19 09:14:05.256,0.06,-0.24
2021-08-19 09:14:05.260,0.05,-0.26
2021-08-19 09:14:05.264,0.03,-0.235
2021-08-19 09:14:05.268,0.05,-0.22
2021-08-19 09:14:05.272,0.06,-0.195
2021-08-19 09:14:05.276,0.03,-0.19
2021-08-19 09:14:05.280,0.055,-0.185
2021-08-19 09:14:05.284,0.07,-0.175
2021-08-19 09:14:05.288,0.05,-0.17
2021-08-19 09:14:05.292,0.065,-0.13
2021-08-19 09:14:05.296,0.075,-0.155
2021-08-19 09:14:05.300,0.075,-0.13
2021-08-19 09:14:05.304,0.095,-0.115
2021-08-19 09:14:05.308,0.1,-0.115
2021-08-19 09:14:05.312,0.105,-0.125
2021-08-19 09:14:05.316,0.11,-0.12
2021-08-19 09:14:05.320,0.115,-0.12
2021-08-19 09:14:05.324,0.105,-0.105
2021-08-19 09:14:05.328,0.125,-0.105
2021-08-19 09:14:05.332,0.12,-0.12
2021-08-19 09:14:05.336,0.11,-0.115
2021-08-19 09:14:05.340,0.11,-0.14
2021-08-19 09:14:05.344,0.13,-0.14
2021-08-19 09:14:05.348,0.135,-0.14
2021-08-19 09:14:05.352,0.145,-0.135
2021-08-19 09:14:05.356,0.155,-0.13
2021-08-19 09:14:05.360,0.125,-0.135
2021-08-19 09:14:05.364,0.14,-0.145
2021-08-19 09:14:05.368,0.15,-0.145
2021-08-19 09:14:05.372,0.16,-0.13
2021-08-19 09:14:05.376,0.165,-0.13
2021-08-19 09:14:05.380,0.18,-0.115
2021-08-19 09:14:05.384,0.18,-0.13
2021-08-19 09:14:05.388,0.175,-0.1
2021-08-19 09:14:05.392,0.16,-0.125
2021-08-19 09:14:05.396,0.17,-0.155
2021-08-19 09:14:05.400,0.17,-0.13
2021-08-19 09:14:05.404,0.125,-0.155
2021-08-19 09:14:05.408,0.14,-0.17
2021-08-19 09:14:05.412,0.12,-0.205
2021-08-19 09:14:05.416,0.11,-0.21
2021-08-19 09:14:05.420,0.11,-0.23
2021-08-19 09:14:05.424,0.11,-0.27
2021-08-19 09:14:05.428,0.09,-0.285
2021-08-19 09:14:05.432,0.06,-0.305
2021-08-19 09:14:05.436,0.055,-0.29
2021-08-19 09:14:05.440,0.055,-0.3
2021-08-19 09:14:05.444,0.08,-0.32
2021-08-19 09:14:05.448,0.08,-0.32
2021-08-19 09:14:05.452,0.065,-0.29
2021-08-19 09:14:05.456,0.06,-0.32
2021-08-19 09:14:05.460,0.055,-0.315
2021-08-19 09:14:05.464,0.06,-0.32
2021-08-19 09:14:05.468,0.07,-0.33
2021-08-19 09:14:05.472,0.06,-0.32
2021-08-19 09:14:05.476,0.055,-0.32
2021-08-19 09:14:05.480,0.06,-0.3
2021-08-19 09:14:05.484,0.06,-0.28
2021-08-19 09:14:05.488,0.05,-0.27
2021-08-19 09:14:05.492,0.05,-0.26
2021-08-19 09:14:05.496,0.055,-0.27
2021-08-19 09:14:05.500,0.04,-0.235
2021-08-19 09:14:05.504,0.075,-0.22
2021-08-19 09:14:05.508,0.095,-0.205
2021-08-19 09:14:05.512,0.095,-0.21
2021-08-19 09:14:05.516,0.09,-0.21
2021-08-19 09:14:05.520,0.105,-0.24
2021-08-19 09:14:05.524,0.1,-0.225
2021-08-19 09:14:05.528,0.095,-0.215
2021-08-19 09:14:05.532,0.115,-0.225
2021-08-19 09:14:05.536,0.12,-0.2
2021-08-19 09:14:05.540,0.11,-0.195
2021-08-19 09:14:05.544,0.115,-0.18
2021-08-19 09:14:05.548,0.11,-0.185
2021-08-19 09:14:05.552,0.105,-0.2
2021-08-19 09:14:05.556,0.095,-0.185
2021-08-19 09:14:05.560,0.115,-0.16
2021-08-19 09:14:05.564,0.135,-0.165
2021-08-19 09:14:05.568,0.155,-0.15
2021-08-19 09:14:05.572,0.12,-0.155
2021-08-19 09:14:05.576,0.165,-0.14
2021-08-19 09:14:05.580,0.165,-0.12
2021-08-19 09:14:05.584,0.185,-0.105
2021-08-19 09:14:05.588,0.205,-0.12
2021-08-19 09:14:05.592,0.185,-0.13
2021-08-19 09:14:05.596,0.18,-0.095
2021-08-19 09:14:05.600,0.175,-0.1
2021-08-19 09:14:05.604,0.155,-0.085
2021-08-19 09:14:05.608,0.16,-0.095
2021-08-19 09:14:05.612,0.125,-0.1
2021-08-19 09:14:05.616,0.085,-0.105
2021-08-19 09:14:05.620,0.1,-0.105
2021-08-19 09:14:05.624,0.09,-0.115
2021-08-19 09:14:05.628,0.09,-0.125
2021-08-19 09:14:05.632,0.085,-0.125
2021-08-19 09:14:05.636,0.105,-0.145
2021-08-19 09:14:05.640,0.105,-0.145
2021-08-19 09:14:05.644,0.115,-0.14
2021-08-19 09:14:05.648,0.115,-0.155
2021-08-19 09:14:05.652,0.115,-0.16
2021-08-19 09:14:05.656,0.125,-0.175
2021-08-19 09:14:05.660,0.105,-0.2
2021-08-19 09:14:05.664,0.115,-0.165
2021-08-19 09:14:05.668,0.085,-0.17
2021-08-19 09:14:05.672,0.1,-0.15
2021-08-19 09:14:05.676,0.11,-0.16
2021-08-19 09:14:05.680,0.105,-0.145
2021-08-19 09:14:05.684,0.105,-0.115
2021-08-19 09:14:05.688,0.115,-0.075
2021-08-19 09:14:05.692,0.11,-0.015
2021-08-19 09:14:05.696,0.115,0.07
2021-08-19 09:14:05.700,0.115,0.265
2021-08-19 09:14:05.704,0.095,0.6
2021-08-19 09:14:05.708,0.095,1.02
2021-08-19 09:14:05.712,0.115,1.425
2021-08-19 09:14:05.716,0.165,1.735
2021-08-19 09:14:05.720,0.19,1.985
2021-08-19 09:14:05.728,0.165,1.945
2021-08-19 09:14:05.732,0.135,1.58
2021-08-19 09:14:05.736,0.125,0.98
2021-08-19 09:14:05.740,0.075,0.345
2021-08-19 09:14:05.744,-0.085,-0.02
2021-08-19 09:14:05.748,-0.295,-0.145
2021-08-19 09:14:05.752,-0.57,-0.115
2021-08-19 09:14:05.756,-0.775,-0.195
2021-08-19 09:14:05.760,-0.88,-0.43
2021-08-19 09:14:05.764,-0.885,-0.575
2021-08-19 09:14:05.768,-0.785,-0.69
2021-08-19 09:14:05.772,-0.555,-0.715
2021-08-19 09:14:05.776,-0.305,-0.665
2021-08-19 09:14:05.780,-0.11,-0.575
2021-08-19 09:14:05.784,-0.03,-0.46
2021-08-19 09:14:05.788,-0.025,-0.4
2021-08-19 09:14:05.792,-0.01,-0.37
2021-08-19 09:14:05.796,0.0,-0.37
2021-08-19 09:14:05.800,0.01,-0.37
2021-08-19 09:14:05.804,0.015,-0.36
2021-08-19 09:14:05.808,0.03,-0.37
2021-08-19 09:14:05.812,0.085,-0.36
2021-08-19 09:14:05.816,0.105,-0.375
2021-08-19 09:14:05.820,0.16,-0.36
2021-08-19 09:14:05.824,0.135,-0.365
2021-08-19 09:14:05.828,0.165,-0.38
2021-08-19 09:14:05.832,0.165,-0.385
2021-08-19 09:14:05.836,0.175,-0.4
2021-08-19 09:14:05.840,0.155,-0.4
2021-08-19 09:14:05.844,0.175,-0.405
2021-08-19 09:14:05.848,0.165,-0.42
2021-08-19 09:14:05.852,0.185,-0.43
2021-08-19 09:14:05.856,0.195,-0.435
2021-08-19 09:14:05.860,0.195,-0.435
2021-08-19 09:14:05.864,0.18,-0.44
2021-08-19 09:14:05.868,0.175,-0.455
2021-08-19 09:14:05.872,0.175,-0.46
2021-08-19 09:14:05.876,0.18,-0.46
2021-08-19 09:14:05.880,0.175,-0.44
2021-08-19 09:14:05.884,0.17,-0.425
2021-08-19 09:14:05.888,0.19,-0.435
2021-08-19 09:14:05.892,0.175,-0.4
2021-08-19 09:14:05.896,0.18,-0.385
2021-08-19 09:14:05.900,0.175,-0.37
2021-08-19 09:14:05.904,0.175,-0.375
2021-08-19 09:14:05.908,0.165,-0.345
2021-08-19 09:14:05.912,0.16,-0.33
2021-08-19 09:14:05.916,0.19,-0.315
2021-08-19 09:14:05.920,0.205,-0.3
2021-08-19 09:14:05.924,0.205,-0.3
2021-08-19 09:14:05.928,0.22,-0.32
2021-08-19 09:14:05.932,0.245,-0.31
2021-08-19 09:14:05.936,0.25,-0.315
2021-08-19 09:14:05.940,0.245,-0.33
2021-08-19 09:14:05.944,0.25,-0.315
2021-08-19 09:14:05.948,0.255,-0.31
2021-08-19 09:14:05.952,0.24,-0.315
2021-08-19 09:14:05.956,0.245,-0.315
2021-08-19 09:14:05.960,0.25,-0.315
2021-08-19 09:14:05.964,0.25,-0.305
2021-08-19 09:14:05.968,0.265,-0.295
2021-08-19 09:14:05.972,0.255,-0.285
2021-08-19 09:14:05.976,0.235,-0.29
2021-08-19 09:14:05.980,0.27,-0.265
2021-08-19 09:14:05.984,0.285,-0.275
2021-08-19 09:14:05.988,0.275,-0.265
2021-08-19 09:14:05.992,0.28,-0.26
2021-08-19 09:14:05.996,0.3,-0.265
2021-08-19 09:14:06.000,0.29,-0.25
2021-08-19 09:14:06.004,0.275,-0.25
2021-08-19 09:14:06.008,0.27,-0.225
2021-08-19 09:14:06.012,0.245,-0.205
2021-08-19 09:14:06.016,0.225,-0.205
2021-08-19 09:14:06.020,0.21,-0.185
2021-08-19 09:14:06.024,0.185,-0.155
2021-08-19 09:14:06.028,0.175,-0.14
2021-08-19 09:14:06.032,0.175,-0.115
2021-08-19 09:14:06.036,0.18,-0.09
2021-08-19 09:14:06.040,0.175,-0.1
2021-08-19 09:14:06.044,0.185,-0.075
2021-08-19 09:14:06.048,0.19,-0.08
2021-08-19 09:14:06.052,0.19,-0.095
2021-08-19 09:14:06.056,0.195,-0.065
2021-08-19 09:14:06.060,0.195,-0.05
2021-08-19 09:14:06.064,0.19,-0.065
2021-08-19 09:14:06.068,0.17,-0.045
2021-08-19 09:14:06.072,0.19,-0.04
2021-08-19 09:14:06.076,0.155,-0.02
2021-08-19 09:14:06.080,0.19,-0.04
2021-08-19 09:14:06.084,0.19,-0.035
2021-08-19 09:14:06.088,0.16,-0.045
2021-08-19 09:14:06.092,0.185,-0.065
2021-08-19 09:14:06.096,0.165,-0.06
2021-08-19 09:14:06.100,0.155,-0.07
2021-08-19 09:14:06.104,0.165,-0.08
2021-08-19 09:14:06.108,0.155,-0.065
2021-08-19 09:14:06.112,0.18,-0.065
2021-08-19 09:14:06.116,0.175,-0.06
2021-08-19 09:14:06.120,0.15,-0.035
2021-08-19 09:14:06.124,0.155,-0.015
2021-08-19 09:14:06.128,0.17,0.01
2021-08-19 09:14:06.132,0.15,0.01
2021-08-19 09:14:06.136,0.18,0.04
2021-08-19 09:14:06.140,0.2,0.045
2021-08-19 09:14:06.144,0.195,0.055
2021-08-19 09:14:06.148,0.215,0.06
2021-08-19 09:14:06.152,0.235,0.055
2021-08-19 09:14:06.156,0.215,0.045
2021-08-19 09:14:06.160,0.215,0.045
2021-08-19 09:14:06.164,0.205,0.055
2021-08-19 09:14:06.168,0.235,0.055
2021-08-19 09:14:06.172,0.205,0.06
2021-08-19 09:14:06.176,0.22,0.05
2021-08-19 09:14:06.180,0.22,0.065
2021-08-19 09:14:06.184,0.195,0.065
2021-08-19 09:14:06.188,0.22,0.07
2021-08-19 09:14:06.192,0.21,0.065
2021-08-19 09:14:06.196,0.22,0.055
2021-08-19 09:14:06.200,0.26,0.035
2021-08-19 09:14:06.204,0.265,0.035
2021-08-19 09:14:06.208,0.285,0.04
2021-08-19 09:14:06.212,0.27,0.025
2021-08-19 09:14:06.216,0.285,-0.005
2021-08-19 09:14:06.220,0.285,-0.025
2021-08-19 09:14:06.224,0.265,-0.035
2021-08-19 09:14:06.228,0.255,-0.045
2021-08-19 09:14:06.232,0.21,-0.06
2021-08-19 09:14:06.236,0.195,-0.05
2021-08-19 09:14:06.240,0.205,-0.075
2021-08-19 09:14:06.244,0.185,-0.09
2021-08-19 09:14:06.248,0.155,-0.08
2021-08-19 09:14:06.252,0.155,-0.115
2021-08-19 09:14:06.256,0.125,-0.125
2021-08-19 09:14:06.260,0.145,-0.145
2021-08-19 09:14:06.264,0.16,-0.155
2021-08-19 09:14:06.268,0.135,-0.165
2021-08-19 09:14:06.272,0.125,-0.185
2021-08-19 09:14:06.276,0.14,-0.17
2021-08-19 09:14:06.280,0.11,-0.21
2021-08-19 09:14:06.284,0.135,-0.225
2021-08-19 09:14:06.288,0.135,-0.23
2021-08-19 09:14:06.292,0.105,-0.26
2021-08-19 09:14:06.296,0.115,-0.245
2021-08-19 09:14:06.300,0.085,-0.275
2021-08-19 09:14:06.304,0.105,-0.285
2021-08-19 09:14:06.308,0.095,-0.305
2021-08-19 09:14:06.312,0.095,-0.305
2021-08-19 09:14:06.316,0.085,-0.315
2021-08-19 09:14:06.320,0.09,-0.325
2021-08-19 09:14:06.324,0.07,-0.32
2021-08-19 09:14:06.328,0.095,-0.335
2021-08-19 09:14:06.332,0.09,-0.305
2021-08-19 09:14:06.336,0.065,-0.29
2021-08-19 09:14:06.340,0.06,-0.275
2021-08-19 09:14:06.344,0.045,-0.215
2021-08-19 09:14:06.348,0.065,-0.185
2021-08-19 09:14:06.352,0.07,-0.15
2021-08-19 09:14:06.356,0.06,-0.14
2021-08-19 09:14:06.360,0.075,-0.12
2021-08-19 09:14:06.364,0.11,-0.11
2021-08-19 09:14:06.368,0.08,-0.08
2021-08-19 09:14:06.372,0.1,-0.115
2021-08-19 09:14:06.376,0.135,-0.13
2021-08-19 09:14:06.380,0.145,-0.12
2021-08-19 09:14:06.384,0.145,-0.125
2021-08-19 09:14:06.388,0.14,-0.13
2021-08-19 09:14:06.392,0.165,-0.12
2021-08-19 09:14:06.396,0.165,-0.1
2021-08-19 09:14:06.400,0.165,-0.09
2021-08-19 09:14:06.404,0.145,-0.1
2021-08-19 09:14:06.408,0.12,-0.095
2021-08-19 09:14:06.412,0.13,-0.06
2021-08-19 09:14:06.416,0.125,-0.055
2021-08-19 09:14:06.420,0.15,-0.055
2021-08-19 09:14:06.424,0.18,-0.02
2021-08-19 09:14:06.428,0.205,-0.02
2021-08-19 09:14:06.432,0.235,0.0
2021-08-19 09:14:06.436,0.265,-0.015
2021-08-19 09:14:06.440,0.28,-0.005
2021-08-19 09:14:06.444,0.24,-0.01
2021-08-19 09:14:06.448,0.245,-0.025
2021-08-19 09:14:06.452,0.215,-0.035
2021-08-19 09:14:06.456,0.18,-0.075
2021-08-19 09:14:06.460,0.175,-0.105
2021-08-19 09:14:06.464,0.165,-0.1
2021-08-19 09:14:06.468,0.155,-0.115
2021-08-19 09:14:06.472,0.13,-0.115
2021-08-19 09:14:06.476,0.145,-0.14
2021-08-19 09:14:06.480,0.115,-0.155
2021-08-19 09:14:06.484,0.115,-0.15
2021-08-19 09:14:06.488,0.11,-0.16
2021-08-19 09:14:06.492,0.125,-0.18
2021-08-19 09:14:06.496,0.11,-0.185
2021-08-19 09:14:06.500,0.105,-0.2
2021-08-19 09:14:06.504,0.105,-0.19
2021-08-19 09:14:06.508,0.095,-0.21
2021-08-19 09:14:06.512,0.075,-0.24
2021-08-19 09:14:06.516,0.09,-0.25
2021-08-19 09:14:06.520,0.105,-0.26
2021-08-19 09:14:06.524,0.095,-0.265
2021-08-19 09:14:06.528,0.05,-0.27
2021-08-19 09:14:06.532,0.075,-0.275
2021-08-19 09:14:06.536,0.08,-0.29
2021-08-19 09:14:06.540,0.08,-0.28
2021-08-19 09:14:06.544,0.08,-0.265
2021-08-19 09:14:06.548,0.075,-0.265
2021-08-19 09:14:06.552,0.065,-0.235
2021-08-19 09:14:06.556,0.065,-0.22
2021-08-19 09:14:06.560,0.06,-0.22
2021-08-19 09:14:06.564,0.05,-0.21
2021-08-19 09:14:06.568,0.055,-0.205
2021-08-19 09:14:06.572,0.05,-0.18
2021-08-19 09:14:06.576,0.05,-0.11
2021-08-19 09:14:06.580,0.045,-0.07
2021-08-19 09:14:06.584,0.07,-0.05
2021-08-19 09:14:06.588,0.07,-0.04
2021-08-19 09:14:06.592,0.085,-0.01
2021-08-19 09:14:06.596,0.105,-0.035
2021-08-19 09:14:06.600,0.12,-0.035
2021-08-19 09:14:06.604,0.14,-0.065
2021-08-19 09:14:06.608,0.155,-0.055
2021-08-19 09:14:06.612,0.175,-0.055
2021-08-19 09:14:06.616,0.19,-0.065
2021-08-19 09:14:06.620,0.205,-0.055
2021-08-19 09:14:06.624,0.185,-0.06
2021-08-19 09:14:06.628,0.18,-0.035
2021-08-19 09:14:06.632,0.185,-0.04
2021-08-19 09:14:06.636,0.16,-0.02
2021-08-19 09:14:06.640,0.2,-0.005
2021-08-19 09:14:06.644,0.215,0.005
2021-08-19 09:14:06.648,0.245,0.005
2021-08-19 09:14:06.652,0.265,0.03
2021-08-19 09:14:06.656,0.265,0.015
2021-08-19 09:14:06.660,0.31,0.005
2021-08-19 09:14:06.664,0.31,0.0
2021-08-19 09:14:06.668,0.31,0.005
2021-08-19 09:14:06.672,0.3,-0.035
2021-08-19 09:14:06.676,0.285,-0.06
2021-08-19 09:14:06.680,0.245,-0.09
2021-08-19 09:14:06.684,0.225,-0.105
2021-08-19 09:14:06.688,0.205,-0.105
2021-08-19 09:14:06.692,0.205,-0.135
2021-08-19 09:14:06.696,0.175,-0.15
2021-08-19 09:14:06.700,0.17,-0.19
2021-08-19 09:14:06.704,0.145,-0.185
2021-08-19 09:14:06.708,0.12,-0.2
2021-08-19 09:14:06.712,0.13,-0.25
2021-08-19 09:14:06.716,0.125,-0.24
2021-08-19 09:14:06.720,0.13,-0.245
2021-08-19 09:14:06.724,0.12,-0.25
2021-08-19 09:14:06.728,0.09,-0.265
2021-08-19 09:14:06.732,0.09,-0.275
2021-08-19 09:14:06.736,0.105,-0.275
2021-08-19 09:14:06.740,0.105,-0.275
2021-08-19 09:14:06.744,0.105,-0.305
2021-08-19 09:14:06.748,0.095,-0.305
2021-08-19 09:14:06.752,0.07,-0.295
2021-08-19 09:14:06.756,0.075,-0.28
2021-08-19 09:14:06.760,0.07,-0.265
2021-08-19 09:14:06.764,0.06,-0.245
2021-08-19 09:14:06.768,0.06,-0.245
2021-08-19 09:14:06.772,0.055,-0.24
2021-08-19 09:14:06.776,0.05,-0.24
2021-08-19 09:14:06.780,0.025,-0.21
2021-08-19 09:14:06.784,0.025,-0.19
2021-08-19 09:14:06.788,0.055,-0.16
2021-08-19 09:14:06.792,0.06,-0.15
2021-08-19 09:14:06.796,0.05,-0.13
2021-08-19 09:14:06.800,0.045,-0.125
2021-08-19 09:14:06.804,0.05,-0.11
2021-08-19 09:14:06.808,0.095,-0.125
2021-08-19 09:14:06.812,0.07,-0.12
2021-08-19 09:14:06.816,0.105,-0.135
2021-08-19 09:14:06.820,0.095,-0.06
2021-08-19 09:14:06.824,0.11,-0.015
2021-08-19 09:14:06.828,0.1,0.04
2021-08-19 09:14:06.832,0.115,0.145
2021-08-19 09:14:06.836,0.135,0.255
2021-08-19 09:14:06.840,0.105,0.51
2021-08-19 09:14:06.844,0.13,0.865
2021-08-19 09:14:06.848,0.14,1.23
2021-08-19 09:14:06.852,0.18,1.495
2021-08-19 09:14:06.856,0.19,1.68
2021-08-19 09:14:06.860,0.215,1.755
2021-08-19 09:14:06.864,0.22,1.71
2021-08-19 09:14:06.868,0.235,1.485
2021-08-19 09:14:06.872,0.24,1.075
2021-08-19 09:14:06.876,0.235,0.475
2021-08-19 09:14:06.880,0.13,0.0
2021-08-19 09:14:06.884,-0.065,-0.175
2021-08-19 09:14:06.888,-0.31,-0.105
2021-08-19 09:14:06.892,-0.545,-0.075
2021-08-19 09:14:06.896,-0.72,-0.215
2021-08-19 09:14:06.900,-0.83,-0.375
2021-08-19 09:14:06.904,-0.805,-0.52
2021-08-19 09:14:06.908,-0.685,-0.6
2021-08-19 09:14:06.912,-0.44,-0.615
2021-08-19 09:14:06.916,-0.225,-0.565
2021-08-19 09:14:06.920,-0.11,-0.45
2021-08-19 09:14:06.924,-0.08,-0.38
2021-08-19 09:14:06.928,-0.06,-0.345
2021-08-19 09:14:06.932,-0.07,-0.315
2021-08-19 09:14:06.936,-0.07,-0.335
2021-08-19 09:14:06.940,-0.065,-0.355
2021-08-19 09:14:06.944,-0.03,-0.37
2021-08-19 09:14:06.948,0.035,-0.38
2021-08-19 09:14:06.952,0.09,-0.41
2021-08-19 09:14:06.956,0.115,-0.41
2021-08-19 09:14:06.960,0.115,-0.415
2021-08-19 09:14:06.964,0.11,-0.425
2021-08-19 09:14:06.968,0.12,-0.425
2021-08-19 09:14:06.972,0.12,-0.41
2021-08-19 09:14:06.976,0.115,-0.415
2021-08-19 09:14:06.980,0.13,-0.415
2021-08-19 09:14:06.984,0.12,-0.395
2021-08-19 09:14:06.988,0.125,-0.395
2021-08-19 09:14:06.992,0.125,-0.355
2021-08-19 09:14:06.996,0.13,-0.345
2021-08-19 09:14:07.000,0.145,-0.345
2021-08-19 09:14:07.004,0.14,-0.315
2021-08-19 09:14:07.008,0.125,-0.3
2021-08-19 09:14:07.012,0.11,-0.29
2021-08-19 09:14:07.016,0.125,-0.305
2021-08-19 09:14:07.020,0.13,-0.275
2021-08-19 09:14:07.024,0.145,-0.285
2021-08-19 09:14:07.028,0.14,-0.28
2021-08-19 09:14:07.032,0.16,-0.27
2021-08-19 09:14:07.036,0.155,-0.26
2021-08-19 09:14:07.040,0.18,-0.24
2021-08-19 09:14:07.044,0.195,-0.215
2021-08-19 09:14:07.048,0.18,-0.235
2021-08-19 09:14:07.052,0.215,-0.245
2021-08-19 09:14:07.056,0.23,-0.26
2021-08-19 09:14:07.060,0.225,-0.275
2021-08-19 09:14:07.064,0.235,-0.265
2021-08-19 09:14:07.068,0.25,-0.285
2021-08-19 09:14:07.072,0.27,-0.28
2021-08-19 09:14:07.076,0.275,-0.285
2021-08-19 09:14:07.080,0.285,-0.28
2021-08-19 09:14:07.084,0.285,-0.295
2021-08-19 09:14:07.088,0.275,-0.305
2021-08-19 09:14:07.092,0.25,-0.31
2021-08-19 09:14:07.096,0.23,-0.32
2021-08-19 09:14:07.100,0.23,-0.335
2021-08-19 09:14:07.104,0.205,-0.35
2021-08-19 09:14:07.108,0.18,-0.375
2021-08-19 09:14:07.112,0.165,-0.385
2021-08-19 09:14:07.116,0.155,-0.375
2021-08-19 09:14:07.120,0.155,-0.425
2021-08-19 09:14:07.124,0.155,-0.42
2021-08-19 09:14:07.128,0.135,-0.415
2021-08-19 09:14:07.132,0.12,-0.435
2021-08-19 09:14:07.136,0.13,-0.46
2021-08-19 09:14:07.140,0.135,-0.45
2021-08-19 09:14:07.144,0.11,-0.445
2021-08-19 09:14:07.148,0.105,-0.455
2021-08-19 09:14:07.152,0.1,-0.445
2021-08-19 09:14:07.156,0.115,-0.44
2021-08-19 09:14:07.160,0.115,-0.425
2021-08-19 09:14:07.164,0.125,-0.41
2021-08-19 09:14:07.168,0.105,-0.435
2021-08-19 09:14:07.172,0.1,-0.4
2021-08-19 09:14:07.176,0.095,-0.4
2021-08-19 09:14:07.180,0.115,-0.4
2021-08-19 09:14:07.184,0.105,-0.365
2021-08-19 09:14:07.188,0.11,-0.345
2021-08-19 09:14:07.192,0.11,-0.32
2021-08-19 09:14:07.196,0.085,-0.275
2021-08-19 09:14:07.200,0.105,-0.265
2021-08-19 09:14:07.204,0.12,-0.225
2021-08-19 09:14:07.208,0.09,-0.18
2021-08-19 09:14:07.212,0.1,-0.155
2021-08-19 09:14:07.216,0.12,-0.14
2021-08-19 09:14:07.220,0.105,-0.095
2021-08-19 09:14:07.224,0.1,-0.08
2021-08-19 09:14:07.228,0.13,-0.06
2021-08-19 09:14:07.232,0.12,-0.03
2021-08-19 09:14:07.236,0.145,-0.025
2021-08-19 09:14:07.240,0.145,-0.01
2021-08-19 09:14:07.244,0.135,0.02
2021-08-19 09:14:07.248,0.145,0.025
2021-08-19 09:14:07.252,0.165,0.04
2021-08-19 09:14:07.256,0.17,0.025
2021-08-19 09:14:07.260,0.195,0.055
2021-08-19 09:14:07.264,0.195,0.055
2021-08-19 09:14:07.268,0.22,0.075
2021-08-19 09:14:07.272,0.235,0.08
2021-08-19 09:14:07.276,0.24,0.085
2021-08-19 09:14:07.280,0.255,0.105
2021-08-19 09:14:07.284,0.275,0.08
2021-08-19 09:14:07.288,0.28,0.105
2021-08-19 09:14:07.292,0.285,0.11
2021-08-19 09:14:07.296,0.305,0.115
2021-08-19 09:14:07.300,0.31,0.12
2021-08-19 09:14:07.304,0.29,0.115
2021-08-19 09:14:07.308,0.28,0.1
2021-08-19 09:14:07.312,0.26,0.11
2021-08-19 09:14:07.316,0.225,0.095
2021-08-19 09:14:07.320,0.205,0.09
2021-08-19 09:14:07.324,0.18,0.085
2021-08-19 09:14:07.328,0.135,0.075
2021-08-19 09:14:07.332,0.135,0.075
2021-08-19 09:14:07.336,0.13,0.035
2021-08-19 09:14:07.340,0.125,0.015
2021-08-19 09:14:07.344,0.15,-0.01
2021-08-19 09:14:07.348,0.17,-0.005
2021-08-19 09:14:07.352,0.175,-0.02
2021-08-19 09:14:07.356,0.165,-0.02
2021-08-19 09:14:07.360,0.175,-0.03
2021-08-19 09:14:07.364,0.17,-0.06
2021-08-19 09:14:07.368,0.15,-0.06
2021-08-19 09:14:07.372,0.16,-0.075
2021-08-19 09:14:07.376,0.155,-0.095
2021-08-19 09:14:07.380,0.165,-0.09
2021-08-19 09:14:07.384,0.16,-0.13
2021-08-19 09:14:07.388,0.165,-0.15
2021-08-19 09:14:07.392,0.145,-0.18
2021-08-19 09:14:07.396,0.155,-0.185
2021-08-19 09:14:07.400,0.145,-0.205
2021-08-19 09:14:07.404,0.135,-0.185
2021-08-19 09:14:07.408,0.13,-0.195
2021-08-19 09:14:07.412,0.115,-0.185
2021-08-19 09:14:07.416,0.125,-0.185
2021-08-19 09:14:07.420,0.11,-0.14
2021-08-19 09:14:07.424,0.1,-0.125
2021-08-19 09:14:07.428,0.11,-0.115
2021-08-19 09:14:07.432,0.09,-0.105
2021-08-19 09:14:07.436,0.065,-0.09
2021-08-19 09:14:07.440,0.07,-0.09
2021-08-19 09:14:07.444,0.07,-0.055
2021-08-19 09:14:07.448,0.08,-0.04
2021-08-19 09:14:07.452,0.11,-0.06
2021-08-19 09:14:07.456,0.105,-0.045
2021-08-19 09:14:07.460,0.115,-0.04
2021-08-19 09:14:07.464,0.11,-0.025
2021-08-19 09:14:07.468,0.135,-0.02
2021-08-19 09:14:07.472,0.14,0.01
2021-08-19 09:14:07.476,0.15,0.015
2021-08-19 09:14:07.480,0.16,-0.015
2021-08-19 09:14:07.484,0.155,-0.01
2021-08-19 09:14:07.488,0.17,-0.02
2021-08-19 09:14:07.492,0.175,0.005
2021-08-19 09:14:07.496,0.2,-0.015
2021-08-19 09:14:07.500,0.2,-0.01
2021-08-19 09:14:07.504,0.225,0.005
2021-08-19 09:14:07.508,0.25,0.015
2021-08-19 09:14:07.512,0.255,0.005
2021-08-19 09:14:07.516,0.255,0.0
2021-08-19 09:14:07.520,0.285,-0.005
2021-08-19 09:14:07.524,0.275,-0.005
2021-08-19 09:14:07.528,0.255,0.005
2021-08-19 09:14:07.532,0.235,0.005
2021-08-19 09:14:07.536,0.21,0.015
2021-08-19 09:14:07.540,0.175,-0.01
2021-08-19 09:14:07.544,0.14,-0.01
2021-08-19 09:14:07.548,0.125,-0.005
2021-08-19 09:14:07.552,0.115,-0.015
2021-08-19 09:14:07.556,0.13,-0.005
2021-08-19 09:14:07.560,0.14,0.0
2021-08-19 09:14:07.564,0.15,-0.005
2021-08-19 09:14:07.568,0.135,-0.005
2021-08-19 09:14:07.572,0.15,-0.015
2021-08-19 09:14:07.576,0.175,0.05
2021-08-19 09:14:07.580,0.155,0.1
2021-08-19 09:14:07.584,0.15,0.205
2021-08-19 09:14:07.588,0.155,0.395
2021-08-19 09:14:07.592,0.145,0.69
2021-08-19 09:14:07.596,0.155,1.015
2021-08-19 09:14:07.600,0.175,1.275
2021-08-19 09:14:07.604,0.175,1.39
2021-08-19 09:14:07.608,0.17,1.38
2021-08-19 09:14:07.612,0.135,1.28
2021-08-19 09:14:07.616,0.13,0.98
2021-08-19 09:14:07.620,0.115,0.52
2021-08-19 09:14:07.624,0.075,-0.045
2021-08-19 09:14:07.628,-0.035,-0.395
2021-08-19 09:14:07.632,-0.215,-0.43
2021-08-19 09:14:07.636,-0.48,-0.24
2021-08-19 09:14:07.640,-0.72,-0.165
2021-08-19 09:14:07.644,-0.895,-0.27
2021-08-19 09:14:07.648,-0.955,-0.43
2021-08-19 09:14:07.652,-0.94,-0.54
2021-08-19 09:14:07.656,-0.73,-0.6
2021-08-19 09:14:07.660,-0.475,-0.585
2021-08-19 09:14:07.664,-0.22,-0.48
2021-08-19 09:14:07.668,-0.1,-0.35
2021-08-19 09:14:07.672,-0.06,-0.26
2021-08-19 09:14:07.676,-0.07,-0.18
2021-08-19 09:14:07.680,-0.055,-0.195
2021-08-19 09:14:07.684,-0.045,-0.165
2021-08-19 09:14:07.688,-0.025,-0.16
2021-08-19 09:14:07.692,0.035,-0.145
2021-08-19 09:14:07.696,0.1,-0.155
2021-08-19 09:14:07.700,0.18,-0.14
2021-08-19 09:14:07.704,0.21,-0.14
2021-08-19 09:14:07.708,0.22,-0.15
2021-08-19 09:14:07.712,0.28,-0.105
2021-08-19 09:14:07.716,0.3,-0.115
2021-08-19 09:14:07.720,0.28,-0.095
2021-08-19 09:14:07.724,0.315,-0.1
2021-08-19 09:14:07.728,0.32,-0.075
2021-08-19 09:14:07.732,0.315,-0.075
2021-08-19 09:14:07.736,0.325,-0.055
2021-08-19 09:14:07.740,0.325,-0.04
2021-08-19 09:14:07.744,0.315,-0.035
2021-08-19 09:14:07.748,0.275,-0.03
2021-08-19 09:14:07.752,0.295,-0.025
2021-08-19 09:14:07.756,0.245,-0.03
2021-08-19 09:14:07.760,0.24,-0.05
2021-08-19 09:14:07.764,0.255,-0.06
2021-08-19 09:14:07.768,0.26,-0.075
2021-08-19 09:14:07.772,0.245,-0.105
2021-08-19 09:14:07.776,0.255,-0.105
2021-08-19 09:14:07.780,0.24,-0.12
2021-08-19 09:14:07.784,0.235,-0.15
2021-08-19 09:14:07.788,0.235,-0.19
2021-08-19 09:14:07.792,0.25,-0.2
2021-08-19 09:14:07.796,0.225,-0.19
2021-08-19 09:14:07.800,0.22,-0.235
2021-08-19 09:14:07.804,0.215,-0.23
2021-08-19 09:14:07.808,0.21,-0.27
2021-08-19 09:14:07.812,0.21,-0.28
2021-08-19 09:14:07.816,0.195,-0.3
2021-08-19 09:14:07.820,0.19,-0.3
2021-08-19 09:14:07.824,0.18,-0.295
2021-08-19 09:14:07.828,0.165,-0.295
2021-08-19 09:14:07.832,0.155,-0.275
2021-08-19 09:14:07.836,0.175,-0.3
2021-08-19 09:14:07.840,0.17,-0.285
2021-08-19 09:14:07.844,0.16,-0.28
2021-08-19 09:14:07.848,0.16,-0.26
2021-08-19 09:14:07.852,0.145,-0.265
2021-08-19 09:14:07.856,0.145,-0.255
2021-08-19 09:14:07.860,0.155,-0.245
2021-08-19 09:14:07.864,0.17,-0.255
2021-08-19 09:14:07.868,0.205,-0.22
2021-08-19 09:14:07.872,0.175,-0.215
2021-08-19 09:14:07.876,0.18,-0.195
2021-08-19 09:14:07.880,0.17,-0.18
2021-08-19 09:14:07.884,0.195,-0.14
2021-08-19 09:14:07.888,0.18,-0.08
2021-08-19 09:14:07.892,0.18,-0.065
2021-08-19 09:14:07.896,0.195,-0.045
2021-08-19 09:14:07.900,0.215,-0.01
2021-08-19 09:14:07.904,0.21,0.0
2021-08-19 09:14:07.908,0.215,0.03
2021-08-19 09:14:07.912,0.215,0.06
2021-08-19 09:14:07.916,0.24,0.09
2021-08-19 09:14:07.920,0.24,0.105
2021-08-19 09:14:07.924,0.24,0.11
2021-08-19 09:14:07.928,0.245,0.115
2021-08-19 09:14:07.932,0.275,0.135
2021-08-19 09:14:07.936,0.29,0.125
2021-08-19 09:14:07.940,0.285,0.115
2021-08-19 09:14:07.944,0.315,0.105
2021-08-19 09:14:07.948,0.32,0.12
2021-08-19 09:14:07.952,0.325,0.105
2021-08-19 09:14:07.956,0.315,0.14
2021-08-19 09:14:07.960,0.295,0.105
2021-08-19 09:14:07.964,0.27,0.095
2021-08-19 09:14:07.968,0.255,0.08
2021-08-19 09:14:07.972,0.215,0.095
2021-08-19 09:14:07.976,0.205,0.1
2021-08-19 09:14:07.980,0.2,0.075
2021-08-19 09:14:07.984,0.205,0.055
2021-08-19 09:14:07.988,0.2,0.035
2021-08-19 09:14:07.992,0.195,0.01
2021-08-19 09:14:07.996,0.215,0.02
2021-08-19 09:14:08.000,0.19,-0.02
2021-08-19 09:14:08.004,0.18,-0.045
2021-08-19 09:14:08.008,0.175,-0.045
2021-08-19 09:14:08.012,0.185,-0.035
2021-08-19 09:14:08.016,0.17,-0.04
2021-08-19 09:14:08.020,0.18,-0.04
2021-08-19 09:14:08.024,0.15,-0.05
2021-08-19 09:14:08.028,0.2,-0.04
2021-08-19 09:14:08.032,0.17,-0.035
2021-08-19 09:14:08.036,0.18,-0.01
2021-08-19 09:14:08.040,0.165,-0.035
2021-08-19 09:14:08.044,0.18,0.0
2021-08-19 09:14:08.048,0.18,0.0
2021-08-19 09:14:08.052,0.185,0.0
2021-08-19 09:14:08.056,0.165,-0.005
2021-08-19 09:14:08.060,0.175,0.0
2021-08-19 09:14:08.064,0.15,-0.015
2021-08-19 09:14:08.068,0.16,-0.015
2021-08-19 09:14:08.072,0.145,-0.03
2021-08-19 09:14:08.076,0.17,-0.04
2021-08-19 09:14:08.080,0.17,-0.045
2021-08-19 09:14:08.084,0.18,-0.02
2021-08-19 09:14:08.088,0.165,-0.04
2021-08-19 09:14:08.092,0.16,-0.03
2021-08-19 09:14:08.096,0.16,-0.035
2021-08-19 09:14:08.100,0.155,-0.02
2021-08-19 09:14:08.104,0.185,-0.02
2021-08-19 09:14:08.108,0.145,-0.02
2021-08-19 09:14:08.112,0.175,-0.005
2021-08-19 09:14:08.116,0.17,-0.015
2021-08-19 09:14:08.120,0.17,-0.01
2021-08-19 09:14:08.124,0.185,-0.03
2021-08-19 09:14:08.128,0.2,-0.01
2021-08-19 09:14:08.132,0.195,0.01
2021-08-19 09:14:08.136,0.195,-0.005
2021-08-19 09:14:08.140,0.195,0.035
2021-08-19 09:14:08.144,0.225,0.04
2021-08-19 09:14:08.148,0.25,0.035
2021-08-19 09:14:08.152,0.225,0.065
2021-08-19 09:14:08.156,0.235,0.055
2021-08-19 09:14:08.160,0.265,0.045
2021-08-19 09:14:08.164,0.235,0.05
2021-08-19 09:14:08.168,0.225,0.03
2021-08-19 09:14:08.172,0.195,0.025
2021-08-19 09:14:08.176,0.185,0.015
2021-08-19 09:14:08.180,0.16,-0.005
2021-08-19 09:14:08.184,0.155,0.0
2021-08-19 09:14:08.188,0.145,0.01
2021-08-19 09:14:08.192,0.14,0.01
2021-08-19 09:14:08.196,0.125,0.025
2021-08-19 09:14:08.200,0.12,0.025
2021-08-19 09:14:08.204,0.09,0.01
2021-08-19 09:14:08.208,0.11,0.0
2021-08-19 09:14:08.212,0.085,0.005
2021-08-19 09:14:08.216,0.08,0.02
2021-08-19 09:14:08.220,0.105,0.005
2021-08-19 09:14:08.224,0.105,-0.005
2021-08-19 09:14:08.228,0.095,-0.025
2021-08-19 09:14:08.232,0.125,-0.01
2021-08-19 09:14:08.236,0.11,-0.03
2021-08-19 09:14:08.240,0.115,-0.02
2021-08-19 09:14:08.244,0.125,-0.025
2021-08-19 09:14:08.248,0.13,-0.02
2021-08-19 09:14:08.252,0.12,-0.015
2021-08-19 09:14:08.256,0.125,-0.03
2021-08-19 09:14:08.260,0.11,-0.025
2021-08-19 09:14:08.264,0.145,-0.04
2021-08-19 09:14:08.268,0.14,-0.03
2021-08-19 09:14:08.272,0.14,-0.05
2021-08-19 09:14:08.276,0.15,-0.065
2021-08-19 09:14:08.280,0.165,-0.065
2021-08-19 09:14:08.284,0.145,-0.06
2021-08-19 09:14:08.288,0.14,-0.04
2021-08-19 09:14:08.292,0.135,-0.02
2021-08-19 09:14:08.296,0.15,-0.025
2021-08-19 09:14:08.300,0.14,-0.02
2021-08-19 09:14:08.304,0.14,-0.05
2021-08-19 09:14:08.308,0.14,-0.05
2021-08-19 09:14:08.312,0.145,-0.05
2021-08-19 09:14:08.316,0.165,-0.05
2021-08-19 09:14:08.320,0.155,-0.06
2021-08-19 09:14:08.324,0.165,-0.065
2021-08-19 09:14:08.328,0.165,-0.06
2021-08-19 09:14:08.332,0.165,-0.08
2021-08-19 09:14:08.336,0.155,-0.085
2021-08-19 09:14:08.340,0.19,-0.115
2021-08-19 09:14:08.344,0.175,-0.065
2021-08-19 09:14:08.348,0.18,-0.05
2021-08-19 09:14:08.352,0.19,-0.015
2021-08-19 09:14:08.356,0.205,-0.005
2021-08-19 09:14:08.360,0.22,0.01
2021-08-19 09:14:08.364,0.22,0.005
2021-08-19 09:14:08.368,0.235,-0.005
2021-08-19 09:14:08.372,0.23,0.02
2021-08-19 09:14:08.376,0.225,-0.005
2021-08-19 09:14:08.380,0.225,-0.02
2021-08-19 09:14:08.384,0.205,-0.02
2021-08-19 09:14:08.388,0.19,-0.025
2021-08-19 09:14:08.392,0.165,-0.01
2021-08-19 09:14:08.396,0.155,-0.035
2021-08-19 09:14:08.400,0.16,-0.05
2021-08-19 09:14:08.404,0.145,-0.055
2021-08-19 09:14:08.408,0.15,-0.095
2021-08-19 09:14:08.412,0.15,-0.08
2021-08-19 09:14:08.416,0.155,-0.09
2021-08-19 09:14:08.420,0.16,-0.07
2021-08-19 09:14:08.424,0.15,-0.04
2021-08-19 09:14:08.428,0.15,0.025
2021-08-19 09:14:08.432,0.13,0.12
2021-08-19 09:14:08.436,0.11,0.25
2021-08-19 09:14:08.440,0.115,0.41
2021-08-19 09:14:08.444,0.1,0.675
2021-08-19 09:14:08.448,0.07,0.97
2021-08-19 09:14:08.452,0.1,1.19
2021-08-19 09:14:08.456,0.145,1.29
2021-08-19 09:14:08.460,0.15,1.28
2021-08-19 09:14:08.464,0.14,1.12
2021-08-19 09:14:08.468,0.135,0.86
2021-08-19 09:14:08.472,0.09,0.435
2021-08-19 09:14:08.476,0.065,-0.06
2021-08-19 09:14:08.480,-0.045,-0.34
2021-08-19 09:14:08.484,-0.255,-0.31
2021-08-19 09:14:08.488,-0.56,-0.09
2021-08-19 09:14:08.492,-0.84,-0.015
2021-08-19 09:14:08.496,-0.99,-0.145
2021-08-19 09:14:08.500,-1.065,-0.36
2021-08-19 09:14:08.504,-1.015,-0.475
2021-08-19 09:14:08.508,-0.765,-0.53
2021-08-19 09:14:08.512,-0.42,-0.505
2021-08-19 09:14:08.516,-0.15,-0.4
2021-08-19 09:14:08.520,-0.02,-0.32
2021-08-19 09:14:08.524,-0.005,-0.26
2021-08-19 09:14:08.528,-0.01,-0.23
2021-08-19 09:14:08.532,-0.01,-0.23
2021-08-19 09:14:08.536,0.0,-0.21
2021-08-19 09:14:08.540,0.02,-0.235
2021-08-19 09:14:08.544,0.095,-0.225
2021-08-19 09:14:08.548,0.165,-0.21
2021-08-19 09:14:08.552,0.2,-0.215
2021-08-19 09:14:08.556,0.23,-0.165
2021-08-19 09:14:08.560,0.235,-0.145
2021-08-19 09:14:08.564,0.27,-0.105
2021-08-19 09:14:08.568,0.255,-0.1
2021-08-19 09:14:08.572,0.235,-0.09
2021-08-19 09:14:08.576,0.215,-0.1
2021-08-19 09:14:08.580,0.2,-0.095
2021-08-19 09:14:08.584,0.2,-0.11
2021-08-19 09:14:08.588,0.2,-0.12
2021-08-19 09:14:08.592,0.23,-0.1
2021-08-19 09:14:08.596,0.225,-0.1
2021-08-19 09:14:08.600,0.23,-0.11
2021-08-19 09:14:08.604,0.24,-0.12
2021-08-19 09:14:08.608,0.23,-0.11
2021-08-19 09:14:08.612,0.2,-0.115
2021-08-19 09:14:08.616,0.23,-0.12
2021-08-19 09:14:08.620,0.22,-0.15
2021-08-19 09:14:08.624,0.24,-0.155
2021-08-19 09:14:08.628,0.25,-0.2
2021-08-19 09:14:08.632,0.215,-0.21
2021-08-19 09:14:08.636,0.225,-0.23
2021-08-19 09:14:08.640,0.225,-0.24
2021-08-19 09:14:08.644,0.22,-0.265
2021-08-19 09:14:08.648,0.21,-0.31
2021-08-19 09:14:08.652,0.225,-0.33
2021-08-19 09:14:08.656,0.215,-0.345
2021-08-19 09:14:08.660,0.205,-0.33
2021-08-19 09:14:08.664,0.205,-0.34
2021-08-19 09:14:08.668,0.21,-0.35
2021-08-19 09:14:08.672,0.19,-0.345
2021-08-19 09:14:08.676,0.175,-0.34
2021-08-19 09:14:08.680,0.175,-0.31
2021-08-19 09:14:08.684,0.18,-0.275
2021-08-19 09:14:08.688,0.175,-0.27
2021-08-19 09:14:08.692,0.165,-0.25
2021-08-19 09:14:08.696,0.145,-0.265
2021-08-19 09:14:08.700,0.14,-0.265
2021-08-19 09:14:08.704,0.165,-0.27
2021-08-19 09:14:08.708,0.185,-0.26
2021-08-19 09:14:08.712,0.21,-0.28
2021-08-19 09:14:08.716,0.195,-0.25
2021-08-19 09:14:08.720,0.19,-0.265
2021-08-19 09:14:08.724,0.195,-0.265
2021-08-19 09:14:08.728,0.2,-0.27
2021-08-19 09:14:08.732,0.22,-0.25
2021-08-19 09:14:08.736,0.22,-0.23
2021-08-19 09:14:08.740,0.225,-0.2
2021-08-19 09:14:08.744,0.23,-0.19
2021-08-19 09:14:08.748,0.24,-0.16
2021-08-19 09:14:08.752,0.235,-0.1
2021-08-19 09:14:08.756,0.25,-0.09
2021-08-19 09:14:08.760,0.23,-0.07
2021-08-19 09:14:08.764,0.24,-0.02
2021-08-19 09:14:08.768,0.255,0.015
2021-08-19 09:14:08.772,0.235,0.04
2021-08-19 09:14:08.776,0.235,0.05
2021-08-19 09:14:08.780,0.225,0.055
2021-08-19 09:14:08.784,0.205,0.09
2021-08-19 09:14:08.788,0.18,0.12
2021-08-19 09:14:08.792,0.165,0.13
2021-08-19 09:14:08.796,0.165,0.12
2021-08-19 09:14:08.800,0.155,0.13
2021-08-19 09:14:08.804,0.2,0.135
2021-08-19 09:14:08.808,0.18,0.14
2021-08-19 09:14:08.812,0.205,0.12
2021-08-19 09:14:08.816,0.195,0.115
2021-08-19 09:14:08.820,0.205,0.105
2021-08-19 09:14:08.824,0.2,0.105
2021-08-19 09:14:08.828,0.22,0.08
2021-08-19 09:14:08.832,0.19,0.09
2021-08-19 09:14:08.836,0.205,0.065
2021-08-19 09:14:08.840,0.195,0.06
2021-08-19 09:14:08.844,0.215,0.075
2021-08-19 09:14:08.848,0.22,0.07
2021-08-19 09:14:08.852,0.22,0.06
2021-08-19 09:14:08.856,0.215,0.025
2021-08-19 09:14:08.860,0.2,0.03
2021-08-19 09:14:08.864,0.215,0.02
2021-08-19 09:14:08.868,0.205,-0.005
2021-08-19 09:14:08.872,0.2,0.0
2021-08-19 09:14:08.876,0.2,-0.005
2021-08-19 09:14:08.880,0.195,0.01
2021-08-19 09:14:08.884,0.175,0.035
2021-08-19 09:14:08.888,0.165,0.035
2021-08-19 09:14:08.892,0.16,0.01
2021-08-19 09:14:08.896,0.19,-0.01
2021-08-19 09:14:08.900,0.205,-0.06
2021-08-19 09:14:08.904,0.205,-0.07
2021-08-19 09:14:08.908,0.19,-0.1
2021-08-19 09:14:08.912,0.195,-0.1
2021-08-19 09:14:08.916,0.19,-0.095
2021-08-19 09:14:08.920,0.19,-0.095
2021-08-19 09:14:08.924,0.17,-0.06
2021-08-19 09:14:08.928,0.175,-0.03
2021-08-19 09:14:08.932,0.18,-0.005
2021-08-19 09:14:08.936,0.14,0.0
2021-08-19 09:14:08.940,0.16,0.015
2021-08-19 09:14:08.944,0.145,-0.005
2021-08-19 09:14:08.948,0.165,-0.02
2021-08-19 09:14:08.952,0.15,-0.015
2021-08-19 09:14:08.956,0.14,-0.005
2021-08-19 09:14:08.960,0.145,0.0
2021-08-19 09:14:08.964,0.155,0.005
2021-08-19 09:14:08.968,0.155,0.035
2021-08-19 09:14:08.972,0.145,0.06
2021-08-19 09:14:08.976,0.15,0.07
2021-08-19 09:14:08.980,0.175,0.085
2021-08-19 09:14:08.984,0.22,0.1
2021-08-19 09:14:08.988,0.21,0.11
2021-08-19 09:14:08.992,0.22,0.1
2021-08-19 09:14:08.996,0.245,0.09
2021-08-19 09:14:09.000,0.24,0.115
2021-08-19 09:14:09.004,0.2,0.1
2021-08-19 09:14:09.008,0.175,0.125
2021-08-19 09:14:09.012,0.16,0.1
2021-08-19 09:14:09.016,0.15,0.105
2021-08-19 09:14:09.020,0.155,0.095
2021-08-19 09:14:09.024,0.175,0.09
2021-08-19 09:14:09.028,0.14,0.07
2021-08-19 09:14:09.032,0.17,0.065
2021-08-19 09:14:09.036,0.155,0.045
2021-08-19 09:14:09.040,0.16,0.045
2021-08-19 09:14:09.044,0.165,0.04
2021-08-19 09:14:09.048,0.15,0.025
2021-08-19 09:14:09.052,0.155,0.02
2021-08-19 09:14:09.056,0.155,0.02
2021-08-19 09:14:09.060,0.145,0.01
2021-08-19 09:14:09.064,0.135,-0.01
2021-08-19 09:14:09.068,0.125,-0.005
2021-08-19 09:14:09.072,0.115,0.0
2021-08-19 09:14:09.076,0.11,-0.01
2021-08-19 09:14:09.080,0.12,-0.02
2021-08-19 09:14:09.084,0.12,-0.025
2021-08-19 09:14:09.088,0.13,-0.04
2021-08-19 09:14:09.092,0.125,-0.04
2021-08-19 09:14:09.096,0.11,-0.02
2021-08-19 09:14:09.100,0.11,-0.035
2021-08-19 09:14:09.104,0.095,-0.04
2021-08-19 09:14:09.108,0.1,-0.04
2021-08-19 09:14:09.112,0.11,-0.09
2021-08-19 09:14:09.116,0.095,-0.08
2021-08-19 09:14:09.120,0.095,-0.085
2021-08-19 09:14:09.124,0.115,-0.095
2021-08-19 09:14:09.128,0.1,-0.105
2021-08-19 09:14:09.132,0.12,-0.09
2021-08-19 09:14:09.136,0.115,-0.11
2021-08-19 09:14:09.140,0.085,-0.11
2021-08-19 09:14:09.144,0.085,-0.105
2021-08-19 09:14:09.148,0.085,-0.08
2021-08-19 09:14:09.152,0.1,-0.07
2021-08-19 09:14:09.156,0.1,-0.05
2021-08-19 09:14:09.160,0.09,-0.04
2021-08-19 09:14:09.164,0.11,-0.02
2021-08-19 09:14:09.168,0.105,-0.01
2021-08-19 09:14:09.172,0.1,-0.01
2021-08-19 09:14:09.176,0.07,0.025
2021-08-19 09:14:09.180,0.105,0.11
2021-08-19 09:14:09.184,0.08,0.195
2021-08-19 09:14:09.188,0.095,0.27
2021-08-19 09:14:09.192,0.115,0.425
2021-08-19 09:14:09.196,0.125,0.695
2021-08-19 09:14:09.200,0.125,0.99
2021-08-19 09:14:09.204,0.155,1.19
2021-08-19 09:14:09.208,0.2,1.25
2021-08-19 09:14:09.212,0.24,1.155
2021-08-19 09:14:09.216,0.23,0.995
2021-08-19 09:14:09.220,0.18,0.72
2021-08-19 09:14:09.224,0.2,0.3
2021-08-19 09:14:09.228,0.155,-0.15
2021-08-19 09:14:09.232,0.045,-0.405
2021-08-19 09:14:09.236,-0.18,-0.295
2021-08-19 09:14:09.240,-0.47,-0.03
2021-08-19 09:14:09.244,-0.755,0.07
2021-08-19 09:14:09.248,-0.94,-0.07
2021-08-19 09:14:09.252,-1.075,-0.255
2021-08-19 09:14:09.256,-1.02,-0.405
2021-08-19 09:14:09.260,-0.765,-0.485
2021-08-19 09:14:09.264,-0.435,-0.485
2021-08-19 09:14:09.268,-0.165,-0.405
2021-08-19 09:14:09.272,-0.05,-0.315
2021-08-19 09:14:09.276,-0.03,-0.25
2021-08-19 09:14:09.280,-0.055,-0.23
2021-08-19 09:14:09.284,-0.06,-0.21
2021-08-19 09:14:09.288,-0.06,-0.21
2021-08-19 09:14:09.292,-0.045,-0.21
2021-08-19 09:14:09.296,-0.015,-0.205
2021-08-19 09:14:09.300,0.04,-0.215
2021-08-19 09:14:09.304,0.08,-0.22
2021-08-19 09:14:09.308,0.11,-0.205
2021-08-19 09:14:09.312,0.11,-0.23
2021-08-19 09:14:09.316,0.145,-0.225
2021-08-19 09:14:09.320,0.145,-0.245
2021-08-19 09:14:09.324,0.16,-0.265
2021-08-19 09:14:09.328,0.165,-0.275
2021-08-19 09:14:09.332,0.165,-0.295
2021-08-19 09:14:09.336,0.15,-0.305
2021-08-19 09:14:09.340,0.17,-0.315
2021-08-19 09:14:09.344,0.155,-0.325
2021-08-19 09:14:09.348,0.145,-0.32
2021-08-19 09:14:09.352,0.135,-0.325
2021-08-19 09:14:09.356,0.13,-0.31
2021-08-19 09:14:09.360,0.13,-0.315
2021-08-19 09:14:09.364,0.11,-0.26
2021-08-19 09:14:09.368,0.1,-0.24
2021-08-19 09:14:09.372,0.1,-0.245
2021-08-19 09:14:09.376,0.12,-0.24
2021-08-19 09:14:09.380,0.115,-0.23
2021-08-19 09:14:09.384,0.12,-0.23
2021-08-19 09:14:09.388,0.12,-0.2
2021-08-19 09:14:09.392,0.13,-0.195
2021-08-19 09:14:09.396,0.12,-0.19
2021-08-19 09:14:09.400,0.13,-0.18
2021-08-19 09:14:09.404,0.14,-0.205
2021-08-19 09:14:09.408,0.16,-0.2
2021-08-19 09:14:09.412,0.15,-0.19
2021-08-19 09:14:09.416,0.18,-0.2
2021-08-19 09:14:09.420,0.185,-0.205
2021-08-19 09:14:09.424,0.22,-0.21
2021-08-19 09:14:09.428,0.22,-0.19
2021-08-19 09:14:09.432,0.23,-0.17
2021-08-19 09:14:09.436,0.225,-0.17
2021-08-19 09:14:09.440,0.23,-0.16
2021-08-19 09:14:09.444,0.25,-0.155
2021-08-19 09:14:09.448,0.28,-0.165
2021-08-19 09:14:09.452,0.29,-0.195
2021-08-19 09:14:09.456,0.305,-0.195
2021-08-19 09:14:09.460,0.34,-0.215
2021-08-19 09:14:09.464,0.35,-0.2
2021-08-19 09:14:09.468,0.355,-0.22
2021-08-19 09:14:09.472,0.335,-0.225
2021-08-19 09:14:09.476,0.32,-0.225
2021-08-19 09:14:09.480,0.31,-0.22
2021-08-19 09:14:09.484,0.23,-0.23
2021-08-19 09:14:09.488,0.22,-0.215
2021-08-19 09:14:09.492,0.18,-0.225
2021-08-19 09:14:09.496,0.19,-0.185
2021-08-19 09:14:09.500,0.15,-0.16
2021-08-19 09:14:09.504,0.105,-0.145
2021-08-19 09:14:09.508,0.115,-0.125
2021-08-19 09:14:09.512,0.085,-0.12
2021-08-19 09:14:09.516,0.08,-0.075
2021-08-19 09:14:09.520,0.09,-0.055
2021-08-19 09:14:09.524,0.06,-0.05
2021-08-19 09:14:09.528,0.055,-0.04
2021-08-19 09:14:09.532,0.055,-0.045
2021-08-19 09:14:09.536,0.075,-0.055
2021-08-19 09:14:09.540,0.045,-0.055
2021-08-19 09:14:09.544,0.06,-0.09
2021-08-19 09:14:09.548,0.075,-0.08
2021-08-19 09:14:09.552,0.08,-0.085
2021-08-19 09:14:09.556,0.095,-0.1
2021-08-19 09:14:09.560,0.095,-0.11
2021-08-19 09:14:09.564,0.07,-0.11
2021-08-19 09:14:09.568,0.07,-0.125
2021-08-19 09:14:09.572,0.055,-0.13
2021-08-19 09:14:09.576,0.06,-0.1
2021-08-19 09:14:09.580,0.055,-0.08
2021-08-19 09:14:09.584,0.06,-0.065
2021-08-19 09:14:09.588,0.07,-0.055
2021-08-19 09:14:09.592,0.07,-0.025
2021-08-19 09:14:09.596,0.06,-0.025
2021-08-19 09:14:09.600,0.065,0.0
2021-08-19 09:14:09.604,0.065,-0.02
2021-08-19 09:14:09.608,0.065,-0.02
2021-08-19 09:14:09.612,0.095,-0.02
2021-08-19 09:14:09.616,0.09,-0.03
2021-08-19 09:14:09.620,0.09,-0.01
2021-08-19 09:14:09.624,0.1,-0.025
2021-08-19 09:14:09.628,0.105,-0.005
2021-08-19 09:14:09.632,0.1,-0.01
2021-08-19 09:14:09.636,0.11,-0.01
2021-08-19 09:14:09.640,0.13,-0.03
2021-08-19 09:14:09.644,0.125,-0.035
2021-08-19 09:14:09.648,0.165,-0.045
2021-08-19 09:14:09.652,0.185,-0.015
2021-08-19 09:14:09.656,0.185,0.0
2021-08-19 09:14:09.660,0.195,0.01
2021-08-19 09:14:09.664,0.215,0.005
2021-08-19 09:14:09.668,0.215,0.03
2021-08-19 09:14:09.672,0.22,0.07
2021-08-19 09:14:09.676,0.275,0.07
2021-08-19 09:14:09.680,0.3,0.08
2021-08-19 09:14:09.684,0.315,0.075
2021-08-19 09:14:09.688,0.32,0.08
2021-08-19 09:14:09.692,0.31,0.075
2021-08-19 09:14:09.696,0.32,0.035
2021-08-19 09:14:09.700,0.285,0.02
2021-08-19 09:14:09.704,0.24,0.015
2021-08-19 09:14:09.708,0.24,-0.015
2021-08-19 09:14:09.712,0.21,-0.03
2021-08-19 09:14:09.716,0.165,-0.035
2021-08-19 09:14:09.720,0.17,-0.045
2021-08-19 09:14:09.724,0.145,-0.065
2021-08-19 09:14:09.728,0.125,-0.085
2021-08-19 09:14:09.732,0.105,-0.09
2021-08-19 09:14:09.736,0.12,-0.055
2021-08-19 09:14:09.740,0.11,-0.1
2021-08-19 09:14:09.744,0.125,-0.1
2021-08-19 09:14:09.748,0.115,-0.14
2021-08-19 09:14:09.752,0.11,-0.16
2021-08-19 09:14:09.756,0.1,-0.17
2021-08-19 09:14:09.760,0.1,-0.215
2021-08-19 09:14:09.764,0.09,-0.21
2021-08-19 09:14:09.768,0.1,-0.235
2021-08-19 09:14:09.772,0.07,-0.235
2021-08-19 09:14:09.776,0.095,-0.23
2021-08-19 09:14:09.780,0.08,-0.24
2021-08-19 09:14:09.784,0.07,-0.24
2021-08-19 09:14:09.788,0.055,-0.22
2021-08-19 09:14:09.792,0.05,-0.17
2021-08-19 09:14:09.796,0.03,-0.13
2021-08-19 09:14:09.800,0.04,-0.07
2021-08-19 09:14:09.804,0.025,-0.02
2021-08-19 09:14:09.808,0.01,0.075
2021-08-19 09:14:09.812,0.02,0.3
2021-08-19 09:14:09.816,0.01,0.66
2021-08-19 09:14:09.820,0.025,0.98
2021-08-19 09:14:09.824,0.03,1.19
2021-08-19 09:14:09.828,0.04,1.245
2021-08-19 09:14:09.832,0.05,1.2
2021-08-19 09:14:09.836,0.035,1.02
2021-08-19 09:14:09.840,-0.01,0.7
2021-08-19 09:14:09.844,0.0,0.235
2021-08-19 09:14:09.848,-0.04,-0.21
2021-08-19 09:14:09.852,-0.185,-0.37
2021-08-19 09:14:09.856,-0.44,-0.215
2021-08-19 09:14:09.860,-0.745,0.05
2021-08-19 09:14:09.864,-1.015,0.09
2021-08-19 09:14:09.868,-1.18,-0.09
2021-08-19 09:14:09.872,-1.21,-0.295
2021-08-19 09:14:09.876,-1.09,-0.45
2021-08-19 09:14:09.880,-0.795,-0.51
2021-08-19 09:14:09.884,-0.41,-0.48
2021-08-19 09:14:09.888,-0.105,-0.4
2021-08-19 09:14:09.892,0.04,-0.265
2021-08-19 09:14:09.896,0.05,-0.155
2021-08-19 09:14:09.900,0.045,-0.105
2021-08-19 09:14:09.904,0.075,-0.07
2021-08-19 09:14:09.908,0.105,-0.08
2021-08-19 09:14:09.912,0.085,-0.07
2021-08-19 09:14:09.916,0.135,-0.065
2021-08-19 09:14:09.920,0.135,-0.08
2021-08-19 09:14:09.924,0.18,-0.1
2021-08-19 09:14:09.928,0.185,-0.095
2021-08-19 09:14:09.932,0.215,-0.11
2021-08-19 09:14:09.936,0.21,-0.15
2021-08-19 09:14:09.940,0.195,-0.125
2021-08-19 09:14:09.944,0.175,-0.12
2021-08-19 09:14:09.948,0.18,-0.13
2021-08-19 09:14:09.952,0.16,-0.13
2021-08-19 09:14:09.956,0.2,-0.14
2021-08-19 09:14:09.960,0.175,-0.155
2021-08-19 09:14:09.964,0.195,-0.165
2021-08-19 09:14:09.968,0.18,-0.175
2021-08-19 09:14:09.972,0.17,-0.16
2021-08-19 09:14:09.976,0.16,-0.2
2021-08-19 09:14:09.980,0.205,-0.225
2021-08-19 09:14:09.984,0.185,-0.245
2021-08-19 09:14:09.988,0.19,-0.28
2021-08-19 09:14:09.992,0.19,-0.285
2021-08-19 09:14:09.996,0.175,-0.295
2021-08-19 09:14:10.000,0.19,-0.29
2021-08-19 09:14:10.004,0.16,-0.3
2021-08-19 09:14:10.008,0.16,-0.29
2021-08-19 09:14:10.012,0.15,-0.28
2021-08-19 09:14:10.016,0.14,-0.315
2021-08-19 09:14:10.020,0.135,-0.315
2021-08-19 09:14:10.024,0.14,-0.295
2021-08-19 09:14:10.028,0.13,-0.28
2021-08-19 09:14:10.032,0.125,-0.265
2021-08-19 09:14:10.036,0.14,-0.25
2021-08-19 09:14:10.040,0.12,-0.235
2021-08-19 09:14:10.044,0.145,-0.225
2021-08-19 09:14:10.048,0.125,-0.215
2021-08-19 09:14:10.052,0.135,-0.21
2021-08-19 09:14:10.056,0.15,-0.185
2021-08-19 09:14:10.060,0.165,-0.185
2021-08-19 09:14:10.064,0.165,-0.21
2021-08-19 09:14:10.068,0.165,-0.215
2021-08-19 09:14:10.072,0.17,-0.23
2021-08-19 09:14:10.076,0.205,-0.245
2021-08-19 09:14:10.080,0.21,-0.25
2021-08-19 09:14:10.084,0.235,-0.235
2021-08-19 09:14:10.088,0.215,-0.255
2021-08-19 09:14:10.092,0.225,-0.23
2021-08-19 09:14:10.096,0.215,-0.2
2021-08-19 09:14:10.100,0.225,-0.22
2021-08-19 09:14:10.104,0.23,-0.175
2021-08-19 09:14:10.108,0.245,-0.135
2021-08-19 09:14:10.112,0.245,-0.11
2021-08-19 09:14:10.116,0.25,-0.06
2021-08-19 09:14:10.120,0.245,-0.05
2021-08-19 09:14:10.124,0.24,-0.05
2021-08-19 09:14:10.128,0.27,-0.045
2021-08-19 09:14:10.132,0.26,-0.04
2021-08-19 09:14:10.136,0.24,-0.035
2021-08-19 09:14:10.140,0.215,-0.055
2021-08-19 09:14:10.144,0.185,-0.06
2021-08-19 09:14:10.148,0.18,-0.08
2021-08-19 09:14:10.152,0.15,-0.095
2021-08-19 09:14:10.156,0.135,-0.08
2021-08-19 09:14:10.160,0.155,-0.08
2021-08-19 09:14:10.164,0.125,-0.085
2021-08-19 09:14:10.168,0.115,-0.105
2021-08-19 09:14:10.172,0.115,-0.11
2021-08-19 09:14:10.176,0.11,-0.105
2021-08-19 09:14:10.180,0.1,-0.14
2021-08-19 09:14:10.184,0.105,-0.145
2021-08-19 09:14:10.188,0.1,-0.175
2021-08-19 09:14:10.192,0.1,-0.195
2021-08-19 09:14:10.196,0.09,-0.21
2021-08-19 09:14:10.200,0.105,-0.21
2021-08-19 09:14:10.204,0.1,-0.23
2021-08-19 09:14:10.208,0.1,-0.26
2021-08-19 09:14:10.212,0.09,-0.26
2021-08-19 09:14:10.216,0.1,-0.27
2021-08-19 09:14:10.220,0.06,-0.26
2021-08-19 09:14:10.224,0.07,-0.26
2021-08-19 09:14:10.228,0.07,-0.24
2021-08-19 09:14:10.232,0.065,-0.245
2021-08-19 09:14:10.236,0.06,-0.235
2021-08-19 09:14:10.240,0.03,-0.225
2021-08-19 09:14:10.244,0.035,-0.23
2021-08-19 09:14:10.248,0.03,-0.2
2021-08-19 09:14:10.252,0.035,-0.18
2021-08-19 09:14:10.256,0.06,-0.16
2021-08-19 09:14:10.260,0.055,-0.155
2021-08-19 09:14:10.264,0.045,-0.14
2021-08-19 09:14:10.268,0.055,-0.115
2021-08-19 09:14:10.272,0.045,-0.1
2021-08-19 09:14:10.276,0.05,-0.09
2021-08-19 09:14:10.280,0.085,-0.085
2021-08-19 09:14:10.284,0.075,-0.1
2021-08-19 09:14:10.288,0.055,-0.1
2021-08-19 09:14:10.292,0.075,-0.095
2021-08-19 09:14:10.296,0.09,-0.09
2021-08-19 09:14:10.300,0.125,-0.115
2021-08-19 09:14:10.304,0.11,-0.115
2021-08-19 09:14:10.308,0.13,-0.135
2021-08-19 09:14:10.312,0.115,-0.15
2021-08-19 09:14:10.316,0.135,-0.125
2021-08-19 09:14:10.320,0.125,-0.135
2021-08-19 09:14:10.324,0.135,-0.125
2021-08-19 09:14:10.328,0.125,-0.11
2021-08-19 09:14:10.332,0.13,-0.1
2021-08-19 09:14:10.336,0.135,-0.065
2021-08-19 09:14:10.340,0.145,-0.02
2021-08-19 09:14:10.344,0.145,-0.02
2021-08-19 09:14:10.348,0.15,-0.045
2021-08-19 09:14:10.352,0.165,-0.06
2021-08-19 09:14:10.356,0.165,-0.05
2021-08-19 09:14:10.360,0.15,-0.07
2021-08-19 09:14:10.364,0.085,-0.06
2021-08-19 09:14:10.368,0.095,-0.075
2021-08-19 09:14:10.372,0.115,-0.065
2021-08-19 09:14:10.376,0.1,-0.09
2021-08-19 09:14:10.380,0.1,-0.095
2021-08-19 09:14:10.384,0.085,-0.08
2021-08-19 09:14:10.388,0.095,-0.09
2021-08-19 09:14:10.392,0.1,-0.115
2021-08-19 09:14:10.396,0.09,-0.12
2021-08-19 09:14:10.400,0.085,-0.12
2021-08-19 09:14:10.404,0.075,-0.125
2021-08-19 09:14:10.408,0.07,-0.14
2021-08-19 09:14:10.412,0.065,-0.16
2021-08-19 09:14:10.416,0.08,-0.17
2021-08-19 09:14:10.420,0.075,-0.185
2021-08-19 09:14:10.424,0.06,-0.225
2021-08-19 09:14:10.428,0.06,-0.265
2021-08-19 09:14:10.432,0.055,-0.275
2021-08-19 09:14:10.436,0.065,-0.29
2021-08-19 09:14:10.440,0.05,-0.31
2021-08-19 09:14:10.444,0.045,-0.295
2021-08-19 09:14:10.448,0.025,-0.275
2021-08-19 09:14:10.452,0.045,-0.27
2021-08-19 09:14:10.456,0.045,-0.26
2021-08-19 09:14:10.460,0.02,-0.265
2021-08-19 09:14:10.464,0.015,-0.24
2021-08-19 09:14:10.468,0.01,-0.225
2021-08-19 09:14:10.472,0.0,-0.215
2021-08-19 09:14:10.476,0.005,-0.21
2021-08-19 09:14:10.480,0.02,-0.17
2021-08-19 09:14:10.484,0.025,-0.16
2021-08-19 09:14:10.488,0.015,-0.13
2021-08-19 09:14:10.492,0.015,-0.12
2021-08-19 09:14:10.496,0.025,-0.12
2021-08-19 09:14:10.500,0.02,-0.125
2021-08-19 09:14:10.504,0.045,-0.145
2021-08-19 09:14:10.508,0.04,-0.145
2021-08-19 09:14:10.512,0.05,-0.145
2021-08-19 09:14:10.516,0.08,-0.18
2021-08-19 09:14:10.520,0.11,-0.165
2021-08-19 09:14:10.524,0.115,-0.155
2021-08-19 09:14:10.528,0.12,-0.19
2021-08-19 09:14:10.532,0.14,-0.205
2021-08-19 09:14:10.536,0.13,-0.205
2021-08-19 09:14:10.540,0.14,-0.225
2021-08-19 09:14:10.544,0.14,-0.24
2021-08-19 09:14:10.548,0.14,-0.25
2021-08-19 09:14:10.552,0.13,-0.22
2021-08-19 09:14:10.556,0.115,-0.2
2021-08-19 09:14:10.560,0.11,-0.165
2021-08-19 09:14:10.564,0.095,-0.17
2021-08-19 09:14:10.568,0.11,-0.16
2021-08-19 09:14:10.572,0.125,-0.15
2021-08-19 09:14:10.576,0.13,-0.14
2021-08-19 09:14:10.580,0.15,-0.14
2021-08-19 09:14:10.584,0.185,-0.1
2021-08-19 09:14:10.588,0.18,-0.135
2021-08-19 09:14:10.592,0.155,-0.15
2021-08-19 09:14:10.596,0.125,-0.16
2021-08-19 09:14:10.600,0.12,-0.155
2021-08-19 09:14:10.604,0.1,-0.17
2021-08-19 09:14:10.608,0.12,-0.18
2021-08-19 09:14:10.612,0.11,-0.18
2021-08-19 09:14:10.616,0.11,-0.195
2021-08-19 09:14:10.620,0.115,-0.2
2021-08-19 09:14:10.624,0.115,-0.2
2021-08-19 09:14:10.628,0.1,-0.19
2021-08-19 09:14:10.632,0.135,-0.225
2021-08-19 09:14:10.636,0.1,-0.215
2021-08-19 09:14:10.640,0.09,-0.225
2021-08-19 09:14:10.644,0.11,-0.22
2021-08-19 09:14:10.648,0.08,-0.26
2021-08-19 09:14:10.652,0.08,-0.31
2021-08-19 09:14:10.656,0.095,-0.31
2021-08-19 09:14:10.660,0.09,-0.3
2021-08-19 09:14:10.664,0.09,-0.315
2021-08-19 09:14:10.668,0.075,-0.32
2021-08-19 09:14:10.672,0.08,-0.32
2021-08-19 09:14:10.676,0.06,-0.32
2021-08-19 09:14:10.680,0.065,-0.29
2021-08-19 09:14:10.684,0.065,-0.265
2021-08-19 09:14:10.688,0.05,-0.27
2021-08-19 09:14:10.692,0.04,-0.265
2021-08-19 09:14:10.696,0.045,-0.265
2021-08-19 09:14:10.700,0.035,-0.22
2021-08-19 09:14:10.704,0.005,-0.2
2021-08-19 09:14:10.708,0.04,-0.19
2021-08-19 09:14:10.712,0.035,-0.175
2021-08-19 09:14:10.716,0.035,-0.13
2021-08-19 09:14:10.720,0.04,-0.115
2021-08-19 09:14:10.724,0.045,-0.13
2021-08-19 09:14:10.728,0.055,-0.13
2021-08-19 09:14:10.732,0.065,-0.135
2021-08-19 09:14:10.736,0.07,-0.135
2021-08-19 09:14:10.740,0.1,-0.14
2021-08-19 09:14:10.744,0.115,-0.135
2021-08-19 09:14:10.748,0.125,-0.14
2021-08-19 09:14:10.752,0.12,-0.145
2021-08-19 09:14:10.756,0.125,-0.16
2021-08-19 09:14:10.760,0.13,-0.15
2021-08-19 09:14:10.764,0.115,-0.15
2021-08-19 09:14:10.768,0.13,-0.12
2021-08-19 09:14:10.772,0.11,-0.11
2021-08-19 09:14:10.776,0.115,-0.095
2021-08-19 09:14:10.780,0.135,-0.06
2021-08-19 09:14:10.784,0.145,-0.04
2021-08-19 09:14:10.788,0.155,-0.015
2021-08-19 09:14:10.792,0.19,-0.025
2021-08-19 09:14:10.796,0.2,-0.005
2021-08-19 09:14:10.800,0.185,-0.015
2021-08-19 09:14:10.804,0.18,-0.05
2021-08-19 09:14:10.808,0.14,-0.05
2021-08-19 09:14:10.812,0.125,-0.065
2021-08-19 09:14:10.816,0.12,-0.06
2021-08-19 09:14:10.820,0.105,-0.045
2021-08-19 09:14:10.824,0.135,-0.03
2021-08-19 09:14:10.828,0.115,-0.03
2021-08-19 09:14:10.832,0.115,-0.06
2021-08-19 09:14:10.836,0.11,-0.065
2021-08-19 09:14:10.840,0.095,-0.1
2021-08-19 09:14:10.844,0.1,-0.125
2021-08-19 09:14:10.848,0.09,-0.125
2021-08-19 09:14:10.852,0.075,-0.14
2021-08-19 09:14:10.856,0.075,-0.16
2021-08-19 09:14:10.860,0.055,-0.16
2021-08-19 09:14:10.864,0.065,-0.17
2021-08-19 09:14:10.868,0.06,-0.16
2021-08-19 09:14:10.872,0.075,-0.195
2021-08-19 09:14:10.876,0.065,-0.21
2021-08-19 09:14:10.880,0.07,-0.24
2021-08-19 09:14:10.884,0.055,-0.245
2021-08-19 09:14:10.888,0.06,-0.28
2021-08-19 09:14:10.892,0.05,-0.305
2021-08-19 09:14:10.896,0.04,-0.315
2021-08-19 09:14:10.900,0.05,-0.305
2021-08-19 09:14:10.904,0.05,-0.305
2021-08-19 09:14:10.908,0.055,-0.315
2021-08-19 09:14:10.912,0.055,-0.295
2021-08-19 09:14:10.916,0.04,-0.275
2021-08-19 09:14:10.920,0.005,-0.265
2021-08-19 09:14:10.924,-0.005,-0.235
2021-08-19 09:14:10.928,-0.01,-0.195
2021-08-19 09:14:10.932,-0.01,-0.185
2021-08-19 09:14:10.936,0.015,-0.165
2021-08-19 09:14:10.940,0.005,-0.13
2021-08-19 09:14:10.944,0.015,-0.17
2021-08-19 09:14:10.948,0.025,-0.165
2021-08-19 09:14:10.952,0.06,-0.165
2021-08-19 09:14:10.956,0.045,-0.16
2021-08-19 09:14:10.960,0.055,-0.16
2021-08-19 09:14:10.964,0.09,-0.165
2021-08-19 09:14:10.968,0.075,-0.19
2021-08-19 09:14:10.972,0.08,-0.185
2021-08-19 09:14:10.976,0.085,-0.21
2021-08-19 09:14:10.980,0.1,-0.225
2021-08-19 09:14:10.984,0.105,-0.22
2021-08-19 09:14:10.988,0.095,-0.235
2021-08-19 09:14:10.992,0.115,-0.24
2021-08-19 09:14:10.996,0.105,-0.235
2021-08-19 09:14:11.000,0.09,-0.165
2021-08-19 09:14:11.004,0.075,-0.1
2021-08-19 09:14:11.008,0.11,-0.055
2021-08-19 09:14:11.012,0.095,-0.04
2021-08-19 09:14:11.016,0.125,-0.04
2021-08-19 09:14:11.020,0.14,-0.03
2021-08-19 09:14:11.024,0.145,0.0
2021-08-19 09:14:11.028,0.15,0.055
2021-08-19 09:14:11.032,0.135,0.095
2021-08-19 09:14:11.036,0.18,0.185
2021-08-19 09:14:11.040,0.115,0.35
2021-08-19 09:14:11.044,0.12,0.62
2021-08-19 09:14:11.048,0.12,0.875
2021-08-19 09:14:11.052,0.15,1.045
2021-08-19 09:14:11.056,0.14,1.08
2021-08-19 09:14:11.060,0.13,0.98
2021-08-19 09:14:11.064,0.08,0.775
2021-08-19 09:14:11.068,0.035,0.435
2021-08-19 09:14:11.072,0.005,-0.02
2021-08-19 09:14:11.076,-0.06,-0.45
2021-08-19 09:14:11.080,-0.215,-0.535
2021-08-19 09:14:11.084,-0.49,-0.315
2021-08-19 09:14:11.088,-0.77,-0.105
2021-08-19 09:14:11.092,-1.005,-0.145
2021-08-19 09:14:11.096,-1.145,-0.365
2021-08-19 09:14:11.100,-1.16,-0.56
2021-08-19 09:14:11.104,-1.06,-0.7
2021-08-19 09:14:11.108,-0.745,-0.75
2021-08-19 09:14:11.112,-0.4,-0.755
2021-08-19 09:14:11.116,-0.165,-0.67
2021-08-19 09:14:11.120,-0.085,-0.61
2021-08-19 09:14:11.124,-0.1,-0.56
2021-08-19 09:14:11.128,-0.115,-0.565
2021-08-19 09:14:11.132,-0.12,-0.545
2021-08-19 09:14:11.136,-0.125,-0.545
2021-08-19 09:14:11.140,-0.12,-0.54
2021-08-19 09:14:11.144,-0.065,-0.525
2021-08-19 09:14:11.148,-0.035,-0.49
2021-08-19 09:14:11.152,0.01,-0.435
2021-08-19 09:14:11.156,0.005,-0.41
2021-08-19 09:14:11.160,0.015,-0.41
2021-08-19 09:14:11.164,0.025,-0.37
2021-08-19 09:14:11.168,0.02,-0.34
2021-08-19 09:14:11.172,0.06,-0.3
2021-08-19 09:14:11.176,0.07,-0.32
2021-08-19 09:14:11.180,0.07,-0.31
2021-08-19 09:14:11.184,0.07,-0.28
2021-08-19 09:14:11.188,0.1,-0.29
2021-08-19 09:14:11.192,0.15,-0.29
2021-08-19 09:14:11.196,0.155,-0.31
2021-08-19 09:14:11.200,0.165,-0.3
2021-08-19 09:14:11.204,0.165,-0.305
2021-08-19 09:14:11.208,0.18,-0.315
2021-08-19 09:14:11.212,0.2,-0.315
2021-08-19 09:14:11.216,0.175,-0.3
2021-08-19 09:14:11.220,0.185,-0.285
2021-08-19 09:14:11.224,0.19,-0.285
2021-08-19 09:14:11.228,0.175,-0.27
2021-08-19 09:14:11.232,0.17,-0.24
2021-08-19 09:14:11.236,0.17,-0.215
2021-08-19 09:14:11.240,0.195,-0.215
2021-08-19 09:14:11.244,0.205,-0.215
2021-08-19 09:14:11.248,0.205,-0.235
2021-08-19 09:14:11.252,0.23,-0.235
2021-08-19 09:14:11.256,0.24,-0.265
2021-08-19 09:14:11.260,0.225,-0.28
2021-08-19 09:14:11.264,0.205,-0.3
2021-08-19 09:14:11.268,0.19,-0.315
2021-08-19 09:14:11.272,0.14,-0.34
2021-08-19 09:14:11.276,0.15,-0.375
2021-08-19 09:14:11.280,0.11,-0.375
2021-08-19 09:14:11.284,0.135,-0.385
2021-08-19 09:14:11.288,0.105,-0.39
2021-08-19 09:14:11.292,0.145,-0.405
2021-08-19 09:14:11.296,0.13,-0.405
2021-08-19 09:14:11.300,0.1,-0.405
2021-08-19 09:14:11.304,0.115,-0.42
2021-08-19 09:14:11.308,0.105,-0.42
2021-08-19 09:14:11.312,0.095,-0.425
2021-08-19 09:14:11.316,0.095,-0.455
2021-08-19 09:14:11.320,0.095,-0.45
2021-08-19 09:14:11.324,0.085,-0.45
2021-08-19 09:14:11.328,0.08,-0.49
2021-08-19 09:14:11.332,0.075,-0.49
2021-08-19 09:14:11.336,0.07,-0.515
2021-08-19 09:14:11.340,0.065,-0.535
2021-08-19 09:14:11.344,0.055,-0.565
2021-08-19 09:14:11.348,0.055,-0.57
2021-08-19 09:14:11.352,0.035,-0.555
2021-08-19 09:14:11.356,0.06,-0.56
2021-08-19 09:14:11.360,0.035,-0.535
2021-08-19 09:14:11.364,0.025,-0.52
2021-08-19 09:14:11.368,0.02,-0.5
2021-08-19 09:14:11.372,-0.01,-0.435
2021-08-19 09:14:11.376,0.0,-0.405
2021-08-19 09:14:11.380,-0.025,-0.355
2021-08-19 09:14:11.384,-0.025,-0.305
2021-08-19 09:14:11.388,-0.04,-0.28
2021-08-19 09:14:11.392,-0.04,-0.235
2021-08-19 09:14:11.396,-0.03,-0.195
2021-08-19 09:14:11.400,-0.035,-0.17
2021-08-19 09:14:11.404,-0.04,-0.125
2021-08-19 09:14:11.408,0.0,-0.09
2021-08-19 09:14:11.412,-0.015,-0.06
2021-08-19 09:14:11.416,-0.015,-0.025
2021-08-19 09:14:11.420,0.01,-0.005
2021-08-19 09:14:11.424,0.025,-0.015
2021-08-19 09:14:11.428,0.045,-0.02
2021-08-19 09:14:11.432,0.065,-0.035
2021-08-19 09:14:11.436,0.085,-0.025
2021-08-19 09:14:11.440,0.11,-0.03
2021-08-19 09:14:11.444,0.13,-0.05
2021-08-19 09:14:11.448,0.125,-0.045
2021-08-19 09:14:11.452,0.14,-0.055
2021-08-19 09:14:11.456,0.145,-0.025
2021-08-19 09:14:11.460,0.15,-0.025
2021-08-19 09:14:11.464,0.18,0.0
2021-08-19 09:14:11.468,0.175,0.005
2021-08-19 09:14:11.472,0.185,0.01
2021-08-19 09:14:11.476,0.16,-0.015
2021-08-19 09:14:11.480,0.17,-0.03
2021-08-19 09:14:11.484,0.145,-0.06
2021-08-19 09:14:11.488,0.16,-0.055
2021-08-19 09:14:11.492,0.17,-0.08
2021-08-19 09:14:11.496,0.135,-0.11
2021-08-19 09:14:11.500,0.15,-0.1
2021-08-19 09:14:11.504,0.125,-0.125
2021-08-19 09:14:11.508,0.13,-0.14
2021-08-19 09:14:11.512,0.13,-0.14
2021-08-19 09:14:11.516,0.115,-0.13
2021-08-19 09:14:11.520,0.11,-0.17
2021-08-19 09:14:11.524,0.125,-0.17
2021-08-19 09:14:11.528,0.12,-0.175
2021-08-19 09:14:11.532,0.12,-0.185
2021-08-19 09:14:11.536,0.115,-0.195
2021-08-19 09:14:11.540,0.095,-0.195
2021-08-19 09:14:11.544,0.105,-0.215
2021-08-19 09:14:11.548,0.115,-0.215
2021-08-19 09:14:11.552,0.12,-0.24
2021-08-19 09:14:11.556,0.1,-0.255
2021-08-19 09:14:11.560,0.105,-0.265
2021-08-19 09:14:11.564,0.115,-0.31
2021-08-19 09:14:11.568,0.08,-0.315
2021-08-19 09:14:11.572,0.085,-0.35
2021-08-19 09:14:11.576,0.085,-0.375
2021-08-19 09:14:11.580,0.08,-0.38
2021-08-19 09:14:11.584,0.075,-0.38
2021-08-19 09:14:11.588,0.05,-0.38
2021-08-19 09:14:11.592,0.055,-0.365
2021-08-19 09:14:11.596,0.045,-0.355
2021-08-19 09:14:11.600,0.045,-0.345
2021-08-19 09:14:11.604,0.03,-0.33
2021-08-19 09:14:11.608,0.03,-0.345
2021-08-19 09:14:11.612,0.01,-0.3
2021-08-19 09:14:11.616,0.01,-0.275
2021-08-19 09:14:11.620,0.025,-0.26
2021-08-19 09:14:11.624,0.015,-0.245
2021-08-19 09:14:11.628,0.03,-0.225
2021-08-19 09:14:11.632,0.045,-0.205
2021-08-19 09:14:11.636,0.035,-0.175
2021-08-19 09:14:11.640,0.04,-0.175
2021-08-19 09:14:11.644,0.04,-0.155
2021-08-19 09:14:11.648,0.03,-0.145
2021-08-19 09:14:11.652,0.05,-0.15
2021-08-19 09:14:11.656,0.065,-0.155
2021-08-19 09:14:11.660,0.065,-0.16
2021-08-19 09:14:11.664,0.08,-0.16
2021-08-19 09:14:11.668,0.1,-0.155
2021-08-19 09:14:11.672,0.115,-0.14
2021-08-19 09:14:11.676,0.1,-0.135
2021-08-19 09:14:11.680,0.135,-0.125
2021-08-19 09:14:11.684,0.14,-0.095
2021-08-19 09:14:11.688,0.15,-0.03
2021-08-19 09:14:11.692,0.165,-0.005
2021-08-19 09:14:11.696,0.175,0.02
2021-08-19 09:14:11.700,0.19,0.0
2021-08-19 09:14:11.704,0.175,0.015
2021-08-19 09:14:11.708,0.17,-0.005
2021-08-19 09:14:11.712,0.17,-0.015
2021-08-19 09:14:11.716,0.15,-0.04
2021-08-19 09:14:11.720,0.15,-0.055
2021-08-19 09:14:11.724,0.135,-0.075
2021-08-19 09:14:11.728,0.12,-0.085
2021-08-19 09:14:11.732,0.095,-0.11
2021-08-19 09:14:11.736,0.125,-0.095
2021-08-19 09:14:11.740,0.085,-0.1
2021-08-19 09:14:11.744,0.1,-0.105
2021-08-19 09:14:11.748,0.09,-0.14
2021-08-19 09:14:11.752,0.075,-0.155
2021-08-19 09:14:11.756,0.07,-0.15
2021-08-19 09:14:11.760,0.09,-0.16
2021-08-19 09:14:11.764,0.07,-0.16
2021-08-19 09:14:11.768,0.065,-0.21
2021-08-19 09:14:11.772,0.055,-0.205
2021-08-19 09:14:11.776,0.055,-0.2
2021-08-19 09:14:11.780,0.065,-0.245
2021-08-19 09:14:11.784,0.07,-0.275
2021-08-19 09:14:11.788,0.04,-0.29
2021-08-19 09:14:11.792,0.04,-0.33
2021-08-19 09:14:11.796,0.055,-0.35
2021-08-19 09:14:11.800,0.035,-0.35
2021-08-19 09:14:11.804,0.035,-0.375
2021-08-19 09:14:11.808,0.015,-0.37
2021-08-19 09:14:11.812,0.01,-0.385
2021-08-19 09:14:11.816,-0.005,-0.37
2021-08-19 09:14:11.820,-0.03,-0.35
2021-08-19 09:14:11.824,-0.02,-0.335
2021-08-19 09:14:11.828,-0.025,-0.32
2021-08-19 09:14:11.832,-0.04,-0.305
2021-08-19 09:14:11.836,-0.045,-0.285
2021-08-19 09:14:11.840,-0.055,-0.28
2021-08-19 09:14:11.844,-0.045,-0.25
2021-08-19 09:14:11.848,-0.035,-0.24
2021-08-19 09:14:11.852,-0.04,-0.235
2021-08-19 09:14:11.856,-0.02,-0.19
2021-08-19 09:14:11.860,-0.015,-0.17
2021-08-19 09:14:11.864,-0.02,-0.15
2021-08-19 09:14:11.868,-0.02,-0.14
2021-08-19 09:14:11.872,-0.03,-0.095
2021-08-19 09:14:11.876,0.0,-0.1
2021-08-19 09:14:11.880,-0.01,-0.12
2021-08-19 09:14:11.884,0.025,-0.145
2021-08-19 09:14:11.888,0.03,-0.155
2021-08-19 09:14:11.892,0.035,-0.16
2021-08-19 09:14:11.896,0.05,-0.17
2021-08-19 09:14:11.900,0.08,-0.175
2021-08-19 09:14:11.904,0.075,-0.145
2021-08-19 09:14:11.908,0.09,-0.13
2021-08-19 09:14:11.912,0.08,-0.125
2021-08-19 09:14:11.916,0.095,-0.105
2021-08-19 09:14:11.920,0.1,-0.06
2021-08-19 09:14:11.924,0.09,-0.02
2021-08-19 09:14:11.928,0.095,-0.005
2021-08-19 09:14:11.932,0.135,-0.005
2021-08-19 09:14:11.936,0.125,-0.015
2021-08-19 09:14:11.940,0.125,-0.035
2021-08-19 09:14:11.944,0.105,-0.065
2021-08-19 09:14:11.948,0.085,-0.09
2021-08-19 09:14:11.952,0.115,-0.09
2021-08-19 09:14:11.956,0.115,-0.1
2021-08-19 09:14:11.960,0.095,-0.105
2021-08-19 09:14:11.964,0.095,-0.13
2021-08-19 09:14:11.968,0.095,-0.17
2021-08-19 09:14:11.972,0.075,-0.18
2021-08-19 09:14:11.976,0.06,-0.175
2021-08-19 09:14:11.980,0.065,-0.17
2021-08-19 09:14:11.984,0.07,-0.16
2021-08-19 09:14:11.988,0.045,-0.17
2021-08-19 09:14:11.992,0.035,-0.17
2021-08-19 09:14:11.996,0.025,-0.16
2021-08-19 09:14:12.000,0.025,-0.135
2021-08-19 09:14:12.004,0.015,-0.095
2021-08-19 09:14:12.008,0.025,-0.02
2021-08-19 09:14:12.012,0.02,0.055
2021-08-19 09:14:12.016,0.015,0.2
2021-08-19 09:14:12.020,0.025,0.44
2021-08-19 09:14:12.024,0.025,0.68
2021-08-19 09:14:12.028,0.05,0.795
2021-08-19 09:14:12.032,0.06,0.78
2021-08-19 09:14:12.036,0.045,0.64
2021-08-19 09:14:12.040,-0.005,0.395
2021-08-19 09:14:12.044,-0.085,0.09
2021-08-19 09:14:12.048,-0.115,-0.31
2021-08-19 09:14:12.052,-0.195,-0.71
2021-08-19 09:14:12.056,-0.335,-0.795
2021-08-19 09:14:12.060,-0.59,-0.545
2021-08-19 09:14:12.064,-0.915,-0.225
2021-08-19 09:14:12.068,-1.16,-0.145
2021-08-19 09:14:12.072,-1.33,-0.3
2021-08-19 09:14:12.076,-1.35,-0.475
2021-08-19 09:14:12.080,-1.245,-0.605
2021-08-19 09:14:12.084,-0.93,-0.66
2021-08-19 09:14:12.088,-0.555,-0.65
2021-08-19 09:14:12.092,-0.26,-0.535
2021-08-19 09:14:12.096,-0.185,-0.42
2021-08-19 09:14:12.100,-0.16,-0.305
2021-08-19 09:14:12.104,-0.175,-0.27
2021-08-19 09:14:12.108,-0.17,-0.24
2021-08-19 09:14:12.112,-0.17,-0.255
2021-08-19 09:14:12.116,-0.12,-0.24
2021-08-19 09:14:12.120,-0.05,-0.255
2021-08-19 09:14:12.124,-0.005,-0.265
2021-08-19 09:14:12.128,0.055,-0.27
2021-08-19 09:14:12.132,0.095,-0.285
2021-08-19 09:14:12.136,0.125,-0.27
2021-08-19 09:14:12.140,0.135,-0.24
2021-08-19 09:14:12.144,0.155,-0.215
2021-08-19 09:14:12.148,0.18,-0.17
2021-08-19 09:14:12.152,0.19,-0.155
2021-08-19 09:14:12.156,0.18,-0.135
2021-08-19 09:14:12.160,0.18,-0.145
2021-08-19 09:14:12.164,0.155,-0.145
2021-08-19 09:14:12.168,0.16,-0.15
2021-08-19 09:14:12.172,0.16,-0.165
2021-08-19 09:14:12.176,0.155,-0.155
2021-08-19 09:14:12.180,0.155,-0.155
2021-08-19 09:14:12.184,0.145,-0.185
2021-08-19 09:14:12.188,0.16,-0.195
2021-08-19 09:14:12.192,0.16,-0.235
2021-08-19 09:14:12.196,0.14,-0.23
2021-08-19 09:14:12.200,0.135,-0.255
2021-08-19 09:14:12.204,0.115,-0.26
2021-08-19 09:14:12.208,0.125,-0.3
2021-08-19 09:14:12.212,0.12,-0.29
2021-08-19 09:14:12.216,0.105,-0.29
2021-08-19 09:14:12.220,0.105,-0.29
2021-08-19 09:14:12.224,0.095,-0.325
2021-08-19 09:14:12.228,0.075,-0.335
2021-08-19 09:14:12.232,0.08,-0.36
2021-08-19 09:14:12.236,0.05,-0.38
2021-08-19 09:14:12.240,0.09,-0.405
2021-08-19 09:14:12.244,0.07,-0.445
2021-08-19 09:14:12.248,0.07,-0.475
2021-08-19 09:14:12.252,0.055,-0.515
2021-08-19 09:14:12.256,0.065,-0.555
2021-08-19 09:14:12.260,0.035,-0.56
2021-08-19 09:14:12.264,0.05,-0.575
2021-08-19 09:14:12.268,0.035,-0.6
2021-08-19 09:14:12.272,0.02,-0.585
2021-08-19 09:14:12.276,0.0,-0.575
2021-08-19 09:14:12.280,0.0,-0.56
2021-08-19 09:14:12.284,-0.01,-0.55
2021-08-19 09:14:12.288,-0.02,-0.53
2021-08-19 09:14:12.292,-0.035,-0.51
2021-08-19 09:14:12.296,-0.005,-0.49
2021-08-19 09:14:12.300,-0.02,-0.44
2021-08-19 09:14:12.304,-0.015,-0.41
2021-08-19 09:14:12.308,-0.02,-0.39
2021-08-19 09:14:12.312,-0.015,-0.36
2021-08-19 09:14:12.316,-0.025,-0.295
2021-08-19 09:14:12.320,-0.01,-0.27
2021-08-19 09:14:12.324,-0.02,-0.245
2021-08-19 09:14:12.328,0.015,-0.235
2021-08-19 09:14:12.332,0.0,-0.22
2021-08-19 09:14:12.336,0.02,-0.21
2021-08-19 09:14:12.340,0.04,-0.18
2021-08-19 09:14:12.344,0.05,-0.175
2021-08-19 09:14:12.348,0.045,-0.175
2021-08-19 09:14:12.352,0.075,-0.16
2021-08-19 09:14:12.356,0.065,-0.13
2021-08-19 09:14:12.360,0.05,-0.1
2021-08-19 09:14:12.364,0.06,-0.075
2021-08-19 09:14:12.368,0.075,-0.035
2021-08-19 09:14:12.372,0.075,-0.015
2021-08-19 09:14:12.376,0.09,0.005
2021-08-19 09:14:12.380,0.1,0.005
2021-08-19 09:14:12.384,0.095,0.015
2021-08-19 09:14:12.388,0.095,0.0
2021-08-19 09:14:12.392,0.095,-0.01
2021-08-19 09:14:12.396,0.105,-0.01
2021-08-19 09:14:12.400,0.09,-0.025
2021-08-19 09:14:12.404,0.095,-0.055
2021-08-19 09:14:12.408,0.085,-0.04
2021-08-19 09:14:12.412,0.095,-0.06
2021-08-19 09:14:12.416,0.05,-0.065
2021-08-19 09:14:12.420,0.03,-0.065
2021-08-19 09:14:12.424,0.05,-0.09
2021-08-19 09:14:12.428,0.045,-0.115
2021-08-19 09:14:12.432,0.045,-0.14
2021-08-19 09:14:12.436,0.05,-0.145
2021-08-19 09:14:12.440,0.025,-0.145
2021-08-19 09:14:12.444,0.04,-0.16
2021-08-19 09:14:12.448,0.05,-0.18
2021-08-19 09:14:12.452,0.05,-0.17
2021-08-19 09:14:12.456,0.05,-0.16
2021-08-19 09:14:12.460,0.035,-0.17
2021-08-19 09:14:12.464,0.045,-0.195
2021-08-19 09:14:12.468,0.055,-0.22
2021-08-19 09:14:12.472,0.04,-0.26
2021-08-19 09:14:12.476,0.045,-0.295
2021-08-19 09:14:12.480,0.03,-0.325
2021-08-19 09:14:12.484,0.04,-0.37
2021-08-19 09:14:12.488,0.03,-0.39
2021-08-19 09:14:12.492,0.03,-0.4
2021-08-19 09:14:12.496,0.02,-0.4
2021-08-19 09:14:12.500,0.01,-0.4
2021-08-19 09:14:12.504,-0.005,-0.385
2021-08-19 09:14:12.508,-0.035,-0.345
2021-08-19 09:14:12.512,-0.02,-0.32
2021-08-19 09:14:12.516,-0.005,-0.31
2021-08-19 09:14:12.520,-0.04,-0.285
2021-08-19 09:14:12.524,-0.03,-0.25
2021-08-19 09:14:12.528,-0.035,-0.24
2021-08-19 09:14:12.532,-0.04,-0.19
2021-08-19 09:14:12.536,-0.04,-0.165
2021-08-19 09:14:12.540,-0.03,-0.13
2021-08-19 09:14:12.544,-0.02,-0.135
2021-08-19 09:14:12.548,-0.02,-0.135
2021-08-19 09:14:12.552,0.01,-0.135
2021-08-19 09:14:12.556,0.0,-0.135
2021-08-19 09:14:12.560,-0.005,-0.13
2021-08-19 09:14:12.564,0.02,-0.12
2021-08-19 09:14:12.568,0.04,-0.125
2021-08-19 09:14:12.572,0.045,-0.1
2021-08-19 09:14:12.576,0.04,-0.05
2021-08-19 09:14:12.580,0.065,0.02
2021-08-19 09:14:12.584,0.06,0.085
2021-08-19 09:14:12.588,0.075,0.255
2021-08-19 09:14:12.592,0.06,0.505
2021-08-19 09:14:12.596,0.09,0.795
2021-08-19 09:14:12.600,0.1,1.025
2021-08-19 09:14:12.604,0.125,1.075
2021-08-19 09:14:12.608,0.125,0.965
2021-08-19 09:14:12.612,0.1,0.765
2021-08-19 09:14:12.616,0.015,0.505
2021-08-19 09:14:12.620,-0.035,0.1
2021-08-19 09:14:12.624,-0.085,-0.31
2021-08-19 09:14:12.628,-0.165,-0.52
2021-08-19 09:14:12.632,-0.385,-0.375
2021-08-19 09:14:12.636,-0.68,-0.035
2021-08-19 09:14:12.640,-0.995,0.125
2021-08-19 09:14:12.644,-1.24,-0.01
2021-08-19 09:14:12.648,-1.33,-0.205
2021-08-19 09:14:12.652,-1.28,-0.345
2021-08-19 09:14:12.656,-1.02,-0.405
2021-08-19 09:14:12.660,-0.595,-0.395
2021-08-19 09:14:12.664,-0.245,-0.34
2021-08-19 09:14:12.668,-0.125,-0.245
2021-08-19 09:14:12.672,-0.1,-0.21
2021-08-19 09:14:12.676,-0.14,-0.195
2021-08-19 09:14:12.680,-0.135,-0.205
2021-08-19 09:14:12.684,-0.11,-0.195
2021-08-19 09:14:12.688,-0.11,-0.225
2021-08-19 09:14:12.692,-0.06,-0.28
2021-08-19 09:14:12.696,0.0,-0.305
2021-08-19 09:14:12.700,0.025,-0.315
2021-08-19 09:14:12.704,0.055,-0.34
2021-08-19 09:14:12.708,0.04,-0.375
2021-08-19 09:14:12.712,0.065,-0.375
2021-08-19 09:14:12.716,0.065,-0.39
2021-08-19 09:14:12.720,0.085,-0.395
2021-08-19 09:14:12.724,0.06,-0.38
2021-08-19 09:14:12.728,0.04,-0.37
2021-08-19 09:14:12.732,0.045,-0.35
2021-08-19 09:14:12.736,0.03,-0.35
2021-08-19 09:14:12.740,0.035,-0.275
2021-08-19 09:14:12.744,0.035,-0.245
2021-08-19 09:14:12.748,0.045,-0.215
2021-08-19 09:14:12.752,0.06,-0.185
2021-08-19 09:14:12.756,0.05,-0.16
2021-08-19 09:14:12.760,0.055,-0.16
2021-08-19 09:14:12.764,0.065,-0.16
2021-08-19 09:14:12.768,0.09,-0.16
2021-08-19 09:14:12.772,0.085,-0.15
2021-08-19 09:14:12.776,0.115,-0.16
2021-08-19 09:14:12.780,0.135,-0.18
2021-08-19 09:14:12.784,0.155,-0.225
2021-08-19 09:14:12.788,0.155,-0.21
2021-08-19 09:14:12.792,0.195,-0.19
2021-08-19 09:14:12.796,0.2,-0.17
2021-08-19 09:14:12.800,0.205,-0.165
2021-08-19 09:14:12.804,0.195,-0.19
2021-08-19 09:14:12.808,0.21,-0.2
2021-08-19 09:14:12.812,0.23,-0.165
2021-08-19 09:14:12.816,0.25,-0.145
2021-08-19 09:14:12.820,0.245,-0.115
2021-08-19 09:14:12.824,0.23,-0.11
2021-08-19 09:14:12.828,0.22,-0.125
2021-08-19 09:14:12.832,0.195,-0.155
2021-08-19 09:14:12.836,0.17,-0.14
2021-08-19 09:14:12.840,0.165,-0.155
2021-08-19 09:14:12.844,0.17,-0.15
2021-08-19 09:14:12.848,0.165,-0.175
2021-08-19 09:14:12.852,0.16,-0.14
2021-08-19 09:14:12.856,0.175,-0.16
2021-08-19 09:14:12.860,0.165,-0.145
2021-08-19 09:14:12.864,0.145,-0.15
2021-08-19 09:14:12.868,0.16,-0.155
2021-08-19 09:14:12.872,0.185,-0.17
2021-08-19 09:14:12.876,0.16,-0.12
2021-08-19 09:14:12.880,0.155,-0.13
2021-08-19 09:14:12.884,0.155,-0.1
2021-08-19 09:14:12.888,0.17,-0.085
2021-08-19 09:14:12.892,0.15,-0.08
2021-08-19 09:14:12.896,0.145,-0.085
2021-08-19 09:14:12.900,0.135,-0.085
2021-08-19 09:14:12.904,0.115,-0.075
2021-08-19 09:14:12.908,0.11,-0.115
2021-08-19 09:14:12.912,0.125,-0.135
2021-08-19 09:14:12.916,0.13,-0.15
2021-08-19 09:14:12.920,0.115,-0.195
2021-08-19 09:14:12.924,0.08,-0.225
2021-08-19 09:14:12.928,0.09,-0.22
2021-08-19 09:14:12.932,0.085,-0.245
2021-08-19 09:14:12.936,0.095,-0.265
2021-08-19 09:14:12.940,0.065,-0.265
2021-08-19 09:14:12.944,0.065,-0.27
2021-08-19 09:14:12.948,0.04,-0.265
2021-08-19 09:14:12.952,0.045,-0.225
2021-08-19 09:14:12.956,0.02,-0.225
2021-08-19 09:14:12.960,0.02,-0.19
2021-08-19 09:14:12.964,0.025,-0.18
2021-08-19 09:14:12.968,0.01,-0.17
2021-08-19 09:14:12.972,0.0,-0.11
2021-08-19 09:14:12.976,0.01,-0.065
2021-08-19 09:14:12.980,0.01,-0.03
2021-08-19 09:14:12.984,0.005,-0.03
2021-08-19 09:14:12.988,0.005,-0.01
2021-08-19 09:14:12.992,0.015,-0.01
2021-08-19 09:14:12.996,0.04,-0.005
2021-08-19 09:14:13.000,0.075,-0.03
2021-08-19 09:14:13.004,0.08,-0.03
2021-08-19 09:14:13.008,0.105,-0.02
2021-08-19 09:14:13.012,0.115,-0.055
2021-08-19 09:14:13.016,0.12,-0.03
2021-08-19 09:14:13.020,0.125,-0.01
2021-08-19 09:14:13.024,0.14,0.005
2021-08-19 09:14:13.028,0.16,0.03
2021-08-19 09:14:13.032,0.15,0.085
2021-08-19 09:14:13.036,0.135,0.1
2021-08-19 09:14:13.040,0.15,0.105
2021-08-19 09:14:13.044,0.16,0.09
2021-08-19 09:14:13.048,0.155,0.065
2021-08-19 09:14:13.052,0.13,0.05
2021-08-19 09:14:13.056,0.135,0.06
2021-08-19 09:14:13.060,0.11,0.025
2021-08-19 09:14:13.064,0.105,0.04
2021-08-19 09:14:13.068,0.085,0.045
2021-08-19 09:14:13.072,0.07,0.05
2021-08-19 09:14:13.076,0.07,0.02
2021-08-19 09:14:13.080,0.07,0.02
2021-08-19 09:14:13.084,0.055,0.005
2021-08-19 09:14:13.088,0.07,-0.035
2021-08-19 09:14:13.092,0.065,-0.06
2021-08-19 09:14:13.096,0.04,-0.06
2021-08-19 09:14:13.100,0.05,-0.065
2021-08-19 09:14:13.104,0.045,-0.08
2021-08-19 09:14:13.108,0.025,-0.085
2021-08-19 09:14:13.112,0.03,-0.08
2021-08-19 09:14:13.116,0.05,-0.08
2021-08-19 09:14:13.120,0.035,-0.1
2021-08-19 09:14:13.124,0.04,-0.12
2021-08-19 09:14:13.128,0.03,-0.175
2021-08-19 09:14:13.132,0.025,-0.2
2021-08-19 09:14:13.136,0.025,-0.245
2021-08-19 09:14:13.140,0.005,-0.27
2021-08-19 09:14:13.144,-0.005,-0.305
2021-08-19 09:14:13.148,0.0,-0.29
2021-08-19 09:14:13.152,-0.02,-0.33
2021-08-19 09:14:13.156,-0.035,-0.33
2021-08-19 09:14:13.160,-0.025,-0.325
2021-08-19 09:14:13.164,-0.025,-0.315
2021-08-19 09:14:13.168,-0.055,-0.295
2021-08-19 09:14:13.172,-0.06,-0.275
2021-08-19 09:14:13.176,-0.065,-0.25
2021-08-19 09:14:13.180,-0.095,-0.22
2021-08-19 09:14:13.184,-0.095,-0.17
2021-08-19 09:14:13.188,-0.09,-0.18
2021-08-19 09:14:13.192,-0.08,-0.165
2021-08-19 09:14:13.196,-0.075,-0.13
2021-08-19 09:14:13.200,-0.05,-0.12
2021-08-19 09:14:13.204,-0.06,-0.09
2021-08-19 09:14:13.208,-0.06,-0.08
2021-08-19 09:14:13.212,-0.05,-0.08
2021-08-19 09:14:13.216,-0.075,-0.075
2021-08-19 09:14:13.220,-0.03,-0.1
2021-08-19 09:14:13.224,-0.025,-0.11
2021-08-19 09:14:13.228,0.015,-0.135
2021-08-19 09:14:13.232,0.015,-0.13
2021-08-19 09:14:13.236,0.04,-0.115
2021-08-19 09:14:13.240,0.04,-0.12
2021-08-19 09:14:13.244,0.075,-0.1
2021-08-19 09:14:13.248,0.045,-0.06
2021-08-19 09:14:13.252,0.075,-0.055
2021-08-19 09:14:13.256,0.065,-0.025
2021-08-19 09:14:13.260,0.06,-0.02
2021-08-19 09:14:13.264,0.085,-0.04
2021-08-19 09:14:13.268,0.09,-0.055
2021-08-19 09:14:13.272,0.125,-0.035
2021-08-19 09:14:13.276,0.095,-0.025
2021-08-19 09:14:13.280,0.105,-0.01
2021-08-19 09:14:13.284,0.1,-0.065
2021-08-19 09:14:13.288,0.09,-0.1
2021-08-19 09:14:13.292,0.055,-0.13
2021-08-19 09:14:13.296,0.035,-0.12
2021-08-19 09:14:13.300,0.03,-0.115
2021-08-19 09:14:13.304,0.02,-0.135
2021-08-19 09:14:13.308,0.035,-0.165
2021-08-19 09:14:13.312,0.02,-0.15
2021-08-19 09:14:13.316,0.015,-0.165
2021-08-19 09:14:13.320,0.02,-0.17
2021-08-19 09:14:13.324,0.065,-0.195
2021-08-19 09:14:13.328,0.07,-0.21
2021-08-19 09:14:13.332,0.02,-0.205
2021-08-19 09:14:13.336,0.025,-0.22
2021-08-19 09:14:13.340,0.025,-0.235
2021-08-19 09:14:13.344,0.035,-0.255
2021-08-19 09:14:13.348,0.02,-0.275
2021-08-19 09:14:13.352,0.0,-0.31
2021-08-19 09:14:13.356,0.005,-0.315
2021-08-19 09:14:13.360,-0.01,-0.32
2021-08-19 09:14:13.364,-0.01,-0.32
2021-08-19 09:14:13.368,0.0,-0.29
2021-08-19 09:14:13.372,0.0,-0.245
2021-08-19 09:14:13.376,-0.02,-0.16
2021-08-19 09:14:13.380,-0.005,0.025
2021-08-19 09:14:13.384,-0.025,0.29
2021-08-19 09:14:13.388,-0.015,0.575
2021-08-19 09:14:13.392,0.015,0.825
2021-08-19 09:14:13.396,0.035,0.955
2021-08-19 09:14:13.400,-0.01,0.955
2021-08-19 09:14:13.404,-0.045,0.86
2021-08-19 09:14:13.408,-0.1,0.615
2021-08-19 09:14:13.412,-0.12,0.225
2021-08-19 09:14:13.416,-0.165,-0.205
2021-08-19 09:14:13.420,-0.25,-0.445
2021-08-19 09:14:13.424,-0.46,-0.365
2021-08-19 09:14:13.428,-0.77,-0.165
2021-08-19 09:14:13.432,-1.015,-0.145
2021-08-19 09:14:13.436,-1.19,-0.3
2021-08-19 09:14:13.440,-1.23,-0.47
2021-08-19 09:14:13.444,-1.115,-0.62
2021-08-19 09:14:13.448,-0.865,-0.67
2021-08-19 09:14:13.452,-0.51,-0.71
2021-08-19 09:14:13.456,-0.25,-0.64
2021-08-19 09:14:13.460,-0.135,-0.54
2021-08-19 09:14:13.464,-0.095,-0.435
2021-08-19 09:14:13.468,-0.09,-0.38
2021-08-19 09:14:13.472,-0.105,-0.36
2021-08-19 09:14:13.476,-0.09,-0.35
2021-08-19 09:14:13.480,-0.05,-0.36
2021-08-19 09:14:13.484,-0.005,-0.35
2021-08-19 09:14:13.488,0.075,-0.33
2021-08-19 09:14:13.492,0.105,-0.31
2021-08-19 09:14:13.496,0.145,-0.3
2021-08-19 09:14:13.500,0.15,-0.335
2021-08-19 09:14:13.504,0.12,-0.355
2021-08-19 09:14:13.508,0.105,-0.36
2021-08-19 09:14:13.512,0.105,-0.38
2021-08-19 09:14:13.516,0.115,-0.385
2021-08-19 09:14:13.520,0.12,-0.4
2021-08-19 09:14:13.524,0.095,-0.395
2021-08-19 09:14:13.528,0.085,-0.41
2021-08-19 09:14:13.532,0.08,-0.415
2021-08-19 09:14:13.536,0.06,-0.42
2021-08-19 09:14:13.540,0.05,-0.445
2021-08-19 09:14:13.544,0.08,-0.47
2021-08-19 09:14:13.548,0.075,-0.47
2021-08-19 09:14:13.552,0.055,-0.47
2021-08-19 09:14:13.556,0.07,-0.49
2021-08-19 09:14:13.560,0.075,-0.475
2021-08-19 09:14:13.564,0.06,-0.505
2021-08-19 09:14:13.568,0.05,-0.52
2021-08-19 09:14:13.572,0.035,-0.57
2021-08-19 09:14:13.576,0.07,-0.59
2021-08-19 09:14:13.580,0.03,-0.64
2021-08-19 09:14:13.584,0.05,-0.655
2021-08-19 09:14:13.588,0.05,-0.64
2021-08-19 09:14:13.592,0.06,-0.625
2021-08-19 09:14:13.596,0.05,-0.655
2021-08-19 09:14:13.600,0.03,-0.685
2021-08-19 09:14:13.604,0.025,-0.69
2021-08-19 09:14:13.608,-0.01,-0.695
2021-08-19 09:14:13.612,-0.015,-0.725
2021-08-19 09:14:13.616,0.005,-0.695
2021-08-19 09:14:13.620,-0.015,-0.69
2021-08-19 09:14:13.624,-0.04,-0.655
2021-08-19 09:14:13.628,-0.035,-0.655
2021-08-19 09:14:13.632,-0.025,-0.59
2021-08-19 09:14:13.636,-0.045,-0.575
2021-08-19 09:14:13.640,-0.04,-0.555
2021-08-19 09:14:13.644,-0.02,-0.54
2021-08-19 09:14:13.648,-0.01,-0.545
2021-08-19 09:14:13.652,-0.025,-0.505
2021-08-19 09:14:13.656,0.0,-0.485
2021-08-19 09:14:13.660,0.02,-0.48
2021-08-19 09:14:13.664,0.01,-0.515
2021-08-19 09:14:13.668,0.025,-0.505
2021-08-19 09:14:13.672,0.03,-0.46
2021-08-19 09:14:13.676,0.045,-0.45
2021-08-19 09:14:13.680,0.06,-0.45
2021-08-19 09:14:13.684,0.08,-0.45
2021-08-19 09:14:13.688,0.07,-0.4
2021-08-19 09:14:13.692,0.085,-0.35
2021-08-19 09:14:13.696,0.08,-0.32
2021-08-19 09:14:13.700,0.085,-0.295
2021-08-19 09:14:13.704,0.08,-0.255
2021-08-19 09:14:13.708,0.09,-0.195
2021-08-19 09:14:13.712,0.105,-0.13
2021-08-19 09:14:13.716,0.115,-0.1
2021-08-19 09:14:13.720,0.12,-0.115
2021-08-19 09:14:13.724,0.115,-0.12
2021-08-19 09:14:13.728,0.085,-0.115
2021-08-19 09:14:13.732,0.115,-0.105
2021-08-19 09:14:13.736,0.08,-0.115
2021-08-19 09:14:13.740,0.09,-0.115
2021-08-19 09:14:13.744,0.085,-0.105
2021-08-19 09:14:13.748,0.065,-0.095
2021-08-19 09:14:13.752,0.075,-0.125
2021-08-19 09:14:13.756,0.075,-0.13
2021-08-19 09:14:13.760,0.04,-0.13
2021-08-19 09:14:13.764,0.045,-0.16
2021-08-19 09:14:13.768,0.03,-0.19
2021-08-19 09:14:13.772,0.04,-0.175
2021-08-19 09:14:13.776,0.055,-0.18
2021-08-19 09:14:13.780,0.045,-0.155
2021-08-19 09:14:13.784,0.06,-0.175
2021-08-19 09:14:13.788,0.06,-0.19
2021-08-19 09:14:13.792,0.06,-0.195
2021-08-19 09:14:13.796,0.025,-0.21
2021-08-19 09:14:13.800,0.025,-0.235
2021-08-19 09:14:13.804,0.02,-0.26
2021-08-19 09:14:13.808,0.025,-0.295
2021-08-19 09:14:13.812,0.04,-0.285
2021-08-19 09:14:13.816,0.05,-0.31
2021-08-19 09:14:13.820,0.01,-0.35
2021-08-19 09:14:13.824,0.025,-0.355
2021-08-19 09:14:13.828,0.025,-0.365
2021-08-19 09:14:13.832,0.025,-0.32
2021-08-19 09:14:13.836,0.0,-0.315
2021-08-19 09:14:13.840,0.0,-0.315
2021-08-19 09:14:13.844,-0.005,-0.305
2021-08-19 09:14:13.848,-0.03,-0.31
2021-08-19 09:14:13.852,-0.03,-0.285
2021-08-19 09:14:13.856,-0.045,-0.255
2021-08-19 09:14:13.860,-0.01,-0.245
2021-08-19 09:14:13.864,-0.015,-0.2
2021-08-19 09:14:13.868,-0.01,-0.19
2021-08-19 09:14:13.872,-0.025,-0.19
2021-08-19 09:14:13.876,-0.025,-0.18
2021-08-19 09:14:13.880,-0.02,-0.155
2021-08-19 09:14:13.884,-0.02,-0.16
2021-08-19 09:14:13.888,-0.025,-0.15
2021-08-19 09:14:13.892,-0.015,-0.115
2021-08-19 09:14:13.896,0.005,-0.09
2021-08-19 09:14:13.900,0.015,-0.115
2021-08-19 09:14:13.904,0.025,-0.13
2021-08-19 09:14:13.908,0.04,-0.18
2021-08-19 09:14:13.912,0.015,-0.19
2021-08-19 09:14:13.916,0.045,-0.19
2021-08-19 09:14:13.920,0.05,-0.185
2021-08-19 09:14:13.924,0.07,-0.19
2021-08-19 09:14:13.928,0.04,-0.15
2021-08-19 09:14:13.932,0.06,-0.07
2021-08-19 09:14:13.936,0.06,-0.03
2021-08-19 09:14:13.940,0.07,-0.02
2021-08-19 09:14:13.944,0.075,-0.02
2021-08-19 09:14:13.948,0.07,-0.045
2021-08-19 09:14:13.952,0.065,-0.02
2021-08-19 09:14:13.956,0.05,-0.05
2021-08-19 09:14:13.960,0.04,-0.06
2021-08-19 09:14:13.964,0.03,-0.08
2021-08-19 09:14:13.968,0.02,-0.075
2021-08-19 09:14:13.972,0.035,-0.08
2021-08-19 09:14:13.976,0.035,-0.1
2021-08-19 09:14:13.980,0.025,-0.12
2021-08-19 09:14:13.984,0.035,-0.135
2021-08-19 09:14:13.988,0.005,-0.13
2021-08-19 09:14:13.992,0.02,-0.125
2021-08-19 09:14:13.996,0.01,-0.13
2021-08-19 09:14:14.000,0.0,-0.13
2021-08-19 09:14:14.004,0.0,-0.15
2021-08-19 09:14:14.008,-0.025,-0.17
2021-08-19 09:14:14.012,0.0,-0.16
2021-08-19 09:14:14.016,-0.025,-0.175
2021-08-19 09:14:14.020,-0.01,-0.185
2021-08-19 09:14:14.024,-0.02,-0.2
2021-08-19 09:14:14.028,-0.02,-0.24
2021-08-19 09:14:14.032,-0.005,-0.245
2021-08-19 09:14:14.036,-0.025,-0.26
2021-08-19 09:14:14.040,-0.025,-0.275
2021-08-19 09:14:14.044,-0.04,-0.26
2021-08-19 09:14:14.048,-0.045,-0.32
2021-08-19 09:14:14.052,-0.05,-0.34
2021-08-19 09:14:14.056,-0.045,-0.345
2021-08-19 09:14:14.060,-0.055,-0.335
2021-08-19 09:14:14.064,-0.08,-0.295
2021-08-19 09:14:14.068,-0.065,-0.255
2021-08-19 09:14:14.072,-0.06,-0.23
2021-08-19 09:14:14.076,-0.085,-0.22
2021-08-19 09:14:14.080,-0.105,-0.165
2021-08-19 09:14:14.084,-0.09,-0.14
2021-08-19 09:14:14.088,-0.1,-0.14
2021-08-19 09:14:14.092,-0.1,-0.125
2021-08-19 09:14:14.096,-0.095,-0.12
2021-08-19 09:14:14.100,-0.08,-0.1
2021-08-19 09:14:14.104,-0.07,-0.08
2021-08-19 09:14:14.108,-0.075,-0.07
2021-08-19 09:14:14.112,-0.08,-0.08
2021-08-19 09:14:14.116,-0.07,-0.08
2021-08-19 09:14:14.120,-0.05,-0.085
2021-08-19 09:14:14.124,-0.03,-0.13
2021-08-19 09:14:14.128,-0.03,-0.105
2021-08-19 09:14:14.132,-0.005,-0.11
2021-08-19 09:14:14.136,-0.02,-0.08
2021-08-19 09:14:14.140,-0.01,-0.08
2021-08-19 09:14:14.144,-0.02,-0.105
2021-08-19 09:14:14.148,-0.03,-0.125
2021-08-19 09:14:14.152,0.0,-0.13
2021-08-19 09:14:14.156,0.0,-0.125
2021-08-19 09:14:14.160,0.02,-0.1
2021-08-19 09:14:14.164,0.03,-0.065
2021-08-19 09:14:14.168,0.03,-0.05
2021-08-19 09:14:14.172,0.025,-0.02
2021-08-19 09:14:14.176,0.04,-0.02
2021-08-19 09:14:14.180,0.02,-0.025
2021-08-19 09:14:14.184,0.01,-0.045
2021-08-19 09:14:14.188,-0.02,-0.05
2021-08-19 09:14:14.192,-0.045,-0.08
2021-08-19 09:14:14.196,-0.025,-0.07
2021-08-19 09:14:14.200,-0.02,-0.095
2021-08-19 09:14:14.204,-0.03,-0.115
2021-08-19 09:14:14.208,-0.025,-0.14
2021-08-19 09:14:14.212,-0.04,-0.09
2021-08-19 09:14:14.216,-0.035,-0.065
2021-08-19 09:14:14.220,-0.05,-0.085
2021-08-19 09:14:14.224,-0.05,-0.12
2021-08-19 09:14:14.228,-0.04,-0.115
2021-08-19 09:14:14.232,-0.06,-0.125
2021-08-19 09:14:14.236,-0.075,-0.14
2021-08-19 09:14:14.240,-0.055,-0.16
2021-08-19 09:14:14.244,-0.065,-0.18
2021-08-19 09:14:14.248,-0.055,-0.175
2021-08-19 09:14:14.252,-0.06,-0.195
2021-08-19 09:14:14.256,-0.065,-0.205
2021-08-19 09:14:14.260,-0.075,-0.23
2021-08-19 09:14:14.264,-0.075,-0.23
2021-08-19 09:14:14.268,-0.09,-0.235
2021-08-19 09:14:14.272,-0.075,-0.24
2021-08-19 09:14:14.276,-0.1,-0.26
2021-08-19 09:14:14.280,-0.1,-0.3
2021-08-19 09:14:14.284,-0.1,-0.335
2021-08-19 09:14:14.288,-0.1,-0.35
2021-08-19 09:14:14.292,-0.07,-0.36
2021-08-19 09:14:14.296,-0.085,-0.375
2021-08-19 09:14:14.300,-0.095,-0.395
2021-08-19 09:14:14.304,-0.105,-0.375
2021-08-19 09:14:14.308,-0.095,-0.36
2021-08-19 09:14:14.312,-0.12,-0.31
2021-08-19 09:14:14.316,-0.14,-0.24
2021-08-19 09:14:14.320,-0.13,-0.23
2021-08-19 09:14:14.324,-0.14,-0.22
2021-08-19 09:14:14.328,-0.145,-0.18
2021-08-19 09:14:14.332,-0.145,-0.16
2021-08-19 09:14:14.336,-0.14,-0.13
2021-08-19 09:14:14.340,-0.11,-0.09
2021-08-19 09:14:14.344,-0.12,-0.105
2021-08-19 09:14:14.348,-0.115,-0.095
2021-08-19 09:14:14.352,-0.11,-0.1
2021-08-19 09:14:14.356,-0.11,-0.085
2021-08-19 09:14:14.360,-0.07,-0.095
2021-08-19 09:14:14.364,-0.05,-0.095
2021-08-19 09:14:14.368,-0.045,-0.08
2021-08-19 09:14:14.372,-0.035,-0.08
2021-08-19 09:14:14.376,-0.035,-0.085
2021-08-19 09:14:14.380,-0.01,-0.075
2021-08-19 09:14:14.384,-0.005,-0.1
2021-08-19 09:14:14.388,-0.005,-0.095
2021-08-19 09:14:14.392,0.0,-0.05
2021-08-19 09:14:14.396,0.01,0.01
2021-08-19 09:14:14.400,0.03,0.055
2021-08-19 09:14:14.404,0.0,0.07
2021-08-19 09:14:14.408,-0.005,0.08
2021-08-19 09:14:14.412,-0.025,0.085
2021-08-19 09:14:14.416,-0.05,0.12
2021-08-19 09:14:14.420,-0.09,0.175
2021-08-19 09:14:14.424,-0.07,0.22
2021-08-19 09:14:14.428,-0.055,0.305
2021-08-19 09:14:14.432,-0.045,0.48
2021-08-19 09:14:14.436,-0.03,0.775
2021-08-19 09:14:14.440,-0.03,1.145
2021-08-19 09:14:14.444,-0.02,1.445
2021-08-19 09:14:14.448,0.01,1.65
2021-08-19 09:14:14.452,0.04,1.735
2021-08-19 09:14:14.456,-0.005,1.71
2021-08-19 09:14:14.460,-0.04,1.495
2021-08-19 09:14:14.464,-0.045,1.145
2021-08-19 09:14:14.468,-0.105,0.575
2021-08-19 09:14:14.472,-0.2,0.02
2021-08-19 09:14:14.476,-0.355,-0.27
2021-08-19 09:14:14.480,-0.61,-0.24
2021-08-19 09:14:14.484,-0.865,-0.07
2021-08-19 09:14:14.488,-1.055,-0.085
2021-08-19 09:14:14.492,-1.18,-0.255
2021-08-19 09:14:14.496,-1.205,-0.435
2021-08-19 09:14:14.500,-1.135,-0.59
2021-08-19 09:14:14.504,-0.905,-0.655
2021-08-19 09:14:14.508,-0.63,-0.665
2021-08-19 09:14:14.512,-0.385,-0.595
2021-08-19 09:14:14.516,-0.26,-0.48
2021-08-19 09:14:14.520,-0.25,-0.435
2021-08-19 09:14:14.524,-0.23,-0.435
2021-08-19 09:14:14.528,-0.245,-0.445
2021-08-19 09:14:14.532,-0.245,-0.455
2021-08-19 09:14:14.536,-0.225,-0.465
2021-08-19 09:14:14.540,-0.195,-0.44
2021-08-19 09:14:14.544,-0.14,-0.435
2021-08-19 09:14:14.548,-0.085,-0.4
2021-08-19 09:14:14.552,-0.055,-0.365
2021-08-19 09:14:14.556,-0.055,-0.35
2021-08-19 09:14:14.560,-0.055,-0.345
2021-08-19 09:14:14.564,-0.04,-0.335
2021-08-19 09:14:14.568,-0.025,-0.335
2021-08-19 09:14:14.572,-0.01,-0.295
2021-08-19 09:14:14.576,-0.01,-0.285
2021-08-19 09:14:14.580,-0.025,-0.255
2021-08-19 09:14:14.584,-0.005,-0.235
2021-08-19 09:14:14.588,0.015,-0.265
2021-08-19 09:14:14.592,0.015,-0.235
2021-08-19 09:14:14.596,0.035,-0.23
2021-08-19 09:14:14.600,0.05,-0.235
2021-08-19 09:14:14.604,0.06,-0.255
2021-08-19 09:14:14.608,0.095,-0.25
2021-08-19 09:14:14.612,0.105,-0.27
2021-08-19 09:14:14.616,0.11,-0.275
2021-08-19 09:14:14.620,0.15,-0.26
2021-08-19 09:14:14.624,0.145,-0.215
2021-08-19 09:14:14.628,0.15,-0.205
2021-08-19 09:14:14.632,0.14,-0.195
2021-08-19 09:14:14.636,0.12,-0.18
2021-08-19 09:14:14.640,0.115,-0.18
2021-08-19 09:14:14.644,0.055,-0.205
2021-08-19 09:14:14.648,0.06,-0.215
2021-08-19 09:14:14.652,0.065,-0.225
2021-08-19 09:14:14.656,0.06,-0.215
2021-08-19 09:14:14.660,0.05,-0.23
2021-08-19 09:14:14.664,0.055,-0.25
2021-08-19 09:14:14.668,0.09,-0.265
2021-08-19 09:14:14.672,0.085,-0.28
2021-08-19 09:14:14.676,0.085,-0.285
2021-08-19 09:14:14.680,0.095,-0.3
2021-08-19 09:14:14.684,0.1,-0.31
2021-08-19 09:14:14.688,0.09,-0.32
2021-08-19 09:14:14.692,0.085,-0.33
2021-08-19 09:14:14.696,0.085,-0.345
2021-08-19 09:14:14.700,0.065,-0.36
2021-08-19 09:14:14.704,0.07,-0.375
2021-08-19 09:14:14.708,0.075,-0.355
2021-08-19 09:14:14.712,0.075,-0.34
2021-08-19 09:14:14.716,0.08,-0.35
2021-08-19 09:14:14.720,0.065,-0.36
2021-08-19 09:14:14.724,0.065,-0.36
2021-08-19 09:14:14.728,0.065,-0.355
2021-08-19 09:14:14.732,0.07,-0.365
2021-08-19 09:14:14.736,0.075,-0.38
2021-08-19 09:14:14.740,0.07,-0.405
2021-08-19 09:14:14.744,0.06,-0.415
2021-08-19 09:14:14.748,0.06,-0.41
2021-08-19 09:14:14.752,0.05,-0.395
2021-08-19 09:14:14.756,0.04,-0.36
2021-08-19 09:14:14.760,0.025,-0.34
2021-08-19 09:14:14.764,0.0,-0.33
2021-08-19 09:14:14.768,0.005,-0.33
2021-08-19 09:14:14.772,0.01,-0.285
2021-08-19 09:14:14.776,-0.01,-0.255
2021-08-19 09:14:14.780,-0.02,-0.24
2021-08-19 09:14:14.784,-0.03,-0.17
2021-08-19 09:14:14.788,-0.045,-0.13
2021-08-19 09:14:14.792,-0.02,-0.085
2021-08-19 09:14:14.796,-0.025,-0.065
2021-08-19 09:14:14.800,-0.04,-0.03
2021-08-19 09:14:14.804,-0.03,-0.03
2021-08-19 09:14:14.808,-0.035,-0.01
2021-08-19 09:14:14.812,-0.055,-0.005
2021-08-19 09:14:14.816,-0.03,0.035
2021-08-19 09:14:14.820,-0.015,0.06
2021-08-19 09:14:14.824,-0.02,0.07
2021-08-19 09:14:14.828,0.015,0.055
2021-08-19 09:14:14.832,0.025,0.045
2021-08-19 09:14:14.836,0.045,0.055
2021-08-19 09:14:14.840,0.04,0.01
2021-08-19 09:14:14.844,0.075,0.0
2021-08-19 09:14:14.848,0.075,0.01
2021-08-19 09:14:14.852,0.095,0.005
2021-08-19 09:14:14.856,0.085,0.035
2021-08-19 09:14:14.860,0.085,0.07
2021-08-19 09:14:14.864,0.1,0.09
2021-08-19 09:14:14.868,0.095,0.08
2021-08-19 09:14:14.872,0.05,0.065
2021-08-19 09:14:14.876,0.035,0.07
2021-08-19 09:14:14.880,0.005,0.055
2021-08-19 09:14:14.884,0.01,0.05
2021-08-19 09:14:14.888,-0.015,0.07
2021-08-19 09:14:14.892,-0.01,0.04
2021-08-19 09:14:14.896,0.0,0.035
2021-08-19 09:14:14.900,0.015,0.005
2021-08-19 09:14:14.904,0.015,0.005
2021-08-19 09:14:14.908,0.02,0.025
2021-08-19 09:14:14.912,0.03,0.01
2021-08-19 09:14:14.916,0.02,0.025
2021-08-19 09:14:14.920,0.03,0.01
2021-08-19 09:14:14.924,0.005,0.01
2021-08-19 09:14:14.928,0.02,0.03
2021-08-19 09:14:14.932,0.025,0.01
2021-08-19 09:14:14.936,0.02,0.015
2021-08-19 09:14:14.940,0.035,0.06
2021-08-19 09:14:14.944,0.015,0.115
2021-08-19 09:14:14.948,0.005,0.205
2021-08-19 09:14:14.952,0.01,0.315
2021-08-19 09:14:14.956,0.025,0.415
2021-08-19 09:14:14.960,0.04,0.56
2021-08-19 09:14:14.964,0.035,0.655
2021-08-19 09:14:14.968,0.06,0.705
2021-08-19 09:14:14.972,0.095,0.615
2021-08-19 09:14:14.976,0.06,0.345
2021-08-19 09:14:14.980,0.01,0.005
2021-08-19 09:14:14.984,-0.05,-0.41
2021-08-19 09:14:14.988,-0.1,-0.88
2021-08-19 09:14:14.992,-0.175,-1.295
2021-08-19 09:14:14.996,-0.21,-1.54
2021-08-19 09:14:15.000,-0.245,-1.54
2021-08-19 09:14:15.004,-0.29,-1.31
2021-08-19 09:14:15.008,-0.32,-1.105
2021-08-19 09:14:15.012,-0.335,-1.04
2021-08-19 09:14:15.016,-0.335,-1.035
2021-08-19 09:14:15.020,-0.31,-1.08
2021-08-19 09:14:15.024,-0.17,-1.07
2021-08-19 09:14:15.028,0.05,-1.035
2021-08-19 09:14:15.032,0.315,-0.855
2021-08-19 09:14:15.036,0.485,-0.675
2021-08-19 09:14:15.040,0.515,-0.515
2021-08-19 09:14:15.044,0.525,-0.425
2021-08-19 09:14:15.048,0.53,-0.355
2021-08-19 09:14:15.052,0.555,-0.29
2021-08-19 09:14:15.056,0.6,-0.22
2021-08-19 09:14:15.060,0.635,-0.19
2021-08-19 09:14:15.064,0.715,-0.17
2021-08-19 09:14:15.068,0.77,-0.15
2021-08-19 09:14:15.072,0.795,-0.09
2021-08-19 09:14:15.076,0.79,0.005
2021-08-19 09:14:15.080,0.78,0.05
2021-08-19 09:14:15.084,0.755,0.08
2021-08-19 09:14:15.088,0.665,0.075
2021-08-19 09:14:15.092,0.56,0.09
2021-08-19 09:14:15.096,0.4,0.08
2021-08-19 09:14:15.100,0.24,0.085
2021-08-19 09:14:15.104,0.14,0.105
2021-08-19 09:14:15.108,0.045,0.12
2021-08-19 09:14:15.112,-0.01,0.115
2021-08-19 09:14:15.116,-0.065,0.055
2021-08-19 09:14:15.120,-0.08,0.045
2021-08-19 09:14:15.124,-0.12,0.035
2021-08-19 09:14:15.128,-0.115,0.045
2021-08-19 09:14:15.132,-0.1,0.055
2021-08-19 09:14:15.136,-0.12,0.065
2021-08-19 09:14:15.140,-0.125,0.065
2021-08-19 09:14:15.144,-0.12,0.065
2021-08-19 09:14:15.148,-0.12,0.04
2021-08-19 09:14:15.152,-0.145,0.045
2021-08-19 09:14:15.156,-0.16,0.04
2021-08-19 09:14:15.160,-0.17,0.05
2021-08-19 09:14:15.164,-0.13,0.025
2021-08-19 09:14:15.168,-0.15,0.015
2021-08-19 09:14:15.172,-0.17,0.02
2021-08-19 09:14:15.176,-0.175,0.015
2021-08-19 09:14:15.180,-0.16,0.015
2021-08-19 09:14:15.184,-0.205,0.02
2021-08-19 09:14:15.188,-0.205,0.005
2021-08-19 09:14:15.192,-0.2,-0.015
2021-08-19 09:14:15.196,-0.235,-0.01
2021-08-19 09:14:15.200,-0.22,-0.035
2021-08-19 09:14:15.204,-0.21,-0.075
2021-08-19 09:14:15.208,-0.2,-0.08
2021-08-19 09:14:15.212,-0.225,-0.085
2021-08-19 09:14:15.216,-0.235,-0.095
2021-08-19 09:14:15.220,-0.26,-0.07
2021-08-19 09:14:15.224,-0.255,-0.085
2021-08-19 09:14:15.228,-0.255,-0.05
2021-08-19 09:14:15.232,-0.285,-0.01
2021-08-19 09:14:15.236,-0.27,0.03
2021-08-19 09:14:15.240,-0.28,0.08
2021-08-19 09:14:15.244,-0.3,0.13
2021-08-19 09:14:15.248,-0.31,0.15
2021-08-19 09:14:15.252,-0.31,0.205
2021-08-19 09:14:15.256,-0.315,0.23
2021-08-19 09:14:15.260,-0.33,0.27
2021-08-19 09:14:15.264,-0.32,0.265
2021-08-19 09:14:15.268,-0.33,0.315
2021-08-19 09:14:15.272,-0.315,0.31
2021-08-19 09:14:15.276,-0.31,0.315
2021-08-19 09:14:15.280,-0.3,0.285
2021-08-19 09:14:15.284,-0.29,0.275
2021-08-19 09:14:15.288,-0.26,0.27
2021-08-19 09:14:15.292,-0.265,0.27
2021-08-19 09:14:15.296,-0.265,0.275
2021-08-19 09:14:15.300,-0.235,0.27
2021-08-19 09:14:15.304,-0.235,0.27
2021-08-19 09:14:15.308,-0.235,0.255
2021-08-19 09:14:15.312,-0.21,0.25
2021-08-19 09:14:15.316,-0.16,0.255
2021-08-19 09:14:15.320,-0.165,0.25
2021-08-19 09:14:15.324,-0.125,0.26
2021-08-19 09:14:15.328,-0.11,0.26
2021-08-19 09:14:15.332,-0.08,0.255
2021-08-19 09:14:15.336,-0.1,0.23
2021-08-19 09:14:15.340,-0.09,0.175
2021-08-19 09:14:15.344,-0.105,0.135
2021-08-19 09:14:15.348,-0.125,0.12
2021-08-19 09:14:15.352,-0.115,0.08
2021-08-19 09:14:15.356,-0.08,0.1
2021-08-19 09:14:15.360,-0.075,0.11
2021-08-19 09:14:15.364,-0.05,0.085
2021-08-19 09:14:15.368,-0.055,0.07
2021-08-19 09:14:15.372,-0.06,0.08
2021-08-19 09:14:15.376,-0.05,0.11
2021-08-19 09:14:15.380,-0.03,0.15
2021-08-19 09:14:15.384,-0.035,0.255
2021-08-19 09:14:15.388,0.0,0.445
2021-08-19 09:14:15.392,-0.025,0.72
2021-08-19 09:14:15.396,0.015,0.975
2021-08-19 09:14:15.400,0.03,1.085
2021-08-19 09:14:15.404,0.04,1.075
2021-08-19 09:14:15.408,0.055,0.915
2021-08-19 09:14:15.412,0.045,0.62
2021-08-19 09:14:15.416,0.025,0.155
2021-08-19 09:14:15.420,0.0,-0.41
2021-08-19 09:14:15.424,0.025,-0.975
2021-08-19 09:14:15.428,-0.005,-1.255
2021-08-19 09:14:15.432,-0.06,-1.225
2021-08-19 09:14:15.436,-0.105,-1.095
2021-08-19 09:14:15.440,-0.13,-1.06
2021-08-19 09:14:15.444,-0.1,-1.13
2021-08-19 09:14:15.448,-0.055,-1.185
2021-08-19 09:14:15.452,0.04,-1.235
2021-08-19 09:14:15.456,0.28,-1.23
2021-08-19 09:14:15.460,0.52,-1.135
2021-08-19 09:14:15.464,0.685,-0.975
2021-08-19 09:14:15.468,0.68,-0.82
2021-08-19 09:14:15.472,0.605,-0.725
2021-08-19 09:14:15.476,0.535,-0.66
2021-08-19 09:14:15.480,0.495,-0.585
2021-08-19 09:14:15.484,0.515,-0.535
2021-08-19 09:14:15.488,0.535,-0.475
2021-08-19 09:14:15.492,0.585,-0.39
2021-08-19 09:14:15.496,0.625,-0.375
2021-08-19 09:14:15.500,0.68,-0.31
2021-08-19 09:14:15.504,0.71,-0.21
2021-08-19 09:14:15.508,0.68,-0.145
2021-08-19 09:14:15.512,0.63,-0.105
2021-08-19 09:14:15.516,0.605,-0.07
2021-08-19 09:14:15.520,0.525,-0.065
2021-08-19 09:14:15.524,0.385,-0.055
2021-08-19 09:14:15.528,0.25,-0.05
2021-08-19 09:14:15.532,0.105,-0.04
2021-08-19 09:14:15.536,0.055,-0.02
2021-08-19 09:14:15.540,0.025,-0.01
2021-08-19 09:14:15.544,0.01,-0.02
2021-08-19 09:14:15.548,0.005,-0.025
2021-08-19 09:14:15.552,0.01,-0.03
2021-08-19 09:14:15.556,-0.01,-0.03
2021-08-19 09:14:15.560,-0.045,-0.025
2021-08-19 09:14:15.564,-0.09,-0.03
2021-08-19 09:14:15.568,-0.14,-0.03
2021-08-19 09:14:15.572,-0.16,-0.035
2021-08-19 09:14:15.576,-0.16,-0.05
2021-08-19 09:14:15.580,-0.17,-0.06
2021-08-19 09:14:15.584,-0.17,-0.01
2021-08-19 09:14:15.588,-0.155,0.02
2021-08-19 09:14:15.592,-0.14,0.0
2021-08-19 09:14:15.596,-0.15,-0.08
2021-08-19 09:14:15.600,-0.185,-0.145
2021-08-19 09:14:15.604,-0.185,-0.165
2021-08-19 09:14:15.608,-0.185,-0.16
2021-08-19 09:14:15.612,-0.155,-0.165
2021-08-19 09:14:15.616,-0.155,-0.18
2021-08-19 09:14:15.620,-0.185,-0.2
2021-08-19 09:14:15.624,-0.21,-0.225
2021-08-19 09:14:15.628,-0.235,-0.185
2021-08-19 09:14:15.632,-0.23,-0.195
2021-08-19 09:14:15.636,-0.24,-0.175
2021-08-19 09:14:15.640,-0.245,-0.175
2021-08-19 09:14:15.644,-0.245,-0.185
2021-08-19 09:14:15.648,-0.24,-0.16
2021-08-19 09:14:15.652,-0.25,-0.125
2021-08-19 09:14:15.656,-0.25,-0.11
2021-08-19 09:14:15.660,-0.27,-0.11
2021-08-19 09:14:15.664,-0.275,-0.13
2021-08-19 09:14:15.668,-0.295,-0.115
2021-08-19 09:14:15.672,-0.295,-0.105
2021-08-19 09:14:15.676,-0.28,-0.1
2021-08-19 09:14:15.680,-0.27,-0.09
2021-08-19 09:14:15.684,-0.28,-0.07
2021-08-19 09:14:15.688,-0.265,-0.02
2021-08-19 09:14:15.692,-0.3,0.005
2021-08-19 09:14:15.696,-0.325,0.04
2021-08-19 09:14:15.700,-0.335,0.07
2021-08-19 09:14:15.704,-0.325,0.105
2021-08-19 09:14:15.708,-0.345,0.115
2021-08-19 09:14:15.712,-0.34,0.125
2021-08-19 09:14:15.716,-0.34,0.14
2021-08-19 09:14:15.720,-0.32,0.17
2021-08-19 09:14:15.724,-0.29,0.22
2021-08-19 09:14:15.728,-0.25,0.205
2021-08-19 09:14:15.732,-0.245,0.195
2021-08-19 09:14:15.736,-0.22,0.175
2021-08-19 09:14:15.740,-0.175,0.16
2021-08-19 09:14:15.744,-0.135,0.16
2021-08-19 09:14:15.748,-0.095,0.18
2021-08-19 09:14:15.752,-0.08,0.175
2021-08-19 09:14:15.756,-0.09,0.175
2021-08-19 09:14:15.760,-0.075,0.19
2021-08-19 09:14:15.764,-0.035,0.195
2021-08-19 09:14:15.768,-0.015,0.18
2021-08-19 09:14:15.772,0.03,0.14
2021-08-19 09:14:15.776,0.075,0.16
2021-08-19 09:14:15.780,0.095,0.135
2021-08-19 09:14:15.784,0.09,0.125
2021-08-19 09:14:15.788,0.075,0.115
2021-08-19 09:14:15.792,0.045,0.07
2021-08-19 09:14:15.796,0.04,0.07
2021-08-19 09:14:15.800,0.035,0.055
2021-08-19 09:14:15.804,0.015,0.07
2021-08-19 09:14:15.808,0.02,0.055
2021-08-19 09:14:15.812,0.015,0.04
2021-08-19 09:14:15.816,0.015,0.0
2021-08-19 09:14:15.820,0.025,0.015
2021-08-19 09:14:15.824,0.035,0.065
2021-08-19 09:14:15.828,0.035,0.1
2021-08-19 09:14:15.832,0.045,0.15
2021-08-19 09:14:15.836,0.05,0.23
2021-08-19 09:14:15.840,0.045,0.355
2021-08-19 09:14:15.844,0.045,0.59
2021-08-19 09:14:15.848,0.07,0.92
2021-08-19 09:14:15.852,0.065,1.32
2021-08-19 09:14:15.856,0.04,1.64
2021-08-19 09:14:15.860,0.075,1.765
2021-08-19 09:14:15.864,0.095,1.765
2021-08-19 09:14:15.868,0.09,1.59
2021-08-19 09:14:15.872,0.095,1.23
2021-08-19 09:14:15.876,0.075,0.655
2021-08-19 09:14:15.880,0.04,0.04
2021-08-19 09:14:15.884,-0.07,-0.335
2021-08-19 09:14:15.888,-0.295,-0.32
2021-08-19 09:14:15.892,-0.545,-0.17
2021-08-19 09:14:15.896,-0.825,-0.14
2021-08-19 09:14:15.900,-1.025,-0.29
2021-08-19 09:14:15.904,-1.14,-0.48
2021-08-19 09:14:15.908,-1.135,-0.6
2021-08-19 09:14:15.912,-0.965,-0.645
2021-08-19 09:14:15.916,-0.675,-0.64
2021-08-19 09:14:15.920,-0.395,-0.55
2021-08-19 09:14:15.924,-0.23,-0.445
2021-08-19 09:14:15.928,-0.185,-0.335
2021-08-19 09:14:15.932,-0.17,-0.285
2021-08-19 09:14:15.936,-0.18,-0.3
2021-08-19 09:14:15.940,-0.165,-0.27
2021-08-19 09:14:15.944,-0.16,-0.255
2021-08-19 09:14:15.948,-0.135,-0.205
2021-08-19 09:14:15.952,-0.105,-0.175
2021-08-19 09:14:15.956,-0.045,-0.17
2021-08-19 09:14:15.960,-0.005,-0.205
2021-08-19 09:14:15.964,0.045,-0.225
2021-08-19 09:14:15.968,0.07,-0.19
2021-08-19 09:14:15.972,0.075,-0.2
2021-08-19 09:14:15.976,0.105,-0.215
2021-08-19 09:14:15.980,0.115,-0.225
2021-08-19 09:14:15.984,0.12,-0.21
2021-08-19 09:14:15.988,0.13,-0.195
2021-08-19 09:14:15.992,0.175,-0.195
2021-08-19 09:14:15.996,0.165,-0.145
2021-08-19 09:14:16.000,0.22,-0.14
2021-08-19 09:14:16.004,0.19,-0.15
2021-08-19 09:14:16.008,0.215,-0.145
2021-08-19 09:14:16.012,0.195,-0.15
2021-08-19 09:14:16.016,0.185,-0.155
2021-08-19 09:14:16.020,0.165,-0.19
2021-08-19 09:14:16.024,0.135,-0.2
2021-08-19 09:14:16.028,0.11,-0.21
2021-08-19 09:14:16.032,0.11,-0.175
2021-08-19 09:14:16.036,0.13,-0.18
2021-08-19 09:14:16.040,0.115,-0.24
2021-08-19 09:14:16.044,0.135,-0.305
2021-08-19 09:14:16.048,0.13,-0.33
2021-08-19 09:14:16.052,0.155,-0.345
2021-08-19 09:14:16.056,0.155,-0.36
2021-08-19 09:14:16.060,0.19,-0.38
2021-08-19 09:14:16.064,0.18,-0.395
2021-08-19 09:14:16.068,0.17,-0.42
2021-08-19 09:14:16.072,0.17,-0.42
2021-08-19 09:14:16.076,0.17,-0.41
2021-08-19 09:14:16.080,0.15,-0.445
2021-08-19 09:14:16.084,0.16,-0.445
2021-08-19 09:14:16.088,0.13,-0.46
2021-08-19 09:14:16.092,0.145,-0.5
2021-08-19 09:14:16.096,0.15,-0.525
2021-08-19 09:14:16.100,0.135,-0.53
2021-08-19 09:14:16.104,0.155,-0.52
2021-08-19 09:14:16.108,0.16,-0.49
2021-08-19 09:14:16.112,0.145,-0.48
2021-08-19 09:14:16.116,0.12,-0.475
2021-08-19 09:14:16.120,0.13,-0.49
2021-08-19 09:14:16.124,0.135,-0.46
2021-08-19 09:14:16.128,0.125,-0.435
2021-08-19 09:14:16.132,0.13,-0.405
2021-08-19 09:14:16.136,0.145,-0.385
2021-08-19 09:14:16.140,0.125,-0.34
2021-08-19 09:14:16.144,0.135,-0.32
2021-08-19 09:14:16.148,0.115,-0.255
2021-08-19 09:14:16.152,0.12,-0.245
2021-08-19 09:14:16.156,0.09,-0.195
2021-08-19 09:14:16.160,0.095,-0.195
2021-08-19 09:14:16.164,0.075,-0.155
2021-08-19 09:14:16.168,0.055,-0.14
2021-08-19 09:14:16.172,0.055,-0.105
2021-08-19 09:14:16.176,0.04,-0.06
2021-08-19 09:14:16.180,0.055,-0.05
2021-08-19 09:14:16.184,0.055,-0.075
2021-08-19 09:14:16.188,0.035,-0.08
2021-08-19 09:14:16.192,0.035,-0.085
2021-08-19 09:14:16.196,0.075,-0.075
2021-08-19 09:14:16.200,0.07,-0.05
2021-08-19 09:14:16.204,0.085,-0.03
2021-08-19 09:14:16.208,0.07,-0.02
2021-08-19 09:14:16.212,0.085,-0.035
2021-08-19 09:14:16.216,0.095,-0.04
2021-08-19 09:14:16.220,0.115,-0.025
2021-08-19 09:14:16.224,0.11,0.015
2021-08-19 09:14:16.228,0.135,0.075
2021-08-19 09:14:16.232,0.165,0.125
2021-08-19 09:14:16.236,0.14,0.135
2021-08-19 09:14:16.240,0.14,0.12
2021-08-19 09:14:16.244,0.13,0.09
2021-08-19 09:14:16.248,0.12,0.08
2021-08-19 09:14:16.252,0.115,0.06
2021-08-19 09:14:16.256,0.11,0.05
2021-08-19 09:14:16.260,0.09,0.045
2021-08-19 09:14:16.264,0.065,0.02
2021-08-19 09:14:16.268,0.05,-0.005
2021-08-19 09:14:16.272,0.055,-0.015
2021-08-19 09:14:16.276,0.05,-0.035
2021-08-19 09:14:16.280,0.055,-0.035
2021-08-19 09:14:16.284,0.065,-0.035
2021-08-19 09:14:16.288,0.06,-0.08
2021-08-19 09:14:16.292,0.055,-0.115
2021-08-19 09:14:16.296,0.07,-0.1
2021-08-19 09:14:16.300,0.045,-0.11
2021-08-19 09:14:16.304,0.055,-0.105
2021-08-19 09:14:16.308,0.055,-0.1
2021-08-19 09:14:16.312,0.045,-0.145
2021-08-19 09:14:16.316,0.04,-0.165
2021-08-19 09:14:16.320,0.035,-0.2
2021-08-19 09:14:16.324,0.025,-0.195
2021-08-19 09:14:16.328,0.015,-0.16
2021-08-19 09:14:16.332,0.02,-0.195
2021-08-19 09:14:16.336,0.025,-0.225
2021-08-19 09:14:16.340,0.01,-0.295
2021-08-19 09:14:16.344,0.01,-0.27
2021-08-19 09:14:16.348,0.015,-0.29
2021-08-19 09:14:16.352,0.045,-0.3
2021-08-19 09:14:16.356,0.03,-0.34
2021-08-19 09:14:16.360,0.005,-0.345
2021-08-19 09:14:16.364,-0.01,-0.28
2021-08-19 09:14:16.368,0.0,-0.235
2021-08-19 09:14:16.372,0.015,-0.235
2021-08-19 09:14:16.376,0.005,-0.305
2021-08-19 09:14:16.380,-0.01,-0.375
2021-08-19 09:14:16.384,-0.01,-0.385
2021-08-19 09:14:16.388,-0.015,-0.3
2021-08-19 09:14:16.392,-0.02,-0.235
2021-08-19 09:14:16.396,-0.01,-0.18
2021-08-19 09:14:16.400,-0.035,-0.185
2021-08-19 09:14:16.404,-0.04,-0.17
2021-08-19 09:14:16.408,-0.06,-0.18
2021-08-19 09:14:16.412,-0.02,-0.17
2021-08-19 09:14:16.416,-0.015,-0.185
2021-08-19 09:14:16.420,0.005,-0.19
2021-08-19 09:14:16.424,0.025,-0.185
2021-08-19 09:14:16.428,0.06,-0.19
2021-08-19 09:14:16.432,0.075,-0.21
2021-08-19 09:14:16.436,0.06,-0.215
2021-08-19 09:14:16.440,0.075,-0.22
2021-08-19 09:14:16.444,0.09,-0.2
2021-08-19 09:14:16.448,0.11,-0.165
2021-08-19 09:14:16.452,0.105,-0.13
2021-08-19 09:14:16.456,0.125,-0.1
2021-08-19 09:14:16.460,0.14,-0.105
2021-08-19 09:14:16.464,0.135,-0.125
2021-08-19 09:14:16.468,0.15,-0.08
2021-08-19 09:14:16.472,0.115,-0.06
2021-08-19 09:14:16.476,0.075,-0.06
2021-08-19 09:14:16.480,0.075,-0.07
2021-08-19 09:14:16.484,0.09,-0.12
2021-08-19 09:14:16.488,0.05,-0.13
2021-08-19 09:14:16.492,0.05,-0.15
2021-08-19 09:14:16.496,0.085,-0.16
2021-08-19 09:14:16.500,0.065,-0.17
2021-08-19 09:14:16.504,0.095,-0.17
2021-08-19 09:14:16.508,0.075,-0.185
2021-08-19 09:14:16.512,0.085,-0.195
2021-08-19 09:14:16.516,0.06,-0.18
2021-08-19 09:14:16.520,0.065,-0.195
2021-08-19 09:14:16.524,0.095,-0.175
2021-08-19 09:14:16.528,0.075,-0.195
2021-08-19 09:14:16.532,0.065,-0.205
2021-08-19 09:14:16.536,0.075,-0.2
2021-08-19 09:14:16.540,0.08,-0.21
2021-08-19 09:14:16.544,0.075,-0.195
2021-08-19 09:14:16.548,0.07,-0.225
2021-08-19 09:14:16.552,0.07,-0.255
2021-08-19 09:14:16.556,0.055,-0.26
2021-08-19 09:14:16.560,0.065,-0.26
2021-08-19 09:14:16.564,0.055,-0.275
2021-08-19 09:14:16.568,0.065,-0.3
2021-08-19 09:14:16.572,0.06,-0.315
2021-08-19 09:14:16.576,0.065,-0.345
2021-08-19 09:14:16.580,0.05,-0.38
2021-08-19 09:14:16.584,0.07,-0.405
2021-08-19 09:14:16.588,0.075,-0.4
2021-08-19 09:14:16.592,0.05,-0.435
2021-08-19 09:14:16.596,0.035,-0.43
2021-08-19 09:14:16.600,0.065,-0.41
2021-08-19 09:14:16.604,0.05,-0.41
2021-08-19 09:14:16.608,0.055,-0.355
2021-08-19 09:14:16.612,0.03,-0.33
2021-08-19 09:14:16.616,0.04,-0.315
2021-08-19 09:14:16.620,0.02,-0.275
2021-08-19 09:14:16.624,0.035,-0.26
2021-08-19 09:14:16.628,0.0,-0.19
2021-08-19 09:14:16.632,0.015,-0.135
2021-08-19 09:14:16.636,0.04,-0.13
2021-08-19 09:14:16.640,0.03,-0.155
2021-08-19 09:14:16.644,0.05,-0.16
2021-08-19 09:14:16.648,0.03,-0.16
2021-08-19 09:14:16.652,0.055,-0.16
2021-08-19 09:14:16.656,0.065,-0.17
2021-08-19 09:14:16.660,0.085,-0.15
2021-08-19 09:14:16.664,0.105,-0.165
2021-08-19 09:14:16.668,0.105,-0.155
2021-08-19 09:14:16.672,0.105,-0.14
2021-08-19 09:14:16.676,0.14,-0.095
2021-08-19 09:14:16.680,0.155,-0.055
2021-08-19 09:14:16.684,0.155,-0.015
2021-08-19 09:14:16.688,0.155,-0.015
2021-08-19 09:14:16.692,0.17,-0.06
2021-08-19 09:14:16.696,0.145,-0.065
2021-08-19 09:14:16.700,0.15,-0.01
2021-08-19 09:14:16.704,0.135,0.005
2021-08-19 09:14:16.708,0.08,0.0
2021-08-19 09:14:16.712,0.055,-0.01
2021-08-19 09:14:16.716,0.035,0.01
2021-08-19 09:14:16.720,0.025,0.04
2021-08-19 09:14:16.724,0.065,0.09
2021-08-19 09:14:16.728,0.095,0.155
2021-08-19 09:14:16.732,0.07,0.335
2021-08-19 09:14:16.736,0.08,0.595
2021-08-19 09:14:16.740,0.095,0.93
2021-08-19 09:14:16.744,0.11,1.14
2021-08-19 09:14:16.748,0.155,1.26
2021-08-19 09:14:16.752,0.145,1.285
2021-08-19 09:14:16.756,0.115,1.215
2021-08-19 09:14:16.760,0.07,0.94
2021-08-19 09:14:16.764,0.025,0.525
2021-08-19 09:14:16.768,-0.015,-0.015
2021-08-19 09:14:16.772,-0.11,-0.455
2021-08-19 09:14:16.776,-0.335,-0.535
2021-08-19 09:14:16.780,-0.625,-0.305
2021-08-19 09:14:16.784,-0.9,-0.14
2021-08-19 09:14:16.788,-1.095,-0.235
2021-08-19 09:14:16.792,-1.215,-0.48
2021-08-19 09:14:16.796,-1.175,-0.695
2021-08-19 09:14:16.800,-0.965,-0.82
2021-08-19 09:14:16.804,-0.66,-0.855
2021-08-19 09:14:16.808,-0.355,-0.79
2021-08-19 09:14:16.812,-0.19,-0.695
2021-08-19 09:14:16.816,-0.135,-0.63
2021-08-19 09:14:16.820,-0.15,-0.56
2021-08-19 09:14:16.824,-0.17,-0.525
2021-08-19 09:14:16.828,-0.17,-0.52
2021-08-19 09:14:16.832,-0.15,-0.485
2021-08-19 09:14:16.836,-0.1,-0.48
2021-08-19 09:14:16.840,-0.055,-0.49
2021-08-19 09:14:16.844,-0.005,-0.48
2021-08-19 09:14:16.848,0.05,-0.455
2021-08-19 09:14:16.852,0.06,-0.44
2021-08-19 09:14:16.856,0.075,-0.43
2021-08-19 09:14:16.860,0.085,-0.395
2021-08-19 09:14:16.864,0.105,-0.35
2021-08-19 09:14:16.868,0.105,-0.35
2021-08-19 09:14:16.872,0.12,-0.34
2021-08-19 09:14:16.876,0.12,-0.355
2021-08-19 09:14:16.880,0.135,-0.355
2021-08-19 09:14:16.884,0.165,-0.34
2021-08-19 09:14:16.888,0.18,-0.31
2021-08-19 09:14:16.892,0.185,-0.3
2021-08-19 09:14:16.896,0.185,-0.315
2021-08-19 09:14:16.900,0.19,-0.33
2021-08-19 09:14:16.904,0.21,-0.345
2021-08-19 09:14:16.908,0.215,-0.315
2021-08-19 09:14:16.912,0.235,-0.3
2021-08-19 09:14:16.916,0.265,-0.33
2021-08-19 09:14:16.920,0.27,-0.325
2021-08-19 09:14:16.924,0.265,-0.335
2021-08-19 09:14:16.928,0.28,-0.295
2021-08-19 09:14:16.932,0.275,-0.305
2021-08-19 09:14:16.936,0.27,-0.305
2021-08-19 09:14:16.940,0.225,-0.355
2021-08-19 09:14:16.944,0.215,-0.36
2021-08-19 09:14:16.948,0.195,-0.35
2021-08-19 09:14:16.952,0.215,-0.375
2021-08-19 09:14:16.956,0.21,-0.38
2021-08-19 09:14:16.960,0.2,-0.415
2021-08-19 09:14:16.964,0.195,-0.44
2021-08-19 09:14:16.968,0.155,-0.47
2021-08-19 09:14:16.972,0.145,-0.475
2021-08-19 09:14:16.976,0.15,-0.495
2021-08-19 09:14:16.980,0.155,-0.505
2021-08-19 09:14:16.984,0.17,-0.5
2021-08-19 09:14:16.988,0.145,-0.52
2021-08-19 09:14:16.992,0.145,-0.52
2021-08-19 09:14:16.996,0.125,-0.52
2021-08-19 09:14:17.000,0.12,-0.515
2021-08-19 09:14:17.004,0.125,-0.515
2021-08-19 09:14:17.008,0.115,-0.52
2021-08-19 09:14:17.012,0.095,-0.535
2021-08-19 09:14:17.016,0.095,-0.555
2021-08-19 09:14:17.020,0.095,-0.57
2021-08-19 09:14:17.024,0.1,-0.585
2021-08-19 09:14:17.028,0.1,-0.61
2021-08-19 09:14:17.032,0.1,-0.615
2021-08-19 09:14:17.036,0.095,-0.595
2021-08-19 09:14:17.040,0.09,-0.605
2021-08-19 09:14:17.044,0.085,-0.61
2021-08-19 09:14:17.048,0.07,-0.55
2021-08-19 09:14:17.052,0.06,-0.56
2021-08-19 09:14:17.056,0.055,-0.525
2021-08-19 09:14:17.060,0.055,-0.48
2021-08-19 09:14:17.064,0.065,-0.445
2021-08-19 09:14:17.068,0.06,-0.41
2021-08-19 09:14:17.072,0.065,-0.355
2021-08-19 09:14:17.076,0.065,-0.275
2021-08-19 09:14:17.080,0.025,-0.195
2021-08-19 09:14:17.084,0.045,-0.135
2021-08-19 09:14:17.088,0.05,-0.105
2021-08-19 09:14:17.092,0.06,-0.135
2021-08-19 09:14:17.096,0.065,-0.165
2021-08-19 09:14:17.100,0.09,-0.12
2021-08-19 09:14:17.104,0.12,-0.06
2021-08-19 09:14:17.108,0.125,-0.03
2021-08-19 09:14:17.112,0.14,-0.04
2021-08-19 09:14:17.116,0.17,-0.09
2021-08-19 09:14:17.120,0.155,-0.125
2021-08-19 09:14:17.124,0.165,-0.1
2021-08-19 09:14:17.128,0.16,-0.095
2021-08-19 09:14:17.132,0.18,-0.04
2021-08-19 09:14:17.136,0.195,0.0
2021-08-19 09:14:17.140,0.2,0.01
