Time,ECG1,ECG2
2021-08-19 05:33:00.524,0.655,-0.035
2021-08-19 05:33:00.528,0.635,-0.085
2021-08-19 05:33:00.532,0.585,-0.05
2021-08-19 05:33:00.536,0.535,-0.115
2021-08-19 05:33:00.540,0.495,-0.065
2021-08-19 05:33:00.544,0.445,-0.115
2021-08-19 05:33:00.548,0.4,-0.14
2021-08-19 05:33:00.552,0.31,-0.105
2021-08-19 05:33:00.556,0.26,-0.14
2021-08-19 05:33:00.560,0.175,-0.145
2021-08-19 05:33:00.564,0.17,-0.145
2021-08-19 05:33:00.568,0.12,-0.15
2021-08-19 05:33:00.572,0.05,-0.175
2021-08-19 05:33:00.576,0.0,-0.205
2021-08-19 05:33:00.580,-0.025,-0.165
2021-08-19 05:33:00.584,-0.035,-0.19
2021-08-19 05:33:00.588,-0.065,-0.195
2021-08-19 05:33:00.592,-0.115,-0.195
2021-08-19 05:33:00.596,-0.16,-0.22
2021-08-19 05:33:00.600,-0.18,-0.23
2021-08-19 05:33:00.604,-0.16,-0.235
2021-08-19 05:33:00.608,-0.19,-0.27
2021-08-19 05:33:00.612,-0.18,-0.25
2021-08-19 05:33:00.616,-0.195,-0.3
2021-08-19 05:33:00.620,-0.195,-0.295
2021-08-19 05:33:00.624,-0.21,-0.3
2021-08-19 05:33:00.628,-0.225,-0.32
2021-08-19 05:33:00.632,-0.225,-0.355
2021-08-19 05:33:00.636,-0.235,-0.32
2021-08-19 05:33:00.640,-0.235,-0.335
2021-08-19 05:33:00.644,-0.25,-0.38
2021-08-19 05:33:00.648,-0.23,-0.365
2021-08-19 05:33:00.652,-0.265,-0.355
2021-08-19 05:33:00.656,-0.24,-0.365
2021-08-19 05:33:00.660,-0.245,-0.37
2021-08-19 05:33:00.664,-0.22,-0.375
2021-08-19 05:33:00.668,-0.25,-0.38
2021-08-19 05:33:00.672,-0.23,-0.405
2021-08-19 05:33:00.676,-0.26,-0.41
2021-08-19 05:33:00.680,-0.235,-0.43
2021-08-19 05:33:00.684,-0.195,-0.44
2021-08-19 05:33:00.688,-0.195,-0.435
2021-08-19 05:33:00.692,-0.2,-0.415
2021-08-19 05:33:00.696,-0.245,-0.43
2021-08-19 05:33:00.700,-0.265,-0.46
2021-08-19 05:33:00.704,-0.295,-0.445
2021-08-19 05:33:00.708,-0.445,-0.42
2021-08-19 05:33:00.712,-0.62,-0.435
2021-08-19 05:33:00.716,-0.685,-0.475
2021-08-19 05:33:00.720,-0.575,-0.555
2021-08-19 05:33:00.724,-0.335,-0.6
2021-08-19 05:33:00.728,0.055,-0.775
2021-08-19 05:33:00.732,0.28,-0.99
2021-08-19 05:33:00.736,0.32,-1.045
2021-08-19 05:33:00.740,0.55,-0.935
2021-08-19 05:33:00.744,0.965,-0.92
2021-08-19 05:33:00.748,1.04,-0.685
2021-08-19 05:33:00.752,0.505,-0.26
2021-08-19 05:33:00.756,-0.315,0.18
2021-08-19 05:33:00.760,-1.11,0.16
2021-08-19 05:33:00.764,-1.55,-0.705
2021-08-19 05:33:00.768,-1.895,-1.705
2021-08-19 05:33:00.800,-1.565,-1.185
2021-08-19 05:33:00.804,-1.145,-1.06
2021-08-19 05:33:00.808,-0.855,-0.945
2021-08-19 05:33:00.812,-0.675,-0.755
2021-08-19 05:33:00.816,-0.54,-0.68
2021-08-19 05:33:00.820,-0.45,-0.615
2021-08-19 05:33:00.824,-0.4,-0.585
2021-08-19 05:33:00.828,-0.39,-0.545
2021-08-19 05:33:00.832,-0.335,-0.555
2021-08-19 05:33:00.836,-0.355,-0.57
2021-08-19 05:33:00.840,-0.365,-0.555
2021-08-19 05:33:00.844,-0.37,-0.61
2021-08-19 05:33:00.848,-0.36,-0.6
2021-08-19 05:33:00.852,-0.385,-0.6
2021-08-19 05:33:00.856,-0.4,-0.59
2021-08-19 05:33:00.860,-0.4,-0.645
2021-08-19 05:33:00.864,-0.43,-0.6
2021-08-19 05:33:00.868,-0.39,-0.6
2021-08-19 05:33:00.872,-0.375,-0.615
2021-08-19 05:33:00.876,-0.39,-0.63
2021-08-19 05:33:00.880,-0.41,-0.605
2021-08-19 05:33:00.884,-0.41,-0.61
2021-08-19 05:33:00.888,-0.375,-0.63
2021-08-19 05:33:00.892,-0.355,-0.59
2021-08-19 05:33:00.896,-0.375,-0.625
2021-08-19 05:33:00.900,-0.355,-0.61
2021-08-19 05:33:00.904,-0.33,-0.59
2021-08-19 05:33:00.908,-0.255,-0.545
2021-08-19 05:33:00.912,-0.235,-0.525
2021-08-19 05:33:00.916,-0.23,-0.55
2021-08-19 05:33:00.920,-0.19,-0.495
2021-08-19 05:33:00.924,-0.155,-0.48
2021-08-19 05:33:00.928,-0.115,-0.42
2021-08-19 05:33:00.932,-0.05,-0.41
2021-08-19 05:33:00.936,0.005,-0.385
2021-08-19 05:33:00.940,0.05,-0.395
2021-08-19 05:33:00.944,0.105,-0.345
2021-08-19 05:33:00.948,0.175,-0.28
2021-08-19 05:33:00.952,0.24,-0.24
2021-08-19 05:33:00.956,0.315,-0.21
2021-08-19 05:33:00.960,0.31,-0.18
2021-08-19 05:33:00.964,0.39,-0.125
2021-08-19 05:33:00.968,0.45,-0.085
2021-08-19 05:33:00.972,0.495,-0.06
2021-08-19 05:33:00.976,0.505,-0.06
2021-08-19 05:33:00.980,0.535,-0.075
2021-08-19 05:33:00.984,0.555,-0.03
2021-08-19 05:33:00.988,0.575,0.0
2021-08-19 05:33:00.992,0.63,0.01
2021-08-19 05:33:00.996,0.64,0.015
2021-08-19 05:33:01.000,0.65,0.04
2021-08-19 05:33:01.004,0.645,0.06
2021-08-19 05:33:01.008,0.695,0.105
2021-08-19 05:33:01.012,0.68,0.155
2021-08-19 05:33:01.016,0.635,0.125
2021-08-19 05:33:01.020,0.64,0.11
2021-08-19 05:33:01.024,0.595,0.055
2021-08-19 05:33:01.028,0.57,0.09
2021-08-19 05:33:01.032,0.515,0.09
2021-08-19 05:33:01.036,0.46,0.07
2021-08-19 05:33:01.040,0.385,0.055
2021-08-19 05:33:01.044,0.345,0.045
2021-08-19 05:33:01.048,0.32,0.045
2021-08-19 05:33:01.052,0.285,0.03
2021-08-19 05:33:01.056,0.24,0.035
2021-08-19 05:33:01.060,0.19,0.05
2021-08-19 05:33:01.064,0.105,0.045
2021-08-19 05:33:01.068,0.09,0.03
2021-08-19 05:33:01.072,0.05,0.0
2021-08-19 05:33:01.076,0.0,-0.015
2021-08-19 05:33:01.080,-0.015,-0.02
2021-08-19 05:33:01.084,-0.045,-0.025
2021-08-19 05:33:01.088,-0.05,-0.075
2021-08-19 05:33:01.092,-0.065,-0.115
2021-08-19 05:33:01.096,-0.045,-0.135
2021-08-19 05:33:01.100,-0.045,-0.125
2021-08-19 05:33:01.104,-0.095,-0.17
2021-08-19 05:33:01.108,-0.09,-0.225
2021-08-19 05:33:01.112,-0.075,-0.235
2021-08-19 05:33:01.116,-0.075,-0.27
2021-08-19 05:33:01.120,-0.08,-0.28
2021-08-19 05:33:01.124,-0.1,-0.33
2021-08-19 05:33:01.128,-0.075,-0.355
2021-08-19 05:33:01.132,-0.045,-0.39
2021-08-19 05:33:01.136,-0.065,-0.39
2021-08-19 05:33:01.140,-0.075,-0.38
2021-08-19 05:33:01.144,-0.115,-0.38
2021-08-19 05:33:01.148,-0.125,-0.42
2021-08-19 05:33:01.152,-0.15,-0.415
2021-08-19 05:33:01.156,-0.135,-0.47
2021-08-19 05:33:01.160,-0.165,-0.48
2021-08-19 05:33:01.164,-0.175,-0.45
2021-08-19 05:33:01.168,-0.19,-0.485
2021-08-19 05:33:01.172,-0.2,-0.5
2021-08-19 05:33:01.176,-0.2,-0.515
2021-08-19 05:33:01.180,-0.18,-0.525
2021-08-19 05:33:01.184,-0.2,-0.515
2021-08-19 05:33:01.188,-0.245,-0.555
2021-08-19 05:33:01.192,-0.245,-0.54
2021-08-19 05:33:01.196,-0.235,-0.555
2021-08-19 05:33:01.200,-0.23,-0.545
2021-08-19 05:33:01.204,-0.25,-0.575
2021-08-19 05:33:01.208,-0.24,-0.575
2021-08-19 05:33:01.212,-0.255,-0.55
2021-08-19 05:33:01.216,-0.24,-0.59
2021-08-19 05:33:01.220,-0.265,-0.555
2021-08-19 05:33:01.224,-0.255,-0.61
2021-08-19 05:33:01.228,-0.265,-0.59
2021-08-19 05:33:01.232,-0.265,-0.605
2021-08-19 05:33:01.236,-0.225,-0.585
2021-08-19 05:33:01.240,-0.265,-0.61
2021-08-19 05:33:01.244,-0.265,-0.64
2021-08-19 05:33:01.248,-0.27,-0.625
2021-08-19 05:33:01.252,-0.29,-0.6
2021-08-19 05:33:01.256,-0.275,-0.6
2021-08-19 05:33:01.260,-0.255,-0.62
2021-08-19 05:33:01.264,-0.265,-0.57
2021-08-19 05:33:01.268,-0.26,-0.595
2021-08-19 05:33:01.272,-0.27,-0.57
2021-08-19 05:33:01.276,-0.275,-0.595
2021-08-19 05:33:01.280,-0.245,-0.585
2021-08-19 05:33:01.284,-0.285,-0.635
2021-08-19 05:33:01.288,-0.275,-0.62
2021-08-19 05:33:01.292,-0.265,-0.615
2021-08-19 05:33:01.296,-0.285,-0.625
2021-08-19 05:33:01.300,-0.26,-0.61
2021-08-19 05:33:01.304,-0.27,-0.61
2021-08-19 05:33:01.308,-0.28,-0.615
2021-08-19 05:33:01.312,-0.26,-0.605
2021-08-19 05:33:01.316,-0.23,-0.585
2021-08-19 05:33:01.320,-0.205,-0.615
2021-08-19 05:33:01.324,-0.22,-0.615
2021-08-19 05:33:01.328,-0.22,-0.595
2021-08-19 05:33:01.332,-0.2,-0.57
2021-08-19 05:33:01.336,-0.21,-0.54
2021-08-19 05:33:01.340,-0.19,-0.545
2021-08-19 05:33:01.344,-0.205,-0.5
2021-08-19 05:33:01.348,-0.2,-0.52
2021-08-19 05:33:01.352,-0.22,-0.52
2021-08-19 05:33:01.356,-0.22,-0.5
2021-08-19 05:33:01.360,-0.24,-0.47
2021-08-19 05:33:01.364,-0.215,-0.495
2021-08-19 05:33:01.368,-0.21,-0.505
2021-08-19 05:33:01.372,-0.19,-0.5
2021-08-19 05:33:01.376,-0.145,-0.48
2021-08-19 05:33:01.380,-0.145,-0.495
2021-08-19 05:33:01.384,-0.125,-0.52
2021-08-19 05:33:01.388,-0.185,-0.56
2021-08-19 05:33:01.392,-0.3,-0.585
2021-08-19 05:33:01.396,-0.435,-0.6
2021-08-19 05:33:01.400,-0.59,-0.62
2021-08-19 05:33:01.404,-0.65,-0.62
2021-08-19 05:33:01.408,-0.57,-0.7
2021-08-19 05:33:01.412,-0.365,-0.745
2021-08-19 05:33:01.416,0.025,-0.84
2021-08-19 05:33:01.420,0.42,-0.98
2021-08-19 05:33:01.424,0.56,-1.0
2021-08-19 05:33:01.428,0.845,-0.895
2021-08-19 05:33:01.432,1.445,-0.87
2021-08-19 05:33:01.436,1.725,-0.77
2021-08-19 05:33:01.440,1.44,-0.425
2021-08-19 05:33:01.444,0.63,0.005
2021-08-19 05:33:01.448,-0.51,0.075
2021-08-19 05:33:01.452,-1.35,-0.66
2021-08-19 05:33:01.456,-1.765,-1.67
2021-08-19 05:33:01.492,-1.755,-1.73
2021-08-19 05:33:01.496,-1.405,-1.535
2021-08-19 05:33:01.500,-1.075,-1.3
2021-08-19 05:33:01.504,-0.88,-1.055
2021-08-19 05:33:01.508,-0.77,-0.87
2021-08-19 05:33:01.512,-0.7,-0.79
2021-08-19 05:33:01.516,-0.645,-0.755
2021-08-19 05:33:01.520,-0.615,-0.705
2021-08-19 05:33:01.524,-0.62,-0.715
2021-08-19 05:33:01.528,-0.63,-0.675
2021-08-19 05:33:01.532,-0.63,-0.71
2021-08-19 05:33:01.536,-0.615,-0.7
2021-08-19 05:33:01.540,-0.6,-0.725
2021-08-19 05:33:01.544,-0.6,-0.705
2021-08-19 05:33:01.548,-0.6,-0.71
2021-08-19 05:33:01.552,-0.595,-0.675
2021-08-19 05:33:01.556,-0.595,-0.72
2021-08-19 05:33:01.560,-0.585,-0.705
2021-08-19 05:33:01.564,-0.565,-0.705
2021-08-19 05:33:01.568,-0.565,-0.695
2021-08-19 05:33:01.572,-0.555,-0.69
2021-08-19 05:33:01.576,-0.595,-0.7
2021-08-19 05:33:01.580,-0.525,-0.68
2021-08-19 05:33:01.584,-0.49,-0.68
2021-08-19 05:33:01.588,-0.49,-0.655
2021-08-19 05:33:01.592,-0.49,-0.635
2021-08-19 05:33:01.596,-0.455,-0.675
2021-08-19 05:33:01.600,-0.425,-0.675
2021-08-19 05:33:01.604,-0.365,-0.63
2021-08-19 05:33:01.608,-0.315,-0.63
2021-08-19 05:33:01.612,-0.285,-0.6
2021-08-19 05:33:01.616,-0.22,-0.57
2021-08-19 05:33:01.620,-0.165,-0.495
2021-08-19 05:33:01.624,-0.135,-0.485
2021-08-19 05:33:01.628,-0.08,-0.465
2021-08-19 05:33:01.632,-0.04,-0.47
2021-08-19 05:33:01.636,-0.01,-0.4
2021-08-19 05:33:01.640,0.035,-0.425
2021-08-19 05:33:01.644,0.125,-0.365
2021-08-19 05:33:01.648,0.175,-0.37
2021-08-19 05:33:01.652,0.24,-0.33
2021-08-19 05:33:01.656,0.3,-0.295
2021-08-19 05:33:01.660,0.35,-0.33
2021-08-19 05:33:01.664,0.415,-0.34
2021-08-19 05:33:01.668,0.46,-0.34
2021-08-19 05:33:01.672,0.44,-0.335
2021-08-19 05:33:01.676,0.48,-0.345
2021-08-19 05:33:01.680,0.51,-0.31
2021-08-19 05:33:01.684,0.51,-0.31
2021-08-19 05:33:01.688,0.56,-0.37
2021-08-19 05:33:01.692,0.545,-0.335
2021-08-19 05:33:01.696,0.58,-0.34
2021-08-19 05:33:01.700,0.575,-0.315
2021-08-19 05:33:01.704,0.58,-0.285
2021-08-19 05:33:01.708,0.565,-0.275
2021-08-19 05:33:01.712,0.53,-0.275
2021-08-19 05:33:01.716,0.535,-0.26
2021-08-19 05:33:01.720,0.485,-0.24
2021-08-19 05:33:01.724,0.48,-0.2
2021-08-19 05:33:01.728,0.425,-0.195
2021-08-19 05:33:01.732,0.315,-0.2
2021-08-19 05:33:01.736,0.27,-0.205
2021-08-19 05:33:01.740,0.215,-0.195
2021-08-19 05:33:01.744,0.16,-0.185
2021-08-19 05:33:01.748,0.075,-0.235
2021-08-19 05:33:01.752,0.015,-0.195
2021-08-19 05:33:01.756,-0.04,-0.215
2021-08-19 05:33:01.760,-0.08,-0.24
2021-08-19 05:33:01.764,-0.125,-0.21
2021-08-19 05:33:01.768,-0.195,-0.23
2021-08-19 05:33:01.772,-0.205,-0.26
2021-08-19 05:33:01.776,-0.27,-0.235
2021-08-19 05:33:01.780,-0.295,-0.27
2021-08-19 05:33:01.784,-0.31,-0.295
2021-08-19 05:33:01.788,-0.33,-0.32
2021-08-19 05:33:01.792,-0.38,-0.33
2021-08-19 05:33:01.796,-0.38,-0.345
2021-08-19 05:33:01.800,-0.395,-0.375
2021-08-19 05:33:01.804,-0.39,-0.365
2021-08-19 05:33:01.808,-0.39,-0.355
2021-08-19 05:33:01.812,-0.405,-0.425
2021-08-19 05:33:01.816,-0.415,-0.44
2021-08-19 05:33:01.820,-0.395,-0.425
2021-08-19 05:33:01.824,-0.38,-0.445
2021-08-19 05:33:01.828,-0.395,-0.445
2021-08-19 05:33:01.832,-0.41,-0.465
2021-08-19 05:33:01.836,-0.41,-0.46
2021-08-19 05:33:01.840,-0.395,-0.445
2021-08-19 05:33:01.844,-0.38,-0.45
2021-08-19 05:33:01.848,-0.385,-0.45
2021-08-19 05:33:01.852,-0.41,-0.485
2021-08-19 05:33:01.856,-0.385,-0.475
2021-08-19 05:33:01.860,-0.375,-0.46
2021-08-19 05:33:01.864,-0.365,-0.47
2021-08-19 05:33:01.868,-0.34,-0.48
2021-08-19 05:33:01.872,-0.365,-0.475
2021-08-19 05:33:01.876,-0.35,-0.475
2021-08-19 05:33:01.880,-0.345,-0.445
2021-08-19 05:33:01.884,-0.355,-0.445
2021-08-19 05:33:01.888,-0.345,-0.435
2021-08-19 05:33:01.892,-0.385,-0.475
2021-08-19 05:33:01.896,-0.36,-0.5
2021-08-19 05:33:01.900,-0.335,-0.46
2021-08-19 05:33:01.904,-0.295,-0.475
2021-08-19 05:33:01.908,-0.265,-0.455
2021-08-19 05:33:01.912,-0.255,-0.465
2021-08-19 05:33:01.916,-0.24,-0.48
2021-08-19 05:33:01.920,-0.265,-0.495
2021-08-19 05:33:01.924,-0.23,-0.525
2021-08-19 05:33:01.928,-0.265,-0.525
2021-08-19 05:33:01.932,-0.265,-0.525
2021-08-19 05:33:01.936,-0.28,-0.55
2021-08-19 05:33:01.940,-0.285,-0.545
2021-08-19 05:33:01.944,-0.245,-0.555
2021-08-19 05:33:01.948,-0.28,-0.585
2021-08-19 05:33:01.952,-0.275,-0.6
2021-08-19 05:33:01.956,-0.315,-0.615
2021-08-19 05:33:01.960,-0.31,-0.615
2021-08-19 05:33:01.964,-0.29,-0.58
2021-08-19 05:33:01.968,-0.305,-0.62
2021-08-19 05:33:01.972,-0.32,-0.625
2021-08-19 05:33:01.976,-0.33,-0.625
2021-08-19 05:33:01.980,-0.32,-0.62
2021-08-19 05:33:01.984,-0.315,-0.605
2021-08-19 05:33:01.988,-0.345,-0.62
2021-08-19 05:33:01.992,-0.36,-0.64
2021-08-19 05:33:01.996,-0.36,-0.65
2021-08-19 05:33:02.000,-0.375,-0.66
2021-08-19 05:33:02.004,-0.355,-0.655
2021-08-19 05:33:02.008,-0.375,-0.655
2021-08-19 05:33:02.012,-0.405,-0.655
2021-08-19 05:33:02.016,-0.395,-0.66
2021-08-19 05:33:02.020,-0.395,-0.645
2021-08-19 05:33:02.024,-0.41,-0.64
2021-08-19 05:33:02.028,-0.385,-0.64
2021-08-19 05:33:02.032,-0.385,-0.64
2021-08-19 05:33:02.036,-0.41,-0.665
2021-08-19 05:33:02.040,-0.435,-0.69
2021-08-19 05:33:02.044,-0.42,-0.655
2021-08-19 05:33:02.048,-0.44,-0.645
2021-08-19 05:33:02.052,-0.43,-0.67
2021-08-19 05:33:02.056,-0.435,-0.665
2021-08-19 05:33:02.060,-0.47,-0.675
2021-08-19 05:33:02.064,-0.44,-0.685
2021-08-19 05:33:02.068,-0.425,-0.695
2021-08-19 05:33:02.072,-0.445,-0.67
2021-08-19 05:33:02.076,-0.43,-0.695
2021-08-19 05:33:02.080,-0.455,-0.66
2021-08-19 05:33:02.084,-0.42,-0.67
2021-08-19 05:33:02.088,-0.425,-0.645
2021-08-19 05:33:02.092,-0.47,-0.705
2021-08-19 05:33:02.096,-0.565,-0.685
2021-08-19 05:33:02.100,-0.76,-0.665
2021-08-19 05:33:02.104,-0.805,-0.675
2021-08-19 05:33:02.108,-0.845,-0.695
2021-08-19 05:33:02.112,-0.705,-0.75
2021-08-19 05:33:02.116,-0.475,-0.835
2021-08-19 05:33:02.120,-0.095,-0.94
2021-08-19 05:33:02.124,0.15,-1.095
2021-08-19 05:33:02.128,0.17,-1.04
2021-08-19 05:33:02.132,0.425,-0.94
2021-08-19 05:33:02.136,0.855,-0.9
2021-08-19 05:33:02.140,0.82,-0.7
2021-08-19 05:33:02.144,0.315,-0.215
2021-08-19 05:33:02.148,-0.43,0.205
2021-08-19 05:33:02.152,-1.09,0.025
2021-08-19 05:33:02.156,-1.54,-0.875
2021-08-19 05:33:02.160,-1.905,-1.84
2021-08-19 05:33:02.192,-1.725,-1.565
2021-08-19 05:33:02.196,-1.35,-1.505
2021-08-19 05:33:02.200,-1.025,-1.315
2021-08-19 05:33:02.204,-0.835,-1.09
2021-08-19 05:33:02.208,-0.705,-0.9
2021-08-19 05:33:02.212,-0.6,-0.82
2021-08-19 05:33:02.216,-0.595,-0.775
2021-08-19 05:33:02.220,-0.59,-0.715
2021-08-19 05:33:02.224,-0.57,-0.72
2021-08-19 05:33:02.228,-0.555,-0.71
2021-08-19 05:33:02.232,-0.525,-0.74
2021-08-19 05:33:02.236,-0.545,-0.73
2021-08-19 05:33:02.240,-0.555,-0.745
2021-08-19 05:33:02.244,-0.515,-0.725
2021-08-19 05:33:02.248,-0.52,-0.775
2021-08-19 05:33:02.252,-0.525,-0.745
2021-08-19 05:33:02.256,-0.52,-0.73
2021-08-19 05:33:02.260,-0.51,-0.755
2021-08-19 05:33:02.264,-0.51,-0.745
2021-08-19 05:33:02.268,-0.505,-0.735
2021-08-19 05:33:02.272,-0.5,-0.725
2021-08-19 05:33:02.276,-0.5,-0.755
2021-08-19 05:33:02.280,-0.5,-0.74
2021-08-19 05:33:02.284,-0.49,-0.745
2021-08-19 05:33:02.288,-0.46,-0.735
2021-08-19 05:33:02.292,-0.435,-0.72
2021-08-19 05:33:02.296,-0.415,-0.71
2021-08-19 05:33:02.300,-0.405,-0.725
2021-08-19 05:33:02.304,-0.375,-0.715
2021-08-19 05:33:02.308,-0.32,-0.7
2021-08-19 05:33:02.312,-0.275,-0.665
2021-08-19 05:33:02.316,-0.26,-0.645
2021-08-19 05:33:02.320,-0.24,-0.665
2021-08-19 05:33:02.324,-0.23,-0.635
2021-08-19 05:33:02.328,-0.13,-0.625
2021-08-19 05:33:02.332,-0.07,-0.6
2021-08-19 05:33:02.336,-0.04,-0.56
2021-08-19 05:33:02.340,-0.02,-0.505
2021-08-19 05:33:02.344,0.025,-0.5
2021-08-19 05:33:02.348,0.08,-0.45
2021-08-19 05:33:02.352,0.125,-0.425
2021-08-19 05:33:02.356,0.155,-0.4
2021-08-19 05:33:02.360,0.17,-0.39
2021-08-19 05:33:02.364,0.235,-0.35
2021-08-19 05:33:02.368,0.255,-0.355
2021-08-19 05:33:02.372,0.27,-0.345
2021-08-19 05:33:02.376,0.305,-0.34
2021-08-19 05:33:02.380,0.315,-0.315
2021-08-19 05:33:02.384,0.33,-0.275
2021-08-19 05:33:02.388,0.375,-0.235
2021-08-19 05:33:02.392,0.395,-0.215
2021-08-19 05:33:02.396,0.395,-0.165
2021-08-19 05:33:02.400,0.38,-0.14
2021-08-19 05:33:02.404,0.395,-0.105
2021-08-19 05:33:02.408,0.42,-0.115
2021-08-19 05:33:02.412,0.44,-0.125
2021-08-19 05:33:02.416,0.42,-0.03
2021-08-19 05:33:02.420,0.405,-0.02
2021-08-19 05:33:02.424,0.415,-0.07
2021-08-19 05:33:02.428,0.4,-0.06
2021-08-19 05:33:02.432,0.37,-0.07
2021-08-19 05:33:02.436,0.325,-0.09
2021-08-19 05:33:02.440,0.305,-0.115
2021-08-19 05:33:02.444,0.265,-0.12
2021-08-19 05:33:02.448,0.225,-0.155
2021-08-19 05:33:02.452,0.17,-0.165
2021-08-19 05:33:02.456,0.125,-0.17
2021-08-19 05:33:02.460,0.07,-0.195
2021-08-19 05:33:02.464,0.035,-0.215
2021-08-19 05:33:02.468,-0.015,-0.22
2021-08-19 05:33:02.472,-0.015,-0.22
2021-08-19 05:33:02.476,-0.035,-0.26
2021-08-19 05:33:02.480,-0.085,-0.255
2021-08-19 05:33:02.484,-0.14,-0.3
2021-08-19 05:33:02.488,-0.16,-0.31
2021-08-19 05:33:02.492,-0.2,-0.31
2021-08-19 05:33:02.496,-0.205,-0.31
2021-08-19 05:33:02.500,-0.255,-0.385
2021-08-19 05:33:02.504,-0.265,-0.42
2021-08-19 05:33:02.508,-0.275,-0.42
2021-08-19 05:33:02.512,-0.28,-0.415
2021-08-19 05:33:02.516,-0.28,-0.42
2021-08-19 05:33:02.520,-0.32,-0.44
2021-08-19 05:33:02.524,-0.315,-0.475
2021-08-19 05:33:02.528,-0.305,-0.48
2021-08-19 05:33:02.532,-0.29,-0.495
2021-08-19 05:33:02.536,-0.31,-0.495
2021-08-19 05:33:02.540,-0.345,-0.54
2021-08-19 05:33:02.544,-0.32,-0.515
2021-08-19 05:33:02.548,-0.325,-0.53
2021-08-19 05:33:02.552,-0.32,-0.535
2021-08-19 05:33:02.556,-0.33,-0.59
2021-08-19 05:33:02.560,-0.325,-0.585
2021-08-19 05:33:02.564,-0.35,-0.61
2021-08-19 05:33:02.568,-0.35,-0.59
2021-08-19 05:33:02.572,-0.345,-0.605
2021-08-19 05:33:02.576,-0.36,-0.6
2021-08-19 05:33:02.580,-0.345,-0.6
2021-08-19 05:33:02.584,-0.35,-0.58
2021-08-19 05:33:02.588,-0.33,-0.615
2021-08-19 05:33:02.592,-0.345,-0.625
2021-08-19 05:33:02.596,-0.345,-0.64
2021-08-19 05:33:02.600,-0.335,-0.615
2021-08-19 05:33:02.604,-0.36,-0.625
2021-08-19 05:33:02.608,-0.35,-0.64
2021-08-19 05:33:02.612,-0.35,-0.625
2021-08-19 05:33:02.616,-0.34,-0.64
2021-08-19 05:33:02.620,-0.35,-0.6
2021-08-19 05:33:02.624,-0.365,-0.65
2021-08-19 05:33:02.628,-0.34,-0.665
2021-08-19 05:33:02.632,-0.335,-0.665
2021-08-19 05:33:02.636,-0.355,-0.645
2021-08-19 05:33:02.640,-0.355,-0.655
2021-08-19 05:33:02.644,-0.385,-0.66
2021-08-19 05:33:02.648,-0.38,-0.64
2021-08-19 05:33:02.652,-0.32,-0.635
2021-08-19 05:33:02.656,-0.34,-0.625
2021-08-19 05:33:02.660,-0.37,-0.6
2021-08-19 05:33:02.664,-0.38,-0.63
2021-08-19 05:33:02.668,-0.415,-0.59
2021-08-19 05:33:02.672,-0.41,-0.605
2021-08-19 05:33:02.676,-0.37,-0.61
2021-08-19 05:33:02.680,-0.425,-0.635
2021-08-19 05:33:02.684,-0.4,-0.635
2021-08-19 05:33:02.688,-0.35,-0.655
2021-08-19 05:33:02.692,-0.335,-0.63
2021-08-19 05:33:02.696,-0.32,-0.64
2021-08-19 05:33:02.700,-0.315,-0.675
2021-08-19 05:33:02.704,-0.32,-0.67
2021-08-19 05:33:02.708,-0.335,-0.67
2021-08-19 05:33:02.712,-0.345,-0.68
2021-08-19 05:33:02.716,-0.335,-0.695
2021-08-19 05:33:02.720,-0.345,-0.735
2021-08-19 05:33:02.724,-0.36,-0.745
2021-08-19 05:33:02.728,-0.345,-0.73
2021-08-19 05:33:02.732,-0.335,-0.735
2021-08-19 05:33:02.736,-0.32,-0.71
2021-08-19 05:33:02.740,-0.35,-0.755
2021-08-19 05:33:02.744,-0.385,-0.75
2021-08-19 05:33:02.748,-0.395,-0.75
2021-08-19 05:33:02.752,-0.385,-0.7
2021-08-19 05:33:02.756,-0.385,-0.705
2021-08-19 05:33:02.760,-0.4,-0.725
2021-08-19 05:33:02.764,-0.415,-0.75
2021-08-19 05:33:02.768,-0.41,-0.745
2021-08-19 05:33:02.772,-0.405,-0.75
2021-08-19 05:33:02.776,-0.415,-0.765
2021-08-19 05:33:02.780,-0.415,-0.77
2021-08-19 05:33:02.784,-0.46,-0.76
2021-08-19 05:33:02.788,-0.465,-0.79
2021-08-19 05:33:02.792,-0.46,-0.775
2021-08-19 05:33:02.796,-0.44,-0.755
2021-08-19 05:33:02.800,-0.45,-0.775
2021-08-19 05:33:02.804,-0.445,-0.765
2021-08-19 05:33:02.808,-0.45,-0.785
2021-08-19 05:33:02.812,-0.45,-0.775
2021-08-19 05:33:02.816,-0.48,-0.775
2021-08-19 05:33:02.820,-0.455,-0.75
2021-08-19 05:33:02.824,-0.485,-0.79
2021-08-19 05:33:02.828,-0.48,-0.795
2021-08-19 05:33:02.832,-0.465,-0.785
2021-08-19 05:33:02.836,-0.46,-0.78
2021-08-19 05:33:02.840,-0.465,-0.785
2021-08-19 05:33:02.844,-0.48,-0.76
2021-08-19 05:33:02.848,-0.47,-0.75
2021-08-19 05:33:02.852,-0.43,-0.735
2021-08-19 05:33:02.856,-0.415,-0.75
2021-08-19 05:33:02.860,-0.42,-0.73
2021-08-19 05:33:02.864,-0.445,-0.76
2021-08-19 05:33:02.868,-0.415,-0.8
2021-08-19 05:33:02.872,-0.43,-0.785
2021-08-19 05:33:02.876,-0.4,-0.76
2021-08-19 05:33:02.880,-0.42,-0.775
2021-08-19 05:33:02.884,-0.435,-0.79
2021-08-19 05:33:02.888,-0.42,-0.775
2021-08-19 05:33:02.892,-0.45,-0.755
2021-08-19 05:33:02.896,-0.41,-0.75
2021-08-19 05:33:02.900,-0.42,-0.725
2021-08-19 05:33:02.904,-0.445,-0.735
2021-08-19 05:33:02.908,-0.425,-0.715
2021-08-19 05:33:02.912,-0.37,-0.715
2021-08-19 05:33:02.916,-0.36,-0.75
2021-08-19 05:33:02.920,-0.35,-0.71
2021-08-19 05:33:02.924,-0.405,-0.66
2021-08-19 05:33:02.928,-0.395,-0.64
2021-08-19 05:33:02.932,-0.36,-0.67
2021-08-19 05:33:02.936,-0.345,-0.62
2021-08-19 05:33:02.940,-0.365,-0.63
2021-08-19 05:33:02.944,-0.34,-0.615
2021-08-19 05:33:02.948,-0.305,-0.615
2021-08-19 05:33:02.952,-0.275,-0.585
2021-08-19 05:33:02.956,-0.265,-0.615
2021-08-19 05:33:02.960,-0.31,-0.62
2021-08-19 05:33:02.964,-0.375,-0.64
2021-08-19 05:33:02.968,-0.525,-0.635
2021-08-19 05:33:02.972,-0.67,-0.68
2021-08-19 05:33:02.976,-0.685,-0.72
2021-08-19 05:33:02.980,-0.605,-0.77
2021-08-19 05:33:02.984,-0.435,-0.84
2021-08-19 05:33:02.988,-0.08,-0.94
2021-08-19 05:33:02.992,0.25,-1.06
2021-08-19 05:33:02.996,0.37,-1.11
2021-08-19 05:33:03.000,0.535,-1.025
2021-08-19 05:33:03.004,0.97,-0.975
2021-08-19 05:33:03.008,1.13,-0.88
2021-08-19 05:33:03.012,0.77,-0.465
2021-08-19 05:33:03.016,0.09,-0.055
2021-08-19 05:33:03.020,-0.665,0.05
2021-08-19 05:33:03.024,-1.19,-0.68
2021-08-19 05:33:03.028,-1.555,-1.67
2021-08-19 05:33:03.060,-1.93,-1.82
2021-08-19 05:33:03.064,-1.575,-1.695
2021-08-19 05:33:03.068,-1.25,-1.465
2021-08-19 05:33:03.072,-0.965,-1.205
2021-08-19 05:33:03.076,-0.825,-0.99
2021-08-19 05:33:03.080,-0.705,-0.875
2021-08-19 05:33:03.084,-0.645,-0.84
2021-08-19 05:33:03.088,-0.66,-0.765
2021-08-19 05:33:03.092,-0.66,-0.735
2021-08-19 05:33:03.096,-0.615,-0.735
2021-08-19 05:33:03.100,-0.615,-0.73
2021-08-19 05:33:03.104,-0.565,-0.705
2021-08-19 05:33:03.108,-0.615,-0.73
2021-08-19 05:33:03.112,-0.585,-0.71
2021-08-19 05:33:03.116,-0.565,-0.715
2021-08-19 05:33:03.120,-0.575,-0.705
2021-08-19 05:33:03.124,-0.595,-0.715
2021-08-19 05:33:03.128,-0.56,-0.715
2021-08-19 05:33:03.132,-0.575,-0.715
2021-08-19 05:33:03.136,-0.585,-0.715
2021-08-19 05:33:03.140,-0.555,-0.735
2021-08-19 05:33:03.144,-0.52,-0.725
2021-08-19 05:33:03.148,-0.545,-0.74
2021-08-19 05:33:03.152,-0.525,-0.725
2021-08-19 05:33:03.156,-0.505,-0.675
2021-08-19 05:33:03.160,-0.465,-0.69
2021-08-19 05:33:03.164,-0.43,-0.705
2021-08-19 05:33:03.168,-0.4,-0.69
2021-08-19 05:33:03.172,-0.405,-0.695
2021-08-19 05:33:03.176,-0.335,-0.67
2021-08-19 05:33:03.180,-0.3,-0.63
2021-08-19 05:33:03.184,-0.245,-0.615
2021-08-19 05:33:03.188,-0.235,-0.56
2021-08-19 05:33:03.192,-0.21,-0.52
2021-08-19 05:33:03.196,-0.145,-0.495
2021-08-19 05:33:03.200,-0.11,-0.455
2021-08-19 05:33:03.204,-0.04,-0.44
2021-08-19 05:33:03.208,0.025,-0.47
2021-08-19 05:33:03.212,0.105,-0.415
2021-08-19 05:33:03.216,0.12,-0.385
2021-08-19 05:33:03.220,0.21,-0.375
2021-08-19 05:33:03.224,0.26,-0.41
2021-08-19 05:33:03.228,0.32,-0.385
2021-08-19 05:33:03.232,0.315,-0.395
2021-08-19 05:33:03.236,0.385,-0.39
2021-08-19 05:33:03.240,0.39,-0.365
2021-08-19 05:33:03.244,0.44,-0.37
2021-08-19 05:33:03.248,0.425,-0.39
2021-08-19 05:33:03.252,0.445,-0.395
2021-08-19 05:33:03.256,0.48,-0.37
2021-08-19 05:33:03.260,0.535,-0.36
2021-08-19 05:33:03.264,0.575,-0.36
2021-08-19 05:33:03.268,0.535,-0.3
2021-08-19 05:33:03.272,0.52,-0.305
2021-08-19 05:33:03.276,0.54,-0.28
2021-08-19 05:33:03.280,0.58,-0.27
2021-08-19 05:33:03.284,0.56,-0.25
2021-08-19 05:33:03.288,0.57,-0.235
2021-08-19 05:33:03.292,0.525,-0.22
2021-08-19 05:33:03.296,0.52,-0.21
2021-08-19 05:33:03.300,0.495,-0.2
2021-08-19 05:33:03.304,0.48,-0.145
2021-08-19 05:33:03.308,0.425,-0.185
2021-08-19 05:33:03.312,0.39,-0.14
2021-08-19 05:33:03.316,0.33,-0.15
2021-08-19 05:33:03.320,0.305,-0.18
2021-08-19 05:33:03.324,0.28,-0.175
2021-08-19 05:33:03.328,0.22,-0.135
2021-08-19 05:33:03.332,0.15,-0.165
2021-08-19 05:33:03.336,0.125,-0.155
2021-08-19 05:33:03.340,0.075,-0.125
2021-08-19 05:33:03.344,0.03,-0.17
2021-08-19 05:33:03.348,0.0,-0.165
2021-08-19 05:33:03.352,-0.055,-0.16
2021-08-19 05:33:03.356,-0.06,-0.17
2021-08-19 05:33:03.360,-0.075,-0.2
2021-08-19 05:33:03.364,-0.09,-0.2
2021-08-19 05:33:03.368,-0.105,-0.21
2021-08-19 05:33:03.372,-0.15,-0.275
2021-08-19 05:33:03.376,-0.16,-0.25
2021-08-19 05:33:03.380,-0.155,-0.285
2021-08-19 05:33:03.384,-0.15,-0.29
2021-08-19 05:33:03.388,-0.16,-0.305
2021-08-19 05:33:03.392,-0.185,-0.335
2021-08-19 05:33:03.396,-0.195,-0.35
2021-08-19 05:33:03.400,-0.17,-0.34
2021-08-19 05:33:03.404,-0.155,-0.365
2021-08-19 05:33:03.408,-0.175,-0.39
2021-08-19 05:33:03.412,-0.215,-0.405
2021-08-19 05:33:03.416,-0.22,-0.455
2021-08-19 05:33:03.420,-0.21,-0.445
2021-08-19 05:33:03.424,-0.205,-0.45
2021-08-19 05:33:03.428,-0.21,-0.465
2021-08-19 05:33:03.432,-0.245,-0.485
2021-08-19 05:33:03.436,-0.21,-0.475
2021-08-19 05:33:03.440,-0.245,-0.45
2021-08-19 05:33:03.444,-0.24,-0.475
2021-08-19 05:33:03.448,-0.26,-0.48
2021-08-19 05:33:03.452,-0.265,-0.46
2021-08-19 05:33:03.456,-0.275,-0.46
2021-08-19 05:33:03.460,-0.22,-0.46
2021-08-19 05:33:03.464,-0.195,-0.495
2021-08-19 05:33:03.468,-0.16,-0.505
2021-08-19 05:33:03.472,-0.16,-0.535
2021-08-19 05:33:03.476,-0.185,-0.525
2021-08-19 05:33:03.480,-0.16,-0.575
2021-08-19 05:33:03.484,-0.165,-0.585
2021-08-19 05:33:03.488,-0.175,-0.62
2021-08-19 05:33:03.492,-0.21,-0.64
2021-08-19 05:33:03.496,-0.21,-0.67
2021-08-19 05:33:03.500,-0.225,-0.665
2021-08-19 05:33:03.504,-0.2,-0.68
2021-08-19 05:33:03.508,-0.2,-0.68
2021-08-19 05:33:03.512,-0.175,-0.71
2021-08-19 05:33:03.516,-0.245,-0.745
2021-08-19 05:33:03.520,-0.23,-0.715
2021-08-19 05:33:03.524,-0.245,-0.705
2021-08-19 05:33:03.528,-0.245,-0.7
2021-08-19 05:33:03.532,-0.235,-0.73
2021-08-19 05:33:03.536,-0.27,-0.715
2021-08-19 05:33:03.540,-0.275,-0.69
2021-08-19 05:33:03.544,-0.275,-0.705
2021-08-19 05:33:03.548,-0.265,-0.735
2021-08-19 05:33:03.552,-0.24,-0.715
2021-08-19 05:33:03.556,-0.3,-0.73
2021-08-19 05:33:03.560,-0.29,-0.725
2021-08-19 05:33:03.564,-0.265,-0.69
2021-08-19 05:33:03.568,-0.245,-0.685
2021-08-19 05:33:03.572,-0.225,-0.725
2021-08-19 05:33:03.576,-0.235,-0.71
2021-08-19 05:33:03.580,-0.24,-0.715
2021-08-19 05:33:03.584,-0.26,-0.715
2021-08-19 05:33:03.588,-0.21,-0.725
2021-08-19 05:33:03.592,-0.22,-0.705
2021-08-19 05:33:03.596,-0.285,-0.715
2021-08-19 05:33:03.600,-0.27,-0.69
2021-08-19 05:33:03.604,-0.27,-0.725
2021-08-19 05:33:03.608,-0.255,-0.725
2021-08-19 05:33:03.612,-0.23,-0.71
2021-08-19 05:33:03.616,-0.25,-0.685
2021-08-19 05:33:03.620,-0.275,-0.695
2021-08-19 05:33:03.624,-0.28,-0.73
2021-08-19 05:33:03.628,-0.275,-0.735
2021-08-19 05:33:03.632,-0.28,-0.69
2021-08-19 05:33:03.636,-0.27,-0.71
2021-08-19 05:33:03.640,-0.275,-0.69
2021-08-19 05:33:03.644,-0.29,-0.68
2021-08-19 05:33:03.648,-0.305,-0.705
2021-08-19 05:33:03.652,-0.265,-0.69
2021-08-19 05:33:03.656,-0.28,-0.705
2021-08-19 05:33:03.660,-0.295,-0.71
2021-08-19 05:33:03.664,-0.285,-0.7
2021-08-19 05:33:03.668,-0.27,-0.725
2021-08-19 05:33:03.672,-0.265,-0.735
2021-08-19 05:33:03.676,-0.28,-0.715
2021-08-19 05:33:03.680,-0.285,-0.71
2021-08-19 05:33:03.684,-0.26,-0.705
2021-08-19 05:33:03.688,-0.255,-0.685
2021-08-19 05:33:03.692,-0.295,-0.705
2021-08-19 05:33:03.696,-0.285,-0.71
2021-08-19 05:33:03.700,-0.28,-0.685
2021-08-19 05:33:03.704,-0.25,-0.73
2021-08-19 05:33:03.708,-0.25,-0.74
2021-08-19 05:33:03.712,-0.235,-0.71
2021-08-19 05:33:03.716,-0.24,-0.73
2021-08-19 05:33:03.720,-0.275,-0.67
2021-08-19 05:33:03.724,-0.265,-0.65
2021-08-19 05:33:03.728,-0.295,-0.64
2021-08-19 05:33:03.732,-0.435,-0.66
2021-08-19 05:33:03.736,-0.585,-0.64
2021-08-19 05:33:03.740,-0.72,-0.62
2021-08-19 05:33:03.744,-0.66,-0.64
2021-08-19 05:33:03.748,-0.515,-0.73
2021-08-19 05:33:03.752,-0.185,-0.78
2021-08-19 05:33:03.756,0.22,-0.97
2021-08-19 05:33:03.760,0.47,-1.045
2021-08-19 05:33:03.764,0.61,-1.0
2021-08-19 05:33:03.768,1.04,-0.935
2021-08-19 05:33:03.772,1.575,-0.935
2021-08-19 05:33:03.776,1.52,-0.73
2021-08-19 05:33:03.780,0.915,-0.335
2021-08-19 05:33:03.784,-0.13,-0.025
2021-08-19 05:33:03.788,-1.03,-0.36
2021-08-19 05:33:03.792,-1.57,-1.355
2021-08-19 05:33:03.824,-1.97,-1.755
2021-08-19 05:33:03.828,-1.585,-1.64
2021-08-19 05:33:03.832,-1.2,-1.485
2021-08-19 05:33:03.836,-0.92,-1.285
2021-08-19 05:33:03.840,-0.755,-1.02
2021-08-19 05:33:03.844,-0.635,-0.93
2021-08-19 05:33:03.848,-0.54,-0.87
2021-08-19 05:33:03.852,-0.535,-0.84
2021-08-19 05:33:03.856,-0.515,-0.77
2021-08-19 05:33:03.860,-0.48,-0.755
2021-08-19 05:33:03.864,-0.47,-0.735
2021-08-19 05:33:03.868,-0.44,-0.72
2021-08-19 05:33:03.872,-0.43,-0.78
2021-08-19 05:33:03.876,-0.42,-0.775
2021-08-19 05:33:03.880,-0.45,-0.77
2021-08-19 05:33:03.884,-0.465,-0.745
2021-08-19 05:33:03.888,-0.44,-0.76
2021-08-19 05:33:03.892,-0.43,-0.745
2021-08-19 05:33:03.896,-0.42,-0.77
2021-08-19 05:33:03.900,-0.41,-0.75
2021-08-19 05:33:03.904,-0.415,-0.75
2021-08-19 05:33:03.908,-0.405,-0.76
2021-08-19 05:33:03.912,-0.365,-0.79
2021-08-19 05:33:03.916,-0.37,-0.74
2021-08-19 05:33:03.920,-0.34,-0.75
2021-08-19 05:33:03.924,-0.36,-0.745
2021-08-19 05:33:03.928,-0.325,-0.69
2021-08-19 05:33:03.932,-0.295,-0.69
2021-08-19 05:33:03.936,-0.265,-0.7
2021-08-19 05:33:03.940,-0.255,-0.7
2021-08-19 05:33:03.944,-0.265,-0.7
2021-08-19 05:33:03.948,-0.185,-0.66
2021-08-19 05:33:03.952,-0.135,-0.66
2021-08-19 05:33:03.956,-0.065,-0.65
2021-08-19 05:33:03.960,-0.015,-0.625
2021-08-19 05:33:03.964,0.0,-0.61
2021-08-19 05:33:03.968,0.06,-0.595
2021-08-19 05:33:03.972,0.135,-0.55
2021-08-19 05:33:03.976,0.185,-0.525
2021-08-19 05:33:03.980,0.245,-0.49
2021-08-19 05:33:03.984,0.275,-0.515
2021-08-19 05:33:03.988,0.335,-0.49
2021-08-19 05:33:03.992,0.375,-0.415
2021-08-19 05:33:03.996,0.43,-0.415
2021-08-19 05:33:04.000,0.48,-0.385
2021-08-19 05:33:04.004,0.505,-0.385
2021-08-19 05:33:04.008,0.52,-0.36
2021-08-19 05:33:04.012,0.59,-0.375
2021-08-19 05:33:04.016,0.64,-0.325
2021-08-19 05:33:04.020,0.65,-0.31
2021-08-19 05:33:04.024,0.685,-0.275
2021-08-19 05:33:04.028,0.68,-0.235
2021-08-19 05:33:04.032,0.705,-0.24
2021-08-19 05:33:04.036,0.73,-0.215
2021-08-19 05:33:04.040,0.7,-0.165
2021-08-19 05:33:04.044,0.74,-0.17
2021-08-19 05:33:04.048,0.76,-0.175
2021-08-19 05:33:04.052,0.755,-0.135
2021-08-19 05:33:04.056,0.74,-0.09
2021-08-19 05:33:04.060,0.705,-0.055
2021-08-19 05:33:04.064,0.675,-0.105
2021-08-19 05:33:04.068,0.66,-0.13
2021-08-19 05:33:04.072,0.605,-0.12
2021-08-19 05:33:04.076,0.6,-0.13
2021-08-19 05:33:04.080,0.54,-0.175
2021-08-19 05:33:04.084,0.495,-0.185
2021-08-19 05:33:04.088,0.43,-0.245
2021-08-19 05:33:04.092,0.36,-0.215
2021-08-19 05:33:04.096,0.34,-0.24
2021-08-19 05:33:04.100,0.29,-0.22
2021-08-19 05:33:04.104,0.23,-0.23
2021-08-19 05:33:04.108,0.19,-0.215
2021-08-19 05:33:04.112,0.125,-0.21
2021-08-19 05:33:04.116,0.08,-0.245
2021-08-19 05:33:04.120,0.05,-0.265
2021-08-19 05:33:04.124,0.01,-0.28
2021-08-19 05:33:04.128,-0.005,-0.275
2021-08-19 05:33:04.132,-0.035,-0.345
2021-08-19 05:33:04.136,-0.02,-0.33
2021-08-19 05:33:04.140,-0.05,-0.365
2021-08-19 05:33:04.144,-0.07,-0.37
2021-08-19 05:33:04.148,-0.105,-0.365
2021-08-19 05:33:04.152,-0.1,-0.365
2021-08-19 05:33:04.156,-0.095,-0.375
2021-08-19 05:33:04.160,-0.1,-0.42
2021-08-19 05:33:04.164,-0.115,-0.405
2021-08-19 05:33:04.168,-0.09,-0.405
2021-08-19 05:33:04.172,-0.125,-0.405
2021-08-19 05:33:04.176,-0.115,-0.47
2021-08-19 05:33:04.180,-0.085,-0.445
2021-08-19 05:33:04.184,-0.1,-0.46
2021-08-19 05:33:04.188,-0.11,-0.495
2021-08-19 05:33:04.192,-0.115,-0.465
2021-08-19 05:33:04.196,-0.12,-0.5
2021-08-19 05:33:04.200,-0.09,-0.49
2021-08-19 05:33:04.204,-0.105,-0.505
2021-08-19 05:33:04.208,-0.11,-0.495
2021-08-19 05:33:04.212,-0.095,-0.54
2021-08-19 05:33:04.216,-0.11,-0.575
2021-08-19 05:33:04.220,-0.08,-0.55
2021-08-19 05:33:04.224,-0.095,-0.56
2021-08-19 05:33:04.228,-0.125,-0.575
2021-08-19 05:33:04.232,-0.135,-0.605
2021-08-19 05:33:04.236,-0.125,-0.59
2021-08-19 05:33:04.240,-0.135,-0.6
2021-08-19 05:33:04.244,-0.16,-0.615
2021-08-19 05:33:04.248,-0.12,-0.59
2021-08-19 05:33:04.252,-0.145,-0.595
2021-08-19 05:33:04.256,-0.15,-0.595
2021-08-19 05:33:04.260,-0.1,-0.63
2021-08-19 05:33:04.264,-0.145,-0.63
2021-08-19 05:33:04.268,-0.16,-0.625
2021-08-19 05:33:04.272,-0.155,-0.64
2021-08-19 05:33:04.276,-0.155,-0.635
2021-08-19 05:33:04.280,-0.14,-0.635
2021-08-19 05:33:04.284,-0.155,-0.63
2021-08-19 05:33:04.288,-0.155,-0.635
2021-08-19 05:33:04.292,-0.19,-0.64
2021-08-19 05:33:04.296,-0.175,-0.675
2021-08-19 05:33:04.300,-0.175,-0.675
2021-08-19 05:33:04.304,-0.17,-0.665
2021-08-19 05:33:04.308,-0.17,-0.66
2021-08-19 05:33:04.312,-0.15,-0.69
2021-08-19 05:33:04.316,-0.17,-0.66
2021-08-19 05:33:04.320,-0.16,-0.68
2021-08-19 05:33:04.324,-0.14,-0.685
2021-08-19 05:33:04.328,-0.135,-0.68
2021-08-19 05:33:04.332,-0.14,-0.67
2021-08-19 05:33:04.336,-0.12,-0.645
2021-08-19 05:33:04.340,-0.115,-0.64
2021-08-19 05:33:04.344,-0.135,-0.615
2021-08-19 05:33:04.348,-0.16,-0.61
2021-08-19 05:33:04.352,-0.155,-0.61
2021-08-19 05:33:04.356,-0.15,-0.615
2021-08-19 05:33:04.360,-0.165,-0.62
2021-08-19 05:33:04.364,-0.185,-0.62
2021-08-19 05:33:04.368,-0.165,-0.595
2021-08-19 05:33:04.372,-0.195,-0.6
2021-08-19 05:33:04.376,-0.145,-0.625
2021-08-19 05:33:04.380,-0.105,-0.605
2021-08-19 05:33:04.384,-0.1,-0.635
2021-08-19 05:33:04.388,-0.075,-0.64
2021-08-19 05:33:04.392,-0.115,-0.675
2021-08-19 05:33:04.396,-0.125,-0.68
2021-08-19 05:33:04.400,-0.095,-0.69
2021-08-19 05:33:04.404,-0.09,-0.725
2021-08-19 05:33:04.408,-0.09,-0.71
2021-08-19 05:33:04.412,-0.07,-0.745
2021-08-19 05:33:04.416,-0.09,-0.75
2021-08-19 05:33:04.420,-0.075,-0.735
2021-08-19 05:33:04.424,-0.075,-0.715
2021-08-19 05:33:04.428,-0.095,-0.735
2021-08-19 05:33:04.432,-0.13,-0.79
2021-08-19 05:33:04.436,-0.165,-0.79
2021-08-19 05:33:04.440,-0.16,-0.77
2021-08-19 05:33:04.444,-0.175,-0.76
2021-08-19 05:33:04.448,-0.18,-0.775
2021-08-19 05:33:04.452,-0.185,-0.765
2021-08-19 05:33:04.456,-0.19,-0.755
2021-08-19 05:33:04.460,-0.185,-0.77
2021-08-19 05:33:04.464,-0.195,-0.755
2021-08-19 05:33:04.468,-0.18,-0.765
2021-08-19 05:33:04.472,-0.205,-0.755
2021-08-19 05:33:04.476,-0.185,-0.78
2021-08-19 05:33:04.480,-0.185,-0.8
2021-08-19 05:33:04.484,-0.21,-0.775
2021-08-19 05:33:04.488,-0.21,-0.775
2021-08-19 05:33:04.492,-0.235,-0.775
2021-08-19 05:33:04.496,-0.255,-0.77
2021-08-19 05:33:04.500,-0.41,-0.79
2021-08-19 05:33:04.504,-0.535,-0.775
2021-08-19 05:33:04.508,-0.665,-0.755
2021-08-19 05:33:04.512,-0.71,-0.785
2021-08-19 05:33:04.516,-0.62,-0.855
2021-08-19 05:33:04.520,-0.36,-0.895
2021-08-19 05:33:04.524,0.085,-1.005
2021-08-19 05:33:04.528,0.41,-1.135
2021-08-19 05:33:04.532,0.54,-1.085
2021-08-19 05:33:04.536,0.905,-1.0
2021-08-19 05:33:04.540,1.44,-1.03
2021-08-19 05:33:04.544,1.625,-0.925
2021-08-19 05:33:04.548,1.19,-0.575
2021-08-19 05:33:04.552,0.24,-0.13
2021-08-19 05:33:04.556,-0.895,-0.11
2021-08-19 05:33:04.560,-1.48,-0.98
2021-08-19 05:33:04.564,-1.86,-1.975
2021-08-19 05:33:04.596,-1.775,-1.765
2021-08-19 05:33:04.600,-1.355,-1.655
2021-08-19 05:33:04.604,-0.98,-1.47
2021-08-19 05:33:04.608,-0.74,-1.215
2021-08-19 05:33:04.612,-0.595,-1.005
2021-08-19 05:33:04.616,-0.515,-0.89
2021-08-19 05:33:04.620,-0.45,-0.84
2021-08-19 05:33:04.624,-0.395,-0.76
2021-08-19 05:33:04.628,-0.375,-0.74
2021-08-19 05:33:04.632,-0.335,-0.73
2021-08-19 05:33:04.636,-0.35,-0.69
2021-08-19 05:33:04.640,-0.375,-0.705
2021-08-19 05:33:04.644,-0.335,-0.685
2021-08-19 05:33:04.648,-0.335,-0.675
2021-08-19 05:33:04.652,-0.345,-0.68
2021-08-19 05:33:04.656,-0.335,-0.655
2021-08-19 05:33:04.660,-0.305,-0.655
2021-08-19 05:33:04.664,-0.32,-0.67
2021-08-19 05:33:04.668,-0.27,-0.69
2021-08-19 05:33:04.672,-0.24,-0.67
2021-08-19 05:33:04.676,-0.28,-0.7
2021-08-19 05:33:04.680,-0.265,-0.73
2021-08-19 05:33:04.684,-0.245,-0.755
2021-08-19 05:33:04.688,-0.205,-0.77
2021-08-19 05:33:04.692,-0.2,-0.775
2021-08-19 05:33:04.696,-0.19,-0.78
2021-08-19 05:33:04.700,-0.215,-0.805
2021-08-19 05:33:04.704,-0.14,-0.775
2021-08-19 05:33:04.708,-0.115,-0.735
2021-08-19 05:33:04.712,-0.105,-0.745
2021-08-19 05:33:04.716,-0.11,-0.755
2021-08-19 05:33:04.720,-0.065,-0.745
2021-08-19 05:33:04.724,-0.025,-0.74
2021-08-19 05:33:04.728,0.015,-0.74
2021-08-19 05:33:04.732,0.065,-0.71
2021-08-19 05:33:04.736,0.03,-0.65
2021-08-19 05:33:04.740,0.105,-0.655
2021-08-19 05:33:04.744,0.16,-0.615
2021-08-19 05:33:04.748,0.24,-0.635
2021-08-19 05:33:04.752,0.29,-0.585
2021-08-19 05:33:04.756,0.315,-0.565
2021-08-19 05:33:04.760,0.355,-0.495
2021-08-19 05:33:04.764,0.39,-0.495
2021-08-19 05:33:04.768,0.435,-0.525
2021-08-19 05:33:04.772,0.455,-0.515
2021-08-19 05:33:04.776,0.48,-0.46
2021-08-19 05:33:04.780,0.49,-0.465
2021-08-19 05:33:04.784,0.545,-0.465
2021-08-19 05:33:04.788,0.555,-0.45
2021-08-19 05:33:04.792,0.575,-0.44
2021-08-19 05:33:04.796,0.57,-0.435
2021-08-19 05:33:04.800,0.58,-0.38
2021-08-19 05:33:04.804,0.6,-0.36
2021-08-19 05:33:04.808,0.6,-0.375
2021-08-19 05:33:04.812,0.61,-0.405
2021-08-19 05:33:04.816,0.6,-0.37
2021-08-19 05:33:04.820,0.58,-0.33
2021-08-19 05:33:04.824,0.57,-0.28
2021-08-19 05:33:04.828,0.555,-0.29
2021-08-19 05:33:04.832,0.495,-0.225
2021-08-19 05:33:04.836,0.485,-0.265
2021-08-19 05:33:04.840,0.395,-0.275
2021-08-19 05:33:04.844,0.325,-0.315
2021-08-19 05:33:04.848,0.31,-0.29
2021-08-19 05:33:04.852,0.255,-0.265
2021-08-19 05:33:04.856,0.185,-0.275
2021-08-19 05:33:04.860,0.1,-0.28
2021-08-19 05:33:04.864,0.03,-0.265
2021-08-19 05:33:04.868,0.0,-0.255
2021-08-19 05:33:04.872,-0.015,-0.28
2021-08-19 05:33:04.876,-0.065,-0.3
2021-08-19 05:33:04.880,-0.065,-0.275
2021-08-19 05:33:04.884,-0.07,-0.26
2021-08-19 05:33:04.888,-0.04,-0.29
2021-08-19 05:33:04.892,-0.01,-0.33
2021-08-19 05:33:04.896,-0.06,-0.33
2021-08-19 05:33:04.900,-0.105,-0.28
2021-08-19 05:33:04.904,-0.095,-0.305
2021-08-19 05:33:04.908,-0.11,-0.28
2021-08-19 05:33:04.912,-0.11,-0.27
2021-08-19 05:33:04.916,-0.1,-0.265
2021-08-19 05:33:04.920,-0.085,-0.315
2021-08-19 05:33:04.924,-0.095,-0.3
2021-08-19 05:33:04.928,-0.055,-0.295
2021-08-19 05:33:04.932,0.0,-0.23
2021-08-19 05:33:04.936,0.02,-0.25
2021-08-19 05:33:04.940,0.02,-0.235
2021-08-19 05:33:04.944,0.035,-0.295
2021-08-19 05:33:04.948,0.03,-0.315
2021-08-19 05:33:04.952,0.03,-0.31
2021-08-19 05:33:04.956,0.0,-0.325
2021-08-19 05:33:04.960,0.005,-0.32
2021-08-19 05:33:04.964,-0.025,-0.37
2021-08-19 05:33:04.968,-0.03,-0.4
2021-08-19 05:33:04.972,-0.05,-0.41
2021-08-19 05:33:04.976,-0.03,-0.435
2021-08-19 05:33:04.980,-0.06,-0.465
2021-08-19 05:33:04.984,-0.055,-0.44
2021-08-19 05:33:04.988,-0.07,-0.475
2021-08-19 05:33:04.992,-0.07,-0.51
2021-08-19 05:33:04.996,-0.075,-0.49
2021-08-19 05:33:05.000,-0.09,-0.505
2021-08-19 05:33:05.004,-0.11,-0.555
2021-08-19 05:33:05.008,-0.105,-0.515
2021-08-19 05:33:05.012,-0.105,-0.525
2021-08-19 05:33:05.016,-0.13,-0.55
2021-08-19 05:33:05.020,-0.16,-0.59
2021-08-19 05:33:05.024,-0.21,-0.535
2021-08-19 05:33:05.028,-0.215,-0.555
2021-08-19 05:33:05.032,-0.19,-0.54
2021-08-19 05:33:05.036,-0.195,-0.565
2021-08-19 05:33:05.040,-0.21,-0.565
2021-08-19 05:33:05.044,-0.235,-0.56
2021-08-19 05:33:05.048,-0.21,-0.57
2021-08-19 05:33:05.052,-0.235,-0.59
2021-08-19 05:33:05.056,-0.26,-0.62
2021-08-19 05:33:05.060,-0.245,-0.59
2021-08-19 05:33:05.064,-0.285,-0.595
2021-08-19 05:33:05.068,-0.27,-0.6
2021-08-19 05:33:05.072,-0.275,-0.625
2021-08-19 05:33:05.076,-0.28,-0.61
2021-08-19 05:33:05.080,-0.29,-0.61
2021-08-19 05:33:05.084,-0.335,-0.645
2021-08-19 05:33:05.088,-0.355,-0.655
2021-08-19 05:33:05.092,-0.345,-0.655
2021-08-19 05:33:05.096,-0.305,-0.64
2021-08-19 05:33:05.100,-0.28,-0.625
2021-08-19 05:33:05.104,-0.315,-0.665
2021-08-19 05:33:05.108,-0.325,-0.68
2021-08-19 05:33:05.112,-0.31,-0.625
2021-08-19 05:33:05.116,-0.32,-0.675
2021-08-19 05:33:05.120,-0.31,-0.675
2021-08-19 05:33:05.124,-0.335,-0.63
2021-08-19 05:33:05.128,-0.33,-0.66
2021-08-19 05:33:05.132,-0.345,-0.67
2021-08-19 05:33:05.136,-0.295,-0.67
2021-08-19 05:33:05.140,-0.29,-0.685
2021-08-19 05:33:05.144,-0.305,-0.69
2021-08-19 05:33:05.148,-0.325,-0.675
2021-08-19 05:33:05.152,-0.31,-0.655
2021-08-19 05:33:05.156,-0.265,-0.675
2021-08-19 05:33:05.160,-0.26,-0.65
2021-08-19 05:33:05.164,-0.305,-0.675
2021-08-19 05:33:05.168,-0.29,-0.665
2021-08-19 05:33:05.172,-0.3,-0.645
2021-08-19 05:33:05.176,-0.28,-0.635
2021-08-19 05:33:05.180,-0.3,-0.66
2021-08-19 05:33:05.184,-0.29,-0.635
2021-08-19 05:33:05.188,-0.31,-0.64
2021-08-19 05:33:05.192,-0.255,-0.635
2021-08-19 05:33:05.196,-0.235,-0.635
2021-08-19 05:33:05.200,-0.21,-0.6
2021-08-19 05:33:05.204,-0.21,-0.585
2021-08-19 05:33:05.208,-0.27,-0.555
2021-08-19 05:33:05.212,-0.27,-0.56
2021-08-19 05:33:05.216,-0.285,-0.545
2021-08-19 05:33:05.220,-0.29,-0.56
2021-08-19 05:33:05.224,-0.265,-0.535
2021-08-19 05:33:05.228,-0.255,-0.565
2021-08-19 05:33:05.232,-0.235,-0.575
2021-08-19 05:33:05.236,-0.2,-0.565
2021-08-19 05:33:05.240,-0.17,-0.54
2021-08-19 05:33:05.244,-0.175,-0.565
2021-08-19 05:33:05.248,-0.205,-0.595
2021-08-19 05:33:05.252,-0.185,-0.615
2021-08-19 05:33:05.256,-0.185,-0.625
2021-08-19 05:33:05.260,-0.205,-0.63
2021-08-19 05:33:05.264,-0.245,-0.685
2021-08-19 05:33:05.268,-0.225,-0.665
2021-08-19 05:33:05.272,-0.21,-0.66
2021-08-19 05:33:05.276,-0.19,-0.64
2021-08-19 05:33:05.280,-0.21,-0.66
2021-08-19 05:33:05.284,-0.24,-0.655
2021-08-19 05:33:05.288,-0.28,-0.66
2021-08-19 05:33:05.292,-0.275,-0.685
2021-08-19 05:33:05.296,-0.26,-0.68
2021-08-19 05:33:05.300,-0.265,-0.68
2021-08-19 05:33:05.304,-0.29,-0.675
2021-08-19 05:33:05.308,-0.295,-0.67
2021-08-19 05:33:05.312,-0.26,-0.67
2021-08-19 05:33:05.316,-0.265,-0.675
2021-08-19 05:33:05.320,-0.255,-0.72
2021-08-19 05:33:05.324,-0.27,-0.695
2021-08-19 05:33:05.328,-0.305,-0.705
2021-08-19 05:33:05.332,-0.285,-0.685
2021-08-19 05:33:05.336,-0.28,-0.695
2021-08-19 05:33:05.340,-0.28,-0.7
2021-08-19 05:33:05.344,-0.3,-0.74
2021-08-19 05:33:05.348,-0.3,-0.725
2021-08-19 05:33:05.352,-0.305,-0.725
2021-08-19 05:33:05.356,-0.285,-0.74
2021-08-19 05:33:05.360,-0.27,-0.73
2021-08-19 05:33:05.364,-0.315,-0.77
2021-08-19 05:33:05.368,-0.305,-0.755
2021-08-19 05:33:05.372,-0.34,-0.75
2021-08-19 05:33:05.376,-0.335,-0.755
2021-08-19 05:33:05.380,-0.415,-0.755
2021-08-19 05:33:05.384,-0.62,-0.755
2021-08-19 05:33:05.388,-0.765,-0.75
2021-08-19 05:33:05.392,-0.795,-0.79
2021-08-19 05:33:05.396,-0.665,-0.82
2021-08-19 05:33:05.400,-0.475,-0.875
2021-08-19 05:33:05.404,-0.04,-0.93
2021-08-19 05:33:05.408,0.315,-1.11
2021-08-19 05:33:05.412,0.385,-1.145
2021-08-19 05:33:05.416,0.625,-1.015
2021-08-19 05:33:05.420,1.175,-1.02
2021-08-19 05:33:05.424,1.365,-0.965
2021-08-19 05:33:05.428,0.975,-0.545
2021-08-19 05:33:05.432,0.16,-0.165
2021-08-19 05:33:05.436,-0.805,-0.145
2021-08-19 05:33:05.440,-1.41,-0.895
2021-08-19 05:33:05.444,-1.79,-1.86
2021-08-19 05:33:05.476,-1.86,-1.71
2021-08-19 05:33:05.480,-1.48,-1.59
2021-08-19 05:33:05.484,-1.135,-1.405
2021-08-19 05:33:05.488,-0.92,-1.18
2021-08-19 05:33:05.492,-0.755,-0.935
2021-08-19 05:33:05.496,-0.67,-0.81
2021-08-19 05:33:05.500,-0.58,-0.735
2021-08-19 05:33:05.504,-0.535,-0.7
2021-08-19 05:33:05.508,-0.51,-0.67
2021-08-19 05:33:05.512,-0.47,-0.66
2021-08-19 05:33:05.516,-0.46,-0.71
2021-08-19 05:33:05.520,-0.415,-0.705
2021-08-19 05:33:05.524,-0.43,-0.705
2021-08-19 05:33:05.528,-0.475,-0.75
2021-08-19 05:33:05.532,-0.475,-0.75
2021-08-19 05:33:05.536,-0.455,-0.775
2021-08-19 05:33:05.540,-0.44,-0.77
2021-08-19 05:33:05.544,-0.455,-0.805
2021-08-19 05:33:05.548,-0.455,-0.77
2021-08-19 05:33:05.552,-0.46,-0.785
2021-08-19 05:33:05.556,-0.42,-0.82
2021-08-19 05:33:05.560,-0.42,-0.785
2021-08-19 05:33:05.564,-0.45,-0.81
2021-08-19 05:33:05.568,-0.475,-0.8
2021-08-19 05:33:05.572,-0.455,-0.795
2021-08-19 05:33:05.576,-0.44,-0.795
2021-08-19 05:33:05.580,-0.395,-0.81
2021-08-19 05:33:05.584,-0.395,-0.795
2021-08-19 05:33:05.588,-0.375,-0.76
2021-08-19 05:33:05.592,-0.38,-0.765
2021-08-19 05:33:05.596,-0.355,-0.74
2021-08-19 05:33:05.600,-0.31,-0.745
2021-08-19 05:33:05.604,-0.26,-0.725
2021-08-19 05:33:05.608,-0.235,-0.7
2021-08-19 05:33:05.612,-0.245,-0.685
2021-08-19 05:33:05.616,-0.16,-0.665
2021-08-19 05:33:05.620,-0.125,-0.64
2021-08-19 05:33:05.624,-0.08,-0.62
2021-08-19 05:33:05.628,-0.015,-0.59
2021-08-19 05:33:05.632,0.025,-0.56
2021-08-19 05:33:05.636,0.06,-0.515
2021-08-19 05:33:05.640,0.09,-0.465
2021-08-19 05:33:05.644,0.15,-0.46
2021-08-19 05:33:05.648,0.175,-0.39
2021-08-19 05:33:05.652,0.225,-0.42
2021-08-19 05:33:05.656,0.26,-0.415
2021-08-19 05:33:05.660,0.265,-0.4
2021-08-19 05:33:05.664,0.3,-0.38
2021-08-19 05:33:05.668,0.325,-0.375
2021-08-19 05:33:05.672,0.285,-0.38
2021-08-19 05:33:05.676,0.31,-0.34
2021-08-19 05:33:05.680,0.35,-0.32
2021-08-19 05:33:05.684,0.385,-0.315
2021-08-19 05:33:05.688,0.375,-0.305
2021-08-19 05:33:05.692,0.37,-0.285
2021-08-19 05:33:05.696,0.315,-0.265
2021-08-19 05:33:05.700,0.38,-0.25
2021-08-19 05:33:05.704,0.36,-0.245
2021-08-19 05:33:05.708,0.42,-0.25
2021-08-19 05:33:05.712,0.435,-0.22
2021-08-19 05:33:05.716,0.41,-0.205
2021-08-19 05:33:05.720,0.365,-0.205
2021-08-19 05:33:05.724,0.31,-0.17
2021-08-19 05:33:05.728,0.28,-0.16
2021-08-19 05:33:05.732,0.24,-0.13
2021-08-19 05:33:05.736,0.195,-0.115
2021-08-19 05:33:05.740,0.135,-0.085
2021-08-19 05:33:05.744,0.095,-0.065
2021-08-19 05:33:05.748,0.125,-0.035
2021-08-19 05:33:05.752,0.055,-0.06
2021-08-19 05:33:05.756,-0.025,-0.065
2021-08-19 05:33:05.760,-0.045,-0.05
2021-08-19 05:33:05.764,-0.06,-0.07
2021-08-19 05:33:05.768,-0.05,-0.075
2021-08-19 05:33:05.772,-0.06,-0.085
2021-08-19 05:33:05.776,-0.08,-0.105
2021-08-19 05:33:05.780,-0.09,-0.16
2021-08-19 05:33:05.784,-0.07,-0.155
2021-08-19 05:33:05.788,-0.06,-0.24
2021-08-19 05:33:05.792,-0.1,-0.225
2021-08-19 05:33:05.796,-0.13,-0.28
2021-08-19 05:33:05.800,-0.12,-0.325
2021-08-19 05:33:05.804,-0.15,-0.32
2021-08-19 05:33:05.808,-0.195,-0.36
2021-08-19 05:33:05.812,-0.12,-0.415
2021-08-19 05:33:05.816,-0.16,-0.43
2021-08-19 05:33:05.820,-0.135,-0.46
2021-08-19 05:33:05.824,-0.13,-0.45
2021-08-19 05:33:05.828,-0.17,-0.46
2021-08-19 05:33:05.832,-0.18,-0.48
2021-08-19 05:33:05.836,-0.195,-0.5
2021-08-19 05:33:05.840,-0.175,-0.495
2021-08-19 05:33:05.844,-0.18,-0.52
2021-08-19 05:33:05.848,-0.23,-0.53
2021-08-19 05:33:05.852,-0.25,-0.54
2021-08-19 05:33:05.856,-0.245,-0.565
2021-08-19 05:33:05.860,-0.255,-0.57
2021-08-19 05:33:05.864,-0.23,-0.555
2021-08-19 05:33:05.868,-0.27,-0.565
2021-08-19 05:33:05.872,-0.28,-0.565
2021-08-19 05:33:05.876,-0.26,-0.59
2021-08-19 05:33:05.880,-0.28,-0.635
2021-08-19 05:33:05.884,-0.265,-0.665
2021-08-19 05:33:05.888,-0.29,-0.655
2021-08-19 05:33:05.892,-0.325,-0.635
2021-08-19 05:33:05.896,-0.31,-0.63
2021-08-19 05:33:05.900,-0.285,-0.67
2021-08-19 05:33:05.904,-0.3,-0.675
2021-08-19 05:33:05.908,-0.31,-0.71
2021-08-19 05:33:05.912,-0.34,-0.685
2021-08-19 05:33:05.916,-0.305,-0.67
2021-08-19 05:33:05.920,-0.3,-0.675
2021-08-19 05:33:05.924,-0.285,-0.675
2021-08-19 05:33:05.928,-0.315,-0.7
2021-08-19 05:33:05.932,-0.315,-0.71
2021-08-19 05:33:05.936,-0.29,-0.7
2021-08-19 05:33:05.940,-0.305,-0.7
2021-08-19 05:33:05.944,-0.27,-0.69
2021-08-19 05:33:05.948,-0.29,-0.705
2021-08-19 05:33:05.952,-0.285,-0.715
2021-08-19 05:33:05.956,-0.32,-0.705
2021-08-19 05:33:05.960,-0.285,-0.7
2021-08-19 05:33:05.964,-0.255,-0.71
2021-08-19 05:33:05.968,-0.305,-0.7
2021-08-19 05:33:05.972,-0.305,-0.69
2021-08-19 05:33:05.976,-0.31,-0.7
2021-08-19 05:33:05.980,-0.29,-0.715
2021-08-19 05:33:05.984,-0.29,-0.7
2021-08-19 05:33:05.988,-0.325,-0.69
2021-08-19 05:33:05.992,-0.32,-0.67
2021-08-19 05:33:05.996,-0.295,-0.67
2021-08-19 05:33:06.000,-0.285,-0.675
2021-08-19 05:33:06.004,-0.29,-0.63
2021-08-19 05:33:06.008,-0.26,-0.61
2021-08-19 05:33:06.012,-0.29,-0.64
2021-08-19 05:33:06.016,-0.31,-0.61
2021-08-19 05:33:06.020,-0.31,-0.64
2021-08-19 05:33:06.024,-0.295,-0.615
2021-08-19 05:33:06.028,-0.235,-0.64
2021-08-19 05:33:06.032,-0.24,-0.63
2021-08-19 05:33:06.036,-0.21,-0.625
2021-08-19 05:33:06.040,-0.195,-0.615
2021-08-19 05:33:06.044,-0.15,-0.66
2021-08-19 05:33:06.048,-0.165,-0.64
2021-08-19 05:33:06.052,-0.21,-0.665
2021-08-19 05:33:06.056,-0.24,-0.665
2021-08-19 05:33:06.060,-0.23,-0.73
2021-08-19 05:33:06.064,-0.235,-0.71
2021-08-19 05:33:06.068,-0.205,-0.695
2021-08-19 05:33:06.072,-0.24,-0.69
2021-08-19 05:33:06.076,-0.28,-0.75
2021-08-19 05:33:06.080,-0.26,-0.755
2021-08-19 05:33:06.084,-0.31,-0.745
2021-08-19 05:33:06.088,-0.25,-0.72
2021-08-19 05:33:06.092,-0.285,-0.74
2021-08-19 05:33:06.096,-0.31,-0.725
2021-08-19 05:33:06.100,-0.295,-0.75
2021-08-19 05:33:06.104,-0.32,-0.74
2021-08-19 05:33:06.108,-0.295,-0.74
2021-08-19 05:33:06.112,-0.355,-0.725
2021-08-19 05:33:06.116,-0.29,-0.745
2021-08-19 05:33:06.120,-0.27,-0.725
2021-08-19 05:33:06.124,-0.3,-0.76
2021-08-19 05:33:06.128,-0.31,-0.755
2021-08-19 05:33:06.132,-0.345,-0.735
2021-08-19 05:33:06.136,-0.345,-0.725
2021-08-19 05:33:06.140,-0.32,-0.74
2021-08-19 05:33:06.144,-0.3,-0.765
2021-08-19 05:33:06.148,-0.345,-0.77
2021-08-19 05:33:06.152,-0.35,-0.785
2021-08-19 05:33:06.156,-0.31,-0.765
2021-08-19 05:33:06.160,-0.32,-0.745
2021-08-19 05:33:06.164,-0.335,-0.73
2021-08-19 05:33:06.168,-0.325,-0.705
2021-08-19 05:33:06.172,-0.31,-0.74
2021-08-19 05:33:06.176,-0.355,-0.76
2021-08-19 05:33:06.180,-0.34,-0.76
2021-08-19 05:33:06.184,-0.335,-0.75
2021-08-19 05:33:06.188,-0.32,-0.72
2021-08-19 05:33:06.192,-0.315,-0.735
2021-08-19 05:33:06.196,-0.33,-0.72
2021-08-19 05:33:06.200,-0.345,-0.75
2021-08-19 05:33:06.204,-0.315,-0.75
2021-08-19 05:33:06.208,-0.32,-0.75
2021-08-19 05:33:06.212,-0.32,-0.735
2021-08-19 05:33:06.216,-0.31,-0.765
2021-08-19 05:33:06.220,-0.345,-0.725
2021-08-19 05:33:06.224,-0.355,-0.725
2021-08-19 05:33:06.228,-0.32,-0.735
2021-08-19 05:33:06.232,-0.32,-0.73
2021-08-19 05:33:06.236,-0.335,-0.735
2021-08-19 05:33:06.240,-0.31,-0.765
2021-08-19 05:33:06.244,-0.27,-0.78
2021-08-19 05:33:06.248,-0.27,-0.74
2021-08-19 05:33:06.252,-0.275,-0.735
2021-08-19 05:33:06.256,-0.305,-0.71
2021-08-19 05:33:06.260,-0.32,-0.74
2021-08-19 05:33:06.264,-0.285,-0.71
2021-08-19 05:33:06.268,-0.275,-0.68
2021-08-19 05:33:06.272,-0.3,-0.695
2021-08-19 05:33:06.276,-0.32,-0.675
2021-08-19 05:33:06.280,-0.335,-0.655
2021-08-19 05:33:06.284,-0.305,-0.65
2021-08-19 05:33:06.288,-0.315,-0.64
2021-08-19 05:33:06.292,-0.26,-0.615
2021-08-19 05:33:06.296,-0.26,-0.65
2021-08-19 05:33:06.300,-0.225,-0.63
2021-08-19 05:33:06.304,-0.225,-0.605
2021-08-19 05:33:06.308,-0.19,-0.675
2021-08-19 05:33:06.312,-0.21,-0.66
2021-08-19 05:33:06.316,-0.185,-0.685
2021-08-19 05:33:06.320,-0.23,-0.705
2021-08-19 05:33:06.324,-0.19,-0.74
2021-08-19 05:33:06.328,-0.21,-0.775
2021-08-19 05:33:06.332,-0.225,-0.765
2021-08-19 05:33:06.336,-0.31,-0.74
2021-08-19 05:33:06.340,-0.465,-0.785
2021-08-19 05:33:06.344,-0.615,-0.8
2021-08-19 05:33:06.348,-0.655,-0.81
2021-08-19 05:33:06.352,-0.555,-0.825
2021-08-19 05:33:06.356,-0.35,-0.865
2021-08-19 05:33:06.360,0.085,-1.02
2021-08-19 05:33:06.364,0.415,-1.13
2021-08-19 05:33:06.368,0.53,-1.135
2021-08-19 05:33:06.372,0.915,-1.1
2021-08-19 05:33:06.376,1.44,-1.11
2021-08-19 05:33:06.380,1.52,-0.98
2021-08-19 05:33:06.384,1.0,-0.58
2021-08-19 05:33:06.388,0.035,-0.22
2021-08-19 05:33:06.392,-0.93,-0.4
2021-08-19 05:33:06.396,-1.475,-1.33
2021-08-19 05:33:06.432,-1.805,-1.855
2021-08-19 05:33:06.436,-1.43,-1.675
2021-08-19 05:33:06.440,-1.105,-1.46
2021-08-19 05:33:06.444,-0.86,-1.18
2021-08-19 05:33:06.448,-0.7,-0.995
2021-08-19 05:33:06.452,-0.63,-0.87
2021-08-19 05:33:06.456,-0.64,-0.85
2021-08-19 05:33:06.460,-0.62,-0.805
2021-08-19 05:33:06.464,-0.555,-0.79
2021-08-19 05:33:06.468,-0.55,-0.795
2021-08-19 05:33:06.472,-0.55,-0.765
2021-08-19 05:33:06.476,-0.575,-0.775
2021-08-19 05:33:06.480,-0.525,-0.815
2021-08-19 05:33:06.484,-0.515,-0.81
2021-08-19 05:33:06.488,-0.505,-0.8
2021-08-19 05:33:06.492,-0.455,-0.77
2021-08-19 05:33:06.496,-0.465,-0.785
2021-08-19 05:33:06.500,-0.52,-0.76
2021-08-19 05:33:06.504,-0.51,-0.765
2021-08-19 05:33:06.508,-0.505,-0.76
2021-08-19 05:33:06.512,-0.495,-0.775
2021-08-19 05:33:06.516,-0.44,-0.78
2021-08-19 05:33:06.520,-0.455,-0.765
2021-08-19 05:33:06.524,-0.47,-0.75
2021-08-19 05:33:06.528,-0.425,-0.75
2021-08-19 05:33:06.532,-0.375,-0.73
2021-08-19 05:33:06.536,-0.32,-0.745
2021-08-19 05:33:06.540,-0.35,-0.695
2021-08-19 05:33:06.544,-0.295,-0.705
2021-08-19 05:33:06.548,-0.25,-0.67
2021-08-19 05:33:06.552,-0.195,-0.66
2021-08-19 05:33:06.556,-0.28,-0.615
2021-08-19 05:33:06.560,-0.275,-0.62
2021-08-19 05:33:06.564,-0.115,-0.59
2021-08-19 05:33:06.568,0.035,-0.54
2021-08-19 05:33:06.572,-0.01,-0.54
2021-08-19 05:33:06.576,0.055,-0.545
2021-08-19 05:33:06.580,0.195,-0.545
2021-08-19 05:33:06.584,0.155,-0.54
2021-08-19 05:33:06.588,0.195,-0.595
2021-08-19 05:33:06.592,0.31,-0.565
2021-08-19 05:33:06.596,0.37,-0.545
2021-08-19 05:33:06.600,0.395,-0.515
2021-08-19 05:33:06.604,0.38,-0.525
2021-08-19 05:33:06.608,0.43,-0.52
2021-08-19 05:33:06.612,0.46,-0.495
2021-08-19 05:33:06.616,0.46,-0.505
2021-08-19 05:33:06.620,0.47,-0.5
2021-08-19 05:33:06.624,0.5,-0.49
2021-08-19 05:33:06.628,0.53,-0.48
2021-08-19 05:33:06.632,0.66,-0.465
2021-08-19 05:33:06.636,0.595,-0.45
2021-08-19 05:33:06.640,0.635,-0.45
2021-08-19 05:33:06.644,0.65,-0.415
2021-08-19 05:33:06.648,0.665,-0.415
2021-08-19 05:33:06.652,0.66,-0.4
2021-08-19 05:33:06.656,0.65,-0.425
2021-08-19 05:33:06.660,0.625,-0.395
2021-08-19 05:33:06.664,0.555,-0.365
2021-08-19 05:33:06.668,0.64,-0.365
2021-08-19 05:33:06.672,0.615,-0.345
2021-08-19 05:33:06.676,0.595,-0.38
2021-08-19 05:33:06.680,0.5,-0.34
2021-08-19 05:33:06.684,0.465,-0.335
2021-08-19 05:33:06.688,0.445,-0.315
2021-08-19 05:33:06.692,0.325,-0.315
2021-08-19 05:33:06.696,0.28,-0.3
2021-08-19 05:33:06.700,0.265,-0.3
2021-08-19 05:33:06.704,0.21,-0.28
2021-08-19 05:33:06.708,0.15,-0.29
2021-08-19 05:33:06.712,0.125,-0.335
2021-08-19 05:33:06.716,0.09,-0.305
2021-08-19 05:33:06.720,-0.01,-0.275
2021-08-19 05:33:06.724,-0.06,-0.275
2021-08-19 05:33:06.728,-0.04,-0.33
2021-08-19 05:33:06.732,-0.025,-0.355
2021-08-19 05:33:06.736,-0.115,-0.36
2021-08-19 05:33:06.740,-0.135,-0.395
2021-08-19 05:33:06.744,-0.165,-0.375
2021-08-19 05:33:06.748,-0.19,-0.39
2021-08-19 05:33:06.752,-0.2,-0.41
2021-08-19 05:33:06.756,-0.19,-0.395
2021-08-19 05:33:06.760,-0.17,-0.445
2021-08-19 05:33:06.764,-0.195,-0.45
2021-08-19 05:33:06.768,-0.22,-0.465
2021-08-19 05:33:06.772,-0.205,-0.425
2021-08-19 05:33:06.776,-0.18,-0.46
2021-08-19 05:33:06.780,-0.235,-0.44
2021-08-19 05:33:06.784,-0.255,-0.47
2021-08-19 05:33:06.788,-0.19,-0.485
2021-08-19 05:33:06.792,-0.175,-0.44
2021-08-19 05:33:06.796,-0.19,-0.475
2021-08-19 05:33:06.800,-0.2,-0.455
2021-08-19 05:33:06.804,-0.22,-0.46
2021-08-19 05:33:06.808,-0.22,-0.45
2021-08-19 05:33:06.812,-0.235,-0.495
2021-08-19 05:33:06.816,-0.21,-0.495
2021-08-19 05:33:06.820,-0.25,-0.5
2021-08-19 05:33:06.824,-0.2,-0.49
2021-08-19 05:33:06.828,-0.205,-0.495
2021-08-19 05:33:06.832,-0.16,-0.475
2021-08-19 05:33:06.836,-0.175,-0.52
2021-08-19 05:33:06.840,-0.175,-0.54
2021-08-19 05:33:06.844,-0.17,-0.57
2021-08-19 05:33:06.848,-0.175,-0.575
2021-08-19 05:33:06.852,-0.165,-0.605
2021-08-19 05:33:06.856,-0.16,-0.62
2021-08-19 05:33:06.860,-0.205,-0.655
2021-08-19 05:33:06.864,-0.205,-0.665
2021-08-19 05:33:06.868,-0.21,-0.66
2021-08-19 05:33:06.872,-0.17,-0.645
2021-08-19 05:33:06.876,-0.175,-0.68
2021-08-19 05:33:06.880,-0.195,-0.7
2021-08-19 05:33:06.884,-0.23,-0.72
2021-08-19 05:33:06.888,-0.23,-0.725
2021-08-19 05:33:06.892,-0.23,-0.71
2021-08-19 05:33:06.896,-0.26,-0.72
2021-08-19 05:33:06.900,-0.23,-0.68
2021-08-19 05:33:06.904,-0.25,-0.715
2021-08-19 05:33:06.908,-0.255,-0.72
2021-08-19 05:33:06.912,-0.275,-0.68
2021-08-19 05:33:06.916,-0.27,-0.655
2021-08-19 05:33:06.920,-0.285,-0.69
2021-08-19 05:33:06.924,-0.28,-0.73
2021-08-19 05:33:06.928,-0.33,-0.735
2021-08-19 05:33:06.932,-0.325,-0.74
2021-08-19 05:33:06.936,-0.31,-0.725
2021-08-19 05:33:06.940,-0.315,-0.74
2021-08-19 05:33:06.944,-0.35,-0.745
2021-08-19 05:33:06.948,-0.34,-0.77
2021-08-19 05:33:06.952,-0.33,-0.735
2021-08-19 05:33:06.956,-0.305,-0.74
2021-08-19 05:33:06.960,-0.35,-0.74
2021-08-19 05:33:06.964,-0.385,-0.755
2021-08-19 05:33:06.968,-0.32,-0.76
2021-08-19 05:33:06.972,-0.36,-0.76
2021-08-19 05:33:06.976,-0.355,-0.745
2021-08-19 05:33:06.980,-0.36,-0.73
2021-08-19 05:33:06.984,-0.355,-0.735
2021-08-19 05:33:06.988,-0.36,-0.71
2021-08-19 05:33:06.992,-0.36,-0.75
2021-08-19 05:33:06.996,-0.345,-0.73
2021-08-19 05:33:07.000,-0.33,-0.72
2021-08-19 05:33:07.004,-0.32,-0.745
2021-08-19 05:33:07.008,-0.355,-0.705
2021-08-19 05:33:07.012,-0.345,-0.73
2021-08-19 05:33:07.016,-0.315,-0.7
2021-08-19 05:33:07.020,-0.31,-0.695
2021-08-19 05:33:07.024,-0.32,-0.715
2021-08-19 05:33:07.028,-0.355,-0.755
2021-08-19 05:33:07.032,-0.345,-0.73
2021-08-19 05:33:07.036,-0.3,-0.715
2021-08-19 05:33:07.040,-0.335,-0.745
2021-08-19 05:33:07.044,-0.35,-0.74
2021-08-19 05:33:07.048,-0.315,-0.72
2021-08-19 05:33:07.052,-0.335,-0.745
2021-08-19 05:33:07.056,-0.335,-0.74
2021-08-19 05:33:07.060,-0.32,-0.74
2021-08-19 05:33:07.064,-0.36,-0.695
2021-08-19 05:33:07.068,-0.35,-0.725
2021-08-19 05:33:07.072,-0.37,-0.705
2021-08-19 05:33:07.076,-0.365,-0.7
2021-08-19 05:33:07.080,-0.4,-0.72
2021-08-19 05:33:07.084,-0.4,-0.695
2021-08-19 05:33:07.088,-0.355,-0.705
2021-08-19 05:33:07.092,-0.34,-0.715
2021-08-19 05:33:07.096,-0.3,-0.685
2021-08-19 05:33:07.100,-0.285,-0.66
2021-08-19 05:33:07.104,-0.24,-0.655
2021-08-19 05:33:07.108,-0.255,-0.67
2021-08-19 05:33:07.112,-0.265,-0.72
2021-08-19 05:33:07.116,-0.265,-0.73
2021-08-19 05:33:07.120,-0.31,-0.7
2021-08-19 05:33:07.124,-0.36,-0.745
2021-08-19 05:33:07.128,-0.55,-0.725
2021-08-19 05:33:07.132,-0.7,-0.73
2021-08-19 05:33:07.136,-0.78,-0.76
2021-08-19 05:33:07.140,-0.665,-0.84
2021-08-19 05:33:07.144,-0.52,-0.905
2021-08-19 05:33:07.148,-0.16,-1.005
2021-08-19 05:33:07.152,0.155,-1.14
2021-08-19 05:33:07.156,0.345,-1.15
2021-08-19 05:33:07.160,0.565,-1.05
2021-08-19 05:33:07.164,1.03,-1.005
2021-08-19 05:33:07.168,1.43,-0.94
2021-08-19 05:33:07.172,1.15,-0.53
2021-08-19 05:33:07.176,0.41,-0.04
2021-08-19 05:33:07.180,-0.525,0.105
2021-08-19 05:33:07.184,-1.19,-0.53
2021-08-19 05:33:07.188,-1.595,-1.54
2021-08-19 05:33:07.224,-1.6,-1.895
2021-08-19 05:33:07.228,-1.28,-1.61
2021-08-19 05:33:07.232,-0.995,-1.285
2021-08-19 05:33:07.236,-0.8,-1.045
2021-08-19 05:33:07.240,-0.67,-0.945
2021-08-19 05:33:07.244,-0.64,-0.875
2021-08-19 05:33:07.248,-0.64,-0.805
2021-08-19 05:33:07.252,-0.615,-0.8
2021-08-19 05:33:07.256,-0.58,-0.78
2021-08-19 05:33:07.260,-0.58,-0.785
2021-08-19 05:33:07.264,-0.58,-0.785
2021-08-19 05:33:07.268,-0.585,-0.775
2021-08-19 05:33:07.272,-0.56,-0.74
2021-08-19 05:33:07.276,-0.535,-0.775
2021-08-19 05:33:07.280,-0.525,-0.76
2021-08-19 05:33:07.284,-0.505,-0.735
2021-08-19 05:33:07.288,-0.525,-0.72
2021-08-19 05:33:07.292,-0.565,-0.735
2021-08-19 05:33:07.296,-0.515,-0.725
2021-08-19 05:33:07.300,-0.475,-0.705
2021-08-19 05:33:07.304,-0.445,-0.71
2021-08-19 05:33:07.308,-0.47,-0.695
2021-08-19 05:33:07.312,-0.49,-0.665
2021-08-19 05:33:07.316,-0.44,-0.67
2021-08-19 05:33:07.320,-0.455,-0.635
2021-08-19 05:33:07.324,-0.425,-0.635
2021-08-19 05:33:07.328,-0.39,-0.605
2021-08-19 05:33:07.332,-0.345,-0.6
2021-08-19 05:33:07.336,-0.33,-0.595
2021-08-19 05:33:07.340,-0.3,-0.605
2021-08-19 05:33:07.344,-0.26,-0.6
2021-08-19 05:33:07.348,-0.205,-0.535
2021-08-19 05:33:07.352,-0.18,-0.51
2021-08-19 05:33:07.356,-0.14,-0.47
2021-08-19 05:33:07.360,-0.085,-0.455
2021-08-19 05:33:07.364,-0.045,-0.495
2021-08-19 05:33:07.368,0.0,-0.495
2021-08-19 05:33:07.372,0.045,-0.465
2021-08-19 05:33:07.376,0.075,-0.455
2021-08-19 05:33:07.380,0.13,-0.425
2021-08-19 05:33:07.384,0.18,-0.43
2021-08-19 05:33:07.388,0.24,-0.405
2021-08-19 05:33:07.392,0.26,-0.44
2021-08-19 05:33:07.396,0.275,-0.4
2021-08-19 05:33:07.400,0.325,-0.39
2021-08-19 05:33:07.404,0.35,-0.36
2021-08-19 05:33:07.408,0.335,-0.355
2021-08-19 05:33:07.412,0.34,-0.34
2021-08-19 05:33:07.416,0.395,-0.295
2021-08-19 05:33:07.420,0.38,-0.315
2021-08-19 05:33:07.424,0.39,-0.27
2021-08-19 05:33:07.428,0.39,-0.275
2021-08-19 05:33:07.432,0.43,-0.285
2021-08-19 05:33:07.436,0.385,-0.26
2021-08-19 05:33:07.440,0.415,-0.245
2021-08-19 05:33:07.444,0.405,-0.23
2021-08-19 05:33:07.448,0.4,-0.22
2021-08-19 05:33:07.452,0.345,-0.2
2021-08-19 05:33:07.456,0.32,-0.195
2021-08-19 05:33:07.460,0.28,-0.215
2021-08-19 05:33:07.464,0.235,-0.225
2021-08-19 05:33:07.468,0.145,-0.21
2021-08-19 05:33:07.472,0.115,-0.22
2021-08-19 05:33:07.476,0.075,-0.19
2021-08-19 05:33:07.480,0.02,-0.21
2021-08-19 05:33:07.484,0.005,-0.21
2021-08-19 05:33:07.488,-0.095,-0.23
2021-08-19 05:33:07.492,-0.14,-0.26
2021-08-19 05:33:07.496,-0.15,-0.25
2021-08-19 05:33:07.500,-0.165,-0.26
2021-08-19 05:33:07.504,-0.225,-0.275
2021-08-19 05:33:07.508,-0.24,-0.295
2021-08-19 05:33:07.512,-0.27,-0.33
2021-08-19 05:33:07.516,-0.315,-0.33
2021-08-19 05:33:07.520,-0.32,-0.345
2021-08-19 05:33:07.524,-0.28,-0.345
2021-08-19 05:33:07.528,-0.32,-0.395
2021-08-19 05:33:07.532,-0.32,-0.36
2021-08-19 05:33:07.536,-0.35,-0.4
2021-08-19 05:33:07.540,-0.365,-0.43
2021-08-19 05:33:07.544,-0.335,-0.425
2021-08-19 05:33:07.548,-0.34,-0.46
2021-08-19 05:33:07.552,-0.35,-0.445
2021-08-19 05:33:07.556,-0.36,-0.455
2021-08-19 05:33:07.560,-0.34,-0.505
2021-08-19 05:33:07.564,-0.33,-0.53
2021-08-19 05:33:07.568,-0.34,-0.5
2021-08-19 05:33:07.572,-0.335,-0.495
2021-08-19 05:33:07.576,-0.345,-0.515
2021-08-19 05:33:07.580,-0.34,-0.51
2021-08-19 05:33:07.584,-0.32,-0.55
2021-08-19 05:33:07.588,-0.31,-0.53
2021-08-19 05:33:07.592,-0.34,-0.545
2021-08-19 05:33:07.596,-0.405,-0.54
2021-08-19 05:33:07.600,-0.405,-0.55
2021-08-19 05:33:07.604,-0.37,-0.56
2021-08-19 05:33:07.608,-0.33,-0.56
2021-08-19 05:33:07.612,-0.27,-0.525
2021-08-19 05:33:07.616,-0.305,-0.53
2021-08-19 05:33:07.620,-0.265,-0.565
2021-08-19 05:33:07.624,-0.24,-0.58
2021-08-19 05:33:07.628,-0.25,-0.605
2021-08-19 05:33:07.632,-0.24,-0.62
2021-08-19 05:33:07.636,-0.275,-0.66
2021-08-19 05:33:07.640,-0.285,-0.665
2021-08-19 05:33:07.644,-0.245,-0.65
2021-08-19 05:33:07.648,-0.26,-0.705
2021-08-19 05:33:07.652,-0.29,-0.69
2021-08-19 05:33:07.656,-0.335,-0.715
2021-08-19 05:33:07.660,-0.315,-0.71
2021-08-19 05:33:07.664,-0.285,-0.725
2021-08-19 05:33:07.668,-0.28,-0.725
2021-08-19 05:33:07.672,-0.295,-0.725
2021-08-19 05:33:07.676,-0.28,-0.745
2021-08-19 05:33:07.680,-0.32,-0.755
2021-08-19 05:33:07.684,-0.315,-0.72
2021-08-19 05:33:07.688,-0.3,-0.725
2021-08-19 05:33:07.692,-0.295,-0.755
2021-08-19 05:33:07.696,-0.325,-0.78
2021-08-19 05:33:07.700,-0.33,-0.795
2021-08-19 05:33:07.704,-0.325,-0.775
2021-08-19 05:33:07.708,-0.325,-0.78
2021-08-19 05:33:07.712,-0.33,-0.78
2021-08-19 05:33:07.716,-0.37,-0.785
2021-08-19 05:33:07.720,-0.385,-0.78
2021-08-19 05:33:07.724,-0.38,-0.795
2021-08-19 05:33:07.728,-0.39,-0.8
2021-08-19 05:33:07.732,-0.39,-0.81
2021-08-19 05:33:07.736,-0.4,-0.825
2021-08-19 05:33:07.740,-0.43,-0.795
2021-08-19 05:33:07.744,-0.455,-0.8
2021-08-19 05:33:07.748,-0.415,-0.825
2021-08-19 05:33:07.752,-0.44,-0.825
2021-08-19 05:33:07.756,-0.44,-0.82
2021-08-19 05:33:07.760,-0.46,-0.83
2021-08-19 05:33:07.764,-0.43,-0.82
2021-08-19 05:33:07.768,-0.42,-0.835
2021-08-19 05:33:07.772,-0.42,-0.84
2021-08-19 05:33:07.776,-0.435,-0.85
2021-08-19 05:33:07.780,-0.48,-0.865
2021-08-19 05:33:07.784,-0.43,-0.84
2021-08-19 05:33:07.788,-0.425,-0.82
2021-08-19 05:33:07.792,-0.42,-0.84
2021-08-19 05:33:07.796,-0.44,-0.83
2021-08-19 05:33:07.800,-0.445,-0.86
2021-08-19 05:33:07.804,-0.43,-0.83
2021-08-19 05:33:07.808,-0.41,-0.85
2021-08-19 05:33:07.812,-0.41,-0.845
2021-08-19 05:33:07.816,-0.44,-0.81
2021-08-19 05:33:07.820,-0.445,-0.815
2021-08-19 05:33:07.824,-0.42,-0.84
2021-08-19 05:33:07.828,-0.41,-0.825
2021-08-19 05:33:07.832,-0.405,-0.81
2021-08-19 05:33:07.836,-0.405,-0.795
2021-08-19 05:33:07.840,-0.41,-0.765
2021-08-19 05:33:07.844,-0.44,-0.805
2021-08-19 05:33:07.848,-0.38,-0.78
2021-08-19 05:33:07.852,-0.38,-0.72
2021-08-19 05:33:07.856,-0.385,-0.72
2021-08-19 05:33:07.860,-0.415,-0.72
2021-08-19 05:33:07.864,-0.445,-0.735
2021-08-19 05:33:07.868,-0.5,-0.705
2021-08-19 05:33:07.872,-0.59,-0.745
2021-08-19 05:33:07.876,-0.695,-0.72
2021-08-19 05:33:07.880,-0.74,-0.72
2021-08-19 05:33:07.884,-0.64,-0.76
2021-08-19 05:33:07.888,-0.455,-0.865
2021-08-19 05:33:07.892,-0.145,-0.995
2021-08-19 05:33:07.896,0.215,-1.175
2021-08-19 05:33:07.900,0.315,-1.21
2021-08-19 05:33:07.904,0.44,-1.065
2021-08-19 05:33:07.908,0.87,-1.045
2021-08-19 05:33:07.912,1.155,-0.87
2021-08-19 05:33:07.916,0.865,-0.435
2021-08-19 05:33:07.920,0.205,0.15
2021-08-19 05:33:07.924,-0.455,0.375
2021-08-19 05:33:07.928,-0.975,-0.21
2021-08-19 05:33:07.932,-1.275,-1.22
2021-08-19 05:33:07.964,-1.86,-1.99
2021-08-19 05:33:07.968,-1.51,-1.81
2021-08-19 05:33:07.972,-1.135,-1.57
2021-08-19 05:33:07.976,-0.92,-1.28
2021-08-19 05:33:07.980,-0.78,-1.045
2021-08-19 05:33:07.984,-0.68,-0.93
2021-08-19 05:33:07.988,-0.63,-0.885
2021-08-19 05:33:07.992,-0.585,-0.84
2021-08-19 05:33:07.996,-0.58,-0.765
2021-08-19 05:33:08.000,-0.56,-0.745
2021-08-19 05:33:08.004,-0.595,-0.76
2021-08-19 05:33:08.008,-0.57,-0.775
2021-08-19 05:33:08.012,-0.52,-0.73
2021-08-19 05:33:08.016,-0.52,-0.78
2021-08-19 05:33:08.020,-0.56,-0.8
2021-08-19 05:33:08.024,-0.545,-0.835
2021-08-19 05:33:08.028,-0.53,-0.8
2021-08-19 05:33:08.032,-0.53,-0.79
2021-08-19 05:33:08.036,-0.525,-0.77
2021-08-19 05:33:08.040,-0.535,-0.755
2021-08-19 05:33:08.044,-0.525,-0.785
2021-08-19 05:33:08.048,-0.49,-0.755
2021-08-19 05:33:08.052,-0.52,-0.785
2021-08-19 05:33:08.056,-0.49,-0.74
2021-08-19 05:33:08.060,-0.49,-0.775
2021-08-19 05:33:08.064,-0.475,-0.75
2021-08-19 05:33:08.068,-0.47,-0.75
2021-08-19 05:33:08.072,-0.42,-0.72
2021-08-19 05:33:08.076,-0.42,-0.73
2021-08-19 05:33:08.080,-0.41,-0.69
2021-08-19 05:33:08.084,-0.36,-0.7
2021-08-19 05:33:08.088,-0.33,-0.69
2021-08-19 05:33:08.092,-0.315,-0.67
2021-08-19 05:33:08.096,-0.265,-0.64
2021-08-19 05:33:08.100,-0.21,-0.59
2021-08-19 05:33:08.104,-0.205,-0.585
2021-08-19 05:33:08.108,-0.185,-0.515
2021-08-19 05:33:08.112,-0.12,-0.5
2021-08-19 05:33:08.116,-0.06,-0.41
2021-08-19 05:33:08.120,-0.01,-0.39
2021-08-19 05:33:08.124,0.005,-0.345
2021-08-19 05:33:08.128,0.04,-0.305
2021-08-19 05:33:08.132,0.13,-0.265
2021-08-19 05:33:08.136,0.2,-0.27
2021-08-19 05:33:08.140,0.265,-0.21
2021-08-19 05:33:08.144,0.27,-0.18
2021-08-19 05:33:08.148,0.33,-0.16
2021-08-19 05:33:08.152,0.37,-0.155
2021-08-19 05:33:08.156,0.38,-0.16
2021-08-19 05:33:08.160,0.4,-0.16
2021-08-19 05:33:08.164,0.4,-0.14
2021-08-19 05:33:08.168,0.43,-0.15
2021-08-19 05:33:08.172,0.425,-0.16
2021-08-19 05:33:08.176,0.44,-0.13
2021-08-19 05:33:08.180,0.46,-0.155
2021-08-19 05:33:08.184,0.48,-0.165
2021-08-19 05:33:08.188,0.47,-0.13
2021-08-19 05:33:08.192,0.49,-0.1
2021-08-19 05:33:08.196,0.465,-0.105
2021-08-19 05:33:08.200,0.49,-0.105
2021-08-19 05:33:08.204,0.47,-0.075
2021-08-19 05:33:08.208,0.415,-0.06
2021-08-19 05:33:08.212,0.39,-0.06
2021-08-19 05:33:08.216,0.36,-0.075
2021-08-19 05:33:08.220,0.3,-0.075
2021-08-19 05:33:08.224,0.235,-0.075
2021-08-19 05:33:08.228,0.16,-0.1
2021-08-19 05:33:08.232,0.135,-0.08
2021-08-19 05:33:08.236,0.115,-0.11
2021-08-19 05:33:08.240,0.09,-0.12
2021-08-19 05:33:08.244,0.02,-0.12
2021-08-19 05:33:08.248,-0.015,-0.17
2021-08-19 05:33:08.252,-0.06,-0.165
2021-08-19 05:33:08.256,-0.095,-0.155
2021-08-19 05:33:08.260,-0.12,-0.235
2021-08-19 05:33:08.264,-0.15,-0.24
2021-08-19 05:33:08.268,-0.16,-0.3
2021-08-19 05:33:08.272,-0.2,-0.325
2021-08-19 05:33:08.276,-0.215,-0.32
2021-08-19 05:33:08.280,-0.235,-0.37
2021-08-19 05:33:08.284,-0.26,-0.385
2021-08-19 05:33:08.288,-0.3,-0.43
2021-08-19 05:33:08.292,-0.31,-0.4
2021-08-19 05:33:08.296,-0.29,-0.425
2021-08-19 05:33:08.300,-0.25,-0.47
2021-08-19 05:33:08.304,-0.285,-0.48
2021-08-19 05:33:08.308,-0.295,-0.51
2021-08-19 05:33:08.312,-0.295,-0.525
2021-08-19 05:33:08.316,-0.32,-0.5
2021-08-19 05:33:08.320,-0.29,-0.505
2021-08-19 05:33:08.324,-0.295,-0.595
2021-08-19 05:33:08.328,-0.28,-0.53
2021-08-19 05:33:08.332,-0.295,-0.54
2021-08-19 05:33:08.336,-0.295,-0.6
2021-08-19 05:33:08.340,-0.275,-0.625
2021-08-19 05:33:08.344,-0.27,-0.605
2021-08-19 05:33:08.348,-0.265,-0.62
2021-08-19 05:33:08.352,-0.27,-0.63
2021-08-19 05:33:08.356,-0.245,-0.61
2021-08-19 05:33:08.360,-0.265,-0.59
2021-08-19 05:33:08.364,-0.24,-0.625
2021-08-19 05:33:08.368,-0.27,-0.625
2021-08-19 05:33:08.372,-0.265,-0.67
2021-08-19 05:33:08.376,-0.28,-0.675
2021-08-19 05:33:08.380,-0.26,-0.675
2021-08-19 05:33:08.384,-0.25,-0.67
2021-08-19 05:33:08.388,-0.26,-0.64
2021-08-19 05:33:08.392,-0.28,-0.65
2021-08-19 05:33:08.396,-0.265,-0.625
2021-08-19 05:33:08.400,-0.235,-0.62
2021-08-19 05:33:08.404,-0.285,-0.63
2021-08-19 05:33:08.408,-0.26,-0.61
2021-08-19 05:33:08.412,-0.265,-0.63
2021-08-19 05:33:08.416,-0.245,-0.605
2021-08-19 05:33:08.420,-0.2,-0.615
2021-08-19 05:33:08.424,-0.185,-0.615
2021-08-19 05:33:08.428,-0.215,-0.61
2021-08-19 05:33:08.432,-0.235,-0.69
2021-08-19 05:33:08.436,-0.23,-0.72
2021-08-19 05:33:08.440,-0.23,-0.725
2021-08-19 05:33:08.444,-0.25,-0.735
2021-08-19 05:33:08.448,-0.26,-0.765
2021-08-19 05:33:08.452,-0.29,-0.785
2021-08-19 05:33:08.456,-0.3,-0.8
2021-08-19 05:33:08.460,-0.31,-0.835
2021-08-19 05:33:08.464,-0.27,-0.84
2021-08-19 05:33:08.468,-0.265,-0.825
2021-08-19 05:33:08.472,-0.3,-0.82
2021-08-19 05:33:08.476,-0.305,-0.845
2021-08-19 05:33:08.480,-0.3,-0.815
2021-08-19 05:33:08.484,-0.315,-0.87
2021-08-19 05:33:08.488,-0.32,-0.88
2021-08-19 05:33:08.492,-0.375,-0.87
2021-08-19 05:33:08.496,-0.365,-0.865
2021-08-19 05:33:08.500,-0.37,-0.865
2021-08-19 05:33:08.504,-0.365,-0.895
2021-08-19 05:33:08.508,-0.34,-0.86
2021-08-19 05:33:08.512,-0.395,-0.84
2021-08-19 05:33:08.516,-0.385,-0.875
2021-08-19 05:33:08.520,-0.385,-0.875
2021-08-19 05:33:08.524,-0.355,-0.865
2021-08-19 05:33:08.528,-0.37,-0.835
2021-08-19 05:33:08.532,-0.37,-0.865
2021-08-19 05:33:08.536,-0.35,-0.845
2021-08-19 05:33:08.540,-0.375,-0.86
2021-08-19 05:33:08.544,-0.38,-0.835
2021-08-19 05:33:08.548,-0.385,-0.85
2021-08-19 05:33:08.552,-0.375,-0.84
2021-08-19 05:33:08.556,-0.4,-0.845
2021-08-19 05:33:08.560,-0.385,-0.855
2021-08-19 05:33:08.564,-0.41,-0.83
2021-08-19 05:33:08.568,-0.42,-0.835
2021-08-19 05:33:08.572,-0.43,-0.865
2021-08-19 05:33:08.576,-0.515,-0.845
2021-08-19 05:33:08.580,-0.66,-0.795
2021-08-19 05:33:08.584,-0.76,-0.84
2021-08-19 05:33:08.588,-0.74,-0.89
2021-08-19 05:33:08.592,-0.61,-0.965
2021-08-19 05:33:08.596,-0.365,-1.065
2021-08-19 05:33:08.600,0.0,-1.225
2021-08-19 05:33:08.604,0.175,-1.325
2021-08-19 05:33:08.608,0.195,-1.24
2021-08-19 05:33:08.612,0.49,-1.13
2021-08-19 05:33:08.616,0.73,-1.04
2021-08-19 05:33:08.620,0.495,-0.67
2021-08-19 05:33:08.624,-0.005,-0.135
2021-08-19 05:33:08.628,-0.53,0.185
2021-08-19 05:33:08.632,-0.98,-0.16
2021-08-19 05:33:08.636,-1.33,-1.2
2021-08-19 05:33:08.668,-2.0,-1.8
2021-08-19 05:33:08.672,-1.63,-1.69
2021-08-19 05:33:08.676,-1.25,-1.48
2021-08-19 05:33:08.680,-0.96,-1.23
2021-08-19 05:33:08.684,-0.77,-0.98
2021-08-19 05:33:08.688,-0.63,-0.845
2021-08-19 05:33:08.692,-0.525,-0.79
2021-08-19 05:33:08.696,-0.465,-0.725
2021-08-19 05:33:08.700,-0.48,-0.7
2021-08-19 05:33:08.704,-0.485,-0.7
2021-08-19 05:33:08.708,-0.43,-0.68
2021-08-19 05:33:08.712,-0.425,-0.715
2021-08-19 05:33:08.716,-0.47,-0.73
2021-08-19 05:33:08.720,-0.495,-0.745
2021-08-19 05:33:08.724,-0.43,-0.765
2021-08-19 05:33:08.728,-0.39,-0.77
2021-08-19 05:33:08.732,-0.44,-0.775
2021-08-19 05:33:08.736,-0.445,-0.765
2021-08-19 05:33:08.740,-0.43,-0.795
2021-08-19 05:33:08.744,-0.43,-0.77
2021-08-19 05:33:08.748,-0.42,-0.815
2021-08-19 05:33:08.752,-0.425,-0.775
2021-08-19 05:33:08.756,-0.425,-0.77
2021-08-19 05:33:08.760,-0.45,-0.795
2021-08-19 05:33:08.764,-0.44,-0.77
2021-08-19 05:33:08.768,-0.43,-0.77
2021-08-19 05:33:08.772,-0.4,-0.785
2021-08-19 05:33:08.776,-0.4,-0.795
2021-08-19 05:33:08.780,-0.38,-0.755
2021-08-19 05:33:08.784,-0.33,-0.765
2021-08-19 05:33:08.788,-0.345,-0.75
2021-08-19 05:33:08.792,-0.33,-0.71
2021-08-19 05:33:08.796,-0.32,-0.715
2021-08-19 05:33:08.800,-0.305,-0.715
2021-08-19 05:33:08.804,-0.28,-0.69
2021-08-19 05:33:08.808,-0.22,-0.695
2021-08-19 05:33:08.812,-0.15,-0.6
2021-08-19 05:33:08.816,-0.13,-0.61
2021-08-19 05:33:08.820,-0.06,-0.55
2021-08-19 05:33:08.824,-0.02,-0.55
2021-08-19 05:33:08.828,0.015,-0.515
2021-08-19 05:33:08.832,0.035,-0.485
2021-08-19 05:33:08.836,0.135,-0.435
2021-08-19 05:33:08.840,0.175,-0.41
2021-08-19 05:33:08.844,0.17,-0.365
2021-08-19 05:33:08.848,0.225,-0.35
2021-08-19 05:33:08.852,0.26,-0.31
2021-08-19 05:33:08.856,0.25,-0.275
2021-08-19 05:33:08.860,0.305,-0.26
2021-08-19 05:33:08.864,0.33,-0.23
2021-08-19 05:33:08.868,0.35,-0.23
2021-08-19 05:33:08.872,0.425,-0.195
2021-08-19 05:33:08.876,0.43,-0.175
2021-08-19 05:33:08.880,0.425,-0.15
2021-08-19 05:33:08.884,0.36,-0.105
2021-08-19 05:33:08.888,0.375,-0.105
2021-08-19 05:33:08.892,0.405,-0.08
2021-08-19 05:33:08.896,0.43,-0.08
2021-08-19 05:33:08.900,0.445,-0.04
2021-08-19 05:33:08.904,0.4,-0.01
2021-08-19 05:33:08.908,0.405,-0.005
2021-08-19 05:33:08.912,0.42,0.02
2021-08-19 05:33:08.916,0.35,0.02
2021-08-19 05:33:08.920,0.3,0.005
2021-08-19 05:33:08.924,0.23,0.04
2021-08-19 05:33:08.928,0.145,0.02
2021-08-19 05:33:08.932,0.16,-0.02
2021-08-19 05:33:08.936,0.125,0.005
2021-08-19 05:33:08.940,0.11,0.005
2021-08-19 05:33:08.944,0.115,-0.01
2021-08-19 05:33:08.948,0.07,-0.04
2021-08-19 05:33:08.952,0.085,-0.005
2021-08-19 05:33:08.956,0.06,-0.085
2021-08-19 05:33:08.960,0.02,-0.1
2021-08-19 05:33:08.964,0.01,-0.15
2021-08-19 05:33:08.968,-0.01,-0.205
2021-08-19 05:33:08.972,0.01,-0.22
2021-08-19 05:33:08.976,-0.03,-0.235
2021-08-19 05:33:08.980,-0.085,-0.28
2021-08-19 05:33:08.984,-0.125,-0.36
2021-08-19 05:33:08.988,-0.14,-0.39
2021-08-19 05:33:08.992,-0.15,-0.39
2021-08-19 05:33:08.996,-0.14,-0.435
2021-08-19 05:33:09.000,-0.145,-0.46
2021-08-19 05:33:09.004,-0.16,-0.46
2021-08-19 05:33:09.008,-0.17,-0.49
2021-08-19 05:33:09.012,-0.13,-0.47
2021-08-19 05:33:09.016,-0.11,-0.48
2021-08-19 05:33:09.020,-0.14,-0.495
2021-08-19 05:33:09.024,-0.15,-0.515
2021-08-19 05:33:09.028,-0.16,-0.515
2021-08-19 05:33:09.032,-0.155,-0.55
2021-08-19 05:33:09.036,-0.145,-0.575
2021-08-19 05:33:09.040,-0.145,-0.565
2021-08-19 05:33:09.044,-0.15,-0.575
2021-08-19 05:33:09.048,-0.17,-0.57
2021-08-19 05:33:09.052,-0.19,-0.6
2021-08-19 05:33:09.056,-0.155,-0.575
2021-08-19 05:33:09.060,-0.17,-0.615
2021-08-19 05:33:09.064,-0.185,-0.62
2021-08-19 05:33:09.068,-0.21,-0.62
2021-08-19 05:33:09.072,-0.215,-0.62
2021-08-19 05:33:09.076,-0.205,-0.645
2021-08-19 05:33:09.080,-0.215,-0.65
2021-08-19 05:33:09.084,-0.225,-0.65
2021-08-19 05:33:09.088,-0.24,-0.685
2021-08-19 05:33:09.092,-0.245,-0.72
2021-08-19 05:33:09.096,-0.235,-0.715
2021-08-19 05:33:09.100,-0.25,-0.71
2021-08-19 05:33:09.104,-0.245,-0.725
2021-08-19 05:33:09.108,-0.285,-0.735
2021-08-19 05:33:09.112,-0.3,-0.735
2021-08-19 05:33:09.116,-0.28,-0.745
2021-08-19 05:33:09.120,-0.28,-0.73
2021-08-19 05:33:09.124,-0.28,-0.75
2021-08-19 05:33:09.128,-0.31,-0.765
2021-08-19 05:33:09.132,-0.295,-0.76
2021-08-19 05:33:09.136,-0.295,-0.75
2021-08-19 05:33:09.140,-0.28,-0.785
2021-08-19 05:33:09.144,-0.28,-0.76
2021-08-19 05:33:09.148,-0.335,-0.8
2021-08-19 05:33:09.152,-0.3,-0.785
2021-08-19 05:33:09.156,-0.255,-0.785
2021-08-19 05:33:09.160,-0.27,-0.795
2021-08-19 05:33:09.164,-0.275,-0.8
2021-08-19 05:33:09.168,-0.33,-0.77
2021-08-19 05:33:09.172,-0.325,-0.755
2021-08-19 05:33:09.176,-0.275,-0.745
2021-08-19 05:33:09.180,-0.275,-0.755
2021-08-19 05:33:09.184,-0.31,-0.755
2021-08-19 05:33:09.188,-0.355,-0.745
2021-08-19 05:33:09.192,-0.34,-0.755
2021-08-19 05:33:09.196,-0.29,-0.75
2021-08-19 05:33:09.200,-0.25,-0.72
2021-08-19 05:33:09.204,-0.19,-0.695
2021-08-19 05:33:09.208,-0.195,-0.65
2021-08-19 05:33:09.212,-0.165,-0.64
2021-08-19 05:33:09.216,-0.195,-0.68
2021-08-19 05:33:09.220,-0.175,-0.705
2021-08-19 05:33:09.224,-0.13,-0.725
2021-08-19 05:33:09.228,-0.18,-0.695
2021-08-19 05:33:09.232,-0.2,-0.74
2021-08-19 05:33:09.236,-0.2,-0.72
2021-08-19 05:33:09.240,-0.19,-0.76
2021-08-19 05:33:09.244,-0.21,-0.79
2021-08-19 05:33:09.248,-0.245,-0.785
2021-08-19 05:33:09.252,-0.26,-0.8
2021-08-19 05:33:09.256,-0.225,-0.745
2021-08-19 05:33:09.260,-0.25,-0.76
2021-08-19 05:33:09.264,-0.345,-0.735
2021-08-19 05:33:09.268,-0.485,-0.78
2021-08-19 05:33:09.272,-0.615,-0.78
2021-08-19 05:33:09.276,-0.61,-0.79
2021-08-19 05:33:09.280,-0.465,-0.86
2021-08-19 05:33:09.284,-0.2,-0.94
2021-08-19 05:33:09.288,0.15,-1.105
2021-08-19 05:33:09.292,0.3,-1.275
2021-08-19 05:33:09.296,0.26,-1.22
2021-08-19 05:33:09.300,0.47,-1.145
2021-08-19 05:33:09.304,0.82,-1.11
2021-08-19 05:33:09.308,0.695,-0.91
2021-08-19 05:33:09.312,0.145,-0.455
2021-08-19 05:33:09.316,-0.53,-0.205
2021-08-19 05:33:09.320,-1.095,-0.455
2021-08-19 05:33:09.324,-1.465,-1.36
2021-08-19 05:33:09.360,-1.71,-1.785
2021-08-19 05:33:09.364,-1.27,-1.54
2021-08-19 05:33:09.368,-0.87,-1.305
2021-08-19 05:33:09.372,-0.7,-1.055
2021-08-19 05:33:09.376,-0.585,-0.865
2021-08-19 05:33:09.380,-0.445,-0.76
2021-08-19 05:33:09.384,-0.4,-0.68
2021-08-19 05:33:09.388,-0.42,-0.675
2021-08-19 05:33:09.392,-0.45,-0.64
2021-08-19 05:33:09.396,-0.425,-0.64
2021-08-19 05:33:09.400,-0.345,-0.66
2021-08-19 05:33:09.404,-0.29,-0.665
2021-08-19 05:33:09.408,-0.33,-0.675
2021-08-19 05:33:09.412,-0.365,-0.685
2021-08-19 05:33:09.416,-0.345,-0.645
2021-08-19 05:33:09.420,-0.36,-0.67
2021-08-19 05:33:09.424,-0.345,-0.665
2021-08-19 05:33:09.428,-0.335,-0.655
2021-08-19 05:33:09.432,-0.27,-0.685
2021-08-19 05:33:09.436,-0.255,-0.665
2021-08-19 05:33:09.440,-0.235,-0.665
2021-08-19 05:33:09.444,-0.28,-0.68
2021-08-19 05:33:09.448,-0.295,-0.67
2021-08-19 05:33:09.452,-0.285,-0.64
2021-08-19 05:33:09.456,-0.235,-0.63
2021-08-19 05:33:09.460,-0.15,-0.64
2021-08-19 05:33:09.464,-0.17,-0.595
2021-08-19 05:33:09.468,-0.205,-0.61
2021-08-19 05:33:09.472,-0.185,-0.64
2021-08-19 05:33:09.476,-0.185,-0.6
2021-08-19 05:33:09.480,-0.125,-0.595
2021-08-19 05:33:09.484,0.01,-0.53
2021-08-19 05:33:09.488,0.015,-0.56
2021-08-19 05:33:09.492,0.05,-0.55
2021-08-19 05:33:09.496,0.125,-0.575
2021-08-19 05:33:09.500,0.175,-0.56
2021-08-19 05:33:09.504,0.235,-0.59
2021-08-19 05:33:09.508,0.245,-0.565
2021-08-19 05:33:09.512,0.295,-0.545
2021-08-19 05:33:09.516,0.37,-0.57
2021-08-19 05:33:09.520,0.445,-0.57
2021-08-19 05:33:09.524,0.47,-0.545
2021-08-19 05:33:09.528,0.495,-0.55
2021-08-19 05:33:09.532,0.56,-0.525
2021-08-19 05:33:09.536,0.565,-0.495
2021-08-19 05:33:09.540,0.585,-0.475
2021-08-19 05:33:09.544,0.625,-0.495
2021-08-19 05:33:09.548,0.675,-0.41
2021-08-19 05:33:09.552,0.635,-0.41
2021-08-19 05:33:09.556,0.675,-0.445
2021-08-19 05:33:09.560,0.68,-0.385
2021-08-19 05:33:09.564,0.69,-0.37
2021-08-19 05:33:09.568,0.715,-0.365
2021-08-19 05:33:09.572,0.74,-0.35
2021-08-19 05:33:09.576,0.75,-0.3
2021-08-19 05:33:09.580,0.74,-0.29
2021-08-19 05:33:09.584,0.71,-0.295
2021-08-19 05:33:09.588,0.71,-0.29
2021-08-19 05:33:09.592,0.645,-0.25
2021-08-19 05:33:09.596,0.635,-0.28
2021-08-19 05:33:09.600,0.585,-0.255
2021-08-19 05:33:09.604,0.5,-0.255
2021-08-19 05:33:09.608,0.47,-0.275
2021-08-19 05:33:09.612,0.42,-0.27
2021-08-19 05:33:09.616,0.325,-0.245
2021-08-19 05:33:09.620,0.285,-0.275
2021-08-19 05:33:09.624,0.235,-0.28
2021-08-19 05:33:09.628,0.19,-0.255
2021-08-19 05:33:09.632,0.145,-0.245
2021-08-19 05:33:09.636,0.1,-0.255
2021-08-19 05:33:09.640,0.05,-0.27
2021-08-19 05:33:09.644,0.01,-0.305
2021-08-19 05:33:09.648,0.0,-0.325
2021-08-19 05:33:09.652,0.005,-0.33
2021-08-19 05:33:09.656,-0.04,-0.345
2021-08-19 05:33:09.660,-0.07,-0.375
2021-08-19 05:33:09.664,-0.06,-0.385
2021-08-19 05:33:09.668,-0.09,-0.395
2021-08-19 05:33:09.672,-0.105,-0.43
2021-08-19 05:33:09.676,-0.095,-0.455
2021-08-19 05:33:09.680,-0.12,-0.47
2021-08-19 05:33:09.684,-0.08,-0.46
2021-08-19 05:33:09.688,-0.115,-0.465
2021-08-19 05:33:09.692,-0.1,-0.485
2021-08-19 05:33:09.696,-0.09,-0.485
2021-08-19 05:33:09.700,-0.12,-0.495
2021-08-19 05:33:09.704,-0.105,-0.525
2021-08-19 05:33:09.708,-0.115,-0.525
2021-08-19 05:33:09.712,-0.105,-0.545
2021-08-19 05:33:09.716,-0.12,-0.53
2021-08-19 05:33:09.720,-0.095,-0.54
2021-08-19 05:33:09.724,-0.115,-0.565
2021-08-19 05:33:09.728,-0.115,-0.56
2021-08-19 05:33:09.732,-0.045,-0.56
2021-08-19 05:33:09.736,-0.03,-0.565
2021-08-19 05:33:09.740,-0.12,-0.55
2021-08-19 05:33:09.744,-0.02,-0.555
2021-08-19 05:33:09.748,-0.025,-0.565
2021-08-19 05:33:09.752,-0.11,-0.56
2021-08-19 05:33:09.756,-0.13,-0.59
2021-08-19 05:33:09.760,-0.12,-0.565
2021-08-19 05:33:09.764,-0.105,-0.6
2021-08-19 05:33:09.768,-0.09,-0.58
2021-08-19 05:33:09.772,-0.025,-0.54
2021-08-19 05:33:09.776,-0.025,-0.575
2021-08-19 05:33:09.780,-0.02,-0.595
2021-08-19 05:33:09.784,-0.06,-0.675
2021-08-19 05:33:09.788,-0.04,-0.65
2021-08-19 05:33:09.792,-0.01,-0.635
2021-08-19 05:33:09.796,-0.025,-0.635
2021-08-19 05:33:09.800,-0.08,-0.675
2021-08-19 05:33:09.804,-0.085,-0.68
2021-08-19 05:33:09.808,-0.07,-0.695
2021-08-19 05:33:09.812,-0.075,-0.68
2021-08-19 05:33:09.816,-0.09,-0.72
2021-08-19 05:33:09.820,-0.095,-0.73
2021-08-19 05:33:09.824,-0.12,-0.715
2021-08-19 05:33:09.828,-0.11,-0.71
2021-08-19 05:33:09.832,-0.095,-0.71
2021-08-19 05:33:09.836,-0.125,-0.72
2021-08-19 05:33:09.840,-0.14,-0.725
2021-08-19 05:33:09.844,-0.165,-0.74
2021-08-19 05:33:09.848,-0.17,-0.745
2021-08-19 05:33:09.852,-0.15,-0.715
2021-08-19 05:33:09.856,-0.16,-0.755
2021-08-19 05:33:09.860,-0.2,-0.78
2021-08-19 05:33:09.864,-0.2,-0.735
2021-08-19 05:33:09.868,-0.165,-0.78
2021-08-19 05:33:09.872,-0.15,-0.76
2021-08-19 05:33:09.876,-0.18,-0.755
2021-08-19 05:33:09.880,-0.17,-0.745
2021-08-19 05:33:09.884,-0.18,-0.77
2021-08-19 05:33:09.888,-0.155,-0.775
2021-08-19 05:33:09.892,-0.155,-0.75
2021-08-19 05:33:09.896,-0.13,-0.755
2021-08-19 05:33:09.900,-0.175,-0.74
2021-08-19 05:33:09.904,-0.155,-0.775
2021-08-19 05:33:09.908,-0.16,-0.725
2021-08-19 05:33:09.912,-0.13,-0.735
2021-08-19 05:33:09.916,-0.15,-0.735
2021-08-19 05:33:09.920,-0.145,-0.745
2021-08-19 05:33:09.924,-0.145,-0.715
2021-08-19 05:33:09.928,-0.155,-0.705
2021-08-19 05:33:09.932,-0.135,-0.72
2021-08-19 05:33:09.936,-0.155,-0.73
2021-08-19 05:33:09.940,-0.145,-0.7
2021-08-19 05:33:09.944,-0.125,-0.71
2021-08-19 05:33:09.948,-0.1,-0.715
2021-08-19 05:33:09.952,-0.09,-0.7
2021-08-19 05:33:09.956,-0.105,-0.71
2021-08-19 05:33:09.960,-0.12,-0.695
2021-08-19 05:33:09.964,-0.125,-0.71
2021-08-19 05:33:09.968,-0.145,-0.715
2021-08-19 05:33:09.972,-0.11,-0.715
2021-08-19 05:33:09.976,-0.125,-0.68
2021-08-19 05:33:09.980,-0.105,-0.71
2021-08-19 05:33:09.984,-0.115,-0.695
2021-08-19 05:33:09.988,-0.13,-0.695
2021-08-19 05:33:09.992,-0.08,-0.695
2021-08-19 05:33:09.996,-0.07,-0.66
2021-08-19 05:33:10.000,-0.08,-0.67
2021-08-19 05:33:10.004,-0.07,-0.665
2021-08-19 05:33:10.008,-0.055,-0.67
2021-08-19 05:33:10.012,-0.03,-0.63
2021-08-19 05:33:10.016,-0.05,-0.64
2021-08-19 05:33:10.020,-0.12,-0.64
2021-08-19 05:33:10.024,-0.24,-0.6
2021-08-19 05:33:10.028,-0.385,-0.61
2021-08-19 05:33:10.032,-0.53,-0.625
2021-08-19 05:33:10.036,-0.585,-0.615
2021-08-19 05:33:10.040,-0.445,-0.635
2021-08-19 05:33:10.044,-0.205,-0.725
2021-08-19 05:33:10.048,0.215,-0.815
2021-08-19 05:33:10.052,0.595,-0.9
2021-08-19 05:33:10.056,0.73,-0.95
2021-08-19 05:33:10.060,0.955,-0.89
2021-08-19 05:33:10.064,1.535,-0.95
2021-08-19 05:33:10.068,1.92,-0.915
2021-08-19 05:33:10.072,1.77,-0.605
2021-08-19 05:33:10.076,0.995,-0.185
2021-08-19 05:33:10.080,-0.155,-0.015
2021-08-19 05:33:10.084,-1.05,-0.585
2021-08-19 05:33:10.088,-1.455,-1.55
2021-08-19 05:33:10.116,-1.99,-1.73
2021-08-19 05:33:10.120,-1.685,-1.59
2021-08-19 05:33:10.124,-1.34,-1.5
2021-08-19 05:33:10.128,-0.97,-1.405
2021-08-19 05:33:10.132,-0.725,-1.215
2021-08-19 05:33:10.136,-0.54,-1.02
2021-08-19 05:33:10.140,-0.395,-0.87
2021-08-19 05:33:10.144,-0.35,-0.83
2021-08-19 05:33:10.148,-0.33,-0.785
2021-08-19 05:33:10.152,-0.35,-0.7
2021-08-19 05:33:10.156,-0.32,-0.715
2021-08-19 05:33:10.160,-0.315,-0.73
2021-08-19 05:33:10.164,-0.315,-0.76
2021-08-19 05:33:10.168,-0.34,-0.71
2021-08-19 05:33:10.172,-0.32,-0.73
2021-08-19 05:33:10.176,-0.3,-0.745
2021-08-19 05:33:10.180,-0.295,-0.76
2021-08-19 05:33:10.184,-0.31,-0.75
2021-08-19 05:33:10.188,-0.335,-0.755
2021-08-19 05:33:10.192,-0.27,-0.73
2021-08-19 05:33:10.196,-0.26,-0.72
2021-08-19 05:33:10.200,-0.27,-0.735
2021-08-19 05:33:10.204,-0.265,-0.72
2021-08-19 05:33:10.208,-0.265,-0.745
2021-08-19 05:33:10.212,-0.24,-0.705
2021-08-19 05:33:10.216,-0.22,-0.745
2021-08-19 05:33:10.220,-0.2,-0.74
2021-08-19 05:33:10.224,-0.19,-0.75
2021-08-19 05:33:10.228,-0.155,-0.765
2021-08-19 05:33:10.232,-0.12,-0.705
2021-08-19 05:33:10.236,-0.055,-0.72
2021-08-19 05:33:10.240,-0.03,-0.695
2021-08-19 05:33:10.244,-0.005,-0.675
2021-08-19 05:33:10.248,0.055,-0.65
2021-08-19 05:33:10.252,0.075,-0.635
2021-08-19 05:33:10.256,0.145,-0.655
2021-08-19 05:33:10.260,0.195,-0.59
2021-08-19 05:33:10.264,0.215,-0.585
2021-08-19 05:33:10.268,0.275,-0.565
2021-08-19 05:33:10.272,0.31,-0.575
2021-08-19 05:33:10.276,0.39,-0.545
2021-08-19 05:33:10.280,0.455,-0.5
2021-08-19 05:33:10.284,0.51,-0.465
2021-08-19 05:33:10.288,0.535,-0.475
2021-08-19 05:33:10.292,0.605,-0.435
2021-08-19 05:33:10.296,0.65,-0.415
2021-08-19 05:33:10.300,0.695,-0.35
2021-08-19 05:33:10.304,0.755,-0.365
2021-08-19 05:33:10.308,0.745,-0.33
2021-08-19 05:33:10.312,0.785,-0.29
2021-08-19 05:33:10.316,0.845,-0.28
2021-08-19 05:33:10.320,0.865,-0.25
2021-08-19 05:33:10.324,0.865,-0.245
2021-08-19 05:33:10.328,0.905,-0.23
2021-08-19 05:33:10.332,0.91,-0.185
2021-08-19 05:33:10.336,0.96,-0.16
2021-08-19 05:33:10.340,0.97,-0.14
2021-08-19 05:33:10.344,0.965,-0.095
2021-08-19 05:33:10.348,0.925,-0.09
2021-08-19 05:33:10.352,0.905,-0.09
2021-08-19 05:33:10.356,0.895,-0.13
2021-08-19 05:33:10.360,0.855,-0.135
2021-08-19 05:33:10.364,0.81,-0.145
2021-08-19 05:33:10.368,0.745,-0.165
2021-08-19 05:33:10.372,0.695,-0.17
2021-08-19 05:33:10.376,0.62,-0.16
2021-08-19 05:33:10.380,0.58,-0.2
2021-08-19 05:33:10.384,0.51,-0.21
2021-08-19 05:33:10.388,0.46,-0.24
2021-08-19 05:33:10.392,0.42,-0.215
2021-08-19 05:33:10.396,0.36,-0.21
2021-08-19 05:33:10.400,0.35,-0.225
2021-08-19 05:33:10.404,0.325,-0.205
2021-08-19 05:33:10.408,0.255,-0.195
2021-08-19 05:33:10.412,0.23,-0.195
2021-08-19 05:33:10.416,0.19,-0.225
2021-08-19 05:33:10.420,0.185,-0.25
2021-08-19 05:33:10.424,0.13,-0.26
2021-08-19 05:33:10.428,0.095,-0.295
2021-08-19 05:33:10.432,0.07,-0.305
2021-08-19 05:33:10.436,0.06,-0.335
2021-08-19 05:33:10.440,0.065,-0.345
2021-08-19 05:33:10.444,0.025,-0.31
2021-08-19 05:33:10.448,0.015,-0.345
2021-08-19 05:33:10.452,0.0,-0.35
2021-08-19 05:33:10.456,0.05,-0.39
2021-08-19 05:33:10.460,0.005,-0.415
2021-08-19 05:33:10.464,0.035,-0.4
2021-08-19 05:33:10.468,-0.01,-0.4
2021-08-19 05:33:10.472,-0.005,-0.42
2021-08-19 05:33:10.476,-0.02,-0.42
2021-08-19 05:33:10.480,0.01,-0.44
2021-08-19 05:33:10.484,0.0,-0.45
2021-08-19 05:33:10.488,-0.035,-0.49
2021-08-19 05:33:10.492,-0.06,-0.5
2021-08-19 05:33:10.496,-0.02,-0.5
2021-08-19 05:33:10.500,-0.035,-0.54
2021-08-19 05:33:10.504,-0.06,-0.53
2021-08-19 05:33:10.508,-0.08,-0.55
2021-08-19 05:33:10.512,-0.085,-0.57
2021-08-19 05:33:10.516,-0.085,-0.565
2021-08-19 05:33:10.520,-0.06,-0.595
2021-08-19 05:33:10.524,-0.11,-0.615
2021-08-19 05:33:10.528,-0.105,-0.585
2021-08-19 05:33:10.532,-0.115,-0.625
2021-08-19 05:33:10.536,-0.12,-0.64
2021-08-19 05:33:10.540,-0.115,-0.63
2021-08-19 05:33:10.544,-0.125,-0.62
2021-08-19 05:33:10.548,-0.145,-0.625
2021-08-19 05:33:10.552,-0.155,-0.665
2021-08-19 05:33:10.556,-0.175,-0.68
2021-08-19 05:33:10.560,-0.165,-0.645
2021-08-19 05:33:10.564,-0.145,-0.675
2021-08-19 05:33:10.568,-0.135,-0.685
2021-08-19 05:33:10.572,-0.15,-0.67
2021-08-19 05:33:10.576,-0.15,-0.675
2021-08-19 05:33:10.580,-0.145,-0.695
2021-08-19 05:33:10.584,-0.145,-0.67
2021-08-19 05:33:10.588,-0.14,-0.695
2021-08-19 05:33:10.592,-0.15,-0.695
2021-08-19 05:33:10.596,-0.185,-0.67
2021-08-19 05:33:10.600,-0.13,-0.68
2021-08-19 05:33:10.604,-0.135,-0.64
2021-08-19 05:33:10.608,-0.145,-0.655
2021-08-19 05:33:10.612,-0.18,-0.61
2021-08-19 05:33:10.616,-0.2,-0.625
2021-08-19 05:33:10.620,-0.19,-0.64
2021-08-19 05:33:10.624,-0.185,-0.665
2021-08-19 05:33:10.628,-0.175,-0.625
2021-08-19 05:33:10.632,-0.195,-0.62
2021-08-19 05:33:10.636,-0.185,-0.645
2021-08-19 05:33:10.640,-0.18,-0.625
2021-08-19 05:33:10.644,-0.135,-0.62
2021-08-19 05:33:10.648,-0.135,-0.605
2021-08-19 05:33:10.652,-0.105,-0.6
2021-08-19 05:33:10.656,-0.095,-0.63
2021-08-19 05:33:10.660,-0.1,-0.66
2021-08-19 05:33:10.664,-0.06,-0.69
2021-08-19 05:33:10.668,-0.09,-0.69
2021-08-19 05:33:10.672,-0.1,-0.73
2021-08-19 05:33:10.676,-0.12,-0.74
2021-08-19 05:33:10.680,-0.09,-0.76
2021-08-19 05:33:10.684,-0.075,-0.715
2021-08-19 05:33:10.688,-0.1,-0.71
2021-08-19 05:33:10.692,-0.125,-0.73
2021-08-19 05:33:10.696,-0.155,-0.705
2021-08-19 05:33:10.700,-0.13,-0.72
2021-08-19 05:33:10.704,-0.13,-0.735
2021-08-19 05:33:10.708,-0.145,-0.735
2021-08-19 05:33:10.712,-0.165,-0.715
2021-08-19 05:33:10.716,-0.16,-0.705
2021-08-19 05:33:10.720,-0.165,-0.68
2021-08-19 05:33:10.724,-0.19,-0.685
2021-08-19 05:33:10.728,-0.155,-0.705
2021-08-19 05:33:10.732,-0.21,-0.715
2021-08-19 05:33:10.736,-0.22,-0.72
2021-08-19 05:33:10.740,-0.195,-0.69
2021-08-19 05:33:10.744,-0.195,-0.7
2021-08-19 05:33:10.748,-0.18,-0.745
2021-08-19 05:33:10.752,-0.19,-0.705
2021-08-19 05:33:10.756,-0.2,-0.715
2021-08-19 05:33:10.760,-0.23,-0.69
2021-08-19 05:33:10.764,-0.205,-0.7
2021-08-19 05:33:10.768,-0.22,-0.695
2021-08-19 05:33:10.772,-0.28,-0.715
2021-08-19 05:33:10.776,-0.405,-0.74
2021-08-19 05:33:10.780,-0.56,-0.74
2021-08-19 05:33:10.784,-0.65,-0.715
2021-08-19 05:33:10.788,-0.64,-0.755
2021-08-19 05:33:10.792,-0.525,-0.79
2021-08-19 05:33:10.796,-0.225,-0.855
2021-08-19 05:33:10.800,0.21,-0.95
2021-08-19 05:33:10.804,0.43,-1.075
2021-08-19 05:33:10.808,0.52,-1.005
2021-08-19 05:33:10.812,0.905,-0.91
2021-08-19 05:33:10.816,1.365,-0.96
2021-08-19 05:33:10.820,1.365,-0.795
2021-08-19 05:33:10.824,0.775,-0.41
2021-08-19 05:33:10.828,-0.2,-0.07
2021-08-19 05:33:10.832,-1.085,-0.235
2021-08-19 05:33:10.836,-1.52,-1.205
2021-08-19 05:33:10.872,-1.705,-1.665
2021-08-19 05:33:10.876,-1.285,-1.47
2021-08-19 05:33:10.880,-0.94,-1.34
2021-08-19 05:33:10.884,-0.745,-1.08
2021-08-19 05:33:10.888,-0.595,-0.89
2021-08-19 05:33:10.892,-0.51,-0.785
2021-08-19 05:33:10.896,-0.49,-0.705
2021-08-19 05:33:10.900,-0.475,-0.68
2021-08-19 05:33:10.904,-0.46,-0.645
2021-08-19 05:33:10.908,-0.43,-0.63
2021-08-19 05:33:10.912,-0.445,-0.63
2021-08-19 05:33:10.916,-0.46,-0.635
2021-08-19 05:33:10.920,-0.455,-0.61
2021-08-19 05:33:10.924,-0.385,-0.595
2021-08-19 05:33:10.928,-0.37,-0.58
2021-08-19 05:33:10.932,-0.385,-0.615
2021-08-19 05:33:10.936,-0.37,-0.605
2021-08-19 05:33:10.940,-0.32,-0.62
2021-08-19 05:33:10.944,-0.32,-0.67
2021-08-19 05:33:10.948,-0.335,-0.665
2021-08-19 05:33:10.952,-0.305,-0.68
2021-08-19 05:33:10.956,-0.29,-0.64
2021-08-19 05:33:10.960,-0.29,-0.665
2021-08-19 05:33:10.964,-0.26,-0.71
2021-08-19 05:33:10.968,-0.24,-0.67
2021-08-19 05:33:10.972,-0.225,-0.725
2021-08-19 05:33:10.976,-0.25,-0.685
2021-08-19 05:33:10.980,-0.2,-0.69
2021-08-19 05:33:10.984,-0.205,-0.695
2021-08-19 05:33:10.988,-0.16,-0.705
2021-08-19 05:33:10.992,-0.16,-0.64
2021-08-19 05:33:10.996,-0.12,-0.67
2021-08-19 05:33:11.000,-0.1,-0.65
2021-08-19 05:33:11.004,-0.055,-0.63
2021-08-19 05:33:11.008,-0.01,-0.605
2021-08-19 05:33:11.012,0.04,-0.605
2021-08-19 05:33:11.016,0.055,-0.575
2021-08-19 05:33:11.020,0.095,-0.545
2021-08-19 05:33:11.024,0.15,-0.535
2021-08-19 05:33:11.028,0.21,-0.485
2021-08-19 05:33:11.032,0.225,-0.46
2021-08-19 05:33:11.036,0.285,-0.445
2021-08-19 05:33:11.040,0.325,-0.4
2021-08-19 05:33:11.044,0.36,-0.405
2021-08-19 05:33:11.048,0.4,-0.36
2021-08-19 05:33:11.052,0.42,-0.34
2021-08-19 05:33:11.056,0.455,-0.345
2021-08-19 05:33:11.060,0.47,-0.33
2021-08-19 05:33:11.064,0.495,-0.31
2021-08-19 05:33:11.068,0.52,-0.295
2021-08-19 05:33:11.072,0.52,-0.285
2021-08-19 05:33:11.076,0.54,-0.26
2021-08-19 05:33:11.080,0.55,-0.225
2021-08-19 05:33:11.084,0.535,-0.23
2021-08-19 05:33:11.088,0.56,-0.255
2021-08-19 05:33:11.092,0.565,-0.195
2021-08-19 05:33:11.096,0.54,-0.165
2021-08-19 05:33:11.100,0.51,-0.15
2021-08-19 05:33:11.104,0.5,-0.13
2021-08-19 05:33:11.108,0.45,-0.155
2021-08-19 05:33:11.112,0.41,-0.135
2021-08-19 05:33:11.116,0.375,-0.135
2021-08-19 05:33:11.120,0.31,-0.13
2021-08-19 05:33:11.124,0.265,-0.15
2021-08-19 05:33:11.128,0.21,-0.13
2021-08-19 05:33:11.132,0.17,-0.135
2021-08-19 05:33:11.136,0.115,-0.13
2021-08-19 05:33:11.140,0.07,-0.155
2021-08-19 05:33:11.144,0.035,-0.14
2021-08-19 05:33:11.148,0.0,-0.175
2021-08-19 05:33:11.152,-0.01,-0.175
2021-08-19 05:33:11.156,-0.05,-0.165
2021-08-19 05:33:11.160,-0.065,-0.16
2021-08-19 05:33:11.164,-0.07,-0.185
2021-08-19 05:33:11.168,-0.085,-0.175
2021-08-19 05:33:11.172,-0.06,-0.22
2021-08-19 05:33:11.176,-0.08,-0.235
2021-08-19 05:33:11.180,-0.08,-0.27
2021-08-19 05:33:11.184,-0.11,-0.25
2021-08-19 05:33:11.188,-0.08,-0.265
2021-08-19 05:33:11.192,-0.065,-0.24
2021-08-19 05:33:11.196,-0.04,-0.235
2021-08-19 05:33:11.200,-0.095,-0.225
2021-08-19 05:33:11.204,-0.07,-0.24
2021-08-19 05:33:11.208,-0.065,-0.25
2021-08-19 05:33:11.212,-0.06,-0.25
2021-08-19 05:33:11.216,-0.05,-0.23
2021-08-19 05:33:11.220,-0.08,-0.24
2021-08-19 05:33:11.224,-0.065,-0.235
2021-08-19 05:33:11.228,-0.07,-0.27
2021-08-19 05:33:11.232,-0.055,-0.255
2021-08-19 05:33:11.236,-0.05,-0.29
2021-08-19 05:33:11.240,-0.065,-0.32
2021-08-19 05:33:11.244,-0.035,-0.365
2021-08-19 05:33:11.248,-0.055,-0.385
2021-08-19 05:33:11.252,-0.055,-0.425
2021-08-19 05:33:11.256,-0.07,-0.435
2021-08-19 05:33:11.260,-0.09,-0.465
2021-08-19 05:33:11.264,-0.105,-0.525
2021-08-19 05:33:11.268,-0.115,-0.525
2021-08-19 05:33:11.272,-0.08,-0.54
2021-08-19 05:33:11.276,-0.07,-0.565
2021-08-19 05:33:11.280,-0.115,-0.57
2021-08-19 05:33:11.284,-0.125,-0.56
2021-08-19 05:33:11.288,-0.115,-0.58
2021-08-19 05:33:11.292,-0.125,-0.625
2021-08-19 05:33:11.296,-0.18,-0.615
2021-08-19 05:33:11.300,-0.18,-0.615
2021-08-19 05:33:11.304,-0.18,-0.605
2021-08-19 05:33:11.308,-0.19,-0.625
2021-08-19 05:33:11.312,-0.225,-0.63
2021-08-19 05:33:11.316,-0.18,-0.635
2021-08-19 05:33:11.320,-0.22,-0.655
2021-08-19 05:33:11.324,-0.235,-0.68
2021-08-19 05:33:11.328,-0.23,-0.655
2021-08-19 05:33:11.332,-0.235,-0.68
2021-08-19 05:33:11.336,-0.22,-0.67
2021-08-19 05:33:11.340,-0.245,-0.675
2021-08-19 05:33:11.344,-0.27,-0.705
2021-08-19 05:33:11.348,-0.295,-0.68
2021-08-19 05:33:11.352,-0.26,-0.675
2021-08-19 05:33:11.356,-0.29,-0.705
2021-08-19 05:33:11.360,-0.28,-0.7
2021-08-19 05:33:11.364,-0.31,-0.705
2021-08-19 05:33:11.368,-0.29,-0.7
2021-08-19 05:33:11.372,-0.305,-0.7
2021-08-19 05:33:11.376,-0.305,-0.715
2021-08-19 05:33:11.380,-0.29,-0.735
2021-08-19 05:33:11.384,-0.295,-0.71
2021-08-19 05:33:11.388,-0.275,-0.71
2021-08-19 05:33:11.392,-0.28,-0.705
2021-08-19 05:33:11.396,-0.28,-0.72
2021-08-19 05:33:11.400,-0.275,-0.715
2021-08-19 05:33:11.404,-0.305,-0.735
2021-08-19 05:33:11.408,-0.315,-0.72
2021-08-19 05:33:11.412,-0.31,-0.71
2021-08-19 05:33:11.416,-0.27,-0.715
2021-08-19 05:33:11.420,-0.305,-0.7
2021-08-19 05:33:11.424,-0.31,-0.695
2021-08-19 05:33:11.428,-0.33,-0.71
2021-08-19 05:33:11.432,-0.31,-0.695
2021-08-19 05:33:11.436,-0.28,-0.685
2021-08-19 05:33:11.440,-0.3,-0.68
2021-08-19 05:33:11.444,-0.32,-0.7
2021-08-19 05:33:11.448,-0.315,-0.705
2021-08-19 05:33:11.452,-0.27,-0.72
2021-08-19 05:33:11.456,-0.29,-0.7
2021-08-19 05:33:11.460,-0.28,-0.715
2021-08-19 05:33:11.464,-0.275,-0.73
2021-08-19 05:33:11.468,-0.275,-0.7
2021-08-19 05:33:11.472,-0.245,-0.675
2021-08-19 05:33:11.476,-0.225,-0.685
2021-08-19 05:33:11.480,-0.215,-0.66
2021-08-19 05:33:11.484,-0.225,-0.64
2021-08-19 05:33:11.488,-0.235,-0.645
2021-08-19 05:33:11.492,-0.26,-0.635
2021-08-19 05:33:11.496,-0.225,-0.62
2021-08-19 05:33:11.500,-0.23,-0.6
2021-08-19 05:33:11.504,-0.29,-0.635
2021-08-19 05:33:11.508,-0.27,-0.595
2021-08-19 05:33:11.512,-0.285,-0.605
2021-08-19 05:33:11.516,-0.245,-0.62
2021-08-19 05:33:11.520,-0.215,-0.66
2021-08-19 05:33:11.524,-0.215,-0.62
2021-08-19 05:33:11.528,-0.21,-0.625
2021-08-19 05:33:11.532,-0.195,-0.63
2021-08-19 05:33:11.536,-0.195,-0.655
2021-08-19 05:33:11.540,-0.23,-0.65
2021-08-19 05:33:11.544,-0.26,-0.655
2021-08-19 05:33:11.548,-0.435,-0.72
2021-08-19 05:33:11.552,-0.595,-0.705
2021-08-19 05:33:11.556,-0.62,-0.735
2021-08-19 05:33:11.560,-0.565,-0.775
2021-08-19 05:33:11.564,-0.415,-0.815
2021-08-19 05:33:11.568,-0.11,-0.915
2021-08-19 05:33:11.572,0.29,-1.05
2021-08-19 05:33:11.576,0.405,-1.14
2021-08-19 05:33:11.580,0.485,-1.07
2021-08-19 05:33:11.584,0.915,-1.025
2021-08-19 05:33:11.588,1.25,-0.985
2021-08-19 05:33:11.592,1.005,-0.71
2021-08-19 05:33:11.596,0.345,-0.225
2021-08-19 05:33:11.600,-0.465,-0.01
2021-08-19 05:33:11.604,-1.085,-0.57
2021-08-19 05:33:11.608,-1.46,-1.53
2021-08-19 05:33:11.644,-1.68,-1.81
2021-08-19 05:33:11.648,-1.315,-1.59
2021-08-19 05:33:11.652,-1.035,-1.385
2021-08-19 05:33:11.656,-0.815,-1.105
2021-08-19 05:33:11.660,-0.675,-0.91
2021-08-19 05:33:11.664,-0.615,-0.825
2021-08-19 05:33:11.668,-0.565,-0.785
2021-08-19 05:33:11.672,-0.575,-0.77
2021-08-19 05:33:11.676,-0.59,-0.73
2021-08-19 05:33:11.680,-0.53,-0.715
2021-08-19 05:33:11.684,-0.52,-0.71
2021-08-19 05:33:11.688,-0.49,-0.73
2021-08-19 05:33:11.692,-0.515,-0.725
2021-08-19 05:33:11.696,-0.505,-0.735
2021-08-19 05:33:11.700,-0.48,-0.71
2021-08-19 05:33:11.704,-0.51,-0.73
2021-08-19 05:33:11.708,-0.5,-0.71
2021-08-19 05:33:11.712,-0.53,-0.71
2021-08-19 05:33:11.716,-0.525,-0.71
2021-08-19 05:33:11.720,-0.485,-0.725
2021-08-19 05:33:11.724,-0.47,-0.72
2021-08-19 05:33:11.728,-0.435,-0.72
2021-08-19 05:33:11.732,-0.445,-0.725
2021-08-19 05:33:11.736,-0.42,-0.7
2021-08-19 05:33:11.740,-0.4,-0.69
2021-08-19 05:33:11.744,-0.355,-0.66
2021-08-19 05:33:11.748,-0.335,-0.655
2021-08-19 05:33:11.752,-0.315,-0.62
2021-08-19 05:33:11.756,-0.28,-0.6
2021-08-19 05:33:11.760,-0.225,-0.565
2021-08-19 05:33:11.764,-0.175,-0.555
2021-08-19 05:33:11.768,-0.16,-0.555
2021-08-19 05:33:11.772,-0.15,-0.545
2021-08-19 05:33:11.776,-0.09,-0.495
2021-08-19 05:33:11.780,-0.07,-0.475
2021-08-19 05:33:11.784,0.015,-0.41
2021-08-19 05:33:11.788,0.075,-0.42
2021-08-19 05:33:11.792,0.09,-0.38
2021-08-19 05:33:11.796,0.17,-0.345
2021-08-19 05:33:11.800,0.21,-0.315
2021-08-19 05:33:11.804,0.29,-0.29
2021-08-19 05:33:11.808,0.335,-0.23
2021-08-19 05:33:11.812,0.375,-0.235
2021-08-19 05:33:11.816,0.425,-0.28
2021-08-19 05:33:11.820,0.455,-0.29
2021-08-19 05:33:11.824,0.525,-0.275
2021-08-19 05:33:11.828,0.515,-0.245
2021-08-19 05:33:11.832,0.535,-0.245
2021-08-19 05:33:11.836,0.52,-0.25
2021-08-19 05:33:11.840,0.57,-0.265
2021-08-19 05:33:11.844,0.585,-0.245
2021-08-19 05:33:11.848,0.635,-0.205
2021-08-19 05:33:11.852,0.63,-0.2
2021-08-19 05:33:11.856,0.62,-0.215
2021-08-19 05:33:11.860,0.615,-0.17
2021-08-19 05:33:11.864,0.63,-0.165
2021-08-19 05:33:11.868,0.635,-0.145
2021-08-19 05:33:11.872,0.6,-0.17
2021-08-19 05:33:11.876,0.545,-0.13
2021-08-19 05:33:11.880,0.53,-0.15
2021-08-19 05:33:11.884,0.48,-0.14
2021-08-19 05:33:11.888,0.435,-0.15
2021-08-19 05:33:11.892,0.36,-0.135
2021-08-19 05:33:11.896,0.29,-0.135
2021-08-19 05:33:11.900,0.23,-0.145
2021-08-19 05:33:11.904,0.18,-0.165
2021-08-19 05:33:11.908,0.135,-0.18
2021-08-19 05:33:11.912,0.075,-0.155
2021-08-19 05:33:11.916,0.01,-0.185
2021-08-19 05:33:11.920,-0.03,-0.195
2021-08-19 05:33:11.924,-0.03,-0.21
2021-08-19 05:33:11.928,-0.065,-0.18
2021-08-19 05:33:11.932,-0.075,-0.185
2021-08-19 05:33:11.936,-0.11,-0.25
2021-08-19 05:33:11.940,-0.13,-0.25
2021-08-19 05:33:11.944,-0.155,-0.265
2021-08-19 05:33:11.948,-0.16,-0.29
2021-08-19 05:33:11.952,-0.18,-0.265
2021-08-19 05:33:11.956,-0.2,-0.31
2021-08-19 05:33:11.960,-0.205,-0.34
2021-08-19 05:33:11.964,-0.21,-0.315
2021-08-19 05:33:11.968,-0.195,-0.34
2021-08-19 05:33:11.972,-0.2,-0.37
2021-08-19 05:33:11.976,-0.225,-0.34
2021-08-19 05:33:11.980,-0.225,-0.41
2021-08-19 05:33:11.984,-0.22,-0.41
2021-08-19 05:33:11.988,-0.225,-0.45
2021-08-19 05:33:11.992,-0.215,-0.39
2021-08-19 05:33:11.996,-0.245,-0.415
2021-08-19 05:33:12.000,-0.265,-0.43
2021-08-19 05:33:12.004,-0.24,-0.44
2021-08-19 05:33:12.008,-0.235,-0.435
2021-08-19 05:33:12.012,-0.21,-0.44
2021-08-19 05:33:12.016,-0.23,-0.42
2021-08-19 05:33:12.020,-0.25,-0.465
2021-08-19 05:33:12.024,-0.225,-0.465
2021-08-19 05:33:12.028,-0.2,-0.48
2021-08-19 05:33:12.032,-0.21,-0.49
2021-08-19 05:33:12.036,-0.22,-0.515
2021-08-19 05:33:12.040,-0.225,-0.52
2021-08-19 05:33:12.044,-0.205,-0.515
2021-08-19 05:33:12.048,-0.175,-0.52
2021-08-19 05:33:12.052,-0.165,-0.475
2021-08-19 05:33:12.056,-0.22,-0.51
2021-08-19 05:33:12.060,-0.21,-0.485
2021-08-19 05:33:12.064,-0.24,-0.475
2021-08-19 05:33:12.068,-0.245,-0.49
2021-08-19 05:33:12.072,-0.245,-0.485
2021-08-19 05:33:12.076,-0.265,-0.5
2021-08-19 05:33:12.080,-0.28,-0.495
2021-08-19 05:33:12.084,-0.25,-0.515
2021-08-19 05:33:12.088,-0.2,-0.535
2021-08-19 05:33:12.092,-0.16,-0.49
2021-08-19 05:33:12.096,-0.17,-0.51
2021-08-19 05:33:12.100,-0.175,-0.545
2021-08-19 05:33:12.104,-0.16,-0.575
2021-08-19 05:33:12.108,-0.14,-0.565
2021-08-19 05:33:12.112,-0.16,-0.585
2021-08-19 05:33:12.116,-0.195,-0.58
2021-08-19 05:33:12.120,-0.21,-0.61
2021-08-19 05:33:12.124,-0.2,-0.625
2021-08-19 05:33:12.128,-0.2,-0.645
2021-08-19 05:33:12.132,-0.2,-0.64
2021-08-19 05:33:12.136,-0.215,-0.625
2021-08-19 05:33:12.140,-0.21,-0.665
2021-08-19 05:33:12.144,-0.21,-0.66
2021-08-19 05:33:12.148,-0.205,-0.69
2021-08-19 05:33:12.152,-0.21,-0.675
2021-08-19 05:33:12.156,-0.255,-0.68
2021-08-19 05:33:12.160,-0.235,-0.665
2021-08-19 05:33:12.164,-0.275,-0.68
2021-08-19 05:33:12.168,-0.25,-0.705
2021-08-19 05:33:12.172,-0.24,-0.675
2021-08-19 05:33:12.176,-0.26,-0.695
2021-08-19 05:33:12.180,-0.295,-0.695
2021-08-19 05:33:12.184,-0.29,-0.695
2021-08-19 05:33:12.188,-0.27,-0.715
2021-08-19 05:33:12.192,-0.26,-0.68
2021-08-19 05:33:12.196,-0.25,-0.675
2021-08-19 05:33:12.200,-0.29,-0.685
2021-08-19 05:33:12.204,-0.305,-0.68
2021-08-19 05:33:12.208,-0.285,-0.665
2021-08-19 05:33:12.212,-0.245,-0.66
2021-08-19 05:33:12.216,-0.285,-0.66
2021-08-19 05:33:12.220,-0.3,-0.685
2021-08-19 05:33:12.224,-0.305,-0.69
2021-08-19 05:33:12.228,-0.3,-0.665
2021-08-19 05:33:12.232,-0.315,-0.64
2021-08-19 05:33:12.236,-0.34,-0.67
2021-08-19 05:33:12.240,-0.475,-0.655
2021-08-19 05:33:12.244,-0.62,-0.665
2021-08-19 05:33:12.248,-0.69,-0.7
2021-08-19 05:33:12.252,-0.6,-0.685
2021-08-19 05:33:12.256,-0.425,-0.75
2021-08-19 05:33:12.260,-0.09,-0.84
2021-08-19 05:33:12.264,0.24,-1.005
2021-08-19 05:33:12.268,0.25,-1.095
2021-08-19 05:33:12.272,0.315,-0.965
2021-08-19 05:33:12.276,0.76,-0.95
2021-08-19 05:33:12.280,0.925,-0.895
2021-08-19 05:33:12.284,0.565,-0.555
2021-08-19 05:33:12.288,-0.08,-0.155
2021-08-19 05:33:12.292,-0.8,-0.02
2021-08-19 05:33:12.296,-1.21,-0.7
2021-08-19 05:33:12.300,-1.51,-1.635
2021-08-19 05:33:12.332,-1.865,-1.565
2021-08-19 05:33:12.336,-1.425,-1.44
2021-08-19 05:33:12.340,-1.065,-1.335
2021-08-19 05:33:12.344,-0.84,-1.13
2021-08-19 05:33:12.348,-0.695,-0.88
2021-08-19 05:33:12.352,-0.56,-0.7
2021-08-19 05:33:12.356,-0.495,-0.615
2021-08-19 05:33:12.360,-0.46,-0.58
2021-08-19 05:33:12.364,-0.45,-0.565
2021-08-19 05:33:12.368,-0.38,-0.525
2021-08-19 05:33:12.372,-0.375,-0.54
2021-08-19 05:33:12.376,-0.345,-0.575
2021-08-19 05:33:12.380,-0.355,-0.62
2021-08-19 05:33:12.384,-0.34,-0.635
2021-08-19 05:33:12.388,-0.33,-0.635
2021-08-19 05:33:12.392,-0.345,-0.67
2021-08-19 05:33:12.396,-0.35,-0.675
2021-08-19 05:33:12.400,-0.35,-0.665
2021-08-19 05:33:12.404,-0.355,-0.7
2021-08-19 05:33:12.408,-0.35,-0.71
2021-08-19 05:33:12.412,-0.335,-0.69
2021-08-19 05:33:12.416,-0.32,-0.7
2021-08-19 05:33:12.420,-0.29,-0.695
2021-08-19 05:33:12.424,-0.31,-0.68
2021-08-19 05:33:12.428,-0.32,-0.67
2021-08-19 05:33:12.432,-0.29,-0.685
2021-08-19 05:33:12.436,-0.27,-0.69
2021-08-19 05:33:12.440,-0.23,-0.64
2021-08-19 05:33:12.444,-0.245,-0.66
2021-08-19 05:33:12.448,-0.235,-0.665
2021-08-19 05:33:12.452,-0.185,-0.635
2021-08-19 05:33:12.456,-0.145,-0.615
2021-08-19 05:33:12.460,-0.12,-0.625
2021-08-19 05:33:12.464,-0.105,-0.59
2021-08-19 05:33:12.468,-0.07,-0.545
2021-08-19 05:33:12.472,-0.015,-0.525
2021-08-19 05:33:12.476,0.015,-0.53
2021-08-19 05:33:12.480,0.075,-0.48
2021-08-19 05:33:12.484,0.15,-0.445
2021-08-19 05:33:12.488,0.155,-0.42
2021-08-19 05:33:12.492,0.195,-0.435
2021-08-19 05:33:12.496,0.27,-0.365
2021-08-19 05:33:12.500,0.335,-0.345
2021-08-19 05:33:12.504,0.37,-0.355
2021-08-19 05:33:12.508,0.39,-0.29
2021-08-19 05:33:12.512,0.435,-0.3
2021-08-19 05:33:12.516,0.43,-0.255
2021-08-19 05:33:12.520,0.475,-0.235
2021-08-19 05:33:12.524,0.495,-0.235
2021-08-19 05:33:12.528,0.51,-0.225
2021-08-19 05:33:12.532,0.525,-0.235
2021-08-19 05:33:12.536,0.555,-0.23
2021-08-19 05:33:12.540,0.57,-0.18
2021-08-19 05:33:12.544,0.565,-0.205
2021-08-19 05:33:12.548,0.58,-0.15
2021-08-19 05:33:12.552,0.58,-0.15
2021-08-19 05:33:12.556,0.575,-0.125
2021-08-19 05:33:12.560,0.585,-0.13
2021-08-19 05:33:12.564,0.56,-0.095
2021-08-19 05:33:12.568,0.51,-0.105
2021-08-19 05:33:12.572,0.45,-0.1
2021-08-19 05:33:12.576,0.425,-0.09
2021-08-19 05:33:12.580,0.36,-0.125
2021-08-19 05:33:12.584,0.325,-0.11
2021-08-19 05:33:12.588,0.27,-0.14
2021-08-19 05:33:12.592,0.2,-0.135
2021-08-19 05:33:12.596,0.165,-0.095
2021-08-19 05:33:12.600,0.105,-0.115
2021-08-19 05:33:12.604,0.05,-0.125
2021-08-19 05:33:12.608,0.03,-0.12
2021-08-19 05:33:12.612,0.005,-0.12
2021-08-19 05:33:12.616,0.01,-0.17
2021-08-19 05:33:12.620,0.02,-0.15
2021-08-19 05:33:12.624,0.015,-0.13
2021-08-19 05:33:12.628,-0.015,-0.16
2021-08-19 05:33:12.632,-0.005,-0.22
2021-08-19 05:33:12.636,-0.04,-0.275
2021-08-19 05:33:12.640,-0.045,-0.265
2021-08-19 05:33:12.644,-0.05,-0.28
2021-08-19 05:33:12.648,-0.09,-0.3
2021-08-19 05:33:12.652,-0.105,-0.305
2021-08-19 05:33:12.656,-0.135,-0.35
2021-08-19 05:33:12.660,-0.125,-0.36
2021-08-19 05:33:12.664,-0.11,-0.395
2021-08-19 05:33:12.668,-0.13,-0.405
2021-08-19 05:33:12.672,-0.16,-0.435
2021-08-19 05:33:12.676,-0.145,-0.465
2021-08-19 05:33:12.680,-0.135,-0.47
2021-08-19 05:33:12.684,-0.145,-0.495
2021-08-19 05:33:12.688,-0.15,-0.485
2021-08-19 05:33:12.692,-0.165,-0.5
2021-08-19 05:33:12.696,-0.19,-0.495
2021-08-19 05:33:12.700,-0.175,-0.505
2021-08-19 05:33:12.704,-0.19,-0.53
2021-08-19 05:33:12.708,-0.21,-0.56
2021-08-19 05:33:12.712,-0.2,-0.59
2021-08-19 05:33:12.716,-0.21,-0.58
2021-08-19 05:33:12.720,-0.215,-0.625
2021-08-19 05:33:12.724,-0.19,-0.61
2021-08-19 05:33:12.728,-0.205,-0.61
2021-08-19 05:33:12.732,-0.225,-0.59
2021-08-19 05:33:12.736,-0.245,-0.64
2021-08-19 05:33:12.740,-0.22,-0.655
2021-08-19 05:33:12.744,-0.255,-0.645
2021-08-19 05:33:12.748,-0.255,-0.63
2021-08-19 05:33:12.752,-0.275,-0.645
2021-08-19 05:33:12.756,-0.275,-0.645
2021-08-19 05:33:12.760,-0.285,-0.655
2021-08-19 05:33:12.764,-0.27,-0.66
2021-08-19 05:33:12.768,-0.235,-0.64
2021-08-19 05:33:12.772,-0.28,-0.66
2021-08-19 05:33:12.776,-0.265,-0.68
2021-08-19 05:33:12.780,-0.285,-0.685
2021-08-19 05:33:12.784,-0.25,-0.695
2021-08-19 05:33:12.788,-0.255,-0.685
2021-08-19 05:33:12.792,-0.29,-0.675
2021-08-19 05:33:12.796,-0.285,-0.66
2021-08-19 05:33:12.800,-0.265,-0.64
2021-08-19 05:33:12.804,-0.27,-0.64
2021-08-19 05:33:12.808,-0.255,-0.675
2021-08-19 05:33:12.812,-0.255,-0.635
2021-08-19 05:33:12.816,-0.25,-0.62
2021-08-19 05:33:12.820,-0.25,-0.605
2021-08-19 05:33:12.824,-0.23,-0.545
2021-08-19 05:33:12.828,-0.235,-0.615
2021-08-19 05:33:12.832,-0.275,-0.585
2021-08-19 05:33:12.836,-0.26,-0.59
2021-08-19 05:33:12.840,-0.245,-0.585
2021-08-19 05:33:12.844,-0.245,-0.565
2021-08-19 05:33:12.848,-0.255,-0.6
2021-08-19 05:33:12.852,-0.26,-0.6
2021-08-19 05:33:12.856,-0.265,-0.56
2021-08-19 05:33:12.860,-0.255,-0.57
2021-08-19 05:33:12.864,-0.21,-0.595
2021-08-19 05:33:12.868,-0.205,-0.545
2021-08-19 05:33:12.872,-0.205,-0.565
2021-08-19 05:33:12.876,-0.215,-0.52
2021-08-19 05:33:12.880,-0.24,-0.525
2021-08-19 05:33:12.884,-0.275,-0.525
2021-08-19 05:33:12.888,-0.31,-0.555
2021-08-19 05:33:12.892,-0.295,-0.565
2021-08-19 05:33:12.896,-0.32,-0.56
2021-08-19 05:33:12.900,-0.305,-0.57
2021-08-19 05:33:12.904,-0.275,-0.59
2021-08-19 05:33:12.908,-0.225,-0.585
2021-08-19 05:33:12.912,-0.2,-0.575
2021-08-19 05:33:12.916,-0.22,-0.59
2021-08-19 05:33:12.920,-0.205,-0.6
2021-08-19 05:33:12.924,-0.17,-0.62
2021-08-19 05:33:12.928,-0.18,-0.645
2021-08-19 05:33:12.932,-0.205,-0.69
2021-08-19 05:33:12.936,-0.235,-0.68
2021-08-19 05:33:12.940,-0.24,-0.675
2021-08-19 05:33:12.944,-0.215,-0.715
2021-08-19 05:33:12.948,-0.23,-0.735
2021-08-19 05:33:12.952,-0.225,-0.71
2021-08-19 05:33:12.956,-0.24,-0.735
2021-08-19 05:33:12.960,-0.235,-0.75
2021-08-19 05:33:12.964,-0.225,-0.73
2021-08-19 05:33:12.968,-0.205,-0.72
2021-08-19 05:33:12.972,-0.22,-0.73
2021-08-19 05:33:12.976,-0.24,-0.74
2021-08-19 05:33:12.980,-0.25,-0.765
2021-08-19 05:33:12.984,-0.23,-0.74
2021-08-19 05:33:12.988,-0.255,-0.74
2021-08-19 05:33:12.992,-0.255,-0.74
2021-08-19 05:33:12.996,-0.26,-0.77
2021-08-19 05:33:13.000,-0.28,-0.78
2021-08-19 05:33:13.004,-0.275,-0.755
2021-08-19 05:33:13.008,-0.26,-0.755
2021-08-19 05:33:13.012,-0.24,-0.73
2021-08-19 05:33:13.016,-0.245,-0.75
2021-08-19 05:33:13.020,-0.265,-0.785
2021-08-19 05:33:13.024,-0.26,-0.765
2021-08-19 05:33:13.028,-0.235,-0.77
2021-08-19 05:33:13.032,-0.26,-0.75
2021-08-19 05:33:13.036,-0.26,-0.77
2021-08-19 05:33:13.040,-0.295,-0.745
2021-08-19 05:33:13.044,-0.285,-0.76
2021-08-19 05:33:13.048,-0.3,-0.77
2021-08-19 05:33:13.052,-0.325,-0.75
2021-08-19 05:33:13.056,-0.415,-0.775
2021-08-19 05:33:13.060,-0.56,-0.75
2021-08-19 05:33:13.064,-0.69,-0.74
2021-08-19 05:33:13.068,-0.7,-0.74
2021-08-19 05:33:13.072,-0.59,-0.765
2021-08-19 05:33:13.076,-0.405,-0.78
2021-08-19 05:33:13.080,0.0,-0.9
2021-08-19 05:33:13.084,0.35,-1.05
2021-08-19 05:33:13.088,0.46,-1.04
2021-08-19 05:33:13.092,0.695,-0.96
2021-08-19 05:33:13.096,1.27,-0.98
2021-08-19 05:33:13.100,1.66,-0.98
2021-08-19 05:33:13.104,1.465,-0.65
2021-08-19 05:33:13.108,0.745,-0.225
2021-08-19 05:33:13.112,-0.335,0.0
2021-08-19 05:33:13.116,-1.155,-0.62
2021-08-19 05:33:13.120,-1.6,-1.575
2021-08-19 05:33:13.148,-1.99,-1.66
2021-08-19 05:33:13.152,-1.68,-1.515
2021-08-19 05:33:13.156,-1.31,-1.365
2021-08-19 05:33:13.160,-0.965,-1.285
2021-08-19 05:33:13.164,-0.74,-1.09
2021-08-19 05:33:13.168,-0.595,-0.825
2021-08-19 05:33:13.172,-0.465,-0.665
2021-08-19 05:33:13.176,-0.43,-0.585
2021-08-19 05:33:13.180,-0.4,-0.585
2021-08-19 05:33:13.184,-0.385,-0.555
2021-08-19 05:33:13.188,-0.335,-0.52
2021-08-19 05:33:13.192,-0.28,-0.52
2021-08-19 05:33:13.196,-0.295,-0.535
2021-08-19 05:33:13.200,-0.29,-0.585
2021-08-19 05:33:13.204,-0.31,-0.61
2021-08-19 05:33:13.208,-0.31,-0.635
2021-08-19 05:33:13.212,-0.285,-0.635
2021-08-19 05:33:13.216,-0.315,-0.62
2021-08-19 05:33:13.220,-0.29,-0.68
2021-08-19 05:33:13.224,-0.305,-0.695
2021-08-19 05:33:13.228,-0.29,-0.72
2021-08-19 05:33:13.232,-0.28,-0.675
2021-08-19 05:33:13.236,-0.265,-0.73
2021-08-19 05:33:13.240,-0.245,-0.725
2021-08-19 05:33:13.244,-0.275,-0.73
2021-08-19 05:33:13.248,-0.265,-0.7
2021-08-19 05:33:13.252,-0.235,-0.74
2021-08-19 05:33:13.256,-0.24,-0.74
2021-08-19 05:33:13.260,-0.245,-0.73
2021-08-19 05:33:13.264,-0.25,-0.685
2021-08-19 05:33:13.268,-0.225,-0.705
2021-08-19 05:33:13.272,-0.18,-0.71
2021-08-19 05:33:13.276,-0.15,-0.7
2021-08-19 05:33:13.280,-0.125,-0.69
2021-08-19 05:33:13.284,-0.1,-0.675
2021-08-19 05:33:13.288,-0.055,-0.665
2021-08-19 05:33:13.292,0.025,-0.63
2021-08-19 05:33:13.296,0.035,-0.615
2021-08-19 05:33:13.300,0.075,-0.605
2021-08-19 05:33:13.304,0.135,-0.57
2021-08-19 05:33:13.308,0.195,-0.545
2021-08-19 05:33:13.312,0.23,-0.535
2021-08-19 05:33:13.316,0.28,-0.51
2021-08-19 05:33:13.320,0.355,-0.505
2021-08-19 05:33:13.324,0.39,-0.485
2021-08-19 05:33:13.328,0.415,-0.49
2021-08-19 05:33:13.332,0.47,-0.43
2021-08-19 05:33:13.336,0.52,-0.44
2021-08-19 05:33:13.340,0.505,-0.405
2021-08-19 05:33:13.344,0.51,-0.415
2021-08-19 05:33:13.348,0.555,-0.38
2021-08-19 05:33:13.352,0.575,-0.36
2021-08-19 05:33:13.356,0.615,-0.33
2021-08-19 05:33:13.360,0.63,-0.33
2021-08-19 05:33:13.364,0.635,-0.32
2021-08-19 05:33:13.368,0.675,-0.295
2021-08-19 05:33:13.372,0.695,-0.26
2021-08-19 05:33:13.376,0.69,-0.25
2021-08-19 05:33:13.380,0.65,-0.235
2021-08-19 05:33:13.384,0.655,-0.185
2021-08-19 05:33:13.388,0.615,-0.19
2021-08-19 05:33:13.392,0.575,-0.205
2021-08-19 05:33:13.396,0.515,-0.205
2021-08-19 05:33:13.400,0.47,-0.185
2021-08-19 05:33:13.404,0.425,-0.175
2021-08-19 05:33:13.408,0.365,-0.195
2021-08-19 05:33:13.412,0.31,-0.16
2021-08-19 05:33:13.416,0.27,-0.125
2021-08-19 05:33:13.420,0.25,-0.125
2021-08-19 05:33:13.424,0.21,-0.095
2021-08-19 05:33:13.428,0.155,-0.08
2021-08-19 05:33:13.432,0.135,-0.11
2021-08-19 05:33:13.436,0.1,-0.115
2021-08-19 05:33:13.440,0.04,-0.135
2021-08-19 05:33:13.444,0.03,-0.12
2021-08-19 05:33:13.448,0.03,-0.14
2021-08-19 05:33:13.452,0.04,-0.145
2021-08-19 05:33:13.456,0.045,-0.135
2021-08-19 05:33:13.460,0.015,-0.185
2021-08-19 05:33:13.464,0.025,-0.23
2021-08-19 05:33:13.468,0.025,-0.255
2021-08-19 05:33:13.472,0.055,-0.265
2021-08-19 05:33:13.476,0.035,-0.255
2021-08-19 05:33:13.480,0.025,-0.265
2021-08-19 05:33:13.484,0.0,-0.305
2021-08-19 05:33:13.488,-0.03,-0.35
2021-08-19 05:33:13.492,-0.01,-0.345
2021-08-19 05:33:13.496,0.01,-0.39
2021-08-19 05:33:13.500,0.005,-0.395
2021-08-19 05:33:13.504,-0.02,-0.42
2021-08-19 05:33:13.508,-0.015,-0.425
2021-08-19 05:33:13.512,-0.03,-0.445
2021-08-19 05:33:13.516,-0.035,-0.45
2021-08-19 05:33:13.520,-0.055,-0.465
2021-08-19 05:33:13.524,-0.06,-0.48
2021-08-19 05:33:13.528,-0.08,-0.495
2021-08-19 05:33:13.532,-0.08,-0.5
2021-08-19 05:33:13.536,-0.1,-0.525
2021-08-19 05:33:13.540,-0.125,-0.525
2021-08-19 05:33:13.544,-0.125,-0.58
2021-08-19 05:33:13.548,-0.14,-0.525
2021-08-19 05:33:13.552,-0.145,-0.545
2021-08-19 05:33:13.556,-0.135,-0.59
2021-08-19 05:33:13.560,-0.13,-0.61
2021-08-19 05:33:13.564,-0.15,-0.615
2021-08-19 05:33:13.568,-0.17,-0.6
2021-08-19 05:33:13.572,-0.155,-0.635
2021-08-19 05:33:13.576,-0.2,-0.63
2021-08-19 05:33:13.580,-0.205,-0.655
2021-08-19 05:33:13.584,-0.205,-0.65
2021-08-19 05:33:13.588,-0.24,-0.685
2021-08-19 05:33:13.592,-0.21,-0.665
2021-08-19 05:33:13.596,-0.205,-0.705
2021-08-19 05:33:13.600,-0.21,-0.71
2021-08-19 05:33:13.604,-0.25,-0.71
2021-08-19 05:33:13.608,-0.26,-0.695
2021-08-19 05:33:13.612,-0.28,-0.74
2021-08-19 05:33:13.616,-0.265,-0.71
2021-08-19 05:33:13.620,-0.28,-0.735
2021-08-19 05:33:13.624,-0.29,-0.745
2021-08-19 05:33:13.628,-0.305,-0.74
2021-08-19 05:33:13.632,-0.255,-0.695
2021-08-19 05:33:13.636,-0.245,-0.72
2021-08-19 05:33:13.640,-0.265,-0.745
2021-08-19 05:33:13.644,-0.285,-0.765
2021-08-19 05:33:13.648,-0.305,-0.745
2021-08-19 05:33:13.652,-0.3,-0.72
2021-08-19 05:33:13.656,-0.29,-0.75
2021-08-19 05:33:13.660,-0.275,-0.745
2021-08-19 05:33:13.664,-0.305,-0.73
2021-08-19 05:33:13.668,-0.3,-0.745
2021-08-19 05:33:13.672,-0.28,-0.74
2021-08-19 05:33:13.676,-0.255,-0.725
2021-08-19 05:33:13.680,-0.23,-0.72
2021-08-19 05:33:13.684,-0.245,-0.69
2021-08-19 05:33:13.688,-0.225,-0.65
2021-08-19 05:33:13.692,-0.2,-0.645
2021-08-19 05:33:13.696,-0.17,-0.665
2021-08-19 05:33:13.700,-0.18,-0.635
2021-08-19 05:33:13.704,-0.225,-0.63
2021-08-19 05:33:13.708,-0.22,-0.615
2021-08-19 05:33:13.712,-0.2,-0.595
2021-08-19 05:33:13.716,-0.225,-0.615
2021-08-19 05:33:13.720,-0.23,-0.595
2021-08-19 05:33:13.724,-0.245,-0.585
2021-08-19 05:33:13.728,-0.24,-0.6
2021-08-19 05:33:13.732,-0.205,-0.625
2021-08-19 05:33:13.736,-0.16,-0.57
2021-08-19 05:33:13.740,-0.14,-0.59
2021-08-19 05:33:13.744,-0.13,-0.61
2021-08-19 05:33:13.748,-0.17,-0.635
2021-08-19 05:33:13.752,-0.145,-0.655
2021-08-19 05:33:13.756,-0.16,-0.66
2021-08-19 05:33:13.760,-0.18,-0.65
2021-08-19 05:33:13.764,-0.21,-0.71
2021-08-19 05:33:13.768,-0.23,-0.69
