Time,ECG1,ECG2
2021-08-19 18:58:17.396,0.185,0.15
2021-08-19 18:58:17.400,0.145,0.13
2021-08-19 18:58:17.404,0.15,0.16
2021-08-19 18:58:17.408,0.155,0.085
2021-08-19 18:58:17.412,0.155,0.065
2021-08-19 18:58:17.416,0.155,0.045
2021-08-19 18:58:17.420,0.08,0.045
2021-08-19 18:58:17.424,0.03,0.005
2021-08-19 18:58:17.428,-0.015,0.02
2021-08-19 18:58:17.432,-0.03,0.005
2021-08-19 18:58:17.436,-0.045,0.035
2021-08-19 18:58:17.440,-0.025,0.03
2021-08-19 18:58:17.444,-0.02,0.03
2021-08-19 18:58:17.448,-0.025,0.05
2021-08-19 18:58:17.452,-0.05,0.04
2021-08-19 18:58:17.456,-0.08,0.05
2021-08-19 18:58:17.460,-0.115,0.06
2021-08-19 18:58:17.464,-0.14,0.1
2021-08-19 18:58:17.468,-0.15,0.09
2021-08-19 18:58:17.472,-0.135,0.085
2021-08-19 18:58:17.476,-0.14,0.07
2021-08-19 18:58:17.480,-0.13,0.08
2021-08-19 18:58:17.484,-0.16,0.09
2021-08-19 18:58:17.488,-0.145,0.09
2021-08-19 18:58:17.492,-0.14,0.1
2021-08-19 18:58:17.496,-0.13,0.11
2021-08-19 18:58:17.500,-0.125,0.12
2021-08-19 18:58:17.504,-0.13,0.12
2021-08-19 18:58:17.508,-0.145,0.105
2021-08-19 18:58:17.512,-0.12,0.095
2021-08-19 18:58:17.516,-0.12,0.1
2021-08-19 18:58:17.520,-0.11,0.12
2021-08-19 18:58:17.524,-0.11,0.09
2021-08-19 18:58:17.528,-0.105,0.085
2021-08-19 18:58:17.532,-0.09,0.105
2021-08-19 18:58:17.536,-0.09,0.115
2021-08-19 18:58:17.540,-0.115,0.105
2021-08-19 18:58:17.544,-0.11,0.13
2021-08-19 18:58:17.548,-0.095,0.11
2021-08-19 18:58:17.552,-0.12,0.13
2021-08-19 18:58:17.556,-0.12,0.11
2021-08-19 18:58:17.560,-0.1,0.105
2021-08-19 18:58:17.564,-0.09,0.13
2021-08-19 18:58:17.568,-0.105,0.12
2021-08-19 18:58:17.572,-0.105,0.135
2021-08-19 18:58:17.576,-0.1,0.14
2021-08-19 18:58:17.580,-0.09,0.115
2021-08-19 18:58:17.584,-0.11,0.115
2021-08-19 18:58:17.588,-0.095,0.12
2021-08-19 18:58:17.592,-0.115,0.135
2021-08-19 18:58:17.596,-0.09,0.13
2021-08-19 18:58:17.600,-0.09,0.12
2021-08-19 18:58:17.604,-0.105,0.115
2021-08-19 18:58:17.608,-0.12,0.115
2021-08-19 18:58:17.612,-0.1,0.115
2021-08-19 18:58:17.616,-0.125,0.11
2021-08-19 18:58:17.620,-0.12,0.12
2021-08-19 18:58:17.624,-0.11,0.115
2021-08-19 18:58:17.628,-0.14,0.115
2021-08-19 18:58:17.632,-0.12,0.095
2021-08-19 18:58:17.636,-0.12,0.13
2021-08-19 18:58:17.640,-0.125,0.12
2021-08-19 18:58:17.644,-0.145,0.11
2021-08-19 18:58:17.648,-0.17,0.09
2021-08-19 18:58:17.652,-0.235,0.095
2021-08-19 18:58:17.656,-0.24,0.09
2021-08-19 18:58:17.660,-0.235,0.07
2021-08-19 18:58:17.664,-0.125,0.035
2021-08-19 18:58:17.668,0.11,-0.02
2021-08-19 18:58:17.672,0.495,-0.13
2021-08-19 18:58:17.676,0.87,-0.245
2021-08-19 18:58:17.680,1.235,-0.305
2021-08-19 18:58:17.684,1.385,-0.22
2021-08-19 18:58:17.688,1.14,-0.04
2021-08-19 18:58:17.692,0.44,0.255
2021-08-19 18:58:17.696,-0.35,0.51
2021-08-19 18:58:17.700,-0.93,0.65
2021-08-19 18:58:17.704,-1.11,0.59
2021-08-19 18:58:17.708,-0.965,0.275
2021-08-19 18:58:17.712,-0.715,0.035
2021-08-19 18:58:17.716,-0.455,-0.045
2021-08-19 18:58:17.720,-0.29,-0.065
2021-08-19 18:58:17.724,-0.2,-0.08
2021-08-19 18:58:17.728,-0.17,-0.02
2021-08-19 18:58:17.732,-0.145,0.07
2021-08-19 18:58:17.736,-0.16,0.105
2021-08-19 18:58:17.740,-0.175,0.115
2021-08-19 18:58:17.744,-0.165,0.1
2021-08-19 18:58:17.748,-0.16,0.105
2021-08-19 18:58:17.752,-0.145,0.12
2021-08-19 18:58:17.756,-0.15,0.1
2021-08-19 18:58:17.760,-0.135,0.1
2021-08-19 18:58:17.764,-0.145,0.09
2021-08-19 18:58:17.768,-0.13,0.1
2021-08-19 18:58:17.772,-0.13,0.1
2021-08-19 18:58:17.776,-0.145,0.11
2021-08-19 18:58:17.780,-0.135,0.1
2021-08-19 18:58:17.784,-0.115,0.09
2021-08-19 18:58:17.788,-0.125,0.09
2021-08-19 18:58:17.792,-0.12,0.1
2021-08-19 18:58:17.796,-0.08,0.11
2021-08-19 18:58:17.800,-0.075,0.105
2021-08-19 18:58:17.804,-0.05,0.13
2021-08-19 18:58:17.808,-0.045,0.15
2021-08-19 18:58:17.812,-0.03,0.21
2021-08-19 18:58:17.816,-0.025,0.165
2021-08-19 18:58:17.820,0.01,0.205
2021-08-19 18:58:17.824,0.045,0.18
2021-08-19 18:58:17.828,0.085,0.145
2021-08-19 18:58:17.832,0.095,0.15
2021-08-19 18:58:17.836,0.13,0.14
2021-08-19 18:58:17.840,0.15,0.105
2021-08-19 18:58:17.844,0.18,0.075
2021-08-19 18:58:17.848,0.19,0.06
2021-08-19 18:58:17.852,0.19,0.05
2021-08-19 18:58:17.856,0.21,0.02
2021-08-19 18:58:17.860,0.23,0.03
2021-08-19 18:58:17.864,0.25,0.035
2021-08-19 18:58:17.868,0.27,0.03
2021-08-19 18:58:17.872,0.275,0.03
2021-08-19 18:58:17.876,0.27,0.03
2021-08-19 18:58:17.880,0.31,0.07
2021-08-19 18:58:17.884,0.31,0.08
2021-08-19 18:58:17.888,0.33,0.06
2021-08-19 18:58:17.892,0.34,0.06
2021-08-19 18:58:17.896,0.35,0.035
2021-08-19 18:58:17.900,0.37,0.05
2021-08-19 18:58:17.904,0.36,0.03
2021-08-19 18:58:17.908,0.365,0.02
2021-08-19 18:58:17.912,0.36,0.0
2021-08-19 18:58:17.916,0.35,0.03
2021-08-19 18:58:17.920,0.325,0.015
2021-08-19 18:58:17.924,0.32,0.015
2021-08-19 18:58:17.928,0.29,0.01
2021-08-19 18:58:17.932,0.25,0.02
2021-08-19 18:58:17.936,0.225,0.035
2021-08-19 18:58:17.940,0.2,0.045
2021-08-19 18:58:17.944,0.155,0.035
2021-08-19 18:58:17.948,0.105,0.005
2021-08-19 18:58:17.952,0.08,0.03
2021-08-19 18:58:17.956,0.04,0.025
2021-08-19 18:58:17.960,0.02,0.03
2021-08-19 18:58:17.964,-0.02,0.03
2021-08-19 18:58:17.968,-0.06,0.04
2021-08-19 18:58:17.972,-0.065,0.02
2021-08-19 18:58:17.976,-0.115,0.035
2021-08-19 18:58:17.980,-0.135,0.05
2021-08-19 18:58:17.984,-0.15,0.05
2021-08-19 18:58:17.988,-0.14,0.035
2021-08-19 18:58:17.992,-0.16,0.05
2021-08-19 18:58:17.996,-0.19,0.03
2021-08-19 18:58:18.000,-0.19,0.055
2021-08-19 18:58:18.004,-0.2,0.065
2021-08-19 18:58:18.008,-0.2,0.04
2021-08-19 18:58:18.012,-0.21,0.035
2021-08-19 18:58:18.016,-0.22,0.05
2021-08-19 18:58:18.020,-0.205,0.05
2021-08-19 18:58:18.024,-0.23,0.035
2021-08-19 18:58:18.028,-0.23,0.07
2021-08-19 18:58:18.032,-0.225,0.05
2021-08-19 18:58:18.036,-0.24,0.055
2021-08-19 18:58:18.040,-0.255,0.075
2021-08-19 18:58:18.044,-0.25,0.05
2021-08-19 18:58:18.048,-0.25,0.08
2021-08-19 18:58:18.052,-0.24,0.06
2021-08-19 18:58:18.056,-0.22,0.06
2021-08-19 18:58:18.060,-0.22,0.08
2021-08-19 18:58:18.064,-0.245,0.065
2021-08-19 18:58:18.068,-0.23,0.085
2021-08-19 18:58:18.072,-0.22,0.085
2021-08-19 18:58:18.076,-0.205,0.085
2021-08-19 18:58:18.080,-0.22,0.08
2021-08-19 18:58:18.084,-0.205,0.1
2021-08-19 18:58:18.088,-0.2,0.08
2021-08-19 18:58:18.092,-0.175,0.08
2021-08-19 18:58:18.096,-0.17,0.07
2021-08-19 18:58:18.100,-0.16,0.085
2021-08-19 18:58:18.104,-0.19,0.08
2021-08-19 18:58:18.108,-0.155,0.075
2021-08-19 18:58:18.112,-0.135,0.085
2021-08-19 18:58:18.116,-0.14,0.075
2021-08-19 18:58:18.120,-0.135,0.07
2021-08-19 18:58:18.124,-0.14,0.08
2021-08-19 18:58:18.128,-0.14,0.045
2021-08-19 18:58:18.132,-0.145,0.065
2021-08-19 18:58:18.136,-0.13,0.075
2021-08-19 18:58:18.140,-0.175,0.07
2021-08-19 18:58:18.144,-0.22,0.085
2021-08-19 18:58:18.148,-0.195,0.065
2021-08-19 18:58:18.152,-0.14,0.11
2021-08-19 18:58:18.156,0.02,0.09
2021-08-19 18:58:18.160,0.315,0.08
2021-08-19 18:58:18.164,0.755,-0.02
2021-08-19 18:58:18.168,1.21,-0.09
2021-08-19 18:58:18.172,1.63,-0.18
2021-08-19 18:58:18.176,1.81,-0.18
2021-08-19 18:58:18.180,1.535,0.01
2021-08-19 18:58:18.184,0.79,0.295
2021-08-19 18:58:18.188,-0.02,0.53
2021-08-19 18:58:18.192,-0.735,0.67
2021-08-19 18:58:18.196,-0.98,0.58
2021-08-19 18:58:18.200,-0.825,0.29
2021-08-19 18:58:18.204,-0.5,0.04
2021-08-19 18:58:18.208,-0.285,-0.07
2021-08-19 18:58:18.212,-0.175,-0.11
2021-08-19 18:58:18.216,-0.185,-0.125
2021-08-19 18:58:18.220,-0.185,-0.03
2021-08-19 18:58:18.224,-0.215,0.03
2021-08-19 18:58:18.228,-0.215,0.03
2021-08-19 18:58:18.232,-0.23,0.045
2021-08-19 18:58:18.236,-0.24,0.02
2021-08-19 18:58:18.240,-0.255,0.025
2021-08-19 18:58:18.244,-0.265,0.04
2021-08-19 18:58:18.248,-0.255,0.03
2021-08-19 18:58:18.252,-0.275,0.035
2021-08-19 18:58:18.256,-0.255,0.025
2021-08-19 18:58:18.260,-0.23,0.045
2021-08-19 18:58:18.264,-0.245,0.035
2021-08-19 18:58:18.268,-0.235,0.04
2021-08-19 18:58:18.272,-0.245,0.045
2021-08-19 18:58:18.276,-0.245,0.02
2021-08-19 18:58:18.280,-0.245,0.04
2021-08-19 18:58:18.284,-0.26,0.05
2021-08-19 18:58:18.288,-0.23,0.035
2021-08-19 18:58:18.292,-0.24,0.045
2021-08-19 18:58:18.296,-0.24,0.05
2021-08-19 18:58:18.300,-0.22,0.04
2021-08-19 18:58:18.304,-0.21,0.04
2021-08-19 18:58:18.308,-0.205,0.065
2021-08-19 18:58:18.312,-0.185,0.05
2021-08-19 18:58:18.316,-0.17,0.05
2021-08-19 18:58:18.320,-0.155,0.055
2021-08-19 18:58:18.324,-0.15,0.05
2021-08-19 18:58:18.328,-0.135,0.09
2021-08-19 18:58:18.332,-0.135,0.07
2021-08-19 18:58:18.336,-0.115,0.085
2021-08-19 18:58:18.340,-0.08,0.08
2021-08-19 18:58:18.344,-0.06,0.065
2021-08-19 18:58:18.348,-0.02,0.08
2021-08-19 18:58:18.352,0.015,0.095
2021-08-19 18:58:18.356,0.015,0.105
2021-08-19 18:58:18.360,0.08,0.075
2021-08-19 18:58:18.364,0.095,0.07
2021-08-19 18:58:18.368,0.135,0.06
2021-08-19 18:58:18.372,0.155,0.06
2021-08-19 18:58:18.376,0.18,0.11
2021-08-19 18:58:18.380,0.2,0.07
2021-08-19 18:58:18.384,0.21,0.04
2021-08-19 18:58:18.388,0.225,0.055
2021-08-19 18:58:18.392,0.23,0.055
2021-08-19 18:58:18.396,0.24,0.05
2021-08-19 18:58:18.400,0.22,0.05
2021-08-19 18:58:18.404,0.21,0.04
2021-08-19 18:58:18.408,0.21,0.045
2021-08-19 18:58:18.412,0.195,0.07
2021-08-19 18:58:18.416,0.18,0.075
2021-08-19 18:58:18.420,0.15,0.06
2021-08-19 18:58:18.424,0.135,0.075
2021-08-19 18:58:18.428,0.11,0.085
2021-08-19 18:58:18.432,0.07,0.045
2021-08-19 18:58:18.436,0.035,0.075
2021-08-19 18:58:18.440,0.03,0.065
2021-08-19 18:58:18.444,0.0,0.065
2021-08-19 18:58:18.448,-0.02,0.07
2021-08-19 18:58:18.452,-0.06,0.09
2021-08-19 18:58:18.456,-0.09,0.08
2021-08-19 18:58:18.460,-0.1,0.085
2021-08-19 18:58:18.464,-0.095,0.07
2021-08-19 18:58:18.468,-0.14,0.08
2021-08-19 18:58:18.472,-0.12,0.085
2021-08-19 18:58:18.476,-0.115,0.115
2021-08-19 18:58:18.480,-0.095,0.135
2021-08-19 18:58:18.484,-0.09,0.205
2021-08-19 18:58:18.488,-0.09,0.23
2021-08-19 18:58:18.492,-0.08,0.225
2021-08-19 18:58:18.496,-0.055,0.165
2021-08-19 18:58:18.500,-0.045,0.175
2021-08-19 18:58:18.504,-0.035,0.15
2021-08-19 18:58:18.508,-0.025,0.15
2021-08-19 18:58:18.512,-0.01,0.12
2021-08-19 18:58:18.516,0.0,0.08
2021-08-19 18:58:18.520,0.005,0.06
2021-08-19 18:58:18.524,0.0,0.045
2021-08-19 18:58:18.528,0.015,0.035
2021-08-19 18:58:18.532,0.02,0.05
2021-08-19 18:58:18.536,-0.01,0.04
2021-08-19 18:58:18.540,-0.04,0.015
2021-08-19 18:58:18.544,-0.05,0.04
2021-08-19 18:58:18.548,-0.085,0.05
2021-08-19 18:58:18.552,-0.095,0.075
2021-08-19 18:58:18.556,-0.105,0.09
2021-08-19 18:58:18.560,-0.125,0.075
2021-08-19 18:58:18.564,-0.115,0.055
2021-08-19 18:58:18.568,-0.13,0.055
2021-08-19 18:58:18.572,-0.14,0.05
2021-08-19 18:58:18.576,-0.17,0.05
2021-08-19 18:58:18.580,-0.16,0.05
2021-08-19 18:58:18.584,-0.16,0.025
2021-08-19 18:58:18.588,-0.17,0.04
2021-08-19 18:58:18.592,-0.16,0.025
2021-08-19 18:58:18.596,-0.185,0.035
2021-08-19 18:58:18.600,-0.19,0.055
2021-08-19 18:58:18.604,-0.19,0.07
2021-08-19 18:58:18.608,-0.19,0.03
2021-08-19 18:58:18.612,-0.21,0.045
2021-08-19 18:58:18.616,-0.19,0.05
2021-08-19 18:58:18.620,-0.205,0.05
2021-08-19 18:58:18.624,-0.215,0.045
2021-08-19 18:58:18.628,-0.21,0.045
2021-08-19 18:58:18.632,-0.21,0.045
2021-08-19 18:58:18.636,-0.215,0.05
2021-08-19 18:58:18.640,-0.22,0.04
2021-08-19 18:58:18.644,-0.22,0.045
2021-08-19 18:58:18.648,-0.23,0.04
2021-08-19 18:58:18.652,-0.22,0.03
2021-08-19 18:58:18.656,-0.24,0.04
2021-08-19 18:58:18.660,-0.205,0.055
2021-08-19 18:58:18.664,-0.24,0.035
2021-08-19 18:58:18.668,-0.22,0.055
2021-08-19 18:58:18.672,-0.21,0.055
2021-08-19 18:58:18.676,-0.25,0.035
2021-08-19 18:58:18.680,-0.3,0.035
2021-08-19 18:58:18.684,-0.365,0.005
2021-08-19 18:58:18.688,-0.425,0.02
2021-08-19 18:58:18.692,-0.43,0.04
2021-08-19 18:58:18.696,-0.345,0.04
2021-08-19 18:58:18.700,-0.13,-0.03
2021-08-19 18:58:18.704,0.255,-0.13
2021-08-19 18:58:18.708,0.705,-0.18
2021-08-19 18:58:18.712,1.14,-0.22
2021-08-19 18:58:18.716,1.385,-0.16
2021-08-19 18:58:18.720,1.25,0.09
2021-08-19 18:58:18.724,0.645,0.345
2021-08-19 18:58:18.728,-0.075,0.525
2021-08-19 18:58:18.732,-0.74,0.67
2021-08-19 18:58:18.736,-1.065,0.64
2021-08-19 18:58:18.740,-0.995,0.33
2021-08-19 18:58:18.744,-0.785,0.07
2021-08-19 18:58:18.748,-0.6,-0.08
2021-08-19 18:58:18.752,-0.42,-0.09
2021-08-19 18:58:18.756,-0.32,-0.08
2021-08-19 18:58:18.760,-0.28,-0.055
2021-08-19 18:58:18.764,-0.25,0.04
2021-08-19 18:58:18.768,-0.25,0.04
2021-08-19 18:58:18.772,-0.255,0.04
2021-08-19 18:58:18.776,-0.26,0.04
2021-08-19 18:58:18.780,-0.245,0.06
2021-08-19 18:58:18.784,-0.24,0.08
2021-08-19 18:58:18.788,-0.245,0.065
2021-08-19 18:58:18.792,-0.23,0.085
2021-08-19 18:58:18.796,-0.24,0.04
2021-08-19 18:58:18.800,-0.215,0.045
2021-08-19 18:58:18.804,-0.24,0.06
2021-08-19 18:58:18.808,-0.22,0.04
2021-08-19 18:58:18.812,-0.22,0.075
2021-08-19 18:58:18.816,-0.205,0.04
2021-08-19 18:58:18.820,-0.205,0.065
2021-08-19 18:58:18.824,-0.19,0.06
2021-08-19 18:58:18.828,-0.205,0.035
2021-08-19 18:58:18.832,-0.19,0.055
2021-08-19 18:58:18.836,-0.185,0.065
2021-08-19 18:58:18.840,-0.175,0.045
2021-08-19 18:58:18.844,-0.15,0.055
2021-08-19 18:58:18.848,-0.145,0.065
2021-08-19 18:58:18.852,-0.135,0.05
2021-08-19 18:58:18.856,-0.085,0.07
2021-08-19 18:58:18.860,-0.07,0.1
2021-08-19 18:58:18.864,-0.035,0.125
2021-08-19 18:58:18.868,-0.015,0.135
2021-08-19 18:58:18.872,-0.005,0.145
2021-08-19 18:58:18.876,0.015,0.155
2021-08-19 18:58:18.880,0.06,0.135
2021-08-19 18:58:18.884,0.105,0.09
2021-08-19 18:58:18.888,0.16,0.09
2021-08-19 18:58:18.892,0.2,0.06
2021-08-19 18:58:18.896,0.22,0.015
2021-08-19 18:58:18.900,0.235,0.01
2021-08-19 18:58:18.904,0.265,-0.025
2021-08-19 18:58:18.908,0.285,-0.04
2021-08-19 18:58:18.912,0.32,-0.045
2021-08-19 18:58:18.916,0.335,-0.035
2021-08-19 18:58:18.920,0.34,-0.025
2021-08-19 18:58:18.924,0.325,-0.02
2021-08-19 18:58:18.928,0.33,-0.03
2021-08-19 18:58:18.932,0.315,-0.005
2021-08-19 18:58:18.936,0.295,-0.025
2021-08-19 18:58:18.940,0.3,-0.005
2021-08-19 18:58:18.944,0.27,-0.005
2021-08-19 18:58:18.948,0.26,-0.02
2021-08-19 18:58:18.952,0.235,-0.03
2021-08-19 18:58:18.956,0.215,-0.02
2021-08-19 18:58:18.960,0.19,-0.015
2021-08-19 18:58:18.964,0.135,-0.015
2021-08-19 18:58:18.968,0.12,-0.005
2021-08-19 18:58:18.972,0.08,-0.005
2021-08-19 18:58:18.976,0.06,-0.035
2021-08-19 18:58:18.980,0.035,-0.025
2021-08-19 18:58:18.984,-0.005,0.0
2021-08-19 18:58:18.988,-0.04,-0.01
2021-08-19 18:58:18.992,-0.06,0.01
2021-08-19 18:58:18.996,-0.09,0.0
2021-08-19 18:58:19.000,-0.115,0.02
2021-08-19 18:58:19.004,-0.135,-0.02
2021-08-19 18:58:19.008,-0.16,0.015
2021-08-19 18:58:19.012,-0.14,0.01
2021-08-19 18:58:19.016,-0.175,0.025
2021-08-19 18:58:19.020,-0.185,0.02
2021-08-19 18:58:19.024,-0.19,0.015
2021-08-19 18:58:19.028,-0.2,0.005
2021-08-19 18:58:19.032,-0.205,0.015
2021-08-19 18:58:19.036,-0.22,0.055
2021-08-19 18:58:19.040,-0.23,0.035
2021-08-19 18:58:19.044,-0.24,0.025
2021-08-19 18:58:19.048,-0.245,0.02
2021-08-19 18:58:19.052,-0.225,0.02
2021-08-19 18:58:19.056,-0.235,0.03
2021-08-19 18:58:19.060,-0.27,0.02
2021-08-19 18:58:19.064,-0.255,0.035
2021-08-19 18:58:19.068,-0.24,0.045
2021-08-19 18:58:19.072,-0.245,0.055
2021-08-19 18:58:19.076,-0.255,0.055
2021-08-19 18:58:19.080,-0.24,0.045
2021-08-19 18:58:19.084,-0.27,0.055
2021-08-19 18:58:19.088,-0.25,0.035
2021-08-19 18:58:19.092,-0.245,0.03
2021-08-19 18:58:19.096,-0.265,0.055
2021-08-19 18:58:19.100,-0.275,0.055
2021-08-19 18:58:19.104,-0.27,0.065
2021-08-19 18:58:19.108,-0.28,0.06
2021-08-19 18:58:19.112,-0.265,0.055
2021-08-19 18:58:19.116,-0.26,0.055
2021-08-19 18:58:19.120,-0.26,0.07
2021-08-19 18:58:19.124,-0.26,0.095
2021-08-19 18:58:19.128,-0.24,0.095
2021-08-19 18:58:19.132,-0.235,0.065
2021-08-19 18:58:19.136,-0.235,0.065
2021-08-19 18:58:19.140,-0.23,0.08
2021-08-19 18:58:19.144,-0.21,0.08
2021-08-19 18:58:19.148,-0.215,0.07
2021-08-19 18:58:19.152,-0.21,0.06
2021-08-19 18:58:19.156,-0.215,0.055
2021-08-19 18:58:19.160,-0.22,0.035
2021-08-19 18:58:19.164,-0.21,0.045
2021-08-19 18:58:19.168,-0.195,0.065
2021-08-19 18:58:19.172,-0.19,0.04
2021-08-19 18:58:19.176,-0.2,0.05
2021-08-19 18:58:19.180,-0.18,0.045
2021-08-19 18:58:19.184,-0.235,0.06
2021-08-19 18:58:19.188,-0.28,0.05
2021-08-19 18:58:19.192,-0.35,0.02
2021-08-19 18:58:19.196,-0.345,0.02
2021-08-19 18:58:19.200,-0.245,0.035
2021-08-19 18:58:19.204,-0.005,-0.04
2021-08-19 18:58:19.208,0.37,-0.09
2021-08-19 18:58:19.212,0.885,-0.155
2021-08-19 18:58:19.216,1.325,-0.24
2021-08-19 18:58:19.220,1.53,-0.225
2021-08-19 18:58:19.224,1.395,-0.1
2021-08-19 18:58:19.228,0.72,0.22
2021-08-19 18:58:19.232,-0.17,0.53
2021-08-19 18:58:19.236,-0.895,0.71
2021-08-19 18:58:19.240,-1.135,0.675
2021-08-19 18:58:19.244,-0.945,0.425
2021-08-19 18:58:19.248,-0.64,0.14
2021-08-19 18:58:19.252,-0.375,0.005
2021-08-19 18:58:19.256,-0.205,-0.085
2021-08-19 18:58:19.260,-0.115,-0.105
2021-08-19 18:58:19.264,-0.11,-0.03
2021-08-19 18:58:19.268,-0.105,0.005
2021-08-19 18:58:19.272,-0.12,0.01
2021-08-19 18:58:19.276,-0.12,0.0
2021-08-19 18:58:19.280,-0.13,0.0
2021-08-19 18:58:19.284,-0.18,-0.005
2021-08-19 18:58:19.288,-0.205,0.035
2021-08-19 18:58:19.292,-0.215,0.045
2021-08-19 18:58:19.296,-0.21,0.045
2021-08-19 18:58:19.300,-0.24,0.07
2021-08-19 18:58:19.304,-0.25,0.045
2021-08-19 18:58:19.308,-0.245,0.045
2021-08-19 18:58:19.312,-0.26,0.035
2021-08-19 18:58:19.316,-0.255,0.03
2021-08-19 18:58:19.320,-0.275,0.05
2021-08-19 18:58:19.324,-0.24,0.05
2021-08-19 18:58:19.328,-0.255,0.04
2021-08-19 18:58:19.332,-0.265,0.05
2021-08-19 18:58:19.336,-0.265,0.055
2021-08-19 18:58:19.340,-0.255,0.04
2021-08-19 18:58:19.344,-0.23,0.045
2021-08-19 18:58:19.348,-0.225,0.05
2021-08-19 18:58:19.352,-0.225,0.04
2021-08-19 18:58:19.356,-0.2,0.07
2021-08-19 18:58:19.360,-0.2,0.07
2021-08-19 18:58:19.364,-0.215,0.05
2021-08-19 18:58:19.368,-0.18,0.065
2021-08-19 18:58:19.372,-0.185,0.06
2021-08-19 18:58:19.376,-0.145,0.08
2021-08-19 18:58:19.380,-0.115,0.095
2021-08-19 18:58:19.384,-0.105,0.05
2021-08-19 18:58:19.388,-0.07,0.06
2021-08-19 18:58:19.392,-0.04,0.09
2021-08-19 18:58:19.396,0.02,0.08
2021-08-19 18:58:19.400,0.04,0.08
2021-08-19 18:58:19.404,0.075,0.085
2021-08-19 18:58:19.408,0.105,0.075
2021-08-19 18:58:19.412,0.105,0.07
2021-08-19 18:58:19.416,0.15,0.08
2021-08-19 18:58:19.420,0.17,0.065
2021-08-19 18:58:19.424,0.19,0.075
2021-08-19 18:58:19.428,0.205,0.09
2021-08-19 18:58:19.432,0.205,0.08
2021-08-19 18:58:19.436,0.21,0.07
2021-08-19 18:58:19.440,0.22,0.07
2021-08-19 18:58:19.444,0.22,0.07
2021-08-19 18:58:19.448,0.195,0.09
2021-08-19 18:58:19.452,0.17,0.07
2021-08-19 18:58:19.456,0.155,0.09
2021-08-19 18:58:19.460,0.135,0.125
2021-08-19 18:58:19.464,0.1,0.075
2021-08-19 18:58:19.468,0.08,0.08
2021-08-19 18:58:19.472,0.05,0.09
2021-08-19 18:58:19.476,0.025,0.07
2021-08-19 18:58:19.480,-0.005,0.105
2021-08-19 18:58:19.484,-0.025,0.08
2021-08-19 18:58:19.488,-0.065,0.08
2021-08-19 18:58:19.492,-0.1,0.095
2021-08-19 18:58:19.496,-0.1,0.105
2021-08-19 18:58:19.500,-0.13,0.11
2021-08-19 18:58:19.504,-0.14,0.1
2021-08-19 18:58:19.508,-0.155,0.095
2021-08-19 18:58:19.512,-0.165,0.08
2021-08-19 18:58:19.516,-0.2,0.105
2021-08-19 18:58:19.520,-0.19,0.1
2021-08-19 18:58:19.524,-0.19,0.105
2021-08-19 18:58:19.528,-0.205,0.08
2021-08-19 18:58:19.532,-0.21,0.085
2021-08-19 18:58:19.536,-0.19,0.095
2021-08-19 18:58:19.540,-0.21,0.11
2021-08-19 18:58:19.544,-0.205,0.09
2021-08-19 18:58:19.548,-0.2,0.095
2021-08-19 18:58:19.552,-0.205,0.095
2021-08-19 18:58:19.556,-0.19,0.1
2021-08-19 18:58:19.560,-0.195,0.12
2021-08-19 18:58:19.564,-0.18,0.105
2021-08-19 18:58:19.568,-0.155,0.105
2021-08-19 18:58:19.572,-0.155,0.105
2021-08-19 18:58:19.576,-0.16,0.1
2021-08-19 18:58:19.580,-0.155,0.1
2021-08-19 18:58:19.584,-0.15,0.135
2021-08-19 18:58:19.588,-0.155,0.13
2021-08-19 18:58:19.592,-0.15,0.1
2021-08-19 18:58:19.596,-0.135,0.1
2021-08-19 18:58:19.600,-0.145,0.105
2021-08-19 18:58:19.604,-0.125,0.12
2021-08-19 18:58:19.608,-0.095,0.14
2021-08-19 18:58:19.612,-0.09,0.17
2021-08-19 18:58:19.616,-0.065,0.19
2021-08-19 18:58:19.620,-0.09,0.2
2021-08-19 18:58:19.624,-0.08,0.185
2021-08-19 18:58:19.628,-0.05,0.195
2021-08-19 18:58:19.632,-0.02,0.185
2021-08-19 18:58:19.636,-0.035,0.16
2021-08-19 18:58:19.640,-0.005,0.145
2021-08-19 18:58:19.644,0.0,0.125
2021-08-19 18:58:19.648,-0.02,0.085
2021-08-19 18:58:19.652,-0.015,0.065
2021-08-19 18:58:19.656,-0.03,0.035
2021-08-19 18:58:19.660,-0.06,0.01
2021-08-19 18:58:19.664,-0.055,-0.015
2021-08-19 18:58:19.668,-0.055,-0.01
2021-08-19 18:58:19.672,-0.09,0.0
2021-08-19 18:58:19.676,-0.125,0.035
2021-08-19 18:58:19.680,-0.14,0.04
2021-08-19 18:58:19.684,-0.16,0.05
2021-08-19 18:58:19.688,-0.185,0.035
2021-08-19 18:58:19.692,-0.2,0.055
2021-08-19 18:58:19.696,-0.22,0.04
2021-08-19 18:58:19.700,-0.24,0.045
2021-08-19 18:58:19.704,-0.225,0.035
2021-08-19 18:58:19.708,-0.24,0.02
2021-08-19 18:58:19.712,-0.26,0.03
2021-08-19 18:58:19.716,-0.25,0.055
2021-08-19 18:58:19.720,-0.25,0.045
2021-08-19 18:58:19.724,-0.25,0.045
2021-08-19 18:58:19.728,-0.25,0.04
2021-08-19 18:58:19.732,-0.27,0.065
2021-08-19 18:58:19.736,-0.265,0.04
2021-08-19 18:58:19.740,-0.275,0.05
2021-08-19 18:58:19.744,-0.315,0.055
2021-08-19 18:58:19.748,-0.39,0.05
2021-08-19 18:58:19.752,-0.465,0.045
2021-08-19 18:58:19.756,-0.5,0.045
2021-08-19 18:58:19.760,-0.48,0.03
2021-08-19 18:58:19.764,-0.41,-0.01
2021-08-19 18:58:19.768,-0.155,-0.085
2021-08-19 18:58:19.772,0.22,-0.15
2021-08-19 18:58:19.776,0.62,-0.25
2021-08-19 18:58:19.780,1.02,-0.225
2021-08-19 18:58:19.784,1.16,-0.085
2021-08-19 18:58:19.788,0.86,0.175
2021-08-19 18:58:19.792,0.25,0.465
2021-08-19 18:58:19.796,-0.365,0.615
2021-08-19 18:58:19.800,-0.87,0.71
2021-08-19 18:58:19.804,-1.05,0.68
2021-08-19 18:58:19.808,-1.01,0.36
2021-08-19 18:58:19.812,-0.885,0.05
2021-08-19 18:58:19.816,-0.7,-0.1
2021-08-19 18:58:19.820,-0.525,-0.145
2021-08-19 18:58:19.824,-0.4,-0.11
2021-08-19 18:58:19.828,-0.355,-0.07
2021-08-19 18:58:19.832,-0.315,-0.035
2021-08-19 18:58:19.836,-0.32,0.04
2021-08-19 18:58:19.840,-0.305,0.055
2021-08-19 18:58:19.844,-0.3,0.065
2021-08-19 18:58:19.848,-0.28,0.05
2021-08-19 18:58:19.852,-0.28,0.05
2021-08-19 18:58:19.856,-0.275,0.05
2021-08-19 18:58:19.860,-0.29,0.09
2021-08-19 18:58:19.864,-0.275,0.075
2021-08-19 18:58:19.868,-0.28,0.04
2021-08-19 18:58:19.872,-0.26,0.07
2021-08-19 18:58:19.876,-0.255,0.07
2021-08-19 18:58:19.880,-0.275,0.09
2021-08-19 18:58:19.884,-0.265,0.08
2021-08-19 18:58:19.888,-0.265,0.075
2021-08-19 18:58:19.892,-0.245,0.055
2021-08-19 18:58:19.896,-0.245,0.085
2021-08-19 18:58:19.900,-0.24,0.055
2021-08-19 18:58:19.904,-0.215,0.055
2021-08-19 18:58:19.908,-0.215,0.06
2021-08-19 18:58:19.912,-0.22,0.075
2021-08-19 18:58:19.916,-0.195,0.075
2021-08-19 18:58:19.920,-0.2,0.085
2021-08-19 18:58:19.924,-0.2,0.06
2021-08-19 18:58:19.928,-0.19,0.055
2021-08-19 18:58:19.932,-0.18,0.06
2021-08-19 18:58:19.936,-0.175,0.055
2021-08-19 18:58:19.940,-0.145,0.045
2021-08-19 18:58:19.944,-0.13,0.04
2021-08-19 18:58:19.948,-0.115,0.04
2021-08-19 18:58:19.952,-0.09,0.03
2021-08-19 18:58:19.956,-0.07,0.05
2021-08-19 18:58:19.960,-0.06,0.05
2021-08-19 18:58:19.964,-0.01,0.035
2021-08-19 18:58:19.968,-0.01,0.03
2021-08-19 18:58:19.972,0.01,0.02
2021-08-19 18:58:19.976,0.035,0.025
2021-08-19 18:58:19.980,0.085,0.03
2021-08-19 18:58:19.984,0.115,0.03
2021-08-19 18:58:19.988,0.155,0.045
2021-08-19 18:58:19.992,0.185,0.045
2021-08-19 18:58:19.996,0.235,0.09
2021-08-19 18:58:20.000,0.23,0.1
2021-08-19 18:58:20.004,0.255,0.09
2021-08-19 18:58:20.008,0.25,0.075
2021-08-19 18:58:20.012,0.295,0.065
2021-08-19 18:58:20.016,0.31,0.055
2021-08-19 18:58:20.020,0.305,0.05
2021-08-19 18:58:20.024,0.29,0.035
2021-08-19 18:58:20.028,0.295,0.03
2021-08-19 18:58:20.032,0.285,-0.01
2021-08-19 18:58:20.036,0.26,-0.025
2021-08-19 18:58:20.040,0.215,-0.035
2021-08-19 18:58:20.044,0.21,-0.05
2021-08-19 18:58:20.048,0.17,-0.03
2021-08-19 18:58:20.052,0.125,-0.035
2021-08-19 18:58:20.056,0.09,-0.04
2021-08-19 18:58:20.060,0.015,-0.03
2021-08-19 18:58:20.064,0.005,0.01
2021-08-19 18:58:20.068,-0.05,0.04
2021-08-19 18:58:20.072,-0.08,0.02
2021-08-19 18:58:20.076,-0.115,0.03
2021-08-19 18:58:20.080,-0.15,0.005
2021-08-19 18:58:20.084,-0.17,0.025
2021-08-19 18:58:20.088,-0.195,0.045
2021-08-19 18:58:20.092,-0.205,0.04
2021-08-19 18:58:20.096,-0.24,0.065
2021-08-19 18:58:20.100,-0.24,0.045
2021-08-19 18:58:20.104,-0.245,0.02
2021-08-19 18:58:20.108,-0.265,0.03
2021-08-19 18:58:20.112,-0.285,0.035
2021-08-19 18:58:20.116,-0.27,0.04
2021-08-19 18:58:20.120,-0.285,0.05
2021-08-19 18:58:20.124,-0.275,0.06
2021-08-19 18:58:20.128,-0.32,0.05
2021-08-19 18:58:20.132,-0.315,0.035
2021-08-19 18:58:20.136,-0.3,0.04
2021-08-19 18:58:20.140,-0.315,0.05
2021-08-19 18:58:20.144,-0.32,0.05
2021-08-19 18:58:20.148,-0.33,0.04
2021-08-19 18:58:20.152,-0.33,0.05
2021-08-19 18:58:20.156,-0.325,0.05
2021-08-19 18:58:20.160,-0.33,0.055
2021-08-19 18:58:20.164,-0.32,0.08
2021-08-19 18:58:20.168,-0.315,0.09
2021-08-19 18:58:20.172,-0.32,0.055
2021-08-19 18:58:20.176,-0.345,0.05
2021-08-19 18:58:20.180,-0.33,0.06
2021-08-19 18:58:20.184,-0.335,0.09
2021-08-19 18:58:20.188,-0.32,0.065
2021-08-19 18:58:20.192,-0.32,0.075
2021-08-19 18:58:20.196,-0.32,0.085
2021-08-19 18:58:20.200,-0.34,0.085
2021-08-19 18:58:20.204,-0.315,0.115
2021-08-19 18:58:20.208,-0.31,0.08
2021-08-19 18:58:20.212,-0.315,0.085
2021-08-19 18:58:20.216,-0.325,0.085
2021-08-19 18:58:20.220,-0.32,0.05
2021-08-19 18:58:20.224,-0.34,0.1
2021-08-19 18:58:20.228,-0.32,0.08
2021-08-19 18:58:20.232,-0.3,0.1
2021-08-19 18:58:20.236,-0.305,0.1
2021-08-19 18:58:20.240,-0.28,0.095
2021-08-19 18:58:20.244,-0.3,0.085
2021-08-19 18:58:20.248,-0.29,0.105
2021-08-19 18:58:20.252,-0.28,0.095
2021-08-19 18:58:20.256,-0.29,0.085
2021-08-19 18:58:20.260,-0.28,0.1
2021-08-19 18:58:20.264,-0.28,0.085
2021-08-19 18:58:20.268,-0.295,0.105
2021-08-19 18:58:20.272,-0.295,0.1
2021-08-19 18:58:20.276,-0.295,0.09
2021-08-19 18:58:20.280,-0.275,0.075
2021-08-19 18:58:20.284,-0.28,0.085
2021-08-19 18:58:20.288,-0.285,0.1
2021-08-19 18:58:20.292,-0.285,0.095
2021-08-19 18:58:20.296,-0.285,0.09
2021-08-19 18:58:20.300,-0.29,0.075
2021-08-19 18:58:20.304,-0.285,0.09
2021-08-19 18:58:20.308,-0.29,0.095
2021-08-19 18:58:20.312,-0.29,0.1
2021-08-19 18:58:20.316,-0.285,0.09
2021-08-19 18:58:20.320,-0.29,0.1
2021-08-19 18:58:20.324,-0.305,0.08
2021-08-19 18:58:20.328,-0.285,0.09
2021-08-19 18:58:20.332,-0.29,0.1
2021-08-19 18:58:20.336,-0.27,0.085
2021-08-19 18:58:20.340,-0.295,0.065
2021-08-19 18:58:20.344,-0.26,0.08
2021-08-19 18:58:20.348,-0.28,0.09
2021-08-19 18:58:20.352,-0.255,0.095
2021-08-19 18:58:20.356,-0.245,0.1
2021-08-19 18:58:20.360,-0.22,0.135
2021-08-19 18:58:20.364,-0.215,0.145
2021-08-19 18:58:20.368,-0.22,0.16
2021-08-19 18:58:20.372,-0.23,0.19
2021-08-19 18:58:20.376,-0.235,0.185
2021-08-19 18:58:20.380,-0.2,0.2
2021-08-19 18:58:20.384,-0.16,0.145
2021-08-19 18:58:20.388,-0.125,0.15
2021-08-19 18:58:20.392,-0.125,0.145
2021-08-19 18:58:20.396,-0.1,0.1
2021-08-19 18:58:20.400,-0.12,0.09
2021-08-19 18:58:20.404,-0.115,0.075
2021-08-19 18:58:20.408,-0.12,0.035
2021-08-19 18:58:20.412,-0.135,0.035
2021-08-19 18:58:20.416,-0.135,0.015
2021-08-19 18:58:20.420,-0.16,0.0
2021-08-19 18:58:20.424,-0.2,0.0
2021-08-19 18:58:20.428,-0.275,0.015
2021-08-19 18:58:20.432,-0.315,0.03
2021-08-19 18:58:20.436,-0.305,0.025
2021-08-19 18:58:20.440,-0.235,0.03
2021-08-19 18:58:20.444,-0.095,-0.03
2021-08-19 18:58:20.448,0.155,-0.125
2021-08-19 18:58:20.452,0.47,-0.19
2021-08-19 18:58:20.456,0.8,-0.31
2021-08-19 18:58:20.460,0.975,-0.31
2021-08-19 18:58:20.464,0.87,-0.19
2021-08-19 18:58:20.468,0.41,0.13
2021-08-19 18:58:20.472,-0.24,0.44
2021-08-19 18:58:20.476,-0.82,0.66
2021-08-19 18:58:20.480,-1.17,0.735
2021-08-19 18:58:20.484,-1.195,0.52
2021-08-19 18:58:20.488,-1.07,0.175
2021-08-19 18:58:20.492,-0.855,-0.06
2021-08-19 18:58:20.496,-0.65,-0.14
2021-08-19 18:58:20.500,-0.485,-0.15
2021-08-19 18:58:20.504,-0.41,-0.1
2021-08-19 18:58:20.508,-0.38,-0.05
2021-08-19 18:58:20.512,-0.37,0.02
2021-08-19 18:58:20.516,-0.36,0.07
2021-08-19 18:58:20.520,-0.365,0.09
2021-08-19 18:58:20.524,-0.36,0.07
2021-08-19 18:58:20.528,-0.34,0.08
2021-08-19 18:58:20.532,-0.34,0.07
2021-08-19 18:58:20.536,-0.345,0.09
2021-08-19 18:58:20.540,-0.335,0.105
2021-08-19 18:58:20.544,-0.33,0.095
2021-08-19 18:58:20.548,-0.34,0.1
2021-08-19 18:58:20.552,-0.34,0.105
2021-08-19 18:58:20.556,-0.325,0.11
2021-08-19 18:58:20.560,-0.34,0.115
2021-08-19 18:58:20.564,-0.315,0.12
2021-08-19 18:58:20.568,-0.33,0.135
2021-08-19 18:58:20.572,-0.315,0.11
2021-08-19 18:58:20.576,-0.31,0.11
2021-08-19 18:58:20.580,-0.32,0.14
2021-08-19 18:58:20.584,-0.305,0.12
2021-08-19 18:58:20.588,-0.285,0.105
2021-08-19 18:58:20.592,-0.31,0.13
2021-08-19 18:58:20.596,-0.295,0.115
2021-08-19 18:58:20.600,-0.265,0.11
2021-08-19 18:58:20.604,-0.255,0.12
2021-08-19 18:58:20.608,-0.26,0.13
2021-08-19 18:58:20.612,-0.24,0.135
2021-08-19 18:58:20.616,-0.255,0.135
2021-08-19 18:58:20.620,-0.22,0.135
2021-08-19 18:58:20.624,-0.205,0.12
2021-08-19 18:58:20.628,-0.185,0.12
2021-08-19 18:58:20.632,-0.16,0.12
2021-08-19 18:58:20.636,-0.14,0.135
2021-08-19 18:58:20.640,-0.1,0.135
2021-08-19 18:58:20.644,-0.09,0.11
2021-08-19 18:58:20.648,-0.07,0.115
2021-08-19 18:58:20.652,-0.035,0.12
2021-08-19 18:58:20.656,0.0,0.115
2021-08-19 18:58:20.660,0.025,0.125
2021-08-19 18:58:20.664,0.065,0.125
2021-08-19 18:58:20.668,0.085,0.115
2021-08-19 18:58:20.672,0.12,0.11
2021-08-19 18:58:20.676,0.135,0.11
2021-08-19 18:58:20.680,0.155,0.1
2021-08-19 18:58:20.684,0.165,0.095
2021-08-19 18:58:20.688,0.195,0.105
2021-08-19 18:58:20.692,0.2,0.075
2021-08-19 18:58:20.696,0.205,0.1
2021-08-19 18:58:20.700,0.205,0.075
2021-08-19 18:58:20.704,0.185,0.095
2021-08-19 18:58:20.708,0.175,0.09
2021-08-19 18:58:20.712,0.14,0.075
2021-08-19 18:58:20.716,0.145,0.09
2021-08-19 18:58:20.720,0.135,0.095
2021-08-19 18:58:20.724,0.1,0.09
2021-08-19 18:58:20.728,0.095,0.1
2021-08-19 18:58:20.732,0.065,0.1
2021-08-19 18:58:20.736,0.045,0.1
2021-08-19 18:58:20.740,0.025,0.095
2021-08-19 18:58:20.744,0.03,0.105
2021-08-19 18:58:20.748,0.015,0.125
2021-08-19 18:58:20.752,0.015,0.2
2021-08-19 18:58:20.756,-0.005,0.2
2021-08-19 18:58:20.760,-0.015,0.215
2021-08-19 18:58:20.764,-0.02,0.21
2021-08-19 18:58:20.768,-0.015,0.175
2021-08-19 18:58:20.772,-0.01,0.145
2021-08-19 18:58:20.776,-0.005,0.14
2021-08-19 18:58:20.780,-0.02,0.165
2021-08-19 18:58:20.784,-0.04,0.135
2021-08-19 18:58:20.788,-0.025,0.085
2021-08-19 18:58:20.792,-0.04,0.045
2021-08-19 18:58:20.796,-0.055,0.035
2021-08-19 18:58:20.800,-0.09,0.03
2021-08-19 18:58:20.804,-0.09,0.04
2021-08-19 18:58:20.808,-0.115,0.03
2021-08-19 18:58:20.812,-0.105,0.04
2021-08-19 18:58:20.816,-0.145,0.03
2021-08-19 18:58:20.820,-0.185,0.035
2021-08-19 18:58:20.824,-0.22,0.06
2021-08-19 18:58:20.828,-0.23,0.075
2021-08-19 18:58:20.832,-0.235,0.095
2021-08-19 18:58:20.836,-0.26,0.055
2021-08-19 18:58:20.840,-0.265,0.075
2021-08-19 18:58:20.844,-0.27,0.075
2021-08-19 18:58:20.848,-0.285,0.055
2021-08-19 18:58:20.852,-0.285,0.075
2021-08-19 18:58:20.856,-0.295,0.05
2021-08-19 18:58:20.860,-0.295,0.09
2021-08-19 18:58:20.864,-0.3,0.075
2021-08-19 18:58:20.868,-0.285,0.07
2021-08-19 18:58:20.872,-0.285,0.05
2021-08-19 18:58:20.876,-0.28,0.08
2021-08-19 18:58:20.880,-0.27,0.08
2021-08-19 18:58:20.884,-0.29,0.09
2021-08-19 18:58:20.888,-0.285,0.09
2021-08-19 18:58:20.892,-0.265,0.095
2021-08-19 18:58:20.896,-0.28,0.1
2021-08-19 18:58:20.900,-0.27,0.09
2021-08-19 18:58:20.904,-0.28,0.07
2021-08-19 18:58:20.908,-0.275,0.075
2021-08-19 18:58:20.912,-0.265,0.075
2021-08-19 18:58:20.916,-0.275,0.085
2021-08-19 18:58:20.920,-0.27,0.07
2021-08-19 18:58:20.924,-0.265,0.095
2021-08-19 18:58:20.928,-0.28,0.09
2021-08-19 18:58:20.932,-0.265,0.075
2021-08-19 18:58:20.936,-0.275,0.085
2021-08-19 18:58:20.940,-0.28,0.075
2021-08-19 18:58:20.944,-0.27,0.09
2021-08-19 18:58:20.948,-0.27,0.085
2021-08-19 18:58:20.952,-0.285,0.075
2021-08-19 18:58:20.956,-0.27,0.09
2021-08-19 18:58:20.960,-0.265,0.075
2021-08-19 18:58:20.964,-0.275,0.065
2021-08-19 18:58:20.968,-0.275,0.09
2021-08-19 18:58:20.972,-0.275,0.07
2021-08-19 18:58:20.976,-0.29,0.055
2021-08-19 18:58:20.980,-0.265,0.07
2021-08-19 18:58:20.984,-0.29,0.05
2021-08-19 18:58:20.988,-0.295,0.06
2021-08-19 18:58:20.992,-0.295,0.085
2021-08-19 18:58:20.996,-0.29,0.07
2021-08-19 18:58:21.000,-0.285,0.07
2021-08-19 18:58:21.004,-0.285,0.075
2021-08-19 18:58:21.008,-0.3,0.075
2021-08-19 18:58:21.012,-0.285,0.035
2021-08-19 18:58:21.016,-0.285,0.085
2021-08-19 18:58:21.020,-0.3,0.08
2021-08-19 18:58:21.024,-0.315,0.065
2021-08-19 18:58:21.028,-0.33,0.06
2021-08-19 18:58:21.032,-0.365,0.025
2021-08-19 18:58:21.036,-0.365,0.04
2021-08-19 18:58:21.040,-0.33,0.045
2021-08-19 18:58:21.044,-0.185,0.02
2021-08-19 18:58:21.048,0.02,-0.04
2021-08-19 18:58:21.052,0.355,-0.155
2021-08-19 18:58:21.056,0.705,-0.27
2021-08-19 18:58:21.060,0.995,-0.38
2021-08-19 18:58:21.064,1.11,-0.34
2021-08-19 18:58:21.068,0.95,-0.16
2021-08-19 18:58:21.072,0.37,0.155
2021-08-19 18:58:21.076,-0.27,0.475
2021-08-19 18:58:21.080,-0.88,0.635
2021-08-19 18:58:21.084,-1.18,0.59
2021-08-19 18:58:21.088,-1.14,0.365
2021-08-19 18:58:21.092,-0.92,0.1
2021-08-19 18:58:21.096,-0.675,-0.01
2021-08-19 18:58:21.100,-0.485,-0.09
2021-08-19 18:58:21.104,-0.385,-0.13
2021-08-19 18:58:21.108,-0.33,-0.075
2021-08-19 18:58:21.112,-0.29,0.005
2021-08-19 18:58:21.116,-0.29,0.075
2021-08-19 18:58:21.120,-0.29,0.08
2021-08-19 18:58:21.124,-0.265,0.08
2021-08-19 18:58:21.128,-0.235,0.11
2021-08-19 18:58:21.132,-0.24,0.12
2021-08-19 18:58:21.136,-0.23,0.165
2021-08-19 18:58:21.140,-0.22,0.14
2021-08-19 18:58:21.144,-0.19,0.16
2021-08-19 18:58:21.148,-0.185,0.16
2021-08-19 18:58:21.152,-0.145,0.12
2021-08-19 18:58:21.156,-0.12,0.095
2021-08-19 18:58:21.160,-0.09,0.11
2021-08-19 18:58:21.164,-0.1,0.11
2021-08-19 18:58:21.168,-0.08,0.085
2021-08-19 18:58:21.172,-0.075,0.065
2021-08-19 18:58:21.176,-0.075,0.025
2021-08-19 18:58:21.180,-0.08,0.015
2021-08-19 18:58:21.184,-0.08,0.01
2021-08-19 18:58:21.188,-0.095,0.005
2021-08-19 18:58:21.192,-0.105,0.03
2021-08-19 18:58:21.196,-0.125,0.02
2021-08-19 18:58:21.200,-0.155,0.035
2021-08-19 18:58:21.204,-0.17,0.06
2021-08-19 18:58:21.208,-0.15,0.095
2021-08-19 18:58:21.212,-0.16,0.085
2021-08-19 18:58:21.216,-0.15,0.075
2021-08-19 18:58:21.220,-0.16,0.07
2021-08-19 18:58:21.224,-0.17,0.045
2021-08-19 18:58:21.228,-0.145,0.06
2021-08-19 18:58:21.232,-0.125,0.035
2021-08-19 18:58:21.236,-0.095,0.07
2021-08-19 18:58:21.240,-0.08,0.07
2021-08-19 18:58:21.244,-0.075,0.05
2021-08-19 18:58:21.248,-0.03,0.04
2021-08-19 18:58:21.252,0.015,0.055
2021-08-19 18:58:21.256,0.04,0.06
2021-08-19 18:58:21.260,0.07,0.05
2021-08-19 18:58:21.264,0.09,0.065
2021-08-19 18:58:21.268,0.12,0.05
2021-08-19 18:58:21.272,0.13,0.065
2021-08-19 18:58:21.276,0.13,0.06
2021-08-19 18:58:21.280,0.145,0.045
2021-08-19 18:58:21.284,0.17,0.04
2021-08-19 18:58:21.288,0.175,0.04
2021-08-19 18:58:21.292,0.165,0.04
2021-08-19 18:58:21.296,0.155,0.035
2021-08-19 18:58:21.300,0.145,0.05
2021-08-19 18:58:21.304,0.13,0.035
2021-08-19 18:58:21.308,0.09,0.055
2021-08-19 18:58:21.312,0.08,0.065
2021-08-19 18:58:21.316,0.06,0.045
2021-08-19 18:58:21.320,0.05,0.065
2021-08-19 18:58:21.324,0.005,0.065
2021-08-19 18:58:21.328,-0.02,0.08
2021-08-19 18:58:21.332,-0.065,0.075
2021-08-19 18:58:21.336,-0.1,0.09
2021-08-19 18:58:21.340,-0.145,0.09
2021-08-19 18:58:21.344,-0.145,0.08
2021-08-19 18:58:21.348,-0.18,0.08
2021-08-19 18:58:21.352,-0.2,0.075
2021-08-19 18:58:21.356,-0.225,0.095
2021-08-19 18:58:21.360,-0.235,0.08
2021-08-19 18:58:21.364,-0.255,0.085
2021-08-19 18:58:21.368,-0.255,0.095
2021-08-19 18:58:21.372,-0.265,0.085
2021-08-19 18:58:21.376,-0.275,0.095
2021-08-19 18:58:21.380,-0.27,0.085
2021-08-19 18:58:21.384,-0.28,0.085
2021-08-19 18:58:21.388,-0.275,0.09
2021-08-19 18:58:21.392,-0.28,0.075
2021-08-19 18:58:21.396,-0.275,0.08
2021-08-19 18:58:21.400,-0.275,0.085
2021-08-19 18:58:21.404,-0.275,0.085
2021-08-19 18:58:21.408,-0.275,0.08
2021-08-19 18:58:21.412,-0.27,0.09
2021-08-19 18:58:21.416,-0.28,0.075
2021-08-19 18:58:21.420,-0.265,0.08
2021-08-19 18:58:21.424,-0.24,0.095
2021-08-19 18:58:21.428,-0.235,0.07
2021-08-19 18:58:21.432,-0.235,0.07
2021-08-19 18:58:21.436,-0.215,0.09
2021-08-19 18:58:21.440,-0.24,0.105
2021-08-19 18:58:21.444,-0.245,0.115
2021-08-19 18:58:21.448,-0.23,0.085
2021-08-19 18:58:21.452,-0.24,0.125
2021-08-19 18:58:21.456,-0.22,0.14
2021-08-19 18:58:21.460,-0.22,0.1
2021-08-19 18:58:21.464,-0.205,0.075
2021-08-19 18:58:21.468,-0.205,0.08
2021-08-19 18:58:21.472,-0.2,0.11
2021-08-19 18:58:21.476,-0.225,0.105
2021-08-19 18:58:21.480,-0.21,0.11
2021-08-19 18:58:21.484,-0.215,0.07
2021-08-19 18:58:21.488,-0.19,0.08
2021-08-19 18:58:21.492,-0.18,0.065
2021-08-19 18:58:21.496,-0.18,0.07
2021-08-19 18:58:21.500,-0.19,0.09
2021-08-19 18:58:21.504,-0.18,0.115
2021-08-19 18:58:21.508,-0.16,0.115
2021-08-19 18:58:21.512,-0.165,0.135
2021-08-19 18:58:21.516,-0.155,0.175
2021-08-19 18:58:21.520,-0.165,0.17
2021-08-19 18:58:21.524,-0.14,0.185
2021-08-19 18:58:21.528,-0.11,0.18
2021-08-19 18:58:21.532,-0.1,0.175
2021-08-19 18:58:21.536,-0.065,0.155
2021-08-19 18:58:21.540,-0.05,0.145
2021-08-19 18:58:21.544,-0.035,0.155
2021-08-19 18:58:21.548,-0.05,0.115
2021-08-19 18:58:21.552,-0.04,0.085
2021-08-19 18:58:21.556,-0.04,0.04
2021-08-19 18:58:21.560,-0.08,0.045
2021-08-19 18:58:21.564,-0.06,0.035
2021-08-19 18:58:21.568,-0.075,0.045
2021-08-19 18:58:21.572,-0.105,0.02
2021-08-19 18:58:21.576,-0.115,0.015
2021-08-19 18:58:21.580,-0.135,0.06
2021-08-19 18:58:21.584,-0.13,0.075
2021-08-19 18:58:21.588,-0.15,0.05
2021-08-19 18:58:21.592,-0.18,0.06
2021-08-19 18:58:21.596,-0.195,0.075
2021-08-19 18:58:21.600,-0.23,0.055
2021-08-19 18:58:21.604,-0.24,0.045
2021-08-19 18:58:21.608,-0.22,0.045
2021-08-19 18:58:21.612,-0.26,0.035
2021-08-19 18:58:21.616,-0.28,0.0
2021-08-19 18:58:21.620,-0.33,0.02
2021-08-19 18:58:21.624,-0.37,0.02
2021-08-19 18:58:21.628,-0.405,0.0
2021-08-19 18:58:21.632,-0.405,0.0
2021-08-19 18:58:21.636,-0.34,-0.015
2021-08-19 18:58:21.640,-0.165,-0.055
2021-08-19 18:58:21.644,0.165,-0.19
2021-08-19 18:58:21.648,0.535,-0.275
2021-08-19 18:58:21.652,0.92,-0.255
2021-08-19 18:58:21.656,1.095,-0.145
2021-08-19 18:58:21.660,0.905,0.125
2021-08-19 18:58:21.664,0.375,0.4
2021-08-19 18:58:21.668,-0.17,0.535
2021-08-19 18:58:21.672,-0.69,0.65
2021-08-19 18:58:21.676,-0.95,0.705
2021-08-19 18:58:21.680,-0.975,0.475
2021-08-19 18:58:21.684,-0.905,0.11
2021-08-19 18:58:21.688,-0.77,-0.09
2021-08-19 18:58:21.692,-0.595,-0.195
2021-08-19 18:58:21.696,-0.44,-0.175
2021-08-19 18:58:21.700,-0.355,-0.14
2021-08-19 18:58:21.704,-0.315,-0.105
2021-08-19 18:58:21.708,-0.305,-0.005
2021-08-19 18:58:21.712,-0.295,0.035
2021-08-19 18:58:21.716,-0.285,0.035
2021-08-19 18:58:21.720,-0.27,0.04
2021-08-19 18:58:21.724,-0.275,0.045
2021-08-19 18:58:21.728,-0.265,0.04
2021-08-19 18:58:21.732,-0.26,0.05
2021-08-19 18:58:21.736,-0.275,0.05
2021-08-19 18:58:21.740,-0.245,0.035
2021-08-19 18:58:21.744,-0.225,0.045
2021-08-19 18:58:21.748,-0.25,0.045
2021-08-19 18:58:21.752,-0.23,0.04
2021-08-19 18:58:21.756,-0.235,0.04
2021-08-19 18:58:21.760,-0.235,0.05
2021-08-19 18:58:21.764,-0.22,0.045
2021-08-19 18:58:21.768,-0.215,0.045
2021-08-19 18:58:21.772,-0.22,0.035
2021-08-19 18:58:21.776,-0.21,0.06
2021-08-19 18:58:21.780,-0.205,0.05
2021-08-19 18:58:21.784,-0.205,0.03
2021-08-19 18:58:21.788,-0.195,0.025
2021-08-19 18:58:21.792,-0.19,0.04
2021-08-19 18:58:21.796,-0.155,0.06
2021-08-19 18:58:21.800,-0.17,0.035
2021-08-19 18:58:21.804,-0.14,0.055
2021-08-19 18:58:21.808,-0.145,0.025
2021-08-19 18:58:21.812,-0.12,0.015
2021-08-19 18:58:21.816,-0.115,0.025
2021-08-19 18:58:21.820,-0.11,0.01
2021-08-19 18:58:21.824,-0.075,0.0
2021-08-19 18:58:21.828,-0.055,0.0
2021-08-19 18:58:21.832,-0.03,0.0
2021-08-19 18:58:21.836,-0.015,0.01
2021-08-19 18:58:21.840,0.015,-0.005
2021-08-19 18:58:21.844,0.05,-0.015
2021-08-19 18:58:21.848,0.06,-0.01
2021-08-19 18:58:21.852,0.105,-0.04
2021-08-19 18:58:21.856,0.125,-0.04
2021-08-19 18:58:21.860,0.165,-0.04
2021-08-19 18:58:21.864,0.17,-0.05
2021-08-19 18:58:21.868,0.185,-0.04
2021-08-19 18:58:21.872,0.215,-0.03
2021-08-19 18:58:21.876,0.24,-0.05
2021-08-19 18:58:21.880,0.235,-0.04
2021-08-19 18:58:21.884,0.245,-0.06
2021-08-19 18:58:21.888,0.245,-0.035
2021-08-19 18:58:21.892,0.235,-0.035
2021-08-19 18:58:21.896,0.22,-0.01
2021-08-19 18:58:21.900,0.21,0.01
2021-08-19 18:58:21.904,0.23,0.05
2021-08-19 18:58:21.908,0.21,0.065
2021-08-19 18:58:21.912,0.18,0.045
2021-08-19 18:58:21.916,0.165,0.065
2021-08-19 18:58:21.920,0.17,0.05
2021-08-19 18:58:21.924,0.165,0.04
2021-08-19 18:58:21.928,0.135,0.05
2021-08-19 18:58:21.932,0.13,0.065
2021-08-19 18:58:21.936,0.125,0.02
2021-08-19 18:58:21.940,0.095,0.01
2021-08-19 18:58:21.944,0.04,-0.045
2021-08-19 18:58:21.948,0.02,-0.035
2021-08-19 18:58:21.952,0.015,-0.005
2021-08-19 18:58:21.956,-0.005,-0.015
2021-08-19 18:58:21.960,-0.035,-0.01
2021-08-19 18:58:21.964,-0.07,-0.015
2021-08-19 18:58:21.968,-0.13,0.0
2021-08-19 18:58:21.972,-0.17,0.025
2021-08-19 18:58:21.976,-0.175,0.035
2021-08-19 18:58:21.980,-0.175,0.035
2021-08-19 18:58:21.984,-0.195,0.03
2021-08-19 18:58:21.988,-0.205,0.02
2021-08-19 18:58:21.992,-0.235,-0.005
2021-08-19 18:58:21.996,-0.23,0.01
2021-08-19 18:58:22.000,-0.26,0.01
2021-08-19 18:58:22.004,-0.27,0.005
2021-08-19 18:58:22.008,-0.275,0.005
2021-08-19 18:58:22.012,-0.26,0.0
2021-08-19 18:58:22.016,-0.275,0.02
2021-08-19 18:58:22.020,-0.27,-0.01
2021-08-19 18:58:22.024,-0.28,0.0
2021-08-19 18:58:22.028,-0.28,0.015
2021-08-19 18:58:22.032,-0.29,0.015
2021-08-19 18:58:22.036,-0.295,0.0
2021-08-19 18:58:22.040,-0.3,0.0
2021-08-19 18:58:22.044,-0.3,0.015
2021-08-19 18:58:22.048,-0.31,-0.01
2021-08-19 18:58:22.052,-0.345,0.01
2021-08-19 18:58:22.056,-0.385,-0.015
2021-08-19 18:58:22.060,-0.44,-0.05
2021-08-19 18:58:22.064,-0.445,-0.04
2021-08-19 18:58:22.068,-0.39,-0.065
2021-08-19 18:58:22.072,-0.245,-0.125
2021-08-19 18:58:22.076,0.085,-0.18
2021-08-19 18:58:22.080,0.48,-0.28
2021-08-19 18:58:22.084,0.815,-0.33
2021-08-19 18:58:22.088,0.875,-0.295
2021-08-19 18:58:22.092,0.505,-0.005
2021-08-19 18:58:22.096,-0.245,0.365
2021-08-19 18:58:22.100,-0.915,0.615
2021-08-19 18:58:22.104,-1.28,0.695
2021-08-19 18:58:22.108,-1.225,0.47
2021-08-19 18:58:22.112,-0.96,0.155
2021-08-19 18:58:22.116,-0.645,-0.065
2021-08-19 18:58:22.120,-0.475,-0.105
2021-08-19 18:58:22.124,-0.37,-0.09
2021-08-19 18:58:22.128,-0.355,-0.06
2021-08-19 18:58:22.132,-0.345,0.0
2021-08-19 18:58:22.136,-0.345,0.035
2021-08-19 18:58:22.140,-0.31,0.005
2021-08-19 18:58:22.144,-0.34,0.05
2021-08-19 18:58:22.148,-0.3,0.02
2021-08-19 18:58:22.152,-0.305,0.03
2021-08-19 18:58:22.156,-0.315,0.03
2021-08-19 18:58:22.160,-0.3,0.045
2021-08-19 18:58:22.164,-0.3,0.04
2021-08-19 18:58:22.168,-0.315,0.045
2021-08-19 18:58:22.172,-0.305,0.045
2021-08-19 18:58:22.176,-0.28,0.045
2021-08-19 18:58:22.180,-0.29,0.04
2021-08-19 18:58:22.184,-0.305,0.05
2021-08-19 18:58:22.188,-0.27,0.06
2021-08-19 18:58:22.192,-0.28,0.065
2021-08-19 18:58:22.196,-0.27,0.045
2021-08-19 18:58:22.200,-0.275,0.04
2021-08-19 18:58:22.204,-0.26,0.075
2021-08-19 18:58:22.208,-0.27,0.055
2021-08-19 18:58:22.212,-0.255,0.075
2021-08-19 18:58:22.216,-0.245,0.07
2021-08-19 18:58:22.220,-0.21,0.06
2021-08-19 18:58:22.224,-0.22,0.07
2021-08-19 18:58:22.228,-0.205,0.06
2021-08-19 18:58:22.232,-0.19,0.07
2021-08-19 18:58:22.236,-0.17,0.095
2021-08-19 18:58:22.240,-0.135,0.07
2021-08-19 18:58:22.244,-0.15,0.065
2021-08-19 18:58:22.248,-0.13,0.08
2021-08-19 18:58:22.252,-0.1,0.07
2021-08-19 18:58:22.256,-0.06,0.07
2021-08-19 18:58:22.260,-0.025,0.075
2021-08-19 18:58:22.264,0.01,0.065
2021-08-19 18:58:22.268,0.06,0.08
2021-08-19 18:58:22.272,0.095,0.095
2021-08-19 18:58:22.276,0.15,0.1
2021-08-19 18:58:22.280,0.185,0.145
2021-08-19 18:58:22.284,0.21,0.145
2021-08-19 18:58:22.288,0.215,0.125
2021-08-19 18:58:22.292,0.24,0.115
2021-08-19 18:58:22.296,0.28,0.1
2021-08-19 18:58:22.300,0.305,0.065
2021-08-19 18:58:22.304,0.31,0.115
2021-08-19 18:58:22.308,0.295,0.085
2021-08-19 18:58:22.312,0.285,0.045
2021-08-19 18:58:22.316,0.27,0.035
2021-08-19 18:58:22.320,0.265,0.005
2021-08-19 18:58:22.324,0.235,-0.005
2021-08-19 18:58:22.328,0.215,0.0
2021-08-19 18:58:22.332,0.165,-0.025
2021-08-19 18:58:22.336,0.12,-0.015
2021-08-19 18:58:22.340,0.065,0.005
2021-08-19 18:58:22.344,0.02,0.035
2021-08-19 18:58:22.348,-0.035,0.055
2021-08-19 18:58:22.352,-0.035,0.055
2021-08-19 18:58:22.356,-0.075,0.03
2021-08-19 18:58:22.360,-0.095,0.055
2021-08-19 18:58:22.364,-0.13,0.025
2021-08-19 18:58:22.368,-0.155,0.045
2021-08-19 18:58:22.372,-0.18,0.04
2021-08-19 18:58:22.376,-0.185,0.04
2021-08-19 18:58:22.380,-0.195,0.025
2021-08-19 18:58:22.384,-0.215,0.035
2021-08-19 18:58:22.388,-0.265,0.025
2021-08-19 18:58:22.392,-0.24,0.035
2021-08-19 18:58:22.396,-0.255,0.045
2021-08-19 18:58:22.400,-0.26,0.03
2021-08-19 18:58:22.404,-0.27,0.03
2021-08-19 18:58:22.408,-0.27,0.02
2021-08-19 18:58:22.412,-0.26,0.04
2021-08-19 18:58:22.416,-0.285,0.045
2021-08-19 18:58:22.420,-0.28,0.045
2021-08-19 18:58:22.424,-0.29,0.035
2021-08-19 18:58:22.428,-0.29,0.06
2021-08-19 18:58:22.432,-0.28,0.065
2021-08-19 18:58:22.436,-0.275,0.025
2021-08-19 18:58:22.440,-0.29,0.06
2021-08-19 18:58:22.444,-0.28,0.045
2021-08-19 18:58:22.448,-0.27,0.03
2021-08-19 18:58:22.452,-0.265,0.04
2021-08-19 18:58:22.456,-0.27,0.07
2021-08-19 18:58:22.460,-0.27,0.04
2021-08-19 18:58:22.464,-0.28,0.07
2021-08-19 18:58:22.468,-0.295,0.055
2021-08-19 18:58:22.472,-0.255,0.065
2021-08-19 18:58:22.476,-0.265,0.05
2021-08-19 18:58:22.480,-0.255,0.065
2021-08-19 18:58:22.484,-0.245,0.075
2021-08-19 18:58:22.488,-0.255,0.085
2021-08-19 18:58:22.492,-0.26,0.07
2021-08-19 18:58:22.496,-0.24,0.075
2021-08-19 18:58:22.500,-0.245,0.085
2021-08-19 18:58:22.504,-0.245,0.075
2021-08-19 18:58:22.508,-0.235,0.085
2021-08-19 18:58:22.512,-0.23,0.1
2021-08-19 18:58:22.516,-0.235,0.07
2021-08-19 18:58:22.520,-0.245,0.095
2021-08-19 18:58:22.524,-0.215,0.08
2021-08-19 18:58:22.528,-0.235,0.07
2021-08-19 18:58:22.532,-0.235,0.08
2021-08-19 18:58:22.536,-0.245,0.07
2021-08-19 18:58:22.540,-0.235,0.08
2021-08-19 18:58:22.544,-0.24,0.075
2021-08-19 18:58:22.548,-0.235,0.09
2021-08-19 18:58:22.552,-0.24,0.08
2021-08-19 18:58:22.556,-0.25,0.095
2021-08-19 18:58:22.560,-0.225,0.075
2021-08-19 18:58:22.564,-0.235,0.08
2021-08-19 18:58:22.568,-0.23,0.075
2021-08-19 18:58:22.572,-0.23,0.075
2021-08-19 18:58:22.576,-0.215,0.085
2021-08-19 18:58:22.580,-0.225,0.075
2021-08-19 18:58:22.584,-0.225,0.08
2021-08-19 18:58:22.588,-0.2,0.1
2021-08-19 18:58:22.592,-0.235,0.11
2021-08-19 18:58:22.596,-0.23,0.075
2021-08-19 18:58:22.600,-0.22,0.085
2021-08-19 18:58:22.604,-0.235,0.095
2021-08-19 18:58:22.608,-0.23,0.1
2021-08-19 18:58:22.612,-0.225,0.095
2021-08-19 18:58:22.616,-0.23,0.085
2021-08-19 18:58:22.620,-0.235,0.075
2021-08-19 18:58:22.624,-0.23,0.075
2021-08-19 18:58:22.628,-0.235,0.085
2021-08-19 18:58:22.632,-0.215,0.07
2021-08-19 18:58:22.636,-0.24,0.06
2021-08-19 18:58:22.640,-0.215,0.065
2021-08-19 18:58:22.644,-0.2,0.06
2021-08-19 18:58:22.648,-0.205,0.095
2021-08-19 18:58:22.652,-0.17,0.085
2021-08-19 18:58:22.656,-0.155,0.115
2021-08-19 18:58:22.660,-0.16,0.13
2021-08-19 18:58:22.664,-0.145,0.155
2021-08-19 18:58:22.668,-0.16,0.19
2021-08-19 18:58:22.672,-0.14,0.16
2021-08-19 18:58:22.676,-0.12,0.13
2021-08-19 18:58:22.680,-0.08,0.125
2021-08-19 18:58:22.684,-0.075,0.13
2021-08-19 18:58:22.688,-0.075,0.1
2021-08-19 18:58:22.692,-0.065,0.07
2021-08-19 18:58:22.696,-0.06,0.085
2021-08-19 18:58:22.700,-0.065,0.04
2021-08-19 18:58:22.704,-0.07,0.01
2021-08-19 18:58:22.708,-0.105,0.015
2021-08-19 18:58:22.712,-0.085,-0.01
2021-08-19 18:58:22.716,-0.105,0.0
2021-08-19 18:58:22.720,-0.14,0.015
2021-08-19 18:58:22.724,-0.17,0.01
2021-08-19 18:58:22.728,-0.18,0.05
2021-08-19 18:58:22.732,-0.195,0.05
2021-08-19 18:58:22.736,-0.205,0.045
2021-08-19 18:58:22.740,-0.215,0.07
2021-08-19 18:58:22.744,-0.215,0.025
2021-08-19 18:58:22.748,-0.245,0.055
2021-08-19 18:58:22.752,-0.24,0.035
2021-08-19 18:58:22.756,-0.245,0.03
2021-08-19 18:58:22.760,-0.235,0.035
2021-08-19 18:58:22.764,-0.25,0.035
2021-08-19 18:58:22.768,-0.275,0.055
2021-08-19 18:58:22.772,-0.265,0.045
2021-08-19 18:58:22.776,-0.265,0.035
2021-08-19 18:58:22.780,-0.28,0.04
2021-08-19 18:58:22.784,-0.275,0.04
2021-08-19 18:58:22.788,-0.26,0.03
2021-08-19 18:58:22.792,-0.28,0.02
2021-08-19 18:58:22.796,-0.275,0.035
2021-08-19 18:58:22.800,-0.305,0.04
2021-08-19 18:58:22.804,-0.355,0.035
2021-08-19 18:58:22.808,-0.43,0.04
2021-08-19 18:58:22.812,-0.44,0.03
2021-08-19 18:58:22.816,-0.43,0.015
2021-08-19 18:58:22.820,-0.385,0.0
2021-08-19 18:58:22.824,-0.23,-0.055
2021-08-19 18:58:22.828,0.105,-0.175
2021-08-19 18:58:22.832,0.48,-0.29
2021-08-19 18:58:22.836,0.865,-0.35
2021-08-19 18:58:22.840,1.145,-0.22
2021-08-19 18:58:22.844,1.1,0.005
2021-08-19 18:58:22.848,0.59,0.325
2021-08-19 18:58:22.852,-0.105,0.55
2021-08-19 18:58:22.856,-0.715,0.7
2021-08-19 18:58:22.860,-1.06,0.645
2021-08-19 18:58:22.864,-1.04,0.33
2021-08-19 18:58:22.868,-0.92,0.02
2021-08-19 18:58:22.872,-0.75,-0.14
2021-08-19 18:58:22.876,-0.555,-0.18
2021-08-19 18:58:22.880,-0.435,-0.12
2021-08-19 18:58:22.884,-0.37,-0.09
2021-08-19 18:58:22.888,-0.32,-0.02
2021-08-19 18:58:22.892,-0.305,0.015
2021-08-19 18:58:22.896,-0.295,0.045
2021-08-19 18:58:22.900,-0.3,0.055
2021-08-19 18:58:22.904,-0.28,0.06
2021-08-19 18:58:22.908,-0.3,0.055
2021-08-19 18:58:22.912,-0.285,0.075
2021-08-19 18:58:22.916,-0.285,0.05
2021-08-19 18:58:22.920,-0.28,0.055
2021-08-19 18:58:22.924,-0.28,0.07
2021-08-19 18:58:22.928,-0.26,0.05
2021-08-19 18:58:22.932,-0.26,0.08
2021-08-19 18:58:22.936,-0.26,0.09
2021-08-19 18:58:22.940,-0.25,0.09
2021-08-19 18:58:22.944,-0.24,0.09
2021-08-19 18:58:22.948,-0.23,0.09
2021-08-19 18:58:22.952,-0.215,0.07
2021-08-19 18:58:22.956,-0.2,0.09
2021-08-19 18:58:22.960,-0.22,0.08
2021-08-19 18:58:22.964,-0.23,0.075
2021-08-19 18:58:22.968,-0.225,0.075
2021-08-19 18:58:22.972,-0.175,0.09
2021-08-19 18:58:22.976,-0.165,0.06
2021-08-19 18:58:22.980,-0.17,0.065
2021-08-19 18:58:22.984,-0.165,0.075
2021-08-19 18:58:22.988,-0.155,0.06
2021-08-19 18:58:22.992,-0.15,0.08
2021-08-19 18:58:22.996,-0.14,0.075
2021-08-19 18:58:23.000,-0.15,0.075
2021-08-19 18:58:23.004,-0.125,0.075
2021-08-19 18:58:23.008,-0.095,0.06
2021-08-19 18:58:23.012,-0.07,0.085
2021-08-19 18:58:23.016,-0.045,0.07
2021-08-19 18:58:23.020,-0.025,0.07
2021-08-19 18:58:23.024,-0.015,0.06
2021-08-19 18:58:23.028,0.0,0.05
2021-08-19 18:58:23.032,0.02,0.035
2021-08-19 18:58:23.036,0.06,0.03
2021-08-19 18:58:23.040,0.075,0.03
2021-08-19 18:58:23.044,0.105,0.02
2021-08-19 18:58:23.048,0.16,0.03
2021-08-19 18:58:23.052,0.17,0.03
2021-08-19 18:58:23.056,0.22,0.04
2021-08-19 18:58:23.060,0.245,0.05
2021-08-19 18:58:23.064,0.295,0.065
2021-08-19 18:58:23.068,0.295,0.085
2021-08-19 18:58:23.072,0.3,0.095
2021-08-19 18:58:23.076,0.285,0.075
2021-08-19 18:58:23.080,0.29,0.07
2021-08-19 18:58:23.084,0.315,0.065
2021-08-19 18:58:23.088,0.305,0.035
2021-08-19 18:58:23.092,0.315,0.045
2021-08-19 18:58:23.096,0.325,0.035
2021-08-19 18:58:23.100,0.3,0.045
2021-08-19 18:58:23.104,0.27,0.015
2021-08-19 18:58:23.108,0.24,0.01
2021-08-19 18:58:23.112,0.195,-0.015
2021-08-19 18:58:23.116,0.185,-0.025
2021-08-19 18:58:23.120,0.125,-0.015
2021-08-19 18:58:23.124,0.11,-0.01
2021-08-19 18:58:23.128,0.055,0.0
2021-08-19 18:58:23.132,-0.01,0.035
2021-08-19 18:58:23.136,-0.035,0.03
2021-08-19 18:58:23.140,-0.03,0.025
2021-08-19 18:58:23.144,-0.06,0.055
2021-08-19 18:58:23.148,-0.115,0.05
2021-08-19 18:58:23.152,-0.13,0.04
2021-08-19 18:58:23.156,-0.17,0.04
2021-08-19 18:58:23.160,-0.17,0.015
2021-08-19 18:58:23.164,-0.195,0.025
2021-08-19 18:58:23.168,-0.21,0.035
2021-08-19 18:58:23.172,-0.22,0.035
2021-08-19 18:58:23.176,-0.225,0.035
2021-08-19 18:58:23.180,-0.245,0.03
2021-08-19 18:58:23.184,-0.24,0.035
2021-08-19 18:58:23.188,-0.25,0.015
2021-08-19 18:58:23.192,-0.26,0.035
2021-08-19 18:58:23.196,-0.25,0.035
2021-08-19 18:58:23.200,-0.255,0.06
2021-08-19 18:58:23.204,-0.255,0.065
2021-08-19 18:58:23.208,-0.28,0.05
2021-08-19 18:58:23.212,-0.285,0.045
2021-08-19 18:58:23.216,-0.295,0.05
2021-08-19 18:58:23.220,-0.28,0.035
2021-08-19 18:58:23.224,-0.31,0.045
2021-08-19 18:58:23.228,-0.305,0.045
2021-08-19 18:58:23.232,-0.27,0.045
2021-08-19 18:58:23.236,-0.26,0.06
2021-08-19 18:58:23.240,-0.3,0.07
2021-08-19 18:58:23.244,-0.295,0.08
2021-08-19 18:58:23.248,-0.315,0.055
2021-08-19 18:58:23.252,-0.295,0.035
2021-08-19 18:58:23.256,-0.315,0.055
2021-08-19 18:58:23.260,-0.28,0.08
2021-08-19 18:58:23.264,-0.295,0.08
2021-08-19 18:58:23.268,-0.305,0.095
2021-08-19 18:58:23.272,-0.28,0.095
2021-08-19 18:58:23.276,-0.28,0.09
2021-08-19 18:58:23.280,-0.285,0.09
2021-08-19 18:58:23.284,-0.275,0.09
2021-08-19 18:58:23.288,-0.28,0.08
2021-08-19 18:58:23.292,-0.29,0.105
2021-08-19 18:58:23.296,-0.265,0.07
2021-08-19 18:58:23.300,-0.28,0.095
2021-08-19 18:58:23.304,-0.28,0.09
2021-08-19 18:58:23.308,-0.28,0.09
2021-08-19 18:58:23.312,-0.27,0.095
2021-08-19 18:58:23.316,-0.25,0.095
2021-08-19 18:58:23.320,-0.245,0.055
2021-08-19 18:58:23.324,-0.255,0.07
2021-08-19 18:58:23.328,-0.25,0.075
2021-08-19 18:58:23.332,-0.22,0.08
2021-08-19 18:58:23.336,-0.21,0.075
2021-08-19 18:58:23.340,-0.24,0.105
2021-08-19 18:58:23.344,-0.25,0.07
2021-08-19 18:58:23.348,-0.23,0.065
2021-08-19 18:58:23.352,-0.24,0.075
2021-08-19 18:58:23.356,-0.265,0.085
2021-08-19 18:58:23.360,-0.285,0.07
2021-08-19 18:58:23.364,-0.275,0.06
2021-08-19 18:58:23.368,-0.24,0.03
2021-08-19 18:58:23.372,-0.06,-0.005
2021-08-19 18:58:23.376,0.2,-0.065
2021-08-19 18:58:23.380,0.58,-0.14
2021-08-19 18:58:23.384,0.94,-0.235
2021-08-19 18:58:23.388,1.18,-0.33
2021-08-19 18:58:23.392,1.14,-0.29
2021-08-19 18:58:23.396,0.65,-0.08
2021-08-19 18:58:23.400,-0.15,0.245
2021-08-19 18:58:23.404,-0.84,0.52
2021-08-19 18:58:23.408,-1.145,0.61
2021-08-19 18:58:23.412,-1.095,0.445
2021-08-19 18:58:23.416,-0.905,0.145
2021-08-19 18:58:23.420,-0.64,-0.01
2021-08-19 18:58:23.424,-0.42,-0.09
2021-08-19 18:58:23.428,-0.33,-0.13
2021-08-19 18:58:23.432,-0.25,-0.07
2021-08-19 18:58:23.436,-0.24,0.025
2021-08-19 18:58:23.440,-0.225,0.075
2021-08-19 18:58:23.444,-0.185,0.1
2021-08-19 18:58:23.448,-0.16,0.14
2021-08-19 18:58:23.452,-0.175,0.15
2021-08-19 18:58:23.456,-0.165,0.17
2021-08-19 18:58:23.460,-0.135,0.175
2021-08-19 18:58:23.464,-0.095,0.135
2021-08-19 18:58:23.468,-0.075,0.125
2021-08-19 18:58:23.472,-0.045,0.115
2021-08-19 18:58:23.476,-0.055,0.14
2021-08-19 18:58:23.480,-0.04,0.105
2021-08-19 18:58:23.484,-0.015,0.11
2021-08-19 18:58:23.488,-0.025,0.09
2021-08-19 18:58:23.492,-0.01,0.055
2021-08-19 18:58:23.496,0.0,0.05
2021-08-19 18:58:23.500,-0.005,0.05
2021-08-19 18:58:23.504,-0.01,0.04
2021-08-19 18:58:23.508,-0.03,0.04
2021-08-19 18:58:23.512,-0.06,0.06
2021-08-19 18:58:23.516,-0.065,0.07
2021-08-19 18:58:23.520,-0.07,0.11
2021-08-19 18:58:23.524,-0.06,0.075
2021-08-19 18:58:23.528,-0.07,0.085
2021-08-19 18:58:23.532,-0.07,0.095
2021-08-19 18:58:23.536,-0.075,0.065
2021-08-19 18:58:23.540,-0.06,0.07
2021-08-19 18:58:23.544,-0.045,0.08
2021-08-19 18:58:23.548,-0.01,0.065
2021-08-19 18:58:23.552,0.0,0.06
2021-08-19 18:58:23.556,0.02,0.065
2021-08-19 18:58:23.560,0.06,0.075
2021-08-19 18:58:23.564,0.085,0.06
2021-08-19 18:58:23.568,0.12,0.075
2021-08-19 18:58:23.572,0.165,0.065
2021-08-19 18:58:23.576,0.21,0.05
2021-08-19 18:58:23.580,0.24,0.065
2021-08-19 18:58:23.584,0.27,0.055
2021-08-19 18:58:23.588,0.31,0.065
2021-08-19 18:58:23.592,0.31,0.065
2021-08-19 18:58:23.596,0.31,0.065
2021-08-19 18:58:23.600,0.315,0.05
2021-08-19 18:58:23.604,0.315,0.04
2021-08-19 18:58:23.608,0.315,0.06
2021-08-19 18:58:23.612,0.305,0.07
2021-08-19 18:58:23.616,0.3,0.055
2021-08-19 18:58:23.620,0.27,0.08
2021-08-19 18:58:23.624,0.26,0.075
2021-08-19 18:58:23.628,0.22,0.07
2021-08-19 18:58:23.632,0.185,0.065
2021-08-19 18:58:23.636,0.16,0.095
2021-08-19 18:58:23.640,0.14,0.065
2021-08-19 18:58:23.644,0.09,0.075
2021-08-19 18:58:23.648,0.065,0.095
2021-08-19 18:58:23.652,0.015,0.105
2021-08-19 18:58:23.656,-0.02,0.115
2021-08-19 18:58:23.660,-0.035,0.085
2021-08-19 18:58:23.664,-0.045,0.08
2021-08-19 18:58:23.668,-0.07,0.09
2021-08-19 18:58:23.672,-0.09,0.1
2021-08-19 18:58:23.676,-0.105,0.1
2021-08-19 18:58:23.680,-0.13,0.11
2021-08-19 18:58:23.684,-0.13,0.12
2021-08-19 18:58:23.688,-0.15,0.085
2021-08-19 18:58:23.692,-0.145,0.09
2021-08-19 18:58:23.696,-0.16,0.085
2021-08-19 18:58:23.700,-0.17,0.08
2021-08-19 18:58:23.704,-0.16,0.1
2021-08-19 18:58:23.708,-0.17,0.09
2021-08-19 18:58:23.712,-0.16,0.09
2021-08-19 18:58:23.716,-0.17,0.09
2021-08-19 18:58:23.720,-0.16,0.105
2021-08-19 18:58:23.724,-0.16,0.09
2021-08-19 18:58:23.728,-0.175,0.105
2021-08-19 18:58:23.732,-0.145,0.075
2021-08-19 18:58:23.736,-0.13,0.07
2021-08-19 18:58:23.740,-0.13,0.06
2021-08-19 18:58:23.744,-0.135,0.075
2021-08-19 18:58:23.748,-0.13,0.075
2021-08-19 18:58:23.752,-0.12,0.07
2021-08-19 18:58:23.756,-0.135,0.05
2021-08-19 18:58:23.760,-0.12,0.05
2021-08-19 18:58:23.764,-0.13,0.075
2021-08-19 18:58:23.768,-0.115,0.08
2021-08-19 18:58:23.772,-0.11,0.08
2021-08-19 18:58:23.776,-0.115,0.085
2021-08-19 18:58:23.780,-0.115,0.075
2021-08-19 18:58:23.784,-0.125,0.075
2021-08-19 18:58:23.788,-0.14,0.065
2021-08-19 18:58:23.792,-0.135,0.075
2021-08-19 18:58:23.796,-0.13,0.065
2021-08-19 18:58:23.800,-0.135,0.065
2021-08-19 18:58:23.804,-0.14,0.075
2021-08-19 18:58:23.808,-0.14,0.07
2021-08-19 18:58:23.812,-0.14,0.065
2021-08-19 18:58:23.816,-0.135,0.06
2021-08-19 18:58:23.820,-0.125,0.08
2021-08-19 18:58:23.824,-0.135,0.1
2021-08-19 18:58:23.828,-0.11,0.13
2021-08-19 18:58:23.832,-0.095,0.155
2021-08-19 18:58:23.836,-0.1,0.15
2021-08-19 18:58:23.840,-0.12,0.165
2021-08-19 18:58:23.844,-0.1,0.165
2021-08-19 18:58:23.848,-0.05,0.12
2021-08-19 18:58:23.852,-0.04,0.13
2021-08-19 18:58:23.856,-0.025,0.125
2021-08-19 18:58:23.860,-0.03,0.085
2021-08-19 18:58:23.864,-0.015,0.065
2021-08-19 18:58:23.868,-0.02,0.085
2021-08-19 18:58:23.872,-0.03,0.045
2021-08-19 18:58:23.876,-0.035,0.015
2021-08-19 18:58:23.880,-0.045,0.01
2021-08-19 18:58:23.884,-0.055,0.0
2021-08-19 18:58:23.888,-0.07,0.02
2021-08-19 18:58:23.892,-0.105,0.04
2021-08-19 18:58:23.896,-0.145,0.05
2021-08-19 18:58:23.900,-0.145,0.035
2021-08-19 18:58:23.904,-0.16,0.035
2021-08-19 18:58:23.908,-0.155,0.05
2021-08-19 18:58:23.912,-0.175,0.05
2021-08-19 18:58:23.916,-0.18,0.035
2021-08-19 18:58:23.920,-0.2,0.05
2021-08-19 18:58:23.924,-0.21,0.04
2021-08-19 18:58:23.928,-0.205,0.04
2021-08-19 18:58:23.932,-0.22,0.035
2021-08-19 18:58:23.936,-0.25,0.06
2021-08-19 18:58:23.940,-0.275,0.035
2021-08-19 18:58:23.944,-0.315,0.02
2021-08-19 18:58:23.948,-0.365,0.03
2021-08-19 18:58:23.952,-0.38,-0.005
2021-08-19 18:58:23.956,-0.365,0.0
2021-08-19 18:58:23.960,-0.23,-0.04
2021-08-19 18:58:23.964,0.035,-0.12
2021-08-19 18:58:23.968,0.44,-0.195
2021-08-19 18:58:23.972,0.825,-0.275
2021-08-19 18:58:23.976,1.18,-0.235
2021-08-19 18:58:23.980,1.21,-0.04
2021-08-19 18:58:23.984,0.825,0.235
2021-08-19 18:58:23.988,0.17,0.45
2021-08-19 18:58:23.992,-0.465,0.565
2021-08-19 18:58:23.996,-0.92,0.655
2021-08-19 18:58:24.000,-1.02,0.585
2021-08-19 18:58:24.004,-0.975,0.24
2021-08-19 18:58:24.008,-0.825,-0.055
2021-08-19 18:58:24.012,-0.66,-0.165
2021-08-19 18:58:24.016,-0.49,-0.175
2021-08-19 18:58:24.020,-0.385,-0.155
2021-08-19 18:58:24.024,-0.31,-0.13
2021-08-19 18:58:24.028,-0.305,-0.045
2021-08-19 18:58:24.032,-0.285,0.015
2021-08-19 18:58:24.036,-0.29,0.04
2021-08-19 18:58:24.040,-0.3,0.03
2021-08-19 18:58:24.044,-0.28,0.045
2021-08-19 18:58:24.048,-0.265,0.025
2021-08-19 18:58:24.052,-0.265,0.04
2021-08-19 18:58:24.056,-0.265,0.06
2021-08-19 18:58:24.060,-0.255,0.055
2021-08-19 18:58:24.064,-0.255,0.05
2021-08-19 18:58:24.068,-0.26,0.05
2021-08-19 18:58:24.072,-0.235,0.045
2021-08-19 18:58:24.076,-0.23,0.065
2021-08-19 18:58:24.080,-0.22,0.055
2021-08-19 18:58:24.084,-0.225,0.065
2021-08-19 18:58:24.088,-0.225,0.055
2021-08-19 18:58:24.092,-0.225,0.065
2021-08-19 18:58:24.096,-0.215,0.08
2021-08-19 18:58:24.100,-0.205,0.07
2021-08-19 18:58:24.104,-0.215,0.07
2021-08-19 18:58:24.108,-0.19,0.07
2021-08-19 18:58:24.112,-0.21,0.055
2021-08-19 18:58:24.116,-0.19,0.06
2021-08-19 18:58:24.120,-0.185,0.065
2021-08-19 18:58:24.124,-0.165,0.065
2021-08-19 18:58:24.128,-0.155,0.07
2021-08-19 18:58:24.132,-0.165,0.06
2021-08-19 18:58:24.136,-0.125,0.035
2021-08-19 18:58:24.140,-0.11,0.02
2021-08-19 18:58:24.144,-0.095,0.035
2021-08-19 18:58:24.148,-0.07,0.05
2021-08-19 18:58:24.152,-0.06,0.055
2021-08-19 18:58:24.156,-0.04,0.04
2021-08-19 18:58:24.160,-0.02,0.02
2021-08-19 18:58:24.164,0.005,0.02
2021-08-19 18:58:24.168,0.03,0.03
2021-08-19 18:58:24.172,0.07,0.02
2021-08-19 18:58:24.176,0.1,0.005
2021-08-19 18:58:24.180,0.145,0.02
2021-08-19 18:58:24.184,0.16,0.01
2021-08-19 18:58:24.188,0.175,0.0
2021-08-19 18:58:24.192,0.2,-0.015
2021-08-19 18:58:24.196,0.2,-0.015
2021-08-19 18:58:24.200,0.215,-0.01
2021-08-19 18:58:24.204,0.205,0.005
2021-08-19 18:58:24.208,0.22,0.0
2021-08-19 18:58:24.212,0.215,0.02
2021-08-19 18:58:24.216,0.2,0.015
2021-08-19 18:58:24.220,0.18,0.0
2021-08-19 18:58:24.224,0.155,0.0
2021-08-19 18:58:24.228,0.155,0.02
2021-08-19 18:58:24.232,0.135,0.035
2021-08-19 18:58:24.236,0.135,0.04
2021-08-19 18:58:24.240,0.12,0.06
2021-08-19 18:58:24.244,0.125,0.075
2021-08-19 18:58:24.248,0.1,0.12
2021-08-19 18:58:24.252,0.08,0.16
2021-08-19 18:58:24.256,0.065,0.13
2021-08-19 18:58:24.260,0.035,0.13
2021-08-19 18:58:24.264,0.045,0.115
2021-08-19 18:58:24.268,0.045,0.095
2021-08-19 18:58:24.272,0.015,0.105
2021-08-19 18:58:24.276,0.03,0.105
2021-08-19 18:58:24.280,0.035,0.075
2021-08-19 18:58:24.284,0.0,0.065
2021-08-19 18:58:24.288,-0.03,0.01
2021-08-19 18:58:24.292,-0.025,0.03
2021-08-19 18:58:24.296,-0.05,0.02
2021-08-19 18:58:24.300,-0.065,0.0
2021-08-19 18:58:24.304,-0.065,0.015
2021-08-19 18:58:24.308,-0.115,0.04
2021-08-19 18:58:24.312,-0.15,0.02
2021-08-19 18:58:24.316,-0.19,0.07
2021-08-19 18:58:24.320,-0.2,0.08
2021-08-19 18:58:24.324,-0.22,0.07
2021-08-19 18:58:24.328,-0.24,0.065
2021-08-19 18:58:24.332,-0.27,0.075
2021-08-19 18:58:24.336,-0.275,0.07
2021-08-19 18:58:24.340,-0.275,0.075
2021-08-19 18:58:24.344,-0.3,0.075
2021-08-19 18:58:24.348,-0.305,0.07
2021-08-19 18:58:24.352,-0.315,0.065
2021-08-19 18:58:24.356,-0.285,0.055
2021-08-19 18:58:24.360,-0.29,0.055
2021-08-19 18:58:24.364,-0.31,0.065
2021-08-19 18:58:24.368,-0.305,0.07
2021-08-19 18:58:24.372,-0.31,0.055
2021-08-19 18:58:24.376,-0.31,0.075
2021-08-19 18:58:24.380,-0.305,0.08
2021-08-19 18:58:24.384,-0.3,0.08
2021-08-19 18:58:24.388,-0.285,0.06
2021-08-19 18:58:24.392,-0.29,0.075
2021-08-19 18:58:24.396,-0.31,0.12
2021-08-19 18:58:24.400,-0.3,0.1
2021-08-19 18:58:24.404,-0.285,0.07
2021-08-19 18:58:24.408,-0.285,0.07
2021-08-19 18:58:24.412,-0.275,0.065
2021-08-19 18:58:24.416,-0.27,0.07
2021-08-19 18:58:24.420,-0.28,0.065
2021-08-19 18:58:24.424,-0.295,0.09
2021-08-19 18:58:24.428,-0.26,0.085
2021-08-19 18:58:24.432,-0.27,0.09
2021-08-19 18:58:24.436,-0.275,0.07
2021-08-19 18:58:24.440,-0.275,0.06
2021-08-19 18:58:24.444,-0.275,0.085
2021-08-19 18:58:24.448,-0.255,0.07
2021-08-19 18:58:24.452,-0.25,0.085
2021-08-19 18:58:24.456,-0.255,0.085
2021-08-19 18:58:24.460,-0.25,0.075
2021-08-19 18:58:24.464,-0.255,0.075
2021-08-19 18:58:24.468,-0.25,0.09
2021-08-19 18:58:24.472,-0.265,0.075
2021-08-19 18:58:24.476,-0.255,0.075
2021-08-19 18:58:24.480,-0.26,0.09
2021-08-19 18:58:24.484,-0.26,0.075
2021-08-19 18:58:24.488,-0.275,0.075
2021-08-19 18:58:24.492,-0.26,0.095
2021-08-19 18:58:24.496,-0.255,0.095
2021-08-19 18:58:24.500,-0.235,0.085
2021-08-19 18:58:24.504,-0.255,0.085
2021-08-19 18:58:24.508,-0.255,0.085
2021-08-19 18:58:24.512,-0.23,0.08
2021-08-19 18:58:24.516,-0.23,0.09
2021-08-19 18:58:24.520,-0.215,0.085
2021-08-19 18:58:24.524,-0.245,0.1
2021-08-19 18:58:24.528,-0.315,0.08
2021-08-19 18:58:24.532,-0.325,0.08
2021-08-19 18:58:24.536,-0.28,0.085
2021-08-19 18:58:24.540,-0.17,0.095
2021-08-19 18:58:24.544,0.03,0.05
2021-08-19 18:58:24.548,0.34,-0.035
2021-08-19 18:58:24.552,0.74,-0.095
2021-08-19 18:58:24.556,1.11,-0.22
2021-08-19 18:58:24.560,1.33,-0.255
2021-08-19 18:58:24.564,1.275,-0.14
2021-08-19 18:58:24.568,0.775,0.075
2021-08-19 18:58:24.572,0.015,0.375
2021-08-19 18:58:24.576,-0.69,0.595
2021-08-19 18:58:24.580,-1.155,0.675
2021-08-19 18:58:24.584,-1.18,0.51
2021-08-19 18:58:24.588,-0.98,0.25
2021-08-19 18:58:24.592,-0.685,0.06
2021-08-19 18:58:24.596,-0.475,0.005
2021-08-19 18:58:24.600,-0.36,-0.035
2021-08-19 18:58:24.604,-0.285,-0.02
2021-08-19 18:58:24.608,-0.245,0.055
2021-08-19 18:58:24.612,-0.235,0.09
2021-08-19 18:58:24.616,-0.29,0.105
2021-08-19 18:58:24.620,-0.285,0.11
2021-08-19 18:58:24.624,-0.265,0.12
2021-08-19 18:58:24.628,-0.28,0.125
2021-08-19 18:58:24.632,-0.26,0.135
2021-08-19 18:58:24.636,-0.28,0.14
2021-08-19 18:58:24.640,-0.265,0.125
2021-08-19 18:58:24.644,-0.26,0.145
2021-08-19 18:58:24.648,-0.23,0.155
2021-08-19 18:58:24.652,-0.2,0.185
2021-08-19 18:58:24.656,-0.16,0.205
2021-08-19 18:58:24.660,-0.15,0.21
2021-08-19 18:58:24.664,-0.105,0.195
2021-08-19 18:58:24.668,-0.06,0.17
2021-08-19 18:58:24.672,-0.025,0.165
2021-08-19 18:58:24.676,-0.03,0.15
2021-08-19 18:58:24.680,-0.05,0.17
2021-08-19 18:58:24.684,-0.07,0.175
2021-08-19 18:58:24.688,-0.06,0.135
2021-08-19 18:58:24.692,-0.045,0.14
2021-08-19 18:58:24.696,-0.04,0.09
2021-08-19 18:58:24.700,0.005,0.08
2021-08-19 18:58:24.704,0.035,0.07
2021-08-19 18:58:24.708,0.09,0.06
2021-08-19 18:58:24.712,0.09,0.05
2021-08-19 18:58:24.716,0.055,0.04
2021-08-19 18:58:24.720,-0.015,0.045
2021-08-19 18:58:24.724,-0.08,0.075
2021-08-19 18:58:24.728,-0.11,0.105
2021-08-19 18:58:24.732,-0.095,0.12
2021-08-19 18:58:24.736,-0.035,0.135
2021-08-19 18:58:24.740,0.01,0.11
2021-08-19 18:58:24.744,0.07,0.085
2021-08-19 18:58:24.748,0.06,0.07
2021-08-19 18:58:24.752,0.07,0.065
2021-08-19 18:58:24.756,0.085,0.075
2021-08-19 18:58:24.760,0.165,0.075
2021-08-19 18:58:24.764,0.2,0.07
2021-08-19 18:58:24.768,0.175,0.075
2021-08-19 18:58:24.772,0.155,0.07
2021-08-19 18:58:24.776,0.135,0.075
2021-08-19 18:58:24.780,0.135,0.085
2021-08-19 18:58:24.784,0.175,0.085
2021-08-19 18:58:24.788,0.19,0.06
2021-08-19 18:58:24.792,0.175,0.05
2021-08-19 18:58:24.796,0.175,0.07
2021-08-19 18:58:24.800,0.21,0.09
2021-08-19 18:58:24.804,0.185,0.065
2021-08-19 18:58:24.808,0.16,0.07
2021-08-19 18:58:24.812,0.12,0.07
2021-08-19 18:58:24.816,0.115,0.085
2021-08-19 18:58:24.820,0.07,0.08
2021-08-19 18:58:24.824,0.025,0.095
2021-08-19 18:58:24.828,0.015,0.095
2021-08-19 18:58:24.832,0.03,0.09
2021-08-19 18:58:24.836,0.005,0.065
2021-08-19 18:58:24.840,-0.065,0.07
2021-08-19 18:58:24.844,-0.12,0.08
2021-08-19 18:58:24.848,-0.19,0.1
2021-08-19 18:58:24.852,-0.265,0.12
2021-08-19 18:58:24.856,-0.28,0.115
2021-08-19 18:58:24.860,-0.28,0.11
2021-08-19 18:58:24.864,-0.27,0.095
2021-08-19 18:58:24.868,-0.245,0.11
2021-08-19 18:58:24.872,-0.19,0.12
2021-08-19 18:58:24.876,-0.205,0.075
2021-08-19 18:58:24.880,-0.265,0.11
2021-08-19 18:58:24.884,-0.33,0.095
2021-08-19 18:58:24.888,-0.35,0.115
2021-08-19 18:58:24.892,-0.34,0.115
2021-08-19 18:58:24.896,-0.345,0.12
2021-08-19 18:58:24.900,-0.335,0.12
2021-08-19 18:58:24.904,-0.295,0.12
2021-08-19 18:58:24.908,-0.26,0.13
2021-08-19 18:58:24.912,-0.265,0.1
2021-08-19 18:58:24.916,-0.33,0.11
2021-08-19 18:58:24.920,-0.36,0.145
2021-08-19 18:58:24.924,-0.34,0.155
2021-08-19 18:58:24.928,-0.235,0.145
2021-08-19 18:58:24.932,-0.195,0.11
2021-08-19 18:58:24.936,-0.25,0.105
2021-08-19 18:58:24.940,-0.365,0.12
2021-08-19 18:58:24.944,-0.41,0.17
2021-08-19 18:58:24.948,-0.4,0.175
2021-08-19 18:58:24.952,-0.35,0.17
2021-08-19 18:58:24.956,-0.33,0.165
2021-08-19 18:58:24.960,-0.31,0.155
2021-08-19 18:58:24.964,-0.34,0.15
2021-08-19 18:58:24.968,-0.31,0.15
2021-08-19 18:58:24.972,-0.24,0.12
2021-08-19 18:58:24.976,-0.23,0.135
2021-08-19 18:58:24.980,-0.22,0.135
2021-08-19 18:58:24.984,-0.235,0.13
2021-08-19 18:58:24.988,-0.255,0.135
2021-08-19 18:58:24.992,-0.26,0.115
2021-08-19 18:58:24.996,-0.28,0.135
2021-08-19 18:58:25.000,-0.26,0.13
2021-08-19 18:58:25.004,-0.24,0.125
2021-08-19 18:58:25.008,-0.295,0.115
2021-08-19 18:58:25.012,-0.36,0.095
2021-08-19 18:58:25.016,-0.395,0.115
2021-08-19 18:58:25.020,-0.36,0.14
2021-08-19 18:58:25.024,-0.31,0.135
2021-08-19 18:58:25.028,-0.265,0.115
2021-08-19 18:58:25.032,-0.26,0.08
2021-08-19 18:58:25.036,-0.3,0.1
2021-08-19 18:58:25.040,-0.385,0.1
2021-08-19 18:58:25.044,-0.385,0.115
2021-08-19 18:58:25.048,-0.36,0.115
2021-08-19 18:58:25.052,-0.295,0.12
2021-08-19 18:58:25.056,-0.245,0.085
2021-08-19 18:58:25.060,-0.28,0.105
2021-08-19 18:58:25.064,-0.295,0.11
2021-08-19 18:58:25.068,-0.33,0.13
2021-08-19 18:58:25.072,-0.345,0.16
2021-08-19 18:58:25.076,-0.315,0.2
2021-08-19 18:58:25.080,-0.28,0.21
2021-08-19 18:58:25.084,-0.235,0.22
2021-08-19 18:58:25.088,-0.165,0.195
2021-08-19 18:58:25.092,-0.145,0.15
2021-08-19 18:58:25.096,-0.16,0.15
2021-08-19 18:58:25.100,-0.18,0.165
2021-08-19 18:58:25.104,-0.16,0.145
2021-08-19 18:58:25.108,-0.14,0.115
2021-08-19 18:58:25.112,-0.2,0.07
2021-08-19 18:58:25.116,-0.24,0.08
2021-08-19 18:58:25.120,-0.235,0.055
2021-08-19 18:58:25.124,-0.21,0.045
2021-08-19 18:58:25.128,-0.215,0.015
2021-08-19 18:58:25.132,-0.22,0.035
2021-08-19 18:58:25.136,-0.26,0.0
2021-08-19 18:58:25.140,-0.365,0.025
2021-08-19 18:58:25.144,-0.45,0.035
2021-08-19 18:58:25.148,-0.47,0.065
2021-08-19 18:58:25.152,-0.445,0.07
2021-08-19 18:58:25.156,-0.385,0.06
2021-08-19 18:58:25.160,-0.305,-0.015
2021-08-19 18:58:25.164,-0.08,-0.08
2021-08-19 18:58:25.168,0.265,-0.175
2021-08-19 18:58:25.172,0.735,-0.265
2021-08-19 18:58:25.176,1.125,-0.295
2021-08-19 18:58:25.180,1.095,-0.175
2021-08-19 18:58:25.184,0.605,0.07
2021-08-19 18:58:25.188,-0.1,0.42
2021-08-19 18:58:25.192,-0.675,0.655
2021-08-19 18:58:25.196,-1.1,0.79
2021-08-19 18:58:25.200,-1.16,0.705
2021-08-19 18:58:25.204,-1.04,0.335
2021-08-19 18:58:25.208,-0.825,0.02
2021-08-19 18:58:25.212,-0.675,-0.145
2021-08-19 18:58:25.216,-0.64,-0.18
2021-08-19 18:58:25.220,-0.62,-0.15
2021-08-19 18:58:25.224,-0.53,-0.075
2021-08-19 18:58:25.228,-0.4,0.005
2021-08-19 18:58:25.232,-0.32,0.05
2021-08-19 18:58:25.236,-0.325,0.055
2021-08-19 18:58:25.240,-0.39,0.055
2021-08-19 18:58:25.244,-0.45,0.085
2021-08-19 18:58:25.248,-0.425,0.105
2021-08-19 18:58:25.252,-0.35,0.1
2021-08-19 18:58:25.256,-0.35,0.08
2021-08-19 18:58:25.260,-0.45,0.09
2021-08-19 18:58:25.264,-0.47,0.09
2021-08-19 18:58:25.268,-0.43,0.11
2021-08-19 18:58:25.272,-0.39,0.115
2021-08-19 18:58:25.276,-0.395,0.11
2021-08-19 18:58:25.280,-0.42,0.1
2021-08-19 18:58:25.284,-0.42,0.105
2021-08-19 18:58:25.288,-0.42,0.11
2021-08-19 18:58:25.292,-0.42,0.09
2021-08-19 18:58:25.296,-0.42,0.11
2021-08-19 18:58:25.300,-0.395,0.115
2021-08-19 18:58:25.304,-0.38,0.1
2021-08-19 18:58:25.308,-0.385,0.115
2021-08-19 18:58:25.312,-0.355,0.11
2021-08-19 18:58:25.316,-0.305,0.1
2021-08-19 18:58:25.320,-0.255,0.125
2021-08-19 18:58:25.324,-0.255,0.105
2021-08-19 18:58:25.328,-0.305,0.095
2021-08-19 18:58:25.332,-0.32,0.135
2021-08-19 18:58:25.336,-0.27,0.12
2021-08-19 18:58:25.340,-0.185,0.115
2021-08-19 18:58:25.344,-0.165,0.125
2021-08-19 18:58:25.348,-0.17,0.105
2021-08-19 18:58:25.352,-0.145,0.105
2021-08-19 18:58:25.356,-0.19,0.085
2021-08-19 18:58:25.360,-0.25,0.115
2021-08-19 18:58:25.364,-0.23,0.11
2021-08-19 18:58:25.368,-0.185,0.16
2021-08-19 18:58:25.372,-0.135,0.12
2021-08-19 18:58:25.376,-0.1,0.115
2021-08-19 18:58:25.380,-0.055,0.105
2021-08-19 18:58:25.384,-0.03,0.1
2021-08-19 18:58:25.388,0.0,0.09
2021-08-19 18:58:25.392,0.015,0.09
2021-08-19 18:58:25.396,0.03,0.08
2021-08-19 18:58:25.400,0.05,0.095
2021-08-19 18:58:25.404,0.06,0.11
2021-08-19 18:58:25.408,0.075,0.09
2021-08-19 18:58:25.412,0.075,0.075
2021-08-19 18:58:25.416,0.075,0.075
2021-08-19 18:58:25.420,0.1,0.07
2021-08-19 18:58:25.424,0.09,0.075
2021-08-19 18:58:25.428,0.055,0.07
2021-08-19 18:58:25.432,0.0,0.08
2021-08-19 18:58:25.436,-0.005,0.11
2021-08-19 18:58:25.440,-0.005,0.1
2021-08-19 18:58:25.444,0.005,0.09
2021-08-19 18:58:25.448,-0.075,0.11
2021-08-19 18:58:25.452,-0.14,0.105
2021-08-19 18:58:25.456,-0.165,0.085
2021-08-19 18:58:25.460,-0.155,0.14
2021-08-19 18:58:25.464,-0.145,0.14
2021-08-19 18:58:25.468,-0.185,0.125
2021-08-19 18:58:25.472,-0.205,0.145
2021-08-19 18:58:25.476,-0.22,0.135
2021-08-19 18:58:25.480,-0.23,0.135
2021-08-19 18:58:25.484,-0.215,0.155
2021-08-19 18:58:25.488,-0.22,0.125
2021-08-19 18:58:25.492,-0.21,0.15
2021-08-19 18:58:25.496,-0.18,0.145
2021-08-19 18:58:25.500,-0.195,0.14
2021-08-19 18:58:25.504,-0.195,0.175
2021-08-19 18:58:25.508,-0.205,0.21
2021-08-19 18:58:25.512,-0.22,0.225
2021-08-19 18:58:25.516,-0.215,0.215
2021-08-19 18:58:25.520,-0.195,0.22
2021-08-19 18:58:25.524,-0.135,0.17
2021-08-19 18:58:25.528,-0.13,0.15
2021-08-19 18:58:25.532,-0.13,0.135
2021-08-19 18:58:25.536,-0.155,0.105
2021-08-19 18:58:25.540,-0.145,0.07
2021-08-19 18:58:25.544,-0.13,0.04
2021-08-19 18:58:25.548,-0.145,-0.01
2021-08-19 18:58:25.552,-0.14,-0.01
2021-08-19 18:58:25.556,-0.125,0.0
2021-08-19 18:58:25.560,-0.145,-0.005
2021-08-19 18:58:25.564,-0.16,-0.015
2021-08-19 18:58:25.568,-0.17,0.02
2021-08-19 18:58:25.572,-0.135,0.045
2021-08-19 18:58:25.576,-0.145,0.075
2021-08-19 18:58:25.580,-0.195,0.085
2021-08-19 18:58:25.584,-0.24,0.07
2021-08-19 18:58:25.588,-0.265,0.085
2021-08-19 18:58:25.592,-0.24,0.07
2021-08-19 18:58:25.596,-0.25,0.065
2021-08-19 18:58:25.600,-0.21,0.08
2021-08-19 18:58:25.604,-0.21,0.085
2021-08-19 18:58:25.608,-0.215,0.08
2021-08-19 18:58:25.612,-0.23,0.09
2021-08-19 18:58:25.616,-0.23,0.095
2021-08-19 18:58:25.620,-0.225,0.105
2021-08-19 18:58:25.624,-0.235,0.135
2021-08-19 18:58:25.628,-0.23,0.12
2021-08-19 18:58:25.632,-0.225,0.11
2021-08-19 18:58:25.636,-0.23,0.14
2021-08-19 18:58:25.640,-0.22,0.16
2021-08-19 18:58:25.644,-0.215,0.135
2021-08-19 18:58:25.648,-0.21,0.17
2021-08-19 18:58:25.652,-0.19,0.155
2021-08-19 18:58:25.656,-0.23,0.17
2021-08-19 18:58:25.660,-0.25,0.15
2021-08-19 18:58:25.664,-0.26,0.155
2021-08-19 18:58:25.668,-0.25,0.175
2021-08-19 18:58:25.672,-0.245,0.16
2021-08-19 18:58:25.676,-0.27,0.135
2021-08-19 18:58:25.680,-0.295,0.13
2021-08-19 18:58:25.684,-0.315,0.13
2021-08-19 18:58:25.688,-0.3,0.14
2021-08-19 18:58:25.692,-0.32,0.155
2021-08-19 18:58:25.696,-0.285,0.135
2021-08-19 18:58:25.700,-0.275,0.12
2021-08-19 18:58:25.704,-0.28,0.11
2021-08-19 18:58:25.708,-0.32,0.105
2021-08-19 18:58:25.712,-0.345,0.11
2021-08-19 18:58:25.716,-0.345,0.095
2021-08-19 18:58:25.720,-0.355,0.105
2021-08-19 18:58:25.724,-0.335,0.09
2021-08-19 18:58:25.728,-0.365,0.09
2021-08-19 18:58:25.732,-0.375,0.1
2021-08-19 18:58:25.736,-0.37,0.075
2021-08-19 18:58:25.740,-0.355,0.095
2021-08-19 18:58:25.744,-0.375,0.05
2021-08-19 18:58:25.748,-0.37,0.05
2021-08-19 18:58:25.752,-0.37,0.05
2021-08-19 18:58:25.756,-0.34,0.075
2021-08-19 18:58:25.760,-0.305,0.06
2021-08-19 18:58:25.764,-0.255,0.11
2021-08-19 18:58:25.768,-0.205,0.08
2021-08-19 18:58:25.772,-0.225,0.09
2021-08-19 18:58:25.776,-0.305,0.085
2021-08-19 18:58:25.780,-0.345,0.075
2021-08-19 18:58:25.784,-0.285,0.095
2021-08-19 18:58:25.788,-0.185,0.11
2021-08-19 18:58:25.792,-0.01,0.075
2021-08-19 18:58:25.796,0.31,0.005
2021-08-19 18:58:25.800,0.69,-0.135
2021-08-19 18:58:25.804,1.05,-0.255
2021-08-19 18:58:25.808,1.29,-0.26
2021-08-19 18:58:25.812,1.275,-0.12
2021-08-19 18:58:25.816,0.9,0.155
2021-08-19 18:58:25.820,0.25,0.495
2021-08-19 18:58:25.824,-0.445,0.715
2021-08-19 18:58:25.828,-0.925,0.785
2021-08-19 18:58:25.832,-0.97,0.635
2021-08-19 18:58:25.836,-0.875,0.345
2021-08-19 18:58:25.840,-0.64,0.21
2021-08-19 18:58:25.844,-0.43,0.135
2021-08-19 18:58:25.848,-0.315,0.135
2021-08-19 18:58:25.852,-0.265,0.145
2021-08-19 18:58:25.856,-0.225,0.235
2021-08-19 18:58:25.860,-0.235,0.27
2021-08-19 18:58:25.864,-0.275,0.28
2021-08-19 18:58:25.868,-0.28,0.255
2021-08-19 18:58:25.872,-0.25,0.225
2021-08-19 18:58:25.876,-0.235,0.17
2021-08-19 18:58:25.880,-0.195,0.17
2021-08-19 18:58:25.884,-0.175,0.11
2021-08-19 18:58:25.888,-0.175,0.12
2021-08-19 18:58:25.892,-0.105,0.095
2021-08-19 18:58:25.896,-0.06,0.05
2021-08-19 18:58:25.900,-0.07,0.05
2021-08-19 18:58:25.904,-0.09,0.075
2021-08-19 18:58:25.908,-0.09,0.08
2021-08-19 18:58:25.912,-0.045,0.09
2021-08-19 18:58:25.916,-0.04,0.085
2021-08-19 18:58:25.920,-0.035,0.07
2021-08-19 18:58:25.924,-0.06,0.115
2021-08-19 18:58:25.928,-0.055,0.13
2021-08-19 18:58:25.932,-0.005,0.15
2021-08-19 18:58:25.936,0.025,0.15
2021-08-19 18:58:25.940,0.025,0.095
2021-08-19 18:58:25.944,0.065,0.08
2021-08-19 18:58:25.948,0.085,0.065
2021-08-19 18:58:25.952,0.055,0.08
2021-08-19 18:58:25.956,0.05,0.06
2021-08-19 18:58:25.960,0.08,0.07
2021-08-19 18:58:25.964,0.09,0.05
2021-08-19 18:58:25.968,0.105,0.08
2021-08-19 18:58:25.972,0.09,0.12
2021-08-19 18:58:25.976,0.105,0.125
2021-08-19 18:58:25.980,0.105,0.105
2021-08-19 18:58:25.984,0.1,0.095
2021-08-19 18:58:25.988,0.095,0.045
2021-08-19 18:58:25.992,0.105,0.04
2021-08-19 18:58:25.996,0.125,0.0
2021-08-19 18:58:26.000,0.175,0.005
2021-08-19 18:58:26.004,0.22,-0.01
2021-08-19 18:58:26.008,0.235,0.0
2021-08-19 18:58:26.012,0.225,-0.015
2021-08-19 18:58:26.016,0.215,-0.015
2021-08-19 18:58:26.020,0.245,-0.04
2021-08-19 18:58:26.024,0.275,-0.045
2021-08-19 18:58:26.028,0.27,-0.05
2021-08-19 18:58:26.032,0.29,-0.07
2021-08-19 18:58:26.036,0.305,-0.095
2021-08-19 18:58:26.040,0.29,-0.085
2021-08-19 18:58:26.044,0.285,-0.06
2021-08-19 18:58:26.048,0.225,-0.03
2021-08-19 18:58:26.052,0.2,-0.01
2021-08-19 18:58:26.056,0.21,-0.03
2021-08-19 18:58:26.060,0.15,0.02
2021-08-19 18:58:26.064,0.13,0.055
2021-08-19 18:58:26.068,0.105,0.055
2021-08-19 18:58:26.072,0.075,0.065
2021-08-19 18:58:26.076,0.02,0.06
2021-08-19 18:58:26.080,-0.01,0.065
2021-08-19 18:58:26.084,-0.05,0.105
2021-08-19 18:58:26.088,-0.04,0.105
2021-08-19 18:58:26.092,-0.055,0.11
2021-08-19 18:58:26.096,-0.065,0.12
2021-08-19 18:58:26.100,-0.075,0.145
2021-08-19 18:58:26.104,-0.1,0.15
2021-08-19 18:58:26.108,-0.15,0.175
2021-08-19 18:58:26.112,-0.195,0.15
2021-08-19 18:58:26.116,-0.19,0.15
2021-08-19 18:58:26.120,-0.185,0.15
2021-08-19 18:58:26.124,-0.19,0.155
2021-08-19 18:58:26.128,-0.22,0.165
2021-08-19 18:58:26.132,-0.195,0.165
2021-08-19 18:58:26.136,-0.225,0.145
2021-08-19 18:58:26.140,-0.235,0.145
2021-08-19 18:58:26.144,-0.225,0.17
2021-08-19 18:58:26.148,-0.225,0.15
2021-08-19 18:58:26.152,-0.195,0.16
2021-08-19 18:58:26.156,-0.18,0.155
2021-08-19 18:58:26.160,-0.175,0.145
2021-08-19 18:58:26.164,-0.205,0.165
2021-08-19 18:58:26.168,-0.22,0.185
2021-08-19 18:58:26.172,-0.245,0.205
2021-08-19 18:58:26.176,-0.215,0.17
2021-08-19 18:58:26.180,-0.195,0.15
2021-08-19 18:58:26.184,-0.185,0.17
2021-08-19 18:58:26.188,-0.17,0.145
2021-08-19 18:58:26.192,-0.165,0.16
2021-08-19 18:58:26.196,-0.165,0.16
2021-08-19 18:58:26.200,-0.19,0.17
2021-08-19 18:58:26.204,-0.185,0.19
2021-08-19 18:58:26.208,-0.18,0.17
2021-08-19 18:58:26.212,-0.15,0.175
2021-08-19 18:58:26.216,-0.155,0.16
2021-08-19 18:58:26.220,-0.155,0.155
2021-08-19 18:58:26.224,-0.16,0.165
2021-08-19 18:58:26.228,-0.2,0.16
2021-08-19 18:58:26.232,-0.175,0.15
2021-08-19 18:58:26.236,-0.14,0.175
2021-08-19 18:58:26.240,-0.12,0.15
2021-08-19 18:58:26.244,-0.14,0.16
2021-08-19 18:58:26.248,-0.16,0.14
2021-08-19 18:58:26.252,-0.155,0.16
2021-08-19 18:58:26.256,-0.13,0.14
2021-08-19 18:58:26.260,-0.105,0.125
2021-08-19 18:58:26.264,-0.16,0.135
2021-08-19 18:58:26.268,-0.22,0.15
2021-08-19 18:58:26.272,-0.21,0.1
2021-08-19 18:58:26.276,-0.19,0.125
2021-08-19 18:58:26.280,-0.195,0.14
2021-08-19 18:58:26.284,-0.16,0.14
2021-08-19 18:58:26.288,-0.165,0.145
2021-08-19 18:58:26.292,-0.17,0.14
2021-08-19 18:58:26.296,-0.135,0.145
2021-08-19 18:58:26.300,-0.13,0.175
2021-08-19 18:58:26.304,-0.11,0.2
2021-08-19 18:58:26.308,-0.085,0.215
2021-08-19 18:58:26.312,-0.1,0.21
2021-08-19 18:58:26.316,-0.115,0.185
2021-08-19 18:58:26.320,-0.135,0.18
2021-08-19 18:58:26.324,-0.135,0.195
2021-08-19 18:58:26.328,-0.06,0.2
2021-08-19 18:58:26.332,0.0,0.175
2021-08-19 18:58:26.336,-0.015,0.135
2021-08-19 18:58:26.340,-0.04,0.125
2021-08-19 18:58:26.344,-0.06,0.13
2021-08-19 18:58:26.348,-0.03,0.09
2021-08-19 18:58:26.352,-0.015,0.085
2021-08-19 18:58:26.356,-0.045,0.055
2021-08-19 18:58:26.360,-0.08,0.05
2021-08-19 18:58:26.364,-0.145,0.055
2021-08-19 18:58:26.368,-0.225,0.095
2021-08-19 18:58:26.372,-0.25,0.085
2021-08-19 18:58:26.376,-0.28,0.085
2021-08-19 18:58:26.380,-0.255,0.06
2021-08-19 18:58:26.384,-0.095,0.005
2021-08-19 18:58:26.388,0.235,-0.055
2021-08-19 18:58:26.392,0.625,-0.195
2021-08-19 18:58:26.396,0.965,-0.245
2021-08-19 18:58:26.400,1.19,-0.22
2021-08-19 18:58:26.404,1.07,-0.045
2021-08-19 18:58:26.408,0.54,0.245
2021-08-19 18:58:26.412,-0.11,0.53
2021-08-19 18:58:26.416,-0.665,0.71
2021-08-19 18:58:26.420,-0.99,0.775
2021-08-19 18:58:26.424,-0.97,0.585
2021-08-19 18:58:26.428,-0.85,0.21
2021-08-19 18:58:26.432,-0.705,-0.04
2021-08-19 18:58:26.436,-0.535,-0.125
2021-08-19 18:58:26.440,-0.39,-0.115
2021-08-19 18:58:26.444,-0.305,-0.095
2021-08-19 18:58:26.448,-0.26,-0.025
2021-08-19 18:58:26.452,-0.24,0.03
2021-08-19 18:58:26.456,-0.21,0.065
2021-08-19 18:58:26.460,-0.245,0.075
2021-08-19 18:58:26.464,-0.275,0.095
2021-08-19 18:58:26.468,-0.29,0.065
2021-08-19 18:58:26.472,-0.285,0.085
2021-08-19 18:58:26.476,-0.255,0.08
2021-08-19 18:58:26.480,-0.23,0.11
2021-08-19 18:58:26.484,-0.23,0.11
2021-08-19 18:58:26.488,-0.175,0.11
2021-08-19 18:58:26.492,-0.145,0.115
2021-08-19 18:58:26.496,-0.135,0.075
2021-08-19 18:58:26.500,-0.15,0.105
2021-08-19 18:58:26.504,-0.21,0.095
2021-08-19 18:58:26.508,-0.26,0.125
2021-08-19 18:58:26.512,-0.27,0.14
2021-08-19 18:58:26.516,-0.235,0.16
2021-08-19 18:58:26.520,-0.205,0.145
2021-08-19 18:58:26.524,-0.175,0.12
2021-08-19 18:58:26.528,-0.19,0.125
2021-08-19 18:58:26.532,-0.175,0.125
2021-08-19 18:58:26.536,-0.165,0.145
2021-08-19 18:58:26.540,-0.175,0.165
2021-08-19 18:58:26.544,-0.16,0.135
2021-08-19 18:58:26.548,-0.1,0.13
2021-08-19 18:58:26.552,-0.065,0.12
2021-08-19 18:58:26.556,-0.04,0.085
2021-08-19 18:58:26.560,-0.075,0.1
2021-08-19 18:58:26.564,-0.065,0.08
2021-08-19 18:58:26.568,-0.06,0.08
2021-08-19 18:58:26.572,0.035,0.065
2021-08-19 18:58:26.576,0.075,0.045
2021-08-19 18:58:26.580,0.09,0.045
2021-08-19 18:58:26.584,0.095,0.03
2021-08-19 18:58:26.588,0.105,0.04
2021-08-19 18:58:26.592,0.11,0.05
2021-08-19 18:58:26.596,0.15,0.06
2021-08-19 18:58:26.600,0.295,0.04
2021-08-19 18:58:26.604,0.41,0.025
2021-08-19 18:58:26.608,0.41,0.025
2021-08-19 18:58:26.612,0.335,0.015
2021-08-19 18:58:26.616,0.285,0.05
2021-08-19 18:58:26.620,0.235,0.075
2021-08-19 18:58:26.624,0.17,0.1
2021-08-19 18:58:26.628,0.14,0.14
2021-08-19 18:58:26.632,0.12,0.13
2021-08-19 18:58:26.636,0.135,0.135
2021-08-19 18:58:26.640,0.155,0.12
2021-08-19 18:58:26.644,0.175,0.1
2021-08-19 18:58:26.648,0.17,0.09
2021-08-19 18:58:26.652,0.11,0.085
2021-08-19 18:58:26.656,0.025,0.075
2021-08-19 18:58:26.660,0.03,0.09
2021-08-19 18:58:26.664,0.145,0.115
2021-08-19 18:58:26.668,0.245,0.09
2021-08-19 18:58:26.672,0.175,0.075
2021-08-19 18:58:26.676,0.005,0.035
2021-08-19 18:58:26.680,-0.13,0.035
2021-08-19 18:58:26.684,-0.165,0.045
2021-08-19 18:58:26.688,-0.095,0.04
2021-08-19 18:58:26.692,-0.025,0.06
2021-08-19 18:58:26.696,-0.02,0.09
2021-08-19 18:58:26.700,-0.06,0.105
2021-08-19 18:58:26.704,-0.165,0.11
2021-08-19 18:58:26.708,-0.235,0.12
2021-08-19 18:58:26.712,-0.235,0.18
2021-08-19 18:58:26.716,-0.185,0.195
2021-08-19 18:58:26.720,-0.075,0.185
2021-08-19 18:58:26.724,0.005,0.14
2021-08-19 18:58:26.728,0.035,0.13
2021-08-19 18:58:26.732,-0.01,0.14
2021-08-19 18:58:26.736,-0.085,0.075
2021-08-19 18:58:26.740,-0.105,0.085
2021-08-19 18:58:26.744,-0.065,0.095
2021-08-19 18:58:26.748,-0.02,0.015
2021-08-19 18:58:26.752,0.05,0.03
2021-08-19 18:58:26.756,0.045,0.025
2021-08-19 18:58:26.760,-0.08,0.01
2021-08-19 18:58:26.764,-0.23,0.01
2021-08-19 18:58:26.768,-0.265,0.015
2021-08-19 18:58:26.772,-0.2,0.065
2021-08-19 18:58:26.776,-0.195,0.11
2021-08-19 18:58:26.780,-0.115,0.08
2021-08-19 18:58:26.784,-0.075,0.1
2021-08-19 18:58:26.788,-0.185,0.115
2021-08-19 18:58:26.792,-0.285,0.1
2021-08-19 18:58:26.796,-0.24,0.095
2021-08-19 18:58:26.800,-0.19,0.12
2021-08-19 18:58:26.804,-0.16,0.11
2021-08-19 18:58:26.808,-0.17,0.125
2021-08-19 18:58:26.812,-0.14,0.1
2021-08-19 18:58:26.816,-0.13,0.13
2021-08-19 18:58:26.820,-0.19,0.14
2021-08-19 18:58:26.824,-0.235,0.125
2021-08-19 18:58:26.828,-0.225,0.105
2021-08-19 18:58:26.832,-0.26,0.175
2021-08-19 18:58:26.836,-0.275,0.14
2021-08-19 18:58:26.840,-0.23,0.125
2021-08-19 18:58:26.844,-0.21,0.105
2021-08-19 18:58:26.848,-0.23,0.11
2021-08-19 18:58:26.852,-0.23,0.145
2021-08-19 18:58:26.856,-0.27,0.15
2021-08-19 18:58:26.860,-0.245,0.14
2021-08-19 18:58:26.864,-0.19,0.135
2021-08-19 18:58:26.868,-0.1,0.13
2021-08-19 18:58:26.872,-0.12,0.115
2021-08-19 18:58:26.876,-0.225,0.14
2021-08-19 18:58:26.880,-0.31,0.125
2021-08-19 18:58:26.884,-0.355,0.155
2021-08-19 18:58:26.888,-0.34,0.145
2021-08-19 18:58:26.892,-0.28,0.15
2021-08-19 18:58:26.896,-0.25,0.185
2021-08-19 18:58:26.900,-0.295,0.155
2021-08-19 18:58:26.904,-0.33,0.155
2021-08-19 18:58:26.908,-0.315,0.145
2021-08-19 18:58:26.912,-0.265,0.16
2021-08-19 18:58:26.916,-0.24,0.165
2021-08-19 18:58:26.920,-0.2,0.185
2021-08-19 18:58:26.924,-0.22,0.15
2021-08-19 18:58:26.928,-0.245,0.145
2021-08-19 18:58:26.932,-0.28,0.155
2021-08-19 18:58:26.936,-0.255,0.155
2021-08-19 18:58:26.940,-0.15,0.16
2021-08-19 18:58:26.944,-0.18,0.17
2021-08-19 18:58:26.948,-0.275,0.11
2021-08-19 18:58:26.952,-0.365,0.14
2021-08-19 18:58:26.956,-0.345,0.155
2021-08-19 18:58:26.960,-0.335,0.16
2021-08-19 18:58:26.964,-0.315,0.165
2021-08-19 18:58:26.968,-0.315,0.155
2021-08-19 18:58:26.972,-0.32,0.17
2021-08-19 18:58:26.976,-0.345,0.145
2021-08-19 18:58:26.980,-0.375,0.15
2021-08-19 18:58:26.984,-0.38,0.13
2021-08-19 18:58:26.988,-0.35,0.115
2021-08-19 18:58:26.992,-0.26,0.08
2021-08-19 18:58:26.996,0.005,0.0
2021-08-19 18:58:27.000,0.355,-0.12
2021-08-19 18:58:27.004,0.715,-0.26
2021-08-19 18:58:27.008,1.05,-0.3
2021-08-19 18:58:27.012,1.18,-0.17
2021-08-19 18:58:27.016,0.885,0.04
2021-08-19 18:58:27.020,0.23,0.345
2021-08-19 18:58:27.024,-0.53,0.58
2021-08-19 18:58:27.028,-1.115,0.65
2021-08-19 18:58:27.032,-1.2,0.45
2021-08-19 18:58:27.036,-0.96,0.205
2021-08-19 18:58:27.040,-0.655,0.03
2021-08-19 18:58:27.044,-0.46,-0.025
2021-08-19 18:58:27.048,-0.305,-0.035
2021-08-19 18:58:27.052,-0.3,-0.005
2021-08-19 18:58:27.056,-0.35,0.065
2021-08-19 18:58:27.060,-0.38,0.115
2021-08-19 18:58:27.064,-0.36,0.13
2021-08-19 18:58:27.068,-0.335,0.13
2021-08-19 18:58:27.072,-0.255,0.105
2021-08-19 18:58:27.076,-0.225,0.095
2021-08-19 18:58:27.080,-0.21,0.135
2021-08-19 18:58:27.084,-0.195,0.1
2021-08-19 18:58:27.088,-0.175,0.11
2021-08-19 18:58:27.092,-0.19,0.135
2021-08-19 18:58:27.096,-0.24,0.175
2021-08-19 18:58:27.100,-0.26,0.205
2021-08-19 18:58:27.104,-0.22,0.205
2021-08-19 18:58:27.108,-0.205,0.21
2021-08-19 18:58:27.112,-0.135,0.16
2021-08-19 18:58:27.116,-0.095,0.145
2021-08-19 18:58:27.120,-0.12,0.16
2021-08-19 18:58:27.124,-0.15,0.14
2021-08-19 18:58:27.128,-0.085,0.115
2021-08-19 18:58:27.132,-0.015,0.07
2021-08-19 18:58:27.136,-0.03,0.035
2021-08-19 18:58:27.140,-0.07,0.05
2021-08-19 18:58:27.144,-0.135,0.01
2021-08-19 18:58:27.148,-0.15,0.06
2021-08-19 18:58:27.152,-0.16,0.035
2021-08-19 18:58:27.156,-0.115,0.055
2021-08-19 18:58:27.160,-0.08,0.07
2021-08-19 18:58:27.164,-0.075,0.06
2021-08-19 18:58:27.168,-0.06,0.055
2021-08-19 18:58:27.172,-0.045,0.02
2021-08-19 18:58:27.176,-0.055,-0.015
2021-08-19 18:58:27.180,-0.14,-0.04
2021-08-19 18:58:27.184,-0.135,-0.06
2021-08-19 18:58:27.188,-0.075,-0.08
2021-08-19 18:58:27.192,0.03,-0.19
2021-08-19 18:58:27.196,0.145,-0.26
2021-08-19 18:58:27.200,0.205,-0.28
2021-08-19 18:58:27.204,0.25,-0.255
2021-08-19 18:58:27.208,0.29,-0.25
2021-08-19 18:58:27.212,0.375,-0.195
2021-08-19 18:58:27.216,0.365,-0.14
2021-08-19 18:58:27.220,0.375,-0.085
2021-08-19 18:58:27.224,0.315,-0.04
2021-08-19 18:58:27.228,0.33,0.01
2021-08-19 18:58:27.232,0.33,-0.025
2021-08-19 18:58:27.236,0.31,-0.065
2021-08-19 18:58:27.240,0.27,-0.105
2021-08-19 18:58:27.244,0.22,-0.16
2021-08-19 18:58:27.248,0.2,-0.205
2021-08-19 18:58:27.252,0.205,-0.105
2021-08-19 18:58:27.256,0.185,-0.06
2021-08-19 18:58:27.260,0.12,-0.025
2021-08-19 18:58:27.264,0.05,0.035
2021-08-19 18:58:27.268,0.02,0.08
2021-08-19 18:58:27.272,-0.02,0.12
2021-08-19 18:58:27.276,-0.03,0.11
2021-08-19 18:58:27.280,-0.055,0.12
2021-08-19 18:58:27.284,-0.055,0.165
2021-08-19 18:58:27.288,-0.045,0.145
2021-08-19 18:58:27.292,-0.095,0.11
2021-08-19 18:58:27.296,-0.17,0.09
2021-08-19 18:58:27.300,-0.2,0.08
2021-08-19 18:58:27.304,-0.185,0.07
2021-08-19 18:58:27.308,-0.185,0.095
2021-08-19 18:58:27.312,-0.18,0.07
2021-08-19 18:58:27.316,-0.18,0.065
2021-08-19 18:58:27.320,-0.155,0.075
2021-08-19 18:58:27.324,-0.22,0.11
2021-08-19 18:58:27.328,-0.28,0.095
2021-08-19 18:58:27.332,-0.325,0.105
2021-08-19 18:58:27.336,-0.345,0.095
2021-08-19 18:58:27.340,-0.315,0.11
2021-08-19 18:58:27.344,-0.26,0.11
2021-08-19 18:58:27.348,-0.26,0.105
2021-08-19 18:58:27.352,-0.27,0.105
2021-08-19 18:58:27.356,-0.305,0.14
2021-08-19 18:58:27.360,-0.325,0.175
2021-08-19 18:58:27.364,-0.31,0.195
2021-08-19 18:58:27.368,-0.285,0.195
2021-08-19 18:58:27.372,-0.29,0.21
2021-08-19 18:58:27.376,-0.28,0.27
2021-08-19 18:58:27.380,-0.26,0.265
2021-08-19 18:58:27.384,-0.28,0.25
2021-08-19 18:58:27.388,-0.26,0.215
2021-08-19 18:58:27.392,-0.275,0.23
2021-08-19 18:58:27.396,-0.265,0.245
2021-08-19 18:58:27.400,-0.265,0.24
2021-08-19 18:58:27.404,-0.27,0.23
2021-08-19 18:58:27.408,-0.26,0.205
2021-08-19 18:58:27.412,-0.25,0.225
2021-08-19 18:58:27.416,-0.295,0.235
2021-08-19 18:58:27.420,-0.28,0.255
2021-08-19 18:58:27.424,-0.275,0.275
2021-08-19 18:58:27.428,-0.255,0.27
2021-08-19 18:58:27.432,-0.225,0.24
2021-08-19 18:58:27.436,-0.195,0.205
2021-08-19 18:58:27.440,-0.21,0.205
2021-08-19 18:58:27.444,-0.26,0.22
2021-08-19 18:58:27.448,-0.225,0.24
2021-08-19 18:58:27.452,-0.22,0.205
2021-08-19 18:58:27.456,-0.24,0.215
2021-08-19 18:58:27.460,-0.265,0.18
2021-08-19 18:58:27.464,-0.235,0.16
2021-08-19 18:58:27.468,-0.24,0.175
2021-08-19 18:58:27.472,-0.255,0.21
2021-08-19 18:58:27.476,-0.265,0.195
2021-08-19 18:58:27.480,-0.275,0.185
2021-08-19 18:58:27.484,-0.25,0.195
2021-08-19 18:58:27.488,-0.245,0.185
2021-08-19 18:58:27.492,-0.225,0.18
2021-08-19 18:58:27.496,-0.22,0.18
2021-08-19 18:58:27.500,-0.15,0.19
2021-08-19 18:58:27.504,-0.17,0.195
2021-08-19 18:58:27.508,-0.19,0.215
2021-08-19 18:58:27.512,-0.22,0.22
2021-08-19 18:58:27.516,-0.22,0.28
2021-08-19 18:58:27.520,-0.175,0.28
2021-08-19 18:58:27.524,-0.2,0.295
2021-08-19 18:58:27.528,-0.18,0.305
2021-08-19 18:58:27.532,-0.16,0.35
2021-08-19 18:58:27.536,-0.07,0.375
2021-08-19 18:58:27.540,-0.01,0.355
2021-08-19 18:58:27.544,-0.035,0.265
2021-08-19 18:58:27.548,-0.1,0.23
2021-08-19 18:58:27.552,-0.15,0.245
2021-08-19 18:58:27.556,-0.125,0.22
2021-08-19 18:58:27.560,-0.12,0.19
2021-08-19 18:58:27.564,-0.13,0.12
2021-08-19 18:58:27.568,-0.18,0.055
2021-08-19 18:58:27.572,-0.225,0.04
2021-08-19 18:58:27.576,-0.26,0.055
2021-08-19 18:58:27.580,-0.18,0.06
2021-08-19 18:58:27.584,0.035,0.0
2021-08-19 18:58:27.588,0.34,-0.085
2021-08-19 18:58:27.592,0.71,-0.21
2021-08-19 18:58:27.596,1.055,-0.27
2021-08-19 18:58:27.600,1.1,-0.155
2021-08-19 18:58:27.604,0.725,0.12
2021-08-19 18:58:27.608,0.05,0.545
2021-08-19 18:58:27.612,-0.61,0.805
2021-08-19 18:58:27.616,-1.03,0.915
2021-08-19 18:58:27.620,-1.105,0.715
2021-08-19 18:58:27.624,-0.965,0.345
2021-08-19 18:58:27.628,-0.74,0.055
2021-08-19 18:58:27.632,-0.565,-0.03
2021-08-19 18:58:27.636,-0.415,-0.06
2021-08-19 18:58:27.640,-0.34,-0.025
2021-08-19 18:58:27.644,-0.31,0.035
2021-08-19 18:58:27.648,-0.35,0.125
2021-08-19 18:58:27.652,-0.335,0.21
2021-08-19 18:58:27.656,-0.3,0.225
2021-08-19 18:58:27.660,-0.29,0.25
2021-08-19 18:58:27.664,-0.255,0.25
2021-08-19 18:58:27.668,-0.27,0.24
2021-08-19 18:58:27.672,-0.3,0.29
2021-08-19 18:58:27.676,-0.27,0.3
2021-08-19 18:58:27.680,-0.27,0.255
2021-08-19 18:58:27.684,-0.27,0.25
2021-08-19 18:58:27.688,-0.27,0.22
2021-08-19 18:58:27.692,-0.28,0.225
2021-08-19 18:58:27.696,-0.285,0.24
2021-08-19 18:58:27.700,-0.26,0.285
2021-08-19 18:58:27.704,-0.275,0.315
2021-08-19 18:58:27.708,-0.285,0.265
2021-08-19 18:58:27.712,-0.285,0.245
2021-08-19 18:58:27.716,-0.245,0.25
2021-08-19 18:58:27.720,-0.235,0.255
2021-08-19 18:58:27.724,-0.235,0.27
2021-08-19 18:58:27.728,-0.22,0.245
2021-08-19 18:58:27.732,-0.23,0.28
2021-08-19 18:58:27.736,-0.205,0.275
2021-08-19 18:58:27.740,-0.195,0.305
2021-08-19 18:58:27.744,-0.18,0.25
2021-08-19 18:58:27.748,-0.175,0.225
2021-08-19 18:58:27.752,-0.195,0.235
2021-08-19 18:58:27.756,-0.155,0.205
2021-08-19 18:58:27.760,-0.14,0.22
2021-08-19 18:58:27.764,-0.13,0.24
2021-08-19 18:58:27.768,-0.11,0.185
2021-08-19 18:58:27.772,-0.065,0.2
2021-08-19 18:58:27.776,-0.04,0.18
2021-08-19 18:58:27.780,0.03,0.16
2021-08-19 18:58:27.784,0.055,0.21
2021-08-19 18:58:27.788,0.02,0.18
2021-08-19 18:58:27.792,0.0,0.175
2021-08-19 18:58:27.796,0.025,0.165
2021-08-19 18:58:27.800,0.07,0.175
2021-08-19 18:58:27.804,0.13,0.165
2021-08-19 18:58:27.808,0.16,0.15
2021-08-19 18:58:27.812,0.185,0.155
2021-08-19 18:58:27.816,0.195,0.145
2021-08-19 18:58:27.820,0.2,0.14
2021-08-19 18:58:27.824,0.24,0.15
2021-08-19 18:58:27.828,0.23,0.125
2021-08-19 18:58:27.832,0.205,0.085
2021-08-19 18:58:27.836,0.17,0.08
2021-08-19 18:58:27.840,0.185,0.07
2021-08-19 18:58:27.844,0.18,0.085
2021-08-19 18:58:27.848,0.155,0.11
2021-08-19 18:58:27.852,0.11,0.115
2021-08-19 18:58:27.856,0.08,0.12
2021-08-19 18:58:27.860,0.06,0.095
2021-08-19 18:58:27.864,0.05,0.105
2021-08-19 18:58:27.868,-0.005,0.1
2021-08-19 18:58:27.872,-0.03,0.135
2021-08-19 18:58:27.876,-0.04,0.125
2021-08-19 18:58:27.880,-0.05,0.13
2021-08-19 18:58:27.884,-0.08,0.125
2021-08-19 18:58:27.888,-0.09,0.135
2021-08-19 18:58:27.892,-0.06,0.135
2021-08-19 18:58:27.896,-0.13,0.13
2021-08-19 18:58:27.900,-0.185,0.11
2021-08-19 18:58:27.904,-0.18,0.115
2021-08-19 18:58:27.908,-0.125,0.17
2021-08-19 18:58:27.912,-0.11,0.14
2021-08-19 18:58:27.916,-0.125,0.14
2021-08-19 18:58:27.920,-0.16,0.125
2021-08-19 18:58:27.924,-0.19,0.155
2021-08-19 18:58:27.928,-0.175,0.175
2021-08-19 18:58:27.932,-0.155,0.225
2021-08-19 18:58:27.936,-0.12,0.18
2021-08-19 18:58:27.940,-0.09,0.19
2021-08-19 18:58:27.944,-0.095,0.19
2021-08-19 18:58:27.948,-0.065,0.145
2021-08-19 18:58:27.952,-0.055,0.17
2021-08-19 18:58:27.956,-0.055,0.19
2021-08-19 18:58:27.960,-0.01,0.15
2021-08-19 18:58:27.964,0.0,0.14
2021-08-19 18:58:27.968,-0.055,0.12
2021-08-19 18:58:27.972,-0.075,0.095
2021-08-19 18:58:27.976,-0.07,0.095
2021-08-19 18:58:27.980,-0.055,0.12
2021-08-19 18:58:27.984,-0.06,0.085
2021-08-19 18:58:27.988,-0.07,0.075
2021-08-19 18:58:27.992,-0.1,0.09
2021-08-19 18:58:27.996,-0.13,0.135
2021-08-19 18:58:28.000,-0.11,0.135
2021-08-19 18:58:28.004,-0.12,0.135
2021-08-19 18:58:28.008,-0.125,0.145
2021-08-19 18:58:28.012,-0.145,0.15
2021-08-19 18:58:28.016,-0.2,0.14
2021-08-19 18:58:28.020,-0.25,0.11
2021-08-19 18:58:28.024,-0.205,0.105
2021-08-19 18:58:28.028,-0.155,0.15
2021-08-19 18:58:28.032,-0.13,0.11
2021-08-19 18:58:28.036,-0.11,0.1
2021-08-19 18:58:28.040,-0.115,0.085
2021-08-19 18:58:28.044,-0.145,0.095
2021-08-19 18:58:28.048,-0.19,0.12
2021-08-19 18:58:28.052,-0.245,0.14
2021-08-19 18:58:28.056,-0.29,0.13
2021-08-19 18:58:28.060,-0.285,0.145
2021-08-19 18:58:28.064,-0.3,0.155
2021-08-19 18:58:28.068,-0.285,0.145
2021-08-19 18:58:28.072,-0.255,0.15
2021-08-19 18:58:28.076,-0.26,0.175
2021-08-19 18:58:28.080,-0.245,0.165
2021-08-19 18:58:28.084,-0.21,0.155
2021-08-19 18:58:28.088,-0.21,0.145
2021-08-19 18:58:28.092,-0.21,0.135
2021-08-19 18:58:28.096,-0.21,0.17
2021-08-19 18:58:28.100,-0.245,0.15
2021-08-19 18:58:28.104,-0.245,0.155
2021-08-19 18:58:28.108,-0.27,0.16
2021-08-19 18:58:28.112,-0.25,0.2
2021-08-19 18:58:28.116,-0.245,0.195
2021-08-19 18:58:28.120,-0.25,0.155
2021-08-19 18:58:28.124,-0.255,0.155
2021-08-19 18:58:28.128,-0.23,0.13
2021-08-19 18:58:28.132,-0.22,0.12
2021-08-19 18:58:28.136,-0.23,0.13
2021-08-19 18:58:28.140,-0.255,0.11
2021-08-19 18:58:28.144,-0.24,0.11
2021-08-19 18:58:28.148,-0.24,0.125
2021-08-19 18:58:28.152,-0.25,0.12
2021-08-19 18:58:28.156,-0.255,0.12
2021-08-19 18:58:28.160,-0.28,0.135
2021-08-19 18:58:28.164,-0.265,0.12
2021-08-19 18:58:28.168,-0.24,0.11
2021-08-19 18:58:28.172,-0.23,0.13
2021-08-19 18:58:28.176,-0.21,0.14
2021-08-19 18:58:28.180,-0.21,0.12
2021-08-19 18:58:28.184,-0.295,0.095
2021-08-19 18:58:28.188,-0.305,0.115
2021-08-19 18:58:28.192,-0.32,0.115
2021-08-19 18:58:28.196,-0.34,0.11
2021-08-19 18:58:28.200,-0.36,0.095
2021-08-19 18:58:28.204,-0.345,0.095
2021-08-19 18:58:28.208,-0.27,0.07
2021-08-19 18:58:28.212,-0.17,0.04
2021-08-19 18:58:28.216,0.07,-0.045
2021-08-19 18:58:28.220,0.47,-0.15
2021-08-19 18:58:28.224,0.88,-0.27
2021-08-19 18:58:28.228,1.14,-0.31
2021-08-19 18:58:28.232,1.19,-0.24
2021-08-19 18:58:28.236,0.92,0.03
2021-08-19 18:58:28.240,0.34,0.34
2021-08-19 18:58:28.244,-0.33,0.58
2021-08-19 18:58:28.248,-0.915,0.71
2021-08-19 18:58:28.252,-1.085,0.615
2021-08-19 18:58:28.256,-0.995,0.345
2021-08-19 18:58:28.260,-0.78,0.085
2021-08-19 18:58:28.264,-0.565,-0.06
2021-08-19 18:58:28.268,-0.43,-0.07
2021-08-19 18:58:28.272,-0.345,-0.05
2021-08-19 18:58:28.276,-0.34,0.0
2021-08-19 18:58:28.280,-0.31,0.085
2021-08-19 18:58:28.284,-0.31,0.15
2021-08-19 18:58:28.288,-0.3,0.15
2021-08-19 18:58:28.292,-0.27,0.13
2021-08-19 18:58:28.296,-0.27,0.14
2021-08-19 18:58:28.300,-0.28,0.14
2021-08-19 18:58:28.304,-0.3,0.135
2021-08-19 18:58:28.308,-0.26,0.17
2021-08-19 18:58:28.312,-0.26,0.145
2021-08-19 18:58:28.316,-0.245,0.155
2021-08-19 18:58:28.320,-0.255,0.16
2021-08-19 18:58:28.324,-0.245,0.185
2021-08-19 18:58:28.328,-0.245,0.235
2021-08-19 18:58:28.332,-0.22,0.26
2021-08-19 18:58:28.336,-0.19,0.265
2021-08-19 18:58:28.340,-0.185,0.265
2021-08-19 18:58:28.344,-0.16,0.25
2021-08-19 18:58:28.348,-0.115,0.22
2021-08-19 18:58:28.352,-0.09,0.195
2021-08-19 18:58:28.356,-0.065,0.185
2021-08-19 18:58:28.360,-0.035,0.17
2021-08-19 18:58:28.364,-0.035,0.16
2021-08-19 18:58:28.368,-0.055,0.13
2021-08-19 18:58:28.372,-0.05,0.095
2021-08-19 18:58:28.376,-0.085,0.145
2021-08-19 18:58:28.380,-0.085,0.12
2021-08-19 18:58:28.384,-0.075,0.1
2021-08-19 18:58:28.388,-0.07,0.12
2021-08-19 18:58:28.392,-0.08,0.125
2021-08-19 18:58:28.396,-0.1,0.145
2021-08-19 18:58:28.400,-0.1,0.19
2021-08-19 18:58:28.404,-0.08,0.195
2021-08-19 18:58:28.408,-0.075,0.2
2021-08-19 18:58:28.412,-0.05,0.175
2021-08-19 18:58:28.416,-0.035,0.2
2021-08-19 18:58:28.420,-0.02,0.22
2021-08-19 18:58:28.424,0.005,0.235
2021-08-19 18:58:28.428,0.01,0.2
2021-08-19 18:58:28.432,0.04,0.16
2021-08-19 18:58:28.436,0.06,0.185
2021-08-19 18:58:28.440,0.09,0.155
2021-08-19 18:58:28.444,0.12,0.15
2021-08-19 18:58:28.448,0.13,0.16
2021-08-19 18:58:28.452,0.13,0.13
2021-08-19 18:58:28.456,0.12,0.125
2021-08-19 18:58:28.460,0.12,0.105
2021-08-19 18:58:28.464,0.125,0.12
2021-08-19 18:58:28.468,0.11,0.155
2021-08-19 18:58:28.472,0.105,0.16
2021-08-19 18:58:28.476,0.105,0.155
2021-08-19 18:58:28.480,0.07,0.175
2021-08-19 18:58:28.484,0.03,0.18
2021-08-19 18:58:28.488,0.005,0.15
2021-08-19 18:58:28.492,-0.03,0.185
2021-08-19 18:58:28.496,-0.06,0.195
2021-08-19 18:58:28.500,-0.06,0.2
2021-08-19 18:58:28.504,-0.06,0.195
2021-08-19 18:58:28.508,-0.11,0.17
2021-08-19 18:58:28.512,-0.17,0.19
2021-08-19 18:58:28.516,-0.21,0.185
2021-08-19 18:58:28.520,-0.21,0.18
2021-08-19 18:58:28.524,-0.22,0.21
2021-08-19 18:58:28.528,-0.23,0.235
2021-08-19 18:58:28.532,-0.26,0.225
2021-08-19 18:58:28.536,-0.265,0.185
2021-08-19 18:58:28.540,-0.25,0.215
2021-08-19 18:58:28.544,-0.295,0.19
2021-08-19 18:58:28.548,-0.3,0.2
2021-08-19 18:58:28.552,-0.305,0.19
2021-08-19 18:58:28.556,-0.29,0.185
2021-08-19 18:58:28.560,-0.295,0.215
2021-08-19 18:58:28.564,-0.305,0.205
2021-08-19 18:58:28.568,-0.285,0.18
2021-08-19 18:58:28.572,-0.305,0.165
2021-08-19 18:58:28.576,-0.31,0.175
2021-08-19 18:58:28.580,-0.31,0.175
2021-08-19 18:58:28.584,-0.31,0.195
2021-08-19 18:58:28.588,-0.315,0.215
2021-08-19 18:58:28.592,-0.32,0.185
2021-08-19 18:58:28.596,-0.315,0.2
2021-08-19 18:58:28.600,-0.32,0.175
2021-08-19 18:58:28.604,-0.285,0.195
2021-08-19 18:58:28.608,-0.33,0.235
2021-08-19 18:58:28.612,-0.295,0.23
2021-08-19 18:58:28.616,-0.295,0.215
2021-08-19 18:58:28.620,-0.3,0.23
2021-08-19 18:58:28.624,-0.3,0.245
2021-08-19 18:58:28.628,-0.27,0.24
2021-08-19 18:58:28.632,-0.265,0.28
2021-08-19 18:58:28.636,-0.28,0.24
2021-08-19 18:58:28.640,-0.26,0.22
2021-08-19 18:58:28.644,-0.275,0.22
2021-08-19 18:58:28.648,-0.265,0.245
2021-08-19 18:58:28.652,-0.25,0.235
2021-08-19 18:58:28.656,-0.225,0.25
2021-08-19 18:58:28.660,-0.255,0.235
2021-08-19 18:58:28.664,-0.22,0.245
2021-08-19 18:58:28.668,-0.215,0.27
2021-08-19 18:58:28.672,-0.22,0.3
2021-08-19 18:58:28.676,-0.23,0.295
2021-08-19 18:58:28.680,-0.245,0.325
2021-08-19 18:58:28.684,-0.25,0.325
2021-08-19 18:58:28.688,-0.245,0.315
2021-08-19 18:58:28.692,-0.245,0.32
2021-08-19 18:58:28.696,-0.235,0.31
2021-08-19 18:58:28.700,-0.24,0.335
2021-08-19 18:58:28.704,-0.235,0.32
2021-08-19 18:58:28.708,-0.235,0.31
2021-08-19 18:58:28.712,-0.22,0.315
2021-08-19 18:58:28.716,-0.25,0.325
2021-08-19 18:58:28.720,-0.24,0.315
2021-08-19 18:58:28.724,-0.255,0.305
2021-08-19 18:58:28.728,-0.22,0.3
2021-08-19 18:58:28.732,-0.21,0.29
2021-08-19 18:58:28.736,-0.225,0.29
2021-08-19 18:58:28.740,-0.205,0.31
2021-08-19 18:58:28.744,-0.205,0.3
2021-08-19 18:58:28.748,-0.21,0.31
2021-08-19 18:58:28.752,-0.19,0.36
2021-08-19 18:58:28.756,-0.19,0.345
2021-08-19 18:58:28.760,-0.18,0.385
2021-08-19 18:58:28.764,-0.175,0.38
2021-08-19 18:58:28.768,-0.165,0.355
2021-08-19 18:58:28.772,-0.12,0.345
2021-08-19 18:58:28.776,-0.095,0.34
2021-08-19 18:58:28.780,-0.08,0.315
2021-08-19 18:58:28.784,-0.08,0.3
2021-08-19 18:58:28.788,-0.08,0.27
2021-08-19 18:58:28.792,-0.12,0.245
2021-08-19 18:58:28.796,-0.185,0.235
2021-08-19 18:58:28.800,-0.225,0.185
2021-08-19 18:58:28.804,-0.22,0.195
2021-08-19 18:58:28.808,-0.17,0.13
2021-08-19 18:58:28.812,-0.03,0.11
2021-08-19 18:58:28.816,0.22,0.035
2021-08-19 18:58:28.820,0.525,-0.005
2021-08-19 18:58:28.824,0.895,-0.1
2021-08-19 18:58:28.828,1.15,-0.11
2021-08-19 18:58:28.832,1.135,-0.005
2021-08-19 18:58:28.836,0.73,0.24
2021-08-19 18:58:28.840,0.035,0.59
2021-08-19 18:58:28.844,-0.635,0.835
2021-08-19 18:58:28.848,-1.045,0.89
2021-08-19 18:58:28.852,-1.07,0.635
2021-08-19 18:58:28.856,-0.89,0.31
2021-08-19 18:58:28.860,-0.665,0.085
2021-08-19 18:58:28.864,-0.49,0.025
2021-08-19 18:58:28.868,-0.38,0.04
2021-08-19 18:58:28.872,-0.33,0.07
2021-08-19 18:58:28.876,-0.29,0.135
2021-08-19 18:58:28.880,-0.29,0.2
2021-08-19 18:58:28.884,-0.275,0.23
2021-08-19 18:58:28.888,-0.285,0.25
2021-08-19 18:58:28.892,-0.27,0.23
2021-08-19 18:58:28.896,-0.28,0.245
2021-08-19 18:58:28.900,-0.29,0.27
2021-08-19 18:58:28.904,-0.27,0.26
2021-08-19 18:58:28.908,-0.275,0.26
2021-08-19 18:58:28.912,-0.275,0.245
2021-08-19 18:58:28.916,-0.26,0.27
2021-08-19 18:58:28.920,-0.245,0.25
2021-08-19 18:58:28.924,-0.26,0.25
2021-08-19 18:58:28.928,-0.27,0.255
2021-08-19 18:58:28.932,-0.27,0.265
2021-08-19 18:58:28.936,-0.28,0.265
2021-08-19 18:58:28.940,-0.26,0.24
2021-08-19 18:58:28.944,-0.27,0.24
2021-08-19 18:58:28.948,-0.26,0.245
2021-08-19 18:58:28.952,-0.25,0.24
2021-08-19 18:58:28.956,-0.265,0.255
2021-08-19 18:58:28.960,-0.235,0.27
2021-08-19 18:58:28.964,-0.235,0.255
2021-08-19 18:58:28.968,-0.235,0.26
2021-08-19 18:58:28.972,-0.225,0.255
2021-08-19 18:58:28.976,-0.205,0.265
2021-08-19 18:58:28.980,-0.2,0.275
2021-08-19 18:58:28.984,-0.185,0.27
2021-08-19 18:58:28.988,-0.15,0.27
2021-08-19 18:58:28.992,-0.135,0.27
2021-08-19 18:58:28.996,-0.105,0.265
2021-08-19 18:58:29.000,-0.09,0.28
2021-08-19 18:58:29.004,-0.055,0.285
2021-08-19 18:58:29.008,-0.01,0.28
2021-08-19 18:58:29.012,-0.015,0.295
2021-08-19 18:58:29.016,0.03,0.27
2021-08-19 18:58:29.020,0.065,0.27
2021-08-19 18:58:29.024,0.07,0.255
2021-08-19 18:58:29.028,0.11,0.265
2021-08-19 18:58:29.032,0.14,0.26
2021-08-19 18:58:29.036,0.17,0.26
2021-08-19 18:58:29.040,0.205,0.25
2021-08-19 18:58:29.044,0.23,0.23
2021-08-19 18:58:29.048,0.215,0.215
2021-08-19 18:58:29.052,0.23,0.255
2021-08-19 18:58:29.056,0.225,0.24
2021-08-19 18:58:29.060,0.205,0.235
2021-08-19 18:58:29.064,0.21,0.225
2021-08-19 18:58:29.068,0.205,0.25
2021-08-19 18:58:29.072,0.19,0.235
2021-08-19 18:58:29.076,0.17,0.24
2021-08-19 18:58:29.080,0.135,0.235
2021-08-19 18:58:29.084,0.1,0.245
2021-08-19 18:58:29.088,0.075,0.225
2021-08-19 18:58:29.092,0.035,0.215
2021-08-19 18:58:29.096,0.015,0.21
2021-08-19 18:58:29.100,0.0,0.215
2021-08-19 18:58:29.104,-0.03,0.22
2021-08-19 18:58:29.108,-0.06,0.23
2021-08-19 18:58:29.112,-0.09,0.23
2021-08-19 18:58:29.116,-0.105,0.235
2021-08-19 18:58:29.120,-0.125,0.245
2021-08-19 18:58:29.124,-0.155,0.245
2021-08-19 18:58:29.128,-0.185,0.24
2021-08-19 18:58:29.132,-0.16,0.24
2021-08-19 18:58:29.136,-0.185,0.23
2021-08-19 18:58:29.140,-0.195,0.22
2021-08-19 18:58:29.144,-0.2,0.22
2021-08-19 18:58:29.148,-0.215,0.215
2021-08-19 18:58:29.152,-0.21,0.21
2021-08-19 18:58:29.156,-0.21,0.215
2021-08-19 18:58:29.160,-0.235,0.215
2021-08-19 18:58:29.164,-0.22,0.2
2021-08-19 18:58:29.168,-0.215,0.235
2021-08-19 18:58:29.172,-0.2,0.23
2021-08-19 18:58:29.176,-0.18,0.23
2021-08-19 18:58:29.180,-0.18,0.275
2021-08-19 18:58:29.184,-0.175,0.31
2021-08-19 18:58:29.188,-0.125,0.28
2021-08-19 18:58:29.192,-0.14,0.29
2021-08-19 18:58:29.196,-0.115,0.28
2021-08-19 18:58:29.200,-0.085,0.255
2021-08-19 18:58:29.204,-0.09,0.255
2021-08-19 18:58:29.208,-0.085,0.235
2021-08-19 18:58:29.212,-0.055,0.22
2021-08-19 18:58:29.216,-0.06,0.22
2021-08-19 18:58:29.220,-0.055,0.205
2021-08-19 18:58:29.224,-0.06,0.195
2021-08-19 18:58:29.228,-0.07,0.165
2021-08-19 18:58:29.232,-0.07,0.15
2021-08-19 18:58:29.236,-0.075,0.17
2021-08-19 18:58:29.240,-0.06,0.175
2021-08-19 18:58:29.244,-0.12,0.165
2021-08-19 18:58:29.248,-0.15,0.19
2021-08-19 18:58:29.252,-0.19,0.21
2021-08-19 18:58:29.256,-0.2,0.205
2021-08-19 18:58:29.260,-0.205,0.215
2021-08-19 18:58:29.264,-0.2,0.215
2021-08-19 18:58:29.268,-0.175,0.18
2021-08-19 18:58:29.272,-0.155,0.185
2021-08-19 18:58:29.276,-0.22,0.18
2021-08-19 18:58:29.280,-0.225,0.17
2021-08-19 18:58:29.284,-0.23,0.18
2021-08-19 18:58:29.288,-0.22,0.195
2021-08-19 18:58:29.292,-0.235,0.21
2021-08-19 18:58:29.296,-0.23,0.2
2021-08-19 18:58:29.300,-0.235,0.195
2021-08-19 18:58:29.304,-0.25,0.2
2021-08-19 18:58:29.308,-0.245,0.18
2021-08-19 18:58:29.312,-0.285,0.18
2021-08-19 18:58:29.316,-0.255,0.185
2021-08-19 18:58:29.320,-0.26,0.19
2021-08-19 18:58:29.324,-0.285,0.165
2021-08-19 18:58:29.328,-0.28,0.17
2021-08-19 18:58:29.332,-0.27,0.18
2021-08-19 18:58:29.336,-0.26,0.195
2021-08-19 18:58:29.340,-0.26,0.205
2021-08-19 18:58:29.344,-0.275,0.175
2021-08-19 18:58:29.348,-0.28,0.18
2021-08-19 18:58:29.352,-0.285,0.185
2021-08-19 18:58:29.356,-0.28,0.195
2021-08-19 18:58:29.360,-0.29,0.165
2021-08-19 18:58:29.364,-0.28,0.17
2021-08-19 18:58:29.368,-0.27,0.185
2021-08-19 18:58:29.372,-0.265,0.2
2021-08-19 18:58:29.376,-0.26,0.17
2021-08-19 18:58:29.380,-0.275,0.185
2021-08-19 18:58:29.384,-0.26,0.19
2021-08-19 18:58:29.388,-0.26,0.185
2021-08-19 18:58:29.392,-0.26,0.17
2021-08-19 18:58:29.396,-0.25,0.17
2021-08-19 18:58:29.400,-0.26,0.175
2021-08-19 18:58:29.404,-0.27,0.195
2021-08-19 18:58:29.408,-0.255,0.18
2021-08-19 18:58:29.412,-0.245,0.185
2021-08-19 18:58:29.416,-0.24,0.175
2021-08-19 18:58:29.420,-0.255,0.18
2021-08-19 18:58:29.424,-0.245,0.19
2021-08-19 18:58:29.428,-0.24,0.205
2021-08-19 18:58:29.432,-0.265,0.185
2021-08-19 18:58:29.436,-0.245,0.19
2021-08-19 18:58:29.440,-0.27,0.18
2021-08-19 18:58:29.444,-0.26,0.2
2021-08-19 18:58:29.448,-0.305,0.185
2021-08-19 18:58:29.452,-0.36,0.18
2021-08-19 18:58:29.456,-0.35,0.14
2021-08-19 18:58:29.460,-0.335,0.15
2021-08-19 18:58:29.464,-0.24,0.09
2021-08-19 18:58:29.468,0.005,0.0
2021-08-19 18:58:29.472,0.355,-0.09
2021-08-19 18:58:29.476,0.7,-0.22
2021-08-19 18:58:29.480,1.08,-0.265
2021-08-19 18:58:29.484,1.205,-0.16
2021-08-19 18:58:29.488,0.96,0.055
2021-08-19 18:58:29.492,0.355,0.35
2021-08-19 18:58:29.496,-0.32,0.59
2021-08-19 18:58:29.500,-0.89,0.75
2021-08-19 18:58:29.504,-1.1,0.65
2021-08-19 18:58:29.508,-1.015,0.38
2021-08-19 18:58:29.512,-0.785,0.155
2021-08-19 18:58:29.516,-0.56,0.01
2021-08-19 18:58:29.520,-0.395,0.005
2021-08-19 18:58:29.524,-0.305,0.005
2021-08-19 18:58:29.528,-0.265,0.03
2021-08-19 18:58:29.532,-0.25,0.115
2021-08-19 18:58:29.536,-0.24,0.19
2021-08-19 18:58:29.540,-0.245,0.175
2021-08-19 18:58:29.544,-0.235,0.205
2021-08-19 18:58:29.548,-0.235,0.2
2021-08-19 18:58:29.552,-0.2,0.185
2021-08-19 18:58:29.556,-0.2,0.18
2021-08-19 18:58:29.560,-0.215,0.18
2021-08-19 18:58:29.564,-0.205,0.195
2021-08-19 18:58:29.568,-0.2,0.21
2021-08-19 18:58:29.572,-0.18,0.205
2021-08-19 18:58:29.576,-0.155,0.215
2021-08-19 18:58:29.580,-0.135,0.22
2021-08-19 18:58:29.584,-0.14,0.24
2021-08-19 18:58:29.588,-0.12,0.265
2021-08-19 18:58:29.592,-0.095,0.3
2021-08-19 18:58:29.596,-0.095,0.295
2021-08-19 18:58:29.600,-0.075,0.285
2021-08-19 18:58:29.604,-0.07,0.295
2021-08-19 18:58:29.608,-0.03,0.25
2021-08-19 18:58:29.612,-0.03,0.26
2021-08-19 18:58:29.616,-0.02,0.265
2021-08-19 18:58:29.620,0.01,0.265
2021-08-19 18:58:29.624,0.03,0.26
2021-08-19 18:58:29.628,0.04,0.23
2021-08-19 18:58:29.632,0.035,0.2
2021-08-19 18:58:29.636,0.035,0.185
2021-08-19 18:58:29.640,0.045,0.145
2021-08-19 18:58:29.644,0.07,0.145
2021-08-19 18:58:29.648,0.07,0.16
2021-08-19 18:58:29.652,0.075,0.155
2021-08-19 18:58:29.656,0.055,0.155
2021-08-19 18:58:29.660,0.05,0.16
2021-08-19 18:58:29.664,0.035,0.185
2021-08-19 18:58:29.668,0.08,0.19
2021-08-19 18:58:29.672,0.085,0.185
2021-08-19 18:58:29.676,0.095,0.165
2021-08-19 18:58:29.680,0.12,0.18
2021-08-19 18:58:29.684,0.145,0.17
2021-08-19 18:58:29.688,0.165,0.175
2021-08-19 18:58:29.692,0.19,0.14
2021-08-19 18:58:29.696,0.205,0.145
2021-08-19 18:58:29.700,0.235,0.13
2021-08-19 18:58:29.704,0.235,0.135
2021-08-19 18:58:29.708,0.245,0.155
2021-08-19 18:58:29.712,0.24,0.12
2021-08-19 18:58:29.716,0.235,0.13
2021-08-19 18:58:29.720,0.215,0.125
2021-08-19 18:58:29.724,0.215,0.135
2021-08-19 18:58:29.728,0.195,0.14
2021-08-19 18:58:29.732,0.19,0.13
2021-08-19 18:58:29.736,0.165,0.14
2021-08-19 18:58:29.740,0.13,0.155
2021-08-19 18:58:29.744,0.08,0.14
2021-08-19 18:58:29.748,0.075,0.14
2021-08-19 18:58:29.752,0.035,0.16
2021-08-19 18:58:29.756,0.01,0.18
2021-08-19 18:58:29.760,-0.01,0.18
2021-08-19 18:58:29.764,-0.02,0.185
2021-08-19 18:58:29.768,-0.055,0.18
2021-08-19 18:58:29.772,-0.075,0.205
2021-08-19 18:58:29.776,-0.095,0.205
2021-08-19 18:58:29.780,-0.1,0.195
2021-08-19 18:58:29.784,-0.13,0.195
2021-08-19 18:58:29.788,-0.14,0.185
2021-08-19 18:58:29.792,-0.17,0.185
2021-08-19 18:58:29.796,-0.18,0.21
2021-08-19 18:58:29.800,-0.185,0.22
2021-08-19 18:58:29.804,-0.195,0.2
2021-08-19 18:58:29.808,-0.2,0.2
2021-08-19 18:58:29.812,-0.205,0.215
2021-08-19 18:58:29.816,-0.21,0.215
2021-08-19 18:58:29.820,-0.215,0.22
2021-08-19 18:58:29.824,-0.225,0.21
2021-08-19 18:58:29.828,-0.21,0.19
2021-08-19 18:58:29.832,-0.22,0.205
2021-08-19 18:58:29.836,-0.2,0.205
2021-08-19 18:58:29.840,-0.205,0.19
2021-08-19 18:58:29.844,-0.225,0.2
2021-08-19 18:58:29.848,-0.24,0.24
2021-08-19 18:58:29.852,-0.245,0.205
2021-08-19 18:58:29.856,-0.22,0.195
2021-08-19 18:58:29.860,-0.245,0.2
2021-08-19 18:58:29.864,-0.22,0.205
2021-08-19 18:58:29.868,-0.215,0.22
2021-08-19 18:58:29.872,-0.225,0.2
2021-08-19 18:58:29.876,-0.225,0.22
2021-08-19 18:58:29.880,-0.235,0.22
2021-08-19 18:58:29.884,-0.21,0.235
2021-08-19 18:58:29.888,-0.215,0.215
2021-08-19 18:58:29.892,-0.235,0.23
2021-08-19 18:58:29.896,-0.23,0.21
2021-08-19 18:58:29.900,-0.2,0.205
2021-08-19 18:58:29.904,-0.18,0.225
2021-08-19 18:58:29.908,-0.19,0.22
2021-08-19 18:58:29.912,-0.175,0.23
2021-08-19 18:58:29.916,-0.17,0.22
2021-08-19 18:58:29.920,-0.145,0.205
2021-08-19 18:58:29.924,-0.15,0.205
2021-08-19 18:58:29.928,-0.165,0.195
2021-08-19 18:58:29.932,-0.15,0.215
2021-08-19 18:58:29.936,-0.17,0.185
2021-08-19 18:58:29.940,-0.155,0.21
2021-08-19 18:58:29.944,-0.155,0.205
2021-08-19 18:58:29.948,-0.135,0.22
2021-08-19 18:58:29.952,-0.155,0.215
2021-08-19 18:58:29.956,-0.16,0.2
2021-08-19 18:58:29.960,-0.17,0.195
2021-08-19 18:58:29.964,-0.14,0.19
2021-08-19 18:58:29.968,-0.15,0.195
2021-08-19 18:58:29.972,-0.135,0.16
2021-08-19 18:58:29.976,-0.135,0.175
2021-08-19 18:58:29.980,-0.125,0.185
2021-08-19 18:58:29.984,-0.115,0.21
2021-08-19 18:58:29.988,-0.105,0.22
2021-08-19 18:58:29.992,-0.115,0.27
2021-08-19 18:58:29.996,-0.095,0.275
2021-08-19 18:58:30.000,-0.105,0.27
2021-08-19 18:58:30.004,-0.08,0.28
2021-08-19 18:58:30.008,-0.075,0.255
2021-08-19 18:58:30.012,-0.025,0.235
2021-08-19 18:58:30.016,-0.025,0.235
2021-08-19 18:58:30.020,0.0,0.23
2021-08-19 18:58:30.024,-0.005,0.195
2021-08-19 18:58:30.028,-0.005,0.18
2021-08-19 18:58:30.032,-0.015,0.155
2021-08-19 18:58:30.036,-0.02,0.12
2021-08-19 18:58:30.040,-0.035,0.1
2021-08-19 18:58:30.044,-0.035,0.095
2021-08-19 18:58:30.048,-0.075,0.095
2021-08-19 18:58:30.052,-0.12,0.13
2021-08-19 18:58:30.056,-0.19,0.145
2021-08-19 18:58:30.060,-0.28,0.13
2021-08-19 18:58:30.064,-0.26,0.12
2021-08-19 18:58:30.068,-0.235,0.11
2021-08-19 18:58:30.072,-0.12,0.08
2021-08-19 18:58:30.076,0.115,-0.005
2021-08-19 18:58:30.080,0.46,-0.09
2021-08-19 18:58:30.084,0.82,-0.205
2021-08-19 18:58:30.088,1.14,-0.24
2021-08-19 18:58:30.092,1.18,-0.18
2021-08-19 18:58:30.096,0.8,0.075
2021-08-19 18:58:30.100,0.15,0.42
2021-08-19 18:58:30.104,-0.495,0.655
2021-08-19 18:58:30.108,-0.985,0.83
2021-08-19 18:58:30.112,-1.07,0.71
2021-08-19 18:58:30.116,-0.96,0.365
2021-08-19 18:58:30.120,-0.785,0.0
2021-08-19 18:58:30.124,-0.585,-0.125
2021-08-19 18:58:30.128,-0.455,-0.155
2021-08-19 18:58:30.132,-0.34,-0.11
2021-08-19 18:58:30.136,-0.295,-0.05
2021-08-19 18:58:30.140,-0.275,0.025
2021-08-19 18:58:30.144,-0.27,0.1
2021-08-19 18:58:30.148,-0.265,0.095
2021-08-19 18:58:30.152,-0.255,0.095
2021-08-19 18:58:30.156,-0.255,0.115
2021-08-19 18:58:30.160,-0.255,0.1
2021-08-19 18:58:30.164,-0.26,0.11
2021-08-19 18:58:30.168,-0.245,0.12
2021-08-19 18:58:30.172,-0.255,0.1
2021-08-19 18:58:30.176,-0.24,0.12
2021-08-19 18:58:30.180,-0.245,0.12
2021-08-19 18:58:30.184,-0.255,0.11
2021-08-19 18:58:30.188,-0.225,0.1
2021-08-19 18:58:30.192,-0.225,0.115
2021-08-19 18:58:30.196,-0.245,0.115
2021-08-19 18:58:30.200,-0.24,0.1
2021-08-19 18:58:30.204,-0.235,0.135
2021-08-19 18:58:30.208,-0.22,0.135
2021-08-19 18:58:30.212,-0.205,0.135
2021-08-19 18:58:30.216,-0.215,0.135
2021-08-19 18:58:30.220,-0.205,0.13
2021-08-19 18:58:30.224,-0.21,0.125
2021-08-19 18:58:30.228,-0.19,0.14
2021-08-19 18:58:30.232,-0.2,0.13
2021-08-19 18:58:30.236,-0.18,0.135
2021-08-19 18:58:30.240,-0.18,0.155
2021-08-19 18:58:30.244,-0.16,0.145
2021-08-19 18:58:30.248,-0.12,0.135
2021-08-19 18:58:30.252,-0.125,0.135
2021-08-19 18:58:30.256,-0.095,0.13
2021-08-19 18:58:30.260,-0.07,0.135
2021-08-19 18:58:30.264,-0.045,0.145
2021-08-19 18:58:30.268,-0.005,0.125
2021-08-19 18:58:30.272,0.01,0.125
2021-08-19 18:58:30.276,0.035,0.115
2021-08-19 18:58:30.280,0.065,0.11
2021-08-19 18:58:30.284,0.13,0.11
2021-08-19 18:58:30.288,0.165,0.115
2021-08-19 18:58:30.292,0.185,0.095
2021-08-19 18:58:30.296,0.185,0.105
2021-08-19 18:58:30.300,0.21,0.1
2021-08-19 18:58:30.304,0.255,0.08
2021-08-19 18:58:30.308,0.26,0.085
2021-08-19 18:58:30.312,0.245,0.1
2021-08-19 18:58:30.316,0.275,0.08
2021-08-19 18:58:30.320,0.27,0.07
2021-08-19 18:58:30.324,0.27,0.065
2021-08-19 18:58:30.328,0.25,0.065
2021-08-19 18:58:30.332,0.245,0.1
2021-08-19 18:58:30.336,0.235,0.105
2021-08-19 18:58:30.340,0.185,0.06
2021-08-19 18:58:30.344,0.175,0.1
2021-08-19 18:58:30.348,0.155,0.095
2021-08-19 18:58:30.352,0.11,0.08
2021-08-19 18:58:30.356,0.075,0.105
2021-08-19 18:58:30.360,0.04,0.115
2021-08-19 18:58:30.364,0.035,0.11
2021-08-19 18:58:30.368,-0.01,0.095
2021-08-19 18:58:30.372,-0.04,0.11
2021-08-19 18:58:30.376,-0.05,0.13
2021-08-19 18:58:30.380,-0.09,0.13
2021-08-19 18:58:30.384,-0.08,0.095
2021-08-19 18:58:30.388,-0.095,0.105
2021-08-19 18:58:30.392,-0.12,0.125
2021-08-19 18:58:30.396,-0.14,0.125
2021-08-19 18:58:30.400,-0.145,0.11
2021-08-19 18:58:30.404,-0.13,0.14
2021-08-19 18:58:30.408,-0.145,0.135
2021-08-19 18:58:30.412,-0.15,0.14
2021-08-19 18:58:30.416,-0.135,0.135
2021-08-19 18:58:30.420,-0.125,0.145
2021-08-19 18:58:30.424,-0.115,0.21
2021-08-19 18:58:30.428,-0.12,0.22
2021-08-19 18:58:30.432,-0.14,0.22
2021-08-19 18:58:30.436,-0.15,0.205
2021-08-19 18:58:30.440,-0.125,0.19
2021-08-19 18:58:30.444,-0.12,0.165
2021-08-19 18:58:30.448,-0.08,0.165
2021-08-19 18:58:30.452,-0.06,0.175
2021-08-19 18:58:30.456,-0.06,0.155
2021-08-19 18:58:30.460,-0.035,0.12
