Time,ECG1,ECG2
2021-08-19 06:09:52.368,-0.125,-0.14
2021-08-19 06:09:52.372,-0.13,-0.12
2021-08-19 06:09:52.376,-0.14,-0.115
2021-08-19 06:09:52.380,-0.17,-0.115
2021-08-19 06:09:52.384,-0.145,-0.095
2021-08-19 06:09:52.388,-0.16,-0.11
2021-08-19 06:09:52.392,-0.16,-0.1
2021-08-19 06:09:52.396,-0.15,-0.085
2021-08-19 06:09:52.400,-0.165,-0.085
2021-08-19 06:09:52.404,-0.14,-0.1
2021-08-19 06:09:52.408,-0.15,-0.085
2021-08-19 06:09:52.412,-0.14,-0.08
2021-08-19 06:09:52.416,-0.14,-0.08
2021-08-19 06:09:52.420,-0.135,-0.075
2021-08-19 06:09:52.424,-0.145,-0.06
2021-08-19 06:09:52.428,-0.11,-0.06
2021-08-19 06:09:52.432,-0.11,-0.025
2021-08-19 06:09:52.436,-0.11,-0.02
2021-08-19 06:09:52.440,-0.105,-0.02
2021-08-19 06:09:52.444,-0.085,-0.02
2021-08-19 06:09:52.448,-0.1,-0.005
2021-08-19 06:09:52.452,-0.095,0.005
2021-08-19 06:09:52.456,-0.075,0.015
2021-08-19 06:09:52.460,-0.06,0.005
2021-08-19 06:09:52.464,-0.045,0.03
2021-08-19 06:09:52.468,0.0,0.025
2021-08-19 06:09:52.472,-0.01,0.06
2021-08-19 06:09:52.476,-0.005,0.075
2021-08-19 06:09:52.480,0.0,0.08
2021-08-19 06:09:52.484,0.0,0.07
2021-08-19 06:09:52.488,0.005,0.07
2021-08-19 06:09:52.492,-0.03,0.065
2021-08-19 06:09:52.496,-0.03,0.055
2021-08-19 06:09:52.500,-0.03,0.04
2021-08-19 06:09:52.504,-0.04,0.015
2021-08-19 06:09:52.508,-0.02,0.01
2021-08-19 06:09:52.512,-0.015,0.0
2021-08-19 06:09:52.516,-0.01,0.01
2021-08-19 06:09:52.520,-0.005,0.03
2021-08-19 06:09:52.524,0.005,0.045
2021-08-19 06:09:52.528,0.015,0.045
2021-08-19 06:09:52.532,0.04,0.02
2021-08-19 06:09:52.536,0.06,0.02
2021-08-19 06:09:52.540,0.07,0.045
2021-08-19 06:09:52.544,0.075,0.055
2021-08-19 06:09:52.548,0.1,0.045
2021-08-19 06:09:52.552,0.075,0.045
2021-08-19 06:09:52.556,0.065,0.045
2021-08-19 06:09:52.560,0.03,0.01
2021-08-19 06:09:52.564,-0.005,-0.005
2021-08-19 06:09:52.568,-0.035,-0.02
2021-08-19 06:09:52.572,-0.085,-0.05
2021-08-19 06:09:52.576,-0.125,-0.045
2021-08-19 06:09:52.580,-0.12,0.0
2021-08-19 06:09:52.584,-0.15,0.015
2021-08-19 06:09:52.588,-0.13,0.12
2021-08-19 06:09:52.592,-0.13,0.26
2021-08-19 06:09:52.596,-0.125,0.43
2021-08-19 06:09:52.600,-0.15,0.635
2021-08-19 06:09:52.604,-0.14,0.8
2021-08-19 06:09:52.608,-0.125,0.935
2021-08-19 06:09:52.612,-0.13,0.995
2021-08-19 06:09:52.616,-0.08,0.94
2021-08-19 06:09:52.620,-0.03,0.695
2021-08-19 06:09:52.624,-0.07,0.35
2021-08-19 06:09:52.628,-0.195,-0.04
2021-08-19 06:09:52.632,-0.38,-0.29
2021-08-19 06:09:52.636,-0.685,-0.41
2021-08-19 06:09:52.640,-1.075,-0.35
2021-08-19 06:09:52.644,-1.455,-0.12
2021-08-19 06:09:52.648,-1.8,0.165
2021-08-19 06:09:52.664,-1.825,-0.28
2021-08-19 06:09:52.668,-1.43,-0.375
2021-08-19 06:09:52.672,-0.95,-0.405
2021-08-19 06:09:52.676,-0.545,-0.37
2021-08-19 06:09:52.680,-0.285,-0.28
2021-08-19 06:09:52.684,-0.205,-0.16
2021-08-19 06:09:52.688,-0.21,-0.12
2021-08-19 06:09:52.692,-0.2,-0.12
2021-08-19 06:09:52.696,-0.21,-0.1
2021-08-19 06:09:52.700,-0.21,-0.095
2021-08-19 06:09:52.704,-0.155,-0.1
2021-08-19 06:09:52.708,-0.08,-0.095
2021-08-19 06:09:52.712,-0.015,-0.115
2021-08-19 06:09:52.716,0.03,-0.12
2021-08-19 06:09:52.720,0.03,-0.145
2021-08-19 06:09:52.724,0.085,-0.125
2021-08-19 06:09:52.728,0.11,-0.14
2021-08-19 06:09:52.732,0.14,-0.12
2021-08-19 06:09:52.736,0.17,-0.115
2021-08-19 06:09:52.740,0.22,-0.09
2021-08-19 06:09:52.744,0.235,-0.105
2021-08-19 06:09:52.748,0.225,-0.09
2021-08-19 06:09:52.752,0.225,-0.075
2021-08-19 06:09:52.756,0.21,-0.09
2021-08-19 06:09:52.760,0.175,-0.09
2021-08-19 06:09:52.764,0.135,-0.115
2021-08-19 06:09:52.768,0.11,-0.115
2021-08-19 06:09:52.772,0.05,-0.14
2021-08-19 06:09:52.776,0.04,-0.145
2021-08-19 06:09:52.780,0.04,-0.15
2021-08-19 06:09:52.784,0.045,-0.155
2021-08-19 06:09:52.788,0.035,-0.15
2021-08-19 06:09:52.792,0.025,-0.175
2021-08-19 06:09:52.796,0.04,-0.165
2021-08-19 06:09:52.800,0.035,-0.17
2021-08-19 06:09:52.804,0.055,-0.17
2021-08-19 06:09:52.808,0.035,-0.17
2021-08-19 06:09:52.812,0.05,-0.16
2021-08-19 06:09:52.816,0.045,-0.14
2021-08-19 06:09:52.820,0.055,-0.135
2021-08-19 06:09:52.824,0.06,-0.12
2021-08-19 06:09:52.828,0.04,-0.085
2021-08-19 06:09:52.832,0.05,-0.09
2021-08-19 06:09:52.836,0.075,-0.07
2021-08-19 06:09:52.840,0.085,-0.065
2021-08-19 06:09:52.844,0.09,-0.05
2021-08-19 06:09:52.848,0.1,-0.055
2021-08-19 06:09:52.852,0.125,-0.055
2021-08-19 06:09:52.856,0.17,-0.045
2021-08-19 06:09:52.860,0.14,-0.06
2021-08-19 06:09:52.864,0.175,-0.06
2021-08-19 06:09:52.868,0.155,-0.08
2021-08-19 06:09:52.872,0.175,-0.075
2021-08-19 06:09:52.876,0.165,-0.09
2021-08-19 06:09:52.880,0.16,-0.09
2021-08-19 06:09:52.884,0.195,-0.085
2021-08-19 06:09:52.888,0.18,-0.11
2021-08-19 06:09:52.892,0.17,-0.09
2021-08-19 06:09:52.896,0.185,-0.075
2021-08-19 06:09:52.900,0.155,-0.06
2021-08-19 06:09:52.904,0.175,-0.055
2021-08-19 06:09:52.908,0.175,-0.04
2021-08-19 06:09:52.912,0.175,-0.045
2021-08-19 06:09:52.916,0.17,-0.02
2021-08-19 06:09:52.920,0.195,-0.005
2021-08-19 06:09:52.924,0.195,0.01
2021-08-19 06:09:52.928,0.22,0.02
2021-08-19 06:09:52.932,0.24,0.035
2021-08-19 06:09:52.936,0.255,0.03
2021-08-19 06:09:52.940,0.23,0.045
2021-08-19 06:09:52.944,0.25,0.045
2021-08-19 06:09:52.948,0.22,0.05
2021-08-19 06:09:52.952,0.18,0.045
2021-08-19 06:09:52.956,0.12,0.045
2021-08-19 06:09:52.960,0.085,0.03
2021-08-19 06:09:52.964,0.02,0.02
2021-08-19 06:09:52.968,0.01,0.0
2021-08-19 06:09:52.972,-0.025,0.005
2021-08-19 06:09:52.976,-0.035,0.0
2021-08-19 06:09:52.980,-0.05,-0.025
2021-08-19 06:09:52.984,-0.06,-0.01
2021-08-19 06:09:52.988,-0.07,-0.025
2021-08-19 06:09:52.992,-0.07,-0.03
2021-08-19 06:09:52.996,-0.12,-0.035
2021-08-19 06:09:53.000,-0.085,-0.055
2021-08-19 06:09:53.004,-0.075,-0.05
2021-08-19 06:09:53.008,-0.08,-0.05
2021-08-19 06:09:53.012,-0.09,-0.06
2021-08-19 06:09:53.016,-0.105,-0.065
2021-08-19 06:09:53.020,-0.095,-0.055
2021-08-19 06:09:53.024,-0.095,-0.065
2021-08-19 06:09:53.028,-0.095,-0.04
2021-08-19 06:09:53.032,-0.075,-0.035
2021-08-19 06:09:53.036,-0.09,0.005
2021-08-19 06:09:53.040,-0.07,0.03
2021-08-19 06:09:53.044,-0.085,0.035
2021-08-19 06:09:53.048,-0.065,0.04
2021-08-19 06:09:53.052,-0.055,0.065
2021-08-19 06:09:53.056,-0.045,0.085
2021-08-19 06:09:53.060,-0.035,0.085
2021-08-19 06:09:53.064,-0.03,0.075
2021-08-19 06:09:53.068,-0.01,0.07
2021-08-19 06:09:53.072,0.005,0.05
2021-08-19 06:09:53.076,0.015,0.02
2021-08-19 06:09:53.080,0.045,0.01
2021-08-19 06:09:53.084,0.0,-0.015
2021-08-19 06:09:53.088,-0.01,-0.02
2021-08-19 06:09:53.092,-0.03,-0.04
2021-08-19 06:09:53.096,-0.045,-0.08
2021-08-19 06:09:53.100,-0.035,-0.095
2021-08-19 06:09:53.104,-0.065,-0.095
2021-08-19 06:09:53.108,-0.045,-0.08
2021-08-19 06:09:53.112,-0.07,-0.065
2021-08-19 06:09:53.116,-0.075,-0.07
2021-08-19 06:09:53.120,-0.075,-0.08
2021-08-19 06:09:53.124,-0.07,-0.04
2021-08-19 06:09:53.128,-0.04,-0.05
2021-08-19 06:09:53.132,-0.01,-0.035
2021-08-19 06:09:53.136,0.01,-0.055
2021-08-19 06:09:53.140,0.025,-0.04
2021-08-19 06:09:53.144,0.06,-0.05
2021-08-19 06:09:53.148,0.045,-0.095
2021-08-19 06:09:53.152,0.0,-0.1
2021-08-19 06:09:53.156,-0.05,-0.11
2021-08-19 06:09:53.160,-0.095,-0.11
2021-08-19 06:09:53.164,-0.12,-0.125
2021-08-19 06:09:53.168,-0.155,-0.135
2021-08-19 06:09:53.172,-0.145,-0.145
2021-08-19 06:09:53.176,-0.16,-0.14
2021-08-19 06:09:53.180,-0.155,-0.155
2021-08-19 06:09:53.184,-0.15,-0.15
2021-08-19 06:09:53.188,-0.16,-0.16
2021-08-19 06:09:53.192,-0.15,-0.16
2021-08-19 06:09:53.196,-0.16,-0.17
2021-08-19 06:09:53.200,-0.175,-0.155
2021-08-19 06:09:53.204,-0.155,-0.145
2021-08-19 06:09:53.208,-0.13,-0.155
2021-08-19 06:09:53.212,-0.15,-0.175
2021-08-19 06:09:53.216,-0.14,-0.14
2021-08-19 06:09:53.220,-0.145,-0.13
2021-08-19 06:09:53.224,-0.155,-0.115
2021-08-19 06:09:53.228,-0.145,-0.065
2021-08-19 06:09:53.232,-0.16,-0.02
2021-08-19 06:09:53.236,-0.16,0.05
2021-08-19 06:09:53.240,-0.145,0.23
2021-08-19 06:09:53.244,-0.14,0.52
2021-08-19 06:09:53.248,-0.125,0.76
2021-08-19 06:09:53.252,-0.09,0.905
2021-08-19 06:09:53.256,-0.11,0.91
2021-08-19 06:09:53.260,-0.135,0.85
2021-08-19 06:09:53.264,-0.175,0.74
2021-08-19 06:09:53.268,-0.21,0.49
2021-08-19 06:09:53.272,-0.225,0.165
2021-08-19 06:09:53.276,-0.325,-0.135
2021-08-19 06:09:53.280,-0.545,-0.185
2021-08-19 06:09:53.284,-0.9,0.05
2021-08-19 06:09:53.288,-1.285,0.305
2021-08-19 06:09:53.292,-1.58,0.32
2021-08-19 06:09:53.296,-1.745,0.075
2021-08-19 06:09:53.300,-1.755,-0.15
2021-08-19 06:09:53.304,-1.585,-0.3
2021-08-19 06:09:53.308,-1.17,-0.36
2021-08-19 06:09:53.312,-0.675,-0.355
2021-08-19 06:09:53.316,-0.345,-0.28
2021-08-19 06:09:53.320,-0.18,-0.205
2021-08-19 06:09:53.324,-0.2,-0.14
2021-08-19 06:09:53.328,-0.205,-0.1
2021-08-19 06:09:53.332,-0.195,-0.085
2021-08-19 06:09:53.336,-0.2,-0.1
2021-08-19 06:09:53.340,-0.175,-0.13
2021-08-19 06:09:53.344,-0.105,-0.15
2021-08-19 06:09:53.348,-0.015,-0.15
2021-08-19 06:09:53.352,0.075,-0.195
2021-08-19 06:09:53.356,0.125,-0.2
2021-08-19 06:09:53.360,0.165,-0.235
2021-08-19 06:09:53.364,0.195,-0.225
2021-08-19 06:09:53.368,0.175,-0.215
2021-08-19 06:09:53.372,0.145,-0.245
2021-08-19 06:09:53.376,0.09,-0.265
2021-08-19 06:09:53.380,0.03,-0.265
2021-08-19 06:09:53.384,-0.015,-0.265
2021-08-19 06:09:53.388,-0.02,-0.28
2021-08-19 06:09:53.392,-0.02,-0.285
2021-08-19 06:09:53.396,-0.03,-0.28
2021-08-19 06:09:53.400,-0.04,-0.295
2021-08-19 06:09:53.404,-0.035,-0.285
2021-08-19 06:09:53.408,-0.03,-0.3
2021-08-19 06:09:53.412,-0.01,-0.315
2021-08-19 06:09:53.416,-0.015,-0.34
2021-08-19 06:09:53.420,-0.015,-0.34
2021-08-19 06:09:53.424,-0.025,-0.355
2021-08-19 06:09:53.428,-0.025,-0.34
2021-08-19 06:09:53.432,-0.02,-0.35
2021-08-19 06:09:53.436,-0.005,-0.325
2021-08-19 06:09:53.440,0.0,-0.35
2021-08-19 06:09:53.444,-0.015,-0.355
2021-08-19 06:09:53.448,0.01,-0.355
2021-08-19 06:09:53.452,-0.01,-0.36
2021-08-19 06:09:53.456,0.005,-0.35
2021-08-19 06:09:53.460,-0.015,-0.375
2021-08-19 06:09:53.464,0.01,-0.37
2021-08-19 06:09:53.468,0.025,-0.355
2021-08-19 06:09:53.472,-0.015,-0.375
2021-08-19 06:09:53.476,0.0,-0.375
2021-08-19 06:09:53.480,0.025,-0.39
2021-08-19 06:09:53.484,0.005,-0.37
2021-08-19 06:09:53.488,0.015,-0.345
2021-08-19 06:09:53.492,0.025,-0.33
2021-08-19 06:09:53.496,0.025,-0.295
2021-08-19 06:09:53.500,0.015,-0.29
2021-08-19 06:09:53.504,0.0,-0.26
2021-08-19 06:09:53.508,0.01,-0.245
2021-08-19 06:09:53.512,0.01,-0.22
2021-08-19 06:09:53.516,0.035,-0.215
2021-08-19 06:09:53.520,0.04,-0.175
2021-08-19 06:09:53.524,0.055,-0.18
2021-08-19 06:09:53.528,0.05,-0.16
2021-08-19 06:09:53.532,0.055,-0.155
2021-08-19 06:09:53.536,0.045,-0.115
2021-08-19 06:09:53.540,0.055,-0.085
2021-08-19 06:09:53.544,0.07,-0.06
2021-08-19 06:09:53.548,0.07,-0.06
2021-08-19 06:09:53.552,0.08,-0.035
2021-08-19 06:09:53.556,0.09,-0.03
2021-08-19 06:09:53.560,0.09,-0.01
2021-08-19 06:09:53.564,0.105,-0.02
2021-08-19 06:09:53.568,0.135,-0.015
2021-08-19 06:09:53.572,0.135,-0.02
2021-08-19 06:09:53.576,0.14,-0.045
2021-08-19 06:09:53.580,0.1,-0.03
2021-08-19 06:09:53.584,0.09,-0.06
2021-08-19 06:09:53.588,0.07,-0.07
2021-08-19 06:09:53.592,0.055,-0.095
2021-08-19 06:09:53.596,0.035,-0.135
2021-08-19 06:09:53.600,-0.03,-0.165
2021-08-19 06:09:53.604,-0.025,-0.195
2021-08-19 06:09:53.608,-0.02,-0.19
2021-08-19 06:09:53.612,-0.03,-0.225
2021-08-19 06:09:53.616,-0.045,-0.215
2021-08-19 06:09:53.620,-0.05,-0.22
2021-08-19 06:09:53.624,-0.055,-0.24
2021-08-19 06:09:53.628,-0.04,-0.245
2021-08-19 06:09:53.632,-0.055,-0.25
2021-08-19 06:09:53.636,-0.055,-0.245
2021-08-19 06:09:53.640,-0.055,-0.255
2021-08-19 06:09:53.644,-0.075,-0.25
2021-08-19 06:09:53.648,-0.06,-0.245
2021-08-19 06:09:53.652,-0.055,-0.26
2021-08-19 06:09:53.656,-0.055,-0.255
2021-08-19 06:09:53.660,-0.07,-0.25
2021-08-19 06:09:53.664,-0.04,-0.255
2021-08-19 06:09:53.668,-0.055,-0.265
2021-08-19 06:09:53.672,-0.04,-0.255
2021-08-19 06:09:53.676,-0.04,-0.245
2021-08-19 06:09:53.680,-0.055,-0.24
2021-08-19 06:09:53.684,-0.03,-0.25
2021-08-19 06:09:53.688,-0.025,-0.26
2021-08-19 06:09:53.692,-0.005,-0.265
2021-08-19 06:09:53.696,-0.005,-0.255
2021-08-19 06:09:53.700,-0.015,-0.255
2021-08-19 06:09:53.704,-0.03,-0.245
2021-08-19 06:09:53.708,-0.01,-0.245
2021-08-19 06:09:53.712,-0.01,-0.265
2021-08-19 06:09:53.716,-0.005,-0.27
2021-08-19 06:09:53.720,-0.005,-0.27
2021-08-19 06:09:53.724,-0.01,-0.25
2021-08-19 06:09:53.728,-0.025,-0.24
2021-08-19 06:09:53.732,-0.015,-0.25
2021-08-19 06:09:53.736,-0.01,-0.255
2021-08-19 06:09:53.740,-0.005,-0.25
2021-08-19 06:09:53.744,0.0,-0.24
2021-08-19 06:09:53.748,-0.01,-0.225
2021-08-19 06:09:53.752,0.0,-0.25
2021-08-19 06:09:53.756,-0.01,-0.225
2021-08-19 06:09:53.760,-0.01,-0.21
2021-08-19 06:09:53.764,-0.02,-0.21
2021-08-19 06:09:53.768,-0.005,-0.18
2021-08-19 06:09:53.772,-0.025,-0.135
2021-08-19 06:09:53.776,-0.005,-0.06
2021-08-19 06:09:53.780,0.0,-0.01
2021-08-19 06:09:53.784,-0.02,0.08
2021-08-19 06:09:53.788,-0.025,0.255
2021-08-19 06:09:53.792,-0.025,0.51
2021-08-19 06:09:53.796,-0.025,0.735
2021-08-19 06:09:53.800,-0.005,0.825
2021-08-19 06:09:53.804,0.015,0.745
2021-08-19 06:09:53.808,-0.01,0.585
2021-08-19 06:09:53.812,-0.04,0.385
2021-08-19 06:09:53.816,-0.07,0.125
2021-08-19 06:09:53.820,-0.115,-0.2
2021-08-19 06:09:53.824,-0.185,-0.495
2021-08-19 06:09:53.828,-0.315,-0.47
2021-08-19 06:09:53.832,-0.63,-0.205
2021-08-19 06:09:53.836,-0.985,0.055
2021-08-19 06:09:53.840,-1.325,0.02
2021-08-19 06:09:53.844,-1.53,-0.205
2021-08-19 06:09:53.848,-1.545,-0.415
2021-08-19 06:09:53.852,-1.37,-0.555
2021-08-19 06:09:53.856,-0.995,-0.595
2021-08-19 06:09:53.860,-0.535,-0.575
2021-08-19 06:09:53.864,-0.24,-0.485
2021-08-19 06:09:53.868,-0.155,-0.375
2021-08-19 06:09:53.872,-0.165,-0.34
2021-08-19 06:09:53.876,-0.195,-0.335
2021-08-19 06:09:53.880,-0.2,-0.315
2021-08-19 06:09:53.884,-0.19,-0.335
2021-08-19 06:09:53.888,-0.155,-0.33
2021-08-19 06:09:53.892,-0.095,-0.32
2021-08-19 06:09:53.896,-0.045,-0.305
2021-08-19 06:09:53.900,0.01,-0.32
2021-08-19 06:09:53.904,0.035,-0.325
2021-08-19 06:09:53.908,0.04,-0.33
2021-08-19 06:09:53.912,0.045,-0.32
2021-08-19 06:09:53.916,0.04,-0.3
2021-08-19 06:09:53.920,0.045,-0.31
2021-08-19 06:09:53.924,0.045,-0.31
2021-08-19 06:09:53.928,0.055,-0.305
2021-08-19 06:09:53.932,0.05,-0.31
2021-08-19 06:09:53.936,0.08,-0.29
2021-08-19 06:09:53.940,0.065,-0.295
2021-08-19 06:09:53.944,0.075,-0.28
2021-08-19 06:09:53.948,0.075,-0.28
2021-08-19 06:09:53.952,0.075,-0.29
2021-08-19 06:09:53.956,0.09,-0.265
2021-08-19 06:09:53.960,0.085,-0.285
2021-08-19 06:09:53.964,0.105,-0.285
2021-08-19 06:09:53.968,0.1,-0.295
2021-08-19 06:09:53.972,0.085,-0.28
2021-08-19 06:09:53.976,0.07,-0.285
2021-08-19 06:09:53.980,0.095,-0.29
2021-08-19 06:09:53.984,0.07,-0.285
2021-08-19 06:09:53.988,0.095,-0.28
2021-08-19 06:09:53.992,0.08,-0.285
2021-08-19 06:09:53.996,0.09,-0.295
2021-08-19 06:09:54.000,0.095,-0.29
2021-08-19 06:09:54.004,0.085,-0.29
2021-08-19 06:09:54.008,0.075,-0.305
2021-08-19 06:09:54.012,0.095,-0.3
2021-08-19 06:09:54.016,0.08,-0.315
2021-08-19 06:09:54.020,0.1,-0.3
2021-08-19 06:09:54.024,0.09,-0.295
2021-08-19 06:09:54.028,0.095,-0.305
2021-08-19 06:09:54.032,0.09,-0.3
2021-08-19 06:09:54.036,0.12,-0.305
2021-08-19 06:09:54.040,0.085,-0.3
2021-08-19 06:09:54.044,0.085,-0.315
2021-08-19 06:09:54.048,0.1,-0.315
2021-08-19 06:09:54.052,0.095,-0.31
2021-08-19 06:09:54.056,0.075,-0.295
2021-08-19 06:09:54.060,0.09,-0.305
2021-08-19 06:09:54.064,0.08,-0.285
2021-08-19 06:09:54.068,0.08,-0.28
2021-08-19 06:09:54.072,0.085,-0.285
2021-08-19 06:09:54.076,0.09,-0.26
2021-08-19 06:09:54.080,0.085,-0.245
2021-08-19 06:09:54.084,0.07,-0.23
2021-08-19 06:09:54.088,0.07,-0.21
2021-08-19 06:09:54.092,0.085,-0.2
2021-08-19 06:09:54.096,0.1,-0.185
2021-08-19 06:09:54.100,0.095,-0.16
2021-08-19 06:09:54.104,0.08,-0.17
2021-08-19 06:09:54.108,0.07,-0.14
2021-08-19 06:09:54.112,0.055,-0.125
2021-08-19 06:09:54.116,0.045,-0.125
2021-08-19 06:09:54.120,0.045,-0.105
2021-08-19 06:09:54.124,0.055,-0.105
2021-08-19 06:09:54.128,0.055,-0.1
2021-08-19 06:09:54.132,0.07,-0.09
2021-08-19 06:09:54.136,0.05,-0.065
2021-08-19 06:09:54.140,0.06,-0.09
2021-08-19 06:09:54.144,0.04,-0.09
2021-08-19 06:09:54.148,0.05,-0.1
2021-08-19 06:09:54.152,0.03,-0.095
2021-08-19 06:09:54.156,0.03,-0.105
2021-08-19 06:09:54.160,0.05,-0.095
2021-08-19 06:09:54.164,0.055,-0.09
2021-08-19 06:09:54.168,0.055,-0.095
2021-08-19 06:09:54.172,0.05,-0.09
2021-08-19 06:09:54.176,0.06,-0.11
2021-08-19 06:09:54.180,0.05,-0.115
2021-08-19 06:09:54.184,0.045,-0.115
2021-08-19 06:09:54.188,0.045,-0.115
2021-08-19 06:09:54.192,0.035,-0.115
2021-08-19 06:09:54.196,0.05,-0.12
2021-08-19 06:09:54.200,0.06,-0.11
2021-08-19 06:09:54.204,0.06,-0.105
2021-08-19 06:09:54.208,0.055,-0.11
2021-08-19 06:09:54.212,0.045,-0.12
2021-08-19 06:09:54.216,0.035,-0.115
2021-08-19 06:09:54.220,0.04,-0.135
2021-08-19 06:09:54.224,0.035,-0.115
2021-08-19 06:09:54.228,0.045,-0.12
2021-08-19 06:09:54.232,0.03,-0.12
2021-08-19 06:09:54.236,0.035,-0.13
2021-08-19 06:09:54.240,0.04,-0.135
2021-08-19 06:09:54.244,0.035,-0.12
2021-08-19 06:09:54.248,0.025,-0.14
2021-08-19 06:09:54.252,0.03,-0.145
2021-08-19 06:09:54.256,0.005,-0.145
2021-08-19 06:09:54.260,0.03,-0.125
2021-08-19 06:09:54.264,0.04,-0.14
2021-08-19 06:09:54.268,0.01,-0.13
2021-08-19 06:09:54.272,0.035,-0.145
2021-08-19 06:09:54.276,0.025,-0.135
2021-08-19 06:09:54.280,0.03,-0.15
2021-08-19 06:09:54.284,0.01,-0.135
2021-08-19 06:09:54.288,0.01,-0.14
2021-08-19 06:09:54.292,0.015,-0.145
2021-08-19 06:09:54.296,0.005,-0.13
2021-08-19 06:09:54.300,-0.005,-0.12
2021-08-19 06:09:54.304,0.0,-0.15
2021-08-19 06:09:54.308,0.01,-0.145
2021-08-19 06:09:54.312,0.02,-0.145
2021-08-19 06:09:54.316,0.02,-0.145
2021-08-19 06:09:54.320,0.01,-0.15
2021-08-19 06:09:54.324,0.015,-0.15
2021-08-19 06:09:54.328,0.0,-0.145
2021-08-19 06:09:54.332,0.005,-0.155
2021-08-19 06:09:54.336,0.02,-0.145
2021-08-19 06:09:54.340,0.03,-0.16
2021-08-19 06:09:54.344,0.03,-0.175
2021-08-19 06:09:54.348,0.03,-0.16
2021-08-19 06:09:54.352,0.005,-0.135
2021-08-19 06:09:54.356,0.02,-0.16
2021-08-19 06:09:54.360,0.0,-0.16
2021-08-19 06:09:54.364,0.03,-0.17
2021-08-19 06:09:54.368,0.0,-0.17
2021-08-19 06:09:54.372,0.0,-0.185
2021-08-19 06:09:54.376,0.005,-0.165
2021-08-19 06:09:54.380,0.01,-0.17
2021-08-19 06:09:54.384,0.0,-0.155
2021-08-19 06:09:54.388,0.02,-0.155
2021-08-19 06:09:54.392,0.01,-0.16
2021-08-19 06:09:54.396,0.02,-0.165
2021-08-19 06:09:54.400,0.005,-0.155
2021-08-19 06:09:54.404,0.015,-0.165
2021-08-19 06:09:54.408,0.03,-0.155
2021-08-19 06:09:54.412,0.01,-0.14
2021-08-19 06:09:54.416,0.02,-0.175
2021-08-19 06:09:54.420,0.01,-0.145
2021-08-19 06:09:54.424,0.005,-0.145
2021-08-19 06:09:54.428,0.015,-0.16
2021-08-19 06:09:54.432,0.025,-0.165
2021-08-19 06:09:54.436,0.03,-0.175
2021-08-19 06:09:54.440,0.015,-0.155
2021-08-19 06:09:54.444,0.03,-0.16
2021-08-19 06:09:54.448,0.01,-0.16
2021-08-19 06:09:54.452,0.01,-0.15
2021-08-19 06:09:54.456,0.025,-0.17
2021-08-19 06:09:54.460,0.03,-0.155
2021-08-19 06:09:54.464,0.01,-0.14
2021-08-19 06:09:54.468,0.02,-0.16
2021-08-19 06:09:54.472,0.02,-0.155
2021-08-19 06:09:54.476,0.03,-0.16
2021-08-19 06:09:54.480,0.03,-0.17
2021-08-19 06:09:54.484,0.035,-0.145
2021-08-19 06:09:54.488,0.015,-0.14
2021-08-19 06:09:54.492,0.03,-0.145
2021-08-19 06:09:54.496,0.045,-0.14
2021-08-19 06:09:54.500,0.015,-0.13
2021-08-19 06:09:54.504,0.04,-0.105
2021-08-19 06:09:54.508,0.045,-0.075
2021-08-19 06:09:54.512,0.03,-0.02
2021-08-19 06:09:54.516,0.03,0.02
2021-08-19 06:09:54.520,0.01,0.035
2021-08-19 06:09:54.524,0.025,0.025
2021-08-19 06:09:54.528,0.015,0.015
2021-08-19 06:09:54.532,0.07,0.02
2021-08-19 06:09:54.536,0.08,0.03
2021-08-19 06:09:54.540,0.09,0.005
2021-08-19 06:09:54.544,0.13,0.0
2021-08-19 06:09:54.548,0.15,-0.015
2021-08-19 06:09:54.552,0.135,-0.03
2021-08-19 06:09:54.556,0.165,-0.065
2021-08-19 06:09:54.560,0.15,-0.06
2021-08-19 06:09:54.564,0.13,-0.06
2021-08-19 06:09:54.568,0.1,-0.1
2021-08-19 06:09:54.572,0.1,-0.115
2021-08-19 06:09:54.576,0.05,-0.15
2021-08-19 06:09:54.580,0.05,-0.155
2021-08-19 06:09:54.584,0.005,-0.16
2021-08-19 06:09:54.588,-0.03,-0.14
2021-08-19 06:09:54.592,-0.055,-0.1
2021-08-19 06:09:54.596,-0.04,-0.09
2021-08-19 06:09:54.600,-0.025,-0.08
2021-08-19 06:09:54.604,-0.05,-0.07
2021-08-19 06:09:54.608,-0.055,-0.075
2021-08-19 06:09:54.612,-0.03,-0.08
2021-08-19 06:09:54.616,-0.02,-0.105
2021-08-19 06:09:54.620,-0.015,-0.115
2021-08-19 06:09:54.624,-0.015,-0.13
2021-08-19 06:09:54.628,-0.005,-0.12
2021-08-19 06:09:54.632,0.0,-0.13
2021-08-19 06:09:54.636,0.0,-0.14
2021-08-19 06:09:54.640,0.0,-0.16
2021-08-19 06:09:54.644,0.01,-0.145
2021-08-19 06:09:54.648,0.025,-0.145
2021-08-19 06:09:54.652,0.045,-0.155
2021-08-19 06:09:54.656,0.06,-0.16
2021-08-19 06:09:54.660,0.075,-0.155
2021-08-19 06:09:54.664,0.08,-0.135
2021-08-19 06:09:54.668,0.085,-0.145
2021-08-19 06:09:54.672,0.085,-0.135
2021-08-19 06:09:54.676,0.07,-0.155
2021-08-19 06:09:54.680,0.08,-0.155
2021-08-19 06:09:54.684,0.065,-0.135
2021-08-19 06:09:54.688,0.075,-0.145
2021-08-19 06:09:54.692,0.065,-0.14
2021-08-19 06:09:54.696,0.06,-0.11
2021-08-19 06:09:54.700,0.07,-0.075
2021-08-19 06:09:54.704,0.085,-0.04
2021-08-19 06:09:54.708,0.075,0.005
2021-08-19 06:09:54.712,0.045,0.02
2021-08-19 06:09:54.716,0.07,0.075
2021-08-19 06:09:54.720,0.08,0.24
2021-08-19 06:09:54.724,0.075,0.48
2021-08-19 06:09:54.728,0.09,0.73
2021-08-19 06:09:54.732,0.125,0.93
2021-08-19 06:09:54.736,0.155,1.005
2021-08-19 06:09:54.740,0.12,0.995
2021-08-19 06:09:54.744,0.06,0.94
2021-08-19 06:09:54.748,0.055,0.77
2021-08-19 06:09:54.752,0.005,0.455
2021-08-19 06:09:54.756,-0.11,0.02
2021-08-19 06:09:54.760,-0.305,-0.265
2021-08-19 06:09:54.764,-0.635,-0.24
2021-08-19 06:09:54.768,-1.01,-0.02
2021-08-19 06:09:54.772,-1.365,0.04
2021-08-19 06:09:54.776,-1.555,-0.115
2021-08-19 06:09:54.780,-1.64,-0.36
2021-08-19 06:09:54.784,-1.58,-0.515
2021-08-19 06:09:54.788,-1.31,-0.56
2021-08-19 06:09:54.792,-0.84,-0.565
2021-08-19 06:09:54.796,-0.44,-0.515
2021-08-19 06:09:54.800,-0.195,-0.425
2021-08-19 06:09:54.804,-0.135,-0.35
2021-08-19 06:09:54.808,-0.11,-0.31
2021-08-19 06:09:54.812,-0.12,-0.29
2021-08-19 06:09:54.816,-0.08,-0.305
2021-08-19 06:09:54.820,-0.075,-0.3
2021-08-19 06:09:54.824,-0.04,-0.28
2021-08-19 06:09:54.828,0.03,-0.3
2021-08-19 06:09:54.832,0.075,-0.29
2021-08-19 06:09:54.836,0.105,-0.29
2021-08-19 06:09:54.840,0.14,-0.31
2021-08-19 06:09:54.844,0.165,-0.295
2021-08-19 06:09:54.848,0.17,-0.3
2021-08-19 06:09:54.852,0.175,-0.295
2021-08-19 06:09:54.856,0.18,-0.31
2021-08-19 06:09:54.860,0.175,-0.27
2021-08-19 06:09:54.864,0.185,-0.305
2021-08-19 06:09:54.868,0.175,-0.285
2021-08-19 06:09:54.872,0.175,-0.29
2021-08-19 06:09:54.876,0.185,-0.28
2021-08-19 06:09:54.880,0.19,-0.3
2021-08-19 06:09:54.884,0.205,-0.285
2021-08-19 06:09:54.888,0.2,-0.285
2021-08-19 06:09:54.892,0.2,-0.27
2021-08-19 06:09:54.896,0.19,-0.3
2021-08-19 06:09:54.900,0.205,-0.295
2021-08-19 06:09:54.904,0.19,-0.295
2021-08-19 06:09:54.908,0.195,-0.29
2021-08-19 06:09:54.912,0.195,-0.29
2021-08-19 06:09:54.916,0.195,-0.3
2021-08-19 06:09:54.920,0.21,-0.3
2021-08-19 06:09:54.924,0.185,-0.305
2021-08-19 06:09:54.928,0.18,-0.305
2021-08-19 06:09:54.932,0.175,-0.305
2021-08-19 06:09:54.936,0.19,-0.29
2021-08-19 06:09:54.940,0.175,-0.29
2021-08-19 06:09:54.944,0.175,-0.295
2021-08-19 06:09:54.948,0.17,-0.3
2021-08-19 06:09:54.952,0.17,-0.305
2021-08-19 06:09:54.956,0.16,-0.3
2021-08-19 06:09:54.960,0.17,-0.31
2021-08-19 06:09:54.964,0.17,-0.29
2021-08-19 06:09:54.968,0.16,-0.315
2021-08-19 06:09:54.972,0.155,-0.295
2021-08-19 06:09:54.976,0.15,-0.295
2021-08-19 06:09:54.980,0.15,-0.29
2021-08-19 06:09:54.984,0.14,-0.295
2021-08-19 06:09:54.988,0.15,-0.29
2021-08-19 06:09:54.992,0.15,-0.29
2021-08-19 06:09:54.996,0.15,-0.285
2021-08-19 06:09:55.000,0.15,-0.28
2021-08-19 06:09:55.004,0.15,-0.295
2021-08-19 06:09:55.008,0.125,-0.275
2021-08-19 06:09:55.012,0.115,-0.26
2021-08-19 06:09:55.016,0.12,-0.27
2021-08-19 06:09:55.020,0.13,-0.265
2021-08-19 06:09:55.024,0.12,-0.25
2021-08-19 06:09:55.028,0.125,-0.255
2021-08-19 06:09:55.032,0.12,-0.24
2021-08-19 06:09:55.036,0.125,-0.235
2021-08-19 06:09:55.040,0.125,-0.22
2021-08-19 06:09:55.044,0.09,-0.21
2021-08-19 06:09:55.048,0.105,-0.215
2021-08-19 06:09:55.052,0.1,-0.185
2021-08-19 06:09:55.056,0.115,-0.185
2021-08-19 06:09:55.060,0.065,-0.165
2021-08-19 06:09:55.064,0.06,-0.16
2021-08-19 06:09:55.068,0.075,-0.13
2021-08-19 06:09:55.072,0.06,-0.13
2021-08-19 06:09:55.076,0.055,-0.135
2021-08-19 06:09:55.080,0.05,-0.125
2021-08-19 06:09:55.084,0.035,-0.13
2021-08-19 06:09:55.088,0.045,-0.12
2021-08-19 06:09:55.092,0.04,-0.115
2021-08-19 06:09:55.096,0.025,-0.115
2021-08-19 06:09:55.100,0.05,-0.1
2021-08-19 06:09:55.104,0.04,-0.115
2021-08-19 06:09:55.108,0.045,-0.105
2021-08-19 06:09:55.112,0.045,-0.115
2021-08-19 06:09:55.116,0.045,-0.115
2021-08-19 06:09:55.120,0.06,-0.125
2021-08-19 06:09:55.124,0.045,-0.105
2021-08-19 06:09:55.128,0.07,-0.11
2021-08-19 06:09:55.132,0.075,-0.13
2021-08-19 06:09:55.136,0.065,-0.115
2021-08-19 06:09:55.140,0.065,-0.135
2021-08-19 06:09:55.144,0.07,-0.145
2021-08-19 06:09:55.148,0.07,-0.16
2021-08-19 06:09:55.152,0.085,-0.13
2021-08-19 06:09:55.156,0.06,-0.145
2021-08-19 06:09:55.160,0.095,-0.14
2021-08-19 06:09:55.164,0.075,-0.155
2021-08-19 06:09:55.168,0.06,-0.155
2021-08-19 06:09:55.172,0.06,-0.16
2021-08-19 06:09:55.176,0.065,-0.16
2021-08-19 06:09:55.180,0.075,-0.17
2021-08-19 06:09:55.184,0.1,-0.175
2021-08-19 06:09:55.188,0.065,-0.18
2021-08-19 06:09:55.192,0.08,-0.195
2021-08-19 06:09:55.196,0.085,-0.17
2021-08-19 06:09:55.200,0.1,-0.165
2021-08-19 06:09:55.204,0.095,-0.175
2021-08-19 06:09:55.208,0.075,-0.175
2021-08-19 06:09:55.212,0.075,-0.19
2021-08-19 06:09:55.216,0.085,-0.185
2021-08-19 06:09:55.220,0.065,-0.175
2021-08-19 06:09:55.224,0.08,-0.205
2021-08-19 06:09:55.228,0.085,-0.205
2021-08-19 06:09:55.232,0.075,-0.19
2021-08-19 06:09:55.236,0.07,-0.205
2021-08-19 06:09:55.240,0.095,-0.23
2021-08-19 06:09:55.244,0.085,-0.2
2021-08-19 06:09:55.248,0.085,-0.2
2021-08-19 06:09:55.252,0.09,-0.215
2021-08-19 06:09:55.256,0.09,-0.21
2021-08-19 06:09:55.260,0.085,-0.19
2021-08-19 06:09:55.264,0.07,-0.22
2021-08-19 06:09:55.268,0.075,-0.22
2021-08-19 06:09:55.272,0.09,-0.22
2021-08-19 06:09:55.276,0.075,-0.21
2021-08-19 06:09:55.280,0.08,-0.21
2021-08-19 06:09:55.284,0.075,-0.21
2021-08-19 06:09:55.288,0.07,-0.235
2021-08-19 06:09:55.292,0.075,-0.21
2021-08-19 06:09:55.296,0.06,-0.22
2021-08-19 06:09:55.300,0.055,-0.215
2021-08-19 06:09:55.304,0.07,-0.21
2021-08-19 06:09:55.308,0.065,-0.225
2021-08-19 06:09:55.312,0.075,-0.22
2021-08-19 06:09:55.316,0.065,-0.22
2021-08-19 06:09:55.320,0.07,-0.215
2021-08-19 06:09:55.324,0.085,-0.22
2021-08-19 06:09:55.328,0.055,-0.215
2021-08-19 06:09:55.332,0.06,-0.225
2021-08-19 06:09:55.336,0.045,-0.25
2021-08-19 06:09:55.340,0.08,-0.24
2021-08-19 06:09:55.344,0.055,-0.255
2021-08-19 06:09:55.348,0.05,-0.245
2021-08-19 06:09:55.352,0.045,-0.25
2021-08-19 06:09:55.356,0.06,-0.24
2021-08-19 06:09:55.360,0.04,-0.23
2021-08-19 06:09:55.364,0.03,-0.265
2021-08-19 06:09:55.368,0.05,-0.24
2021-08-19 06:09:55.372,0.05,-0.245
2021-08-19 06:09:55.376,0.05,-0.265
2021-08-19 06:09:55.380,0.05,-0.245
2021-08-19 06:09:55.384,0.035,-0.25
2021-08-19 06:09:55.388,0.015,-0.255
2021-08-19 06:09:55.392,0.04,-0.265
2021-08-19 06:09:55.396,0.035,-0.26
2021-08-19 06:09:55.400,0.045,-0.26
2021-08-19 06:09:55.404,0.04,-0.245
2021-08-19 06:09:55.408,0.03,-0.255
2021-08-19 06:09:55.412,0.015,-0.26
2021-08-19 06:09:55.416,0.04,-0.24
2021-08-19 06:09:55.420,0.05,-0.26
2021-08-19 06:09:55.424,0.03,-0.255
2021-08-19 06:09:55.428,0.035,-0.265
2021-08-19 06:09:55.432,0.015,-0.28
2021-08-19 06:09:55.436,0.035,-0.27
2021-08-19 06:09:55.440,0.045,-0.265
2021-08-19 06:09:55.444,0.045,-0.26
2021-08-19 06:09:55.448,0.035,-0.265
2021-08-19 06:09:55.452,0.05,-0.265
2021-08-19 06:09:55.456,0.035,-0.28
2021-08-19 06:09:55.460,0.04,-0.28
2021-08-19 06:09:55.464,0.06,-0.265
2021-08-19 06:09:55.468,0.055,-0.27
2021-08-19 06:09:55.472,0.04,-0.275
2021-08-19 06:09:55.476,0.045,-0.28
2021-08-19 06:09:55.480,0.03,-0.265
2021-08-19 06:09:55.484,0.04,-0.26
2021-08-19 06:09:55.488,0.03,-0.265
2021-08-19 06:09:55.492,0.07,-0.255
2021-08-19 06:09:55.496,0.035,-0.27
2021-08-19 06:09:55.500,0.06,-0.28
2021-08-19 06:09:55.504,0.04,-0.255
2021-08-19 06:09:55.508,0.05,-0.27
2021-08-19 06:09:55.512,0.035,-0.28
2021-08-19 06:09:55.516,0.035,-0.245
2021-08-19 06:09:55.520,0.03,-0.24
2021-08-19 06:09:55.524,0.035,-0.245
2021-08-19 06:09:55.528,0.05,-0.205
2021-08-19 06:09:55.532,0.065,-0.175
2021-08-19 06:09:55.536,0.065,-0.135
2021-08-19 06:09:55.540,0.05,-0.11
2021-08-19 06:09:55.544,0.04,-0.09
2021-08-19 06:09:55.548,0.075,-0.08
2021-08-19 06:09:55.552,0.07,-0.08
2021-08-19 06:09:55.556,0.1,-0.08
2021-08-19 06:09:55.560,0.13,-0.065
2021-08-19 06:09:55.564,0.15,-0.085
2021-08-19 06:09:55.568,0.135,-0.085
2021-08-19 06:09:55.572,0.17,-0.115
2021-08-19 06:09:55.576,0.165,-0.11
2021-08-19 06:09:55.580,0.17,-0.115
2021-08-19 06:09:55.584,0.17,-0.12
2021-08-19 06:09:55.588,0.15,-0.135
2021-08-19 06:09:55.592,0.14,-0.165
2021-08-19 06:09:55.596,0.135,-0.215
2021-08-19 06:09:55.600,0.095,-0.255
2021-08-19 06:09:55.604,0.075,-0.28
2021-08-19 06:09:55.608,0.055,-0.26
2021-08-19 06:09:55.612,0.0,-0.24
2021-08-19 06:09:55.616,-0.02,-0.22
2021-08-19 06:09:55.620,-0.025,-0.18
2021-08-19 06:09:55.624,-0.01,-0.185
2021-08-19 06:09:55.628,-0.04,-0.185
2021-08-19 06:09:55.632,-0.03,-0.2
2021-08-19 06:09:55.636,-0.02,-0.195
2021-08-19 06:09:55.640,0.0,-0.21
2021-08-19 06:09:55.644,-0.01,-0.2
2021-08-19 06:09:55.648,-0.015,-0.245
2021-08-19 06:09:55.652,0.015,-0.26
2021-08-19 06:09:55.656,0.01,-0.27
2021-08-19 06:09:55.660,-0.01,-0.28
2021-08-19 06:09:55.664,0.025,-0.275
2021-08-19 06:09:55.668,0.045,-0.28
2021-08-19 06:09:55.672,0.075,-0.28
2021-08-19 06:09:55.676,0.085,-0.28
2021-08-19 06:09:55.680,0.1,-0.275
2021-08-19 06:09:55.684,0.085,-0.265
2021-08-19 06:09:55.688,0.11,-0.275
2021-08-19 06:09:55.692,0.1,-0.27
2021-08-19 06:09:55.696,0.08,-0.24
2021-08-19 06:09:55.700,0.09,-0.245
2021-08-19 06:09:55.704,0.075,-0.26
2021-08-19 06:09:55.708,0.055,-0.255
2021-08-19 06:09:55.712,0.075,-0.24
2021-08-19 06:09:55.716,0.085,-0.215
2021-08-19 06:09:55.720,0.1,-0.175
2021-08-19 06:09:55.724,0.08,-0.135
2021-08-19 06:09:55.728,0.09,-0.115
2021-08-19 06:09:55.732,0.09,-0.075
2021-08-19 06:09:55.736,0.09,0.05
2021-08-19 06:09:55.740,0.085,0.285
2021-08-19 06:09:55.744,0.095,0.52
2021-08-19 06:09:55.748,0.115,0.655
2021-08-19 06:09:55.752,0.13,0.745
2021-08-19 06:09:55.756,0.115,0.715
2021-08-19 06:09:55.760,0.08,0.615
2021-08-19 06:09:55.764,0.035,0.44
2021-08-19 06:09:55.768,-0.005,0.15
2021-08-19 06:09:55.772,-0.105,-0.205
2021-08-19 06:09:55.776,-0.34,-0.375
2021-08-19 06:09:55.780,-0.675,-0.255
2021-08-19 06:09:55.784,-1.08,-0.1
2021-08-19 06:09:55.788,-1.385,-0.105
2021-08-19 06:09:55.792,-1.59,-0.325
2021-08-19 06:09:55.796,-1.63,-0.535
2021-08-19 06:09:55.800,-1.465,-0.66
2021-08-19 06:09:55.804,-1.11,-0.7
2021-08-19 06:09:55.808,-0.64,-0.675
2021-08-19 06:09:55.812,-0.28,-0.595
2021-08-19 06:09:55.816,-0.145,-0.49
2021-08-19 06:09:55.820,-0.12,-0.425
2021-08-19 06:09:55.824,-0.12,-0.405
2021-08-19 06:09:55.828,-0.11,-0.38
2021-08-19 06:09:55.832,-0.09,-0.38
2021-08-19 06:09:55.836,-0.06,-0.41
2021-08-19 06:09:55.840,0.0,-0.405
2021-08-19 06:09:55.844,0.065,-0.39
2021-08-19 06:09:55.848,0.125,-0.39
2021-08-19 06:09:55.852,0.14,-0.4
2021-08-19 06:09:55.856,0.165,-0.38
2021-08-19 06:09:55.860,0.16,-0.41
2021-08-19 06:09:55.864,0.175,-0.385
2021-08-19 06:09:55.868,0.17,-0.4
2021-08-19 06:09:55.872,0.185,-0.375
2021-08-19 06:09:55.876,0.185,-0.39
2021-08-19 06:09:55.880,0.19,-0.385
2021-08-19 06:09:55.884,0.195,-0.38
2021-08-19 06:09:55.888,0.195,-0.375
2021-08-19 06:09:55.892,0.195,-0.37
2021-08-19 06:09:55.896,0.185,-0.37
2021-08-19 06:09:55.900,0.195,-0.365
2021-08-19 06:09:55.904,0.2,-0.365
2021-08-19 06:09:55.908,0.185,-0.35
2021-08-19 06:09:55.912,0.175,-0.345
2021-08-19 06:09:55.916,0.195,-0.355
2021-08-19 06:09:55.920,0.185,-0.33
2021-08-19 06:09:55.924,0.175,-0.31
2021-08-19 06:09:55.928,0.19,-0.29
2021-08-19 06:09:55.932,0.195,-0.265
2021-08-19 06:09:55.936,0.21,-0.23
2021-08-19 06:09:55.940,0.2,-0.23
2021-08-19 06:09:55.944,0.195,-0.195
2021-08-19 06:09:55.948,0.205,-0.165
2021-08-19 06:09:55.952,0.205,-0.175
2021-08-19 06:09:55.956,0.245,-0.155
2021-08-19 06:09:55.960,0.235,-0.12
2021-08-19 06:09:55.964,0.25,-0.11
2021-08-19 06:09:55.968,0.265,-0.11
2021-08-19 06:09:55.972,0.26,-0.125
2021-08-19 06:09:55.976,0.26,-0.155
2021-08-19 06:09:55.980,0.235,-0.17
2021-08-19 06:09:55.984,0.225,-0.18
2021-08-19 06:09:55.988,0.215,-0.235
2021-08-19 06:09:55.992,0.195,-0.295
2021-08-19 06:09:55.996,0.195,-0.36
2021-08-19 06:09:56.000,0.205,-0.37
2021-08-19 06:09:56.004,0.235,-0.39
2021-08-19 06:09:56.008,0.27,-0.39
2021-08-19 06:09:56.012,0.29,-0.365
2021-08-19 06:09:56.016,0.3,-0.365
2021-08-19 06:09:56.020,0.27,-0.385
2021-08-19 06:09:56.024,0.265,-0.375
2021-08-19 06:09:56.028,0.27,-0.385
2021-08-19 06:09:56.032,0.265,-0.385
2021-08-19 06:09:56.036,0.25,-0.405
2021-08-19 06:09:56.040,0.205,-0.41
2021-08-19 06:09:56.044,0.175,-0.4
2021-08-19 06:09:56.048,0.11,-0.395
2021-08-19 06:09:56.052,0.08,-0.38
2021-08-19 06:09:56.056,0.04,-0.375
2021-08-19 06:09:56.060,0.025,-0.35
2021-08-19 06:09:56.064,0.025,-0.345
2021-08-19 06:09:56.068,0.025,-0.33
2021-08-19 06:09:56.072,0.015,-0.31
2021-08-19 06:09:56.076,-0.005,-0.31
2021-08-19 06:09:56.080,-0.025,-0.305
2021-08-19 06:09:56.084,-0.04,-0.3
2021-08-19 06:09:56.088,-0.03,-0.28
2021-08-19 06:09:56.092,-0.035,-0.27
2021-08-19 06:09:56.096,-0.04,-0.28
2021-08-19 06:09:56.100,-0.04,-0.275
2021-08-19 06:09:56.104,-0.025,-0.275
2021-08-19 06:09:56.108,-0.02,-0.275
2021-08-19 06:09:56.112,-0.01,-0.275
2021-08-19 06:09:56.116,-0.02,-0.28
2021-08-19 06:09:56.120,-0.025,-0.265
2021-08-19 06:09:56.124,-0.015,-0.275
2021-08-19 06:09:56.128,-0.015,-0.275
2021-08-19 06:09:56.132,-0.005,-0.265
2021-08-19 06:09:56.136,-0.005,-0.275
2021-08-19 06:09:56.140,-0.015,-0.28
2021-08-19 06:09:56.144,-0.005,-0.285
2021-08-19 06:09:56.148,0.0,-0.27
2021-08-19 06:09:56.152,0.025,-0.24
2021-08-19 06:09:56.156,0.0,-0.24
2021-08-19 06:09:56.160,0.03,-0.24
2021-08-19 06:09:56.164,0.0,-0.215
2021-08-19 06:09:56.168,0.01,-0.215
2021-08-19 06:09:56.172,0.04,-0.2
2021-08-19 06:09:56.176,0.025,-0.18
2021-08-19 06:09:56.180,0.06,-0.18
2021-08-19 06:09:56.184,0.06,-0.185
2021-08-19 06:09:56.188,0.075,-0.155
2021-08-19 06:09:56.192,0.1,-0.185
2021-08-19 06:09:56.196,0.1,-0.17
2021-08-19 06:09:56.200,0.11,-0.19
2021-08-19 06:09:56.204,0.11,-0.155
2021-08-19 06:09:56.208,0.125,-0.145
2021-08-19 06:09:56.212,0.125,-0.14
2021-08-19 06:09:56.216,0.11,-0.16
2021-08-19 06:09:56.220,0.095,-0.18
2021-08-19 06:09:56.224,0.09,-0.18
2021-08-19 06:09:56.228,0.115,-0.2
2021-08-19 06:09:56.232,0.115,-0.205
2021-08-19 06:09:56.236,0.095,-0.21
2021-08-19 06:09:56.240,0.11,-0.205
2021-08-19 06:09:56.244,0.095,-0.205
2021-08-19 06:09:56.248,0.095,-0.16
2021-08-19 06:09:56.252,0.11,-0.17
2021-08-19 06:09:56.256,0.15,-0.18
2021-08-19 06:09:56.260,0.14,-0.16
2021-08-19 06:09:56.264,0.18,-0.17
2021-08-19 06:09:56.268,0.19,-0.17
2021-08-19 06:09:56.272,0.24,-0.17
2021-08-19 06:09:56.276,0.25,-0.17
2021-08-19 06:09:56.280,0.225,-0.155
2021-08-19 06:09:56.284,0.22,-0.14
2021-08-19 06:09:56.288,0.175,-0.1
2021-08-19 06:09:56.292,0.105,-0.055
2021-08-19 06:09:56.296,0.05,-0.025
2021-08-19 06:09:56.300,0.015,0.01
2021-08-19 06:09:56.304,-0.005,0.04
2021-08-19 06:09:56.308,-0.025,0.115
2021-08-19 06:09:56.312,-0.005,0.135
2021-08-19 06:09:56.316,0.055,0.04
2021-08-19 06:09:56.320,0.085,-0.12
2021-08-19 06:09:56.324,0.045,-0.4
2021-08-19 06:09:56.328,-0.01,-0.64
2021-08-19 06:09:56.332,-0.1,-0.875
2021-08-19 06:09:56.336,-0.165,-1.06
2021-08-19 06:09:56.340,-0.255,-1.165
2021-08-19 06:09:56.344,-0.365,-1.035
2021-08-19 06:09:56.348,-0.475,-0.81
2021-08-19 06:09:56.352,-0.58,-0.695
2021-08-19 06:09:56.356,-0.575,-0.83
2021-08-19 06:09:56.360,-0.505,-1.005
2021-08-19 06:09:56.364,-0.38,-1.14
2021-08-19 06:09:56.368,-0.04,-1.23
2021-08-19 06:09:56.372,0.39,-1.19
2021-08-19 06:09:56.376,0.745,-1.05
2021-08-19 06:09:56.380,0.94,-0.9
2021-08-19 06:09:56.384,0.92,-0.74
2021-08-19 06:09:56.388,0.81,-0.615
2021-08-19 06:09:56.392,0.79,-0.56
2021-08-19 06:09:56.396,0.78,-0.525
2021-08-19 06:09:56.400,0.83,-0.5
2021-08-19 06:09:56.404,0.905,-0.49
2021-08-19 06:09:56.408,0.935,-0.49
2021-08-19 06:09:56.412,0.97,-0.535
2021-08-19 06:09:56.416,0.995,-0.5
2021-08-19 06:09:56.420,0.985,-0.455
2021-08-19 06:09:56.424,0.95,-0.385
2021-08-19 06:09:56.428,0.9,-0.31
2021-08-19 06:09:56.432,0.805,-0.3
2021-08-19 06:09:56.436,0.66,-0.29
2021-08-19 06:09:56.440,0.475,-0.285
2021-08-19 06:09:56.444,0.28,-0.285
2021-08-19 06:09:56.448,0.115,-0.27
2021-08-19 06:09:56.452,0.0,-0.255
2021-08-19 06:09:56.456,-0.035,-0.26
2021-08-19 06:09:56.460,-0.01,-0.25
2021-08-19 06:09:56.464,-0.01,-0.25
2021-08-19 06:09:56.468,-0.01,-0.245
2021-08-19 06:09:56.472,0.005,-0.215
2021-08-19 06:09:56.476,0.015,-0.22
2021-08-19 06:09:56.480,-0.01,-0.215
2021-08-19 06:09:56.484,-0.045,-0.24
2021-08-19 06:09:56.488,-0.05,-0.245
2021-08-19 06:09:56.492,-0.12,-0.265
2021-08-19 06:09:56.496,-0.185,-0.255
2021-08-19 06:09:56.500,-0.22,-0.28
2021-08-19 06:09:56.504,-0.255,-0.28
2021-08-19 06:09:56.508,-0.28,-0.3
2021-08-19 06:09:56.512,-0.27,-0.3
2021-08-19 06:09:56.516,-0.28,-0.28
2021-08-19 06:09:56.520,-0.265,-0.28
2021-08-19 06:09:56.524,-0.295,-0.295
2021-08-19 06:09:56.528,-0.295,-0.28
2021-08-19 06:09:56.532,-0.305,-0.28
2021-08-19 06:09:56.536,-0.305,-0.31
2021-08-19 06:09:56.540,-0.315,-0.295
2021-08-19 06:09:56.544,-0.315,-0.265
2021-08-19 06:09:56.548,-0.305,-0.245
2021-08-19 06:09:56.552,-0.285,-0.25
2021-08-19 06:09:56.556,-0.285,-0.23
2021-08-19 06:09:56.560,-0.32,-0.215
2021-08-19 06:09:56.564,-0.29,-0.195
2021-08-19 06:09:56.568,-0.275,-0.19
2021-08-19 06:09:56.572,-0.27,-0.165
2021-08-19 06:09:56.576,-0.265,-0.16
2021-08-19 06:09:56.580,-0.26,-0.16
2021-08-19 06:09:56.584,-0.235,-0.15
2021-08-19 06:09:56.588,-0.255,-0.145
2021-08-19 06:09:56.592,-0.25,-0.125
2021-08-19 06:09:56.596,-0.24,-0.13
2021-08-19 06:09:56.600,-0.245,-0.13
2021-08-19 06:09:56.604,-0.265,-0.12
2021-08-19 06:09:56.608,-0.27,-0.105
2021-08-19 06:09:56.612,-0.275,-0.115
2021-08-19 06:09:56.616,-0.27,-0.1
2021-08-19 06:09:56.620,-0.28,-0.1
2021-08-19 06:09:56.624,-0.29,-0.11
2021-08-19 06:09:56.628,-0.295,-0.105
2021-08-19 06:09:56.632,-0.295,-0.085
2021-08-19 06:09:56.636,-0.305,-0.06
2021-08-19 06:09:56.640,-0.315,-0.065
2021-08-19 06:09:56.644,-0.33,-0.07
2021-08-19 06:09:56.648,-0.32,-0.08
2021-08-19 06:09:56.652,-0.325,-0.07
2021-08-19 06:09:56.656,-0.3,-0.06
2021-08-19 06:09:56.660,-0.26,-0.06
2021-08-19 06:09:56.664,-0.19,-0.065
2021-08-19 06:09:56.668,-0.19,-0.07
2021-08-19 06:09:56.672,-0.175,-0.075
2021-08-19 06:09:56.676,-0.14,-0.1
2021-08-19 06:09:56.680,-0.155,-0.105
2021-08-19 06:09:56.684,-0.155,-0.135
2021-08-19 06:09:56.688,-0.175,-0.16
2021-08-19 06:09:56.692,-0.2,-0.17
2021-08-19 06:09:56.696,-0.22,-0.2
2021-08-19 06:09:56.700,-0.225,-0.215
2021-08-19 06:09:56.704,-0.21,-0.245
2021-08-19 06:09:56.708,-0.215,-0.265
2021-08-19 06:09:56.712,-0.19,-0.265
2021-08-19 06:09:56.716,-0.185,-0.285
2021-08-19 06:09:56.720,-0.175,-0.295
2021-08-19 06:09:56.724,-0.15,-0.305
2021-08-19 06:09:56.728,-0.145,-0.31
2021-08-19 06:09:56.732,-0.13,-0.32
2021-08-19 06:09:56.736,-0.125,-0.34
2021-08-19 06:09:56.740,-0.11,-0.35
2021-08-19 06:09:56.744,-0.1,-0.36
2021-08-19 06:09:56.748,-0.08,-0.365
2021-08-19 06:09:56.752,-0.065,-0.385
2021-08-19 06:09:56.756,-0.045,-0.38
2021-08-19 06:09:56.760,-0.055,-0.39
2021-08-19 06:09:56.764,-0.07,-0.385
2021-08-19 06:09:56.768,-0.03,-0.4
2021-08-19 06:09:56.772,-0.055,-0.38
2021-08-19 06:09:56.776,-0.035,-0.39
2021-08-19 06:09:56.780,-0.025,-0.41
2021-08-19 06:09:56.784,-0.045,-0.41
2021-08-19 06:09:56.788,-0.015,-0.425
2021-08-19 06:09:56.792,-0.025,-0.435
2021-08-19 06:09:56.796,-0.015,-0.45
2021-08-19 06:09:56.800,-0.03,-0.475
2021-08-19 06:09:56.804,-0.03,-0.46
2021-08-19 06:09:56.808,-0.02,-0.46
2021-08-19 06:09:56.812,-0.025,-0.44
2021-08-19 06:09:56.816,-0.03,-0.415
2021-08-19 06:09:56.820,-0.04,-0.445
2021-08-19 06:09:56.824,-0.015,-0.43
2021-08-19 06:09:56.828,-0.02,-0.435
2021-08-19 06:09:56.832,-0.035,-0.415
2021-08-19 06:09:56.836,-0.04,-0.385
2021-08-19 06:09:56.840,-0.04,-0.37
2021-08-19 06:09:56.844,-0.025,-0.355
2021-08-19 06:09:56.848,-0.055,-0.315
2021-08-19 06:09:56.852,-0.05,-0.295
2021-08-19 06:09:56.856,-0.04,-0.265
2021-08-19 06:09:56.860,-0.035,-0.22
2021-08-19 06:09:56.864,0.005,-0.2
2021-08-19 06:09:56.868,0.035,-0.215
2021-08-19 06:09:56.872,0.035,-0.19
2021-08-19 06:09:56.876,0.07,-0.2
2021-08-19 06:09:56.880,0.075,-0.2
2021-08-19 06:09:56.884,0.11,-0.18
2021-08-19 06:09:56.888,0.12,-0.215
2021-08-19 06:09:56.892,0.12,-0.25
2021-08-19 06:09:56.896,0.06,-0.26
2021-08-19 06:09:56.900,0.045,-0.27
2021-08-19 06:09:56.904,0.025,-0.285
2021-08-19 06:09:56.908,0.035,-0.275
2021-08-19 06:09:56.912,0.05,-0.285
2021-08-19 06:09:56.916,0.055,-0.29
2021-08-19 06:09:56.920,0.03,-0.305
2021-08-19 06:09:56.924,0.05,-0.305
2021-08-19 06:09:56.928,0.045,-0.32
2021-08-19 06:09:56.932,0.05,-0.305
2021-08-19 06:09:56.936,0.05,-0.32
2021-08-19 06:09:56.940,0.035,-0.335
2021-08-19 06:09:56.944,0.03,-0.31
2021-08-19 06:09:56.948,0.045,-0.32
2021-08-19 06:09:56.952,0.05,-0.345
2021-08-19 06:09:56.956,0.03,-0.345
2021-08-19 06:09:56.960,0.035,-0.35
2021-08-19 06:09:56.964,0.035,-0.345
2021-08-19 06:09:56.968,0.045,-0.335
2021-08-19 06:09:56.972,0.045,-0.345
2021-08-19 06:09:56.976,0.05,-0.36
2021-08-19 06:09:56.980,0.05,-0.365
2021-08-19 06:09:56.984,0.05,-0.365
2021-08-19 06:09:56.988,0.07,-0.395
2021-08-19 06:09:56.992,0.065,-0.375
2021-08-19 06:09:56.996,0.045,-0.36
2021-08-19 06:09:57.000,0.075,-0.355
2021-08-19 06:09:57.004,0.055,-0.36
2021-08-19 06:09:57.008,0.06,-0.36
2021-08-19 06:09:57.012,0.06,-0.37
2021-08-19 06:09:57.016,0.045,-0.36
2021-08-19 06:09:57.020,0.045,-0.38
2021-08-19 06:09:57.024,0.06,-0.385
2021-08-19 06:09:57.028,0.065,-0.395
2021-08-19 06:09:57.032,0.055,-0.415
2021-08-19 06:09:57.036,0.04,-0.425
2021-08-19 06:09:57.040,0.045,-0.435
2021-08-19 06:09:57.044,0.06,-0.45
2021-08-19 06:09:57.048,0.065,-0.46
2021-08-19 06:09:57.052,0.055,-0.455
2021-08-19 06:09:57.056,0.04,-0.47
2021-08-19 06:09:57.060,0.035,-0.495
2021-08-19 06:09:57.064,0.045,-0.515
2021-08-19 06:09:57.068,0.025,-0.535
2021-08-19 06:09:57.072,0.01,-0.515
2021-08-19 06:09:57.076,0.0,-0.475
2021-08-19 06:09:57.080,0.01,-0.455
2021-08-19 06:09:57.084,0.0,-0.41
2021-08-19 06:09:57.088,0.03,-0.38
2021-08-19 06:09:57.092,0.035,-0.365
2021-08-19 06:09:57.096,0.035,-0.37
2021-08-19 06:09:57.100,0.07,-0.375
2021-08-19 06:09:57.104,0.09,-0.35
2021-08-19 06:09:57.108,0.1,-0.33
2021-08-19 06:09:57.112,0.08,-0.335
2021-08-19 06:09:57.116,0.05,-0.35
2021-08-19 06:09:57.120,0.025,-0.345
2021-08-19 06:09:57.124,-0.04,-0.335
2021-08-19 06:09:57.128,-0.08,-0.315
2021-08-19 06:09:57.132,-0.095,-0.35
2021-08-19 06:09:57.136,-0.08,-0.35
2021-08-19 06:09:57.140,-0.09,-0.35
2021-08-19 06:09:57.144,-0.08,-0.39
2021-08-19 06:09:57.148,-0.06,-0.415
2021-08-19 06:09:57.152,-0.015,-0.43
2021-08-19 06:09:57.156,0.0,-0.395
2021-08-19 06:09:57.160,-0.005,-0.395
2021-08-19 06:09:57.164,0.015,-0.44
2021-08-19 06:09:57.168,0.025,-0.43
2021-08-19 06:09:57.172,0.03,-0.435
2021-08-19 06:09:57.176,0.045,-0.445
2021-08-19 06:09:57.180,0.03,-0.44
2021-08-19 06:09:57.184,0.03,-0.465
2021-08-19 06:09:57.188,0.045,-0.46
2021-08-19 06:09:57.192,0.05,-0.46
2021-08-19 06:09:57.196,0.015,-0.48
2021-08-19 06:09:57.200,0.03,-0.46
2021-08-19 06:09:57.204,0.045,-0.47
2021-08-19 06:09:57.208,0.025,-0.47
2021-08-19 06:09:57.212,0.045,-0.465
2021-08-19 06:09:57.216,0.04,-0.46
2021-08-19 06:09:57.220,0.025,-0.465
2021-08-19 06:09:57.224,0.015,-0.475
2021-08-19 06:09:57.228,0.03,-0.475
2021-08-19 06:09:57.232,0.025,-0.47
2021-08-19 06:09:57.236,0.03,-0.475
2021-08-19 06:09:57.240,0.035,-0.475
2021-08-19 06:09:57.244,0.035,-0.475
2021-08-19 06:09:57.248,0.035,-0.485
2021-08-19 06:09:57.252,0.035,-0.475
2021-08-19 06:09:57.256,0.02,-0.455
2021-08-19 06:09:57.260,0.025,-0.455
2021-08-19 06:09:57.264,0.05,-0.43
2021-08-19 06:09:57.268,0.03,-0.465
2021-08-19 06:09:57.272,0.02,-0.455
2021-08-19 06:09:57.276,0.02,-0.485
2021-08-19 06:09:57.280,0.025,-0.46
2021-08-19 06:09:57.284,0.035,-0.445
2021-08-19 06:09:57.288,0.015,-0.45
2021-08-19 06:09:57.292,0.025,-0.44
2021-08-19 06:09:57.296,-0.005,-0.42
2021-08-19 06:09:57.300,0.005,-0.38
2021-08-19 06:09:57.304,0.01,-0.365
2021-08-19 06:09:57.308,0.01,-0.36
2021-08-19 06:09:57.312,0.015,-0.355
2021-08-19 06:09:57.316,0.03,-0.35
2021-08-19 06:09:57.320,0.055,-0.37
2021-08-19 06:09:57.324,0.07,-0.395
2021-08-19 06:09:57.328,0.095,-0.4
2021-08-19 06:09:57.332,0.135,-0.43
2021-08-19 06:09:57.336,0.155,-0.4
2021-08-19 06:09:57.340,0.15,-0.395
2021-08-19 06:09:57.344,0.155,-0.385
2021-08-19 06:09:57.348,0.125,-0.375
2021-08-19 06:09:57.352,0.09,-0.39
2021-08-19 06:09:57.356,0.02,-0.385
2021-08-19 06:09:57.360,-0.02,-0.425
2021-08-19 06:09:57.364,-0.035,-0.425
2021-08-19 06:09:57.368,-0.04,-0.445
2021-08-19 06:09:57.372,0.0,-0.44
2021-08-19 06:09:57.376,-0.015,-0.45
2021-08-19 06:09:57.380,0.0,-0.475
2021-08-19 06:09:57.384,0.02,-0.49
2021-08-19 06:09:57.388,0.04,-0.49
2021-08-19 06:09:57.392,0.055,-0.495
2021-08-19 06:09:57.396,0.025,-0.505
2021-08-19 06:09:57.400,0.015,-0.515
2021-08-19 06:09:57.404,0.02,-0.515
2021-08-19 06:09:57.408,0.015,-0.515
2021-08-19 06:09:57.412,0.025,-0.525
2021-08-19 06:09:57.416,0.035,-0.53
2021-08-19 06:09:57.420,0.005,-0.52
2021-08-19 06:09:57.424,0.04,-0.515
2021-08-19 06:09:57.428,0.015,-0.52
2021-08-19 06:09:57.432,0.015,-0.505
2021-08-19 06:09:57.436,0.015,-0.52
2021-08-19 06:09:57.440,0.025,-0.535
2021-08-19 06:09:57.444,0.01,-0.545
2021-08-19 06:09:57.448,-0.015,-0.54
2021-08-19 06:09:57.452,0.0,-0.555
2021-08-19 06:09:57.456,0.0,-0.525
2021-08-19 06:09:57.460,0.02,-0.55
2021-08-19 06:09:57.464,0.035,-0.55
2021-08-19 06:09:57.468,0.01,-0.545
2021-08-19 06:09:57.472,0.025,-0.555
2021-08-19 06:09:57.476,0.03,-0.54
2021-08-19 06:09:57.480,0.04,-0.55
2021-08-19 06:09:57.484,0.0,-0.57
2021-08-19 06:09:57.488,0.01,-0.58
2021-08-19 06:09:57.492,0.02,-0.575
2021-08-19 06:09:57.496,0.0,-0.58
2021-08-19 06:09:57.500,0.015,-0.565
2021-08-19 06:09:57.504,0.025,-0.59
2021-08-19 06:09:57.508,0.015,-0.56
2021-08-19 06:09:57.512,0.015,-0.585
2021-08-19 06:09:57.516,0.015,-0.595
2021-08-19 06:09:57.520,0.035,-0.58
2021-08-19 06:09:57.524,0.025,-0.61
2021-08-19 06:09:57.528,0.015,-0.615
2021-08-19 06:09:57.532,0.015,-0.59
2021-08-19 06:09:57.536,0.01,-0.54
2021-08-19 06:09:57.540,0.005,-0.47
2021-08-19 06:09:57.544,-0.005,-0.42
2021-08-19 06:09:57.548,0.0,-0.36
2021-08-19 06:09:57.552,-0.01,-0.295
2021-08-19 06:09:57.556,-0.03,-0.21
2021-08-19 06:09:57.560,-0.03,0.0
2021-08-19 06:09:57.564,0.01,0.25
2021-08-19 06:09:57.568,0.01,0.495
2021-08-19 06:09:57.572,0.08,0.69
2021-08-19 06:09:57.576,0.125,0.8
2021-08-19 06:09:57.580,0.125,0.82
2021-08-19 06:09:57.584,0.09,0.73
2021-08-19 06:09:57.588,0.035,0.585
2021-08-19 06:09:57.592,0.01,0.28
2021-08-19 06:09:57.596,-0.035,-0.07
2021-08-19 06:09:57.600,-0.18,-0.33
2021-08-19 06:09:57.604,-0.44,-0.32
2021-08-19 06:09:57.608,-0.78,-0.19
2021-08-19 06:09:57.612,-1.085,-0.19
2021-08-19 06:09:57.616,-1.235,-0.37
2021-08-19 06:09:57.620,-1.275,-0.585
2021-08-19 06:09:57.624,-1.185,-0.725
2021-08-19 06:09:57.628,-0.925,-0.81
2021-08-19 06:09:57.632,-0.565,-0.84
2021-08-19 06:09:57.636,-0.255,-0.8
2021-08-19 06:09:57.640,-0.13,-0.74
2021-08-19 06:09:57.644,-0.12,-0.65
2021-08-19 06:09:57.648,-0.115,-0.635
2021-08-19 06:09:57.652,-0.155,-0.635
2021-08-19 06:09:57.656,-0.145,-0.63
2021-08-19 06:09:57.660,-0.135,-0.625
2021-08-19 06:09:57.664,-0.085,-0.62
2021-08-19 06:09:57.668,-0.045,-0.64
2021-08-19 06:09:57.672,0.015,-0.635
2021-08-19 06:09:57.676,0.045,-0.635
2021-08-19 06:09:57.680,0.065,-0.625
2021-08-19 06:09:57.684,0.09,-0.64
2021-08-19 06:09:57.688,0.085,-0.635
2021-08-19 06:09:57.692,0.09,-0.64
2021-08-19 06:09:57.696,0.095,-0.64
2021-08-19 06:09:57.700,0.085,-0.65
2021-08-19 06:09:57.704,0.105,-0.64
2021-08-19 06:09:57.708,0.11,-0.645
2021-08-19 06:09:57.712,0.095,-0.655
2021-08-19 06:09:57.716,0.115,-0.635
2021-08-19 06:09:57.720,0.135,-0.655
2021-08-19 06:09:57.724,0.14,-0.645
2021-08-19 06:09:57.728,0.105,-0.635
2021-08-19 06:09:57.732,0.125,-0.635
2021-08-19 06:09:57.736,0.115,-0.63
2021-08-19 06:09:57.740,0.135,-0.63
2021-08-19 06:09:57.744,0.13,-0.63
2021-08-19 06:09:57.748,0.14,-0.65
2021-08-19 06:09:57.752,0.12,-0.62
2021-08-19 06:09:57.756,0.115,-0.63
2021-08-19 06:09:57.760,0.115,-0.62
2021-08-19 06:09:57.764,0.12,-0.63
2021-08-19 06:09:57.768,0.115,-0.65
2021-08-19 06:09:57.772,0.11,-0.64
2021-08-19 06:09:57.776,0.125,-0.66
2021-08-19 06:09:57.780,0.13,-0.665
2021-08-19 06:09:57.784,0.12,-0.665
2021-08-19 06:09:57.788,0.125,-0.67
2021-08-19 06:09:57.792,0.125,-0.67
2021-08-19 06:09:57.796,0.125,-0.68
2021-08-19 06:09:57.800,0.12,-0.69
2021-08-19 06:09:57.804,0.12,-0.695
2021-08-19 06:09:57.808,0.12,-0.695
2021-08-19 06:09:57.812,0.115,-0.695
2021-08-19 06:09:57.816,0.125,-0.695
2021-08-19 06:09:57.820,0.125,-0.68
2021-08-19 06:09:57.824,0.115,-0.705
2021-08-19 06:09:57.828,0.115,-0.72
2021-08-19 06:09:57.832,0.12,-0.7
2021-08-19 06:09:57.836,0.105,-0.71
2021-08-19 06:09:57.840,0.095,-0.69
2021-08-19 06:09:57.844,0.12,-0.705
2021-08-19 06:09:57.848,0.095,-0.7
2021-08-19 06:09:57.852,0.1,-0.72
2021-08-19 06:09:57.856,0.1,-0.715
2021-08-19 06:09:57.860,0.095,-0.69
2021-08-19 06:09:57.864,0.095,-0.7
2021-08-19 06:09:57.868,0.085,-0.695
2021-08-19 06:09:57.872,0.105,-0.7
2021-08-19 06:09:57.876,0.075,-0.66
2021-08-19 06:09:57.880,0.065,-0.68
2021-08-19 06:09:57.884,0.095,-0.685
2021-08-19 06:09:57.888,0.08,-0.665
2021-08-19 06:09:57.892,0.05,-0.655
2021-08-19 06:09:57.896,0.09,-0.64
2021-08-19 06:09:57.900,0.065,-0.625
2021-08-19 06:09:57.904,0.065,-0.61
2021-08-19 06:09:57.908,0.065,-0.59
2021-08-19 06:09:57.912,0.055,-0.585
2021-08-19 06:09:57.916,0.055,-0.55
2021-08-19 06:09:57.920,0.06,-0.555
2021-08-19 06:09:57.924,0.075,-0.515
2021-08-19 06:09:57.928,0.04,-0.5
2021-08-19 06:09:57.932,0.045,-0.495
2021-08-19 06:09:57.936,0.05,-0.47
2021-08-19 06:09:57.940,0.04,-0.44
2021-08-19 06:09:57.944,0.055,-0.425
2021-08-19 06:09:57.948,0.06,-0.41
2021-08-19 06:09:57.952,0.035,-0.39
2021-08-19 06:09:57.956,0.05,-0.38
2021-08-19 06:09:57.960,0.045,-0.345
2021-08-19 06:09:57.964,0.05,-0.325
2021-08-19 06:09:57.968,0.05,-0.33
2021-08-19 06:09:57.972,0.075,-0.32
2021-08-19 06:09:57.976,0.08,-0.305
2021-08-19 06:09:57.980,0.06,-0.31
2021-08-19 06:09:57.984,0.06,-0.29
2021-08-19 06:09:57.988,0.05,-0.29
2021-08-19 06:09:57.992,0.075,-0.29
2021-08-19 06:09:57.996,0.095,-0.28
2021-08-19 06:09:58.000,0.075,-0.285
2021-08-19 06:09:58.004,0.075,-0.275
2021-08-19 06:09:58.008,0.085,-0.28
2021-08-19 06:09:58.012,0.095,-0.29
2021-08-19 06:09:58.016,0.1,-0.29
2021-08-19 06:09:58.020,0.1,-0.275
2021-08-19 06:09:58.024,0.09,-0.28
2021-08-19 06:09:58.028,0.12,-0.27
2021-08-19 06:09:58.032,0.1,-0.29
2021-08-19 06:09:58.036,0.1,-0.295
2021-08-19 06:09:58.040,0.12,-0.285
2021-08-19 06:09:58.044,0.105,-0.285
2021-08-19 06:09:58.048,0.105,-0.285
2021-08-19 06:09:58.052,0.115,-0.29
2021-08-19 06:09:58.056,0.14,-0.285
2021-08-19 06:09:58.060,0.14,-0.295
2021-08-19 06:09:58.064,0.125,-0.285
2021-08-19 06:09:58.068,0.145,-0.29
2021-08-19 06:09:58.072,0.11,-0.28
2021-08-19 06:09:58.076,0.125,-0.28
2021-08-19 06:09:58.080,0.12,-0.28
2021-08-19 06:09:58.084,0.105,-0.3
2021-08-19 06:09:58.088,0.115,-0.305
2021-08-19 06:09:58.092,0.13,-0.295
2021-08-19 06:09:58.096,0.105,-0.295
2021-08-19 06:09:58.100,0.12,-0.3
2021-08-19 06:09:58.104,0.12,-0.305
2021-08-19 06:09:58.108,0.125,-0.29
2021-08-19 06:09:58.112,0.085,-0.305
2021-08-19 06:09:58.116,0.095,-0.305
2021-08-19 06:09:58.120,0.115,-0.32
2021-08-19 06:09:58.124,0.085,-0.31
2021-08-19 06:09:58.128,0.11,-0.31
2021-08-19 06:09:58.132,0.095,-0.3
2021-08-19 06:09:58.136,0.115,-0.29
2021-08-19 06:09:58.140,0.11,-0.285
2021-08-19 06:09:58.144,0.08,-0.275
2021-08-19 06:09:58.148,0.09,-0.285
2021-08-19 06:09:58.152,0.09,-0.27
2021-08-19 06:09:58.156,0.095,-0.285
2021-08-19 06:09:58.160,0.1,-0.255
2021-08-19 06:09:58.164,0.08,-0.23
2021-08-19 06:09:58.168,0.08,-0.19
2021-08-19 06:09:58.172,0.08,-0.175
2021-08-19 06:09:58.176,0.095,-0.14
2021-08-19 06:09:58.180,0.095,-0.12
2021-08-19 06:09:58.184,0.1,-0.11
2021-08-19 06:09:58.188,0.105,-0.135
2021-08-19 06:09:58.192,0.105,-0.16
2021-08-19 06:09:58.196,0.1,-0.16
2021-08-19 06:09:58.200,0.135,-0.19
2021-08-19 06:09:58.204,0.18,-0.21
2021-08-19 06:09:58.208,0.155,-0.235
2021-08-19 06:09:58.212,0.185,-0.22
2021-08-19 06:09:58.216,0.21,-0.235
2021-08-19 06:09:58.220,0.21,-0.22
2021-08-19 06:09:58.224,0.225,-0.25
2021-08-19 06:09:58.228,0.23,-0.255
2021-08-19 06:09:58.232,0.21,-0.265
2021-08-19 06:09:58.236,0.175,-0.25
2021-08-19 06:09:58.240,0.12,-0.285
2021-08-19 06:09:58.244,0.065,-0.26
2021-08-19 06:09:58.248,0.03,-0.28
2021-08-19 06:09:58.252,0.015,-0.305
2021-08-19 06:09:58.256,0.015,-0.31
2021-08-19 06:09:58.260,0.015,-0.31
2021-08-19 06:09:58.264,0.065,-0.315
2021-08-19 06:09:58.268,0.075,-0.32
2021-08-19 06:09:58.272,0.1,-0.305
2021-08-19 06:09:58.276,0.095,-0.305
2021-08-19 06:09:58.280,0.095,-0.295
2021-08-19 06:09:58.284,0.1,-0.315
2021-08-19 06:09:58.288,0.095,-0.295
2021-08-19 06:09:58.292,0.11,-0.29
2021-08-19 06:09:58.296,0.115,-0.295
2021-08-19 06:09:58.300,0.095,-0.29
2021-08-19 06:09:58.304,0.105,-0.28
2021-08-19 06:09:58.308,0.09,-0.285
2021-08-19 06:09:58.312,0.115,-0.29
2021-08-19 06:09:58.316,0.095,-0.28
2021-08-19 06:09:58.320,0.105,-0.27
2021-08-19 06:09:58.324,0.11,-0.265
2021-08-19 06:09:58.328,0.09,-0.245
2021-08-19 06:09:58.332,0.075,-0.225
2021-08-19 06:09:58.336,0.07,-0.195
2021-08-19 06:09:58.340,0.085,-0.155
2021-08-19 06:09:58.344,0.09,-0.13
2021-08-19 06:09:58.348,0.09,-0.045
2021-08-19 06:09:58.352,0.085,0.085
2021-08-19 06:09:58.356,0.07,0.365
2021-08-19 06:09:58.360,0.105,0.635
2021-08-19 06:09:58.364,0.14,0.825
2021-08-19 06:09:58.368,0.17,0.93
2021-08-19 06:09:58.372,0.18,0.965
2021-08-19 06:09:58.376,0.14,0.865
2021-08-19 06:09:58.380,0.08,0.67
2021-08-19 06:09:58.384,0.07,0.345
2021-08-19 06:09:58.388,-0.035,-0.055
2021-08-19 06:09:58.392,-0.23,-0.285
2021-08-19 06:09:58.396,-0.5,-0.265
2021-08-19 06:09:58.400,-0.83,-0.115
2021-08-19 06:09:58.404,-1.175,-0.12
2021-08-19 06:09:58.408,-1.4,-0.35
2021-08-19 06:09:58.412,-1.48,-0.545
2021-08-19 06:09:58.416,-1.425,-0.685
2021-08-19 06:09:58.420,-1.135,-0.725
2021-08-19 06:09:58.424,-0.72,-0.7
2021-08-19 06:09:58.428,-0.365,-0.62
2021-08-19 06:09:58.432,-0.17,-0.51
2021-08-19 06:09:58.436,-0.135,-0.435
2021-08-19 06:09:58.440,-0.14,-0.41
2021-08-19 06:09:58.444,-0.115,-0.415
2021-08-19 06:09:58.448,-0.09,-0.41
2021-08-19 06:09:58.452,-0.05,-0.415
2021-08-19 06:09:58.456,-0.015,-0.39
2021-08-19 06:09:58.460,0.035,-0.41
2021-08-19 06:09:58.464,0.11,-0.405
2021-08-19 06:09:58.468,0.155,-0.415
2021-08-19 06:09:58.472,0.15,-0.4
2021-08-19 06:09:58.476,0.185,-0.4
2021-08-19 06:09:58.480,0.19,-0.385
2021-08-19 06:09:58.484,0.175,-0.385
2021-08-19 06:09:58.488,0.175,-0.37
2021-08-19 06:09:58.492,0.19,-0.385
2021-08-19 06:09:58.496,0.17,-0.38
2021-08-19 06:09:58.500,0.18,-0.36
2021-08-19 06:09:58.504,0.195,-0.37
2021-08-19 06:09:58.508,0.19,-0.37
2021-08-19 06:09:58.512,0.205,-0.355
2021-08-19 06:09:58.516,0.18,-0.36
2021-08-19 06:09:58.520,0.195,-0.36
2021-08-19 06:09:58.524,0.21,-0.36
2021-08-19 06:09:58.528,0.21,-0.35
2021-08-19 06:09:58.532,0.195,-0.35
2021-08-19 06:09:58.536,0.195,-0.36
2021-08-19 06:09:58.540,0.215,-0.36
2021-08-19 06:09:58.544,0.215,-0.365
2021-08-19 06:09:58.548,0.195,-0.36
2021-08-19 06:09:58.552,0.23,-0.35
2021-08-19 06:09:58.556,0.21,-0.36
2021-08-19 06:09:58.560,0.2,-0.37
2021-08-19 06:09:58.564,0.205,-0.38
2021-08-19 06:09:58.568,0.21,-0.37
2021-08-19 06:09:58.572,0.2,-0.36
2021-08-19 06:09:58.576,0.2,-0.38
2021-08-19 06:09:58.580,0.185,-0.37
2021-08-19 06:09:58.584,0.19,-0.38
2021-08-19 06:09:58.588,0.19,-0.39
2021-08-19 06:09:58.592,0.185,-0.385
2021-08-19 06:09:58.596,0.195,-0.385
2021-08-19 06:09:58.600,0.195,-0.41
2021-08-19 06:09:58.604,0.205,-0.38
2021-08-19 06:09:58.608,0.17,-0.375
2021-08-19 06:09:58.612,0.185,-0.38
2021-08-19 06:09:58.616,0.175,-0.365
2021-08-19 06:09:58.620,0.16,-0.395
2021-08-19 06:09:58.624,0.16,-0.385
2021-08-19 06:09:58.628,0.19,-0.38
2021-08-19 06:09:58.632,0.19,-0.36
2021-08-19 06:09:58.636,0.16,-0.37
2021-08-19 06:09:58.640,0.165,-0.355
2021-08-19 06:09:58.644,0.18,-0.34
2021-08-19 06:09:58.648,0.16,-0.335
2021-08-19 06:09:58.652,0.165,-0.32
2021-08-19 06:09:58.656,0.145,-0.285
2021-08-19 06:09:58.660,0.14,-0.275
2021-08-19 06:09:58.664,0.135,-0.275
2021-08-19 06:09:58.668,0.14,-0.26
2021-08-19 06:09:58.672,0.125,-0.22
2021-08-19 06:09:58.676,0.145,-0.215
2021-08-19 06:09:58.680,0.11,-0.185
2021-08-19 06:09:58.684,0.12,-0.16
2021-08-19 06:09:58.688,0.105,-0.165
2021-08-19 06:09:58.692,0.1,-0.18
2021-08-19 06:09:58.696,0.11,-0.18
2021-08-19 06:09:58.700,0.095,-0.165
2021-08-19 06:09:58.704,0.1,-0.155
2021-08-19 06:09:58.708,0.09,-0.15
2021-08-19 06:09:58.712,0.075,-0.16
2021-08-19 06:09:58.716,0.095,-0.155
2021-08-19 06:09:58.720,0.1,-0.16
2021-08-19 06:09:58.724,0.09,-0.14
2021-08-19 06:09:58.728,0.105,-0.145
2021-08-19 06:09:58.732,0.1,-0.14
2021-08-19 06:09:58.736,0.125,-0.14
2021-08-19 06:09:58.740,0.12,-0.125
2021-08-19 06:09:58.744,0.115,-0.14
2021-08-19 06:09:58.748,0.12,-0.135
2021-08-19 06:09:58.752,0.12,-0.15
2021-08-19 06:09:58.756,0.155,-0.16
2021-08-19 06:09:58.760,0.145,-0.145
2021-08-19 06:09:58.764,0.14,-0.16
2021-08-19 06:09:58.768,0.135,-0.16
2021-08-19 06:09:58.772,0.12,-0.17
2021-08-19 06:09:58.776,0.125,-0.175
2021-08-19 06:09:58.780,0.15,-0.165
2021-08-19 06:09:58.784,0.145,-0.165
2021-08-19 06:09:58.788,0.135,-0.16
2021-08-19 06:09:58.792,0.16,-0.145
2021-08-19 06:09:58.796,0.155,-0.165
2021-08-19 06:09:58.800,0.145,-0.145
2021-08-19 06:09:58.804,0.17,-0.16
2021-08-19 06:09:58.808,0.16,-0.185
2021-08-19 06:09:58.812,0.16,-0.18
2021-08-19 06:09:58.816,0.16,-0.18
2021-08-19 06:09:58.820,0.17,-0.175
2021-08-19 06:09:58.824,0.16,-0.185
2021-08-19 06:09:58.828,0.16,-0.17
2021-08-19 06:09:58.832,0.155,-0.18
2021-08-19 06:09:58.836,0.155,-0.19
2021-08-19 06:09:58.840,0.155,-0.185
2021-08-19 06:09:58.844,0.15,-0.175
2021-08-19 06:09:58.848,0.165,-0.18
2021-08-19 06:09:58.852,0.14,-0.175
2021-08-19 06:09:58.856,0.15,-0.205
2021-08-19 06:09:58.860,0.14,-0.19
2021-08-19 06:09:58.864,0.14,-0.18
2021-08-19 06:09:58.868,0.12,-0.185
2021-08-19 06:09:58.872,0.13,-0.2
2021-08-19 06:09:58.876,0.13,-0.205
2021-08-19 06:09:58.880,0.145,-0.185
2021-08-19 06:09:58.884,0.145,-0.195
2021-08-19 06:09:58.888,0.12,-0.16
2021-08-19 06:09:58.892,0.14,-0.2
2021-08-19 06:09:58.896,0.135,-0.18
2021-08-19 06:09:58.900,0.13,-0.18
2021-08-19 06:09:58.904,0.145,-0.165
2021-08-19 06:09:58.908,0.11,-0.17
2021-08-19 06:09:58.912,0.145,-0.19
2021-08-19 06:09:58.916,0.145,-0.195
2021-08-19 06:09:58.920,0.13,-0.185
2021-08-19 06:09:58.924,0.13,-0.165
2021-08-19 06:09:58.928,0.15,-0.15
2021-08-19 06:09:58.932,0.125,-0.17
2021-08-19 06:09:58.936,0.15,-0.16
2021-08-19 06:09:58.940,0.13,-0.145
2021-08-19 06:09:58.944,0.12,-0.155
2021-08-19 06:09:58.948,0.135,-0.175
2021-08-19 06:09:58.952,0.125,-0.175
2021-08-19 06:09:58.956,0.135,-0.175
2021-08-19 06:09:58.960,0.11,-0.16
2021-08-19 06:09:58.964,0.135,-0.17
2021-08-19 06:09:58.968,0.12,-0.19
2021-08-19 06:09:58.972,0.11,-0.17
2021-08-19 06:09:58.976,0.115,-0.185
2021-08-19 06:09:58.980,0.145,-0.155
2021-08-19 06:09:58.984,0.115,-0.15
2021-08-19 06:09:58.988,0.115,-0.14
2021-08-19 06:09:58.992,0.115,-0.17
2021-08-19 06:09:58.996,0.095,-0.17
2021-08-19 06:09:59.000,0.095,-0.175
2021-08-19 06:09:59.004,0.11,-0.175
2021-08-19 06:09:59.008,0.11,-0.17
2021-08-19 06:09:59.012,0.105,-0.155
2021-08-19 06:09:59.016,0.09,-0.15
2021-08-19 06:09:59.020,0.12,-0.16
2021-08-19 06:09:59.024,0.115,-0.16
2021-08-19 06:09:59.028,0.11,-0.145
2021-08-19 06:09:59.032,0.105,-0.17
2021-08-19 06:09:59.036,0.11,-0.155
2021-08-19 06:09:59.040,0.09,-0.165
2021-08-19 06:09:59.044,0.115,-0.155
2021-08-19 06:09:59.048,0.105,-0.17
2021-08-19 06:09:59.052,0.1,-0.14
2021-08-19 06:09:59.056,0.095,-0.165
2021-08-19 06:09:59.060,0.1,-0.16
2021-08-19 06:09:59.064,0.1,-0.165
2021-08-19 06:09:59.068,0.095,-0.14
2021-08-19 06:09:59.072,0.09,-0.155
2021-08-19 06:09:59.076,0.095,-0.165
2021-08-19 06:09:59.080,0.095,-0.155
2021-08-19 06:09:59.084,0.1,-0.15
2021-08-19 06:09:59.088,0.11,-0.15
2021-08-19 06:09:59.092,0.115,-0.16
2021-08-19 06:09:59.096,0.11,-0.15
2021-08-19 06:09:59.100,0.115,-0.145
2021-08-19 06:09:59.104,0.105,-0.15
2021-08-19 06:09:59.108,0.12,-0.15
2021-08-19 06:09:59.112,0.105,-0.165
2021-08-19 06:09:59.116,0.1,-0.155
2021-08-19 06:09:59.120,0.1,-0.17
2021-08-19 06:09:59.124,0.075,-0.15
2021-08-19 06:09:59.128,0.105,-0.155
2021-08-19 06:09:59.132,0.095,-0.175
2021-08-19 06:09:59.136,0.09,-0.155
2021-08-19 06:09:59.140,0.085,-0.16
2021-08-19 06:09:59.144,0.105,-0.14
2021-08-19 06:09:59.148,0.105,-0.17
2021-08-19 06:09:59.152,0.085,-0.155
2021-08-19 06:09:59.156,0.095,-0.165
2021-08-19 06:09:59.160,0.085,-0.17
2021-08-19 06:09:59.164,0.09,-0.145
2021-08-19 06:09:59.168,0.09,-0.165
2021-08-19 06:09:59.172,0.085,-0.16
2021-08-19 06:09:59.176,0.07,-0.145
2021-08-19 06:09:59.180,0.09,-0.15
2021-08-19 06:09:59.184,0.08,-0.165
2021-08-19 06:09:59.188,0.08,-0.17
2021-08-19 06:09:59.192,0.085,-0.16
2021-08-19 06:09:59.196,0.115,-0.16
2021-08-19 06:09:59.200,0.105,-0.145
2021-08-19 06:09:59.204,0.09,-0.15
2021-08-19 06:09:59.208,0.075,-0.125
2021-08-19 06:09:59.212,0.085,-0.1
2021-08-19 06:09:59.216,0.09,-0.02
2021-08-19 06:09:59.220,0.085,0.0
2021-08-19 06:09:59.224,0.085,0.035
2021-08-19 06:09:59.228,0.075,0.045
2021-08-19 06:09:59.232,0.085,0.04
2021-08-19 06:09:59.236,0.115,0.025
2021-08-19 06:09:59.240,0.135,0.025
2021-08-19 06:09:59.244,0.145,0.0
2021-08-19 06:09:59.248,0.175,-0.01
2021-08-19 06:09:59.252,0.205,0.0
2021-08-19 06:09:59.256,0.21,0.005
2021-08-19 06:09:59.260,0.19,-0.01
2021-08-19 06:09:59.264,0.17,-0.03
2021-08-19 06:09:59.268,0.18,-0.04
2021-08-19 06:09:59.272,0.155,-0.075
2021-08-19 06:09:59.276,0.145,-0.095
2021-08-19 06:09:59.280,0.12,-0.115
2021-08-19 06:09:59.284,0.12,-0.1
2021-08-19 06:09:59.288,0.115,-0.09
2021-08-19 06:09:59.292,0.095,-0.09
2021-08-19 06:09:59.296,0.075,-0.105
2021-08-19 06:09:59.300,0.03,-0.13
2021-08-19 06:09:59.304,0.0,-0.125
2021-08-19 06:09:59.308,0.0,-0.12
2021-08-19 06:09:59.312,0.02,-0.13
2021-08-19 06:09:59.316,0.02,-0.15
2021-08-19 06:09:59.320,0.02,-0.16
2021-08-19 06:09:59.324,0.025,-0.185
2021-08-19 06:09:59.328,0.04,-0.15
2021-08-19 06:09:59.332,0.045,-0.155
2021-08-19 06:09:59.336,0.095,-0.14
2021-08-19 06:09:59.340,0.13,-0.15
2021-08-19 06:09:59.344,0.115,-0.145
2021-08-19 06:09:59.348,0.1,-0.15
2021-08-19 06:09:59.352,0.12,-0.155
2021-08-19 06:09:59.356,0.13,-0.145
2021-08-19 06:09:59.360,0.115,-0.145
2021-08-19 06:09:59.364,0.11,-0.135
2021-08-19 06:09:59.368,0.11,-0.145
2021-08-19 06:09:59.372,0.1,-0.13
2021-08-19 06:09:59.376,0.1,-0.125
2021-08-19 06:09:59.380,0.075,-0.11
2021-08-19 06:09:59.384,0.11,-0.12
2021-08-19 06:09:59.388,0.095,-0.055
2021-08-19 06:09:59.392,0.09,-0.025
2021-08-19 06:09:59.396,0.09,0.01
2021-08-19 06:09:59.400,0.095,0.055
2021-08-19 06:09:59.404,0.09,0.195
2021-08-19 06:09:59.408,0.085,0.425
2021-08-19 06:09:59.412,0.09,0.69
2021-08-19 06:09:59.416,0.13,0.89
2021-08-19 06:09:59.420,0.17,0.98
2021-08-19 06:09:59.424,0.185,1.005
2021-08-19 06:09:59.428,0.125,0.945
2021-08-19 06:09:59.432,0.075,0.785
2021-08-19 06:09:59.436,0.01,0.46
2021-08-19 06:09:59.440,-0.085,0.025
2021-08-19 06:09:59.444,-0.265,-0.24
2021-08-19 06:09:59.448,-0.565,-0.23
2021-08-19 06:09:59.452,-0.95,-0.025
2021-08-19 06:09:59.456,-1.275,0.025
2021-08-19 06:09:59.460,-1.535,-0.155
2021-08-19 06:09:59.464,-1.65,-0.415
2021-08-19 06:09:59.468,-1.585,-0.54
2021-08-19 06:09:59.472,-1.29,-0.62
2021-08-19 06:09:59.476,-0.845,-0.605
2021-08-19 06:09:59.480,-0.41,-0.565
2021-08-19 06:09:59.484,-0.19,-0.465
2021-08-19 06:09:59.488,-0.125,-0.36
2021-08-19 06:09:59.492,-0.115,-0.305
2021-08-19 06:09:59.496,-0.12,-0.29
2021-08-19 06:09:59.500,-0.095,-0.3
2021-08-19 06:09:59.504,-0.07,-0.295
2021-08-19 06:09:59.508,-0.005,-0.315
2021-08-19 06:09:59.512,0.055,-0.315
2021-08-19 06:09:59.516,0.11,-0.285
2021-08-19 06:09:59.520,0.16,-0.31
2021-08-19 06:09:59.524,0.165,-0.29
2021-08-19 06:09:59.528,0.2,-0.305
2021-08-19 06:09:59.532,0.19,-0.3
2021-08-19 06:09:59.536,0.185,-0.31
2021-08-19 06:09:59.540,0.185,-0.28
2021-08-19 06:09:59.544,0.215,-0.27
2021-08-19 06:09:59.548,0.235,-0.3
2021-08-19 06:09:59.552,0.225,-0.295
2021-08-19 06:09:59.556,0.215,-0.26
2021-08-19 06:09:59.560,0.23,-0.28
2021-08-19 06:09:59.564,0.22,-0.28
2021-08-19 06:09:59.568,0.22,-0.265
2021-08-19 06:09:59.572,0.215,-0.28
2021-08-19 06:09:59.576,0.225,-0.28
2021-08-19 06:09:59.580,0.225,-0.27
2021-08-19 06:09:59.584,0.22,-0.275
2021-08-19 06:09:59.588,0.22,-0.26
2021-08-19 06:09:59.592,0.23,-0.26
2021-08-19 06:09:59.596,0.25,-0.25
2021-08-19 06:09:59.600,0.225,-0.27
2021-08-19 06:09:59.604,0.23,-0.25
2021-08-19 06:09:59.608,0.225,-0.26
2021-08-19 06:09:59.612,0.215,-0.255
2021-08-19 06:09:59.616,0.24,-0.28
2021-08-19 06:09:59.620,0.22,-0.28
2021-08-19 06:09:59.624,0.22,-0.27
2021-08-19 06:09:59.628,0.21,-0.27
2021-08-19 06:09:59.632,0.225,-0.265
2021-08-19 06:09:59.636,0.235,-0.27
2021-08-19 06:09:59.640,0.22,-0.285
2021-08-19 06:09:59.644,0.205,-0.27
2021-08-19 06:09:59.648,0.215,-0.26
2021-08-19 06:09:59.652,0.21,-0.26
2021-08-19 06:09:59.656,0.23,-0.265
2021-08-19 06:09:59.660,0.2,-0.26
2021-08-19 06:09:59.664,0.23,-0.25
2021-08-19 06:09:59.668,0.205,-0.255
2021-08-19 06:09:59.672,0.21,-0.27
2021-08-19 06:09:59.676,0.18,-0.245
2021-08-19 06:09:59.680,0.17,-0.255
2021-08-19 06:09:59.684,0.185,-0.245
2021-08-19 06:09:59.688,0.175,-0.24
2021-08-19 06:09:59.692,0.185,-0.23
2021-08-19 06:09:59.696,0.19,-0.215
2021-08-19 06:09:59.700,0.18,-0.21
2021-08-19 06:09:59.704,0.16,-0.215
2021-08-19 06:09:59.708,0.17,-0.2
2021-08-19 06:09:59.712,0.17,-0.2
2021-08-19 06:09:59.716,0.17,-0.185
2021-08-19 06:09:59.720,0.17,-0.18
2021-08-19 06:09:59.724,0.16,-0.16
2021-08-19 06:09:59.728,0.165,-0.15
2021-08-19 06:09:59.732,0.16,-0.135
2021-08-19 06:09:59.736,0.155,-0.125
2021-08-19 06:09:59.740,0.115,-0.12
2021-08-19 06:09:59.744,0.15,-0.09
2021-08-19 06:09:59.748,0.12,-0.08
2021-08-19 06:09:59.752,0.13,-0.08
2021-08-19 06:09:59.756,0.135,-0.06
2021-08-19 06:09:59.760,0.1,-0.085
2021-08-19 06:09:59.764,0.12,-0.055
2021-08-19 06:09:59.768,0.11,-0.065
2021-08-19 06:09:59.772,0.125,-0.05
2021-08-19 06:09:59.776,0.1,-0.06
2021-08-19 06:09:59.780,0.1,-0.04
2021-08-19 06:09:59.784,0.09,-0.045
2021-08-19 06:09:59.788,0.08,-0.045
2021-08-19 06:09:59.792,0.09,-0.05
2021-08-19 06:09:59.796,0.09,-0.05
2021-08-19 06:09:59.800,0.095,-0.025
2021-08-19 06:09:59.804,0.1,-0.05
2021-08-19 06:09:59.808,0.08,-0.045
2021-08-19 06:09:59.812,0.115,-0.045
2021-08-19 06:09:59.816,0.1,-0.05
2021-08-19 06:09:59.820,0.115,-0.055
2021-08-19 06:09:59.824,0.105,-0.09
2021-08-19 06:09:59.828,0.125,-0.08
2021-08-19 06:09:59.832,0.12,-0.07
2021-08-19 06:09:59.836,0.135,-0.06
2021-08-19 06:09:59.840,0.135,-0.09
2021-08-19 06:09:59.844,0.15,-0.07
2021-08-19 06:09:59.848,0.13,-0.105
2021-08-19 06:09:59.852,0.115,-0.09
2021-08-19 06:09:59.856,0.145,-0.1
2021-08-19 06:09:59.860,0.145,-0.09
2021-08-19 06:09:59.864,0.145,-0.105
2021-08-19 06:09:59.868,0.155,-0.09
2021-08-19 06:09:59.872,0.14,-0.085
2021-08-19 06:09:59.876,0.145,-0.105
2021-08-19 06:09:59.880,0.15,-0.1
2021-08-19 06:09:59.884,0.145,-0.09
2021-08-19 06:09:59.888,0.15,-0.09
2021-08-19 06:09:59.892,0.14,-0.08
2021-08-19 06:09:59.896,0.13,-0.085
2021-08-19 06:09:59.900,0.155,-0.1
2021-08-19 06:09:59.904,0.16,-0.1
2021-08-19 06:09:59.908,0.145,-0.105
2021-08-19 06:09:59.912,0.15,-0.095
2021-08-19 06:09:59.916,0.17,-0.08
2021-08-19 06:09:59.920,0.15,-0.115
2021-08-19 06:09:59.924,0.15,-0.115
2021-08-19 06:09:59.928,0.18,-0.11
2021-08-19 06:09:59.932,0.18,-0.09
2021-08-19 06:09:59.936,0.17,-0.105
2021-08-19 06:09:59.940,0.17,-0.1
2021-08-19 06:09:59.944,0.165,-0.115
2021-08-19 06:09:59.948,0.17,-0.11
2021-08-19 06:09:59.952,0.175,-0.12
2021-08-19 06:09:59.956,0.18,-0.11
2021-08-19 06:09:59.960,0.155,-0.1
2021-08-19 06:09:59.964,0.165,-0.1
2021-08-19 06:09:59.968,0.165,-0.12
2021-08-19 06:09:59.972,0.17,-0.1
2021-08-19 06:09:59.976,0.135,-0.11
2021-08-19 06:09:59.980,0.145,-0.125
2021-08-19 06:09:59.984,0.12,-0.12
2021-08-19 06:09:59.988,0.135,-0.12
2021-08-19 06:09:59.992,0.13,-0.115
2021-08-19 06:09:59.996,0.165,-0.11
2021-08-19 06:19:00.000,0.315,-0.005
2021-08-19 06:19:00.004,0.28,0.04
2021-08-19 06:19:00.008,0.28,0.16
2021-08-19 06:19:00.012,0.255,0.435
2021-08-19 06:19:00.016,0.245,0.755
2021-08-19 06:19:00.020,0.25,1.01
2021-08-19 06:19:00.024,0.29,1.1
2021-08-19 06:19:00.028,0.245,1.09
2021-08-19 06:19:00.032,0.19,0.985
2021-08-19 06:19:00.036,0.2,0.715
2021-08-19 06:19:00.040,0.135,0.315
2021-08-19 06:19:00.044,0.045,-0.185
2021-08-19 06:19:00.048,-0.15,-0.72
2021-08-19 06:19:00.052,-0.47,-0.895
2021-08-19 06:19:00.056,-0.795,-0.61
2021-08-19 06:19:00.060,-1.015,-0.285
2021-08-19 06:19:00.064,-1.175,-0.255
2021-08-19 06:19:00.068,-1.2,-0.435
2021-08-19 06:19:00.072,-1.145,-0.65
2021-08-19 06:19:00.076,-0.81,-0.775
2021-08-19 06:19:00.080,-0.405,-0.835
2021-08-19 06:19:00.084,-0.115,-0.855
2021-08-19 06:19:00.088,0.035,-0.785
2021-08-19 06:19:00.092,0.025,-0.67
2021-08-19 06:19:00.096,0.02,-0.59
2021-08-19 06:19:00.100,0.015,-0.525
2021-08-19 06:19:00.104,0.02,-0.545
2021-08-19 06:19:00.108,0.035,-0.54
2021-08-19 06:19:00.112,0.085,-0.55
2021-08-19 06:19:00.116,0.125,-0.575
2021-08-19 06:19:00.120,0.215,-0.555
2021-08-19 06:19:00.124,0.25,-0.575
2021-08-19 06:19:00.128,0.26,-0.59
2021-08-19 06:19:00.132,0.26,-0.57
2021-08-19 06:19:00.136,0.28,-0.56
2021-08-19 06:19:00.140,0.28,-0.545
2021-08-19 06:19:00.144,0.285,-0.575
2021-08-19 06:19:00.148,0.31,-0.585
2021-08-19 06:19:00.152,0.305,-0.565
2021-08-19 06:19:00.156,0.31,-0.57
2021-08-19 06:19:00.160,0.32,-0.56
2021-08-19 06:19:00.164,0.34,-0.555
2021-08-19 06:19:00.168,0.335,-0.55
2021-08-19 06:19:00.172,0.34,-0.545
2021-08-19 06:19:00.176,0.32,-0.535
2021-08-19 06:19:00.180,0.33,-0.49
2021-08-19 06:19:00.184,0.315,-0.465
2021-08-19 06:19:00.188,0.32,-0.43
2021-08-19 06:19:00.192,0.335,-0.385
2021-08-19 06:19:00.196,0.35,-0.31
2021-08-19 06:19:00.200,0.375,-0.28
2021-08-19 06:19:00.204,0.415,-0.235
2021-08-19 06:19:00.208,0.445,-0.265
2021-08-19 06:19:00.212,0.48,-0.22
2021-08-19 06:19:00.216,0.47,-0.225
2021-08-19 06:19:00.220,0.51,-0.235
2021-08-19 06:19:00.224,0.475,-0.25
2021-08-19 06:19:00.228,0.445,-0.26
2021-08-19 06:19:00.232,0.425,-0.26
2021-08-19 06:19:00.236,0.385,-0.285
2021-08-19 06:19:00.240,0.345,-0.3
2021-08-19 06:19:00.244,0.35,-0.315
2021-08-19 06:19:00.248,0.34,-0.305
2021-08-19 06:19:00.252,0.295,-0.315
2021-08-19 06:19:00.256,0.335,-0.32
2021-08-19 06:19:00.260,0.315,-0.345
2021-08-19 06:19:00.264,0.3,-0.33
2021-08-19 06:19:00.268,0.28,-0.34
2021-08-19 06:19:00.272,0.305,-0.355
2021-08-19 06:19:00.276,0.3,-0.325
2021-08-19 06:19:00.280,0.29,-0.335
2021-08-19 06:19:00.284,0.285,-0.315
2021-08-19 06:19:00.288,0.285,-0.315
2021-08-19 06:19:00.292,0.275,-0.3
2021-08-19 06:19:00.296,0.285,-0.305
2021-08-19 06:19:00.300,0.28,-0.295
2021-08-19 06:19:00.304,0.265,-0.305
2021-08-19 06:19:00.308,0.265,-0.28
2021-08-19 06:19:00.312,0.275,-0.265
2021-08-19 06:19:00.316,0.27,-0.26
2021-08-19 06:19:00.320,0.265,-0.24
2021-08-19 06:19:00.324,0.26,-0.26
2021-08-19 06:19:00.328,0.255,-0.245
2021-08-19 06:19:00.332,0.24,-0.225
2021-08-19 06:19:00.336,0.265,-0.245
2021-08-19 06:19:00.340,0.245,-0.245
2021-08-19 06:19:00.344,0.25,-0.235
2021-08-19 06:19:00.348,0.26,-0.27
2021-08-19 06:19:00.352,0.245,-0.27
2021-08-19 06:19:00.356,0.285,-0.265
2021-08-19 06:19:00.360,0.275,-0.275
2021-08-19 06:19:00.364,0.285,-0.285
2021-08-19 06:19:00.368,0.27,-0.335
2021-08-19 06:19:00.372,0.27,-0.31
2021-08-19 06:19:00.376,0.295,-0.295
2021-08-19 06:19:00.380,0.265,-0.295
2021-08-19 06:19:00.384,0.27,-0.265
2021-08-19 06:19:00.388,0.27,-0.245
2021-08-19 06:19:00.392,0.26,-0.215
2021-08-19 06:19:00.396,0.275,-0.19
2021-08-19 06:19:00.400,0.295,-0.175
2021-08-19 06:19:00.404,0.3,-0.125
2021-08-19 06:19:00.408,0.335,-0.105
2021-08-19 06:19:00.412,0.375,-0.115
2021-08-19 06:19:00.416,0.4,-0.115
2021-08-19 06:19:00.420,0.39,-0.1
2021-08-19 06:19:00.424,0.42,-0.125
2021-08-19 06:19:00.428,0.405,-0.135
2021-08-19 06:19:00.432,0.41,-0.155
2021-08-19 06:19:00.436,0.365,-0.185
2021-08-19 06:19:00.440,0.32,-0.22
2021-08-19 06:19:00.444,0.26,-0.235
2021-08-19 06:19:00.448,0.255,-0.245
2021-08-19 06:19:00.452,0.26,-0.26
2021-08-19 06:19:00.456,0.23,-0.255
2021-08-19 06:19:00.460,0.235,-0.275
2021-08-19 06:19:00.464,0.22,-0.3
2021-08-19 06:19:00.468,0.21,-0.295
2021-08-19 06:19:00.472,0.23,-0.305
2021-08-19 06:19:00.476,0.215,-0.305
2021-08-19 06:19:00.480,0.25,-0.315
2021-08-19 06:19:00.484,0.235,-0.315
2021-08-19 06:19:00.488,0.225,-0.33
2021-08-19 06:19:00.492,0.24,-0.35
2021-08-19 06:19:00.496,0.225,-0.365
2021-08-19 06:19:00.500,0.22,-0.395
2021-08-19 06:19:00.504,0.225,-0.405
2021-08-19 06:19:00.508,0.215,-0.405
2021-08-19 06:19:00.512,0.2,-0.41
2021-08-19 06:19:00.516,0.23,-0.41
2021-08-19 06:19:00.520,0.235,-0.42
2021-08-19 06:19:00.524,0.22,-0.43
2021-08-19 06:19:00.528,0.22,-0.43
2021-08-19 06:19:00.532,0.235,-0.425
2021-08-19 06:19:00.536,0.22,-0.435
2021-08-19 06:19:00.540,0.24,-0.415
2021-08-19 06:19:00.544,0.24,-0.42
2021-08-19 06:19:00.548,0.23,-0.425
2021-08-19 06:19:00.552,0.225,-0.425
2021-08-19 06:19:00.556,0.23,-0.44
2021-08-19 06:19:00.560,0.23,-0.42
2021-08-19 06:19:00.564,0.25,-0.42
2021-08-19 06:19:00.568,0.24,-0.4
2021-08-19 06:19:00.572,0.26,-0.375
2021-08-19 06:19:00.576,0.25,-0.345
2021-08-19 06:19:00.580,0.24,-0.3
2021-08-19 06:19:00.584,0.255,-0.3
2021-08-19 06:19:00.588,0.255,-0.285
2021-08-19 06:19:00.592,0.275,-0.265
2021-08-19 06:19:00.596,0.275,-0.285
2021-08-19 06:19:00.600,0.285,-0.255
2021-08-19 06:19:00.604,0.29,-0.26
2021-08-19 06:19:00.608,0.3,-0.24
2021-08-19 06:19:00.612,0.31,-0.23
2021-08-19 06:19:00.616,0.305,-0.185
2021-08-19 06:19:00.620,0.325,-0.165
2021-08-19 06:19:00.624,0.335,-0.145
2021-08-19 06:19:00.628,0.37,-0.15
2021-08-19 06:19:00.632,0.405,-0.155
2021-08-19 06:19:00.636,0.41,-0.175
2021-08-19 06:19:00.640,0.395,-0.18
2021-08-19 06:19:00.644,0.385,-0.215
2021-08-19 06:19:00.648,0.355,-0.23
2021-08-19 06:19:00.652,0.285,-0.245
2021-08-19 06:19:00.656,0.245,-0.26
2021-08-19 06:19:00.660,0.225,-0.3
2021-08-19 06:19:00.664,0.19,-0.32
2021-08-19 06:19:00.668,0.17,-0.32
2021-08-19 06:19:00.672,0.16,-0.345
2021-08-19 06:19:00.676,0.14,-0.35
2021-08-19 06:19:00.680,0.145,-0.355
2021-08-19 06:19:00.684,0.135,-0.365
2021-08-19 06:19:00.688,0.145,-0.36
2021-08-19 06:19:00.692,0.135,-0.385
2021-08-19 06:19:00.696,0.135,-0.425
2021-08-19 06:19:00.700,0.125,-0.43
2021-08-19 06:19:00.704,0.135,-0.42
2021-08-19 06:19:00.708,0.16,-0.445
2021-08-19 06:19:00.712,0.14,-0.435
2021-08-19 06:19:00.716,0.13,-0.425
2021-08-19 06:19:00.720,0.145,-0.44
2021-08-19 06:19:00.724,0.14,-0.435
2021-08-19 06:19:00.728,0.135,-0.44
2021-08-19 06:19:00.732,0.15,-0.46
2021-08-19 06:19:00.736,0.165,-0.465
2021-08-19 06:19:00.740,0.165,-0.47
2021-08-19 06:19:00.744,0.16,-0.475
2021-08-19 06:19:00.748,0.175,-0.48
2021-08-19 06:19:00.752,0.17,-0.5
2021-08-19 06:19:00.756,0.16,-0.49
2021-08-19 06:19:00.760,0.145,-0.465
2021-08-19 06:19:00.764,0.165,-0.415
2021-08-19 06:19:00.768,0.165,-0.38
2021-08-19 06:19:00.772,0.175,-0.355
2021-08-19 06:19:00.776,0.175,-0.335
2021-08-19 06:19:00.780,0.205,-0.32
2021-08-19 06:19:00.784,0.215,-0.295
2021-08-19 06:19:00.788,0.25,-0.27
2021-08-19 06:19:00.792,0.29,-0.24
2021-08-19 06:19:00.796,0.26,-0.205
2021-08-19 06:19:00.800,0.275,-0.18
2021-08-19 06:19:00.804,0.28,-0.2
2021-08-19 06:19:00.808,0.29,-0.195
2021-08-19 06:19:00.812,0.295,-0.22
2021-08-19 06:19:00.816,0.305,-0.225
2021-08-19 06:19:00.820,0.325,-0.235
2021-08-19 06:19:00.824,0.3,-0.24
2021-08-19 06:19:00.828,0.3,-0.255
2021-08-19 06:19:00.832,0.28,-0.265
2021-08-19 06:19:00.836,0.29,-0.25
2021-08-19 06:19:00.840,0.255,-0.255
2021-08-19 06:19:00.844,0.27,-0.185
2021-08-19 06:19:00.848,0.26,-0.095
2021-08-19 06:19:00.852,0.26,-0.005
2021-08-19 06:19:00.856,0.28,0.07
2021-08-19 06:19:00.860,0.315,0.195
2021-08-19 06:19:00.864,0.33,0.495
2021-08-19 06:19:00.868,0.375,0.8
2021-08-19 06:19:00.872,0.41,1.02
2021-08-19 06:19:00.876,0.42,1.07
2021-08-19 06:19:00.880,0.375,0.955
2021-08-19 06:19:00.884,0.295,0.735
2021-08-19 06:19:00.888,0.21,0.395
2021-08-19 06:19:00.892,0.11,-0.085
2021-08-19 06:19:00.896,-0.025,-0.605
2021-08-19 06:19:00.900,-0.315,-0.995
2021-08-19 06:19:00.904,-0.62,-0.965
2021-08-19 06:19:00.908,-0.95,-0.575
2021-08-19 06:19:00.912,-1.195,-0.325
2021-08-19 06:19:00.916,-1.3,-0.415
2021-08-19 06:19:00.920,-1.28,-0.64
2021-08-19 06:19:00.924,-1.09,-0.82
2021-08-19 06:19:00.928,-0.705,-0.92
2021-08-19 06:19:00.932,-0.31,-0.955
2021-08-19 06:19:00.936,-0.08,-0.93
2021-08-19 06:19:00.940,-0.02,-0.83
2021-08-19 06:19:00.944,-0.025,-0.72
2021-08-19 06:19:00.948,-0.03,-0.675
2021-08-19 06:19:00.952,-0.04,-0.62
2021-08-19 06:19:00.956,-0.03,-0.585
2021-08-19 06:19:00.960,0.005,-0.565
2021-08-19 06:19:00.964,0.06,-0.54
2021-08-19 06:19:00.968,0.125,-0.495
2021-08-19 06:19:00.972,0.195,-0.48
2021-08-19 06:19:00.976,0.235,-0.465
2021-08-19 06:19:00.980,0.265,-0.475
2021-08-19 06:19:00.984,0.27,-0.46
2021-08-19 06:19:00.988,0.31,-0.425
2021-08-19 06:19:00.992,0.3,-0.405
2021-08-19 06:19:00.996,0.315,-0.39
2021-08-19 06:19:01.000,0.33,-0.38
2021-08-19 06:19:01.004,0.355,-0.34
2021-08-19 06:19:01.008,0.355,-0.31
2021-08-19 06:19:01.012,0.345,-0.295
2021-08-19 06:19:01.016,0.365,-0.27
2021-08-19 06:19:01.020,0.375,-0.24
2021-08-19 06:19:01.024,0.375,-0.23
2021-08-19 06:19:01.028,0.41,-0.245
2021-08-19 06:19:01.032,0.45,-0.24
2021-08-19 06:19:01.036,0.46,-0.235
2021-08-19 06:19:01.040,0.455,-0.235
2021-08-19 06:19:01.044,0.465,-0.24
2021-08-19 06:19:01.048,0.445,-0.27
2021-08-19 06:19:01.052,0.465,-0.28
2021-08-19 06:19:01.056,0.44,-0.32
2021-08-19 06:19:01.060,0.405,-0.355
2021-08-19 06:19:01.064,0.395,-0.355
2021-08-19 06:19:01.068,0.385,-0.355
2021-08-19 06:19:01.072,0.39,-0.325
2021-08-19 06:19:01.076,0.385,-0.32
2021-08-19 06:19:01.080,0.365,-0.33
2021-08-19 06:19:01.084,0.355,-0.325
2021-08-19 06:19:01.088,0.375,-0.36
2021-08-19 06:19:01.092,0.38,-0.375
2021-08-19 06:19:01.096,0.37,-0.4
2021-08-19 06:19:01.100,0.4,-0.43
2021-08-19 06:19:01.104,0.395,-0.43
2021-08-19 06:19:01.108,0.385,-0.43
2021-08-19 06:19:01.112,0.355,-0.45
2021-08-19 06:19:01.116,0.355,-0.475
2021-08-19 06:19:01.120,0.34,-0.49
2021-08-19 06:19:01.124,0.305,-0.455
2021-08-19 06:19:01.128,0.3,-0.455
2021-08-19 06:19:01.132,0.235,-0.445
2021-08-19 06:19:01.136,0.195,-0.435
2021-08-19 06:19:01.140,0.19,-0.44
2021-08-19 06:19:01.144,0.185,-0.43
2021-08-19 06:19:01.148,0.175,-0.415
2021-08-19 06:19:01.152,0.17,-0.4
2021-08-19 06:19:01.156,0.19,-0.39
2021-08-19 06:19:01.160,0.18,-0.345
2021-08-19 06:19:01.164,0.18,-0.33
2021-08-19 06:19:01.168,0.17,-0.265
2021-08-19 06:19:01.172,0.17,-0.22
2021-08-19 06:19:01.176,0.175,-0.18
2021-08-19 06:19:01.180,0.175,-0.17
2021-08-19 06:19:01.184,0.2,-0.17
2021-08-19 06:19:01.188,0.205,-0.18
2021-08-19 06:19:01.192,0.215,-0.155
2021-08-19 06:19:01.196,0.245,-0.14
2021-08-19 06:19:01.200,0.24,-0.16
2021-08-19 06:19:01.204,0.245,-0.155
2021-08-19 06:19:01.208,0.245,-0.13
2021-08-19 06:19:01.212,0.245,-0.12
2021-08-19 06:19:01.216,0.26,-0.115
2021-08-19 06:19:01.220,0.27,-0.125
2021-08-19 06:19:01.224,0.27,-0.13
2021-08-19 06:19:01.228,0.3,-0.13
2021-08-19 06:19:01.232,0.32,-0.12
2021-08-19 06:19:01.236,0.33,-0.125
2021-08-19 06:19:01.240,0.335,-0.11
2021-08-19 06:19:01.244,0.335,-0.12
2021-08-19 06:19:01.248,0.34,-0.135
2021-08-19 06:19:01.252,0.34,-0.16
2021-08-19 06:19:01.256,0.34,-0.175
2021-08-19 06:19:01.260,0.32,-0.185
2021-08-19 06:19:01.264,0.315,-0.21
2021-08-19 06:19:01.268,0.335,-0.23
2021-08-19 06:19:01.272,0.31,-0.235
2021-08-19 06:19:01.276,0.31,-0.24
2021-08-19 06:19:01.280,0.31,-0.225
2021-08-19 06:19:01.284,0.29,-0.24
2021-08-19 06:19:01.288,0.31,-0.235
2021-08-19 06:19:01.292,0.3,-0.24
2021-08-19 06:19:01.296,0.31,-0.225
2021-08-19 06:19:01.300,0.32,-0.265
2021-08-19 06:19:01.304,0.32,-0.285
2021-08-19 06:19:01.308,0.33,-0.275
2021-08-19 06:19:01.312,0.36,-0.27
2021-08-19 06:19:01.316,0.355,-0.285
2021-08-19 06:19:01.320,0.345,-0.275
2021-08-19 06:19:01.324,0.275,-0.27
2021-08-19 06:19:01.328,0.295,-0.28
2021-08-19 06:19:01.332,0.23,-0.305
2021-08-19 06:19:01.336,0.22,-0.315
2021-08-19 06:19:01.340,0.205,-0.325
2021-08-19 06:19:01.344,0.18,-0.34
2021-08-19 06:19:01.348,0.15,-0.35
2021-08-19 06:19:01.352,0.175,-0.38
2021-08-19 06:19:01.356,0.165,-0.425
2021-08-19 06:19:01.360,0.16,-0.4
2021-08-19 06:19:01.364,0.17,-0.43
2021-08-19 06:19:01.368,0.17,-0.4
2021-08-19 06:19:01.372,0.17,-0.4
2021-08-19 06:19:01.376,0.17,-0.37
2021-08-19 06:19:01.380,0.18,-0.35
2021-08-19 06:19:01.384,0.175,-0.32
2021-08-19 06:19:01.388,0.18,-0.3
2021-08-19 06:19:01.392,0.18,-0.24
2021-08-19 06:19:01.396,0.21,-0.195
2021-08-19 06:19:01.400,0.24,-0.19
2021-08-19 06:19:01.404,0.25,-0.185
2021-08-19 06:19:01.408,0.255,-0.135
2021-08-19 06:19:01.412,0.265,-0.15
2021-08-19 06:19:01.416,0.26,-0.155
2021-08-19 06:19:01.420,0.305,-0.155
2021-08-19 06:19:01.424,0.3,-0.165
2021-08-19 06:19:01.428,0.31,-0.165
2021-08-19 06:19:01.432,0.33,-0.18
2021-08-19 06:19:01.436,0.305,-0.19
2021-08-19 06:19:01.440,0.315,-0.2
2021-08-19 06:19:01.444,0.27,-0.225
2021-08-19 06:19:01.448,0.3,-0.23
2021-08-19 06:19:01.452,0.285,-0.25
2021-08-19 06:19:01.456,0.265,-0.275
2021-08-19 06:19:01.460,0.245,-0.285
2021-08-19 06:19:01.464,0.275,-0.27
2021-08-19 06:19:01.468,0.26,-0.3
2021-08-19 06:19:01.472,0.24,-0.29
2021-08-19 06:19:01.476,0.245,-0.3
2021-08-19 06:19:01.480,0.21,-0.31
2021-08-19 06:19:01.484,0.215,-0.315
2021-08-19 06:19:01.488,0.225,-0.33
2021-08-19 06:19:01.492,0.245,-0.295
2021-08-19 06:19:01.496,0.23,-0.25
2021-08-19 06:19:01.500,0.26,-0.18
2021-08-19 06:19:01.504,0.29,-0.085
2021-08-19 06:19:01.508,0.305,-0.02
2021-08-19 06:19:01.512,0.305,0.07
2021-08-19 06:19:01.516,0.305,0.3
2021-08-19 06:19:01.520,0.3,0.635
2021-08-19 06:19:01.524,0.32,0.935
2021-08-19 06:19:01.528,0.34,1.045
2021-08-19 06:19:01.532,0.29,0.99
2021-08-19 06:19:01.536,0.19,0.82
2021-08-19 06:19:01.540,0.135,0.525
2021-08-19 06:19:01.544,0.125,0.145
2021-08-19 06:19:01.548,0.065,-0.355
2021-08-19 06:19:01.552,-0.145,-0.82
2021-08-19 06:19:01.556,-0.44,-0.965
2021-08-19 06:19:01.560,-0.8,-0.635
2021-08-19 06:19:01.564,-1.075,-0.275
2021-08-19 06:19:01.568,-1.245,-0.25
2021-08-19 06:19:01.572,-1.28,-0.465
2021-08-19 06:19:01.576,-1.15,-0.675
2021-08-19 06:19:01.580,-0.805,-0.78
2021-08-19 06:19:01.584,-0.36,-0.81
2021-08-19 06:19:01.588,-0.085,-0.795
2021-08-19 06:19:01.592,0.0,-0.67
2021-08-19 06:19:01.596,0.015,-0.48
2021-08-19 06:19:01.600,0.0,-0.345
2021-08-19 06:19:01.604,0.025,-0.255
2021-08-19 06:19:01.608,0.045,-0.23
2021-08-19 06:19:01.612,0.095,-0.26
2021-08-19 06:19:01.616,0.155,-0.265
2021-08-19 06:19:01.620,0.225,-0.265
2021-08-19 06:19:01.624,0.295,-0.28
2021-08-19 06:19:01.628,0.35,-0.275
2021-08-19 06:19:01.632,0.325,-0.28
2021-08-19 06:19:01.636,0.36,-0.29
2021-08-19 06:19:01.640,0.345,-0.29
2021-08-19 06:19:01.644,0.355,-0.275
2021-08-19 06:19:01.648,0.35,-0.31
2021-08-19 06:19:01.652,0.345,-0.305
2021-08-19 06:19:01.656,0.365,-0.335
2021-08-19 06:19:01.660,0.36,-0.35
2021-08-19 06:19:01.664,0.365,-0.375
2021-08-19 06:19:01.668,0.34,-0.385
2021-08-19 06:19:01.672,0.33,-0.38
2021-08-19 06:19:01.676,0.365,-0.395
2021-08-19 06:19:01.680,0.35,-0.38
2021-08-19 06:19:01.684,0.34,-0.375
2021-08-19 06:19:01.688,0.33,-0.385
2021-08-19 06:19:01.692,0.345,-0.38
2021-08-19 06:19:01.696,0.34,-0.38
2021-08-19 06:19:01.700,0.35,-0.36
2021-08-19 06:19:01.704,0.355,-0.355
2021-08-19 06:19:01.708,0.36,-0.355
2021-08-19 06:19:01.712,0.37,-0.355
2021-08-19 06:19:01.716,0.38,-0.38
2021-08-19 06:19:01.720,0.385,-0.385
2021-08-19 06:19:01.724,0.38,-0.39
2021-08-19 06:19:01.728,0.355,-0.385
2021-08-19 06:19:01.732,0.34,-0.4
2021-08-19 06:19:01.736,0.285,-0.4
2021-08-19 06:19:01.740,0.26,-0.395
2021-08-19 06:19:01.744,0.225,-0.385
2021-08-19 06:19:01.748,0.25,-0.37
2021-08-19 06:19:01.752,0.22,-0.395
2021-08-19 06:19:01.756,0.215,-0.385
2021-08-19 06:19:01.760,0.215,-0.395
2021-08-19 06:19:01.764,0.215,-0.395
2021-08-19 06:19:01.768,0.235,-0.365
2021-08-19 06:19:01.772,0.235,-0.365
2021-08-19 06:19:01.776,0.24,-0.365
2021-08-19 06:19:01.780,0.235,-0.36
2021-08-19 06:19:01.784,0.23,-0.33
2021-08-19 06:19:01.788,0.225,-0.265
2021-08-19 06:19:01.792,0.24,-0.24
2021-08-19 06:19:01.796,0.25,-0.195
2021-08-19 06:19:01.800,0.235,-0.11
2021-08-19 06:19:01.804,0.25,-0.07
2021-08-19 06:19:01.808,0.225,-0.065
2021-08-19 06:19:01.812,0.255,-0.045
2021-08-19 06:19:01.816,0.275,-0.04
2021-08-19 06:19:01.820,0.29,-0.055
2021-08-19 06:19:01.824,0.3,-0.05
2021-08-19 06:19:01.828,0.29,-0.075
2021-08-19 06:19:01.832,0.27,-0.085
2021-08-19 06:19:01.836,0.275,-0.1
2021-08-19 06:19:01.840,0.29,-0.13
2021-08-19 06:19:01.844,0.265,-0.135
2021-08-19 06:19:01.848,0.29,-0.155
2021-08-19 06:19:01.852,0.27,-0.18
2021-08-19 06:19:01.856,0.265,-0.21
2021-08-19 06:19:01.860,0.28,-0.205
2021-08-19 06:19:01.864,0.28,-0.215
2021-08-19 06:19:01.868,0.265,-0.23
2021-08-19 06:19:01.872,0.275,-0.265
2021-08-19 06:19:01.876,0.255,-0.265
2021-08-19 06:19:01.880,0.25,-0.275
2021-08-19 06:19:01.884,0.27,-0.29
2021-08-19 06:19:01.888,0.285,-0.29
2021-08-19 06:19:01.892,0.3,-0.27
2021-08-19 06:19:01.896,0.305,-0.28
2021-08-19 06:19:01.900,0.31,-0.31
2021-08-19 06:19:01.904,0.285,-0.32
2021-08-19 06:19:01.908,0.25,-0.34
2021-08-19 06:19:01.912,0.22,-0.355
2021-08-19 06:19:01.916,0.2,-0.36
2021-08-19 06:19:01.920,0.18,-0.37
2021-08-19 06:19:01.924,0.135,-0.395
2021-08-19 06:19:01.928,0.115,-0.4
2021-08-19 06:19:01.932,0.11,-0.4
2021-08-19 06:19:01.936,0.09,-0.395
2021-08-19 06:19:01.940,0.075,-0.395
2021-08-19 06:19:01.944,0.065,-0.41
2021-08-19 06:19:01.948,0.095,-0.415
2021-08-19 06:19:01.952,0.105,-0.375
2021-08-19 06:19:01.956,0.135,-0.355
2021-08-19 06:19:01.960,0.13,-0.36
2021-08-19 06:19:01.964,0.155,-0.365
2021-08-19 06:19:01.968,0.145,-0.36
2021-08-19 06:19:01.972,0.175,-0.355
2021-08-19 06:19:01.976,0.2,-0.355
2021-08-19 06:19:01.980,0.175,-0.35
2021-08-19 06:19:01.984,0.195,-0.32
2021-08-19 06:19:01.988,0.18,-0.275
2021-08-19 06:19:01.992,0.175,-0.28
2021-08-19 06:19:01.996,0.225,-0.22
2021-08-19 06:19:02.000,0.24,-0.17
2021-08-19 06:19:02.004,0.23,-0.145
2021-08-19 06:19:02.008,0.275,-0.145
2021-08-19 06:19:02.012,0.265,-0.13
2021-08-19 06:19:02.016,0.295,-0.13
2021-08-19 06:19:02.020,0.325,-0.145
2021-08-19 06:19:02.024,0.34,-0.14
2021-08-19 06:19:02.028,0.31,-0.17
2021-08-19 06:19:02.032,0.32,-0.17
2021-08-19 06:19:02.036,0.31,-0.18
2021-08-19 06:19:02.040,0.295,-0.19
2021-08-19 06:19:02.044,0.295,-0.215
2021-08-19 06:19:02.048,0.3,-0.225
2021-08-19 06:19:02.052,0.29,-0.235
2021-08-19 06:19:02.056,0.275,-0.235
2021-08-19 06:19:02.060,0.25,-0.27
2021-08-19 06:19:02.064,0.27,-0.28
2021-08-19 06:19:02.068,0.26,-0.285
2021-08-19 06:19:02.072,0.23,-0.285
2021-08-19 06:19:02.076,0.27,-0.255
2021-08-19 06:19:02.080,0.29,-0.24
2021-08-19 06:19:02.084,0.3,-0.23
2021-08-19 06:19:02.088,0.305,-0.215
2021-08-19 06:19:02.092,0.29,-0.155
2021-08-19 06:19:02.096,0.29,-0.09
2021-08-19 06:19:02.100,0.28,-0.08
2021-08-19 06:19:02.104,0.26,-0.035
2021-08-19 06:19:02.108,0.23,0.16
2021-08-19 06:19:02.112,0.185,0.495
2021-08-19 06:19:02.116,0.19,0.79
2021-08-19 06:19:02.120,0.175,0.945
2021-08-19 06:19:02.124,0.145,0.925
2021-08-19 06:19:02.128,0.065,0.795
2021-08-19 06:19:02.132,0.03,0.575
2021-08-19 06:19:02.136,0.05,0.225
2021-08-19 06:19:02.140,-0.03,-0.255
2021-08-19 06:19:02.144,-0.19,-0.77
2021-08-19 06:19:02.148,-0.48,-0.9
2021-08-19 06:19:02.152,-0.805,-0.625
2021-08-19 06:19:02.156,-1.1,-0.235
2021-08-19 06:19:02.160,-1.25,-0.225
2021-08-19 06:19:02.164,-1.28,-0.41
2021-08-19 06:19:02.168,-1.17,-0.64
2021-08-19 06:19:02.172,-0.83,-0.745
2021-08-19 06:19:02.176,-0.38,-0.8
2021-08-19 06:19:02.180,-0.11,-0.77
2021-08-19 06:19:02.184,0.0,-0.635
2021-08-19 06:19:02.188,0.015,-0.485
2021-08-19 06:19:02.192,0.015,-0.365
2021-08-19 06:19:02.196,0.045,-0.3
2021-08-19 06:19:02.200,0.045,-0.27
2021-08-19 06:19:02.204,0.1,-0.23
2021-08-19 06:19:02.208,0.18,-0.225
2021-08-19 06:19:02.212,0.27,-0.24
2021-08-19 06:19:02.216,0.34,-0.2
2021-08-19 06:19:02.220,0.38,-0.24
2021-08-19 06:19:02.224,0.385,-0.22
2021-08-19 06:19:02.228,0.37,-0.25
2021-08-19 06:19:02.232,0.37,-0.25
2021-08-19 06:19:02.236,0.365,-0.255
2021-08-19 06:19:02.240,0.37,-0.255
2021-08-19 06:19:02.244,0.4,-0.25
2021-08-19 06:19:02.248,0.4,-0.28
2021-08-19 06:19:02.252,0.395,-0.29
2021-08-19 06:19:02.256,0.39,-0.32
2021-08-19 06:19:02.260,0.355,-0.295
2021-08-19 06:19:02.264,0.39,-0.315
2021-08-19 06:19:02.268,0.4,-0.3
2021-08-19 06:19:02.272,0.385,-0.29
2021-08-19 06:19:02.276,0.4,-0.29
2021-08-19 06:19:02.280,0.4,-0.27
2021-08-19 06:19:02.284,0.415,-0.3
2021-08-19 06:19:02.288,0.42,-0.3
2021-08-19 06:19:02.292,0.41,-0.32
2021-08-19 06:19:02.296,0.435,-0.33
2021-08-19 06:19:02.300,0.42,-0.34
2021-08-19 06:19:02.304,0.385,-0.365
2021-08-19 06:19:02.308,0.35,-0.375
2021-08-19 06:19:02.312,0.33,-0.405
2021-08-19 06:19:02.316,0.295,-0.4
2021-08-19 06:19:02.320,0.225,-0.42
2021-08-19 06:19:02.324,0.19,-0.43
2021-08-19 06:19:02.328,0.195,-0.435
2021-08-19 06:19:02.332,0.185,-0.425
2021-08-19 06:19:02.336,0.17,-0.435
2021-08-19 06:19:02.340,0.17,-0.445
2021-08-19 06:19:02.344,0.18,-0.44
2021-08-19 06:19:02.348,0.16,-0.43
2021-08-19 06:19:02.352,0.18,-0.41
2021-08-19 06:19:02.356,0.19,-0.39
2021-08-19 06:19:02.360,0.185,-0.38
2021-08-19 06:19:02.364,0.22,-0.37
2021-08-19 06:19:02.368,0.235,-0.35
2021-08-19 06:19:02.372,0.22,-0.325
2021-08-19 06:19:02.376,0.255,-0.305
2021-08-19 06:19:02.380,0.255,-0.26
2021-08-19 06:19:02.384,0.26,-0.21
2021-08-19 06:19:02.388,0.27,-0.165
2021-08-19 06:19:02.392,0.29,-0.13
2021-08-19 06:19:02.396,0.285,-0.075
2021-08-19 06:19:02.400,0.26,-0.065
2021-08-19 06:19:02.404,0.315,-0.04
2021-08-19 06:19:02.408,0.3,-0.04
2021-08-19 06:19:02.412,0.32,-0.03
2021-08-19 06:19:02.416,0.36,-0.025
2021-08-19 06:19:02.420,0.38,-0.045
2021-08-19 06:19:02.424,0.345,-0.06
2021-08-19 06:19:02.428,0.31,-0.08
2021-08-19 06:19:02.432,0.34,-0.085
2021-08-19 06:19:02.436,0.33,-0.085
2021-08-19 06:19:02.440,0.32,-0.12
2021-08-19 06:19:02.444,0.3,-0.1
2021-08-19 06:19:02.448,0.305,-0.12
2021-08-19 06:19:02.452,0.32,-0.135
2021-08-19 06:19:02.456,0.305,-0.14
2021-08-19 06:19:02.460,0.31,-0.13
2021-08-19 06:19:02.464,0.3,-0.145
2021-08-19 06:19:02.468,0.32,-0.155
2021-08-19 06:19:02.472,0.315,-0.16
2021-08-19 06:19:02.476,0.33,-0.17
2021-08-19 06:19:02.480,0.33,-0.2
2021-08-19 06:19:02.484,0.35,-0.215
2021-08-19 06:19:02.488,0.315,-0.225
2021-08-19 06:19:02.492,0.295,-0.245
2021-08-19 06:19:02.496,0.28,-0.25
2021-08-19 06:19:02.500,0.27,-0.26
2021-08-19 06:19:02.504,0.2,-0.295
2021-08-19 06:19:02.508,0.175,-0.32
2021-08-19 06:19:02.512,0.13,-0.34
2021-08-19 06:19:02.516,0.125,-0.345
2021-08-19 06:19:02.520,0.11,-0.35
2021-08-19 06:19:02.524,0.115,-0.355
2021-08-19 06:19:02.528,0.11,-0.365
2021-08-19 06:19:02.532,0.095,-0.36
2021-08-19 06:19:02.536,0.095,-0.37
2021-08-19 06:19:02.540,0.095,-0.37
2021-08-19 06:19:02.544,0.125,-0.36
2021-08-19 06:19:02.548,0.14,-0.34
2021-08-19 06:19:02.552,0.13,-0.34
2021-08-19 06:19:02.556,0.155,-0.34
2021-08-19 06:19:02.560,0.15,-0.355
2021-08-19 06:19:02.564,0.15,-0.33
2021-08-19 06:19:02.568,0.175,-0.32
2021-08-19 06:19:02.572,0.18,-0.315
2021-08-19 06:19:02.576,0.18,-0.28
2021-08-19 06:19:02.580,0.19,-0.265
2021-08-19 06:19:02.584,0.195,-0.245
2021-08-19 06:19:02.588,0.195,-0.21
2021-08-19 06:19:02.592,0.25,-0.17
2021-08-19 06:19:02.596,0.27,-0.145
2021-08-19 06:19:02.600,0.265,-0.15
2021-08-19 06:19:02.604,0.285,-0.16
2021-08-19 06:19:02.608,0.28,-0.18
2021-08-19 06:19:02.612,0.3,-0.175
2021-08-19 06:19:02.616,0.295,-0.16
2021-08-19 06:19:02.620,0.285,-0.16
2021-08-19 06:19:02.624,0.29,-0.16
2021-08-19 06:19:02.628,0.27,-0.18
2021-08-19 06:19:02.632,0.265,-0.2
2021-08-19 06:19:02.636,0.26,-0.19
2021-08-19 06:19:02.640,0.28,-0.205
2021-08-19 06:19:02.644,0.26,-0.22
2021-08-19 06:19:02.648,0.26,-0.22
2021-08-19 06:19:02.652,0.245,-0.25
2021-08-19 06:19:02.656,0.245,-0.27
2021-08-19 06:19:02.660,0.245,-0.27
2021-08-19 06:19:02.664,0.26,-0.27
2021-08-19 06:19:02.668,0.275,-0.25
2021-08-19 06:19:02.672,0.28,-0.27
2021-08-19 06:19:02.676,0.3,-0.275
2021-08-19 06:19:02.680,0.31,-0.29
2021-08-19 06:19:02.684,0.29,-0.285
2021-08-19 06:19:02.688,0.29,-0.305
2021-08-19 06:19:02.692,0.265,-0.34
2021-08-19 06:19:02.696,0.22,-0.33
2021-08-19 06:19:02.700,0.195,-0.35
2021-08-19 06:19:02.704,0.12,-0.39
2021-08-19 06:19:02.708,0.11,-0.41
2021-08-19 06:19:02.712,0.09,-0.43
2021-08-19 06:19:02.716,0.075,-0.425
2021-08-19 06:19:02.720,0.075,-0.41
2021-08-19 06:19:02.724,0.07,-0.415
2021-08-19 06:19:02.728,0.07,-0.4
2021-08-19 06:19:02.732,0.07,-0.405
2021-08-19 06:19:02.736,0.055,-0.405
2021-08-19 06:19:02.740,0.09,-0.385
2021-08-19 06:19:02.744,0.1,-0.375
2021-08-19 06:19:02.748,0.1,-0.385
2021-08-19 06:19:02.752,0.115,-0.375
2021-08-19 06:19:02.756,0.11,-0.39
2021-08-19 06:19:02.760,0.13,-0.39
2021-08-19 06:19:02.764,0.14,-0.38
2021-08-19 06:19:02.768,0.16,-0.35
2021-08-19 06:19:02.772,0.16,-0.305
2021-08-19 06:19:02.776,0.15,-0.28
2021-08-19 06:19:02.780,0.175,-0.205
2021-08-19 06:19:02.784,0.19,-0.125
2021-08-19 06:19:02.788,0.185,-0.03
2021-08-19 06:19:02.792,0.205,0.075
2021-08-19 06:19:02.796,0.22,0.26
2021-08-19 06:19:02.800,0.24,0.57
2021-08-19 06:19:02.804,0.275,0.915
2021-08-19 06:19:02.808,0.3,1.125
2021-08-19 06:19:02.812,0.31,1.15
2021-08-19 06:19:02.816,0.255,1.045
2021-08-19 06:19:02.820,0.21,0.82
2021-08-19 06:19:02.824,0.185,0.46
2021-08-19 06:19:02.828,0.115,-0.01
2021-08-19 06:19:02.832,-0.035,-0.53
2021-08-19 06:19:02.836,-0.34,-0.785
2021-08-19 06:19:02.840,-0.7,-0.55
2021-08-19 06:19:02.844,-1.02,-0.18
2021-08-19 06:19:02.848,-1.2,-0.115
2021-08-19 06:19:02.852,-1.25,-0.3
2021-08-19 06:19:02.856,-1.165,-0.54
2021-08-19 06:19:02.860,-0.85,-0.64
2021-08-19 06:19:02.864,-0.38,-0.7
2021-08-19 06:19:02.868,-0.03,-0.69
2021-08-19 06:19:02.872,0.105,-0.585
2021-08-19 06:19:02.876,0.125,-0.45
2021-08-19 06:19:02.880,0.14,-0.39
2021-08-19 06:19:02.884,0.14,-0.36
2021-08-19 06:19:02.888,0.115,-0.385
2021-08-19 06:19:02.892,0.11,-0.385
2021-08-19 06:19:02.896,0.135,-0.4
2021-08-19 06:19:02.900,0.14,-0.41
2021-08-19 06:19:02.904,0.175,-0.425
2021-08-19 06:19:02.908,0.185,-0.44
2021-08-19 06:19:02.912,0.175,-0.48
2021-08-19 06:19:02.916,0.16,-0.475
2021-08-19 06:19:02.920,0.175,-0.49
2021-08-19 06:19:02.924,0.185,-0.49
2021-08-19 06:19:02.928,0.175,-0.48
2021-08-19 06:19:02.932,0.2,-0.48
2021-08-19 06:19:02.936,0.19,-0.47
2021-08-19 06:19:02.940,0.22,-0.475
2021-08-19 06:19:02.944,0.235,-0.475
2021-08-19 06:19:02.948,0.235,-0.47
2021-08-19 06:19:02.952,0.255,-0.47
2021-08-19 06:19:02.956,0.285,-0.47
2021-08-19 06:19:02.960,0.305,-0.455
2021-08-19 06:19:02.964,0.295,-0.435
2021-08-19 06:19:02.968,0.3,-0.43
2021-08-19 06:19:02.972,0.31,-0.405
2021-08-19 06:19:02.976,0.35,-0.375
2021-08-19 06:19:02.980,0.36,-0.355
2021-08-19 06:19:02.984,0.355,-0.335
2021-08-19 06:19:02.988,0.37,-0.345
2021-08-19 06:19:02.992,0.37,-0.345
2021-08-19 06:19:02.996,0.37,-0.33
2021-08-19 06:19:03.000,0.36,-0.35
2021-08-19 06:19:03.004,0.355,-0.345
2021-08-19 06:19:03.008,0.365,-0.36
2021-08-19 06:19:03.012,0.37,-0.35
2021-08-19 06:19:03.016,0.36,-0.345
2021-08-19 06:19:03.020,0.345,-0.33
2021-08-19 06:19:03.024,0.35,-0.325
2021-08-19 06:19:03.028,0.35,-0.31
2021-08-19 06:19:03.032,0.34,-0.29
2021-08-19 06:19:03.036,0.36,-0.3
2021-08-19 06:19:03.040,0.36,-0.285
2021-08-19 06:19:03.044,0.35,-0.28
2021-08-19 06:19:03.048,0.36,-0.24
2021-08-19 06:19:03.052,0.355,-0.27
2021-08-19 06:19:03.056,0.365,-0.235
2021-08-19 06:19:03.060,0.36,-0.24
2021-08-19 06:19:03.064,0.4,-0.24
2021-08-19 06:19:03.068,0.4,-0.22
2021-08-19 06:19:03.072,0.385,-0.225
2021-08-19 06:19:03.076,0.38,-0.215
2021-08-19 06:19:03.080,0.375,-0.22
2021-08-19 06:19:03.084,0.36,-0.2
2021-08-19 06:19:03.088,0.355,-0.225
2021-08-19 06:19:03.092,0.29,-0.25
2021-08-19 06:19:03.096,0.245,-0.22
2021-08-19 06:19:03.100,0.21,-0.21
2021-08-19 06:19:03.104,0.165,-0.225
2021-08-19 06:19:03.108,0.13,-0.215
2021-08-19 06:19:03.112,0.105,-0.24
2021-08-19 06:19:03.116,0.095,-0.235
2021-08-19 06:19:03.120,0.075,-0.25
2021-08-19 06:19:03.124,0.09,-0.26
2021-08-19 06:19:03.128,0.105,-0.27
2021-08-19 06:19:03.132,0.11,-0.285
2021-08-19 06:19:03.136,0.125,-0.3
2021-08-19 06:19:03.140,0.105,-0.325
2021-08-19 06:19:03.144,0.115,-0.31
2021-08-19 06:19:03.148,0.135,-0.32
2021-08-19 06:19:03.152,0.155,-0.31
2021-08-19 06:19:03.156,0.155,-0.3
2021-08-19 06:19:03.160,0.175,-0.285
2021-08-19 06:19:03.164,0.18,-0.265
2021-08-19 06:19:03.168,0.2,-0.25
2021-08-19 06:19:03.172,0.21,-0.23
2021-08-19 06:19:03.176,0.23,-0.21
2021-08-19 06:19:03.180,0.25,-0.16
2021-08-19 06:19:03.184,0.26,-0.19
2021-08-19 06:19:03.188,0.27,-0.185
2021-08-19 06:19:03.192,0.275,-0.19
2021-08-19 06:19:03.196,0.27,-0.185
2021-08-19 06:19:03.200,0.275,-0.2
2021-08-19 06:19:03.204,0.29,-0.195
2021-08-19 06:19:03.208,0.3,-0.195
2021-08-19 06:19:03.212,0.28,-0.19
2021-08-19 06:19:03.216,0.295,-0.2
2021-08-19 06:19:03.220,0.3,-0.21
2021-08-19 06:19:03.224,0.29,-0.21
2021-08-19 06:19:03.228,0.3,-0.18
2021-08-19 06:19:03.232,0.3,-0.18
2021-08-19 06:19:03.236,0.305,-0.195
2021-08-19 06:19:03.240,0.33,-0.2
2021-08-19 06:19:03.244,0.31,-0.195
2021-08-19 06:19:03.248,0.335,-0.18
2021-08-19 06:19:03.252,0.335,-0.19
2021-08-19 06:19:03.256,0.34,-0.185
2021-08-19 06:19:03.260,0.36,-0.19
2021-08-19 06:19:03.264,0.37,-0.2
2021-08-19 06:19:03.268,0.375,-0.22
2021-08-19 06:19:03.272,0.355,-0.215
2021-08-19 06:19:03.276,0.34,-0.24
2021-08-19 06:19:03.280,0.315,-0.275
2021-08-19 06:19:03.284,0.29,-0.315
2021-08-19 06:19:03.288,0.22,-0.335
2021-08-19 06:19:03.292,0.185,-0.34
2021-08-19 06:19:03.296,0.185,-0.35
2021-08-19 06:19:03.300,0.175,-0.345
2021-08-19 06:19:03.304,0.16,-0.35
2021-08-19 06:19:03.308,0.165,-0.35
2021-08-19 06:19:03.312,0.17,-0.335
2021-08-19 06:19:03.316,0.165,-0.32
2021-08-19 06:19:03.320,0.17,-0.325
2021-08-19 06:19:03.324,0.175,-0.31
2021-08-19 06:19:03.328,0.19,-0.315
2021-08-19 06:19:03.332,0.195,-0.315
2021-08-19 06:19:03.336,0.205,-0.3
2021-08-19 06:19:03.340,0.21,-0.29
2021-08-19 06:19:03.344,0.235,-0.275
2021-08-19 06:19:03.348,0.235,-0.285
2021-08-19 06:19:03.352,0.23,-0.275
2021-08-19 06:19:03.356,0.245,-0.255
2021-08-19 06:19:03.360,0.265,-0.24
2021-08-19 06:19:03.364,0.265,-0.2
2021-08-19 06:19:03.368,0.285,-0.195
2021-08-19 06:19:03.372,0.29,-0.17
2021-08-19 06:19:03.376,0.275,-0.185
2021-08-19 06:19:03.380,0.28,-0.175
2021-08-19 06:19:03.384,0.3,-0.19
2021-08-19 06:19:03.388,0.31,-0.19
2021-08-19 06:19:03.392,0.3,-0.18
2021-08-19 06:19:03.396,0.31,-0.2
2021-08-19 06:19:03.400,0.295,-0.21
2021-08-19 06:19:03.404,0.3,-0.195
2021-08-19 06:19:03.408,0.28,-0.215
2021-08-19 06:19:03.412,0.28,-0.205
2021-08-19 06:19:03.416,0.28,-0.195
2021-08-19 06:19:03.420,0.285,-0.2
2021-08-19 06:19:03.424,0.28,-0.205
2021-08-19 06:19:03.428,0.28,-0.225
2021-08-19 06:19:03.432,0.28,-0.23
2021-08-19 06:19:03.436,0.28,-0.24
2021-08-19 06:19:03.440,0.29,-0.245
2021-08-19 06:19:03.444,0.315,-0.22
2021-08-19 06:19:03.448,0.32,-0.21
2021-08-19 06:19:03.452,0.33,-0.21
2021-08-19 06:19:03.456,0.335,-0.2
2021-08-19 06:19:03.460,0.315,-0.205
2021-08-19 06:19:03.464,0.335,-0.23
2021-08-19 06:19:03.468,0.325,-0.27
2021-08-19 06:19:03.472,0.285,-0.285
2021-08-19 06:19:03.476,0.27,-0.3
2021-08-19 06:19:03.480,0.235,-0.33
2021-08-19 06:19:03.484,0.165,-0.32
2021-08-19 06:19:03.488,0.13,-0.33
2021-08-19 06:19:03.492,0.125,-0.345
2021-08-19 06:19:03.496,0.095,-0.355
2021-08-19 06:19:03.500,0.12,-0.37
2021-08-19 06:19:03.504,0.11,-0.36
2021-08-19 06:19:03.508,0.125,-0.38
2021-08-19 06:19:03.512,0.135,-0.36
2021-08-19 06:19:03.516,0.14,-0.35
2021-08-19 06:19:03.520,0.135,-0.345
2021-08-19 06:19:03.524,0.145,-0.35
2021-08-19 06:19:03.528,0.135,-0.35
2021-08-19 06:19:03.532,0.15,-0.365
2021-08-19 06:19:03.536,0.16,-0.32
2021-08-19 06:19:03.540,0.17,-0.29
2021-08-19 06:19:03.544,0.175,-0.3
2021-08-19 06:19:03.548,0.195,-0.3
2021-08-19 06:19:03.552,0.185,-0.285
2021-08-19 06:19:03.556,0.215,-0.26
2021-08-19 06:19:03.560,0.22,-0.245
2021-08-19 06:19:03.564,0.25,-0.21
2021-08-19 06:19:03.568,0.25,-0.195
2021-08-19 06:19:03.572,0.255,-0.175
2021-08-19 06:19:03.576,0.27,-0.17
2021-08-19 06:19:03.580,0.28,-0.165
2021-08-19 06:19:03.584,0.295,-0.16
2021-08-19 06:19:03.588,0.28,-0.165
2021-08-19 06:19:03.592,0.29,-0.185
2021-08-19 06:19:03.596,0.29,-0.185
2021-08-19 06:19:03.600,0.265,-0.185
2021-08-19 06:19:03.604,0.3,-0.19
2021-08-19 06:19:03.608,0.26,-0.22
2021-08-19 06:19:03.612,0.265,-0.21
2021-08-19 06:19:03.616,0.29,-0.185
2021-08-19 06:19:03.620,0.265,-0.175
2021-08-19 06:19:03.624,0.255,-0.155
2021-08-19 06:19:03.628,0.275,-0.145
2021-08-19 06:19:03.632,0.275,-0.135
2021-08-19 06:19:03.636,0.275,-0.15
2021-08-19 06:19:03.640,0.305,-0.125
2021-08-19 06:19:03.644,0.315,-0.14
2021-08-19 06:19:03.648,0.335,-0.11
2021-08-19 06:19:03.652,0.35,-0.125
2021-08-19 06:19:03.656,0.365,-0.115
2021-08-19 06:19:03.660,0.365,-0.135
2021-08-19 06:19:03.664,0.365,-0.16
2021-08-19 06:19:03.668,0.35,-0.195
2021-08-19 06:19:03.672,0.315,-0.235
2021-08-19 06:19:03.676,0.25,-0.27
2021-08-19 06:19:03.680,0.22,-0.28
2021-08-19 06:19:03.684,0.18,-0.31
2021-08-19 06:19:03.688,0.145,-0.335
2021-08-19 06:19:03.692,0.13,-0.355
2021-08-19 06:19:03.696,0.12,-0.365
2021-08-19 06:19:03.700,0.125,-0.365
2021-08-19 06:19:03.704,0.105,-0.36
2021-08-19 06:19:03.708,0.1,-0.36
2021-08-19 06:19:03.712,0.1,-0.365
2021-08-19 06:19:03.716,0.13,-0.34
2021-08-19 06:19:03.720,0.14,-0.34
2021-08-19 06:19:03.724,0.115,-0.33
2021-08-19 06:19:03.728,0.125,-0.32
2021-08-19 06:19:03.732,0.135,-0.335
2021-08-19 06:19:03.736,0.15,-0.34
2021-08-19 06:19:03.740,0.185,-0.32
2021-08-19 06:19:03.744,0.19,-0.3
2021-08-19 06:19:03.748,0.175,-0.26
2021-08-19 06:19:03.752,0.2,-0.255
2021-08-19 06:19:03.756,0.2,-0.235
2021-08-19 06:19:03.760,0.205,-0.235
2021-08-19 06:19:03.764,0.22,-0.205
2021-08-19 06:19:03.768,0.25,-0.175
2021-08-19 06:19:03.772,0.255,-0.145
2021-08-19 06:19:03.776,0.27,-0.16
2021-08-19 06:19:03.780,0.255,-0.14
2021-08-19 06:19:03.784,0.27,-0.16
2021-08-19 06:19:03.788,0.255,-0.155
2021-08-19 06:19:03.792,0.26,-0.16
2021-08-19 06:19:03.796,0.265,-0.145
2021-08-19 06:19:03.800,0.27,-0.165
2021-08-19 06:19:03.804,0.25,-0.185
2021-08-19 06:19:03.808,0.255,-0.18
2021-08-19 06:19:03.812,0.265,-0.18
2021-08-19 06:19:03.816,0.275,-0.18
2021-08-19 06:19:03.820,0.275,-0.18
2021-08-19 06:19:03.824,0.26,-0.155
2021-08-19 06:19:03.828,0.255,-0.135
2021-08-19 06:19:03.832,0.27,-0.135
2021-08-19 06:19:03.836,0.265,-0.08
2021-08-19 06:19:03.840,0.29,0.0
2021-08-19 06:19:03.844,0.315,0.09
2021-08-19 06:19:03.848,0.32,0.145
2021-08-19 06:19:03.852,0.305,0.265
2021-08-19 06:19:03.856,0.285,0.445
2021-08-19 06:19:03.860,0.28,0.7
2021-08-19 06:19:03.864,0.29,0.9
2021-08-19 06:19:03.868,0.295,0.96
2021-08-19 06:19:03.872,0.24,0.865
2021-08-19 06:19:03.876,0.185,0.66
2021-08-19 06:19:03.880,0.105,0.405
2021-08-19 06:19:03.884,0.095,0.09
2021-08-19 06:19:03.888,-0.02,-0.31
2021-08-19 06:19:03.892,-0.215,-0.755
2021-08-19 06:19:03.896,-0.51,-0.94
2021-08-19 06:19:03.900,-0.855,-0.695
2021-08-19 06:19:03.904,-1.125,-0.355
2021-08-19 06:19:03.908,-1.26,-0.265
2021-08-19 06:19:03.912,-1.29,-0.41
2021-08-19 06:19:03.916,-1.175,-0.56
2021-08-19 06:19:03.920,-0.88,-0.705
2021-08-19 06:19:03.924,-0.42,-0.81
2021-08-19 06:19:03.928,-0.105,-0.84
2021-08-19 06:19:03.932,-0.02,-0.805
2021-08-19 06:19:03.936,-0.005,-0.69
2021-08-19 06:19:03.940,-0.02,-0.605
2021-08-19 06:19:03.944,-0.01,-0.555
2021-08-19 06:19:03.948,-0.01,-0.525
2021-08-19 06:19:03.952,-0.01,-0.495
2021-08-19 06:19:03.956,0.03,-0.43
2021-08-19 06:19:03.960,0.095,-0.39
2021-08-19 06:19:03.964,0.175,-0.33
2021-08-19 06:19:03.968,0.195,-0.3
2021-08-19 06:19:03.972,0.255,-0.27
2021-08-19 06:19:03.976,0.3,-0.23
2021-08-19 06:19:03.980,0.315,-0.245
2021-08-19 06:19:03.984,0.36,-0.25
2021-08-19 06:19:03.988,0.335,-0.26
2021-08-19 06:19:03.992,0.37,-0.255
2021-08-19 06:19:03.996,0.39,-0.275
2021-08-19 06:19:04.000,0.375,-0.285
2021-08-19 06:19:04.004,0.36,-0.28
2021-08-19 06:19:04.008,0.37,-0.295
2021-08-19 06:19:04.012,0.38,-0.3
2021-08-19 06:19:04.016,0.39,-0.305
2021-08-19 06:19:04.020,0.365,-0.32
2021-08-19 06:19:04.024,0.36,-0.305
2021-08-19 06:19:04.028,0.345,-0.305
2021-08-19 06:19:04.032,0.375,-0.3
2021-08-19 06:19:04.036,0.37,-0.31
2021-08-19 06:19:04.040,0.375,-0.27
2021-08-19 06:19:04.044,0.39,-0.25
2021-08-19 06:19:04.048,0.38,-0.255
2021-08-19 06:19:04.052,0.42,-0.245
2021-08-19 06:19:04.056,0.425,-0.25
2021-08-19 06:19:04.060,0.435,-0.28
2021-08-19 06:19:04.064,0.445,-0.3
2021-08-19 06:19:04.068,0.415,-0.33
2021-08-19 06:19:04.072,0.4,-0.355
2021-08-19 06:19:04.076,0.345,-0.365
2021-08-19 06:19:04.080,0.295,-0.4
2021-08-19 06:19:04.084,0.265,-0.425
2021-08-19 06:19:04.088,0.215,-0.445
2021-08-19 06:19:04.092,0.21,-0.465
2021-08-19 06:19:04.096,0.17,-0.465
2021-08-19 06:19:04.100,0.175,-0.48
2021-08-19 06:19:04.104,0.15,-0.49
2021-08-19 06:19:04.108,0.15,-0.48
2021-08-19 06:19:04.112,0.14,-0.48
2021-08-19 06:19:04.116,0.145,-0.505
2021-08-19 06:19:04.120,0.155,-0.505
2021-08-19 06:19:04.124,0.14,-0.505
2021-08-19 06:19:04.128,0.14,-0.52
2021-08-19 06:19:04.132,0.15,-0.49
2021-08-19 06:19:04.136,0.135,-0.455
2021-08-19 06:19:04.140,0.14,-0.455
2021-08-19 06:19:04.144,0.135,-0.445
2021-08-19 06:19:04.148,0.155,-0.445
2021-08-19 06:19:04.152,0.145,-0.415
2021-08-19 06:19:04.156,0.155,-0.4
2021-08-19 06:19:04.160,0.17,-0.33
2021-08-19 06:19:04.164,0.17,-0.29
2021-08-19 06:19:04.168,0.18,-0.23
2021-08-19 06:19:04.172,0.155,-0.2
2021-08-19 06:19:04.176,0.16,-0.12
2021-08-19 06:19:04.180,0.195,-0.07
2021-08-19 06:19:04.184,0.215,-0.025
2021-08-19 06:19:04.188,0.225,0.005
2021-08-19 06:19:04.192,0.245,0.005
2021-08-19 06:19:04.196,0.26,0.005
2021-08-19 06:19:04.200,0.26,0.015
2021-08-19 06:19:04.204,0.285,0.005
2021-08-19 06:19:04.208,0.285,-0.005
2021-08-19 06:19:04.212,0.285,0.0
2021-08-19 06:19:04.216,0.285,0.01
2021-08-19 06:19:04.220,0.285,0.005
2021-08-19 06:19:04.224,0.305,0.015
2021-08-19 06:19:04.228,0.295,0.005
2021-08-19 06:19:04.232,0.325,0.0
2021-08-19 06:19:04.236,0.34,-0.005
2021-08-19 06:19:04.240,0.325,-0.02
2021-08-19 06:19:04.244,0.345,-0.01
2021-08-19 06:19:04.248,0.325,-0.02
2021-08-19 06:19:04.252,0.335,-0.005
2021-08-19 06:19:04.256,0.34,-0.005
2021-08-19 06:19:04.260,0.36,-0.01
2021-08-19 06:19:04.264,0.375,-0.015
2021-08-19 06:19:04.268,0.38,-0.045
2021-08-19 06:19:04.272,0.375,-0.065
2021-08-19 06:19:04.276,0.395,-0.1
2021-08-19 06:19:04.280,0.355,-0.125
2021-08-19 06:19:04.284,0.355,-0.155
2021-08-19 06:19:04.288,0.335,-0.185
2021-08-19 06:19:04.292,0.315,-0.215
2021-08-19 06:19:04.296,0.265,-0.22
2021-08-19 06:19:04.300,0.205,-0.25
2021-08-19 06:19:04.304,0.175,-0.275
2021-08-19 06:19:04.308,0.135,-0.325
2021-08-19 06:19:04.312,0.135,-0.315
2021-08-19 06:19:04.316,0.11,-0.33
2021-08-19 06:19:04.320,0.1,-0.305
2021-08-19 06:19:04.324,0.115,-0.305
2021-08-19 06:19:04.328,0.13,-0.31
2021-08-19 06:19:04.332,0.13,-0.33
2021-08-19 06:19:04.336,0.14,-0.31
2021-08-19 06:19:04.340,0.145,-0.29
2021-08-19 06:19:04.344,0.14,-0.265
2021-08-19 06:19:04.348,0.145,-0.24
2021-08-19 06:19:04.352,0.15,-0.24
2021-08-19 06:19:04.356,0.14,-0.225
2021-08-19 06:19:04.360,0.175,-0.205
2021-08-19 06:19:04.364,0.18,-0.2
2021-08-19 06:19:04.368,0.175,-0.19
2021-08-19 06:19:04.372,0.185,-0.205
2021-08-19 06:19:04.376,0.21,-0.18
2021-08-19 06:19:04.380,0.225,-0.185
2021-08-19 06:19:04.384,0.235,-0.18
2021-08-19 06:19:04.388,0.225,-0.16
2021-08-19 06:19:04.392,0.24,-0.155
2021-08-19 06:19:04.396,0.255,-0.125
2021-08-19 06:19:04.400,0.25,-0.11
2021-08-19 06:19:04.404,0.27,-0.08
2021-08-19 06:19:04.408,0.265,-0.07
2021-08-19 06:19:04.412,0.285,-0.095
2021-08-19 06:19:04.416,0.285,-0.095
2021-08-19 06:19:04.420,0.305,-0.08
2021-08-19 06:19:04.424,0.285,-0.095
2021-08-19 06:19:04.428,0.3,-0.095
2021-08-19 06:19:04.432,0.315,-0.125
2021-08-19 06:19:04.436,0.315,-0.125
2021-08-19 06:19:04.440,0.325,-0.115
2021-08-19 06:19:04.444,0.335,-0.11
2021-08-19 06:19:04.448,0.31,-0.11
2021-08-19 06:19:04.452,0.335,-0.08
2021-08-19 06:19:04.456,0.32,-0.06
2021-08-19 06:19:04.460,0.365,-0.055
2021-08-19 06:19:04.464,0.375,-0.06
2021-08-19 06:19:04.468,0.385,-0.04
2021-08-19 06:19:04.472,0.39,-0.08
2021-08-19 06:19:04.476,0.38,-0.13
2021-08-19 06:19:04.480,0.375,-0.16
2021-08-19 06:19:04.484,0.36,-0.19
2021-08-19 06:19:04.488,0.315,-0.24
2021-08-19 06:19:04.492,0.24,-0.26
2021-08-19 06:19:04.496,0.21,-0.28
2021-08-19 06:19:04.500,0.17,-0.305
2021-08-19 06:19:04.504,0.15,-0.345
2021-08-19 06:19:04.508,0.135,-0.325
2021-08-19 06:19:04.512,0.135,-0.335
2021-08-19 06:19:04.516,0.1,-0.315
2021-08-19 06:19:04.520,0.1,-0.31
2021-08-19 06:19:04.524,0.09,-0.285
2021-08-19 06:19:04.528,0.065,-0.29
2021-08-19 06:19:04.532,0.09,-0.26
2021-08-19 06:19:04.536,0.08,-0.265
2021-08-19 06:19:04.540,0.09,-0.25
2021-08-19 06:19:04.544,0.11,-0.25
2021-08-19 06:19:04.548,0.105,-0.21
2021-08-19 06:19:04.552,0.1,-0.22
2021-08-19 06:19:04.556,0.095,-0.235
2021-08-19 06:19:04.560,0.105,-0.19
2021-08-19 06:19:04.564,0.12,-0.165
2021-08-19 06:19:04.568,0.14,-0.16
2021-08-19 06:19:04.572,0.15,-0.165
2021-08-19 06:19:04.576,0.17,-0.175
2021-08-19 06:19:04.580,0.175,-0.205
2021-08-19 06:19:04.584,0.22,-0.19
2021-08-19 06:19:04.588,0.225,-0.185
2021-08-19 06:19:04.592,0.235,-0.195
2021-08-19 06:19:04.596,0.215,-0.185
2021-08-19 06:19:04.600,0.2,-0.155
2021-08-19 06:19:04.604,0.2,-0.125
2021-08-19 06:19:04.608,0.21,-0.09
2021-08-19 06:19:04.612,0.245,-0.075
2021-08-19 06:19:04.616,0.24,-0.07
2021-08-19 06:19:04.620,0.245,-0.075
2021-08-19 06:19:04.624,0.245,-0.085
2021-08-19 06:19:04.628,0.275,-0.095
2021-08-19 06:19:04.632,0.255,-0.085
2021-08-19 06:19:04.636,0.25,-0.135
2021-08-19 06:19:04.640,0.285,-0.14
2021-08-19 06:19:04.644,0.285,-0.135
2021-08-19 06:19:04.648,0.295,-0.125
2021-08-19 06:19:04.652,0.29,-0.1
2021-08-19 06:19:04.656,0.295,-0.08
2021-08-19 06:19:04.660,0.31,-0.08
2021-08-19 06:19:04.664,0.33,-0.12
2021-08-19 06:19:04.668,0.315,-0.125
2021-08-19 06:19:04.672,0.33,-0.135
2021-08-19 06:19:04.676,0.325,-0.185
2021-08-19 06:19:04.680,0.315,-0.185
2021-08-19 06:19:04.684,0.265,-0.225
2021-08-19 06:19:04.688,0.2,-0.265
2021-08-19 06:19:04.692,0.165,-0.3
2021-08-19 06:19:04.696,0.12,-0.325
2021-08-19 06:19:04.700,0.09,-0.36
2021-08-19 06:19:04.704,0.09,-0.395
2021-08-19 06:19:04.708,0.065,-0.395
2021-08-19 06:19:04.712,0.06,-0.385
2021-08-19 06:19:04.716,0.065,-0.38
2021-08-19 06:19:04.720,0.04,-0.37
2021-08-19 06:19:04.724,0.055,-0.37
2021-08-19 06:19:04.728,0.05,-0.355
2021-08-19 06:19:04.732,0.02,-0.34
2021-08-19 06:19:04.736,0.03,-0.34
2021-08-19 06:19:04.740,0.04,-0.33
2021-08-19 06:19:04.744,0.05,-0.3
2021-08-19 06:19:04.748,0.025,-0.285
2021-08-19 06:19:04.752,0.05,-0.27
2021-08-19 06:19:04.756,0.06,-0.245
2021-08-19 06:19:04.760,0.045,-0.21
2021-08-19 06:19:04.764,0.06,-0.245
2021-08-19 06:19:04.768,0.085,-0.205
2021-08-19 06:19:04.772,0.105,-0.225
2021-08-19 06:19:04.776,0.12,-0.255
2021-08-19 06:19:04.780,0.155,-0.25
2021-08-19 06:19:04.784,0.175,-0.27
2021-08-19 06:19:04.788,0.175,-0.28
2021-08-19 06:19:04.792,0.16,-0.29
2021-08-19 06:19:04.796,0.175,-0.265
2021-08-19 06:19:04.800,0.165,-0.22
2021-08-19 06:19:04.804,0.175,-0.195
2021-08-19 06:19:04.808,0.165,-0.16
2021-08-19 06:19:04.812,0.175,-0.16
2021-08-19 06:19:04.816,0.195,-0.16
2021-08-19 06:19:04.820,0.185,-0.135
2021-08-19 06:19:04.824,0.225,-0.125
2021-08-19 06:19:04.828,0.225,-0.075
2021-08-19 06:19:04.832,0.255,0.025
2021-08-19 06:19:04.836,0.24,0.095
2021-08-19 06:19:04.840,0.24,0.21
2021-08-19 06:19:04.844,0.27,0.435
2021-08-19 06:19:04.848,0.29,0.77
2021-08-19 06:19:04.852,0.33,1.095
2021-08-19 06:19:04.856,0.37,1.275
2021-08-19 06:19:04.860,0.37,1.24
2021-08-19 06:19:04.864,0.34,1.07
2021-08-19 06:19:04.868,0.315,0.8
2021-08-19 06:19:04.872,0.31,0.43
2021-08-19 06:19:04.876,0.205,-0.04
2021-08-19 06:19:04.880,-0.005,-0.575
2021-08-19 06:19:04.884,-0.32,-0.805
2021-08-19 06:19:04.888,-0.735,-0.585
2021-08-19 06:19:04.892,-1.04,-0.275
2021-08-19 06:19:04.896,-1.205,-0.215
2021-08-19 06:19:04.900,-1.27,-0.38
2021-08-19 06:19:04.904,-1.18,-0.555
2021-08-19 06:19:04.908,-0.835,-0.69
2021-08-19 06:19:04.912,-0.44,-0.795
2021-08-19 06:19:04.916,-0.155,-0.805
2021-08-19 06:19:04.920,-0.06,-0.7
2021-08-19 06:19:04.924,-0.075,-0.57
2021-08-19 06:19:04.928,-0.1,-0.47
2021-08-19 06:19:04.932,-0.09,-0.425
2021-08-19 06:19:04.936,-0.12,-0.405
2021-08-19 06:19:04.940,-0.09,-0.39
2021-08-19 06:19:04.944,-0.04,-0.37
2021-08-19 06:19:04.948,0.035,-0.36
2021-08-19 06:19:04.952,0.12,-0.335
2021-08-19 06:19:04.956,0.13,-0.305
2021-08-19 06:19:04.960,0.17,-0.32
2021-08-19 06:19:04.964,0.185,-0.32
2021-08-19 06:19:04.968,0.175,-0.305
2021-08-19 06:19:04.972,0.215,-0.33
2021-08-19 06:19:04.976,0.225,-0.32
2021-08-19 06:19:04.980,0.24,-0.33
2021-08-19 06:19:04.984,0.24,-0.355
2021-08-19 06:19:04.988,0.26,-0.325
2021-08-19 06:19:04.992,0.265,-0.315
2021-08-19 06:19:04.996,0.27,-0.29
2021-08-19 06:19:05.000,0.225,-0.23
2021-08-19 06:19:05.004,0.25,-0.225
2021-08-19 06:19:05.008,0.24,-0.21
2021-08-19 06:19:05.012,0.285,-0.215
2021-08-19 06:19:05.016,0.285,-0.195
2021-08-19 06:19:05.020,0.315,-0.205
2021-08-19 06:19:05.024,0.34,-0.2
2021-08-19 06:19:05.028,0.33,-0.19
2021-08-19 06:19:05.032,0.34,-0.2
2021-08-19 06:19:05.036,0.33,-0.195
2021-08-19 06:19:05.040,0.38,-0.19
2021-08-19 06:19:05.044,0.385,-0.185
2021-08-19 06:19:05.048,0.395,-0.21
2021-08-19 06:19:05.052,0.405,-0.22
2021-08-19 06:19:05.056,0.395,-0.235
2021-08-19 06:19:05.060,0.38,-0.245
2021-08-19 06:19:05.064,0.37,-0.265
2021-08-19 06:19:05.068,0.345,-0.255
2021-08-19 06:19:05.072,0.305,-0.265
2021-08-19 06:19:05.076,0.25,-0.28
2021-08-19 06:19:05.080,0.23,-0.29
2021-08-19 06:19:05.084,0.21,-0.31
2021-08-19 06:19:05.088,0.2,-0.34
2021-08-19 06:19:05.092,0.17,-0.335
2021-08-19 06:19:05.096,0.16,-0.37
2021-08-19 06:19:05.100,0.18,-0.4
2021-08-19 06:19:05.104,0.18,-0.455
2021-08-19 06:19:05.108,0.15,-0.495
2021-08-19 06:19:05.112,0.15,-0.525
2021-08-19 06:19:05.116,0.15,-0.54
2021-08-19 06:19:05.120,0.135,-0.55
2021-08-19 06:19:05.124,0.11,-0.555
2021-08-19 06:19:05.128,0.085,-0.54
2021-08-19 06:19:05.132,0.085,-0.525
2021-08-19 06:19:05.136,0.075,-0.5
2021-08-19 06:19:05.140,0.065,-0.45
2021-08-19 06:19:05.144,0.015,-0.415
2021-08-19 06:19:05.148,0.01,-0.36
2021-08-19 06:19:05.152,0.03,-0.36
2021-08-19 06:19:05.156,0.02,-0.335
2021-08-19 06:19:05.160,0.02,-0.315
2021-08-19 06:19:05.164,0.02,-0.295
2021-08-19 06:19:05.168,0.055,-0.255
2021-08-19 06:19:05.172,0.07,-0.22
2021-08-19 06:19:05.176,0.08,-0.205
2021-08-19 06:19:05.180,0.1,-0.19
2021-08-19 06:19:05.184,0.115,-0.175
2021-08-19 06:19:05.188,0.14,-0.17
2021-08-19 06:19:05.192,0.175,-0.16
2021-08-19 06:19:05.196,0.19,-0.17
2021-08-19 06:19:05.200,0.24,-0.14
2021-08-19 06:19:05.204,0.23,-0.105
2021-08-19 06:19:05.208,0.26,-0.085
2021-08-19 06:19:05.212,0.305,-0.05
2021-08-19 06:19:05.216,0.31,-0.03
2021-08-19 06:19:05.220,0.325,0.005
2021-08-19 06:19:05.224,0.365,0.015
2021-08-19 06:19:05.228,0.375,0.03
2021-08-19 06:19:05.232,0.385,0.01
2021-08-19 06:19:05.236,0.385,0.015
2021-08-19 06:19:05.240,0.375,-0.015
2021-08-19 06:19:05.244,0.395,-0.04
2021-08-19 06:19:05.248,0.38,-0.04
2021-08-19 06:19:05.252,0.345,-0.04
2021-08-19 06:19:05.256,0.325,-0.05
2021-08-19 06:19:05.260,0.295,-0.055
2021-08-19 06:19:05.264,0.27,-0.055
2021-08-19 06:19:05.268,0.255,-0.055
2021-08-19 06:19:05.272,0.245,-0.065
2021-08-19 06:19:05.276,0.25,-0.07
2021-08-19 06:19:05.280,0.23,-0.105
2021-08-19 06:19:05.284,0.24,-0.13
2021-08-19 06:19:05.288,0.225,-0.145
2021-08-19 06:19:05.292,0.25,-0.185
2021-08-19 06:19:05.296,0.235,-0.19
2021-08-19 06:19:05.300,0.25,-0.205
2021-08-19 06:19:05.304,0.235,-0.25
2021-08-19 06:19:05.308,0.23,-0.255
2021-08-19 06:19:05.312,0.22,-0.275
2021-08-19 06:19:05.316,0.21,-0.27
2021-08-19 06:19:05.320,0.23,-0.31
2021-08-19 06:19:05.324,0.205,-0.315
2021-08-19 06:19:05.328,0.195,-0.31
2021-08-19 06:19:05.332,0.165,-0.315
2021-08-19 06:19:05.336,0.155,-0.3
2021-08-19 06:19:05.340,0.165,-0.3
2021-08-19 06:19:05.344,0.14,-0.295
2021-08-19 06:19:05.348,0.16,-0.28
2021-08-19 06:19:05.352,0.14,-0.27
2021-08-19 06:19:05.356,0.135,-0.265
2021-08-19 06:19:05.360,0.15,-0.23
2021-08-19 06:19:05.364,0.145,-0.21
