Time,ECG1,ECG2
2021-08-19 05:41:14.924,0.55,-0.3
2021-08-19 05:41:14.928,0.515,-0.32
2021-08-19 05:41:14.932,0.495,-0.31
2021-08-19 05:41:14.936,0.485,-0.315
2021-08-19 05:41:14.940,0.42,-0.32
2021-08-19 05:41:14.944,0.375,-0.315
2021-08-19 05:41:14.948,0.35,-0.29
2021-08-19 05:41:14.952,0.35,-0.29
2021-08-19 05:41:14.956,0.315,-0.26
2021-08-19 05:41:14.960,0.305,-0.275
2021-08-19 05:41:14.964,0.29,-0.245
2021-08-19 05:41:14.968,0.295,-0.245
2021-08-19 05:41:14.972,0.28,-0.22
2021-08-19 05:41:14.976,0.285,-0.22
2021-08-19 05:41:14.980,0.275,-0.235
2021-08-19 05:41:14.984,0.28,-0.23
2021-08-19 05:41:14.988,0.26,-0.22
2021-08-19 05:41:14.992,0.28,-0.23
2021-08-19 05:41:14.996,0.275,-0.23
2021-08-19 05:41:15.000,0.26,-0.24
2021-08-19 05:41:15.004,0.26,-0.235
2021-08-19 05:41:15.008,0.27,-0.24
2021-08-19 05:41:15.012,0.27,-0.245
2021-08-19 05:41:15.016,0.27,-0.26
2021-08-19 05:41:15.020,0.27,-0.255
2021-08-19 05:41:15.024,0.28,-0.265
2021-08-19 05:41:15.028,0.28,-0.26
2021-08-19 05:41:15.032,0.305,-0.255
2021-08-19 05:41:15.036,0.29,-0.29
2021-08-19 05:41:15.040,0.285,-0.27
2021-08-19 05:41:15.044,0.285,-0.27
2021-08-19 05:41:15.048,0.285,-0.285
2021-08-19 05:41:15.052,0.305,-0.24
2021-08-19 05:41:15.056,0.275,-0.24
2021-08-19 05:41:15.060,0.315,-0.22
2021-08-19 05:41:15.064,0.3,-0.195
2021-08-19 05:41:15.068,0.3,-0.185
2021-08-19 05:41:15.072,0.315,-0.195
2021-08-19 05:41:15.076,0.35,-0.16
2021-08-19 05:41:15.080,0.36,-0.15
2021-08-19 05:41:15.084,0.355,-0.17
2021-08-19 05:41:15.088,0.39,-0.155
2021-08-19 05:41:15.092,0.405,-0.125
2021-08-19 05:41:15.096,0.405,-0.105
2021-08-19 05:41:15.100,0.435,-0.085
2021-08-19 05:41:15.104,0.425,-0.07
2021-08-19 05:41:15.108,0.405,-0.07
2021-08-19 05:41:15.112,0.415,-0.035
2021-08-19 05:41:15.116,0.42,-0.05
2021-08-19 05:41:15.120,0.39,-0.055
2021-08-19 05:41:15.124,0.395,-0.065
2021-08-19 05:41:15.128,0.4,-0.07
2021-08-19 05:41:15.132,0.405,-0.075
2021-08-19 05:41:15.136,0.405,-0.135
2021-08-19 05:41:15.140,0.435,-0.115
2021-08-19 05:41:15.144,0.445,-0.135
2021-08-19 05:41:15.148,0.49,-0.12
2021-08-19 05:41:15.152,0.485,-0.12
2021-08-19 05:41:15.156,0.515,-0.14
2021-08-19 05:41:15.160,0.515,-0.14
2021-08-19 05:41:15.164,0.545,-0.145
2021-08-19 05:41:15.168,0.525,-0.135
2021-08-19 05:41:15.172,0.495,-0.13
2021-08-19 05:41:15.176,0.49,-0.115
2021-08-19 05:41:15.180,0.45,-0.075
2021-08-19 05:41:15.184,0.415,0.0
2021-08-19 05:41:15.188,0.33,0.025
2021-08-19 05:41:15.192,0.31,0.13
2021-08-19 05:41:15.196,0.265,0.38
2021-08-19 05:41:15.200,0.3,0.63
2021-08-19 05:41:15.204,0.305,0.755
2021-08-19 05:41:15.208,0.34,0.695
2021-08-19 05:41:15.212,0.31,0.52
2021-08-19 05:41:15.216,0.26,0.25
2021-08-19 05:41:15.220,0.215,-0.105
2021-08-19 05:41:15.224,0.135,-0.485
2021-08-19 05:41:15.228,-0.06,-0.82
2021-08-19 05:41:15.232,-0.36,-0.895
2021-08-19 05:41:15.236,-0.735,-0.585
2021-08-19 05:41:15.240,-1.045,-0.22
2021-08-19 05:41:15.244,-1.275,-0.095
2021-08-19 05:41:15.248,-1.32,-0.225
2021-08-19 05:41:15.252,-1.255,-0.395
2021-08-19 05:41:15.256,-0.95,-0.51
2021-08-19 05:41:15.260,-0.495,-0.635
2021-08-19 05:41:15.264,-0.095,-0.675
2021-08-19 05:41:15.268,0.125,-0.615
2021-08-19 05:41:15.272,0.16,-0.495
2021-08-19 05:41:15.276,0.17,-0.38
2021-08-19 05:41:15.280,0.175,-0.31
2021-08-19 05:41:15.284,0.17,-0.295
2021-08-19 05:41:15.288,0.185,-0.29
2021-08-19 05:41:15.292,0.235,-0.27
2021-08-19 05:41:15.296,0.305,-0.295
2021-08-19 05:41:15.300,0.37,-0.245
2021-08-19 05:41:15.304,0.42,-0.24
2021-08-19 05:41:15.308,0.44,-0.225
2021-08-19 05:41:15.312,0.475,-0.22
2021-08-19 05:41:15.316,0.435,-0.185
2021-08-19 05:41:15.320,0.44,-0.185
2021-08-19 05:41:15.324,0.455,-0.18
2021-08-19 05:41:15.328,0.465,-0.16
2021-08-19 05:41:15.332,0.48,-0.19
2021-08-19 05:41:15.336,0.475,-0.19
2021-08-19 05:41:15.340,0.49,-0.215
2021-08-19 05:41:15.344,0.51,-0.245
2021-08-19 05:41:15.348,0.56,-0.255
2021-08-19 05:41:15.352,0.585,-0.27
2021-08-19 05:41:15.356,0.59,-0.26
2021-08-19 05:41:15.360,0.605,-0.26
2021-08-19 05:41:15.364,0.62,-0.245
2021-08-19 05:41:15.368,0.63,-0.25
2021-08-19 05:41:15.372,0.61,-0.25
2021-08-19 05:41:15.376,0.605,-0.255
2021-08-19 05:41:15.380,0.58,-0.275
2021-08-19 05:41:15.384,0.565,-0.27
2021-08-19 05:41:15.388,0.52,-0.265
2021-08-19 05:41:15.392,0.495,-0.295
2021-08-19 05:41:15.396,0.45,-0.3
2021-08-19 05:41:15.400,0.43,-0.315
2021-08-19 05:41:15.404,0.41,-0.325
2021-08-19 05:41:15.408,0.395,-0.35
2021-08-19 05:41:15.412,0.405,-0.37
2021-08-19 05:41:15.416,0.375,-0.355
2021-08-19 05:41:15.420,0.39,-0.38
2021-08-19 05:41:15.424,0.365,-0.37
2021-08-19 05:41:15.428,0.375,-0.385
2021-08-19 05:41:15.432,0.4,-0.395
2021-08-19 05:41:15.436,0.37,-0.395
2021-08-19 05:41:15.440,0.37,-0.375
2021-08-19 05:41:15.444,0.36,-0.365
2021-08-19 05:41:15.448,0.4,-0.365
2021-08-19 05:41:15.452,0.385,-0.325
2021-08-19 05:41:15.456,0.375,-0.32
2021-08-19 05:41:15.460,0.385,-0.315
2021-08-19 05:41:15.464,0.41,-0.305
2021-08-19 05:41:15.468,0.4,-0.275
2021-08-19 05:41:15.472,0.415,-0.275
2021-08-19 05:41:15.476,0.445,-0.27
2021-08-19 05:41:15.480,0.46,-0.255
2021-08-19 05:41:15.484,0.47,-0.26
2021-08-19 05:41:15.488,0.47,-0.245
2021-08-19 05:41:15.492,0.47,-0.235
2021-08-19 05:41:15.496,0.495,-0.205
2021-08-19 05:41:15.500,0.475,-0.2
2021-08-19 05:41:15.504,0.495,-0.19
2021-08-19 05:41:15.508,0.485,-0.185
2021-08-19 05:41:15.512,0.5,-0.175
2021-08-19 05:41:15.516,0.48,-0.155
2021-08-19 05:41:15.520,0.49,-0.11
2021-08-19 05:41:15.524,0.475,-0.105
2021-08-19 05:41:15.528,0.46,-0.08
2021-08-19 05:41:15.532,0.465,-0.095
2021-08-19 05:41:15.536,0.45,-0.11
2021-08-19 05:41:15.540,0.47,-0.135
2021-08-19 05:41:15.544,0.485,-0.1
2021-08-19 05:41:15.548,0.52,-0.065
2021-08-19 05:41:15.552,0.545,0.02
2021-08-19 05:41:15.556,0.555,0.09
2021-08-19 05:41:15.560,0.545,0.185
2021-08-19 05:41:15.564,0.55,0.28
2021-08-19 05:41:15.568,0.55,0.37
2021-08-19 05:41:15.572,0.56,0.415
2021-08-19 05:41:15.576,0.535,0.4
2021-08-19 05:41:15.580,0.52,0.4
2021-08-19 05:41:15.584,0.495,0.265
2021-08-19 05:41:15.588,0.42,-0.04
2021-08-19 05:41:15.592,0.265,-0.41
2021-08-19 05:41:15.596,0.045,-0.705
2021-08-19 05:41:15.600,-0.25,-0.855
2021-08-19 05:41:15.604,-0.58,-0.87
2021-08-19 05:41:15.608,-0.955,-0.765
2021-08-19 05:41:15.612,-1.255,-0.565
2021-08-19 05:41:15.616,-1.465,-0.33
2021-08-19 05:41:15.620,-1.57,-0.22
2021-08-19 05:41:15.624,-1.515,-0.255
2021-08-19 05:41:15.628,-1.285,-0.4
2021-08-19 05:41:15.632,-0.925,-0.625
2021-08-19 05:41:15.636,-0.5,-0.715
2021-08-19 05:41:15.640,-0.155,-0.695
2021-08-19 05:41:15.644,0.075,-0.615
2021-08-19 05:41:15.648,0.175,-0.49
2021-08-19 05:41:15.652,0.17,-0.365
2021-08-19 05:41:15.656,0.14,-0.315
2021-08-19 05:41:15.660,0.155,-0.305
2021-08-19 05:41:15.664,0.195,-0.28
2021-08-19 05:41:15.668,0.26,-0.285
2021-08-19 05:41:15.672,0.345,-0.28
2021-08-19 05:41:15.676,0.43,-0.27
2021-08-19 05:41:15.680,0.45,-0.26
2021-08-19 05:41:15.684,0.475,-0.28
2021-08-19 05:41:15.688,0.505,-0.27
2021-08-19 05:41:15.692,0.53,-0.26
2021-08-19 05:41:15.696,0.525,-0.275
2021-08-19 05:41:15.700,0.55,-0.25
2021-08-19 05:41:15.704,0.535,-0.275
2021-08-19 05:41:15.708,0.545,-0.265
2021-08-19 05:41:15.712,0.535,-0.26
2021-08-19 05:41:15.716,0.525,-0.25
2021-08-19 05:41:15.720,0.53,-0.26
2021-08-19 05:41:15.724,0.535,-0.265
2021-08-19 05:41:15.728,0.535,-0.26
2021-08-19 05:41:15.732,0.535,-0.22
2021-08-19 05:41:15.736,0.54,-0.2
2021-08-19 05:41:15.740,0.53,-0.23
2021-08-19 05:41:15.744,0.53,-0.225
2021-08-19 05:41:15.748,0.575,-0.23
2021-08-19 05:41:15.752,0.58,-0.235
2021-08-19 05:41:15.756,0.62,-0.245
2021-08-19 05:41:15.760,0.67,-0.245
2021-08-19 05:41:15.764,0.67,-0.26
2021-08-19 05:41:15.768,0.66,-0.24
2021-08-19 05:41:15.772,0.63,-0.225
2021-08-19 05:41:15.776,0.62,-0.255
2021-08-19 05:41:15.780,0.6,-0.265
2021-08-19 05:41:15.784,0.565,-0.3
2021-08-19 05:41:15.788,0.54,-0.3
2021-08-19 05:41:15.792,0.505,-0.305
2021-08-19 05:41:15.796,0.495,-0.295
2021-08-19 05:41:15.800,0.465,-0.32
2021-08-19 05:41:15.804,0.47,-0.34
2021-08-19 05:41:15.808,0.465,-0.34
2021-08-19 05:41:15.812,0.48,-0.325
2021-08-19 05:41:15.816,0.45,-0.36
2021-08-19 05:41:15.820,0.46,-0.345
2021-08-19 05:41:15.824,0.44,-0.325
2021-08-19 05:41:15.828,0.46,-0.33
2021-08-19 05:41:15.832,0.44,-0.315
2021-08-19 05:41:15.836,0.46,-0.305
2021-08-19 05:41:15.840,0.455,-0.31
2021-08-19 05:41:15.844,0.445,-0.3
2021-08-19 05:41:15.848,0.48,-0.29
2021-08-19 05:41:15.852,0.465,-0.265
2021-08-19 05:41:15.856,0.49,-0.27
2021-08-19 05:41:15.860,0.495,-0.255
2021-08-19 05:41:15.864,0.46,-0.225
2021-08-19 05:41:15.868,0.46,-0.225
2021-08-19 05:41:15.872,0.48,-0.2
2021-08-19 05:41:15.876,0.475,-0.18
2021-08-19 05:41:15.880,0.48,-0.175
2021-08-19 05:41:15.884,0.46,-0.16
2021-08-19 05:41:15.888,0.47,-0.145
2021-08-19 05:41:15.892,0.48,-0.16
2021-08-19 05:41:15.896,0.48,-0.18
2021-08-19 05:41:15.900,0.45,-0.165
2021-08-19 05:41:15.904,0.44,-0.185
2021-08-19 05:41:15.908,0.44,-0.2
2021-08-19 05:41:15.912,0.445,-0.23
2021-08-19 05:41:15.916,0.42,-0.215
2021-08-19 05:41:15.920,0.405,-0.23
2021-08-19 05:41:15.924,0.425,-0.24
2021-08-19 05:41:15.928,0.4,-0.24
2021-08-19 05:41:15.932,0.375,-0.245
2021-08-19 05:41:15.936,0.395,-0.22
2021-08-19 05:41:15.940,0.375,-0.235
2021-08-19 05:41:15.944,0.37,-0.24
2021-08-19 05:41:15.948,0.365,-0.235
2021-08-19 05:41:15.952,0.365,-0.2
2021-08-19 05:41:15.956,0.375,-0.205
2021-08-19 05:41:15.960,0.405,-0.215
2021-08-19 05:41:15.964,0.43,-0.215
2021-08-19 05:41:15.968,0.45,-0.235
2021-08-19 05:41:15.972,0.46,-0.23
2021-08-19 05:41:15.976,0.45,-0.235
2021-08-19 05:41:15.980,0.45,-0.245
2021-08-19 05:41:15.984,0.425,-0.265
2021-08-19 05:41:15.988,0.38,-0.285
2021-08-19 05:41:15.992,0.355,-0.285
2021-08-19 05:41:15.996,0.305,-0.31
2021-08-19 05:41:16.000,0.265,-0.345
2021-08-19 05:41:16.004,0.26,-0.345
2021-08-19 05:41:16.008,0.255,-0.36
2021-08-19 05:41:16.012,0.245,-0.355
2021-08-19 05:41:16.016,0.245,-0.38
2021-08-19 05:41:16.020,0.245,-0.375
2021-08-19 05:41:16.024,0.235,-0.375
2021-08-19 05:41:16.028,0.23,-0.38
2021-08-19 05:41:16.032,0.245,-0.38
2021-08-19 05:41:16.036,0.215,-0.405
2021-08-19 05:41:16.040,0.22,-0.395
2021-08-19 05:41:16.044,0.235,-0.395
2021-08-19 05:41:16.048,0.22,-0.39
2021-08-19 05:41:16.052,0.2,-0.4
2021-08-19 05:41:16.056,0.22,-0.405
2021-08-19 05:41:16.060,0.235,-0.41
2021-08-19 05:41:16.064,0.23,-0.405
2021-08-19 05:41:16.068,0.24,-0.37
2021-08-19 05:41:16.072,0.25,-0.35
2021-08-19 05:41:16.076,0.235,-0.33
2021-08-19 05:41:16.080,0.235,-0.305
2021-08-19 05:41:16.084,0.235,-0.295
2021-08-19 05:41:16.088,0.255,-0.285
2021-08-19 05:41:16.092,0.28,-0.27
2021-08-19 05:41:16.096,0.27,-0.275
2021-08-19 05:41:16.100,0.3,-0.26
2021-08-19 05:41:16.104,0.28,-0.265
2021-08-19 05:41:16.108,0.32,-0.26
2021-08-19 05:41:16.112,0.295,-0.26
2021-08-19 05:41:16.116,0.32,-0.275
2021-08-19 05:41:16.120,0.315,-0.29
2021-08-19 05:41:16.124,0.305,-0.295
2021-08-19 05:41:16.128,0.32,-0.32
2021-08-19 05:41:16.132,0.32,-0.33
2021-08-19 05:41:16.136,0.285,-0.34
2021-08-19 05:41:16.140,0.29,-0.335
2021-08-19 05:41:16.144,0.28,-0.33
2021-08-19 05:41:16.148,0.295,-0.325
2021-08-19 05:41:16.152,0.3,-0.3
2021-08-19 05:41:16.156,0.305,-0.275
2021-08-19 05:41:16.160,0.325,-0.255
2021-08-19 05:41:16.164,0.29,-0.26
2021-08-19 05:41:16.168,0.31,-0.25
2021-08-19 05:41:16.172,0.37,-0.235
2021-08-19 05:41:16.176,0.4,-0.26
2021-08-19 05:41:16.180,0.43,-0.255
2021-08-19 05:41:16.184,0.41,-0.28
2021-08-19 05:41:16.188,0.375,-0.315
2021-08-19 05:41:16.192,0.33,-0.335
2021-08-19 05:41:16.196,0.325,-0.36
2021-08-19 05:41:16.200,0.285,-0.38
2021-08-19 05:41:16.204,0.27,-0.405
2021-08-19 05:41:16.208,0.25,-0.42
2021-08-19 05:41:16.212,0.24,-0.435
2021-08-19 05:41:16.216,0.23,-0.43
2021-08-19 05:41:16.220,0.23,-0.44
2021-08-19 05:41:16.224,0.235,-0.435
2021-08-19 05:41:16.228,0.23,-0.44
2021-08-19 05:41:16.232,0.225,-0.445
2021-08-19 05:41:16.236,0.245,-0.445
2021-08-19 05:41:16.240,0.235,-0.435
2021-08-19 05:41:16.244,0.24,-0.45
2021-08-19 05:41:16.248,0.24,-0.41
2021-08-19 05:41:16.252,0.255,-0.455
2021-08-19 05:41:16.256,0.23,-0.455
2021-08-19 05:41:16.260,0.235,-0.445
2021-08-19 05:41:16.264,0.22,-0.43
2021-08-19 05:41:16.268,0.25,-0.425
2021-08-19 05:41:16.272,0.25,-0.44
2021-08-19 05:41:16.276,0.235,-0.41
2021-08-19 05:41:16.280,0.255,-0.4
2021-08-19 05:41:16.284,0.26,-0.395
2021-08-19 05:41:16.288,0.275,-0.385
2021-08-19 05:41:16.292,0.255,-0.38
2021-08-19 05:41:16.296,0.245,-0.335
2021-08-19 05:41:16.300,0.28,-0.325
2021-08-19 05:41:16.304,0.27,-0.31
2021-08-19 05:41:16.308,0.275,-0.315
2021-08-19 05:41:16.312,0.275,-0.29
2021-08-19 05:41:16.316,0.29,-0.295
2021-08-19 05:41:16.320,0.315,-0.29
2021-08-19 05:41:16.324,0.31,-0.295
2021-08-19 05:41:16.328,0.325,-0.305
2021-08-19 05:41:16.332,0.34,-0.32
2021-08-19 05:41:16.336,0.325,-0.305
2021-08-19 05:41:16.340,0.32,-0.31
2021-08-19 05:41:16.344,0.31,-0.335
2021-08-19 05:41:16.348,0.325,-0.285
2021-08-19 05:41:16.352,0.32,-0.215
2021-08-19 05:41:16.356,0.335,-0.185
2021-08-19 05:41:16.360,0.295,-0.15
2021-08-19 05:41:16.364,0.335,-0.07
2021-08-19 05:41:16.368,0.305,0.175
2021-08-19 05:41:16.372,0.33,0.5
2021-08-19 05:41:16.376,0.36,0.725
2021-08-19 05:41:16.380,0.345,0.805
2021-08-19 05:41:16.384,0.305,0.8
2021-08-19 05:41:16.388,0.295,0.665
2021-08-19 05:41:16.392,0.3,0.47
2021-08-19 05:41:16.396,0.285,0.215
2021-08-19 05:41:16.400,0.18,-0.185
2021-08-19 05:41:16.404,-0.045,-0.545
2021-08-19 05:41:16.408,-0.385,-0.52
2021-08-19 05:41:16.412,-0.745,-0.19
2021-08-19 05:41:16.416,-0.97,0.005
2021-08-19 05:41:16.420,-1.075,-0.1
2021-08-19 05:41:16.424,-1.095,-0.36
2021-08-19 05:41:16.428,-0.885,-0.545
2021-08-19 05:41:16.432,-0.49,-0.685
2021-08-19 05:41:16.436,-0.05,-0.73
2021-08-19 05:41:16.440,0.135,-0.725
2021-08-19 05:41:16.444,0.195,-0.62
2021-08-19 05:41:16.448,0.145,-0.555
2021-08-19 05:41:16.452,0.12,-0.52
2021-08-19 05:41:16.456,0.1,-0.52
2021-08-19 05:41:16.460,0.095,-0.515
2021-08-19 05:41:16.464,0.13,-0.54
2021-08-19 05:41:16.468,0.195,-0.525
2021-08-19 05:41:16.472,0.245,-0.51
2021-08-19 05:41:16.476,0.29,-0.505
2021-08-19 05:41:16.480,0.305,-0.525
2021-08-19 05:41:16.484,0.31,-0.525
2021-08-19 05:41:16.488,0.315,-0.5
2021-08-19 05:41:16.492,0.325,-0.5
2021-08-19 05:41:16.496,0.345,-0.48
2021-08-19 05:41:16.500,0.33,-0.475
2021-08-19 05:41:16.504,0.355,-0.465
2021-08-19 05:41:16.508,0.365,-0.45
2021-08-19 05:41:16.512,0.365,-0.44
2021-08-19 05:41:16.516,0.375,-0.44
2021-08-19 05:41:16.520,0.385,-0.425
2021-08-19 05:41:16.524,0.4,-0.41
2021-08-19 05:41:16.528,0.4,-0.42
2021-08-19 05:41:16.532,0.41,-0.39
2021-08-19 05:41:16.536,0.415,-0.405
2021-08-19 05:41:16.540,0.405,-0.405
2021-08-19 05:41:16.544,0.41,-0.42
2021-08-19 05:41:16.548,0.425,-0.42
2021-08-19 05:41:16.552,0.415,-0.405
2021-08-19 05:41:16.556,0.43,-0.425
2021-08-19 05:41:16.560,0.425,-0.44
2021-08-19 05:41:16.564,0.425,-0.455
2021-08-19 05:41:16.568,0.415,-0.455
2021-08-19 05:41:16.572,0.43,-0.43
2021-08-19 05:41:16.576,0.405,-0.42
2021-08-19 05:41:16.580,0.415,-0.42
2021-08-19 05:41:16.584,0.4,-0.4
2021-08-19 05:41:16.588,0.42,-0.355
2021-08-19 05:41:16.592,0.435,-0.355
2021-08-19 05:41:16.596,0.44,-0.375
2021-08-19 05:41:16.600,0.43,-0.36
2021-08-19 05:41:16.604,0.43,-0.385
2021-08-19 05:41:16.608,0.47,-0.375
2021-08-19 05:41:16.612,0.48,-0.39
2021-08-19 05:41:16.616,0.465,-0.395
2021-08-19 05:41:16.620,0.455,-0.405
2021-08-19 05:41:16.624,0.44,-0.43
2021-08-19 05:41:16.628,0.405,-0.43
2021-08-19 05:41:16.632,0.39,-0.445
2021-08-19 05:41:16.636,0.34,-0.475
2021-08-19 05:41:16.640,0.335,-0.475
2021-08-19 05:41:16.644,0.33,-0.485
2021-08-19 05:41:16.648,0.325,-0.475
2021-08-19 05:41:16.652,0.34,-0.475
2021-08-19 05:41:16.656,0.305,-0.485
2021-08-19 05:41:16.660,0.32,-0.485
2021-08-19 05:41:16.664,0.33,-0.46
2021-08-19 05:41:16.668,0.33,-0.45
2021-08-19 05:41:16.672,0.35,-0.475
2021-08-19 05:41:16.676,0.31,-0.475
2021-08-19 05:41:16.680,0.31,-0.475
2021-08-19 05:41:16.684,0.28,-0.495
2021-08-19 05:41:16.688,0.295,-0.48
2021-08-19 05:41:16.692,0.295,-0.465
2021-08-19 05:41:16.696,0.28,-0.445
2021-08-19 05:41:16.700,0.28,-0.42
2021-08-19 05:41:16.704,0.29,-0.4
2021-08-19 05:41:16.708,0.28,-0.36
2021-08-19 05:41:16.712,0.285,-0.335
2021-08-19 05:41:16.716,0.28,-0.305
2021-08-19 05:41:16.720,0.275,-0.29
2021-08-19 05:41:16.724,0.26,-0.285
2021-08-19 05:41:16.728,0.27,-0.285
2021-08-19 05:41:16.732,0.305,-0.265
2021-08-19 05:41:16.736,0.31,-0.245
2021-08-19 05:41:16.740,0.305,-0.235
2021-08-19 05:41:16.744,0.31,-0.235
2021-08-19 05:41:16.748,0.31,-0.2
2021-08-19 05:41:16.752,0.33,-0.2
2021-08-19 05:41:16.756,0.335,-0.195
2021-08-19 05:41:16.760,0.34,-0.2
2021-08-19 05:41:16.764,0.315,-0.2
2021-08-19 05:41:16.768,0.345,-0.23
2021-08-19 05:41:16.772,0.34,-0.235
2021-08-19 05:41:16.776,0.355,-0.245
2021-08-19 05:41:16.780,0.35,-0.23
2021-08-19 05:41:16.784,0.345,-0.205
2021-08-19 05:41:16.788,0.325,-0.18
2021-08-19 05:41:16.792,0.345,-0.18
2021-08-19 05:41:16.796,0.36,-0.175
2021-08-19 05:41:16.800,0.375,-0.18
2021-08-19 05:41:16.804,0.365,-0.175
2021-08-19 05:41:16.808,0.385,-0.175
2021-08-19 05:41:16.812,0.385,-0.165
2021-08-19 05:41:16.816,0.395,-0.16
2021-08-19 05:41:16.820,0.375,-0.155
2021-08-19 05:41:16.824,0.385,-0.18
2021-08-19 05:41:16.828,0.405,-0.18
2021-08-19 05:41:16.832,0.36,-0.195
2021-08-19 05:41:16.836,0.32,-0.205
2021-08-19 05:41:16.840,0.315,-0.22
2021-08-19 05:41:16.844,0.275,-0.22
2021-08-19 05:41:16.848,0.27,-0.23
2021-08-19 05:41:16.852,0.275,-0.23
2021-08-19 05:41:16.856,0.255,-0.245
2021-08-19 05:41:16.860,0.27,-0.215
2021-08-19 05:41:16.864,0.255,-0.155
2021-08-19 05:41:16.868,0.25,-0.1
2021-08-19 05:41:16.872,0.22,-0.065
2021-08-19 05:41:16.876,0.23,0.005
2021-08-19 05:41:16.880,0.235,0.105
2021-08-19 05:41:16.884,0.26,0.215
2021-08-19 05:41:16.888,0.31,0.3
2021-08-19 05:41:16.892,0.325,0.22
2021-08-19 05:41:16.896,0.295,0.0
2021-08-19 05:41:16.900,0.21,-0.28
2021-08-19 05:41:16.904,0.13,-0.6
2021-08-19 05:41:16.908,0.08,-0.875
2021-08-19 05:41:16.912,0.005,-1.18
2021-08-19 05:41:16.916,-0.1,-1.38
2021-08-19 05:41:16.920,-0.21,-1.29
2021-08-19 05:41:16.924,-0.285,-1.03
2021-08-19 05:41:16.928,-0.32,-0.84
2021-08-19 05:41:16.932,-0.33,-0.895
2021-08-19 05:41:16.936,-0.26,-1.015
2021-08-19 05:41:16.940,-0.055,-1.14
2021-08-19 05:41:16.944,0.33,-1.19
2021-08-19 05:41:16.948,0.715,-1.165
2021-08-19 05:41:16.952,0.915,-1.06
2021-08-19 05:41:16.956,0.91,-0.91
2021-08-19 05:41:16.960,0.84,-0.765
2021-08-19 05:41:16.964,0.84,-0.68
2021-08-19 05:41:16.968,0.87,-0.645
2021-08-19 05:41:16.972,0.925,-0.605
2021-08-19 05:41:16.976,1.01,-0.55
2021-08-19 05:41:16.980,1.07,-0.53
2021-08-19 05:41:16.984,1.12,-0.54
2021-08-19 05:41:16.988,1.16,-0.545
2021-08-19 05:41:16.992,1.15,-0.565
2021-08-19 05:41:16.996,1.135,-0.57
2021-08-19 05:41:17.000,1.09,-0.475
2021-08-19 05:41:17.004,1.04,-0.36
2021-08-19 05:41:17.008,0.96,-0.33
2021-08-19 05:41:17.012,0.86,-0.31
2021-08-19 05:41:17.016,0.725,-0.305
2021-08-19 05:41:17.020,0.58,-0.27
2021-08-19 05:41:17.024,0.425,-0.28
2021-08-19 05:41:17.028,0.33,-0.29
2021-08-19 05:41:17.032,0.235,-0.285
2021-08-19 05:41:17.036,0.205,-0.315
2021-08-19 05:41:17.040,0.16,-0.335
2021-08-19 05:41:17.044,0.135,-0.32
2021-08-19 05:41:17.048,0.13,-0.35
2021-08-19 05:41:17.052,0.125,-0.355
2021-08-19 05:41:17.056,0.095,-0.35
2021-08-19 05:41:17.060,0.105,-0.34
2021-08-19 05:41:17.064,0.08,-0.35
2021-08-19 05:41:17.068,0.07,-0.35
2021-08-19 05:41:17.072,0.08,-0.365
2021-08-19 05:41:17.076,0.095,-0.365
2021-08-19 05:41:17.080,0.065,-0.365
2021-08-19 05:41:17.084,0.07,-0.375
2021-08-19 05:41:17.088,0.08,-0.395
2021-08-19 05:41:17.092,0.055,-0.395
2021-08-19 05:41:17.096,0.05,-0.395
2021-08-19 05:41:17.100,0.015,-0.37
2021-08-19 05:41:17.104,0.025,-0.395
2021-08-19 05:41:17.108,0.025,-0.4
2021-08-19 05:41:17.112,0.035,-0.4
2021-08-19 05:41:17.116,0.03,-0.415
2021-08-19 05:41:17.120,0.01,-0.385
2021-08-19 05:41:17.124,0.01,-0.385
2021-08-19 05:41:17.128,0.02,-0.405
2021-08-19 05:41:17.132,0.015,-0.385
2021-08-19 05:41:17.136,0.0,-0.385
2021-08-19 05:41:17.140,0.01,-0.355
2021-08-19 05:41:17.144,0.0,-0.34
2021-08-19 05:41:17.148,0.015,-0.32
2021-08-19 05:41:17.152,0.0,-0.3
2021-08-19 05:41:17.156,-0.005,-0.295
2021-08-19 05:41:17.160,0.0,-0.28
2021-08-19 05:41:17.164,-0.005,-0.26
2021-08-19 05:41:17.168,0.005,-0.22
2021-08-19 05:41:17.172,0.005,-0.18
2021-08-19 05:41:17.176,0.0,-0.175
2021-08-19 05:41:17.180,0.0,-0.135
2021-08-19 05:41:17.184,-0.005,-0.105
2021-08-19 05:41:17.188,0.025,-0.09
2021-08-19 05:41:17.192,0.02,-0.105
2021-08-19 05:41:17.196,0.005,-0.095
2021-08-19 05:41:17.200,0.03,-0.08
2021-08-19 05:41:17.204,0.03,-0.1
2021-08-19 05:41:17.208,0.01,-0.1
2021-08-19 05:41:17.212,0.0,-0.07
2021-08-19 05:41:17.216,0.0,-0.09
2021-08-19 05:41:17.220,0.02,-0.095
2021-08-19 05:41:17.224,0.005,-0.04
2021-08-19 05:41:17.228,0.01,-0.025
2021-08-19 05:41:17.232,0.0,-0.035
2021-08-19 05:41:17.236,0.03,-0.005
2021-08-19 05:41:17.240,0.065,0.015
2021-08-19 05:41:17.244,0.085,0.005
2021-08-19 05:41:17.248,0.115,-0.02
2021-08-19 05:41:17.252,0.13,-0.045
2021-08-19 05:41:17.256,0.135,-0.075
2021-08-19 05:41:17.260,0.11,-0.125
2021-08-19 05:41:17.264,0.11,-0.15
2021-08-19 05:41:17.268,0.08,-0.175
2021-08-19 05:41:17.272,0.065,-0.21
2021-08-19 05:41:17.276,0.085,-0.23
2021-08-19 05:41:17.280,0.08,-0.24
2021-08-19 05:41:17.284,0.07,-0.275
2021-08-19 05:41:17.288,0.1,-0.3
2021-08-19 05:41:17.292,0.095,-0.285
2021-08-19 05:41:17.296,0.135,-0.29
2021-08-19 05:41:17.300,0.14,-0.31
2021-08-19 05:41:17.304,0.145,-0.29
2021-08-19 05:41:17.308,0.155,-0.315
2021-08-19 05:41:17.312,0.165,-0.325
2021-08-19 05:41:17.316,0.175,-0.34
2021-08-19 05:41:17.320,0.195,-0.355
2021-08-19 05:41:17.324,0.19,-0.365
2021-08-19 05:41:17.328,0.215,-0.36
2021-08-19 05:41:17.332,0.215,-0.395
2021-08-19 05:41:17.336,0.24,-0.4
2021-08-19 05:41:17.340,0.215,-0.405
2021-08-19 05:41:17.344,0.24,-0.425
2021-08-19 05:41:17.348,0.215,-0.42
2021-08-19 05:41:17.352,0.24,-0.43
2021-08-19 05:41:17.356,0.225,-0.405
2021-08-19 05:41:17.360,0.255,-0.41
2021-08-19 05:41:17.364,0.255,-0.425
2021-08-19 05:41:17.368,0.225,-0.4
2021-08-19 05:41:17.372,0.215,-0.395
2021-08-19 05:41:17.376,0.225,-0.375
2021-08-19 05:41:17.380,0.22,-0.32
2021-08-19 05:41:17.384,0.24,-0.295
2021-08-19 05:41:17.388,0.215,-0.305
2021-08-19 05:41:17.392,0.22,-0.265
2021-08-19 05:41:17.396,0.245,-0.285
2021-08-19 05:41:17.400,0.245,-0.295
2021-08-19 05:41:17.404,0.255,-0.25
2021-08-19 05:41:17.408,0.29,-0.28
2021-08-19 05:41:17.412,0.305,-0.285
2021-08-19 05:41:17.416,0.285,-0.285
2021-08-19 05:41:17.420,0.28,-0.295
2021-08-19 05:41:17.424,0.31,-0.27
2021-08-19 05:41:17.428,0.315,-0.31
2021-08-19 05:41:17.432,0.31,-0.31
2021-08-19 05:41:17.436,0.335,-0.305
2021-08-19 05:41:17.440,0.34,-0.28
2021-08-19 05:41:17.444,0.35,-0.23
2021-08-19 05:41:17.448,0.365,-0.2
2021-08-19 05:41:17.452,0.355,-0.19
2021-08-19 05:41:17.456,0.39,-0.2
2021-08-19 05:41:17.460,0.4,-0.22
2021-08-19 05:41:17.464,0.4,-0.22
2021-08-19 05:41:17.468,0.385,-0.22
2021-08-19 05:41:17.472,0.365,-0.235
2021-08-19 05:41:17.476,0.34,-0.25
2021-08-19 05:41:17.480,0.33,-0.27
2021-08-19 05:41:17.484,0.33,-0.28
2021-08-19 05:41:17.488,0.325,-0.295
2021-08-19 05:41:17.492,0.31,-0.305
2021-08-19 05:41:17.496,0.305,-0.35
2021-08-19 05:41:17.500,0.31,-0.345
2021-08-19 05:41:17.504,0.305,-0.35
2021-08-19 05:41:17.508,0.29,-0.365
2021-08-19 05:41:17.512,0.295,-0.39
2021-08-19 05:41:17.516,0.3,-0.39
2021-08-19 05:41:17.520,0.275,-0.39
2021-08-19 05:41:17.524,0.285,-0.405
2021-08-19 05:41:17.528,0.29,-0.39
2021-08-19 05:41:17.532,0.28,-0.415
2021-08-19 05:41:17.536,0.295,-0.415
2021-08-19 05:41:17.540,0.255,-0.42
2021-08-19 05:41:17.544,0.27,-0.455
2021-08-19 05:41:17.548,0.28,-0.465
2021-08-19 05:41:17.552,0.255,-0.465
2021-08-19 05:41:17.556,0.265,-0.46
2021-08-19 05:41:17.560,0.275,-0.445
2021-08-19 05:41:17.564,0.265,-0.415
2021-08-19 05:41:17.568,0.25,-0.335
2021-08-19 05:41:17.572,0.25,-0.3
2021-08-19 05:41:17.576,0.245,-0.235
2021-08-19 05:41:17.580,0.235,-0.08
2021-08-19 05:41:17.584,0.245,0.195
2021-08-19 05:41:17.588,0.275,0.51
2021-08-19 05:41:17.592,0.315,0.72
2021-08-19 05:41:17.596,0.285,0.815
2021-08-19 05:41:17.600,0.245,0.795
2021-08-19 05:41:17.604,0.195,0.72
2021-08-19 05:41:17.608,0.185,0.525
2021-08-19 05:41:17.612,0.14,0.18
2021-08-19 05:41:17.616,0.015,-0.265
2021-08-19 05:41:17.620,-0.225,-0.545
2021-08-19 05:41:17.624,-0.55,-0.455
2021-08-19 05:41:17.628,-0.81,-0.12
2021-08-19 05:41:17.632,-0.96,0.01
2021-08-19 05:41:17.636,-1.06,-0.145
2021-08-19 05:41:17.640,-0.99,-0.39
2021-08-19 05:41:17.644,-0.71,-0.57
2021-08-19 05:41:17.648,-0.27,-0.655
2021-08-19 05:41:17.652,0.065,-0.725
2021-08-19 05:41:17.656,0.22,-0.65
2021-08-19 05:41:17.660,0.24,-0.545
2021-08-19 05:41:17.664,0.235,-0.415
2021-08-19 05:41:17.668,0.255,-0.37
2021-08-19 05:41:17.672,0.28,-0.355
2021-08-19 05:41:17.676,0.26,-0.33
2021-08-19 05:41:17.680,0.31,-0.335
2021-08-19 05:41:17.684,0.345,-0.31
2021-08-19 05:41:17.688,0.38,-0.295
2021-08-19 05:41:17.692,0.385,-0.335
2021-08-19 05:41:17.696,0.355,-0.345
2021-08-19 05:41:17.700,0.325,-0.375
2021-08-19 05:41:17.704,0.335,-0.38
2021-08-19 05:41:17.708,0.355,-0.39
2021-08-19 05:41:17.712,0.395,-0.4
2021-08-19 05:41:17.716,0.39,-0.42
2021-08-19 05:41:17.720,0.395,-0.45
2021-08-19 05:41:17.724,0.39,-0.45
2021-08-19 05:41:17.728,0.405,-0.48
2021-08-19 05:41:17.732,0.405,-0.47
2021-08-19 05:41:17.736,0.39,-0.495
2021-08-19 05:41:17.740,0.38,-0.51
2021-08-19 05:41:17.744,0.375,-0.525
2021-08-19 05:41:17.748,0.385,-0.54
2021-08-19 05:41:17.752,0.385,-0.53
2021-08-19 05:41:17.756,0.375,-0.555
2021-08-19 05:41:17.760,0.4,-0.565
2021-08-19 05:41:17.764,0.365,-0.575
2021-08-19 05:41:17.768,0.365,-0.59
2021-08-19 05:41:17.772,0.355,-0.59
2021-08-19 05:41:17.776,0.37,-0.58
2021-08-19 05:41:17.780,0.35,-0.62
2021-08-19 05:41:17.784,0.36,-0.62
2021-08-19 05:41:17.788,0.345,-0.615
2021-08-19 05:41:17.792,0.335,-0.615
2021-08-19 05:41:17.796,0.335,-0.615
2021-08-19 05:41:17.800,0.3,-0.625
2021-08-19 05:41:17.804,0.305,-0.605
2021-08-19 05:41:17.808,0.305,-0.58
2021-08-19 05:41:17.812,0.32,-0.575
2021-08-19 05:41:17.816,0.335,-0.57
2021-08-19 05:41:17.820,0.325,-0.555
2021-08-19 05:41:17.824,0.34,-0.555
2021-08-19 05:41:17.828,0.365,-0.535
2021-08-19 05:41:17.832,0.355,-0.54
2021-08-19 05:41:17.836,0.345,-0.545
2021-08-19 05:41:17.840,0.345,-0.53
2021-08-19 05:41:17.844,0.36,-0.54
2021-08-19 05:41:17.848,0.375,-0.525
2021-08-19 05:41:17.852,0.39,-0.53
2021-08-19 05:41:17.856,0.37,-0.535
2021-08-19 05:41:17.860,0.365,-0.535
2021-08-19 05:41:17.864,0.385,-0.535
2021-08-19 05:41:17.868,0.39,-0.505
2021-08-19 05:41:17.872,0.4,-0.49
2021-08-19 05:41:17.876,0.395,-0.505
2021-08-19 05:41:17.880,0.41,-0.465
2021-08-19 05:41:17.884,0.405,-0.435
2021-08-19 05:41:17.888,0.41,-0.395
2021-08-19 05:41:17.892,0.405,-0.335
2021-08-19 05:41:17.896,0.44,-0.29
2021-08-19 05:41:17.900,0.435,-0.265
2021-08-19 05:41:17.904,0.475,-0.23
2021-08-19 05:41:17.908,0.475,-0.225
2021-08-19 05:41:17.912,0.47,-0.235
2021-08-19 05:41:17.916,0.455,-0.225
2021-08-19 05:41:17.920,0.45,-0.205
2021-08-19 05:41:17.924,0.42,-0.23
2021-08-19 05:41:17.928,0.355,-0.23
2021-08-19 05:41:17.932,0.315,-0.25
2021-08-19 05:41:17.936,0.315,-0.275
2021-08-19 05:41:17.940,0.3,-0.29
2021-08-19 05:41:17.944,0.3,-0.325
2021-08-19 05:41:17.948,0.31,-0.32
2021-08-19 05:41:17.952,0.3,-0.325
2021-08-19 05:41:17.956,0.325,-0.34
2021-08-19 05:41:17.960,0.325,-0.335
2021-08-19 05:41:17.964,0.32,-0.345
2021-08-19 05:41:17.968,0.31,-0.345
2021-08-19 05:41:17.972,0.295,-0.35
2021-08-19 05:41:17.976,0.3,-0.355
2021-08-19 05:41:17.980,0.305,-0.375
2021-08-19 05:41:17.984,0.31,-0.37
2021-08-19 05:41:17.988,0.31,-0.35
2021-08-19 05:41:17.992,0.31,-0.34
2021-08-19 05:41:17.996,0.295,-0.355
2021-08-19 05:41:18.000,0.3,-0.375
2021-08-19 05:41:18.004,0.3,-0.365
2021-08-19 05:41:18.008,0.28,-0.37
2021-08-19 05:41:18.012,0.275,-0.345
2021-08-19 05:41:18.016,0.31,-0.345
2021-08-19 05:41:18.020,0.275,-0.355
2021-08-19 05:41:18.024,0.28,-0.34
2021-08-19 05:41:18.028,0.285,-0.32
2021-08-19 05:41:18.032,0.285,-0.34
2021-08-19 05:41:18.036,0.295,-0.335
2021-08-19 05:41:18.040,0.3,-0.34
2021-08-19 05:41:18.044,0.31,-0.345
2021-08-19 05:41:18.048,0.315,-0.335
2021-08-19 05:41:18.052,0.33,-0.345
2021-08-19 05:41:18.056,0.315,-0.315
2021-08-19 05:41:18.060,0.325,-0.33
2021-08-19 05:41:18.064,0.32,-0.32
2021-08-19 05:41:18.068,0.36,-0.32
2021-08-19 05:41:18.072,0.34,-0.335
2021-08-19 05:41:18.076,0.34,-0.32
2021-08-19 05:41:18.080,0.35,-0.32
2021-08-19 05:41:18.084,0.345,-0.32
2021-08-19 05:41:18.088,0.34,-0.355
2021-08-19 05:41:18.092,0.365,-0.345
2021-08-19 05:41:18.096,0.375,-0.36
2021-08-19 05:41:18.100,0.355,-0.36
2021-08-19 05:41:18.104,0.355,-0.335
2021-08-19 05:41:18.108,0.33,-0.34
2021-08-19 05:41:18.112,0.355,-0.29
2021-08-19 05:41:18.116,0.38,-0.255
2021-08-19 05:41:18.120,0.4,-0.22
2021-08-19 05:41:18.124,0.425,-0.225
2021-08-19 05:41:18.128,0.415,-0.215
2021-08-19 05:41:18.132,0.42,-0.23
2021-08-19 05:41:18.136,0.395,-0.21
2021-08-19 05:41:18.140,0.375,-0.21
2021-08-19 05:41:18.144,0.36,-0.195
2021-08-19 05:41:18.148,0.295,-0.195
2021-08-19 05:41:18.152,0.235,-0.23
2021-08-19 05:41:18.156,0.245,-0.26
2021-08-19 05:41:18.160,0.235,-0.27
2021-08-19 05:41:18.164,0.24,-0.3
2021-08-19 05:41:18.168,0.255,-0.315
2021-08-19 05:41:18.172,0.285,-0.33
2021-08-19 05:41:18.176,0.315,-0.35
2021-08-19 05:41:18.180,0.31,-0.36
2021-08-19 05:41:18.184,0.3,-0.335
2021-08-19 05:41:18.188,0.315,-0.35
2021-08-19 05:41:18.192,0.32,-0.385
2021-08-19 05:41:18.196,0.3,-0.38
2021-08-19 05:41:18.200,0.295,-0.37
2021-08-19 05:41:18.204,0.28,-0.36
2021-08-19 05:41:18.208,0.29,-0.34
2021-08-19 05:41:18.212,0.27,-0.34
2021-08-19 05:41:18.216,0.28,-0.33
2021-08-19 05:41:18.220,0.27,-0.35
2021-08-19 05:41:18.224,0.26,-0.35
2021-08-19 05:41:18.228,0.265,-0.335
2021-08-19 05:41:18.232,0.265,-0.335
2021-08-19 05:41:18.236,0.29,-0.34
2021-08-19 05:41:18.240,0.25,-0.34
2021-08-19 05:41:18.244,0.265,-0.34
2021-08-19 05:41:18.248,0.245,-0.335
2021-08-19 05:41:18.252,0.255,-0.315
2021-08-19 05:41:18.256,0.295,-0.345
2021-08-19 05:41:18.260,0.27,-0.34
2021-08-19 05:41:18.264,0.27,-0.345
2021-08-19 05:41:18.268,0.275,-0.32
2021-08-19 05:41:18.272,0.28,-0.32
2021-08-19 05:41:18.276,0.29,-0.345
2021-08-19 05:41:18.280,0.295,-0.35
2021-08-19 05:41:18.284,0.295,-0.335
2021-08-19 05:41:18.288,0.315,-0.345
2021-08-19 05:41:18.292,0.305,-0.335
2021-08-19 05:41:18.296,0.33,-0.33
2021-08-19 05:41:18.300,0.335,-0.335
2021-08-19 05:41:18.304,0.34,-0.325
2021-08-19 05:41:18.308,0.325,-0.335
2021-08-19 05:41:18.312,0.335,-0.35
2021-08-19 05:41:18.316,0.335,-0.34
2021-08-19 05:41:18.320,0.335,-0.33
2021-08-19 05:41:18.324,0.345,-0.305
2021-08-19 05:41:18.328,0.345,-0.3
2021-08-19 05:41:18.332,0.36,-0.265
2021-08-19 05:41:18.336,0.375,-0.235
2021-08-19 05:41:18.340,0.415,-0.225
2021-08-19 05:41:18.344,0.41,-0.225
2021-08-19 05:41:18.348,0.405,-0.24
2021-08-19 05:41:18.352,0.43,-0.235
2021-08-19 05:41:18.356,0.425,-0.265
2021-08-19 05:41:18.360,0.41,-0.28
2021-08-19 05:41:18.364,0.375,-0.28
2021-08-19 05:41:18.368,0.34,-0.275
2021-08-19 05:41:18.372,0.3,-0.24
2021-08-19 05:41:18.376,0.265,-0.19
2021-08-19 05:41:18.380,0.235,-0.155
2021-08-19 05:41:18.384,0.24,-0.145
2021-08-19 05:41:18.388,0.24,-0.05
2021-08-19 05:41:18.392,0.27,0.165
2021-08-19 05:41:18.396,0.315,0.475
2021-08-19 05:41:18.400,0.355,0.715
2021-08-19 05:41:18.404,0.34,0.8
2021-08-19 05:41:18.408,0.29,0.72
2021-08-19 05:41:18.412,0.25,0.59
2021-08-19 05:41:18.416,0.235,0.37
2021-08-19 05:41:18.420,0.205,0.04
2021-08-19 05:41:18.424,0.09,-0.37
2021-08-19 05:41:18.428,-0.1,-0.74
2021-08-19 05:41:18.432,-0.42,-0.79
2021-08-19 05:41:18.436,-0.775,-0.415
2021-08-19 05:41:18.440,-1.005,-0.055
2021-08-19 05:41:18.444,-1.16,-0.065
2021-08-19 05:41:18.448,-1.15,-0.29
2021-08-19 05:41:18.452,-1.025,-0.525
2021-08-19 05:41:18.456,-0.63,-0.68
2021-08-19 05:41:18.460,-0.12,-0.775
2021-08-19 05:41:18.464,0.13,-0.765
2021-08-19 05:41:18.468,0.195,-0.68
2021-08-19 05:41:18.472,0.175,-0.57
2021-08-19 05:41:18.476,0.15,-0.5
2021-08-19 05:41:18.480,0.13,-0.495
2021-08-19 05:41:18.484,0.135,-0.475
2021-08-19 05:41:18.488,0.17,-0.47
2021-08-19 05:41:18.492,0.21,-0.465
2021-08-19 05:41:18.496,0.275,-0.475
2021-08-19 05:41:18.500,0.335,-0.46
2021-08-19 05:41:18.504,0.35,-0.48
2021-08-19 05:41:18.508,0.385,-0.47
2021-08-19 05:41:18.512,0.395,-0.46
2021-08-19 05:41:18.516,0.385,-0.455
2021-08-19 05:41:18.520,0.42,-0.45
2021-08-19 05:41:18.524,0.415,-0.455
2021-08-19 05:41:18.528,0.445,-0.44
2021-08-19 05:41:18.532,0.435,-0.44
2021-08-19 05:41:18.536,0.46,-0.445
2021-08-19 05:41:18.540,0.445,-0.475
2021-08-19 05:41:18.544,0.455,-0.47
2021-08-19 05:41:18.548,0.46,-0.465
2021-08-19 05:41:18.552,0.475,-0.46
2021-08-19 05:41:18.556,0.5,-0.425
2021-08-19 05:41:18.560,0.5,-0.405
2021-08-19 05:41:18.564,0.5,-0.365
2021-08-19 05:41:18.568,0.5,-0.38
2021-08-19 05:41:18.572,0.48,-0.39
2021-08-19 05:41:18.576,0.46,-0.38
2021-08-19 05:41:18.580,0.415,-0.39
2021-08-19 05:41:18.584,0.41,-0.37
2021-08-19 05:41:18.588,0.4,-0.375
2021-08-19 05:41:18.592,0.37,-0.365
2021-08-19 05:41:18.596,0.33,-0.36
2021-08-19 05:41:18.600,0.355,-0.365
2021-08-19 05:41:18.604,0.365,-0.385
2021-08-19 05:41:18.608,0.345,-0.385
2021-08-19 05:41:18.612,0.365,-0.38
2021-08-19 05:41:18.616,0.38,-0.4
2021-08-19 05:41:18.620,0.41,-0.4
2021-08-19 05:41:18.624,0.4,-0.4
2021-08-19 05:41:18.628,0.39,-0.405
2021-08-19 05:41:18.632,0.385,-0.405
2021-08-19 05:41:18.636,0.4,-0.41
2021-08-19 05:41:18.640,0.405,-0.38
2021-08-19 05:41:18.644,0.4,-0.425
2021-08-19 05:41:18.648,0.385,-0.405
2021-08-19 05:41:18.652,0.405,-0.4
2021-08-19 05:41:18.656,0.375,-0.39
2021-08-19 05:41:18.660,0.4,-0.405
2021-08-19 05:41:18.664,0.39,-0.385
2021-08-19 05:41:18.668,0.405,-0.385
2021-08-19 05:41:18.672,0.41,-0.38
2021-08-19 05:41:18.676,0.39,-0.38
2021-08-19 05:41:18.680,0.39,-0.35
2021-08-19 05:41:18.684,0.4,-0.39
2021-08-19 05:41:18.688,0.42,-0.395
2021-08-19 05:41:18.692,0.415,-0.395
2021-08-19 05:41:18.696,0.415,-0.385
2021-08-19 05:41:18.700,0.405,-0.395
2021-08-19 05:41:18.704,0.43,-0.365
2021-08-19 05:41:18.708,0.415,-0.345
2021-08-19 05:41:18.712,0.405,-0.345
2021-08-19 05:41:18.716,0.38,-0.35
2021-08-19 05:41:18.720,0.375,-0.325
2021-08-19 05:41:18.724,0.39,-0.325
2021-08-19 05:41:18.728,0.39,-0.305
2021-08-19 05:41:18.732,0.405,-0.305
2021-08-19 05:41:18.736,0.37,-0.295
2021-08-19 05:41:18.740,0.385,-0.265
2021-08-19 05:41:18.744,0.38,-0.245
2021-08-19 05:41:18.748,0.37,-0.27
2021-08-19 05:41:18.752,0.365,-0.245
2021-08-19 05:41:18.756,0.355,-0.25
2021-08-19 05:41:18.760,0.38,-0.245
2021-08-19 05:41:18.764,0.37,-0.255
2021-08-19 05:41:18.768,0.37,-0.27
2021-08-19 05:41:18.772,0.385,-0.26
2021-08-19 05:41:18.776,0.39,-0.26
2021-08-19 05:41:18.780,0.4,-0.235
2021-08-19 05:41:18.784,0.375,-0.255
2021-08-19 05:41:18.788,0.395,-0.25
2021-08-19 05:41:18.792,0.4,-0.245
2021-08-19 05:41:18.796,0.405,-0.25
2021-08-19 05:41:18.800,0.42,-0.27
2021-08-19 05:41:18.804,0.43,-0.265
2021-08-19 05:41:18.808,0.4,-0.26
2021-08-19 05:41:18.812,0.405,-0.265
2021-08-19 05:41:18.816,0.355,-0.28
2021-08-19 05:41:18.820,0.33,-0.29
2021-08-19 05:41:18.824,0.31,-0.295
2021-08-19 05:41:18.828,0.265,-0.27
2021-08-19 05:41:18.832,0.26,-0.285
2021-08-19 05:41:18.836,0.265,-0.285
2021-08-19 05:41:18.840,0.275,-0.28
2021-08-19 05:41:18.844,0.285,-0.275
2021-08-19 05:41:18.848,0.275,-0.27
2021-08-19 05:41:18.852,0.28,-0.275
2021-08-19 05:41:18.856,0.275,-0.215
2021-08-19 05:41:18.860,0.29,-0.185
2021-08-19 05:41:18.864,0.305,-0.115
2021-08-19 05:41:18.868,0.285,-0.04
2021-08-19 05:41:18.872,0.295,0.005
2021-08-19 05:41:18.876,0.315,0.095
2021-08-19 05:41:18.880,0.325,0.195
2021-08-19 05:41:18.884,0.37,0.255
2021-08-19 05:41:18.888,0.385,0.22
2021-08-19 05:41:18.892,0.36,0.035
2021-08-19 05:41:18.896,0.28,-0.245
2021-08-19 05:41:18.900,0.205,-0.53
2021-08-19 05:41:18.904,0.145,-0.78
2021-08-19 05:41:18.908,0.08,-1.02
2021-08-19 05:41:18.912,0.015,-1.26
2021-08-19 05:41:18.916,-0.1,-1.305
2021-08-19 05:41:18.920,-0.175,-1.08
2021-08-19 05:41:18.924,-0.225,-0.905
2021-08-19 05:41:18.928,-0.225,-0.91
2021-08-19 05:41:18.932,-0.185,-1.065
2021-08-19 05:41:18.936,-0.02,-1.2
2021-08-19 05:41:18.940,0.315,-1.305
2021-08-19 05:41:18.944,0.745,-1.36
2021-08-19 05:41:18.948,1.0,-1.31
2021-08-19 05:41:18.952,1.05,-1.14
2021-08-19 05:41:18.956,0.98,-0.98
2021-08-19 05:41:18.960,0.9,-0.82
2021-08-19 05:41:18.964,0.88,-0.73
2021-08-19 05:41:18.968,0.91,-0.67
2021-08-19 05:41:18.972,0.915,-0.605
2021-08-19 05:41:18.976,1.01,-0.6
2021-08-19 05:41:18.980,1.065,-0.565
2021-08-19 05:41:18.984,1.12,-0.535
2021-08-19 05:41:18.988,1.145,-0.51
2021-08-19 05:41:18.992,1.15,-0.465
2021-08-19 05:41:18.996,1.115,-0.38
2021-08-19 05:41:19.000,1.05,-0.305
2021-08-19 05:41:19.004,0.97,-0.275
2021-08-19 05:41:19.008,0.845,-0.235
2021-08-19 05:41:19.012,0.655,-0.22
2021-08-19 05:41:19.016,0.495,-0.205
2021-08-19 05:41:19.020,0.36,-0.18
2021-08-19 05:41:19.024,0.305,-0.16
2021-08-19 05:41:19.028,0.29,-0.145
2021-08-19 05:41:19.032,0.3,-0.15
2021-08-19 05:41:19.036,0.265,-0.155
2021-08-19 05:41:19.040,0.245,-0.155
2021-08-19 05:41:19.044,0.215,-0.18
2021-08-19 05:41:19.048,0.205,-0.18
2021-08-19 05:41:19.052,0.19,-0.18
2021-08-19 05:41:19.056,0.155,-0.22
2021-08-19 05:41:19.060,0.14,-0.205
2021-08-19 05:41:19.064,0.105,-0.205
2021-08-19 05:41:19.068,0.095,-0.23
2021-08-19 05:41:19.072,0.095,-0.24
2021-08-19 05:41:19.076,0.115,-0.265
2021-08-19 05:41:19.080,0.085,-0.255
2021-08-19 05:41:19.084,0.1,-0.26
2021-08-19 05:41:19.088,0.095,-0.255
2021-08-19 05:41:19.092,0.1,-0.27
2021-08-19 05:41:19.096,0.09,-0.275
2021-08-19 05:41:19.100,0.11,-0.255
2021-08-19 05:41:19.104,0.095,-0.26
2021-08-19 05:41:19.108,0.085,-0.27
2021-08-19 05:41:19.112,0.08,-0.24
2021-08-19 05:41:19.116,0.09,-0.215
2021-08-19 05:41:19.120,0.07,-0.23
2021-08-19 05:41:19.124,0.08,-0.25
2021-08-19 05:41:19.128,0.08,-0.24
2021-08-19 05:41:19.132,0.09,-0.245
2021-08-19 05:41:19.136,0.1,-0.24
2021-08-19 05:41:19.140,0.085,-0.25
2021-08-19 05:41:19.144,0.095,-0.25
2021-08-19 05:41:19.148,0.1,-0.26
2021-08-19 05:41:19.152,0.09,-0.23
2021-08-19 05:41:19.156,0.07,-0.2
2021-08-19 05:41:19.160,0.09,-0.205
2021-08-19 05:41:19.164,0.085,-0.2
2021-08-19 05:41:19.168,0.095,-0.19
2021-08-19 05:41:19.172,0.075,-0.2
2021-08-19 05:41:19.176,0.08,-0.17
2021-08-19 05:41:19.180,0.1,-0.16
2021-08-19 05:41:19.184,0.075,-0.145
2021-08-19 05:41:19.188,0.055,-0.13
2021-08-19 05:41:19.192,0.07,-0.135
2021-08-19 05:41:19.196,0.055,-0.125
2021-08-19 05:41:19.200,0.05,-0.11
2021-08-19 05:41:19.204,0.05,-0.09
2021-08-19 05:41:19.208,0.045,-0.075
2021-08-19 05:41:19.212,0.015,-0.065
2021-08-19 05:41:19.216,0.025,-0.03
2021-08-19 05:41:19.220,0.02,-0.03
2021-08-19 05:41:19.224,0.04,-0.03
2021-08-19 05:41:19.228,0.02,-0.04
2021-08-19 05:41:19.232,0.045,-0.06
2021-08-19 05:41:19.236,0.1,-0.055
2021-08-19 05:41:19.240,0.11,-0.055
2021-08-19 05:41:19.244,0.125,-0.06
2021-08-19 05:41:19.248,0.17,-0.045
2021-08-19 05:41:19.252,0.185,-0.035
2021-08-19 05:41:19.256,0.205,-0.05
2021-08-19 05:41:19.260,0.2,-0.045
2021-08-19 05:41:19.264,0.22,-0.09
2021-08-19 05:41:19.268,0.21,-0.12
2021-08-19 05:41:19.272,0.22,-0.15
2021-08-19 05:41:19.276,0.175,-0.16
2021-08-19 05:41:19.280,0.17,-0.18
2021-08-19 05:41:19.284,0.2,-0.215
2021-08-19 05:41:19.288,0.19,-0.24
2021-08-19 05:41:19.292,0.195,-0.245
2021-08-19 05:41:19.296,0.2,-0.24
2021-08-19 05:41:19.300,0.195,-0.25
2021-08-19 05:41:19.304,0.22,-0.275
2021-08-19 05:41:19.308,0.235,-0.27
2021-08-19 05:41:19.312,0.245,-0.28
2021-08-19 05:41:19.316,0.22,-0.27
2021-08-19 05:41:19.320,0.245,-0.275
2021-08-19 05:41:19.324,0.24,-0.26
2021-08-19 05:41:19.328,0.245,-0.29
2021-08-19 05:41:19.332,0.245,-0.31
2021-08-19 05:41:19.336,0.24,-0.325
2021-08-19 05:41:19.340,0.26,-0.345
2021-08-19 05:41:19.344,0.27,-0.37
2021-08-19 05:41:19.348,0.295,-0.37
2021-08-19 05:41:19.352,0.285,-0.385
2021-08-19 05:41:19.356,0.285,-0.4
2021-08-19 05:41:19.360,0.295,-0.41
2021-08-19 05:41:19.364,0.28,-0.41
2021-08-19 05:41:19.368,0.285,-0.41
2021-08-19 05:41:19.372,0.28,-0.42
2021-08-19 05:41:19.376,0.295,-0.43
2021-08-19 05:41:19.380,0.285,-0.435
2021-08-19 05:41:19.384,0.29,-0.425
2021-08-19 05:41:19.388,0.265,-0.42
2021-08-19 05:41:19.392,0.3,-0.43
2021-08-19 05:41:19.396,0.29,-0.43
2021-08-19 05:41:19.400,0.295,-0.425
2021-08-19 05:41:19.404,0.28,-0.41
2021-08-19 05:41:19.408,0.295,-0.39
2021-08-19 05:41:19.412,0.29,-0.41
2021-08-19 05:41:19.416,0.265,-0.38
2021-08-19 05:41:19.420,0.285,-0.39
2021-08-19 05:41:19.424,0.27,-0.355
2021-08-19 05:41:19.428,0.28,-0.35
2021-08-19 05:41:19.432,0.285,-0.37
2021-08-19 05:41:19.436,0.28,-0.34
2021-08-19 05:41:19.440,0.265,-0.31
2021-08-19 05:41:19.444,0.3,-0.295
2021-08-19 05:41:19.448,0.29,-0.275
2021-08-19 05:41:19.452,0.335,-0.265
2021-08-19 05:41:19.456,0.33,-0.26
2021-08-19 05:41:19.460,0.365,-0.255
2021-08-19 05:41:19.464,0.365,-0.25
2021-08-19 05:41:19.468,0.4,-0.23
2021-08-19 05:41:19.472,0.41,-0.21
2021-08-19 05:41:19.476,0.41,-0.18
2021-08-19 05:41:19.480,0.4,-0.185
2021-08-19 05:41:19.484,0.375,-0.205
2021-08-19 05:41:19.488,0.38,-0.21
2021-08-19 05:41:19.492,0.325,-0.245
2021-08-19 05:41:19.496,0.31,-0.26
2021-08-19 05:41:19.500,0.28,-0.285
2021-08-19 05:41:19.504,0.285,-0.285
2021-08-19 05:41:19.508,0.3,-0.28
2021-08-19 05:41:19.512,0.305,-0.3
2021-08-19 05:41:19.516,0.27,-0.31
2021-08-19 05:41:19.520,0.26,-0.325
2021-08-19 05:41:19.524,0.275,-0.345
2021-08-19 05:41:19.528,0.275,-0.35
2021-08-19 05:41:19.532,0.265,-0.33
2021-08-19 05:41:19.536,0.275,-0.365
2021-08-19 05:41:19.540,0.275,-0.365
2021-08-19 05:41:19.544,0.265,-0.35
2021-08-19 05:41:19.548,0.295,-0.35
2021-08-19 05:41:19.552,0.29,-0.36
2021-08-19 05:41:19.556,0.28,-0.37
2021-08-19 05:41:19.560,0.27,-0.375
2021-08-19 05:41:19.564,0.29,-0.36
2021-08-19 05:41:19.568,0.27,-0.38
2021-08-19 05:41:19.572,0.285,-0.38
2021-08-19 05:41:19.576,0.29,-0.39
2021-08-19 05:41:19.580,0.26,-0.38
2021-08-19 05:41:19.584,0.285,-0.37
2021-08-19 05:41:19.588,0.28,-0.39
2021-08-19 05:41:19.592,0.27,-0.385
2021-08-19 05:41:19.596,0.29,-0.37
2021-08-19 05:41:19.600,0.265,-0.37
2021-08-19 05:41:19.604,0.27,-0.375
2021-08-19 05:41:19.608,0.27,-0.415
2021-08-19 05:41:19.612,0.27,-0.38
2021-08-19 05:41:19.616,0.25,-0.38
2021-08-19 05:41:19.620,0.26,-0.36
2021-08-19 05:41:19.624,0.27,-0.36
2021-08-19 05:41:19.628,0.24,-0.33
2021-08-19 05:41:19.632,0.245,-0.34
2021-08-19 05:41:19.636,0.245,-0.32
2021-08-19 05:41:19.640,0.26,-0.28
2021-08-19 05:41:19.644,0.265,-0.21
2021-08-19 05:41:19.648,0.265,-0.185
2021-08-19 05:41:19.652,0.25,-0.15
2021-08-19 05:41:19.656,0.27,-0.05
2021-08-19 05:41:19.660,0.26,0.175
2021-08-19 05:41:19.664,0.3,0.475
2021-08-19 05:41:19.668,0.325,0.71
2021-08-19 05:41:19.672,0.355,0.785
2021-08-19 05:41:19.676,0.28,0.73
2021-08-19 05:41:19.680,0.24,0.57
2021-08-19 05:41:19.684,0.2,0.37
2021-08-19 05:41:19.688,0.18,0.095
2021-08-19 05:41:19.692,0.11,-0.27
2021-08-19 05:41:19.696,-0.1,-0.615
2021-08-19 05:41:19.700,-0.355,-0.545
2021-08-19 05:41:19.704,-0.675,-0.17
2021-08-19 05:41:19.708,-0.885,0.08
2021-08-19 05:41:19.712,-0.975,-0.015
2021-08-19 05:41:19.716,-0.99,-0.3
2021-08-19 05:41:19.720,-0.855,-0.505
2021-08-19 05:41:19.724,-0.465,-0.655
2021-08-19 05:41:19.728,-0.06,-0.71
2021-08-19 05:41:19.732,0.16,-0.67
2021-08-19 05:41:19.736,0.19,-0.575
2021-08-19 05:41:19.740,0.155,-0.52
2021-08-19 05:41:19.744,0.15,-0.48
2021-08-19 05:41:19.748,0.105,-0.465
2021-08-19 05:41:19.752,0.13,-0.46
2021-08-19 05:41:19.756,0.15,-0.465
2021-08-19 05:41:19.760,0.21,-0.45
2021-08-19 05:41:19.764,0.27,-0.47
2021-08-19 05:41:19.768,0.295,-0.47
2021-08-19 05:41:19.772,0.305,-0.48
2021-08-19 05:41:19.776,0.31,-0.455
2021-08-19 05:41:19.780,0.325,-0.46
2021-08-19 05:41:19.784,0.34,-0.485
2021-08-19 05:41:19.788,0.34,-0.505
2021-08-19 05:41:19.792,0.34,-0.505
2021-08-19 05:41:19.796,0.33,-0.5
2021-08-19 05:41:19.800,0.35,-0.505
2021-08-19 05:41:19.804,0.335,-0.51
2021-08-19 05:41:19.808,0.325,-0.5
2021-08-19 05:41:19.812,0.34,-0.5
2021-08-19 05:41:19.816,0.35,-0.48
2021-08-19 05:41:19.820,0.36,-0.51
2021-08-19 05:41:19.824,0.355,-0.485
2021-08-19 05:41:19.828,0.33,-0.515
2021-08-19 05:41:19.832,0.35,-0.475
2021-08-19 05:41:19.836,0.345,-0.47
2021-08-19 05:41:19.840,0.35,-0.475
2021-08-19 05:41:19.844,0.33,-0.485
2021-08-19 05:41:19.848,0.335,-0.47
2021-08-19 05:41:19.852,0.325,-0.505
2021-08-19 05:41:19.856,0.345,-0.49
2021-08-19 05:41:19.860,0.345,-0.485
2021-08-19 05:41:19.864,0.355,-0.515
2021-08-19 05:41:19.868,0.34,-0.51
2021-08-19 05:41:19.872,0.35,-0.525
2021-08-19 05:41:19.876,0.355,-0.515
2021-08-19 05:41:19.880,0.345,-0.54
2021-08-19 05:41:19.884,0.36,-0.525
2021-08-19 05:41:19.888,0.36,-0.505
2021-08-19 05:41:19.892,0.37,-0.495
2021-08-19 05:41:19.896,0.36,-0.495
2021-08-19 05:41:19.900,0.355,-0.505
2021-08-19 05:41:19.904,0.34,-0.46
2021-08-19 05:41:19.908,0.345,-0.485
2021-08-19 05:41:19.912,0.36,-0.485
2021-08-19 05:41:19.916,0.365,-0.48
2021-08-19 05:41:19.920,0.34,-0.47
2021-08-19 05:41:19.924,0.38,-0.485
2021-08-19 05:41:19.928,0.365,-0.44
2021-08-19 05:41:19.932,0.38,-0.41
2021-08-19 05:41:19.936,0.395,-0.37
2021-08-19 05:41:19.940,0.38,-0.365
2021-08-19 05:41:19.944,0.415,-0.345
2021-08-19 05:41:19.948,0.43,-0.32
2021-08-19 05:41:19.952,0.41,-0.335
2021-08-19 05:41:19.956,0.41,-0.31
2021-08-19 05:41:19.960,0.42,-0.3
2021-08-19 05:41:19.964,0.415,-0.325
2021-08-19 05:41:19.968,0.395,-0.31
2021-08-19 05:41:19.972,0.37,-0.315
2021-08-19 05:41:19.976,0.34,-0.32
2021-08-19 05:41:19.980,0.335,-0.29
2021-08-19 05:41:19.984,0.31,-0.28
2021-08-19 05:41:19.988,0.295,-0.32
2021-08-19 05:41:19.992,0.31,-0.3
2021-08-19 05:41:19.996,0.295,-0.31
2021-08-19 05:41:20.000,0.295,-0.305
2021-08-19 05:41:20.004,0.305,-0.31
2021-08-19 05:41:20.008,0.29,-0.29
2021-08-19 05:41:20.012,0.285,-0.295
2021-08-19 05:41:20.016,0.28,-0.3
2021-08-19 05:41:20.020,0.26,-0.285
2021-08-19 05:41:20.024,0.245,-0.28
2021-08-19 05:41:20.028,0.26,-0.29
2021-08-19 05:41:20.032,0.26,-0.29
2021-08-19 05:41:20.036,0.27,-0.265
2021-08-19 05:41:20.040,0.255,-0.285
2021-08-19 05:41:20.044,0.26,-0.275
2021-08-19 05:41:20.048,0.265,-0.28
2021-08-19 05:41:20.052,0.28,-0.285
2021-08-19 05:41:20.056,0.27,-0.28
2021-08-19 05:41:20.060,0.265,-0.27
2021-08-19 05:41:20.064,0.285,-0.265
2021-08-19 05:41:20.068,0.28,-0.3
2021-08-19 05:41:20.072,0.265,-0.27
2021-08-19 05:41:20.076,0.275,-0.275
2021-08-19 05:41:20.080,0.26,-0.29
2021-08-19 05:41:20.084,0.29,-0.29
2021-08-19 05:41:20.088,0.265,-0.3
2021-08-19 05:41:20.092,0.285,-0.305
2021-08-19 05:41:20.096,0.28,-0.31
2021-08-19 05:41:20.100,0.28,-0.33
2021-08-19 05:41:20.104,0.28,-0.315
2021-08-19 05:41:20.108,0.285,-0.32
2021-08-19 05:41:20.112,0.27,-0.345
2021-08-19 05:41:20.116,0.29,-0.305
2021-08-19 05:41:20.120,0.28,-0.32
2021-08-19 05:41:20.124,0.29,-0.3
2021-08-19 05:41:20.128,0.285,-0.315
2021-08-19 05:41:20.132,0.285,-0.3
2021-08-19 05:41:20.136,0.28,-0.33
2021-08-19 05:41:20.140,0.275,-0.3
2021-08-19 05:41:20.144,0.3,-0.3
2021-08-19 05:41:20.148,0.3,-0.285
2021-08-19 05:41:20.152,0.315,-0.255
2021-08-19 05:41:20.156,0.35,-0.215
2021-08-19 05:41:20.160,0.355,-0.19
2021-08-19 05:41:20.164,0.355,-0.09
2021-08-19 05:41:20.168,0.34,-0.025
2021-08-19 05:41:20.172,0.355,0.045
2021-08-19 05:41:20.176,0.33,0.14
2021-08-19 05:41:20.180,0.295,0.335
2021-08-19 05:41:20.184,0.29,0.6
2021-08-19 05:41:20.188,0.275,0.815
2021-08-19 05:41:20.192,0.3,0.875
2021-08-19 05:41:20.196,0.26,0.75
2021-08-19 05:41:20.200,0.225,0.555
2021-08-19 05:41:20.204,0.17,0.28
2021-08-19 05:41:20.208,0.145,-0.035
2021-08-19 05:41:20.212,0.1,-0.41
2021-08-19 05:41:20.216,-0.03,-0.73
2021-08-19 05:41:20.220,-0.31,-0.725
2021-08-19 05:41:20.224,-0.645,-0.375
2021-08-19 05:41:20.228,-0.905,0.0
2021-08-19 05:41:20.232,-1.055,0.03
2021-08-19 05:41:20.236,-1.105,-0.15
2021-08-19 05:41:20.240,-1.015,-0.36
2021-08-19 05:41:20.244,-0.67,-0.53
2021-08-19 05:41:20.248,-0.225,-0.64
2021-08-19 05:41:20.252,0.065,-0.64
2021-08-19 05:41:20.256,0.15,-0.58
2021-08-19 05:41:20.260,0.175,-0.5
2021-08-19 05:41:20.264,0.15,-0.47
2021-08-19 05:41:20.268,0.11,-0.485
2021-08-19 05:41:20.272,0.1,-0.49
2021-08-19 05:41:20.276,0.13,-0.515
2021-08-19 05:41:20.280,0.16,-0.525
2021-08-19 05:41:20.284,0.24,-0.525
2021-08-19 05:41:20.288,0.285,-0.525
2021-08-19 05:41:20.292,0.325,-0.53
2021-08-19 05:41:20.296,0.31,-0.525
2021-08-19 05:41:20.300,0.315,-0.505
2021-08-19 05:41:20.304,0.355,-0.51
2021-08-19 05:41:20.308,0.335,-0.52
2021-08-19 05:41:20.312,0.335,-0.51
2021-08-19 05:41:20.316,0.33,-0.52
2021-08-19 05:41:20.320,0.35,-0.485
2021-08-19 05:41:20.324,0.36,-0.505
2021-08-19 05:41:20.328,0.365,-0.49
2021-08-19 05:41:20.332,0.385,-0.49
2021-08-19 05:41:20.336,0.39,-0.48
2021-08-19 05:41:20.340,0.39,-0.465
2021-08-19 05:41:20.344,0.38,-0.465
2021-08-19 05:41:20.348,0.385,-0.44
2021-08-19 05:41:20.352,0.385,-0.45
2021-08-19 05:41:20.356,0.39,-0.43
2021-08-19 05:41:20.360,0.395,-0.42
2021-08-19 05:41:20.364,0.395,-0.425
2021-08-19 05:41:20.368,0.395,-0.46
2021-08-19 05:41:20.372,0.405,-0.45
2021-08-19 05:41:20.376,0.405,-0.445
2021-08-19 05:41:20.380,0.42,-0.415
2021-08-19 05:41:20.384,0.425,-0.37
2021-08-19 05:41:20.388,0.435,-0.34
2021-08-19 05:41:20.392,0.445,-0.32
2021-08-19 05:41:20.396,0.435,-0.305
2021-08-19 05:41:20.400,0.41,-0.3
2021-08-19 05:41:20.404,0.38,-0.315
2021-08-19 05:41:20.408,0.375,-0.31
2021-08-19 05:41:20.412,0.355,-0.335
2021-08-19 05:41:20.416,0.375,-0.315
2021-08-19 05:41:20.420,0.375,-0.3
2021-08-19 05:41:20.424,0.38,-0.32
2021-08-19 05:41:20.428,0.355,-0.32
2021-08-19 05:41:20.432,0.37,-0.33
2021-08-19 05:41:20.436,0.345,-0.335
2021-08-19 05:41:20.440,0.375,-0.36
2021-08-19 05:41:20.444,0.39,-0.36
2021-08-19 05:41:20.448,0.38,-0.35
2021-08-19 05:41:20.452,0.4,-0.38
2021-08-19 05:41:20.456,0.39,-0.36
2021-08-19 05:41:20.460,0.365,-0.37
2021-08-19 05:41:20.464,0.36,-0.4
2021-08-19 05:41:20.468,0.37,-0.375
2021-08-19 05:41:20.472,0.37,-0.355
2021-08-19 05:41:20.476,0.39,-0.33
2021-08-19 05:41:20.480,0.385,-0.33
2021-08-19 05:41:20.484,0.385,-0.335
2021-08-19 05:41:20.488,0.385,-0.345
2021-08-19 05:41:20.492,0.375,-0.305
2021-08-19 05:41:20.496,0.395,-0.3
2021-08-19 05:41:20.500,0.4,-0.275
2021-08-19 05:41:20.504,0.385,-0.265
2021-08-19 05:41:20.508,0.39,-0.27
2021-08-19 05:41:20.512,0.415,-0.25
2021-08-19 05:41:20.516,0.4,-0.27
2021-08-19 05:41:20.520,0.41,-0.26
2021-08-19 05:41:20.524,0.4,-0.265
2021-08-19 05:41:20.528,0.39,-0.245
2021-08-19 05:41:20.532,0.375,-0.26
2021-08-19 05:41:20.536,0.38,-0.26
2021-08-19 05:41:20.540,0.395,-0.25
2021-08-19 05:41:20.544,0.39,-0.275
2021-08-19 05:41:20.548,0.355,-0.285
2021-08-19 05:41:20.552,0.38,-0.285
2021-08-19 05:41:20.556,0.365,-0.31
2021-08-19 05:41:20.560,0.385,-0.325
2021-08-19 05:41:20.564,0.37,-0.335
2021-08-19 05:41:20.568,0.355,-0.33
2021-08-19 05:41:20.572,0.355,-0.335
2021-08-19 05:41:20.576,0.35,-0.335
2021-08-19 05:41:20.580,0.335,-0.35
2021-08-19 05:41:20.584,0.32,-0.35
2021-08-19 05:41:20.588,0.34,-0.33
2021-08-19 05:41:20.592,0.325,-0.325
2021-08-19 05:41:20.596,0.35,-0.31
2021-08-19 05:41:20.600,0.335,-0.3
2021-08-19 05:41:20.604,0.34,-0.31
2021-08-19 05:41:20.608,0.345,-0.28
2021-08-19 05:41:20.612,0.345,-0.275
2021-08-19 05:41:20.616,0.33,-0.28
2021-08-19 05:41:20.620,0.315,-0.25
2021-08-19 05:41:20.624,0.3,-0.255
2021-08-19 05:41:20.628,0.255,-0.22
2021-08-19 05:41:20.632,0.24,-0.2
2021-08-19 05:41:20.636,0.235,-0.2
2021-08-19 05:41:20.640,0.21,-0.205
2021-08-19 05:41:20.644,0.205,-0.21
2021-08-19 05:41:20.648,0.21,-0.205
2021-08-19 05:41:20.652,0.245,-0.195
2021-08-19 05:41:20.656,0.265,-0.195
2021-08-19 05:41:20.660,0.28,-0.205
2021-08-19 05:41:20.664,0.3,-0.23
2021-08-19 05:41:20.668,0.32,-0.255
2021-08-19 05:41:20.672,0.325,-0.26
2021-08-19 05:41:20.676,0.33,-0.295
2021-08-19 05:41:20.680,0.325,-0.31
2021-08-19 05:41:20.684,0.335,-0.295
2021-08-19 05:41:20.688,0.31,-0.31
2021-08-19 05:41:20.692,0.315,-0.335
2021-08-19 05:41:20.696,0.31,-0.32
2021-08-19 05:41:20.700,0.3,-0.33
2021-08-19 05:41:20.704,0.295,-0.34
2021-08-19 05:41:20.708,0.315,-0.34
2021-08-19 05:41:20.712,0.315,-0.35
2021-08-19 05:41:20.716,0.31,-0.35
2021-08-19 05:41:20.720,0.315,-0.38
2021-08-19 05:41:20.724,0.3,-0.37
2021-08-19 05:41:20.728,0.31,-0.355
2021-08-19 05:41:20.732,0.335,-0.37
2021-08-19 05:41:20.736,0.305,-0.38
2021-08-19 05:41:20.740,0.315,-0.365
2021-08-19 05:41:20.744,0.3,-0.385
2021-08-19 05:41:20.748,0.32,-0.36
2021-08-19 05:41:20.752,0.3,-0.37
2021-08-19 05:41:20.756,0.315,-0.365
2021-08-19 05:41:20.760,0.31,-0.375
2021-08-19 05:41:20.764,0.325,-0.405
2021-08-19 05:41:20.768,0.315,-0.4
2021-08-19 05:41:20.772,0.31,-0.39
2021-08-19 05:41:20.776,0.32,-0.375
2021-08-19 05:41:20.780,0.315,-0.38
2021-08-19 05:41:20.784,0.295,-0.41
2021-08-19 05:41:20.788,0.305,-0.39
2021-08-19 05:41:20.792,0.285,-0.4
2021-08-19 05:41:20.796,0.285,-0.39
2021-08-19 05:41:20.800,0.28,-0.415
2021-08-19 05:41:20.804,0.285,-0.425
2021-08-19 05:41:20.808,0.28,-0.41
2021-08-19 05:41:20.812,0.29,-0.41
2021-08-19 05:41:20.816,0.28,-0.425
2021-08-19 05:41:20.820,0.295,-0.405
2021-08-19 05:41:20.824,0.285,-0.39
2021-08-19 05:41:20.828,0.285,-0.38
2021-08-19 05:41:20.832,0.26,-0.405
2021-08-19 05:41:20.836,0.28,-0.405
2021-08-19 05:41:20.840,0.28,-0.42
2021-08-19 05:41:20.844,0.27,-0.41
2021-08-19 05:41:20.848,0.265,-0.395
2021-08-19 05:41:20.852,0.24,-0.37
2021-08-19 05:41:20.856,0.255,-0.32
2021-08-19 05:41:20.860,0.235,-0.29
2021-08-19 05:41:20.864,0.24,-0.215
2021-08-19 05:41:20.868,0.255,-0.175
2021-08-19 05:41:20.872,0.28,-0.165
2021-08-19 05:41:20.876,0.305,-0.16
2021-08-19 05:41:20.880,0.345,-0.13
2021-08-19 05:41:20.884,0.4,-0.135
2021-08-19 05:41:20.888,0.42,-0.145
2021-08-19 05:41:20.892,0.45,-0.16
2021-08-19 05:41:20.896,0.44,-0.185
2021-08-19 05:41:20.900,0.415,-0.185
2021-08-19 05:41:20.904,0.38,-0.21
2021-08-19 05:41:20.908,0.33,-0.225
2021-08-19 05:41:20.912,0.33,-0.25
2021-08-19 05:41:20.916,0.305,-0.265
2021-08-19 05:41:20.920,0.305,-0.28
2021-08-19 05:41:20.924,0.315,-0.31
2021-08-19 05:41:20.928,0.31,-0.305
2021-08-19 05:41:20.932,0.29,-0.34
2021-08-19 05:41:20.936,0.305,-0.355
2021-08-19 05:41:20.940,0.28,-0.36
2021-08-19 05:41:20.944,0.26,-0.36
2021-08-19 05:41:20.948,0.285,-0.38
2021-08-19 05:41:20.952,0.28,-0.395
2021-08-19 05:41:20.956,0.26,-0.395
2021-08-19 05:41:20.960,0.29,-0.4
2021-08-19 05:41:20.964,0.25,-0.395
2021-08-19 05:41:20.968,0.25,-0.385
2021-08-19 05:41:20.972,0.255,-0.39
2021-08-19 05:41:20.976,0.255,-0.37
2021-08-19 05:41:20.980,0.26,-0.385
2021-08-19 05:41:20.984,0.255,-0.38
2021-08-19 05:41:20.988,0.26,-0.375
2021-08-19 05:41:20.992,0.245,-0.38
2021-08-19 05:41:20.996,0.27,-0.395
2021-08-19 05:41:21.000,0.22,-0.395
2021-08-19 05:41:21.004,0.24,-0.415
2021-08-19 05:41:21.008,0.23,-0.425
2021-08-19 05:41:21.012,0.245,-0.4
2021-08-19 05:41:21.016,0.245,-0.4
2021-08-19 05:41:21.020,0.24,-0.39
2021-08-19 05:41:21.024,0.245,-0.405
2021-08-19 05:41:21.028,0.24,-0.38
2021-08-19 05:41:21.032,0.235,-0.365
2021-08-19 05:41:21.036,0.24,-0.355
2021-08-19 05:41:21.040,0.23,-0.32
2021-08-19 05:41:21.044,0.24,-0.32
2021-08-19 05:41:21.048,0.26,-0.275
2021-08-19 05:41:21.052,0.255,-0.205
2021-08-19 05:41:21.056,0.23,-0.205
2021-08-19 05:41:21.060,0.26,-0.145
2021-08-19 05:41:21.064,0.255,-0.01
2021-08-19 05:41:21.068,0.25,0.23
2021-08-19 05:41:21.072,0.285,0.56
2021-08-19 05:41:21.076,0.315,0.77
2021-08-19 05:41:21.080,0.34,0.865
2021-08-19 05:41:21.084,0.3,0.895
2021-08-19 05:41:21.088,0.25,0.84
2021-08-19 05:41:21.092,0.24,0.67
2021-08-19 05:41:21.096,0.23,0.345
2021-08-19 05:41:21.100,0.14,-0.07
2021-08-19 05:41:21.104,0.0,-0.445
2021-08-19 05:41:21.108,-0.25,-0.445
2021-08-19 05:41:21.112,-0.55,-0.165
2021-08-19 05:41:21.116,-0.76,-0.01
2021-08-19 05:41:21.120,-0.855,-0.12
2021-08-19 05:41:21.124,-0.87,-0.335
2021-08-19 05:41:21.128,-0.75,-0.5
2021-08-19 05:41:21.132,-0.395,-0.595
2021-08-19 05:41:21.136,0.02,-0.64
2021-08-19 05:41:21.140,0.285,-0.615
2021-08-19 05:41:21.144,0.35,-0.5
2021-08-19 05:41:21.148,0.345,-0.43
2021-08-19 05:41:21.152,0.315,-0.405
2021-08-19 05:41:21.156,0.265,-0.41
2021-08-19 05:41:21.160,0.28,-0.455
2021-08-19 05:41:21.164,0.26,-0.45
2021-08-19 05:41:21.168,0.295,-0.46
2021-08-19 05:41:21.172,0.34,-0.465
2021-08-19 05:41:21.176,0.36,-0.44
2021-08-19 05:41:21.180,0.36,-0.485
2021-08-19 05:41:21.184,0.355,-0.485
2021-08-19 05:41:21.188,0.35,-0.495
2021-08-19 05:41:21.192,0.34,-0.49
2021-08-19 05:41:21.196,0.355,-0.505
2021-08-19 05:41:21.200,0.34,-0.525
2021-08-19 05:41:21.204,0.36,-0.53
2021-08-19 05:41:21.208,0.345,-0.54
2021-08-19 05:41:21.212,0.345,-0.55
2021-08-19 05:41:21.216,0.35,-0.545
2021-08-19 05:41:21.220,0.355,-0.555
2021-08-19 05:41:21.224,0.345,-0.56
2021-08-19 05:41:21.228,0.34,-0.57
2021-08-19 05:41:21.232,0.35,-0.555
2021-08-19 05:41:21.236,0.325,-0.545
2021-08-19 05:41:21.240,0.33,-0.565
2021-08-19 05:41:21.244,0.325,-0.555
2021-08-19 05:41:21.248,0.335,-0.535
2021-08-19 05:41:21.252,0.33,-0.53
2021-08-19 05:41:21.256,0.33,-0.515
2021-08-19 05:41:21.260,0.31,-0.52
2021-08-19 05:41:21.264,0.325,-0.52
2021-08-19 05:41:21.268,0.33,-0.51
2021-08-19 05:41:21.272,0.33,-0.515
2021-08-19 05:41:21.276,0.315,-0.515
2021-08-19 05:41:21.280,0.345,-0.51
2021-08-19 05:41:21.284,0.37,-0.525
2021-08-19 05:41:21.288,0.36,-0.52
2021-08-19 05:41:21.292,0.35,-0.505
2021-08-19 05:41:21.296,0.36,-0.51
2021-08-19 05:41:21.300,0.36,-0.505
2021-08-19 05:41:21.304,0.375,-0.49
2021-08-19 05:41:21.308,0.375,-0.485
2021-08-19 05:41:21.312,0.365,-0.45
2021-08-19 05:41:21.316,0.37,-0.445
2021-08-19 05:41:21.320,0.365,-0.425
2021-08-19 05:41:21.324,0.365,-0.44
2021-08-19 05:41:21.328,0.38,-0.445
2021-08-19 05:41:21.332,0.405,-0.445
2021-08-19 05:41:21.336,0.45,-0.425
2021-08-19 05:41:21.340,0.485,-0.42
2021-08-19 05:41:21.344,0.5,-0.395
2021-08-19 05:41:21.348,0.505,-0.385
2021-08-19 05:41:21.352,0.53,-0.355
2021-08-19 05:41:21.356,0.545,-0.355
2021-08-19 05:41:21.360,0.53,-0.345
2021-08-19 05:41:21.364,0.535,-0.34
2021-08-19 05:41:21.368,0.535,-0.335
2021-08-19 05:41:21.372,0.52,-0.32
2021-08-19 05:41:21.376,0.49,-0.335
2021-08-19 05:41:21.380,0.46,-0.32
2021-08-19 05:41:21.384,0.455,-0.32
2021-08-19 05:41:21.388,0.405,-0.315
2021-08-19 05:41:21.392,0.385,-0.31
2021-08-19 05:41:21.396,0.365,-0.3
2021-08-19 05:41:21.400,0.35,-0.285
2021-08-19 05:41:21.404,0.33,-0.31
2021-08-19 05:41:21.408,0.36,-0.295
2021-08-19 05:41:21.412,0.325,-0.27
2021-08-19 05:41:21.416,0.325,-0.24
2021-08-19 05:41:21.420,0.33,-0.245
2021-08-19 05:41:21.424,0.335,-0.215
2021-08-19 05:41:21.428,0.3,-0.21
2021-08-19 05:41:21.432,0.325,-0.21
2021-08-19 05:41:21.436,0.315,-0.205
2021-08-19 05:41:21.440,0.33,-0.19
2021-08-19 05:41:21.444,0.33,-0.2
2021-08-19 05:41:21.448,0.33,-0.18
2021-08-19 05:41:21.452,0.35,-0.19
2021-08-19 05:41:21.456,0.35,-0.2
2021-08-19 05:41:21.460,0.33,-0.18
2021-08-19 05:41:21.464,0.34,-0.19
2021-08-19 05:41:21.468,0.34,-0.2
2021-08-19 05:41:21.472,0.355,-0.195
2021-08-19 05:41:21.476,0.345,-0.195
2021-08-19 05:41:21.480,0.36,-0.19
2021-08-19 05:41:21.484,0.365,-0.18
2021-08-19 05:41:21.488,0.35,-0.185
2021-08-19 05:41:21.492,0.37,-0.195
2021-08-19 05:41:21.496,0.365,-0.2
2021-08-19 05:41:21.500,0.37,-0.19
2021-08-19 05:41:21.504,0.385,-0.18
2021-08-19 05:41:21.508,0.395,-0.205
2021-08-19 05:41:21.512,0.395,-0.2
2021-08-19 05:41:21.516,0.39,-0.205
2021-08-19 05:41:21.520,0.38,-0.215
2021-08-19 05:41:21.524,0.385,-0.215
2021-08-19 05:41:21.528,0.39,-0.23
2021-08-19 05:41:21.532,0.405,-0.22
2021-08-19 05:41:21.536,0.44,-0.23
2021-08-19 05:41:21.540,0.415,-0.23
2021-08-19 05:41:21.544,0.42,-0.2
2021-08-19 05:41:21.548,0.425,-0.17
2021-08-19 05:41:21.552,0.435,-0.17
2021-08-19 05:41:21.556,0.435,-0.175
2021-08-19 05:41:21.560,0.395,-0.135
2021-08-19 05:41:21.564,0.435,-0.11
2021-08-19 05:41:21.568,0.455,-0.095
2021-08-19 05:41:21.572,0.51,-0.07
2021-08-19 05:41:21.576,0.525,-0.09
2021-08-19 05:41:21.580,0.545,-0.1
2021-08-19 05:41:21.584,0.56,-0.105
2021-08-19 05:41:21.588,0.55,-0.12
2021-08-19 05:41:21.592,0.54,-0.145
2021-08-19 05:41:21.596,0.505,-0.155
2021-08-19 05:41:21.600,0.48,-0.18
2021-08-19 05:41:21.604,0.43,-0.2
2021-08-19 05:41:21.608,0.385,-0.225
2021-08-19 05:41:21.612,0.355,-0.235
2021-08-19 05:41:21.616,0.34,-0.265
2021-08-19 05:41:21.620,0.36,-0.29
2021-08-19 05:41:21.624,0.32,-0.275
2021-08-19 05:41:21.628,0.34,-0.265
2021-08-19 05:41:21.632,0.32,-0.275
2021-08-19 05:41:21.636,0.315,-0.27
2021-08-19 05:41:21.640,0.33,-0.22
2021-08-19 05:41:21.644,0.31,-0.185
2021-08-19 05:41:21.648,0.31,-0.14
2021-08-19 05:41:21.652,0.3,-0.08
2021-08-19 05:41:21.656,0.305,0.12
2021-08-19 05:41:21.660,0.29,0.48
2021-08-19 05:41:21.664,0.305,0.82
2021-08-19 05:41:21.668,0.33,0.97
2021-08-19 05:41:21.672,0.325,0.975
2021-08-19 05:41:21.676,0.29,0.865
2021-08-19 05:41:21.680,0.265,0.665
2021-08-19 05:41:21.684,0.265,0.34
2021-08-19 05:41:21.688,0.245,-0.08
2021-08-19 05:41:21.692,0.105,-0.46
2021-08-19 05:41:21.696,-0.14,-0.54
2021-08-19 05:41:21.700,-0.46,-0.26
2021-08-19 05:41:21.704,-0.8,0.035
2021-08-19 05:41:21.708,-1.03,-0.025
2021-08-19 05:41:21.712,-1.145,-0.255
2021-08-19 05:41:21.716,-1.08,-0.52
2021-08-19 05:41:21.720,-0.815,-0.7
2021-08-19 05:41:21.724,-0.325,-0.77
2021-08-19 05:41:21.728,0.055,-0.75
2021-08-19 05:41:21.732,0.22,-0.65
2021-08-19 05:41:21.736,0.22,-0.54
2021-08-19 05:41:21.740,0.175,-0.46
2021-08-19 05:41:21.744,0.155,-0.46
2021-08-19 05:41:21.748,0.16,-0.455
2021-08-19 05:41:21.752,0.17,-0.47
2021-08-19 05:41:21.756,0.245,-0.47
2021-08-19 05:41:21.760,0.3,-0.475
2021-08-19 05:41:21.764,0.36,-0.475
2021-08-19 05:41:21.768,0.42,-0.475
2021-08-19 05:41:21.772,0.44,-0.47
2021-08-19 05:41:21.776,0.415,-0.465
2021-08-19 05:41:21.780,0.415,-0.45
2021-08-19 05:41:21.784,0.4,-0.405
2021-08-19 05:41:21.788,0.43,-0.4
2021-08-19 05:41:21.792,0.42,-0.385
2021-08-19 05:41:21.796,0.425,-0.39
2021-08-19 05:41:21.800,0.445,-0.365
2021-08-19 05:41:21.804,0.51,-0.32
2021-08-19 05:41:21.808,0.52,-0.335
2021-08-19 05:41:21.812,0.55,-0.33
2021-08-19 05:41:21.816,0.545,-0.3
2021-08-19 05:41:21.820,0.535,-0.335
2021-08-19 05:41:21.824,0.535,-0.34
2021-08-19 05:41:21.828,0.535,-0.335
2021-08-19 05:41:21.832,0.53,-0.34
2021-08-19 05:41:21.836,0.5,-0.36
2021-08-19 05:41:21.840,0.445,-0.365
2021-08-19 05:41:21.844,0.415,-0.385
2021-08-19 05:41:21.848,0.435,-0.4
2021-08-19 05:41:21.852,0.415,-0.38
2021-08-19 05:41:21.856,0.39,-0.4
2021-08-19 05:41:21.860,0.39,-0.435
2021-08-19 05:41:21.864,0.39,-0.435
2021-08-19 05:41:21.868,0.365,-0.455
2021-08-19 05:41:21.872,0.385,-0.47
2021-08-19 05:41:21.876,0.375,-0.47
2021-08-19 05:41:21.880,0.37,-0.47
2021-08-19 05:41:21.884,0.385,-0.505
2021-08-19 05:41:21.888,0.36,-0.475
2021-08-19 05:41:21.892,0.375,-0.49
2021-08-19 05:41:21.896,0.385,-0.485
2021-08-19 05:41:21.900,0.36,-0.48
2021-08-19 05:41:21.904,0.385,-0.47
2021-08-19 05:41:21.908,0.36,-0.465
2021-08-19 05:41:21.912,0.355,-0.465
2021-08-19 05:41:21.916,0.36,-0.475
2021-08-19 05:41:21.920,0.37,-0.495
2021-08-19 05:41:21.924,0.365,-0.48
2021-08-19 05:41:21.928,0.365,-0.48
2021-08-19 05:41:21.932,0.365,-0.465
2021-08-19 05:41:21.936,0.38,-0.445
2021-08-19 05:41:21.940,0.365,-0.445
2021-08-19 05:41:21.944,0.375,-0.405
2021-08-19 05:41:21.948,0.395,-0.385
2021-08-19 05:41:21.952,0.375,-0.38
2021-08-19 05:41:21.956,0.395,-0.345
2021-08-19 05:41:21.960,0.385,-0.32
2021-08-19 05:41:21.964,0.41,-0.305
2021-08-19 05:41:21.968,0.39,-0.29
2021-08-19 05:41:21.972,0.395,-0.285
2021-08-19 05:41:21.976,0.395,-0.295
2021-08-19 05:41:21.980,0.405,-0.295
2021-08-19 05:41:21.984,0.405,-0.285
2021-08-19 05:41:21.988,0.41,-0.3
2021-08-19 05:41:21.992,0.41,-0.295
2021-08-19 05:41:21.996,0.415,-0.28
2021-08-19 05:41:22.000,0.4,-0.27
2021-08-19 05:41:22.004,0.41,-0.275
2021-08-19 05:41:22.008,0.39,-0.225
2021-08-19 05:41:22.012,0.395,-0.195
2021-08-19 05:41:22.016,0.4,-0.185
2021-08-19 05:41:22.020,0.395,-0.16
2021-08-19 05:41:22.024,0.375,-0.15
2021-08-19 05:41:22.028,0.375,-0.145
2021-08-19 05:41:22.032,0.42,-0.145
2021-08-19 05:41:22.036,0.47,-0.16
2021-08-19 05:41:22.040,0.475,-0.165
2021-08-19 05:41:22.044,0.5,-0.17
2021-08-19 05:41:22.048,0.525,-0.18
2021-08-19 05:41:22.052,0.55,-0.195
2021-08-19 05:41:22.056,0.56,-0.185
2021-08-19 05:41:22.060,0.56,-0.195
2021-08-19 05:41:22.064,0.545,-0.225
2021-08-19 05:41:22.068,0.5,-0.215
2021-08-19 05:41:22.072,0.46,-0.24
2021-08-19 05:41:22.076,0.41,-0.265
2021-08-19 05:41:22.080,0.375,-0.29
2021-08-19 05:41:22.084,0.355,-0.3
2021-08-19 05:41:22.088,0.34,-0.315
2021-08-19 05:41:22.092,0.345,-0.305
2021-08-19 05:41:22.096,0.34,-0.33
2021-08-19 05:41:22.100,0.325,-0.345
2021-08-19 05:41:22.104,0.33,-0.36
2021-08-19 05:41:22.108,0.315,-0.36
2021-08-19 05:41:22.112,0.305,-0.36
2021-08-19 05:41:22.116,0.31,-0.385
2021-08-19 05:41:22.120,0.31,-0.39
2021-08-19 05:41:22.124,0.335,-0.415
2021-08-19 05:41:22.128,0.33,-0.4
2021-08-19 05:41:22.132,0.325,-0.395
2021-08-19 05:41:22.136,0.305,-0.405
2021-08-19 05:41:22.140,0.305,-0.39
2021-08-19 05:41:22.144,0.305,-0.42
2021-08-19 05:41:22.148,0.3,-0.42
2021-08-19 05:41:22.152,0.31,-0.405
2021-08-19 05:41:22.156,0.31,-0.415
2021-08-19 05:41:22.160,0.31,-0.38
2021-08-19 05:41:22.164,0.32,-0.395
2021-08-19 05:41:22.168,0.29,-0.39
2021-08-19 05:41:22.172,0.28,-0.4
2021-08-19 05:41:22.176,0.3,-0.43
2021-08-19 05:41:22.180,0.285,-0.415
2021-08-19 05:41:22.184,0.31,-0.385
2021-08-19 05:41:22.188,0.285,-0.37
2021-08-19 05:41:22.192,0.31,-0.34
2021-08-19 05:41:22.196,0.315,-0.325
2021-08-19 05:41:22.200,0.3,-0.315
2021-08-19 05:41:22.204,0.33,-0.335
2021-08-19 05:41:22.208,0.325,-0.345
2021-08-19 05:41:22.212,0.32,-0.33
2021-08-19 05:41:22.216,0.33,-0.335
2021-08-19 05:41:22.220,0.345,-0.32
2021-08-19 05:41:22.224,0.345,-0.325
2021-08-19 05:41:22.228,0.33,-0.36
2021-08-19 05:41:22.232,0.345,-0.32
2021-08-19 05:41:22.236,0.36,-0.32
2021-08-19 05:41:22.240,0.37,-0.305
2021-08-19 05:41:22.244,0.355,-0.29
2021-08-19 05:41:22.248,0.36,-0.27
2021-08-19 05:41:22.252,0.34,-0.25
2021-08-19 05:41:22.256,0.34,-0.25
2021-08-19 05:41:22.260,0.33,-0.27
2021-08-19 05:41:22.264,0.35,-0.27
2021-08-19 05:41:22.268,0.395,-0.255
2021-08-19 05:41:22.272,0.405,-0.235
2021-08-19 05:41:22.276,0.45,-0.22
2021-08-19 05:41:22.280,0.465,-0.2
2021-08-19 05:41:22.284,0.475,-0.185
2021-08-19 05:41:22.288,0.5,-0.18
2021-08-19 05:41:22.292,0.495,-0.185
2021-08-19 05:41:22.296,0.49,-0.185
2021-08-19 05:41:22.300,0.495,-0.185
2021-08-19 05:41:22.304,0.465,-0.21
2021-08-19 05:41:22.308,0.41,-0.22
2021-08-19 05:41:22.312,0.375,-0.24
2021-08-19 05:41:22.316,0.34,-0.265
2021-08-19 05:41:22.320,0.365,-0.295
2021-08-19 05:41:22.324,0.35,-0.29
2021-08-19 05:41:22.328,0.31,-0.315
2021-08-19 05:41:22.332,0.325,-0.315
2021-08-19 05:41:22.336,0.325,-0.355
2021-08-19 05:41:22.340,0.32,-0.365
2021-08-19 05:41:22.344,0.315,-0.36
2021-08-19 05:41:22.348,0.3,-0.37
2021-08-19 05:41:22.352,0.315,-0.38
2021-08-19 05:41:22.356,0.31,-0.39
2021-08-19 05:41:22.360,0.295,-0.41
2021-08-19 05:41:22.364,0.31,-0.41
2021-08-19 05:41:22.368,0.31,-0.4
2021-08-19 05:41:22.372,0.31,-0.385
2021-08-19 05:41:22.376,0.3,-0.395
2021-08-19 05:41:22.380,0.305,-0.4
2021-08-19 05:41:22.384,0.29,-0.39
2021-08-19 05:41:22.388,0.325,-0.385
2021-08-19 05:41:22.392,0.3,-0.37
2021-08-19 05:41:22.396,0.275,-0.375
2021-08-19 05:41:22.400,0.29,-0.37
2021-08-19 05:41:22.404,0.28,-0.34
2021-08-19 05:41:22.408,0.285,-0.315
2021-08-19 05:41:22.412,0.295,-0.28
2021-08-19 05:41:22.416,0.31,-0.21
2021-08-19 05:41:22.420,0.3,-0.145
2021-08-19 05:41:22.424,0.32,-0.115
2021-08-19 05:41:22.428,0.31,-0.015
2021-08-19 05:41:22.432,0.31,0.185
2021-08-19 05:41:22.436,0.38,0.52
2021-08-19 05:41:22.440,0.4,0.8
2021-08-19 05:41:22.444,0.405,0.92
2021-08-19 05:41:22.448,0.425,0.925
2021-08-19 05:41:22.452,0.385,0.825
2021-08-19 05:41:22.456,0.34,0.61
2021-08-19 05:41:22.460,0.31,0.27
2021-08-19 05:41:22.464,0.26,-0.16
2021-08-19 05:41:22.468,0.105,-0.525
2021-08-19 05:41:22.472,-0.195,-0.565
2021-08-19 05:41:22.476,-0.535,-0.27
2021-08-19 05:41:22.480,-0.87,0.065
2021-08-19 05:41:22.484,-1.09,0.09
2021-08-19 05:41:22.488,-1.165,-0.14
2021-08-19 05:41:22.492,-1.125,-0.4
2021-08-19 05:41:22.496,-0.845,-0.53
2021-08-19 05:41:22.500,-0.335,-0.625
2021-08-19 05:41:22.504,0.12,-0.61
2021-08-19 05:41:22.508,0.355,-0.505
2021-08-19 05:41:22.512,0.415,-0.39
2021-08-19 05:41:22.516,0.405,-0.285
2021-08-19 05:41:22.520,0.38,-0.295
2021-08-19 05:41:22.524,0.35,-0.295
2021-08-19 05:41:22.528,0.335,-0.32
2021-08-19 05:41:22.532,0.365,-0.355
2021-08-19 05:41:22.536,0.405,-0.38
2021-08-19 05:41:22.540,0.415,-0.405
2021-08-19 05:41:22.544,0.42,-0.425
2021-08-19 05:41:22.548,0.435,-0.45
2021-08-19 05:41:22.552,0.435,-0.455
2021-08-19 05:41:22.556,0.415,-0.475
2021-08-19 05:41:22.560,0.42,-0.49
2021-08-19 05:41:22.564,0.43,-0.48
2021-08-19 05:41:22.568,0.41,-0.485
2021-08-19 05:41:22.572,0.415,-0.475
2021-08-19 05:41:22.576,0.42,-0.465
2021-08-19 05:41:22.580,0.41,-0.46
2021-08-19 05:41:22.584,0.415,-0.445
2021-08-19 05:41:22.588,0.42,-0.475
2021-08-19 05:41:22.592,0.41,-0.465
2021-08-19 05:41:22.596,0.41,-0.45
2021-08-19 05:41:22.600,0.425,-0.455
2021-08-19 05:41:22.604,0.41,-0.435
2021-08-19 05:41:22.608,0.405,-0.435
2021-08-19 05:41:22.612,0.42,-0.42
2021-08-19 05:41:22.616,0.42,-0.41
2021-08-19 05:41:22.620,0.41,-0.41
2021-08-19 05:41:22.624,0.41,-0.41
2021-08-19 05:41:22.628,0.43,-0.4
2021-08-19 05:41:22.632,0.43,-0.37
2021-08-19 05:41:22.636,0.42,-0.38
2021-08-19 05:41:22.640,0.42,-0.39
2021-08-19 05:41:22.644,0.43,-0.39
2021-08-19 05:41:22.648,0.45,-0.375
2021-08-19 05:41:22.652,0.455,-0.35
2021-08-19 05:41:22.656,0.485,-0.365
2021-08-19 05:41:22.660,0.465,-0.345
2021-08-19 05:41:22.664,0.49,-0.35
2021-08-19 05:41:22.668,0.505,-0.33
2021-08-19 05:41:22.672,0.49,-0.32
2021-08-19 05:41:22.676,0.51,-0.335
2021-08-19 05:41:22.680,0.51,-0.345
2021-08-19 05:41:22.684,0.51,-0.345
2021-08-19 05:41:22.688,0.505,-0.34
2021-08-19 05:41:22.692,0.52,-0.34
2021-08-19 05:41:22.696,0.52,-0.34
2021-08-19 05:41:22.700,0.515,-0.335
2021-08-19 05:41:22.704,0.505,-0.335
2021-08-19 05:41:22.708,0.51,-0.285
2021-08-19 05:41:22.712,0.495,-0.265
2021-08-19 05:41:22.716,0.495,-0.25
2021-08-19 05:41:22.720,0.505,-0.27
2021-08-19 05:41:22.724,0.505,-0.245
2021-08-19 05:41:22.728,0.52,-0.25
2021-08-19 05:41:22.732,0.515,-0.235
2021-08-19 05:41:22.736,0.59,-0.23
2021-08-19 05:41:22.740,0.635,-0.255
2021-08-19 05:41:22.744,0.625,-0.245
2021-08-19 05:41:22.748,0.615,-0.23
2021-08-19 05:41:22.752,0.62,-0.25
2021-08-19 05:41:22.756,0.6,-0.27
2021-08-19 05:41:22.760,0.57,-0.265
2021-08-19 05:41:22.764,0.535,-0.265
2021-08-19 05:41:22.768,0.49,-0.275
2021-08-19 05:41:22.772,0.445,-0.28
2021-08-19 05:41:22.776,0.405,-0.27
2021-08-19 05:41:22.780,0.37,-0.25
2021-08-19 05:41:22.784,0.33,-0.27
2021-08-19 05:41:22.788,0.335,-0.25
2021-08-19 05:41:22.792,0.33,-0.24
2021-08-19 05:41:22.796,0.33,-0.24
2021-08-19 05:41:22.800,0.31,-0.23
2021-08-19 05:41:22.804,0.315,-0.23
2021-08-19 05:41:22.808,0.29,-0.235
2021-08-19 05:41:22.812,0.305,-0.23
2021-08-19 05:41:22.816,0.305,-0.23
2021-08-19 05:41:22.820,0.295,-0.24
2021-08-19 05:41:22.824,0.32,-0.25
2021-08-19 05:41:22.828,0.295,-0.24
2021-08-19 05:41:22.832,0.31,-0.24
2021-08-19 05:41:22.836,0.32,-0.235
2021-08-19 05:41:22.840,0.305,-0.24
2021-08-19 05:41:22.844,0.32,-0.235
2021-08-19 05:41:22.848,0.325,-0.24
2021-08-19 05:41:22.852,0.32,-0.22
2021-08-19 05:41:22.856,0.325,-0.22
2021-08-19 05:41:22.860,0.325,-0.22
2021-08-19 05:41:22.864,0.33,-0.22
2021-08-19 05:41:22.868,0.34,-0.22
2021-08-19 05:41:22.872,0.35,-0.215
2021-08-19 05:41:22.876,0.355,-0.22
2021-08-19 05:41:22.880,0.365,-0.23
2021-08-19 05:41:22.884,0.375,-0.23
2021-08-19 05:41:22.888,0.355,-0.245
2021-08-19 05:41:22.892,0.37,-0.235
2021-08-19 05:41:22.896,0.375,-0.25
2021-08-19 05:41:22.900,0.4,-0.26
2021-08-19 05:41:22.904,0.36,-0.255
2021-08-19 05:41:22.908,0.395,-0.25
2021-08-19 05:41:22.912,0.37,-0.26
2021-08-19 05:41:22.916,0.38,-0.285
2021-08-19 05:41:22.920,0.395,-0.255
2021-08-19 05:41:22.924,0.365,-0.235
2021-08-19 05:41:22.928,0.34,-0.23
2021-08-19 05:41:22.932,0.37,-0.21
2021-08-19 05:41:22.936,0.36,-0.18
2021-08-19 05:41:22.940,0.355,-0.165
2021-08-19 05:41:22.944,0.355,-0.16
2021-08-19 05:41:22.948,0.355,-0.145
2021-08-19 05:41:22.952,0.36,-0.18
2021-08-19 05:41:22.956,0.405,-0.165
2021-08-19 05:41:22.960,0.465,-0.175
2021-08-19 05:41:22.964,0.49,-0.18
2021-08-19 05:41:22.968,0.5,-0.215
2021-08-19 05:41:22.972,0.5,-0.225
2021-08-19 05:41:22.976,0.49,-0.245
2021-08-19 05:41:22.980,0.46,-0.28
2021-08-19 05:41:22.984,0.455,-0.27
2021-08-19 05:41:22.988,0.385,-0.31
2021-08-19 05:41:22.992,0.365,-0.34
2021-08-19 05:41:22.996,0.33,-0.345
2021-08-19 05:41:23.000,0.315,-0.365
2021-08-19 05:41:23.004,0.315,-0.35
2021-08-19 05:41:23.008,0.31,-0.36
2021-08-19 05:41:23.012,0.275,-0.38
2021-08-19 05:41:23.016,0.28,-0.365
2021-08-19 05:41:23.020,0.295,-0.39
2021-08-19 05:41:23.024,0.29,-0.38
2021-08-19 05:41:23.028,0.255,-0.375
2021-08-19 05:41:23.032,0.295,-0.39
2021-08-19 05:41:23.036,0.28,-0.395
2021-08-19 05:41:23.040,0.275,-0.37
2021-08-19 05:41:23.044,0.265,-0.36
2021-08-19 05:41:23.048,0.265,-0.38
2021-08-19 05:41:23.052,0.26,-0.37
2021-08-19 05:41:23.056,0.255,-0.35
2021-08-19 05:41:23.060,0.26,-0.36
2021-08-19 05:41:23.064,0.275,-0.365
2021-08-19 05:41:23.068,0.26,-0.365
2021-08-19 05:41:23.072,0.285,-0.36
2021-08-19 05:41:23.076,0.29,-0.345
2021-08-19 05:41:23.080,0.285,-0.35
2021-08-19 05:41:23.084,0.305,-0.335
2021-08-19 05:41:23.088,0.295,-0.33
2021-08-19 05:41:23.092,0.305,-0.33
2021-08-19 05:41:23.096,0.305,-0.335
2021-08-19 05:41:23.100,0.325,-0.325
2021-08-19 05:41:23.104,0.31,-0.32
2021-08-19 05:41:23.108,0.305,-0.345
2021-08-19 05:41:23.112,0.335,-0.36
2021-08-19 05:41:23.116,0.33,-0.35
2021-08-19 05:41:23.120,0.325,-0.365
2021-08-19 05:41:23.124,0.345,-0.34
2021-08-19 05:41:23.128,0.33,-0.355
2021-08-19 05:41:23.132,0.345,-0.37
2021-08-19 05:41:23.136,0.325,-0.355
2021-08-19 05:41:23.140,0.34,-0.36
2021-08-19 05:41:23.144,0.345,-0.345
2021-08-19 05:41:23.148,0.345,-0.345
2021-08-19 05:41:23.152,0.34,-0.34
2021-08-19 05:41:23.156,0.33,-0.32
2021-08-19 05:41:23.160,0.3,-0.315
2021-08-19 05:41:23.164,0.335,-0.33
2021-08-19 05:41:23.168,0.345,-0.325
2021-08-19 05:41:23.172,0.335,-0.32
2021-08-19 05:41:23.176,0.37,-0.305
2021-08-19 05:41:23.180,0.385,-0.295
2021-08-19 05:41:23.184,0.4,-0.26
2021-08-19 05:41:23.188,0.42,-0.24
2021-08-19 05:41:23.192,0.44,-0.24
2021-08-19 05:41:23.196,0.465,-0.245
2021-08-19 05:41:23.200,0.46,-0.255
2021-08-19 05:41:23.204,0.44,-0.26
2021-08-19 05:41:23.208,0.41,-0.295
2021-08-19 05:41:23.212,0.4,-0.285
2021-08-19 05:41:23.216,0.35,-0.32
2021-08-19 05:41:23.220,0.315,-0.335
2021-08-19 05:41:23.224,0.305,-0.355
2021-08-19 05:41:23.228,0.29,-0.365
2021-08-19 05:41:23.232,0.3,-0.39
2021-08-19 05:41:23.236,0.27,-0.37
2021-08-19 05:41:23.240,0.295,-0.37
2021-08-19 05:41:23.244,0.285,-0.38
2021-08-19 05:41:23.248,0.305,-0.37
2021-08-19 05:41:23.252,0.29,-0.36
2021-08-19 05:41:23.256,0.275,-0.37
2021-08-19 05:41:23.260,0.285,-0.36
2021-08-19 05:41:23.264,0.28,-0.365
2021-08-19 05:41:23.268,0.295,-0.355
2021-08-19 05:41:23.272,0.285,-0.365
2021-08-19 05:41:23.276,0.295,-0.345
2021-08-19 05:41:23.280,0.295,-0.365
2021-08-19 05:41:23.284,0.31,-0.33
2021-08-19 05:41:23.288,0.305,-0.335
2021-08-19 05:41:23.292,0.29,-0.35
2021-08-19 05:41:23.296,0.29,-0.315
2021-08-19 05:41:23.300,0.295,-0.3
2021-08-19 05:41:23.304,0.325,-0.315
2021-08-19 05:41:23.308,0.325,-0.295
2021-08-19 05:41:23.312,0.32,-0.285
2021-08-19 05:41:23.316,0.335,-0.28
2021-08-19 05:41:23.320,0.33,-0.285
2021-08-19 05:41:23.324,0.325,-0.275
2021-08-19 05:41:23.328,0.355,-0.295
2021-08-19 05:41:23.332,0.36,-0.31
2021-08-19 05:41:23.336,0.365,-0.3
2021-08-19 05:41:23.340,0.335,-0.32
2021-08-19 05:41:23.344,0.35,-0.34
2021-08-19 05:41:23.348,0.36,-0.37
2021-08-19 05:41:23.352,0.365,-0.39
2021-08-19 05:41:23.356,0.36,-0.36
2021-08-19 05:41:23.360,0.365,-0.365
2021-08-19 05:41:23.364,0.345,-0.33
2021-08-19 05:41:23.368,0.355,-0.315
2021-08-19 05:41:23.372,0.345,-0.315
2021-08-19 05:41:23.376,0.33,-0.31
2021-08-19 05:41:23.380,0.33,-0.305
2021-08-19 05:41:23.384,0.325,-0.29
2021-08-19 05:41:23.388,0.335,-0.3
2021-08-19 05:41:23.392,0.36,-0.275
2021-08-19 05:41:23.396,0.365,-0.22
2021-08-19 05:41:23.400,0.405,-0.15
2021-08-19 05:41:23.404,0.405,-0.095
2021-08-19 05:41:23.408,0.415,-0.04
2021-08-19 05:41:23.412,0.42,0.06
2021-08-19 05:41:23.416,0.42,0.29
2021-08-19 05:41:23.420,0.465,0.545
2021-08-19 05:41:23.424,0.53,0.735
2021-08-19 05:41:23.428,0.55,0.82
2021-08-19 05:41:23.432,0.52,0.705
2021-08-19 05:41:23.436,0.47,0.55
2021-08-19 05:41:23.440,0.41,0.325
2021-08-19 05:41:23.444,0.38,0.015
2021-08-19 05:41:23.448,0.255,-0.365
2021-08-19 05:41:23.452,0.065,-0.635
2021-08-19 05:41:23.456,-0.22,-0.54
2021-08-19 05:41:23.460,-0.565,-0.21
2021-08-19 05:41:23.464,-0.845,-0.025
2021-08-19 05:41:23.468,-0.99,-0.17
2021-08-19 05:41:23.472,-1.055,-0.43
2021-08-19 05:41:23.476,-0.95,-0.615
2021-08-19 05:41:23.480,-0.63,-0.745
2021-08-19 05:41:23.484,-0.185,-0.745
2021-08-19 05:41:23.488,0.095,-0.67
2021-08-19 05:41:23.492,0.18,-0.585
2021-08-19 05:41:23.496,0.15,-0.49
2021-08-19 05:41:23.500,0.13,-0.475
2021-08-19 05:41:23.504,0.115,-0.455
2021-08-19 05:41:23.508,0.135,-0.485
2021-08-19 05:41:23.512,0.145,-0.485
2021-08-19 05:41:23.516,0.21,-0.455
2021-08-19 05:41:23.520,0.27,-0.44
2021-08-19 05:41:23.524,0.315,-0.435
2021-08-19 05:41:23.528,0.355,-0.44
2021-08-19 05:41:23.532,0.355,-0.425
2021-08-19 05:41:23.536,0.37,-0.41
2021-08-19 05:41:23.540,0.37,-0.41
2021-08-19 05:41:23.544,0.38,-0.41
2021-08-19 05:41:23.548,0.37,-0.43
2021-08-19 05:41:23.552,0.4,-0.44
2021-08-19 05:41:23.556,0.42,-0.455
2021-08-19 05:41:23.560,0.415,-0.47
2021-08-19 05:41:23.564,0.41,-0.495
2021-08-19 05:41:23.568,0.41,-0.48
2021-08-19 05:41:23.572,0.415,-0.495
2021-08-19 05:41:23.576,0.4,-0.495
2021-08-19 05:41:23.580,0.39,-0.495
2021-08-19 05:41:23.584,0.425,-0.465
2021-08-19 05:41:23.588,0.415,-0.455
2021-08-19 05:41:23.592,0.39,-0.435
2021-08-19 05:41:23.596,0.395,-0.43
2021-08-19 05:41:23.600,0.38,-0.43
2021-08-19 05:41:23.604,0.38,-0.42
2021-08-19 05:41:23.608,0.405,-0.405
2021-08-19 05:41:23.612,0.425,-0.405
2021-08-19 05:41:23.616,0.445,-0.435
2021-08-19 05:41:23.620,0.475,-0.42
2021-08-19 05:41:23.624,0.46,-0.425
2021-08-19 05:41:23.628,0.48,-0.425
2021-08-19 05:41:23.632,0.49,-0.415
2021-08-19 05:41:23.636,0.505,-0.415
2021-08-19 05:41:23.640,0.495,-0.41
2021-08-19 05:41:23.644,0.515,-0.405
2021-08-19 05:41:23.648,0.53,-0.405
2021-08-19 05:41:23.652,0.515,-0.395
2021-08-19 05:41:23.656,0.535,-0.385
2021-08-19 05:41:23.660,0.51,-0.39
2021-08-19 05:41:23.664,0.465,-0.42
2021-08-19 05:41:23.668,0.43,-0.425
2021-08-19 05:41:23.672,0.41,-0.435
2021-08-19 05:41:23.676,0.395,-0.44
2021-08-19 05:41:23.680,0.375,-0.46
2021-08-19 05:41:23.684,0.38,-0.465
2021-08-19 05:41:23.688,0.37,-0.465
2021-08-19 05:41:23.692,0.375,-0.485
2021-08-19 05:41:23.696,0.36,-0.48
2021-08-19 05:41:23.700,0.365,-0.485
2021-08-19 05:41:23.704,0.36,-0.47
2021-08-19 05:41:23.708,0.36,-0.45
2021-08-19 05:41:23.712,0.345,-0.445
2021-08-19 05:41:23.716,0.35,-0.43
2021-08-19 05:41:23.720,0.325,-0.43
2021-08-19 05:41:23.724,0.34,-0.4
2021-08-19 05:41:23.728,0.36,-0.39
2021-08-19 05:41:23.732,0.35,-0.37
2021-08-19 05:41:23.736,0.35,-0.365
2021-08-19 05:41:23.740,0.37,-0.34
2021-08-19 05:41:23.744,0.365,-0.325
2021-08-19 05:41:23.748,0.34,-0.3
2021-08-19 05:41:23.752,0.365,-0.27
2021-08-19 05:41:23.756,0.36,-0.24
2021-08-19 05:41:23.760,0.345,-0.24
2021-08-19 05:41:23.764,0.35,-0.25
2021-08-19 05:41:23.768,0.365,-0.25
2021-08-19 05:41:23.772,0.35,-0.22
2021-08-19 05:41:23.776,0.34,-0.23
2021-08-19 05:41:23.780,0.375,-0.27
2021-08-19 05:41:23.784,0.36,-0.26
2021-08-19 05:41:23.788,0.39,-0.25
2021-08-19 05:41:23.792,0.38,-0.255
2021-08-19 05:41:23.796,0.355,-0.26
2021-08-19 05:41:23.800,0.355,-0.275
2021-08-19 05:41:23.804,0.375,-0.255
2021-08-19 05:41:23.808,0.36,-0.235
2021-08-19 05:41:23.812,0.36,-0.22
2021-08-19 05:41:23.816,0.355,-0.235
2021-08-19 05:41:23.820,0.355,-0.21
2021-08-19 05:41:23.824,0.345,-0.195
2021-08-19 05:41:23.828,0.36,-0.18
2021-08-19 05:41:23.832,0.365,-0.18
2021-08-19 05:41:23.836,0.385,-0.145
2021-08-19 05:41:23.840,0.39,-0.135
2021-08-19 05:41:23.844,0.425,-0.15
2021-08-19 05:41:23.848,0.43,-0.135
2021-08-19 05:41:23.852,0.465,-0.145
2021-08-19 05:41:23.856,0.48,-0.155
2021-08-19 05:41:23.860,0.505,-0.18
2021-08-19 05:41:23.864,0.505,-0.165
2021-08-19 05:41:23.868,0.52,-0.16
2021-08-19 05:41:23.872,0.495,-0.18
2021-08-19 05:41:23.876,0.47,-0.2
2021-08-19 05:41:23.880,0.41,-0.21
2021-08-19 05:41:23.884,0.395,-0.235
2021-08-19 05:41:23.888,0.375,-0.235
2021-08-19 05:41:23.892,0.355,-0.255
2021-08-19 05:41:23.896,0.31,-0.265
2021-08-19 05:41:23.900,0.285,-0.28
2021-08-19 05:41:23.904,0.305,-0.295
2021-08-19 05:41:23.908,0.285,-0.315
2021-08-19 05:41:23.912,0.27,-0.295
2021-08-19 05:41:23.916,0.28,-0.305
2021-08-19 05:41:23.920,0.275,-0.305
2021-08-19 05:41:23.924,0.275,-0.285
2021-08-19 05:41:23.928,0.26,-0.28
2021-08-19 05:41:23.932,0.275,-0.275
2021-08-19 05:41:23.936,0.26,-0.265
2021-08-19 05:41:23.940,0.27,-0.25
2021-08-19 05:41:23.944,0.285,-0.205
2021-08-19 05:41:23.948,0.28,-0.165
2021-08-19 05:41:23.952,0.285,-0.15
2021-08-19 05:41:23.956,0.315,-0.13
2021-08-19 05:41:23.960,0.31,-0.05
2021-08-19 05:41:23.964,0.295,0.04
2021-08-19 05:41:23.968,0.33,0.16
2021-08-19 05:41:23.972,0.33,0.21
2021-08-19 05:41:23.976,0.355,0.17
2021-08-19 05:41:23.980,0.355,0.03
2021-08-19 05:41:23.984,0.295,-0.225
2021-08-19 05:41:23.988,0.235,-0.515
2021-08-19 05:41:23.992,0.17,-0.775
2021-08-19 05:41:23.996,0.09,-1.035
2021-08-19 05:41:24.000,0.02,-1.125
2021-08-19 05:41:24.004,-0.095,-1.0
2021-08-19 05:41:24.008,-0.18,-0.8
2021-08-19 05:41:24.012,-0.205,-0.74
2021-08-19 05:41:24.016,-0.19,-0.88
2021-08-19 05:41:24.020,-0.115,-1.09
2021-08-19 05:41:24.024,0.06,-1.24
2021-08-19 05:41:24.028,0.365,-1.305
2021-08-19 05:41:24.032,0.73,-1.285
2021-08-19 05:41:24.036,0.945,-1.16
2021-08-19 05:41:24.040,1.015,-1.01
2021-08-19 05:41:24.044,0.935,-0.84
2021-08-19 05:41:24.048,0.855,-0.74
2021-08-19 05:41:24.052,0.81,-0.69
2021-08-19 05:41:24.056,0.825,-0.61
2021-08-19 05:41:24.060,0.925,-0.56
2021-08-19 05:41:24.064,1.045,-0.5
2021-08-19 05:41:24.068,1.1,-0.45
2021-08-19 05:41:24.072,1.17,-0.435
2021-08-19 05:41:24.076,1.23,-0.44
2021-08-19 05:41:24.080,1.235,-0.445
2021-08-19 05:41:24.084,1.21,-0.385
2021-08-19 05:41:24.088,1.18,-0.31
2021-08-19 05:41:24.092,1.15,-0.26
2021-08-19 05:41:24.096,1.06,-0.255
2021-08-19 05:41:24.100,0.92,-0.28
2021-08-19 05:41:24.104,0.745,-0.275
2021-08-19 05:41:24.108,0.55,-0.27
2021-08-19 05:41:24.112,0.39,-0.28
2021-08-19 05:41:24.116,0.28,-0.285
2021-08-19 05:41:24.120,0.24,-0.28
2021-08-19 05:41:24.124,0.195,-0.27
2021-08-19 05:41:24.128,0.19,-0.28
2021-08-19 05:41:24.132,0.175,-0.305
2021-08-19 05:41:24.136,0.15,-0.305
2021-08-19 05:41:24.140,0.16,-0.285
2021-08-19 05:41:24.144,0.115,-0.29
2021-08-19 05:41:24.148,0.11,-0.29
2021-08-19 05:41:24.152,0.1,-0.295
2021-08-19 05:41:24.156,0.1,-0.295
2021-08-19 05:41:24.160,0.095,-0.31
2021-08-19 05:41:24.164,0.09,-0.305
2021-08-19 05:41:24.168,0.1,-0.295
2021-08-19 05:41:24.172,0.095,-0.28
2021-08-19 05:41:24.176,0.1,-0.27
2021-08-19 05:41:24.180,0.095,-0.26
2021-08-19 05:41:24.184,0.09,-0.26
2021-08-19 05:41:24.188,0.09,-0.265
2021-08-19 05:41:24.192,0.08,-0.25
2021-08-19 05:41:24.196,0.075,-0.24
2021-08-19 05:41:24.200,0.075,-0.225
2021-08-19 05:41:24.204,0.035,-0.225
2021-08-19 05:41:24.208,0.04,-0.205
2021-08-19 05:41:24.212,0.04,-0.22
2021-08-19 05:41:24.216,0.045,-0.2
2021-08-19 05:41:24.220,0.025,-0.2
2021-08-19 05:41:24.224,0.045,-0.19
2021-08-19 05:41:24.228,0.035,-0.19
2021-08-19 05:41:24.232,0.045,-0.175
2021-08-19 05:41:24.236,0.035,-0.165
2021-08-19 05:41:24.240,0.055,-0.16
2021-08-19 05:41:24.244,0.06,-0.165
2021-08-19 05:41:24.248,0.035,-0.16
2021-08-19 05:41:24.252,0.045,-0.125
2021-08-19 05:41:24.256,0.045,-0.115
2021-08-19 05:41:24.260,0.04,-0.125
2021-08-19 05:41:24.264,0.055,-0.14
2021-08-19 05:41:24.268,0.04,-0.1
2021-08-19 05:41:24.272,0.055,-0.08
2021-08-19 05:41:24.276,0.03,-0.085
2021-08-19 05:41:24.280,0.045,-0.045
2021-08-19 05:41:24.284,0.035,-0.035
2021-08-19 05:41:24.288,0.035,0.015
2021-08-19 05:41:24.292,0.015,0.04
2021-08-19 05:41:24.296,0.01,0.035
2021-08-19 05:41:24.300,0.005,0.01
2021-08-19 05:41:24.304,0.005,0.015
2021-08-19 05:41:24.308,0.035,0.03
2021-08-19 05:41:24.312,0.07,0.015
2021-08-19 05:41:24.316,0.095,0.01
2021-08-19 05:41:24.320,0.135,0.005
2021-08-19 05:41:24.324,0.15,-0.01
2021-08-19 05:41:24.328,0.15,-0.03
2021-08-19 05:41:24.332,0.145,-0.045
2021-08-19 05:41:24.336,0.12,-0.095
2021-08-19 05:41:24.340,0.1,-0.12
2021-08-19 05:41:24.344,0.095,-0.12
2021-08-19 05:41:24.348,0.09,-0.14
2021-08-19 05:41:24.352,0.08,-0.16
2021-08-19 05:41:24.356,0.09,-0.18
2021-08-19 05:41:24.360,0.11,-0.21
2021-08-19 05:41:24.364,0.125,-0.205
2021-08-19 05:41:24.368,0.135,-0.2
2021-08-19 05:41:24.372,0.14,-0.21
2021-08-19 05:41:24.376,0.155,-0.21
2021-08-19 05:41:24.380,0.175,-0.24
2021-08-19 05:41:24.384,0.165,-0.24
2021-08-19 05:41:24.388,0.2,-0.24
2021-08-19 05:41:24.392,0.22,-0.215
2021-08-19 05:41:24.396,0.22,-0.215
2021-08-19 05:41:24.400,0.245,-0.225
2021-08-19 05:41:24.404,0.235,-0.2
2021-08-19 05:41:24.408,0.27,-0.22
2021-08-19 05:41:24.412,0.275,-0.205
2021-08-19 05:41:24.416,0.28,-0.205
2021-08-19 05:41:24.420,0.27,-0.195
2021-08-19 05:41:24.424,0.3,-0.195
2021-08-19 05:41:24.428,0.295,-0.205
2021-08-19 05:41:24.432,0.3,-0.22
2021-08-19 05:41:24.436,0.3,-0.235
2021-08-19 05:41:24.440,0.305,-0.21
2021-08-19 05:41:24.444,0.295,-0.21
2021-08-19 05:41:24.448,0.33,-0.21
2021-08-19 05:41:24.452,0.325,-0.2
2021-08-19 05:41:24.456,0.325,-0.22
2021-08-19 05:41:24.460,0.325,-0.22
2021-08-19 05:41:24.464,0.325,-0.215
2021-08-19 05:41:24.468,0.325,-0.21
2021-08-19 05:41:24.472,0.32,-0.22
2021-08-19 05:41:24.476,0.34,-0.21
2021-08-19 05:41:24.480,0.35,-0.235
2021-08-19 05:41:24.484,0.35,-0.215
2021-08-19 05:41:24.488,0.36,-0.21
2021-08-19 05:41:24.492,0.33,-0.2
2021-08-19 05:41:24.496,0.36,-0.225
2021-08-19 05:41:24.500,0.355,-0.225
2021-08-19 05:41:24.504,0.38,-0.21
2021-08-19 05:41:24.508,0.355,-0.23
2021-08-19 05:41:24.512,0.375,-0.24
2021-08-19 05:41:24.516,0.37,-0.25
2021-08-19 05:41:24.520,0.4,-0.27
2021-08-19 05:41:24.524,0.38,-0.27
2021-08-19 05:41:24.528,0.375,-0.265
2021-08-19 05:41:24.532,0.355,-0.25
2021-08-19 05:41:24.536,0.4,-0.22
2021-08-19 05:41:24.540,0.42,-0.2
2021-08-19 05:41:24.544,0.4,-0.17
2021-08-19 05:41:24.548,0.42,-0.185
2021-08-19 05:41:24.552,0.43,-0.175
2021-08-19 05:41:24.556,0.46,-0.185
2021-08-19 05:41:24.560,0.5,-0.195
2021-08-19 05:41:24.564,0.505,-0.23
2021-08-19 05:41:24.568,0.505,-0.255
2021-08-19 05:41:24.572,0.46,-0.275
2021-08-19 05:41:24.576,0.405,-0.28
2021-08-19 05:41:24.580,0.38,-0.285
2021-08-19 05:41:24.584,0.37,-0.305
2021-08-19 05:41:24.588,0.345,-0.3
2021-08-19 05:41:24.592,0.345,-0.3
2021-08-19 05:41:24.596,0.34,-0.3
2021-08-19 05:41:24.600,0.325,-0.265
2021-08-19 05:41:24.604,0.335,-0.25
2021-08-19 05:41:24.608,0.32,-0.245
2021-08-19 05:41:24.612,0.31,-0.19
2021-08-19 05:41:24.616,0.31,-0.15
2021-08-19 05:41:24.620,0.305,-0.095
2021-08-19 05:41:24.624,0.325,-0.065
2021-08-19 05:41:24.628,0.325,0.005
2021-08-19 05:41:24.632,0.325,0.185
2021-08-19 05:41:24.636,0.34,0.49
2021-08-19 05:41:24.640,0.34,0.82
2021-08-19 05:41:24.644,0.39,1.055
2021-08-19 05:41:24.648,0.41,1.135
2021-08-19 05:41:24.652,0.37,1.135
2021-08-19 05:41:24.656,0.335,1.025
2021-08-19 05:41:24.660,0.33,0.75
2021-08-19 05:41:24.664,0.295,0.37
2021-08-19 05:41:24.668,0.255,-0.1
2021-08-19 05:41:24.672,0.115,-0.405
2021-08-19 05:41:24.676,-0.12,-0.345
2021-08-19 05:41:24.680,-0.43,-0.055
2021-08-19 05:41:24.684,-0.71,0.125
2021-08-19 05:41:24.688,-0.91,0.0
2021-08-19 05:41:24.692,-0.975,-0.235
2021-08-19 05:41:24.696,-0.945,-0.435
2021-08-19 05:41:24.700,-0.695,-0.58
2021-08-19 05:41:24.704,-0.275,-0.635
2021-08-19 05:41:24.708,0.065,-0.64
2021-08-19 05:41:24.712,0.235,-0.52
2021-08-19 05:41:24.716,0.29,-0.41
2021-08-19 05:41:24.720,0.24,-0.355
2021-08-19 05:41:24.724,0.22,-0.33
2021-08-19 05:41:24.728,0.185,-0.325
2021-08-19 05:41:24.732,0.235,-0.365
2021-08-19 05:41:24.736,0.265,-0.355
2021-08-19 05:41:24.740,0.31,-0.36
2021-08-19 05:41:24.744,0.36,-0.38
2021-08-19 05:41:24.748,0.39,-0.395
2021-08-19 05:41:24.752,0.46,-0.415
2021-08-19 05:41:24.756,0.465,-0.435
2021-08-19 05:41:24.760,0.465,-0.43
2021-08-19 05:41:24.764,0.48,-0.415
2021-08-19 05:41:24.768,0.49,-0.425
2021-08-19 05:41:24.772,0.495,-0.41
2021-08-19 05:41:24.776,0.45,-0.395
2021-08-19 05:41:24.780,0.465,-0.385
2021-08-19 05:41:24.784,0.47,-0.4
2021-08-19 05:41:24.788,0.485,-0.395
2021-08-19 05:41:24.792,0.495,-0.38
2021-08-19 05:41:24.796,0.515,-0.4
2021-08-19 05:41:24.800,0.5,-0.4
2021-08-19 05:41:24.804,0.52,-0.4
2021-08-19 05:41:24.808,0.515,-0.395
2021-08-19 05:41:24.812,0.51,-0.375
2021-08-19 05:41:24.816,0.52,-0.39
2021-08-19 05:41:24.820,0.51,-0.39
2021-08-19 05:41:24.824,0.5,-0.395
2021-08-19 05:41:24.828,0.49,-0.405
2021-08-19 05:41:24.832,0.515,-0.405
2021-08-19 05:41:24.836,0.51,-0.385
2021-08-19 05:41:24.840,0.525,-0.38
2021-08-19 05:41:24.844,0.515,-0.355
2021-08-19 05:41:24.848,0.495,-0.355
2021-08-19 05:41:24.852,0.505,-0.355
2021-08-19 05:41:24.856,0.515,-0.365
2021-08-19 05:41:24.860,0.505,-0.37
2021-08-19 05:41:24.864,0.51,-0.38
2021-08-19 05:41:24.868,0.53,-0.385
2021-08-19 05:41:24.872,0.53,-0.395
2021-08-19 05:41:24.876,0.505,-0.4
2021-08-19 05:41:24.880,0.53,-0.39
2021-08-19 05:41:24.884,0.53,-0.385
2021-08-19 05:41:24.888,0.53,-0.345
2021-08-19 05:41:24.892,0.52,-0.335
2021-08-19 05:41:24.896,0.54,-0.34
2021-08-19 05:41:24.900,0.495,-0.325
2021-08-19 05:41:24.904,0.46,-0.34
2021-08-19 05:41:24.908,0.47,-0.35
2021-08-19 05:41:24.912,0.45,-0.34
2021-08-19 05:41:24.916,0.455,-0.32
2021-08-19 05:41:24.920,0.44,-0.345
2021-08-19 05:41:24.924,0.395,-0.315
2021-08-19 05:41:24.928,0.415,-0.31
2021-08-19 05:41:24.932,0.41,-0.3
2021-08-19 05:41:24.936,0.4,-0.29
2021-08-19 05:41:24.940,0.415,-0.265
2021-08-19 05:41:24.944,0.4,-0.25
2021-08-19 05:41:24.948,0.395,-0.24
2021-08-19 05:41:24.952,0.395,-0.21
2021-08-19 05:41:24.956,0.395,-0.2
2021-08-19 05:41:24.960,0.39,-0.215
2021-08-19 05:41:24.964,0.39,-0.205
2021-08-19 05:41:24.968,0.405,-0.205
2021-08-19 05:41:24.972,0.395,-0.23
2021-08-19 05:41:24.976,0.4,-0.25
2021-08-19 05:41:24.980,0.395,-0.275
2021-08-19 05:41:24.984,0.365,-0.26
2021-08-19 05:41:24.988,0.37,-0.255
2021-08-19 05:41:24.992,0.35,-0.24
2021-08-19 05:41:24.996,0.36,-0.22
2021-08-19 05:41:25.000,0.35,-0.18
2021-08-19 05:41:25.004,0.325,-0.195
2021-08-19 05:41:25.008,0.33,-0.175
2021-08-19 05:41:25.012,0.33,-0.145
2021-08-19 05:41:25.016,0.315,-0.185
2021-08-19 05:41:25.020,0.315,-0.185
2021-08-19 05:41:25.024,0.33,-0.175
2021-08-19 05:41:25.028,0.335,-0.195
2021-08-19 05:41:25.032,0.335,-0.17
2021-08-19 05:41:25.036,0.325,-0.165
2021-08-19 05:41:25.040,0.335,-0.15
2021-08-19 05:41:25.044,0.345,-0.15
2021-08-19 05:41:25.048,0.35,-0.15
2021-08-19 05:41:25.052,0.325,-0.15
2021-08-19 05:41:25.056,0.335,-0.15
2021-08-19 05:41:25.060,0.335,-0.145
2021-08-19 05:41:25.064,0.36,-0.165
2021-08-19 05:41:25.068,0.345,-0.16
2021-08-19 05:41:25.072,0.36,-0.15
2021-08-19 05:41:25.076,0.37,-0.17
2021-08-19 05:41:25.080,0.375,-0.165
2021-08-19 05:41:25.084,0.38,-0.185
2021-08-19 05:41:25.088,0.375,-0.185
2021-08-19 05:41:25.092,0.37,-0.195
2021-08-19 05:41:25.096,0.35,-0.22
2021-08-19 05:41:25.100,0.385,-0.225
2021-08-19 05:41:25.104,0.39,-0.24
2021-08-19 05:41:25.108,0.42,-0.24
2021-08-19 05:41:25.112,0.41,-0.25
2021-08-19 05:41:25.116,0.39,-0.26
2021-08-19 05:41:25.120,0.385,-0.27
2021-08-19 05:41:25.124,0.395,-0.28
2021-08-19 05:41:25.128,0.38,-0.265
2021-08-19 05:41:25.132,0.36,-0.28
2021-08-19 05:41:25.136,0.37,-0.265
2021-08-19 05:41:25.140,0.35,-0.265
2021-08-19 05:41:25.144,0.36,-0.255
2021-08-19 05:41:25.148,0.345,-0.26
2021-08-19 05:41:25.152,0.365,-0.255
2021-08-19 05:41:25.156,0.375,-0.24
2021-08-19 05:41:25.160,0.365,-0.255
2021-08-19 05:41:25.164,0.36,-0.255
2021-08-19 05:41:25.168,0.375,-0.24
2021-08-19 05:41:25.172,0.385,-0.23
2021-08-19 05:41:25.176,0.405,-0.225
2021-08-19 05:41:25.180,0.39,-0.215
2021-08-19 05:41:25.184,0.35,-0.21
2021-08-19 05:41:25.188,0.32,-0.225
2021-08-19 05:41:25.192,0.315,-0.23
2021-08-19 05:41:25.196,0.295,-0.25
2021-08-19 05:41:25.200,0.31,-0.275
2021-08-19 05:41:25.204,0.315,-0.285
2021-08-19 05:41:25.208,0.285,-0.285
2021-08-19 05:41:25.212,0.27,-0.28
2021-08-19 05:41:25.216,0.28,-0.265
2021-08-19 05:41:25.220,0.27,-0.25
2021-08-19 05:41:25.224,0.275,-0.235
2021-08-19 05:41:25.228,0.255,-0.215
2021-08-19 05:41:25.232,0.26,-0.215
2021-08-19 05:41:25.236,0.26,-0.22
2021-08-19 05:41:25.240,0.27,-0.22
2021-08-19 05:41:25.244,0.265,-0.2
2021-08-19 05:41:25.248,0.26,-0.21
2021-08-19 05:41:25.252,0.275,-0.185
2021-08-19 05:41:25.256,0.27,-0.15
2021-08-19 05:41:25.260,0.28,-0.12
2021-08-19 05:41:25.264,0.275,-0.045
2021-08-19 05:41:25.268,0.295,-0.005
2021-08-19 05:41:25.272,0.3,0.05
2021-08-19 05:41:25.276,0.285,0.23
2021-08-19 05:41:25.280,0.28,0.525
2021-08-19 05:41:25.284,0.28,0.85
2021-08-19 05:41:25.288,0.33,1.08
2021-08-19 05:41:25.292,0.335,1.15
2021-08-19 05:41:25.296,0.335,1.075
2021-08-19 05:41:25.300,0.315,0.925
2021-08-19 05:41:25.304,0.275,0.695
2021-08-19 05:41:25.308,0.27,0.36
2021-08-19 05:41:25.312,0.225,-0.055
2021-08-19 05:41:25.316,0.145,-0.38
2021-08-19 05:41:25.320,-0.085,-0.355
2021-08-19 05:41:25.324,-0.43,-0.105
2021-08-19 05:41:25.328,-0.77,0.125
2021-08-19 05:41:25.332,-1.015,0.055
2021-08-19 05:41:25.336,-1.15,-0.175
2021-08-19 05:41:25.340,-1.14,-0.38
2021-08-19 05:41:25.344,-0.935,-0.53
2021-08-19 05:41:25.348,-0.56,-0.64
2021-08-19 05:41:25.352,-0.135,-0.66
2021-08-19 05:41:25.356,0.15,-0.555
2021-08-19 05:41:25.360,0.225,-0.465
2021-08-19 05:41:25.364,0.2,-0.395
2021-08-19 05:41:25.368,0.195,-0.365
2021-08-19 05:41:25.372,0.165,-0.35
2021-08-19 05:41:25.376,0.17,-0.345
2021-08-19 05:41:25.380,0.2,-0.38
2021-08-19 05:41:25.384,0.255,-0.405
2021-08-19 05:41:25.388,0.305,-0.395
2021-08-19 05:41:25.392,0.335,-0.42
2021-08-19 05:41:25.396,0.385,-0.41
2021-08-19 05:41:25.400,0.4,-0.415
2021-08-19 05:41:25.404,0.44,-0.425
2021-08-19 05:41:25.408,0.42,-0.41
2021-08-19 05:41:25.412,0.415,-0.41
2021-08-19 05:41:25.416,0.445,-0.405
2021-08-19 05:41:25.420,0.46,-0.4
2021-08-19 05:41:25.424,0.46,-0.385
2021-08-19 05:41:25.428,0.46,-0.38
2021-08-19 05:41:25.432,0.465,-0.38
2021-08-19 05:41:25.436,0.425,-0.36
2021-08-19 05:41:25.440,0.395,-0.36
2021-08-19 05:41:25.444,0.41,-0.345
2021-08-19 05:41:25.448,0.395,-0.33
2021-08-19 05:41:25.452,0.365,-0.31
2021-08-19 05:41:25.456,0.365,-0.3
2021-08-19 05:41:25.460,0.35,-0.285
2021-08-19 05:41:25.464,0.34,-0.28
2021-08-19 05:41:25.468,0.355,-0.28
2021-08-19 05:41:25.472,0.385,-0.275
2021-08-19 05:41:25.476,0.375,-0.265
2021-08-19 05:41:25.480,0.395,-0.28
2021-08-19 05:41:25.484,0.395,-0.285
2021-08-19 05:41:25.488,0.395,-0.285
2021-08-19 05:41:25.492,0.39,-0.27
2021-08-19 05:41:25.496,0.4,-0.26
2021-08-19 05:41:25.500,0.4,-0.28
2021-08-19 05:41:25.504,0.395,-0.26
2021-08-19 05:41:25.508,0.395,-0.245
2021-08-19 05:41:25.512,0.4,-0.24
2021-08-19 05:41:25.516,0.4,-0.25
2021-08-19 05:41:25.520,0.42,-0.245
2021-08-19 05:41:25.524,0.435,-0.245
2021-08-19 05:41:25.528,0.435,-0.22
2021-08-19 05:41:25.532,0.41,-0.225
2021-08-19 05:41:25.536,0.42,-0.26
2021-08-19 05:41:25.540,0.42,-0.27
2021-08-19 05:41:25.544,0.405,-0.28
2021-08-19 05:41:25.548,0.43,-0.285
2021-08-19 05:41:25.552,0.45,-0.29
2021-08-19 05:41:25.556,0.435,-0.285
2021-08-19 05:41:25.560,0.435,-0.275
2021-08-19 05:41:25.564,0.445,-0.245
2021-08-19 05:41:25.568,0.44,-0.265
2021-08-19 05:41:25.572,0.43,-0.22
2021-08-19 05:41:25.576,0.415,-0.225
2021-08-19 05:41:25.580,0.43,-0.215
2021-08-19 05:41:25.584,0.405,-0.22
2021-08-19 05:41:25.588,0.45,-0.205
2021-08-19 05:41:25.592,0.425,-0.2
2021-08-19 05:41:25.596,0.41,-0.18
2021-08-19 05:41:25.600,0.435,-0.175
2021-08-19 05:41:25.604,0.415,-0.16
2021-08-19 05:41:25.608,0.415,-0.155
2021-08-19 05:41:25.612,0.43,-0.145
2021-08-19 05:41:25.616,0.405,-0.135
2021-08-19 05:41:25.620,0.37,-0.145
2021-08-19 05:41:25.624,0.395,-0.135
2021-08-19 05:41:25.628,0.4,-0.15
2021-08-19 05:41:25.632,0.38,-0.15
2021-08-19 05:41:25.636,0.375,-0.135
2021-08-19 05:41:25.640,0.355,-0.13
2021-08-19 05:41:25.644,0.375,-0.115
2021-08-19 05:41:25.648,0.38,-0.085
2021-08-19 05:41:25.652,0.375,-0.095
2021-08-19 05:41:25.656,0.375,-0.105
2021-08-19 05:41:25.660,0.365,-0.13
2021-08-19 05:41:25.664,0.4,-0.155
2021-08-19 05:41:25.668,0.425,-0.155
2021-08-19 05:41:25.672,0.425,-0.14
2021-08-19 05:41:25.676,0.45,-0.125
2021-08-19 05:41:25.680,0.445,-0.11
2021-08-19 05:41:25.684,0.43,-0.12
2021-08-19 05:41:25.688,0.445,-0.085
2021-08-19 05:41:25.692,0.42,-0.085
2021-08-19 05:41:25.696,0.42,-0.08
2021-08-19 05:41:25.700,0.385,-0.12
2021-08-19 05:41:25.704,0.36,-0.155
2021-08-19 05:41:25.708,0.335,-0.15
2021-08-19 05:41:25.712,0.315,-0.14
2021-08-19 05:41:25.716,0.31,-0.16
2021-08-19 05:41:25.720,0.31,-0.17
2021-08-19 05:41:25.724,0.305,-0.195
2021-08-19 05:41:25.728,0.315,-0.185
2021-08-19 05:41:25.732,0.32,-0.205
2021-08-19 05:41:25.736,0.3,-0.19
2021-08-19 05:41:25.740,0.31,-0.19
2021-08-19 05:41:25.744,0.3,-0.18
2021-08-19 05:41:25.748,0.3,-0.195
2021-08-19 05:41:25.752,0.28,-0.2
2021-08-19 05:41:25.756,0.285,-0.2
2021-08-19 05:41:25.760,0.275,-0.205
2021-08-19 05:41:25.764,0.32,-0.205
2021-08-19 05:41:25.768,0.295,-0.21
2021-08-19 05:41:25.772,0.325,-0.2
2021-08-19 05:41:25.776,0.31,-0.23
2021-08-19 05:41:25.780,0.325,-0.22
2021-08-19 05:41:25.784,0.33,-0.245
2021-08-19 05:41:25.788,0.31,-0.235
2021-08-19 05:41:25.792,0.31,-0.245
2021-08-19 05:41:25.796,0.325,-0.26
2021-08-19 05:41:25.800,0.32,-0.265
2021-08-19 05:41:25.804,0.315,-0.25
2021-08-19 05:41:25.808,0.315,-0.25
2021-08-19 05:41:25.812,0.305,-0.255
2021-08-19 05:41:25.816,0.295,-0.265
2021-08-19 05:41:25.820,0.295,-0.275
2021-08-19 05:41:25.824,0.29,-0.27
2021-08-19 05:41:25.828,0.285,-0.27
2021-08-19 05:41:25.832,0.3,-0.285
2021-08-19 05:41:25.836,0.29,-0.29
2021-08-19 05:41:25.840,0.31,-0.3
2021-08-19 05:41:25.844,0.305,-0.3
2021-08-19 05:41:25.848,0.29,-0.29
2021-08-19 05:41:25.852,0.28,-0.305
2021-08-19 05:41:25.856,0.285,-0.295
2021-08-19 05:41:25.860,0.285,-0.295
2021-08-19 05:41:25.864,0.295,-0.29
2021-08-19 05:41:25.868,0.27,-0.305
2021-08-19 05:41:25.872,0.27,-0.31
2021-08-19 05:41:25.876,0.275,-0.295
2021-08-19 05:41:25.880,0.285,-0.305
2021-08-19 05:41:25.884,0.275,-0.315
2021-08-19 05:41:25.888,0.26,-0.33
2021-08-19 05:41:25.892,0.265,-0.345
2021-08-19 05:41:25.896,0.285,-0.35
2021-08-19 05:41:25.900,0.275,-0.325
2021-08-19 05:41:25.904,0.285,-0.305
2021-08-19 05:41:25.908,0.29,-0.28
2021-08-19 05:41:25.912,0.265,-0.245
2021-08-19 05:41:25.916,0.26,-0.21
2021-08-19 05:41:25.920,0.265,-0.19
2021-08-19 05:41:25.924,0.305,-0.16
2021-08-19 05:41:25.928,0.305,-0.135
2021-08-19 05:41:25.932,0.315,-0.105
2021-08-19 05:41:25.936,0.33,-0.095
2021-08-19 05:41:25.940,0.35,-0.085
2021-08-19 05:41:25.944,0.35,-0.085
2021-08-19 05:41:25.948,0.375,-0.065
2021-08-19 05:41:25.952,0.385,-0.055
2021-08-19 05:41:25.956,0.4,-0.04
2021-08-19 05:41:25.960,0.42,-0.06
2021-08-19 05:41:25.964,0.455,-0.065
2021-08-19 05:41:25.968,0.47,-0.09
2021-08-19 05:41:25.972,0.48,-0.085
2021-08-19 05:41:25.976,0.475,-0.11
2021-08-19 05:41:25.980,0.45,-0.1
2021-08-19 05:41:25.984,0.4,-0.145
2021-08-19 05:41:25.988,0.375,-0.16
2021-08-19 05:41:25.992,0.335,-0.185
2021-08-19 05:41:25.996,0.285,-0.195
2021-08-19 05:41:26.000,0.29,-0.225
2021-08-19 05:41:26.004,0.29,-0.225
2021-08-19 05:41:26.008,0.29,-0.225
2021-08-19 05:41:26.012,0.285,-0.22
2021-08-19 05:41:26.016,0.275,-0.23
2021-08-19 05:41:26.020,0.27,-0.22
2021-08-19 05:41:26.024,0.27,-0.205
2021-08-19 05:41:26.028,0.27,-0.16
2021-08-19 05:41:26.032,0.275,-0.11
2021-08-19 05:41:26.036,0.26,-0.06
2021-08-19 05:41:26.040,0.25,0.015
2021-08-19 05:41:26.044,0.25,0.215
2021-08-19 05:41:26.048,0.25,0.52
2021-08-19 05:41:26.052,0.255,0.765
2021-08-19 05:41:26.056,0.285,0.88
2021-08-19 05:41:26.060,0.285,0.875
2021-08-19 05:41:26.064,0.235,0.78
2021-08-19 05:41:26.068,0.22,0.555
2021-08-19 05:41:26.072,0.18,0.205
2021-08-19 05:41:26.076,0.135,-0.185
2021-08-19 05:41:26.080,0.055,-0.495
2021-08-19 05:41:26.084,-0.145,-0.49
2021-08-19 05:41:26.088,-0.44,-0.205
2021-08-19 05:41:26.092,-0.785,0.065
2021-08-19 05:41:26.096,-1.1,0.07
2021-08-19 05:41:26.100,-1.3,-0.15
2021-08-19 05:41:26.104,-1.33,-0.42
2021-08-19 05:41:26.108,-1.205,-0.61
2021-08-19 05:41:26.112,-0.82,-0.72
2021-08-19 05:41:26.116,-0.345,-0.735
2021-08-19 05:41:26.120,0.0,-0.685
2021-08-19 05:41:26.124,0.13,-0.585
2021-08-19 05:41:26.128,0.155,-0.495
2021-08-19 05:41:26.132,0.12,-0.44
2021-08-19 05:41:26.136,0.09,-0.41
2021-08-19 05:41:26.140,0.09,-0.39
2021-08-19 05:41:26.144,0.085,-0.375
2021-08-19 05:41:26.148,0.155,-0.38
2021-08-19 05:41:26.152,0.225,-0.37
2021-08-19 05:41:26.156,0.295,-0.365
2021-08-19 05:41:26.160,0.34,-0.355
2021-08-19 05:41:26.164,0.365,-0.345
2021-08-19 05:41:26.168,0.375,-0.34
2021-08-19 05:41:26.172,0.4,-0.33
2021-08-19 05:41:26.176,0.41,-0.315
2021-08-19 05:41:26.180,0.405,-0.31
2021-08-19 05:41:26.184,0.425,-0.285
2021-08-19 05:41:26.188,0.43,-0.28
2021-08-19 05:41:26.192,0.435,-0.29
2021-08-19 05:41:26.196,0.45,-0.28
2021-08-19 05:41:26.200,0.48,-0.265
2021-08-19 05:41:26.204,0.465,-0.245
2021-08-19 05:41:26.208,0.48,-0.24
2021-08-19 05:41:26.212,0.49,-0.24
2021-08-19 05:41:26.216,0.51,-0.24
2021-08-19 05:41:26.220,0.53,-0.225
2021-08-19 05:41:26.224,0.54,-0.245
2021-08-19 05:41:26.228,0.52,-0.24
2021-08-19 05:41:26.232,0.545,-0.26
2021-08-19 05:41:26.236,0.565,-0.28
2021-08-19 05:41:26.240,0.53,-0.295
2021-08-19 05:41:26.244,0.55,-0.31
2021-08-19 05:41:26.248,0.52,-0.33
2021-08-19 05:41:26.252,0.465,-0.355
2021-08-19 05:41:26.256,0.41,-0.365
2021-08-19 05:41:26.260,0.38,-0.4
2021-08-19 05:41:26.264,0.35,-0.4
2021-08-19 05:41:26.268,0.345,-0.395
2021-08-19 05:41:26.272,0.32,-0.395
2021-08-19 05:41:26.276,0.335,-0.37
2021-08-19 05:41:26.280,0.34,-0.38
2021-08-19 05:41:26.284,0.36,-0.37
2021-08-19 05:41:26.288,0.345,-0.355
2021-08-19 05:41:26.292,0.33,-0.37
2021-08-19 05:41:26.296,0.325,-0.36
2021-08-19 05:41:26.300,0.32,-0.36
2021-08-19 05:41:26.304,0.34,-0.345
2021-08-19 05:41:26.308,0.35,-0.365
2021-08-19 05:41:26.312,0.32,-0.36
2021-08-19 05:41:26.316,0.34,-0.35
2021-08-19 05:41:26.320,0.355,-0.36
2021-08-19 05:41:26.324,0.34,-0.345
2021-08-19 05:41:26.328,0.35,-0.34
2021-08-19 05:41:26.332,0.355,-0.355
2021-08-19 05:41:26.336,0.345,-0.345
2021-08-19 05:41:26.340,0.345,-0.345
2021-08-19 05:41:26.344,0.365,-0.355
2021-08-19 05:41:26.348,0.365,-0.35
2021-08-19 05:41:26.352,0.37,-0.335
2021-08-19 05:41:26.356,0.365,-0.29
2021-08-19 05:41:26.360,0.355,-0.285
2021-08-19 05:41:26.364,0.375,-0.235
2021-08-19 05:41:26.368,0.355,-0.22
2021-08-19 05:41:26.372,0.37,-0.195
2021-08-19 05:41:26.376,0.345,-0.18
2021-08-19 05:41:26.380,0.355,-0.18
2021-08-19 05:41:26.384,0.355,-0.17
2021-08-19 05:41:26.388,0.38,-0.15
2021-08-19 05:41:26.392,0.375,-0.16
2021-08-19 05:41:26.396,0.375,-0.14
2021-08-19 05:41:26.400,0.385,-0.14
2021-08-19 05:41:26.404,0.385,-0.125
2021-08-19 05:41:26.408,0.4,-0.135
2021-08-19 05:41:26.412,0.38,-0.12
2021-08-19 05:41:26.416,0.375,-0.115
2021-08-19 05:41:26.420,0.39,-0.11
2021-08-19 05:41:26.424,0.4,-0.115
2021-08-19 05:41:26.428,0.39,-0.1
2021-08-19 05:41:26.432,0.375,-0.085
2021-08-19 05:41:26.436,0.42,-0.1
2021-08-19 05:41:26.440,0.445,-0.09
2021-08-19 05:41:26.444,0.465,-0.08
2021-08-19 05:41:26.448,0.465,-0.085
2021-08-19 05:41:26.452,0.465,-0.075
2021-08-19 05:41:26.456,0.46,-0.085
2021-08-19 05:41:26.460,0.46,-0.085
2021-08-19 05:41:26.464,0.46,-0.105
2021-08-19 05:41:26.468,0.455,-0.105
2021-08-19 05:41:26.472,0.42,-0.12
2021-08-19 05:41:26.476,0.405,-0.115
2021-08-19 05:41:26.480,0.33,-0.125
2021-08-19 05:41:26.484,0.31,-0.145
2021-08-19 05:41:26.488,0.27,-0.125
2021-08-19 05:41:26.492,0.255,-0.155
2021-08-19 05:41:26.496,0.275,-0.165
2021-08-19 05:41:26.500,0.27,-0.17
2021-08-19 05:41:26.504,0.27,-0.18
2021-08-19 05:41:26.508,0.25,-0.19
2021-08-19 05:41:26.512,0.245,-0.195
2021-08-19 05:41:26.516,0.26,-0.215
2021-08-19 05:41:26.520,0.265,-0.215
2021-08-19 05:41:26.524,0.265,-0.215
2021-08-19 05:41:26.528,0.27,-0.23
2021-08-19 05:41:26.532,0.265,-0.215
2021-08-19 05:41:26.536,0.27,-0.21
2021-08-19 05:41:26.540,0.25,-0.23
2021-08-19 05:41:26.544,0.285,-0.225
2021-08-19 05:41:26.548,0.275,-0.245
2021-08-19 05:41:26.552,0.27,-0.245
2021-08-19 05:41:26.556,0.28,-0.25
2021-08-19 05:41:26.560,0.3,-0.29
2021-08-19 05:41:26.564,0.285,-0.32
2021-08-19 05:41:26.568,0.28,-0.335
2021-08-19 05:41:26.572,0.285,-0.345
2021-08-19 05:41:26.576,0.26,-0.32
2021-08-19 05:41:26.580,0.265,-0.305
2021-08-19 05:41:26.584,0.26,-0.285
2021-08-19 05:41:26.588,0.245,-0.255
2021-08-19 05:41:26.592,0.25,-0.24
2021-08-19 05:41:26.596,0.27,-0.21
2021-08-19 05:41:26.600,0.255,-0.23
2021-08-19 05:41:26.604,0.285,-0.185
2021-08-19 05:41:26.608,0.31,-0.12
2021-08-19 05:41:26.612,0.295,-0.09
2021-08-19 05:41:26.616,0.28,-0.005
2021-08-19 05:41:26.620,0.33,0.19
2021-08-19 05:41:26.624,0.33,0.51
2021-08-19 05:41:26.628,0.315,0.78
2021-08-19 05:41:26.632,0.335,0.89
2021-08-19 05:41:26.636,0.35,0.86
2021-08-19 05:41:26.640,0.34,0.715
2021-08-19 05:41:26.644,0.305,0.515
2021-08-19 05:41:26.648,0.285,0.23
2021-08-19 05:41:26.652,0.255,-0.13
2021-08-19 05:41:26.656,0.21,-0.425
2021-08-19 05:41:26.660,0.045,-0.39
2021-08-19 05:41:26.664,-0.235,-0.12
2021-08-19 05:41:26.668,-0.57,0.145
2021-08-19 05:41:26.672,-0.84,0.135
2021-08-19 05:41:26.676,-1.01,-0.08
2021-08-19 05:41:26.680,-1.065,-0.305
2021-08-19 05:41:26.684,-0.91,-0.48
2021-08-19 05:41:26.688,-0.57,-0.575
2021-08-19 05:41:26.692,-0.18,-0.555
2021-08-19 05:41:26.696,0.095,-0.46
2021-08-19 05:41:26.700,0.155,-0.375
2021-08-19 05:41:26.704,0.12,-0.35
2021-08-19 05:41:26.708,0.09,-0.34
2021-08-19 05:41:26.712,0.065,-0.35
2021-08-19 05:41:26.716,0.075,-0.365
2021-08-19 05:41:26.720,0.1,-0.36
2021-08-19 05:41:26.724,0.155,-0.365
2021-08-19 05:41:26.728,0.21,-0.35
2021-08-19 05:41:26.732,0.26,-0.36
2021-08-19 05:41:26.736,0.27,-0.335
2021-08-19 05:41:26.740,0.275,-0.355
2021-08-19 05:41:26.744,0.305,-0.355
2021-08-19 05:41:26.748,0.275,-0.365
2021-08-19 05:41:26.752,0.285,-0.365
2021-08-19 05:41:26.756,0.31,-0.36
2021-08-19 05:41:26.760,0.325,-0.345
2021-08-19 05:41:26.764,0.295,-0.35
2021-08-19 05:41:26.768,0.3,-0.36
2021-08-19 05:41:26.772,0.325,-0.385
2021-08-19 05:41:26.776,0.29,-0.395
2021-08-19 05:41:26.780,0.31,-0.415
2021-08-19 05:41:26.784,0.315,-0.41
2021-08-19 05:41:26.788,0.32,-0.415
2021-08-19 05:41:26.792,0.32,-0.395
2021-08-19 05:41:26.796,0.345,-0.395
2021-08-19 05:41:26.800,0.345,-0.37
2021-08-19 05:41:26.804,0.34,-0.35
2021-08-19 05:41:26.808,0.33,-0.35
2021-08-19 05:41:26.812,0.36,-0.35
2021-08-19 05:41:26.816,0.365,-0.345
2021-08-19 05:41:26.820,0.365,-0.33
2021-08-19 05:41:26.824,0.37,-0.3
2021-08-19 05:41:26.828,0.38,-0.32
2021-08-19 05:41:26.832,0.385,-0.33
2021-08-19 05:41:26.836,0.4,-0.335
2021-08-19 05:41:26.840,0.42,-0.32
2021-08-19 05:41:26.844,0.41,-0.33
2021-08-19 05:41:26.848,0.41,-0.355
2021-08-19 05:41:26.852,0.4,-0.36
2021-08-19 05:41:26.856,0.41,-0.35
2021-08-19 05:41:26.860,0.405,-0.355
2021-08-19 05:41:26.864,0.425,-0.35
2021-08-19 05:41:26.868,0.425,-0.36
2021-08-19 05:41:26.872,0.44,-0.33
2021-08-19 05:41:26.876,0.425,-0.35
2021-08-19 05:41:26.880,0.425,-0.32
2021-08-19 05:41:26.884,0.415,-0.32
2021-08-19 05:41:26.888,0.42,-0.305
2021-08-19 05:41:26.892,0.45,-0.285
2021-08-19 05:41:26.896,0.415,-0.25
2021-08-19 05:41:26.900,0.435,-0.23
2021-08-19 05:41:26.904,0.44,-0.235
2021-08-19 05:41:26.908,0.445,-0.225
2021-08-19 05:41:26.912,0.435,-0.225
2021-08-19 05:41:26.916,0.455,-0.205
2021-08-19 05:41:26.920,0.455,-0.22
2021-08-19 05:41:26.924,0.425,-0.2
2021-08-19 05:41:26.928,0.425,-0.21
2021-08-19 05:41:26.932,0.41,-0.17
2021-08-19 05:41:26.936,0.375,-0.19
2021-08-19 05:41:26.940,0.32,-0.165
2021-08-19 05:41:26.944,0.275,-0.18
2021-08-19 05:41:26.948,0.25,-0.16
2021-08-19 05:41:26.952,0.215,-0.16
2021-08-19 05:41:26.956,0.215,-0.17
2021-08-19 05:41:26.960,0.215,-0.165
2021-08-19 05:41:26.964,0.205,-0.145
2021-08-19 05:41:26.968,0.2,-0.165
2021-08-19 05:41:26.972,0.19,-0.18
2021-08-19 05:41:26.976,0.17,-0.2
2021-08-19 05:41:26.980,0.195,-0.215
2021-08-19 05:41:26.984,0.18,-0.21
2021-08-19 05:41:26.988,0.18,-0.235
2021-08-19 05:41:26.992,0.205,-0.245
2021-08-19 05:41:26.996,0.195,-0.275
2021-08-19 05:41:27.000,0.195,-0.3
2021-08-19 05:41:27.004,0.19,-0.31
2021-08-19 05:41:27.008,0.22,-0.355
2021-08-19 05:41:27.012,0.22,-0.355
2021-08-19 05:41:27.016,0.23,-0.34
2021-08-19 05:41:27.020,0.245,-0.325
2021-08-19 05:41:27.024,0.21,-0.315
2021-08-19 05:41:27.028,0.2,-0.295
2021-08-19 05:41:27.032,0.195,-0.29
2021-08-19 05:41:27.036,0.21,-0.29
2021-08-19 05:41:27.040,0.2,-0.265
2021-08-19 05:41:27.044,0.21,-0.255
2021-08-19 05:41:27.048,0.235,-0.26
2021-08-19 05:41:27.052,0.235,-0.26
2021-08-19 05:41:27.056,0.26,-0.28
2021-08-19 05:41:27.060,0.24,-0.285
2021-08-19 05:41:27.064,0.235,-0.27
2021-08-19 05:41:27.068,0.26,-0.28
2021-08-19 05:41:27.072,0.26,-0.285
2021-08-19 05:41:27.076,0.27,-0.29
2021-08-19 05:41:27.080,0.28,-0.295
2021-08-19 05:41:27.084,0.28,-0.3
2021-08-19 05:41:27.088,0.255,-0.285
2021-08-19 05:41:27.092,0.275,-0.28
2021-08-19 05:41:27.096,0.28,-0.285
2021-08-19 05:41:27.100,0.275,-0.28
2021-08-19 05:41:27.104,0.285,-0.245
2021-08-19 05:41:27.108,0.27,-0.245
2021-08-19 05:41:27.112,0.26,-0.255
2021-08-19 05:41:27.116,0.255,-0.23
2021-08-19 05:41:27.120,0.27,-0.215
2021-08-19 05:41:27.124,0.295,-0.195
2021-08-19 05:41:27.128,0.285,-0.19
2021-08-19 05:41:27.132,0.315,-0.2
2021-08-19 05:41:27.136,0.315,-0.21
2021-08-19 05:41:27.140,0.34,-0.225
2021-08-19 05:41:27.144,0.355,-0.205
2021-08-19 05:41:27.148,0.35,-0.205
2021-08-19 05:41:27.152,0.345,-0.235
2021-08-19 05:41:27.156,0.35,-0.245
2021-08-19 05:41:27.160,0.31,-0.26
2021-08-19 05:41:27.164,0.275,-0.29
2021-08-19 05:41:27.168,0.25,-0.29
2021-08-19 05:41:27.172,0.21,-0.29
2021-08-19 05:41:27.176,0.185,-0.295
2021-08-19 05:41:27.180,0.17,-0.31
2021-08-19 05:41:27.184,0.18,-0.305
2021-08-19 05:41:27.188,0.18,-0.305
2021-08-19 05:41:27.192,0.175,-0.3
2021-08-19 05:41:27.196,0.18,-0.32
2021-08-19 05:41:27.200,0.16,-0.305
2021-08-19 05:41:27.204,0.175,-0.295
2021-08-19 05:41:27.208,0.19,-0.3
2021-08-19 05:41:27.212,0.18,-0.315
2021-08-19 05:41:27.216,0.175,-0.315
2021-08-19 05:41:27.220,0.185,-0.325
2021-08-19 05:41:27.224,0.195,-0.355
2021-08-19 05:41:27.228,0.2,-0.35
2021-08-19 05:41:27.232,0.195,-0.34
2021-08-19 05:41:27.236,0.195,-0.32
2021-08-19 05:41:27.240,0.215,-0.315
2021-08-19 05:41:27.244,0.21,-0.3
2021-08-19 05:41:27.248,0.205,-0.28
2021-08-19 05:41:27.252,0.2,-0.28
2021-08-19 05:41:27.256,0.22,-0.275
2021-08-19 05:41:27.260,0.23,-0.27
2021-08-19 05:41:27.264,0.23,-0.28
2021-08-19 05:41:27.268,0.265,-0.28
2021-08-19 05:41:27.272,0.255,-0.28
2021-08-19 05:41:27.276,0.245,-0.295
2021-08-19 05:41:27.280,0.27,-0.29
2021-08-19 05:41:27.284,0.265,-0.32
2021-08-19 05:41:27.288,0.26,-0.31
2021-08-19 05:41:27.292,0.275,-0.315
2021-08-19 05:41:27.296,0.26,-0.31
2021-08-19 05:41:27.300,0.27,-0.315
2021-08-19 05:41:27.304,0.245,-0.33
2021-08-19 05:41:27.308,0.25,-0.32
2021-08-19 05:41:27.312,0.27,-0.35
2021-08-19 05:41:27.316,0.245,-0.35
2021-08-19 05:41:27.320,0.275,-0.33
2021-08-19 05:41:27.324,0.26,-0.32
2021-08-19 05:41:27.328,0.265,-0.305
2021-08-19 05:41:27.332,0.27,-0.285
2021-08-19 05:41:27.336,0.24,-0.285
2021-08-19 05:41:27.340,0.275,-0.29
2021-08-19 05:41:27.344,0.3,-0.27
2021-08-19 05:41:27.348,0.28,-0.265
2021-08-19 05:41:27.352,0.285,-0.24
2021-08-19 05:41:27.356,0.3,-0.225
2021-08-19 05:41:27.360,0.335,-0.23
2021-08-19 05:41:27.364,0.36,-0.225
2021-08-19 05:41:27.368,0.35,-0.235
2021-08-19 05:41:27.372,0.36,-0.22
2021-08-19 05:41:27.376,0.355,-0.26
2021-08-19 05:41:27.380,0.335,-0.255
2021-08-19 05:41:27.384,0.315,-0.265
2021-08-19 05:41:27.388,0.29,-0.27
2021-08-19 05:41:27.392,0.24,-0.25
2021-08-19 05:41:27.396,0.205,-0.26
2021-08-19 05:41:27.400,0.185,-0.245
2021-08-19 05:41:27.404,0.195,-0.24
2021-08-19 05:41:27.408,0.185,-0.23
2021-08-19 05:41:27.412,0.17,-0.225
2021-08-19 05:41:27.416,0.19,-0.23
2021-08-19 05:41:27.420,0.165,-0.2
2021-08-19 05:41:27.424,0.175,-0.2
2021-08-19 05:41:27.428,0.175,-0.18
2021-08-19 05:41:27.432,0.175,-0.15
2021-08-19 05:41:27.436,0.19,-0.11
2021-08-19 05:41:27.440,0.195,-0.06
2021-08-19 05:41:27.444,0.205,-0.015
2021-08-19 05:41:27.448,0.19,0.05
2021-08-19 05:41:27.452,0.22,0.195
2021-08-19 05:41:27.456,0.205,0.435
2021-08-19 05:41:27.460,0.22,0.705
2021-08-19 05:41:27.464,0.26,0.905
2021-08-19 05:41:27.468,0.265,0.965
2021-08-19 05:41:27.472,0.275,0.945
2021-08-19 05:41:27.476,0.215,0.845
2021-08-19 05:41:27.480,0.175,0.65
2021-08-19 05:41:27.484,0.155,0.305
2021-08-19 05:41:27.488,0.125,-0.125
2021-08-19 05:41:27.492,0.015,-0.35
2021-08-19 05:41:27.496,-0.22,-0.265
2021-08-19 05:41:27.500,-0.525,-0.02
2021-08-19 05:41:27.504,-0.81,0.115
2021-08-19 05:41:27.508,-0.995,-0.02
2021-08-19 05:41:27.512,-1.07,-0.245
2021-08-19 05:41:27.516,-1.04,-0.435
2021-08-19 05:41:27.520,-0.8,-0.555
2021-08-19 05:41:27.524,-0.41,-0.6
2021-08-19 05:41:27.528,-0.04,-0.54
2021-08-19 05:41:27.532,0.165,-0.455
2021-08-19 05:41:27.536,0.175,-0.385
2021-08-19 05:41:27.540,0.18,-0.375
2021-08-19 05:41:27.544,0.155,-0.375
2021-08-19 05:41:27.548,0.135,-0.37
2021-08-19 05:41:27.552,0.155,-0.365
2021-08-19 05:41:27.556,0.21,-0.375
2021-08-19 05:41:27.560,0.26,-0.395
2021-08-19 05:41:27.564,0.315,-0.375
2021-08-19 05:41:27.568,0.34,-0.395
2021-08-19 05:41:27.572,0.335,-0.39
2021-08-19 05:41:27.576,0.36,-0.375
2021-08-19 05:41:27.580,0.38,-0.38
2021-08-19 05:41:27.584,0.385,-0.365
2021-08-19 05:41:27.588,0.4,-0.37
2021-08-19 05:41:27.592,0.41,-0.375
2021-08-19 05:41:27.596,0.44,-0.385
2021-08-19 05:41:27.600,0.46,-0.365
2021-08-19 05:41:27.604,0.485,-0.36
2021-08-19 05:41:27.608,0.48,-0.355
2021-08-19 05:41:27.612,0.47,-0.345
2021-08-19 05:41:27.616,0.45,-0.385
2021-08-19 05:41:27.620,0.38,-0.36
2021-08-19 05:41:27.624,0.37,-0.38
2021-08-19 05:41:27.628,0.34,-0.38
2021-08-19 05:41:27.632,0.32,-0.395
2021-08-19 05:41:27.636,0.32,-0.38
2021-08-19 05:41:27.640,0.315,-0.385
2021-08-19 05:41:27.644,0.33,-0.365
2021-08-19 05:41:27.648,0.3,-0.385
2021-08-19 05:41:27.652,0.33,-0.375
2021-08-19 05:41:27.656,0.31,-0.36
2021-08-19 05:41:27.660,0.305,-0.375
2021-08-19 05:41:27.664,0.315,-0.4
2021-08-19 05:41:27.668,0.325,-0.41
2021-08-19 05:41:27.672,0.305,-0.37
2021-08-19 05:41:27.676,0.325,-0.39
2021-08-19 05:41:27.680,0.305,-0.38
2021-08-19 05:41:27.684,0.305,-0.375
2021-08-19 05:41:27.688,0.29,-0.38
2021-08-19 05:41:27.692,0.3,-0.36
2021-08-19 05:41:27.696,0.315,-0.355
2021-08-19 05:41:27.700,0.285,-0.335
2021-08-19 05:41:27.704,0.29,-0.32
2021-08-19 05:41:27.708,0.295,-0.32
2021-08-19 05:41:27.712,0.31,-0.315
2021-08-19 05:41:27.716,0.3,-0.315
2021-08-19 05:41:27.720,0.325,-0.325
2021-08-19 05:41:27.724,0.335,-0.31
2021-08-19 05:41:27.728,0.345,-0.325
2021-08-19 05:41:27.732,0.33,-0.295
2021-08-19 05:41:27.736,0.36,-0.31
2021-08-19 05:41:27.740,0.345,-0.32
2021-08-19 05:41:27.744,0.335,-0.35
2021-08-19 05:41:27.748,0.355,-0.34
2021-08-19 05:41:27.752,0.36,-0.315
2021-08-19 05:41:27.756,0.36,-0.3
2021-08-19 05:41:27.760,0.335,-0.31
2021-08-19 05:41:27.764,0.345,-0.295
2021-08-19 05:41:27.768,0.34,-0.305
2021-08-19 05:41:27.772,0.33,-0.29
2021-08-19 05:41:27.776,0.35,-0.26
2021-08-19 05:41:27.780,0.36,-0.255
2021-08-19 05:41:27.784,0.36,-0.225
2021-08-19 05:41:27.788,0.38,-0.215
2021-08-19 05:41:27.792,0.375,-0.185
2021-08-19 05:41:27.796,0.365,-0.18
2021-08-19 05:41:27.800,0.375,-0.18
2021-08-19 05:41:27.804,0.355,-0.155
2021-08-19 05:41:27.808,0.34,-0.155
2021-08-19 05:41:27.812,0.355,-0.115
2021-08-19 05:41:27.816,0.325,-0.08
2021-08-19 05:41:27.820,0.345,-0.07
2021-08-19 05:41:27.824,0.355,-0.04
2021-08-19 05:41:27.828,0.38,-0.06
2021-08-19 05:41:27.832,0.38,-0.05
2021-08-19 05:41:27.836,0.365,-0.04
2021-08-19 05:41:27.840,0.365,-0.05
2021-08-19 05:41:27.844,0.365,-0.06
2021-08-19 05:41:27.848,0.35,-0.075
2021-08-19 05:41:27.852,0.345,-0.075
2021-08-19 05:41:27.856,0.335,-0.075
2021-08-19 05:41:27.860,0.285,-0.1
2021-08-19 05:41:27.864,0.27,-0.11
2021-08-19 05:41:27.868,0.25,-0.105
2021-08-19 05:41:27.872,0.235,-0.13
2021-08-19 05:41:27.876,0.225,-0.135
2021-08-19 05:41:27.880,0.245,-0.14
2021-08-19 05:41:27.884,0.225,-0.135
2021-08-19 05:41:27.888,0.22,-0.12
2021-08-19 05:41:27.892,0.22,-0.14
2021-08-19 05:41:27.896,0.205,-0.125
2021-08-19 05:41:27.900,0.21,-0.13
2021-08-19 05:41:27.904,0.2,-0.12
2021-08-19 05:41:27.908,0.215,-0.135
2021-08-19 05:41:27.912,0.2,-0.11
2021-08-19 05:41:27.916,0.205,-0.11
2021-08-19 05:41:27.920,0.22,-0.11
2021-08-19 05:41:27.924,0.225,-0.11
2021-08-19 05:41:27.928,0.205,-0.095
2021-08-19 05:41:27.932,0.22,-0.09
2021-08-19 05:41:27.936,0.22,-0.07
2021-08-19 05:41:27.940,0.23,-0.09
2021-08-19 05:41:27.944,0.245,-0.09
