Time,ECG1,ECG2
2021-08-19 00:49:28.028,-0.385,-0.09
2021-08-19 00:49:28.032,-0.375,-0.075
2021-08-19 00:49:28.036,-0.385,-0.075
2021-08-19 00:49:28.040,-0.4,-0.095
2021-08-19 00:49:28.044,-0.385,-0.12
2021-08-19 00:49:28.048,-0.36,-0.06
2021-08-19 00:49:28.052,-0.34,-0.095
2021-08-19 00:49:28.056,-0.37,-0.085
2021-08-19 00:49:28.060,-0.4,-0.115
2021-08-19 00:49:28.064,-0.39,-0.08
2021-08-19 00:49:28.068,-0.37,-0.105
2021-08-19 00:49:28.072,-0.39,-0.095
2021-08-19 00:49:28.076,-0.36,-0.105
2021-08-19 00:49:28.080,-0.38,-0.085
2021-08-19 00:49:28.084,-0.385,-0.11
2021-08-19 00:49:28.088,-0.35,-0.115
2021-08-19 00:49:28.092,-0.34,-0.125
2021-08-19 00:49:28.096,-0.33,-0.105
2021-08-19 00:49:28.100,-0.335,-0.07
2021-08-19 00:49:28.104,-0.35,-0.085
2021-08-19 00:49:28.108,-0.29,-0.09
2021-08-19 00:49:28.112,-0.26,-0.045
2021-08-19 00:49:28.116,-0.21,0.0
2021-08-19 00:49:28.120,-0.22,0.02
2021-08-19 00:49:28.124,-0.22,0.035
2021-08-19 00:49:28.128,-0.215,0.055
2021-08-19 00:49:28.132,-0.21,0.065
2021-08-19 00:49:28.136,-0.16,0.095
2021-08-19 00:49:28.140,-0.15,0.11
2021-08-19 00:49:28.144,-0.155,0.095
2021-08-19 00:49:28.148,-0.145,0.05
2021-08-19 00:49:28.152,-0.15,-0.005
2021-08-19 00:49:28.156,-0.145,0.005
2021-08-19 00:49:28.160,-0.16,0.01
2021-08-19 00:49:28.164,-0.205,0.005
2021-08-19 00:49:28.168,-0.24,-0.055
2021-08-19 00:49:28.172,-0.27,-0.05
2021-08-19 00:49:28.176,-0.28,-0.09
2021-08-19 00:49:28.180,-0.275,-0.11
2021-08-19 00:49:28.184,-0.245,-0.16
2021-08-19 00:49:28.188,-0.28,-0.19
2021-08-19 00:49:28.192,-0.34,-0.16
2021-08-19 00:49:28.196,-0.415,-0.115
2021-08-19 00:49:28.200,-0.44,-0.115
2021-08-19 00:49:28.204,-0.495,-0.14
2021-08-19 00:49:28.208,-0.435,-0.15
2021-08-19 00:49:28.212,-0.465,-0.17
2021-08-19 00:49:28.216,-0.47,-0.18
2021-08-19 00:49:28.220,-0.465,-0.18
2021-08-19 00:49:28.224,-0.47,-0.195
2021-08-19 00:49:28.228,-0.475,-0.195
2021-08-19 00:49:28.232,-0.48,-0.215
2021-08-19 00:49:28.236,-0.465,-0.225
2021-08-19 00:49:28.240,-0.46,-0.22
2021-08-19 00:49:28.244,-0.465,-0.215
2021-08-19 00:49:28.248,-0.48,-0.175
2021-08-19 00:49:28.252,-0.445,-0.19
2021-08-19 00:49:28.256,-0.445,-0.2
2021-08-19 00:49:28.260,-0.49,-0.175
2021-08-19 00:49:28.264,-0.575,-0.18
2021-08-19 00:49:28.268,-0.67,-0.175
2021-08-19 00:49:28.272,-0.745,-0.175
2021-08-19 00:49:28.276,-0.72,-0.215
2021-08-19 00:49:28.280,-0.665,-0.29
2021-08-19 00:49:28.284,-0.585,-0.32
2021-08-19 00:49:28.288,-0.35,-0.35
2021-08-19 00:49:28.292,-0.09,-0.39
2021-08-19 00:49:28.296,-0.12,-0.35
2021-08-19 00:49:28.300,-0.18,-0.175
2021-08-19 00:49:28.304,0.015,-0.12
2021-08-19 00:49:28.308,0.085,-0.06
2021-08-19 00:49:28.312,-0.35,0.375
2021-08-19 00:49:28.316,-0.88,0.925
2021-08-19 00:49:28.320,-1.46,1.31
2021-08-19 00:49:28.324,-1.975,0.775
2021-08-19 00:49:28.360,-1.825,-1.78
2021-08-19 00:49:28.364,-1.375,-1.415
2021-08-19 00:49:28.368,-0.99,-1.145
2021-08-19 00:49:28.372,-0.74,-0.89
2021-08-19 00:49:28.376,-0.625,-0.61
2021-08-19 00:49:28.380,-0.585,-0.425
2021-08-19 00:49:28.384,-0.52,-0.3
2021-08-19 00:49:28.388,-0.49,-0.275
2021-08-19 00:49:28.392,-0.485,-0.235
2021-08-19 00:49:28.396,-0.46,-0.23
2021-08-19 00:49:28.400,-0.46,-0.22
2021-08-19 00:49:28.404,-0.49,-0.24
2021-08-19 00:49:28.408,-0.48,-0.24
2021-08-19 00:49:28.412,-0.44,-0.245
2021-08-19 00:49:28.416,-0.425,-0.26
2021-08-19 00:49:28.420,-0.455,-0.235
2021-08-19 00:49:28.424,-0.44,-0.26
2021-08-19 00:49:28.428,-0.445,-0.25
2021-08-19 00:49:28.432,-0.47,-0.225
2021-08-19 00:49:28.436,-0.43,-0.245
2021-08-19 00:49:28.440,-0.44,-0.265
2021-08-19 00:49:28.444,-0.435,-0.245
2021-08-19 00:49:28.448,-0.435,-0.225
2021-08-19 00:49:28.452,-0.415,-0.265
2021-08-19 00:49:28.456,-0.38,-0.245
2021-08-19 00:49:28.460,-0.39,-0.24
2021-08-19 00:49:28.464,-0.375,-0.225
2021-08-19 00:49:28.468,-0.36,-0.225
2021-08-19 00:49:28.472,-0.38,-0.21
2021-08-19 00:49:28.476,-0.34,-0.185
2021-08-19 00:49:28.480,-0.305,-0.2
2021-08-19 00:49:28.484,-0.26,-0.22
2021-08-19 00:49:28.488,-0.235,-0.195
2021-08-19 00:49:28.492,-0.18,-0.175
2021-08-19 00:49:28.496,-0.17,-0.15
2021-08-19 00:49:28.500,-0.09,-0.115
2021-08-19 00:49:28.504,0.025,-0.12
2021-08-19 00:49:28.508,0.1,-0.05
2021-08-19 00:49:28.512,0.195,0.0
2021-08-19 00:49:28.516,0.25,0.095
2021-08-19 00:49:28.520,0.285,0.14
2021-08-19 00:49:28.524,0.35,0.2
2021-08-19 00:49:28.528,0.395,0.285
2021-08-19 00:49:28.532,0.475,0.34
2021-08-19 00:49:28.536,0.53,0.4
2021-08-19 00:49:28.540,0.545,0.43
2021-08-19 00:49:28.544,0.545,0.49
2021-08-19 00:49:28.548,0.615,0.53
2021-08-19 00:49:28.552,0.65,0.475
2021-08-19 00:49:28.556,0.635,0.495
2021-08-19 00:49:28.560,0.53,0.475
2021-08-19 00:49:28.564,0.49,0.51
2021-08-19 00:49:28.568,0.48,0.5
2021-08-19 00:49:28.572,0.5,0.465
2021-08-19 00:49:28.576,0.54,0.455
2021-08-19 00:49:28.580,0.52,0.46
2021-08-19 00:49:28.584,0.495,0.455
2021-08-19 00:49:28.588,0.45,0.495
2021-08-19 00:49:28.592,0.475,0.48
2021-08-19 00:49:28.596,0.485,0.48
2021-08-19 00:49:28.600,0.455,0.455
2021-08-19 00:49:28.604,0.455,0.48
2021-08-19 00:49:28.608,0.42,0.485
2021-08-19 00:49:28.612,0.345,0.53
2021-08-19 00:49:28.616,0.34,0.51
2021-08-19 00:49:28.620,0.3,0.515
2021-08-19 00:49:28.624,0.275,0.515
2021-08-19 00:49:28.628,0.195,0.52
2021-08-19 00:49:28.632,0.115,0.53
2021-08-19 00:49:28.636,0.08,0.535
2021-08-19 00:49:28.640,0.04,0.53
2021-08-19 00:49:28.644,0.03,0.505
2021-08-19 00:49:28.648,-0.02,0.515
2021-08-19 00:49:28.652,-0.07,0.5
2021-08-19 00:49:28.656,-0.125,0.505
2021-08-19 00:49:28.660,-0.185,0.445
2021-08-19 00:49:28.664,-0.23,0.445
2021-08-19 00:49:28.668,-0.235,0.41
2021-08-19 00:49:28.672,-0.255,0.37
2021-08-19 00:49:28.676,-0.295,0.34
2021-08-19 00:49:28.680,-0.31,0.315
2021-08-19 00:49:28.684,-0.34,0.305
2021-08-19 00:49:28.688,-0.34,0.28
2021-08-19 00:49:28.692,-0.34,0.255
2021-08-19 00:49:28.696,-0.35,0.22
2021-08-19 00:49:28.700,-0.37,0.235
2021-08-19 00:49:28.704,-0.39,0.19
2021-08-19 00:49:28.708,-0.36,0.195
2021-08-19 00:49:28.712,-0.37,0.155
2021-08-19 00:49:28.716,-0.37,0.145
2021-08-19 00:49:28.720,-0.375,0.15
2021-08-19 00:49:28.724,-0.41,0.13
2021-08-19 00:49:28.728,-0.37,0.115
2021-08-19 00:49:28.732,-0.37,0.115
2021-08-19 00:49:28.736,-0.305,0.125
2021-08-19 00:49:28.740,-0.325,0.115
2021-08-19 00:49:28.744,-0.31,0.115
2021-08-19 00:49:28.748,-0.335,0.115
2021-08-19 00:49:28.752,-0.335,0.1
2021-08-19 00:49:28.756,-0.32,0.13
2021-08-19 00:49:28.760,-0.285,0.11
2021-08-19 00:49:28.764,-0.295,0.09
2021-08-19 00:49:28.768,-0.31,0.075
2021-08-19 00:49:28.772,-0.3,0.11
2021-08-19 00:49:28.776,-0.285,0.08
2021-08-19 00:49:28.780,-0.26,0.08
2021-08-19 00:49:28.784,-0.245,0.045
2021-08-19 00:49:28.788,-0.33,0.075
2021-08-19 00:49:28.792,-0.375,0.07
2021-08-19 00:49:28.796,-0.42,0.075
2021-08-19 00:49:28.800,-0.435,0.04
2021-08-19 00:49:28.804,-0.375,-0.08
2021-08-19 00:49:28.808,-0.21,-0.215
2021-08-19 00:49:28.812,-0.08,-0.32
2021-08-19 00:49:28.816,-0.285,-0.33
2021-08-19 00:49:28.820,-0.685,-0.17
2021-08-19 00:49:28.824,-0.78,-0.12
2021-08-19 00:49:28.828,-0.92,0.04
2021-08-19 00:49:28.832,-1.29,0.66
2021-08-19 00:49:28.836,-1.55,1.41
2021-08-19 00:49:28.840,-1.775,1.785
2021-08-19 00:49:28.880,-1.755,-1.575
2021-08-19 00:49:28.884,-1.31,-1.36
2021-08-19 00:49:28.888,-0.95,-1.17
2021-08-19 00:49:28.892,-0.725,-0.84
2021-08-19 00:49:28.896,-0.62,-0.57
2021-08-19 00:49:28.900,-0.575,-0.445
2021-08-19 00:49:28.904,-0.53,-0.35
2021-08-19 00:49:28.908,-0.525,-0.33
2021-08-19 00:49:28.912,-0.565,-0.34
2021-08-19 00:49:28.916,-0.54,-0.34
2021-08-19 00:49:28.920,-0.51,-0.325
2021-08-19 00:49:28.924,-0.48,-0.37
2021-08-19 00:49:28.928,-0.465,-0.365
2021-08-19 00:49:28.932,-0.49,-0.35
2021-08-19 00:49:28.936,-0.49,-0.385
2021-08-19 00:49:28.940,-0.46,-0.365
2021-08-19 00:49:28.944,-0.44,-0.365
2021-08-19 00:49:28.948,-0.435,-0.36
2021-08-19 00:49:28.952,-0.435,-0.385
2021-08-19 00:49:28.956,-0.43,-0.365
2021-08-19 00:49:28.960,-0.43,-0.37
2021-08-19 00:49:28.964,-0.405,-0.375
2021-08-19 00:49:28.968,-0.385,-0.37
2021-08-19 00:49:28.972,-0.39,-0.355
2021-08-19 00:49:28.976,-0.36,-0.355
2021-08-19 00:49:28.980,-0.335,-0.335
2021-08-19 00:49:28.984,-0.335,-0.295
2021-08-19 00:49:28.988,-0.3,-0.27
2021-08-19 00:49:28.992,-0.26,-0.25
2021-08-19 00:49:28.996,-0.23,-0.21
2021-08-19 00:49:29.000,-0.215,-0.21
2021-08-19 00:49:29.004,-0.165,-0.185
2021-08-19 00:49:29.008,-0.105,-0.13
2021-08-19 00:49:29.012,-0.02,-0.1
2021-08-19 00:49:29.016,0.05,-0.075
2021-08-19 00:49:29.020,0.09,-0.005
2021-08-19 00:49:29.024,0.14,0.045
2021-08-19 00:49:29.028,0.23,0.11
2021-08-19 00:49:29.032,0.305,0.2
2021-08-19 00:49:29.036,0.35,0.27
2021-08-19 00:49:29.040,0.39,0.335
2021-08-19 00:49:29.044,0.44,0.42
2021-08-19 00:49:29.048,0.47,0.5
2021-08-19 00:49:29.052,0.53,0.545
2021-08-19 00:49:29.056,0.53,0.62
2021-08-19 00:49:29.060,0.57,0.66
2021-08-19 00:49:29.064,0.55,0.635
2021-08-19 00:49:29.068,0.555,0.65
2021-08-19 00:49:29.072,0.575,0.67
2021-08-19 00:49:29.076,0.585,0.665
2021-08-19 00:49:29.080,0.58,0.69
2021-08-19 00:49:29.084,0.6,0.71
2021-08-19 00:49:29.088,0.59,0.7
2021-08-19 00:49:29.092,0.55,0.715
2021-08-19 00:49:29.096,0.54,0.72
2021-08-19 00:49:29.100,0.54,0.735
2021-08-19 00:49:29.104,0.495,0.725
2021-08-19 00:49:29.108,0.445,0.775
2021-08-19 00:49:29.112,0.365,0.78
2021-08-19 00:49:29.116,0.3,0.74
2021-08-19 00:49:29.120,0.22,0.755
2021-08-19 00:49:29.124,0.16,0.735
2021-08-19 00:49:29.128,0.115,0.7
2021-08-19 00:49:29.132,0.06,0.69
2021-08-19 00:49:29.136,0.015,0.66
2021-08-19 00:49:29.140,-0.04,0.67
2021-08-19 00:49:29.144,-0.075,0.615
2021-08-19 00:49:29.148,-0.1,0.58
2021-08-19 00:49:29.152,-0.13,0.555
2021-08-19 00:49:29.156,-0.18,0.49
2021-08-19 00:49:29.160,-0.255,0.47
2021-08-19 00:49:29.164,-0.3,0.43
2021-08-19 00:49:29.168,-0.285,0.395
2021-08-19 00:49:29.172,-0.32,0.35
2021-08-19 00:49:29.176,-0.32,0.28
2021-08-19 00:49:29.180,-0.32,0.25
2021-08-19 00:49:29.184,-0.36,0.235
2021-08-19 00:49:29.188,-0.365,0.195
2021-08-19 00:49:29.192,-0.38,0.17
2021-08-19 00:49:29.196,-0.37,0.165
2021-08-19 00:49:29.200,-0.375,0.15
2021-08-19 00:49:29.204,-0.36,0.13
2021-08-19 00:49:29.208,-0.36,0.125
2021-08-19 00:49:29.212,-0.385,0.115
2021-08-19 00:49:29.216,-0.365,0.085
2021-08-19 00:49:29.220,-0.355,0.09
2021-08-19 00:49:29.224,-0.34,0.07
2021-08-19 00:49:29.228,-0.355,0.05
2021-08-19 00:49:29.232,-0.365,0.03
2021-08-19 00:49:29.236,-0.39,0.035
2021-08-19 00:49:29.240,-0.305,0.005
2021-08-19 00:49:29.244,-0.285,0.01
2021-08-19 00:49:29.248,-0.26,0.06
2021-08-19 00:49:29.252,-0.23,0.07
2021-08-19 00:49:29.256,-0.22,0.06
2021-08-19 00:49:29.260,-0.21,0.065
2021-08-19 00:49:29.264,-0.225,0.07
2021-08-19 00:49:29.268,-0.19,0.11
2021-08-19 00:49:29.272,-0.23,0.12
2021-08-19 00:49:29.276,-0.21,0.1
2021-08-19 00:49:29.280,-0.175,0.155
2021-08-19 00:49:29.284,-0.185,0.155
2021-08-19 00:49:29.288,-0.18,0.135
2021-08-19 00:49:29.292,-0.165,0.12
2021-08-19 00:49:29.296,-0.18,0.1
2021-08-19 00:49:29.300,-0.23,0.075
2021-08-19 00:49:29.304,-0.3,0.05
2021-08-19 00:49:29.308,-0.34,0.055
2021-08-19 00:49:29.312,-0.3,-0.01
2021-08-19 00:49:29.316,-0.25,-0.11
2021-08-19 00:49:29.320,-0.245,-0.195
2021-08-19 00:49:29.324,-0.12,-0.215
2021-08-19 00:49:29.328,-0.02,-0.355
2021-08-19 00:49:29.332,-0.25,-0.265
2021-08-19 00:49:29.336,-0.67,-0.11
2021-08-19 00:49:29.340,-0.785,-0.155
2021-08-19 00:49:29.344,-0.895,-0.07
2021-08-19 00:49:29.348,-1.185,0.36
2021-08-19 00:49:29.352,-1.39,0.915
2021-08-19 00:49:29.356,-1.64,1.34
2021-08-19 00:49:29.400,-1.62,-1.68
2021-08-19 00:49:29.404,-1.135,-1.39
2021-08-19 00:49:29.408,-0.745,-1.1
2021-08-19 00:49:29.412,-0.59,-0.79
2021-08-19 00:49:29.416,-0.515,-0.52
2021-08-19 00:49:29.420,-0.46,-0.35
2021-08-19 00:49:29.424,-0.415,-0.3
2021-08-19 00:49:29.428,-0.41,-0.265
2021-08-19 00:49:29.432,-0.365,-0.3
2021-08-19 00:49:29.436,-0.34,-0.28
2021-08-19 00:49:29.440,-0.36,-0.28
2021-08-19 00:49:29.444,-0.33,-0.33
2021-08-19 00:49:29.448,-0.345,-0.32
2021-08-19 00:49:29.452,-0.315,-0.31
2021-08-19 00:49:29.456,-0.32,-0.29
2021-08-19 00:49:29.460,-0.315,-0.33
2021-08-19 00:49:29.464,-0.3,-0.34
2021-08-19 00:49:29.468,-0.305,-0.315
2021-08-19 00:49:29.472,-0.265,-0.32
2021-08-19 00:49:29.476,-0.22,-0.355
2021-08-19 00:49:29.480,-0.195,-0.33
2021-08-19 00:49:29.484,-0.165,-0.29
2021-08-19 00:49:29.488,-0.13,-0.265
2021-08-19 00:49:29.492,-0.09,-0.23
2021-08-19 00:49:29.496,-0.075,-0.2
2021-08-19 00:49:29.500,-0.01,-0.185
2021-08-19 00:49:29.504,0.005,-0.145
2021-08-19 00:49:29.508,0.04,-0.115
2021-08-19 00:49:29.512,0.1,-0.11
2021-08-19 00:49:29.516,0.14,-0.05
2021-08-19 00:49:29.520,0.205,-0.035
2021-08-19 00:49:29.524,0.235,-0.005
2021-08-19 00:49:29.528,0.235,0.0
2021-08-19 00:49:29.532,0.295,0.015
2021-08-19 00:49:29.536,0.34,-0.005
2021-08-19 00:49:29.540,0.4,0.025
2021-08-19 00:49:29.544,0.46,0.04
2021-08-19 00:49:29.548,0.47,0.045
2021-08-19 00:49:29.552,0.525,0.105
2021-08-19 00:49:29.556,0.55,0.155
2021-08-19 00:49:29.560,0.6,0.165
2021-08-19 00:49:29.564,0.675,0.195
2021-08-19 00:49:29.568,0.685,0.245
2021-08-19 00:49:29.572,0.7,0.275
2021-08-19 00:49:29.576,0.73,0.275
2021-08-19 00:49:29.580,0.74,0.32
2021-08-19 00:49:29.584,0.765,0.345
2021-08-19 00:49:29.588,0.79,0.38
2021-08-19 00:49:29.592,0.76,0.385
2021-08-19 00:49:29.596,0.725,0.43
2021-08-19 00:49:29.600,0.72,0.445
2021-08-19 00:49:29.604,0.68,0.49
2021-08-19 00:49:29.608,0.67,0.535
2021-08-19 00:49:29.612,0.665,0.57
2021-08-19 00:49:29.616,0.615,0.585
2021-08-19 00:49:29.620,0.575,0.61
2021-08-19 00:49:29.624,0.51,0.665
2021-08-19 00:49:29.628,0.485,0.7
2021-08-19 00:49:29.632,0.425,0.71
2021-08-19 00:49:29.636,0.375,0.695
2021-08-19 00:49:29.640,0.35,0.745
2021-08-19 00:49:29.644,0.295,0.78
2021-08-19 00:49:29.648,0.21,0.76
2021-08-19 00:49:29.652,0.15,0.74
2021-08-19 00:49:29.656,0.115,0.735
2021-08-19 00:49:29.660,0.055,0.695
2021-08-19 00:49:29.664,0.005,0.65
2021-08-19 00:49:29.668,-0.06,0.615
2021-08-19 00:49:29.672,-0.08,0.61
2021-08-19 00:49:29.676,-0.11,0.57
2021-08-19 00:49:29.680,-0.15,0.56
2021-08-19 00:49:29.684,-0.135,0.52
2021-08-19 00:49:29.688,-0.22,0.465
2021-08-19 00:49:29.692,-0.225,0.43
2021-08-19 00:49:29.696,-0.265,0.41
2021-08-19 00:49:29.700,-0.255,0.4
2021-08-19 00:49:29.704,-0.25,0.375
2021-08-19 00:49:29.708,-0.245,0.325
2021-08-19 00:49:29.712,-0.255,0.295
2021-08-19 00:49:29.716,-0.25,0.27
2021-08-19 00:49:29.720,-0.24,0.27
2021-08-19 00:49:29.724,-0.195,0.265
2021-08-19 00:49:29.728,-0.19,0.285
2021-08-19 00:49:29.732,-0.17,0.255
2021-08-19 00:49:29.736,-0.17,0.25
2021-08-19 00:49:29.740,-0.14,0.25
2021-08-19 00:49:29.744,-0.135,0.27
2021-08-19 00:49:29.748,-0.13,0.27
2021-08-19 00:49:29.752,-0.125,0.305
2021-08-19 00:49:29.756,-0.15,0.325
2021-08-19 00:49:29.760,-0.19,0.285
2021-08-19 00:49:29.764,-0.19,0.31
2021-08-19 00:49:29.768,-0.17,0.25
2021-08-19 00:49:29.772,-0.16,0.245
2021-08-19 00:49:29.776,-0.155,0.235
2021-08-19 00:49:29.780,-0.17,0.18
2021-08-19 00:49:29.784,-0.19,0.165
2021-08-19 00:49:29.788,-0.2,0.14
2021-08-19 00:49:29.792,-0.21,0.115
2021-08-19 00:49:29.796,-0.235,0.095
2021-08-19 00:49:29.800,-0.225,0.02
2021-08-19 00:49:29.804,-0.19,0.0
2021-08-19 00:49:29.808,-0.215,0.0
2021-08-19 00:49:29.812,-0.23,-0.005
2021-08-19 00:49:29.816,-0.24,0.005
2021-08-19 00:49:29.820,-0.24,-0.02
2021-08-19 00:49:29.824,-0.245,-0.04
2021-08-19 00:49:29.828,-0.27,-0.07
2021-08-19 00:49:29.832,-0.31,-0.14
2021-08-19 00:49:29.836,-0.32,-0.16
2021-08-19 00:49:29.840,-0.34,-0.16
2021-08-19 00:49:29.844,-0.355,-0.135
2021-08-19 00:49:29.848,-0.36,-0.17
2021-08-19 00:49:29.852,-0.37,-0.145
2021-08-19 00:49:29.856,-0.39,-0.16
2021-08-19 00:49:29.860,-0.415,-0.145
2021-08-19 00:49:29.864,-0.425,-0.125
2021-08-19 00:49:29.868,-0.52,-0.14
2021-08-19 00:49:29.872,-0.55,-0.16
2021-08-19 00:49:29.876,-0.595,-0.18
2021-08-19 00:49:29.880,-0.58,-0.21
2021-08-19 00:49:29.884,-0.525,-0.335
2021-08-19 00:49:29.888,-0.435,-0.385
2021-08-19 00:49:29.892,-0.205,-0.44
2021-08-19 00:49:29.896,-0.255,-0.51
2021-08-19 00:49:29.900,-0.595,-0.365
2021-08-19 00:49:29.904,-0.845,-0.275
2021-08-19 00:49:29.908,-0.825,-0.24
2021-08-19 00:49:29.912,-1.0,-0.02
2021-08-19 00:49:29.916,-1.28,0.48
2021-08-19 00:49:29.920,-1.53,0.89
2021-08-19 00:49:29.924,-1.94,1.045
2021-08-19 00:49:29.964,-1.68,-1.635
2021-08-19 00:49:29.968,-1.21,-1.325
2021-08-19 00:49:29.972,-0.77,-1.05
2021-08-19 00:49:29.976,-0.51,-0.755
2021-08-19 00:49:29.980,-0.365,-0.43
2021-08-19 00:49:29.984,-0.305,-0.185
2021-08-19 00:49:29.988,-0.265,-0.105
2021-08-19 00:49:29.992,-0.28,-0.07
2021-08-19 00:49:29.996,-0.285,-0.06
2021-08-19 00:49:30.000,-0.215,-0.065
2021-08-19 00:49:30.004,-0.19,-0.115
2021-08-19 00:49:30.008,-0.185,-0.135
2021-08-19 00:49:30.012,-0.22,-0.18
2021-08-19 00:49:30.016,-0.22,-0.165
2021-08-19 00:49:30.020,-0.23,-0.22
2021-08-19 00:49:30.024,-0.2,-0.255
2021-08-19 00:49:30.028,-0.21,-0.275
2021-08-19 00:49:30.032,-0.22,-0.27
2021-08-19 00:49:30.036,-0.21,-0.27
2021-08-19 00:49:30.040,-0.205,-0.26
2021-08-19 00:49:30.044,-0.185,-0.305
2021-08-19 00:49:30.048,-0.185,-0.27
2021-08-19 00:49:30.052,-0.16,-0.28
2021-08-19 00:49:30.056,-0.17,-0.31
2021-08-19 00:49:30.060,-0.15,-0.3
2021-08-19 00:49:30.064,-0.13,-0.325
2021-08-19 00:49:30.068,-0.105,-0.35
2021-08-19 00:49:30.072,-0.095,-0.34
2021-08-19 00:49:30.076,-0.06,-0.37
2021-08-19 00:49:30.080,-0.095,-0.295
2021-08-19 00:49:30.084,-0.105,-0.295
2021-08-19 00:49:30.088,-0.04,-0.25
2021-08-19 00:49:30.092,0.015,-0.23
2021-08-19 00:49:30.096,0.05,-0.19
2021-08-19 00:49:30.100,0.1,-0.195
2021-08-19 00:49:30.104,0.13,-0.18
2021-08-19 00:49:30.108,0.15,-0.11
2021-08-19 00:49:30.112,0.23,-0.06
2021-08-19 00:49:30.116,0.31,-0.025
2021-08-19 00:49:30.120,0.325,0.04
2021-08-19 00:49:30.124,0.38,0.04
2021-08-19 00:49:30.128,0.4,0.115
2021-08-19 00:49:30.132,0.47,0.185
2021-08-19 00:49:30.136,0.52,0.225
2021-08-19 00:49:30.140,0.565,0.225
2021-08-19 00:49:30.144,0.565,0.26
2021-08-19 00:49:30.148,0.59,0.29
2021-08-19 00:49:30.152,0.615,0.35
2021-08-19 00:49:30.156,0.62,0.425
2021-08-19 00:49:30.160,0.635,0.48
2021-08-19 00:49:30.164,0.69,0.49
2021-08-19 00:49:30.168,0.71,0.51
2021-08-19 00:49:30.172,0.705,0.57
2021-08-19 00:49:30.176,0.68,0.655
2021-08-19 00:49:30.180,0.735,0.69
2021-08-19 00:49:30.184,0.7,0.74
2021-08-19 00:49:30.188,0.675,0.77
2021-08-19 00:49:30.192,0.65,0.83
2021-08-19 00:49:30.196,0.61,0.825
2021-08-19 00:49:30.200,0.58,0.9
2021-08-19 00:49:30.204,0.53,0.915
2021-08-19 00:49:30.208,0.5,0.95
2021-08-19 00:49:30.212,0.475,0.965
2021-08-19 00:49:30.216,0.435,0.935
2021-08-19 00:49:30.220,0.34,0.975
2021-08-19 00:49:30.224,0.285,0.95
2021-08-19 00:49:30.228,0.245,0.95
2021-08-19 00:49:30.232,0.23,0.88
2021-08-19 00:49:30.236,0.19,0.86
2021-08-19 00:49:30.240,0.13,0.83
2021-08-19 00:49:30.244,0.05,0.75
2021-08-19 00:49:30.248,0.02,0.685
2021-08-19 00:49:30.252,0.0,0.67
2021-08-19 00:49:30.256,-0.005,0.635
2021-08-19 00:49:30.260,-0.045,0.57
2021-08-19 00:49:30.264,-0.1,0.53
2021-08-19 00:49:30.268,-0.12,0.505
2021-08-19 00:49:30.272,-0.16,0.455
2021-08-19 00:49:30.276,-0.11,0.39
2021-08-19 00:49:30.280,-0.135,0.365
2021-08-19 00:49:30.284,-0.135,0.35
2021-08-19 00:49:30.288,-0.15,0.335
2021-08-19 00:49:30.292,-0.165,0.31
2021-08-19 00:49:30.296,-0.175,0.275
2021-08-19 00:49:30.300,-0.165,0.235
2021-08-19 00:49:30.304,-0.175,0.2
2021-08-19 00:49:30.308,-0.205,0.175
2021-08-19 00:49:30.312,-0.19,0.15
2021-08-19 00:49:30.316,-0.2,0.125
2021-08-19 00:49:30.320,-0.225,0.115
2021-08-19 00:49:30.324,-0.26,0.07
2021-08-19 00:49:30.328,-0.28,0.055
2021-08-19 00:49:30.332,-0.305,0.06
2021-08-19 00:49:30.336,-0.335,0.03
2021-08-19 00:49:30.340,-0.325,0.01
2021-08-19 00:49:30.344,-0.335,0.0
2021-08-19 00:49:30.348,-0.31,-0.015
2021-08-19 00:49:30.352,-0.315,-0.02
2021-08-19 00:49:30.356,-0.325,-0.01
2021-08-19 00:49:30.360,-0.32,-0.035
2021-08-19 00:49:30.364,-0.37,-0.02
2021-08-19 00:49:30.368,-0.4,-0.015
2021-08-19 00:49:30.372,-0.36,-0.06
2021-08-19 00:49:30.376,-0.355,-0.085
2021-08-19 00:49:30.380,-0.35,-0.09
2021-08-19 00:49:30.384,-0.375,-0.07
2021-08-19 00:49:30.388,-0.36,-0.045
2021-08-19 00:49:30.392,-0.35,-0.07
2021-08-19 00:49:30.396,-0.36,-0.105
2021-08-19 00:49:30.400,-0.34,-0.07
2021-08-19 00:49:30.404,-0.365,-0.05
2021-08-19 00:49:30.408,-0.32,-0.05
2021-08-19 00:49:30.412,-0.295,-0.045
2021-08-19 00:49:30.416,-0.24,-0.025
2021-08-19 00:49:30.420,-0.265,-0.01
2021-08-19 00:49:30.424,-0.26,-0.02
2021-08-19 00:49:30.428,-0.245,0.005
2021-08-19 00:49:30.432,-0.245,0.03
2021-08-19 00:49:30.436,-0.22,0.02
2021-08-19 00:49:30.440,-0.225,0.045
2021-08-19 00:49:30.444,-0.23,0.045
2021-08-19 00:49:30.448,-0.245,0.095
2021-08-19 00:49:30.452,-0.26,0.05
2021-08-19 00:49:30.456,-0.29,0.065
2021-08-19 00:49:30.460,-0.215,0.02
2021-08-19 00:49:30.464,-0.21,0.025
2021-08-19 00:49:30.468,-0.25,0.015
2021-08-19 00:49:30.472,-0.24,-0.01
2021-08-19 00:49:30.476,-0.25,-0.025
2021-08-19 00:49:30.480,-0.27,-0.05
2021-08-19 00:49:30.484,-0.235,-0.04
2021-08-19 00:49:30.488,-0.27,-0.065
2021-08-19 00:49:30.492,-0.27,-0.095
2021-08-19 00:49:30.496,-0.26,-0.125
2021-08-19 00:49:30.500,-0.25,-0.125
2021-08-19 00:49:30.504,-0.24,-0.095
2021-08-19 00:49:30.508,-0.24,-0.11
2021-08-19 00:49:30.512,-0.24,-0.12
2021-08-19 00:49:30.516,-0.255,-0.125
2021-08-19 00:49:30.520,-0.27,-0.135
2021-08-19 00:49:30.524,-0.275,-0.135
2021-08-19 00:49:30.528,-0.255,-0.12
2021-08-19 00:49:30.532,-0.23,-0.13
2021-08-19 00:49:30.536,-0.27,-0.155
2021-08-19 00:49:30.540,-0.29,-0.145
2021-08-19 00:49:30.544,-0.29,-0.195
2021-08-19 00:49:30.548,-0.28,-0.2
2021-08-19 00:49:30.552,-0.29,-0.21
2021-08-19 00:49:30.556,-0.33,-0.19
2021-08-19 00:49:30.560,-0.325,-0.21
2021-08-19 00:49:30.564,-0.345,-0.195
2021-08-19 00:49:30.568,-0.385,-0.205
2021-08-19 00:49:30.572,-0.38,-0.2
2021-08-19 00:49:30.576,-0.345,-0.2
2021-08-19 00:49:30.580,-0.405,-0.195
2021-08-19 00:49:30.584,-0.415,-0.22
2021-08-19 00:49:30.588,-0.42,-0.22
2021-08-19 00:49:30.592,-0.375,-0.205
2021-08-19 00:49:30.596,-0.34,-0.225
2021-08-19 00:49:30.600,-0.335,-0.2
2021-08-19 00:49:30.604,-0.385,-0.2
2021-08-19 00:49:30.608,-0.38,-0.2
2021-08-19 00:49:30.612,-0.395,-0.2
2021-08-19 00:49:30.616,-0.375,-0.185
2021-08-19 00:49:30.620,-0.36,-0.2
2021-08-19 00:49:30.624,-0.36,-0.195
2021-08-19 00:49:30.628,-0.375,-0.185
2021-08-19 00:49:30.632,-0.37,-0.18
2021-08-19 00:49:30.636,-0.345,-0.175
2021-08-19 00:49:30.640,-0.345,-0.15
2021-08-19 00:49:30.644,-0.32,-0.17
2021-08-19 00:49:30.648,-0.3,-0.145
2021-08-19 00:49:30.652,-0.28,-0.145
2021-08-19 00:49:30.656,-0.28,-0.13
2021-08-19 00:49:30.660,-0.26,-0.12
2021-08-19 00:49:30.664,-0.22,-0.085
2021-08-19 00:49:30.668,-0.225,-0.06
2021-08-19 00:49:30.672,-0.21,-0.055
2021-08-19 00:49:30.676,-0.24,-0.035
2021-08-19 00:49:30.680,-0.225,-0.01
2021-08-19 00:49:30.684,-0.205,-0.02
2021-08-19 00:49:30.688,-0.205,-0.02
2021-08-19 00:49:30.692,-0.215,-0.015
2021-08-19 00:49:30.696,-0.225,-0.02
2021-08-19 00:49:30.700,-0.25,-0.04
2021-08-19 00:49:30.704,-0.23,-0.075
2021-08-19 00:49:30.708,-0.23,-0.115
2021-08-19 00:49:30.712,-0.225,-0.13
2021-08-19 00:49:30.716,-0.265,-0.155
2021-08-19 00:49:30.720,-0.3,-0.16
2021-08-19 00:49:30.724,-0.29,-0.185
2021-08-19 00:49:30.728,-0.285,-0.18
2021-08-19 00:49:30.732,-0.28,-0.21
2021-08-19 00:49:30.736,-0.28,-0.21
2021-08-19 00:49:30.740,-0.28,-0.195
2021-08-19 00:49:30.744,-0.255,-0.2
2021-08-19 00:49:30.748,-0.28,-0.2
2021-08-19 00:49:30.752,-0.26,-0.205
2021-08-19 00:49:30.756,-0.255,-0.19
2021-08-19 00:49:30.760,-0.36,-0.21
2021-08-19 00:49:30.764,-0.45,-0.185
2021-08-19 00:49:30.768,-0.59,-0.23
2021-08-19 00:49:30.772,-0.65,-0.25
2021-08-19 00:49:30.776,-0.625,-0.28
2021-08-19 00:49:30.780,-0.61,-0.32
2021-08-19 00:49:30.784,-0.435,-0.415
2021-08-19 00:49:30.788,-0.2,-0.465
2021-08-19 00:49:30.792,-0.115,-0.49
2021-08-19 00:49:30.796,-0.26,-0.43
2021-08-19 00:49:30.800,-0.145,-0.505
2021-08-19 00:49:30.804,0.075,-0.635
2021-08-19 00:49:30.808,-0.05,-0.52
2021-08-19 00:49:30.812,-0.41,-0.09
2021-08-19 00:49:30.816,-1.01,0.45
2021-08-19 00:49:30.820,-1.655,0.66
2021-08-19 00:49:30.860,-1.82,-1.61
2021-08-19 00:49:30.864,-1.435,-1.36
2021-08-19 00:49:30.868,-1.03,-1.195
2021-08-19 00:49:30.872,-0.785,-0.99
2021-08-19 00:49:30.876,-0.61,-0.755
2021-08-19 00:49:30.880,-0.565,-0.555
2021-08-19 00:49:30.884,-0.525,-0.455
2021-08-19 00:49:30.888,-0.445,-0.38
2021-08-19 00:49:30.892,-0.4,-0.38
2021-08-19 00:49:30.896,-0.38,-0.32
2021-08-19 00:49:30.900,-0.38,-0.28
2021-08-19 00:49:30.904,-0.355,-0.255
2021-08-19 00:49:30.908,-0.37,-0.29
2021-08-19 00:49:30.912,-0.365,-0.245
2021-08-19 00:49:30.916,-0.35,-0.24
2021-08-19 00:49:30.920,-0.3,-0.25
2021-08-19 00:49:30.924,-0.295,-0.255
2021-08-19 00:49:30.928,-0.305,-0.29
2021-08-19 00:49:30.932,-0.32,-0.32
2021-08-19 00:49:30.936,-0.295,-0.295
2021-08-19 00:49:30.940,-0.285,-0.335
2021-08-19 00:49:30.944,-0.265,-0.375
2021-08-19 00:49:30.948,-0.26,-0.39
2021-08-19 00:49:30.952,-0.265,-0.395
2021-08-19 00:49:30.956,-0.285,-0.4
2021-08-19 00:49:30.960,-0.265,-0.415
2021-08-19 00:49:30.964,-0.25,-0.43
2021-08-19 00:49:30.968,-0.235,-0.39
2021-08-19 00:49:30.972,-0.19,-0.445
2021-08-19 00:49:30.976,-0.16,-0.445
2021-08-19 00:49:30.980,-0.14,-0.41
2021-08-19 00:49:30.984,-0.085,-0.45
2021-08-19 00:49:30.988,-0.085,-0.41
2021-08-19 00:49:30.992,-0.04,-0.38
2021-08-19 00:49:30.996,-0.015,-0.405
2021-08-19 00:49:31.000,0.035,-0.365
2021-08-19 00:49:31.004,0.06,-0.35
2021-08-19 00:49:31.008,0.12,-0.36
2021-08-19 00:49:31.012,0.135,-0.335
2021-08-19 00:49:31.016,0.185,-0.3
2021-08-19 00:49:31.020,0.245,-0.315
2021-08-19 00:49:31.024,0.305,-0.255
2021-08-19 00:49:31.028,0.335,-0.22
2021-08-19 00:49:31.032,0.365,-0.19
2021-08-19 00:49:31.036,0.39,-0.12
2021-08-19 00:49:31.040,0.375,-0.09
2021-08-19 00:49:31.044,0.39,-0.095
2021-08-19 00:49:31.048,0.43,-0.02
2021-08-19 00:49:31.052,0.455,0.01
2021-08-19 00:49:31.056,0.49,0.06
2021-08-19 00:49:31.060,0.52,0.115
2021-08-19 00:49:31.064,0.5,0.145
2021-08-19 00:49:31.068,0.515,0.19
2021-08-19 00:49:31.072,0.5,0.245
2021-08-19 00:49:31.076,0.555,0.285
2021-08-19 00:49:31.080,0.565,0.33
2021-08-19 00:49:31.084,0.575,0.36
2021-08-19 00:49:31.088,0.58,0.415
2021-08-19 00:49:31.092,0.55,0.46
2021-08-19 00:49:31.096,0.56,0.47
2021-08-19 00:49:31.100,0.58,0.54
2021-08-19 00:49:31.104,0.535,0.585
2021-08-19 00:49:31.108,0.54,0.605
2021-08-19 00:49:31.112,0.52,0.655
2021-08-19 00:49:31.116,0.51,0.685
2021-08-19 00:49:31.120,0.485,0.685
2021-08-19 00:49:31.124,0.5,0.715
2021-08-19 00:49:31.128,0.46,0.755
2021-08-19 00:49:31.132,0.41,0.795
2021-08-19 00:49:31.136,0.365,0.77
2021-08-19 00:49:31.140,0.35,0.83
2021-08-19 00:49:31.144,0.285,0.82
2021-08-19 00:49:31.148,0.26,0.83
2021-08-19 00:49:31.152,0.245,0.805
2021-08-19 00:49:31.156,0.205,0.77
2021-08-19 00:49:31.160,0.18,0.735
2021-08-19 00:49:31.164,0.13,0.68
2021-08-19 00:49:31.168,0.115,0.605
2021-08-19 00:49:31.172,0.105,0.585
2021-08-19 00:49:31.176,0.07,0.545
2021-08-19 00:49:31.180,0.03,0.52
2021-08-19 00:49:31.184,0.02,0.51
2021-08-19 00:49:31.188,0.02,0.455
2021-08-19 00:49:31.192,0.02,0.41
2021-08-19 00:49:31.196,0.0,0.36
2021-08-19 00:49:31.200,-0.03,0.32
2021-08-19 00:49:31.204,-0.065,0.28
2021-08-19 00:49:31.208,-0.075,0.235
2021-08-19 00:49:31.212,-0.075,0.24
2021-08-19 00:49:31.216,-0.065,0.215
2021-08-19 00:49:31.220,-0.07,0.17
2021-08-19 00:49:31.224,-0.075,0.145
2021-08-19 00:49:31.228,-0.09,0.12
2021-08-19 00:49:31.232,-0.11,0.08
2021-08-19 00:49:31.236,-0.1,0.075
2021-08-19 00:49:31.240,-0.13,0.105
2021-08-19 00:49:31.244,-0.13,0.055
2021-08-19 00:49:31.248,-0.16,0.04
2021-08-19 00:49:31.252,-0.165,0.04
2021-08-19 00:49:31.256,-0.205,-0.005
2021-08-19 00:49:31.260,-0.15,-0.03
2021-08-19 00:49:31.264,-0.18,-0.055
2021-08-19 00:49:31.268,-0.215,-0.065
2021-08-19 00:49:31.272,-0.24,-0.07
2021-08-19 00:49:31.276,-0.28,-0.06
2021-08-19 00:49:31.280,-0.305,-0.06
2021-08-19 00:49:31.284,-0.295,-0.075
2021-08-19 00:49:31.288,-0.315,-0.125
2021-08-19 00:49:31.292,-0.325,-0.105
2021-08-19 00:49:31.296,-0.34,-0.105
2021-08-19 00:49:31.300,-0.33,-0.12
2021-08-19 00:49:31.304,-0.345,-0.105
2021-08-19 00:49:31.308,-0.335,-0.09
2021-08-19 00:49:31.312,-0.335,-0.105
2021-08-19 00:49:31.316,-0.345,-0.105
2021-08-19 00:49:31.320,-0.375,-0.115
2021-08-19 00:49:31.324,-0.36,-0.075
2021-08-19 00:49:31.328,-0.315,-0.125
2021-08-19 00:49:31.332,-0.29,-0.085
2021-08-19 00:49:31.336,-0.3,-0.095
2021-08-19 00:49:31.340,-0.3,-0.085
2021-08-19 00:49:31.344,-0.285,-0.09
2021-08-19 00:49:31.348,-0.27,-0.08
2021-08-19 00:49:31.352,-0.22,-0.065
2021-08-19 00:49:31.356,-0.21,-0.075
2021-08-19 00:49:31.360,-0.2,-0.03
2021-08-19 00:49:31.364,-0.215,0.005
2021-08-19 00:49:31.368,-0.23,0.015
2021-08-19 00:49:31.372,-0.18,0.035
2021-08-19 00:49:31.376,-0.205,0.075
2021-08-19 00:49:31.380,-0.21,0.065
2021-08-19 00:49:31.384,-0.19,0.04
2021-08-19 00:49:31.388,-0.205,0.035
2021-08-19 00:49:31.392,-0.19,0.04
2021-08-19 00:49:31.396,-0.21,0.0
2021-08-19 00:49:31.400,-0.205,-0.015
2021-08-19 00:49:31.404,-0.225,-0.04
2021-08-19 00:49:31.408,-0.26,-0.025
2021-08-19 00:49:31.412,-0.24,-0.015
2021-08-19 00:49:31.416,-0.24,-0.055
2021-08-19 00:49:31.420,-0.26,-0.07
2021-08-19 00:49:31.424,-0.265,-0.08
2021-08-19 00:49:31.428,-0.27,-0.095
2021-08-19 00:49:31.432,-0.29,-0.12
2021-08-19 00:49:31.436,-0.315,-0.14
2021-08-19 00:49:31.440,-0.37,-0.125
2021-08-19 00:49:31.444,-0.425,-0.125
2021-08-19 00:49:31.448,-0.5,-0.115
2021-08-19 00:49:31.452,-0.55,-0.16
2021-08-19 00:49:31.456,-0.495,-0.255
2021-08-19 00:49:31.460,-0.46,-0.33
2021-08-19 00:49:31.464,-0.315,-0.34
2021-08-19 00:49:31.468,-0.045,-0.425
2021-08-19 00:49:31.472,-0.015,-0.41
2021-08-19 00:49:31.476,-0.21,-0.225
2021-08-19 00:49:31.480,-0.085,-0.205
2021-08-19 00:49:31.484,0.09,-0.13
2021-08-19 00:49:31.488,-0.125,0.185
2021-08-19 00:49:31.492,-0.58,0.735
2021-08-19 00:49:31.496,-1.08,1.115
2021-08-19 00:49:31.500,-1.66,0.88
2021-08-19 00:49:31.540,-1.785,-1.865
2021-08-19 00:49:31.544,-1.36,-1.57
2021-08-19 00:49:31.548,-0.965,-1.3
2021-08-19 00:49:31.552,-0.73,-1.025
2021-08-19 00:49:31.556,-0.58,-0.71
2021-08-19 00:49:31.560,-0.51,-0.5
2021-08-19 00:49:31.564,-0.495,-0.42
2021-08-19 00:49:31.568,-0.475,-0.385
2021-08-19 00:49:31.572,-0.445,-0.39
2021-08-19 00:49:31.576,-0.4,-0.375
2021-08-19 00:49:31.580,-0.41,-0.355
2021-08-19 00:49:31.584,-0.38,-0.37
2021-08-19 00:49:31.588,-0.38,-0.365
2021-08-19 00:49:31.592,-0.36,-0.33
2021-08-19 00:49:31.596,-0.375,-0.34
2021-08-19 00:49:31.600,-0.34,-0.305
2021-08-19 00:49:31.604,-0.345,-0.28
2021-08-19 00:49:31.608,-0.3,-0.29
2021-08-19 00:49:31.612,-0.28,-0.295
2021-08-19 00:49:31.616,-0.26,-0.265
2021-08-19 00:49:31.620,-0.245,-0.245
2021-08-19 00:49:31.624,-0.245,-0.245
2021-08-19 00:49:31.628,-0.225,-0.28
2021-08-19 00:49:31.632,-0.19,-0.32
2021-08-19 00:49:31.636,-0.205,-0.315
2021-08-19 00:49:31.640,-0.22,-0.32
2021-08-19 00:49:31.644,-0.2,-0.305
2021-08-19 00:49:31.648,-0.19,-0.3
2021-08-19 00:49:31.652,-0.17,-0.315
2021-08-19 00:49:31.656,-0.16,-0.275
2021-08-19 00:49:31.660,-0.11,-0.3
2021-08-19 00:49:31.664,-0.1,-0.28
2021-08-19 00:49:31.668,-0.065,-0.25
2021-08-19 00:49:31.672,0.0,-0.235
2021-08-19 00:49:31.676,0.03,-0.18
2021-08-19 00:49:31.680,0.09,-0.165
2021-08-19 00:49:31.684,0.095,-0.135
2021-08-19 00:49:31.688,0.145,-0.13
2021-08-19 00:49:31.692,0.215,-0.07
2021-08-19 00:49:31.696,0.265,-0.02
2021-08-19 00:49:31.700,0.295,0.005
2021-08-19 00:49:31.704,0.345,0.025
2021-08-19 00:49:31.708,0.365,0.03
2021-08-19 00:49:31.712,0.39,0.065
2021-08-19 00:49:31.716,0.44,0.1
2021-08-19 00:49:31.720,0.455,0.19
2021-08-19 00:49:31.724,0.48,0.21
2021-08-19 00:49:31.728,0.49,0.255
2021-08-19 00:49:31.732,0.51,0.26
2021-08-19 00:49:31.736,0.535,0.3
2021-08-19 00:49:31.740,0.58,0.33
2021-08-19 00:49:31.744,0.58,0.345
2021-08-19 00:49:31.748,0.585,0.395
2021-08-19 00:49:31.752,0.58,0.395
2021-08-19 00:49:31.756,0.61,0.47
2021-08-19 00:49:31.760,0.595,0.51
2021-08-19 00:49:31.764,0.56,0.52
2021-08-19 00:49:31.768,0.535,0.575
2021-08-19 00:49:31.772,0.525,0.59
2021-08-19 00:49:31.776,0.47,0.61
2021-08-19 00:49:31.780,0.415,0.635
2021-08-19 00:49:31.784,0.405,0.665
2021-08-19 00:49:31.788,0.35,0.64
2021-08-19 00:49:31.792,0.32,0.665
2021-08-19 00:49:31.796,0.275,0.665
2021-08-19 00:49:31.800,0.205,0.635
2021-08-19 00:49:31.804,0.16,0.645
2021-08-19 00:49:31.808,0.115,0.66
2021-08-19 00:49:31.812,0.09,0.625
2021-08-19 00:49:31.816,0.025,0.605
2021-08-19 00:49:31.820,0.0,0.58
2021-08-19 00:49:31.824,-0.03,0.575
2021-08-19 00:49:31.828,-0.02,0.565
2021-08-19 00:49:31.832,-0.02,0.565
2021-08-19 00:49:31.836,-0.005,0.555
2021-08-19 00:49:31.840,-0.02,0.57
2021-08-19 00:49:31.844,-0.06,0.535
2021-08-19 00:49:31.848,-0.07,0.57
2021-08-19 00:49:31.852,-0.065,0.555
2021-08-19 00:49:31.856,-0.075,0.52
2021-08-19 00:49:31.860,-0.095,0.515
2021-08-19 00:49:31.864,-0.115,0.46
2021-08-19 00:49:31.868,-0.105,0.4
2021-08-19 00:49:31.872,-0.125,0.365
2021-08-19 00:49:31.876,-0.125,0.38
2021-08-19 00:49:31.880,-0.16,0.29
2021-08-19 00:49:31.884,-0.175,0.235
2021-08-19 00:49:31.888,-0.215,0.21
2021-08-19 00:49:31.892,-0.245,0.255
2021-08-19 00:49:31.896,-0.23,0.185
2021-08-19 00:49:31.900,-0.25,0.145
2021-08-19 00:49:31.904,-0.27,0.115
2021-08-19 00:49:31.908,-0.29,0.125
2021-08-19 00:49:31.912,-0.305,0.06
2021-08-19 00:49:31.916,-0.305,0.035
2021-08-19 00:49:31.920,-0.315,0.01
2021-08-19 00:49:31.924,-0.32,0.04
2021-08-19 00:49:31.928,-0.335,0.0
2021-08-19 00:49:31.932,-0.33,0.005
2021-08-19 00:49:31.936,-0.34,-0.01
2021-08-19 00:49:31.940,-0.345,-0.07
2021-08-19 00:49:31.944,-0.345,-0.075
2021-08-19 00:49:31.948,-0.37,-0.055
2021-08-19 00:49:31.952,-0.365,-0.115
2021-08-19 00:49:31.956,-0.39,-0.11
2021-08-19 00:49:31.960,-0.415,-0.16
2021-08-19 00:49:31.964,-0.385,-0.16
2021-08-19 00:49:31.968,-0.41,-0.135
2021-08-19 00:49:31.972,-0.405,-0.155
2021-08-19 00:49:31.976,-0.425,-0.16
2021-08-19 00:49:31.980,-0.425,-0.17
2021-08-19 00:49:31.984,-0.445,-0.15
2021-08-19 00:49:31.988,-0.43,-0.155
2021-08-19 00:49:31.992,-0.385,-0.14
2021-08-19 00:49:31.996,-0.395,-0.145
2021-08-19 00:49:32.000,-0.465,-0.2
2021-08-19 00:49:32.004,-0.44,-0.225
2021-08-19 00:49:32.008,-0.435,-0.18
2021-08-19 00:49:32.012,-0.435,-0.175
2021-08-19 00:49:32.016,-0.44,-0.155
2021-08-19 00:49:32.020,-0.425,-0.15
2021-08-19 00:49:32.024,-0.47,-0.15
2021-08-19 00:49:32.028,-0.47,-0.17
2021-08-19 00:49:32.032,-0.46,-0.165
2021-08-19 00:49:32.036,-0.425,-0.15
2021-08-19 00:49:32.040,-0.405,-0.145
2021-08-19 00:49:32.044,-0.41,-0.165
2021-08-19 00:49:32.048,-0.4,-0.12
2021-08-19 00:49:32.052,-0.375,-0.085
2021-08-19 00:49:32.056,-0.34,-0.135
2021-08-19 00:49:32.060,-0.355,-0.095
2021-08-19 00:49:32.064,-0.355,-0.1
2021-08-19 00:49:32.068,-0.335,-0.04
2021-08-19 00:49:32.072,-0.315,-0.045
2021-08-19 00:49:32.076,-0.26,-0.04
2021-08-19 00:49:32.080,-0.225,0.0
2021-08-19 00:49:32.084,-0.22,0.05
2021-08-19 00:49:32.088,-0.23,0.09
2021-08-19 00:49:32.092,-0.24,0.115
2021-08-19 00:49:32.096,-0.265,0.115
2021-08-19 00:49:32.100,-0.255,0.135
2021-08-19 00:49:32.104,-0.215,0.105
2021-08-19 00:49:32.108,-0.215,0.1
2021-08-19 00:49:32.112,-0.24,0.07
2021-08-19 00:49:32.116,-0.29,0.075
2021-08-19 00:49:32.120,-0.27,0.045
2021-08-19 00:49:32.124,-0.26,-0.04
2021-08-19 00:49:32.128,-0.24,-0.02
2021-08-19 00:49:32.132,-0.235,-0.035
2021-08-19 00:49:32.136,-0.225,-0.06
2021-08-19 00:49:32.140,-0.28,-0.06
2021-08-19 00:49:32.144,-0.34,-0.08
2021-08-19 00:49:32.148,-0.345,-0.075
2021-08-19 00:49:32.152,-0.34,-0.095
2021-08-19 00:49:32.156,-0.35,-0.055
2021-08-19 00:49:32.160,-0.38,-0.07
2021-08-19 00:49:32.164,-0.37,-0.055
2021-08-19 00:49:32.168,-0.365,-0.06
2021-08-19 00:49:32.172,-0.375,-0.055
2021-08-19 00:49:32.176,-0.39,-0.095
2021-08-19 00:49:32.180,-0.425,-0.085
2021-08-19 00:49:32.184,-0.395,-0.06
2021-08-19 00:49:32.188,-0.39,-0.08
2021-08-19 00:49:32.192,-0.38,-0.065
2021-08-19 00:49:32.196,-0.425,-0.075
2021-08-19 00:49:32.200,-0.435,-0.075
2021-08-19 00:49:32.204,-0.405,-0.085
2021-08-19 00:49:32.208,-0.42,-0.095
2021-08-19 00:49:32.212,-0.45,-0.115
2021-08-19 00:49:32.216,-0.44,-0.11
2021-08-19 00:49:32.220,-0.455,-0.065
2021-08-19 00:49:32.224,-0.44,-0.065
2021-08-19 00:49:32.228,-0.415,-0.08
2021-08-19 00:49:32.232,-0.45,-0.075
2021-08-19 00:49:32.236,-0.42,-0.08
2021-08-19 00:49:32.240,-0.45,-0.09
2021-08-19 00:49:32.244,-0.425,-0.08
2021-08-19 00:49:32.248,-0.43,-0.1
2021-08-19 00:49:32.252,-0.515,-0.09
2021-08-19 00:49:32.256,-0.625,-0.08
2021-08-19 00:49:32.260,-0.68,-0.115
2021-08-19 00:49:32.264,-0.675,-0.15
2021-08-19 00:49:32.268,-0.62,-0.225
2021-08-19 00:49:32.272,-0.58,-0.275
2021-08-19 00:49:32.276,-0.405,-0.35
2021-08-19 00:49:32.280,-0.135,-0.395
2021-08-19 00:49:32.284,-0.22,-0.37
2021-08-19 00:49:32.288,-0.465,-0.205
2021-08-19 00:49:32.292,-0.46,-0.18
2021-08-19 00:49:32.296,-0.405,-0.125
2021-08-19 00:49:32.300,-0.68,0.16
2021-08-19 00:49:32.304,-1.045,0.715
2021-08-19 00:49:32.308,-1.45,1.155
2021-08-19 00:49:32.312,-1.86,0.98
2021-08-19 00:49:32.348,-1.835,-1.425
2021-08-19 00:49:32.352,-1.39,-1.165
2021-08-19 00:49:32.356,-0.935,-1.015
2021-08-19 00:49:32.360,-0.67,-0.825
2021-08-19 00:49:32.364,-0.47,-0.59
2021-08-19 00:49:32.368,-0.425,-0.365
2021-08-19 00:49:32.372,-0.39,-0.28
2021-08-19 00:49:32.376,-0.345,-0.28
2021-08-19 00:49:32.380,-0.32,-0.265
2021-08-19 00:49:32.384,-0.32,-0.245
2021-08-19 00:49:32.388,-0.34,-0.27
2021-08-19 00:49:32.392,-0.36,-0.31
2021-08-19 00:49:32.396,-0.405,-0.305
2021-08-19 00:49:32.400,-0.435,-0.34
2021-08-19 00:49:32.404,-0.43,-0.32
2021-08-19 00:49:32.408,-0.415,-0.34
2021-08-19 00:49:32.412,-0.44,-0.33
2021-08-19 00:49:32.416,-0.47,-0.355
2021-08-19 00:49:32.420,-0.48,-0.35
2021-08-19 00:49:32.424,-0.47,-0.36
2021-08-19 00:49:32.428,-0.51,-0.38
2021-08-19 00:49:32.432,-0.49,-0.36
2021-08-19 00:49:32.436,-0.465,-0.36
2021-08-19 00:49:32.440,-0.46,-0.36
2021-08-19 00:49:32.444,-0.445,-0.335
2021-08-19 00:49:32.448,-0.455,-0.335
2021-08-19 00:49:32.452,-0.43,-0.355
2021-08-19 00:49:32.456,-0.405,-0.31
2021-08-19 00:49:32.460,-0.4,-0.31
2021-08-19 00:49:32.464,-0.395,-0.315
2021-08-19 00:49:32.468,-0.375,-0.285
2021-08-19 00:49:32.472,-0.305,-0.28
2021-08-19 00:49:32.476,-0.25,-0.275
2021-08-19 00:49:32.480,-0.24,-0.245
2021-08-19 00:49:32.484,-0.255,-0.2
2021-08-19 00:49:32.488,-0.21,-0.18
2021-08-19 00:49:32.492,-0.155,-0.175
2021-08-19 00:49:32.496,-0.09,-0.15
2021-08-19 00:49:32.500,-0.02,-0.105
2021-08-19 00:49:32.504,0.03,-0.07
2021-08-19 00:49:32.508,0.075,-0.01
2021-08-19 00:49:32.512,0.105,0.03
2021-08-19 00:49:32.516,0.155,0.02
2021-08-19 00:49:32.520,0.24,0.095
2021-08-19 00:49:32.524,0.3,0.115
2021-08-19 00:49:32.528,0.33,0.185
2021-08-19 00:49:32.532,0.365,0.235
2021-08-19 00:49:32.536,0.395,0.28
2021-08-19 00:49:32.540,0.47,0.355
2021-08-19 00:49:32.544,0.525,0.395
2021-08-19 00:49:32.548,0.57,0.44
2021-08-19 00:49:32.552,0.575,0.475
2021-08-19 00:49:32.556,0.635,0.575
2021-08-19 00:49:32.560,0.635,0.62
2021-08-19 00:49:32.564,0.685,0.67
2021-08-19 00:49:32.568,0.655,0.735
2021-08-19 00:49:32.572,0.635,0.78
2021-08-19 00:49:32.576,0.66,0.825
2021-08-19 00:49:32.580,0.64,0.82
2021-08-19 00:49:32.584,0.625,0.885
2021-08-19 00:49:32.588,0.595,0.92
2021-08-19 00:49:32.592,0.615,0.95
2021-08-19 00:49:32.596,0.545,0.875
2021-08-19 00:49:32.600,0.505,0.885
2021-08-19 00:49:32.604,0.48,0.85
2021-08-19 00:49:32.608,0.45,0.815
2021-08-19 00:49:32.612,0.385,0.805
2021-08-19 00:49:32.616,0.335,0.83
2021-08-19 00:49:32.620,0.245,0.775
2021-08-19 00:49:32.624,0.22,0.77
2021-08-19 00:49:32.628,0.135,0.7
2021-08-19 00:49:32.632,0.06,0.71
2021-08-19 00:49:32.636,0.015,0.635
2021-08-19 00:49:32.640,-0.02,0.605
2021-08-19 00:49:32.644,-0.09,0.575
2021-08-19 00:49:32.648,-0.14,0.545
2021-08-19 00:49:32.652,-0.175,0.495
2021-08-19 00:49:32.656,-0.23,0.48
2021-08-19 00:49:32.660,-0.25,0.415
2021-08-19 00:49:32.664,-0.26,0.38
2021-08-19 00:49:32.668,-0.295,0.35
2021-08-19 00:49:32.672,-0.355,0.345
2021-08-19 00:49:32.676,-0.345,0.3
2021-08-19 00:49:32.680,-0.355,0.3
2021-08-19 00:49:32.684,-0.32,0.28
2021-08-19 00:49:32.688,-0.375,0.265
2021-08-19 00:49:32.692,-0.41,0.255
2021-08-19 00:49:32.696,-0.395,0.26
2021-08-19 00:49:32.700,-0.38,0.21
2021-08-19 00:49:32.704,-0.365,0.19
2021-08-19 00:49:32.708,-0.365,0.195
2021-08-19 00:49:32.712,-0.4,0.17
2021-08-19 00:49:32.716,-0.415,0.155
2021-08-19 00:49:32.720,-0.41,0.14
2021-08-19 00:49:32.724,-0.38,0.105
2021-08-19 00:49:32.728,-0.39,0.105
2021-08-19 00:49:32.732,-0.395,0.095
2021-08-19 00:49:32.736,-0.395,0.07
2021-08-19 00:49:32.740,-0.41,0.07
2021-08-19 00:49:32.744,-0.42,0.03
2021-08-19 00:49:32.748,-0.385,0.03
2021-08-19 00:49:32.752,-0.385,0.01
2021-08-19 00:49:32.756,-0.385,0.02
2021-08-19 00:49:32.760,-0.39,0.01
2021-08-19 00:49:32.764,-0.365,-0.005
2021-08-19 00:49:32.768,-0.35,0.02
2021-08-19 00:49:32.772,-0.33,0.03
2021-08-19 00:49:32.776,-0.285,-0.005
2021-08-19 00:49:32.780,-0.315,0.005
2021-08-19 00:49:32.784,-0.33,0.045
2021-08-19 00:49:32.788,-0.3,0.07
2021-08-19 00:49:32.792,-0.25,0.105
2021-08-19 00:49:32.796,-0.265,0.1
2021-08-19 00:49:32.800,-0.25,0.13
2021-08-19 00:49:32.804,-0.26,0.145
2021-08-19 00:49:32.808,-0.295,0.14
2021-08-19 00:49:32.812,-0.3,0.085
2021-08-19 00:49:32.816,-0.3,0.09
2021-08-19 00:49:32.820,-0.275,0.04
2021-08-19 00:49:32.824,-0.265,0.005
2021-08-19 00:49:32.828,-0.305,0.01
2021-08-19 00:49:32.832,-0.32,0.005
2021-08-19 00:49:32.836,-0.275,0.0
2021-08-19 00:49:32.840,-0.32,-0.025
2021-08-19 00:49:32.844,-0.33,-0.055
2021-08-19 00:49:32.848,-0.34,-0.05
2021-08-19 00:49:32.852,-0.345,-0.08
2021-08-19 00:49:32.856,-0.355,-0.075
2021-08-19 00:49:32.860,-0.34,-0.1
2021-08-19 00:49:32.864,-0.33,-0.125
2021-08-19 00:49:32.868,-0.32,-0.11
2021-08-19 00:49:32.872,-0.35,-0.105
2021-08-19 00:49:32.876,-0.395,-0.11
2021-08-19 00:49:32.880,-0.405,-0.12
2021-08-19 00:49:32.884,-0.44,-0.16
2021-08-19 00:49:32.888,-0.425,-0.15
2021-08-19 00:49:32.892,-0.455,-0.18
2021-08-19 00:49:32.896,-0.45,-0.19
2021-08-19 00:49:32.900,-0.485,-0.2
2021-08-19 00:49:32.904,-0.51,-0.22
2021-08-19 00:49:32.908,-0.515,-0.205
2021-08-19 00:49:32.912,-0.515,-0.21
2021-08-19 00:49:32.916,-0.52,-0.225
2021-08-19 00:49:32.920,-0.55,-0.22
2021-08-19 00:49:32.924,-0.52,-0.18
2021-08-19 00:49:32.928,-0.525,-0.185
2021-08-19 00:49:32.932,-0.54,-0.18
2021-08-19 00:49:32.936,-0.5,-0.17
2021-08-19 00:49:32.940,-0.53,-0.165
2021-08-19 00:49:32.944,-0.535,-0.17
2021-08-19 00:49:32.948,-0.535,-0.18
2021-08-19 00:49:32.952,-0.515,-0.19
2021-08-19 00:49:32.956,-0.51,-0.175
2021-08-19 00:49:32.960,-0.535,-0.195
2021-08-19 00:49:32.964,-0.53,-0.2
2021-08-19 00:49:32.968,-0.55,-0.175
2021-08-19 00:49:32.972,-0.565,-0.185
2021-08-19 00:49:32.976,-0.5,-0.16
2021-08-19 00:49:32.980,-0.5,-0.18
2021-08-19 00:49:32.984,-0.51,-0.18
2021-08-19 00:49:32.988,-0.53,-0.17
2021-08-19 00:49:32.992,-0.495,-0.14
2021-08-19 00:49:32.996,-0.48,-0.145
2021-08-19 00:49:33.000,-0.44,-0.145
2021-08-19 00:49:33.004,-0.45,-0.15
2021-08-19 00:49:33.008,-0.405,-0.155
2021-08-19 00:49:33.012,-0.38,-0.085
2021-08-19 00:49:33.016,-0.36,-0.04
2021-08-19 00:49:33.020,-0.345,-0.02
2021-08-19 00:49:33.024,-0.33,0.0
2021-08-19 00:49:33.028,-0.32,-0.01
2021-08-19 00:49:33.032,-0.33,0.025
2021-08-19 00:49:33.036,-0.375,0.01
2021-08-19 00:49:33.040,-0.36,0.04
2021-08-19 00:49:33.044,-0.295,0.045
2021-08-19 00:49:33.048,-0.3,0.005
2021-08-19 00:49:33.052,-0.375,-0.025
2021-08-19 00:49:33.056,-0.48,-0.03
2021-08-19 00:49:33.060,-0.51,-0.08
2021-08-19 00:49:33.064,-0.465,-0.115
2021-08-19 00:49:33.068,-0.41,-0.18
2021-08-19 00:49:33.072,-0.35,-0.28
2021-08-19 00:49:33.076,-0.15,-0.375
2021-08-19 00:49:33.080,-0.09,-0.475
2021-08-19 00:49:33.084,-0.355,-0.365
2021-08-19 00:49:33.088,-0.55,-0.26
2021-08-19 00:49:33.092,-0.44,-0.3
2021-08-19 00:49:33.096,-0.6,-0.12
2021-08-19 00:49:33.100,-0.96,0.43
2021-08-19 00:49:33.104,-1.31,1.0
2021-08-19 00:49:33.108,-1.725,1.085
2021-08-19 00:49:33.148,-1.95,-1.75
2021-08-19 00:49:33.152,-1.55,-1.48
2021-08-19 00:49:33.156,-1.1,-1.175
2021-08-19 00:49:33.160,-0.825,-0.92
2021-08-19 00:49:33.164,-0.675,-0.635
2021-08-19 00:49:33.168,-0.6,-0.455
2021-08-19 00:49:33.172,-0.565,-0.355
2021-08-19 00:49:33.176,-0.525,-0.335
2021-08-19 00:49:33.180,-0.52,-0.295
2021-08-19 00:49:33.184,-0.48,-0.285
2021-08-19 00:49:33.188,-0.47,-0.315
2021-08-19 00:49:33.192,-0.49,-0.29
2021-08-19 00:49:33.196,-0.485,-0.3
2021-08-19 00:49:33.200,-0.455,-0.28
2021-08-19 00:49:33.204,-0.445,-0.28
2021-08-19 00:49:33.208,-0.47,-0.305
2021-08-19 00:49:33.212,-0.43,-0.32
2021-08-19 00:49:33.216,-0.455,-0.295
2021-08-19 00:49:33.220,-0.465,-0.305
2021-08-19 00:49:33.224,-0.43,-0.28
2021-08-19 00:49:33.228,-0.39,-0.265
2021-08-19 00:49:33.232,-0.31,-0.22
2021-08-19 00:49:33.236,-0.315,-0.27
2021-08-19 00:49:33.240,-0.285,-0.205
2021-08-19 00:49:33.244,-0.255,-0.195
2021-08-19 00:49:33.248,-0.215,-0.17
2021-08-19 00:49:33.252,-0.19,-0.13
2021-08-19 00:49:33.256,-0.175,-0.12
2021-08-19 00:49:33.260,-0.15,-0.125
2021-08-19 00:49:33.264,-0.14,-0.09
2021-08-19 00:49:33.268,-0.105,-0.055
2021-08-19 00:49:33.272,-0.055,-0.07
2021-08-19 00:49:33.276,-0.005,-0.055
2021-08-19 00:49:33.280,0.0,-0.01
2021-08-19 00:49:33.284,0.015,0.0
2021-08-19 00:49:33.288,0.045,-0.035
2021-08-19 00:49:33.292,0.09,-0.005
2021-08-19 00:49:33.296,0.14,-0.015
2021-08-19 00:49:33.300,0.195,0.025
2021-08-19 00:49:33.304,0.225,0.06
2021-08-19 00:49:33.308,0.26,0.06
2021-08-19 00:49:33.312,0.32,0.075
2021-08-19 00:49:33.316,0.34,0.115
2021-08-19 00:49:33.320,0.38,0.125
2021-08-19 00:49:33.324,0.435,0.155
2021-08-19 00:49:33.328,0.46,0.19
2021-08-19 00:49:33.332,0.485,0.21
2021-08-19 00:49:33.336,0.525,0.265
2021-08-19 00:49:33.340,0.59,0.315
2021-08-19 00:49:33.344,0.59,0.31
2021-08-19 00:49:33.348,0.62,0.385
2021-08-19 00:49:33.352,0.625,0.4
2021-08-19 00:49:33.356,0.595,0.42
2021-08-19 00:49:33.360,0.595,0.47
2021-08-19 00:49:33.364,0.6,0.525
2021-08-19 00:49:33.368,0.605,0.54
2021-08-19 00:49:33.372,0.575,0.555
2021-08-19 00:49:33.376,0.575,0.595
2021-08-19 00:49:33.380,0.5,0.635
2021-08-19 00:49:33.384,0.47,0.665
2021-08-19 00:49:33.388,0.43,0.71
2021-08-19 00:49:33.392,0.4,0.725
2021-08-19 00:49:33.396,0.345,0.735
2021-08-19 00:49:33.400,0.315,0.74
2021-08-19 00:49:33.404,0.21,0.75
2021-08-19 00:49:33.408,0.185,0.725
2021-08-19 00:49:33.412,0.14,0.735
2021-08-19 00:49:33.416,0.105,0.685
2021-08-19 00:49:33.420,0.03,0.7
2021-08-19 00:49:33.424,0.005,0.66
2021-08-19 00:49:33.428,-0.05,0.68
2021-08-19 00:49:33.432,-0.05,0.68
2021-08-19 00:49:33.436,-0.06,0.63
2021-08-19 00:49:33.440,-0.1,0.615
2021-08-19 00:49:33.444,-0.14,0.615
2021-08-19 00:49:33.448,-0.175,0.565
2021-08-19 00:49:33.452,-0.215,0.52
2021-08-19 00:49:33.456,-0.205,0.51
2021-08-19 00:49:33.460,-0.185,0.46
2021-08-19 00:49:33.464,-0.205,0.445
2021-08-19 00:49:33.468,-0.235,0.455
2021-08-19 00:49:33.472,-0.215,0.435
2021-08-19 00:49:33.476,-0.2,0.45
2021-08-19 00:49:33.480,-0.175,0.395
2021-08-19 00:49:33.484,-0.145,0.42
2021-08-19 00:49:33.488,-0.17,0.415
2021-08-19 00:49:33.492,-0.135,0.46
2021-08-19 00:49:33.496,-0.145,0.46
2021-08-19 00:49:33.500,-0.14,0.435
2021-08-19 00:49:33.504,-0.15,0.44
2021-08-19 00:49:33.508,-0.145,0.415
2021-08-19 00:49:33.512,-0.15,0.395
2021-08-19 00:49:33.516,-0.16,0.37
2021-08-19 00:49:33.520,-0.17,0.34
2021-08-19 00:49:33.524,-0.155,0.315
2021-08-19 00:49:33.528,-0.17,0.265
2021-08-19 00:49:33.532,-0.2,0.21
2021-08-19 00:49:33.536,-0.2,0.19
2021-08-19 00:49:33.540,-0.225,0.165
2021-08-19 00:49:33.544,-0.23,0.125
2021-08-19 00:49:33.548,-0.21,0.1
2021-08-19 00:49:33.552,-0.26,0.075
2021-08-19 00:49:33.556,-0.27,0.055
2021-08-19 00:49:33.560,-0.28,0.02
2021-08-19 00:49:33.564,-0.27,-0.02
2021-08-19 00:49:33.568,-0.31,-0.04
2021-08-19 00:49:33.572,-0.3,-0.02
2021-08-19 00:49:33.576,-0.29,-0.09
2021-08-19 00:49:33.580,-0.32,-0.06
2021-08-19 00:49:33.584,-0.315,-0.06
2021-08-19 00:49:33.588,-0.315,-0.08
2021-08-19 00:49:33.592,-0.305,-0.08
2021-08-19 00:49:33.596,-0.31,-0.09
2021-08-19 00:49:33.600,-0.305,-0.07
2021-08-19 00:49:33.604,-0.345,-0.11
2021-08-19 00:49:33.608,-0.36,-0.125
2021-08-19 00:49:33.612,-0.34,-0.135
2021-08-19 00:49:33.616,-0.355,-0.115
2021-08-19 00:49:33.620,-0.39,-0.115
2021-08-19 00:49:33.624,-0.415,-0.15
2021-08-19 00:49:33.628,-0.44,-0.165
2021-08-19 00:49:33.632,-0.44,-0.175
2021-08-19 00:49:33.636,-0.44,-0.17
2021-08-19 00:49:33.640,-0.46,-0.16
2021-08-19 00:49:33.644,-0.475,-0.215
2021-08-19 00:49:33.648,-0.495,-0.21
2021-08-19 00:49:33.652,-0.5,-0.17
2021-08-19 00:49:33.656,-0.46,-0.18
2021-08-19 00:49:33.660,-0.485,-0.2
2021-08-19 00:49:33.664,-0.495,-0.21
2021-08-19 00:49:33.668,-0.52,-0.21
2021-08-19 00:49:33.672,-0.525,-0.185
2021-08-19 00:49:33.676,-0.51,-0.165
2021-08-19 00:49:33.680,-0.485,-0.185
2021-08-19 00:49:33.684,-0.46,-0.17
2021-08-19 00:49:33.688,-0.48,-0.155
2021-08-19 00:49:33.692,-0.46,-0.13
2021-08-19 00:49:33.696,-0.46,-0.15
2021-08-19 00:49:33.700,-0.48,-0.115
2021-08-19 00:49:33.704,-0.455,-0.125
2021-08-19 00:49:33.708,-0.4,-0.09
2021-08-19 00:49:33.712,-0.37,-0.08
2021-08-19 00:49:33.716,-0.37,-0.065
2021-08-19 00:49:33.720,-0.355,-0.04
2021-08-19 00:49:33.724,-0.365,-0.04
2021-08-19 00:49:33.728,-0.36,0.005
2021-08-19 00:49:33.732,-0.365,0.02
2021-08-19 00:49:33.736,-0.375,0.015
2021-08-19 00:49:33.740,-0.415,0.005
2021-08-19 00:49:33.744,-0.385,0.02
2021-08-19 00:49:33.748,-0.375,-0.005
2021-08-19 00:49:33.752,-0.365,-0.005
2021-08-19 00:49:33.756,-0.36,0.0
2021-08-19 00:49:33.760,-0.37,-0.065
2021-08-19 00:49:33.764,-0.405,-0.055
2021-08-19 00:49:33.768,-0.41,-0.06
2021-08-19 00:49:33.772,-0.38,-0.05
2021-08-19 00:49:33.776,-0.38,-0.095
2021-08-19 00:49:33.780,-0.4,-0.11
2021-08-19 00:49:33.784,-0.405,-0.085
2021-08-19 00:49:33.788,-0.43,-0.125
2021-08-19 00:49:33.792,-0.425,-0.135
2021-08-19 00:49:33.796,-0.42,-0.125
2021-08-19 00:49:33.800,-0.415,-0.125
2021-08-19 00:49:33.804,-0.44,-0.14
2021-08-19 00:49:33.808,-0.435,-0.145
2021-08-19 00:49:33.812,-0.47,-0.185
2021-08-19 00:49:33.816,-0.455,-0.19
2021-08-19 00:49:33.820,-0.445,-0.19
2021-08-19 00:49:33.824,-0.445,-0.18
2021-08-19 00:49:33.828,-0.435,-0.19
2021-08-19 00:49:33.832,-0.47,-0.2
2021-08-19 00:49:33.836,-0.465,-0.2
2021-08-19 00:49:33.840,-0.455,-0.18
2021-08-19 00:49:33.844,-0.425,-0.225
2021-08-19 00:49:33.848,-0.455,-0.21
2021-08-19 00:49:33.852,-0.45,-0.21
2021-08-19 00:49:33.856,-0.46,-0.215
2021-08-19 00:49:33.860,-0.455,-0.26
2021-08-19 00:49:33.864,-0.455,-0.215
2021-08-19 00:49:33.868,-0.475,-0.225
2021-08-19 00:49:33.872,-0.49,-0.23
2021-08-19 00:49:33.876,-0.545,-0.2
2021-08-19 00:49:33.880,-0.65,-0.225
2021-08-19 00:49:33.884,-0.74,-0.205
2021-08-19 00:49:33.888,-0.74,-0.265
2021-08-19 00:49:33.892,-0.705,-0.3
2021-08-19 00:49:33.896,-0.67,-0.4
2021-08-19 00:49:33.900,-0.53,-0.435
2021-08-19 00:49:33.904,-0.34,-0.53
2021-08-19 00:49:33.908,-0.4,-0.535
2021-08-19 00:49:33.912,-0.64,-0.345
2021-08-19 00:49:33.916,-0.61,-0.405
2021-08-19 00:49:33.920,-0.605,-0.335
2021-08-19 00:49:33.924,-0.92,-0.05
2021-08-19 00:49:33.928,-1.28,0.56
2021-08-19 00:49:33.932,-1.74,1.025
2021-08-19 00:49:33.972,-1.915,-1.46
2021-08-19 00:49:33.976,-1.5,-1.18
2021-08-19 00:49:33.980,-1.045,-0.965
2021-08-19 00:49:33.984,-0.73,-0.765
2021-08-19 00:49:33.988,-0.58,-0.49
2021-08-19 00:49:33.992,-0.505,-0.28
2021-08-19 00:49:33.996,-0.485,-0.215
2021-08-19 00:49:34.000,-0.45,-0.225
2021-08-19 00:49:34.004,-0.43,-0.19
2021-08-19 00:49:34.008,-0.425,-0.185
2021-08-19 00:49:34.012,-0.43,-0.225
2021-08-19 00:49:34.016,-0.435,-0.26
2021-08-19 00:49:34.020,-0.44,-0.265
2021-08-19 00:49:34.024,-0.425,-0.285
2021-08-19 00:49:34.028,-0.4,-0.3
2021-08-19 00:49:34.032,-0.435,-0.285
2021-08-19 00:49:34.036,-0.42,-0.305
2021-08-19 00:49:34.040,-0.435,-0.3
2021-08-19 00:49:34.044,-0.42,-0.29
2021-08-19 00:49:34.048,-0.42,-0.3
2021-08-19 00:49:34.052,-0.405,-0.33
2021-08-19 00:49:34.056,-0.395,-0.34
2021-08-19 00:49:34.060,-0.42,-0.335
2021-08-19 00:49:34.064,-0.41,-0.31
2021-08-19 00:49:34.068,-0.395,-0.305
2021-08-19 00:49:34.072,-0.36,-0.285
2021-08-19 00:49:34.076,-0.36,-0.29
2021-08-19 00:49:34.080,-0.38,-0.285
2021-08-19 00:49:34.084,-0.35,-0.3
2021-08-19 00:49:34.088,-0.32,-0.3
2021-08-19 00:49:34.092,-0.295,-0.255
2021-08-19 00:49:34.096,-0.265,-0.245
2021-08-19 00:49:34.100,-0.27,-0.235
2021-08-19 00:49:34.104,-0.27,-0.225
2021-08-19 00:49:34.108,-0.205,-0.215
2021-08-19 00:49:34.112,-0.14,-0.2
2021-08-19 00:49:34.116,-0.1,-0.17
2021-08-19 00:49:34.120,-0.03,-0.13
2021-08-19 00:49:34.124,0.01,-0.115
2021-08-19 00:49:34.128,0.07,-0.07
2021-08-19 00:49:34.132,0.11,-0.02
2021-08-19 00:49:34.136,0.18,0.03
2021-08-19 00:49:34.140,0.28,0.06
2021-08-19 00:49:34.144,0.315,0.105
2021-08-19 00:49:34.148,0.355,0.135
2021-08-19 00:49:34.152,0.365,0.165
2021-08-19 00:49:34.156,0.38,0.2
2021-08-19 00:49:34.160,0.4,0.25
2021-08-19 00:49:34.164,0.415,0.305
2021-08-19 00:49:34.168,0.465,0.305
2021-08-19 00:49:34.172,0.495,0.39
2021-08-19 00:49:34.176,0.505,0.49
2021-08-19 00:49:34.180,0.525,0.53
2021-08-19 00:49:34.184,0.595,0.61
2021-08-19 00:49:34.188,0.635,0.67
2021-08-19 00:49:34.192,0.63,0.715
2021-08-19 00:49:34.196,0.63,0.77
2021-08-19 00:49:34.200,0.64,0.815
2021-08-19 00:49:34.204,0.645,0.905
2021-08-19 00:49:34.208,0.66,0.915
2021-08-19 00:49:34.212,0.63,0.97
2021-08-19 00:49:34.216,0.61,0.985
2021-08-19 00:49:34.220,0.555,1.0
2021-08-19 00:49:34.224,0.51,1.035
2021-08-19 00:49:34.228,0.475,1.05
2021-08-19 00:49:34.232,0.405,1.05
2021-08-19 00:49:34.236,0.375,0.97
2021-08-19 00:49:34.240,0.32,0.92
2021-08-19 00:49:34.244,0.27,0.9
2021-08-19 00:49:34.248,0.215,0.92
2021-08-19 00:49:34.252,0.17,0.89
2021-08-19 00:49:34.256,0.115,0.805
2021-08-19 00:49:34.260,0.065,0.76
2021-08-19 00:49:34.264,0.01,0.715
2021-08-19 00:49:34.268,-0.035,0.685
2021-08-19 00:49:34.272,-0.075,0.59
2021-08-19 00:49:34.276,-0.1,0.575
2021-08-19 00:49:34.280,-0.14,0.545
2021-08-19 00:49:34.284,-0.175,0.49
2021-08-19 00:49:34.288,-0.19,0.455
2021-08-19 00:49:34.292,-0.24,0.46
2021-08-19 00:49:34.296,-0.225,0.41
2021-08-19 00:49:34.300,-0.24,0.4
2021-08-19 00:49:34.304,-0.255,0.345
2021-08-19 00:49:34.308,-0.28,0.315
2021-08-19 00:49:34.312,-0.31,0.31
2021-08-19 00:49:34.316,-0.345,0.275
2021-08-19 00:49:34.320,-0.355,0.235
2021-08-19 00:49:34.324,-0.35,0.24
2021-08-19 00:49:34.328,-0.38,0.185
2021-08-19 00:49:34.332,-0.365,0.16
2021-08-19 00:49:34.336,-0.375,0.125
2021-08-19 00:49:34.340,-0.385,0.145
2021-08-19 00:49:34.344,-0.395,0.1
2021-08-19 00:49:34.348,-0.4,0.08
2021-08-19 00:49:34.352,-0.395,0.065
2021-08-19 00:49:34.356,-0.425,0.045
2021-08-19 00:49:34.360,-0.43,0.015
2021-08-19 00:49:34.364,-0.44,0.04
2021-08-19 00:49:34.368,-0.42,-0.01
2021-08-19 00:49:34.372,-0.4,-0.01
2021-08-19 00:49:34.376,-0.425,-0.015
2021-08-19 00:49:34.380,-0.44,-0.04
2021-08-19 00:49:34.384,-0.455,-0.005
2021-08-19 00:49:34.388,-0.45,-0.02
2021-08-19 00:49:34.392,-0.44,-0.03
2021-08-19 00:49:34.396,-0.43,-0.065
2021-08-19 00:49:34.400,-0.435,-0.075
2021-08-19 00:49:34.404,-0.445,-0.07
2021-08-19 00:49:34.408,-0.43,-0.075
2021-08-19 00:49:34.412,-0.425,-0.08
2021-08-19 00:49:34.416,-0.405,-0.115
2021-08-19 00:49:34.420,-0.38,-0.13
2021-08-19 00:49:34.424,-0.36,-0.135
2021-08-19 00:49:34.428,-0.365,-0.13
2021-08-19 00:49:34.432,-0.36,-0.14
2021-08-19 00:49:34.436,-0.39,-0.105
2021-08-19 00:49:34.440,-0.41,-0.06
2021-08-19 00:49:34.444,-0.39,-0.075
2021-08-19 00:49:34.448,-0.405,-0.05
2021-08-19 00:49:34.452,-0.415,-0.055
2021-08-19 00:49:34.456,-0.365,-0.02
2021-08-19 00:49:34.460,-0.355,0.0
2021-08-19 00:49:34.464,-0.335,0.005
2021-08-19 00:49:34.468,-0.305,0.05
2021-08-19 00:49:34.472,-0.34,0.045
2021-08-19 00:49:34.476,-0.34,0.065
2021-08-19 00:49:34.480,-0.34,0.02
2021-08-19 00:49:34.484,-0.315,0.025
2021-08-19 00:49:34.488,-0.31,0.01
2021-08-19 00:49:34.492,-0.325,0.02
2021-08-19 00:49:34.496,-0.335,-0.005
2021-08-19 00:49:34.500,-0.35,-0.04
2021-08-19 00:49:34.504,-0.355,-0.035
2021-08-19 00:49:34.508,-0.34,-0.08
2021-08-19 00:49:34.512,-0.365,-0.06
2021-08-19 00:49:34.516,-0.375,-0.06
2021-08-19 00:49:34.520,-0.375,-0.07
2021-08-19 00:49:34.524,-0.36,-0.065
2021-08-19 00:49:34.528,-0.365,-0.105
2021-08-19 00:49:34.532,-0.37,-0.095
2021-08-19 00:49:34.536,-0.345,-0.09
2021-08-19 00:49:34.540,-0.385,-0.06
2021-08-19 00:49:34.544,-0.42,-0.1
2021-08-19 00:49:34.548,-0.41,-0.085
2021-08-19 00:49:34.552,-0.45,-0.095
2021-08-19 00:49:34.556,-0.5,-0.09
2021-08-19 00:49:34.560,-0.555,-0.125
2021-08-19 00:49:34.564,-0.64,-0.125
2021-08-19 00:49:34.568,-0.64,-0.155
2021-08-19 00:49:34.572,-0.61,-0.21
2021-08-19 00:49:34.576,-0.56,-0.22
2021-08-19 00:49:34.580,-0.4,-0.34
2021-08-19 00:49:34.584,-0.185,-0.44
2021-08-19 00:49:34.588,-0.34,-0.43
2021-08-19 00:49:34.592,-0.615,-0.285
2021-08-19 00:49:34.596,-0.59,-0.33
2021-08-19 00:49:34.600,-0.66,-0.295
2021-08-19 00:49:34.604,-1.01,0.025
2021-08-19 00:49:34.608,-1.29,0.525
2021-08-19 00:49:34.612,-1.715,0.885
2021-08-19 00:49:34.656,-1.715,-1.63
2021-08-19 00:49:34.660,-1.205,-1.33
2021-08-19 00:49:34.664,-0.8,-1.03
2021-08-19 00:49:34.668,-0.615,-0.68
2021-08-19 00:49:34.672,-0.525,-0.42
2021-08-19 00:49:34.676,-0.495,-0.315
2021-08-19 00:49:34.680,-0.455,-0.295
2021-08-19 00:49:34.684,-0.43,-0.25
2021-08-19 00:49:34.688,-0.39,-0.31
2021-08-19 00:49:34.692,-0.39,-0.305
2021-08-19 00:49:34.696,-0.41,-0.285
2021-08-19 00:49:34.700,-0.425,-0.24
2021-08-19 00:49:34.704,-0.445,-0.285
2021-08-19 00:49:34.708,-0.39,-0.25
2021-08-19 00:49:34.712,-0.425,-0.235
2021-08-19 00:49:34.716,-0.43,-0.27
2021-08-19 00:49:34.720,-0.43,-0.305
2021-08-19 00:49:34.724,-0.435,-0.34
2021-08-19 00:49:34.728,-0.415,-0.31
2021-08-19 00:49:34.732,-0.42,-0.285
2021-08-19 00:49:34.736,-0.41,-0.32
2021-08-19 00:49:34.740,-0.395,-0.32
2021-08-19 00:49:34.744,-0.405,-0.31
2021-08-19 00:49:34.748,-0.375,-0.31
2021-08-19 00:49:34.752,-0.37,-0.305
2021-08-19 00:49:34.756,-0.34,-0.3
2021-08-19 00:49:34.760,-0.35,-0.3
2021-08-19 00:49:34.764,-0.33,-0.29
2021-08-19 00:49:34.768,-0.31,-0.3
2021-08-19 00:49:34.772,-0.32,-0.305
2021-08-19 00:49:34.776,-0.275,-0.265
2021-08-19 00:49:34.780,-0.255,-0.235
2021-08-19 00:49:34.784,-0.21,-0.24
2021-08-19 00:49:34.788,-0.19,-0.24
2021-08-19 00:49:34.792,-0.16,-0.195
2021-08-19 00:49:34.796,-0.105,-0.17
2021-08-19 00:49:34.800,-0.065,-0.135
2021-08-19 00:49:34.804,-0.035,-0.12
2021-08-19 00:49:34.808,0.01,-0.11
2021-08-19 00:49:34.812,0.08,-0.085
2021-08-19 00:49:34.816,0.135,-0.015
2021-08-19 00:49:34.820,0.185,0.005
2021-08-19 00:49:34.824,0.235,0.04
2021-08-19 00:49:34.828,0.295,0.06
2021-08-19 00:49:34.832,0.315,0.115
2021-08-19 00:49:34.836,0.34,0.125
2021-08-19 00:49:34.840,0.365,0.17
2021-08-19 00:49:34.844,0.365,0.195
2021-08-19 00:49:34.848,0.36,0.235
2021-08-19 00:49:34.852,0.425,0.28
2021-08-19 00:49:34.856,0.44,0.29
2021-08-19 00:49:34.860,0.46,0.305
2021-08-19 00:49:34.864,0.44,0.35
2021-08-19 00:49:34.868,0.475,0.365
2021-08-19 00:49:34.872,0.495,0.44
2021-08-19 00:49:34.876,0.475,0.47
2021-08-19 00:49:34.880,0.46,0.495
2021-08-19 00:49:34.884,0.44,0.525
2021-08-19 00:49:34.888,0.41,0.555
2021-08-19 00:49:34.892,0.415,0.575
2021-08-19 00:49:34.896,0.41,0.62
2021-08-19 00:49:34.900,0.365,0.665
2021-08-19 00:49:34.904,0.3,0.645
2021-08-19 00:49:34.908,0.265,0.685
2021-08-19 00:49:34.912,0.225,0.71
2021-08-19 00:49:34.916,0.165,0.73
2021-08-19 00:49:34.920,0.125,0.72
2021-08-19 00:49:34.924,0.085,0.72
2021-08-19 00:49:34.928,0.05,0.69
2021-08-19 00:49:34.932,0.0,0.685
2021-08-19 00:49:34.936,0.005,0.68
2021-08-19 00:49:34.940,0.005,0.64
2021-08-19 00:49:34.944,-0.025,0.615
2021-08-19 00:49:34.948,-0.045,0.585
2021-08-19 00:49:34.952,-0.145,0.535
2021-08-19 00:49:34.956,-0.175,0.49
2021-08-19 00:49:34.960,-0.205,0.45
2021-08-19 00:49:34.964,-0.275,0.43
2021-08-19 00:49:34.968,-0.27,0.38
2021-08-19 00:49:34.972,-0.305,0.32
2021-08-19 00:49:34.976,-0.36,0.315
2021-08-19 00:49:34.980,-0.35,0.275
2021-08-19 00:49:34.984,-0.36,0.23
2021-08-19 00:49:34.988,-0.36,0.225
2021-08-19 00:49:34.992,-0.355,0.23
2021-08-19 00:49:34.996,-0.375,0.23
2021-08-19 00:49:35.000,-0.37,0.21
2021-08-19 00:49:35.004,-0.37,0.19
2021-08-19 00:49:35.008,-0.335,0.195
2021-08-19 00:49:35.012,-0.34,0.2
2021-08-19 00:49:35.016,-0.385,0.2
2021-08-19 00:49:35.020,-0.375,0.17
2021-08-19 00:49:35.024,-0.415,0.155
2021-08-19 00:49:35.028,-0.43,0.2
2021-08-19 00:49:35.032,-0.41,0.13
2021-08-19 00:49:35.036,-0.38,0.1
2021-08-19 00:49:35.040,-0.395,0.095
2021-08-19 00:49:35.044,-0.44,0.085
2021-08-19 00:49:35.048,-0.45,0.075
2021-08-19 00:49:35.052,-0.465,0.07
2021-08-19 00:49:35.056,-0.44,0.05
2021-08-19 00:49:35.060,-0.455,0.04
2021-08-19 00:49:35.064,-0.46,0.015
2021-08-19 00:49:35.068,-0.48,-0.02
2021-08-19 00:49:35.072,-0.48,0.0
2021-08-19 00:49:35.076,-0.48,-0.02
2021-08-19 00:49:35.080,-0.45,-0.02
2021-08-19 00:49:35.084,-0.465,-0.02
2021-08-19 00:49:35.088,-0.49,-0.07
2021-08-19 00:49:35.092,-0.485,-0.055
2021-08-19 00:49:35.096,-0.485,-0.055
2021-08-19 00:49:35.100,-0.475,-0.05
2021-08-19 00:49:35.104,-0.48,-0.06
2021-08-19 00:49:35.108,-0.47,-0.075
2021-08-19 00:49:35.112,-0.495,-0.07
2021-08-19 00:49:35.116,-0.52,-0.08
2021-08-19 00:49:35.120,-0.49,-0.08
2021-08-19 00:49:35.124,-0.435,-0.06
2021-08-19 00:49:35.128,-0.465,-0.06
2021-08-19 00:49:35.132,-0.425,-0.075
2021-08-19 00:49:35.136,-0.4,-0.045
2021-08-19 00:49:35.140,-0.41,-0.035
2021-08-19 00:49:35.144,-0.4,-0.015
2021-08-19 00:49:35.148,-0.42,0.015
2021-08-19 00:49:35.152,-0.385,0.05
2021-08-19 00:49:35.156,-0.405,0.045
2021-08-19 00:49:35.160,-0.415,0.02
2021-08-19 00:49:35.164,-0.41,0.02
2021-08-19 00:49:35.168,-0.39,0.04
2021-08-19 00:49:35.172,-0.32,0.035
2021-08-19 00:49:35.176,-0.325,0.025
2021-08-19 00:49:35.180,-0.35,0.02
2021-08-19 00:49:35.184,-0.365,0.01
2021-08-19 00:49:35.188,-0.36,-0.005
2021-08-19 00:49:35.192,-0.345,-0.005
2021-08-19 00:49:35.196,-0.345,-0.04
2021-08-19 00:49:35.200,-0.355,-0.03
2021-08-19 00:49:35.204,-0.38,-0.085
2021-08-19 00:49:35.208,-0.37,-0.14
2021-08-19 00:49:35.212,-0.375,-0.125
2021-08-19 00:49:35.216,-0.35,-0.16
2021-08-19 00:49:35.220,-0.355,-0.105
2021-08-19 00:49:35.224,-0.39,-0.14
2021-08-19 00:49:35.228,-0.42,-0.115
2021-08-19 00:49:35.232,-0.415,-0.13
2021-08-19 00:49:35.236,-0.4,-0.12
2021-08-19 00:49:35.240,-0.415,-0.115
2021-08-19 00:49:35.244,-0.395,-0.11
2021-08-19 00:49:35.248,-0.425,-0.12
2021-08-19 00:49:35.252,-0.46,-0.11
2021-08-19 00:49:35.256,-0.425,-0.1
2021-08-19 00:49:35.260,-0.435,-0.075
2021-08-19 00:49:35.264,-0.415,-0.08
2021-08-19 00:49:35.268,-0.4,-0.05
2021-08-19 00:49:35.272,-0.43,-0.065
2021-08-19 00:49:35.276,-0.46,-0.04
2021-08-19 00:49:35.280,-0.44,-0.065
2021-08-19 00:49:35.284,-0.44,-0.05
2021-08-19 00:49:35.288,-0.45,-0.07
2021-08-19 00:49:35.292,-0.435,-0.09
2021-08-19 00:49:35.296,-0.465,-0.075
2021-08-19 00:49:35.300,-0.505,-0.08
2021-08-19 00:49:35.304,-0.51,-0.095
2021-08-19 00:49:35.308,-0.585,-0.085
2021-08-19 00:49:35.312,-0.665,-0.115
2021-08-19 00:49:35.316,-0.735,-0.115
2021-08-19 00:49:35.320,-0.72,-0.155
2021-08-19 00:49:35.324,-0.67,-0.23
2021-08-19 00:49:35.328,-0.55,-0.31
2021-08-19 00:49:35.332,-0.31,-0.405
2021-08-19 00:49:35.336,-0.22,-0.44
2021-08-19 00:49:35.340,-0.5,-0.315
2021-08-19 00:49:35.344,-0.665,-0.24
2021-08-19 00:49:35.348,-0.6,-0.24
2021-08-19 00:49:35.352,-0.78,-0.115
2021-08-19 00:49:35.356,-1.135,0.365
2021-08-19 00:49:35.360,-1.46,0.925
2021-08-19 00:49:35.364,-1.88,1.145
2021-08-19 00:49:35.404,-1.875,-1.4
2021-08-19 00:49:35.408,-1.375,-1.12
2021-08-19 00:49:35.412,-0.93,-0.96
2021-08-19 00:49:35.416,-0.64,-0.695
2021-08-19 00:49:35.420,-0.525,-0.39
2021-08-19 00:49:35.424,-0.43,-0.23
2021-08-19 00:49:35.428,-0.395,-0.2
2021-08-19 00:49:35.432,-0.365,-0.19
2021-08-19 00:49:35.436,-0.355,-0.175
2021-08-19 00:49:35.440,-0.36,-0.155
2021-08-19 00:49:35.444,-0.33,-0.195
2021-08-19 00:49:35.448,-0.34,-0.195
2021-08-19 00:49:35.452,-0.34,-0.22
2021-08-19 00:49:35.456,-0.33,-0.225
2021-08-19 00:49:35.460,-0.34,-0.26
2021-08-19 00:49:35.464,-0.335,-0.265
2021-08-19 00:49:35.468,-0.335,-0.25
2021-08-19 00:49:35.472,-0.3,-0.3
2021-08-19 00:49:35.476,-0.31,-0.32
2021-08-19 00:49:35.480,-0.315,-0.295
2021-08-19 00:49:35.484,-0.335,-0.3
2021-08-19 00:49:35.488,-0.37,-0.305
2021-08-19 00:49:35.492,-0.4,-0.275
2021-08-19 00:49:35.496,-0.4,-0.28
2021-08-19 00:49:35.500,-0.415,-0.275
2021-08-19 00:49:35.504,-0.415,-0.28
2021-08-19 00:49:35.508,-0.385,-0.295
2021-08-19 00:49:35.512,-0.35,-0.235
2021-08-19 00:49:35.516,-0.3,-0.24
2021-08-19 00:49:35.520,-0.29,-0.195
2021-08-19 00:49:35.524,-0.29,-0.2
2021-08-19 00:49:35.528,-0.265,-0.19
2021-08-19 00:49:35.532,-0.235,-0.16
2021-08-19 00:49:35.536,-0.165,-0.15
2021-08-19 00:49:35.540,-0.145,-0.135
2021-08-19 00:49:35.544,-0.105,-0.12
2021-08-19 00:49:35.548,-0.075,-0.09
2021-08-19 00:49:35.552,-0.03,-0.05
2021-08-19 00:49:35.556,0.025,-0.005
2021-08-19 00:49:35.560,0.095,-0.005
2021-08-19 00:49:35.564,0.135,0.03
2021-08-19 00:49:35.568,0.205,0.1
2021-08-19 00:49:35.572,0.225,0.145
2021-08-19 00:49:35.576,0.245,0.205
2021-08-19 00:49:35.580,0.325,0.21
2021-08-19 00:49:35.584,0.365,0.275
2021-08-19 00:49:35.588,0.385,0.295
2021-08-19 00:49:35.592,0.395,0.305
2021-08-19 00:49:35.596,0.4,0.355
2021-08-19 00:49:35.600,0.44,0.37
2021-08-19 00:49:35.604,0.48,0.39
2021-08-19 00:49:35.608,0.53,0.43
2021-08-19 00:49:35.612,0.55,0.49
2021-08-19 00:49:35.616,0.56,0.54
2021-08-19 00:49:35.620,0.55,0.56
2021-08-19 00:49:35.624,0.57,0.64
2021-08-19 00:49:35.628,0.59,0.69
2021-08-19 00:49:35.632,0.605,0.735
2021-08-19 00:49:35.636,0.555,0.755
2021-08-19 00:49:35.640,0.52,0.78
2021-08-19 00:49:35.644,0.455,0.8
2021-08-19 00:49:35.648,0.41,0.83
2021-08-19 00:49:35.652,0.4,0.835
2021-08-19 00:49:35.656,0.365,0.815
2021-08-19 00:49:35.660,0.315,0.82
2021-08-19 00:49:35.664,0.25,0.8
2021-08-19 00:49:35.668,0.21,0.775
2021-08-19 00:49:35.672,0.145,0.735
2021-08-19 00:49:35.676,0.105,0.71
2021-08-19 00:49:35.680,0.035,0.665
2021-08-19 00:49:35.684,-0.02,0.625
2021-08-19 00:49:35.688,-0.085,0.61
2021-08-19 00:49:35.692,-0.09,0.58
2021-08-19 00:49:35.696,-0.11,0.525
2021-08-19 00:49:35.700,-0.17,0.475
2021-08-19 00:49:35.704,-0.2,0.46
2021-08-19 00:49:35.708,-0.225,0.42
2021-08-19 00:49:35.712,-0.235,0.36
2021-08-19 00:49:35.716,-0.245,0.365
2021-08-19 00:49:35.720,-0.235,0.335
2021-08-19 00:49:35.724,-0.255,0.295
2021-08-19 00:49:35.728,-0.25,0.26
2021-08-19 00:49:35.732,-0.275,0.235
2021-08-19 00:49:35.736,-0.28,0.21
2021-08-19 00:49:35.740,-0.285,0.215
2021-08-19 00:49:35.744,-0.3,0.17
2021-08-19 00:49:35.748,-0.305,0.16
2021-08-19 00:49:35.752,-0.345,0.15
2021-08-19 00:49:35.756,-0.37,0.145
2021-08-19 00:49:35.760,-0.4,0.15
2021-08-19 00:49:35.764,-0.39,0.14
2021-08-19 00:49:35.768,-0.405,0.145
2021-08-19 00:49:35.772,-0.415,0.09
2021-08-19 00:49:35.776,-0.395,0.1
2021-08-19 00:49:35.780,-0.415,0.085
2021-08-19 00:49:35.784,-0.39,0.09
2021-08-19 00:49:35.788,-0.415,0.07
2021-08-19 00:49:35.792,-0.425,0.075
2021-08-19 00:49:35.796,-0.425,0.04
2021-08-19 00:49:35.800,-0.455,0.04
2021-08-19 00:49:35.804,-0.48,0.025
2021-08-19 00:49:35.808,-0.48,0.01
2021-08-19 00:49:35.812,-0.46,0.0
2021-08-19 00:49:35.816,-0.47,-0.025
2021-08-19 00:49:35.820,-0.455,-0.02
2021-08-19 00:49:35.824,-0.5,-0.03
2021-08-19 00:49:35.828,-0.515,-0.04
2021-08-19 00:49:35.832,-0.5,-0.065
2021-08-19 00:49:35.836,-0.48,-0.075
2021-08-19 00:49:35.840,-0.49,-0.09
2021-08-19 00:49:35.844,-0.505,-0.065
2021-08-19 00:49:35.848,-0.52,-0.07
2021-08-19 00:49:35.852,-0.525,-0.12
2021-08-19 00:49:35.856,-0.49,-0.125
2021-08-19 00:49:35.860,-0.47,-0.1
2021-08-19 00:49:35.864,-0.47,-0.105
2021-08-19 00:49:35.868,-0.455,-0.055
2021-08-19 00:49:35.872,-0.455,-0.07
2021-08-19 00:49:35.876,-0.42,-0.04
2021-08-19 00:49:35.880,-0.4,-0.02
2021-08-19 00:49:35.884,-0.385,-0.01
2021-08-19 00:49:35.888,-0.395,-0.02
2021-08-19 00:49:35.892,-0.41,-0.005
2021-08-19 00:49:35.896,-0.4,0.015
2021-08-19 00:49:35.900,-0.39,0.045
2021-08-19 00:49:35.904,-0.365,0.02
2021-08-19 00:49:35.908,-0.36,0.01
2021-08-19 00:49:35.912,-0.335,0.025
2021-08-19 00:49:35.916,-0.37,0.015
2021-08-19 00:49:35.920,-0.365,-0.01
2021-08-19 00:49:35.924,-0.355,0.0
2021-08-19 00:49:35.928,-0.355,-0.025
2021-08-19 00:49:35.932,-0.305,-0.035
2021-08-19 00:49:35.936,-0.35,-0.065
2021-08-19 00:49:35.940,-0.36,-0.08
2021-08-19 00:49:35.944,-0.37,-0.1
2021-08-19 00:49:35.948,-0.39,-0.09
2021-08-19 00:49:35.952,-0.37,-0.125
2021-08-19 00:49:35.956,-0.35,-0.13
2021-08-19 00:49:35.960,-0.39,-0.14
2021-08-19 00:49:35.964,-0.39,-0.135
2021-08-19 00:49:35.968,-0.38,-0.105
2021-08-19 00:49:35.972,-0.365,-0.115
2021-08-19 00:49:35.976,-0.36,-0.115
2021-08-19 00:49:35.980,-0.38,-0.145
2021-08-19 00:49:35.984,-0.375,-0.12
2021-08-19 00:49:35.988,-0.4,-0.145
2021-08-19 00:49:35.992,-0.385,-0.145
2021-08-19 00:49:35.996,-0.38,-0.165
2021-08-19 00:49:36.000,-0.38,-0.175
2021-08-19 00:49:36.004,-0.415,-0.195
2021-08-19 00:49:36.008,-0.425,-0.175
2021-08-19 00:49:36.012,-0.43,-0.16
2021-08-19 00:49:36.016,-0.48,-0.165
2021-08-19 00:49:36.020,-0.485,-0.175
2021-08-19 00:49:36.024,-0.475,-0.195
2021-08-19 00:49:36.028,-0.505,-0.215
2021-08-19 00:49:36.032,-0.515,-0.21
2021-08-19 00:49:36.036,-0.5,-0.21
2021-08-19 00:49:36.040,-0.47,-0.17
2021-08-19 00:49:36.044,-0.475,-0.2
2021-08-19 00:49:36.048,-0.475,-0.175
2021-08-19 00:49:36.052,-0.495,-0.17
2021-08-19 00:49:36.056,-0.52,-0.185
2021-08-19 00:49:36.060,-0.48,-0.18
2021-08-19 00:49:36.064,-0.485,-0.165
2021-08-19 00:49:36.068,-0.505,-0.135
2021-08-19 00:49:36.072,-0.485,-0.16
2021-08-19 00:49:36.076,-0.495,-0.145
2021-08-19 00:49:36.080,-0.495,-0.16
2021-08-19 00:49:36.084,-0.465,-0.155
2021-08-19 00:49:36.088,-0.48,-0.145
2021-08-19 00:49:36.092,-0.48,-0.125
2021-08-19 00:49:36.096,-0.5,-0.15
2021-08-19 00:49:36.100,-0.52,-0.175
2021-08-19 00:49:36.104,-0.56,-0.13
2021-08-19 00:49:36.108,-0.665,-0.1
2021-08-19 00:49:36.112,-0.71,-0.105
2021-08-19 00:49:36.116,-0.675,-0.155
2021-08-19 00:49:36.120,-0.67,-0.19
2021-08-19 00:49:36.124,-0.605,-0.26
2021-08-19 00:49:36.128,-0.38,-0.275
2021-08-19 00:49:36.132,-0.125,-0.375
2021-08-19 00:49:36.136,-0.145,-0.345
2021-08-19 00:49:36.140,-0.19,-0.23
2021-08-19 00:49:36.144,0.005,-0.265
2021-08-19 00:49:36.148,0.07,-0.27
2021-08-19 00:49:36.152,-0.265,0.095
2021-08-19 00:49:36.156,-0.8,0.685
2021-08-19 00:49:36.160,-1.465,1.145
2021-08-19 00:49:36.200,-1.88,-1.495
2021-08-19 00:49:36.204,-1.495,-1.315
2021-08-19 00:49:36.208,-1.085,-1.12
2021-08-19 00:49:36.212,-0.86,-0.935
2021-08-19 00:49:36.216,-0.71,-0.715
2021-08-19 00:49:36.220,-0.62,-0.52
2021-08-19 00:49:36.224,-0.54,-0.435
2021-08-19 00:49:36.228,-0.52,-0.4
2021-08-19 00:49:36.232,-0.535,-0.355
2021-08-19 00:49:36.236,-0.49,-0.395
2021-08-19 00:49:36.240,-0.49,-0.41
2021-08-19 00:49:36.244,-0.47,-0.435
2021-08-19 00:49:36.248,-0.435,-0.41
2021-08-19 00:49:36.252,-0.455,-0.415
2021-08-19 00:49:36.256,-0.47,-0.425
2021-08-19 00:49:36.260,-0.5,-0.465
2021-08-19 00:49:36.264,-0.485,-0.44
2021-08-19 00:49:36.268,-0.49,-0.455
2021-08-19 00:49:36.272,-0.495,-0.455
2021-08-19 00:49:36.276,-0.485,-0.455
2021-08-19 00:49:36.280,-0.505,-0.46
2021-08-19 00:49:36.284,-0.535,-0.485
2021-08-19 00:49:36.288,-0.535,-0.455
2021-08-19 00:49:36.292,-0.515,-0.48
2021-08-19 00:49:36.296,-0.49,-0.51
2021-08-19 00:49:36.300,-0.5,-0.48
2021-08-19 00:49:36.304,-0.47,-0.455
2021-08-19 00:49:36.308,-0.46,-0.49
2021-08-19 00:49:36.312,-0.445,-0.45
2021-08-19 00:49:36.316,-0.44,-0.415
2021-08-19 00:49:36.320,-0.405,-0.42
2021-08-19 00:49:36.324,-0.365,-0.455
2021-08-19 00:49:36.328,-0.325,-0.385
2021-08-19 00:49:36.332,-0.31,-0.375
2021-08-19 00:49:36.336,-0.255,-0.375
2021-08-19 00:49:36.340,-0.17,-0.355
2021-08-19 00:49:36.344,-0.14,-0.34
2021-08-19 00:49:36.348,-0.105,-0.265
2021-08-19 00:49:36.352,-0.04,-0.25
2021-08-19 00:49:36.356,0.02,-0.195
2021-08-19 00:49:36.360,0.085,-0.185
2021-08-19 00:49:36.364,0.16,-0.12
2021-08-19 00:49:36.368,0.21,-0.08
2021-08-19 00:49:36.372,0.245,-0.05
2021-08-19 00:49:36.376,0.3,0.005
2021-08-19 00:49:36.380,0.325,0.065
2021-08-19 00:49:36.384,0.39,0.14
2021-08-19 00:49:36.388,0.445,0.16
2021-08-19 00:49:36.392,0.51,0.185
2021-08-19 00:49:36.396,0.505,0.23
2021-08-19 00:49:36.400,0.495,0.225
2021-08-19 00:49:36.404,0.54,0.23
2021-08-19 00:49:36.408,0.545,0.26
2021-08-19 00:49:36.412,0.57,0.245
2021-08-19 00:49:36.416,0.565,0.3
2021-08-19 00:49:36.420,0.59,0.325
2021-08-19 00:49:36.424,0.59,0.375
2021-08-19 00:49:36.428,0.59,0.375
2021-08-19 00:49:36.432,0.595,0.43
2021-08-19 00:49:36.436,0.59,0.43
2021-08-19 00:49:36.440,0.555,0.445
2021-08-19 00:49:36.444,0.5,0.43
2021-08-19 00:49:36.448,0.5,0.465
2021-08-19 00:49:36.452,0.445,0.475
2021-08-19 00:49:36.456,0.39,0.46
2021-08-19 00:49:36.460,0.365,0.47
2021-08-19 00:49:36.464,0.32,0.475
2021-08-19 00:49:36.468,0.255,0.455
2021-08-19 00:49:36.472,0.18,0.46
2021-08-19 00:49:36.476,0.145,0.47
2021-08-19 00:49:36.480,0.11,0.485
2021-08-19 00:49:36.484,0.055,0.475
2021-08-19 00:49:36.488,0.005,0.47
2021-08-19 00:49:36.492,-0.05,0.435
2021-08-19 00:49:36.496,-0.1,0.4
2021-08-19 00:49:36.500,-0.08,0.405
2021-08-19 00:49:36.504,-0.115,0.4
2021-08-19 00:49:36.508,-0.175,0.34
2021-08-19 00:49:36.512,-0.17,0.325
2021-08-19 00:49:36.516,-0.19,0.28
2021-08-19 00:49:36.520,-0.2,0.26
2021-08-19 00:49:36.524,-0.245,0.255
2021-08-19 00:49:36.528,-0.29,0.235
2021-08-19 00:49:36.532,-0.315,0.205
2021-08-19 00:49:36.536,-0.345,0.155
2021-08-19 00:49:36.540,-0.36,0.175
2021-08-19 00:49:36.544,-0.375,0.135
2021-08-19 00:49:36.548,-0.405,0.125
2021-08-19 00:49:36.552,-0.41,0.085
2021-08-19 00:49:36.556,-0.425,0.095
2021-08-19 00:49:36.560,-0.435,0.04
2021-08-19 00:49:36.564,-0.45,0.025
2021-08-19 00:49:36.568,-0.44,0.05
2021-08-19 00:49:36.572,-0.425,0.005
2021-08-19 00:49:36.576,-0.42,0.03
2021-08-19 00:49:36.580,-0.44,0.05
2021-08-19 00:49:36.584,-0.41,0.025
2021-08-19 00:49:36.588,-0.4,0.01
2021-08-19 00:49:36.592,-0.4,0.005
2021-08-19 00:49:36.596,-0.4,0.0
2021-08-19 00:49:36.600,-0.425,0.0
2021-08-19 00:49:36.604,-0.44,0.01
2021-08-19 00:49:36.608,-0.445,0.005
2021-08-19 00:49:36.612,-0.355,-0.005
2021-08-19 00:49:36.616,-0.365,-0.03
2021-08-19 00:49:36.620,-0.36,-0.025
2021-08-19 00:49:36.624,-0.365,-0.005
2021-08-19 00:49:36.628,-0.39,-0.03
2021-08-19 00:49:36.632,-0.405,-0.06
2021-08-19 00:49:36.636,-0.39,-0.08
2021-08-19 00:49:36.640,-0.4,-0.085
2021-08-19 00:49:36.644,-0.41,-0.105
2021-08-19 00:49:36.648,-0.43,-0.1
2021-08-19 00:49:36.652,-0.46,-0.115
2021-08-19 00:49:36.656,-0.445,-0.175
2021-08-19 00:49:36.660,-0.415,-0.135
2021-08-19 00:49:36.664,-0.415,-0.12
2021-08-19 00:49:36.668,-0.455,-0.16
2021-08-19 00:49:36.672,-0.485,-0.185
2021-08-19 00:49:36.676,-0.46,-0.175
2021-08-19 00:49:36.680,-0.435,-0.2
2021-08-19 00:49:36.684,-0.425,-0.185
2021-08-19 00:49:36.688,-0.435,-0.18
2021-08-19 00:49:36.692,-0.445,-0.175
2021-08-19 00:49:36.696,-0.465,-0.2
2021-08-19 00:49:36.700,-0.46,-0.19
2021-08-19 00:49:36.704,-0.435,-0.175
2021-08-19 00:49:36.708,-0.435,-0.195
2021-08-19 00:49:36.712,-0.445,-0.225
2021-08-19 00:49:36.716,-0.445,-0.17
2021-08-19 00:49:36.720,-0.485,-0.215
2021-08-19 00:49:36.724,-0.47,-0.21
2021-08-19 00:49:36.728,-0.43,-0.2
2021-08-19 00:49:36.732,-0.44,-0.185
2021-08-19 00:49:36.736,-0.47,-0.185
2021-08-19 00:49:36.740,-0.535,-0.155
2021-08-19 00:49:36.744,-0.62,-0.17
2021-08-19 00:49:36.748,-0.695,-0.195
2021-08-19 00:49:36.752,-0.71,-0.21
2021-08-19 00:49:36.756,-0.67,-0.27
2021-08-19 00:49:36.760,-0.64,-0.375
2021-08-19 00:49:36.764,-0.48,-0.425
2021-08-19 00:49:36.768,-0.235,-0.425
2021-08-19 00:49:36.772,-0.23,-0.485
2021-08-19 00:49:36.776,-0.45,-0.305
2021-08-19 00:49:36.780,-0.445,-0.235
2021-08-19 00:49:36.784,-0.32,-0.3
2021-08-19 00:49:36.788,-0.515,-0.165
2021-08-19 00:49:36.792,-0.915,0.285
2021-08-19 00:49:36.796,-1.34,0.785
2021-08-19 00:49:36.800,-1.885,1.045
2021-08-19 00:49:36.840,-1.87,-1.52
2021-08-19 00:49:36.844,-1.42,-1.295
2021-08-19 00:49:36.848,-1.005,-1.085
2021-08-19 00:49:36.852,-0.8,-0.865
2021-08-19 00:49:36.856,-0.655,-0.57
2021-08-19 00:49:36.860,-0.61,-0.395
2021-08-19 00:49:36.864,-0.53,-0.32
2021-08-19 00:49:36.868,-0.51,-0.26
2021-08-19 00:49:36.872,-0.46,-0.25
2021-08-19 00:49:36.876,-0.465,-0.255
2021-08-19 00:49:36.880,-0.48,-0.295
2021-08-19 00:49:36.884,-0.455,-0.34
2021-08-19 00:49:36.888,-0.445,-0.32
2021-08-19 00:49:36.892,-0.44,-0.37
2021-08-19 00:49:36.896,-0.435,-0.34
2021-08-19 00:49:36.900,-0.445,-0.345
2021-08-19 00:49:36.904,-0.48,-0.35
2021-08-19 00:49:36.908,-0.48,-0.4
2021-08-19 00:49:36.912,-0.465,-0.36
2021-08-19 00:49:36.916,-0.465,-0.36
2021-08-19 00:49:36.920,-0.465,-0.395
2021-08-19 00:49:36.924,-0.46,-0.395
2021-08-19 00:49:36.928,-0.43,-0.375
2021-08-19 00:49:36.932,-0.42,-0.38
2021-08-19 00:49:36.936,-0.405,-0.41
2021-08-19 00:49:36.940,-0.4,-0.385
2021-08-19 00:49:36.944,-0.395,-0.35
2021-08-19 00:49:36.948,-0.4,-0.385
2021-08-19 00:49:36.952,-0.395,-0.38
2021-08-19 00:49:36.956,-0.355,-0.395
2021-08-19 00:49:36.960,-0.29,-0.39
2021-08-19 00:49:36.964,-0.255,-0.365
2021-08-19 00:49:36.968,-0.25,-0.33
2021-08-19 00:49:36.972,-0.205,-0.32
2021-08-19 00:49:36.976,-0.16,-0.305
2021-08-19 00:49:36.980,-0.115,-0.3
2021-08-19 00:49:36.984,-0.04,-0.235
2021-08-19 00:49:36.988,0.005,-0.195
2021-08-19 00:49:36.992,0.035,-0.175
2021-08-19 00:49:36.996,0.08,-0.155
2021-08-19 00:49:37.000,0.155,-0.115
2021-08-19 00:49:37.004,0.195,-0.06
2021-08-19 00:49:37.008,0.275,-0.055
2021-08-19 00:49:37.012,0.3,0.01
2021-08-19 00:49:37.016,0.285,0.055
2021-08-19 00:49:37.020,0.32,0.05
2021-08-19 00:49:37.024,0.365,0.095
2021-08-19 00:49:37.028,0.39,0.09
2021-08-19 00:49:37.032,0.395,0.13
2021-08-19 00:49:37.036,0.45,0.17
2021-08-19 00:49:37.040,0.44,0.205
2021-08-19 00:49:37.044,0.465,0.25
2021-08-19 00:49:37.048,0.5,0.34
2021-08-19 00:49:37.052,0.505,0.37
2021-08-19 00:49:37.056,0.515,0.44
2021-08-19 00:49:37.060,0.55,0.49
2021-08-19 00:49:37.064,0.535,0.535
2021-08-19 00:49:37.068,0.49,0.64
2021-08-19 00:49:37.072,0.51,0.675
2021-08-19 00:49:37.076,0.485,0.695
2021-08-19 00:49:37.080,0.44,0.715
2021-08-19 00:49:37.084,0.415,0.745
2021-08-19 00:49:37.088,0.35,0.735
2021-08-19 00:49:37.092,0.32,0.775
2021-08-19 00:49:37.096,0.25,0.75
2021-08-19 00:49:37.100,0.175,0.795
2021-08-19 00:49:37.104,0.055,0.78
2021-08-19 00:49:37.108,-0.015,0.75
2021-08-19 00:49:37.112,-0.07,0.74
2021-08-19 00:49:37.116,-0.125,0.735
2021-08-19 00:49:37.120,-0.14,0.645
2021-08-19 00:49:37.124,-0.19,0.59
2021-08-19 00:49:37.128,-0.205,0.555
2021-08-19 00:49:37.132,-0.275,0.51
2021-08-19 00:49:37.136,-0.29,0.465
2021-08-19 00:49:37.140,-0.31,0.455
2021-08-19 00:49:37.144,-0.335,0.395
2021-08-19 00:49:37.148,-0.33,0.345
2021-08-19 00:49:37.152,-0.35,0.325
2021-08-19 00:49:37.156,-0.38,0.285
2021-08-19 00:49:37.160,-0.39,0.21
2021-08-19 00:49:37.164,-0.365,0.22
2021-08-19 00:49:37.168,-0.375,0.16
2021-08-19 00:49:37.172,-0.375,0.155
2021-08-19 00:49:37.176,-0.395,0.19
2021-08-19 00:49:37.180,-0.415,0.145
2021-08-19 00:49:37.184,-0.39,0.12
2021-08-19 00:49:37.188,-0.395,0.125
2021-08-19 00:49:37.192,-0.415,0.1
2021-08-19 00:49:37.196,-0.42,0.095
2021-08-19 00:49:37.200,-0.44,0.07
2021-08-19 00:49:37.204,-0.465,0.065
2021-08-19 00:49:37.208,-0.465,0.04
2021-08-19 00:49:37.212,-0.485,0.0
2021-08-19 00:49:37.216,-0.485,0.0
2021-08-19 00:49:37.220,-0.475,-0.025
2021-08-19 00:49:37.224,-0.49,-0.02
2021-08-19 00:49:37.228,-0.51,-0.04
2021-08-19 00:49:37.232,-0.515,-0.065
2021-08-19 00:49:37.236,-0.495,-0.045
2021-08-19 00:49:37.240,-0.545,-0.06
2021-08-19 00:49:37.244,-0.605,-0.095
2021-08-19 00:49:37.248,-0.73,-0.1
2021-08-19 00:49:37.252,-0.78,-0.15
2021-08-19 00:49:37.256,-0.78,-0.205
2021-08-19 00:49:37.260,-0.74,-0.315
2021-08-19 00:49:37.264,-0.63,-0.38
2021-08-19 00:49:37.268,-0.415,-0.475
2021-08-19 00:49:37.272,-0.38,-0.52
2021-08-19 00:49:37.276,-0.665,-0.37
2021-08-19 00:49:37.280,-0.805,-0.275
2021-08-19 00:49:37.284,-0.775,-0.185
2021-08-19 00:49:37.288,-1.07,0.085
2021-08-19 00:49:37.292,-1.445,0.67
2021-08-19 00:49:37.296,-1.75,1.155
2021-08-19 00:49:37.340,-1.79,-1.675
2021-08-19 00:49:37.344,-1.27,-1.385
2021-08-19 00:49:37.348,-0.84,-1.095
2021-08-19 00:49:37.352,-0.645,-0.76
2021-08-19 00:49:37.356,-0.525,-0.44
2021-08-19 00:49:37.360,-0.445,-0.29
2021-08-19 00:49:37.364,-0.425,-0.2
2021-08-19 00:49:37.368,-0.405,-0.2
2021-08-19 00:49:37.372,-0.38,-0.195
2021-08-19 00:49:37.376,-0.35,-0.225
2021-08-19 00:49:37.380,-0.365,-0.285
2021-08-19 00:49:37.384,-0.35,-0.255
2021-08-19 00:49:37.388,-0.355,-0.31
2021-08-19 00:49:37.392,-0.37,-0.31
2021-08-19 00:49:37.396,-0.43,-0.35
2021-08-19 00:49:37.400,-0.455,-0.365
2021-08-19 00:49:37.404,-0.48,-0.4
2021-08-19 00:49:37.408,-0.48,-0.41
2021-08-19 00:49:37.412,-0.49,-0.435
2021-08-19 00:49:37.416,-0.445,-0.425
2021-08-19 00:49:37.420,-0.43,-0.425
2021-08-19 00:49:37.424,-0.405,-0.405
2021-08-19 00:49:37.428,-0.42,-0.415
2021-08-19 00:49:37.432,-0.425,-0.395
2021-08-19 00:49:37.436,-0.42,-0.42
2021-08-19 00:49:37.440,-0.395,-0.41
2021-08-19 00:49:37.444,-0.38,-0.405
2021-08-19 00:49:37.448,-0.38,-0.395
2021-08-19 00:49:37.452,-0.36,-0.34
2021-08-19 00:49:37.456,-0.33,-0.345
2021-08-19 00:49:37.460,-0.32,-0.345
2021-08-19 00:49:37.464,-0.255,-0.325
2021-08-19 00:49:37.468,-0.225,-0.31
2021-08-19 00:49:37.472,-0.195,-0.315
2021-08-19 00:49:37.476,-0.155,-0.29
2021-08-19 00:49:37.480,-0.12,-0.245
2021-08-19 00:49:37.484,-0.04,-0.21
2021-08-19 00:49:37.488,0.01,-0.21
2021-08-19 00:49:37.492,0.085,-0.125
2021-08-19 00:49:37.496,0.14,-0.09
2021-08-19 00:49:37.500,0.15,-0.03
2021-08-19 00:49:37.504,0.22,0.0
2021-08-19 00:49:37.508,0.25,0.045
2021-08-19 00:49:37.512,0.265,0.06
2021-08-19 00:49:37.516,0.29,0.1
2021-08-19 00:49:37.520,0.32,0.125
2021-08-19 00:49:37.524,0.315,0.155
2021-08-19 00:49:37.528,0.36,0.17
2021-08-19 00:49:37.532,0.4,0.225
2021-08-19 00:49:37.536,0.405,0.26
2021-08-19 00:49:37.540,0.405,0.285
2021-08-19 00:49:37.544,0.405,0.325
2021-08-19 00:49:37.548,0.39,0.38
2021-08-19 00:49:37.552,0.365,0.405
2021-08-19 00:49:37.556,0.38,0.46
2021-08-19 00:49:37.560,0.35,0.475
2021-08-19 00:49:37.564,0.3,0.48
2021-08-19 00:49:37.568,0.26,0.55
2021-08-19 00:49:37.572,0.23,0.54
2021-08-19 00:49:37.576,0.205,0.575
2021-08-19 00:49:37.580,0.18,0.6
2021-08-19 00:49:37.584,0.15,0.63
2021-08-19 00:49:37.588,0.075,0.61
2021-08-19 00:49:37.592,0.04,0.625
2021-08-19 00:49:37.596,-0.005,0.66
2021-08-19 00:49:37.600,-0.03,0.68
2021-08-19 00:49:37.604,-0.095,0.655
2021-08-19 00:49:37.608,-0.135,0.65
2021-08-19 00:49:37.612,-0.17,0.635
2021-08-19 00:49:37.616,-0.21,0.61
2021-08-19 00:49:37.620,-0.21,0.525
2021-08-19 00:49:37.624,-0.22,0.575
2021-08-19 00:49:37.628,-0.25,0.505
2021-08-19 00:49:37.632,-0.295,0.46
2021-08-19 00:49:37.636,-0.32,0.385
2021-08-19 00:49:37.640,-0.32,0.34
2021-08-19 00:49:37.644,-0.33,0.305
2021-08-19 00:49:37.648,-0.345,0.245
2021-08-19 00:49:37.652,-0.365,0.22
2021-08-19 00:49:37.656,-0.4,0.16
2021-08-19 00:49:37.660,-0.425,0.1
2021-08-19 00:49:37.664,-0.42,0.13
2021-08-19 00:49:37.668,-0.42,0.075
2021-08-19 00:49:37.672,-0.45,0.075
2021-08-19 00:49:37.676,-0.445,0.065
2021-08-19 00:49:37.680,-0.495,0.015
2021-08-19 00:49:37.684,-0.505,0.04
2021-08-19 00:49:37.688,-0.52,0.0
2021-08-19 00:49:37.692,-0.48,0.0
2021-08-19 00:49:37.696,-0.495,-0.01
2021-08-19 00:49:37.700,-0.5,-0.03
2021-08-19 00:49:37.704,-0.52,-0.035
2021-08-19 00:49:37.708,-0.54,-0.045
2021-08-19 00:49:37.712,-0.54,-0.06
2021-08-19 00:49:37.716,-0.54,-0.075
2021-08-19 00:49:37.720,-0.55,-0.065
2021-08-19 00:49:37.724,-0.575,-0.095
2021-08-19 00:49:37.728,-0.6,-0.12
2021-08-19 00:49:37.732,-0.6,-0.125
2021-08-19 00:49:37.736,-0.57,-0.145
2021-08-19 00:49:37.740,-0.59,-0.15
2021-08-19 00:49:37.744,-0.595,-0.15
2021-08-19 00:49:37.748,-0.59,-0.15
2021-08-19 00:49:37.752,-0.635,-0.165
2021-08-19 00:49:37.756,-0.64,-0.195
2021-08-19 00:49:37.760,-0.6,-0.175
2021-08-19 00:49:37.764,-0.595,-0.17
2021-08-19 00:49:37.768,-0.625,-0.215
2021-08-19 00:49:37.772,-0.63,-0.2
2021-08-19 00:49:37.776,-0.62,-0.2
2021-08-19 00:49:37.780,-0.6,-0.205
2021-08-19 00:49:37.784,-0.605,-0.195
2021-08-19 00:49:37.788,-0.625,-0.19
2021-08-19 00:49:37.792,-0.59,-0.21
2021-08-19 00:49:37.796,-0.6,-0.185
2021-08-19 00:49:37.800,-0.62,-0.2
2021-08-19 00:49:37.804,-0.615,-0.195
2021-08-19 00:49:37.808,-0.59,-0.185
2021-08-19 00:49:37.812,-0.58,-0.155
2021-08-19 00:49:37.816,-0.58,-0.19
2021-08-19 00:49:37.820,-0.575,-0.16
2021-08-19 00:49:37.824,-0.54,-0.12
2021-08-19 00:49:37.828,-0.505,-0.125
2021-08-19 00:49:37.832,-0.46,-0.11
2021-08-19 00:49:37.836,-0.425,-0.09
2021-08-19 00:49:37.840,-0.41,-0.045
2021-08-19 00:49:37.844,-0.4,-0.015
2021-08-19 00:49:37.848,-0.405,0.01
2021-08-19 00:49:37.852,-0.44,0.015
2021-08-19 00:49:37.856,-0.42,0.05
2021-08-19 00:49:37.860,-0.4,0.025
2021-08-19 00:49:37.864,-0.43,0.025
2021-08-19 00:49:37.868,-0.415,0.0
2021-08-19 00:49:37.872,-0.395,-0.005
2021-08-19 00:49:37.876,-0.425,-0.05
2021-08-19 00:49:37.880,-0.435,-0.055
2021-08-19 00:49:37.884,-0.42,-0.08
2021-08-19 00:49:37.888,-0.425,-0.075
2021-08-19 00:49:37.892,-0.44,-0.085
2021-08-19 00:49:37.896,-0.435,-0.105
2021-08-19 00:49:37.900,-0.445,-0.12
2021-08-19 00:49:37.904,-0.435,-0.14
2021-08-19 00:49:37.908,-0.45,-0.18
2021-08-19 00:49:37.912,-0.465,-0.2
2021-08-19 00:49:37.916,-0.47,-0.205
2021-08-19 00:49:37.920,-0.44,-0.25
2021-08-19 00:49:37.924,-0.46,-0.225
2021-08-19 00:49:37.928,-0.455,-0.23
2021-08-19 00:49:37.932,-0.51,-0.185
2021-08-19 00:49:37.936,-0.525,-0.215
2021-08-19 00:49:37.940,-0.54,-0.24
2021-08-19 00:49:37.944,-0.52,-0.215
2021-08-19 00:49:37.948,-0.52,-0.23
2021-08-19 00:49:37.952,-0.535,-0.215
2021-08-19 00:49:37.956,-0.525,-0.2
2021-08-19 00:49:37.960,-0.53,-0.205
2021-08-19 00:49:37.964,-0.54,-0.23
2021-08-19 00:49:37.968,-0.555,-0.195
2021-08-19 00:49:37.972,-0.53,-0.165
2021-08-19 00:49:37.976,-0.54,-0.185
2021-08-19 00:49:37.980,-0.55,-0.185
2021-08-19 00:49:37.984,-0.52,-0.17
2021-08-19 00:49:37.988,-0.57,-0.175
2021-08-19 00:49:37.992,-0.545,-0.18
2021-08-19 00:49:37.996,-0.53,-0.19
2021-08-19 00:49:38.000,-0.54,-0.16
2021-08-19 00:49:38.004,-0.585,-0.19
2021-08-19 00:49:38.008,-0.57,-0.18
2021-08-19 00:49:38.012,-0.57,-0.15
2021-08-19 00:49:38.016,-0.57,-0.185
2021-08-19 00:49:38.020,-0.57,-0.2
2021-08-19 00:49:38.024,-0.575,-0.195
2021-08-19 00:49:38.028,-0.595,-0.195
2021-08-19 00:49:38.032,-0.595,-0.18
2021-08-19 00:49:38.036,-0.595,-0.165
2021-08-19 00:49:38.040,-0.57,-0.18
2021-08-19 00:49:38.044,-0.585,-0.19
2021-08-19 00:49:38.048,-0.615,-0.16
2021-08-19 00:49:38.052,-0.62,-0.17
2021-08-19 00:49:38.056,-0.57,-0.155
2021-08-19 00:49:38.060,-0.545,-0.145
2021-08-19 00:49:38.064,-0.54,-0.15
2021-08-19 00:49:38.068,-0.51,-0.135
2021-08-19 00:49:38.072,-0.48,-0.09
2021-08-19 00:49:38.076,-0.44,-0.065
2021-08-19 00:49:38.080,-0.415,-0.04
2021-08-19 00:49:38.084,-0.35,-0.01
2021-08-19 00:49:38.088,-0.37,0.0
2021-08-19 00:49:38.092,-0.38,0.035
2021-08-19 00:49:38.096,-0.395,0.055
2021-08-19 00:49:38.100,-0.38,0.08
2021-08-19 00:49:38.104,-0.36,0.06
2021-08-19 00:49:38.108,-0.37,0.03
2021-08-19 00:49:38.112,-0.365,0.04
2021-08-19 00:49:38.116,-0.4,0.035
2021-08-19 00:49:38.120,-0.41,0.01
2021-08-19 00:49:38.124,-0.405,0.005
2021-08-19 00:49:38.128,-0.4,-0.025
2021-08-19 00:49:38.132,-0.385,-0.045
2021-08-19 00:49:38.136,-0.45,-0.07
2021-08-19 00:49:38.140,-0.49,-0.045
2021-08-19 00:49:38.144,-0.62,-0.105
2021-08-19 00:49:38.148,-0.655,-0.085
2021-08-19 00:49:38.152,-0.645,-0.14
2021-08-19 00:49:38.156,-0.6,-0.23
2021-08-19 00:49:38.160,-0.51,-0.305
2021-08-19 00:49:38.164,-0.32,-0.385
2021-08-19 00:49:38.168,-0.135,-0.505
2021-08-19 00:49:38.172,-0.25,-0.485
2021-08-19 00:49:38.176,-0.35,-0.335
2021-08-19 00:49:38.180,-0.22,-0.375
2021-08-19 00:49:38.184,-0.31,-0.345
2021-08-19 00:49:38.188,-0.68,0.02
2021-08-19 00:49:38.192,-1.055,0.575
2021-08-19 00:49:38.196,-1.5,0.945
2021-08-19 00:49:38.200,-1.94,0.52
2021-08-19 00:49:38.240,-1.735,-1.615
2021-08-19 00:49:38.244,-1.285,-1.34
2021-08-19 00:49:38.248,-0.995,-1.045
2021-08-19 00:49:38.252,-0.825,-0.78
2021-08-19 00:49:38.256,-0.735,-0.515
2021-08-19 00:49:38.260,-0.685,-0.4
2021-08-19 00:49:38.264,-0.67,-0.32
2021-08-19 00:49:38.268,-0.63,-0.29
2021-08-19 00:49:38.272,-0.61,-0.29
2021-08-19 00:49:38.276,-0.62,-0.285
2021-08-19 00:49:38.280,-0.615,-0.3
2021-08-19 00:49:38.284,-0.59,-0.31
2021-08-19 00:49:38.288,-0.58,-0.275
2021-08-19 00:49:38.292,-0.565,-0.32
2021-08-19 00:49:38.296,-0.555,-0.315
2021-08-19 00:49:38.300,-0.585,-0.285
2021-08-19 00:49:38.304,-0.56,-0.29
2021-08-19 00:49:38.308,-0.52,-0.3
2021-08-19 00:49:38.312,-0.51,-0.275
2021-08-19 00:49:38.316,-0.525,-0.275
2021-08-19 00:49:38.320,-0.455,-0.245
2021-08-19 00:49:38.324,-0.435,-0.255
2021-08-19 00:49:38.328,-0.375,-0.245
2021-08-19 00:49:38.332,-0.33,-0.215
2021-08-19 00:49:38.336,-0.27,-0.125
2021-08-19 00:49:38.340,-0.27,-0.105
2021-08-19 00:49:38.344,-0.265,-0.11
2021-08-19 00:49:38.348,-0.27,-0.09
2021-08-19 00:49:38.352,-0.25,-0.01
2021-08-19 00:49:38.356,-0.195,0.0
2021-08-19 00:49:38.360,-0.185,-0.03
2021-08-19 00:49:38.364,-0.145,-0.04
2021-08-19 00:49:38.368,-0.12,-0.005
2021-08-19 00:49:38.372,-0.115,-0.015
2021-08-19 00:49:38.376,-0.085,-0.02
2021-08-19 00:49:38.380,-0.035,-0.07
2021-08-19 00:49:38.384,0.035,-0.015
2021-08-19 00:49:38.388,0.045,-0.005
2021-08-19 00:49:38.392,0.07,0.0
2021-08-19 00:49:38.396,0.095,-0.005
2021-08-19 00:49:38.400,0.13,0.015
2021-08-19 00:49:38.404,0.17,0.005
2021-08-19 00:49:38.408,0.235,0.01
2021-08-19 00:49:38.412,0.255,0.07
2021-08-19 00:49:38.416,0.285,0.065
2021-08-19 00:49:38.420,0.34,0.095
2021-08-19 00:49:38.424,0.345,0.145
2021-08-19 00:49:38.428,0.405,0.145
2021-08-19 00:49:38.432,0.455,0.195
2021-08-19 00:49:38.436,0.445,0.24
2021-08-19 00:49:38.440,0.47,0.315
2021-08-19 00:49:38.444,0.49,0.325
2021-08-19 00:49:38.448,0.505,0.38
2021-08-19 00:49:38.452,0.555,0.41
2021-08-19 00:49:38.456,0.535,0.445
2021-08-19 00:49:38.460,0.515,0.465
2021-08-19 00:49:38.464,0.495,0.495
2021-08-19 00:49:38.468,0.485,0.575
2021-08-19 00:49:38.472,0.445,0.595
2021-08-19 00:49:38.476,0.425,0.655
2021-08-19 00:49:38.480,0.395,0.635
2021-08-19 00:49:38.484,0.375,0.695
2021-08-19 00:49:38.488,0.315,0.725
2021-08-19 00:49:38.492,0.275,0.725
2021-08-19 00:49:38.496,0.265,0.74
2021-08-19 00:49:38.500,0.26,0.735
2021-08-19 00:49:38.504,0.175,0.78
2021-08-19 00:49:38.508,0.125,0.8
2021-08-19 00:49:38.512,0.065,0.805
2021-08-19 00:49:38.516,0.03,0.79
2021-08-19 00:49:38.520,-0.005,0.76
2021-08-19 00:49:38.524,-0.035,0.765
2021-08-19 00:49:38.528,-0.1,0.755
2021-08-19 00:49:38.532,-0.15,0.73
2021-08-19 00:49:38.536,-0.17,0.7
2021-08-19 00:49:38.540,-0.195,0.715
2021-08-19 00:49:38.544,-0.22,0.635
2021-08-19 00:49:38.548,-0.245,0.6
2021-08-19 00:49:38.552,-0.27,0.57
2021-08-19 00:49:38.556,-0.305,0.575
2021-08-19 00:49:38.560,-0.29,0.515
2021-08-19 00:49:38.564,-0.265,0.525
2021-08-19 00:49:38.568,-0.25,0.5
2021-08-19 00:49:38.572,-0.255,0.45
2021-08-19 00:49:38.576,-0.225,0.49
2021-08-19 00:49:38.580,-0.225,0.47
2021-08-19 00:49:38.584,-0.205,0.485
2021-08-19 00:49:38.588,-0.205,0.495
2021-08-19 00:49:38.592,-0.17,0.485
2021-08-19 00:49:38.596,-0.21,0.475
2021-08-19 00:49:38.600,-0.235,0.485
2021-08-19 00:49:38.604,-0.22,0.5
2021-08-19 00:49:38.608,-0.215,0.45
2021-08-19 00:49:38.612,-0.185,0.4
2021-08-19 00:49:38.616,-0.195,0.375
2021-08-19 00:49:38.620,-0.26,0.32
2021-08-19 00:49:38.624,-0.305,0.255
2021-08-19 00:49:38.628,-0.3,0.21
2021-08-19 00:49:38.632,-0.3,0.2
2021-08-19 00:49:38.636,-0.305,0.155
2021-08-19 00:49:38.640,-0.305,0.13
2021-08-19 00:49:38.644,-0.335,0.105
2021-08-19 00:49:38.648,-0.36,0.06
2021-08-19 00:49:38.652,-0.385,0.04
2021-08-19 00:49:38.656,-0.38,0.02
2021-08-19 00:49:38.660,-0.395,-0.03
2021-08-19 00:49:38.664,-0.41,-0.085
2021-08-19 00:49:38.668,-0.405,-0.08
2021-08-19 00:49:38.672,-0.43,-0.095
2021-08-19 00:49:38.676,-0.425,-0.1
2021-08-19 00:49:38.680,-0.425,-0.105
2021-08-19 00:49:38.684,-0.445,-0.12
2021-08-19 00:49:38.688,-0.465,-0.14
2021-08-19 00:49:38.692,-0.47,-0.145
2021-08-19 00:49:38.696,-0.45,-0.145
2021-08-19 00:49:38.700,-0.48,-0.155
2021-08-19 00:49:38.704,-0.485,-0.205
2021-08-19 00:49:38.708,-0.5,-0.22
2021-08-19 00:49:38.712,-0.53,-0.18
2021-08-19 00:49:38.716,-0.53,-0.195
2021-08-19 00:49:38.720,-0.52,-0.21
2021-08-19 00:49:38.724,-0.54,-0.21
2021-08-19 00:49:38.728,-0.53,-0.215
2021-08-19 00:49:38.732,-0.53,-0.215
2021-08-19 00:49:38.736,-0.58,-0.24
2021-08-19 00:49:38.740,-0.555,-0.23
2021-08-19 00:49:38.744,-0.54,-0.245
2021-08-19 00:49:38.748,-0.55,-0.215
2021-08-19 00:49:38.752,-0.54,-0.25
2021-08-19 00:49:38.756,-0.535,-0.225
2021-08-19 00:49:38.760,-0.56,-0.235
2021-08-19 00:49:38.764,-0.54,-0.225
2021-08-19 00:49:38.768,-0.555,-0.215
2021-08-19 00:49:38.772,-0.545,-0.21
2021-08-19 00:49:38.776,-0.555,-0.215
2021-08-19 00:49:38.780,-0.56,-0.21
2021-08-19 00:49:38.784,-0.555,-0.205
2021-08-19 00:49:38.788,-0.56,-0.195
2021-08-19 00:49:38.792,-0.5,-0.22
2021-08-19 00:49:38.796,-0.51,-0.185
2021-08-19 00:49:38.800,-0.505,-0.19
2021-08-19 00:49:38.804,-0.515,-0.21
2021-08-19 00:49:38.808,-0.54,-0.195
2021-08-19 00:49:38.812,-0.5,-0.185
2021-08-19 00:49:38.816,-0.48,-0.15
2021-08-19 00:49:38.820,-0.45,-0.125
2021-08-19 00:49:38.824,-0.46,-0.07
2021-08-19 00:49:38.828,-0.45,-0.06
2021-08-19 00:49:38.832,-0.48,-0.055
2021-08-19 00:49:38.836,-0.475,-0.05
2021-08-19 00:49:38.840,-0.48,-0.005
2021-08-19 00:49:38.844,-0.465,-0.02
2021-08-19 00:49:38.848,-0.44,0.0
2021-08-19 00:49:38.852,-0.445,-0.02
2021-08-19 00:49:38.856,-0.43,-0.06
2021-08-19 00:49:38.860,-0.43,-0.095
2021-08-19 00:49:38.864,-0.435,-0.105
2021-08-19 00:49:38.868,-0.375,-0.125
2021-08-19 00:49:38.872,-0.405,-0.125
2021-08-19 00:49:38.876,-0.4,-0.09
2021-08-19 00:49:38.880,-0.42,-0.04
2021-08-19 00:49:38.884,-0.41,-0.09
2021-08-19 00:49:38.888,-0.41,-0.105
2021-08-19 00:49:38.892,-0.44,-0.12
2021-08-19 00:49:38.896,-0.46,-0.155
2021-08-19 00:49:38.900,-0.49,-0.14
2021-08-19 00:49:38.904,-0.475,-0.16
2021-08-19 00:49:38.908,-0.45,-0.155
2021-08-19 00:49:38.912,-0.47,-0.185
2021-08-19 00:49:38.916,-0.45,-0.21
2021-08-19 00:49:38.920,-0.465,-0.185
2021-08-19 00:49:38.924,-0.5,-0.235
2021-08-19 00:49:38.928,-0.5,-0.21
2021-08-19 00:49:38.932,-0.49,-0.2
2021-08-19 00:49:38.936,-0.485,-0.19
2021-08-19 00:49:38.940,-0.495,-0.215
2021-08-19 00:49:38.944,-0.53,-0.22
2021-08-19 00:49:38.948,-0.53,-0.2
2021-08-19 00:49:38.952,-0.535,-0.21
2021-08-19 00:49:38.956,-0.605,-0.2
2021-08-19 00:49:38.960,-0.69,-0.21
2021-08-19 00:49:38.964,-0.775,-0.235
2021-08-19 00:49:38.968,-0.805,-0.26
2021-08-19 00:49:38.972,-0.78,-0.295
2021-08-19 00:49:38.976,-0.725,-0.4
2021-08-19 00:49:38.980,-0.495,-0.465
2021-08-19 00:49:38.984,-0.29,-0.58
2021-08-19 00:49:38.988,-0.345,-0.615
2021-08-19 00:49:38.992,-0.51,-0.475
2021-08-19 00:49:38.996,-0.475,-0.48
2021-08-19 00:49:39.000,-0.455,-0.44
2021-08-19 00:49:39.004,-0.76,-0.145
2021-08-19 00:49:39.008,-1.16,0.45
2021-08-19 00:49:39.012,-1.635,0.98
2021-08-19 00:49:39.056,-1.675,-1.535
2021-08-19 00:49:39.060,-1.21,-1.19
2021-08-19 00:49:39.064,-0.86,-0.945
2021-08-19 00:49:39.068,-0.675,-0.69
2021-08-19 00:49:39.072,-0.565,-0.415
2021-08-19 00:49:39.076,-0.54,-0.235
2021-08-19 00:49:39.080,-0.515,-0.21
2021-08-19 00:49:39.084,-0.5,-0.165
2021-08-19 00:49:39.088,-0.515,-0.195
2021-08-19 00:49:39.092,-0.45,-0.2
2021-08-19 00:49:39.096,-0.46,-0.215
2021-08-19 00:49:39.100,-0.48,-0.225
2021-08-19 00:49:39.104,-0.48,-0.245
2021-08-19 00:49:39.108,-0.46,-0.255
2021-08-19 00:49:39.112,-0.46,-0.24
2021-08-19 00:49:39.116,-0.475,-0.275
2021-08-19 00:49:39.120,-0.515,-0.31
2021-08-19 00:49:39.124,-0.515,-0.315
2021-08-19 00:49:39.128,-0.55,-0.39
2021-08-19 00:49:39.132,-0.55,-0.355
2021-08-19 00:49:39.136,-0.545,-0.36
2021-08-19 00:49:39.140,-0.51,-0.38
2021-08-19 00:49:39.144,-0.535,-0.38
2021-08-19 00:49:39.148,-0.535,-0.37
2021-08-19 00:49:39.152,-0.51,-0.415
2021-08-19 00:49:39.156,-0.5,-0.41
2021-08-19 00:49:39.160,-0.465,-0.39
2021-08-19 00:49:39.164,-0.465,-0.41
2021-08-19 00:49:39.168,-0.44,-0.405
2021-08-19 00:49:39.172,-0.43,-0.39
2021-08-19 00:49:39.176,-0.395,-0.355
2021-08-19 00:49:39.180,-0.4,-0.33
2021-08-19 00:49:39.184,-0.36,-0.315
2021-08-19 00:49:39.188,-0.35,-0.295
2021-08-19 00:49:39.192,-0.3,-0.26
2021-08-19 00:49:39.196,-0.26,-0.265
2021-08-19 00:49:39.200,-0.23,-0.235
2021-08-19 00:49:39.204,-0.18,-0.205
2021-08-19 00:49:39.208,-0.13,-0.17
2021-08-19 00:49:39.212,-0.065,-0.16
2021-08-19 00:49:39.216,-0.03,-0.09
2021-08-19 00:49:39.220,0.0,-0.06
2021-08-19 00:49:39.224,0.065,-0.025
2021-08-19 00:49:39.228,0.135,0.02
2021-08-19 00:49:39.232,0.155,0.035
2021-08-19 00:49:39.236,0.19,0.05
2021-08-19 00:49:39.240,0.2,0.11
2021-08-19 00:49:39.244,0.24,0.14
2021-08-19 00:49:39.248,0.24,0.17
2021-08-19 00:49:39.252,0.29,0.225
2021-08-19 00:49:39.256,0.3,0.255
2021-08-19 00:49:39.260,0.335,0.285
2021-08-19 00:49:39.264,0.36,0.325
2021-08-19 00:49:39.268,0.345,0.425
2021-08-19 00:49:39.272,0.395,0.43
2021-08-19 00:49:39.276,0.405,0.465
2021-08-19 00:49:39.280,0.42,0.53
2021-08-19 00:49:39.284,0.44,0.55
2021-08-19 00:49:39.288,0.455,0.56
2021-08-19 00:49:39.292,0.485,0.66
2021-08-19 00:49:39.296,0.49,0.74
2021-08-19 00:49:39.300,0.475,0.72
2021-08-19 00:49:39.304,0.44,0.75
2021-08-19 00:49:39.308,0.405,0.825
2021-08-19 00:49:39.312,0.34,0.85
2021-08-19 00:49:39.316,0.3,0.85
2021-08-19 00:49:39.320,0.265,0.815
2021-08-19 00:49:39.324,0.23,0.85
2021-08-19 00:49:39.328,0.205,0.825
2021-08-19 00:49:39.332,0.13,0.815
2021-08-19 00:49:39.336,0.075,0.775
2021-08-19 00:49:39.340,0.01,0.71
2021-08-19 00:49:39.344,-0.025,0.645
2021-08-19 00:49:39.348,-0.05,0.66
2021-08-19 00:49:39.352,-0.07,0.63
2021-08-19 00:49:39.356,-0.13,0.555
2021-08-19 00:49:39.360,-0.17,0.545
2021-08-19 00:49:39.364,-0.18,0.5
2021-08-19 00:49:39.368,-0.215,0.46
2021-08-19 00:49:39.372,-0.24,0.395
2021-08-19 00:49:39.376,-0.25,0.35
2021-08-19 00:49:39.380,-0.275,0.31
2021-08-19 00:49:39.384,-0.295,0.3
2021-08-19 00:49:39.388,-0.33,0.295
2021-08-19 00:49:39.392,-0.315,0.265
2021-08-19 00:49:39.396,-0.32,0.22
2021-08-19 00:49:39.400,-0.35,0.25
2021-08-19 00:49:39.404,-0.385,0.21
2021-08-19 00:49:39.408,-0.4,0.185
2021-08-19 00:49:39.412,-0.41,0.15
2021-08-19 00:49:39.416,-0.43,0.17
2021-08-19 00:49:39.420,-0.435,0.12
2021-08-19 00:49:39.424,-0.425,0.11
2021-08-19 00:49:39.428,-0.445,0.08
2021-08-19 00:49:39.432,-0.42,0.06
2021-08-19 00:49:39.436,-0.425,0.02
2021-08-19 00:49:39.440,-0.435,0.025
2021-08-19 00:49:39.444,-0.46,-0.02
2021-08-19 00:49:39.448,-0.515,-0.01
2021-08-19 00:49:39.452,-0.525,-0.005
2021-08-19 00:49:39.456,-0.515,0.005
2021-08-19 00:49:39.460,-0.515,-0.025
2021-08-19 00:49:39.464,-0.49,-0.05
2021-08-19 00:49:39.468,-0.52,-0.06
2021-08-19 00:49:39.472,-0.52,-0.08
2021-08-19 00:49:39.476,-0.51,-0.1
2021-08-19 00:49:39.480,-0.535,-0.11
2021-08-19 00:49:39.484,-0.515,-0.135
2021-08-19 00:49:39.488,-0.525,-0.115
2021-08-19 00:49:39.492,-0.5,-0.09
2021-08-19 00:49:39.496,-0.525,-0.12
2021-08-19 00:49:39.500,-0.53,-0.12
2021-08-19 00:49:39.504,-0.53,-0.1
2021-08-19 00:49:39.508,-0.53,-0.14
2021-08-19 00:49:39.512,-0.52,-0.145
2021-08-19 00:49:39.516,-0.52,-0.145
2021-08-19 00:49:39.520,-0.485,-0.14
2021-08-19 00:49:39.524,-0.53,-0.125
2021-08-19 00:49:39.528,-0.49,-0.12
2021-08-19 00:49:39.532,-0.475,-0.09
2021-08-19 00:49:39.536,-0.465,-0.1
2021-08-19 00:49:39.540,-0.455,-0.09
2021-08-19 00:49:39.544,-0.46,-0.1
2021-08-19 00:49:39.548,-0.47,-0.09
2021-08-19 00:49:39.552,-0.435,-0.035
2021-08-19 00:49:39.556,-0.41,-0.055
2021-08-19 00:49:39.560,-0.38,-0.02
2021-08-19 00:49:39.564,-0.375,-0.015
2021-08-19 00:49:39.568,-0.37,0.005
2021-08-19 00:49:39.572,-0.4,-0.015
2021-08-19 00:49:39.576,-0.39,-0.035
2021-08-19 00:49:39.580,-0.39,-0.065
2021-08-19 00:49:39.584,-0.435,-0.085
2021-08-19 00:49:39.588,-0.49,-0.11
2021-08-19 00:49:39.592,-0.54,-0.095
2021-08-19 00:49:39.596,-0.565,-0.135
2021-08-19 00:49:39.600,-0.515,-0.17
2021-08-19 00:49:39.604,-0.48,-0.28
2021-08-19 00:49:39.608,-0.44,-0.36
2021-08-19 00:49:39.612,-0.27,-0.47
2021-08-19 00:49:39.616,-0.245,-0.515
2021-08-19 00:49:39.620,-0.54,-0.395
2021-08-19 00:49:39.624,-0.705,-0.325
2021-08-19 00:49:39.628,-0.705,-0.305
2021-08-19 00:49:39.632,-0.96,-0.11
2021-08-19 00:49:39.636,-1.27,0.38
2021-08-19 00:49:39.640,-1.555,0.86
2021-08-19 00:49:39.644,-1.9,0.93
2021-08-19 00:49:39.684,-2.0,-1.84
2021-08-19 00:49:39.688,-1.615,-1.575
2021-08-19 00:49:39.692,-1.21,-1.25
2021-08-19 00:49:39.696,-0.945,-1.005
2021-08-19 00:49:39.700,-0.815,-0.74
2021-08-19 00:49:39.704,-0.76,-0.535
2021-08-19 00:49:39.708,-0.68,-0.46
2021-08-19 00:49:39.712,-0.64,-0.44
2021-08-19 00:49:39.716,-0.61,-0.465
2021-08-19 00:49:39.720,-0.58,-0.44
2021-08-19 00:49:39.724,-0.59,-0.435
2021-08-19 00:49:39.728,-0.605,-0.42
2021-08-19 00:49:39.732,-0.54,-0.415
2021-08-19 00:49:39.736,-0.53,-0.435
2021-08-19 00:49:39.740,-0.525,-0.44
2021-08-19 00:49:39.744,-0.57,-0.445
2021-08-19 00:49:39.748,-0.535,-0.455
2021-08-19 00:49:39.752,-0.555,-0.47
2021-08-19 00:49:39.756,-0.51,-0.435
2021-08-19 00:49:39.760,-0.505,-0.43
2021-08-19 00:49:39.764,-0.475,-0.415
2021-08-19 00:49:39.768,-0.5,-0.41
2021-08-19 00:49:39.772,-0.475,-0.385
2021-08-19 00:49:39.776,-0.42,-0.4
2021-08-19 00:49:39.780,-0.375,-0.385
2021-08-19 00:49:39.784,-0.36,-0.33
2021-08-19 00:49:39.788,-0.34,-0.36
2021-08-19 00:49:39.792,-0.33,-0.305
2021-08-19 00:49:39.796,-0.31,-0.285
2021-08-19 00:49:39.800,-0.26,-0.275
2021-08-19 00:49:39.804,-0.22,-0.27
2021-08-19 00:49:39.808,-0.155,-0.265
2021-08-19 00:49:39.812,-0.075,-0.24
2021-08-19 00:49:39.816,-0.045,-0.165
2021-08-19 00:49:39.820,-0.01,-0.15
2021-08-19 00:49:39.824,0.05,-0.105
2021-08-19 00:49:39.828,0.095,-0.16
2021-08-19 00:49:39.832,0.17,-0.15
2021-08-19 00:49:39.836,0.22,-0.12
2021-08-19 00:49:39.840,0.25,-0.085
2021-08-19 00:49:39.844,0.26,-0.05
2021-08-19 00:49:39.848,0.335,-0.01
2021-08-19 00:49:39.852,0.375,0.0
2021-08-19 00:49:39.856,0.415,-0.01
2021-08-19 00:49:39.860,0.43,0.0
2021-08-19 00:49:39.864,0.465,0.055
2021-08-19 00:49:39.868,0.495,0.105
2021-08-19 00:49:39.872,0.52,0.095
2021-08-19 00:49:39.876,0.565,0.145
2021-08-19 00:49:39.880,0.56,0.14
2021-08-19 00:49:39.884,0.55,0.16
2021-08-19 00:49:39.888,0.52,0.23
2021-08-19 00:49:39.892,0.545,0.275
2021-08-19 00:49:39.896,0.575,0.3
2021-08-19 00:49:39.900,0.58,0.335
2021-08-19 00:49:39.904,0.56,0.39
2021-08-19 00:49:39.908,0.515,0.415
2021-08-19 00:49:39.912,0.47,0.44
2021-08-19 00:49:39.916,0.44,0.47
2021-08-19 00:49:39.920,0.4,0.475
2021-08-19 00:49:39.924,0.365,0.5
2021-08-19 00:49:39.928,0.31,0.5
2021-08-19 00:49:39.932,0.235,0.495
2021-08-19 00:49:39.936,0.195,0.495
2021-08-19 00:49:39.940,0.105,0.525
2021-08-19 00:49:39.944,0.035,0.475
2021-08-19 00:49:39.948,0.015,0.455
2021-08-19 00:49:39.952,-0.045,0.47
2021-08-19 00:49:39.956,-0.145,0.445
2021-08-19 00:49:39.960,-0.21,0.395
2021-08-19 00:49:39.964,-0.225,0.43
2021-08-19 00:49:39.968,-0.28,0.395
2021-08-19 00:49:39.972,-0.33,0.335
2021-08-19 00:49:39.976,-0.355,0.32
2021-08-19 00:49:39.980,-0.425,0.3
2021-08-19 00:49:39.984,-0.435,0.265
2021-08-19 00:49:39.988,-0.455,0.23
2021-08-19 00:49:39.992,-0.435,0.22
2021-08-19 00:49:39.996,-0.45,0.17
2021-08-19 00:49:40.000,-0.445,0.125
2021-08-19 00:49:40.004,-0.475,0.13
2021-08-19 00:49:40.008,-0.455,0.06
2021-08-19 00:49:40.012,-0.44,0.055
2021-08-19 00:49:40.016,-0.415,0.04
2021-08-19 00:49:40.020,-0.415,0.045
2021-08-19 00:49:40.024,-0.37,0.09
2021-08-19 00:49:40.028,-0.35,0.095
2021-08-19 00:49:40.032,-0.345,0.1
2021-08-19 00:49:40.036,-0.35,0.1
2021-08-19 00:49:40.040,-0.355,0.11
2021-08-19 00:49:40.044,-0.375,0.085
2021-08-19 00:49:40.048,-0.37,0.07
2021-08-19 00:49:40.052,-0.345,0.04
2021-08-19 00:49:40.056,-0.31,0.045
2021-08-19 00:49:40.060,-0.31,0.03
2021-08-19 00:49:40.064,-0.33,0.03
2021-08-19 00:49:40.068,-0.37,0.01
2021-08-19 00:49:40.072,-0.38,-0.05
2021-08-19 00:49:40.076,-0.365,-0.06
2021-08-19 00:49:40.080,-0.345,-0.08
2021-08-19 00:49:40.084,-0.335,-0.11
2021-08-19 00:49:40.088,-0.375,-0.115
2021-08-19 00:49:40.092,-0.385,-0.115
2021-08-19 00:49:40.096,-0.405,-0.13
2021-08-19 00:49:40.100,-0.38,-0.16
2021-08-19 00:49:40.104,-0.41,-0.185
2021-08-19 00:49:40.108,-0.375,-0.22
2021-08-19 00:49:40.112,-0.415,-0.205
2021-08-19 00:49:40.116,-0.44,-0.21
2021-08-19 00:49:40.120,-0.47,-0.245
2021-08-19 00:49:40.124,-0.53,-0.25
2021-08-19 00:49:40.128,-0.59,-0.24
2021-08-19 00:49:40.132,-0.62,-0.33
2021-08-19 00:49:40.136,-0.615,-0.4
2021-08-19 00:49:40.140,-0.585,-0.46
2021-08-19 00:49:40.144,-0.45,-0.55
2021-08-19 00:49:40.148,-0.15,-0.64
2021-08-19 00:49:40.152,-0.155,-0.645
2021-08-19 00:49:40.156,-0.395,-0.47
2021-08-19 00:49:40.160,-0.47,-0.4
2021-08-19 00:49:40.164,-0.405,-0.31
2021-08-19 00:49:40.168,-0.73,0.035
2021-08-19 00:49:40.172,-1.17,0.525
2021-08-19 00:49:40.176,-1.58,0.92
2021-08-19 00:49:40.220,-1.81,-1.795
2021-08-19 00:49:40.224,-1.4,-1.47
2021-08-19 00:49:40.228,-1.02,-1.22
2021-08-19 00:49:40.232,-0.805,-0.98
2021-08-19 00:49:40.236,-0.68,-0.73
2021-08-19 00:49:40.240,-0.61,-0.575
2021-08-19 00:49:40.244,-0.58,-0.49
2021-08-19 00:49:40.248,-0.545,-0.485
2021-08-19 00:49:40.252,-0.55,-0.48
2021-08-19 00:49:40.256,-0.55,-0.46
2021-08-19 00:49:40.260,-0.53,-0.47
2021-08-19 00:49:40.264,-0.515,-0.45
2021-08-19 00:49:40.268,-0.51,-0.46
2021-08-19 00:49:40.272,-0.48,-0.505
2021-08-19 00:49:40.276,-0.48,-0.49
2021-08-19 00:49:40.280,-0.5,-0.495
2021-08-19 00:49:40.284,-0.46,-0.475
2021-08-19 00:49:40.288,-0.43,-0.545
2021-08-19 00:49:40.292,-0.405,-0.515
2021-08-19 00:49:40.296,-0.385,-0.425
2021-08-19 00:49:40.300,-0.39,-0.425
2021-08-19 00:49:40.304,-0.365,-0.4
2021-08-19 00:49:40.308,-0.32,-0.37
2021-08-19 00:49:40.312,-0.315,-0.4
2021-08-19 00:49:40.316,-0.27,-0.365
2021-08-19 00:49:40.320,-0.29,-0.375
2021-08-19 00:49:40.324,-0.29,-0.425
2021-08-19 00:49:40.328,-0.245,-0.45
2021-08-19 00:49:40.332,-0.2,-0.44
2021-08-19 00:49:40.336,-0.15,-0.44
2021-08-19 00:49:40.340,-0.155,-0.455
2021-08-19 00:49:40.344,-0.155,-0.48
2021-08-19 00:49:40.348,-0.12,-0.46
2021-08-19 00:49:40.352,-0.08,-0.435
2021-08-19 00:49:40.356,-0.01,-0.43
2021-08-19 00:49:40.360,0.03,-0.425
2021-08-19 00:49:40.364,0.055,-0.385
2021-08-19 00:49:40.368,0.11,-0.365
2021-08-19 00:49:40.372,0.15,-0.37
2021-08-19 00:49:40.376,0.24,-0.34
2021-08-19 00:49:40.380,0.285,-0.31
2021-08-19 00:49:40.384,0.33,-0.26
2021-08-19 00:49:40.388,0.36,-0.255
2021-08-19 00:49:40.392,0.385,-0.22
2021-08-19 00:49:40.396,0.425,-0.195
2021-08-19 00:49:40.400,0.47,-0.145
2021-08-19 00:49:40.404,0.49,-0.07
2021-08-19 00:49:40.408,0.505,-0.08
2021-08-19 00:49:40.412,0.54,-0.06
2021-08-19 00:49:40.416,0.54,0.0
2021-08-19 00:49:40.420,0.56,0.045
2021-08-19 00:49:40.424,0.6,0.06
2021-08-19 00:49:40.428,0.59,0.095
2021-08-19 00:49:40.432,0.57,0.12
2021-08-19 00:49:40.436,0.52,0.175
2021-08-19 00:49:40.440,0.485,0.22
2021-08-19 00:49:40.444,0.46,0.24
2021-08-19 00:49:40.448,0.425,0.24
2021-08-19 00:49:40.452,0.37,0.305
2021-08-19 00:49:40.456,0.31,0.265
2021-08-19 00:49:40.460,0.255,0.275
2021-08-19 00:49:40.464,0.195,0.295
2021-08-19 00:49:40.468,0.12,0.315
2021-08-19 00:49:40.472,0.07,0.33
2021-08-19 00:49:40.476,-0.005,0.335
2021-08-19 00:49:40.480,-0.105,0.325
2021-08-19 00:49:40.484,-0.115,0.3
2021-08-19 00:49:40.488,-0.15,0.31
2021-08-19 00:49:40.492,-0.21,0.26
2021-08-19 00:49:40.496,-0.235,0.27
2021-08-19 00:49:40.500,-0.24,0.245
2021-08-19 00:49:40.504,-0.285,0.24
2021-08-19 00:49:40.508,-0.31,0.205
2021-08-19 00:49:40.512,-0.325,0.185
2021-08-19 00:49:40.516,-0.285,0.175
2021-08-19 00:49:40.520,-0.32,0.14
2021-08-19 00:49:40.524,-0.345,0.13
2021-08-19 00:49:40.528,-0.35,0.14
2021-08-19 00:49:40.532,-0.36,0.105
2021-08-19 00:49:40.536,-0.365,0.1
2021-08-19 00:49:40.540,-0.35,0.095
2021-08-19 00:49:40.544,-0.32,0.08
2021-08-19 00:49:40.548,-0.36,0.105
2021-08-19 00:49:40.552,-0.37,0.135
2021-08-19 00:49:40.556,-0.36,0.12
2021-08-19 00:49:40.560,-0.31,0.095
2021-08-19 00:49:40.564,-0.3,0.075
2021-08-19 00:49:40.568,-0.31,0.075
2021-08-19 00:49:40.572,-0.34,0.04
2021-08-19 00:49:40.576,-0.375,0.04
2021-08-19 00:49:40.580,-0.35,-0.005
2021-08-19 00:49:40.584,-0.35,-0.025
2021-08-19 00:49:40.588,-0.37,-0.06
2021-08-19 00:49:40.592,-0.38,-0.085
2021-08-19 00:49:40.596,-0.395,-0.14
2021-08-19 00:49:40.600,-0.42,-0.155
2021-08-19 00:49:40.604,-0.41,-0.16
2021-08-19 00:49:40.608,-0.395,-0.2
2021-08-19 00:49:40.612,-0.395,-0.215
2021-08-19 00:49:40.616,-0.415,-0.255
2021-08-19 00:49:40.620,-0.4,-0.275
2021-08-19 00:49:40.624,-0.415,-0.28
2021-08-19 00:49:40.628,-0.415,-0.275
2021-08-19 00:49:40.632,-0.44,-0.26
2021-08-19 00:49:40.636,-0.445,-0.29
2021-08-19 00:49:40.640,-0.46,-0.275
2021-08-19 00:49:40.644,-0.48,-0.325
2021-08-19 00:49:40.648,-0.465,-0.31
2021-08-19 00:49:40.652,-0.475,-0.295
2021-08-19 00:49:40.656,-0.465,-0.3
2021-08-19 00:49:40.660,-0.495,-0.315
2021-08-19 00:49:40.664,-0.5,-0.33
2021-08-19 00:49:40.668,-0.505,-0.33
2021-08-19 00:49:40.672,-0.505,-0.33
2021-08-19 00:49:40.676,-0.5,-0.31
2021-08-19 00:49:40.680,-0.505,-0.32
2021-08-19 00:49:40.684,-0.505,-0.32
2021-08-19 00:49:40.688,-0.535,-0.355
2021-08-19 00:49:40.692,-0.53,-0.34
2021-08-19 00:49:40.696,-0.535,-0.345
2021-08-19 00:49:40.700,-0.49,-0.315
2021-08-19 00:49:40.704,-0.525,-0.34
2021-08-19 00:49:40.708,-0.535,-0.32
2021-08-19 00:49:40.712,-0.545,-0.345
2021-08-19 00:49:40.716,-0.54,-0.35
2021-08-19 00:49:40.720,-0.54,-0.33
2021-08-19 00:49:40.724,-0.525,-0.3
2021-08-19 00:49:40.728,-0.535,-0.32
2021-08-19 00:49:40.732,-0.525,-0.315
2021-08-19 00:49:40.736,-0.51,-0.3
2021-08-19 00:49:40.740,-0.51,-0.275
2021-08-19 00:49:40.744,-0.51,-0.27
2021-08-19 00:49:40.748,-0.54,-0.26
2021-08-19 00:49:40.752,-0.6,-0.305
2021-08-19 00:49:40.756,-0.685,-0.28
2021-08-19 00:49:40.760,-0.635,-0.31
2021-08-19 00:49:40.764,-0.545,-0.31
2021-08-19 00:49:40.768,-0.47,-0.345
2021-08-19 00:49:40.772,-0.315,-0.365
2021-08-19 00:49:40.776,-0.1,-0.4
2021-08-19 00:49:40.780,-0.13,-0.39
2021-08-19 00:49:40.784,-0.395,-0.27
2021-08-19 00:49:40.788,-0.37,-0.255
2021-08-19 00:49:40.792,-0.315,-0.24
2021-08-19 00:49:40.796,-0.605,-0.07
2021-08-19 00:49:40.800,-1.045,0.395
2021-08-19 00:49:40.804,-1.525,0.925
2021-08-19 00:49:40.808,-1.99,0.9
2021-08-19 00:49:40.848,-1.72,-1.54
2021-08-19 00:49:40.852,-1.32,-1.405
2021-08-19 00:49:40.856,-0.945,-1.245
2021-08-19 00:49:40.860,-0.75,-0.935
2021-08-19 00:49:40.864,-0.675,-0.7
2021-08-19 00:49:40.868,-0.63,-0.565
2021-08-19 00:49:40.872,-0.62,-0.525
2021-08-19 00:49:40.876,-0.6,-0.495
2021-08-19 00:49:40.880,-0.56,-0.52
2021-08-19 00:49:40.884,-0.535,-0.535
2021-08-19 00:49:40.888,-0.56,-0.51
2021-08-19 00:49:40.892,-0.55,-0.53
2021-08-19 00:49:40.896,-0.535,-0.57
2021-08-19 00:49:40.900,-0.525,-0.555
2021-08-19 00:49:40.904,-0.55,-0.55
2021-08-19 00:49:40.908,-0.54,-0.575
2021-08-19 00:49:40.912,-0.555,-0.58
2021-08-19 00:49:40.916,-0.555,-0.56
2021-08-19 00:49:40.920,-0.54,-0.565
2021-08-19 00:49:40.924,-0.51,-0.55
2021-08-19 00:49:40.928,-0.51,-0.525
2021-08-19 00:49:40.932,-0.485,-0.525
2021-08-19 00:49:40.936,-0.52,-0.56
2021-08-19 00:49:40.940,-0.495,-0.55
2021-08-19 00:49:40.944,-0.5,-0.555
2021-08-19 00:49:40.948,-0.435,-0.55
2021-08-19 00:49:40.952,-0.42,-0.535
2021-08-19 00:49:40.956,-0.405,-0.49
2021-08-19 00:49:40.960,-0.385,-0.5
2021-08-19 00:49:40.964,-0.37,-0.475
2021-08-19 00:49:40.968,-0.28,-0.445
2021-08-19 00:49:40.972,-0.245,-0.42
2021-08-19 00:49:40.976,-0.185,-0.395
2021-08-19 00:49:40.980,-0.12,-0.365
2021-08-19 00:49:40.984,-0.11,-0.32
2021-08-19 00:49:40.988,-0.06,-0.3
2021-08-19 00:49:40.992,0.015,-0.26
2021-08-19 00:49:40.996,0.105,-0.195
2021-08-19 00:49:41.000,0.19,-0.175
2021-08-19 00:49:41.004,0.215,-0.09
2021-08-19 00:49:41.008,0.305,-0.03
2021-08-19 00:49:41.012,0.36,0.045
2021-08-19 00:49:41.016,0.42,0.125
2021-08-19 00:49:41.020,0.435,0.155
2021-08-19 00:49:41.024,0.465,0.22
2021-08-19 00:49:41.028,0.475,0.26
2021-08-19 00:49:41.032,0.495,0.24
2021-08-19 00:49:41.036,0.535,0.3
2021-08-19 00:49:41.040,0.54,0.345
2021-08-19 00:49:41.044,0.535,0.34
2021-08-19 00:49:41.048,0.51,0.355
2021-08-19 00:49:41.052,0.505,0.345
2021-08-19 00:49:41.056,0.52,0.395
2021-08-19 00:49:41.060,0.545,0.455
2021-08-19 00:49:41.064,0.525,0.475
2021-08-19 00:49:41.068,0.5,0.52
2021-08-19 00:49:41.072,0.485,0.51
2021-08-19 00:49:41.076,0.435,0.565
2021-08-19 00:49:41.080,0.355,0.565
2021-08-19 00:49:41.084,0.35,0.545
2021-08-19 00:49:41.088,0.305,0.545
2021-08-19 00:49:41.092,0.25,0.56
2021-08-19 00:49:41.096,0.145,0.545
2021-08-19 00:49:41.100,0.09,0.525
2021-08-19 00:49:41.104,0.035,0.495
2021-08-19 00:49:41.108,0.01,0.455
2021-08-19 00:49:41.112,-0.08,0.445
2021-08-19 00:49:41.116,-0.135,0.49
2021-08-19 00:49:41.120,-0.22,0.43
2021-08-19 00:49:41.124,-0.265,0.425
2021-08-19 00:49:41.128,-0.305,0.37
2021-08-19 00:49:41.132,-0.325,0.36
2021-08-19 00:49:41.136,-0.32,0.31
2021-08-19 00:49:41.140,-0.395,0.28
2021-08-19 00:49:41.144,-0.42,0.245
2021-08-19 00:49:41.148,-0.44,0.225
2021-08-19 00:49:41.152,-0.45,0.21
2021-08-19 00:49:41.156,-0.465,0.18
2021-08-19 00:49:41.160,-0.45,0.14
2021-08-19 00:49:41.164,-0.495,0.11
2021-08-19 00:49:41.168,-0.5,0.12
2021-08-19 00:49:41.172,-0.475,0.115
2021-08-19 00:49:41.176,-0.48,0.075
2021-08-19 00:49:41.180,-0.475,0.065
2021-08-19 00:49:41.184,-0.48,0.045
2021-08-19 00:49:41.188,-0.495,0.035
2021-08-19 00:49:41.192,-0.475,0.005
2021-08-19 00:49:41.196,-0.49,0.0
2021-08-19 00:49:41.200,-0.485,-0.005
2021-08-19 00:49:41.204,-0.475,0.0
2021-08-19 00:49:41.208,-0.46,-0.02
2021-08-19 00:49:41.212,-0.49,-0.035
2021-08-19 00:49:41.216,-0.48,-0.045
2021-08-19 00:49:41.220,-0.475,-0.055
2021-08-19 00:49:41.224,-0.45,-0.015
2021-08-19 00:49:41.228,-0.44,-0.05
2021-08-19 00:49:41.232,-0.425,-0.055
2021-08-19 00:49:41.236,-0.395,-0.05
2021-08-19 00:49:41.240,-0.405,-0.03
2021-08-19 00:49:41.244,-0.37,-0.05
2021-08-19 00:49:41.248,-0.36,-0.005
2021-08-19 00:49:41.252,-0.32,0.01
2021-08-19 00:49:41.256,-0.345,0.005
2021-08-19 00:49:41.260,-0.375,0.045
2021-08-19 00:49:41.264,-0.385,0.005
2021-08-19 00:49:41.268,-0.35,-0.005
2021-08-19 00:49:41.272,-0.33,-0.02
2021-08-19 00:49:41.276,-0.36,-0.01
2021-08-19 00:49:41.280,-0.355,-0.015
2021-08-19 00:49:41.284,-0.345,-0.08
2021-08-19 00:49:41.288,-0.375,-0.09
2021-08-19 00:49:41.292,-0.38,-0.11
2021-08-19 00:49:41.296,-0.37,-0.1
2021-08-19 00:49:41.300,-0.36,-0.105
2021-08-19 00:49:41.304,-0.375,-0.115
2021-08-19 00:49:41.308,-0.39,-0.085
2021-08-19 00:49:41.312,-0.39,-0.135
2021-08-19 00:49:41.316,-0.385,-0.115
2021-08-19 00:49:41.320,-0.375,-0.155
2021-08-19 00:49:41.324,-0.415,-0.155
2021-08-19 00:49:41.328,-0.435,-0.2
2021-08-19 00:49:41.332,-0.425,-0.22
2021-08-19 00:49:41.336,-0.415,-0.195
2021-08-19 00:49:41.340,-0.44,-0.21
2021-08-19 00:49:41.344,-0.415,-0.25
2021-08-19 00:49:41.348,-0.44,-0.23
2021-08-19 00:49:41.352,-0.49,-0.215
2021-08-19 00:49:41.356,-0.53,-0.235
2021-08-19 00:49:41.360,-0.63,-0.24
2021-08-19 00:49:41.364,-0.65,-0.27
2021-08-19 00:49:41.368,-0.625,-0.32
2021-08-19 00:49:41.372,-0.59,-0.425
2021-08-19 00:49:41.376,-0.57,-0.47
2021-08-19 00:49:41.380,-0.39,-0.54
2021-08-19 00:49:41.384,-0.26,-0.64
2021-08-19 00:49:41.388,-0.545,-0.49
2021-08-19 00:49:41.392,-0.78,-0.41
2021-08-19 00:49:41.396,-0.79,-0.4
2021-08-19 00:49:41.400,-0.885,-0.27
2021-08-19 00:49:41.404,-1.16,0.2
2021-08-19 00:49:41.408,-1.41,0.715
2021-08-19 00:49:41.412,-1.77,1.005
2021-08-19 00:49:41.452,-1.965,-1.93
2021-08-19 00:49:41.456,-1.53,-1.64
2021-08-19 00:49:41.460,-1.13,-1.35
2021-08-19 00:49:41.464,-0.865,-1.07
2021-08-19 00:49:41.468,-0.71,-0.73
2021-08-19 00:49:41.472,-0.63,-0.535
2021-08-19 00:49:41.476,-0.555,-0.435
2021-08-19 00:49:41.480,-0.505,-0.395
2021-08-19 00:49:41.484,-0.515,-0.355
2021-08-19 00:49:41.488,-0.5,-0.385
2021-08-19 00:49:41.492,-0.49,-0.39
2021-08-19 00:49:41.496,-0.48,-0.385
2021-08-19 00:49:41.500,-0.46,-0.32
2021-08-19 00:49:41.504,-0.435,-0.35
2021-08-19 00:49:41.508,-0.42,-0.405
2021-08-19 00:49:41.512,-0.41,-0.42
2021-08-19 00:49:41.516,-0.44,-0.41
2021-08-19 00:49:41.520,-0.415,-0.435
2021-08-19 00:49:41.524,-0.365,-0.47
2021-08-19 00:49:41.528,-0.38,-0.485
2021-08-19 00:49:41.532,-0.37,-0.45
2021-08-19 00:49:41.536,-0.35,-0.435
2021-08-19 00:49:41.540,-0.34,-0.46
2021-08-19 00:49:41.544,-0.37,-0.45
2021-08-19 00:49:41.548,-0.345,-0.45
2021-08-19 00:49:41.552,-0.36,-0.44
2021-08-19 00:49:41.556,-0.335,-0.445
2021-08-19 00:49:41.560,-0.305,-0.445
2021-08-19 00:49:41.564,-0.24,-0.465
2021-08-19 00:49:41.568,-0.215,-0.435
2021-08-19 00:49:41.572,-0.185,-0.4
2021-08-19 00:49:41.576,-0.185,-0.38
2021-08-19 00:49:41.580,-0.135,-0.375
2021-08-19 00:49:41.584,-0.105,-0.35
2021-08-19 00:49:41.588,-0.04,-0.315
2021-08-19 00:49:41.592,0.015,-0.285
2021-08-19 00:49:41.596,0.05,-0.21
2021-08-19 00:49:41.600,0.09,-0.205
2021-08-19 00:49:41.604,0.11,-0.2
2021-08-19 00:49:41.608,0.19,-0.115
2021-08-19 00:49:41.612,0.24,-0.09
2021-08-19 00:49:41.616,0.315,-0.055
2021-08-19 00:49:41.620,0.345,-0.03
2021-08-19 00:49:41.624,0.38,0.005
2021-08-19 00:49:41.628,0.38,0.01
2021-08-19 00:49:41.632,0.405,0.09
2021-08-19 00:49:41.636,0.425,0.12
2021-08-19 00:49:41.640,0.39,0.175
2021-08-19 00:49:41.644,0.405,0.205
2021-08-19 00:49:41.648,0.395,0.225
2021-08-19 00:49:41.652,0.375,0.245
2021-08-19 00:49:41.656,0.39,0.285
2021-08-19 00:49:41.660,0.415,0.33
