Time,ECG1,ECG2
2021-08-19 13:52:45.060,0.205,0.1
2021-08-19 13:52:45.064,0.2,0.13
2021-08-19 13:52:45.068,0.2,0.135
2021-08-19 13:52:45.072,0.23,0.12
2021-08-19 13:52:45.076,0.25,0.14
2021-08-19 13:52:45.080,0.275,0.115
2021-08-19 13:52:45.084,0.315,0.11
2021-08-19 13:52:45.088,0.33,0.115
2021-08-19 13:52:45.092,0.35,0.09
2021-08-19 13:52:45.096,0.35,0.05
2021-08-19 13:52:45.100,0.375,0.015
2021-08-19 13:52:45.104,0.35,-0.025
2021-08-19 13:52:45.108,0.35,-0.06
2021-08-19 13:52:45.112,0.31,-0.08
2021-08-19 13:52:45.116,0.305,-0.095
2021-08-19 13:52:45.120,0.3,-0.075
2021-08-19 13:52:45.124,0.275,-0.09
2021-08-19 13:52:45.128,0.29,-0.09
2021-08-19 13:52:45.132,0.27,-0.105
2021-08-19 13:52:45.136,0.245,-0.12
2021-08-19 13:52:45.140,0.21,-0.135
2021-08-19 13:52:45.144,0.185,-0.16
2021-08-19 13:52:45.148,0.18,-0.16
2021-08-19 13:52:45.152,0.135,-0.175
2021-08-19 13:52:45.156,0.115,-0.16
2021-08-19 13:52:45.160,0.13,-0.16
2021-08-19 13:52:45.164,0.105,-0.165
2021-08-19 13:52:45.168,0.1,-0.16
2021-08-19 13:52:45.172,0.055,-0.155
2021-08-19 13:52:45.176,0.06,-0.19
2021-08-19 13:52:45.180,0.07,-0.21
2021-08-19 13:52:45.184,0.07,-0.225
2021-08-19 13:52:45.188,0.04,-0.21
2021-08-19 13:52:45.192,0.015,-0.205
2021-08-19 13:52:45.196,0.015,-0.2
2021-08-19 13:52:45.200,0.035,-0.2
2021-08-19 13:52:45.204,0.03,-0.19
2021-08-19 13:52:45.208,0.02,-0.18
2021-08-19 13:52:45.212,0.03,-0.195
2021-08-19 13:52:45.216,0.06,-0.17
2021-08-19 13:52:45.220,0.045,-0.175
2021-08-19 13:52:45.224,0.04,-0.205
2021-08-19 13:52:45.228,0.05,-0.2
2021-08-19 13:52:45.232,0.055,-0.195
2021-08-19 13:52:45.236,0.015,-0.19
2021-08-19 13:52:45.240,0.025,-0.175
2021-08-19 13:52:45.244,0.02,-0.17
2021-08-19 13:52:45.248,0.015,-0.175
2021-08-19 13:52:45.252,0.02,-0.175
2021-08-19 13:52:45.256,0.035,-0.17
2021-08-19 13:52:45.260,0.045,-0.175
2021-08-19 13:52:45.264,0.045,-0.205
2021-08-19 13:52:45.268,0.015,-0.195
2021-08-19 13:52:45.272,0.03,-0.21
2021-08-19 13:52:45.276,0.0,-0.205
2021-08-19 13:52:45.280,0.0,-0.2
2021-08-19 13:52:45.284,0.015,-0.19
2021-08-19 13:52:45.288,0.015,-0.17
2021-08-19 13:52:45.292,0.01,-0.17
2021-08-19 13:52:45.296,0.045,-0.165
2021-08-19 13:52:45.300,0.065,-0.225
2021-08-19 13:52:45.304,0.09,-0.265
2021-08-19 13:52:45.308,0.185,-0.23
2021-08-19 13:52:45.312,0.31,-0.135
2021-08-19 13:52:45.316,0.365,0.065
2021-08-19 13:52:45.320,0.51,0.37
2021-08-19 13:52:45.324,0.535,0.6
2021-08-19 13:52:45.328,0.2,0.63
2021-08-19 13:52:45.332,-0.305,0.46
2021-08-19 13:52:45.336,-0.8,0.245
2021-08-19 13:52:45.340,-1.195,0.1
2021-08-19 13:52:45.344,-1.485,0.125
2021-08-19 13:52:45.348,-1.62,0.22
2021-08-19 13:52:45.352,-1.49,0.205
2021-08-19 13:52:45.356,-1.07,0.125
2021-08-19 13:52:45.360,-0.715,0.015
2021-08-19 13:52:45.364,-0.44,-0.075
2021-08-19 13:52:45.368,-0.27,-0.105
2021-08-19 13:52:45.372,-0.13,-0.125
2021-08-19 13:52:45.376,-0.025,-0.145
2021-08-19 13:52:45.380,0.025,-0.16
2021-08-19 13:52:45.384,0.03,-0.17
2021-08-19 13:52:45.388,0.05,-0.175
2021-08-19 13:52:45.392,0.075,-0.2
2021-08-19 13:52:45.396,0.085,-0.19
2021-08-19 13:52:45.400,0.075,-0.205
2021-08-19 13:52:45.404,0.095,-0.19
2021-08-19 13:52:45.408,0.125,-0.195
2021-08-19 13:52:45.412,0.115,-0.185
2021-08-19 13:52:45.416,0.155,-0.19
2021-08-19 13:52:45.420,0.16,-0.16
2021-08-19 13:52:45.424,0.185,-0.135
2021-08-19 13:52:45.428,0.2,-0.15
2021-08-19 13:52:45.432,0.19,-0.125
2021-08-19 13:52:45.436,0.195,-0.155
2021-08-19 13:52:45.440,0.2,-0.17
2021-08-19 13:52:45.444,0.22,-0.155
2021-08-19 13:52:45.448,0.205,-0.15
2021-08-19 13:52:45.452,0.21,-0.14
2021-08-19 13:52:45.456,0.185,-0.145
2021-08-19 13:52:45.460,0.18,-0.16
2021-08-19 13:52:45.464,0.185,-0.16
2021-08-19 13:52:45.468,0.175,-0.165
2021-08-19 13:52:45.472,0.16,-0.175
2021-08-19 13:52:45.476,0.14,-0.2
2021-08-19 13:52:45.480,0.115,-0.205
2021-08-19 13:52:45.484,0.075,-0.21
2021-08-19 13:52:45.488,0.075,-0.22
2021-08-19 13:52:45.492,0.055,-0.215
2021-08-19 13:52:45.496,0.055,-0.195
2021-08-19 13:52:45.500,0.045,-0.2
2021-08-19 13:52:45.504,0.07,-0.2
2021-08-19 13:52:45.508,0.075,-0.22
2021-08-19 13:52:45.512,0.06,-0.245
2021-08-19 13:52:45.516,0.06,-0.23
2021-08-19 13:52:45.520,0.03,-0.21
2021-08-19 13:52:45.524,0.035,-0.21
2021-08-19 13:52:45.528,0.025,-0.2
2021-08-19 13:52:45.532,0.035,-0.195
2021-08-19 13:52:45.536,0.05,-0.195
2021-08-19 13:52:45.540,0.055,-0.18
2021-08-19 13:52:45.544,0.06,-0.16
2021-08-19 13:52:45.548,0.07,-0.18
2021-08-19 13:52:45.552,0.06,-0.2
2021-08-19 13:52:45.556,0.06,-0.195
2021-08-19 13:52:45.560,0.045,-0.185
2021-08-19 13:52:45.564,0.035,-0.175
2021-08-19 13:52:45.568,0.025,-0.145
2021-08-19 13:52:45.572,0.02,-0.17
2021-08-19 13:52:45.576,0.035,-0.16
2021-08-19 13:52:45.580,0.045,-0.15
2021-08-19 13:52:45.584,0.06,-0.11
2021-08-19 13:52:45.588,0.075,-0.135
2021-08-19 13:52:45.592,0.05,-0.15
2021-08-19 13:52:45.596,0.035,-0.145
2021-08-19 13:52:45.600,0.035,-0.145
2021-08-19 13:52:45.604,0.01,-0.165
2021-08-19 13:52:45.608,0.005,-0.14
2021-08-19 13:52:45.612,0.015,-0.125
2021-08-19 13:52:45.616,0.03,-0.105
2021-08-19 13:52:45.620,0.04,-0.07
2021-08-19 13:52:45.624,0.055,-0.05
2021-08-19 13:52:45.628,0.065,-0.055
2021-08-19 13:52:45.632,0.07,-0.06
2021-08-19 13:52:45.636,0.095,-0.05
2021-08-19 13:52:45.640,0.085,-0.05
2021-08-19 13:52:45.644,0.105,-0.055
2021-08-19 13:52:45.648,0.095,-0.055
2021-08-19 13:52:45.652,0.105,-0.03
2021-08-19 13:52:45.656,0.11,-0.03
2021-08-19 13:52:45.660,0.12,-0.035
2021-08-19 13:52:45.664,0.16,-0.05
2021-08-19 13:52:45.668,0.18,-0.09
2021-08-19 13:52:45.672,0.21,-0.11
2021-08-19 13:52:45.676,0.22,-0.12
2021-08-19 13:52:45.680,0.235,-0.105
2021-08-19 13:52:45.684,0.22,-0.135
2021-08-19 13:52:45.688,0.195,-0.13
2021-08-19 13:52:45.692,0.22,-0.125
2021-08-19 13:52:45.696,0.23,-0.085
2021-08-19 13:52:45.700,0.265,-0.07
2021-08-19 13:52:45.704,0.29,-0.015
2021-08-19 13:52:45.708,0.41,0.095
2021-08-19 13:52:45.712,0.63,0.27
2021-08-19 13:52:45.716,0.9,0.48
2021-08-19 13:52:45.720,1.255,0.685
2021-08-19 13:52:45.724,1.18,0.8
2021-08-19 13:52:45.728,0.55,0.745
2021-08-19 13:52:45.732,-0.325,0.45
2021-08-19 13:52:45.736,-1.04,0.165
2021-08-19 13:52:45.740,-1.585,0.08
2021-08-19 13:52:45.744,-1.96,0.185
2021-08-19 13:52:45.748,-1.92,0.25
2021-08-19 13:52:45.752,-1.5,0.19
2021-08-19 13:52:45.756,-0.995,0.065
2021-08-19 13:52:45.760,-0.57,-0.055
2021-08-19 13:52:45.764,-0.32,-0.15
2021-08-19 13:52:45.768,-0.19,-0.215
2021-08-19 13:52:45.772,-0.115,-0.235
2021-08-19 13:52:45.776,-0.06,-0.235
2021-08-19 13:52:45.780,-0.045,-0.255
2021-08-19 13:52:45.784,-0.045,-0.265
2021-08-19 13:52:45.788,-0.02,-0.25
2021-08-19 13:52:45.792,0.0,-0.245
2021-08-19 13:52:45.796,0.0,-0.26
2021-08-19 13:52:45.800,0.01,-0.28
2021-08-19 13:52:45.804,-0.015,-0.295
2021-08-19 13:52:45.808,-0.005,-0.295
2021-08-19 13:52:45.812,-0.025,-0.29
2021-08-19 13:52:45.816,-0.035,-0.295
2021-08-19 13:52:45.820,-0.04,-0.285
2021-08-19 13:52:45.824,-0.025,-0.285
2021-08-19 13:52:45.828,-0.04,-0.25
2021-08-19 13:52:45.832,-0.04,-0.285
2021-08-19 13:52:45.836,0.005,-0.315
2021-08-19 13:52:45.840,0.01,-0.32
2021-08-19 13:52:45.844,0.0,-0.32
2021-08-19 13:52:45.848,0.005,-0.32
2021-08-19 13:52:45.852,-0.015,-0.3
2021-08-19 13:52:45.856,0.0,-0.295
2021-08-19 13:52:45.860,-0.03,-0.305
2021-08-19 13:52:45.864,-0.02,-0.3
2021-08-19 13:52:45.868,-0.015,-0.285
2021-08-19 13:52:45.872,-0.01,-0.29
2021-08-19 13:52:45.876,0.005,-0.295
2021-08-19 13:52:45.880,0.005,-0.285
2021-08-19 13:52:45.884,0.025,-0.28
2021-08-19 13:52:45.888,0.035,-0.26
2021-08-19 13:52:45.892,0.06,-0.27
2021-08-19 13:52:45.896,0.045,-0.27
2021-08-19 13:52:45.900,0.08,-0.275
2021-08-19 13:52:45.904,0.065,-0.245
2021-08-19 13:52:45.908,0.07,-0.235
2021-08-19 13:52:45.912,0.075,-0.24
2021-08-19 13:52:45.916,0.075,-0.255
2021-08-19 13:52:45.920,0.115,-0.255
2021-08-19 13:52:45.924,0.14,-0.255
2021-08-19 13:52:45.928,0.14,-0.26
2021-08-19 13:52:45.932,0.165,-0.265
2021-08-19 13:52:45.936,0.175,-0.25
2021-08-19 13:52:45.940,0.13,-0.25
2021-08-19 13:52:45.944,0.155,-0.27
2021-08-19 13:52:45.948,0.155,-0.23
2021-08-19 13:52:45.952,0.135,-0.235
2021-08-19 13:52:45.956,0.155,-0.215
2021-08-19 13:52:45.960,0.195,-0.185
2021-08-19 13:52:45.964,0.21,-0.155
2021-08-19 13:52:45.968,0.23,-0.14
2021-08-19 13:52:45.972,0.26,-0.12
2021-08-19 13:52:45.976,0.31,-0.08
2021-08-19 13:52:45.980,0.27,-0.05
2021-08-19 13:52:45.984,0.26,-0.04
2021-08-19 13:52:45.988,0.26,-0.03
2021-08-19 13:52:45.992,0.295,-0.025
2021-08-19 13:52:45.996,0.3,-0.01
2021-08-19 13:52:46.000,0.3,0.015
2021-08-19 13:52:46.004,0.29,-0.005
2021-08-19 13:52:46.008,0.28,-0.005
2021-08-19 13:52:46.012,0.275,-0.01
2021-08-19 13:52:46.016,0.265,-0.01
2021-08-19 13:52:46.020,0.265,-0.025
2021-08-19 13:52:46.024,0.215,-0.025
2021-08-19 13:52:46.028,0.22,-0.055
2021-08-19 13:52:46.032,0.19,-0.065
2021-08-19 13:52:46.036,0.2,-0.06
2021-08-19 13:52:46.040,0.205,-0.065
2021-08-19 13:52:46.044,0.185,-0.07
2021-08-19 13:52:46.048,0.19,-0.105
2021-08-19 13:52:46.052,0.185,-0.11
2021-08-19 13:52:46.056,0.16,-0.135
2021-08-19 13:52:46.060,0.165,-0.15
2021-08-19 13:52:46.064,0.13,-0.165
2021-08-19 13:52:46.068,0.13,-0.165
2021-08-19 13:52:46.072,0.095,-0.175
2021-08-19 13:52:46.076,0.1,-0.16
2021-08-19 13:52:46.080,0.095,-0.19
2021-08-19 13:52:46.084,0.085,-0.185
2021-08-19 13:52:46.088,0.085,-0.19
2021-08-19 13:52:46.092,0.07,-0.175
2021-08-19 13:52:46.096,0.09,-0.21
2021-08-19 13:52:46.100,0.09,-0.24
2021-08-19 13:52:46.104,0.08,-0.235
2021-08-19 13:52:46.108,0.045,-0.245
2021-08-19 13:52:46.112,0.025,-0.26
2021-08-19 13:52:46.116,0.02,-0.225
2021-08-19 13:52:46.120,0.025,-0.215
2021-08-19 13:52:46.124,0.02,-0.23
2021-08-19 13:52:46.128,0.03,-0.255
2021-08-19 13:52:46.132,0.05,-0.26
2021-08-19 13:52:46.136,0.035,-0.26
2021-08-19 13:52:46.140,0.025,-0.255
2021-08-19 13:52:46.144,0.03,-0.235
2021-08-19 13:52:46.148,0.005,-0.25
2021-08-19 13:52:46.152,-0.015,-0.255
2021-08-19 13:52:46.156,-0.01,-0.245
2021-08-19 13:52:46.160,-0.035,-0.235
2021-08-19 13:52:46.164,-0.025,-0.215
2021-08-19 13:52:46.168,-0.01,-0.235
2021-08-19 13:52:46.172,0.0,-0.235
2021-08-19 13:52:46.176,0.02,-0.22
2021-08-19 13:52:46.180,0.01,-0.235
2021-08-19 13:52:46.184,0.01,-0.235
2021-08-19 13:52:46.188,0.005,-0.24
2021-08-19 13:52:46.192,0.035,-0.245
2021-08-19 13:52:46.196,0.015,-0.24
2021-08-19 13:52:46.200,0.01,-0.255
2021-08-19 13:52:46.204,0.01,-0.26
2021-08-19 13:52:46.208,0.03,-0.235
2021-08-19 13:52:46.212,0.04,-0.245
2021-08-19 13:52:46.216,0.06,-0.24
2021-08-19 13:52:46.220,0.075,-0.24
2021-08-19 13:52:46.224,0.085,-0.205
2021-08-19 13:52:46.228,0.08,-0.195
2021-08-19 13:52:46.232,0.075,-0.195
2021-08-19 13:52:46.236,0.1,-0.18
2021-08-19 13:52:46.240,0.09,-0.175
2021-08-19 13:52:46.244,0.09,-0.18
2021-08-19 13:52:46.248,0.09,-0.14
2021-08-19 13:52:46.252,0.105,-0.135
2021-08-19 13:52:46.256,0.11,-0.115
2021-08-19 13:52:46.260,0.115,-0.095
2021-08-19 13:52:46.264,0.155,-0.09
2021-08-19 13:52:46.268,0.165,-0.1
2021-08-19 13:52:46.272,0.115,-0.13
2021-08-19 13:52:46.276,0.125,-0.145
2021-08-19 13:52:46.280,0.1,-0.145
2021-08-19 13:52:46.284,0.11,-0.145
2021-08-19 13:52:46.288,0.085,-0.13
2021-08-19 13:52:46.292,0.095,-0.13
2021-08-19 13:52:46.296,0.135,-0.135
2021-08-19 13:52:46.300,0.185,-0.15
2021-08-19 13:52:46.304,0.3,-0.115
2021-08-19 13:52:46.308,0.415,-0.02
2021-08-19 13:52:46.312,0.54,0.17
2021-08-19 13:52:46.316,0.73,0.4
2021-08-19 13:52:46.320,0.885,0.575
2021-08-19 13:52:46.324,0.62,0.63
2021-08-19 13:52:46.328,0.095,0.495
2021-08-19 13:52:46.332,-0.53,0.24
2021-08-19 13:52:46.336,-1.055,0.04
2021-08-19 13:52:46.340,-1.42,-0.105
2021-08-19 13:52:46.344,-1.64,-0.09
2021-08-19 13:52:46.348,-1.7,0.025
2021-08-19 13:52:46.352,-1.535,0.085
2021-08-19 13:52:46.356,-1.13,0.0
2021-08-19 13:52:46.360,-0.755,-0.055
2021-08-19 13:52:46.364,-0.54,-0.12
2021-08-19 13:52:46.368,-0.345,-0.155
2021-08-19 13:52:46.372,-0.225,-0.19
2021-08-19 13:52:46.376,-0.14,-0.26
2021-08-19 13:52:46.380,-0.11,-0.285
2021-08-19 13:52:46.384,-0.045,-0.26
2021-08-19 13:52:46.388,-0.04,-0.29
2021-08-19 13:52:46.392,0.0,-0.29
2021-08-19 13:52:46.396,-0.005,-0.285
2021-08-19 13:52:46.400,0.02,-0.315
2021-08-19 13:52:46.404,0.005,-0.315
2021-08-19 13:52:46.408,0.0,-0.29
2021-08-19 13:52:46.412,-0.01,-0.32
2021-08-19 13:52:46.416,-0.025,-0.32
2021-08-19 13:52:46.420,-0.015,-0.305
2021-08-19 13:52:46.424,-0.015,-0.285
2021-08-19 13:52:46.428,-0.04,-0.305
2021-08-19 13:52:46.432,0.0,-0.315
2021-08-19 13:52:46.436,0.02,-0.315
2021-08-19 13:52:46.440,0.005,-0.33
2021-08-19 13:52:46.444,0.03,-0.325
2021-08-19 13:52:46.448,0.03,-0.32
2021-08-19 13:52:46.452,0.025,-0.295
2021-08-19 13:52:46.456,0.02,-0.285
2021-08-19 13:52:46.460,0.015,-0.285
2021-08-19 13:52:46.464,0.035,-0.29
2021-08-19 13:52:46.468,0.04,-0.28
2021-08-19 13:52:46.472,0.07,-0.29
2021-08-19 13:52:46.476,0.1,-0.285
2021-08-19 13:52:46.480,0.15,-0.295
2021-08-19 13:52:46.484,0.125,-0.31
2021-08-19 13:52:46.488,0.135,-0.3
2021-08-19 13:52:46.492,0.125,-0.31
2021-08-19 13:52:46.496,0.13,-0.295
2021-08-19 13:52:46.500,0.09,-0.3
2021-08-19 13:52:46.504,0.1,-0.295
2021-08-19 13:52:46.508,0.115,-0.275
2021-08-19 13:52:46.512,0.135,-0.27
2021-08-19 13:52:46.516,0.125,-0.23
2021-08-19 13:52:46.520,0.185,-0.24
2021-08-19 13:52:46.524,0.18,-0.23
2021-08-19 13:52:46.528,0.16,-0.23
2021-08-19 13:52:46.532,0.165,-0.225
2021-08-19 13:52:46.536,0.21,-0.215
2021-08-19 13:52:46.540,0.17,-0.22
2021-08-19 13:52:46.544,0.17,-0.205
2021-08-19 13:52:46.548,0.15,-0.195
2021-08-19 13:52:46.552,0.175,-0.175
2021-08-19 13:52:46.556,0.16,-0.16
2021-08-19 13:52:46.560,0.18,-0.17
2021-08-19 13:52:46.564,0.205,-0.175
2021-08-19 13:52:46.568,0.19,-0.19
2021-08-19 13:52:46.572,0.165,-0.195
2021-08-19 13:52:46.576,0.13,-0.215
2021-08-19 13:52:46.580,0.12,-0.225
2021-08-19 13:52:46.584,0.105,-0.215
2021-08-19 13:52:46.588,0.08,-0.21
2021-08-19 13:52:46.592,0.09,-0.19
2021-08-19 13:52:46.596,0.05,-0.205
2021-08-19 13:52:46.600,0.07,-0.21
2021-08-19 13:52:46.604,0.09,-0.2
2021-08-19 13:52:46.608,0.08,-0.19
2021-08-19 13:52:46.612,0.07,-0.19
2021-08-19 13:52:46.616,0.06,-0.235
2021-08-19 13:52:46.620,0.055,-0.23
2021-08-19 13:52:46.624,0.025,-0.215
2021-08-19 13:52:46.628,0.03,-0.215
2021-08-19 13:52:46.632,0.0,-0.175
2021-08-19 13:52:46.636,0.0,-0.18
2021-08-19 13:52:46.640,0.01,-0.175
2021-08-19 13:52:46.644,0.025,-0.17
2021-08-19 13:52:46.648,0.025,-0.16
2021-08-19 13:52:46.652,0.05,-0.16
2021-08-19 13:52:46.656,0.015,-0.165
2021-08-19 13:52:46.660,0.035,-0.16
2021-08-19 13:52:46.664,0.05,-0.165
2021-08-19 13:52:46.668,0.035,-0.165
2021-08-19 13:52:46.672,0.025,-0.16
2021-08-19 13:52:46.676,0.05,-0.15
2021-08-19 13:52:46.680,0.015,-0.145
2021-08-19 13:52:46.684,0.035,-0.155
2021-08-19 13:52:46.688,0.04,-0.165
2021-08-19 13:52:46.692,0.055,-0.185
2021-08-19 13:52:46.696,0.085,-0.205
2021-08-19 13:52:46.700,0.06,-0.235
2021-08-19 13:52:46.704,0.06,-0.24
2021-08-19 13:52:46.708,0.05,-0.245
2021-08-19 13:52:46.712,0.015,-0.245
2021-08-19 13:52:46.716,0.005,-0.255
2021-08-19 13:52:46.720,0.0,-0.245
2021-08-19 13:52:46.724,0.0,-0.225
2021-08-19 13:52:46.728,0.005,-0.24
2021-08-19 13:52:46.732,0.02,-0.265
2021-08-19 13:52:46.736,0.015,-0.255
2021-08-19 13:52:46.740,0.025,-0.27
2021-08-19 13:52:46.744,0.015,-0.265
2021-08-19 13:52:46.748,0.03,-0.26
2021-08-19 13:52:46.752,0.015,-0.27
2021-08-19 13:52:46.756,0.015,-0.285
2021-08-19 13:52:46.760,0.005,-0.27
2021-08-19 13:52:46.764,0.045,-0.265
2021-08-19 13:52:46.768,0.045,-0.24
2021-08-19 13:52:46.772,0.065,-0.26
2021-08-19 13:52:46.776,0.095,-0.28
2021-08-19 13:52:46.780,0.095,-0.285
2021-08-19 13:52:46.784,0.075,-0.295
2021-08-19 13:52:46.788,0.07,-0.3
2021-08-19 13:52:46.792,0.05,-0.29
2021-08-19 13:52:46.796,0.05,-0.27
2021-08-19 13:52:46.800,0.065,-0.24
2021-08-19 13:52:46.804,0.06,-0.2
2021-08-19 13:52:46.808,0.095,-0.2
2021-08-19 13:52:46.812,0.105,-0.18
2021-08-19 13:52:46.816,0.135,-0.185
2021-08-19 13:52:46.820,0.21,-0.165
2021-08-19 13:52:46.824,0.33,-0.16
2021-08-19 13:52:46.828,0.39,-0.045
2021-08-19 13:52:46.832,0.44,0.155
2021-08-19 13:52:46.836,0.59,0.4
2021-08-19 13:52:46.840,0.635,0.5
2021-08-19 13:52:46.844,0.18,0.505
2021-08-19 13:52:46.848,-0.415,0.285
2021-08-19 13:52:46.852,-1.06,0.08
2021-08-19 13:52:46.856,-1.51,-0.03
2021-08-19 13:52:46.860,-1.785,-0.035
2021-08-19 13:52:46.864,-1.86,0.075
2021-08-19 13:52:46.868,-1.695,0.075
2021-08-19 13:52:46.872,-1.245,-0.02
2021-08-19 13:52:46.876,-0.85,-0.13
2021-08-19 13:52:46.880,-0.585,-0.21
2021-08-19 13:52:46.884,-0.38,-0.275
2021-08-19 13:52:46.888,-0.24,-0.275
2021-08-19 13:52:46.892,-0.18,-0.3
2021-08-19 13:52:46.896,-0.14,-0.31
2021-08-19 13:52:46.900,-0.09,-0.335
2021-08-19 13:52:46.904,-0.09,-0.34
2021-08-19 13:52:46.908,-0.075,-0.32
2021-08-19 13:52:46.912,-0.075,-0.32
2021-08-19 13:52:46.916,-0.08,-0.31
2021-08-19 13:52:46.920,-0.09,-0.35
2021-08-19 13:52:46.924,-0.1,-0.355
2021-08-19 13:52:46.928,-0.095,-0.355
2021-08-19 13:52:46.932,-0.085,-0.36
2021-08-19 13:52:46.936,-0.07,-0.355
2021-08-19 13:52:46.940,-0.05,-0.345
2021-08-19 13:52:46.944,-0.06,-0.335
2021-08-19 13:52:46.948,-0.05,-0.34
2021-08-19 13:52:46.952,-0.045,-0.365
2021-08-19 13:52:46.956,-0.055,-0.38
2021-08-19 13:52:46.960,-0.075,-0.375
2021-08-19 13:52:46.964,-0.07,-0.35
2021-08-19 13:52:46.968,-0.06,-0.35
2021-08-19 13:52:46.972,-0.065,-0.34
2021-08-19 13:52:46.976,-0.045,-0.34
2021-08-19 13:52:46.980,-0.035,-0.345
2021-08-19 13:52:46.984,-0.015,-0.335
2021-08-19 13:52:46.988,-0.03,-0.37
2021-08-19 13:52:46.992,-0.025,-0.38
2021-08-19 13:52:46.996,-0.015,-0.375
2021-08-19 13:52:47.000,-0.065,-0.36
2021-08-19 13:52:47.004,-0.055,-0.335
2021-08-19 13:52:47.008,-0.055,-0.31
2021-08-19 13:52:47.012,-0.04,-0.31
2021-08-19 13:52:47.016,-0.02,-0.305
2021-08-19 13:52:47.020,0.015,-0.285
2021-08-19 13:52:47.024,0.02,-0.31
2021-08-19 13:52:47.028,0.055,-0.315
2021-08-19 13:52:47.032,0.045,-0.32
2021-08-19 13:52:47.036,0.02,-0.305
2021-08-19 13:52:47.040,0.01,-0.32
2021-08-19 13:52:47.044,0.005,-0.295
2021-08-19 13:52:47.048,0.025,-0.32
2021-08-19 13:52:47.052,0.04,-0.31
2021-08-19 13:52:47.056,0.06,-0.32
2021-08-19 13:52:47.060,0.075,-0.305
2021-08-19 13:52:47.064,0.075,-0.34
2021-08-19 13:52:47.068,0.035,-0.305
2021-08-19 13:52:47.072,0.065,-0.335
2021-08-19 13:52:47.076,0.05,-0.325
2021-08-19 13:52:47.080,0.04,-0.32
2021-08-19 13:52:47.084,0.05,-0.295
2021-08-19 13:52:47.088,0.04,-0.28
2021-08-19 13:52:47.092,0.03,-0.255
2021-08-19 13:52:47.096,0.045,-0.205
2021-08-19 13:52:47.100,0.07,-0.19
2021-08-19 13:52:47.104,0.1,-0.205
2021-08-19 13:52:47.108,0.08,-0.205
2021-08-19 13:52:47.112,0.075,-0.19
2021-08-19 13:52:47.116,0.075,-0.185
2021-08-19 13:52:47.120,0.045,-0.195
2021-08-19 13:52:47.124,0.025,-0.19
2021-08-19 13:52:47.128,-0.03,-0.195
2021-08-19 13:52:47.132,-0.005,-0.175
2021-08-19 13:52:47.136,0.0,-0.165
2021-08-19 13:52:47.140,0.0,-0.135
2021-08-19 13:52:47.144,0.03,-0.14
2021-08-19 13:52:47.148,0.0,-0.155
2021-08-19 13:52:47.152,-0.02,-0.21
2021-08-19 13:52:47.156,0.0,-0.195
2021-08-19 13:52:47.160,0.01,-0.21
2021-08-19 13:52:47.164,0.0,-0.205
2021-08-19 13:52:47.168,-0.02,-0.215
2021-08-19 13:52:47.172,-0.005,-0.22
2021-08-19 13:52:47.176,0.0,-0.205
2021-08-19 13:52:47.180,-0.035,-0.22
2021-08-19 13:52:47.184,-0.025,-0.24
2021-08-19 13:52:47.188,0.0,-0.26
2021-08-19 13:52:47.192,-0.015,-0.275
2021-08-19 13:52:47.196,-0.005,-0.28
2021-08-19 13:52:47.200,-0.035,-0.285
2021-08-19 13:52:47.204,-0.055,-0.31
2021-08-19 13:52:47.208,-0.07,-0.29
2021-08-19 13:52:47.212,-0.065,-0.28
2021-08-19 13:52:47.216,-0.075,-0.27
2021-08-19 13:52:47.220,-0.06,-0.28
2021-08-19 13:52:47.224,-0.055,-0.27
2021-08-19 13:52:47.228,-0.035,-0.27
2021-08-19 13:52:47.232,-0.05,-0.28
2021-08-19 13:52:47.236,-0.045,-0.295
2021-08-19 13:52:47.240,-0.07,-0.315
2021-08-19 13:52:47.244,-0.08,-0.305
2021-08-19 13:52:47.248,-0.08,-0.31
2021-08-19 13:52:47.252,-0.055,-0.3
2021-08-19 13:52:47.256,-0.07,-0.295
2021-08-19 13:52:47.260,-0.06,-0.305
2021-08-19 13:52:47.264,-0.06,-0.305
2021-08-19 13:52:47.268,-0.055,-0.295
2021-08-19 13:52:47.272,-0.035,-0.295
2021-08-19 13:52:47.276,-0.05,-0.31
2021-08-19 13:52:47.280,-0.075,-0.295
2021-08-19 13:52:47.284,-0.075,-0.275
2021-08-19 13:52:47.288,-0.095,-0.28
2021-08-19 13:52:47.292,-0.085,-0.29
2021-08-19 13:52:47.296,-0.085,-0.27
2021-08-19 13:52:47.300,-0.075,-0.265
2021-08-19 13:52:47.304,-0.07,-0.245
2021-08-19 13:52:47.308,-0.03,-0.245
2021-08-19 13:52:47.312,-0.03,-0.225
2021-08-19 13:52:47.316,-0.015,-0.22
2021-08-19 13:52:47.320,0.0,-0.22
2021-08-19 13:52:47.324,-0.015,-0.22
2021-08-19 13:52:47.328,-0.02,-0.215
2021-08-19 13:52:47.332,-0.015,-0.24
2021-08-19 13:52:47.336,-0.01,-0.22
2021-08-19 13:52:47.340,0.0,-0.195
2021-08-19 13:52:47.344,0.025,-0.195
2021-08-19 13:52:47.348,0.07,-0.2
2021-08-19 13:52:47.352,0.065,-0.215
2021-08-19 13:52:47.356,0.095,-0.21
2021-08-19 13:52:47.360,0.1,-0.24
2021-08-19 13:52:47.364,0.09,-0.23
2021-08-19 13:52:47.368,0.09,-0.25
2021-08-19 13:52:47.372,0.14,-0.25
2021-08-19 13:52:47.376,0.205,-0.19
2021-08-19 13:52:47.380,0.285,-0.02
2021-08-19 13:52:47.384,0.4,0.2
2021-08-19 13:52:47.388,0.625,0.455
2021-08-19 13:52:47.392,0.75,0.625
2021-08-19 13:52:47.396,0.405,0.58
2021-08-19 13:52:47.400,-0.165,0.375
2021-08-19 13:52:47.404,-0.79,0.14
2021-08-19 13:52:47.408,-1.28,-0.03
2021-08-19 13:52:47.412,-1.525,-0.03
2021-08-19 13:52:47.416,-1.6,0.095
2021-08-19 13:52:47.420,-1.485,0.09
2021-08-19 13:52:47.424,-1.055,0.02
2021-08-19 13:52:47.428,-0.75,-0.09
2021-08-19 13:52:47.432,-0.505,-0.17
2021-08-19 13:52:47.436,-0.33,-0.23
2021-08-19 13:52:47.440,-0.215,-0.285
2021-08-19 13:52:47.444,-0.14,-0.285
2021-08-19 13:52:47.448,-0.14,-0.305
2021-08-19 13:52:47.452,-0.12,-0.32
2021-08-19 13:52:47.456,-0.115,-0.315
2021-08-19 13:52:47.460,-0.11,-0.3
2021-08-19 13:52:47.464,-0.09,-0.305
2021-08-19 13:52:47.468,-0.085,-0.295
2021-08-19 13:52:47.472,-0.07,-0.32
2021-08-19 13:52:47.476,-0.055,-0.335
2021-08-19 13:52:47.480,-0.055,-0.35
2021-08-19 13:52:47.484,-0.06,-0.335
2021-08-19 13:52:47.488,-0.08,-0.35
2021-08-19 13:52:47.492,-0.075,-0.34
2021-08-19 13:52:47.496,-0.09,-0.33
2021-08-19 13:52:47.500,-0.07,-0.32
2021-08-19 13:52:47.504,-0.08,-0.295
2021-08-19 13:52:47.508,-0.09,-0.32
2021-08-19 13:52:47.512,-0.05,-0.32
2021-08-19 13:52:47.516,-0.035,-0.3
2021-08-19 13:52:47.520,-0.045,-0.315
2021-08-19 13:52:47.524,-0.04,-0.33
2021-08-19 13:52:47.528,-0.05,-0.335
2021-08-19 13:52:47.532,-0.05,-0.34
2021-08-19 13:52:47.536,-0.07,-0.355
2021-08-19 13:52:47.540,-0.055,-0.34
2021-08-19 13:52:47.544,-0.05,-0.315
2021-08-19 13:52:47.548,-0.03,-0.285
2021-08-19 13:52:47.552,-0.01,-0.275
2021-08-19 13:52:47.556,0.01,-0.285
2021-08-19 13:52:47.560,0.015,-0.285
2021-08-19 13:52:47.564,0.015,-0.285
2021-08-19 13:52:47.568,0.015,-0.3
2021-08-19 13:52:47.572,0.01,-0.285
2021-08-19 13:52:47.576,-0.01,-0.31
2021-08-19 13:52:47.580,0.0,-0.28
2021-08-19 13:52:47.584,0.01,-0.25
2021-08-19 13:52:47.588,0.03,-0.24
2021-08-19 13:52:47.592,0.015,-0.235
2021-08-19 13:52:47.596,0.045,-0.23
2021-08-19 13:52:47.600,0.06,-0.225
2021-08-19 13:52:47.604,0.055,-0.25
2021-08-19 13:52:47.608,0.05,-0.24
2021-08-19 13:52:47.612,0.015,-0.265
2021-08-19 13:52:47.616,0.025,-0.275
2021-08-19 13:52:47.620,0.0,-0.255
2021-08-19 13:52:47.624,0.01,-0.23
2021-08-19 13:52:47.628,0.05,-0.21
2021-08-19 13:52:47.632,0.07,-0.165
2021-08-19 13:52:47.636,0.075,-0.165
2021-08-19 13:52:47.640,0.08,-0.185
2021-08-19 13:52:47.644,0.08,-0.175
2021-08-19 13:52:47.648,0.035,-0.15
2021-08-19 13:52:47.652,0.03,-0.16
2021-08-19 13:52:47.656,-0.005,-0.145
2021-08-19 13:52:47.660,0.0,-0.145
2021-08-19 13:52:47.664,0.01,-0.135
2021-08-19 13:52:47.668,0.005,-0.13
2021-08-19 13:52:47.672,0.01,-0.115
2021-08-19 13:52:47.676,0.015,-0.125
2021-08-19 13:52:47.680,-0.005,-0.12
2021-08-19 13:52:47.684,0.005,-0.115
2021-08-19 13:52:47.688,-0.02,-0.095
2021-08-19 13:52:47.692,-0.055,-0.105
2021-08-19 13:52:47.696,-0.035,-0.135
2021-08-19 13:52:47.700,-0.03,-0.115
2021-08-19 13:52:47.704,-0.025,-0.13
2021-08-19 13:52:47.708,0.0,-0.105
2021-08-19 13:52:47.712,0.03,-0.095
2021-08-19 13:52:47.716,0.025,-0.105
2021-08-19 13:52:47.720,0.025,-0.115
2021-08-19 13:52:47.724,0.045,-0.145
2021-08-19 13:52:47.728,0.055,-0.14
2021-08-19 13:52:47.732,0.03,-0.17
2021-08-19 13:52:47.736,0.03,-0.165
2021-08-19 13:52:47.740,0.05,-0.175
2021-08-19 13:52:47.744,0.03,-0.175
2021-08-19 13:52:47.748,0.03,-0.18
2021-08-19 13:52:47.752,0.065,-0.165
2021-08-19 13:52:47.756,0.075,-0.17
2021-08-19 13:52:47.760,0.055,-0.19
2021-08-19 13:52:47.764,0.055,-0.19
2021-08-19 13:52:47.768,0.045,-0.2
2021-08-19 13:52:47.772,0.03,-0.18
2021-08-19 13:52:47.776,0.005,-0.205
2021-08-19 13:52:47.780,0.01,-0.22
2021-08-19 13:52:47.784,0.0,-0.24
2021-08-19 13:52:47.788,0.02,-0.215
2021-08-19 13:52:47.792,0.0,-0.225
2021-08-19 13:52:47.796,0.04,-0.225
2021-08-19 13:52:47.800,0.04,-0.225
2021-08-19 13:52:47.804,0.03,-0.23
2021-08-19 13:52:47.808,0.025,-0.24
2021-08-19 13:52:47.812,0.015,-0.235
2021-08-19 13:52:47.816,0.03,-0.25
2021-08-19 13:52:47.820,0.0,-0.23
2021-08-19 13:52:47.824,0.015,-0.19
2021-08-19 13:52:47.828,0.04,-0.185
2021-08-19 13:52:47.832,0.045,-0.19
2021-08-19 13:52:47.836,0.06,-0.21
2021-08-19 13:52:47.840,0.08,-0.215
2021-08-19 13:52:47.844,0.055,-0.23
2021-08-19 13:52:47.848,0.03,-0.225
2021-08-19 13:52:47.852,0.035,-0.22
2021-08-19 13:52:47.856,0.025,-0.215
2021-08-19 13:52:47.860,0.045,-0.21
2021-08-19 13:52:47.864,0.045,-0.225
2021-08-19 13:52:47.868,0.035,-0.19
2021-08-19 13:52:47.872,0.07,-0.21
2021-08-19 13:52:47.876,0.09,-0.19
2021-08-19 13:52:47.880,0.105,-0.18
2021-08-19 13:52:47.884,0.1,-0.2
2021-08-19 13:52:47.888,0.105,-0.205
2021-08-19 13:52:47.892,0.09,-0.19
2021-08-19 13:52:47.896,0.065,-0.2
2021-08-19 13:52:47.900,0.08,-0.215
2021-08-19 13:52:47.904,0.095,-0.175
2021-08-19 13:52:47.908,0.075,-0.175
2021-08-19 13:52:47.912,0.09,-0.155
2021-08-19 13:52:47.916,0.095,-0.145
2021-08-19 13:52:47.920,0.075,-0.165
2021-08-19 13:52:47.924,0.055,-0.175
2021-08-19 13:52:47.928,0.045,-0.22
2021-08-19 13:52:47.932,0.025,-0.195
2021-08-19 13:52:47.936,-0.005,-0.16
2021-08-19 13:52:47.940,-0.015,-0.195
2021-08-19 13:52:47.944,-0.045,-0.205
2021-08-19 13:52:47.948,-0.035,-0.23
2021-08-19 13:52:47.952,-0.03,-0.24
2021-08-19 13:52:47.956,-0.03,-0.25
2021-08-19 13:52:47.960,-0.035,-0.255
2021-08-19 13:52:47.964,-0.06,-0.275
2021-08-19 13:52:47.968,-0.055,-0.29
2021-08-19 13:52:47.972,-0.08,-0.29
2021-08-19 13:52:47.976,-0.105,-0.28
2021-08-19 13:52:47.980,-0.105,-0.28
2021-08-19 13:52:47.984,-0.09,-0.28
2021-08-19 13:52:47.988,-0.095,-0.28
2021-08-19 13:52:47.992,-0.085,-0.285
2021-08-19 13:52:47.996,-0.09,-0.275
2021-08-19 13:52:48.000,-0.1,-0.295
2021-08-19 13:52:48.004,-0.105,-0.31
2021-08-19 13:52:48.008,-0.085,-0.305
2021-08-19 13:52:48.012,-0.1,-0.315
2021-08-19 13:52:48.016,-0.11,-0.3
2021-08-19 13:52:48.020,-0.11,-0.3
2021-08-19 13:52:48.024,-0.125,-0.305
2021-08-19 13:52:48.028,-0.125,-0.285
2021-08-19 13:52:48.032,-0.105,-0.3
2021-08-19 13:52:48.036,-0.095,-0.305
2021-08-19 13:52:48.040,-0.1,-0.31
2021-08-19 13:52:48.044,-0.095,-0.32
2021-08-19 13:52:48.048,-0.095,-0.315
2021-08-19 13:52:48.052,-0.11,-0.295
2021-08-19 13:52:48.056,-0.12,-0.3
2021-08-19 13:52:48.060,-0.1,-0.29
2021-08-19 13:52:48.064,-0.09,-0.27
2021-08-19 13:52:48.068,-0.085,-0.26
2021-08-19 13:52:48.072,-0.065,-0.24
2021-08-19 13:52:48.076,-0.06,-0.23
2021-08-19 13:52:48.080,-0.005,-0.23
2021-08-19 13:52:48.084,0.06,-0.275
2021-08-19 13:52:48.088,0.18,-0.27
2021-08-19 13:52:48.092,0.32,-0.145
2021-08-19 13:52:48.096,0.375,0.035
2021-08-19 13:52:48.100,0.54,0.255
2021-08-19 13:52:48.104,0.695,0.485
2021-08-19 13:52:48.108,0.475,0.515
2021-08-19 13:52:48.112,-0.005,0.35
2021-08-19 13:52:48.116,-0.64,0.15
2021-08-19 13:52:48.120,-1.195,-0.045
2021-08-19 13:52:48.124,-1.465,-0.135
2021-08-19 13:52:48.128,-1.6,-0.015
2021-08-19 13:52:48.132,-1.53,0.08
2021-08-19 13:52:48.136,-1.2,0.06
2021-08-19 13:52:48.140,-0.81,0.015
2021-08-19 13:52:48.144,-0.52,-0.045
2021-08-19 13:52:48.148,-0.285,-0.09
2021-08-19 13:52:48.152,-0.115,-0.14
2021-08-19 13:52:48.156,-0.015,-0.16
2021-08-19 13:52:48.160,0.095,-0.185
2021-08-19 13:52:48.164,0.115,-0.18
2021-08-19 13:52:48.168,0.075,-0.18
2021-08-19 13:52:48.172,0.1,-0.175
2021-08-19 13:52:48.176,0.085,-0.17
2021-08-19 13:52:48.180,0.095,-0.155
2021-08-19 13:52:48.184,0.09,-0.14
2021-08-19 13:52:48.188,0.085,-0.15
2021-08-19 13:52:48.192,0.095,-0.13
2021-08-19 13:52:48.196,0.105,-0.11
2021-08-19 13:52:48.200,0.11,-0.145
2021-08-19 13:52:48.204,0.1,-0.16
2021-08-19 13:52:48.208,0.085,-0.18
2021-08-19 13:52:48.212,0.05,-0.18
2021-08-19 13:52:48.216,0.05,-0.19
2021-08-19 13:52:48.220,0.03,-0.205
2021-08-19 13:52:48.224,0.05,-0.21
2021-08-19 13:52:48.228,0.045,-0.22
2021-08-19 13:52:48.232,0.05,-0.205
2021-08-19 13:52:48.236,0.07,-0.23
2021-08-19 13:52:48.240,0.08,-0.235
2021-08-19 13:52:48.244,0.06,-0.245
2021-08-19 13:52:48.248,0.07,-0.245
2021-08-19 13:52:48.252,0.04,-0.25
2021-08-19 13:52:48.256,0.045,-0.25
2021-08-19 13:52:48.260,0.025,-0.25
2021-08-19 13:52:48.264,0.03,-0.25
2021-08-19 13:52:48.268,0.04,-0.235
2021-08-19 13:52:48.272,0.06,-0.215
2021-08-19 13:52:48.276,0.045,-0.225
2021-08-19 13:52:48.280,0.06,-0.215
2021-08-19 13:52:48.284,0.06,-0.225
2021-08-19 13:52:48.288,0.035,-0.245
2021-08-19 13:52:48.292,0.015,-0.235
2021-08-19 13:52:48.296,0.035,-0.26
2021-08-19 13:52:48.300,0.04,-0.24
2021-08-19 13:52:48.304,0.035,-0.205
2021-08-19 13:52:48.308,0.04,-0.235
2021-08-19 13:52:48.312,0.035,-0.245
2021-08-19 13:52:48.316,0.04,-0.205
2021-08-19 13:52:48.320,0.065,-0.24
2021-08-19 13:52:48.324,0.04,-0.24
2021-08-19 13:52:48.328,0.025,-0.24
2021-08-19 13:52:48.332,0.01,-0.225
2021-08-19 13:52:48.336,0.025,-0.2
2021-08-19 13:52:48.340,0.02,-0.215
2021-08-19 13:52:48.344,0.01,-0.19
2021-08-19 13:52:48.348,0.015,-0.18
2021-08-19 13:52:48.352,0.04,-0.17
2021-08-19 13:52:48.356,0.05,-0.16
2021-08-19 13:52:48.360,0.06,-0.15
2021-08-19 13:52:48.364,0.055,-0.14
2021-08-19 13:52:48.368,0.035,-0.125
2021-08-19 13:52:48.372,0.04,-0.12
2021-08-19 13:52:48.376,0.015,-0.11
2021-08-19 13:52:48.380,0.025,-0.13
2021-08-19 13:52:48.384,0.035,-0.09
2021-08-19 13:52:48.388,0.055,-0.085
2021-08-19 13:52:48.392,0.08,-0.075
2021-08-19 13:52:48.396,0.11,-0.065
2021-08-19 13:52:48.400,0.105,-0.055
2021-08-19 13:52:48.404,0.14,-0.065
2021-08-19 13:52:48.408,0.135,-0.065
2021-08-19 13:52:48.412,0.14,-0.06
2021-08-19 13:52:48.416,0.12,-0.085
2021-08-19 13:52:48.420,0.12,-0.07
2021-08-19 13:52:48.424,0.16,-0.015
2021-08-19 13:52:48.428,0.155,-0.005
2021-08-19 13:52:48.432,0.2,0.02
2021-08-19 13:52:48.436,0.21,0.02
2021-08-19 13:52:48.440,0.235,0.025
2021-08-19 13:52:48.444,0.24,0.025
2021-08-19 13:52:48.448,0.235,0.0
2021-08-19 13:52:48.452,0.205,0.005
2021-08-19 13:52:48.456,0.19,-0.01
2021-08-19 13:52:48.460,0.155,-0.02
2021-08-19 13:52:48.464,0.185,-0.005
2021-08-19 13:52:48.468,0.17,-0.01
2021-08-19 13:52:48.472,0.165,-0.015
2021-08-19 13:52:48.476,0.175,-0.035
2021-08-19 13:52:48.480,0.175,-0.045
2021-08-19 13:52:48.484,0.16,-0.07
2021-08-19 13:52:48.488,0.125,-0.085
2021-08-19 13:52:48.492,0.11,-0.12
2021-08-19 13:52:48.496,0.09,-0.1
2021-08-19 13:52:48.500,0.095,-0.09
2021-08-19 13:52:48.504,0.09,-0.105
2021-08-19 13:52:48.508,0.095,-0.12
2021-08-19 13:52:48.512,0.1,-0.105
2021-08-19 13:52:48.516,0.11,-0.145
2021-08-19 13:52:48.520,0.1,-0.14
2021-08-19 13:52:48.524,0.115,-0.14
2021-08-19 13:52:48.528,0.1,-0.155
2021-08-19 13:52:48.532,0.09,-0.155
2021-08-19 13:52:48.536,0.055,-0.165
2021-08-19 13:52:48.540,0.055,-0.175
2021-08-19 13:52:48.544,0.055,-0.175
2021-08-19 13:52:48.548,0.055,-0.19
2021-08-19 13:52:48.552,0.075,-0.19
2021-08-19 13:52:48.556,0.06,-0.18
2021-08-19 13:52:48.560,0.055,-0.2
2021-08-19 13:52:48.564,0.06,-0.175
2021-08-19 13:52:48.568,0.08,-0.205
2021-08-19 13:52:48.572,0.13,-0.23
2021-08-19 13:52:48.576,0.285,-0.165
2021-08-19 13:52:48.580,0.465,0.01
2021-08-19 13:52:48.584,0.53,0.28
2021-08-19 13:52:48.588,0.195,0.54
2021-08-19 13:52:48.592,-0.365,0.64
2021-08-19 13:52:48.596,-1.025,0.5
2021-08-19 13:52:48.600,-1.54,0.275
2021-08-19 13:52:48.604,-1.765,0.1
2021-08-19 13:52:48.608,-1.915,0.09
2021-08-19 13:52:48.612,-1.97,0.13
2021-08-19 13:52:48.616,-1.75,0.205
2021-08-19 13:52:48.620,-1.29,0.14
2021-08-19 13:52:48.624,-0.8,0.04
2021-08-19 13:52:48.628,-0.51,-0.05
2021-08-19 13:52:48.632,-0.3,-0.105
2021-08-19 13:52:48.636,-0.16,-0.13
2021-08-19 13:52:48.640,-0.05,-0.155
2021-08-19 13:52:48.644,0.02,-0.165
2021-08-19 13:52:48.648,0.055,-0.165
2021-08-19 13:52:48.652,0.055,-0.15
2021-08-19 13:52:48.656,0.075,-0.135
2021-08-19 13:52:48.660,0.07,-0.135
2021-08-19 13:52:48.664,0.095,-0.125
2021-08-19 13:52:48.668,0.13,-0.15
2021-08-19 13:52:48.672,0.145,-0.15
2021-08-19 13:52:48.676,0.165,-0.165
2021-08-19 13:52:48.680,0.165,-0.16
2021-08-19 13:52:48.684,0.175,-0.185
2021-08-19 13:52:48.688,0.165,-0.17
2021-08-19 13:52:48.692,0.16,-0.18
2021-08-19 13:52:48.696,0.155,-0.16
2021-08-19 13:52:48.700,0.13,-0.145
2021-08-19 13:52:48.704,0.145,-0.135
2021-08-19 13:52:48.708,0.155,-0.155
2021-08-19 13:52:48.712,0.155,-0.155
2021-08-19 13:52:48.716,0.175,-0.15
2021-08-19 13:52:48.720,0.18,-0.145
2021-08-19 13:52:48.724,0.175,-0.14
2021-08-19 13:52:48.728,0.16,-0.155
2021-08-19 13:52:48.732,0.135,-0.16
2021-08-19 13:52:48.736,0.14,-0.19
2021-08-19 13:52:48.740,0.135,-0.185
2021-08-19 13:52:48.744,0.105,-0.2
2021-08-19 13:52:48.748,0.11,-0.205
2021-08-19 13:52:48.752,0.12,-0.2
2021-08-19 13:52:48.756,0.13,-0.2
2021-08-19 13:52:48.760,0.135,-0.215
2021-08-19 13:52:48.764,0.125,-0.2
2021-08-19 13:52:48.768,0.13,-0.245
2021-08-19 13:52:48.772,0.105,-0.255
2021-08-19 13:52:48.776,0.095,-0.26
2021-08-19 13:52:48.780,0.085,-0.265
2021-08-19 13:52:48.784,0.09,-0.265
2021-08-19 13:52:48.788,0.095,-0.25
2021-08-19 13:52:48.792,0.1,-0.23
2021-08-19 13:52:48.796,0.105,-0.205
2021-08-19 13:52:48.800,0.12,-0.23
2021-08-19 13:52:48.804,0.125,-0.245
2021-08-19 13:52:48.808,0.12,-0.285
2021-08-19 13:52:48.812,0.095,-0.27
2021-08-19 13:52:48.816,0.09,-0.28
2021-08-19 13:52:48.820,0.08,-0.28
2021-08-19 13:52:48.824,0.085,-0.275
2021-08-19 13:52:48.828,0.085,-0.265
2021-08-19 13:52:48.832,0.1,-0.26
2021-08-19 13:52:48.836,0.115,-0.25
2021-08-19 13:52:48.840,0.115,-0.285
2021-08-19 13:52:48.844,0.11,-0.265
2021-08-19 13:52:48.848,0.125,-0.27
2021-08-19 13:52:48.852,0.135,-0.26
2021-08-19 13:52:48.856,0.1,-0.26
2021-08-19 13:52:48.860,0.09,-0.24
2021-08-19 13:52:48.864,0.075,-0.23
2021-08-19 13:52:48.868,0.1,-0.22
2021-08-19 13:52:48.872,0.115,-0.21
2021-08-19 13:52:48.876,0.12,-0.195
2021-08-19 13:52:48.880,0.13,-0.185
2021-08-19 13:52:48.884,0.125,-0.185
2021-08-19 13:52:48.888,0.12,-0.195
2021-08-19 13:52:48.892,0.12,-0.215
2021-08-19 13:52:48.896,0.09,-0.18
2021-08-19 13:52:48.900,0.105,-0.17
2021-08-19 13:52:48.904,0.115,-0.155
2021-08-19 13:52:48.908,0.115,-0.145
2021-08-19 13:52:48.912,0.11,-0.14
2021-08-19 13:52:48.916,0.16,-0.135
2021-08-19 13:52:48.920,0.155,-0.145
2021-08-19 13:52:48.924,0.17,-0.145
2021-08-19 13:52:48.928,0.15,-0.14
2021-08-19 13:52:48.932,0.16,-0.135
2021-08-19 13:52:48.936,0.14,-0.13
2021-08-19 13:52:48.940,0.16,-0.145
2021-08-19 13:52:48.944,0.14,-0.135
2021-08-19 13:52:48.948,0.15,-0.13
2021-08-19 13:52:48.952,0.18,-0.145
2021-08-19 13:52:48.956,0.175,-0.15
2021-08-19 13:52:48.960,0.19,-0.145
2021-08-19 13:52:48.964,0.185,-0.14
2021-08-19 13:52:48.968,0.185,-0.16
2021-08-19 13:52:48.972,0.18,-0.165
2021-08-19 13:52:48.976,0.165,-0.16
2021-08-19 13:52:48.980,0.18,-0.115
2021-08-19 13:52:48.984,0.14,-0.06
2021-08-19 13:52:48.988,0.19,-0.03
2021-08-19 13:52:48.992,0.2,-0.015
2021-08-19 13:52:48.996,0.21,-0.015
2021-08-19 13:52:49.000,0.235,-0.015
2021-08-19 13:52:49.004,0.255,0.0
2021-08-19 13:52:49.008,0.315,0.035
2021-08-19 13:52:49.012,0.435,0.145
2021-08-19 13:52:49.016,0.64,0.355
2021-08-19 13:52:49.020,0.9,0.57
2021-08-19 13:52:49.024,0.915,0.725
2021-08-19 13:52:49.028,0.39,0.745
2021-08-19 13:52:49.032,-0.36,0.495
2021-08-19 13:52:49.036,-0.99,0.185
2021-08-19 13:52:49.040,-1.38,0.0
2021-08-19 13:52:49.044,-1.64,0.015
2021-08-19 13:52:49.048,-1.755,0.095
2021-08-19 13:52:49.052,-1.565,0.125
2021-08-19 13:52:49.056,-1.175,0.065
2021-08-19 13:52:49.060,-0.8,-0.03
2021-08-19 13:52:49.064,-0.555,-0.125
2021-08-19 13:52:49.068,-0.375,-0.185
2021-08-19 13:52:49.072,-0.25,-0.22
2021-08-19 13:52:49.076,-0.14,-0.23
2021-08-19 13:52:49.080,-0.095,-0.245
2021-08-19 13:52:49.084,-0.06,-0.265
2021-08-19 13:52:49.088,-0.05,-0.3
2021-08-19 13:52:49.092,-0.07,-0.305
2021-08-19 13:52:49.096,-0.065,-0.29
2021-08-19 13:52:49.100,-0.065,-0.305
2021-08-19 13:52:49.104,-0.05,-0.295
2021-08-19 13:52:49.108,-0.055,-0.295
2021-08-19 13:52:49.112,-0.035,-0.28
2021-08-19 13:52:49.116,-0.035,-0.295
2021-08-19 13:52:49.120,-0.03,-0.29
2021-08-19 13:52:49.124,-0.01,-0.315
2021-08-19 13:52:49.128,-0.005,-0.295
2021-08-19 13:52:49.132,-0.015,-0.315
2021-08-19 13:52:49.136,-0.04,-0.3
2021-08-19 13:52:49.140,-0.045,-0.295
2021-08-19 13:52:49.144,-0.045,-0.29
2021-08-19 13:52:49.148,-0.055,-0.285
2021-08-19 13:52:49.152,-0.015,-0.29
2021-08-19 13:52:49.156,-0.025,-0.275
2021-08-19 13:52:49.160,-0.01,-0.285
2021-08-19 13:52:49.164,0.01,-0.295
2021-08-19 13:52:49.168,0.015,-0.3
2021-08-19 13:52:49.172,0.015,-0.295
2021-08-19 13:52:49.176,0.0,-0.265
2021-08-19 13:52:49.180,-0.02,-0.255
2021-08-19 13:52:49.184,0.02,-0.245
2021-08-19 13:52:49.188,0.025,-0.23
2021-08-19 13:52:49.192,0.055,-0.22
2021-08-19 13:52:49.196,0.065,-0.225
2021-08-19 13:52:49.200,0.08,-0.2
2021-08-19 13:52:49.204,0.1,-0.22
2021-08-19 13:52:49.208,0.095,-0.195
2021-08-19 13:52:49.212,0.105,-0.195
2021-08-19 13:52:49.216,0.11,-0.185
2021-08-19 13:52:49.220,0.105,-0.19
2021-08-19 13:52:49.224,0.085,-0.17
2021-08-19 13:52:49.228,0.115,-0.165
2021-08-19 13:52:49.232,0.15,-0.155
2021-08-19 13:52:49.236,0.17,-0.15
2021-08-19 13:52:49.240,0.195,-0.17
2021-08-19 13:52:49.244,0.2,-0.19
2021-08-19 13:52:49.248,0.19,-0.19
2021-08-19 13:52:49.252,0.22,-0.185
2021-08-19 13:52:49.256,0.19,-0.195
2021-08-19 13:52:49.260,0.195,-0.195
2021-08-19 13:52:49.264,0.19,-0.175
2021-08-19 13:52:49.268,0.17,-0.15
2021-08-19 13:52:49.272,0.17,-0.11
2021-08-19 13:52:49.276,0.185,-0.08
2021-08-19 13:52:49.280,0.175,-0.08
2021-08-19 13:52:49.284,0.195,-0.075
2021-08-19 13:52:49.288,0.2,-0.09
2021-08-19 13:52:49.292,0.18,-0.1
2021-08-19 13:52:49.296,0.175,-0.095
2021-08-19 13:52:49.300,0.15,-0.055
2021-08-19 13:52:49.304,0.14,-0.055
2021-08-19 13:52:49.308,0.13,-0.05
2021-08-19 13:52:49.312,0.125,-0.03
2021-08-19 13:52:49.316,0.115,-0.04
2021-08-19 13:52:49.320,0.145,-0.04
2021-08-19 13:52:49.324,0.16,-0.06
2021-08-19 13:52:49.328,0.16,-0.06
2021-08-19 13:52:49.332,0.15,-0.085
2021-08-19 13:52:49.336,0.16,-0.09
2021-08-19 13:52:49.340,0.135,-0.08
2021-08-19 13:52:49.344,0.125,-0.075
2021-08-19 13:52:49.348,0.14,-0.09
2021-08-19 13:52:49.352,0.125,-0.09
2021-08-19 13:52:49.356,0.13,-0.105
2021-08-19 13:52:49.360,0.135,-0.11
2021-08-19 13:52:49.364,0.155,-0.135
2021-08-19 13:52:49.368,0.14,-0.14
2021-08-19 13:52:49.372,0.12,-0.155
2021-08-19 13:52:49.376,0.115,-0.145
2021-08-19 13:52:49.380,0.09,-0.17
2021-08-19 13:52:49.384,0.07,-0.17
2021-08-19 13:52:49.388,0.06,-0.18
2021-08-19 13:52:49.392,0.035,-0.16
2021-08-19 13:52:49.396,0.03,-0.155
2021-08-19 13:52:49.400,0.03,-0.15
2021-08-19 13:52:49.404,0.035,-0.14
2021-08-19 13:52:49.408,0.035,-0.14
2021-08-19 13:52:49.412,0.015,-0.165
2021-08-19 13:52:49.416,0.04,-0.195
2021-08-19 13:52:49.420,0.02,-0.22
2021-08-19 13:52:49.424,0.005,-0.225
2021-08-19 13:52:49.428,-0.005,-0.2
2021-08-19 13:52:49.432,-0.015,-0.21
2021-08-19 13:52:49.436,-0.01,-0.215
2021-08-19 13:52:49.440,-0.035,-0.22
2021-08-19 13:52:49.444,0.0,-0.215
2021-08-19 13:52:49.448,0.015,-0.205
2021-08-19 13:52:49.452,0.015,-0.205
2021-08-19 13:52:49.456,0.0,-0.225
2021-08-19 13:52:49.460,0.0,-0.235
2021-08-19 13:52:49.464,-0.035,-0.24
2021-08-19 13:52:49.468,-0.03,-0.215
2021-08-19 13:52:49.472,-0.045,-0.21
2021-08-19 13:52:49.476,-0.055,-0.18
2021-08-19 13:52:49.480,-0.045,-0.155
2021-08-19 13:52:49.484,-0.035,-0.15
2021-08-19 13:52:49.488,0.0,-0.14
2021-08-19 13:52:49.492,0.015,-0.16
2021-08-19 13:52:49.496,0.02,-0.16
2021-08-19 13:52:49.500,0.03,-0.145
2021-08-19 13:52:49.504,0.0,-0.15
2021-08-19 13:52:49.508,0.02,-0.145
2021-08-19 13:52:49.512,0.0,-0.135
2021-08-19 13:52:49.516,0.025,-0.12
2021-08-19 13:52:49.520,0.025,-0.1
2021-08-19 13:52:49.524,0.045,-0.075
2021-08-19 13:52:49.528,0.075,-0.065
2021-08-19 13:52:49.532,0.085,-0.055
2021-08-19 13:52:49.536,0.135,-0.065
2021-08-19 13:52:49.540,0.145,-0.07
2021-08-19 13:52:49.544,0.18,-0.06
2021-08-19 13:52:49.548,0.19,-0.08
2021-08-19 13:52:49.552,0.265,-0.08
2021-08-19 13:52:49.556,0.36,0.01
2021-08-19 13:52:49.560,0.45,0.175
2021-08-19 13:52:49.564,0.6,0.41
2021-08-19 13:52:49.568,0.84,0.635
2021-08-19 13:52:49.572,0.79,0.755
2021-08-19 13:52:49.576,0.34,0.655
2021-08-19 13:52:49.580,-0.23,0.41
2021-08-19 13:52:49.584,-0.77,0.2
2021-08-19 13:52:49.588,-1.245,0.075
2021-08-19 13:52:49.592,-1.51,0.11
2021-08-19 13:52:49.596,-1.62,0.185
2021-08-19 13:52:49.600,-1.465,0.18
2021-08-19 13:52:49.604,-1.04,0.125
2021-08-19 13:52:49.608,-0.695,0.02
2021-08-19 13:52:49.612,-0.44,-0.035
2021-08-19 13:52:49.616,-0.3,-0.09
2021-08-19 13:52:49.620,-0.17,-0.125
2021-08-19 13:52:49.624,-0.105,-0.115
2021-08-19 13:52:49.628,-0.08,-0.155
2021-08-19 13:52:49.632,-0.085,-0.165
2021-08-19 13:52:49.636,-0.085,-0.16
2021-08-19 13:52:49.640,-0.06,-0.16
2021-08-19 13:52:49.644,-0.055,-0.15
2021-08-19 13:52:49.648,-0.065,-0.145
2021-08-19 13:52:49.652,-0.05,-0.16
2021-08-19 13:52:49.656,-0.025,-0.19
2021-08-19 13:52:49.660,-0.02,-0.18
2021-08-19 13:52:49.664,-0.035,-0.18
2021-08-19 13:52:49.668,-0.05,-0.205
2021-08-19 13:52:49.672,-0.05,-0.195
2021-08-19 13:52:49.676,-0.06,-0.2
2021-08-19 13:52:49.680,-0.055,-0.205
2021-08-19 13:52:49.684,-0.05,-0.185
2021-08-19 13:52:49.688,-0.04,-0.175
2021-08-19 13:52:49.692,-0.03,-0.185
2021-08-19 13:52:49.696,-0.005,-0.16
2021-08-19 13:52:49.700,0.0,-0.19
2021-08-19 13:52:49.704,-0.005,-0.215
2021-08-19 13:52:49.708,-0.01,-0.22
2021-08-19 13:52:49.712,-0.02,-0.2
2021-08-19 13:52:49.716,-0.03,-0.21
2021-08-19 13:52:49.720,-0.03,-0.21
2021-08-19 13:52:49.724,-0.06,-0.19
2021-08-19 13:52:49.728,-0.03,-0.18
2021-08-19 13:52:49.732,-0.025,-0.2
2021-08-19 13:52:49.736,-0.02,-0.195
2021-08-19 13:52:49.740,-0.01,-0.175
2021-08-19 13:52:49.744,-0.01,-0.215
2021-08-19 13:52:49.748,-0.02,-0.2
2021-08-19 13:52:49.752,-0.015,-0.195
2021-08-19 13:52:49.756,-0.035,-0.225
2021-08-19 13:52:49.760,-0.03,-0.2
2021-08-19 13:52:49.764,-0.03,-0.2
2021-08-19 13:52:49.768,-0.035,-0.205
2021-08-19 13:52:49.772,0.0,-0.18
2021-08-19 13:52:49.776,0.005,-0.19
2021-08-19 13:52:49.780,0.005,-0.2
2021-08-19 13:52:49.784,0.01,-0.175
2021-08-19 13:52:49.788,0.015,-0.16
2021-08-19 13:52:49.792,0.025,-0.15
2021-08-19 13:52:49.796,0.0,-0.155
2021-08-19 13:52:49.800,0.01,-0.155
2021-08-19 13:52:49.804,0.015,-0.125
2021-08-19 13:52:49.808,-0.02,-0.13
2021-08-19 13:52:49.812,0.015,-0.115
2021-08-19 13:52:49.816,0.045,-0.06
2021-08-19 13:52:49.820,0.05,-0.06
2021-08-19 13:52:49.824,0.1,-0.075
2021-08-19 13:52:49.828,0.09,-0.09
2021-08-19 13:52:49.832,0.08,-0.095
2021-08-19 13:52:49.836,0.09,-0.085
2021-08-19 13:52:49.840,0.085,-0.07
2021-08-19 13:52:49.844,0.075,-0.07
2021-08-19 13:52:49.848,0.1,-0.03
2021-08-19 13:52:49.852,0.11,-0.015
2021-08-19 13:52:49.856,0.125,-0.005
2021-08-19 13:52:49.860,0.14,0.005
2021-08-19 13:52:49.864,0.15,0.04
2021-08-19 13:52:49.868,0.16,0.055
2021-08-19 13:52:49.872,0.17,0.05
2021-08-19 13:52:49.876,0.195,0.01
2021-08-19 13:52:49.880,0.19,0.03
2021-08-19 13:52:49.884,0.175,0.01
2021-08-19 13:52:49.888,0.16,0.025
2021-08-19 13:52:49.892,0.165,0.035
2021-08-19 13:52:49.896,0.16,0.015
2021-08-19 13:52:49.900,0.17,0.0
2021-08-19 13:52:49.904,0.19,0.015
2021-08-19 13:52:49.908,0.19,0.015
2021-08-19 13:52:49.912,0.18,0.0
2021-08-19 13:52:49.916,0.18,0.0
2021-08-19 13:52:49.920,0.145,-0.025
2021-08-19 13:52:49.924,0.115,-0.03
2021-08-19 13:52:49.928,0.105,-0.055
2021-08-19 13:52:49.932,0.11,-0.055
2021-08-19 13:52:49.936,0.095,-0.055
2021-08-19 13:52:49.940,0.095,-0.065
2021-08-19 13:52:49.944,0.105,-0.095
2021-08-19 13:52:49.948,0.09,-0.11
2021-08-19 13:52:49.952,0.11,-0.125
2021-08-19 13:52:49.956,0.09,-0.14
2021-08-19 13:52:49.960,0.075,-0.14
2021-08-19 13:52:49.964,0.05,-0.145
2021-08-19 13:52:49.968,0.025,-0.135
2021-08-19 13:52:49.972,-0.005,-0.16
2021-08-19 13:52:49.976,0.01,-0.16
2021-08-19 13:52:49.980,0.0,-0.16
2021-08-19 13:52:49.984,0.0,-0.17
2021-08-19 13:52:49.988,0.005,-0.17
2021-08-19 13:52:49.992,-0.005,-0.165
2021-08-19 13:52:49.996,-0.005,-0.165
2021-08-19 13:52:50.000,0.0,-0.175
2021-08-19 13:52:50.004,-0.025,-0.195
2021-08-19 13:52:50.008,-0.035,-0.19
2021-08-19 13:52:50.012,-0.05,-0.195
2021-08-19 13:52:50.016,-0.06,-0.21
2021-08-19 13:52:50.020,-0.045,-0.2
2021-08-19 13:52:50.024,-0.065,-0.19
2021-08-19 13:52:50.028,-0.05,-0.19
2021-08-19 13:52:50.032,-0.035,-0.205
2021-08-19 13:52:50.036,-0.055,-0.2
2021-08-19 13:52:50.040,-0.05,-0.19
2021-08-19 13:52:50.044,-0.06,-0.205
2021-08-19 13:52:50.048,-0.07,-0.24
2021-08-19 13:52:50.052,-0.065,-0.24
2021-08-19 13:52:50.056,-0.095,-0.24
2021-08-19 13:52:50.060,-0.11,-0.235
2021-08-19 13:52:50.064,-0.09,-0.24
2021-08-19 13:52:50.068,-0.095,-0.205
2021-08-19 13:52:50.072,-0.06,-0.185
2021-08-19 13:52:50.076,-0.055,-0.17
2021-08-19 13:52:50.080,-0.035,-0.185
2021-08-19 13:52:50.084,-0.035,-0.19
2021-08-19 13:52:50.088,-0.035,-0.18
2021-08-19 13:52:50.092,-0.04,-0.175
2021-08-19 13:52:50.096,-0.045,-0.18
2021-08-19 13:52:50.100,-0.06,-0.12
2021-08-19 13:52:50.104,-0.015,-0.1
2021-08-19 13:52:50.108,0.0,-0.12
2021-08-19 13:52:50.112,0.0,-0.09
2021-08-19 13:52:50.116,0.02,-0.095
2021-08-19 13:52:50.120,0.045,-0.09
2021-08-19 13:52:50.124,0.065,-0.125
2021-08-19 13:52:50.128,0.165,-0.135
2021-08-19 13:52:50.132,0.235,-0.1
2021-08-19 13:52:50.136,0.315,0.03
2021-08-19 13:52:50.140,0.44,0.245
2021-08-19 13:52:50.144,0.685,0.485
2021-08-19 13:52:50.148,0.765,0.62
2021-08-19 13:52:50.152,0.47,0.615
2021-08-19 13:52:50.156,-0.035,0.415
2021-08-19 13:52:50.160,-0.61,0.235
2021-08-19 13:52:50.164,-1.12,0.1
2021-08-19 13:52:50.168,-1.52,0.08
2021-08-19 13:52:50.172,-1.705,0.195
2021-08-19 13:52:50.176,-1.595,0.255
2021-08-19 13:52:50.180,-1.215,0.205
2021-08-19 13:52:50.184,-0.8,0.11
2021-08-19 13:52:50.188,-0.54,0.025
2021-08-19 13:52:50.192,-0.335,-0.03
2021-08-19 13:52:50.196,-0.175,-0.08
2021-08-19 13:52:50.200,-0.09,-0.115
2021-08-19 13:52:50.204,-0.04,-0.14
2021-08-19 13:52:50.208,-0.03,-0.15
2021-08-19 13:52:50.212,-0.03,-0.19
2021-08-19 13:52:50.216,-0.03,-0.18
2021-08-19 13:52:50.220,-0.055,-0.205
2021-08-19 13:52:50.224,-0.055,-0.205
2021-08-19 13:52:50.228,-0.065,-0.19
2021-08-19 13:52:50.232,-0.08,-0.21
2021-08-19 13:52:50.236,-0.07,-0.22
2021-08-19 13:52:50.240,-0.045,-0.22
2021-08-19 13:52:50.244,-0.02,-0.24
2021-08-19 13:52:50.248,-0.035,-0.23
2021-08-19 13:52:50.252,-0.035,-0.265
2021-08-19 13:52:50.256,-0.03,-0.255
2021-08-19 13:52:50.260,-0.05,-0.28
2021-08-19 13:52:50.264,-0.045,-0.24
2021-08-19 13:52:50.268,-0.065,-0.255
2021-08-19 13:52:50.272,-0.055,-0.23
2021-08-19 13:52:50.276,-0.03,-0.22
2021-08-19 13:52:50.280,-0.04,-0.23
2021-08-19 13:52:50.284,-0.03,-0.245
2021-08-19 13:52:50.288,-0.015,-0.255
2021-08-19 13:52:50.292,-0.025,-0.255
2021-08-19 13:52:50.296,0.0,-0.255
2021-08-19 13:52:50.300,-0.005,-0.26
2021-08-19 13:52:50.304,-0.03,-0.27
2021-08-19 13:52:50.308,-0.03,-0.27
2021-08-19 13:52:50.312,-0.04,-0.27
2021-08-19 13:52:50.316,-0.04,-0.265
2021-08-19 13:52:50.320,-0.025,-0.25
2021-08-19 13:52:50.324,-0.01,-0.245
2021-08-19 13:52:50.328,-0.01,-0.255
2021-08-19 13:52:50.332,0.0,-0.265
2021-08-19 13:52:50.336,-0.02,-0.265
2021-08-19 13:52:50.340,-0.015,-0.26
2021-08-19 13:52:50.344,-0.01,-0.27
2021-08-19 13:52:50.348,-0.025,-0.25
2021-08-19 13:52:50.352,-0.03,-0.255
2021-08-19 13:52:50.356,-0.04,-0.24
2021-08-19 13:52:50.360,-0.01,-0.23
2021-08-19 13:52:50.364,-0.02,-0.23
2021-08-19 13:52:50.368,-0.025,-0.215
2021-08-19 13:52:50.372,0.005,-0.205
2021-08-19 13:52:50.376,0.02,-0.215
2021-08-19 13:52:50.380,0.005,-0.205
2021-08-19 13:52:50.384,0.025,-0.205
2021-08-19 13:52:50.388,-0.005,-0.195
2021-08-19 13:52:50.392,0.0,-0.195
2021-08-19 13:52:50.396,0.01,-0.17
2021-08-19 13:52:50.400,-0.025,-0.165
2021-08-19 13:52:50.404,0.005,-0.155
2021-08-19 13:52:50.408,0.005,-0.16
2021-08-19 13:52:50.412,0.025,-0.145
2021-08-19 13:52:50.416,0.005,-0.15
2021-08-19 13:52:50.420,0.045,-0.14
2021-08-19 13:52:50.424,0.04,-0.155
2021-08-19 13:52:50.428,0.025,-0.13
2021-08-19 13:52:50.432,0.035,-0.125
2021-08-19 13:52:50.436,0.025,-0.125
2021-08-19 13:52:50.440,0.035,-0.12
2021-08-19 13:52:50.444,0.055,-0.125
2021-08-19 13:52:50.448,0.08,-0.11
2021-08-19 13:52:50.452,0.095,-0.11
2021-08-19 13:52:50.456,0.095,-0.1
2021-08-19 13:52:50.460,0.12,-0.055
2021-08-19 13:52:50.464,0.105,-0.04
2021-08-19 13:52:50.468,0.1,-0.045
2021-08-19 13:52:50.472,0.105,-0.035
2021-08-19 13:52:50.476,0.11,-0.025
2021-08-19 13:52:50.480,0.075,0.0
2021-08-19 13:52:50.484,0.11,-0.025
2021-08-19 13:52:50.488,0.12,-0.055
2021-08-19 13:52:50.492,0.15,-0.05
2021-08-19 13:52:50.496,0.135,-0.045
2021-08-19 13:52:50.500,0.145,-0.07
2021-08-19 13:52:50.504,0.12,-0.05
2021-08-19 13:52:50.508,0.095,-0.07
2021-08-19 13:52:50.512,0.085,-0.09
2021-08-19 13:52:50.516,0.045,-0.115
2021-08-19 13:52:50.520,0.03,-0.145
2021-08-19 13:52:50.524,0.025,-0.135
2021-08-19 13:52:50.528,0.045,-0.13
2021-08-19 13:52:50.532,0.03,-0.155
2021-08-19 13:52:50.536,0.015,-0.13
2021-08-19 13:52:50.540,0.05,-0.15
2021-08-19 13:52:50.544,0.035,-0.16
2021-08-19 13:52:50.548,0.015,-0.2
2021-08-19 13:52:50.552,0.0,-0.19
2021-08-19 13:52:50.556,-0.015,-0.195
2021-08-19 13:52:50.560,-0.035,-0.195
2021-08-19 13:52:50.564,-0.045,-0.205
2021-08-19 13:52:50.568,-0.05,-0.2
2021-08-19 13:52:50.572,-0.035,-0.195
2021-08-19 13:52:50.576,-0.05,-0.23
2021-08-19 13:52:50.580,-0.045,-0.22
2021-08-19 13:52:50.584,-0.04,-0.215
2021-08-19 13:52:50.588,-0.035,-0.215
2021-08-19 13:52:50.592,-0.04,-0.23
2021-08-19 13:52:50.596,-0.045,-0.24
2021-08-19 13:52:50.600,-0.06,-0.24
2021-08-19 13:52:50.604,-0.13,-0.23
2021-08-19 13:52:50.608,-0.08,-0.26
2021-08-19 13:52:50.612,-0.11,-0.245
2021-08-19 13:52:50.616,-0.105,-0.235
2021-08-19 13:52:50.620,-0.105,-0.22
2021-08-19 13:52:50.624,-0.085,-0.23
2021-08-19 13:52:50.628,-0.095,-0.24
2021-08-19 13:52:50.632,-0.11,-0.255
2021-08-19 13:52:50.636,-0.095,-0.255
2021-08-19 13:52:50.640,-0.12,-0.245
2021-08-19 13:52:50.644,-0.12,-0.245
2021-08-19 13:52:50.648,-0.13,-0.23
2021-08-19 13:52:50.652,-0.12,-0.235
2021-08-19 13:52:50.656,-0.115,-0.2
2021-08-19 13:52:50.660,-0.08,-0.215
2021-08-19 13:52:50.664,-0.06,-0.22
2021-08-19 13:52:50.668,-0.055,-0.19
2021-08-19 13:52:50.672,-0.055,-0.2
2021-08-19 13:52:50.676,-0.075,-0.195
2021-08-19 13:52:50.680,-0.06,-0.205
2021-08-19 13:52:50.684,-0.075,-0.165
2021-08-19 13:52:50.688,-0.07,-0.185
2021-08-19 13:52:50.692,-0.07,-0.175
2021-08-19 13:52:50.696,-0.07,-0.17
2021-08-19 13:52:50.700,-0.055,-0.16
2021-08-19 13:52:50.704,-0.03,-0.15
2021-08-19 13:52:50.708,-0.02,-0.14
2021-08-19 13:52:50.712,-0.015,-0.155
2021-08-19 13:52:50.716,0.0,-0.145
2021-08-19 13:52:50.720,-0.01,-0.185
2021-08-19 13:52:50.724,0.0,-0.17
2021-08-19 13:52:50.728,0.005,-0.185
2021-08-19 13:52:50.732,0.02,-0.155
2021-08-19 13:52:50.736,-0.02,-0.145
2021-08-19 13:52:50.740,0.0,-0.125
2021-08-19 13:52:50.744,0.03,-0.135
2021-08-19 13:52:50.748,0.05,-0.125
2021-08-19 13:52:50.752,0.035,-0.11
2021-08-19 13:52:50.756,0.015,-0.08
2021-08-19 13:52:50.760,0.03,-0.105
2021-08-19 13:52:50.764,0.04,-0.1
2021-08-19 13:52:50.768,0.03,-0.135
2021-08-19 13:52:50.772,0.08,-0.15
2021-08-19 13:52:50.776,0.215,-0.11
2021-08-19 13:52:50.780,0.28,0.01
2021-08-19 13:52:50.784,0.385,0.22
2021-08-19 13:52:50.788,0.655,0.445
2021-08-19 13:52:50.792,0.695,0.59
2021-08-19 13:52:50.796,0.28,0.605
2021-08-19 13:52:50.800,-0.315,0.4
2021-08-19 13:52:50.804,-0.945,0.145
2021-08-19 13:52:50.808,-1.355,-0.035
2021-08-19 13:52:50.812,-1.58,-0.1
2021-08-19 13:52:50.816,-1.725,-0.005
2021-08-19 13:52:50.820,-1.65,0.07
2021-08-19 13:52:50.824,-1.29,0.055
2021-08-19 13:52:50.828,-0.89,-0.005
2021-08-19 13:52:50.832,-0.625,-0.11
2021-08-19 13:52:50.836,-0.43,-0.165
2021-08-19 13:52:50.840,-0.295,-0.21
2021-08-19 13:52:50.844,-0.195,-0.24
2021-08-19 13:52:50.848,-0.13,-0.28
2021-08-19 13:52:50.852,-0.15,-0.26
2021-08-19 13:52:50.856,-0.14,-0.29
2021-08-19 13:52:50.860,-0.135,-0.265
2021-08-19 13:52:50.864,-0.12,-0.27
2021-08-19 13:52:50.868,-0.12,-0.285
2021-08-19 13:52:50.872,-0.115,-0.27
2021-08-19 13:52:50.876,-0.085,-0.295
2021-08-19 13:52:50.880,-0.08,-0.295
2021-08-19 13:52:50.884,-0.08,-0.295
2021-08-19 13:52:50.888,-0.085,-0.33
2021-08-19 13:52:50.892,-0.105,-0.325
2021-08-19 13:52:50.896,-0.1,-0.325
2021-08-19 13:52:50.900,-0.12,-0.315
2021-08-19 13:52:50.904,-0.075,-0.325
2021-08-19 13:52:50.908,-0.075,-0.29
2021-08-19 13:52:50.912,-0.08,-0.26
2021-08-19 13:52:50.916,-0.06,-0.275
2021-08-19 13:52:50.920,-0.05,-0.275
2021-08-19 13:52:50.924,-0.045,-0.27
2021-08-19 13:52:50.928,-0.035,-0.285
2021-08-19 13:52:50.932,-0.04,-0.28
2021-08-19 13:52:50.936,-0.05,-0.26
2021-08-19 13:52:50.940,-0.065,-0.245
2021-08-19 13:52:50.944,-0.04,-0.24
2021-08-19 13:52:50.948,-0.03,-0.245
2021-08-19 13:52:50.952,-0.015,-0.225
2021-08-19 13:52:50.956,0.0,-0.23
2021-08-19 13:52:50.960,0.005,-0.205
2021-08-19 13:52:50.964,0.03,-0.215
2021-08-19 13:52:50.968,0.03,-0.22
2021-08-19 13:52:50.972,0.005,-0.215
2021-08-19 13:52:50.976,0.0,-0.23
2021-08-19 13:52:50.980,-0.015,-0.23
2021-08-19 13:52:50.984,-0.02,-0.23
2021-08-19 13:52:50.988,0.0,-0.21
2021-08-19 13:52:50.992,0.01,-0.215
2021-08-19 13:52:50.996,0.025,-0.22
2021-08-19 13:52:51.000,0.035,-0.205
2021-08-19 13:52:51.004,0.07,-0.195
2021-08-19 13:52:51.008,0.07,-0.22
2021-08-19 13:52:51.012,0.065,-0.25
2021-08-19 13:52:51.016,0.035,-0.255
2021-08-19 13:52:51.020,0.035,-0.24
2021-08-19 13:52:51.024,0.015,-0.25
2021-08-19 13:52:51.028,0.025,-0.22
2021-08-19 13:52:51.032,0.025,-0.2
2021-08-19 13:52:51.036,0.01,-0.16
2021-08-19 13:52:51.040,0.025,-0.16
2021-08-19 13:52:51.044,0.025,-0.155
2021-08-19 13:52:51.048,0.02,-0.16
2021-08-19 13:52:51.052,0.005,-0.21
2021-08-19 13:52:51.056,-0.04,-0.185
2021-08-19 13:52:51.060,-0.07,-0.18
2021-08-19 13:52:51.064,-0.07,-0.185
2021-08-19 13:52:51.068,-0.08,-0.17
2021-08-19 13:52:51.072,-0.09,-0.16
2021-08-19 13:52:51.076,-0.11,-0.165
2021-08-19 13:52:51.080,-0.09,-0.15
2021-08-19 13:52:51.084,-0.115,-0.14
2021-08-19 13:52:51.088,-0.115,-0.155
2021-08-19 13:52:51.092,-0.095,-0.16
2021-08-19 13:52:51.096,-0.115,-0.175
2021-08-19 13:52:51.100,-0.14,-0.155
2021-08-19 13:52:51.104,-0.15,-0.175
2021-08-19 13:52:51.108,-0.135,-0.15
2021-08-19 13:52:51.112,-0.15,-0.14
2021-08-19 13:52:51.116,-0.13,-0.14
2021-08-19 13:52:51.120,-0.11,-0.135
2021-08-19 13:52:51.124,-0.085,-0.145
2021-08-19 13:52:51.128,-0.065,-0.175
2021-08-19 13:52:51.132,-0.06,-0.165
2021-08-19 13:52:51.136,-0.065,-0.185
2021-08-19 13:52:51.140,-0.04,-0.18
2021-08-19 13:52:51.144,-0.055,-0.19
2021-08-19 13:52:51.148,-0.055,-0.18
2021-08-19 13:52:51.152,-0.06,-0.195
2021-08-19 13:52:51.156,-0.035,-0.19
2021-08-19 13:52:51.160,-0.055,-0.215
2021-08-19 13:52:51.164,-0.05,-0.21
2021-08-19 13:52:51.168,-0.015,-0.235
2021-08-19 13:52:51.172,-0.03,-0.25
2021-08-19 13:52:51.176,-0.055,-0.235
2021-08-19 13:52:51.180,-0.02,-0.255
2021-08-19 13:52:51.184,-0.04,-0.26
2021-08-19 13:52:51.188,-0.05,-0.255
2021-08-19 13:52:51.192,-0.065,-0.23
2021-08-19 13:52:51.196,-0.045,-0.24
2021-08-19 13:52:51.200,-0.045,-0.22
2021-08-19 13:52:51.204,-0.02,-0.22
2021-08-19 13:52:51.208,-0.005,-0.22
2021-08-19 13:52:51.212,-0.01,-0.215
2021-08-19 13:52:51.216,0.005,-0.205
2021-08-19 13:52:51.220,0.005,-0.23
2021-08-19 13:52:51.224,0.0,-0.215
2021-08-19 13:52:51.228,-0.01,-0.23
2021-08-19 13:52:51.232,-0.015,-0.21
2021-08-19 13:52:51.236,-0.035,-0.21
2021-08-19 13:52:51.240,-0.025,-0.16
2021-08-19 13:52:51.244,-0.005,-0.185
2021-08-19 13:52:51.248,0.02,-0.155
2021-08-19 13:52:51.252,0.025,-0.18
2021-08-19 13:52:51.256,0.005,-0.205
2021-08-19 13:52:51.260,0.02,-0.205
2021-08-19 13:52:51.264,0.045,-0.21
2021-08-19 13:52:51.268,0.005,-0.195
2021-08-19 13:52:51.272,0.005,-0.18
2021-08-19 13:52:51.276,0.015,-0.185
2021-08-19 13:52:51.280,0.035,-0.165
2021-08-19 13:52:51.284,0.045,-0.165
2021-08-19 13:52:51.288,0.06,-0.175
2021-08-19 13:52:51.292,0.06,-0.175
2021-08-19 13:52:51.296,0.06,-0.185
2021-08-19 13:52:51.300,0.085,-0.19
2021-08-19 13:52:51.304,0.07,-0.13
2021-08-19 13:52:51.308,0.07,-0.125
2021-08-19 13:52:51.312,0.07,-0.13
2021-08-19 13:52:51.316,0.055,-0.105
2021-08-19 13:52:51.320,0.045,-0.105
2021-08-19 13:52:51.324,0.055,-0.125
2021-08-19 13:52:51.328,0.095,-0.11
2021-08-19 13:52:51.332,0.125,-0.12
2021-08-19 13:52:51.336,0.165,-0.13
2021-08-19 13:52:51.340,0.22,-0.1
2021-08-19 13:52:51.344,0.295,0.065
2021-08-19 13:52:51.348,0.48,0.33
2021-08-19 13:52:51.352,0.64,0.565
2021-08-19 13:52:51.356,0.405,0.685
2021-08-19 13:52:51.360,-0.085,0.56
2021-08-19 13:52:51.364,-0.67,0.34
2021-08-19 13:52:51.368,-1.19,0.14
2021-08-19 13:52:51.372,-1.44,0.015
2021-08-19 13:52:51.376,-1.605,0.055
2021-08-19 13:52:51.380,-1.56,0.125
2021-08-19 13:52:51.384,-1.265,0.08
2021-08-19 13:52:51.388,-0.87,0.0
2021-08-19 13:52:51.392,-0.625,-0.11
2021-08-19 13:52:51.396,-0.42,-0.17
2021-08-19 13:52:51.400,-0.27,-0.215
2021-08-19 13:52:51.404,-0.16,-0.225
2021-08-19 13:52:51.408,-0.105,-0.235
2021-08-19 13:52:51.412,-0.07,-0.245
2021-08-19 13:52:51.416,-0.05,-0.26
2021-08-19 13:52:51.420,-0.07,-0.28
2021-08-19 13:52:51.424,-0.035,-0.27
2021-08-19 13:52:51.428,-0.03,-0.28
2021-08-19 13:52:51.432,-0.055,-0.265
2021-08-19 13:52:51.436,-0.02,-0.28
2021-08-19 13:52:51.440,-0.04,-0.275
2021-08-19 13:52:51.444,-0.05,-0.295
2021-08-19 13:52:51.448,-0.05,-0.295
2021-08-19 13:52:51.452,-0.04,-0.26
2021-08-19 13:52:51.456,-0.01,-0.265
2021-08-19 13:52:51.460,-0.01,-0.26
2021-08-19 13:52:51.464,-0.03,-0.275
2021-08-19 13:52:51.468,-0.035,-0.295
2021-08-19 13:52:51.472,-0.035,-0.28
2021-08-19 13:52:51.476,-0.055,-0.28
2021-08-19 13:52:51.480,-0.055,-0.265
2021-08-19 13:52:51.484,-0.04,-0.23
2021-08-19 13:52:51.488,-0.015,-0.205
2021-08-19 13:52:51.492,-0.005,-0.215
2021-08-19 13:52:51.496,0.015,-0.2
2021-08-19 13:52:51.500,0.02,-0.195
2021-08-19 13:52:51.504,0.025,-0.195
2021-08-19 13:52:51.508,0.03,-0.205
2021-08-19 13:52:51.512,0.04,-0.17
2021-08-19 13:52:51.516,0.015,-0.185
2021-08-19 13:52:51.520,0.025,-0.18
2021-08-19 13:52:51.524,0.06,-0.165
2021-08-19 13:52:51.528,0.05,-0.175
2021-08-19 13:52:51.532,0.05,-0.165
2021-08-19 13:52:51.536,0.095,-0.155
2021-08-19 13:52:51.540,0.08,-0.15
2021-08-19 13:52:51.544,0.09,-0.175
2021-08-19 13:52:51.548,0.095,-0.17
2021-08-19 13:52:51.552,0.07,-0.165
2021-08-19 13:52:51.556,0.075,-0.165
2021-08-19 13:52:51.560,0.08,-0.205
2021-08-19 13:52:51.564,0.08,-0.2
2021-08-19 13:52:51.568,0.08,-0.18
2021-08-19 13:52:51.572,0.095,-0.17
2021-08-19 13:52:51.576,0.08,-0.185
2021-08-19 13:52:51.580,0.085,-0.18
2021-08-19 13:52:51.584,0.085,-0.16
2021-08-19 13:52:51.588,0.075,-0.125
2021-08-19 13:52:51.592,0.06,-0.145
2021-08-19 13:52:51.596,0.04,-0.11
2021-08-19 13:52:51.600,0.03,-0.105
2021-08-19 13:52:51.604,0.0,-0.125
2021-08-19 13:52:51.608,-0.005,-0.105
2021-08-19 13:52:51.612,0.005,-0.11
2021-08-19 13:52:51.616,-0.01,-0.105
2021-08-19 13:52:51.620,0.0,-0.11
2021-08-19 13:52:51.624,-0.025,-0.12
2021-08-19 13:52:51.628,-0.055,-0.125
2021-08-19 13:52:51.632,-0.09,-0.12
2021-08-19 13:52:51.636,-0.12,-0.095
2021-08-19 13:52:51.640,-0.15,-0.115
2021-08-19 13:52:51.644,-0.15,-0.1
2021-08-19 13:52:51.648,-0.1,-0.08
2021-08-19 13:52:51.652,-0.12,-0.09
2021-08-19 13:52:51.656,-0.105,-0.115
2021-08-19 13:52:51.660,-0.09,-0.125
2021-08-19 13:52:51.664,-0.065,-0.145
2021-08-19 13:52:51.668,-0.075,-0.15
2021-08-19 13:52:51.672,-0.075,-0.165
2021-08-19 13:52:51.676,-0.1,-0.16
2021-08-19 13:52:51.680,-0.055,-0.135
2021-08-19 13:52:51.684,-0.035,-0.15
2021-08-19 13:52:51.688,-0.02,-0.135
2021-08-19 13:52:51.692,-0.03,-0.15
2021-08-19 13:52:51.696,0.005,-0.16
2021-08-19 13:52:51.700,0.015,-0.175
2021-08-19 13:52:51.704,0.025,-0.185
2021-08-19 13:52:51.708,0.0,-0.19
2021-08-19 13:52:51.712,0.0,-0.2
2021-08-19 13:52:51.716,-0.02,-0.21
2021-08-19 13:52:51.720,0.0,-0.21
2021-08-19 13:52:51.724,-0.025,-0.18
2021-08-19 13:52:51.728,-0.015,-0.195
2021-08-19 13:52:51.732,-0.015,-0.195
2021-08-19 13:52:51.736,0.0,-0.19
2021-08-19 13:52:51.740,0.0,-0.21
2021-08-19 13:52:51.744,0.005,-0.2
2021-08-19 13:52:51.748,-0.01,-0.22
2021-08-19 13:52:51.752,0.0,-0.215
2021-08-19 13:52:51.756,-0.045,-0.23
2021-08-19 13:52:51.760,-0.05,-0.22
2021-08-19 13:52:51.764,-0.04,-0.195
2021-08-19 13:52:51.768,-0.03,-0.185
2021-08-19 13:52:51.772,-0.015,-0.145
2021-08-19 13:52:51.776,-0.01,-0.165
2021-08-19 13:52:51.780,0.005,-0.18
2021-08-19 13:52:51.784,0.015,-0.19
2021-08-19 13:52:51.788,0.02,-0.185
2021-08-19 13:52:51.792,0.01,-0.15
2021-08-19 13:52:51.796,0.0,-0.19
2021-08-19 13:52:51.800,-0.005,-0.185
2021-08-19 13:52:51.804,0.0,-0.16
2021-08-19 13:52:51.808,0.0,-0.16
2021-08-19 13:52:51.812,0.025,-0.135
2021-08-19 13:52:51.816,0.05,-0.15
2021-08-19 13:52:51.820,0.045,-0.14
2021-08-19 13:52:51.824,0.08,-0.155
2021-08-19 13:52:51.828,0.065,-0.14
2021-08-19 13:52:51.832,0.08,-0.155
2021-08-19 13:52:51.836,0.07,-0.16
2021-08-19 13:52:51.840,0.085,-0.185
2021-08-19 13:52:51.844,0.06,-0.135
2021-08-19 13:52:51.848,0.09,-0.11
2021-08-19 13:52:51.852,0.125,-0.105
2021-08-19 13:52:51.856,0.14,-0.1
2021-08-19 13:52:51.860,0.13,-0.075
2021-08-19 13:52:51.864,0.145,-0.06
2021-08-19 13:52:51.868,0.145,-0.075
2021-08-19 13:52:51.872,0.125,-0.07
2021-08-19 13:52:51.876,0.11,-0.09
2021-08-19 13:52:51.880,0.125,-0.09
2021-08-19 13:52:51.884,0.165,-0.11
2021-08-19 13:52:51.888,0.245,-0.075
2021-08-19 13:52:51.892,0.33,0.02
2021-08-19 13:52:51.896,0.47,0.22
2021-08-19 13:52:51.900,0.72,0.495
2021-08-19 13:52:51.904,0.8,0.69
2021-08-19 13:52:51.908,0.395,0.7
2021-08-19 13:52:51.912,-0.22,0.47
2021-08-19 13:52:51.916,-0.835,0.245
2021-08-19 13:52:51.920,-1.21,0.11
2021-08-19 13:52:51.924,-1.46,0.12
2021-08-19 13:52:51.928,-1.555,0.21
2021-08-19 13:52:51.932,-1.36,0.225
2021-08-19 13:52:51.936,-0.905,0.145
2021-08-19 13:52:51.940,-0.58,0.035
2021-08-19 13:52:51.944,-0.375,-0.04
2021-08-19 13:52:51.948,-0.22,-0.095
2021-08-19 13:52:51.952,-0.12,-0.12
2021-08-19 13:52:51.956,-0.05,-0.13
2021-08-19 13:52:51.960,-0.035,-0.145
2021-08-19 13:52:51.964,-0.03,-0.145
2021-08-19 13:52:51.968,-0.015,-0.155
2021-08-19 13:52:51.972,0.0,-0.135
2021-08-19 13:52:51.976,0.04,-0.135
2021-08-19 13:52:51.980,0.025,-0.13
2021-08-19 13:52:51.984,0.03,-0.165
2021-08-19 13:52:51.988,0.055,-0.16
2021-08-19 13:52:51.992,0.02,-0.165
2021-08-19 13:52:51.996,0.0,-0.16
2021-08-19 13:52:52.000,-0.005,-0.145
2021-08-19 13:52:52.004,0.005,-0.145
2021-08-19 13:52:52.008,0.015,-0.13
2021-08-19 13:52:52.012,0.03,-0.16
2021-08-19 13:52:52.016,0.05,-0.135
2021-08-19 13:52:52.020,0.03,-0.16
2021-08-19 13:52:52.024,0.04,-0.16
2021-08-19 13:52:52.028,0.035,-0.195
2021-08-19 13:52:52.032,0.015,-0.16
2021-08-19 13:52:52.036,0.02,-0.17
2021-08-19 13:52:52.040,0.015,-0.15
2021-08-19 13:52:52.044,0.025,-0.135
2021-08-19 13:52:52.048,0.035,-0.12
2021-08-19 13:52:52.052,0.05,-0.12
2021-08-19 13:52:52.056,0.08,-0.12
2021-08-19 13:52:52.060,0.075,-0.1
2021-08-19 13:52:52.064,0.09,-0.105
2021-08-19 13:52:52.068,0.1,-0.115
2021-08-19 13:52:52.072,0.07,-0.125
2021-08-19 13:52:52.076,0.085,-0.14
2021-08-19 13:52:52.080,0.07,-0.11
2021-08-19 13:52:52.084,0.13,-0.065
2021-08-19 13:52:52.088,0.115,-0.06
2021-08-19 13:52:52.092,0.155,-0.065
2021-08-19 13:52:52.096,0.15,-0.065
2021-08-19 13:52:52.100,0.17,-0.065
2021-08-19 13:52:52.104,0.205,-0.085
2021-08-19 13:52:52.108,0.19,-0.085
2021-08-19 13:52:52.112,0.165,-0.075
2021-08-19 13:52:52.116,0.19,-0.065
2021-08-19 13:52:52.120,0.175,-0.07
2021-08-19 13:52:52.124,0.21,-0.08
2021-08-19 13:52:52.128,0.195,-0.085
2021-08-19 13:52:52.132,0.19,-0.07
2021-08-19 13:52:52.136,0.22,-0.05
2021-08-19 13:52:52.140,0.22,-0.05
2021-08-19 13:52:52.144,0.25,-0.045
2021-08-19 13:52:52.148,0.215,-0.045
2021-08-19 13:52:52.152,0.205,-0.025
2021-08-19 13:52:52.156,0.19,0.0
2021-08-19 13:52:52.160,0.17,-0.005
2021-08-19 13:52:52.164,0.175,0.015
2021-08-19 13:52:52.168,0.165,0.04
2021-08-19 13:52:52.172,0.17,0.055
2021-08-19 13:52:52.176,0.195,0.03
2021-08-19 13:52:52.180,0.185,0.035
2021-08-19 13:52:52.184,0.135,0.015
2021-08-19 13:52:52.188,0.145,0.005
2021-08-19 13:52:52.192,0.14,0.0
2021-08-19 13:52:52.196,0.115,0.015
2021-08-19 13:52:52.200,0.105,0.01
2021-08-19 13:52:52.204,0.135,0.005
2021-08-19 13:52:52.208,0.14,0.02
2021-08-19 13:52:52.212,0.15,0.005
2021-08-19 13:52:52.216,0.19,0.0
2021-08-19 13:52:52.220,0.175,-0.015
2021-08-19 13:52:52.224,0.185,-0.035
2021-08-19 13:52:52.228,0.2,-0.07
2021-08-19 13:52:52.232,0.18,-0.09
2021-08-19 13:52:52.236,0.15,-0.07
2021-08-19 13:52:52.240,0.175,-0.05
2021-08-19 13:52:52.244,0.165,-0.05
2021-08-19 13:52:52.248,0.16,-0.075
2021-08-19 13:52:52.252,0.205,-0.06
2021-08-19 13:52:52.256,0.195,-0.065
2021-08-19 13:52:52.260,0.195,-0.065
2021-08-19 13:52:52.264,0.205,-0.085
2021-08-19 13:52:52.268,0.195,-0.095
2021-08-19 13:52:52.272,0.15,-0.105
2021-08-19 13:52:52.276,0.135,-0.095
2021-08-19 13:52:52.280,0.135,-0.1
2021-08-19 13:52:52.284,0.135,-0.085
2021-08-19 13:52:52.288,0.125,-0.075
2021-08-19 13:52:52.292,0.145,-0.08
2021-08-19 13:52:52.296,0.15,-0.08
2021-08-19 13:52:52.300,0.14,-0.09
2021-08-19 13:52:52.304,0.16,-0.095
2021-08-19 13:52:52.308,0.14,-0.1
2021-08-19 13:52:52.312,0.135,-0.135
2021-08-19 13:52:52.316,0.115,-0.11
2021-08-19 13:52:52.320,0.105,-0.105
2021-08-19 13:52:52.324,0.11,-0.09
2021-08-19 13:52:52.328,0.1,-0.065
2021-08-19 13:52:52.332,0.105,-0.07
2021-08-19 13:52:52.336,0.145,-0.065
2021-08-19 13:52:52.340,0.145,-0.05
2021-08-19 13:52:52.344,0.145,-0.03
2021-08-19 13:52:52.348,0.14,-0.05
2021-08-19 13:52:52.352,0.145,-0.02
2021-08-19 13:52:52.356,0.15,-0.03
2021-08-19 13:52:52.360,0.13,-0.04
2021-08-19 13:52:52.364,0.14,-0.055
2021-08-19 13:52:52.368,0.135,-0.04
2021-08-19 13:52:52.372,0.14,-0.035
2021-08-19 13:52:52.376,0.175,-0.04
2021-08-19 13:52:52.380,0.185,-0.045
2021-08-19 13:52:52.384,0.165,-0.06
2021-08-19 13:52:52.388,0.195,-0.07
2021-08-19 13:52:52.392,0.18,-0.06
2021-08-19 13:52:52.396,0.16,-0.04
2021-08-19 13:52:52.400,0.175,-0.035
2021-08-19 13:52:52.404,0.21,-0.04
2021-08-19 13:52:52.408,0.195,-0.03
2021-08-19 13:52:52.412,0.23,-0.035
2021-08-19 13:52:52.416,0.27,-0.04
2021-08-19 13:52:52.420,0.25,-0.025
2021-08-19 13:52:52.424,0.26,-0.04
2021-08-19 13:52:52.428,0.26,-0.05
2021-08-19 13:52:52.432,0.25,-0.09
2021-08-19 13:52:52.436,0.295,-0.105
2021-08-19 13:52:52.440,0.355,-0.07
2021-08-19 13:52:52.444,0.43,0.05
2021-08-19 13:52:52.448,0.585,0.29
2021-08-19 13:52:52.452,0.88,0.555
2021-08-19 13:52:52.456,0.895,0.7
2021-08-19 13:52:52.460,0.435,0.67
2021-08-19 13:52:52.464,-0.17,0.43
2021-08-19 13:52:52.468,-0.74,0.22
2021-08-19 13:52:52.472,-1.15,0.055
2021-08-19 13:52:52.476,-1.455,0.07
2021-08-19 13:52:52.480,-1.57,0.17
2021-08-19 13:52:52.484,-1.335,0.19
2021-08-19 13:52:52.488,-0.875,0.12
2021-08-19 13:52:52.492,-0.54,0.01
2021-08-19 13:52:52.496,-0.32,-0.05
2021-08-19 13:52:52.500,-0.16,-0.13
2021-08-19 13:52:52.504,-0.065,-0.145
2021-08-19 13:52:52.508,0.0,-0.15
2021-08-19 13:52:52.512,0.02,-0.185
2021-08-19 13:52:52.516,0.02,-0.19
2021-08-19 13:52:52.520,0.045,-0.21
2021-08-19 13:52:52.524,0.04,-0.19
2021-08-19 13:52:52.528,0.055,-0.17
2021-08-19 13:52:52.532,0.075,-0.14
2021-08-19 13:52:52.536,0.08,-0.17
2021-08-19 13:52:52.540,0.1,-0.175
2021-08-19 13:52:52.544,0.1,-0.18
2021-08-19 13:52:52.548,0.08,-0.2
2021-08-19 13:52:52.552,0.05,-0.185
2021-08-19 13:52:52.556,0.06,-0.205
2021-08-19 13:52:52.560,0.04,-0.18
2021-08-19 13:52:52.564,0.05,-0.175
2021-08-19 13:52:52.568,0.045,-0.145
2021-08-19 13:52:52.572,0.075,-0.145
2021-08-19 13:52:52.576,0.08,-0.11
2021-08-19 13:52:52.580,0.1,-0.13
2021-08-19 13:52:52.584,0.125,-0.145
2021-08-19 13:52:52.588,0.12,-0.17
2021-08-19 13:52:52.592,0.12,-0.15
2021-08-19 13:52:52.596,0.105,-0.14
2021-08-19 13:52:52.600,0.08,-0.12
2021-08-19 13:52:52.604,0.1,-0.11
2021-08-19 13:52:52.608,0.13,-0.08
2021-08-19 13:52:52.612,0.135,-0.105
2021-08-19 13:52:52.616,0.205,-0.07
2021-08-19 13:52:52.620,0.18,-0.06
2021-08-19 13:52:52.624,0.22,-0.07
2021-08-19 13:52:52.628,0.21,-0.09
2021-08-19 13:52:52.632,0.22,-0.085
2021-08-19 13:52:52.636,0.185,-0.085
2021-08-19 13:52:52.640,0.19,-0.065
2021-08-19 13:52:52.644,0.185,-0.08
2021-08-19 13:52:52.648,0.19,-0.075
2021-08-19 13:52:52.652,0.21,-0.05
2021-08-19 13:52:52.656,0.2,-0.055
2021-08-19 13:52:52.660,0.23,-0.06
2021-08-19 13:52:52.664,0.24,-0.065
2021-08-19 13:52:52.668,0.245,-0.09
2021-08-19 13:52:52.672,0.245,-0.09
2021-08-19 13:52:52.676,0.225,-0.075
2021-08-19 13:52:52.680,0.23,-0.075
2021-08-19 13:52:52.684,0.24,-0.08
2021-08-19 13:52:52.688,0.23,-0.06
2021-08-19 13:52:52.692,0.235,-0.03
2021-08-19 13:52:52.696,0.26,-0.04
2021-08-19 13:52:52.700,0.275,-0.06
2021-08-19 13:52:52.704,0.275,-0.04
2021-08-19 13:52:52.708,0.26,-0.05
2021-08-19 13:52:52.712,0.245,-0.02
2021-08-19 13:52:52.716,0.2,-0.025
2021-08-19 13:52:52.720,0.21,-0.035
2021-08-19 13:52:52.724,0.17,-0.04
2021-08-19 13:52:52.728,0.185,-0.015
2021-08-19 13:52:52.732,0.185,0.005
2021-08-19 13:52:52.736,0.175,0.01
2021-08-19 13:52:52.740,0.155,0.02
2021-08-19 13:52:52.744,0.17,-0.01
2021-08-19 13:52:52.748,0.145,0.0
2021-08-19 13:52:52.752,0.13,-0.02
2021-08-19 13:52:52.756,0.15,-0.035
2021-08-19 13:52:52.760,0.13,-0.04
2021-08-19 13:52:52.764,0.13,-0.045
2021-08-19 13:52:52.768,0.13,-0.045
2021-08-19 13:52:52.772,0.145,-0.05
2021-08-19 13:52:52.776,0.165,-0.045
2021-08-19 13:52:52.780,0.175,-0.05
2021-08-19 13:52:52.784,0.185,-0.095
2021-08-19 13:52:52.788,0.2,-0.11
2021-08-19 13:52:52.792,0.19,-0.095
2021-08-19 13:52:52.796,0.165,-0.125
2021-08-19 13:52:52.800,0.165,-0.125
2021-08-19 13:52:52.804,0.13,-0.13
2021-08-19 13:52:52.808,0.145,-0.1
2021-08-19 13:52:52.812,0.16,-0.115
2021-08-19 13:52:52.816,0.145,-0.13
2021-08-19 13:52:52.820,0.16,-0.135
2021-08-19 13:52:52.824,0.17,-0.145
2021-08-19 13:52:52.828,0.15,-0.16
2021-08-19 13:52:52.832,0.135,-0.15
2021-08-19 13:52:52.836,0.145,-0.17
2021-08-19 13:52:52.840,0.11,-0.16
2021-08-19 13:52:52.844,0.11,-0.155
2021-08-19 13:52:52.848,0.1,-0.155
2021-08-19 13:52:52.852,0.085,-0.15
2021-08-19 13:52:52.856,0.095,-0.15
2021-08-19 13:52:52.860,0.115,-0.145
2021-08-19 13:52:52.864,0.12,-0.16
2021-08-19 13:52:52.868,0.13,-0.135
2021-08-19 13:52:52.872,0.12,-0.15
2021-08-19 13:52:52.876,0.1,-0.145
2021-08-19 13:52:52.880,0.095,-0.145
2021-08-19 13:52:52.884,0.085,-0.12
2021-08-19 13:52:52.888,0.09,-0.085
2021-08-19 13:52:52.892,0.11,-0.085
2021-08-19 13:52:52.896,0.11,-0.09
2021-08-19 13:52:52.900,0.12,-0.1
2021-08-19 13:52:52.904,0.15,-0.13
2021-08-19 13:52:52.908,0.15,-0.12
2021-08-19 13:52:52.912,0.15,-0.1
2021-08-19 13:52:52.916,0.125,-0.13
2021-08-19 13:52:52.920,0.115,-0.13
2021-08-19 13:52:52.924,0.11,-0.135
2021-08-19 13:52:52.928,0.11,-0.13
2021-08-19 13:52:52.932,0.135,-0.125
2021-08-19 13:52:52.936,0.155,-0.105
2021-08-19 13:52:52.940,0.17,-0.12
2021-08-19 13:52:52.944,0.2,-0.11
2021-08-19 13:52:52.948,0.2,-0.095
2021-08-19 13:52:52.952,0.19,-0.1
2021-08-19 13:52:52.956,0.23,-0.085
2021-08-19 13:52:52.960,0.195,-0.075
2021-08-19 13:52:52.964,0.18,-0.09
2021-08-19 13:52:52.968,0.185,-0.08
2021-08-19 13:52:52.972,0.21,-0.1
2021-08-19 13:52:52.976,0.22,-0.085
2021-08-19 13:52:52.980,0.195,-0.07
2021-08-19 13:52:52.984,0.235,-0.06
2021-08-19 13:52:52.988,0.25,-0.07
2021-08-19 13:52:52.992,0.23,-0.13
2021-08-19 13:52:52.996,0.27,-0.15
2021-08-19 13:52:53.000,0.325,-0.135
2021-08-19 13:52:53.004,0.38,-0.04
2021-08-19 13:52:53.008,0.5,0.175
2021-08-19 13:52:53.012,0.765,0.425
2021-08-19 13:52:53.016,0.83,0.6
2021-08-19 13:52:53.020,0.44,0.6
2021-08-19 13:52:53.024,-0.15,0.43
2021-08-19 13:52:53.028,-0.715,0.2
2021-08-19 13:52:53.032,-1.155,0.02
2021-08-19 13:52:53.036,-1.435,0.0
2021-08-19 13:52:53.040,-1.58,0.115
2021-08-19 13:52:53.044,-1.42,0.12
2021-08-19 13:52:53.048,-0.97,0.07
2021-08-19 13:52:53.052,-0.65,-0.015
2021-08-19 13:52:53.056,-0.415,-0.07
2021-08-19 13:52:53.060,-0.225,-0.13
2021-08-19 13:52:53.064,-0.12,-0.185
2021-08-19 13:52:53.068,-0.015,-0.21
2021-08-19 13:52:53.072,0.02,-0.23
2021-08-19 13:52:53.076,0.025,-0.255
2021-08-19 13:52:53.080,0.045,-0.28
2021-08-19 13:52:53.084,0.035,-0.265
2021-08-19 13:52:53.088,0.04,-0.245
2021-08-19 13:52:53.092,0.05,-0.24
2021-08-19 13:52:53.096,0.035,-0.24
2021-08-19 13:52:53.100,0.06,-0.25
2021-08-19 13:52:53.104,0.075,-0.265
2021-08-19 13:52:53.108,0.09,-0.27
2021-08-19 13:52:53.112,0.08,-0.24
2021-08-19 13:52:53.116,0.08,-0.265
2021-08-19 13:52:53.120,0.06,-0.255
2021-08-19 13:52:53.124,0.03,-0.255
2021-08-19 13:52:53.128,0.05,-0.225
2021-08-19 13:52:53.132,0.055,-0.23
2021-08-19 13:52:53.136,0.06,-0.23
2021-08-19 13:52:53.140,0.075,-0.235
2021-08-19 13:52:53.144,0.065,-0.225
2021-08-19 13:52:53.148,0.11,-0.22
2021-08-19 13:52:53.152,0.11,-0.235
2021-08-19 13:52:53.156,0.105,-0.21
2021-08-19 13:52:53.160,0.13,-0.22
2021-08-19 13:52:53.164,0.11,-0.23
2021-08-19 13:52:53.168,0.095,-0.2
2021-08-19 13:52:53.172,0.1,-0.185
2021-08-19 13:52:53.176,0.13,-0.16
2021-08-19 13:52:53.180,0.15,-0.16
2021-08-19 13:52:53.184,0.185,-0.16
2021-08-19 13:52:53.188,0.205,-0.145
2021-08-19 13:52:53.192,0.23,-0.17
2021-08-19 13:52:53.196,0.215,-0.16
2021-08-19 13:52:53.200,0.23,-0.16
2021-08-19 13:52:53.204,0.225,-0.165
2021-08-19 13:52:53.208,0.22,-0.15
2021-08-19 13:52:53.212,0.22,-0.17
2021-08-19 13:52:53.216,0.245,-0.145
2021-08-19 13:52:53.220,0.25,-0.135
2021-08-19 13:52:53.224,0.25,-0.13
2021-08-19 13:52:53.228,0.285,-0.125
2021-08-19 13:52:53.232,0.29,-0.13
2021-08-19 13:52:53.236,0.315,-0.145
2021-08-19 13:52:53.240,0.315,-0.15
2021-08-19 13:52:53.244,0.315,-0.145
2021-08-19 13:52:53.248,0.305,-0.15
2021-08-19 13:52:53.252,0.275,-0.145
2021-08-19 13:52:53.256,0.285,-0.12
2021-08-19 13:52:53.260,0.29,-0.105
2021-08-19 13:52:53.264,0.275,-0.125
2021-08-19 13:52:53.268,0.265,-0.13
2021-08-19 13:52:53.272,0.255,-0.12
2021-08-19 13:52:53.276,0.255,-0.1
2021-08-19 13:52:53.280,0.24,-0.1
2021-08-19 13:52:53.284,0.24,-0.115
2021-08-19 13:52:53.288,0.21,-0.09
2021-08-19 13:52:53.292,0.165,-0.105
2021-08-19 13:52:53.296,0.145,-0.085
2021-08-19 13:52:53.300,0.15,-0.08
2021-08-19 13:52:53.304,0.155,-0.08
2021-08-19 13:52:53.308,0.175,-0.075
2021-08-19 13:52:53.312,0.17,-0.06
2021-08-19 13:52:53.316,0.165,-0.085
2021-08-19 13:52:53.320,0.165,-0.1
2021-08-19 13:52:53.324,0.19,-0.12
2021-08-19 13:52:53.328,0.18,-0.095
2021-08-19 13:52:53.332,0.16,-0.08
2021-08-19 13:52:53.336,0.175,-0.09
2021-08-19 13:52:53.340,0.155,-0.09
2021-08-19 13:52:53.344,0.18,-0.09
2021-08-19 13:52:53.348,0.22,-0.1
2021-08-19 13:52:53.352,0.25,-0.1
2021-08-19 13:52:53.356,0.26,-0.09
2021-08-19 13:52:53.360,0.255,-0.12
2021-08-19 13:52:53.364,0.26,-0.155
2021-08-19 13:52:53.368,0.25,-0.18
2021-08-19 13:52:53.372,0.23,-0.19
2021-08-19 13:52:53.376,0.2,-0.195
2021-08-19 13:52:53.380,0.22,-0.19
2021-08-19 13:52:53.384,0.21,-0.175
2021-08-19 13:52:53.388,0.225,-0.17
2021-08-19 13:52:53.392,0.22,-0.2
2021-08-19 13:52:53.396,0.24,-0.18
2021-08-19 13:52:53.400,0.22,-0.195
2021-08-19 13:52:53.404,0.225,-0.195
2021-08-19 13:52:53.408,0.2,-0.18
2021-08-19 13:52:53.412,0.17,-0.185
2021-08-19 13:52:53.416,0.165,-0.2
2021-08-19 13:52:53.420,0.17,-0.195
2021-08-19 13:52:53.424,0.16,-0.19
2021-08-19 13:52:53.428,0.16,-0.15
2021-08-19 13:52:53.432,0.185,-0.17
2021-08-19 13:52:53.436,0.2,-0.2
2021-08-19 13:52:53.440,0.205,-0.175
2021-08-19 13:52:53.444,0.215,-0.175
2021-08-19 13:52:53.448,0.21,-0.18
2021-08-19 13:52:53.452,0.19,-0.145
2021-08-19 13:52:53.456,0.175,-0.15
2021-08-19 13:52:53.460,0.165,-0.18
2021-08-19 13:52:53.464,0.195,-0.165
2021-08-19 13:52:53.468,0.19,-0.16
2021-08-19 13:52:53.472,0.175,-0.15
2021-08-19 13:52:53.476,0.22,-0.15
2021-08-19 13:52:53.480,0.2,-0.145
2021-08-19 13:52:53.484,0.225,-0.135
2021-08-19 13:52:53.488,0.195,-0.155
2021-08-19 13:52:53.492,0.205,-0.14
2021-08-19 13:52:53.496,0.21,-0.155
2021-08-19 13:52:53.500,0.205,-0.165
2021-08-19 13:52:53.504,0.22,-0.16
2021-08-19 13:52:53.508,0.2,-0.14
2021-08-19 13:52:53.512,0.225,-0.13
2021-08-19 13:52:53.516,0.24,-0.125
2021-08-19 13:52:53.520,0.255,-0.12
2021-08-19 13:52:53.524,0.265,-0.13
2021-08-19 13:52:53.528,0.235,-0.125
2021-08-19 13:52:53.532,0.24,-0.13
2021-08-19 13:52:53.536,0.22,-0.16
2021-08-19 13:52:53.540,0.205,-0.165
2021-08-19 13:52:53.544,0.195,-0.14
2021-08-19 13:52:53.548,0.17,-0.135
2021-08-19 13:52:53.552,0.19,-0.115
2021-08-19 13:52:53.556,0.185,-0.11
2021-08-19 13:52:53.560,0.215,-0.13
2021-08-19 13:52:53.564,0.19,-0.125
2021-08-19 13:52:53.568,0.16,-0.16
2021-08-19 13:52:53.572,0.155,-0.17
2021-08-19 13:52:53.576,0.14,-0.18
2021-08-19 13:52:53.580,0.1,-0.18
2021-08-19 13:52:53.584,0.115,-0.2
2021-08-19 13:52:53.588,0.115,-0.195
2021-08-19 13:52:53.592,0.095,-0.185
2021-08-19 13:52:53.596,0.085,-0.21
2021-08-19 13:52:53.600,0.085,-0.185
2021-08-19 13:52:53.604,0.105,-0.205
2021-08-19 13:52:53.608,0.105,-0.21
2021-08-19 13:52:53.612,0.105,-0.225
2021-08-19 13:52:53.616,0.105,-0.24
2021-08-19 13:52:53.620,0.105,-0.225
2021-08-19 13:52:53.624,0.105,-0.245
2021-08-19 13:52:53.628,0.105,-0.265
2021-08-19 13:52:53.632,0.165,-0.29
2021-08-19 13:52:53.636,0.265,-0.3
2021-08-19 13:52:53.640,0.36,-0.21
2021-08-19 13:52:53.644,0.47,-0.015
2021-08-19 13:52:53.648,0.68,0.2
2021-08-19 13:52:53.652,0.75,0.415
2021-08-19 13:52:53.656,0.385,0.5
2021-08-19 13:52:53.660,-0.125,0.37
2021-08-19 13:52:53.664,-0.68,0.19
2021-08-19 13:52:53.668,-1.12,0.015
2021-08-19 13:52:53.672,-1.425,-0.06
2021-08-19 13:52:53.676,-1.59,0.0
2021-08-19 13:52:53.680,-1.545,0.105
2021-08-19 13:52:53.684,-1.205,0.09
2021-08-19 13:52:53.688,-0.795,-0.01
2021-08-19 13:52:53.692,-0.525,-0.095
2021-08-19 13:52:53.696,-0.29,-0.165
2021-08-19 13:52:53.700,-0.135,-0.21
2021-08-19 13:52:53.704,-0.06,-0.21
2021-08-19 13:52:53.708,-0.01,-0.23
2021-08-19 13:52:53.712,0.03,-0.245
2021-08-19 13:52:53.716,0.06,-0.265
2021-08-19 13:52:53.720,0.06,-0.22
2021-08-19 13:52:53.724,0.11,-0.23
2021-08-19 13:52:53.728,0.125,-0.255
2021-08-19 13:52:53.732,0.16,-0.215
2021-08-19 13:52:53.736,0.165,-0.22
2021-08-19 13:52:53.740,0.18,-0.21
2021-08-19 13:52:53.744,0.185,-0.22
2021-08-19 13:52:53.748,0.17,-0.27
2021-08-19 13:52:53.752,0.17,-0.255
2021-08-19 13:52:53.756,0.185,-0.21
2021-08-19 13:52:53.760,0.175,-0.185
2021-08-19 13:52:53.764,0.215,-0.17
2021-08-19 13:52:53.768,0.215,-0.16
2021-08-19 13:52:53.772,0.27,-0.16
2021-08-19 13:52:53.776,0.25,-0.16
2021-08-19 13:52:53.780,0.27,-0.16
2021-08-19 13:52:53.784,0.275,-0.185
2021-08-19 13:52:53.788,0.255,-0.2
2021-08-19 13:52:53.792,0.27,-0.185
2021-08-19 13:52:53.796,0.27,-0.16
2021-08-19 13:52:53.800,0.275,-0.15
2021-08-19 13:52:53.804,0.295,-0.145
2021-08-19 13:52:53.808,0.31,-0.145
2021-08-19 13:52:53.812,0.315,-0.135
2021-08-19 13:52:53.816,0.315,-0.155
2021-08-19 13:52:53.820,0.31,-0.17
2021-08-19 13:52:53.824,0.295,-0.17
2021-08-19 13:52:53.828,0.25,-0.16
2021-08-19 13:52:53.832,0.24,-0.135
2021-08-19 13:52:53.836,0.26,-0.145
2021-08-19 13:52:53.840,0.225,-0.145
2021-08-19 13:52:53.844,0.2,-0.16
2021-08-19 13:52:53.848,0.19,-0.16
2021-08-19 13:52:53.852,0.235,-0.155
2021-08-19 13:52:53.856,0.215,-0.15
2021-08-19 13:52:53.860,0.19,-0.18
2021-08-19 13:52:53.864,0.175,-0.19
2021-08-19 13:52:53.868,0.16,-0.195
2021-08-19 13:52:53.872,0.125,-0.205
2021-08-19 13:52:53.876,0.1,-0.205
2021-08-19 13:52:53.880,0.075,-0.23
2021-08-19 13:52:53.884,0.09,-0.23
2021-08-19 13:52:53.888,0.09,-0.225
2021-08-19 13:52:53.892,0.08,-0.21
2021-08-19 13:52:53.896,0.08,-0.22
2021-08-19 13:52:53.900,0.075,-0.24
2021-08-19 13:52:53.904,0.07,-0.255
2021-08-19 13:52:53.908,0.08,-0.27
2021-08-19 13:52:53.912,0.05,-0.28
2021-08-19 13:52:53.916,0.025,-0.285
2021-08-19 13:52:53.920,0.025,-0.255
2021-08-19 13:52:53.924,0.02,-0.25
2021-08-19 13:52:53.928,0.005,-0.23
2021-08-19 13:52:53.932,0.02,-0.24
2021-08-19 13:52:53.936,0.045,-0.205
2021-08-19 13:52:53.940,0.055,-0.24
2021-08-19 13:52:53.944,0.035,-0.23
2021-08-19 13:52:53.948,0.05,-0.24
2021-08-19 13:52:53.952,0.035,-0.24
2021-08-19 13:52:53.956,0.035,-0.22
2021-08-19 13:52:53.960,0.02,-0.215
2021-08-19 13:52:53.964,0.04,-0.2
2021-08-19 13:52:53.968,0.04,-0.185
2021-08-19 13:52:53.972,0.065,-0.185
2021-08-19 13:52:53.976,0.085,-0.19
2021-08-19 13:52:53.980,0.12,-0.18
2021-08-19 13:52:53.984,0.13,-0.21
2021-08-19 13:52:53.988,0.15,-0.195
2021-08-19 13:52:53.992,0.15,-0.21
2021-08-19 13:52:53.996,0.14,-0.2
2021-08-19 13:52:54.000,0.135,-0.175
2021-08-19 13:52:54.004,0.13,-0.185
2021-08-19 13:52:54.008,0.16,-0.165
2021-08-19 13:52:54.012,0.185,-0.16
2021-08-19 13:52:54.016,0.215,-0.15
2021-08-19 13:52:54.020,0.23,-0.145
2021-08-19 13:52:54.024,0.245,-0.14
2021-08-19 13:52:54.028,0.215,-0.165
2021-08-19 13:52:54.032,0.24,-0.175
2021-08-19 13:52:54.036,0.23,-0.145
2021-08-19 13:52:54.040,0.235,-0.185
2021-08-19 13:52:54.044,0.22,-0.18
2021-08-19 13:52:54.048,0.21,-0.18
2021-08-19 13:52:54.052,0.23,-0.18
2021-08-19 13:52:54.056,0.23,-0.17
2021-08-19 13:52:54.060,0.245,-0.14
2021-08-19 13:52:54.064,0.245,-0.14
2021-08-19 13:52:54.068,0.25,-0.16
2021-08-19 13:52:54.072,0.26,-0.155
2021-08-19 13:52:54.076,0.26,-0.145
2021-08-19 13:52:54.080,0.275,-0.105
2021-08-19 13:52:54.084,0.27,-0.1
2021-08-19 13:52:54.088,0.305,-0.08
2021-08-19 13:52:54.092,0.345,-0.06
2021-08-19 13:52:54.096,0.505,0.01
2021-08-19 13:52:54.100,0.755,0.175
2021-08-19 13:52:54.104,1.02,0.43
2021-08-19 13:52:54.108,0.99,0.645
2021-08-19 13:52:54.112,0.44,0.775
2021-08-19 13:52:54.116,-0.32,0.725
2021-08-19 13:52:54.120,-1.045,0.44
2021-08-19 13:52:54.124,-1.46,0.165
2021-08-19 13:52:54.128,-1.71,0.035
2021-08-19 13:52:54.132,-1.895,0.04
2021-08-19 13:52:54.136,-1.815,0.1
2021-08-19 13:52:54.140,-1.475,0.12
2021-08-19 13:52:54.144,-1.035,0.09
2021-08-19 13:52:54.148,-0.605,-0.015
2021-08-19 13:52:54.152,-0.4,-0.12
2021-08-19 13:52:54.156,-0.23,-0.205
2021-08-19 13:52:54.160,-0.135,-0.25
2021-08-19 13:52:54.164,-0.08,-0.3
2021-08-19 13:52:54.168,-0.04,-0.305
2021-08-19 13:52:54.172,-0.01,-0.3
2021-08-19 13:52:54.176,-0.04,-0.315
2021-08-19 13:52:54.180,-0.01,-0.32
2021-08-19 13:52:54.184,0.0,-0.315
2021-08-19 13:52:54.188,0.02,-0.34
2021-08-19 13:52:54.192,0.02,-0.365
2021-08-19 13:52:54.196,0.065,-0.38
2021-08-19 13:52:54.200,0.045,-0.395
2021-08-19 13:52:54.204,0.045,-0.38
2021-08-19 13:52:54.208,0.025,-0.395
2021-08-19 13:52:54.212,0.0,-0.435
2021-08-19 13:52:54.216,0.0,-0.42
2021-08-19 13:52:54.220,0.015,-0.4
2021-08-19 13:52:54.224,0.04,-0.39
2021-08-19 13:52:54.228,0.04,-0.38
2021-08-19 13:52:54.232,0.045,-0.37
2021-08-19 13:52:54.236,0.045,-0.39
2021-08-19 13:52:54.240,0.04,-0.395
2021-08-19 13:52:54.244,0.04,-0.41
2021-08-19 13:52:54.248,0.04,-0.41
2021-08-19 13:52:54.252,0.015,-0.395
2021-08-19 13:52:54.256,0.02,-0.4
2021-08-19 13:52:54.260,0.025,-0.395
2021-08-19 13:52:54.264,0.03,-0.375
2021-08-19 13:52:54.268,0.065,-0.375
2021-08-19 13:52:54.272,0.065,-0.365
2021-08-19 13:52:54.276,0.08,-0.345
2021-08-19 13:52:54.280,0.085,-0.32
2021-08-19 13:52:54.284,0.095,-0.315
2021-08-19 13:52:54.288,0.095,-0.335
2021-08-19 13:52:54.292,0.09,-0.325
2021-08-19 13:52:54.296,0.105,-0.335
2021-08-19 13:52:54.300,0.125,-0.335
2021-08-19 13:52:54.304,0.14,-0.285
2021-08-19 13:52:54.308,0.165,-0.24
2021-08-19 13:52:54.312,0.18,-0.245
2021-08-19 13:52:54.316,0.19,-0.25
2021-08-19 13:52:54.320,0.205,-0.24
2021-08-19 13:52:54.324,0.215,-0.245
2021-08-19 13:52:54.328,0.205,-0.28
2021-08-19 13:52:54.332,0.205,-0.27
2021-08-19 13:52:54.336,0.185,-0.275
2021-08-19 13:52:54.340,0.185,-0.245
2021-08-19 13:52:54.344,0.17,-0.235
2021-08-19 13:52:54.348,0.17,-0.235
2021-08-19 13:52:54.352,0.195,-0.2
2021-08-19 13:52:54.356,0.215,-0.18
2021-08-19 13:52:54.360,0.255,-0.17
2021-08-19 13:52:54.364,0.265,-0.18
2021-08-19 13:52:54.368,0.255,-0.195
2021-08-19 13:52:54.372,0.24,-0.195
2021-08-19 13:52:54.376,0.215,-0.195
2021-08-19 13:52:54.380,0.19,-0.175
2021-08-19 13:52:54.384,0.2,-0.185
2021-08-19 13:52:54.388,0.2,-0.15
2021-08-19 13:52:54.392,0.16,-0.1
2021-08-19 13:52:54.396,0.18,-0.09
2021-08-19 13:52:54.400,0.2,-0.085
2021-08-19 13:52:54.404,0.2,-0.115
2021-08-19 13:52:54.408,0.165,-0.115
2021-08-19 13:52:54.412,0.155,-0.12
2021-08-19 13:52:54.416,0.15,-0.12
2021-08-19 13:52:54.420,0.155,-0.125
2021-08-19 13:52:54.424,0.15,-0.13
2021-08-19 13:52:54.428,0.15,-0.115
2021-08-19 13:52:54.432,0.165,-0.13
2021-08-19 13:52:54.436,0.165,-0.16
2021-08-19 13:52:54.440,0.22,-0.165
2021-08-19 13:52:54.444,0.3,-0.16
2021-08-19 13:52:54.448,0.46,-0.1
2021-08-19 13:52:54.452,0.63,0.015
2021-08-19 13:52:54.456,0.92,0.23
2021-08-19 13:52:54.460,1.1,0.4
2021-08-19 13:52:54.464,0.82,0.485
2021-08-19 13:52:54.468,0.155,0.405
2021-08-19 13:52:54.472,-0.63,0.16
2021-08-19 13:52:54.476,-1.205,-0.075
2021-08-19 13:52:54.480,-1.65,-0.115
2021-08-19 13:52:54.484,-1.94,-0.05
2021-08-19 13:52:54.488,-1.88,0.005
2021-08-19 13:52:54.492,-1.525,0.015
2021-08-19 13:52:54.496,-1.06,-0.055
2021-08-19 13:52:54.500,-0.705,-0.19
2021-08-19 13:52:54.504,-0.455,-0.3
2021-08-19 13:52:54.508,-0.29,-0.345
2021-08-19 13:52:54.512,-0.17,-0.355
2021-08-19 13:52:54.516,-0.085,-0.38
2021-08-19 13:52:54.520,-0.06,-0.375
2021-08-19 13:52:54.524,-0.06,-0.385
2021-08-19 13:52:54.528,-0.015,-0.405
2021-08-19 13:52:54.532,0.005,-0.445
2021-08-19 13:52:54.536,0.025,-0.44
2021-08-19 13:52:54.540,0.045,-0.435
2021-08-19 13:52:54.544,0.02,-0.425
2021-08-19 13:52:54.548,-0.01,-0.43
2021-08-19 13:52:54.552,-0.05,-0.435
2021-08-19 13:52:54.556,-0.005,-0.415
2021-08-19 13:52:54.560,0.0,-0.415
2021-08-19 13:52:54.564,0.02,-0.395
2021-08-19 13:52:54.568,0.05,-0.395
2021-08-19 13:52:54.572,0.07,-0.395
2021-08-19 13:52:54.576,0.07,-0.36
2021-08-19 13:52:54.580,0.095,-0.355
2021-08-19 13:52:54.584,0.11,-0.36
2021-08-19 13:52:54.588,0.105,-0.355
2021-08-19 13:52:54.592,0.105,-0.355
2021-08-19 13:52:54.596,0.1,-0.37
2021-08-19 13:52:54.600,0.14,-0.36
2021-08-19 13:52:54.604,0.145,-0.345
2021-08-19 13:52:54.608,0.17,-0.31
2021-08-19 13:52:54.612,0.195,-0.32
2021-08-19 13:52:54.616,0.205,-0.32
2021-08-19 13:52:54.620,0.175,-0.345
2021-08-19 13:52:54.624,0.205,-0.355
2021-08-19 13:52:54.628,0.2,-0.37
2021-08-19 13:52:54.632,0.19,-0.36
2021-08-19 13:52:54.636,0.175,-0.375
2021-08-19 13:52:54.640,0.195,-0.35
2021-08-19 13:52:54.644,0.195,-0.31
2021-08-19 13:52:54.648,0.205,-0.305
2021-08-19 13:52:54.652,0.245,-0.3
2021-08-19 13:52:54.656,0.26,-0.305
2021-08-19 13:52:54.660,0.265,-0.315
2021-08-19 13:52:54.664,0.235,-0.31
2021-08-19 13:52:54.668,0.225,-0.31
2021-08-19 13:52:54.672,0.245,-0.31
2021-08-19 13:52:54.676,0.225,-0.295
2021-08-19 13:52:54.680,0.185,-0.265
2021-08-19 13:52:54.684,0.2,-0.24
2021-08-19 13:52:54.688,0.215,-0.26
2021-08-19 13:52:54.692,0.24,-0.265
2021-08-19 13:52:54.696,0.225,-0.255
2021-08-19 13:52:54.700,0.24,-0.215
2021-08-19 13:52:54.704,0.245,-0.235
2021-08-19 13:52:54.708,0.235,-0.245
2021-08-19 13:52:54.712,0.22,-0.215
2021-08-19 13:52:54.716,0.235,-0.22
2021-08-19 13:52:54.720,0.235,-0.195
2021-08-19 13:52:54.724,0.255,-0.21
2021-08-19 13:52:54.728,0.265,-0.2
2021-08-19 13:52:54.732,0.305,-0.205
2021-08-19 13:52:54.736,0.31,-0.215
2021-08-19 13:52:54.740,0.315,-0.2
2021-08-19 13:52:54.744,0.31,-0.205
2021-08-19 13:52:54.748,0.32,-0.205
2021-08-19 13:52:54.752,0.295,-0.205
2021-08-19 13:52:54.756,0.27,-0.21
2021-08-19 13:52:54.760,0.295,-0.23
2021-08-19 13:52:54.764,0.26,-0.24
2021-08-19 13:52:54.768,0.28,-0.255
2021-08-19 13:52:54.772,0.28,-0.245
2021-08-19 13:52:54.776,0.255,-0.23
2021-08-19 13:52:54.780,0.26,-0.23
2021-08-19 13:52:54.784,0.24,-0.265
2021-08-19 13:52:54.788,0.215,-0.28
2021-08-19 13:52:54.792,0.195,-0.315
2021-08-19 13:52:54.796,0.175,-0.315
2021-08-19 13:52:54.800,0.14,-0.31
2021-08-19 13:52:54.804,0.135,-0.305
2021-08-19 13:52:54.808,0.13,-0.315
2021-08-19 13:52:54.812,0.14,-0.325
2021-08-19 13:52:54.816,0.13,-0.335
2021-08-19 13:52:54.820,0.135,-0.35
2021-08-19 13:52:54.824,0.145,-0.335
2021-08-19 13:52:54.828,0.145,-0.345
2021-08-19 13:52:54.832,0.145,-0.36
2021-08-19 13:52:54.836,0.11,-0.395
2021-08-19 13:52:54.840,0.1,-0.39
2021-08-19 13:52:54.844,0.08,-0.395
2021-08-19 13:52:54.848,0.085,-0.37
2021-08-19 13:52:54.852,0.08,-0.365
2021-08-19 13:52:54.856,0.085,-0.37
2021-08-19 13:52:54.860,0.095,-0.38
2021-08-19 13:52:54.864,0.1,-0.37
2021-08-19 13:52:54.868,0.095,-0.39
2021-08-19 13:52:54.872,0.105,-0.38
2021-08-19 13:52:54.876,0.1,-0.38
2021-08-19 13:52:54.880,0.09,-0.38
2021-08-19 13:52:54.884,0.04,-0.395
2021-08-19 13:52:54.888,0.05,-0.37
2021-08-19 13:52:54.892,0.065,-0.34
2021-08-19 13:52:54.896,0.07,-0.385
2021-08-19 13:52:54.900,0.055,-0.395
2021-08-19 13:52:54.904,0.06,-0.415
2021-08-19 13:52:54.908,0.085,-0.4
2021-08-19 13:52:54.912,0.07,-0.4
2021-08-19 13:52:54.916,0.07,-0.4
2021-08-19 13:52:54.920,0.055,-0.415
2021-08-19 13:52:54.924,0.04,-0.39
2021-08-19 13:52:54.928,0.035,-0.405
2021-08-19 13:52:54.932,0.025,-0.4
2021-08-19 13:52:54.936,0.02,-0.38
2021-08-19 13:52:54.940,0.04,-0.385
2021-08-19 13:52:54.944,0.075,-0.4
2021-08-19 13:52:54.948,0.065,-0.4
2021-08-19 13:52:54.952,0.095,-0.385
2021-08-19 13:52:54.956,0.085,-0.355
2021-08-19 13:52:54.960,0.08,-0.37
2021-08-19 13:52:54.964,0.06,-0.345
2021-08-19 13:52:54.968,0.045,-0.335
2021-08-19 13:52:54.972,0.06,-0.305
2021-08-19 13:52:54.976,0.07,-0.29
2021-08-19 13:52:54.980,0.075,-0.26
2021-08-19 13:52:54.984,0.095,-0.215
2021-08-19 13:52:54.988,0.115,-0.185
2021-08-19 13:52:54.992,0.13,-0.185
2021-08-19 13:52:54.996,0.175,-0.225
2021-08-19 13:52:55.000,0.245,-0.27
2021-08-19 13:52:55.004,0.32,-0.295
2021-08-19 13:52:55.008,0.44,-0.225
2021-08-19 13:52:55.012,0.525,-0.08
2021-08-19 13:52:55.016,0.74,0.155
2021-08-19 13:52:55.020,1.005,0.4
2021-08-19 13:52:55.024,0.885,0.525
2021-08-19 13:52:55.028,0.395,0.475
2021-08-19 13:52:55.032,-0.215,0.24
2021-08-19 13:52:55.036,-0.8,0.015
2021-08-19 13:52:55.040,-1.22,-0.15
2021-08-19 13:52:55.044,-1.44,-0.155
2021-08-19 13:52:55.048,-1.495,-0.035
2021-08-19 13:52:55.052,-1.275,-0.025
2021-08-19 13:52:55.056,-0.895,-0.1
2021-08-19 13:52:55.060,-0.56,-0.175
2021-08-19 13:52:55.064,-0.36,-0.25
2021-08-19 13:52:55.068,-0.16,-0.3
2021-08-19 13:52:55.072,-0.06,-0.355
2021-08-19 13:52:55.076,0.015,-0.37
2021-08-19 13:52:55.080,0.025,-0.38
2021-08-19 13:52:55.084,0.035,-0.39
2021-08-19 13:52:55.088,0.005,-0.44
2021-08-19 13:52:55.092,0.02,-0.42
2021-08-19 13:52:55.096,0.035,-0.44
2021-08-19 13:52:55.100,0.04,-0.425
2021-08-19 13:52:55.104,0.065,-0.4
2021-08-19 13:52:55.108,0.07,-0.385
2021-08-19 13:52:55.112,0.07,-0.39
2021-08-19 13:52:55.116,0.085,-0.41
2021-08-19 13:52:55.120,0.085,-0.445
2021-08-19 13:52:55.124,0.075,-0.44
2021-08-19 13:52:55.128,0.06,-0.44
2021-08-19 13:52:55.132,0.07,-0.415
2021-08-19 13:52:55.136,0.06,-0.425
2021-08-19 13:52:55.140,0.06,-0.395
2021-08-19 13:52:55.144,0.09,-0.41
2021-08-19 13:52:55.148,0.095,-0.415
2021-08-19 13:52:55.152,0.11,-0.42
2021-08-19 13:52:55.156,0.14,-0.44
2021-08-19 13:52:55.160,0.125,-0.435
2021-08-19 13:52:55.164,0.13,-0.44
2021-08-19 13:52:55.168,0.1,-0.42
2021-08-19 13:52:55.172,0.1,-0.44
2021-08-19 13:52:55.176,0.1,-0.435
2021-08-19 13:52:55.180,0.11,-0.425
2021-08-19 13:52:55.184,0.105,-0.42
2021-08-19 13:52:55.188,0.11,-0.4
2021-08-19 13:52:55.192,0.13,-0.415
2021-08-19 13:52:55.196,0.12,-0.43
2021-08-19 13:52:55.200,0.16,-0.435
2021-08-19 13:52:55.204,0.145,-0.42
2021-08-19 13:52:55.208,0.135,-0.395
2021-08-19 13:52:55.212,0.115,-0.385
2021-08-19 13:52:55.216,0.115,-0.415
2021-08-19 13:52:55.220,0.115,-0.42
2021-08-19 13:52:55.224,0.095,-0.44
2021-08-19 13:52:55.228,0.11,-0.43
2021-08-19 13:52:55.232,0.105,-0.43
2021-08-19 13:52:55.236,0.15,-0.425
2021-08-19 13:52:55.240,0.14,-0.415
2021-08-19 13:52:55.244,0.12,-0.42
2021-08-19 13:52:55.248,0.11,-0.43
2021-08-19 13:52:55.252,0.075,-0.45
2021-08-19 13:52:55.256,0.065,-0.46
2021-08-19 13:52:55.260,0.065,-0.425
2021-08-19 13:52:55.264,0.085,-0.435
2021-08-19 13:52:55.268,0.085,-0.43
2021-08-19 13:52:55.272,0.1,-0.395
2021-08-19 13:52:55.276,0.115,-0.355
2021-08-19 13:52:55.280,0.125,-0.35
2021-08-19 13:52:55.284,0.125,-0.39
2021-08-19 13:52:55.288,0.105,-0.37
2021-08-19 13:52:55.292,0.13,-0.375
2021-08-19 13:52:55.296,0.12,-0.38
2021-08-19 13:52:55.300,0.115,-0.36
2021-08-19 13:52:55.304,0.12,-0.315
2021-08-19 13:52:55.308,0.125,-0.285
2021-08-19 13:52:55.312,0.15,-0.28
2021-08-19 13:52:55.316,0.155,-0.255
2021-08-19 13:52:55.320,0.195,-0.255
2021-08-19 13:52:55.324,0.225,-0.23
2021-08-19 13:52:55.328,0.205,-0.235
2021-08-19 13:52:55.332,0.225,-0.235
2021-08-19 13:52:55.336,0.225,-0.215
2021-08-19 13:52:55.340,0.215,-0.195
2021-08-19 13:52:55.344,0.23,-0.195
2021-08-19 13:52:55.348,0.24,-0.18
2021-08-19 13:52:55.352,0.24,-0.145
2021-08-19 13:52:55.356,0.285,-0.155
2021-08-19 13:52:55.360,0.295,-0.155
2021-08-19 13:52:55.364,0.3,-0.195
2021-08-19 13:52:55.368,0.31,-0.205
2021-08-19 13:52:55.372,0.3,-0.215
2021-08-19 13:52:55.376,0.28,-0.22
2021-08-19 13:52:55.380,0.265,-0.205
2021-08-19 13:52:55.384,0.285,-0.2
2021-08-19 13:52:55.388,0.245,-0.18
2021-08-19 13:52:55.392,0.255,-0.22
2021-08-19 13:52:55.396,0.27,-0.24
2021-08-19 13:52:55.400,0.29,-0.225
2021-08-19 13:52:55.404,0.295,-0.23
2021-08-19 13:52:55.408,0.295,-0.245
2021-08-19 13:52:55.412,0.275,-0.235
2021-08-19 13:52:55.416,0.23,-0.235
2021-08-19 13:52:55.420,0.21,-0.26
2021-08-19 13:52:55.424,0.205,-0.255
2021-08-19 13:52:55.428,0.22,-0.26
2021-08-19 13:52:55.432,0.22,-0.245
2021-08-19 13:52:55.436,0.2,-0.21
2021-08-19 13:52:55.440,0.215,-0.245
2021-08-19 13:52:55.444,0.21,-0.26
2021-08-19 13:52:55.448,0.235,-0.275
2021-08-19 13:52:55.452,0.225,-0.295
2021-08-19 13:52:55.456,0.195,-0.28
2021-08-19 13:52:55.460,0.18,-0.29
2021-08-19 13:52:55.464,0.155,-0.3
2021-08-19 13:52:55.468,0.16,-0.275
2021-08-19 13:52:55.472,0.17,-0.255
2021-08-19 13:52:55.476,0.165,-0.26
2021-08-19 13:52:55.480,0.175,-0.25
2021-08-19 13:52:55.484,0.175,-0.24
2021-08-19 13:52:55.488,0.16,-0.285
2021-08-19 13:52:55.492,0.165,-0.31
2021-08-19 13:52:55.496,0.15,-0.32
2021-08-19 13:52:55.500,0.13,-0.33
2021-08-19 13:52:55.504,0.115,-0.35
2021-08-19 13:52:55.508,0.115,-0.33
2021-08-19 13:52:55.512,0.125,-0.29
2021-08-19 13:52:55.516,0.13,-0.32
2021-08-19 13:52:55.520,0.135,-0.305
2021-08-19 13:52:55.524,0.11,-0.3
2021-08-19 13:52:55.528,0.13,-0.315
2021-08-19 13:52:55.532,0.155,-0.315
2021-08-19 13:52:55.536,0.135,-0.315
2021-08-19 13:52:55.540,0.095,-0.3
2021-08-19 13:52:55.544,0.1,-0.295
2021-08-19 13:52:55.548,0.085,-0.275
2021-08-19 13:52:55.552,0.1,-0.29
2021-08-19 13:52:55.556,0.09,-0.285
2021-08-19 13:52:55.560,0.115,-0.3
2021-08-19 13:52:55.564,0.135,-0.32
2021-08-19 13:52:55.568,0.13,-0.33
2021-08-19 13:52:55.572,0.135,-0.315
2021-08-19 13:52:55.576,0.11,-0.285
2021-08-19 13:52:55.580,0.105,-0.265
2021-08-19 13:52:55.584,0.09,-0.29
2021-08-19 13:52:55.588,0.08,-0.305
2021-08-19 13:52:55.592,0.095,-0.33
2021-08-19 13:52:55.596,0.11,-0.32
2021-08-19 13:52:55.600,0.115,-0.32
2021-08-19 13:52:55.604,0.13,-0.335
2021-08-19 13:52:55.608,0.13,-0.31
2021-08-19 13:52:55.612,0.1,-0.31
2021-08-19 13:52:55.616,0.095,-0.32
2021-08-19 13:52:55.620,0.08,-0.33
2021-08-19 13:52:55.624,0.07,-0.315
2021-08-19 13:52:55.628,0.08,-0.32
2021-08-19 13:52:55.632,0.085,-0.295
2021-08-19 13:52:55.636,0.105,-0.28
2021-08-19 13:52:55.640,0.115,-0.28
2021-08-19 13:52:55.644,0.1,-0.28
2021-08-19 13:52:55.648,0.11,-0.275
2021-08-19 13:52:55.652,0.115,-0.305
2021-08-19 13:52:55.656,0.12,-0.31
2021-08-19 13:52:55.660,0.11,-0.3
2021-08-19 13:52:55.664,0.1,-0.29
2021-08-19 13:52:55.668,0.08,-0.31
2021-08-19 13:52:55.672,0.08,-0.305
2021-08-19 13:52:55.676,0.11,-0.31
2021-08-19 13:52:55.680,0.115,-0.315
2021-08-19 13:52:55.684,0.135,-0.265
2021-08-19 13:52:55.688,0.125,-0.27
2021-08-19 13:52:55.692,0.145,-0.295
2021-08-19 13:52:55.696,0.12,-0.3
2021-08-19 13:52:55.700,0.095,-0.295
2021-08-19 13:52:55.704,0.095,-0.3
2021-08-19 13:52:55.708,0.09,-0.3
2021-08-19 13:52:55.712,0.115,-0.29
2021-08-19 13:52:55.716,0.125,-0.315
2021-08-19 13:52:55.720,0.115,-0.3
2021-08-19 13:52:55.724,0.13,-0.285
2021-08-19 13:52:55.728,0.155,-0.26
2021-08-19 13:52:55.732,0.145,-0.285
2021-08-19 13:52:55.736,0.14,-0.305
2021-08-19 13:52:55.740,0.135,-0.275
2021-08-19 13:52:55.744,0.105,-0.28
2021-08-19 13:52:55.748,0.115,-0.3
2021-08-19 13:52:55.752,0.11,-0.295
2021-08-19 13:52:55.756,0.1,-0.275
2021-08-19 13:52:55.760,0.115,-0.255
2021-08-19 13:52:55.764,0.145,-0.285
2021-08-19 13:52:55.768,0.16,-0.305
2021-08-19 13:52:55.772,0.165,-0.275
2021-08-19 13:52:55.776,0.165,-0.295
2021-08-19 13:52:55.780,0.13,-0.28
2021-08-19 13:52:55.784,0.105,-0.29
2021-08-19 13:52:55.788,0.12,-0.28
2021-08-19 13:52:55.792,0.13,-0.27
2021-08-19 13:52:55.796,0.115,-0.26
2021-08-19 13:52:55.800,0.1,-0.295
