Time,ECG1,ECG2
2021-08-19 23:00:08.716,-0.505,0.255
2021-08-19 23:00:08.720,-0.51,0.21
2021-08-19 23:00:08.724,-0.52,0.185
2021-08-19 23:00:08.728,-0.49,0.165
2021-08-19 23:00:08.732,-0.525,0.16
2021-08-19 23:00:08.736,-0.515,0.155
2021-08-19 23:00:08.740,-0.495,0.13
2021-08-19 23:00:08.744,-0.49,0.085
2021-08-19 23:00:08.748,-0.46,0.105
2021-08-19 23:00:08.752,-0.45,0.075
2021-08-19 23:00:08.756,-0.455,0.07
2021-08-19 23:00:08.760,-0.445,0.075
2021-08-19 23:00:08.764,-0.43,0.095
2021-08-19 23:00:08.768,-0.415,0.09
2021-08-19 23:00:08.772,-0.4,0.1
2021-08-19 23:00:08.776,-0.39,0.09
2021-08-19 23:00:08.780,-0.365,0.1
2021-08-19 23:00:08.784,-0.365,0.085
2021-08-19 23:00:08.788,-0.345,0.09
2021-08-19 23:00:08.792,-0.33,0.085
2021-08-19 23:00:08.796,-0.315,0.08
2021-08-19 23:00:08.800,-0.315,0.1
2021-08-19 23:00:08.804,-0.335,0.09
2021-08-19 23:00:08.808,-0.315,0.105
2021-08-19 23:00:08.812,-0.32,0.13
2021-08-19 23:00:08.816,-0.32,0.115
2021-08-19 23:00:08.820,-0.31,0.09
2021-08-19 23:00:08.824,-0.3,0.13
2021-08-19 23:00:08.828,-0.285,0.145
2021-08-19 23:00:08.832,-0.26,0.13
2021-08-19 23:00:08.836,-0.255,0.11
2021-08-19 23:00:08.840,-0.235,0.14
2021-08-19 23:00:08.844,-0.23,0.14
2021-08-19 23:00:08.848,-0.195,0.14
2021-08-19 23:00:08.852,-0.16,0.17
2021-08-19 23:00:08.856,-0.16,0.18
2021-08-19 23:00:08.860,-0.12,0.185
2021-08-19 23:00:08.864,-0.065,0.185
2021-08-19 23:00:08.868,0.015,0.2
2021-08-19 23:00:08.872,0.095,0.215
2021-08-19 23:00:08.876,0.13,0.205
2021-08-19 23:00:08.880,0.135,0.16
2021-08-19 23:00:08.884,0.12,0.155
2021-08-19 23:00:08.888,0.065,0.145
2021-08-19 23:00:08.892,-0.045,0.125
2021-08-19 23:00:08.896,-0.145,0.06
2021-08-19 23:00:08.900,-0.16,-0.005
2021-08-19 23:00:08.904,0.085,-0.135
2021-08-19 23:00:08.908,0.43,-0.39
2021-08-19 23:00:08.912,0.8,-0.735
2021-08-19 23:00:08.916,1.07,-0.99
2021-08-19 23:00:08.920,1.16,-1.07
2021-08-19 23:00:08.924,1.035,-0.86
2021-08-19 23:00:08.928,0.64,-0.465
2021-08-19 23:00:08.932,0.165,-0.03
2021-08-19 23:00:08.936,-0.115,0.24
2021-08-19 23:00:08.940,-0.24,0.33
2021-08-19 23:00:08.944,-0.3,0.365
2021-08-19 23:00:08.948,-0.34,0.375
2021-08-19 23:00:08.952,-0.355,0.36
2021-08-19 23:00:08.956,-0.37,0.35
2021-08-19 23:00:08.960,-0.375,0.315
2021-08-19 23:00:08.964,-0.41,0.29
2021-08-19 23:00:08.968,-0.4,0.245
2021-08-19 23:00:08.972,-0.41,0.215
2021-08-19 23:00:08.976,-0.41,0.195
2021-08-19 23:00:08.980,-0.415,0.21
2021-08-19 23:00:08.984,-0.445,0.19
2021-08-19 23:00:08.988,-0.435,0.18
2021-08-19 23:00:08.992,-0.485,0.18
2021-08-19 23:00:08.996,-0.52,0.175
2021-08-19 23:00:09.000,-0.525,0.165
2021-08-19 23:00:09.004,-0.54,0.16
2021-08-19 23:00:09.008,-0.56,0.165
2021-08-19 23:00:09.012,-0.595,0.17
2021-08-19 23:00:09.016,-0.575,0.16
2021-08-19 23:00:09.020,-0.585,0.175
2021-08-19 23:00:09.024,-0.58,0.145
2021-08-19 23:00:09.028,-0.575,0.145
2021-08-19 23:00:09.032,-0.57,0.15
2021-08-19 23:00:09.036,-0.56,0.145
2021-08-19 23:00:09.040,-0.54,0.145
2021-08-19 23:00:09.044,-0.525,0.165
2021-08-19 23:00:09.048,-0.53,0.175
2021-08-19 23:00:09.052,-0.51,0.19
2021-08-19 23:00:09.056,-0.495,0.22
2021-08-19 23:00:09.060,-0.485,0.22
2021-08-19 23:00:09.064,-0.485,0.23
2021-08-19 23:00:09.068,-0.43,0.24
2021-08-19 23:00:09.072,-0.43,0.245
2021-08-19 23:00:09.076,-0.435,0.25
2021-08-19 23:00:09.080,-0.41,0.26
2021-08-19 23:00:09.084,-0.44,0.265
2021-08-19 23:00:09.088,-0.43,0.255
2021-08-19 23:00:09.092,-0.44,0.24
2021-08-19 23:00:09.096,-0.47,0.275
2021-08-19 23:00:09.100,-0.495,0.27
2021-08-19 23:00:09.104,-0.505,0.285
2021-08-19 23:00:09.108,-0.56,0.28
2021-08-19 23:00:09.112,-0.555,0.26
2021-08-19 23:00:09.116,-0.58,0.255
2021-08-19 23:00:09.120,-0.585,0.26
2021-08-19 23:00:09.124,-0.56,0.25
2021-08-19 23:00:09.128,-0.57,0.24
2021-08-19 23:00:09.132,-0.545,0.21
2021-08-19 23:00:09.136,-0.52,0.22
2021-08-19 23:00:09.140,-0.505,0.195
2021-08-19 23:00:09.144,-0.48,0.19
2021-08-19 23:00:09.148,-0.46,0.18
2021-08-19 23:00:09.152,-0.44,0.16
2021-08-19 23:00:09.156,-0.405,0.135
2021-08-19 23:00:09.160,-0.375,0.13
2021-08-19 23:00:09.164,-0.36,0.145
2021-08-19 23:00:09.168,-0.345,0.12
2021-08-19 23:00:09.172,-0.33,0.115
2021-08-19 23:00:09.176,-0.32,0.13
2021-08-19 23:00:09.180,-0.335,0.125
2021-08-19 23:00:09.184,-0.32,0.13
2021-08-19 23:00:09.188,-0.315,0.12
2021-08-19 23:00:09.192,-0.315,0.115
2021-08-19 23:00:09.196,-0.31,0.11
2021-08-19 23:00:09.200,-0.32,0.115
2021-08-19 23:00:09.204,-0.325,0.125
2021-08-19 23:00:09.208,-0.295,0.095
2021-08-19 23:00:09.212,-0.315,0.105
2021-08-19 23:00:09.216,-0.305,0.115
2021-08-19 23:00:09.220,-0.335,0.095
2021-08-19 23:00:09.224,-0.315,0.125
2021-08-19 23:00:09.228,-0.29,0.115
2021-08-19 23:00:09.232,-0.285,0.105
2021-08-19 23:00:09.236,-0.28,0.085
2021-08-19 23:00:09.240,-0.275,0.105
2021-08-19 23:00:09.244,-0.25,0.11
2021-08-19 23:00:09.248,-0.255,0.12
2021-08-19 23:00:09.252,-0.27,0.145
2021-08-19 23:00:09.256,-0.255,0.14
2021-08-19 23:00:09.260,-0.255,0.14
2021-08-19 23:00:09.264,-0.235,0.16
2021-08-19 23:00:09.268,-0.24,0.14
2021-08-19 23:00:09.272,-0.24,0.13
2021-08-19 23:00:09.276,-0.21,0.155
2021-08-19 23:00:09.280,-0.225,0.165
2021-08-19 23:00:09.284,-0.235,0.175
2021-08-19 23:00:09.288,-0.25,0.195
2021-08-19 23:00:09.292,-0.285,0.2
2021-08-19 23:00:09.296,-0.3,0.22
2021-08-19 23:00:09.300,-0.315,0.22
2021-08-19 23:00:09.304,-0.335,0.25
2021-08-19 23:00:09.308,-0.345,0.225
2021-08-19 23:00:09.312,-0.375,0.25
2021-08-19 23:00:09.316,-0.38,0.275
2021-08-19 23:00:09.320,-0.395,0.26
2021-08-19 23:00:09.324,-0.4,0.265
2021-08-19 23:00:09.328,-0.385,0.26
2021-08-19 23:00:09.332,-0.405,0.23
2021-08-19 23:00:09.336,-0.385,0.22
2021-08-19 23:00:09.340,-0.36,0.215
2021-08-19 23:00:09.344,-0.335,0.185
2021-08-19 23:00:09.348,-0.34,0.145
2021-08-19 23:00:09.352,-0.315,0.15
2021-08-19 23:00:09.356,-0.325,0.17
2021-08-19 23:00:09.360,-0.33,0.13
2021-08-19 23:00:09.364,-0.33,0.13
2021-08-19 23:00:09.368,-0.35,0.135
2021-08-19 23:00:09.372,-0.365,0.14
2021-08-19 23:00:09.376,-0.35,0.14
2021-08-19 23:00:09.380,-0.365,0.125
2021-08-19 23:00:09.384,-0.36,0.11
2021-08-19 23:00:09.388,-0.33,0.105
2021-08-19 23:00:09.392,-0.33,0.1
2021-08-19 23:00:09.396,-0.315,0.115
2021-08-19 23:00:09.400,-0.29,0.115
2021-08-19 23:00:09.404,-0.29,0.115
2021-08-19 23:00:09.408,-0.295,0.13
2021-08-19 23:00:09.412,-0.275,0.11
2021-08-19 23:00:09.416,-0.28,0.135
2021-08-19 23:00:09.420,-0.295,0.115
2021-08-19 23:00:09.424,-0.265,0.125
2021-08-19 23:00:09.428,-0.265,0.135
2021-08-19 23:00:09.432,-0.245,0.135
2021-08-19 23:00:09.436,-0.22,0.16
2021-08-19 23:00:09.440,-0.23,0.15
2021-08-19 23:00:09.444,-0.235,0.135
2021-08-19 23:00:09.448,-0.24,0.19
2021-08-19 23:00:09.452,-0.235,0.185
2021-08-19 23:00:09.456,-0.225,0.185
2021-08-19 23:00:09.460,-0.23,0.165
2021-08-19 23:00:09.464,-0.23,0.175
2021-08-19 23:00:09.468,-0.23,0.17
2021-08-19 23:00:09.472,-0.19,0.155
2021-08-19 23:00:09.476,-0.16,0.175
2021-08-19 23:00:09.480,-0.095,0.175
2021-08-19 23:00:09.484,-0.035,0.165
2021-08-19 23:00:09.488,-0.02,0.155
2021-08-19 23:00:09.492,0.015,0.105
2021-08-19 23:00:09.496,0.015,0.07
2021-08-19 23:00:09.500,0.02,0.08
2021-08-19 23:00:09.504,0.025,0.09
2021-08-19 23:00:09.508,0.025,0.015
2021-08-19 23:00:09.512,-0.03,-0.04
2021-08-19 23:00:09.516,0.105,-0.185
2021-08-19 23:00:09.520,0.38,-0.43
2021-08-19 23:00:09.524,0.76,-0.725
2021-08-19 23:00:09.528,1.085,-1.01
2021-08-19 23:00:09.532,1.215,-1.135
2021-08-19 23:00:09.536,1.015,-0.985
2021-08-19 23:00:09.540,0.555,-0.615
2021-08-19 23:00:09.544,0.06,-0.21
2021-08-19 23:00:09.548,-0.225,0.04
2021-08-19 23:00:09.552,-0.39,0.175
2021-08-19 23:00:09.556,-0.465,0.215
2021-08-19 23:00:09.560,-0.49,0.215
2021-08-19 23:00:09.564,-0.53,0.225
2021-08-19 23:00:09.568,-0.555,0.22
2021-08-19 23:00:09.572,-0.58,0.18
2021-08-19 23:00:09.576,-0.57,0.17
2021-08-19 23:00:09.580,-0.58,0.135
2021-08-19 23:00:09.584,-0.6,0.11
2021-08-19 23:00:09.588,-0.61,0.115
2021-08-19 23:00:09.592,-0.625,0.11
2021-08-19 23:00:09.596,-0.605,0.115
2021-08-19 23:00:09.600,-0.605,0.09
2021-08-19 23:00:09.604,-0.58,0.075
2021-08-19 23:00:09.608,-0.585,0.1
2021-08-19 23:00:09.612,-0.57,0.085
2021-08-19 23:00:09.616,-0.55,0.09
2021-08-19 23:00:09.620,-0.53,0.1
2021-08-19 23:00:09.624,-0.505,0.125
2021-08-19 23:00:09.628,-0.555,0.115
2021-08-19 23:00:09.632,-0.55,0.11
2021-08-19 23:00:09.636,-0.575,0.135
2021-08-19 23:00:09.640,-0.575,0.145
2021-08-19 23:00:09.644,-0.61,0.135
2021-08-19 23:00:09.648,-0.615,0.14
2021-08-19 23:00:09.652,-0.61,0.145
2021-08-19 23:00:09.656,-0.615,0.145
2021-08-19 23:00:09.660,-0.625,0.145
2021-08-19 23:00:09.664,-0.645,0.145
2021-08-19 23:00:09.668,-0.635,0.175
2021-08-19 23:00:09.672,-0.685,0.185
2021-08-19 23:00:09.676,-0.7,0.175
2021-08-19 23:00:09.680,-0.715,0.17
2021-08-19 23:00:09.684,-0.735,0.16
2021-08-19 23:00:09.688,-0.77,0.16
2021-08-19 23:00:09.692,-0.78,0.155
2021-08-19 23:00:09.696,-0.78,0.175
2021-08-19 23:00:09.700,-0.8,0.165
2021-08-19 23:00:09.704,-0.795,0.155
2021-08-19 23:00:09.708,-0.765,0.125
2021-08-19 23:00:09.712,-0.76,0.14
2021-08-19 23:00:09.716,-0.76,0.115
2021-08-19 23:00:09.720,-0.715,0.085
2021-08-19 23:00:09.724,-0.705,0.085
2021-08-19 23:00:09.728,-0.67,0.065
2021-08-19 23:00:09.732,-0.64,0.045
2021-08-19 23:00:09.736,-0.635,0.035
2021-08-19 23:00:09.740,-0.635,0.02
2021-08-19 23:00:09.744,-0.645,0.01
2021-08-19 23:00:09.748,-0.63,0.0
2021-08-19 23:00:09.752,-0.625,0.0
2021-08-19 23:00:09.756,-0.64,-0.02
2021-08-19 23:00:09.760,-0.605,-0.025
2021-08-19 23:00:09.764,-0.565,-0.05
2021-08-19 23:00:09.768,-0.555,-0.03
2021-08-19 23:00:09.772,-0.57,-0.05
2021-08-19 23:00:09.776,-0.535,-0.05
2021-08-19 23:00:09.780,-0.535,-0.04
2021-08-19 23:00:09.784,-0.505,-0.075
2021-08-19 23:00:09.788,-0.49,-0.085
2021-08-19 23:00:09.792,-0.46,-0.08
2021-08-19 23:00:09.796,-0.44,-0.085
2021-08-19 23:00:09.800,-0.4,-0.095
2021-08-19 23:00:09.804,-0.37,-0.07
2021-08-19 23:00:09.808,-0.365,-0.045
2021-08-19 23:00:09.812,-0.34,-0.055
2021-08-19 23:00:09.816,-0.33,-0.035
2021-08-19 23:00:09.820,-0.325,-0.045
2021-08-19 23:00:09.824,-0.325,-0.02
2021-08-19 23:00:09.828,-0.33,-0.03
2021-08-19 23:00:09.832,-0.34,-0.015
2021-08-19 23:00:09.836,-0.31,-0.01
2021-08-19 23:00:09.840,-0.335,0.015
2021-08-19 23:00:09.844,-0.32,0.01
2021-08-19 23:00:09.848,-0.335,0.015
2021-08-19 23:00:09.852,-0.36,0.03
2021-08-19 23:00:09.856,-0.375,0.055
2021-08-19 23:00:09.860,-0.375,0.06
2021-08-19 23:00:09.864,-0.39,0.06
2021-08-19 23:00:09.868,-0.44,0.075
2021-08-19 23:00:09.872,-0.485,0.075
2021-08-19 23:00:09.876,-0.48,0.055
2021-08-19 23:00:09.880,-0.495,0.06
2021-08-19 23:00:09.884,-0.52,0.07
2021-08-19 23:00:09.888,-0.505,0.055
2021-08-19 23:00:09.892,-0.495,0.055
2021-08-19 23:00:09.896,-0.485,0.035
2021-08-19 23:00:09.900,-0.46,0.02
2021-08-19 23:00:09.904,-0.415,0.0
2021-08-19 23:00:09.908,-0.35,0.015
2021-08-19 23:00:09.912,-0.29,-0.025
2021-08-19 23:00:09.916,-0.175,-0.06
2021-08-19 23:00:09.920,-0.075,-0.095
2021-08-19 23:00:09.924,0.0,-0.145
2021-08-19 23:00:09.928,0.05,-0.19
2021-08-19 23:00:09.932,0.1,-0.2
2021-08-19 23:00:09.936,0.08,-0.185
2021-08-19 23:00:09.940,0.015,-0.21
2021-08-19 23:00:09.944,0.07,-0.26
2021-08-19 23:00:09.948,0.28,-0.41
2021-08-19 23:00:09.952,0.6,-0.635
2021-08-19 23:00:09.956,0.92,-0.975
2021-08-19 23:00:09.960,1.125,-1.24
2021-08-19 23:00:09.964,1.105,-1.225
2021-08-19 23:00:09.968,0.73,-0.98
2021-08-19 23:00:09.972,0.25,-0.585
2021-08-19 23:00:09.976,-0.075,-0.29
2021-08-19 23:00:09.980,-0.245,-0.145
2021-08-19 23:00:09.984,-0.335,-0.045
2021-08-19 23:00:09.988,-0.385,0.005
2021-08-19 23:00:09.992,-0.4,0.025
2021-08-19 23:00:09.996,-0.425,0.015
2021-08-19 23:00:10.000,-0.445,0.015
2021-08-19 23:00:10.004,-0.445,-0.01
2021-08-19 23:00:10.008,-0.44,0.0
2021-08-19 23:00:10.012,-0.44,-0.01
2021-08-19 23:00:10.016,-0.46,-0.03
2021-08-19 23:00:10.020,-0.44,-0.04
2021-08-19 23:00:10.024,-0.43,-0.025
2021-08-19 23:00:10.028,-0.46,-0.035
2021-08-19 23:00:10.032,-0.445,-0.015
2021-08-19 23:00:10.036,-0.45,-0.02
2021-08-19 23:00:10.040,-0.455,-0.035
2021-08-19 23:00:10.044,-0.475,-0.01
2021-08-19 23:00:10.048,-0.49,-0.025
2021-08-19 23:00:10.052,-0.53,0.0
2021-08-19 23:00:10.056,-0.54,0.0
2021-08-19 23:00:10.060,-0.55,0.0
2021-08-19 23:00:10.064,-0.6,0.015
2021-08-19 23:00:10.068,-0.645,0.0
2021-08-19 23:00:10.072,-0.65,0.0
2021-08-19 23:00:10.076,-0.655,0.0
2021-08-19 23:00:10.080,-0.64,-0.025
2021-08-19 23:00:10.084,-0.64,-0.02
2021-08-19 23:00:10.088,-0.63,-0.02
2021-08-19 23:00:10.092,-0.615,-0.03
2021-08-19 23:00:10.096,-0.62,-0.035
2021-08-19 23:00:10.100,-0.62,-0.04
2021-08-19 23:00:10.104,-0.605,-0.07
2021-08-19 23:00:10.108,-0.61,-0.065
2021-08-19 23:00:10.112,-0.605,-0.055
2021-08-19 23:00:10.116,-0.6,-0.08
2021-08-19 23:00:10.120,-0.59,-0.055
2021-08-19 23:00:10.124,-0.6,-0.05
2021-08-19 23:00:10.128,-0.585,-0.07
2021-08-19 23:00:10.132,-0.57,-0.1
2021-08-19 23:00:10.136,-0.58,-0.09
2021-08-19 23:00:10.140,-0.585,-0.12
2021-08-19 23:00:10.144,-0.57,-0.13
2021-08-19 23:00:10.148,-0.545,-0.145
2021-08-19 23:00:10.152,-0.54,-0.125
2021-08-19 23:00:10.156,-0.535,-0.12
2021-08-19 23:00:10.160,-0.5,-0.13
2021-08-19 23:00:10.164,-0.52,-0.135
2021-08-19 23:00:10.168,-0.475,-0.14
2021-08-19 23:00:10.172,-0.455,-0.155
2021-08-19 23:00:10.176,-0.44,-0.135
2021-08-19 23:00:10.180,-0.395,-0.12
2021-08-19 23:00:10.184,-0.36,-0.11
2021-08-19 23:00:10.188,-0.32,-0.13
2021-08-19 23:00:10.192,-0.285,-0.135
2021-08-19 23:00:10.196,-0.25,-0.1
2021-08-19 23:00:10.200,-0.235,-0.085
2021-08-19 23:00:10.204,-0.235,-0.06
2021-08-19 23:00:10.208,-0.22,-0.055
2021-08-19 23:00:10.212,-0.175,-0.045
2021-08-19 23:00:10.216,-0.195,-0.04
2021-08-19 23:00:10.220,-0.205,-0.035
2021-08-19 23:00:10.224,-0.185,-0.03
2021-08-19 23:00:10.228,-0.19,0.0
2021-08-19 23:00:10.232,-0.195,-0.005
2021-08-19 23:00:10.236,-0.22,0.01
2021-08-19 23:00:10.240,-0.235,0.02
2021-08-19 23:00:10.244,-0.25,0.005
2021-08-19 23:00:10.248,-0.26,0.025
2021-08-19 23:00:10.252,-0.295,0.025
2021-08-19 23:00:10.256,-0.315,0.03
2021-08-19 23:00:10.260,-0.35,0.06
2021-08-19 23:00:10.264,-0.39,0.045
2021-08-19 23:00:10.268,-0.42,0.075
2021-08-19 23:00:10.272,-0.425,0.045
2021-08-19 23:00:10.276,-0.425,0.065
2021-08-19 23:00:10.280,-0.41,0.065
2021-08-19 23:00:10.284,-0.405,0.045
2021-08-19 23:00:10.288,-0.385,0.035
2021-08-19 23:00:10.292,-0.35,0.02
2021-08-19 23:00:10.296,-0.33,0.01
2021-08-19 23:00:10.300,-0.29,-0.015
2021-08-19 23:00:10.304,-0.24,-0.01
2021-08-19 23:00:10.308,-0.14,-0.005
2021-08-19 23:00:10.312,-0.06,-0.07
2021-08-19 23:00:10.316,0.025,-0.09
2021-08-19 23:00:10.320,0.09,-0.11
2021-08-19 23:00:10.324,0.095,-0.135
2021-08-19 23:00:10.328,0.085,-0.11
2021-08-19 23:00:10.332,0.075,-0.145
2021-08-19 23:00:10.336,0.075,-0.23
2021-08-19 23:00:10.340,0.175,-0.35
2021-08-19 23:00:10.344,0.47,-0.535
2021-08-19 23:00:10.348,0.83,-0.835
2021-08-19 23:00:10.352,1.165,-1.155
2021-08-19 23:00:10.356,1.32,-1.295
2021-08-19 23:00:10.360,1.22,-1.21
2021-08-19 23:00:10.364,0.825,-0.85
2021-08-19 23:00:10.368,0.305,-0.415
2021-08-19 23:00:10.372,-0.06,-0.09
2021-08-19 23:00:10.376,-0.24,0.04
2021-08-19 23:00:10.380,-0.32,0.13
2021-08-19 23:00:10.384,-0.36,0.12
2021-08-19 23:00:10.388,-0.37,0.13
2021-08-19 23:00:10.392,-0.385,0.145
2021-08-19 23:00:10.396,-0.36,0.155
2021-08-19 23:00:10.400,-0.35,0.17
2021-08-19 23:00:10.404,-0.34,0.16
2021-08-19 23:00:10.408,-0.315,0.145
2021-08-19 23:00:10.412,-0.315,0.165
2021-08-19 23:00:10.416,-0.31,0.175
2021-08-19 23:00:10.420,-0.32,0.175
2021-08-19 23:00:10.424,-0.32,0.21
2021-08-19 23:00:10.428,-0.34,0.225
2021-08-19 23:00:10.432,-0.34,0.225
2021-08-19 23:00:10.436,-0.335,0.235
2021-08-19 23:00:10.440,-0.345,0.24
2021-08-19 23:00:10.444,-0.385,0.24
2021-08-19 23:00:10.448,-0.42,0.26
2021-08-19 23:00:10.452,-0.465,0.27
2021-08-19 23:00:10.456,-0.505,0.24
2021-08-19 23:00:10.460,-0.55,0.25
2021-08-19 23:00:10.464,-0.6,0.26
2021-08-19 23:00:10.468,-0.625,0.235
2021-08-19 23:00:10.472,-0.635,0.25
2021-08-19 23:00:10.476,-0.62,0.255
2021-08-19 23:00:10.480,-0.64,0.255
2021-08-19 23:00:10.484,-0.63,0.22
2021-08-19 23:00:10.488,-0.655,0.215
2021-08-19 23:00:10.492,-0.63,0.215
2021-08-19 23:00:10.496,-0.655,0.205
2021-08-19 23:00:10.500,-0.665,0.185
2021-08-19 23:00:10.504,-0.64,0.175
2021-08-19 23:00:10.508,-0.635,0.185
2021-08-19 23:00:10.512,-0.625,0.175
2021-08-19 23:00:10.516,-0.605,0.15
2021-08-19 23:00:10.520,-0.59,0.145
2021-08-19 23:00:10.524,-0.565,0.135
2021-08-19 23:00:10.528,-0.555,0.14
2021-08-19 23:00:10.532,-0.575,0.13
2021-08-19 23:00:10.536,-0.55,0.125
2021-08-19 23:00:10.540,-0.56,0.105
2021-08-19 23:00:10.544,-0.545,0.115
2021-08-19 23:00:10.548,-0.54,0.125
2021-08-19 23:00:10.552,-0.54,0.105
2021-08-19 23:00:10.556,-0.515,0.115
2021-08-19 23:00:10.560,-0.5,0.075
2021-08-19 23:00:10.564,-0.51,0.075
2021-08-19 23:00:10.568,-0.525,0.085
2021-08-19 23:00:10.572,-0.485,0.08
2021-08-19 23:00:10.576,-0.465,0.07
2021-08-19 23:00:10.580,-0.42,0.06
2021-08-19 23:00:10.584,-0.405,0.06
2021-08-19 23:00:10.588,-0.36,0.075
2021-08-19 23:00:10.592,-0.355,0.095
2021-08-19 23:00:10.596,-0.315,0.075
2021-08-19 23:00:10.600,-0.28,0.085
2021-08-19 23:00:10.604,-0.28,0.11
2021-08-19 23:00:10.608,-0.255,0.1
2021-08-19 23:00:10.612,-0.265,0.13
2021-08-19 23:00:10.616,-0.21,0.125
2021-08-19 23:00:10.620,-0.21,0.155
2021-08-19 23:00:10.624,-0.215,0.16
2021-08-19 23:00:10.628,-0.21,0.17
2021-08-19 23:00:10.632,-0.195,0.17
2021-08-19 23:00:10.636,-0.195,0.16
2021-08-19 23:00:10.640,-0.21,0.17
2021-08-19 23:00:10.644,-0.215,0.175
2021-08-19 23:00:10.648,-0.225,0.215
2021-08-19 23:00:10.652,-0.26,0.18
2021-08-19 23:00:10.656,-0.305,0.195
2021-08-19 23:00:10.660,-0.33,0.195
2021-08-19 23:00:10.664,-0.37,0.195
2021-08-19 23:00:10.668,-0.395,0.19
2021-08-19 23:00:10.672,-0.44,0.21
2021-08-19 23:00:10.676,-0.425,0.215
2021-08-19 23:00:10.680,-0.41,0.175
2021-08-19 23:00:10.684,-0.42,0.195
2021-08-19 23:00:10.688,-0.39,0.17
2021-08-19 23:00:10.692,-0.375,0.15
2021-08-19 23:00:10.696,-0.375,0.155
2021-08-19 23:00:10.700,-0.365,0.125
2021-08-19 23:00:10.704,-0.395,0.115
2021-08-19 23:00:10.708,-0.385,0.095
2021-08-19 23:00:10.712,-0.35,0.1
2021-08-19 23:00:10.716,-0.345,0.08
2021-08-19 23:00:10.720,-0.355,0.085
2021-08-19 23:00:10.724,-0.345,0.095
2021-08-19 23:00:10.728,-0.355,0.075
2021-08-19 23:00:10.732,-0.36,0.08
2021-08-19 23:00:10.736,-0.35,0.075
2021-08-19 23:00:10.740,-0.345,0.095
2021-08-19 23:00:10.744,-0.335,0.075
2021-08-19 23:00:10.748,-0.305,0.065
2021-08-19 23:00:10.752,-0.305,0.065
2021-08-19 23:00:10.756,-0.295,0.07
2021-08-19 23:00:10.760,-0.295,0.065
2021-08-19 23:00:10.764,-0.29,0.095
2021-08-19 23:00:10.768,-0.275,0.095
2021-08-19 23:00:10.772,-0.255,0.075
2021-08-19 23:00:10.776,-0.26,0.065
2021-08-19 23:00:10.780,-0.235,0.075
2021-08-19 23:00:10.784,-0.255,0.09
2021-08-19 23:00:10.788,-0.23,0.095
2021-08-19 23:00:10.792,-0.21,0.1
2021-08-19 23:00:10.796,-0.22,0.09
2021-08-19 23:00:10.800,-0.195,0.105
2021-08-19 23:00:10.804,-0.18,0.13
2021-08-19 23:00:10.808,-0.175,0.11
2021-08-19 23:00:10.812,-0.165,0.125
2021-08-19 23:00:10.816,-0.155,0.11
2021-08-19 23:00:10.820,-0.16,0.13
2021-08-19 23:00:10.824,-0.165,0.15
2021-08-19 23:00:10.828,-0.18,0.175
2021-08-19 23:00:10.832,-0.18,0.15
2021-08-19 23:00:10.836,-0.155,0.145
2021-08-19 23:00:10.840,-0.175,0.15
2021-08-19 23:00:10.844,-0.195,0.165
2021-08-19 23:00:10.848,-0.22,0.16
2021-08-19 23:00:10.852,-0.235,0.18
2021-08-19 23:00:10.856,-0.265,0.175
2021-08-19 23:00:10.860,-0.3,0.185
2021-08-19 23:00:10.864,-0.365,0.175
2021-08-19 23:00:10.868,-0.375,0.185
2021-08-19 23:00:10.872,-0.405,0.185
2021-08-19 23:00:10.876,-0.41,0.185
2021-08-19 23:00:10.880,-0.41,0.17
2021-08-19 23:00:10.884,-0.41,0.165
2021-08-19 23:00:10.888,-0.39,0.155
2021-08-19 23:00:10.892,-0.345,0.145
2021-08-19 23:00:10.896,-0.315,0.16
2021-08-19 23:00:10.900,-0.32,0.13
2021-08-19 23:00:10.904,-0.33,0.11
2021-08-19 23:00:10.908,-0.325,0.115
2021-08-19 23:00:10.912,-0.345,0.09
2021-08-19 23:00:10.916,-0.36,0.06
2021-08-19 23:00:10.920,-0.35,0.035
2021-08-19 23:00:10.924,-0.365,0.05
2021-08-19 23:00:10.928,-0.385,0.05
2021-08-19 23:00:10.932,-0.39,0.035
2021-08-19 23:00:10.936,-0.38,0.035
2021-08-19 23:00:10.940,-0.405,0.015
2021-08-19 23:00:10.944,-0.395,0.01
2021-08-19 23:00:10.948,-0.38,0.015
2021-08-19 23:00:10.952,-0.39,0.0
2021-08-19 23:00:10.956,-0.395,0.0
2021-08-19 23:00:10.960,-0.375,0.035
2021-08-19 23:00:10.964,-0.37,0.03
2021-08-19 23:00:10.968,-0.345,0.05
2021-08-19 23:00:10.972,-0.32,0.06
2021-08-19 23:00:10.976,-0.295,0.04
2021-08-19 23:00:10.980,-0.285,0.035
2021-08-19 23:00:10.984,-0.285,0.06
2021-08-19 23:00:10.988,-0.295,0.08
2021-08-19 23:00:10.992,-0.255,0.075
2021-08-19 23:00:10.996,-0.26,0.085
2021-08-19 23:00:11.000,-0.235,0.075
2021-08-19 23:00:11.004,-0.225,0.09
2021-08-19 23:00:11.008,-0.195,0.1
2021-08-19 23:00:11.012,-0.215,0.115
2021-08-19 23:00:11.016,-0.21,0.135
2021-08-19 23:00:11.020,-0.225,0.125
2021-08-19 23:00:11.024,-0.215,0.135
2021-08-19 23:00:11.028,-0.22,0.12
2021-08-19 23:00:11.032,-0.22,0.125
2021-08-19 23:00:11.036,-0.21,0.115
2021-08-19 23:00:11.040,-0.235,0.145
2021-08-19 23:00:11.044,-0.215,0.115
2021-08-19 23:00:11.048,-0.25,0.145
2021-08-19 23:00:11.052,-0.28,0.145
2021-08-19 23:00:11.056,-0.295,0.145
2021-08-19 23:00:11.060,-0.29,0.165
2021-08-19 23:00:11.064,-0.305,0.17
2021-08-19 23:00:11.068,-0.255,0.155
2021-08-19 23:00:11.072,-0.155,0.15
2021-08-19 23:00:11.076,-0.065,0.115
2021-08-19 23:00:11.080,-0.025,0.05
2021-08-19 23:00:11.084,0.0,0.005
2021-08-19 23:00:11.088,0.05,0.025
2021-08-19 23:00:11.092,0.045,-0.005
2021-08-19 23:00:11.096,0.025,-0.07
2021-08-19 23:00:11.100,0.075,-0.195
2021-08-19 23:00:11.104,0.275,-0.375
2021-08-19 23:00:11.108,0.58,-0.655
2021-08-19 23:00:11.112,0.955,-0.935
2021-08-19 23:00:11.116,1.235,-1.15
2021-08-19 23:00:11.120,1.275,-1.21
2021-08-19 23:00:11.124,1.045,-0.965
2021-08-19 23:00:11.128,0.545,-0.52
2021-08-19 23:00:11.132,0.09,-0.145
2021-08-19 23:00:11.136,-0.19,0.04
2021-08-19 23:00:11.140,-0.32,0.14
2021-08-19 23:00:11.144,-0.4,0.195
2021-08-19 23:00:11.148,-0.41,0.195
2021-08-19 23:00:11.152,-0.425,0.21
2021-08-19 23:00:11.156,-0.45,0.2
2021-08-19 23:00:11.160,-0.45,0.18
2021-08-19 23:00:11.164,-0.46,0.145
2021-08-19 23:00:11.168,-0.455,0.16
2021-08-19 23:00:11.172,-0.445,0.125
2021-08-19 23:00:11.176,-0.44,0.125
2021-08-19 23:00:11.180,-0.445,0.12
2021-08-19 23:00:11.184,-0.435,0.13
2021-08-19 23:00:11.188,-0.42,0.14
2021-08-19 23:00:11.192,-0.42,0.155
2021-08-19 23:00:11.196,-0.405,0.165
2021-08-19 23:00:11.200,-0.39,0.175
2021-08-19 23:00:11.204,-0.395,0.175
2021-08-19 23:00:11.208,-0.395,0.2
2021-08-19 23:00:11.212,-0.395,0.2
2021-08-19 23:00:11.216,-0.395,0.195
2021-08-19 23:00:11.220,-0.405,0.225
2021-08-19 23:00:11.224,-0.415,0.21
2021-08-19 23:00:11.228,-0.435,0.225
2021-08-19 23:00:11.232,-0.46,0.25
2021-08-19 23:00:11.236,-0.475,0.235
2021-08-19 23:00:11.240,-0.475,0.245
2021-08-19 23:00:11.244,-0.51,0.275
2021-08-19 23:00:11.248,-0.55,0.265
2021-08-19 23:00:11.252,-0.565,0.27
2021-08-19 23:00:11.256,-0.595,0.265
2021-08-19 23:00:11.260,-0.655,0.25
2021-08-19 23:00:11.264,-0.69,0.27
2021-08-19 23:00:11.268,-0.69,0.255
2021-08-19 23:00:11.272,-0.72,0.235
2021-08-19 23:00:11.276,-0.71,0.24
2021-08-19 23:00:11.280,-0.7,0.205
2021-08-19 23:00:11.284,-0.69,0.2
2021-08-19 23:00:11.288,-0.695,0.19
2021-08-19 23:00:11.292,-0.665,0.175
2021-08-19 23:00:11.296,-0.65,0.17
2021-08-19 23:00:11.300,-0.625,0.175
2021-08-19 23:00:11.304,-0.59,0.145
2021-08-19 23:00:11.308,-0.585,0.14
2021-08-19 23:00:11.312,-0.565,0.155
2021-08-19 23:00:11.316,-0.545,0.15
2021-08-19 23:00:11.320,-0.53,0.145
2021-08-19 23:00:11.324,-0.525,0.125
2021-08-19 23:00:11.328,-0.52,0.14
2021-08-19 23:00:11.332,-0.52,0.125
2021-08-19 23:00:11.336,-0.51,0.13
2021-08-19 23:00:11.340,-0.505,0.125
2021-08-19 23:00:11.344,-0.505,0.1
2021-08-19 23:00:11.348,-0.495,0.105
2021-08-19 23:00:11.352,-0.48,0.09
2021-08-19 23:00:11.356,-0.45,0.065
2021-08-19 23:00:11.360,-0.45,0.08
2021-08-19 23:00:11.364,-0.42,0.07
2021-08-19 23:00:11.368,-0.39,0.055
2021-08-19 23:00:11.372,-0.365,0.07
2021-08-19 23:00:11.376,-0.335,0.05
2021-08-19 23:00:11.380,-0.31,0.055
2021-08-19 23:00:11.384,-0.285,0.095
2021-08-19 23:00:11.388,-0.27,0.075
2021-08-19 23:00:11.392,-0.245,0.12
2021-08-19 23:00:11.396,-0.23,0.11
2021-08-19 23:00:11.400,-0.2,0.135
2021-08-19 23:00:11.404,-0.19,0.145
2021-08-19 23:00:11.408,-0.205,0.145
2021-08-19 23:00:11.412,-0.19,0.18
2021-08-19 23:00:11.416,-0.16,0.17
2021-08-19 23:00:11.420,-0.15,0.175
2021-08-19 23:00:11.424,-0.16,0.18
2021-08-19 23:00:11.428,-0.175,0.205
2021-08-19 23:00:11.432,-0.2,0.225
2021-08-19 23:00:11.436,-0.225,0.225
2021-08-19 23:00:11.440,-0.27,0.255
2021-08-19 23:00:11.444,-0.34,0.24
2021-08-19 23:00:11.448,-0.39,0.255
2021-08-19 23:00:11.452,-0.41,0.27
2021-08-19 23:00:11.456,-0.39,0.25
2021-08-19 23:00:11.460,-0.35,0.21
2021-08-19 23:00:11.464,-0.265,0.19
2021-08-19 23:00:11.468,-0.13,0.19
2021-08-19 23:00:11.472,0.035,0.165
2021-08-19 23:00:11.476,0.26,0.11
2021-08-19 23:00:11.480,0.6,0.025
2021-08-19 23:00:11.484,0.96,-0.035
2021-08-19 23:00:11.488,1.225,-0.03
2021-08-19 23:00:11.492,1.215,0.005
2021-08-19 23:00:11.496,0.88,0.28
2021-08-19 23:00:11.500,0.425,0.76
2021-08-19 23:00:11.504,-0.035,1.1
2021-08-19 23:00:11.508,-0.48,1.215
2021-08-19 23:00:11.512,-0.78,1.255
2021-08-19 23:00:11.516,-0.9,1.205
2021-08-19 23:00:11.520,-0.84,1.02
2021-08-19 23:00:11.524,-0.735,0.67
2021-08-19 23:00:11.528,-0.64,0.365
2021-08-19 23:00:11.532,-0.59,0.16
2021-08-19 23:00:11.536,-0.555,0.045
2021-08-19 23:00:11.540,-0.505,-0.01
2021-08-19 23:00:11.544,-0.455,0.0
2021-08-19 23:00:11.548,-0.42,0.045
2021-08-19 23:00:11.552,-0.41,0.06
2021-08-19 23:00:11.556,-0.4,0.045
2021-08-19 23:00:11.560,-0.375,0.075
2021-08-19 23:00:11.564,-0.385,0.07
2021-08-19 23:00:11.568,-0.355,0.085
2021-08-19 23:00:11.572,-0.355,0.095
2021-08-19 23:00:11.576,-0.345,0.05
2021-08-19 23:00:11.580,-0.34,0.075
2021-08-19 23:00:11.584,-0.345,0.065
2021-08-19 23:00:11.588,-0.35,0.065
2021-08-19 23:00:11.592,-0.33,0.08
2021-08-19 23:00:11.596,-0.33,0.075
2021-08-19 23:00:11.600,-0.32,0.08
2021-08-19 23:00:11.604,-0.3,0.085
2021-08-19 23:00:11.608,-0.31,0.085
2021-08-19 23:00:11.612,-0.31,0.105
2021-08-19 23:00:11.616,-0.32,0.09
2021-08-19 23:00:11.620,-0.32,0.115
2021-08-19 23:00:11.624,-0.32,0.085
2021-08-19 23:00:11.628,-0.34,0.095
2021-08-19 23:00:11.632,-0.345,0.11
2021-08-19 23:00:11.636,-0.395,0.095
2021-08-19 23:00:11.640,-0.395,0.1
2021-08-19 23:00:11.644,-0.395,0.115
2021-08-19 23:00:11.648,-0.415,0.11
2021-08-19 23:00:11.652,-0.46,0.11
2021-08-19 23:00:11.656,-0.47,0.095
2021-08-19 23:00:11.660,-0.5,0.08
2021-08-19 23:00:11.664,-0.53,0.075
2021-08-19 23:00:11.668,-0.535,0.07
2021-08-19 23:00:11.672,-0.525,0.055
2021-08-19 23:00:11.676,-0.53,0.05
2021-08-19 23:00:11.680,-0.5,0.025
2021-08-19 23:00:11.684,-0.5,0.005
2021-08-19 23:00:11.688,-0.48,0.0
2021-08-19 23:00:11.692,-0.425,-0.015
2021-08-19 23:00:11.696,-0.43,-0.035
2021-08-19 23:00:11.700,-0.44,-0.05
2021-08-19 23:00:11.704,-0.41,-0.035
2021-08-19 23:00:11.708,-0.405,-0.055
2021-08-19 23:00:11.712,-0.38,-0.055
2021-08-19 23:00:11.716,-0.37,-0.065
2021-08-19 23:00:11.720,-0.34,-0.08
2021-08-19 23:00:11.724,-0.33,-0.055
2021-08-19 23:00:11.728,-0.335,-0.025
2021-08-19 23:00:11.732,-0.335,-0.05
2021-08-19 23:00:11.736,-0.33,-0.055
2021-08-19 23:00:11.740,-0.315,-0.025
2021-08-19 23:00:11.744,-0.315,-0.01
2021-08-19 23:00:11.748,-0.305,0.005
2021-08-19 23:00:11.752,-0.305,0.035
2021-08-19 23:00:11.756,-0.295,0.02
2021-08-19 23:00:11.760,-0.29,0.04
2021-08-19 23:00:11.764,-0.265,0.055
2021-08-19 23:00:11.768,-0.24,0.055
2021-08-19 23:00:11.772,-0.245,0.075
2021-08-19 23:00:11.776,-0.2,0.095
2021-08-19 23:00:11.780,-0.2,0.105
2021-08-19 23:00:11.784,-0.19,0.13
2021-08-19 23:00:11.788,-0.17,0.14
2021-08-19 23:00:11.792,-0.18,0.14
2021-08-19 23:00:11.796,-0.17,0.165
2021-08-19 23:00:11.800,-0.15,0.17
2021-08-19 23:00:11.804,-0.13,0.185
2021-08-19 23:00:11.808,-0.125,0.2
2021-08-19 23:00:11.812,-0.14,0.195
2021-08-19 23:00:11.816,-0.145,0.215
2021-08-19 23:00:11.820,-0.145,0.225
2021-08-19 23:00:11.824,-0.145,0.22
2021-08-19 23:00:11.828,-0.12,0.215
2021-08-19 23:00:11.832,-0.125,0.225
2021-08-19 23:00:11.836,-0.135,0.24
2021-08-19 23:00:11.840,-0.195,0.255
2021-08-19 23:00:11.844,-0.21,0.255
2021-08-19 23:00:11.848,-0.235,0.23
2021-08-19 23:00:11.852,-0.265,0.245
2021-08-19 23:00:11.856,-0.29,0.27
2021-08-19 23:00:11.860,-0.315,0.255
2021-08-19 23:00:11.864,-0.36,0.255
2021-08-19 23:00:11.868,-0.37,0.26
2021-08-19 23:00:11.872,-0.39,0.255
2021-08-19 23:00:11.876,-0.4,0.265
2021-08-19 23:00:11.880,-0.4,0.235
2021-08-19 23:00:11.884,-0.4,0.2
2021-08-19 23:00:11.888,-0.39,0.205
2021-08-19 23:00:11.892,-0.37,0.18
2021-08-19 23:00:11.896,-0.32,0.19
2021-08-19 23:00:11.900,-0.25,0.165
2021-08-19 23:00:11.904,-0.16,0.125
2021-08-19 23:00:11.908,-0.065,0.12
2021-08-19 23:00:11.912,0.015,0.08
2021-08-19 23:00:11.916,0.03,0.06
2021-08-19 23:00:11.920,0.055,0.035
2021-08-19 23:00:11.924,0.03,0.04
2021-08-19 23:00:11.928,-0.02,0.01
2021-08-19 23:00:11.932,-0.05,-0.06
2021-08-19 23:00:11.936,0.06,-0.195
2021-08-19 23:00:11.940,0.355,-0.39
2021-08-19 23:00:11.944,0.72,-0.71
2021-08-19 23:00:11.948,1.02,-1.06
2021-08-19 23:00:11.952,1.16,-1.205
2021-08-19 23:00:11.956,1.055,-1.105
2021-08-19 23:00:11.960,0.63,-0.765
2021-08-19 23:00:11.964,0.15,-0.305
2021-08-19 23:00:11.968,-0.175,0.02
2021-08-19 23:00:11.972,-0.345,0.165
2021-08-19 23:00:11.976,-0.425,0.22
2021-08-19 23:00:11.980,-0.465,0.245
2021-08-19 23:00:11.984,-0.475,0.23
2021-08-19 23:00:11.988,-0.475,0.215
2021-08-19 23:00:11.992,-0.49,0.215
2021-08-19 23:00:11.996,-0.48,0.19
2021-08-19 23:00:12.000,-0.505,0.185
2021-08-19 23:00:12.004,-0.49,0.16
2021-08-19 23:00:12.008,-0.5,0.135
2021-08-19 23:00:12.012,-0.475,0.15
2021-08-19 23:00:12.016,-0.455,0.135
2021-08-19 23:00:12.020,-0.45,0.165
2021-08-19 23:00:12.024,-0.45,0.185
2021-08-19 23:00:12.028,-0.45,0.215
2021-08-19 23:00:12.032,-0.465,0.21
2021-08-19 23:00:12.036,-0.485,0.195
2021-08-19 23:00:12.040,-0.485,0.21
2021-08-19 23:00:12.044,-0.5,0.22
2021-08-19 23:00:12.048,-0.525,0.21
2021-08-19 23:00:12.052,-0.545,0.245
2021-08-19 23:00:12.056,-0.545,0.225
2021-08-19 23:00:12.060,-0.59,0.215
2021-08-19 23:00:12.064,-0.62,0.2
2021-08-19 23:00:12.068,-0.64,0.225
2021-08-19 23:00:12.072,-0.7,0.23
2021-08-19 23:00:12.076,-0.705,0.215
2021-08-19 23:00:12.080,-0.715,0.22
2021-08-19 23:00:12.084,-0.72,0.22
2021-08-19 23:00:12.088,-0.715,0.205
2021-08-19 23:00:12.092,-0.725,0.21
2021-08-19 23:00:12.096,-0.725,0.19
2021-08-19 23:00:12.100,-0.69,0.16
2021-08-19 23:00:12.104,-0.685,0.17
2021-08-19 23:00:12.108,-0.66,0.14
2021-08-19 23:00:12.112,-0.62,0.15
2021-08-19 23:00:12.116,-0.66,0.155
2021-08-19 23:00:12.120,-0.62,0.15
2021-08-19 23:00:12.124,-0.64,0.14
2021-08-19 23:00:12.128,-0.64,0.145
2021-08-19 23:00:12.132,-0.64,0.145
2021-08-19 23:00:12.136,-0.625,0.17
2021-08-19 23:00:12.140,-0.61,0.12
2021-08-19 23:00:12.144,-0.625,0.145
2021-08-19 23:00:12.148,-0.61,0.13
2021-08-19 23:00:12.152,-0.615,0.095
2021-08-19 23:00:12.156,-0.605,0.085
2021-08-19 23:00:12.160,-0.59,0.06
2021-08-19 23:00:12.164,-0.595,0.07
2021-08-19 23:00:12.168,-0.57,0.085
2021-08-19 23:00:12.172,-0.555,0.05
2021-08-19 23:00:12.176,-0.57,0.035
2021-08-19 23:00:12.180,-0.55,0.02
2021-08-19 23:00:12.184,-0.525,0.025
2021-08-19 23:00:12.188,-0.495,0.005
2021-08-19 23:00:12.192,-0.455,0.005
2021-08-19 23:00:12.196,-0.44,-0.02
2021-08-19 23:00:12.200,-0.43,0.005
2021-08-19 23:00:12.204,-0.38,-0.005
2021-08-19 23:00:12.208,-0.345,-0.005
2021-08-19 23:00:12.212,-0.345,0.0
2021-08-19 23:00:12.216,-0.325,0.005
2021-08-19 23:00:12.220,-0.315,0.02
2021-08-19 23:00:12.224,-0.3,0.03
2021-08-19 23:00:12.228,-0.27,0.065
2021-08-19 23:00:12.232,-0.25,0.08
2021-08-19 23:00:12.236,-0.24,0.06
2021-08-19 23:00:12.240,-0.225,0.08
2021-08-19 23:00:12.244,-0.23,0.09
2021-08-19 23:00:12.248,-0.205,0.085
2021-08-19 23:00:12.252,-0.23,0.11
2021-08-19 23:00:12.256,-0.25,0.13
2021-08-19 23:00:12.260,-0.25,0.115
2021-08-19 23:00:12.264,-0.29,0.115
2021-08-19 23:00:12.268,-0.315,0.095
2021-08-19 23:00:12.272,-0.335,0.085
2021-08-19 23:00:12.276,-0.35,0.08
2021-08-19 23:00:12.280,-0.385,0.08
2021-08-19 23:00:12.284,-0.425,0.075
2021-08-19 23:00:12.288,-0.435,0.08
2021-08-19 23:00:12.292,-0.45,0.085
2021-08-19 23:00:12.296,-0.435,0.075
2021-08-19 23:00:12.300,-0.43,0.05
2021-08-19 23:00:12.304,-0.405,0.035
2021-08-19 23:00:12.308,-0.395,0.01
2021-08-19 23:00:12.312,-0.39,0.005
2021-08-19 23:00:12.316,-0.39,0.0
2021-08-19 23:00:12.320,-0.355,-0.01
2021-08-19 23:00:12.324,-0.345,-0.025
2021-08-19 23:00:12.328,-0.28,-0.02
2021-08-19 23:00:12.332,-0.25,0.0
2021-08-19 23:00:12.336,-0.18,-0.02
2021-08-19 23:00:12.340,-0.115,-0.03
2021-08-19 23:00:12.344,0.005,-0.05
2021-08-19 23:00:12.348,0.095,-0.08
2021-08-19 23:00:12.352,0.18,-0.14
2021-08-19 23:00:12.356,0.25,-0.15
2021-08-19 23:00:12.360,0.3,-0.13
2021-08-19 23:00:12.364,0.29,-0.155
2021-08-19 23:00:12.368,0.275,-0.195
2021-08-19 23:00:12.372,0.33,-0.255
2021-08-19 23:00:12.376,0.59,-0.455
2021-08-19 23:00:12.380,0.93,-0.73
2021-08-19 23:00:12.384,1.215,-0.985
2021-08-19 23:00:12.388,1.275,-1.125
2021-08-19 23:00:12.392,1.01,-1.015
2021-08-19 23:00:12.396,0.53,-0.64
2021-08-19 23:00:12.400,0.18,-0.33
2021-08-19 23:00:12.404,-0.045,-0.145
2021-08-19 23:00:12.408,-0.15,-0.04
2021-08-19 23:00:12.412,-0.19,0.025
2021-08-19 23:00:12.416,-0.24,0.1
2021-08-19 23:00:12.420,-0.27,0.09
2021-08-19 23:00:12.424,-0.305,0.1
2021-08-19 23:00:12.428,-0.335,0.095
2021-08-19 23:00:12.432,-0.305,0.07
2021-08-19 23:00:12.436,-0.29,0.085
2021-08-19 23:00:12.440,-0.285,0.1
2021-08-19 23:00:12.444,-0.265,0.08
2021-08-19 23:00:12.448,-0.265,0.075
2021-08-19 23:00:12.452,-0.255,0.085
2021-08-19 23:00:12.456,-0.26,0.075
2021-08-19 23:00:12.460,-0.285,0.075
2021-08-19 23:00:12.464,-0.28,0.065
2021-08-19 23:00:12.468,-0.3,0.08
2021-08-19 23:00:12.472,-0.325,0.08
2021-08-19 23:00:12.476,-0.355,0.055
2021-08-19 23:00:12.480,-0.385,0.075
2021-08-19 23:00:12.484,-0.4,0.065
2021-08-19 23:00:12.488,-0.465,0.06
2021-08-19 23:00:12.492,-0.49,0.07
2021-08-19 23:00:12.496,-0.51,0.085
2021-08-19 23:00:12.500,-0.5,0.06
2021-08-19 23:00:12.504,-0.48,0.04
2021-08-19 23:00:12.508,-0.465,0.03
2021-08-19 23:00:12.512,-0.465,0.02
2021-08-19 23:00:12.516,-0.48,0.015
2021-08-19 23:00:12.520,-0.475,0.01
2021-08-19 23:00:12.524,-0.47,0.0
2021-08-19 23:00:12.528,-0.455,0.0
2021-08-19 23:00:12.532,-0.46,-0.01
2021-08-19 23:00:12.536,-0.475,-0.02
2021-08-19 23:00:12.540,-0.47,-0.01
2021-08-19 23:00:12.544,-0.44,0.0
2021-08-19 23:00:12.548,-0.44,-0.01
2021-08-19 23:00:12.552,-0.42,-0.02
2021-08-19 23:00:12.556,-0.41,-0.01
2021-08-19 23:00:12.560,-0.395,-0.015
2021-08-19 23:00:12.564,-0.365,-0.04
2021-08-19 23:00:12.568,-0.345,-0.035
2021-08-19 23:00:12.572,-0.34,-0.04
2021-08-19 23:00:12.576,-0.315,-0.06
2021-08-19 23:00:12.580,-0.275,-0.04
2021-08-19 23:00:12.584,-0.295,-0.045
2021-08-19 23:00:12.588,-0.27,-0.045
2021-08-19 23:00:12.592,-0.26,-0.045
2021-08-19 23:00:12.596,-0.265,-0.045
2021-08-19 23:00:12.600,-0.235,-0.055
2021-08-19 23:00:12.604,-0.235,-0.07
2021-08-19 23:00:12.608,-0.2,-0.075
2021-08-19 23:00:12.612,-0.165,-0.075
2021-08-19 23:00:12.616,-0.125,-0.08
2021-08-19 23:00:12.620,-0.11,-0.075
2021-08-19 23:00:12.624,-0.09,-0.07
2021-08-19 23:00:12.628,-0.075,-0.05
2021-08-19 23:00:12.632,-0.06,-0.025
2021-08-19 23:00:12.636,-0.055,-0.04
2021-08-19 23:00:12.640,-0.045,-0.04
2021-08-19 23:00:12.644,-0.03,-0.02
2021-08-19 23:00:12.648,-0.02,0.01
2021-08-19 23:00:12.652,0.0,0.045
2021-08-19 23:00:12.656,0.0,0.055
2021-08-19 23:00:12.660,0.02,0.04
2021-08-19 23:00:12.664,0.03,0.055
2021-08-19 23:00:12.668,-0.005,0.08
2021-08-19 23:00:12.672,0.005,0.09
2021-08-19 23:00:12.676,-0.02,0.095
2021-08-19 23:00:12.680,-0.05,0.1
2021-08-19 23:00:12.684,-0.095,0.11
2021-08-19 23:00:12.688,-0.155,0.105
2021-08-19 23:00:12.692,-0.165,0.105
2021-08-19 23:00:12.696,-0.22,0.1
2021-08-19 23:00:12.700,-0.27,0.085
2021-08-19 23:00:12.704,-0.32,0.13
2021-08-19 23:00:12.708,-0.34,0.125
2021-08-19 23:00:12.712,-0.345,0.12
2021-08-19 23:00:12.716,-0.345,0.11
2021-08-19 23:00:12.720,-0.37,0.09
2021-08-19 23:00:12.724,-0.32,0.1
2021-08-19 23:00:12.728,-0.3,0.065
2021-08-19 23:00:12.732,-0.31,0.015
2021-08-19 23:00:12.736,-0.31,0.005
2021-08-19 23:00:12.740,-0.295,0.015
2021-08-19 23:00:12.744,-0.285,0.0
2021-08-19 23:00:12.748,-0.285,0.0
2021-08-19 23:00:12.752,-0.295,0.005
2021-08-19 23:00:12.756,-0.305,0.015
2021-08-19 23:00:12.760,-0.295,0.02
2021-08-19 23:00:12.764,-0.305,0.03
2021-08-19 23:00:12.768,-0.295,0.04
2021-08-19 23:00:12.772,-0.28,0.01
2021-08-19 23:00:12.776,-0.25,0.02
2021-08-19 23:00:12.780,-0.245,0.015
2021-08-19 23:00:12.784,-0.235,0.025
2021-08-19 23:00:12.788,-0.22,0.025
2021-08-19 23:00:12.792,-0.21,0.02
2021-08-19 23:00:12.796,-0.21,0.035
2021-08-19 23:00:12.800,-0.205,0.04
2021-08-19 23:00:12.804,-0.21,0.05
2021-08-19 23:00:12.808,-0.215,0.065
2021-08-19 23:00:12.812,-0.185,0.075
2021-08-19 23:00:12.816,-0.205,0.09
2021-08-19 23:00:12.820,-0.19,0.095
2021-08-19 23:00:12.824,-0.18,0.08
2021-08-19 23:00:12.828,-0.17,0.095
2021-08-19 23:00:12.832,-0.14,0.105
2021-08-19 23:00:12.836,-0.125,0.09
2021-08-19 23:00:12.840,-0.07,0.09
2021-08-19 23:00:12.844,-0.005,0.09
2021-08-19 23:00:12.848,0.075,0.1
2021-08-19 23:00:12.852,0.185,0.055
2021-08-19 23:00:12.856,0.275,0.06
2021-08-19 23:00:12.860,0.325,0.02
2021-08-19 23:00:12.864,0.365,0.025
2021-08-19 23:00:12.868,0.38,0.03
2021-08-19 23:00:12.872,0.385,-0.03
2021-08-19 23:00:12.876,0.41,-0.105
2021-08-19 23:00:12.880,0.515,-0.235
2021-08-19 23:00:12.884,0.79,-0.445
2021-08-19 23:00:12.888,1.13,-0.73
2021-08-19 23:00:12.892,1.395,-0.995
2021-08-19 23:00:12.896,1.46,-1.1
2021-08-19 23:00:12.900,1.18,-0.96
2021-08-19 23:00:12.904,0.665,-0.555
2021-08-19 23:00:12.908,0.14,-0.165
2021-08-19 23:00:12.912,-0.175,0.06
2021-08-19 23:00:12.916,-0.315,0.165
2021-08-19 23:00:12.920,-0.405,0.27
2021-08-19 23:00:12.924,-0.425,0.31
2021-08-19 23:00:12.928,-0.465,0.32
2021-08-19 23:00:12.932,-0.49,0.31
2021-08-19 23:00:12.936,-0.495,0.295
2021-08-19 23:00:12.940,-0.505,0.27
2021-08-19 23:00:12.944,-0.48,0.26
2021-08-19 23:00:12.948,-0.51,0.23
2021-08-19 23:00:12.952,-0.5,0.205
2021-08-19 23:00:12.956,-0.505,0.18
2021-08-19 23:00:12.960,-0.51,0.185
2021-08-19 23:00:12.964,-0.53,0.18
2021-08-19 23:00:12.968,-0.565,0.175
2021-08-19 23:00:12.972,-0.565,0.165
2021-08-19 23:00:12.976,-0.58,0.165
2021-08-19 23:00:12.980,-0.605,0.16
2021-08-19 23:00:12.984,-0.615,0.14
2021-08-19 23:00:12.988,-0.61,0.15
2021-08-19 23:00:12.992,-0.595,0.145
2021-08-19 23:00:12.996,-0.57,0.13
2021-08-19 23:00:13.000,-0.565,0.125
2021-08-19 23:00:13.004,-0.54,0.135
2021-08-19 23:00:13.008,-0.535,0.145
2021-08-19 23:00:13.012,-0.525,0.15
2021-08-19 23:00:13.016,-0.505,0.16
2021-08-19 23:00:13.020,-0.525,0.165
2021-08-19 23:00:13.024,-0.53,0.16
2021-08-19 23:00:13.028,-0.51,0.17
2021-08-19 23:00:13.032,-0.5,0.15
2021-08-19 23:00:13.036,-0.5,0.16
2021-08-19 23:00:13.040,-0.495,0.185
2021-08-19 23:00:13.044,-0.51,0.215
2021-08-19 23:00:13.048,-0.52,0.175
2021-08-19 23:00:13.052,-0.505,0.205
2021-08-19 23:00:13.056,-0.495,0.215
2021-08-19 23:00:13.060,-0.46,0.22
2021-08-19 23:00:13.064,-0.455,0.225
2021-08-19 23:00:13.068,-0.435,0.24
2021-08-19 23:00:13.072,-0.42,0.235
2021-08-19 23:00:13.076,-0.4,0.225
2021-08-19 23:00:13.080,-0.415,0.255
2021-08-19 23:00:13.084,-0.42,0.25
2021-08-19 23:00:13.088,-0.43,0.265
2021-08-19 23:00:13.092,-0.435,0.25
2021-08-19 23:00:13.096,-0.48,0.26
2021-08-19 23:00:13.100,-0.5,0.24
2021-08-19 23:00:13.104,-0.515,0.235
2021-08-19 23:00:13.108,-0.51,0.24
2021-08-19 23:00:13.112,-0.545,0.235
2021-08-19 23:00:13.116,-0.52,0.23
2021-08-19 23:00:13.120,-0.505,0.235
2021-08-19 23:00:13.124,-0.495,0.215
2021-08-19 23:00:13.128,-0.49,0.215
2021-08-19 23:00:13.132,-0.48,0.215
2021-08-19 23:00:13.136,-0.45,0.2
2021-08-19 23:00:13.140,-0.45,0.175
2021-08-19 23:00:13.144,-0.4,0.165
2021-08-19 23:00:13.148,-0.39,0.165
2021-08-19 23:00:13.152,-0.38,0.145
2021-08-19 23:00:13.156,-0.385,0.125
2021-08-19 23:00:13.160,-0.38,0.135
2021-08-19 23:00:13.164,-0.36,0.13
2021-08-19 23:00:13.168,-0.34,0.12
2021-08-19 23:00:13.172,-0.34,0.145
2021-08-19 23:00:13.176,-0.33,0.14
2021-08-19 23:00:13.180,-0.33,0.13
2021-08-19 23:00:13.184,-0.345,0.155
2021-08-19 23:00:13.188,-0.345,0.145
2021-08-19 23:00:13.192,-0.35,0.155
2021-08-19 23:00:13.196,-0.34,0.14
2021-08-19 23:00:13.200,-0.32,0.135
2021-08-19 23:00:13.204,-0.33,0.145
2021-08-19 23:00:13.208,-0.295,0.145
2021-08-19 23:00:13.212,-0.265,0.15
2021-08-19 23:00:13.216,-0.25,0.15
2021-08-19 23:00:13.220,-0.235,0.16
2021-08-19 23:00:13.224,-0.22,0.16
2021-08-19 23:00:13.228,-0.205,0.145
2021-08-19 23:00:13.232,-0.205,0.17
2021-08-19 23:00:13.236,-0.17,0.205
2021-08-19 23:00:13.240,-0.19,0.2
2021-08-19 23:00:13.244,-0.185,0.21
2021-08-19 23:00:13.248,-0.175,0.215
2021-08-19 23:00:13.252,-0.155,0.24
2021-08-19 23:00:13.256,-0.14,0.24
2021-08-19 23:00:13.260,-0.15,0.25
2021-08-19 23:00:13.264,-0.135,0.25
2021-08-19 23:00:13.268,-0.155,0.28
2021-08-19 23:00:13.272,-0.16,0.27
2021-08-19 23:00:13.276,-0.17,0.255
2021-08-19 23:00:13.280,-0.14,0.265
2021-08-19 23:00:13.284,-0.155,0.255
2021-08-19 23:00:13.288,-0.16,0.235
2021-08-19 23:00:13.292,-0.165,0.27
2021-08-19 23:00:13.296,-0.165,0.255
2021-08-19 23:00:13.300,-0.2,0.28
2021-08-19 23:00:13.304,-0.23,0.255
2021-08-19 23:00:13.308,-0.275,0.255
2021-08-19 23:00:13.312,-0.285,0.26
2021-08-19 23:00:13.316,-0.3,0.28
2021-08-19 23:00:13.320,-0.34,0.305
2021-08-19 23:00:13.324,-0.365,0.31
2021-08-19 23:00:13.328,-0.365,0.295
2021-08-19 23:00:13.332,-0.35,0.29
2021-08-19 23:00:13.336,-0.34,0.295
2021-08-19 23:00:13.340,-0.34,0.305
2021-08-19 23:00:13.344,-0.34,0.285
2021-08-19 23:00:13.348,-0.325,0.275
2021-08-19 23:00:13.352,-0.325,0.265
2021-08-19 23:00:13.356,-0.315,0.24
2021-08-19 23:00:13.360,-0.305,0.26
2021-08-19 23:00:13.364,-0.295,0.215
2021-08-19 23:00:13.368,-0.285,0.22
2021-08-19 23:00:13.372,-0.295,0.21
2021-08-19 23:00:13.376,-0.29,0.205
2021-08-19 23:00:13.380,-0.315,0.19
2021-08-19 23:00:13.384,-0.32,0.195
2021-08-19 23:00:13.388,-0.33,0.17
2021-08-19 23:00:13.392,-0.32,0.165
2021-08-19 23:00:13.396,-0.325,0.16
2021-08-19 23:00:13.400,-0.325,0.165
2021-08-19 23:00:13.404,-0.33,0.18
2021-08-19 23:00:13.408,-0.325,0.19
2021-08-19 23:00:13.412,-0.32,0.17
2021-08-19 23:00:13.416,-0.305,0.165
2021-08-19 23:00:13.420,-0.29,0.155
2021-08-19 23:00:13.424,-0.265,0.15
2021-08-19 23:00:13.428,-0.26,0.165
2021-08-19 23:00:13.432,-0.235,0.175
2021-08-19 23:00:13.436,-0.195,0.2
2021-08-19 23:00:13.440,-0.175,0.19
2021-08-19 23:00:13.444,-0.125,0.19
2021-08-19 23:00:13.448,-0.06,0.21
2021-08-19 23:00:13.452,0.01,0.215
2021-08-19 23:00:13.456,0.085,0.225
2021-08-19 23:00:13.460,0.185,0.215
2021-08-19 23:00:13.464,0.24,0.185
2021-08-19 23:00:13.468,0.28,0.15
2021-08-19 23:00:13.472,0.295,0.165
2021-08-19 23:00:13.476,0.29,0.15
2021-08-19 23:00:13.480,0.275,0.09
2021-08-19 23:00:13.484,0.295,-0.025
2021-08-19 23:00:13.488,0.46,-0.17
2021-08-19 23:00:13.492,0.775,-0.41
2021-08-19 23:00:13.496,1.105,-0.715
2021-08-19 23:00:13.500,1.355,-0.94
2021-08-19 23:00:13.504,1.385,-0.99
2021-08-19 23:00:13.508,1.1,-0.785
2021-08-19 23:00:13.512,0.585,-0.38
2021-08-19 23:00:13.516,0.1,0.05
2021-08-19 23:00:13.520,-0.175,0.25
2021-08-19 23:00:13.524,-0.33,0.36
2021-08-19 23:00:13.528,-0.385,0.45
2021-08-19 23:00:13.532,-0.41,0.46
2021-08-19 23:00:13.536,-0.455,0.44
2021-08-19 23:00:13.540,-0.48,0.44
2021-08-19 23:00:13.544,-0.49,0.405
2021-08-19 23:00:13.548,-0.495,0.39
2021-08-19 23:00:13.552,-0.505,0.39
2021-08-19 23:00:13.556,-0.485,0.335
2021-08-19 23:00:13.560,-0.475,0.315
2021-08-19 23:00:13.564,-0.47,0.295
2021-08-19 23:00:13.568,-0.47,0.295
2021-08-19 23:00:13.572,-0.45,0.3
2021-08-19 23:00:13.576,-0.46,0.28
2021-08-19 23:00:13.580,-0.46,0.265
2021-08-19 23:00:13.584,-0.465,0.27
2021-08-19 23:00:13.588,-0.475,0.26
2021-08-19 23:00:13.592,-0.465,0.265
2021-08-19 23:00:13.596,-0.505,0.26
2021-08-19 23:00:13.600,-0.505,0.235
2021-08-19 23:00:13.604,-0.525,0.245
2021-08-19 23:00:13.608,-0.515,0.225
2021-08-19 23:00:13.612,-0.515,0.245
2021-08-19 23:00:13.616,-0.54,0.245
2021-08-19 23:00:13.620,-0.525,0.24
2021-08-19 23:00:13.624,-0.51,0.225
2021-08-19 23:00:13.628,-0.5,0.22
2021-08-19 23:00:13.632,-0.49,0.215
2021-08-19 23:00:13.636,-0.505,0.225
2021-08-19 23:00:13.640,-0.475,0.22
2021-08-19 23:00:13.644,-0.485,0.225
2021-08-19 23:00:13.648,-0.47,0.25
2021-08-19 23:00:13.652,-0.47,0.245
2021-08-19 23:00:13.656,-0.45,0.285
2021-08-19 23:00:13.660,-0.445,0.265
2021-08-19 23:00:13.664,-0.415,0.28
2021-08-19 23:00:13.668,-0.35,0.295
2021-08-19 23:00:13.672,-0.34,0.285
2021-08-19 23:00:13.676,-0.34,0.305
2021-08-19 23:00:13.680,-0.335,0.315
2021-08-19 23:00:13.684,-0.28,0.34
2021-08-19 23:00:13.688,-0.275,0.33
2021-08-19 23:00:13.692,-0.27,0.335
2021-08-19 23:00:13.696,-0.28,0.34
2021-08-19 23:00:13.700,-0.275,0.33
2021-08-19 23:00:13.704,-0.295,0.335
2021-08-19 23:00:13.708,-0.325,0.335
2021-08-19 23:00:13.712,-0.355,0.32
2021-08-19 23:00:13.716,-0.4,0.31
2021-08-19 23:00:13.720,-0.435,0.31
2021-08-19 23:00:13.724,-0.44,0.315
2021-08-19 23:00:13.728,-0.455,0.315
2021-08-19 23:00:13.732,-0.455,0.305
2021-08-19 23:00:13.736,-0.46,0.305
2021-08-19 23:00:13.740,-0.445,0.28
2021-08-19 23:00:13.744,-0.42,0.26
2021-08-19 23:00:13.748,-0.42,0.265
2021-08-19 23:00:13.752,-0.41,0.24
2021-08-19 23:00:13.756,-0.405,0.24
2021-08-19 23:00:13.760,-0.39,0.21
2021-08-19 23:00:13.764,-0.39,0.19
2021-08-19 23:00:13.768,-0.37,0.19
2021-08-19 23:00:13.772,-0.365,0.205
2021-08-19 23:00:13.776,-0.35,0.205
2021-08-19 23:00:13.780,-0.325,0.195
2021-08-19 23:00:13.784,-0.315,0.18
2021-08-19 23:00:13.788,-0.3,0.2
2021-08-19 23:00:13.792,-0.275,0.19
2021-08-19 23:00:13.796,-0.28,0.2
2021-08-19 23:00:13.800,-0.275,0.195
2021-08-19 23:00:13.804,-0.265,0.215
2021-08-19 23:00:13.808,-0.27,0.23
2021-08-19 23:00:13.812,-0.28,0.24
2021-08-19 23:00:13.816,-0.27,0.23
2021-08-19 23:00:13.820,-0.28,0.245
2021-08-19 23:00:13.824,-0.29,0.235
2021-08-19 23:00:13.828,-0.29,0.225
2021-08-19 23:00:13.832,-0.285,0.23
2021-08-19 23:00:13.836,-0.28,0.235
2021-08-19 23:00:13.840,-0.29,0.215
2021-08-19 23:00:13.844,-0.265,0.235
2021-08-19 23:00:13.848,-0.255,0.215
2021-08-19 23:00:13.852,-0.24,0.23
2021-08-19 23:00:13.856,-0.235,0.255
2021-08-19 23:00:13.860,-0.24,0.245
2021-08-19 23:00:13.864,-0.205,0.24
2021-08-19 23:00:13.868,-0.2,0.255
2021-08-19 23:00:13.872,-0.16,0.255
2021-08-19 23:00:13.876,-0.175,0.275
2021-08-19 23:00:13.880,-0.16,0.265
2021-08-19 23:00:13.884,-0.14,0.285
2021-08-19 23:00:13.888,-0.135,0.27
2021-08-19 23:00:13.892,-0.11,0.275
2021-08-19 23:00:13.896,-0.11,0.275
2021-08-19 23:00:13.900,-0.105,0.29
2021-08-19 23:00:13.904,-0.11,0.3
2021-08-19 23:00:13.908,-0.135,0.29
2021-08-19 23:00:13.912,-0.155,0.28
2021-08-19 23:00:13.916,-0.17,0.275
2021-08-19 23:00:13.920,-0.2,0.28
2021-08-19 23:00:13.924,-0.22,0.275
2021-08-19 23:00:13.928,-0.23,0.3
2021-08-19 23:00:13.932,-0.26,0.3
2021-08-19 23:00:13.936,-0.27,0.34
2021-08-19 23:00:13.940,-0.285,0.33
2021-08-19 23:00:13.944,-0.315,0.335
2021-08-19 23:00:13.948,-0.315,0.345
2021-08-19 23:00:13.952,-0.29,0.315
2021-08-19 23:00:13.956,-0.29,0.305
2021-08-19 23:00:13.960,-0.26,0.285
2021-08-19 23:00:13.964,-0.24,0.27
2021-08-19 23:00:13.968,-0.15,0.245
2021-08-19 23:00:13.972,-0.045,0.215
2021-08-19 23:00:13.976,0.01,0.195
2021-08-19 23:00:13.980,0.055,0.165
2021-08-19 23:00:13.984,0.07,0.09
2021-08-19 23:00:13.988,0.05,0.11
2021-08-19 23:00:13.992,0.025,0.095
2021-08-19 23:00:13.996,-0.025,0.05
2021-08-19 23:00:14.000,-0.005,-0.06
2021-08-19 23:00:14.004,0.165,-0.195
2021-08-19 23:00:14.008,0.485,-0.43
2021-08-19 23:00:14.012,0.84,-0.77
2021-08-19 23:00:14.016,1.115,-1.04
2021-08-19 23:00:14.020,1.22,-1.09
2021-08-19 23:00:14.024,1.035,-0.91
2021-08-19 23:00:14.028,0.585,-0.52
2021-08-19 23:00:14.032,0.125,-0.09
2021-08-19 23:00:14.036,-0.155,0.175
2021-08-19 23:00:14.040,-0.315,0.31
2021-08-19 23:00:14.044,-0.405,0.33
2021-08-19 23:00:14.048,-0.415,0.35
2021-08-19 23:00:14.052,-0.455,0.33
2021-08-19 23:00:14.056,-0.465,0.345
2021-08-19 23:00:14.060,-0.45,0.355
2021-08-19 23:00:14.064,-0.43,0.34
2021-08-19 23:00:14.068,-0.455,0.325
2021-08-19 23:00:14.072,-0.425,0.3
2021-08-19 23:00:14.076,-0.41,0.295
2021-08-19 23:00:14.080,-0.415,0.29
2021-08-19 23:00:14.084,-0.395,0.29
2021-08-19 23:00:14.088,-0.395,0.275
2021-08-19 23:00:14.092,-0.405,0.305
2021-08-19 23:00:14.096,-0.425,0.33
2021-08-19 23:00:14.100,-0.42,0.315
2021-08-19 23:00:14.104,-0.435,0.305
2021-08-19 23:00:14.108,-0.425,0.31
2021-08-19 23:00:14.112,-0.41,0.3
2021-08-19 23:00:14.116,-0.43,0.31
2021-08-19 23:00:14.120,-0.45,0.315
2021-08-19 23:00:14.124,-0.48,0.325
2021-08-19 23:00:14.128,-0.51,0.325
2021-08-19 23:00:14.132,-0.54,0.335
2021-08-19 23:00:14.136,-0.56,0.355
2021-08-19 23:00:14.140,-0.58,0.37
2021-08-19 23:00:14.144,-0.605,0.35
2021-08-19 23:00:14.148,-0.605,0.36
2021-08-19 23:00:14.152,-0.61,0.36
2021-08-19 23:00:14.156,-0.615,0.35
2021-08-19 23:00:14.160,-0.6,0.335
2021-08-19 23:00:14.164,-0.615,0.36
2021-08-19 23:00:14.168,-0.625,0.34
2021-08-19 23:00:14.172,-0.615,0.305
2021-08-19 23:00:14.176,-0.605,0.29
2021-08-19 23:00:14.180,-0.605,0.28
2021-08-19 23:00:14.184,-0.595,0.27
2021-08-19 23:00:14.188,-0.58,0.28
2021-08-19 23:00:14.192,-0.56,0.245
2021-08-19 23:00:14.196,-0.54,0.24
2021-08-19 23:00:14.200,-0.52,0.235
2021-08-19 23:00:14.204,-0.515,0.255
2021-08-19 23:00:14.208,-0.515,0.255
2021-08-19 23:00:14.212,-0.5,0.23
2021-08-19 23:00:14.216,-0.475,0.235
2021-08-19 23:00:14.220,-0.48,0.23
2021-08-19 23:00:14.224,-0.46,0.24
2021-08-19 23:00:14.228,-0.43,0.23
2021-08-19 23:00:14.232,-0.41,0.22
2021-08-19 23:00:14.236,-0.395,0.215
2021-08-19 23:00:14.240,-0.405,0.2
2021-08-19 23:00:14.244,-0.385,0.22
2021-08-19 23:00:14.248,-0.395,0.215
2021-08-19 23:00:14.252,-0.385,0.2
2021-08-19 23:00:14.256,-0.375,0.21
2021-08-19 23:00:14.260,-0.37,0.185
2021-08-19 23:00:14.264,-0.365,0.185
2021-08-19 23:00:14.268,-0.36,0.215
2021-08-19 23:00:14.272,-0.345,0.22
2021-08-19 23:00:14.276,-0.315,0.22
2021-08-19 23:00:14.280,-0.285,0.21
2021-08-19 23:00:14.284,-0.28,0.215
2021-08-19 23:00:14.288,-0.265,0.23
2021-08-19 23:00:14.292,-0.275,0.21
2021-08-19 23:00:14.296,-0.25,0.22
2021-08-19 23:00:14.300,-0.22,0.245
2021-08-19 23:00:14.304,-0.235,0.25
2021-08-19 23:00:14.308,-0.26,0.265
2021-08-19 23:00:14.312,-0.285,0.24
2021-08-19 23:00:14.316,-0.29,0.26
2021-08-19 23:00:14.320,-0.3,0.255
2021-08-19 23:00:14.324,-0.355,0.265
2021-08-19 23:00:14.328,-0.375,0.27
2021-08-19 23:00:14.332,-0.42,0.265
2021-08-19 23:00:14.336,-0.41,0.28
2021-08-19 23:00:14.340,-0.405,0.3
2021-08-19 23:00:14.344,-0.435,0.305
2021-08-19 23:00:14.348,-0.465,0.315
2021-08-19 23:00:14.352,-0.46,0.31
2021-08-19 23:00:14.356,-0.45,0.32
2021-08-19 23:00:14.360,-0.465,0.315
2021-08-19 23:00:14.364,-0.46,0.31
2021-08-19 23:00:14.368,-0.475,0.305
2021-08-19 23:00:14.372,-0.455,0.3
2021-08-19 23:00:14.376,-0.44,0.28
2021-08-19 23:00:14.380,-0.44,0.27
2021-08-19 23:00:14.384,-0.445,0.26
2021-08-19 23:00:14.388,-0.44,0.22
2021-08-19 23:00:14.392,-0.42,0.22
2021-08-19 23:00:14.396,-0.42,0.195
2021-08-19 23:00:14.400,-0.44,0.185
2021-08-19 23:00:14.404,-0.42,0.155
2021-08-19 23:00:14.408,-0.41,0.165
2021-08-19 23:00:14.412,-0.415,0.16
2021-08-19 23:00:14.416,-0.415,0.17
2021-08-19 23:00:14.420,-0.415,0.15
2021-08-19 23:00:14.424,-0.435,0.16
2021-08-19 23:00:14.428,-0.405,0.14
2021-08-19 23:00:14.432,-0.4,0.155
2021-08-19 23:00:14.436,-0.39,0.145
2021-08-19 23:00:14.440,-0.375,0.16
2021-08-19 23:00:14.444,-0.365,0.145
2021-08-19 23:00:14.448,-0.345,0.145
2021-08-19 23:00:14.452,-0.33,0.13
2021-08-19 23:00:14.456,-0.33,0.13
2021-08-19 23:00:14.460,-0.31,0.14
2021-08-19 23:00:14.464,-0.205,0.165
2021-08-19 23:00:14.468,-0.15,0.14
2021-08-19 23:00:14.472,-0.035,0.15
2021-08-19 23:00:14.476,0.03,0.115
2021-08-19 23:00:14.480,0.1,0.075
2021-08-19 23:00:14.484,0.155,0.09
2021-08-19 23:00:14.488,0.18,0.1
2021-08-19 23:00:14.492,0.18,0.09
2021-08-19 23:00:14.496,0.145,0.01
2021-08-19 23:00:14.500,0.23,-0.08
2021-08-19 23:00:14.504,0.44,-0.28
2021-08-19 23:00:14.508,0.775,-0.58
2021-08-19 23:00:14.512,1.1,-0.88
2021-08-19 23:00:14.516,1.265,-1.07
2021-08-19 23:00:14.520,1.13,-1.015
2021-08-19 23:00:14.524,0.695,-0.72
2021-08-19 23:00:14.528,0.2,-0.3
2021-08-19 23:00:14.532,-0.145,0.005
2021-08-19 23:00:14.536,-0.32,0.16
2021-08-19 23:00:14.540,-0.41,0.255
2021-08-19 23:00:14.544,-0.445,0.3
2021-08-19 23:00:14.548,-0.5,0.31
2021-08-19 23:00:14.552,-0.55,0.315
2021-08-19 23:00:14.556,-0.58,0.285
2021-08-19 23:00:14.560,-0.59,0.265
2021-08-19 23:00:14.564,-0.61,0.245
2021-08-19 23:00:14.568,-0.62,0.21
2021-08-19 23:00:14.572,-0.635,0.185
2021-08-19 23:00:14.576,-0.64,0.195
2021-08-19 23:00:14.580,-0.65,0.195
2021-08-19 23:00:14.584,-0.65,0.19
2021-08-19 23:00:14.588,-0.655,0.175
2021-08-19 23:00:14.592,-0.64,0.16
2021-08-19 23:00:14.596,-0.635,0.165
2021-08-19 23:00:14.600,-0.63,0.16
2021-08-19 23:00:14.604,-0.62,0.125
2021-08-19 23:00:14.608,-0.615,0.105
2021-08-19 23:00:14.612,-0.63,0.11
2021-08-19 23:00:14.616,-0.62,0.105
2021-08-19 23:00:14.620,-0.615,0.11
2021-08-19 23:00:14.624,-0.62,0.1
2021-08-19 23:00:14.628,-0.615,0.105
2021-08-19 23:00:14.632,-0.585,0.09
2021-08-19 23:00:14.636,-0.57,0.09
2021-08-19 23:00:14.640,-0.57,0.075
2021-08-19 23:00:14.644,-0.585,0.075
2021-08-19 23:00:14.648,-0.56,0.08
2021-08-19 23:00:14.652,-0.59,0.105
2021-08-19 23:00:14.656,-0.6,0.095
2021-08-19 23:00:14.660,-0.575,0.1
2021-08-19 23:00:14.664,-0.575,0.075
2021-08-19 23:00:14.668,-0.55,0.09
2021-08-19 23:00:14.672,-0.55,0.11
2021-08-19 23:00:14.676,-0.54,0.09
2021-08-19 23:00:14.680,-0.55,0.1
2021-08-19 23:00:14.684,-0.54,0.1
2021-08-19 23:00:14.688,-0.52,0.12
2021-08-19 23:00:14.692,-0.505,0.13
2021-08-19 23:00:14.696,-0.48,0.135
2021-08-19 23:00:14.700,-0.46,0.115
2021-08-19 23:00:14.704,-0.42,0.11
2021-08-19 23:00:14.708,-0.395,0.11
2021-08-19 23:00:14.712,-0.37,0.115
2021-08-19 23:00:14.716,-0.36,0.135
2021-08-19 23:00:14.720,-0.365,0.14
2021-08-19 23:00:14.724,-0.365,0.105
2021-08-19 23:00:14.728,-0.4,0.105
2021-08-19 23:00:14.732,-0.405,0.12
2021-08-19 23:00:14.736,-0.4,0.08
2021-08-19 23:00:14.740,-0.425,0.085
2021-08-19 23:00:14.744,-0.42,0.07
2021-08-19 23:00:14.748,-0.445,0.065
2021-08-19 23:00:14.752,-0.44,0.075
2021-08-19 23:00:14.756,-0.45,0.08
2021-08-19 23:00:14.760,-0.41,0.08
2021-08-19 23:00:14.764,-0.435,0.06
2021-08-19 23:00:14.768,-0.42,0.095
2021-08-19 23:00:14.772,-0.4,0.075
2021-08-19 23:00:14.776,-0.415,0.055
2021-08-19 23:00:14.780,-0.39,0.035
2021-08-19 23:00:14.784,-0.385,0.04
2021-08-19 23:00:14.788,-0.36,0.055
2021-08-19 23:00:14.792,-0.38,0.035
2021-08-19 23:00:14.796,-0.405,0.035
2021-08-19 23:00:14.800,-0.395,0.02
2021-08-19 23:00:14.804,-0.38,0.015
2021-08-19 23:00:14.808,-0.37,0.03
2021-08-19 23:00:14.812,-0.385,0.02
2021-08-19 23:00:14.816,-0.355,0.0
2021-08-19 23:00:14.820,-0.35,-0.04
2021-08-19 23:00:14.824,-0.345,0.0
2021-08-19 23:00:14.828,-0.335,-0.005
2021-08-19 23:00:14.832,-0.335,0.005
2021-08-19 23:00:14.836,-0.35,-0.005
2021-08-19 23:00:14.840,-0.34,-0.03
2021-08-19 23:00:14.844,-0.37,-0.015
2021-08-19 23:00:14.848,-0.34,0.0
2021-08-19 23:00:14.852,-0.315,0.0
2021-08-19 23:00:14.856,-0.285,-0.03
2021-08-19 23:00:14.860,-0.265,-0.02
2021-08-19 23:00:14.864,-0.3,-0.03
2021-08-19 23:00:14.868,-0.27,-0.02
2021-08-19 23:00:14.872,-0.26,-0.015
2021-08-19 23:00:14.876,-0.27,-0.025
2021-08-19 23:00:14.880,-0.255,-0.025
2021-08-19 23:00:14.884,-0.25,-0.04
2021-08-19 23:00:14.888,-0.29,-0.03
2021-08-19 23:00:14.892,-0.29,-0.025
2021-08-19 23:00:14.896,-0.28,-0.045
2021-08-19 23:00:14.900,-0.245,-0.025
2021-08-19 23:00:14.904,-0.22,-0.035
2021-08-19 23:00:14.908,-0.19,-0.035
2021-08-19 23:00:14.912,-0.165,-0.03
2021-08-19 23:00:14.916,-0.165,-0.02
2021-08-19 23:00:14.920,-0.15,0.0
2021-08-19 23:00:14.924,-0.135,-0.03
2021-08-19 23:00:14.928,-0.13,-0.015
2021-08-19 23:00:14.932,-0.13,-0.02
2021-08-19 23:00:14.936,-0.15,-0.015
2021-08-19 23:00:14.940,-0.145,-0.02
2021-08-19 23:00:14.944,-0.15,-0.035
2021-08-19 23:00:14.948,-0.2,-0.02
2021-08-19 23:00:14.952,-0.205,-0.025
2021-08-19 23:00:14.956,-0.19,-0.015
2021-08-19 23:00:14.960,-0.16,0.005
2021-08-19 23:00:14.964,-0.075,-0.005
2021-08-19 23:00:14.968,0.02,0.005
2021-08-19 23:00:14.972,0.125,0.0
2021-08-19 23:00:14.976,0.19,-0.04
2021-08-19 23:00:14.980,0.265,-0.09
2021-08-19 23:00:14.984,0.315,-0.09
2021-08-19 23:00:14.988,0.36,-0.085
2021-08-19 23:00:14.992,0.35,-0.115
2021-08-19 23:00:14.996,0.285,-0.18
2021-08-19 23:00:15.000,0.37,-0.27
2021-08-19 23:00:15.004,0.605,-0.44
2021-08-19 23:00:15.008,0.95,-0.72
2021-08-19 23:00:15.012,1.24,-0.96
2021-08-19 23:00:15.016,1.285,-1.125
2021-08-19 23:00:15.020,1.06,-1.025
2021-08-19 23:00:15.024,0.54,-0.685
2021-08-19 23:00:15.028,0.085,-0.36
2021-08-19 23:00:15.032,-0.15,-0.19
2021-08-19 23:00:15.036,-0.255,-0.09
2021-08-19 23:00:15.040,-0.31,-0.015
2021-08-19 23:00:15.044,-0.32,0.005
2021-08-19 23:00:15.048,-0.36,0.04
2021-08-19 23:00:15.052,-0.395,0.035
2021-08-19 23:00:15.056,-0.435,0.035
2021-08-19 23:00:15.060,-0.42,0.01
2021-08-19 23:00:15.064,-0.43,0.0
2021-08-19 23:00:15.068,-0.43,-0.01
2021-08-19 23:00:15.072,-0.44,-0.015
2021-08-19 23:00:15.076,-0.435,0.0
2021-08-19 23:00:15.080,-0.42,-0.01
2021-08-19 23:00:15.084,-0.44,0.03
2021-08-19 23:00:15.088,-0.44,0.035
2021-08-19 23:00:15.092,-0.41,0.03
2021-08-19 23:00:15.096,-0.44,0.045
2021-08-19 23:00:15.100,-0.465,0.035
2021-08-19 23:00:15.104,-0.46,0.035
2021-08-19 23:00:15.108,-0.47,0.055
2021-08-19 23:00:15.112,-0.47,0.065
2021-08-19 23:00:15.116,-0.485,0.065
2021-08-19 23:00:15.120,-0.465,0.065
2021-08-19 23:00:15.124,-0.45,0.075
2021-08-19 23:00:15.128,-0.445,0.095
2021-08-19 23:00:15.132,-0.43,0.095
2021-08-19 23:00:15.136,-0.41,0.115
2021-08-19 23:00:15.140,-0.41,0.145
2021-08-19 23:00:15.144,-0.43,0.13
2021-08-19 23:00:15.148,-0.45,0.14
2021-08-19 23:00:15.152,-0.485,0.155
2021-08-19 23:00:15.156,-0.515,0.14
2021-08-19 23:00:15.160,-0.515,0.15
2021-08-19 23:00:15.164,-0.555,0.14
2021-08-19 23:00:15.168,-0.6,0.18
2021-08-19 23:00:15.172,-0.605,0.155
2021-08-19 23:00:15.176,-0.605,0.185
2021-08-19 23:00:15.180,-0.6,0.23
2021-08-19 23:00:15.184,-0.57,0.215
2021-08-19 23:00:15.188,-0.565,0.21
2021-08-19 23:00:15.192,-0.555,0.22
2021-08-19 23:00:15.196,-0.55,0.2
2021-08-19 23:00:15.200,-0.54,0.195
2021-08-19 23:00:15.204,-0.525,0.21
2021-08-19 23:00:15.208,-0.525,0.18
2021-08-19 23:00:15.212,-0.54,0.165
2021-08-19 23:00:15.216,-0.53,0.18
2021-08-19 23:00:15.220,-0.51,0.15
2021-08-19 23:00:15.224,-0.525,0.15
2021-08-19 23:00:15.228,-0.51,0.155
2021-08-19 23:00:15.232,-0.49,0.135
2021-08-19 23:00:15.236,-0.495,0.13
2021-08-19 23:00:15.240,-0.46,0.12
2021-08-19 23:00:15.244,-0.43,0.125
2021-08-19 23:00:15.248,-0.425,0.105
2021-08-19 23:00:15.252,-0.42,0.08
2021-08-19 23:00:15.256,-0.43,0.08
2021-08-19 23:00:15.260,-0.42,0.08
2021-08-19 23:00:15.264,-0.39,0.06
2021-08-19 23:00:15.268,-0.35,0.07
2021-08-19 23:00:15.272,-0.355,0.055
2021-08-19 23:00:15.276,-0.315,0.04
2021-08-19 23:00:15.280,-0.3,0.055
2021-08-19 23:00:15.284,-0.3,0.06
2021-08-19 23:00:15.288,-0.31,0.085
2021-08-19 23:00:15.292,-0.3,0.08
2021-08-19 23:00:15.296,-0.3,0.095
2021-08-19 23:00:15.300,-0.275,0.11
2021-08-19 23:00:15.304,-0.28,0.1
2021-08-19 23:00:15.308,-0.28,0.12
2021-08-19 23:00:15.312,-0.28,0.11
2021-08-19 23:00:15.316,-0.3,0.115
2021-08-19 23:00:15.320,-0.29,0.115
2021-08-19 23:00:15.324,-0.27,0.13
2021-08-19 23:00:15.328,-0.27,0.14
2021-08-19 23:00:15.332,-0.25,0.14
2021-08-19 23:00:15.336,-0.24,0.16
2021-08-19 23:00:15.340,-0.24,0.17
2021-08-19 23:00:15.344,-0.23,0.16
2021-08-19 23:00:15.348,-0.215,0.175
2021-08-19 23:00:15.352,-0.21,0.175
2021-08-19 23:00:15.356,-0.24,0.185
2021-08-19 23:00:15.360,-0.225,0.18
2021-08-19 23:00:15.364,-0.255,0.19
2021-08-19 23:00:15.368,-0.275,0.205
2021-08-19 23:00:15.372,-0.28,0.19
2021-08-19 23:00:15.376,-0.29,0.2
2021-08-19 23:00:15.380,-0.295,0.225
2021-08-19 23:00:15.384,-0.305,0.23
2021-08-19 23:00:15.388,-0.295,0.215
2021-08-19 23:00:15.392,-0.31,0.22
2021-08-19 23:00:15.396,-0.31,0.23
2021-08-19 23:00:15.400,-0.3,0.24
2021-08-19 23:00:15.404,-0.29,0.215
2021-08-19 23:00:15.408,-0.285,0.225
2021-08-19 23:00:15.412,-0.3,0.225
2021-08-19 23:00:15.416,-0.28,0.195
2021-08-19 23:00:15.420,-0.275,0.21
2021-08-19 23:00:15.424,-0.285,0.22
2021-08-19 23:00:15.428,-0.295,0.21
2021-08-19 23:00:15.432,-0.29,0.21
2021-08-19 23:00:15.436,-0.28,0.21
2021-08-19 23:00:15.440,-0.26,0.22
2021-08-19 23:00:15.444,-0.265,0.225
2021-08-19 23:00:15.448,-0.245,0.22
2021-08-19 23:00:15.452,-0.2,0.23
2021-08-19 23:00:15.456,-0.15,0.205
2021-08-19 23:00:15.460,-0.04,0.2
2021-08-19 23:00:15.464,0.03,0.195
2021-08-19 23:00:15.468,0.08,0.135
2021-08-19 23:00:15.472,0.135,0.105
2021-08-19 23:00:15.476,0.135,0.06
2021-08-19 23:00:15.480,0.135,0.07
2021-08-19 23:00:15.484,0.135,0.045
2021-08-19 23:00:15.488,0.1,-0.015
2021-08-19 23:00:15.492,0.15,-0.15
2021-08-19 23:00:15.496,0.405,-0.325
2021-08-19 23:00:15.500,0.735,-0.615
2021-08-19 23:00:15.504,1.095,-0.925
2021-08-19 23:00:15.508,1.325,-1.16
2021-08-19 23:00:15.512,1.32,-1.13
2021-08-19 23:00:15.516,1.035,-0.85
2021-08-19 23:00:15.520,0.515,-0.43
2021-08-19 23:00:15.524,0.08,-0.05
2021-08-19 23:00:15.528,-0.145,0.14
2021-08-19 23:00:15.532,-0.27,0.245
2021-08-19 23:00:15.536,-0.335,0.285
2021-08-19 23:00:15.540,-0.37,0.3
2021-08-19 23:00:15.544,-0.39,0.295
2021-08-19 23:00:15.548,-0.38,0.28
2021-08-19 23:00:15.552,-0.36,0.285
2021-08-19 23:00:15.556,-0.375,0.265
2021-08-19 23:00:15.560,-0.38,0.255
2021-08-19 23:00:15.564,-0.37,0.25
2021-08-19 23:00:15.568,-0.375,0.275
2021-08-19 23:00:15.572,-0.38,0.275
2021-08-19 23:00:15.576,-0.365,0.255
2021-08-19 23:00:15.580,-0.39,0.245
2021-08-19 23:00:15.584,-0.41,0.265
2021-08-19 23:00:15.588,-0.405,0.26
2021-08-19 23:00:15.592,-0.42,0.27
2021-08-19 23:00:15.596,-0.435,0.305
2021-08-19 23:00:15.600,-0.465,0.325
2021-08-19 23:00:15.604,-0.46,0.31
2021-08-19 23:00:15.608,-0.445,0.325
2021-08-19 23:00:15.612,-0.465,0.315
2021-08-19 23:00:15.616,-0.48,0.285
2021-08-19 23:00:15.620,-0.48,0.295
2021-08-19 23:00:15.624,-0.495,0.28
2021-08-19 23:00:15.628,-0.49,0.28
2021-08-19 23:00:15.632,-0.505,0.285
2021-08-19 23:00:15.636,-0.51,0.28
2021-08-19 23:00:15.640,-0.505,0.26
2021-08-19 23:00:15.644,-0.51,0.275
2021-08-19 23:00:15.648,-0.515,0.255
2021-08-19 23:00:15.652,-0.51,0.28
2021-08-19 23:00:15.656,-0.51,0.28
2021-08-19 23:00:15.660,-0.52,0.275
2021-08-19 23:00:15.664,-0.525,0.275
2021-08-19 23:00:15.668,-0.505,0.275
2021-08-19 23:00:15.672,-0.51,0.27
2021-08-19 23:00:15.676,-0.505,0.265
2021-08-19 23:00:15.680,-0.475,0.27
2021-08-19 23:00:15.684,-0.44,0.27
2021-08-19 23:00:15.688,-0.445,0.25
2021-08-19 23:00:15.692,-0.42,0.25
2021-08-19 23:00:15.696,-0.38,0.24
2021-08-19 23:00:15.700,-0.395,0.24
2021-08-19 23:00:15.704,-0.39,0.24
2021-08-19 23:00:15.708,-0.36,0.24
2021-08-19 23:00:15.712,-0.345,0.23
2021-08-19 23:00:15.716,-0.35,0.235
2021-08-19 23:00:15.720,-0.345,0.22
2021-08-19 23:00:15.724,-0.34,0.225
2021-08-19 23:00:15.728,-0.325,0.205
2021-08-19 23:00:15.732,-0.33,0.21
2021-08-19 23:00:15.736,-0.33,0.19
2021-08-19 23:00:15.740,-0.315,0.18
2021-08-19 23:00:15.744,-0.285,0.185
2021-08-19 23:00:15.748,-0.285,0.18
2021-08-19 23:00:15.752,-0.29,0.17
2021-08-19 23:00:15.756,-0.28,0.17
2021-08-19 23:00:15.760,-0.275,0.16
2021-08-19 23:00:15.764,-0.24,0.175
2021-08-19 23:00:15.768,-0.22,0.2
2021-08-19 23:00:15.772,-0.2,0.195
2021-08-19 23:00:15.776,-0.19,0.2
2021-08-19 23:00:15.780,-0.16,0.19
2021-08-19 23:00:15.784,-0.155,0.21
2021-08-19 23:00:15.788,-0.16,0.2
2021-08-19 23:00:15.792,-0.15,0.23
2021-08-19 23:00:15.796,-0.19,0.23
2021-08-19 23:00:15.800,-0.195,0.24
2021-08-19 23:00:15.804,-0.2,0.23
2021-08-19 23:00:15.808,-0.215,0.265
2021-08-19 23:00:15.812,-0.23,0.28
2021-08-19 23:00:15.816,-0.245,0.295
2021-08-19 23:00:15.820,-0.24,0.285
2021-08-19 23:00:15.824,-0.255,0.275
2021-08-19 23:00:15.828,-0.225,0.26
2021-08-19 23:00:15.832,-0.22,0.255
2021-08-19 23:00:15.836,-0.24,0.275
2021-08-19 23:00:15.840,-0.245,0.275
2021-08-19 23:00:15.844,-0.265,0.27
2021-08-19 23:00:15.848,-0.265,0.235
2021-08-19 23:00:15.852,-0.285,0.26
2021-08-19 23:00:15.856,-0.29,0.255
2021-08-19 23:00:15.860,-0.3,0.285
2021-08-19 23:00:15.864,-0.31,0.255
2021-08-19 23:00:15.868,-0.285,0.27
2021-08-19 23:00:15.872,-0.28,0.25
2021-08-19 23:00:15.876,-0.26,0.245
2021-08-19 23:00:15.880,-0.27,0.245
2021-08-19 23:00:15.884,-0.27,0.225
2021-08-19 23:00:15.888,-0.27,0.24
2021-08-19 23:00:15.892,-0.265,0.23
2021-08-19 23:00:15.896,-0.25,0.22
2021-08-19 23:00:15.900,-0.245,0.19
2021-08-19 23:00:15.904,-0.205,0.195
2021-08-19 23:00:15.908,-0.19,0.205
2021-08-19 23:00:15.912,-0.185,0.215
2021-08-19 23:00:15.916,-0.175,0.195
2021-08-19 23:00:15.920,-0.15,0.195
2021-08-19 23:00:15.924,-0.16,0.2
2021-08-19 23:00:15.928,-0.17,0.185
2021-08-19 23:00:15.932,-0.18,0.195
2021-08-19 23:00:15.936,-0.2,0.205
2021-08-19 23:00:15.940,-0.185,0.205
2021-08-19 23:00:15.944,-0.2,0.2
2021-08-19 23:00:15.948,-0.2,0.2
2021-08-19 23:00:15.952,-0.23,0.19
2021-08-19 23:00:15.956,-0.24,0.185
2021-08-19 23:00:15.960,-0.22,0.175
2021-08-19 23:00:15.964,-0.225,0.17
2021-08-19 23:00:15.968,-0.22,0.185
2021-08-19 23:00:15.972,-0.205,0.185
2021-08-19 23:00:15.976,-0.195,0.17
2021-08-19 23:00:15.980,-0.2,0.18
2021-08-19 23:00:15.984,-0.2,0.165
2021-08-19 23:00:15.988,-0.18,0.205
2021-08-19 23:00:15.992,-0.185,0.17
2021-08-19 23:00:15.996,-0.17,0.205
2021-08-19 23:00:16.000,-0.14,0.2
2021-08-19 23:00:16.004,-0.155,0.195
2021-08-19 23:00:16.008,-0.175,0.195
2021-08-19 23:00:16.012,-0.21,0.175
2021-08-19 23:00:16.016,-0.25,0.205
2021-08-19 23:00:16.020,-0.26,0.185
2021-08-19 23:00:16.024,-0.27,0.21
2021-08-19 23:00:16.028,-0.28,0.205
2021-08-19 23:00:16.032,-0.26,0.23
2021-08-19 23:00:16.036,-0.275,0.235
2021-08-19 23:00:16.040,-0.25,0.23
2021-08-19 23:00:16.044,-0.26,0.23
2021-08-19 23:00:16.048,-0.25,0.235
2021-08-19 23:00:16.052,-0.25,0.215
2021-08-19 23:00:16.056,-0.255,0.215
2021-08-19 23:00:16.060,-0.27,0.2
2021-08-19 23:00:16.064,-0.28,0.215
2021-08-19 23:00:16.068,-0.295,0.185
2021-08-19 23:00:16.072,-0.27,0.195
2021-08-19 23:00:16.076,-0.265,0.19
2021-08-19 23:00:16.080,-0.24,0.195
2021-08-19 23:00:16.084,-0.15,0.205
2021-08-19 23:00:16.088,-0.06,0.17
2021-08-19 23:00:16.092,0.015,0.155
2021-08-19 23:00:16.096,0.065,0.11
2021-08-19 23:00:16.100,0.11,0.09
2021-08-19 23:00:16.104,0.13,0.07
2021-08-19 23:00:16.108,0.145,0.085
2021-08-19 23:00:16.112,0.11,0.01
2021-08-19 23:00:16.116,0.105,-0.08
2021-08-19 23:00:16.120,0.26,-0.225
2021-08-19 23:00:16.124,0.56,-0.465
2021-08-19 23:00:16.128,0.93,-0.745
2021-08-19 23:00:16.132,1.255,-1.02
2021-08-19 23:00:16.136,1.365,-1.12
2021-08-19 23:00:16.140,1.235,-0.96
2021-08-19 23:00:16.144,0.77,-0.545
2021-08-19 23:00:16.148,0.265,-0.13
2021-08-19 23:00:16.152,-0.025,0.135
2021-08-19 23:00:16.156,-0.2,0.24
2021-08-19 23:00:16.160,-0.285,0.315
2021-08-19 23:00:16.164,-0.3,0.315
2021-08-19 23:00:16.168,-0.355,0.315
2021-08-19 23:00:16.172,-0.37,0.315
2021-08-19 23:00:16.176,-0.395,0.3
2021-08-19 23:00:16.180,-0.41,0.295
2021-08-19 23:00:16.184,-0.415,0.275
2021-08-19 23:00:16.188,-0.42,0.25
2021-08-19 23:00:16.192,-0.415,0.245
2021-08-19 23:00:16.196,-0.41,0.235
2021-08-19 23:00:16.200,-0.41,0.23
2021-08-19 23:00:16.204,-0.425,0.22
2021-08-19 23:00:16.208,-0.395,0.24
2021-08-19 23:00:16.212,-0.42,0.25
2021-08-19 23:00:16.216,-0.425,0.23
2021-08-19 23:00:16.220,-0.45,0.235
2021-08-19 23:00:16.224,-0.48,0.245
2021-08-19 23:00:16.228,-0.505,0.225
2021-08-19 23:00:16.232,-0.52,0.245
2021-08-19 23:00:16.236,-0.53,0.25
2021-08-19 23:00:16.240,-0.53,0.26
2021-08-19 23:00:16.244,-0.515,0.285
2021-08-19 23:00:16.248,-0.515,0.27
2021-08-19 23:00:16.252,-0.495,0.27
2021-08-19 23:00:16.256,-0.505,0.27
2021-08-19 23:00:16.260,-0.505,0.275
2021-08-19 23:00:16.264,-0.525,0.255
2021-08-19 23:00:16.268,-0.53,0.24
2021-08-19 23:00:16.272,-0.5,0.24
2021-08-19 23:00:16.276,-0.52,0.235
2021-08-19 23:00:16.280,-0.505,0.25
2021-08-19 23:00:16.284,-0.515,0.24
2021-08-19 23:00:16.288,-0.52,0.245
2021-08-19 23:00:16.292,-0.54,0.28
2021-08-19 23:00:16.296,-0.555,0.265
2021-08-19 23:00:16.300,-0.56,0.23
2021-08-19 23:00:16.304,-0.55,0.24
2021-08-19 23:00:16.308,-0.535,0.215
2021-08-19 23:00:16.312,-0.54,0.225
2021-08-19 23:00:16.316,-0.535,0.19
2021-08-19 23:00:16.320,-0.5,0.18
2021-08-19 23:00:16.324,-0.475,0.175
2021-08-19 23:00:16.328,-0.465,0.17
2021-08-19 23:00:16.332,-0.455,0.185
2021-08-19 23:00:16.336,-0.465,0.175
2021-08-19 23:00:16.340,-0.455,0.165
2021-08-19 23:00:16.344,-0.455,0.16
2021-08-19 23:00:16.348,-0.445,0.165
2021-08-19 23:00:16.352,-0.41,0.18
2021-08-19 23:00:16.356,-0.375,0.17
2021-08-19 23:00:16.360,-0.4,0.18
2021-08-19 23:00:16.364,-0.395,0.185
2021-08-19 23:00:16.368,-0.385,0.19
2021-08-19 23:00:16.372,-0.38,0.13
2021-08-19 23:00:16.376,-0.37,0.16
2021-08-19 23:00:16.380,-0.37,0.17
2021-08-19 23:00:16.384,-0.33,0.15
2021-08-19 23:00:16.388,-0.315,0.13
2021-08-19 23:00:16.392,-0.295,0.155
2021-08-19 23:00:16.396,-0.3,0.155
2021-08-19 23:00:16.400,-0.3,0.175
2021-08-19 23:00:16.404,-0.28,0.175
2021-08-19 23:00:16.408,-0.265,0.18
2021-08-19 23:00:16.412,-0.24,0.175
2021-08-19 23:00:16.416,-0.23,0.165
2021-08-19 23:00:16.420,-0.23,0.2
2021-08-19 23:00:16.424,-0.225,0.185
2021-08-19 23:00:16.428,-0.26,0.19
2021-08-19 23:00:16.432,-0.29,0.19
2021-08-19 23:00:16.436,-0.28,0.195
2021-08-19 23:00:16.440,-0.305,0.225
2021-08-19 23:00:16.444,-0.335,0.215
2021-08-19 23:00:16.448,-0.315,0.23
2021-08-19 23:00:16.452,-0.305,0.235
2021-08-19 23:00:16.456,-0.31,0.255
2021-08-19 23:00:16.460,-0.29,0.235
2021-08-19 23:00:16.464,-0.3,0.27
2021-08-19 23:00:16.468,-0.26,0.25
2021-08-19 23:00:16.472,-0.245,0.25
2021-08-19 23:00:16.476,-0.265,0.255
2021-08-19 23:00:16.480,-0.265,0.245
2021-08-19 23:00:16.484,-0.265,0.27
2021-08-19 23:00:16.488,-0.285,0.265
2021-08-19 23:00:16.492,-0.295,0.255
2021-08-19 23:00:16.496,-0.28,0.255
2021-08-19 23:00:16.500,-0.265,0.255
2021-08-19 23:00:16.504,-0.26,0.235
2021-08-19 23:00:16.508,-0.275,0.255
2021-08-19 23:00:16.512,-0.275,0.28
2021-08-19 23:00:16.516,-0.265,0.24
2021-08-19 23:00:16.520,-0.21,0.27
2021-08-19 23:00:16.524,-0.155,0.245
2021-08-19 23:00:16.528,-0.1,0.26
2021-08-19 23:00:16.532,-0.04,0.245
2021-08-19 23:00:16.536,0.02,0.21
2021-08-19 23:00:16.540,0.035,0.155
2021-08-19 23:00:16.544,0.085,0.105
2021-08-19 23:00:16.548,0.04,0.11
2021-08-19 23:00:16.552,0.0,0.09
2021-08-19 23:00:16.556,-0.045,0.06
2021-08-19 23:00:16.560,-0.01,-0.025
2021-08-19 23:00:16.564,0.275,-0.195
2021-08-19 23:00:16.568,0.66,-0.475
2021-08-19 23:00:16.572,0.97,-0.855
2021-08-19 23:00:16.576,1.225,-1.1
2021-08-19 23:00:16.580,1.24,-1.1
2021-08-19 23:00:16.584,0.97,-0.845
2021-08-19 23:00:16.588,0.5,-0.385
2021-08-19 23:00:16.592,0.05,-0.02
2021-08-19 23:00:16.596,-0.185,0.19
2021-08-19 23:00:16.600,-0.335,0.27
2021-08-19 23:00:16.604,-0.4,0.285
2021-08-19 23:00:16.608,-0.43,0.295
2021-08-19 23:00:16.612,-0.47,0.255
2021-08-19 23:00:16.616,-0.5,0.25
2021-08-19 23:00:16.620,-0.49,0.245
2021-08-19 23:00:16.624,-0.47,0.22
2021-08-19 23:00:16.628,-0.485,0.215
2021-08-19 23:00:16.632,-0.47,0.17
2021-08-19 23:00:16.636,-0.49,0.185
2021-08-19 23:00:16.640,-0.51,0.17
2021-08-19 23:00:16.644,-0.54,0.155
2021-08-19 23:00:16.648,-0.59,0.185
2021-08-19 23:00:16.652,-0.615,0.19
2021-08-19 23:00:16.656,-0.63,0.185
2021-08-19 23:00:16.660,-0.64,0.18
2021-08-19 23:00:16.664,-0.655,0.19
2021-08-19 23:00:16.668,-0.65,0.19
2021-08-19 23:00:16.672,-0.655,0.18
2021-08-19 23:00:16.676,-0.67,0.18
2021-08-19 23:00:16.680,-0.635,0.17
2021-08-19 23:00:16.684,-0.65,0.185
2021-08-19 23:00:16.688,-0.64,0.17
2021-08-19 23:00:16.692,-0.625,0.145
2021-08-19 23:00:16.696,-0.61,0.16
2021-08-19 23:00:16.700,-0.605,0.125
2021-08-19 23:00:16.704,-0.63,0.135
2021-08-19 23:00:16.708,-0.635,0.16
2021-08-19 23:00:16.712,-0.615,0.155
2021-08-19 23:00:16.716,-0.61,0.155
2021-08-19 23:00:16.720,-0.61,0.155
2021-08-19 23:00:16.724,-0.59,0.145
2021-08-19 23:00:16.728,-0.575,0.145
2021-08-19 23:00:16.732,-0.56,0.135
2021-08-19 23:00:16.736,-0.54,0.165
2021-08-19 23:00:16.740,-0.54,0.165
2021-08-19 23:00:16.744,-0.55,0.16
2021-08-19 23:00:16.748,-0.535,0.155
2021-08-19 23:00:16.752,-0.505,0.17
2021-08-19 23:00:16.756,-0.495,0.165
2021-08-19 23:00:16.760,-0.49,0.145
2021-08-19 23:00:16.764,-0.5,0.12
2021-08-19 23:00:16.768,-0.49,0.11
2021-08-19 23:00:16.772,-0.465,0.08
2021-08-19 23:00:16.776,-0.455,0.09
2021-08-19 23:00:16.780,-0.45,0.05
2021-08-19 23:00:16.784,-0.45,0.045
2021-08-19 23:00:16.788,-0.47,0.04
2021-08-19 23:00:16.792,-0.475,0.045
2021-08-19 23:00:16.796,-0.465,0.005
2021-08-19 23:00:16.800,-0.455,0.005
2021-08-19 23:00:16.804,-0.44,0.01
2021-08-19 23:00:16.808,-0.42,0.0
2021-08-19 23:00:16.812,-0.41,-0.01
2021-08-19 23:00:16.816,-0.36,0.0
2021-08-19 23:00:16.820,-0.365,-0.035
2021-08-19 23:00:16.824,-0.36,-0.015
2021-08-19 23:00:16.828,-0.365,-0.015
2021-08-19 23:00:16.832,-0.32,-0.02
2021-08-19 23:00:16.836,-0.325,-0.02
2021-08-19 23:00:16.840,-0.29,0.0
2021-08-19 23:00:16.844,-0.31,-0.02
2021-08-19 23:00:16.848,-0.32,-0.015
2021-08-19 23:00:16.852,-0.355,-0.01
2021-08-19 23:00:16.856,-0.385,0.01
2021-08-19 23:00:16.860,-0.4,0.015
2021-08-19 23:00:16.864,-0.39,0.005
2021-08-19 23:00:16.868,-0.42,0.005
2021-08-19 23:00:16.872,-0.415,0.0
2021-08-19 23:00:16.876,-0.415,0.02
2021-08-19 23:00:16.880,-0.43,0.01
2021-08-19 23:00:16.884,-0.41,0.0
2021-08-19 23:00:16.888,-0.43,0.005
2021-08-19 23:00:16.892,-0.44,-0.02
2021-08-19 23:00:16.896,-0.43,-0.01
2021-08-19 23:00:16.900,-0.425,-0.03
2021-08-19 23:00:16.904,-0.405,-0.035
2021-08-19 23:00:16.908,-0.395,-0.02
2021-08-19 23:00:16.912,-0.4,-0.03
2021-08-19 23:00:16.916,-0.38,-0.035
2021-08-19 23:00:16.920,-0.4,-0.03
2021-08-19 23:00:16.924,-0.365,-0.03
2021-08-19 23:00:16.928,-0.345,-0.035
2021-08-19 23:00:16.932,-0.35,-0.025
2021-08-19 23:00:16.936,-0.345,-0.035
2021-08-19 23:00:16.940,-0.32,-0.04
2021-08-19 23:00:16.944,-0.305,-0.025
2021-08-19 23:00:16.948,-0.305,-0.015
2021-08-19 23:00:16.952,-0.295,-0.005
2021-08-19 23:00:16.956,-0.315,-0.005
2021-08-19 23:00:16.960,-0.305,-0.01
2021-08-19 23:00:16.964,-0.3,-0.02
2021-08-19 23:00:16.968,-0.31,-0.02
2021-08-19 23:00:16.972,-0.315,-0.02
2021-08-19 23:00:16.976,-0.285,-0.015
2021-08-19 23:00:16.980,-0.275,-0.015
2021-08-19 23:00:16.984,-0.28,-0.045
2021-08-19 23:00:16.988,-0.29,-0.05
2021-08-19 23:00:16.992,-0.29,-0.055
2021-08-19 23:00:16.996,-0.305,-0.065
2021-08-19 23:00:17.000,-0.31,-0.065
2021-08-19 23:00:17.004,-0.305,-0.08
2021-08-19 23:00:17.008,-0.29,-0.075
2021-08-19 23:00:17.012,-0.315,-0.08
2021-08-19 23:00:17.016,-0.315,-0.09
2021-08-19 23:00:17.020,-0.295,-0.095
2021-08-19 23:00:17.024,-0.265,-0.12
2021-08-19 23:00:17.028,-0.27,-0.135
2021-08-19 23:00:17.032,-0.26,-0.105
2021-08-19 23:00:17.036,-0.23,-0.1
2021-08-19 23:00:17.040,-0.225,-0.13
2021-08-19 23:00:17.044,-0.205,-0.13
2021-08-19 23:00:17.048,-0.22,-0.115
2021-08-19 23:00:17.052,-0.22,-0.11
2021-08-19 23:00:17.056,-0.215,-0.115
2021-08-19 23:00:17.060,-0.22,-0.105
2021-08-19 23:00:17.064,-0.24,-0.115
2021-08-19 23:00:17.068,-0.265,-0.125
2021-08-19 23:00:17.072,-0.27,-0.125
2021-08-19 23:00:17.076,-0.3,-0.11
2021-08-19 23:00:17.080,-0.33,-0.1
2021-08-19 23:00:17.084,-0.34,-0.085
2021-08-19 23:00:17.088,-0.34,-0.08
2021-08-19 23:00:17.092,-0.335,-0.1
2021-08-19 23:00:17.096,-0.32,-0.105
2021-08-19 23:00:17.100,-0.34,-0.125
2021-08-19 23:00:17.104,-0.34,-0.115
2021-08-19 23:00:17.108,-0.32,-0.12
2021-08-19 23:00:17.112,-0.315,-0.135
2021-08-19 23:00:17.116,-0.31,-0.15
2021-08-19 23:00:17.120,-0.3,-0.135
2021-08-19 23:00:17.124,-0.29,-0.16
2021-08-19 23:00:17.128,-0.305,-0.145
2021-08-19 23:00:17.132,-0.3,-0.13
2021-08-19 23:00:17.136,-0.285,-0.14
2021-08-19 23:00:17.140,-0.27,-0.125
2021-08-19 23:00:17.144,-0.235,-0.115
2021-08-19 23:00:17.148,-0.235,-0.11
2021-08-19 23:00:17.152,-0.22,-0.145
2021-08-19 23:00:17.156,-0.225,-0.125
2021-08-19 23:00:17.160,-0.215,-0.115
2021-08-19 23:00:17.164,-0.22,-0.12
2021-08-19 23:00:17.168,-0.195,-0.1
2021-08-19 23:00:17.172,-0.19,-0.07
2021-08-19 23:00:17.176,-0.2,-0.08
2021-08-19 23:00:17.180,-0.2,-0.05
2021-08-19 23:00:17.184,-0.19,-0.04
2021-08-19 23:00:17.188,-0.19,-0.05
2021-08-19 23:00:17.192,-0.19,-0.07
2021-08-19 23:00:17.196,-0.195,-0.05
2021-08-19 23:00:17.200,-0.2,-0.065
2021-08-19 23:00:17.204,-0.17,-0.08
2021-08-19 23:00:17.208,-0.17,-0.11
2021-08-19 23:00:17.212,-0.155,-0.1
2021-08-19 23:00:17.216,-0.165,-0.115
2021-08-19 23:00:17.220,-0.17,-0.105
2021-08-19 23:00:17.224,-0.17,-0.105
2021-08-19 23:00:17.228,-0.165,-0.13
2021-08-19 23:00:17.232,-0.175,-0.12
2021-08-19 23:00:17.236,-0.16,-0.13
2021-08-19 23:00:17.240,-0.175,-0.155
2021-08-19 23:00:17.244,-0.155,-0.14
2021-08-19 23:00:17.248,-0.135,-0.13
2021-08-19 23:00:17.252,-0.1,-0.14
2021-08-19 23:00:17.256,-0.05,-0.125
2021-08-19 23:00:17.260,-0.07,-0.145
2021-08-19 23:00:17.264,-0.08,-0.135
2021-08-19 23:00:17.268,-0.115,-0.115
2021-08-19 23:00:17.272,-0.115,-0.11
2021-08-19 23:00:17.276,-0.155,-0.135
2021-08-19 23:00:17.280,-0.17,-0.125
2021-08-19 23:00:17.284,-0.195,-0.11
2021-08-19 23:00:17.288,-0.195,-0.085
2021-08-19 23:00:17.292,-0.21,-0.085
2021-08-19 23:00:17.296,-0.21,-0.075
2021-08-19 23:00:17.300,-0.215,-0.07
2021-08-19 23:00:17.304,-0.21,-0.09
2021-08-19 23:00:17.308,-0.21,-0.08
2021-08-19 23:00:17.312,-0.205,-0.09
2021-08-19 23:00:17.316,-0.2,-0.095
2021-08-19 23:00:17.320,-0.16,-0.11
2021-08-19 23:00:17.324,-0.09,-0.1
2021-08-19 23:00:17.328,-0.02,-0.1
2021-08-19 23:00:17.332,0.085,-0.135
2021-08-19 23:00:17.336,0.185,-0.155
2021-08-19 23:00:17.340,0.265,-0.17
2021-08-19 23:00:17.344,0.325,-0.205
2021-08-19 23:00:17.348,0.425,-0.19
2021-08-19 23:00:17.352,0.47,-0.185
2021-08-19 23:00:17.356,0.43,-0.23
2021-08-19 23:00:17.360,0.42,-0.28
2021-08-19 23:00:17.364,0.545,-0.405
2021-08-19 23:00:17.368,0.84,-0.6
2021-08-19 23:00:17.372,1.2,-0.855
2021-08-19 23:00:17.376,1.485,-1.06
2021-08-19 23:00:17.380,1.535,-1.135
2021-08-19 23:00:17.384,1.29,-0.955
2021-08-19 23:00:17.388,0.8,-0.555
2021-08-19 23:00:17.392,0.305,-0.21
2021-08-19 23:00:17.396,0.02,-0.03
2021-08-19 23:00:17.400,-0.12,0.065
2021-08-19 23:00:17.404,-0.2,0.145
2021-08-19 23:00:17.408,-0.265,0.18
2021-08-19 23:00:17.412,-0.31,0.18
2021-08-19 23:00:17.416,-0.335,0.18
2021-08-19 23:00:17.420,-0.36,0.18
2021-08-19 23:00:17.424,-0.38,0.145
2021-08-19 23:00:17.428,-0.39,0.135
2021-08-19 23:00:17.432,-0.39,0.13
2021-08-19 23:00:17.436,-0.38,0.125
2021-08-19 23:00:17.440,-0.36,0.1
2021-08-19 23:00:17.444,-0.36,0.1
2021-08-19 23:00:17.448,-0.38,0.075
2021-08-19 23:00:17.452,-0.37,0.1
2021-08-19 23:00:17.456,-0.365,0.08
2021-08-19 23:00:17.460,-0.365,0.095
2021-08-19 23:00:17.464,-0.345,0.1
2021-08-19 23:00:17.468,-0.365,0.115
2021-08-19 23:00:17.472,-0.38,0.115
2021-08-19 23:00:17.476,-0.43,0.125
2021-08-19 23:00:17.480,-0.455,0.115
2021-08-19 23:00:17.484,-0.47,0.145
2021-08-19 23:00:17.488,-0.505,0.14
2021-08-19 23:00:17.492,-0.51,0.155
2021-08-19 23:00:17.496,-0.53,0.165
2021-08-19 23:00:17.500,-0.55,0.13
2021-08-19 23:00:17.504,-0.53,0.165
2021-08-19 23:00:17.508,-0.54,0.165
2021-08-19 23:00:17.512,-0.535,0.155
2021-08-19 23:00:17.516,-0.52,0.125
2021-08-19 23:00:17.520,-0.54,0.15
2021-08-19 23:00:17.524,-0.54,0.125
2021-08-19 23:00:17.528,-0.54,0.15
2021-08-19 23:00:17.532,-0.535,0.135
2021-08-19 23:00:17.536,-0.545,0.115
2021-08-19 23:00:17.540,-0.56,0.115
2021-08-19 23:00:17.544,-0.545,0.11
2021-08-19 23:00:17.548,-0.51,0.115
2021-08-19 23:00:17.552,-0.505,0.1
2021-08-19 23:00:17.556,-0.515,0.085
2021-08-19 23:00:17.560,-0.505,0.105
2021-08-19 23:00:17.564,-0.48,0.09
2021-08-19 23:00:17.568,-0.455,0.1
2021-08-19 23:00:17.572,-0.435,0.11
2021-08-19 23:00:17.576,-0.44,0.125
2021-08-19 23:00:17.580,-0.43,0.125
2021-08-19 23:00:17.584,-0.395,0.115
2021-08-19 23:00:17.588,-0.41,0.11
2021-08-19 23:00:17.592,-0.395,0.125
2021-08-19 23:00:17.596,-0.385,0.14
2021-08-19 23:00:17.600,-0.36,0.13
2021-08-19 23:00:17.604,-0.36,0.145
2021-08-19 23:00:17.608,-0.35,0.115
2021-08-19 23:00:17.612,-0.34,0.12
2021-08-19 23:00:17.616,-0.36,0.115
2021-08-19 23:00:17.620,-0.325,0.13
2021-08-19 23:00:17.624,-0.32,0.13
2021-08-19 23:00:17.628,-0.305,0.13
2021-08-19 23:00:17.632,-0.285,0.095
2021-08-19 23:00:17.636,-0.23,0.11
2021-08-19 23:00:17.640,-0.23,0.105
2021-08-19 23:00:17.644,-0.205,0.09
2021-08-19 23:00:17.648,-0.21,0.085
2021-08-19 23:00:17.652,-0.19,0.075
2021-08-19 23:00:17.656,-0.175,0.095
2021-08-19 23:00:17.660,-0.155,0.08
2021-08-19 23:00:17.664,-0.15,0.095
2021-08-19 23:00:17.668,-0.125,0.1
2021-08-19 23:00:17.672,-0.14,0.08
2021-08-19 23:00:17.676,-0.145,0.095
2021-08-19 23:00:17.680,-0.145,0.085
2021-08-19 23:00:17.684,-0.16,0.105
2021-08-19 23:00:17.688,-0.16,0.1
2021-08-19 23:00:17.692,-0.175,0.09
2021-08-19 23:00:17.696,-0.21,0.11
2021-08-19 23:00:17.700,-0.23,0.135
2021-08-19 23:00:17.704,-0.25,0.155
2021-08-19 23:00:17.708,-0.25,0.145
2021-08-19 23:00:17.712,-0.23,0.15
2021-08-19 23:00:17.716,-0.245,0.135
2021-08-19 23:00:17.720,-0.255,0.125
2021-08-19 23:00:17.724,-0.235,0.11
2021-08-19 23:00:17.728,-0.27,0.1
2021-08-19 23:00:17.732,-0.275,0.1
2021-08-19 23:00:17.736,-0.255,0.08
2021-08-19 23:00:17.740,-0.25,0.08
2021-08-19 23:00:17.744,-0.245,0.08
2021-08-19 23:00:17.748,-0.225,0.065
2021-08-19 23:00:17.752,-0.205,0.075
2021-08-19 23:00:17.756,-0.22,0.085
2021-08-19 23:00:17.760,-0.19,0.085
2021-08-19 23:00:17.764,-0.205,0.085
2021-08-19 23:00:17.768,-0.175,0.095
2021-08-19 23:00:17.772,-0.18,0.085
2021-08-19 23:00:17.776,-0.185,0.095
2021-08-19 23:00:17.780,-0.16,0.105
2021-08-19 23:00:17.784,-0.165,0.08
2021-08-19 23:00:17.788,-0.145,0.105
2021-08-19 23:00:17.792,-0.12,0.115
2021-08-19 23:00:17.796,-0.13,0.115
2021-08-19 23:00:17.800,-0.135,0.13
2021-08-19 23:00:17.804,-0.12,0.13
2021-08-19 23:00:17.808,-0.12,0.12
2021-08-19 23:00:17.812,-0.13,0.135
2021-08-19 23:00:17.816,-0.145,0.13
2021-08-19 23:00:17.820,-0.14,0.145
2021-08-19 23:00:17.824,-0.14,0.15
2021-08-19 23:00:17.828,-0.13,0.14
2021-08-19 23:00:17.832,-0.11,0.165
2021-08-19 23:00:17.836,-0.12,0.15
2021-08-19 23:00:17.840,-0.11,0.165
2021-08-19 23:00:17.844,-0.085,0.185
2021-08-19 23:00:17.848,-0.095,0.165
2021-08-19 23:00:17.852,-0.065,0.175
2021-08-19 23:00:17.856,-0.06,0.155
2021-08-19 23:00:17.860,-0.055,0.155
2021-08-19 23:00:17.864,-0.045,0.155
2021-08-19 23:00:17.868,-0.055,0.18
2021-08-19 23:00:17.872,-0.035,0.17
2021-08-19 23:00:17.876,-0.015,0.155
2021-08-19 23:00:17.880,-0.03,0.155
2021-08-19 23:00:17.884,-0.075,0.155
2021-08-19 23:00:17.888,-0.08,0.135
2021-08-19 23:00:17.892,-0.11,0.14
2021-08-19 23:00:17.896,-0.14,0.115
2021-08-19 23:00:17.900,-0.18,0.12
2021-08-19 23:00:17.904,-0.2,0.125
2021-08-19 23:00:17.908,-0.235,0.13
2021-08-19 23:00:17.912,-0.245,0.145
2021-08-19 23:00:17.916,-0.24,0.14
2021-08-19 23:00:17.920,-0.225,0.12
2021-08-19 23:00:17.924,-0.21,0.115
2021-08-19 23:00:17.928,-0.2,0.105
2021-08-19 23:00:17.932,-0.21,0.095
2021-08-19 23:00:17.936,-0.2,0.07
2021-08-19 23:00:17.940,-0.165,0.075
2021-08-19 23:00:17.944,-0.185,0.07
2021-08-19 23:00:17.948,-0.185,0.045
2021-08-19 23:00:17.952,-0.17,0.035
2021-08-19 23:00:17.956,-0.17,0.015
2021-08-19 23:00:17.960,-0.165,0.02
2021-08-19 23:00:17.964,-0.15,0.05
2021-08-19 23:00:17.968,-0.155,0.035
2021-08-19 23:00:17.972,-0.1,0.025
2021-08-19 23:00:17.976,-0.055,0.025
2021-08-19 23:00:17.980,0.015,0.01
2021-08-19 23:00:17.984,0.12,0.005
2021-08-19 23:00:17.988,0.195,0.0
2021-08-19 23:00:17.992,0.265,-0.065
2021-08-19 23:00:17.996,0.285,-0.045
2021-08-19 23:00:18.000,0.29,-0.045
2021-08-19 23:00:18.004,0.285,-0.06
2021-08-19 23:00:18.008,0.245,-0.12
2021-08-19 23:00:18.012,0.265,-0.205
2021-08-19 23:00:18.016,0.44,-0.335
2021-08-19 23:00:18.020,0.74,-0.575
2021-08-19 23:00:18.024,1.115,-0.855
2021-08-19 23:00:18.028,1.355,-1.065
2021-08-19 23:00:18.032,1.38,-1.125
2021-08-19 23:00:18.036,1.1,-0.895
2021-08-19 23:00:18.040,0.59,-0.46
2021-08-19 23:00:18.044,0.14,-0.105
2021-08-19 23:00:18.048,-0.09,0.095
2021-08-19 23:00:18.052,-0.22,0.22
2021-08-19 23:00:18.056,-0.25,0.265
2021-08-19 23:00:18.060,-0.265,0.275
2021-08-19 23:00:18.064,-0.265,0.275
2021-08-19 23:00:18.068,-0.27,0.26
2021-08-19 23:00:18.072,-0.255,0.29
2021-08-19 23:00:18.076,-0.24,0.26
2021-08-19 23:00:18.080,-0.26,0.245
2021-08-19 23:00:18.084,-0.24,0.215
2021-08-19 23:00:18.088,-0.245,0.205
2021-08-19 23:00:18.092,-0.27,0.205
2021-08-19 23:00:18.096,-0.285,0.21
2021-08-19 23:00:18.100,-0.3,0.215
2021-08-19 23:00:18.104,-0.365,0.195
2021-08-19 23:00:18.108,-0.405,0.21
2021-08-19 23:00:18.112,-0.45,0.18
2021-08-19 23:00:18.116,-0.44,0.205
2021-08-19 23:00:18.120,-0.435,0.205
2021-08-19 23:00:18.124,-0.435,0.21
2021-08-19 23:00:18.128,-0.435,0.18
2021-08-19 23:00:18.132,-0.44,0.155
2021-08-19 23:00:18.136,-0.43,0.15
2021-08-19 23:00:18.140,-0.445,0.135
2021-08-19 23:00:18.144,-0.445,0.135
2021-08-19 23:00:18.148,-0.445,0.105
2021-08-19 23:00:18.152,-0.455,0.1
2021-08-19 23:00:18.156,-0.45,0.085
2021-08-19 23:00:18.160,-0.46,0.08
2021-08-19 23:00:18.164,-0.445,0.075
2021-08-19 23:00:18.168,-0.415,0.09
2021-08-19 23:00:18.172,-0.415,0.075
2021-08-19 23:00:18.176,-0.405,0.09
2021-08-19 23:00:18.180,-0.43,0.075
2021-08-19 23:00:18.184,-0.415,0.08
2021-08-19 23:00:18.188,-0.4,0.115
2021-08-19 23:00:18.192,-0.385,0.125
2021-08-19 23:00:18.196,-0.37,0.095
2021-08-19 23:00:18.200,-0.36,0.09
2021-08-19 23:00:18.204,-0.35,0.105
2021-08-19 23:00:18.208,-0.355,0.12
2021-08-19 23:00:18.212,-0.375,0.12
2021-08-19 23:00:18.216,-0.375,0.12
2021-08-19 23:00:18.220,-0.375,0.115
2021-08-19 23:00:18.224,-0.39,0.11
2021-08-19 23:00:18.228,-0.4,0.125
2021-08-19 23:00:18.232,-0.415,0.145
2021-08-19 23:00:18.236,-0.4,0.145
2021-08-19 23:00:18.240,-0.38,0.12
2021-08-19 23:00:18.244,-0.39,0.1
2021-08-19 23:00:18.248,-0.385,0.09
2021-08-19 23:00:18.252,-0.38,0.1
2021-08-19 23:00:18.256,-0.375,0.095
2021-08-19 23:00:18.260,-0.395,0.1
2021-08-19 23:00:18.264,-0.395,0.09
2021-08-19 23:00:18.268,-0.345,0.085
2021-08-19 23:00:18.272,-0.345,0.09
2021-08-19 23:00:18.276,-0.32,0.075
2021-08-19 23:00:18.280,-0.275,0.1
2021-08-19 23:00:18.284,-0.25,0.11
2021-08-19 23:00:18.288,-0.22,0.1
2021-08-19 23:00:18.292,-0.2,0.1
2021-08-19 23:00:18.296,-0.205,0.115
2021-08-19 23:00:18.300,-0.22,0.13
2021-08-19 23:00:18.304,-0.205,0.14
2021-08-19 23:00:18.308,-0.22,0.15
2021-08-19 23:00:18.312,-0.24,0.16
2021-08-19 23:00:18.316,-0.26,0.15
2021-08-19 23:00:18.320,-0.25,0.155
2021-08-19 23:00:18.324,-0.26,0.165
2021-08-19 23:00:18.328,-0.255,0.165
2021-08-19 23:00:18.332,-0.255,0.17
2021-08-19 23:00:18.336,-0.26,0.15
2021-08-19 23:00:18.340,-0.255,0.155
2021-08-19 23:00:18.344,-0.225,0.135
2021-08-19 23:00:18.348,-0.24,0.12
2021-08-19 23:00:18.352,-0.245,0.13
2021-08-19 23:00:18.356,-0.23,0.105
2021-08-19 23:00:18.360,-0.23,0.095
2021-08-19 23:00:18.364,-0.23,0.09
2021-08-19 23:00:18.368,-0.235,0.1
2021-08-19 23:00:18.372,-0.225,0.095
2021-08-19 23:00:18.376,-0.22,0.105
2021-08-19 23:00:18.380,-0.21,0.095
2021-08-19 23:00:18.384,-0.19,0.1
2021-08-19 23:00:18.388,-0.185,0.1
2021-08-19 23:00:18.392,-0.18,0.08
2021-08-19 23:00:18.396,-0.16,0.11
2021-08-19 23:00:18.400,-0.19,0.115
2021-08-19 23:00:18.404,-0.185,0.11
2021-08-19 23:00:18.408,-0.16,0.115
2021-08-19 23:00:18.412,-0.14,0.125
2021-08-19 23:00:18.416,-0.125,0.14
2021-08-19 23:00:18.420,-0.13,0.14
2021-08-19 23:00:18.424,-0.125,0.125
2021-08-19 23:00:18.428,-0.14,0.125
2021-08-19 23:00:18.432,-0.135,0.13
2021-08-19 23:00:18.436,-0.14,0.15
2021-08-19 23:00:18.440,-0.155,0.16
2021-08-19 23:00:18.444,-0.15,0.15
2021-08-19 23:00:18.448,-0.15,0.135
2021-08-19 23:00:18.452,-0.17,0.145
2021-08-19 23:00:18.456,-0.18,0.125
2021-08-19 23:00:18.460,-0.17,0.115
2021-08-19 23:00:18.464,-0.175,0.14
2021-08-19 23:00:18.468,-0.13,0.145
2021-08-19 23:00:18.472,-0.095,0.12
2021-08-19 23:00:18.476,-0.05,0.13
2021-08-19 23:00:18.480,0.005,0.135
2021-08-19 23:00:18.484,0.1,0.14
2021-08-19 23:00:18.488,0.15,0.11
2021-08-19 23:00:18.492,0.18,0.09
2021-08-19 23:00:18.496,0.215,0.05
2021-08-19 23:00:18.500,0.185,0.07
2021-08-19 23:00:18.504,0.145,0.065
2021-08-19 23:00:18.508,0.115,-0.005
2021-08-19 23:00:18.512,0.205,-0.1
2021-08-19 23:00:18.516,0.485,-0.3
2021-08-19 23:00:18.520,0.845,-0.61
2021-08-19 23:00:18.524,1.135,-0.93
2021-08-19 23:00:18.528,1.27,-1.085
2021-08-19 23:00:18.532,1.175,-0.965
2021-08-19 23:00:18.536,0.765,-0.625
2021-08-19 23:00:18.540,0.235,-0.195
2021-08-19 23:00:18.544,-0.065,0.1
2021-08-19 23:00:18.548,-0.235,0.23
2021-08-19 23:00:18.552,-0.33,0.285
2021-08-19 23:00:18.556,-0.35,0.29
2021-08-19 23:00:18.560,-0.365,0.27
2021-08-19 23:00:18.564,-0.385,0.27
2021-08-19 23:00:18.568,-0.38,0.25
2021-08-19 23:00:18.572,-0.36,0.2
2021-08-19 23:00:18.576,-0.39,0.19
2021-08-19 23:00:18.580,-0.385,0.155
2021-08-19 23:00:18.584,-0.39,0.145
2021-08-19 23:00:18.588,-0.37,0.11
2021-08-19 23:00:18.592,-0.375,0.13
2021-08-19 23:00:18.596,-0.38,0.115
2021-08-19 23:00:18.600,-0.38,0.13
2021-08-19 23:00:18.604,-0.36,0.125
2021-08-19 23:00:18.608,-0.365,0.135
2021-08-19 23:00:18.612,-0.355,0.14
2021-08-19 23:00:18.616,-0.335,0.125
2021-08-19 23:00:18.620,-0.33,0.165
2021-08-19 23:00:18.624,-0.33,0.15
2021-08-19 23:00:18.628,-0.34,0.15
2021-08-19 23:00:18.632,-0.33,0.165
2021-08-19 23:00:18.636,-0.325,0.155
2021-08-19 23:00:18.640,-0.36,0.185
2021-08-19 23:00:18.644,-0.395,0.175
2021-08-19 23:00:18.648,-0.385,0.18
2021-08-19 23:00:18.652,-0.39,0.18
2021-08-19 23:00:18.656,-0.395,0.18
2021-08-19 23:00:18.660,-0.41,0.19
2021-08-19 23:00:18.664,-0.43,0.185
2021-08-19 23:00:18.668,-0.44,0.215
2021-08-19 23:00:18.672,-0.445,0.225
2021-08-19 23:00:18.676,-0.45,0.22
2021-08-19 23:00:18.680,-0.445,0.21
2021-08-19 23:00:18.684,-0.455,0.225
2021-08-19 23:00:18.688,-0.445,0.22
2021-08-19 23:00:18.692,-0.435,0.235
2021-08-19 23:00:18.696,-0.435,0.225
2021-08-19 23:00:18.700,-0.42,0.225
2021-08-19 23:00:18.704,-0.425,0.225
2021-08-19 23:00:18.708,-0.41,0.225
2021-08-19 23:00:18.712,-0.41,0.21
2021-08-19 23:00:18.716,-0.405,0.22
2021-08-19 23:00:18.720,-0.41,0.22
2021-08-19 23:00:18.724,-0.425,0.205
2021-08-19 23:00:18.728,-0.43,0.22
2021-08-19 23:00:18.732,-0.45,0.23
2021-08-19 23:00:18.736,-0.435,0.22
2021-08-19 23:00:18.740,-0.44,0.2
2021-08-19 23:00:18.744,-0.41,0.215
2021-08-19 23:00:18.748,-0.42,0.195
2021-08-19 23:00:18.752,-0.41,0.185
2021-08-19 23:00:18.756,-0.375,0.155
2021-08-19 23:00:18.760,-0.345,0.175
2021-08-19 23:00:18.764,-0.36,0.135
2021-08-19 23:00:18.768,-0.33,0.135
2021-08-19 23:00:18.772,-0.355,0.095
2021-08-19 23:00:18.776,-0.35,0.095
2021-08-19 23:00:18.780,-0.32,0.075
2021-08-19 23:00:18.784,-0.285,0.045
2021-08-19 23:00:18.788,-0.27,0.035
2021-08-19 23:00:18.792,-0.245,0.03
2021-08-19 23:00:18.796,-0.26,0.02
2021-08-19 23:00:18.800,-0.27,0.0
2021-08-19 23:00:18.804,-0.26,0.005
2021-08-19 23:00:18.808,-0.285,-0.005
2021-08-19 23:00:18.812,-0.28,0.045
2021-08-19 23:00:18.816,-0.255,0.015
2021-08-19 23:00:18.820,-0.235,0.03
2021-08-19 23:00:18.824,-0.255,0.03
2021-08-19 23:00:18.828,-0.235,0.03
2021-08-19 23:00:18.832,-0.225,0.03
2021-08-19 23:00:18.836,-0.235,0.04
2021-08-19 23:00:18.840,-0.265,0.025
2021-08-19 23:00:18.844,-0.3,0.04
2021-08-19 23:00:18.848,-0.285,0.025
2021-08-19 23:00:18.852,-0.295,0.035
2021-08-19 23:00:18.856,-0.31,0.04
2021-08-19 23:00:18.860,-0.345,0.065
2021-08-19 23:00:18.864,-0.34,0.03
2021-08-19 23:00:18.868,-0.34,0.04
2021-08-19 23:00:18.872,-0.35,0.05
2021-08-19 23:00:18.876,-0.36,0.05
2021-08-19 23:00:18.880,-0.32,0.055
2021-08-19 23:00:18.884,-0.325,0.035
2021-08-19 23:00:18.888,-0.345,0.035
2021-08-19 23:00:18.892,-0.335,0.03
2021-08-19 23:00:18.896,-0.35,0.04
2021-08-19 23:00:18.900,-0.35,0.045
2021-08-19 23:00:18.904,-0.325,0.025
2021-08-19 23:00:18.908,-0.31,0.005
2021-08-19 23:00:18.912,-0.315,0.02
2021-08-19 23:00:18.916,-0.32,0.02
2021-08-19 23:00:18.920,-0.35,0.035
2021-08-19 23:00:18.924,-0.395,0.045
2021-08-19 23:00:18.928,-0.4,0.04
2021-08-19 23:00:18.932,-0.405,0.06
2021-08-19 23:00:18.936,-0.415,0.04
2021-08-19 23:00:18.940,-0.425,0.05
2021-08-19 23:00:18.944,-0.385,0.06
2021-08-19 23:00:18.948,-0.385,0.045
2021-08-19 23:00:18.952,-0.395,0.035
2021-08-19 23:00:18.956,-0.375,0.04
2021-08-19 23:00:18.960,-0.375,0.035
2021-08-19 23:00:18.964,-0.37,0.01
2021-08-19 23:00:18.968,-0.375,0.02
2021-08-19 23:00:18.972,-0.335,0.01
2021-08-19 23:00:18.976,-0.325,-0.015
2021-08-19 23:00:18.980,-0.31,-0.015
2021-08-19 23:00:18.984,-0.31,-0.025
2021-08-19 23:00:18.988,-0.325,-0.045
2021-08-19 23:00:18.992,-0.35,-0.045
2021-08-19 23:00:18.996,-0.355,-0.085
2021-08-19 23:00:19.000,-0.345,-0.1
2021-08-19 23:00:19.004,-0.35,-0.1
2021-08-19 23:00:19.008,-0.325,-0.12
2021-08-19 23:00:19.012,-0.28,-0.125
2021-08-19 23:00:19.016,-0.205,-0.12
2021-08-19 23:00:19.020,-0.14,-0.13
2021-08-19 23:00:19.024,-0.045,-0.16
2021-08-19 23:00:19.028,0.065,-0.17
2021-08-19 23:00:19.032,0.185,-0.2
2021-08-19 23:00:19.036,0.275,-0.255
2021-08-19 23:00:19.040,0.345,-0.225
2021-08-19 23:00:19.044,0.355,-0.19
2021-08-19 23:00:19.048,0.36,-0.22
2021-08-19 23:00:19.052,0.3,-0.285
2021-08-19 23:00:19.056,0.395,-0.37
2021-08-19 23:00:19.060,0.635,-0.585
2021-08-19 23:00:19.064,0.97,-0.85
2021-08-19 23:00:19.068,1.28,-1.11
2021-08-19 23:00:19.072,1.375,-1.25
2021-08-19 23:00:19.076,1.175,-1.15
2021-08-19 23:00:19.080,0.665,-0.785
2021-08-19 23:00:19.084,0.21,-0.41
2021-08-19 23:00:19.088,-0.06,-0.2
2021-08-19 23:00:19.092,-0.175,-0.075
2021-08-19 23:00:19.096,-0.255,0.005
2021-08-19 23:00:19.100,-0.285,0.045
2021-08-19 23:00:19.104,-0.345,0.055
2021-08-19 23:00:19.108,-0.375,0.035
2021-08-19 23:00:19.112,-0.415,0.015
2021-08-19 23:00:19.116,-0.425,0.0
2021-08-19 23:00:19.120,-0.425,-0.005
2021-08-19 23:00:19.124,-0.425,-0.03
2021-08-19 23:00:19.128,-0.45,-0.025
2021-08-19 23:00:19.132,-0.51,-0.035
2021-08-19 23:00:19.136,-0.56,-0.02
2021-08-19 23:00:19.140,-0.58,-0.01
2021-08-19 23:00:19.144,-0.605,0.0
2021-08-19 23:00:19.148,-0.615,0.0
2021-08-19 23:00:19.152,-0.59,0.025
2021-08-19 23:00:19.156,-0.57,0.01
2021-08-19 23:00:19.160,-0.555,0.0
2021-08-19 23:00:19.164,-0.545,-0.005
2021-08-19 23:00:19.168,-0.525,0.0
2021-08-19 23:00:19.172,-0.515,-0.03
2021-08-19 23:00:19.176,-0.5,-0.005
2021-08-19 23:00:19.180,-0.5,-0.025
2021-08-19 23:00:19.184,-0.475,-0.025
2021-08-19 23:00:19.188,-0.47,-0.035
2021-08-19 23:00:19.192,-0.48,-0.01
2021-08-19 23:00:19.196,-0.49,-0.04
2021-08-19 23:00:19.200,-0.475,-0.065
2021-08-19 23:00:19.204,-0.47,-0.065
2021-08-19 23:00:19.208,-0.45,-0.08
2021-08-19 23:00:19.212,-0.45,-0.095
2021-08-19 23:00:19.216,-0.42,-0.08
2021-08-19 23:00:19.220,-0.46,-0.115
2021-08-19 23:00:19.224,-0.495,-0.115
2021-08-19 23:00:19.228,-0.485,-0.16
2021-08-19 23:00:19.232,-0.465,-0.105
2021-08-19 23:00:19.236,-0.465,-0.11
2021-08-19 23:00:19.240,-0.45,-0.13
2021-08-19 23:00:19.244,-0.44,-0.135
2021-08-19 23:00:19.248,-0.42,-0.105
2021-08-19 23:00:19.252,-0.42,-0.12
2021-08-19 23:00:19.256,-0.41,-0.145
2021-08-19 23:00:19.260,-0.395,-0.135
2021-08-19 23:00:19.264,-0.39,-0.14
2021-08-19 23:00:19.268,-0.39,-0.12
2021-08-19 23:00:19.272,-0.375,-0.135
2021-08-19 23:00:19.276,-0.355,-0.13
2021-08-19 23:00:19.280,-0.325,-0.145
2021-08-19 23:00:19.284,-0.3,-0.12
2021-08-19 23:00:19.288,-0.29,-0.115
2021-08-19 23:00:19.292,-0.255,-0.135
2021-08-19 23:00:19.296,-0.23,-0.125
2021-08-19 23:00:19.300,-0.22,-0.14
2021-08-19 23:00:19.304,-0.195,-0.135
2021-08-19 23:00:19.308,-0.185,-0.12
2021-08-19 23:00:19.312,-0.16,-0.105
2021-08-19 23:00:19.316,-0.14,-0.125
2021-08-19 23:00:19.320,-0.115,-0.09
2021-08-19 23:00:19.324,-0.12,-0.085
2021-08-19 23:00:19.328,-0.11,-0.08
2021-08-19 23:00:19.332,-0.115,-0.085
2021-08-19 23:00:19.336,-0.135,-0.08
2021-08-19 23:00:19.340,-0.14,-0.095
2021-08-19 23:00:19.344,-0.165,-0.1
2021-08-19 23:00:19.348,-0.165,-0.06
2021-08-19 23:00:19.352,-0.2,-0.065
2021-08-19 23:00:19.356,-0.215,-0.07
2021-08-19 23:00:19.360,-0.22,-0.04
2021-08-19 23:00:19.364,-0.225,-0.06
2021-08-19 23:00:19.368,-0.23,-0.08
2021-08-19 23:00:19.372,-0.255,-0.095
2021-08-19 23:00:19.376,-0.26,-0.055
2021-08-19 23:00:19.380,-0.25,-0.065
2021-08-19 23:00:19.384,-0.215,-0.075
2021-08-19 23:00:19.388,-0.19,-0.065
2021-08-19 23:00:19.392,-0.175,-0.08
2021-08-19 23:00:19.396,-0.155,-0.075
2021-08-19 23:00:19.400,-0.16,-0.06
2021-08-19 23:00:19.404,-0.15,-0.065
2021-08-19 23:00:19.408,-0.155,-0.075
2021-08-19 23:00:19.412,-0.175,-0.07
2021-08-19 23:00:19.416,-0.175,-0.055
2021-08-19 23:00:19.420,-0.16,-0.065
2021-08-19 23:00:19.424,-0.18,-0.055
2021-08-19 23:00:19.428,-0.165,-0.065
2021-08-19 23:00:19.432,-0.165,-0.07
2021-08-19 23:00:19.436,-0.195,-0.085
2021-08-19 23:00:19.440,-0.165,-0.075
2021-08-19 23:00:19.444,-0.185,-0.105
2021-08-19 23:00:19.448,-0.18,-0.09
2021-08-19 23:00:19.452,-0.155,-0.08
2021-08-19 23:00:19.456,-0.15,-0.09
2021-08-19 23:00:19.460,-0.165,-0.08
2021-08-19 23:00:19.464,-0.165,-0.08
2021-08-19 23:00:19.468,-0.145,-0.075
2021-08-19 23:00:19.472,-0.13,-0.055
2021-08-19 23:00:19.476,-0.135,-0.045
2021-08-19 23:00:19.480,-0.13,-0.025
2021-08-19 23:00:19.484,-0.12,-0.045
2021-08-19 23:00:19.488,-0.12,-0.04
2021-08-19 23:00:19.492,-0.13,-0.02
2021-08-19 23:00:19.496,-0.12,-0.04
2021-08-19 23:00:19.500,-0.105,-0.02
2021-08-19 23:00:19.504,-0.105,-0.025
2021-08-19 23:00:19.508,-0.075,-0.005
2021-08-19 23:00:19.512,-0.085,-0.01
2021-08-19 23:00:19.516,-0.05,0.0
2021-08-19 23:00:19.520,-0.07,0.005
2021-08-19 23:00:19.524,-0.06,0.015
2021-08-19 23:00:19.528,-0.055,0.03
2021-08-19 23:00:19.532,-0.055,0.05
2021-08-19 23:00:19.536,-0.065,0.025
2021-08-19 23:00:19.540,-0.06,0.05
2021-08-19 23:00:19.544,-0.08,0.06
2021-08-19 23:00:19.548,-0.11,0.045
2021-08-19 23:00:19.552,-0.14,0.065
2021-08-19 23:00:19.556,-0.105,0.07
2021-08-19 23:00:19.560,-0.075,0.09
2021-08-19 23:00:19.564,0.005,0.05
2021-08-19 23:00:19.568,0.1,0.065
2021-08-19 23:00:19.572,0.16,0.02
2021-08-19 23:00:19.576,0.225,-0.03
2021-08-19 23:00:19.580,0.24,-0.055
2021-08-19 23:00:19.584,0.275,-0.055
2021-08-19 23:00:19.588,0.285,-0.095
2021-08-19 23:00:19.592,0.275,-0.17
2021-08-19 23:00:19.596,0.34,-0.285
2021-08-19 23:00:19.600,0.555,-0.47
2021-08-19 23:00:19.604,0.885,-0.73
2021-08-19 23:00:19.608,1.215,-0.985
2021-08-19 23:00:19.612,1.43,-1.18
2021-08-19 23:00:19.616,1.33,-1.17
2021-08-19 23:00:19.620,0.935,-0.85
2021-08-19 23:00:19.624,0.39,-0.44
2021-08-19 23:00:19.628,-0.025,-0.13
2021-08-19 23:00:19.632,-0.215,0.005
2021-08-19 23:00:19.636,-0.315,0.11
2021-08-19 23:00:19.640,-0.395,0.17
2021-08-19 23:00:19.644,-0.415,0.17
2021-08-19 23:00:19.648,-0.465,0.16
2021-08-19 23:00:19.652,-0.455,0.135
2021-08-19 23:00:19.656,-0.465,0.12
2021-08-19 23:00:19.660,-0.445,0.115
2021-08-19 23:00:19.664,-0.44,0.07
2021-08-19 23:00:19.668,-0.43,0.09
2021-08-19 23:00:19.672,-0.43,0.09
2021-08-19 23:00:19.676,-0.425,0.09
2021-08-19 23:00:19.680,-0.41,0.095
2021-08-19 23:00:19.684,-0.41,0.11
2021-08-19 23:00:19.688,-0.4,0.115
2021-08-19 23:00:19.692,-0.4,0.105
2021-08-19 23:00:19.696,-0.4,0.125
2021-08-19 23:00:19.700,-0.405,0.12
2021-08-19 23:00:19.704,-0.385,0.125
2021-08-19 23:00:19.708,-0.4,0.125
2021-08-19 23:00:19.712,-0.39,0.135
2021-08-19 23:00:19.716,-0.36,0.13
2021-08-19 23:00:19.720,-0.365,0.14
2021-08-19 23:00:19.724,-0.385,0.145
2021-08-19 23:00:19.728,-0.365,0.14
2021-08-19 23:00:19.732,-0.36,0.15
2021-08-19 23:00:19.736,-0.365,0.15
2021-08-19 23:00:19.740,-0.39,0.17
2021-08-19 23:00:19.744,-0.41,0.16
2021-08-19 23:00:19.748,-0.415,0.155
2021-08-19 23:00:19.752,-0.435,0.15
2021-08-19 23:00:19.756,-0.45,0.155
2021-08-19 23:00:19.760,-0.455,0.165
2021-08-19 23:00:19.764,-0.46,0.175
2021-08-19 23:00:19.768,-0.465,0.19
2021-08-19 23:00:19.772,-0.465,0.185
2021-08-19 23:00:19.776,-0.43,0.18
2021-08-19 23:00:19.780,-0.43,0.18
2021-08-19 23:00:19.784,-0.455,0.17
2021-08-19 23:00:19.788,-0.455,0.16
2021-08-19 23:00:19.792,-0.45,0.15
2021-08-19 23:00:19.796,-0.46,0.16
2021-08-19 23:00:19.800,-0.46,0.16
2021-08-19 23:00:19.804,-0.495,0.14
2021-08-19 23:00:19.808,-0.47,0.12
2021-08-19 23:00:19.812,-0.465,0.13
2021-08-19 23:00:19.816,-0.475,0.135
2021-08-19 23:00:19.820,-0.495,0.13
2021-08-19 23:00:19.824,-0.485,0.12
2021-08-19 23:00:19.828,-0.475,0.12
2021-08-19 23:00:19.832,-0.455,0.08
2021-08-19 23:00:19.836,-0.445,0.085
2021-08-19 23:00:19.840,-0.45,0.105
2021-08-19 23:00:19.844,-0.42,0.095
2021-08-19 23:00:19.848,-0.385,0.09
2021-08-19 23:00:19.852,-0.38,0.1
2021-08-19 23:00:19.856,-0.37,0.08
2021-08-19 23:00:19.860,-0.345,0.095
2021-08-19 23:00:19.864,-0.32,0.1
2021-08-19 23:00:19.868,-0.305,0.085
2021-08-19 23:00:19.872,-0.28,0.095
2021-08-19 23:00:19.876,-0.25,0.07
2021-08-19 23:00:19.880,-0.225,0.08
2021-08-19 23:00:19.884,-0.185,0.09
2021-08-19 23:00:19.888,-0.17,0.085
2021-08-19 23:00:19.892,-0.16,0.1
2021-08-19 23:00:19.896,-0.16,0.1
2021-08-19 23:00:19.900,-0.16,0.095
2021-08-19 23:00:19.904,-0.165,0.095
2021-08-19 23:00:19.908,-0.14,0.115
2021-08-19 23:00:19.912,-0.15,0.12
2021-08-19 23:00:19.916,-0.135,0.1
2021-08-19 23:00:19.920,-0.14,0.115
2021-08-19 23:00:19.924,-0.12,0.13
2021-08-19 23:00:19.928,-0.125,0.12
2021-08-19 23:00:19.932,-0.13,0.115
2021-08-19 23:00:19.936,-0.135,0.105
2021-08-19 23:00:19.940,-0.135,0.09
2021-08-19 23:00:19.944,-0.135,0.08
2021-08-19 23:00:19.948,-0.155,0.1
2021-08-19 23:00:19.952,-0.185,0.09
2021-08-19 23:00:19.956,-0.185,0.105
2021-08-19 23:00:19.960,-0.21,0.1
2021-08-19 23:00:19.964,-0.24,0.095
2021-08-19 23:00:19.968,-0.26,0.11
2021-08-19 23:00:19.972,-0.24,0.11
2021-08-19 23:00:19.976,-0.27,0.125
2021-08-19 23:00:19.980,-0.24,0.105
2021-08-19 23:00:19.984,-0.25,0.1
2021-08-19 23:00:19.988,-0.265,0.11
2021-08-19 23:00:19.992,-0.265,0.12
2021-08-19 23:00:19.996,-0.26,0.105
2021-08-19 23:00:20.000,-0.275,0.095
2021-08-19 23:00:20.004,-0.28,0.12
2021-08-19 23:00:20.008,-0.315,0.105
2021-08-19 23:00:20.012,-0.315,0.105
2021-08-19 23:00:20.016,-0.33,0.1
2021-08-19 23:00:20.020,-0.335,0.12
2021-08-19 23:00:20.024,-0.34,0.1
2021-08-19 23:00:20.028,-0.335,0.09
2021-08-19 23:00:20.032,-0.35,0.1
2021-08-19 23:00:20.036,-0.37,0.105
2021-08-19 23:00:20.040,-0.345,0.12
2021-08-19 23:00:20.044,-0.375,0.14
2021-08-19 23:00:20.048,-0.385,0.12
2021-08-19 23:00:20.052,-0.38,0.135
2021-08-19 23:00:20.056,-0.37,0.125
2021-08-19 23:00:20.060,-0.335,0.145
2021-08-19 23:00:20.064,-0.315,0.14
2021-08-19 23:00:20.068,-0.29,0.12
2021-08-19 23:00:20.072,-0.285,0.12
2021-08-19 23:00:20.076,-0.27,0.12
2021-08-19 23:00:20.080,-0.285,0.115
2021-08-19 23:00:20.084,-0.26,0.115
2021-08-19 23:00:20.088,-0.27,0.13
2021-08-19 23:00:20.092,-0.25,0.115
2021-08-19 23:00:20.096,-0.23,0.105
2021-08-19 23:00:20.100,-0.2,0.1
2021-08-19 23:00:20.104,-0.185,0.11
2021-08-19 23:00:20.108,-0.16,0.115
2021-08-19 23:00:20.112,-0.175,0.13
2021-08-19 23:00:20.116,-0.155,0.13
2021-08-19 23:00:20.120,-0.15,0.15
2021-08-19 23:00:20.124,-0.125,0.13
2021-08-19 23:00:20.128,-0.065,0.12
2021-08-19 23:00:20.132,0.02,0.12
2021-08-19 23:00:20.136,0.105,0.1
2021-08-19 23:00:20.140,0.18,0.1
2021-08-19 23:00:20.144,0.23,0.07
2021-08-19 23:00:20.148,0.26,0.02
2021-08-19 23:00:20.152,0.255,-0.005
2021-08-19 23:00:20.156,0.22,0.005
2021-08-19 23:00:20.160,0.175,-0.025
2021-08-19 23:00:20.164,0.15,-0.11
2021-08-19 23:00:20.168,0.295,-0.265
2021-08-19 23:00:20.172,0.575,-0.48
2021-08-19 23:00:20.176,0.92,-0.8
2021-08-19 23:00:20.180,1.225,-1.06
2021-08-19 23:00:20.184,1.32,-1.18
2021-08-19 23:00:20.188,1.185,-1.05
2021-08-19 23:00:20.192,0.73,-0.665
2021-08-19 23:00:20.196,0.235,-0.24
2021-08-19 23:00:20.200,-0.075,0.04
2021-08-19 23:00:20.204,-0.22,0.175
2021-08-19 23:00:20.208,-0.335,0.225
2021-08-19 23:00:20.212,-0.36,0.24
2021-08-19 23:00:20.216,-0.405,0.245
2021-08-19 23:00:20.220,-0.425,0.215
2021-08-19 23:00:20.224,-0.455,0.2
2021-08-19 23:00:20.228,-0.465,0.185
2021-08-19 23:00:20.232,-0.52,0.17
2021-08-19 23:00:20.236,-0.56,0.145
2021-08-19 23:00:20.240,-0.57,0.17
2021-08-19 23:00:20.244,-0.575,0.145
2021-08-19 23:00:20.248,-0.585,0.155
2021-08-19 23:00:20.252,-0.575,0.15
2021-08-19 23:00:20.256,-0.595,0.14
2021-08-19 23:00:20.260,-0.575,0.145
2021-08-19 23:00:20.264,-0.59,0.155
2021-08-19 23:00:20.268,-0.605,0.16
2021-08-19 23:00:20.272,-0.6,0.165
2021-08-19 23:00:20.276,-0.595,0.155
2021-08-19 23:00:20.280,-0.585,0.155
2021-08-19 23:00:20.284,-0.58,0.175
2021-08-19 23:00:20.288,-0.545,0.18
2021-08-19 23:00:20.292,-0.545,0.195
2021-08-19 23:00:20.296,-0.51,0.195
2021-08-19 23:00:20.300,-0.495,0.22
2021-08-19 23:00:20.304,-0.475,0.2
2021-08-19 23:00:20.308,-0.46,0.2
2021-08-19 23:00:20.312,-0.445,0.22
2021-08-19 23:00:20.316,-0.44,0.215
2021-08-19 23:00:20.320,-0.43,0.245
2021-08-19 23:00:20.324,-0.42,0.24
2021-08-19 23:00:20.328,-0.4,0.225
2021-08-19 23:00:20.332,-0.405,0.235
2021-08-19 23:00:20.336,-0.375,0.22
2021-08-19 23:00:20.340,-0.37,0.225
2021-08-19 23:00:20.344,-0.355,0.23
2021-08-19 23:00:20.348,-0.37,0.235
2021-08-19 23:00:20.352,-0.38,0.22
2021-08-19 23:00:20.356,-0.365,0.235
2021-08-19 23:00:20.360,-0.375,0.22
2021-08-19 23:00:20.364,-0.395,0.195
2021-08-19 23:00:20.368,-0.415,0.225
2021-08-19 23:00:20.372,-0.42,0.185
2021-08-19 23:00:20.376,-0.42,0.175
2021-08-19 23:00:20.380,-0.43,0.185
2021-08-19 23:00:20.384,-0.415,0.19
2021-08-19 23:00:20.388,-0.415,0.195
2021-08-19 23:00:20.392,-0.42,0.195
2021-08-19 23:00:20.396,-0.425,0.155
2021-08-19 23:00:20.400,-0.39,0.14
2021-08-19 23:00:20.404,-0.375,0.125
2021-08-19 23:00:20.408,-0.37,0.125
2021-08-19 23:00:20.412,-0.38,0.13
2021-08-19 23:00:20.416,-0.36,0.11
2021-08-19 23:00:20.420,-0.365,0.09
2021-08-19 23:00:20.424,-0.335,0.08
2021-08-19 23:00:20.428,-0.36,0.1
2021-08-19 23:00:20.432,-0.35,0.12
2021-08-19 23:00:20.436,-0.355,0.09
2021-08-19 23:00:20.440,-0.345,0.1
2021-08-19 23:00:20.444,-0.35,0.11
2021-08-19 23:00:20.448,-0.36,0.095
2021-08-19 23:00:20.452,-0.355,0.095
2021-08-19 23:00:20.456,-0.36,0.105
2021-08-19 23:00:20.460,-0.37,0.1
2021-08-19 23:00:20.464,-0.365,0.09
2021-08-19 23:00:20.468,-0.35,0.115
2021-08-19 23:00:20.472,-0.36,0.1
2021-08-19 23:00:20.476,-0.35,0.11
2021-08-19 23:00:20.480,-0.35,0.105
2021-08-19 23:00:20.484,-0.335,0.1
2021-08-19 23:00:20.488,-0.355,0.13
2021-08-19 23:00:20.492,-0.34,0.13
2021-08-19 23:00:20.496,-0.34,0.13
2021-08-19 23:00:20.500,-0.35,0.15
2021-08-19 23:00:20.504,-0.34,0.155
2021-08-19 23:00:20.508,-0.31,0.15
2021-08-19 23:00:20.512,-0.29,0.175
2021-08-19 23:00:20.516,-0.26,0.18
2021-08-19 23:00:20.520,-0.245,0.18
2021-08-19 23:00:20.524,-0.235,0.205
2021-08-19 23:00:20.528,-0.205,0.235
2021-08-19 23:00:20.532,-0.175,0.26
2021-08-19 23:00:20.536,-0.13,0.26
2021-08-19 23:00:20.540,-0.105,0.28
2021-08-19 23:00:20.544,-0.105,0.265
2021-08-19 23:00:20.548,-0.095,0.285
2021-08-19 23:00:20.552,-0.075,0.25
2021-08-19 23:00:20.556,-0.085,0.245
2021-08-19 23:00:20.560,-0.085,0.245
2021-08-19 23:00:20.564,-0.12,0.235
2021-08-19 23:00:20.568,-0.125,0.25
2021-08-19 23:00:20.572,-0.165,0.235
2021-08-19 23:00:20.576,-0.195,0.225
2021-08-19 23:00:20.580,-0.22,0.205
2021-08-19 23:00:20.584,-0.21,0.2
2021-08-19 23:00:20.588,-0.24,0.195
2021-08-19 23:00:20.592,-0.24,0.21
2021-08-19 23:00:20.596,-0.245,0.2
2021-08-19 23:00:20.600,-0.235,0.215
2021-08-19 23:00:20.604,-0.225,0.21
2021-08-19 23:00:20.608,-0.23,0.205
2021-08-19 23:00:20.612,-0.225,0.185
2021-08-19 23:00:20.616,-0.205,0.17
2021-08-19 23:00:20.620,-0.215,0.18
2021-08-19 23:00:20.624,-0.235,0.165
2021-08-19 23:00:20.628,-0.225,0.15
2021-08-19 23:00:20.632,-0.225,0.155
2021-08-19 23:00:20.636,-0.225,0.15
2021-08-19 23:00:20.640,-0.25,0.145
2021-08-19 23:00:20.644,-0.255,0.155
2021-08-19 23:00:20.648,-0.245,0.16
2021-08-19 23:00:20.652,-0.25,0.155
2021-08-19 23:00:20.656,-0.265,0.155
2021-08-19 23:00:20.660,-0.26,0.15
2021-08-19 23:00:20.664,-0.265,0.14
2021-08-19 23:00:20.668,-0.25,0.14
2021-08-19 23:00:20.672,-0.205,0.13
2021-08-19 23:00:20.676,-0.13,0.125
2021-08-19 23:00:20.680,-0.065,0.105
2021-08-19 23:00:20.684,0.01,0.085
2021-08-19 23:00:20.688,0.01,0.05
2021-08-19 23:00:20.692,0.015,0.005
2021-08-19 23:00:20.696,0.035,0.0
2021-08-19 23:00:20.700,0.0,0.01
2021-08-19 23:00:20.704,-0.05,-0.03
2021-08-19 23:00:20.708,-0.05,-0.115
2021-08-19 23:00:20.712,0.125,-0.235
2021-08-19 23:00:20.716,0.445,-0.48
2021-08-19 23:00:20.720,0.82,-0.805
2021-08-19 23:00:20.724,1.1,-1.075
2021-08-19 23:00:20.728,1.165,-1.135
2021-08-19 23:00:20.732,0.92,-0.95
2021-08-19 23:00:20.736,0.44,-0.565
2021-08-19 23:00:20.740,0.03,-0.14
2021-08-19 23:00:20.744,-0.165,0.135
2021-08-19 23:00:20.748,-0.235,0.29
2021-08-19 23:00:20.752,-0.295,0.375
2021-08-19 23:00:20.756,-0.315,0.355
2021-08-19 23:00:20.760,-0.32,0.37
2021-08-19 23:00:20.764,-0.32,0.35
2021-08-19 23:00:20.768,-0.31,0.35
2021-08-19 23:00:20.772,-0.3,0.335
2021-08-19 23:00:20.776,-0.32,0.33
2021-08-19 23:00:20.780,-0.33,0.315
2021-08-19 23:00:20.784,-0.345,0.3
2021-08-19 23:00:20.788,-0.365,0.275
2021-08-19 23:00:20.792,-0.395,0.28
2021-08-19 23:00:20.796,-0.42,0.26
2021-08-19 23:00:20.800,-0.435,0.275
2021-08-19 23:00:20.804,-0.45,0.27
2021-08-19 23:00:20.808,-0.455,0.27
2021-08-19 23:00:20.812,-0.465,0.285
2021-08-19 23:00:20.816,-0.48,0.24
2021-08-19 23:00:20.820,-0.475,0.22
2021-08-19 23:00:20.824,-0.465,0.245
2021-08-19 23:00:20.828,-0.465,0.22
2021-08-19 23:00:20.832,-0.475,0.215
2021-08-19 23:00:20.836,-0.495,0.215
2021-08-19 23:00:20.840,-0.53,0.185
2021-08-19 23:00:20.844,-0.54,0.19
2021-08-19 23:00:20.848,-0.535,0.19
2021-08-19 23:00:20.852,-0.535,0.205
2021-08-19 23:00:20.856,-0.53,0.215
2021-08-19 23:00:20.860,-0.555,0.22
2021-08-19 23:00:20.864,-0.57,0.22
2021-08-19 23:00:20.868,-0.57,0.225
2021-08-19 23:00:20.872,-0.565,0.2
2021-08-19 23:00:20.876,-0.57,0.195
2021-08-19 23:00:20.880,-0.58,0.215
2021-08-19 23:00:20.884,-0.595,0.195
2021-08-19 23:00:20.888,-0.585,0.195
2021-08-19 23:00:20.892,-0.595,0.18
2021-08-19 23:00:20.896,-0.605,0.18
2021-08-19 23:00:20.900,-0.605,0.2
2021-08-19 23:00:20.904,-0.625,0.215
2021-08-19 23:00:20.908,-0.635,0.16
2021-08-19 23:00:20.912,-0.65,0.185
2021-08-19 23:00:20.916,-0.625,0.17
2021-08-19 23:00:20.920,-0.63,0.16
2021-08-19 23:00:20.924,-0.615,0.16
2021-08-19 23:00:20.928,-0.615,0.13
2021-08-19 23:00:20.932,-0.595,0.115
2021-08-19 23:00:20.936,-0.57,0.1
2021-08-19 23:00:20.940,-0.56,0.11
2021-08-19 23:00:20.944,-0.525,0.11
2021-08-19 23:00:20.948,-0.51,0.1
2021-08-19 23:00:20.952,-0.485,0.1
2021-08-19 23:00:20.956,-0.445,0.065
2021-08-19 23:00:20.960,-0.41,0.095
2021-08-19 23:00:20.964,-0.355,0.11
2021-08-19 23:00:20.968,-0.34,0.11
2021-08-19 23:00:20.972,-0.275,0.1
2021-08-19 23:00:20.976,-0.255,0.13
2021-08-19 23:00:20.980,-0.21,0.175
2021-08-19 23:00:20.984,-0.215,0.165
2021-08-19 23:00:20.988,-0.245,0.185
2021-08-19 23:00:20.992,-0.255,0.195
2021-08-19 23:00:20.996,-0.28,0.17
2021-08-19 23:00:21.000,-0.305,0.16
2021-08-19 23:00:21.004,-0.325,0.145
2021-08-19 23:00:21.008,-0.33,0.15
2021-08-19 23:00:21.012,-0.335,0.145
2021-08-19 23:00:21.016,-0.37,0.165
2021-08-19 23:00:21.020,-0.395,0.17
2021-08-19 23:00:21.024,-0.395,0.165
2021-08-19 23:00:21.028,-0.405,0.135
2021-08-19 23:00:21.032,-0.44,0.125
2021-08-19 23:00:21.036,-0.46,0.115
2021-08-19 23:00:21.040,-0.445,0.1
2021-08-19 23:00:21.044,-0.445,0.12
2021-08-19 23:00:21.048,-0.435,0.1
2021-08-19 23:00:21.052,-0.45,0.095
2021-08-19 23:00:21.056,-0.465,0.085
2021-08-19 23:00:21.060,-0.47,0.085
2021-08-19 23:00:21.064,-0.48,0.08
2021-08-19 23:00:21.068,-0.48,0.055
2021-08-19 23:00:21.072,-0.48,0.045
2021-08-19 23:00:21.076,-0.475,0.055
2021-08-19 23:00:21.080,-0.48,0.04
2021-08-19 23:00:21.084,-0.45,0.055
2021-08-19 23:00:21.088,-0.47,0.045
2021-08-19 23:00:21.092,-0.49,0.035
2021-08-19 23:00:21.096,-0.5,0.04
2021-08-19 23:00:21.100,-0.495,0.03
2021-08-19 23:00:21.104,-0.49,0.03
2021-08-19 23:00:21.108,-0.49,0.03
2021-08-19 23:00:21.112,-0.48,0.015
2021-08-19 23:00:21.116,-0.485,0.02
2021-08-19 23:00:21.120,-0.49,0.01
2021-08-19 23:00:21.124,-0.49,0.02
2021-08-19 23:00:21.128,-0.505,0.02
2021-08-19 23:00:21.132,-0.49,0.025
2021-08-19 23:00:21.136,-0.485,0.02
2021-08-19 23:00:21.140,-0.495,0.015
2021-08-19 23:00:21.144,-0.49,0.0
2021-08-19 23:00:21.148,-0.49,0.005
2021-08-19 23:00:21.152,-0.48,0.0
2021-08-19 23:00:21.156,-0.465,0.0
2021-08-19 23:00:21.160,-0.465,0.005
2021-08-19 23:00:21.164,-0.445,-0.005
2021-08-19 23:00:21.168,-0.435,-0.005
2021-08-19 23:00:21.172,-0.42,0.0
2021-08-19 23:00:21.176,-0.39,0.0
2021-08-19 23:00:21.180,-0.325,-0.01
2021-08-19 23:00:21.184,-0.245,0.0
2021-08-19 23:00:21.188,-0.115,0.01
2021-08-19 23:00:21.192,-0.005,0.0
2021-08-19 23:00:21.196,0.13,0.005
2021-08-19 23:00:21.200,0.22,-0.005
2021-08-19 23:00:21.204,0.28,-0.02
2021-08-19 23:00:21.208,0.33,-0.04
2021-08-19 23:00:21.212,0.37,0.0
2021-08-19 23:00:21.216,0.355,-0.005
2021-08-19 23:00:21.220,0.31,-0.085
2021-08-19 23:00:21.224,0.335,-0.17
2021-08-19 23:00:21.228,0.53,-0.335
2021-08-19 23:00:21.232,0.81,-0.595
2021-08-19 23:00:21.236,1.15,-0.885
2021-08-19 23:00:21.240,1.31,-1.105
2021-08-19 23:00:21.244,1.155,-1.095
2021-08-19 23:00:21.248,0.74,-0.835
2021-08-19 23:00:21.252,0.23,-0.44
2021-08-19 23:00:21.256,-0.095,-0.16
2021-08-19 23:00:21.260,-0.24,-0.03
2021-08-19 23:00:21.264,-0.31,0.05
2021-08-19 23:00:21.268,-0.355,0.12
2021-08-19 23:00:21.272,-0.405,0.13
2021-08-19 23:00:21.276,-0.445,0.105
2021-08-19 23:00:21.280,-0.48,0.06
2021-08-19 23:00:21.284,-0.505,0.045
2021-08-19 23:00:21.288,-0.55,0.025
2021-08-19 23:00:21.292,-0.575,0.01
2021-08-19 23:00:21.296,-0.58,-0.01
2021-08-19 23:00:21.300,-0.565,-0.01
2021-08-19 23:00:21.304,-0.575,-0.02
2021-08-19 23:00:21.308,-0.585,0.01
2021-08-19 23:00:21.312,-0.565,0.0
2021-08-19 23:00:21.316,-0.56,0.0
2021-08-19 23:00:21.320,-0.57,-0.015
2021-08-19 23:00:21.324,-0.605,-0.025
2021-08-19 23:00:21.328,-0.59,0.005
2021-08-19 23:00:21.332,-0.575,-0.005
2021-08-19 23:00:21.336,-0.55,0.0
2021-08-19 23:00:21.340,-0.56,-0.015
2021-08-19 23:00:21.344,-0.565,-0.01
2021-08-19 23:00:21.348,-0.565,-0.005
2021-08-19 23:00:21.352,-0.6,0.005
2021-08-19 23:00:21.356,-0.59,0.005
2021-08-19 23:00:21.360,-0.61,-0.005
2021-08-19 23:00:21.364,-0.58,0.005
2021-08-19 23:00:21.368,-0.62,-0.01
2021-08-19 23:00:21.372,-0.6,0.0
2021-08-19 23:00:21.376,-0.605,-0.02
2021-08-19 23:00:21.380,-0.61,-0.015
2021-08-19 23:00:21.384,-0.585,0.0
2021-08-19 23:00:21.388,-0.585,0.01
2021-08-19 23:00:21.392,-0.595,0.025
2021-08-19 23:00:21.396,-0.57,0.01
2021-08-19 23:00:21.400,-0.535,0.015
2021-08-19 23:00:21.404,-0.485,0.035
2021-08-19 23:00:21.408,-0.435,0.06
2021-08-19 23:00:21.412,-0.415,0.05
2021-08-19 23:00:21.416,-0.375,0.07
2021-08-19 23:00:21.420,-0.365,0.09
2021-08-19 23:00:21.424,-0.35,0.095
2021-08-19 23:00:21.428,-0.33,0.08
2021-08-19 23:00:21.432,-0.345,0.1
2021-08-19 23:00:21.436,-0.36,0.07
2021-08-19 23:00:21.440,-0.37,0.07
2021-08-19 23:00:21.444,-0.375,0.075
2021-08-19 23:00:21.448,-0.36,0.085
2021-08-19 23:00:21.452,-0.34,0.08
2021-08-19 23:00:21.456,-0.315,0.065
2021-08-19 23:00:21.460,-0.32,0.06
2021-08-19 23:00:21.464,-0.345,0.025
2021-08-19 23:00:21.468,-0.355,0.015
2021-08-19 23:00:21.472,-0.33,0.015
2021-08-19 23:00:21.476,-0.315,-0.01
2021-08-19 23:00:21.480,-0.295,-0.025
2021-08-19 23:00:21.484,-0.3,-0.035
2021-08-19 23:00:21.488,-0.315,-0.02
2021-08-19 23:00:21.492,-0.28,-0.035
2021-08-19 23:00:21.496,-0.28,-0.035
2021-08-19 23:00:21.500,-0.26,-0.045
2021-08-19 23:00:21.504,-0.26,-0.065
2021-08-19 23:00:21.508,-0.24,-0.035
2021-08-19 23:00:21.512,-0.235,-0.05
2021-08-19 23:00:21.516,-0.245,-0.04
2021-08-19 23:00:21.520,-0.21,-0.045
2021-08-19 23:00:21.524,-0.2,-0.035
2021-08-19 23:00:21.528,-0.21,-0.025
2021-08-19 23:00:21.532,-0.21,-0.025
2021-08-19 23:00:21.536,-0.195,0.0
2021-08-19 23:00:21.540,-0.195,-0.005
2021-08-19 23:00:21.544,-0.195,0.0
2021-08-19 23:00:21.548,-0.19,-0.01
2021-08-19 23:00:21.552,-0.205,0.0
2021-08-19 23:00:21.556,-0.21,0.0
2021-08-19 23:00:21.560,-0.225,0.0
2021-08-19 23:00:21.564,-0.24,0.0
2021-08-19 23:00:21.568,-0.225,0.0
2021-08-19 23:00:21.572,-0.24,-0.02
2021-08-19 23:00:21.576,-0.245,-0.025
2021-08-19 23:00:21.580,-0.27,-0.015
2021-08-19 23:00:21.584,-0.26,-0.02
2021-08-19 23:00:21.588,-0.26,-0.04
2021-08-19 23:00:21.592,-0.23,-0.015
2021-08-19 23:00:21.596,-0.26,-0.05
2021-08-19 23:00:21.600,-0.25,-0.035
2021-08-19 23:00:21.604,-0.24,-0.03
2021-08-19 23:00:21.608,-0.22,-0.03
2021-08-19 23:00:21.612,-0.215,-0.025
2021-08-19 23:00:21.616,-0.19,-0.015
2021-08-19 23:00:21.620,-0.185,-0.005
2021-08-19 23:00:21.624,-0.195,0.02
2021-08-19 23:00:21.628,-0.19,0.04
2021-08-19 23:00:21.632,-0.175,0.07
2021-08-19 23:00:21.636,-0.17,0.08
2021-08-19 23:00:21.640,-0.155,0.085
2021-08-19 23:00:21.644,-0.175,0.075
2021-08-19 23:00:21.648,-0.195,0.08
2021-08-19 23:00:21.652,-0.23,0.105
2021-08-19 23:00:21.656,-0.275,0.11
2021-08-19 23:00:21.660,-0.285,0.15
2021-08-19 23:00:21.664,-0.27,0.15
2021-08-19 23:00:21.668,-0.235,0.15
2021-08-19 23:00:21.672,-0.225,0.17
2021-08-19 23:00:21.676,-0.23,0.155
2021-08-19 23:00:21.680,-0.245,0.125
2021-08-19 23:00:21.684,-0.265,0.09
2021-08-19 23:00:21.688,-0.265,0.07
2021-08-19 23:00:21.692,-0.29,0.085
