Time,ECG1,ECG2
2021-08-19 04:47:40.412,-2.0,-1.155
2021-08-19 04:47:40.416,-1.565,-0.8
2021-08-19 04:47:40.420,-1.07,-0.61
2021-08-19 04:47:40.424,-0.71,-0.395
2021-08-19 04:47:40.428,-0.485,-0.135
2021-08-19 04:47:40.432,-0.37,0.08
2021-08-19 04:47:40.436,-0.32,0.175
2021-08-19 04:47:40.440,-0.27,0.165
2021-08-19 04:47:40.444,-0.25,0.2
2021-08-19 04:47:40.448,-0.235,0.19
2021-08-19 04:47:40.452,-0.19,0.21
2021-08-19 04:47:40.456,-0.185,0.165
2021-08-19 04:47:40.460,-0.2,0.165
2021-08-19 04:47:40.464,-0.185,0.17
2021-08-19 04:47:40.468,-0.13,0.18
2021-08-19 04:47:40.472,-0.135,0.17
2021-08-19 04:47:40.476,-0.15,0.155
2021-08-19 04:47:40.480,-0.14,0.165
2021-08-19 04:47:40.484,-0.15,0.15
2021-08-19 04:47:40.488,-0.16,0.145
2021-08-19 04:47:40.492,-0.195,0.195
2021-08-19 04:47:40.496,-0.18,0.14
2021-08-19 04:47:40.500,-0.185,0.135
2021-08-19 04:47:40.504,-0.175,0.13
2021-08-19 04:47:40.508,-0.175,0.175
2021-08-19 04:47:40.512,-0.185,0.185
2021-08-19 04:47:40.516,-0.175,0.205
2021-08-19 04:47:40.520,-0.18,0.235
2021-08-19 04:47:40.524,-0.195,0.24
2021-08-19 04:47:40.528,-0.185,0.24
2021-08-19 04:47:40.532,-0.175,0.245
2021-08-19 04:47:40.536,-0.125,0.25
2021-08-19 04:47:40.540,-0.08,0.295
2021-08-19 04:47:40.544,-0.045,0.33
2021-08-19 04:47:40.548,-0.01,0.4
2021-08-19 04:47:40.552,0.005,0.43
2021-08-19 04:47:40.556,0.045,0.47
2021-08-19 04:47:40.560,0.115,0.495
2021-08-19 04:47:40.564,0.12,0.555
2021-08-19 04:47:40.568,0.175,0.555
2021-08-19 04:47:40.572,0.195,0.59
2021-08-19 04:47:40.576,0.26,0.63
2021-08-19 04:47:40.580,0.26,0.675
2021-08-19 04:47:40.584,0.275,0.755
2021-08-19 04:47:40.588,0.29,0.72
2021-08-19 04:47:40.592,0.355,0.76
2021-08-19 04:47:40.596,0.42,0.765
2021-08-19 04:47:40.600,0.405,0.805
2021-08-19 04:47:40.604,0.405,0.825
2021-08-19 04:47:40.608,0.42,0.855
2021-08-19 04:47:40.612,0.45,0.845
2021-08-19 04:47:40.616,0.46,0.875
2021-08-19 04:47:40.620,0.45,0.925
2021-08-19 04:47:40.624,0.425,0.895
2021-08-19 04:47:40.628,0.44,0.945
2021-08-19 04:47:40.632,0.445,0.98
2021-08-19 04:47:40.636,0.445,1.0
2021-08-19 04:47:40.640,0.455,1.025
2021-08-19 04:47:40.644,0.435,1.01
2021-08-19 04:47:40.648,0.43,1.055
2021-08-19 04:47:40.652,0.45,1.055
2021-08-19 04:47:40.656,0.435,1.1
2021-08-19 04:47:40.660,0.425,1.1
2021-08-19 04:47:40.664,0.42,1.095
2021-08-19 04:47:40.668,0.36,1.11
2021-08-19 04:47:40.672,0.335,1.125
2021-08-19 04:47:40.676,0.31,1.11
2021-08-19 04:47:40.680,0.275,1.075
2021-08-19 04:47:40.684,0.235,1.065
2021-08-19 04:47:40.688,0.2,1.03
2021-08-19 04:47:40.692,0.135,1.02
2021-08-19 04:47:40.696,0.085,0.965
2021-08-19 04:47:40.700,0.075,0.925
2021-08-19 04:47:40.704,0.005,0.885
2021-08-19 04:47:40.708,-0.025,0.88
2021-08-19 04:47:40.712,-0.05,0.8
2021-08-19 04:47:40.716,-0.105,0.725
2021-08-19 04:47:40.720,-0.105,0.705
2021-08-19 04:47:40.724,-0.12,0.635
2021-08-19 04:47:40.728,-0.14,0.6
2021-08-19 04:47:40.732,-0.21,0.54
2021-08-19 04:47:40.736,-0.195,0.495
2021-08-19 04:47:40.740,-0.23,0.45
2021-08-19 04:47:40.744,-0.235,0.42
2021-08-19 04:47:40.748,-0.255,0.365
2021-08-19 04:47:40.752,-0.28,0.305
2021-08-19 04:47:40.756,-0.305,0.29
2021-08-19 04:47:40.760,-0.295,0.255
2021-08-19 04:47:40.764,-0.325,0.25
2021-08-19 04:47:40.768,-0.43,0.23
2021-08-19 04:47:40.772,-0.525,0.175
2021-08-19 04:47:40.776,-0.56,0.165
2021-08-19 04:47:40.780,-0.625,0.055
2021-08-19 04:47:40.784,-0.65,-0.155
2021-08-19 04:47:40.788,-0.585,-0.495
2021-08-19 04:47:40.792,-0.65,-0.81
2021-08-19 04:47:40.796,-0.69,-0.87
2021-08-19 04:47:40.800,-0.855,-0.865
2021-08-19 04:47:40.804,-1.03,-0.725
2021-08-19 04:47:40.808,-1.255,-0.385
2021-08-19 04:47:40.812,-1.785,0.115
2021-08-19 04:47:40.856,-1.64,-0.935
2021-08-19 04:47:40.860,-1.18,-0.65
2021-08-19 04:47:40.864,-0.865,-0.395
2021-08-19 04:47:40.868,-0.64,-0.18
2021-08-19 04:47:40.872,-0.54,-0.01
2021-08-19 04:47:40.876,-0.44,0.085
2021-08-19 04:47:40.880,-0.39,0.13
2021-08-19 04:47:40.884,-0.375,0.125
2021-08-19 04:47:40.888,-0.325,0.115
2021-08-19 04:47:40.892,-0.31,0.1
2021-08-19 04:47:40.896,-0.3,0.075
2021-08-19 04:47:40.900,-0.305,0.08
2021-08-19 04:47:40.904,-0.3,0.08
2021-08-19 04:47:40.908,-0.29,0.07
2021-08-19 04:47:40.912,-0.29,0.05
2021-08-19 04:47:40.916,-0.305,0.02
2021-08-19 04:47:40.920,-0.305,0.03
2021-08-19 04:47:40.924,-0.315,0.035
2021-08-19 04:47:40.928,-0.305,0.04
2021-08-19 04:47:40.932,-0.34,0.02
2021-08-19 04:47:40.936,-0.365,0.015
2021-08-19 04:47:40.940,-0.39,0.025
2021-08-19 04:47:40.944,-0.39,-0.01
2021-08-19 04:47:40.948,-0.38,-0.02
2021-08-19 04:47:40.952,-0.385,-0.015
2021-08-19 04:47:40.956,-0.405,0.025
2021-08-19 04:47:40.960,-0.4,0.02
2021-08-19 04:47:40.964,-0.375,0.085
2021-08-19 04:47:40.968,-0.41,0.075
2021-08-19 04:47:40.972,-0.405,0.105
2021-08-19 04:47:40.976,-0.385,0.105
2021-08-19 04:47:40.980,-0.36,0.09
2021-08-19 04:47:40.984,-0.325,0.09
2021-08-19 04:47:40.988,-0.26,0.155
2021-08-19 04:47:40.992,-0.22,0.22
2021-08-19 04:47:40.996,-0.19,0.25
2021-08-19 04:47:41.000,-0.16,0.28
2021-08-19 04:47:41.004,-0.145,0.335
2021-08-19 04:47:41.008,-0.075,0.36
2021-08-19 04:47:41.012,-0.025,0.335
2021-08-19 04:47:41.016,-0.02,0.365
2021-08-19 04:47:41.020,0.01,0.395
2021-08-19 04:47:41.024,0.01,0.42
2021-08-19 04:47:41.028,-0.015,0.435
2021-08-19 04:47:41.032,0.015,0.425
2021-08-19 04:47:41.036,0.075,0.445
2021-08-19 04:47:41.040,0.125,0.45
2021-08-19 04:47:41.044,0.15,0.485
2021-08-19 04:47:41.048,0.155,0.505
2021-08-19 04:47:41.052,0.21,0.515
2021-08-19 04:47:41.056,0.21,0.525
2021-08-19 04:47:41.060,0.225,0.545
2021-08-19 04:47:41.064,0.2,0.585
2021-08-19 04:47:41.068,0.225,0.615
2021-08-19 04:47:41.072,0.25,0.635
2021-08-19 04:47:41.076,0.275,0.665
2021-08-19 04:47:41.080,0.28,0.655
2021-08-19 04:47:41.084,0.26,0.7
2021-08-19 04:47:41.088,0.235,0.72
2021-08-19 04:47:41.092,0.23,0.75
2021-08-19 04:47:41.096,0.235,0.74
2021-08-19 04:47:41.100,0.195,0.745
2021-08-19 04:47:41.104,0.125,0.72
2021-08-19 04:47:41.108,0.1,0.745
2021-08-19 04:47:41.112,0.075,0.705
2021-08-19 04:47:41.116,0.025,0.67
2021-08-19 04:47:41.120,-0.045,0.66
2021-08-19 04:47:41.124,-0.065,0.625
2021-08-19 04:47:41.128,-0.11,0.585
2021-08-19 04:47:41.132,-0.17,0.56
2021-08-19 04:47:41.136,-0.195,0.53
2021-08-19 04:47:41.140,-0.205,0.48
2021-08-19 04:47:41.144,-0.235,0.42
2021-08-19 04:47:41.148,-0.25,0.385
2021-08-19 04:47:41.152,-0.235,0.345
2021-08-19 04:47:41.156,-0.165,0.32
2021-08-19 04:47:41.160,-0.125,0.255
2021-08-19 04:47:41.164,-0.33,0.155
2021-08-19 04:47:41.168,-0.605,0.025
2021-08-19 04:47:41.172,-0.975,-0.265
2021-08-19 04:47:41.176,-1.53,-0.45
2021-08-19 04:47:41.180,-1.99,-0.615
2021-08-19 04:47:41.240,-1.73,-1.36
2021-08-19 04:47:41.244,-1.25,-0.945
2021-08-19 04:47:41.248,-0.875,-0.66
2021-08-19 04:47:41.252,-0.585,-0.385
2021-08-19 04:47:41.256,-0.415,-0.2
2021-08-19 04:47:41.260,-0.31,0.0
2021-08-19 04:47:41.264,-0.24,0.06
2021-08-19 04:47:41.268,-0.205,0.055
2021-08-19 04:47:41.272,-0.205,0.075
2021-08-19 04:47:41.276,-0.165,0.07
2021-08-19 04:47:41.280,-0.175,0.085
2021-08-19 04:47:41.284,-0.15,0.05
2021-08-19 04:47:41.288,-0.125,0.065
2021-08-19 04:47:41.292,-0.13,0.07
2021-08-19 04:47:41.296,-0.105,0.04
2021-08-19 04:47:41.300,-0.075,0.08
2021-08-19 04:47:41.304,-0.08,0.07
2021-08-19 04:47:41.308,-0.07,0.045
2021-08-19 04:47:41.312,-0.075,0.065
2021-08-19 04:47:41.316,-0.065,0.065
2021-08-19 04:47:41.320,-0.1,0.1
2021-08-19 04:47:41.324,-0.095,0.065
2021-08-19 04:47:41.328,-0.045,0.035
2021-08-19 04:47:41.332,-0.08,0.06
2021-08-19 04:47:41.336,-0.09,0.08
2021-08-19 04:47:41.340,-0.055,0.095
2021-08-19 04:47:41.344,-0.005,0.14
2021-08-19 04:47:41.348,0.0,0.15
2021-08-19 04:47:41.352,0.0,0.22
2021-08-19 04:47:41.356,0.01,0.21
2021-08-19 04:47:41.360,0.025,0.22
2021-08-19 04:47:41.364,0.07,0.215
2021-08-19 04:47:41.368,0.145,0.235
2021-08-19 04:47:41.372,0.2,0.26
2021-08-19 04:47:41.376,0.23,0.315
2021-08-19 04:47:41.380,0.28,0.4
2021-08-19 04:47:41.384,0.335,0.47
2021-08-19 04:47:41.388,0.36,0.515
2021-08-19 04:47:41.392,0.42,0.535
2021-08-19 04:47:41.396,0.435,0.52
2021-08-19 04:47:41.400,0.445,0.56
2021-08-19 04:47:41.404,0.5,0.59
2021-08-19 04:47:41.408,0.495,0.635
2021-08-19 04:47:41.412,0.51,0.62
2021-08-19 04:47:41.416,0.485,0.6
2021-08-19 04:47:41.420,0.52,0.63
2021-08-19 04:47:41.424,0.56,0.62
2021-08-19 04:47:41.428,0.605,0.635
2021-08-19 04:47:41.432,0.62,0.705
2021-08-19 04:47:41.436,0.635,0.705
2021-08-19 04:47:41.440,0.67,0.725
2021-08-19 04:47:41.444,0.66,0.77
2021-08-19 04:47:41.448,0.64,0.82
2021-08-19 04:47:41.452,0.625,0.83
2021-08-19 04:47:41.456,0.605,0.81
2021-08-19 04:47:41.460,0.555,0.8
2021-08-19 04:47:41.464,0.505,0.81
2021-08-19 04:47:41.468,0.505,0.805
2021-08-19 04:47:41.472,0.415,0.77
2021-08-19 04:47:41.476,0.38,0.685
2021-08-19 04:47:41.480,0.335,0.71
2021-08-19 04:47:41.484,0.285,0.69
2021-08-19 04:47:41.488,0.21,0.65
2021-08-19 04:47:41.492,0.165,0.62
2021-08-19 04:47:41.496,0.1,0.57
2021-08-19 04:47:41.500,0.03,0.56
2021-08-19 04:47:41.504,-0.01,0.46
2021-08-19 04:47:41.508,-0.045,0.425
2021-08-19 04:47:41.512,-0.09,0.39
2021-08-19 04:47:41.516,-0.145,0.33
2021-08-19 04:47:41.520,-0.18,0.255
2021-08-19 04:47:41.524,-0.19,0.255
2021-08-19 04:47:41.528,-0.24,0.17
2021-08-19 04:47:41.532,-0.265,0.155
2021-08-19 04:47:41.536,-0.265,0.14
2021-08-19 04:47:41.540,-0.285,0.105
2021-08-19 04:47:41.544,-0.3,0.06
2021-08-19 04:47:41.548,-0.29,0.01
2021-08-19 04:47:41.552,-0.3,0.035
2021-08-19 04:47:41.556,-0.315,-0.005
2021-08-19 04:47:41.560,-0.33,-0.01
2021-08-19 04:47:41.564,-0.4,-0.015
2021-08-19 04:47:41.568,-0.38,-0.05
2021-08-19 04:47:41.572,-0.43,-0.07
2021-08-19 04:47:41.576,-0.475,-0.1
2021-08-19 04:47:41.580,-0.54,-0.105
2021-08-19 04:47:41.584,-0.63,-0.21
2021-08-19 04:47:41.588,-0.735,-0.395
2021-08-19 04:47:41.592,-0.745,-0.585
2021-08-19 04:47:41.596,-0.845,-0.93
2021-08-19 04:47:41.600,-1.135,-0.91
2021-08-19 04:47:41.604,-1.43,-0.815
2021-08-19 04:47:41.608,-1.64,-0.87
2021-08-19 04:47:41.612,-1.93,-0.72
2021-08-19 04:47:41.660,-1.995,-1.585
2021-08-19 04:47:41.664,-1.615,-1.16
2021-08-19 04:47:41.668,-1.125,-0.85
2021-08-19 04:47:41.672,-0.75,-0.575
2021-08-19 04:47:41.676,-0.545,-0.34
2021-08-19 04:47:41.680,-0.39,-0.13
2021-08-19 04:47:41.684,-0.34,-0.015
2021-08-19 04:47:41.688,-0.3,-0.025
2021-08-19 04:47:41.692,-0.245,0.0
2021-08-19 04:47:41.696,-0.205,-0.005
2021-08-19 04:47:41.700,-0.195,0.015
2021-08-19 04:47:41.704,-0.22,-0.01
2021-08-19 04:47:41.708,-0.2,0.0
2021-08-19 04:47:41.712,-0.17,0.005
2021-08-19 04:47:41.716,-0.145,0.0
2021-08-19 04:47:41.720,-0.155,-0.025
2021-08-19 04:47:41.724,-0.18,-0.005
2021-08-19 04:47:41.728,-0.205,-0.025
2021-08-19 04:47:41.732,-0.21,-0.04
2021-08-19 04:47:41.736,-0.18,-0.02
2021-08-19 04:47:41.740,-0.2,-0.015
2021-08-19 04:47:41.744,-0.24,-0.035
2021-08-19 04:47:41.748,-0.255,-0.04
2021-08-19 04:47:41.752,-0.22,-0.04
2021-08-19 04:47:41.756,-0.24,-0.04
2021-08-19 04:47:41.760,-0.225,-0.025
2021-08-19 04:47:41.764,-0.2,0.0
2021-08-19 04:47:41.768,-0.195,0.025
2021-08-19 04:47:41.772,-0.21,0.05
2021-08-19 04:47:41.776,-0.21,0.06
2021-08-19 04:47:41.780,-0.195,0.065
2021-08-19 04:47:41.784,-0.165,0.055
2021-08-19 04:47:41.788,-0.11,0.04
2021-08-19 04:47:41.792,-0.055,0.09
2021-08-19 04:47:41.796,0.0,0.17
2021-08-19 04:47:41.800,0.025,0.185
2021-08-19 04:47:41.804,0.105,0.21
2021-08-19 04:47:41.808,0.11,0.28
2021-08-19 04:47:41.812,0.12,0.325
2021-08-19 04:47:41.816,0.205,0.345
2021-08-19 04:47:41.820,0.27,0.345
2021-08-19 04:47:41.824,0.265,0.435
2021-08-19 04:47:41.828,0.245,0.465
2021-08-19 04:47:41.832,0.24,0.455
2021-08-19 04:47:41.836,0.225,0.49
2021-08-19 04:47:41.840,0.3,0.465
2021-08-19 04:47:41.844,0.355,0.485
2021-08-19 04:47:41.848,0.39,0.505
2021-08-19 04:47:41.852,0.375,0.555
2021-08-19 04:47:41.856,0.385,0.56
2021-08-19 04:47:41.860,0.44,0.625
2021-08-19 04:47:41.864,0.465,0.6
2021-08-19 04:47:41.868,0.46,0.645
2021-08-19 04:47:41.872,0.435,0.66
2021-08-19 04:47:41.876,0.43,0.665
2021-08-19 04:47:41.880,0.435,0.705
2021-08-19 04:47:41.884,0.45,0.75
2021-08-19 04:47:41.888,0.44,0.73
2021-08-19 04:47:41.892,0.375,0.755
2021-08-19 04:47:41.896,0.35,0.78
2021-08-19 04:47:41.900,0.33,0.755
2021-08-19 04:47:41.904,0.31,0.78
2021-08-19 04:47:41.908,0.275,0.77
2021-08-19 04:47:41.912,0.225,0.755
2021-08-19 04:47:41.916,0.17,0.73
2021-08-19 04:47:41.920,0.13,0.705
2021-08-19 04:47:41.924,0.075,0.675
2021-08-19 04:47:41.928,0.03,0.61
2021-08-19 04:47:41.932,-0.06,0.58
2021-08-19 04:47:41.936,-0.095,0.545
2021-08-19 04:47:41.940,-0.15,0.47
2021-08-19 04:47:41.944,-0.165,0.425
2021-08-19 04:47:41.948,-0.195,0.36
2021-08-19 04:47:41.952,-0.225,0.34
2021-08-19 04:47:41.956,-0.25,0.28
2021-08-19 04:47:41.960,-0.255,0.26
2021-08-19 04:47:41.964,-0.255,0.215
2021-08-19 04:47:41.968,-0.275,0.18
2021-08-19 04:47:41.972,-0.32,0.145
2021-08-19 04:47:41.976,-0.34,0.125
2021-08-19 04:47:41.980,-0.41,0.12
2021-08-19 04:47:41.984,-0.425,0.07
2021-08-19 04:47:41.988,-0.43,0.055
2021-08-19 04:47:41.992,-0.475,-0.055
2021-08-19 04:47:41.996,-0.57,-0.235
2021-08-19 04:47:42.000,-0.62,-0.57
2021-08-19 04:47:42.004,-0.885,-0.855
2021-08-19 04:47:42.008,-1.205,-0.91
2021-08-19 04:47:42.012,-1.5,-0.965
2021-08-19 04:47:42.016,-1.715,-0.875
2021-08-19 04:47:42.064,-1.985,-1.555
2021-08-19 04:47:42.068,-1.6,-1.095
2021-08-19 04:47:42.072,-1.16,-0.77
2021-08-19 04:47:42.076,-0.835,-0.535
2021-08-19 04:47:42.080,-0.62,-0.305
2021-08-19 04:47:42.084,-0.475,-0.12
2021-08-19 04:47:42.088,-0.375,0.0
2021-08-19 04:47:42.092,-0.335,0.03
2021-08-19 04:47:42.096,-0.31,0.045
2021-08-19 04:47:42.100,-0.29,0.01
2021-08-19 04:47:42.104,-0.26,0.03
2021-08-19 04:47:42.108,-0.23,0.045
2021-08-19 04:47:42.112,-0.235,0.0
2021-08-19 04:47:42.116,-0.25,-0.025
2021-08-19 04:47:42.120,-0.235,0.0
2021-08-19 04:47:42.124,-0.21,-0.01
2021-08-19 04:47:42.128,-0.22,-0.025
2021-08-19 04:47:42.132,-0.205,-0.045
2021-08-19 04:47:42.136,-0.2,-0.025
2021-08-19 04:47:42.140,-0.24,-0.055
2021-08-19 04:47:42.144,-0.235,-0.045
2021-08-19 04:47:42.148,-0.27,-0.05
2021-08-19 04:47:42.152,-0.275,-0.03
2021-08-19 04:47:42.156,-0.275,-0.05
2021-08-19 04:47:42.160,-0.305,-0.02
2021-08-19 04:47:42.164,-0.265,-0.01
2021-08-19 04:47:42.168,-0.25,-0.015
2021-08-19 04:47:42.172,-0.22,0.01
2021-08-19 04:47:42.176,-0.22,0.06
2021-08-19 04:47:42.180,-0.26,0.065
2021-08-19 04:47:42.184,-0.24,0.05
2021-08-19 04:47:42.188,-0.22,0.09
2021-08-19 04:47:42.192,-0.18,0.075
2021-08-19 04:47:42.196,-0.13,0.06
2021-08-19 04:47:42.200,-0.1,0.125
2021-08-19 04:47:42.204,-0.055,0.18
2021-08-19 04:47:42.208,-0.025,0.245
2021-08-19 04:47:42.212,0.025,0.26
2021-08-19 04:47:42.216,0.035,0.3
2021-08-19 04:47:42.220,0.065,0.33
2021-08-19 04:47:42.224,0.105,0.335
2021-08-19 04:47:42.228,0.145,0.345
2021-08-19 04:47:42.232,0.19,0.37
2021-08-19 04:47:42.236,0.16,0.415
2021-08-19 04:47:42.240,0.145,0.395
2021-08-19 04:47:42.244,0.165,0.4
2021-08-19 04:47:42.248,0.2,0.44
2021-08-19 04:47:42.252,0.255,0.46
2021-08-19 04:47:42.256,0.34,0.47
2021-08-19 04:47:42.260,0.365,0.535
2021-08-19 04:47:42.264,0.34,0.565
2021-08-19 04:47:42.268,0.37,0.605
2021-08-19 04:47:42.272,0.39,0.575
2021-08-19 04:47:42.276,0.4,0.62
2021-08-19 04:47:42.280,0.385,0.635
2021-08-19 04:47:42.284,0.415,0.64
2021-08-19 04:47:42.288,0.39,0.675
2021-08-19 04:47:42.292,0.365,0.705
2021-08-19 04:47:42.296,0.335,0.74
2021-08-19 04:47:42.300,0.31,0.735
2021-08-19 04:47:42.304,0.265,0.69
2021-08-19 04:47:42.308,0.205,0.7
2021-08-19 04:47:42.312,0.17,0.675
2021-08-19 04:47:42.316,0.135,0.68
2021-08-19 04:47:42.320,0.06,0.63
2021-08-19 04:47:42.324,0.02,0.61
2021-08-19 04:47:42.328,-0.005,0.585
2021-08-19 04:47:42.332,-0.08,0.555
2021-08-19 04:47:42.336,-0.08,0.53
2021-08-19 04:47:42.340,-0.145,0.49
2021-08-19 04:47:42.344,-0.195,0.405
2021-08-19 04:47:42.348,-0.23,0.39
2021-08-19 04:47:42.352,-0.225,0.33
2021-08-19 04:47:42.356,-0.235,0.275
2021-08-19 04:47:42.360,-0.23,0.235
2021-08-19 04:47:42.364,-0.295,0.23
2021-08-19 04:47:42.368,-0.3,0.195
2021-08-19 04:47:42.372,-0.305,0.185
2021-08-19 04:47:42.376,-0.29,0.125
2021-08-19 04:47:42.380,-0.3,0.12
2021-08-19 04:47:42.384,-0.3,0.12
2021-08-19 04:47:42.388,-0.32,0.1
2021-08-19 04:47:42.392,-0.305,0.05
2021-08-19 04:47:42.396,-0.3,0.04
2021-08-19 04:47:42.400,-0.26,0.005
2021-08-19 04:47:42.404,-0.26,-0.08
2021-08-19 04:47:42.408,-0.345,-0.23
2021-08-19 04:47:42.412,-0.545,-0.36
2021-08-19 04:47:42.416,-0.84,-0.49
2021-08-19 04:47:42.420,-1.265,-0.505
2021-08-19 04:47:42.424,-1.885,-0.53
2021-08-19 04:47:42.488,-1.905,-1.86
2021-08-19 04:47:42.492,-1.37,-1.33
2021-08-19 04:47:42.496,-0.875,-0.865
2021-08-19 04:47:42.500,-0.53,-0.48
2021-08-19 04:47:42.504,-0.25,-0.165
2021-08-19 04:47:42.508,-0.15,0.07
2021-08-19 04:47:42.512,-0.06,0.185
2021-08-19 04:47:42.516,-0.02,0.26
2021-08-19 04:47:42.520,0.025,0.28
2021-08-19 04:47:42.524,0.04,0.29
2021-08-19 04:47:42.528,0.04,0.32
2021-08-19 04:47:42.532,0.06,0.34
2021-08-19 04:47:42.536,0.085,0.34
2021-08-19 04:47:42.540,0.115,0.34
2021-08-19 04:47:42.544,0.14,0.335
2021-08-19 04:47:42.548,0.12,0.365
2021-08-19 04:47:42.552,0.13,0.34
2021-08-19 04:47:42.556,0.12,0.35
2021-08-19 04:47:42.560,0.125,0.39
2021-08-19 04:47:42.564,0.125,0.375
2021-08-19 04:47:42.568,0.14,0.365
2021-08-19 04:47:42.572,0.155,0.425
2021-08-19 04:47:42.576,0.17,0.43
2021-08-19 04:47:42.580,0.2,0.455
2021-08-19 04:47:42.584,0.24,0.47
2021-08-19 04:47:42.588,0.25,0.47
2021-08-19 04:47:42.592,0.26,0.52
2021-08-19 04:47:42.596,0.27,0.59
2021-08-19 04:47:42.600,0.335,0.56
2021-08-19 04:47:42.604,0.395,0.56
2021-08-19 04:47:42.608,0.475,0.625
2021-08-19 04:47:42.612,0.54,0.69
2021-08-19 04:47:42.616,0.615,0.79
2021-08-19 04:47:42.620,0.695,0.815
2021-08-19 04:47:42.624,0.73,0.9
2021-08-19 04:47:42.628,0.765,0.945
2021-08-19 04:47:42.632,0.815,0.98
2021-08-19 04:47:42.636,0.875,1.0
2021-08-19 04:47:42.640,0.89,1.055
2021-08-19 04:47:42.644,0.9,1.07
2021-08-19 04:47:42.648,0.925,1.1
2021-08-19 04:47:42.652,0.905,1.11
2021-08-19 04:47:42.656,0.935,1.14
2021-08-19 04:47:42.660,0.98,1.16
2021-08-19 04:47:42.664,1.015,1.195
2021-08-19 04:47:42.668,1.045,1.24
2021-08-19 04:47:42.672,1.04,1.265
2021-08-19 04:47:42.676,1.055,1.315
2021-08-19 04:47:42.680,1.055,1.285
2021-08-19 04:47:42.684,1.04,1.305
2021-08-19 04:47:42.688,1.0,1.335
2021-08-19 04:47:42.692,0.99,1.35
2021-08-19 04:47:42.696,0.965,1.34
2021-08-19 04:47:42.700,0.95,1.345
2021-08-19 04:47:42.704,0.9,1.325
2021-08-19 04:47:42.708,0.855,1.34
2021-08-19 04:47:42.712,0.8,1.32
2021-08-19 04:47:42.716,0.735,1.29
2021-08-19 04:47:42.720,0.725,1.245
2021-08-19 04:47:42.724,0.635,1.215
2021-08-19 04:47:42.728,0.595,1.18
2021-08-19 04:47:42.732,0.54,1.11
2021-08-19 04:47:42.736,0.46,1.1
2021-08-19 04:47:42.740,0.385,1.035
2021-08-19 04:47:42.744,0.345,0.96
2021-08-19 04:47:42.748,0.27,0.895
2021-08-19 04:47:42.752,0.18,0.82
2021-08-19 04:47:42.756,0.115,0.805
2021-08-19 04:47:42.760,0.09,0.735
2021-08-19 04:47:42.764,0.045,0.63
2021-08-19 04:47:42.768,0.035,0.605
2021-08-19 04:47:42.772,-0.035,0.545
2021-08-19 04:47:42.776,-0.065,0.505
2021-08-19 04:47:42.780,-0.055,0.415
2021-08-19 04:47:42.784,-0.09,0.405
2021-08-19 04:47:42.788,-0.13,0.36
2021-08-19 04:47:42.792,-0.14,0.275
2021-08-19 04:47:42.796,-0.175,0.255
2021-08-19 04:47:42.800,-0.235,0.23
2021-08-19 04:47:42.804,-0.31,0.195
2021-08-19 04:47:42.808,-0.295,0.135
2021-08-19 04:47:42.812,-0.36,0.095
2021-08-19 04:47:42.816,-0.475,-0.07
2021-08-19 04:47:42.820,-0.595,-0.285
2021-08-19 04:47:42.824,-0.68,-0.54
2021-08-19 04:47:42.828,-0.915,-0.81
2021-08-19 04:47:42.832,-1.29,-0.825
2021-08-19 04:47:42.836,-1.63,-0.9
2021-08-19 04:47:42.840,-1.84,-0.93
2021-08-19 04:47:42.892,-1.87,-1.275
2021-08-19 04:47:42.896,-1.42,-0.9
2021-08-19 04:47:42.900,-1.05,-0.675
2021-08-19 04:47:42.904,-0.705,-0.42
2021-08-19 04:47:42.908,-0.48,-0.235
2021-08-19 04:47:42.912,-0.395,-0.065
2021-08-19 04:47:42.916,-0.295,0.015
2021-08-19 04:47:42.920,-0.26,0.03
2021-08-19 04:47:42.924,-0.22,-0.015
2021-08-19 04:47:42.928,-0.185,0.0
2021-08-19 04:47:42.932,-0.16,-0.005
2021-08-19 04:47:42.936,-0.16,-0.005
2021-08-19 04:47:42.940,-0.145,-0.005
2021-08-19 04:47:42.944,-0.155,-0.035
2021-08-19 04:47:42.948,-0.145,-0.055
2021-08-19 04:47:42.952,-0.105,-0.05
2021-08-19 04:47:42.956,-0.115,-0.055
2021-08-19 04:47:42.960,-0.085,-0.055
2021-08-19 04:47:42.964,-0.1,-0.07
2021-08-19 04:47:42.968,-0.15,-0.045
2021-08-19 04:47:42.972,-0.17,-0.06
2021-08-19 04:47:42.976,-0.17,-0.055
2021-08-19 04:47:42.980,-0.16,-0.08
2021-08-19 04:47:42.984,-0.16,-0.075
2021-08-19 04:47:42.988,-0.195,-0.07
2021-08-19 04:47:42.992,-0.155,-0.08
2021-08-19 04:47:42.996,-0.135,-0.075
2021-08-19 04:47:43.000,-0.18,-0.025
2021-08-19 04:47:43.004,-0.17,-0.025
2021-08-19 04:47:43.008,-0.185,-0.01
2021-08-19 04:47:43.012,-0.15,-0.01
2021-08-19 04:47:43.016,-0.105,-0.035
2021-08-19 04:47:43.020,-0.105,-0.01
2021-08-19 04:47:43.024,-0.04,-0.025
2021-08-19 04:47:43.028,0.04,0.03
2021-08-19 04:47:43.032,0.055,0.08
2021-08-19 04:47:43.036,0.08,0.14
2021-08-19 04:47:43.040,0.155,0.17
2021-08-19 04:47:43.044,0.155,0.195
2021-08-19 04:47:43.048,0.195,0.195
2021-08-19 04:47:43.052,0.225,0.185
2021-08-19 04:47:43.056,0.28,0.225
2021-08-19 04:47:43.060,0.3,0.27
2021-08-19 04:47:43.064,0.28,0.25
2021-08-19 04:47:43.068,0.26,0.275
2021-08-19 04:47:43.072,0.295,0.295
2021-08-19 04:47:43.076,0.37,0.26
2021-08-19 04:47:43.080,0.41,0.315
2021-08-19 04:47:43.084,0.465,0.365
2021-08-19 04:47:43.088,0.46,0.42
2021-08-19 04:47:43.092,0.475,0.425
2021-08-19 04:47:43.096,0.52,0.48
2021-08-19 04:47:43.100,0.495,0.535
2021-08-19 04:47:43.104,0.505,0.555
2021-08-19 04:47:43.108,0.52,0.58
2021-08-19 04:47:43.112,0.465,0.595
2021-08-19 04:47:43.116,0.475,0.63
2021-08-19 04:47:43.120,0.455,0.65
2021-08-19 04:47:43.124,0.4,0.625
2021-08-19 04:47:43.128,0.365,0.615
2021-08-19 04:47:43.132,0.305,0.615
2021-08-19 04:47:43.136,0.285,0.585
2021-08-19 04:47:43.140,0.225,0.605
2021-08-19 04:47:43.144,0.18,0.6
2021-08-19 04:47:43.148,0.09,0.56
2021-08-19 04:47:43.152,0.05,0.515
2021-08-19 04:47:43.156,0.04,0.485
2021-08-19 04:47:43.160,0.0,0.455
2021-08-19 04:47:43.164,-0.07,0.415
2021-08-19 04:47:43.168,-0.12,0.385
2021-08-19 04:47:43.172,-0.16,0.35
2021-08-19 04:47:43.176,-0.16,0.305
2021-08-19 04:47:43.180,-0.17,0.28
2021-08-19 04:47:43.184,-0.21,0.25
2021-08-19 04:47:43.188,-0.215,0.215
2021-08-19 04:47:43.192,-0.225,0.175
2021-08-19 04:47:43.196,-0.23,0.18
2021-08-19 04:47:43.200,-0.24,0.135
2021-08-19 04:47:43.204,-0.205,0.115
2021-08-19 04:47:43.208,-0.22,0.065
2021-08-19 04:47:43.212,-0.225,0.06
2021-08-19 04:47:43.216,-0.225,0.075
2021-08-19 04:47:43.220,-0.235,0.05
2021-08-19 04:47:43.224,-0.21,0.01
2021-08-19 04:47:43.228,-0.185,-0.06
2021-08-19 04:47:43.232,-0.225,-0.13
2021-08-19 04:47:43.236,-0.335,-0.295
2021-08-19 04:47:43.240,-0.52,-0.465
2021-08-19 04:47:43.244,-0.855,-0.6
2021-08-19 04:47:43.248,-1.425,-0.595
2021-08-19 04:47:43.320,-1.45,-1.64
2021-08-19 04:47:43.324,-0.925,-1.13
2021-08-19 04:47:43.328,-0.51,-0.765
2021-08-19 04:47:43.332,-0.22,-0.415
2021-08-19 04:47:43.336,-0.025,-0.145
2021-08-19 04:47:43.340,0.08,0.07
2021-08-19 04:47:43.344,0.125,0.165
2021-08-19 04:47:43.348,0.18,0.235
2021-08-19 04:47:43.352,0.15,0.21
2021-08-19 04:47:43.356,0.2,0.225
2021-08-19 04:47:43.360,0.24,0.25
2021-08-19 04:47:43.364,0.28,0.255
2021-08-19 04:47:43.368,0.305,0.26
2021-08-19 04:47:43.372,0.34,0.26
2021-08-19 04:47:43.376,0.34,0.295
2021-08-19 04:47:43.380,0.335,0.34
2021-08-19 04:47:43.384,0.375,0.325
2021-08-19 04:47:43.388,0.36,0.31
2021-08-19 04:47:43.392,0.33,0.3
2021-08-19 04:47:43.396,0.37,0.34
2021-08-19 04:47:43.400,0.4,0.325
2021-08-19 04:47:43.404,0.38,0.35
2021-08-19 04:47:43.408,0.415,0.39
2021-08-19 04:47:43.412,0.46,0.38
2021-08-19 04:47:43.416,0.47,0.435
2021-08-19 04:47:43.420,0.515,0.48
2021-08-19 04:47:43.424,0.56,0.48
2021-08-19 04:47:43.428,0.6,0.525
2021-08-19 04:47:43.432,0.67,0.55
2021-08-19 04:47:43.436,0.71,0.555
2021-08-19 04:47:43.440,0.775,0.63
2021-08-19 04:47:43.444,0.83,0.725
2021-08-19 04:47:43.448,0.885,0.76
2021-08-19 04:47:43.452,0.94,0.82
2021-08-19 04:47:43.456,0.985,0.925
2021-08-19 04:47:43.460,1.02,0.925
2021-08-19 04:47:43.464,1.07,0.935
2021-08-19 04:47:43.468,1.16,0.995
2021-08-19 04:47:43.472,1.17,1.055
2021-08-19 04:47:43.476,1.18,1.115
2021-08-19 04:47:43.480,1.195,1.13
2021-08-19 04:47:43.484,1.18,1.145
2021-08-19 04:47:43.488,1.22,1.175
2021-08-19 04:47:43.492,1.26,1.2
2021-08-19 04:47:43.496,1.29,1.23
2021-08-19 04:47:43.500,1.295,1.265
2021-08-19 04:47:43.504,1.3,1.31
2021-08-19 04:47:43.508,1.325,1.34
2021-08-19 04:47:43.512,1.315,1.37
2021-08-19 04:47:43.516,1.305,1.39
2021-08-19 04:47:43.520,1.265,1.415
2021-08-19 04:47:43.524,1.24,1.42
2021-08-19 04:47:43.528,1.205,1.445
2021-08-19 04:47:43.532,1.13,1.455
2021-08-19 04:47:43.536,1.13,1.405
2021-08-19 04:47:43.540,1.055,1.42
2021-08-19 04:47:43.544,1.01,1.42
2021-08-19 04:47:43.548,0.97,1.41
2021-08-19 04:47:43.552,0.915,1.355
2021-08-19 04:47:43.556,0.82,1.335
2021-08-19 04:47:43.560,0.77,1.27
2021-08-19 04:47:43.564,0.71,1.22
2021-08-19 04:47:43.568,0.665,1.195
2021-08-19 04:47:43.572,0.615,1.15
2021-08-19 04:47:43.576,0.55,1.075
2021-08-19 04:47:43.580,0.475,1.01
2021-08-19 04:47:43.584,0.42,0.985
2021-08-19 04:47:43.588,0.38,0.92
2021-08-19 04:47:43.592,0.315,0.865
2021-08-19 04:47:43.596,0.265,0.775
2021-08-19 04:47:43.600,0.205,0.745
2021-08-19 04:47:43.604,0.165,0.705
2021-08-19 04:47:43.608,0.135,0.64
2021-08-19 04:47:43.612,0.14,0.58
2021-08-19 04:47:43.616,0.08,0.515
2021-08-19 04:47:43.620,0.035,0.5
2021-08-19 04:47:43.624,0.02,0.445
2021-08-19 04:47:43.628,0.01,0.395
2021-08-19 04:47:43.632,-0.04,0.36
2021-08-19 04:47:43.636,-0.125,0.345
2021-08-19 04:47:43.640,-0.18,0.295
2021-08-19 04:47:43.644,-0.23,0.22
2021-08-19 04:47:43.648,-0.37,0.095
2021-08-19 04:47:43.652,-0.425,-0.09
2021-08-19 04:47:43.656,-0.515,-0.39
2021-08-19 04:47:43.660,-0.77,-0.615
2021-08-19 04:47:43.664,-1.18,-0.69
2021-08-19 04:47:43.668,-1.5,-0.77
2021-08-19 04:47:43.672,-1.635,-0.785
2021-08-19 04:47:43.676,-2.0,-0.6
2021-08-19 04:47:43.720,-1.94,-1.35
2021-08-19 04:47:43.724,-1.7,-1.04
2021-08-19 04:47:43.728,-1.32,-0.765
2021-08-19 04:47:43.732,-0.945,-0.53
2021-08-19 04:47:43.736,-0.63,-0.36
2021-08-19 04:47:43.740,-0.39,-0.14
2021-08-19 04:47:43.744,-0.285,0.015
2021-08-19 04:47:43.748,-0.195,0.135
2021-08-19 04:47:43.752,-0.11,0.115
2021-08-19 04:47:43.756,-0.06,0.135
2021-08-19 04:47:43.760,-0.06,0.145
2021-08-19 04:47:43.764,-0.04,0.09
2021-08-19 04:47:43.768,-0.045,0.12
2021-08-19 04:47:43.772,-0.04,0.115
2021-08-19 04:47:43.776,0.005,0.1
2021-08-19 04:47:43.780,-0.005,0.08
2021-08-19 04:47:43.784,-0.01,0.11
2021-08-19 04:47:43.788,-0.02,0.075
2021-08-19 04:47:43.792,0.035,0.07
2021-08-19 04:47:43.796,0.025,0.09
2021-08-19 04:47:43.800,0.045,0.09
2021-08-19 04:47:43.804,0.005,0.075
2021-08-19 04:47:43.808,-0.02,0.06
2021-08-19 04:47:43.812,-0.05,0.01
2021-08-19 04:47:43.816,-0.03,0.04
2021-08-19 04:47:43.820,-0.04,0.005
2021-08-19 04:47:43.824,-0.015,0.0
2021-08-19 04:47:43.828,-0.01,-0.005
2021-08-19 04:47:43.832,-0.025,0.01
2021-08-19 04:47:43.836,0.015,0.04
2021-08-19 04:47:43.840,0.015,0.055
2021-08-19 04:47:43.844,0.025,0.055
2021-08-19 04:47:43.848,0.02,0.03
2021-08-19 04:47:43.852,0.035,0.035
2021-08-19 04:47:43.856,0.135,0.06
2021-08-19 04:47:43.860,0.175,0.09
2021-08-19 04:47:43.864,0.245,0.12
2021-08-19 04:47:43.868,0.26,0.155
2021-08-19 04:47:43.872,0.28,0.18
2021-08-19 04:47:43.876,0.28,0.17
2021-08-19 04:47:43.880,0.335,0.235
2021-08-19 04:47:43.884,0.39,0.25
2021-08-19 04:47:43.888,0.44,0.22
2021-08-19 04:47:43.892,0.445,0.245
2021-08-19 04:47:43.896,0.45,0.29
2021-08-19 04:47:43.900,0.435,0.295
2021-08-19 04:47:43.904,0.475,0.305
2021-08-19 04:47:43.908,0.49,0.36
2021-08-19 04:47:43.912,0.52,0.34
2021-08-19 04:47:43.916,0.58,0.375
2021-08-19 04:47:43.920,0.59,0.425
2021-08-19 04:47:43.924,0.665,0.495
2021-08-19 04:47:43.928,0.67,0.475
2021-08-19 04:47:43.932,0.68,0.53
2021-08-19 04:47:43.936,0.685,0.545
2021-08-19 04:47:43.940,0.665,0.595
2021-08-19 04:47:43.944,0.645,0.59
2021-08-19 04:47:43.948,0.605,0.655
2021-08-19 04:47:43.952,0.6,0.625
2021-08-19 04:47:43.956,0.55,0.655
2021-08-19 04:47:43.960,0.545,0.655
2021-08-19 04:47:43.964,0.495,0.655
2021-08-19 04:47:43.968,0.465,0.64
2021-08-19 04:47:43.972,0.4,0.655
2021-08-19 04:47:43.976,0.33,0.595
2021-08-19 04:47:43.980,0.265,0.615
2021-08-19 04:47:43.984,0.225,0.575
2021-08-19 04:47:43.988,0.18,0.55
2021-08-19 04:47:43.992,0.155,0.55
2021-08-19 04:47:43.996,0.065,0.48
2021-08-19 04:47:44.000,-0.005,0.44
2021-08-19 04:47:44.004,-0.01,0.42
2021-08-19 04:47:44.008,-0.045,0.4
2021-08-19 04:47:44.012,-0.07,0.345
2021-08-19 04:47:44.016,-0.11,0.31
2021-08-19 04:47:44.020,-0.12,0.27
2021-08-19 04:47:44.024,-0.15,0.25
2021-08-19 04:47:44.028,-0.175,0.21
2021-08-19 04:47:44.032,-0.18,0.17
2021-08-19 04:47:44.036,-0.235,0.15
2021-08-19 04:47:44.040,-0.21,0.12
2021-08-19 04:47:44.044,-0.22,0.095
2021-08-19 04:47:44.048,-0.22,0.095
2021-08-19 04:47:44.052,-0.215,0.08
2021-08-19 04:47:44.056,-0.25,0.015
2021-08-19 04:47:44.060,-0.26,0.01
2021-08-19 04:47:44.064,-0.195,-0.025
2021-08-19 04:47:44.068,-0.17,-0.11
2021-08-19 04:47:44.072,-0.24,-0.24
2021-08-19 04:47:44.076,-0.405,-0.43
2021-08-19 04:47:44.080,-0.69,-0.57
2021-08-19 04:47:44.084,-1.205,-0.595
2021-08-19 04:47:44.088,-1.825,-0.635
2021-08-19 04:47:44.156,-1.435,-1.815
2021-08-19 04:47:44.160,-0.905,-1.295
2021-08-19 04:47:44.164,-0.515,-0.84
2021-08-19 04:47:44.168,-0.21,-0.505
2021-08-19 04:47:44.172,-0.055,-0.165
2021-08-19 04:47:44.176,0.045,0.015
2021-08-19 04:47:44.180,0.055,0.11
2021-08-19 04:47:44.184,0.075,0.13
2021-08-19 04:47:44.188,0.13,0.15
2021-08-19 04:47:44.192,0.155,0.165
2021-08-19 04:47:44.196,0.185,0.155
2021-08-19 04:47:44.200,0.225,0.175
2021-08-19 04:47:44.204,0.225,0.16
2021-08-19 04:47:44.208,0.24,0.19
2021-08-19 04:47:44.212,0.26,0.21
2021-08-19 04:47:44.216,0.275,0.23
2021-08-19 04:47:44.220,0.275,0.2
2021-08-19 04:47:44.224,0.265,0.255
2021-08-19 04:47:44.228,0.255,0.245
2021-08-19 04:47:44.232,0.27,0.27
2021-08-19 04:47:44.236,0.31,0.235
2021-08-19 04:47:44.240,0.33,0.25
2021-08-19 04:47:44.244,0.33,0.285
2021-08-19 04:47:44.248,0.345,0.355
2021-08-19 04:47:44.252,0.395,0.34
2021-08-19 04:47:44.256,0.46,0.37
2021-08-19 04:47:44.260,0.445,0.425
2021-08-19 04:47:44.264,0.51,0.495
2021-08-19 04:47:44.268,0.52,0.495
2021-08-19 04:47:44.272,0.565,0.49
2021-08-19 04:47:44.276,0.665,0.55
2021-08-19 04:47:44.280,0.715,0.63
2021-08-19 04:47:44.284,0.79,0.71
2021-08-19 04:47:44.288,0.825,0.755
2021-08-19 04:47:44.292,0.885,0.875
2021-08-19 04:47:44.296,0.92,0.91
2021-08-19 04:47:44.300,0.985,0.895
2021-08-19 04:47:44.304,1.035,0.95
2021-08-19 04:47:44.308,1.07,1.0
2021-08-19 04:47:44.312,1.085,1.07
2021-08-19 04:47:44.316,1.125,1.085
2021-08-19 04:47:44.320,1.095,1.085
2021-08-19 04:47:44.324,1.115,1.14
2021-08-19 04:47:44.328,1.15,1.16
2021-08-19 04:47:44.332,1.18,1.22
2021-08-19 04:47:44.336,1.215,1.215
2021-08-19 04:47:44.340,1.245,1.25
2021-08-19 04:47:44.344,1.295,1.3
2021-08-19 04:47:44.348,1.275,1.325
2021-08-19 04:47:44.352,1.235,1.34
2021-08-19 04:47:44.356,1.225,1.37
2021-08-19 04:47:44.360,1.185,1.37
2021-08-19 04:47:44.364,1.16,1.37
2021-08-19 04:47:44.368,1.115,1.38
2021-08-19 04:47:44.372,1.055,1.4
2021-08-19 04:47:44.376,1.005,1.38
2021-08-19 04:47:44.380,0.98,1.35
2021-08-19 04:47:44.384,0.925,1.335
2021-08-19 04:47:44.388,0.83,1.295
2021-08-19 04:47:44.392,0.75,1.275
2021-08-19 04:47:44.396,0.72,1.23
2021-08-19 04:47:44.400,0.69,1.17
2021-08-19 04:47:44.404,0.605,1.105
2021-08-19 04:47:44.408,0.575,1.04
2021-08-19 04:47:44.412,0.465,0.96
2021-08-19 04:47:44.416,0.415,0.92
2021-08-19 04:47:44.420,0.375,0.885
2021-08-19 04:47:44.424,0.32,0.85
2021-08-19 04:47:44.428,0.255,0.785
2021-08-19 04:47:44.432,0.2,0.685
2021-08-19 04:47:44.436,0.14,0.665
2021-08-19 04:47:44.440,0.125,0.575
2021-08-19 04:47:44.444,0.1,0.51
2021-08-19 04:47:44.448,0.095,0.485
2021-08-19 04:47:44.452,0.045,0.42
2021-08-19 04:47:44.456,0.005,0.39
2021-08-19 04:47:44.460,-0.045,0.32
2021-08-19 04:47:44.464,-0.025,0.3
2021-08-19 04:47:44.468,-0.04,0.255
2021-08-19 04:47:44.472,-0.09,0.21
2021-08-19 04:47:44.476,-0.15,0.16
2021-08-19 04:47:44.480,-0.17,0.155
2021-08-19 04:47:44.484,-0.21,0.085
2021-08-19 04:47:44.488,-0.225,0.01
2021-08-19 04:47:44.492,-0.32,-0.13
2021-08-19 04:47:44.496,-0.435,-0.26
2021-08-19 04:47:44.500,-0.535,-0.475
2021-08-19 04:47:44.504,-0.775,-0.71
2021-08-19 04:47:44.508,-1.27,-0.715
2021-08-19 04:47:44.512,-1.705,-0.805
2021-08-19 04:47:44.516,-1.985,-0.95
2021-08-19 04:47:44.568,-1.915,-1.78
2021-08-19 04:47:44.572,-1.555,-1.35
2021-08-19 04:47:44.576,-1.11,-1.015
2021-08-19 04:47:44.580,-0.725,-0.745
2021-08-19 04:47:44.584,-0.445,-0.515
2021-08-19 04:47:44.588,-0.315,-0.25
2021-08-19 04:47:44.592,-0.225,-0.105
2021-08-19 04:47:44.596,-0.15,-0.06
2021-08-19 04:47:44.600,-0.13,-0.06
2021-08-19 04:47:44.604,-0.1,-0.05
2021-08-19 04:47:44.608,-0.085,-0.055
2021-08-19 04:47:44.612,-0.065,-0.06
2021-08-19 04:47:44.616,-0.06,-0.065
2021-08-19 04:47:44.620,-0.065,-0.07
2021-08-19 04:47:44.624,-0.035,-0.07
2021-08-19 04:47:44.628,-0.01,-0.07
2021-08-19 04:47:44.632,-0.005,-0.03
2021-08-19 04:47:44.636,-0.005,-0.06
2021-08-19 04:47:44.640,0.0,-0.045
2021-08-19 04:47:44.644,-0.035,-0.115
2021-08-19 04:47:44.648,-0.01,-0.05
2021-08-19 04:47:44.652,-0.06,-0.05
2021-08-19 04:47:44.656,-0.04,-0.065
2021-08-19 04:47:44.660,-0.025,-0.08
2021-08-19 04:47:44.664,-0.04,-0.08
2021-08-19 04:47:44.668,-0.035,-0.075
2021-08-19 04:47:44.672,-0.03,-0.06
2021-08-19 04:47:44.676,-0.01,-0.035
2021-08-19 04:47:44.680,-0.03,0.0
2021-08-19 04:47:44.684,-0.045,0.0
2021-08-19 04:47:44.688,0.0,0.035
2021-08-19 04:47:44.692,0.05,0.03
2021-08-19 04:47:44.696,0.05,0.04
2021-08-19 04:47:44.700,0.125,0.025
2021-08-19 04:47:44.704,0.18,0.07
2021-08-19 04:47:44.708,0.22,0.125
2021-08-19 04:47:44.712,0.265,0.165
2021-08-19 04:47:44.716,0.275,0.24
2021-08-19 04:47:44.720,0.29,0.27
2021-08-19 04:47:44.724,0.34,0.29
2021-08-19 04:47:44.728,0.41,0.315
2021-08-19 04:47:44.732,0.45,0.325
2021-08-19 04:47:44.736,0.45,0.355
2021-08-19 04:47:44.740,0.44,0.39
2021-08-19 04:47:44.744,0.425,0.385
2021-08-19 04:47:44.748,0.44,0.39
2021-08-19 04:47:44.752,0.475,0.42
2021-08-19 04:47:44.756,0.53,0.425
2021-08-19 04:47:44.760,0.555,0.495
2021-08-19 04:47:44.764,0.585,0.515
2021-08-19 04:47:44.768,0.595,0.56
2021-08-19 04:47:44.772,0.625,0.56
2021-08-19 04:47:44.776,0.615,0.575
2021-08-19 04:47:44.780,0.61,0.61
2021-08-19 04:47:44.784,0.575,0.625
2021-08-19 04:47:44.788,0.51,0.665
2021-08-19 04:47:44.792,0.505,0.675
2021-08-19 04:47:44.796,0.48,0.655
2021-08-19 04:47:44.800,0.435,0.655
2021-08-19 04:47:44.804,0.38,0.695
2021-08-19 04:47:44.808,0.34,0.66
2021-08-19 04:47:44.812,0.295,0.61
2021-08-19 04:47:44.816,0.26,0.555
2021-08-19 04:47:44.820,0.2,0.55
2021-08-19 04:47:44.824,0.135,0.545
2021-08-19 04:47:44.828,0.06,0.48
2021-08-19 04:47:44.832,0.035,0.46
2021-08-19 04:47:44.836,-0.01,0.42
2021-08-19 04:47:44.840,-0.05,0.37
2021-08-19 04:47:44.844,-0.125,0.32
2021-08-19 04:47:44.848,-0.165,0.295
2021-08-19 04:47:44.852,-0.185,0.245
2021-08-19 04:47:44.856,-0.2,0.225
2021-08-19 04:47:44.860,-0.21,0.14
2021-08-19 04:47:44.864,-0.25,0.135
2021-08-19 04:47:44.868,-0.285,0.115
2021-08-19 04:47:44.872,-0.27,0.095
2021-08-19 04:47:44.876,-0.285,0.06
2021-08-19 04:47:44.880,-0.29,0.03
2021-08-19 04:47:44.884,-0.295,0.01
2021-08-19 04:47:44.888,-0.275,-0.01
2021-08-19 04:47:44.892,-0.27,-0.02
2021-08-19 04:47:44.896,-0.3,-0.02
2021-08-19 04:47:44.900,-0.29,-0.035
2021-08-19 04:47:44.904,-0.275,-0.055
2021-08-19 04:47:44.908,-0.23,-0.09
2021-08-19 04:47:44.912,-0.21,-0.19
2021-08-19 04:47:44.916,-0.255,-0.28
2021-08-19 04:47:44.920,-0.405,-0.365
2021-08-19 04:47:44.924,-0.685,-0.535
2021-08-19 04:47:44.928,-1.13,-0.515
2021-08-19 04:47:44.932,-1.77,-0.57
2021-08-19 04:47:45.004,-1.145,-1.56
2021-08-19 04:47:45.008,-0.645,-1.05
2021-08-19 04:47:45.012,-0.33,-0.64
2021-08-19 04:47:45.016,-0.1,-0.315
2021-08-19 04:47:45.020,-0.02,-0.06
2021-08-19 04:47:45.024,0.065,0.11
2021-08-19 04:47:45.028,0.07,0.12
2021-08-19 04:47:45.032,0.085,0.15
2021-08-19 04:47:45.036,0.095,0.155
2021-08-19 04:47:45.040,0.15,0.17
2021-08-19 04:47:45.044,0.17,0.16
2021-08-19 04:47:45.048,0.23,0.17
2021-08-19 04:47:45.052,0.22,0.21
2021-08-19 04:47:45.056,0.255,0.19
2021-08-19 04:47:45.060,0.255,0.22
2021-08-19 04:47:45.064,0.265,0.225
2021-08-19 04:47:45.068,0.24,0.245
2021-08-19 04:47:45.072,0.25,0.26
2021-08-19 04:47:45.076,0.23,0.25
2021-08-19 04:47:45.080,0.265,0.265
2021-08-19 04:47:45.084,0.315,0.265
2021-08-19 04:47:45.088,0.32,0.3
2021-08-19 04:47:45.092,0.35,0.31
2021-08-19 04:47:45.096,0.38,0.33
2021-08-19 04:47:45.100,0.395,0.43
2021-08-19 04:47:45.104,0.445,0.45
2021-08-19 04:47:45.108,0.47,0.47
2021-08-19 04:47:45.112,0.51,0.495
2021-08-19 04:47:45.116,0.555,0.57
2021-08-19 04:47:45.120,0.58,0.58
2021-08-19 04:47:45.124,0.69,0.615
2021-08-19 04:47:45.128,0.725,0.685
2021-08-19 04:47:45.132,0.79,0.76
2021-08-19 04:47:45.136,0.835,0.85
2021-08-19 04:47:45.140,0.91,0.905
2021-08-19 04:47:45.144,0.91,0.965
2021-08-19 04:47:45.148,0.965,0.99
2021-08-19 04:47:45.152,1.04,0.995
2021-08-19 04:47:45.156,1.04,1.025
2021-08-19 04:47:45.160,1.03,1.085
2021-08-19 04:47:45.164,1.04,1.13
2021-08-19 04:47:45.168,1.055,1.15
2021-08-19 04:47:45.172,1.09,1.2
2021-08-19 04:47:45.176,1.11,1.2
2021-08-19 04:47:45.180,1.16,1.27
2021-08-19 04:47:45.184,1.185,1.295
2021-08-19 04:47:45.188,1.21,1.355
2021-08-19 04:47:45.192,1.185,1.335
2021-08-19 04:47:45.196,1.195,1.365
2021-08-19 04:47:45.200,1.14,1.425
2021-08-19 04:47:45.204,1.115,1.415
2021-08-19 04:47:45.208,1.075,1.385
2021-08-19 04:47:45.212,1.035,1.41
2021-08-19 04:47:45.216,0.975,1.395
2021-08-19 04:47:45.220,0.915,1.345
2021-08-19 04:47:45.224,0.88,1.38
2021-08-19 04:47:45.228,0.815,1.29
2021-08-19 04:47:45.232,0.785,1.255
2021-08-19 04:47:45.236,0.705,1.245
2021-08-19 04:47:45.240,0.64,1.17
2021-08-19 04:47:45.244,0.555,1.13
2021-08-19 04:47:45.248,0.475,1.085
2021-08-19 04:47:45.252,0.445,1.04
2021-08-19 04:47:45.256,0.375,0.965
2021-08-19 04:47:45.260,0.34,0.935
2021-08-19 04:47:45.264,0.255,0.85
2021-08-19 04:47:45.268,0.195,0.78
2021-08-19 04:47:45.272,0.175,0.73
2021-08-19 04:47:45.276,0.115,0.665
2021-08-19 04:47:45.280,0.07,0.62
2021-08-19 04:47:45.284,0.035,0.575
2021-08-19 04:47:45.288,0.0,0.505
2021-08-19 04:47:45.292,-0.045,0.44
2021-08-19 04:47:45.296,-0.035,0.4
2021-08-19 04:47:45.300,-0.095,0.365
2021-08-19 04:47:45.304,-0.1,0.34
2021-08-19 04:47:45.308,-0.155,0.28
2021-08-19 04:47:45.312,-0.15,0.245
2021-08-19 04:47:45.316,-0.16,0.26
2021-08-19 04:47:45.320,-0.145,0.2
2021-08-19 04:47:45.324,-0.185,0.185
2021-08-19 04:47:45.328,-0.185,0.14
2021-08-19 04:47:45.332,-0.125,0.11
2021-08-19 04:47:45.336,-0.11,0.02
2021-08-19 04:47:45.340,-0.175,-0.065
2021-08-19 04:47:45.344,-0.355,-0.205
2021-08-19 04:47:45.348,-0.645,-0.37
2021-08-19 04:47:45.352,-1.09,-0.425
2021-08-19 04:47:45.356,-1.695,-0.475
2021-08-19 04:47:45.424,-1.535,-1.545
2021-08-19 04:47:45.428,-1.06,-1.075
2021-08-19 04:47:45.432,-0.64,-0.745
2021-08-19 04:47:45.436,-0.365,-0.385
2021-08-19 04:47:45.440,-0.19,-0.095
2021-08-19 04:47:45.444,-0.11,0.08
2021-08-19 04:47:45.448,-0.065,0.175
2021-08-19 04:47:45.452,-0.005,0.195
2021-08-19 04:47:45.456,0.02,0.2
2021-08-19 04:47:45.460,0.035,0.2
2021-08-19 04:47:45.464,0.065,0.225
2021-08-19 04:47:45.468,0.05,0.22
2021-08-19 04:47:45.472,0.09,0.245
2021-08-19 04:47:45.476,0.1,0.24
2021-08-19 04:47:45.480,0.12,0.255
2021-08-19 04:47:45.484,0.12,0.245
2021-08-19 04:47:45.488,0.13,0.31
2021-08-19 04:47:45.492,0.12,0.265
2021-08-19 04:47:45.496,0.145,0.265
2021-08-19 04:47:45.500,0.145,0.31
2021-08-19 04:47:45.504,0.135,0.29
2021-08-19 04:47:45.508,0.13,0.265
2021-08-19 04:47:45.512,0.145,0.32
2021-08-19 04:47:45.516,0.19,0.31
2021-08-19 04:47:45.520,0.22,0.365
2021-08-19 04:47:45.524,0.23,0.375
2021-08-19 04:47:45.528,0.25,0.41
2021-08-19 04:47:45.532,0.24,0.46
2021-08-19 04:47:45.536,0.285,0.485
2021-08-19 04:47:45.540,0.3,0.525
2021-08-19 04:47:45.544,0.365,0.52
2021-08-19 04:47:45.548,0.44,0.545
2021-08-19 04:47:45.552,0.47,0.6
2021-08-19 04:47:45.556,0.545,0.715
2021-08-19 04:47:45.560,0.58,0.745
2021-08-19 04:47:45.564,0.6,0.815
2021-08-19 04:47:45.568,0.67,0.835
2021-08-19 04:47:45.572,0.69,0.85
2021-08-19 04:47:45.576,0.73,0.88
2021-08-19 04:47:45.580,0.765,0.905
2021-08-19 04:47:45.584,0.775,0.95
2021-08-19 04:47:45.588,0.8,0.98
2021-08-19 04:47:45.592,0.77,0.97
2021-08-19 04:47:45.596,0.795,1.02
2021-08-19 04:47:45.600,0.865,0.995
2021-08-19 04:47:45.604,0.885,1.075
2021-08-19 04:47:45.608,0.905,1.08
2021-08-19 04:47:45.612,0.925,1.175
2021-08-19 04:47:45.616,0.88,1.175
2021-08-19 04:47:45.620,0.88,1.185
2021-08-19 04:47:45.624,0.895,1.205
2021-08-19 04:47:45.628,0.835,1.22
2021-08-19 04:47:45.632,0.805,1.2
2021-08-19 04:47:45.636,0.755,1.19
2021-08-19 04:47:45.640,0.69,1.2
2021-08-19 04:47:45.644,0.645,1.185
2021-08-19 04:47:45.648,0.615,1.095
2021-08-19 04:47:45.652,0.54,1.04
2021-08-19 04:47:45.656,0.48,1.065
2021-08-19 04:47:45.660,0.41,1.01
2021-08-19 04:47:45.664,0.355,0.945
2021-08-19 04:47:45.668,0.295,0.91
2021-08-19 04:47:45.672,0.23,0.845
2021-08-19 04:47:45.676,0.165,0.815
2021-08-19 04:47:45.680,0.11,0.755
2021-08-19 04:47:45.684,0.06,0.68
2021-08-19 04:47:45.688,0.02,0.68
2021-08-19 04:47:45.692,-0.02,0.6
2021-08-19 04:47:45.696,-0.075,0.565
2021-08-19 04:47:45.700,-0.115,0.515
2021-08-19 04:47:45.704,-0.11,0.5
2021-08-19 04:47:45.708,-0.14,0.455
2021-08-19 04:47:45.712,-0.155,0.405
2021-08-19 04:47:45.716,-0.205,0.41
2021-08-19 04:47:45.720,-0.23,0.355
2021-08-19 04:47:45.724,-0.22,0.295
2021-08-19 04:47:45.728,-0.24,0.225
2021-08-19 04:47:45.732,-0.25,0.255
2021-08-19 04:47:45.736,-0.285,0.245
2021-08-19 04:47:45.740,-0.3,0.23
2021-08-19 04:47:45.744,-0.3,0.18
2021-08-19 04:47:45.748,-0.295,0.18
2021-08-19 04:47:45.752,-0.335,0.17
2021-08-19 04:47:45.756,-0.31,0.13
2021-08-19 04:47:45.760,-0.355,0.07
2021-08-19 04:47:45.764,-0.49,-0.09
2021-08-19 04:47:45.768,-0.595,-0.275
2021-08-19 04:47:45.772,-0.825,-0.5
2021-08-19 04:47:45.776,-1.235,-0.52
2021-08-19 04:47:45.780,-1.78,-0.545
2021-08-19 04:47:45.840,-1.88,-1.32
2021-08-19 04:47:45.844,-1.49,-0.95
2021-08-19 04:47:45.848,-1.005,-0.66
2021-08-19 04:47:45.852,-0.665,-0.435
2021-08-19 04:47:45.856,-0.455,-0.165
2021-08-19 04:47:45.860,-0.335,0.055
2021-08-19 04:47:45.864,-0.26,0.155
2021-08-19 04:47:45.868,-0.215,0.2
2021-08-19 04:47:45.872,-0.185,0.205
2021-08-19 04:47:45.876,-0.115,0.2
2021-08-19 04:47:45.880,-0.11,0.19
2021-08-19 04:47:45.884,-0.13,0.195
2021-08-19 04:47:45.888,-0.12,0.21
2021-08-19 04:47:45.892,-0.09,0.18
2021-08-19 04:47:45.896,-0.035,0.18
2021-08-19 04:47:45.900,-0.015,0.165
2021-08-19 04:47:45.904,-0.04,0.19
2021-08-19 04:47:45.908,-0.035,0.19
2021-08-19 04:47:45.912,-0.035,0.215
2021-08-19 04:47:45.916,-0.045,0.235
2021-08-19 04:47:45.920,-0.085,0.235
2021-08-19 04:47:45.924,-0.095,0.235
2021-08-19 04:47:45.928,-0.075,0.215
2021-08-19 04:47:45.932,-0.08,0.195
2021-08-19 04:47:45.936,-0.08,0.2
2021-08-19 04:47:45.940,-0.04,0.22
2021-08-19 04:47:45.944,-0.055,0.24
2021-08-19 04:47:45.948,-0.03,0.255
2021-08-19 04:47:45.952,-0.02,0.24
2021-08-19 04:47:45.956,-0.01,0.305
2021-08-19 04:47:45.960,0.01,0.32
2021-08-19 04:47:45.964,0.035,0.345
2021-08-19 04:47:45.968,0.04,0.345
2021-08-19 04:47:45.972,0.12,0.34
2021-08-19 04:47:45.976,0.185,0.39
2021-08-19 04:47:45.980,0.23,0.465
2021-08-19 04:47:45.984,0.3,0.495
2021-08-19 04:47:45.988,0.335,0.54
2021-08-19 04:47:45.992,0.385,0.61
2021-08-19 04:47:45.996,0.41,0.65
2021-08-19 04:47:46.000,0.45,0.655
2021-08-19 04:47:46.004,0.475,0.69
2021-08-19 04:47:46.008,0.505,0.695
2021-08-19 04:47:46.012,0.485,0.745
2021-08-19 04:47:46.016,0.52,0.725
2021-08-19 04:47:46.020,0.51,0.745
2021-08-19 04:47:46.024,0.55,0.725
2021-08-19 04:47:46.028,0.58,0.775
2021-08-19 04:47:46.032,0.61,0.82
2021-08-19 04:47:46.036,0.65,0.885
2021-08-19 04:47:46.040,0.67,0.92
2021-08-19 04:47:46.044,0.655,0.915
2021-08-19 04:47:46.048,0.64,0.97
2021-08-19 04:47:46.052,0.6,0.98
2021-08-19 04:47:46.056,0.6,1.03
2021-08-19 04:47:46.060,0.565,1.025
2021-08-19 04:47:46.064,0.535,0.98
2021-08-19 04:47:46.068,0.49,0.97
2021-08-19 04:47:46.072,0.43,0.945
2021-08-19 04:47:46.076,0.365,0.895
2021-08-19 04:47:46.080,0.325,0.905
2021-08-19 04:47:46.084,0.25,0.93
2021-08-19 04:47:46.088,0.195,0.88
2021-08-19 04:47:46.092,0.145,0.805
2021-08-19 04:47:46.096,0.085,0.78
2021-08-19 04:47:46.100,0.045,0.73
2021-08-19 04:47:46.104,-0.035,0.715
2021-08-19 04:47:46.108,-0.075,0.635
2021-08-19 04:47:46.112,-0.135,0.615
2021-08-19 04:47:46.116,-0.185,0.595
2021-08-19 04:47:46.120,-0.195,0.52
2021-08-19 04:47:46.124,-0.215,0.47
2021-08-19 04:47:46.128,-0.275,0.44
2021-08-19 04:47:46.132,-0.305,0.435
2021-08-19 04:47:46.136,-0.285,0.365
2021-08-19 04:47:46.140,-0.28,0.345
2021-08-19 04:47:46.144,-0.315,0.325
2021-08-19 04:47:46.148,-0.33,0.3
2021-08-19 04:47:46.152,-0.355,0.28
2021-08-19 04:47:46.156,-0.35,0.255
2021-08-19 04:47:46.160,-0.34,0.255
2021-08-19 04:47:46.164,-0.34,0.22
2021-08-19 04:47:46.168,-0.385,0.17
2021-08-19 04:47:46.172,-0.395,0.15
2021-08-19 04:47:46.176,-0.45,0.135
2021-08-19 04:47:46.180,-0.45,0.075
2021-08-19 04:47:46.184,-0.52,-0.04
2021-08-19 04:47:46.188,-0.695,-0.195
2021-08-19 04:47:46.192,-0.81,-0.45
2021-08-19 04:47:46.196,-1.075,-0.65
2021-08-19 04:47:46.200,-1.57,-0.665
2021-08-19 04:47:46.264,-1.71,-1.04
2021-08-19 04:47:46.268,-1.22,-0.77
2021-08-19 04:47:46.272,-0.85,-0.54
2021-08-19 04:47:46.276,-0.59,-0.305
2021-08-19 04:47:46.280,-0.41,-0.05
2021-08-19 04:47:46.284,-0.305,0.095
2021-08-19 04:47:46.288,-0.21,0.12
2021-08-19 04:47:46.292,-0.165,0.13
2021-08-19 04:47:46.296,-0.16,0.125
2021-08-19 04:47:46.300,-0.115,0.135
2021-08-19 04:47:46.304,-0.12,0.135
2021-08-19 04:47:46.308,-0.075,0.145
2021-08-19 04:47:46.312,-0.055,0.135
2021-08-19 04:47:46.316,-0.06,0.135
2021-08-19 04:47:46.320,-0.055,0.155
2021-08-19 04:47:46.324,-0.025,0.15
2021-08-19 04:47:46.328,-0.005,0.165
2021-08-19 04:47:46.332,-0.005,0.135
2021-08-19 04:47:46.336,0.005,0.145
2021-08-19 04:47:46.340,-0.02,0.135
2021-08-19 04:47:46.344,-0.015,0.125
2021-08-19 04:47:46.348,-0.015,0.155
2021-08-19 04:47:46.352,-0.015,0.16
2021-08-19 04:47:46.356,0.005,0.11
2021-08-19 04:47:46.360,-0.005,0.12
2021-08-19 04:47:46.364,0.025,0.135
2021-08-19 04:47:46.368,0.07,0.175
2021-08-19 04:47:46.372,0.08,0.19
2021-08-19 04:47:46.376,0.065,0.19
2021-08-19 04:47:46.380,0.085,0.255
2021-08-19 04:47:46.384,0.105,0.25
2021-08-19 04:47:46.388,0.14,0.26
2021-08-19 04:47:46.392,0.19,0.275
2021-08-19 04:47:46.396,0.255,0.3
2021-08-19 04:47:46.400,0.325,0.355
2021-08-19 04:47:46.404,0.36,0.4
2021-08-19 04:47:46.408,0.385,0.475
2021-08-19 04:47:46.412,0.425,0.52
2021-08-19 04:47:46.416,0.475,0.535
2021-08-19 04:47:46.420,0.51,0.55
2021-08-19 04:47:46.424,0.565,0.525
2021-08-19 04:47:46.428,0.59,0.59
2021-08-19 04:47:46.432,0.61,0.635
2021-08-19 04:47:46.436,0.63,0.685
2021-08-19 04:47:46.440,0.625,0.685
2021-08-19 04:47:46.444,0.625,0.71
2021-08-19 04:47:46.448,0.67,0.745
2021-08-19 04:47:46.452,0.725,0.74
2021-08-19 04:47:46.456,0.76,0.835
2021-08-19 04:47:46.460,0.78,0.86
2021-08-19 04:47:46.464,0.79,0.92
2021-08-19 04:47:46.468,0.775,0.935
2021-08-19 04:47:46.472,0.765,0.945
2021-08-19 04:47:46.476,0.75,0.965
2021-08-19 04:47:46.480,0.715,0.97
2021-08-19 04:47:46.484,0.655,0.96
2021-08-19 04:47:46.488,0.63,0.965
2021-08-19 04:47:46.492,0.595,0.945
2021-08-19 04:47:46.496,0.565,0.925
2021-08-19 04:47:46.500,0.48,0.92
2021-08-19 04:47:46.504,0.395,0.915
2021-08-19 04:47:46.508,0.365,0.895
2021-08-19 04:47:46.512,0.33,0.88
2021-08-19 04:47:46.516,0.255,0.835
2021-08-19 04:47:46.520,0.18,0.82
2021-08-19 04:47:46.524,0.11,0.775
2021-08-19 04:47:46.528,0.05,0.715
2021-08-19 04:47:46.532,0.035,0.695
2021-08-19 04:47:46.536,-0.01,0.635
2021-08-19 04:47:46.540,-0.1,0.625
2021-08-19 04:47:46.544,-0.105,0.57
2021-08-19 04:47:46.548,-0.14,0.535
2021-08-19 04:47:46.552,-0.18,0.505
2021-08-19 04:47:46.556,-0.175,0.43
2021-08-19 04:47:46.560,-0.2,0.425
2021-08-19 04:47:46.564,-0.21,0.395
2021-08-19 04:47:46.568,-0.225,0.365
2021-08-19 04:47:46.572,-0.245,0.365
2021-08-19 04:47:46.576,-0.275,0.365
2021-08-19 04:47:46.580,-0.245,0.31
2021-08-19 04:47:46.584,-0.29,0.285
2021-08-19 04:47:46.588,-0.335,0.24
2021-08-19 04:47:46.592,-0.295,0.255
2021-08-19 04:47:46.596,-0.29,0.265
2021-08-19 04:47:46.600,-0.26,0.225
2021-08-19 04:47:46.604,-0.255,0.155
2021-08-19 04:47:46.608,-0.225,0.095
2021-08-19 04:47:46.612,-0.33,-0.035
2021-08-19 04:47:46.616,-0.505,-0.175
2021-08-19 04:47:46.620,-0.82,-0.335
2021-08-19 04:47:46.624,-1.34,-0.36
2021-08-19 04:47:46.628,-1.99,-0.425
2021-08-19 04:47:46.696,-1.53,-1.435
2021-08-19 04:47:46.700,-1.025,-0.965
2021-08-19 04:47:46.704,-0.63,-0.615
2021-08-19 04:47:46.708,-0.285,-0.285
2021-08-19 04:47:46.712,-0.08,-0.005
2021-08-19 04:47:46.716,0.025,0.185
2021-08-19 04:47:46.720,0.075,0.345
2021-08-19 04:47:46.724,0.12,0.355
2021-08-19 04:47:46.728,0.165,0.365
2021-08-19 04:47:46.732,0.16,0.4
2021-08-19 04:47:46.736,0.2,0.43
2021-08-19 04:47:46.740,0.215,0.4
2021-08-19 04:47:46.744,0.275,0.415
2021-08-19 04:47:46.748,0.29,0.415
2021-08-19 04:47:46.752,0.305,0.44
2021-08-19 04:47:46.756,0.315,0.48
2021-08-19 04:47:46.760,0.335,0.475
2021-08-19 04:47:46.764,0.34,0.485
2021-08-19 04:47:46.768,0.32,0.515
2021-08-19 04:47:46.772,0.34,0.475
2021-08-19 04:47:46.776,0.335,0.495
2021-08-19 04:47:46.780,0.395,0.475
2021-08-19 04:47:46.784,0.415,0.52
2021-08-19 04:47:46.788,0.455,0.55
2021-08-19 04:47:46.792,0.47,0.575
2021-08-19 04:47:46.796,0.5,0.605
2021-08-19 04:47:46.800,0.475,0.645
2021-08-19 04:47:46.804,0.525,0.705
2021-08-19 04:47:46.808,0.57,0.725
2021-08-19 04:47:46.812,0.59,0.7
2021-08-19 04:47:46.816,0.655,0.715
2021-08-19 04:47:46.820,0.745,0.82
2021-08-19 04:47:46.824,0.805,0.855
2021-08-19 04:47:46.828,0.835,0.91
2021-08-19 04:47:46.832,0.89,0.99
2021-08-19 04:47:46.836,0.92,1.07
2021-08-19 04:47:46.840,0.94,1.11
2021-08-19 04:47:46.844,1.035,1.115
2021-08-19 04:47:46.848,1.08,1.145
2021-08-19 04:47:46.852,1.095,1.17
2021-08-19 04:47:46.856,1.115,1.26
2021-08-19 04:47:46.860,1.12,1.285
2021-08-19 04:47:46.864,1.135,1.3
2021-08-19 04:47:46.868,1.155,1.285
2021-08-19 04:47:46.872,1.185,1.34
2021-08-19 04:47:46.876,1.22,1.375
2021-08-19 04:47:46.880,1.23,1.43
2021-08-19 04:47:46.884,1.24,1.52
2021-08-19 04:47:46.888,1.21,1.53
2021-08-19 04:47:46.892,1.21,1.525
2021-08-19 04:47:46.896,1.175,1.535
2021-08-19 04:47:46.900,1.11,1.535
2021-08-19 04:47:46.904,1.11,1.575
2021-08-19 04:47:46.908,1.07,1.555
2021-08-19 04:47:46.912,0.985,1.545
2021-08-19 04:47:46.916,0.935,1.52
2021-08-19 04:47:46.920,0.87,1.55
2021-08-19 04:47:46.924,0.805,1.46
2021-08-19 04:47:46.928,0.78,1.46
2021-08-19 04:47:46.932,0.675,1.405
2021-08-19 04:47:46.936,0.63,1.375
2021-08-19 04:47:46.940,0.55,1.315
2021-08-19 04:47:46.944,0.485,1.285
2021-08-19 04:47:46.948,0.425,1.24
2021-08-19 04:47:46.952,0.385,1.17
2021-08-19 04:47:46.956,0.335,1.14
2021-08-19 04:47:46.960,0.235,1.075
2021-08-19 04:47:46.964,0.185,1.015
2021-08-19 04:47:46.968,0.165,0.94
2021-08-19 04:47:46.972,0.12,0.88
2021-08-19 04:47:46.976,0.05,0.795
2021-08-19 04:47:46.980,0.0,0.745
2021-08-19 04:47:46.984,-0.04,0.72
2021-08-19 04:47:46.988,-0.05,0.65
2021-08-19 04:47:46.992,-0.07,0.61
2021-08-19 04:47:46.996,-0.135,0.55
2021-08-19 04:47:47.000,-0.16,0.52
2021-08-19 04:47:47.004,-0.14,0.485
2021-08-19 04:47:47.008,-0.17,0.455
2021-08-19 04:47:47.012,-0.205,0.385
2021-08-19 04:47:47.016,-0.22,0.37
2021-08-19 04:47:47.020,-0.3,0.36
2021-08-19 04:47:47.024,-0.35,0.31
2021-08-19 04:47:47.028,-0.365,0.23
2021-08-19 04:47:47.032,-0.475,0.14
2021-08-19 04:47:47.036,-0.57,-0.01
2021-08-19 04:47:47.040,-0.605,-0.345
2021-08-19 04:47:47.044,-0.75,-0.62
2021-08-19 04:47:47.048,-1.105,-0.72
2021-08-19 04:47:47.052,-1.44,-0.715
2021-08-19 04:47:47.056,-1.625,-0.8
2021-08-19 04:47:47.060,-1.93,-0.63
2021-08-19 04:47:47.108,-1.95,-1.22
2021-08-19 04:47:47.112,-1.575,-0.82
2021-08-19 04:47:47.116,-1.165,-0.625
2021-08-19 04:47:47.120,-0.855,-0.41
2021-08-19 04:47:47.124,-0.6,-0.235
2021-08-19 04:47:47.128,-0.44,-0.04
2021-08-19 04:47:47.132,-0.345,0.1
2021-08-19 04:47:47.136,-0.26,0.13
2021-08-19 04:47:47.140,-0.23,0.09
2021-08-19 04:47:47.144,-0.22,0.125
2021-08-19 04:47:47.148,-0.215,0.145
2021-08-19 04:47:47.152,-0.175,0.145
2021-08-19 04:47:47.156,-0.155,0.12
2021-08-19 04:47:47.160,-0.16,0.105
2021-08-19 04:47:47.164,-0.13,0.12
2021-08-19 04:47:47.168,-0.11,0.11
2021-08-19 04:47:47.172,-0.12,0.13
2021-08-19 04:47:47.176,-0.1,0.125
2021-08-19 04:47:47.180,-0.105,0.145
2021-08-19 04:47:47.184,-0.095,0.13
2021-08-19 04:47:47.188,-0.105,0.15
2021-08-19 04:47:47.192,-0.13,0.12
2021-08-19 04:47:47.196,-0.15,0.11
2021-08-19 04:47:47.200,-0.15,0.09
2021-08-19 04:47:47.204,-0.135,0.095
2021-08-19 04:47:47.208,-0.155,0.08
2021-08-19 04:47:47.212,-0.15,0.105
2021-08-19 04:47:47.216,-0.105,0.11
2021-08-19 04:47:47.220,-0.085,0.115
2021-08-19 04:47:47.224,-0.095,0.13
2021-08-19 04:47:47.228,-0.085,0.16
2021-08-19 04:47:47.232,-0.075,0.13
2021-08-19 04:47:47.236,-0.05,0.16
2021-08-19 04:47:47.240,-0.015,0.15
2021-08-19 04:47:47.244,0.03,0.165
2021-08-19 04:47:47.248,0.085,0.2
2021-08-19 04:47:47.252,0.15,0.2
2021-08-19 04:47:47.256,0.145,0.245
2021-08-19 04:47:47.260,0.185,0.3
2021-08-19 04:47:47.264,0.23,0.335
2021-08-19 04:47:47.268,0.26,0.31
2021-08-19 04:47:47.272,0.305,0.325
2021-08-19 04:47:47.276,0.355,0.34
2021-08-19 04:47:47.280,0.415,0.395
2021-08-19 04:47:47.284,0.41,0.44
2021-08-19 04:47:47.288,0.4,0.435
2021-08-19 04:47:47.292,0.395,0.45
2021-08-19 04:47:47.296,0.45,0.47
2021-08-19 04:47:47.300,0.52,0.515
2021-08-19 04:47:47.304,0.52,0.57
2021-08-19 04:47:47.308,0.555,0.62
2021-08-19 04:47:47.312,0.575,0.645
2021-08-19 04:47:47.316,0.59,0.635
2021-08-19 04:47:47.320,0.59,0.68
2021-08-19 04:47:47.324,0.535,0.71
2021-08-19 04:47:47.328,0.495,0.755
2021-08-19 04:47:47.332,0.475,0.76
2021-08-19 04:47:47.336,0.47,0.725
2021-08-19 04:47:47.340,0.425,0.71
2021-08-19 04:47:47.344,0.385,0.725
2021-08-19 04:47:47.348,0.34,0.71
2021-08-19 04:47:47.352,0.265,0.71
2021-08-19 04:47:47.356,0.21,0.675
2021-08-19 04:47:47.360,0.17,0.675
2021-08-19 04:47:47.364,0.13,0.65
2021-08-19 04:47:47.368,0.06,0.66
2021-08-19 04:47:47.372,-0.005,0.65
2021-08-19 04:47:47.376,-0.055,0.6
2021-08-19 04:47:47.380,-0.095,0.565
2021-08-19 04:47:47.384,-0.135,0.535
2021-08-19 04:47:47.388,-0.17,0.51
2021-08-19 04:47:47.392,-0.22,0.48
2021-08-19 04:47:47.396,-0.26,0.405
2021-08-19 04:47:47.400,-0.295,0.4
2021-08-19 04:47:47.404,-0.29,0.35
2021-08-19 04:47:47.408,-0.32,0.335
2021-08-19 04:47:47.412,-0.355,0.31
2021-08-19 04:47:47.416,-0.36,0.265
2021-08-19 04:47:47.420,-0.37,0.26
2021-08-19 04:47:47.424,-0.37,0.265
2021-08-19 04:47:47.428,-0.385,0.205
2021-08-19 04:47:47.432,-0.41,0.185
2021-08-19 04:47:47.436,-0.415,0.175
2021-08-19 04:47:47.440,-0.41,0.17
2021-08-19 04:47:47.444,-0.405,0.165
2021-08-19 04:47:47.448,-0.405,0.12
2021-08-19 04:47:47.452,-0.395,0.115
2021-08-19 04:47:47.456,-0.39,0.005
2021-08-19 04:47:47.460,-0.385,-0.085
2021-08-19 04:47:47.464,-0.47,-0.205
2021-08-19 04:47:47.468,-0.61,-0.345
2021-08-19 04:47:47.472,-0.925,-0.395
2021-08-19 04:47:47.476,-1.505,-0.38
2021-08-19 04:47:47.548,-1.44,-1.56
2021-08-19 04:47:47.552,-0.945,-1.02
2021-08-19 04:47:47.556,-0.575,-0.585
2021-08-19 04:47:47.560,-0.275,-0.235
2021-08-19 04:47:47.564,-0.16,0.005
2021-08-19 04:47:47.568,-0.095,0.24
2021-08-19 04:47:47.572,-0.05,0.29
2021-08-19 04:47:47.576,-0.03,0.275
2021-08-19 04:47:47.580,-0.01,0.315
2021-08-19 04:47:47.584,0.01,0.315
2021-08-19 04:47:47.588,0.085,0.345
2021-08-19 04:47:47.592,0.11,0.335
2021-08-19 04:47:47.596,0.12,0.345
2021-08-19 04:47:47.600,0.125,0.34
2021-08-19 04:47:47.604,0.155,0.325
2021-08-19 04:47:47.608,0.185,0.375
2021-08-19 04:47:47.612,0.19,0.36
2021-08-19 04:47:47.616,0.145,0.41
2021-08-19 04:47:47.620,0.145,0.43
2021-08-19 04:47:47.624,0.18,0.405
2021-08-19 04:47:47.628,0.215,0.425
2021-08-19 04:47:47.632,0.23,0.425
2021-08-19 04:47:47.636,0.245,0.46
2021-08-19 04:47:47.640,0.3,0.5
2021-08-19 04:47:47.644,0.33,0.535
2021-08-19 04:47:47.648,0.34,0.59
2021-08-19 04:47:47.652,0.415,0.62
2021-08-19 04:47:47.656,0.42,0.64
2021-08-19 04:47:47.660,0.43,0.66
2021-08-19 04:47:47.664,0.5,0.68
2021-08-19 04:47:47.668,0.575,0.725
2021-08-19 04:47:47.672,0.66,0.76
2021-08-19 04:47:47.676,0.725,0.835
2021-08-19 04:47:47.680,0.77,0.915
2021-08-19 04:47:47.684,0.78,0.975
2021-08-19 04:47:47.688,0.86,1.04
2021-08-19 04:47:47.692,0.905,1.075
2021-08-19 04:47:47.696,0.96,1.095
2021-08-19 04:47:47.700,0.975,1.135
2021-08-19 04:47:47.704,1.0,1.165
2021-08-19 04:47:47.708,1.02,1.235
2021-08-19 04:47:47.712,1.035,1.225
2021-08-19 04:47:47.716,1.035,1.24
2021-08-19 04:47:47.720,1.03,1.29
2021-08-19 04:47:47.724,1.085,1.32
2021-08-19 04:47:47.728,1.11,1.345
2021-08-19 04:47:47.732,1.14,1.365
2021-08-19 04:47:47.736,1.13,1.445
2021-08-19 04:47:47.740,1.08,1.465
2021-08-19 04:47:47.744,1.055,1.43
2021-08-19 04:47:47.748,1.005,1.46
2021-08-19 04:47:47.752,1.0,1.45
2021-08-19 04:47:47.756,0.95,1.38
2021-08-19 04:47:47.760,0.865,1.365
2021-08-19 04:47:47.764,0.79,1.35
2021-08-19 04:47:47.768,0.735,1.32
2021-08-19 04:47:47.772,0.68,1.275
2021-08-19 04:47:47.776,0.635,1.24
2021-08-19 04:47:47.780,0.57,1.19
2021-08-19 04:47:47.784,0.475,1.12
2021-08-19 04:47:47.788,0.415,1.14
2021-08-19 04:47:47.792,0.39,1.05
2021-08-19 04:47:47.796,0.335,1.035
2021-08-19 04:47:47.800,0.27,0.965
2021-08-19 04:47:47.804,0.2,0.915
2021-08-19 04:47:47.808,0.12,0.855
2021-08-19 04:47:47.812,0.07,0.815
2021-08-19 04:47:47.816,-0.005,0.75
2021-08-19 04:47:47.820,-0.01,0.745
2021-08-19 04:47:47.824,-0.045,0.67
2021-08-19 04:47:47.828,-0.115,0.61
2021-08-19 04:47:47.832,-0.155,0.555
2021-08-19 04:47:47.836,-0.155,0.53
2021-08-19 04:47:47.840,-0.175,0.48
2021-08-19 04:47:47.844,-0.215,0.425
2021-08-19 04:47:47.848,-0.26,0.37
2021-08-19 04:47:47.852,-0.28,0.365
2021-08-19 04:47:47.856,-0.295,0.37
2021-08-19 04:47:47.860,-0.33,0.295
2021-08-19 04:47:47.864,-0.345,0.305
2021-08-19 04:47:47.868,-0.36,0.25
2021-08-19 04:47:47.872,-0.375,0.2
2021-08-19 04:47:47.876,-0.395,0.16
2021-08-19 04:47:47.880,-0.39,0.18
2021-08-19 04:47:47.884,-0.405,0.09
2021-08-19 04:47:47.888,-0.5,0.0
2021-08-19 04:47:47.892,-0.635,-0.175
2021-08-19 04:47:47.896,-0.72,-0.415
2021-08-19 04:47:47.900,-0.985,-0.575
2021-08-19 04:47:47.904,-1.495,-0.57
2021-08-19 04:47:47.908,-1.98,-0.61
2021-08-19 04:47:47.968,-1.69,-1.13
2021-08-19 04:47:47.972,-1.25,-0.8
2021-08-19 04:47:47.976,-0.885,-0.585
2021-08-19 04:47:47.980,-0.635,-0.31
2021-08-19 04:47:47.984,-0.49,-0.09
2021-08-19 04:47:47.988,-0.395,0.035
2021-08-19 04:47:47.992,-0.365,0.04
2021-08-19 04:47:47.996,-0.335,0.07
2021-08-19 04:47:48.000,-0.31,0.055
2021-08-19 04:47:48.004,-0.3,0.055
2021-08-19 04:47:48.008,-0.3,0.03
2021-08-19 04:47:48.012,-0.275,0.03
2021-08-19 04:47:48.016,-0.285,0.035
2021-08-19 04:47:48.020,-0.26,0.035
2021-08-19 04:47:48.024,-0.215,0.045
2021-08-19 04:47:48.028,-0.24,0.04
2021-08-19 04:47:48.032,-0.23,0.05
2021-08-19 04:47:48.036,-0.2,0.07
2021-08-19 04:47:48.040,-0.21,0.065
2021-08-19 04:47:48.044,-0.225,0.07
2021-08-19 04:47:48.048,-0.23,0.045
2021-08-19 04:47:48.052,-0.29,0.05
2021-08-19 04:47:48.056,-0.255,0.015
2021-08-19 04:47:48.060,-0.25,0.07
2021-08-19 04:47:48.064,-0.225,0.07
2021-08-19 04:47:48.068,-0.2,0.075
2021-08-19 04:47:48.072,-0.225,0.07
2021-08-19 04:47:48.076,-0.21,0.07
2021-08-19 04:47:48.080,-0.195,0.15
2021-08-19 04:47:48.084,-0.17,0.17
2021-08-19 04:47:48.088,-0.13,0.175
2021-08-19 04:47:48.092,-0.14,0.165
2021-08-19 04:47:48.096,-0.125,0.185
2021-08-19 04:47:48.100,-0.07,0.21
2021-08-19 04:47:48.104,-0.01,0.25
2021-08-19 04:47:48.108,0.055,0.3
2021-08-19 04:47:48.112,0.09,0.335
2021-08-19 04:47:48.116,0.085,0.405
2021-08-19 04:47:48.120,0.145,0.425
2021-08-19 04:47:48.124,0.195,0.405
2021-08-19 04:47:48.128,0.21,0.415
2021-08-19 04:47:48.132,0.265,0.48
2021-08-19 04:47:48.136,0.26,0.505
2021-08-19 04:47:48.140,0.285,0.52
2021-08-19 04:47:48.144,0.275,0.56
2021-08-19 04:47:48.148,0.33,0.555
2021-08-19 04:47:48.152,0.39,0.59
2021-08-19 04:47:48.156,0.42,0.62
2021-08-19 04:47:48.160,0.435,0.635
2021-08-19 04:47:48.164,0.435,0.72
2021-08-19 04:47:48.168,0.47,0.73
2021-08-19 04:47:48.172,0.44,0.7
2021-08-19 04:47:48.176,0.395,0.77
2021-08-19 04:47:48.180,0.37,0.775
2021-08-19 04:47:48.184,0.335,0.76
2021-08-19 04:47:48.188,0.29,0.775
2021-08-19 04:47:48.192,0.265,0.77
2021-08-19 04:47:48.196,0.215,0.74
2021-08-19 04:47:48.200,0.14,0.72
2021-08-19 04:47:48.204,0.115,0.695
2021-08-19 04:47:48.208,0.055,0.67
2021-08-19 04:47:48.212,0.015,0.625
2021-08-19 04:47:48.216,-0.065,0.615
2021-08-19 04:47:48.220,-0.145,0.56
2021-08-19 04:47:48.224,-0.185,0.525
2021-08-19 04:47:48.228,-0.21,0.52
2021-08-19 04:47:48.232,-0.24,0.48
2021-08-19 04:47:48.236,-0.29,0.435
2021-08-19 04:47:48.240,-0.32,0.405
2021-08-19 04:47:48.244,-0.365,0.39
2021-08-19 04:47:48.248,-0.37,0.325
2021-08-19 04:47:48.252,-0.39,0.295
2021-08-19 04:47:48.256,-0.425,0.265
2021-08-19 04:47:48.260,-0.45,0.245
2021-08-19 04:47:48.264,-0.47,0.215
2021-08-19 04:47:48.268,-0.47,0.225
2021-08-19 04:47:48.272,-0.46,0.175
2021-08-19 04:47:48.276,-0.475,0.17
2021-08-19 04:47:48.280,-0.5,0.13
2021-08-19 04:47:48.284,-0.505,0.11
2021-08-19 04:47:48.288,-0.495,0.085
2021-08-19 04:47:48.292,-0.49,0.095
2021-08-19 04:47:48.296,-0.475,0.095
2021-08-19 04:47:48.300,-0.505,0.06
2021-08-19 04:47:48.304,-0.49,0.065
2021-08-19 04:47:48.308,-0.44,0.015
2021-08-19 04:47:48.312,-0.39,-0.03
2021-08-19 04:47:48.316,-0.445,-0.12
2021-08-19 04:47:48.320,-0.54,-0.24
2021-08-19 04:47:48.324,-0.79,-0.37
2021-08-19 04:47:48.328,-1.15,-0.42
2021-08-19 04:47:48.332,-1.705,-0.375
2021-08-19 04:47:48.404,-1.61,-1.69
2021-08-19 04:47:48.408,-1.105,-1.14
2021-08-19 04:47:48.412,-0.66,-0.665
2021-08-19 04:47:48.416,-0.395,-0.325
2021-08-19 04:47:48.420,-0.21,-0.075
2021-08-19 04:47:48.424,-0.125,0.165
2021-08-19 04:47:48.428,-0.11,0.255
2021-08-19 04:47:48.432,-0.06,0.29
2021-08-19 04:47:48.436,-0.015,0.29
2021-08-19 04:47:48.440,0.015,0.31
2021-08-19 04:47:48.444,0.03,0.34
2021-08-19 04:47:48.448,0.065,0.325
2021-08-19 04:47:48.452,0.08,0.33
2021-08-19 04:47:48.456,0.115,0.315
2021-08-19 04:47:48.460,0.15,0.37
2021-08-19 04:47:48.464,0.155,0.375
2021-08-19 04:47:48.468,0.155,0.395
2021-08-19 04:47:48.472,0.135,0.37
2021-08-19 04:47:48.476,0.125,0.395
2021-08-19 04:47:48.480,0.145,0.435
2021-08-19 04:47:48.484,0.185,0.425
2021-08-19 04:47:48.488,0.18,0.46
2021-08-19 04:47:48.492,0.235,0.455
2021-08-19 04:47:48.496,0.245,0.47
2021-08-19 04:47:48.500,0.295,0.52
2021-08-19 04:47:48.504,0.33,0.585
2021-08-19 04:47:48.508,0.34,0.58
2021-08-19 04:47:48.512,0.35,0.68
2021-08-19 04:47:48.516,0.38,0.68
2021-08-19 04:47:48.520,0.425,0.695
2021-08-19 04:47:48.524,0.495,0.73
2021-08-19 04:47:48.528,0.565,0.755
2021-08-19 04:47:48.532,0.605,0.845
2021-08-19 04:47:48.536,0.675,0.91
2021-08-19 04:47:48.540,0.735,0.995
2021-08-19 04:47:48.544,0.8,1.07
2021-08-19 04:47:48.548,0.825,1.105
2021-08-19 04:47:48.552,0.84,1.105
2021-08-19 04:47:48.556,0.905,1.145
2021-08-19 04:47:48.560,0.945,1.205
2021-08-19 04:47:48.564,0.965,1.165
2021-08-19 04:47:48.568,0.955,1.265
2021-08-19 04:47:48.572,0.97,1.295
2021-08-19 04:47:48.576,0.965,1.275
2021-08-19 04:47:48.580,1.01,1.3
2021-08-19 04:47:48.584,1.075,1.36
2021-08-19 04:47:48.588,1.065,1.4
2021-08-19 04:47:48.592,1.065,1.43
2021-08-19 04:47:48.596,1.05,1.48
2021-08-19 04:47:48.600,1.03,1.495
2021-08-19 04:47:48.604,1.02,1.5
2021-08-19 04:47:48.608,0.94,1.445
2021-08-19 04:47:48.612,0.915,1.405
2021-08-19 04:47:48.616,0.86,1.415
2021-08-19 04:47:48.620,0.785,1.385
2021-08-19 04:47:48.624,0.74,1.34
2021-08-19 04:47:48.628,0.705,1.335
2021-08-19 04:47:48.632,0.61,1.28
2021-08-19 04:47:48.636,0.545,1.205
2021-08-19 04:47:48.640,0.475,1.185
2021-08-19 04:47:48.644,0.405,1.15
2021-08-19 04:47:48.648,0.4,1.085
2021-08-19 04:47:48.652,0.34,1.04
2021-08-19 04:47:48.656,0.245,0.98
2021-08-19 04:47:48.660,0.18,0.92
2021-08-19 04:47:48.664,0.135,0.885
2021-08-19 04:47:48.668,0.07,0.85
2021-08-19 04:47:48.672,0.06,0.79
2021-08-19 04:47:48.676,-0.015,0.76
2021-08-19 04:47:48.680,-0.07,0.695
2021-08-19 04:47:48.684,-0.105,0.67
2021-08-19 04:47:48.688,-0.12,0.59
2021-08-19 04:47:48.692,-0.135,0.545
2021-08-19 04:47:48.696,-0.195,0.49
2021-08-19 04:47:48.700,-0.22,0.45
2021-08-19 04:47:48.704,-0.265,0.425
2021-08-19 04:47:48.708,-0.255,0.39
2021-08-19 04:47:48.712,-0.29,0.335
2021-08-19 04:47:48.716,-0.325,0.28
2021-08-19 04:47:48.720,-0.335,0.275
2021-08-19 04:47:48.724,-0.34,0.235
2021-08-19 04:47:48.728,-0.31,0.235
2021-08-19 04:47:48.732,-0.36,0.185
2021-08-19 04:47:48.736,-0.335,0.155
2021-08-19 04:47:48.740,-0.265,0.14
2021-08-19 04:47:48.744,-0.275,0.06
2021-08-19 04:47:48.748,-0.34,-0.05
2021-08-19 04:47:48.752,-0.535,-0.19
2021-08-19 04:47:48.756,-0.82,-0.37
2021-08-19 04:47:48.760,-1.335,-0.335
2021-08-19 04:47:48.764,-1.965,-0.365
2021-08-19 04:47:48.832,-1.685,-1.515
2021-08-19 04:47:48.836,-1.16,-1.01
2021-08-19 04:47:48.840,-0.765,-0.59
2021-08-19 04:47:48.844,-0.5,-0.27
2021-08-19 04:47:48.848,-0.28,-0.03
2021-08-19 04:47:48.852,-0.2,0.13
2021-08-19 04:47:48.856,-0.185,0.205
2021-08-19 04:47:48.860,-0.14,0.24
2021-08-19 04:47:48.864,-0.1,0.205
2021-08-19 04:47:48.868,-0.11,0.22
2021-08-19 04:47:48.872,-0.075,0.245
2021-08-19 04:47:48.876,-0.045,0.255
2021-08-19 04:47:48.880,-0.04,0.27
2021-08-19 04:47:48.884,-0.025,0.26
2021-08-19 04:47:48.888,0.0,0.295
2021-08-19 04:47:48.892,0.015,0.265
2021-08-19 04:47:48.896,0.05,0.33
2021-08-19 04:47:48.900,0.06,0.315
2021-08-19 04:47:48.904,0.065,0.325
2021-08-19 04:47:48.908,0.03,0.34
2021-08-19 04:47:48.912,0.045,0.34
2021-08-19 04:47:48.916,0.055,0.31
2021-08-19 04:47:48.920,0.06,0.335
2021-08-19 04:47:48.924,0.095,0.355
2021-08-19 04:47:48.928,0.12,0.365
2021-08-19 04:47:48.932,0.11,0.415
2021-08-19 04:47:48.936,0.165,0.415
2021-08-19 04:47:48.940,0.19,0.51
2021-08-19 04:47:48.944,0.21,0.51
2021-08-19 04:47:48.948,0.22,0.525
2021-08-19 04:47:48.952,0.255,0.55
2021-08-19 04:47:48.956,0.315,0.555
2021-08-19 04:47:48.960,0.385,0.605
2021-08-19 04:47:48.964,0.455,0.67
2021-08-19 04:47:48.968,0.465,0.74
2021-08-19 04:47:48.972,0.515,0.8
2021-08-19 04:47:48.976,0.565,0.865
2021-08-19 04:47:48.980,0.605,0.86
2021-08-19 04:47:48.984,0.635,0.91
2021-08-19 04:47:48.988,0.705,0.925
2021-08-19 04:47:48.992,0.685,0.93
2021-08-19 04:47:48.996,0.725,0.975
2021-08-19 04:47:49.000,0.725,1.015
2021-08-19 04:47:49.004,0.74,1.04
2021-08-19 04:47:49.008,0.76,1.06
2021-08-19 04:47:49.012,0.8,1.08
2021-08-19 04:47:49.016,0.81,1.12
2021-08-19 04:47:49.020,0.83,1.18
2021-08-19 04:47:49.024,0.825,1.16
2021-08-19 04:47:49.028,0.825,1.185
2021-08-19 04:47:49.032,0.725,1.18
2021-08-19 04:47:49.036,0.7,1.18
2021-08-19 04:47:49.040,0.7,1.17
2021-08-19 04:47:49.044,0.625,1.135
2021-08-19 04:47:49.048,0.57,1.08
2021-08-19 04:47:49.052,0.51,1.055
2021-08-19 04:47:49.056,0.475,1.035
2021-08-19 04:47:49.060,0.425,1.005
2021-08-19 04:47:49.064,0.35,0.94
2021-08-19 04:47:49.068,0.265,0.885
2021-08-19 04:47:49.072,0.175,0.845
2021-08-19 04:47:49.076,0.14,0.8
2021-08-19 04:47:49.080,0.065,0.74
2021-08-19 04:47:49.084,0.02,0.73
2021-08-19 04:47:49.088,-0.015,0.7
2021-08-19 04:47:49.092,-0.1,0.645
2021-08-19 04:47:49.096,-0.18,0.595
2021-08-19 04:47:49.100,-0.195,0.575
2021-08-19 04:47:49.104,-0.215,0.54
2021-08-19 04:47:49.108,-0.275,0.495
2021-08-19 04:47:49.112,-0.285,0.45
2021-08-19 04:47:49.116,-0.335,0.405
2021-08-19 04:47:49.120,-0.345,0.385
2021-08-19 04:47:49.124,-0.4,0.335
2021-08-19 04:47:49.128,-0.38,0.305
2021-08-19 04:47:49.132,-0.435,0.275
2021-08-19 04:47:49.136,-0.445,0.24
2021-08-19 04:47:49.140,-0.465,0.21
2021-08-19 04:47:49.144,-0.46,0.205
2021-08-19 04:47:49.148,-0.47,0.17
2021-08-19 04:47:49.152,-0.46,0.15
2021-08-19 04:47:49.156,-0.495,0.135
2021-08-19 04:47:49.160,-0.51,0.14
2021-08-19 04:47:49.164,-0.485,0.11
2021-08-19 04:47:49.168,-0.445,0.08
2021-08-19 04:47:49.172,-0.455,0.015
2021-08-19 04:47:49.176,-0.62,-0.095
2021-08-19 04:47:49.180,-0.8,-0.265
2021-08-19 04:47:49.184,-0.905,-0.49
2021-08-19 04:47:49.188,-1.22,-0.63
2021-08-19 04:47:49.192,-1.825,-0.555
2021-08-19 04:47:49.260,-1.59,-0.95
2021-08-19 04:47:49.264,-1.085,-0.66
2021-08-19 04:47:49.268,-0.76,-0.36
2021-08-19 04:47:49.272,-0.55,-0.155
2021-08-19 04:47:49.276,-0.41,0.045
2021-08-19 04:47:49.280,-0.36,0.075
2021-08-19 04:47:49.284,-0.33,0.135
2021-08-19 04:47:49.288,-0.275,0.15
2021-08-19 04:47:49.292,-0.235,0.135
2021-08-19 04:47:49.296,-0.215,0.15
2021-08-19 04:47:49.300,-0.195,0.165
2021-08-19 04:47:49.304,-0.19,0.135
2021-08-19 04:47:49.308,-0.17,0.15
2021-08-19 04:47:49.312,-0.16,0.175
2021-08-19 04:47:49.316,-0.13,0.19
2021-08-19 04:47:49.320,-0.11,0.165
2021-08-19 04:47:49.324,-0.12,0.16
2021-08-19 04:47:49.328,-0.07,0.19
2021-08-19 04:47:49.332,-0.09,0.18
2021-08-19 04:47:49.336,-0.085,0.205
2021-08-19 04:47:49.340,-0.125,0.2
2021-08-19 04:47:49.344,-0.135,0.18
2021-08-19 04:47:49.348,-0.1,0.175
2021-08-19 04:47:49.352,-0.08,0.205
2021-08-19 04:47:49.356,-0.05,0.215
2021-08-19 04:47:49.360,-0.045,0.225
2021-08-19 04:47:49.364,-0.04,0.28
2021-08-19 04:47:49.368,0.005,0.285
2021-08-19 04:47:49.372,-0.005,0.28
2021-08-19 04:47:49.376,0.025,0.325
2021-08-19 04:47:49.380,0.055,0.325
2021-08-19 04:47:49.384,0.08,0.315
2021-08-19 04:47:49.388,0.15,0.305
2021-08-19 04:47:49.392,0.225,0.39
2021-08-19 04:47:49.396,0.295,0.46
2021-08-19 04:47:49.400,0.345,0.54
2021-08-19 04:47:49.404,0.35,0.545
2021-08-19 04:47:49.408,0.37,0.57
2021-08-19 04:47:49.412,0.43,0.625
2021-08-19 04:47:49.416,0.485,0.63
2021-08-19 04:47:49.420,0.535,0.65
2021-08-19 04:47:49.424,0.53,0.68
2021-08-19 04:47:49.428,0.535,0.735
2021-08-19 04:47:49.432,0.545,0.75
2021-08-19 04:47:49.436,0.59,0.75
2021-08-19 04:47:49.440,0.62,0.78
2021-08-19 04:47:49.444,0.65,0.78
2021-08-19 04:47:49.448,0.67,0.865
2021-08-19 04:47:49.452,0.675,0.91
2021-08-19 04:47:49.456,0.68,0.95
2021-08-19 04:47:49.460,0.685,0.945
2021-08-19 04:47:49.464,0.665,0.935
2021-08-19 04:47:49.468,0.58,0.965
2021-08-19 04:47:49.472,0.53,0.95
2021-08-19 04:47:49.476,0.495,0.945
2021-08-19 04:47:49.480,0.485,0.915
2021-08-19 04:47:49.484,0.415,0.91
2021-08-19 04:47:49.488,0.355,0.87
2021-08-19 04:47:49.492,0.295,0.885
2021-08-19 04:47:49.496,0.26,0.87
2021-08-19 04:47:49.500,0.19,0.815
2021-08-19 04:47:49.504,0.15,0.805
2021-08-19 04:47:49.508,0.065,0.78
2021-08-19 04:47:49.512,0.005,0.715
2021-08-19 04:47:49.516,-0.035,0.695
2021-08-19 04:47:49.520,-0.06,0.66
2021-08-19 04:47:49.524,-0.14,0.605
2021-08-19 04:47:49.528,-0.16,0.635
2021-08-19 04:47:49.532,-0.185,0.575
2021-08-19 04:47:49.536,-0.235,0.525
2021-08-19 04:47:49.540,-0.24,0.485
2021-08-19 04:47:49.544,-0.29,0.45
2021-08-19 04:47:49.548,-0.33,0.405
2021-08-19 04:47:49.552,-0.35,0.4
2021-08-19 04:47:49.556,-0.355,0.38
2021-08-19 04:47:49.560,-0.365,0.37
2021-08-19 04:47:49.564,-0.38,0.345
2021-08-19 04:47:49.568,-0.405,0.295
2021-08-19 04:47:49.572,-0.44,0.235
2021-08-19 04:47:49.576,-0.41,0.265
2021-08-19 04:47:49.580,-0.42,0.215
2021-08-19 04:47:49.584,-0.425,0.22
2021-08-19 04:47:49.588,-0.46,0.2
2021-08-19 04:47:49.592,-0.48,0.22
2021-08-19 04:47:49.596,-0.5,0.205
2021-08-19 04:47:49.600,-0.48,0.095
2021-08-19 04:47:49.604,-0.565,-0.045
2021-08-19 04:47:49.608,-0.735,-0.15
2021-08-19 04:47:49.612,-0.86,-0.395
2021-08-19 04:47:49.616,-1.14,-0.535
2021-08-19 04:47:49.620,-1.69,-0.56
2021-08-19 04:47:49.684,-1.595,-0.845
2021-08-19 04:47:49.688,-1.12,-0.56
2021-08-19 04:47:49.692,-0.805,-0.335
2021-08-19 04:47:49.696,-0.555,-0.08
2021-08-19 04:47:49.700,-0.39,0.09
2021-08-19 04:47:49.704,-0.3,0.175
2021-08-19 04:47:49.708,-0.23,0.215
2021-08-19 04:47:49.712,-0.225,0.225
2021-08-19 04:47:49.716,-0.2,0.215
2021-08-19 04:47:49.720,-0.155,0.235
2021-08-19 04:47:49.724,-0.12,0.235
2021-08-19 04:47:49.728,-0.1,0.23
2021-08-19 04:47:49.732,-0.11,0.23
2021-08-19 04:47:49.736,-0.09,0.245
2021-08-19 04:47:49.740,-0.065,0.215
2021-08-19 04:47:49.744,-0.035,0.235
2021-08-19 04:47:49.748,-0.045,0.235
2021-08-19 04:47:49.752,-0.045,0.225
2021-08-19 04:47:49.756,-0.05,0.255
2021-08-19 04:47:49.760,-0.05,0.23
2021-08-19 04:47:49.764,-0.08,0.24
2021-08-19 04:47:49.768,-0.03,0.205
2021-08-19 04:47:49.772,-0.005,0.215
2021-08-19 04:47:49.776,-0.035,0.26
2021-08-19 04:47:49.780,0.01,0.205
2021-08-19 04:47:49.784,0.01,0.25
2021-08-19 04:47:49.788,0.05,0.255
2021-08-19 04:47:49.792,0.035,0.275
2021-08-19 04:47:49.796,0.04,0.3
2021-08-19 04:47:49.800,0.055,0.32
2021-08-19 04:47:49.804,0.095,0.3
2021-08-19 04:47:49.808,0.155,0.35
2021-08-19 04:47:49.812,0.195,0.35
2021-08-19 04:47:49.816,0.26,0.39
2021-08-19 04:47:49.820,0.31,0.445
2021-08-19 04:47:49.824,0.35,0.5
2021-08-19 04:47:49.828,0.395,0.515
2021-08-19 04:47:49.832,0.41,0.54
2021-08-19 04:47:49.836,0.47,0.605
2021-08-19 04:47:49.840,0.49,0.59
2021-08-19 04:47:49.844,0.545,0.6
2021-08-19 04:47:49.848,0.61,0.615
2021-08-19 04:47:49.852,0.625,0.685
2021-08-19 04:47:49.856,0.6,0.715
2021-08-19 04:47:49.860,0.635,0.74
2021-08-19 04:47:49.864,0.625,0.75
2021-08-19 04:47:49.868,0.655,0.815
2021-08-19 04:47:49.872,0.7,0.825
2021-08-19 04:47:49.876,0.725,0.85
2021-08-19 04:47:49.880,0.725,0.86
2021-08-19 04:47:49.884,0.745,0.95
2021-08-19 04:47:49.888,0.745,0.915
2021-08-19 04:47:49.892,0.715,0.925
2021-08-19 04:47:49.896,0.655,0.92
2021-08-19 04:47:49.900,0.605,0.945
2021-08-19 04:47:49.904,0.54,0.915
2021-08-19 04:47:49.908,0.54,0.92
2021-08-19 04:47:49.912,0.46,0.9
2021-08-19 04:47:49.916,0.395,0.87
2021-08-19 04:47:49.920,0.325,0.87
2021-08-19 04:47:49.924,0.285,0.865
2021-08-19 04:47:49.928,0.2,0.81
2021-08-19 04:47:49.932,0.16,0.81
2021-08-19 04:47:49.936,0.09,0.795
2021-08-19 04:47:49.940,0.03,0.745
2021-08-19 04:47:49.944,-0.02,0.705
2021-08-19 04:47:49.948,-0.08,0.72
2021-08-19 04:47:49.952,-0.105,0.675
2021-08-19 04:47:49.956,-0.175,0.62
2021-08-19 04:47:49.960,-0.225,0.595
2021-08-19 04:47:49.964,-0.265,0.59
2021-08-19 04:47:49.968,-0.28,0.56
2021-08-19 04:47:49.972,-0.265,0.49
2021-08-19 04:47:49.976,-0.3,0.46
2021-08-19 04:47:49.980,-0.32,0.425
2021-08-19 04:47:49.984,-0.375,0.41
2021-08-19 04:47:49.988,-0.355,0.37
2021-08-19 04:47:49.992,-0.36,0.345
2021-08-19 04:47:49.996,-0.345,0.315
2021-08-19 04:47:50.000,-0.385,0.315
2021-08-19 04:47:50.004,-0.415,0.285
2021-08-19 04:47:50.008,-0.405,0.285
2021-08-19 04:47:50.012,-0.415,0.27
2021-08-19 04:47:50.016,-0.42,0.235
2021-08-19 04:47:50.020,-0.42,0.23
2021-08-19 04:47:50.024,-0.385,0.2
2021-08-19 04:47:50.028,-0.38,0.185
2021-08-19 04:47:50.032,-0.37,0.07
2021-08-19 04:47:50.036,-0.445,-0.05
2021-08-19 04:47:50.040,-0.625,-0.24
2021-08-19 04:47:50.044,-0.91,-0.38
2021-08-19 04:47:50.048,-1.495,-0.375
2021-08-19 04:47:50.120,-1.52,-1.35
2021-08-19 04:47:50.124,-1.07,-0.885
2021-08-19 04:47:50.128,-0.69,-0.525
2021-08-19 04:47:50.132,-0.38,-0.21
2021-08-19 04:47:50.136,-0.175,0.065
2021-08-19 04:47:50.140,-0.095,0.23
2021-08-19 04:47:50.144,-0.03,0.315
2021-08-19 04:47:50.148,0.015,0.36
2021-08-19 04:47:50.152,0.02,0.365
2021-08-19 04:47:50.156,0.085,0.355
2021-08-19 04:47:50.160,0.105,0.4
2021-08-19 04:47:50.164,0.115,0.44
2021-08-19 04:47:50.168,0.15,0.435
2021-08-19 04:47:50.172,0.15,0.39
2021-08-19 04:47:50.176,0.195,0.445
2021-08-19 04:47:50.180,0.245,0.44
2021-08-19 04:47:50.184,0.235,0.47
2021-08-19 04:47:50.188,0.23,0.425
2021-08-19 04:47:50.192,0.21,0.505
2021-08-19 04:47:50.196,0.245,0.495
2021-08-19 04:47:50.200,0.28,0.495
2021-08-19 04:47:50.204,0.31,0.475
2021-08-19 04:47:50.208,0.345,0.51
2021-08-19 04:47:50.212,0.365,0.565
2021-08-19 04:47:50.216,0.405,0.57
2021-08-19 04:47:50.220,0.445,0.605
2021-08-19 04:47:50.224,0.455,0.63
2021-08-19 04:47:50.228,0.46,0.67
2021-08-19 04:47:50.232,0.51,0.715
2021-08-19 04:47:50.236,0.585,0.755
2021-08-19 04:47:50.240,0.59,0.74
2021-08-19 04:47:50.244,0.705,0.8
2021-08-19 04:47:50.248,0.73,0.885
2021-08-19 04:47:50.252,0.775,0.92
2021-08-19 04:47:50.256,0.845,1.0
2021-08-19 04:47:50.260,0.89,1.01
2021-08-19 04:47:50.264,0.96,1.06
2021-08-19 04:47:50.268,0.995,1.1
2021-08-19 04:47:50.272,1.03,1.1
2021-08-19 04:47:50.276,1.055,1.145
2021-08-19 04:47:50.280,1.09,1.195
2021-08-19 04:47:50.284,1.11,1.235
2021-08-19 04:47:50.288,1.125,1.27
2021-08-19 04:47:50.292,1.11,1.27
2021-08-19 04:47:50.296,1.17,1.285
2021-08-19 04:47:50.300,1.19,1.37
2021-08-19 04:47:50.304,1.165,1.4
2021-08-19 04:47:50.308,1.16,1.45
2021-08-19 04:47:50.312,1.155,1.43
2021-08-19 04:47:50.316,1.095,1.44
2021-08-19 04:47:50.320,1.05,1.45
2021-08-19 04:47:50.324,1.025,1.46
2021-08-19 04:47:50.328,0.975,1.415
2021-08-19 04:47:50.332,0.895,1.37
2021-08-19 04:47:50.336,0.825,1.37
2021-08-19 04:47:50.340,0.78,1.365
2021-08-19 04:47:50.344,0.725,1.345
2021-08-19 04:47:50.348,0.66,1.285
2021-08-19 04:47:50.352,0.585,1.245
2021-08-19 04:47:50.356,0.515,1.225
2021-08-19 04:47:50.360,0.475,1.195
2021-08-19 04:47:50.364,0.415,1.155
2021-08-19 04:47:50.368,0.35,1.11
2021-08-19 04:47:50.372,0.28,1.11
2021-08-19 04:47:50.376,0.205,1.05
2021-08-19 04:47:50.380,0.14,0.965
2021-08-19 04:47:50.384,0.13,0.95
2021-08-19 04:47:50.388,0.075,0.885
2021-08-19 04:47:50.392,0.02,0.865
2021-08-19 04:47:50.396,0.01,0.805
2021-08-19 04:47:50.400,-0.06,0.74
2021-08-19 04:47:50.404,-0.08,0.705
2021-08-19 04:47:50.408,-0.12,0.67
2021-08-19 04:47:50.412,-0.16,0.575
2021-08-19 04:47:50.416,-0.195,0.57
2021-08-19 04:47:50.420,-0.21,0.51
2021-08-19 04:47:50.424,-0.24,0.485
2021-08-19 04:47:50.428,-0.22,0.465
2021-08-19 04:47:50.432,-0.235,0.43
2021-08-19 04:47:50.436,-0.28,0.44
2021-08-19 04:47:50.440,-0.31,0.385
2021-08-19 04:47:50.444,-0.34,0.375
2021-08-19 04:47:50.448,-0.38,0.355
2021-08-19 04:47:50.452,-0.395,0.305
2021-08-19 04:47:50.456,-0.425,0.245
2021-08-19 04:47:50.460,-0.54,0.155
2021-08-19 04:47:50.464,-0.67,0.01
2021-08-19 04:47:50.468,-0.655,-0.3
2021-08-19 04:47:50.472,-0.905,-0.495
2021-08-19 04:47:50.476,-1.345,-0.48
2021-08-19 04:47:50.480,-1.66,-0.595
2021-08-19 04:47:50.484,-1.805,-0.635
2021-08-19 04:47:50.536,-1.97,-1.11
2021-08-19 04:47:50.540,-1.625,-0.79
2021-08-19 04:47:50.544,-1.18,-0.555
2021-08-19 04:47:50.548,-0.855,-0.365
2021-08-19 04:47:50.552,-0.585,-0.105
2021-08-19 04:47:50.556,-0.48,0.055
2021-08-19 04:47:50.560,-0.38,0.155
2021-08-19 04:47:50.564,-0.305,0.22
2021-08-19 04:47:50.568,-0.255,0.235
2021-08-19 04:47:50.572,-0.21,0.205
2021-08-19 04:47:50.576,-0.205,0.2
2021-08-19 04:47:50.580,-0.2,0.18
2021-08-19 04:47:50.584,-0.17,0.17
2021-08-19 04:47:50.588,-0.185,0.175
2021-08-19 04:47:50.592,-0.125,0.19
2021-08-19 04:47:50.596,-0.125,0.18
2021-08-19 04:47:50.600,-0.145,0.165
2021-08-19 04:47:50.604,-0.1,0.135
2021-08-19 04:47:50.608,-0.115,0.17
2021-08-19 04:47:50.612,-0.105,0.2
2021-08-19 04:47:50.616,-0.11,0.18
2021-08-19 04:47:50.620,-0.135,0.14
2021-08-19 04:47:50.624,-0.11,0.145
2021-08-19 04:47:50.628,-0.105,0.11
2021-08-19 04:47:50.632,-0.095,0.125
2021-08-19 04:47:50.636,-0.1,0.125
2021-08-19 04:47:50.640,-0.1,0.12
2021-08-19 04:47:50.644,-0.08,0.14
2021-08-19 04:47:50.648,-0.05,0.165
2021-08-19 04:47:50.652,-0.035,0.185
2021-08-19 04:47:50.656,-0.005,0.185
2021-08-19 04:47:50.660,-0.005,0.21
2021-08-19 04:47:50.664,-0.01,0.195
2021-08-19 04:47:50.668,0.07,0.19
2021-08-19 04:47:50.672,0.105,0.225
2021-08-19 04:47:50.676,0.165,0.25
2021-08-19 04:47:50.680,0.205,0.26
2021-08-19 04:47:50.684,0.22,0.345
2021-08-19 04:47:50.688,0.255,0.36
2021-08-19 04:47:50.692,0.3,0.395
2021-08-19 04:47:50.696,0.38,0.415
2021-08-19 04:47:50.700,0.405,0.415
2021-08-19 04:47:50.704,0.44,0.43
2021-08-19 04:47:50.708,0.465,0.475
2021-08-19 04:47:50.712,0.5,0.525
2021-08-19 04:47:50.716,0.49,0.53
2021-08-19 04:47:50.720,0.52,0.58
2021-08-19 04:47:50.724,0.555,0.595
2021-08-19 04:47:50.728,0.575,0.61
2021-08-19 04:47:50.732,0.615,0.655
2021-08-19 04:47:50.736,0.61,0.715
2021-08-19 04:47:50.740,0.63,0.775
2021-08-19 04:47:50.744,0.585,0.795
2021-08-19 04:47:50.748,0.54,0.785
2021-08-19 04:47:50.752,0.56,0.805
2021-08-19 04:47:50.756,0.49,0.795
2021-08-19 04:47:50.760,0.47,0.77
2021-08-19 04:47:50.764,0.415,0.79
2021-08-19 04:47:50.768,0.38,0.785
2021-08-19 04:47:50.772,0.325,0.785
2021-08-19 04:47:50.776,0.265,0.735
2021-08-19 04:47:50.780,0.22,0.705
2021-08-19 04:47:50.784,0.17,0.72
2021-08-19 04:47:50.788,0.12,0.7
2021-08-19 04:47:50.792,0.035,0.665
2021-08-19 04:47:50.796,0.005,0.665
2021-08-19 04:47:50.800,-0.05,0.605
2021-08-19 04:47:50.804,-0.085,0.56
2021-08-19 04:47:50.808,-0.175,0.555
2021-08-19 04:47:50.812,-0.22,0.56
2021-08-19 04:47:50.816,-0.255,0.505
2021-08-19 04:47:50.820,-0.255,0.46
2021-08-19 04:47:50.824,-0.275,0.435
2021-08-19 04:47:50.828,-0.36,0.39
2021-08-19 04:47:50.832,-0.365,0.37
2021-08-19 04:47:50.836,-0.37,0.355
2021-08-19 04:47:50.840,-0.375,0.3
2021-08-19 04:47:50.844,-0.395,0.29
2021-08-19 04:47:50.848,-0.42,0.265
2021-08-19 04:47:50.852,-0.435,0.255
2021-08-19 04:47:50.856,-0.43,0.22
2021-08-19 04:47:50.860,-0.44,0.22
2021-08-19 04:47:50.864,-0.43,0.205
2021-08-19 04:47:50.868,-0.44,0.18
2021-08-19 04:47:50.872,-0.47,0.175
2021-08-19 04:47:50.876,-0.45,0.125
2021-08-19 04:47:50.880,-0.445,0.14
2021-08-19 04:47:50.884,-0.43,0.105
2021-08-19 04:47:50.888,-0.405,-0.005
2021-08-19 04:47:50.892,-0.475,-0.13
2021-08-19 04:47:50.896,-0.565,-0.225
2021-08-19 04:47:50.900,-0.735,-0.4
2021-08-19 04:47:50.904,-1.1,-0.415
2021-08-19 04:47:50.908,-1.72,-0.35
2021-08-19 04:47:50.980,-1.415,-1.49
2021-08-19 04:47:50.984,-0.905,-0.975
2021-08-19 04:47:50.988,-0.53,-0.59
2021-08-19 04:47:50.992,-0.31,-0.24
2021-08-19 04:47:50.996,-0.18,0.04
2021-08-19 04:47:51.000,-0.115,0.18
2021-08-19 04:47:51.004,-0.07,0.26
2021-08-19 04:47:51.008,-0.02,0.27
2021-08-19 04:47:51.012,-0.02,0.245
2021-08-19 04:47:51.016,0.02,0.3
2021-08-19 04:47:51.020,0.045,0.285
2021-08-19 04:47:51.024,0.08,0.31
2021-08-19 04:47:51.028,0.085,0.285
2021-08-19 04:47:51.032,0.125,0.3
2021-08-19 04:47:51.036,0.14,0.27
2021-08-19 04:47:51.040,0.16,0.33
2021-08-19 04:47:51.044,0.185,0.35
2021-08-19 04:47:51.048,0.17,0.375
2021-08-19 04:47:51.052,0.205,0.36
2021-08-19 04:47:51.056,0.195,0.35
2021-08-19 04:47:51.060,0.2,0.41
2021-08-19 04:47:51.064,0.25,0.4
2021-08-19 04:47:51.068,0.29,0.405
2021-08-19 04:47:51.072,0.305,0.455
2021-08-19 04:47:51.076,0.345,0.47
2021-08-19 04:47:51.080,0.37,0.535
2021-08-19 04:47:51.084,0.415,0.58
2021-08-19 04:47:51.088,0.465,0.61
2021-08-19 04:47:51.092,0.5,0.635
2021-08-19 04:47:51.096,0.53,0.65
2021-08-19 04:47:51.100,0.575,0.675
2021-08-19 04:47:51.104,0.65,0.71
2021-08-19 04:47:51.108,0.725,0.825
2021-08-19 04:47:51.112,0.78,0.885
2021-08-19 04:47:51.116,0.835,0.945
2021-08-19 04:47:51.120,0.865,0.98
2021-08-19 04:47:51.124,0.92,1.04
2021-08-19 04:47:51.128,0.97,1.085
2021-08-19 04:47:51.132,1.04,1.1
2021-08-19 04:47:51.136,1.065,1.115
2021-08-19 04:47:51.140,1.07,1.155
2021-08-19 04:47:51.144,1.07,1.22
2021-08-19 04:47:51.148,1.095,1.25
2021-08-19 04:47:51.152,1.09,1.31
2021-08-19 04:47:51.156,1.11,1.315
2021-08-19 04:47:51.160,1.13,1.36
2021-08-19 04:47:51.164,1.12,1.395
2021-08-19 04:47:51.168,1.14,1.395
2021-08-19 04:47:51.172,1.1,1.43
2021-08-19 04:47:51.176,1.015,1.435
2021-08-19 04:47:51.180,0.975,1.42
2021-08-19 04:47:51.184,0.93,1.375
2021-08-19 04:47:51.188,0.86,1.355
2021-08-19 04:47:51.192,0.815,1.305
2021-08-19 04:47:51.196,0.75,1.245
2021-08-19 04:47:51.200,0.685,1.225
2021-08-19 04:47:51.204,0.62,1.175
2021-08-19 04:47:51.208,0.535,1.135
2021-08-19 04:47:51.212,0.49,1.1
2021-08-19 04:47:51.216,0.44,1.05
2021-08-19 04:47:51.220,0.375,0.99
2021-08-19 04:47:51.224,0.285,0.97
2021-08-19 04:47:51.228,0.25,0.935
2021-08-19 04:47:51.232,0.21,0.895
2021-08-19 04:47:51.236,0.115,0.83
2021-08-19 04:47:51.240,0.06,0.8
2021-08-19 04:47:51.244,0.0,0.8
2021-08-19 04:47:51.248,-0.04,0.74
2021-08-19 04:47:51.252,-0.065,0.695
2021-08-19 04:47:51.256,-0.12,0.66
2021-08-19 04:47:51.260,-0.15,0.62
2021-08-19 04:47:51.264,-0.195,0.56
2021-08-19 04:47:51.268,-0.2,0.51
2021-08-19 04:47:51.272,-0.255,0.5
2021-08-19 04:47:51.276,-0.24,0.45
2021-08-19 04:47:51.280,-0.305,0.425
2021-08-19 04:47:51.284,-0.29,0.375
2021-08-19 04:47:51.288,-0.325,0.31
2021-08-19 04:47:51.292,-0.35,0.285
2021-08-19 04:47:51.296,-0.32,0.26
2021-08-19 04:47:51.300,-0.36,0.255
2021-08-19 04:47:51.304,-0.39,0.21
2021-08-19 04:47:51.308,-0.425,0.22
2021-08-19 04:47:51.312,-0.41,0.16
2021-08-19 04:47:51.316,-0.4,0.165
2021-08-19 04:47:51.320,-0.425,0.045
2021-08-19 04:47:51.324,-0.575,-0.035
2021-08-19 04:47:51.328,-0.7,-0.21
2021-08-19 04:47:51.332,-0.805,-0.485
2021-08-19 04:47:51.336,-1.18,-0.545
2021-08-19 04:47:51.340,-1.77,-0.52
2021-08-19 04:47:51.404,-1.655,-1.04
2021-08-19 04:47:51.408,-1.18,-0.745
2021-08-19 04:47:51.412,-0.805,-0.49
2021-08-19 04:47:51.416,-0.56,-0.225
2021-08-19 04:47:51.420,-0.4,0.005
2021-08-19 04:47:51.424,-0.335,0.12
2021-08-19 04:47:51.428,-0.3,0.155
2021-08-19 04:47:51.432,-0.26,0.18
2021-08-19 04:47:51.436,-0.245,0.155
2021-08-19 04:47:51.440,-0.215,0.155
2021-08-19 04:47:51.444,-0.185,0.155
2021-08-19 04:47:51.448,-0.175,0.15
2021-08-19 04:47:51.452,-0.2,0.125
2021-08-19 04:47:51.456,-0.185,0.135
2021-08-19 04:47:51.460,-0.105,0.155
2021-08-19 04:47:51.464,-0.105,0.15
2021-08-19 04:47:51.468,-0.105,0.165
2021-08-19 04:47:51.472,-0.14,0.18
2021-08-19 04:47:51.476,-0.12,0.185
2021-08-19 04:47:51.480,-0.12,0.175
2021-08-19 04:47:51.484,-0.1,0.185
2021-08-19 04:47:51.488,-0.115,0.14
2021-08-19 04:47:51.492,-0.135,0.14
2021-08-19 04:47:51.496,-0.12,0.17
2021-08-19 04:47:51.500,-0.08,0.14
2021-08-19 04:47:51.504,-0.085,0.195
2021-08-19 04:47:51.508,-0.08,0.22
2021-08-19 04:47:51.512,-0.06,0.195
2021-08-19 04:47:51.516,-0.06,0.245
2021-08-19 04:47:51.520,-0.02,0.25
2021-08-19 04:47:51.524,-0.005,0.31
2021-08-19 04:47:51.528,0.015,0.295
2021-08-19 04:47:51.532,0.045,0.265
2021-08-19 04:47:51.536,0.08,0.245
2021-08-19 04:47:51.540,0.125,0.315
2021-08-19 04:47:51.544,0.18,0.375
2021-08-19 04:47:51.548,0.26,0.41
2021-08-19 04:47:51.552,0.295,0.465
2021-08-19 04:47:51.556,0.285,0.505
2021-08-19 04:47:51.560,0.34,0.535
2021-08-19 04:47:51.564,0.39,0.515
2021-08-19 04:47:51.568,0.435,0.55
2021-08-19 04:47:51.572,0.42,0.57
2021-08-19 04:47:51.576,0.47,0.615
2021-08-19 04:47:51.580,0.46,0.625
2021-08-19 04:47:51.584,0.475,0.655
2021-08-19 04:47:51.588,0.505,0.655
2021-08-19 04:47:51.592,0.54,0.665
2021-08-19 04:47:51.596,0.53,0.71
2021-08-19 04:47:51.600,0.54,0.735
2021-08-19 04:47:51.604,0.56,0.805
2021-08-19 04:47:51.608,0.545,0.815
2021-08-19 04:47:51.612,0.53,0.795
2021-08-19 04:47:51.616,0.465,0.845
2021-08-19 04:47:51.620,0.42,0.815
2021-08-19 04:47:51.624,0.39,0.825
2021-08-19 04:47:51.628,0.35,0.785
2021-08-19 04:47:51.632,0.31,0.735
2021-08-19 04:47:51.636,0.235,0.72
2021-08-19 04:47:51.640,0.19,0.715
2021-08-19 04:47:51.644,0.12,0.695
2021-08-19 04:47:51.648,0.07,0.655
2021-08-19 04:47:51.652,0.015,0.62
2021-08-19 04:47:51.656,-0.045,0.6
2021-08-19 04:47:51.660,-0.105,0.545
2021-08-19 04:47:51.664,-0.135,0.57
2021-08-19 04:47:51.668,-0.175,0.53
2021-08-19 04:47:51.672,-0.205,0.49
2021-08-19 04:47:51.676,-0.26,0.435
2021-08-19 04:47:51.680,-0.305,0.43
2021-08-19 04:47:51.684,-0.3,0.4
2021-08-19 04:47:51.688,-0.305,0.38
2021-08-19 04:47:51.692,-0.33,0.345
2021-08-19 04:47:51.696,-0.37,0.32
2021-08-19 04:47:51.700,-0.39,0.295
2021-08-19 04:47:51.704,-0.4,0.265
2021-08-19 04:47:51.708,-0.395,0.3
2021-08-19 04:47:51.712,-0.405,0.22
2021-08-19 04:47:51.716,-0.43,0.235
2021-08-19 04:47:51.720,-0.435,0.22
2021-08-19 04:47:51.724,-0.43,0.195
2021-08-19 04:47:51.728,-0.41,0.17
2021-08-19 04:47:51.732,-0.425,0.175
2021-08-19 04:47:51.736,-0.44,0.145
2021-08-19 04:47:51.740,-0.455,0.11
2021-08-19 04:47:51.744,-0.44,0.095
2021-08-19 04:47:51.748,-0.38,0.06
2021-08-19 04:47:51.752,-0.38,-0.02
2021-08-19 04:47:51.756,-0.44,-0.09
2021-08-19 04:47:51.760,-0.595,-0.205
2021-08-19 04:47:51.764,-0.88,-0.345
2021-08-19 04:47:51.768,-1.325,-0.275
2021-08-19 04:47:51.772,-2.0,-0.32
2021-08-19 04:47:51.844,-1.54,-1.56
2021-08-19 04:47:51.848,-1.0,-1.03
2021-08-19 04:47:51.852,-0.6,-0.595
2021-08-19 04:47:51.856,-0.295,-0.245
2021-08-19 04:47:51.860,-0.135,0.0
2021-08-19 04:47:51.864,-0.1,0.175
2021-08-19 04:47:51.868,-0.075,0.28
2021-08-19 04:47:51.872,-0.025,0.32
2021-08-19 04:47:51.876,0.015,0.33
2021-08-19 04:47:51.880,0.04,0.32
2021-08-19 04:47:51.884,0.05,0.34
2021-08-19 04:47:51.888,0.055,0.345
2021-08-19 04:47:51.892,0.095,0.34
2021-08-19 04:47:51.896,0.125,0.33
2021-08-19 04:47:51.900,0.155,0.355
2021-08-19 04:47:51.904,0.165,0.405
2021-08-19 04:47:51.908,0.165,0.415
2021-08-19 04:47:51.912,0.195,0.41
2021-08-19 04:47:51.916,0.18,0.435
2021-08-19 04:47:51.920,0.205,0.41
2021-08-19 04:47:51.924,0.21,0.445
2021-08-19 04:47:51.928,0.265,0.455
2021-08-19 04:47:51.932,0.245,0.5
2021-08-19 04:47:51.936,0.27,0.53
2021-08-19 04:47:51.940,0.315,0.54
2021-08-19 04:47:51.944,0.37,0.55
2021-08-19 04:47:51.948,0.385,0.61
2021-08-19 04:47:51.952,0.4,0.64
2021-08-19 04:47:51.956,0.42,0.66
2021-08-19 04:47:51.960,0.48,0.725
2021-08-19 04:47:51.964,0.525,0.735
2021-08-19 04:47:51.968,0.575,0.78
2021-08-19 04:47:51.972,0.615,0.85
2021-08-19 04:47:51.976,0.725,0.9
2021-08-19 04:47:51.980,0.745,0.96
2021-08-19 04:47:51.984,0.765,1.04
2021-08-19 04:47:51.988,0.82,1.085
2021-08-19 04:47:51.992,0.88,1.135
2021-08-19 04:47:51.996,0.93,1.095
2021-08-19 04:47:52.000,0.97,1.15
2021-08-19 04:47:52.004,1.0,1.2
2021-08-19 04:47:52.008,0.99,1.26
2021-08-19 04:47:52.012,1.0,1.275
2021-08-19 04:47:52.016,0.99,1.31
2021-08-19 04:47:52.020,1.025,1.33
2021-08-19 04:47:52.024,1.055,1.37
2021-08-19 04:47:52.028,1.105,1.39
2021-08-19 04:47:52.032,1.05,1.44
2021-08-19 04:47:52.036,1.04,1.45
2021-08-19 04:47:52.040,1.025,1.44
2021-08-19 04:47:52.044,0.95,1.39
2021-08-19 04:47:52.048,0.89,1.375
2021-08-19 04:47:52.052,0.845,1.36
2021-08-19 04:47:52.056,0.785,1.355
2021-08-19 04:47:52.060,0.73,1.295
2021-08-19 04:47:52.064,0.68,1.255
2021-08-19 04:47:52.068,0.6,1.215
2021-08-19 04:47:52.072,0.55,1.175
2021-08-19 04:47:52.076,0.49,1.12
2021-08-19 04:47:52.080,0.425,1.095
2021-08-19 04:47:52.084,0.375,1.06
2021-08-19 04:47:52.088,0.295,0.975
2021-08-19 04:47:52.092,0.27,0.97
2021-08-19 04:47:52.096,0.15,0.91
2021-08-19 04:47:52.100,0.105,0.88
2021-08-19 04:47:52.104,0.045,0.83
2021-08-19 04:47:52.108,0.01,0.795
2021-08-19 04:47:52.112,-0.05,0.755
2021-08-19 04:47:52.116,-0.08,0.69
2021-08-19 04:47:52.120,-0.155,0.635
2021-08-19 04:47:52.124,-0.15,0.605
2021-08-19 04:47:52.128,-0.18,0.575
2021-08-19 04:47:52.132,-0.2,0.545
2021-08-19 04:47:52.136,-0.23,0.47
2021-08-19 04:47:52.140,-0.27,0.46
2021-08-19 04:47:52.144,-0.29,0.42
2021-08-19 04:47:52.148,-0.29,0.46
2021-08-19 04:47:52.152,-0.32,0.36
2021-08-19 04:47:52.156,-0.335,0.3
2021-08-19 04:47:52.160,-0.36,0.315
2021-08-19 04:47:52.164,-0.345,0.285
2021-08-19 04:47:52.168,-0.34,0.305
2021-08-19 04:47:52.172,-0.36,0.235
2021-08-19 04:47:52.176,-0.35,0.245
2021-08-19 04:47:52.180,-0.32,0.185
2021-08-19 04:47:52.184,-0.28,0.135
2021-08-19 04:47:52.188,-0.36,0.01
2021-08-19 04:47:52.192,-0.55,-0.13
2021-08-19 04:47:52.196,-0.83,-0.285
2021-08-19 04:47:52.200,-1.265,-0.345
2021-08-19 04:47:52.204,-1.89,-0.385
2021-08-19 04:47:52.272,-1.835,-1.65
2021-08-19 04:47:52.276,-1.365,-1.09
2021-08-19 04:47:52.280,-0.915,-0.68
2021-08-19 04:47:52.284,-0.57,-0.345
2021-08-19 04:47:52.288,-0.32,-0.075
2021-08-19 04:47:52.292,-0.165,0.165
2021-08-19 04:47:52.296,-0.145,0.27
2021-08-19 04:47:52.300,-0.095,0.33
2021-08-19 04:47:52.304,-0.085,0.32
2021-08-19 04:47:52.308,-0.065,0.335
2021-08-19 04:47:52.312,-0.025,0.335
2021-08-19 04:47:52.316,0.005,0.34
2021-08-19 04:47:52.320,0.025,0.31
2021-08-19 04:47:52.324,0.035,0.315
2021-08-19 04:47:52.328,0.1,0.365
2021-08-19 04:47:52.332,0.11,0.395
2021-08-19 04:47:52.336,0.12,0.39
2021-08-19 04:47:52.340,0.14,0.405
2021-08-19 04:47:52.344,0.115,0.38
2021-08-19 04:47:52.348,0.115,0.39
2021-08-19 04:47:52.352,0.135,0.36
2021-08-19 04:47:52.356,0.17,0.4
2021-08-19 04:47:52.360,0.15,0.41
2021-08-19 04:47:52.364,0.2,0.44
2021-08-19 04:47:52.368,0.205,0.455
2021-08-19 04:47:52.372,0.235,0.465
2021-08-19 04:47:52.376,0.285,0.52
2021-08-19 04:47:52.380,0.31,0.535
2021-08-19 04:47:52.384,0.315,0.58
2021-08-19 04:47:52.388,0.325,0.645
2021-08-19 04:47:52.392,0.37,0.66
2021-08-19 04:47:52.396,0.405,0.665
2021-08-19 04:47:52.400,0.505,0.665
2021-08-19 04:47:52.404,0.51,0.695
2021-08-19 04:47:52.408,0.58,0.785
2021-08-19 04:47:52.412,0.62,0.815
2021-08-19 04:47:52.416,0.68,0.89
2021-08-19 04:47:52.420,0.73,0.915
2021-08-19 04:47:52.424,0.76,0.975
2021-08-19 04:47:52.428,0.78,0.975
2021-08-19 04:47:52.432,0.84,0.99
2021-08-19 04:47:52.436,0.935,1.035
2021-08-19 04:47:52.440,0.9,1.075
2021-08-19 04:47:52.444,0.92,1.055
2021-08-19 04:47:52.448,0.895,1.15
2021-08-19 04:47:52.452,0.915,1.16
2021-08-19 04:47:52.456,0.925,1.19
2021-08-19 04:47:52.460,0.96,1.2
2021-08-19 04:47:52.464,0.975,1.29
2021-08-19 04:47:52.468,0.915,1.25
2021-08-19 04:47:52.472,0.91,1.27
2021-08-19 04:47:52.476,0.89,1.275
2021-08-19 04:47:52.480,0.85,1.255
2021-08-19 04:47:52.484,0.77,1.23
2021-08-19 04:47:52.488,0.7,1.2
2021-08-19 04:47:52.492,0.65,1.195
2021-08-19 04:47:52.496,0.59,1.165
2021-08-19 04:47:52.500,0.55,1.115
2021-08-19 04:47:52.504,0.485,1.065
2021-08-19 04:47:52.508,0.415,1.025
2021-08-19 04:47:52.512,0.345,1.015
2021-08-19 04:47:52.516,0.305,0.965
2021-08-19 04:47:52.520,0.235,0.91
2021-08-19 04:47:52.524,0.17,0.87
2021-08-19 04:47:52.528,0.11,0.84
2021-08-19 04:47:52.532,0.05,0.845
2021-08-19 04:47:52.536,0.01,0.765
2021-08-19 04:47:52.540,-0.005,0.75
2021-08-19 04:47:52.544,-0.065,0.71
2021-08-19 04:47:52.548,-0.09,0.68
2021-08-19 04:47:52.552,-0.16,0.63
2021-08-19 04:47:52.556,-0.155,0.64
2021-08-19 04:47:52.560,-0.175,0.585
2021-08-19 04:47:52.564,-0.21,0.55
2021-08-19 04:47:52.568,-0.225,0.515
2021-08-19 04:47:52.572,-0.27,0.495
2021-08-19 04:47:52.576,-0.27,0.46
2021-08-19 04:47:52.580,-0.27,0.47
2021-08-19 04:47:52.584,-0.265,0.4
2021-08-19 04:47:52.588,-0.295,0.37
2021-08-19 04:47:52.592,-0.29,0.35
2021-08-19 04:47:52.596,-0.335,0.37
2021-08-19 04:47:52.600,-0.31,0.335
2021-08-19 04:47:52.604,-0.305,0.33
2021-08-19 04:47:52.608,-0.325,0.315
2021-08-19 04:47:52.612,-0.3,0.29
2021-08-19 04:47:52.616,-0.255,0.23
2021-08-19 04:47:52.620,-0.255,0.13
2021-08-19 04:47:52.624,-0.355,0.035
2021-08-19 04:47:52.628,-0.525,-0.1
2021-08-19 04:47:52.632,-0.83,-0.275
2021-08-19 04:47:52.636,-1.415,-0.28
2021-08-19 04:47:52.708,-1.615,-1.45
2021-08-19 04:47:52.712,-1.12,-0.99
2021-08-19 04:47:52.716,-0.715,-0.625
2021-08-19 04:47:52.720,-0.4,-0.255
2021-08-19 04:47:52.724,-0.155,0.0
2021-08-19 04:47:52.728,-0.01,0.215
2021-08-19 04:47:52.732,0.035,0.34
2021-08-19 04:47:52.736,0.07,0.335
2021-08-19 04:47:52.740,0.08,0.41
2021-08-19 04:47:52.744,0.135,0.405
2021-08-19 04:47:52.748,0.225,0.41
2021-08-19 04:47:52.752,0.215,0.435
2021-08-19 04:47:52.756,0.235,0.46
2021-08-19 04:47:52.760,0.24,0.405
2021-08-19 04:47:52.764,0.26,0.455
2021-08-19 04:47:52.768,0.28,0.44
2021-08-19 04:47:52.772,0.305,0.455
2021-08-19 04:47:52.776,0.315,0.49
2021-08-19 04:47:52.780,0.295,0.48
2021-08-19 04:47:52.784,0.305,0.465
2021-08-19 04:47:52.788,0.31,0.45
2021-08-19 04:47:52.792,0.365,0.515
2021-08-19 04:47:52.796,0.39,0.51
2021-08-19 04:47:52.800,0.425,0.5
2021-08-19 04:47:52.804,0.41,0.535
2021-08-19 04:47:52.808,0.46,0.585
2021-08-19 04:47:52.812,0.51,0.595
2021-08-19 04:47:52.816,0.54,0.625
2021-08-19 04:47:52.820,0.54,0.67
2021-08-19 04:47:52.824,0.57,0.69
2021-08-19 04:47:52.828,0.62,0.71
2021-08-19 04:47:52.832,0.675,0.72
2021-08-19 04:47:52.836,0.725,0.78
2021-08-19 04:47:52.840,0.795,0.825
2021-08-19 04:47:52.844,0.87,0.895
2021-08-19 04:47:52.848,0.91,0.94
2021-08-19 04:47:52.852,0.93,1.0
2021-08-19 04:47:52.856,0.99,1.03
2021-08-19 04:47:52.860,1.04,1.095
2021-08-19 04:47:52.864,1.11,1.105
2021-08-19 04:47:52.868,1.135,1.135
2021-08-19 04:47:52.872,1.155,1.18
2021-08-19 04:47:52.876,1.185,1.2
2021-08-19 04:47:52.880,1.195,1.235
2021-08-19 04:47:52.884,1.195,1.27
2021-08-19 04:47:52.888,1.175,1.305
2021-08-19 04:47:52.892,1.205,1.355
2021-08-19 04:47:52.896,1.23,1.355
2021-08-19 04:47:52.900,1.22,1.39
2021-08-19 04:47:52.904,1.16,1.4
2021-08-19 04:47:52.908,1.13,1.435
2021-08-19 04:47:52.912,1.07,1.415
2021-08-19 04:47:52.916,1.05,1.365
2021-08-19 04:47:52.920,1.005,1.375
2021-08-19 04:47:52.924,0.935,1.32
2021-08-19 04:47:52.928,0.885,1.29
2021-08-19 04:47:52.932,0.8,1.26
2021-08-19 04:47:52.936,0.76,1.215
2021-08-19 04:47:52.940,0.675,1.21
2021-08-19 04:47:52.944,0.635,1.15
2021-08-19 04:47:52.948,0.55,1.115
2021-08-19 04:47:52.952,0.475,1.085
2021-08-19 04:47:52.956,0.42,1.07
2021-08-19 04:47:52.960,0.375,1.025
2021-08-19 04:47:52.964,0.3,1.0
2021-08-19 04:47:52.968,0.24,0.925
2021-08-19 04:47:52.972,0.2,0.92
2021-08-19 04:47:52.976,0.155,0.885
2021-08-19 04:47:52.980,0.11,0.815
2021-08-19 04:47:52.984,0.095,0.79
2021-08-19 04:47:52.988,0.01,0.76
2021-08-19 04:47:52.992,-0.01,0.725
2021-08-19 04:47:52.996,-0.01,0.655
2021-08-19 04:47:53.000,-0.06,0.63
2021-08-19 04:47:53.004,-0.085,0.57
2021-08-19 04:47:53.008,-0.13,0.56
2021-08-19 04:47:53.012,-0.135,0.495
2021-08-19 04:47:53.016,-0.14,0.445
2021-08-19 04:47:53.020,-0.16,0.42
2021-08-19 04:47:53.024,-0.14,0.405
2021-08-19 04:47:53.028,-0.18,0.385
2021-08-19 04:47:53.032,-0.215,0.36
2021-08-19 04:47:53.036,-0.27,0.365
2021-08-19 04:47:53.040,-0.29,0.355
2021-08-19 04:47:53.044,-0.29,0.325
2021-08-19 04:47:53.048,-0.335,0.31
2021-08-19 04:47:53.052,-0.385,0.23
2021-08-19 04:47:53.056,-0.49,0.075
2021-08-19 04:47:53.060,-0.585,-0.16
2021-08-19 04:47:53.064,-0.66,-0.37
2021-08-19 04:47:53.068,-1.03,-0.505
2021-08-19 04:47:53.072,-1.52,-0.515
2021-08-19 04:47:53.076,-1.74,-0.58
2021-08-19 04:47:53.080,-1.97,-0.48
2021-08-19 04:47:53.132,-1.825,-0.89
2021-08-19 04:47:53.136,-1.425,-0.595
2021-08-19 04:47:53.140,-1.015,-0.43
2021-08-19 04:47:53.144,-0.675,-0.225
2021-08-19 04:47:53.148,-0.465,-0.035
2021-08-19 04:47:53.152,-0.335,0.145
2021-08-19 04:47:53.156,-0.255,0.25
2021-08-19 04:47:53.160,-0.175,0.245
2021-08-19 04:47:53.164,-0.125,0.225
2021-08-19 04:47:53.168,-0.095,0.235
2021-08-19 04:47:53.172,-0.09,0.24
2021-08-19 04:47:53.176,-0.095,0.235
2021-08-19 04:47:53.180,-0.065,0.205
2021-08-19 04:47:53.184,-0.035,0.225
2021-08-19 04:47:53.188,0.0,0.225
2021-08-19 04:47:53.192,-0.005,0.235
2021-08-19 04:47:53.196,0.0,0.24
2021-08-19 04:47:53.200,0.02,0.24
2021-08-19 04:47:53.204,-0.005,0.24
2021-08-19 04:47:53.208,0.04,0.195
2021-08-19 04:47:53.212,0.025,0.185
2021-08-19 04:47:53.216,0.01,0.22
2021-08-19 04:47:53.220,0.01,0.2
2021-08-19 04:47:53.224,0.015,0.175
2021-08-19 04:47:53.228,0.025,0.175
2021-08-19 04:47:53.232,0.025,0.16
2021-08-19 04:47:53.236,0.02,0.175
2021-08-19 04:47:53.240,0.04,0.2
2021-08-19 04:47:53.244,0.07,0.19
2021-08-19 04:47:53.248,0.13,0.245
2021-08-19 04:47:53.252,0.155,0.265
2021-08-19 04:47:53.256,0.175,0.26
2021-08-19 04:47:53.260,0.18,0.27
2021-08-19 04:47:53.264,0.185,0.255
2021-08-19 04:47:53.268,0.26,0.28
2021-08-19 04:47:53.272,0.275,0.28
2021-08-19 04:47:53.276,0.37,0.345
2021-08-19 04:47:53.280,0.395,0.37
2021-08-19 04:47:53.284,0.425,0.41
2021-08-19 04:47:53.288,0.46,0.455
2021-08-19 04:47:53.292,0.515,0.47
2021-08-19 04:47:53.296,0.525,0.46
2021-08-19 04:47:53.300,0.585,0.495
2021-08-19 04:47:53.304,0.61,0.515
2021-08-19 04:47:53.308,0.63,0.535
2021-08-19 04:47:53.312,0.64,0.615
2021-08-19 04:47:53.316,0.645,0.67
2021-08-19 04:47:53.320,0.63,0.645
2021-08-19 04:47:53.324,0.69,0.675
2021-08-19 04:47:53.328,0.7,0.705
2021-08-19 04:47:53.332,0.74,0.745
2021-08-19 04:47:53.336,0.75,0.78
2021-08-19 04:47:53.340,0.715,0.805
2021-08-19 04:47:53.344,0.675,0.81
2021-08-19 04:47:53.348,0.65,0.825
2021-08-19 04:47:53.352,0.6,0.825
2021-08-19 04:47:53.356,0.585,0.815
2021-08-19 04:47:53.360,0.535,0.805
2021-08-19 04:47:53.364,0.465,0.825
2021-08-19 04:47:53.368,0.415,0.8
2021-08-19 04:47:53.372,0.38,0.79
2021-08-19 04:47:53.376,0.35,0.78
2021-08-19 04:47:53.380,0.295,0.795
2021-08-19 04:47:53.384,0.22,0.735
2021-08-19 04:47:53.388,0.155,0.725
2021-08-19 04:47:53.392,0.11,0.68
2021-08-19 04:47:53.396,0.045,0.66
2021-08-19 04:47:53.400,0.025,0.65
2021-08-19 04:47:53.404,-0.025,0.65
2021-08-19 04:47:53.408,-0.06,0.58
2021-08-19 04:47:53.412,-0.115,0.535
2021-08-19 04:47:53.416,-0.155,0.52
2021-08-19 04:47:53.420,-0.17,0.51
2021-08-19 04:47:53.424,-0.2,0.48
2021-08-19 04:47:53.428,-0.26,0.46
2021-08-19 04:47:53.432,-0.275,0.39
2021-08-19 04:47:53.436,-0.255,0.41
2021-08-19 04:47:53.440,-0.305,0.355
2021-08-19 04:47:53.444,-0.285,0.345
2021-08-19 04:47:53.448,-0.29,0.32
2021-08-19 04:47:53.452,-0.32,0.325
2021-08-19 04:47:53.456,-0.3,0.315
2021-08-19 04:47:53.460,-0.295,0.275
2021-08-19 04:47:53.464,-0.315,0.275
2021-08-19 04:47:53.468,-0.335,0.275
2021-08-19 04:47:53.472,-0.34,0.24
2021-08-19 04:47:53.476,-0.385,0.265
2021-08-19 04:47:53.480,-0.345,0.225
2021-08-19 04:47:53.484,-0.32,0.15
2021-08-19 04:47:53.488,-0.32,0.05
2021-08-19 04:47:53.492,-0.385,-0.045
2021-08-19 04:47:53.496,-0.51,-0.18
2021-08-19 04:47:53.500,-0.705,-0.305
2021-08-19 04:47:53.504,-1.12,-0.29
2021-08-19 04:47:53.508,-1.74,-0.28
2021-08-19 04:47:53.576,-1.79,-1.81
2021-08-19 04:47:53.580,-1.235,-1.27
2021-08-19 04:47:53.584,-0.755,-0.82
2021-08-19 04:47:53.588,-0.42,-0.45
2021-08-19 04:47:53.592,-0.175,-0.135
2021-08-19 04:47:53.596,-0.075,0.085
2021-08-19 04:47:53.600,0.015,0.235
2021-08-19 04:47:53.604,0.055,0.305
2021-08-19 04:47:53.608,0.095,0.31
2021-08-19 04:47:53.612,0.085,0.34
2021-08-19 04:47:53.616,0.125,0.35
2021-08-19 04:47:53.620,0.145,0.345
2021-08-19 04:47:53.624,0.175,0.34
2021-08-19 04:47:53.628,0.19,0.345
2021-08-19 04:47:53.632,0.22,0.375
2021-08-19 04:47:53.636,0.235,0.36
2021-08-19 04:47:53.640,0.26,0.385
2021-08-19 04:47:53.644,0.275,0.425
2021-08-19 04:47:53.648,0.275,0.4
2021-08-19 04:47:53.652,0.265,0.405
2021-08-19 04:47:53.656,0.295,0.435
2021-08-19 04:47:53.660,0.345,0.43
2021-08-19 04:47:53.664,0.375,0.445
2021-08-19 04:47:53.668,0.38,0.48
2021-08-19 04:47:53.672,0.405,0.49
2021-08-19 04:47:53.676,0.445,0.515
2021-08-19 04:47:53.680,0.49,0.56
2021-08-19 04:47:53.684,0.515,0.605
2021-08-19 04:47:53.688,0.58,0.69
2021-08-19 04:47:53.692,0.575,0.685
2021-08-19 04:47:53.696,0.635,0.74
2021-08-19 04:47:53.700,0.68,0.765
2021-08-19 04:47:53.704,0.72,0.795
2021-08-19 04:47:53.708,0.815,0.87
2021-08-19 04:47:53.712,0.885,0.92
2021-08-19 04:47:53.716,0.935,0.99
2021-08-19 04:47:53.720,0.95,1.05
2021-08-19 04:47:53.724,1.02,1.105
2021-08-19 04:47:53.728,1.06,1.11
2021-08-19 04:47:53.732,1.135,1.13
2021-08-19 04:47:53.736,1.135,1.185
2021-08-19 04:47:53.740,1.155,1.23
2021-08-19 04:47:53.744,1.17,1.245
2021-08-19 04:47:53.748,1.195,1.3
2021-08-19 04:47:53.752,1.175,1.32
2021-08-19 04:47:53.756,1.195,1.31
2021-08-19 04:47:53.760,1.21,1.35
2021-08-19 04:47:53.764,1.205,1.405
2021-08-19 04:47:53.768,1.16,1.42
2021-08-19 04:47:53.772,1.135,1.45
2021-08-19 04:47:53.776,1.08,1.42
2021-08-19 04:47:53.780,1.02,1.42
2021-08-19 04:47:53.784,0.98,1.355
2021-08-19 04:47:53.788,0.92,1.34
2021-08-19 04:47:53.792,0.85,1.3
2021-08-19 04:47:53.796,0.815,1.23
2021-08-19 04:47:53.800,0.74,1.21
2021-08-19 04:47:53.804,0.655,1.145
2021-08-19 04:47:53.808,0.605,1.135
2021-08-19 04:47:53.812,0.545,1.075
2021-08-19 04:47:53.816,0.49,1.05
2021-08-19 04:47:53.820,0.415,1.015
2021-08-19 04:47:53.824,0.365,0.97
2021-08-19 04:47:53.828,0.31,0.935
2021-08-19 04:47:53.832,0.295,0.875
2021-08-19 04:47:53.836,0.2,0.86
2021-08-19 04:47:53.840,0.145,0.83
2021-08-19 04:47:53.844,0.08,0.755
2021-08-19 04:47:53.848,0.04,0.71
2021-08-19 04:47:53.852,0.025,0.67
2021-08-19 04:47:53.856,-0.01,0.63
2021-08-19 04:47:53.860,-0.045,0.61
2021-08-19 04:47:53.864,-0.08,0.585
2021-08-19 04:47:53.868,-0.11,0.51
2021-08-19 04:47:53.872,-0.135,0.48
2021-08-19 04:47:53.876,-0.15,0.445
2021-08-19 04:47:53.880,-0.18,0.42
2021-08-19 04:47:53.884,-0.21,0.365
2021-08-19 04:47:53.888,-0.235,0.35
2021-08-19 04:47:53.892,-0.25,0.315
2021-08-19 04:47:53.896,-0.24,0.305
2021-08-19 04:47:53.900,-0.255,0.255
2021-08-19 04:47:53.904,-0.28,0.25
2021-08-19 04:47:53.908,-0.335,0.25
2021-08-19 04:47:53.912,-0.365,0.195
2021-08-19 04:47:53.916,-0.365,0.18
2021-08-19 04:47:53.920,-0.385,0.065
2021-08-19 04:47:53.924,-0.505,-0.02
2021-08-19 04:47:53.928,-0.65,-0.21
2021-08-19 04:47:53.932,-0.675,-0.465
2021-08-19 04:47:53.936,-0.915,-0.57
2021-08-19 04:47:53.940,-1.425,-0.555
2021-08-19 04:47:53.944,-1.805,-0.625
2021-08-19 04:47:54.000,-1.9,-1.34
2021-08-19 04:47:54.004,-1.49,-0.95
2021-08-19 04:47:54.008,-1.03,-0.68
2021-08-19 04:47:54.012,-0.705,-0.415
2021-08-19 04:47:54.016,-0.465,-0.165
2021-08-19 04:47:54.020,-0.34,0.04
2021-08-19 04:47:54.024,-0.285,0.14
2021-08-19 04:47:54.028,-0.265,0.14
2021-08-19 04:47:54.032,-0.23,0.125
2021-08-19 04:47:54.036,-0.215,0.125
2021-08-19 04:47:54.040,-0.18,0.11
2021-08-19 04:47:54.044,-0.17,0.07
2021-08-19 04:47:54.048,-0.13,0.1
2021-08-19 04:47:54.052,-0.15,0.09
2021-08-19 04:47:54.056,-0.11,0.09
2021-08-19 04:47:54.060,-0.085,0.105
2021-08-19 04:47:54.064,-0.09,0.1
2021-08-19 04:47:54.068,-0.075,0.07
2021-08-19 04:47:54.072,-0.09,0.105
2021-08-19 04:47:54.076,-0.07,0.11
2021-08-19 04:47:54.080,-0.065,0.11
2021-08-19 04:47:54.084,-0.06,0.075
2021-08-19 04:47:54.088,-0.11,0.08
2021-08-19 04:47:54.092,-0.1,0.08
2021-08-19 04:47:54.096,-0.11,0.09
2021-08-19 04:47:54.100,-0.1,0.09
2021-08-19 04:47:54.104,-0.065,0.11
2021-08-19 04:47:54.108,-0.05,0.14
2021-08-19 04:47:54.112,-0.06,0.13
2021-08-19 04:47:54.116,-0.02,0.155
2021-08-19 04:47:54.120,-0.02,0.185
2021-08-19 04:47:54.124,0.015,0.23
2021-08-19 04:47:54.128,0.045,0.225
2021-08-19 04:47:54.132,0.07,0.17
2021-08-19 04:47:54.136,0.09,0.215
2021-08-19 04:47:54.140,0.155,0.23
2021-08-19 04:47:54.144,0.22,0.305
2021-08-19 04:47:54.148,0.245,0.33
2021-08-19 04:47:54.152,0.28,0.395
2021-08-19 04:47:54.156,0.31,0.425
2021-08-19 04:47:54.160,0.355,0.47
2021-08-19 04:47:54.164,0.43,0.47
2021-08-19 04:47:54.168,0.47,0.465
2021-08-19 04:47:54.172,0.49,0.53
2021-08-19 04:47:54.176,0.51,0.53
2021-08-19 04:47:54.180,0.51,0.595
2021-08-19 04:47:54.184,0.51,0.6
2021-08-19 04:47:54.188,0.495,0.64
2021-08-19 04:47:54.192,0.54,0.66
2021-08-19 04:47:54.196,0.555,0.68
2021-08-19 04:47:54.200,0.53,0.76
2021-08-19 04:47:54.204,0.545,0.75
2021-08-19 04:47:54.208,0.555,0.785
2021-08-19 04:47:54.212,0.51,0.735
2021-08-19 04:47:54.216,0.435,0.745
2021-08-19 04:47:54.220,0.41,0.745
2021-08-19 04:47:54.224,0.38,0.745
2021-08-19 04:47:54.228,0.34,0.71
2021-08-19 04:47:54.232,0.295,0.675
2021-08-19 04:47:54.236,0.225,0.675
2021-08-19 04:47:54.240,0.16,0.64
2021-08-19 04:47:54.244,0.11,0.63
2021-08-19 04:47:54.248,0.045,0.63
2021-08-19 04:47:54.252,-0.005,0.585
2021-08-19 04:47:54.256,-0.06,0.55
2021-08-19 04:47:54.260,-0.09,0.525
2021-08-19 04:47:54.264,-0.12,0.49
2021-08-19 04:47:54.268,-0.17,0.485
2021-08-19 04:47:54.272,-0.2,0.43
2021-08-19 04:47:54.276,-0.245,0.395
2021-08-19 04:47:54.280,-0.285,0.385
2021-08-19 04:47:54.284,-0.31,0.38
2021-08-19 04:47:54.288,-0.3,0.335
2021-08-19 04:47:54.292,-0.33,0.31
2021-08-19 04:47:54.296,-0.35,0.31
2021-08-19 04:47:54.300,-0.39,0.26
2021-08-19 04:47:54.304,-0.375,0.245
2021-08-19 04:47:54.308,-0.36,0.22
2021-08-19 04:47:54.312,-0.37,0.215
2021-08-19 04:47:54.316,-0.385,0.19
2021-08-19 04:47:54.320,-0.4,0.195
2021-08-19 04:47:54.324,-0.4,0.195
2021-08-19 04:47:54.328,-0.365,0.165
2021-08-19 04:47:54.332,-0.38,0.165
2021-08-19 04:47:54.336,-0.415,0.15
2021-08-19 04:47:54.340,-0.42,0.16
2021-08-19 04:47:54.344,-0.395,0.135
2021-08-19 04:47:54.348,-0.355,0.045
2021-08-19 04:47:54.352,-0.385,-0.065
2021-08-19 04:47:54.356,-0.45,-0.115
2021-08-19 04:47:54.360,-0.62,-0.25
2021-08-19 04:47:54.364,-0.9,-0.38
2021-08-19 04:47:54.368,-1.405,-0.285
2021-08-19 04:47:54.440,-1.58,-1.64
2021-08-19 04:47:54.444,-1.045,-1.085
2021-08-19 04:47:54.448,-0.605,-0.65
2021-08-19 04:47:54.452,-0.275,-0.28
2021-08-19 04:47:54.456,-0.085,-0.02
2021-08-19 04:47:54.460,-0.025,0.215
2021-08-19 04:47:54.464,0.005,0.315
2021-08-19 04:47:54.468,0.04,0.355
2021-08-19 04:47:54.472,0.105,0.365
2021-08-19 04:47:54.476,0.13,0.365
2021-08-19 04:47:54.480,0.14,0.365
2021-08-19 04:47:54.484,0.155,0.35
2021-08-19 04:47:54.488,0.19,0.395
2021-08-19 04:47:54.492,0.235,0.37
2021-08-19 04:47:54.496,0.27,0.38
2021-08-19 04:47:54.500,0.24,0.405
2021-08-19 04:47:54.504,0.27,0.455
2021-08-19 04:47:54.508,0.28,0.465
2021-08-19 04:47:54.512,0.3,0.485
2021-08-19 04:47:54.516,0.315,0.5
2021-08-19 04:47:54.520,0.34,0.5
2021-08-19 04:47:54.524,0.36,0.52
2021-08-19 04:47:54.528,0.35,0.53
2021-08-19 04:47:54.532,0.4,0.585
2021-08-19 04:47:54.536,0.435,0.58
2021-08-19 04:47:54.540,0.475,0.615
2021-08-19 04:47:54.544,0.475,0.66
2021-08-19 04:47:54.548,0.53,0.725
2021-08-19 04:47:54.552,0.555,0.79
2021-08-19 04:47:54.556,0.6,0.77
2021-08-19 04:47:54.560,0.65,0.815
2021-08-19 04:47:54.564,0.7,0.83
2021-08-19 04:47:54.568,0.77,0.91
2021-08-19 04:47:54.572,0.805,0.99
2021-08-19 04:47:54.576,0.845,1.025
2021-08-19 04:47:54.580,0.925,1.095
2021-08-19 04:47:54.584,0.97,1.16
2021-08-19 04:47:54.588,1.01,1.185
2021-08-19 04:47:54.592,1.015,1.205
2021-08-19 04:47:54.596,1.075,1.26
2021-08-19 04:47:54.600,1.13,1.235
2021-08-19 04:47:54.604,1.14,1.295
2021-08-19 04:47:54.608,1.11,1.345
2021-08-19 04:47:54.612,1.11,1.37
2021-08-19 04:47:54.616,1.12,1.45
2021-08-19 04:47:54.620,1.165,1.415
2021-08-19 04:47:54.624,1.155,1.465
2021-08-19 04:47:54.628,1.13,1.49
2021-08-19 04:47:54.632,1.09,1.525
2021-08-19 04:47:54.636,1.055,1.505
2021-08-19 04:47:54.640,1.035,1.46
2021-08-19 04:47:54.644,0.93,1.42
2021-08-19 04:47:54.648,0.9,1.39
2021-08-19 04:47:54.652,0.805,1.35
2021-08-19 04:47:54.656,0.76,1.3
2021-08-19 04:47:54.660,0.675,1.25
2021-08-19 04:47:54.664,0.66,1.205
2021-08-19 04:47:54.668,0.57,1.165
2021-08-19 04:47:54.672,0.49,1.11
2021-08-19 04:47:54.676,0.46,1.085
2021-08-19 04:47:54.680,0.4,1.045
2021-08-19 04:47:54.684,0.35,1.0
2021-08-19 04:47:54.688,0.28,0.965
2021-08-19 04:47:54.692,0.215,0.88
2021-08-19 04:47:54.696,0.17,0.9
2021-08-19 04:47:54.700,0.13,0.84
2021-08-19 04:47:54.704,0.09,0.78
2021-08-19 04:47:54.708,0.03,0.77
2021-08-19 04:47:54.712,-0.015,0.685
2021-08-19 04:47:54.716,-0.055,0.66
2021-08-19 04:47:54.720,-0.055,0.635
2021-08-19 04:47:54.724,-0.1,0.635
2021-08-19 04:47:54.728,-0.13,0.565
2021-08-19 04:47:54.732,-0.165,0.55
2021-08-19 04:47:54.736,-0.17,0.485
2021-08-19 04:47:54.740,-0.2,0.48
2021-08-19 04:47:54.744,-0.2,0.43
2021-08-19 04:47:54.748,-0.235,0.4
2021-08-19 04:47:54.752,-0.26,0.345
2021-08-19 04:47:54.756,-0.26,0.345
2021-08-19 04:47:54.760,-0.255,0.29
2021-08-19 04:47:54.764,-0.28,0.255
2021-08-19 04:47:54.768,-0.335,0.265
2021-08-19 04:47:54.772,-0.355,0.26
2021-08-19 04:47:54.776,-0.35,0.23
2021-08-19 04:47:54.780,-0.365,0.145
2021-08-19 04:47:54.784,-0.485,0.02
2021-08-19 04:47:54.788,-0.585,-0.18
2021-08-19 04:47:54.792,-0.73,-0.42
2021-08-19 04:47:54.796,-1.135,-0.465
2021-08-19 04:47:54.800,-1.7,-0.475
2021-08-19 04:47:54.864,-1.525,-0.96
2021-08-19 04:47:54.868,-1.04,-0.67
2021-08-19 04:47:54.872,-0.7,-0.39
2021-08-19 04:47:54.876,-0.47,-0.13
2021-08-19 04:47:54.880,-0.315,0.07
2021-08-19 04:47:54.884,-0.275,0.15
2021-08-19 04:47:54.888,-0.205,0.195
2021-08-19 04:47:54.892,-0.175,0.215
2021-08-19 04:47:54.896,-0.15,0.225
2021-08-19 04:47:54.900,-0.135,0.205
2021-08-19 04:47:54.904,-0.12,0.19
2021-08-19 04:47:54.908,-0.1,0.215
2021-08-19 04:47:54.912,-0.095,0.17
2021-08-19 04:47:54.916,-0.085,0.165
2021-08-19 04:47:54.920,-0.08,0.18
2021-08-19 04:47:54.924,-0.065,0.185
2021-08-19 04:47:54.928,-0.075,0.155
2021-08-19 04:47:54.932,-0.05,0.135
2021-08-19 04:47:54.936,-0.055,0.16
2021-08-19 04:47:54.940,-0.055,0.205
2021-08-19 04:47:54.944,-0.08,0.175
2021-08-19 04:47:54.948,-0.05,0.18
2021-08-19 04:47:54.952,-0.085,0.155
2021-08-19 04:47:54.956,-0.03,0.165
2021-08-19 04:47:54.960,-0.055,0.17
2021-08-19 04:47:54.964,-0.065,0.16
2021-08-19 04:47:54.968,-0.02,0.2
2021-08-19 04:47:54.972,0.03,0.185
2021-08-19 04:47:54.976,0.025,0.25
2021-08-19 04:47:54.980,0.04,0.275
2021-08-19 04:47:54.984,0.035,0.31
2021-08-19 04:47:54.988,0.095,0.29
2021-08-19 04:47:54.992,0.115,0.3
2021-08-19 04:47:54.996,0.18,0.315
2021-08-19 04:47:55.000,0.2,0.34
2021-08-19 04:47:55.004,0.225,0.38
2021-08-19 04:47:55.008,0.28,0.445
2021-08-19 04:47:55.012,0.32,0.485
2021-08-19 04:47:55.016,0.385,0.51
2021-08-19 04:47:55.020,0.415,0.52
2021-08-19 04:47:55.024,0.45,0.545
2021-08-19 04:47:55.028,0.53,0.575
2021-08-19 04:47:55.032,0.53,0.625
2021-08-19 04:47:55.036,0.565,0.68
2021-08-19 04:47:55.040,0.555,0.7
2021-08-19 04:47:55.044,0.53,0.72
2021-08-19 04:47:55.048,0.54,0.745
2021-08-19 04:47:55.052,0.57,0.8
2021-08-19 04:47:55.056,0.615,0.81
2021-08-19 04:47:55.060,0.57,0.86
2021-08-19 04:47:55.064,0.58,0.84
2021-08-19 04:47:55.068,0.57,0.87
2021-08-19 04:47:55.072,0.52,0.825
2021-08-19 04:47:55.076,0.46,0.81
2021-08-19 04:47:55.080,0.44,0.795
2021-08-19 04:47:55.084,0.375,0.78
2021-08-19 04:47:55.088,0.33,0.775
2021-08-19 04:47:55.092,0.28,0.76
2021-08-19 04:47:55.096,0.215,0.715
2021-08-19 04:47:55.100,0.16,0.68
2021-08-19 04:47:55.104,0.08,0.675
2021-08-19 04:47:55.108,0.055,0.615
2021-08-19 04:47:55.112,0.0,0.59
2021-08-19 04:47:55.116,-0.06,0.575
2021-08-19 04:47:55.120,-0.125,0.555
2021-08-19 04:47:55.124,-0.16,0.535
2021-08-19 04:47:55.128,-0.19,0.515
2021-08-19 04:47:55.132,-0.215,0.49
2021-08-19 04:47:55.136,-0.25,0.44
2021-08-19 04:47:55.140,-0.3,0.44
2021-08-19 04:47:55.144,-0.31,0.4
2021-08-19 04:47:55.148,-0.35,0.405
2021-08-19 04:47:55.152,-0.32,0.345
2021-08-19 04:47:55.156,-0.345,0.335
2021-08-19 04:47:55.160,-0.38,0.31
2021-08-19 04:47:55.164,-0.39,0.29
2021-08-19 04:47:55.168,-0.39,0.28
2021-08-19 04:47:55.172,-0.405,0.27
2021-08-19 04:47:55.176,-0.42,0.27
2021-08-19 04:47:55.180,-0.425,0.23
2021-08-19 04:47:55.184,-0.42,0.215
2021-08-19 04:47:55.188,-0.44,0.205
2021-08-19 04:47:55.192,-0.43,0.17
2021-08-19 04:47:55.196,-0.425,0.21
2021-08-19 04:47:55.200,-0.415,0.17
2021-08-19 04:47:55.204,-0.4,0.115
2021-08-19 04:47:55.208,-0.425,0.02
2021-08-19 04:47:55.212,-0.495,-0.065
2021-08-19 04:47:55.216,-0.625,-0.245
2021-08-19 04:47:55.220,-0.855,-0.355
2021-08-19 04:47:55.224,-1.345,-0.31
2021-08-19 04:47:55.228,-1.99,-0.325
2021-08-19 04:47:55.296,-1.905,-1.8
2021-08-19 04:47:55.300,-1.355,-1.23
2021-08-19 04:47:55.304,-0.845,-0.775
2021-08-19 04:47:55.308,-0.49,-0.375
2021-08-19 04:47:55.312,-0.23,-0.06
2021-08-19 04:47:55.316,-0.08,0.195
2021-08-19 04:47:55.320,-0.06,0.325
2021-08-19 04:47:55.324,-0.01,0.395
2021-08-19 04:47:55.328,0.005,0.37
2021-08-19 04:47:55.332,0.02,0.41
2021-08-19 04:47:55.336,0.05,0.4
2021-08-19 04:47:55.340,0.115,0.415
2021-08-19 04:47:55.344,0.125,0.41
2021-08-19 04:47:55.348,0.155,0.455
2021-08-19 04:47:55.352,0.17,0.455
2021-08-19 04:47:55.356,0.21,0.47
2021-08-19 04:47:55.360,0.205,0.485
2021-08-19 04:47:55.364,0.245,0.465
2021-08-19 04:47:55.368,0.24,0.49
2021-08-19 04:47:55.372,0.23,0.51
2021-08-19 04:47:55.376,0.235,0.57
2021-08-19 04:47:55.380,0.3,0.515
2021-08-19 04:47:55.384,0.34,0.51
2021-08-19 04:47:55.388,0.345,0.55
2021-08-19 04:47:55.392,0.365,0.605
2021-08-19 04:47:55.396,0.385,0.635
2021-08-19 04:47:55.400,0.435,0.615
2021-08-19 04:47:55.404,0.475,0.68
2021-08-19 04:47:55.408,0.51,0.74
2021-08-19 04:47:55.412,0.525,0.79
2021-08-19 04:47:55.416,0.565,0.835
2021-08-19 04:47:55.420,0.62,0.855
2021-08-19 04:47:55.424,0.68,0.865
2021-08-19 04:47:55.428,0.735,0.92
2021-08-19 04:47:55.432,0.815,0.99
2021-08-19 04:47:55.436,0.865,1.07
2021-08-19 04:47:55.440,0.91,1.15
2021-08-19 04:47:55.444,0.975,1.19
2021-08-19 04:47:55.448,1.0,1.24
2021-08-19 04:47:55.452,1.05,1.24
2021-08-19 04:47:55.456,1.08,1.265
2021-08-19 04:47:55.460,1.095,1.305
2021-08-19 04:47:55.464,1.125,1.385
2021-08-19 04:47:55.468,1.155,1.415
2021-08-19 04:47:55.472,1.105,1.41
2021-08-19 04:47:55.476,1.1,1.435
2021-08-19 04:47:55.480,1.135,1.455
2021-08-19 04:47:55.484,1.12,1.475
2021-08-19 04:47:55.488,1.135,1.505
2021-08-19 04:47:55.492,1.095,1.49
2021-08-19 04:47:55.496,1.055,1.525
2021-08-19 04:47:55.500,1.015,1.51
2021-08-19 04:47:55.504,0.97,1.465
2021-08-19 04:47:55.508,0.905,1.425
2021-08-19 04:47:55.512,0.865,1.42
2021-08-19 04:47:55.516,0.77,1.355
2021-08-19 04:47:55.520,0.715,1.355
2021-08-19 04:47:55.524,0.65,1.305
2021-08-19 04:47:55.528,0.605,1.23
2021-08-19 04:47:55.532,0.54,1.195
2021-08-19 04:47:55.536,0.475,1.185
2021-08-19 04:47:55.540,0.395,1.13
2021-08-19 04:47:55.544,0.355,1.095
2021-08-19 04:47:55.548,0.325,1.06
2021-08-19 04:47:55.552,0.245,1.01
2021-08-19 04:47:55.556,0.185,0.96
2021-08-19 04:47:55.560,0.11,0.95
2021-08-19 04:47:55.564,0.095,0.87
2021-08-19 04:47:55.568,0.045,0.84
2021-08-19 04:47:55.572,0.01,0.765
2021-08-19 04:47:55.576,-0.055,0.75
2021-08-19 04:47:55.580,-0.085,0.725
2021-08-19 04:47:55.584,-0.11,0.67
2021-08-19 04:47:55.588,-0.12,0.655
2021-08-19 04:47:55.592,-0.135,0.615
2021-08-19 04:47:55.596,-0.145,0.59
2021-08-19 04:47:55.600,-0.19,0.545
2021-08-19 04:47:55.604,-0.2,0.53
2021-08-19 04:47:55.608,-0.2,0.505
