Time,ECG1,ECG2
2021-08-01 00:10:26.248,-0.545,-0.35
2021-08-01 00:10:26.252,-0.545,-0.35
2021-08-01 00:10:26.256,-0.585,-0.35
2021-08-01 00:10:26.260,-0.605,-0.38
2021-08-01 00:10:26.264,-0.545,-0.39
2021-08-01 00:10:26.268,-0.54,-0.385
2021-08-01 00:10:26.272,-0.57,-0.365
2021-08-01 00:10:26.276,-0.54,-0.37
2021-08-01 00:10:26.280,-0.545,-0.36
2021-08-01 00:10:26.284,-0.54,-0.34
2021-08-01 00:10:26.288,-0.565,-0.38
2021-08-01 00:10:26.292,-0.56,-0.375
2021-08-01 00:10:26.296,-0.61,-0.355
2021-08-01 00:10:26.300,-0.62,-0.36
2021-08-01 00:10:26.304,-0.6,-0.35
2021-08-01 00:10:26.308,-0.59,-0.355
2021-08-01 00:10:26.312,-0.6,-0.32
2021-08-01 00:10:26.316,-0.6,-0.32
2021-08-01 00:10:26.320,-0.57,-0.32
2021-08-01 00:10:26.324,-0.56,-0.285
2021-08-01 00:10:26.328,-0.57,-0.285
2021-08-01 00:10:26.332,-0.575,-0.265
2021-08-01 00:10:26.336,-0.6,-0.27
2021-08-01 00:10:26.340,-0.615,-0.255
2021-08-01 00:10:26.344,-0.625,-0.22
2021-08-01 00:10:26.348,-0.64,-0.205
2021-08-01 00:10:26.352,-0.66,-0.215
2021-08-01 00:10:26.356,-0.66,-0.195
2021-08-01 00:10:26.360,-0.645,-0.185
2021-08-01 00:10:26.364,-0.665,-0.17
2021-08-01 00:10:26.368,-0.685,-0.15
2021-08-01 00:10:26.372,-0.705,-0.155
2021-08-01 00:10:26.376,-0.72,-0.145
2021-08-01 00:10:26.380,-0.725,-0.15
2021-08-01 00:10:26.384,-0.745,-0.135
2021-08-01 00:10:26.388,-0.77,-0.135
2021-08-01 00:10:26.392,-0.755,-0.105
2021-08-01 00:10:26.396,-0.77,-0.085
2021-08-01 00:10:26.400,-0.805,-0.065
2021-08-01 00:10:26.404,-0.8,-0.05
2021-08-01 00:10:26.408,-0.845,-0.04
2021-08-01 00:10:26.412,-0.86,-0.06
2021-08-01 00:10:26.416,-0.885,-0.03
2021-08-01 00:10:26.420,-0.9,0.0
2021-08-01 00:10:26.424,-0.89,0.005
2021-08-01 00:10:26.428,-0.91,0.04
2021-08-01 00:10:26.432,-0.855,0.04
2021-08-01 00:10:26.436,-0.805,0.07
2021-08-01 00:10:26.440,-0.71,0.035
2021-08-01 00:10:26.444,-0.625,0.055
2021-08-01 00:10:26.448,-0.51,0.06
2021-08-01 00:10:26.452,-0.455,0.055
2021-08-01 00:10:26.456,-0.44,0.01
2021-08-01 00:10:26.460,-0.455,-0.015
2021-08-01 00:10:26.464,-0.495,0.005
2021-08-01 00:10:26.468,-0.555,0.025
2021-08-01 00:10:26.472,-0.585,0.0
2021-08-01 00:10:26.476,-0.495,-0.075
2021-08-01 00:10:26.480,-0.27,-0.215
2021-08-01 00:10:26.484,0.05,-0.44
2021-08-01 00:10:26.488,0.34,-0.72
2021-08-01 00:10:26.492,0.5,-0.99
2021-08-01 00:10:26.496,0.42,-1.045
2021-08-01 00:10:26.500,0.07,-0.89
2021-08-01 00:10:26.504,-0.365,-0.53
2021-08-01 00:10:26.508,-0.65,-0.17
2021-08-01 00:10:26.512,-0.795,0.095
2021-08-01 00:10:26.516,-0.845,0.225
2021-08-01 00:10:26.520,-0.88,0.26
2021-08-01 00:10:26.524,-0.935,0.27
2021-08-01 00:10:26.528,-0.925,0.27
2021-08-01 00:10:26.532,-0.925,0.245
2021-08-01 00:10:26.536,-0.935,0.235
2021-08-01 00:10:26.540,-0.93,0.255
2021-08-01 00:10:26.544,-0.925,0.215
2021-08-01 00:10:26.548,-0.91,0.2
2021-08-01 00:10:26.552,-0.905,0.225
2021-08-01 00:10:26.556,-0.925,0.195
2021-08-01 00:10:26.560,-0.915,0.22
2021-08-01 00:10:26.564,-0.92,0.225
2021-08-01 00:10:26.568,-0.945,0.25
2021-08-01 00:10:26.572,-0.94,0.245
2021-08-01 00:10:26.576,-0.93,0.245
2021-08-01 00:10:26.580,-0.945,0.25
2021-08-01 00:10:26.584,-0.95,0.245
2021-08-01 00:10:26.588,-0.96,0.275
2021-08-01 00:10:26.592,-0.975,0.25
2021-08-01 00:10:26.596,-1.01,0.255
2021-08-01 00:10:26.600,-1.03,0.275
2021-08-01 00:10:26.604,-1.07,0.285
2021-08-01 00:10:26.608,-1.1,0.29
2021-08-01 00:10:26.612,-1.1,0.295
2021-08-01 00:10:26.616,-1.1,0.29
2021-08-01 00:10:26.620,-1.13,0.285
2021-08-01 00:10:26.624,-1.13,0.29
2021-08-01 00:10:26.628,-1.115,0.315
2021-08-01 00:10:26.632,-1.135,0.31
2021-08-01 00:10:26.636,-1.13,0.305
2021-08-01 00:10:26.640,-1.12,0.295
2021-08-01 00:10:26.644,-1.075,0.29
2021-08-01 00:10:26.648,-1.035,0.27
2021-08-01 00:10:26.652,-1.015,0.275
2021-08-01 00:10:26.656,-1.005,0.265
2021-08-01 00:10:26.660,-0.98,0.24
2021-08-01 00:10:26.664,-0.98,0.235
2021-08-01 00:10:26.668,-1.0,0.23
2021-08-01 00:10:26.672,-0.98,0.235
2021-08-01 00:10:26.676,-0.985,0.19
2021-08-01 00:10:26.680,-0.98,0.195
2021-08-01 00:10:26.684,-0.97,0.2
2021-08-01 00:10:26.688,-0.935,0.185
2021-08-01 00:10:26.692,-0.945,0.185
2021-08-01 00:10:26.696,-0.965,0.175
2021-08-01 00:10:26.700,-0.96,0.17
2021-08-01 00:10:26.704,-0.95,0.15
2021-08-01 00:10:26.708,-0.94,0.155
2021-08-01 00:10:26.712,-0.925,0.155
2021-08-01 00:10:26.716,-0.945,0.15
2021-08-01 00:10:26.720,-0.9,0.14
2021-08-01 00:10:26.724,-0.865,0.12
2021-08-01 00:10:26.728,-0.875,0.105
2021-08-01 00:10:26.732,-0.865,0.105
2021-08-01 00:10:26.736,-0.855,0.095
2021-08-01 00:10:26.740,-0.825,0.12
2021-08-01 00:10:26.744,-0.805,0.105
2021-08-01 00:10:26.748,-0.78,0.125
2021-08-01 00:10:26.752,-0.755,0.12
2021-08-01 00:10:26.756,-0.755,0.155
2021-08-01 00:10:26.760,-0.73,0.155
2021-08-01 00:10:26.764,-0.695,0.18
2021-08-01 00:10:26.768,-0.66,0.175
2021-08-01 00:10:26.772,-0.66,0.175
2021-08-01 00:10:26.776,-0.665,0.19
2021-08-01 00:10:26.780,-0.65,0.21
2021-08-01 00:10:26.784,-0.65,0.215
2021-08-01 00:10:26.788,-0.65,0.215
2021-08-01 00:10:26.792,-0.675,0.235
2021-08-01 00:10:26.796,-0.695,0.24
2021-08-01 00:10:26.800,-0.72,0.25
2021-08-01 00:10:26.804,-0.72,0.25
2021-08-01 00:10:26.808,-0.755,0.265
2021-08-01 00:10:26.812,-0.775,0.235
2021-08-01 00:10:26.816,-0.775,0.25
2021-08-01 00:10:26.820,-0.79,0.26
2021-08-01 00:10:26.824,-0.785,0.27
2021-08-01 00:10:26.828,-0.76,0.285
2021-08-01 00:10:26.832,-0.74,0.27
2021-08-01 00:10:26.836,-0.68,0.265
2021-08-01 00:10:26.840,-0.585,0.235
2021-08-01 00:10:26.844,-0.48,0.235
2021-08-01 00:10:26.848,-0.405,0.22
2021-08-01 00:10:26.852,-0.355,0.175
2021-08-01 00:10:26.856,-0.32,0.135
2021-08-01 00:10:26.860,-0.275,0.135
2021-08-01 00:10:26.864,-0.285,0.175
2021-08-01 00:10:26.868,-0.32,0.145
2021-08-01 00:10:26.872,-0.285,0.11
2021-08-01 00:10:26.876,-0.085,0.04
2021-08-01 00:10:26.880,0.255,-0.13
2021-08-01 00:10:26.884,0.54,-0.385
2021-08-01 00:10:26.888,0.68,-0.645
2021-08-01 00:10:26.892,0.555,-0.785
2021-08-01 00:10:26.896,0.19,-0.7
2021-08-01 00:10:26.900,-0.205,-0.42
2021-08-01 00:10:26.904,-0.47,-0.12
2021-08-01 00:10:26.908,-0.615,0.075
2021-08-01 00:10:26.912,-0.675,0.195
2021-08-01 00:10:26.916,-0.735,0.275
2021-08-01 00:10:26.920,-0.77,0.295
2021-08-01 00:10:26.924,-0.785,0.285
2021-08-01 00:10:26.928,-0.8,0.255
2021-08-01 00:10:26.932,-0.84,0.245
2021-08-01 00:10:26.936,-0.845,0.22
2021-08-01 00:10:26.940,-0.865,0.175
2021-08-01 00:10:26.944,-0.845,0.16
2021-08-01 00:10:26.948,-0.84,0.135
2021-08-01 00:10:26.952,-0.825,0.155
2021-08-01 00:10:26.956,-0.8,0.155
2021-08-01 00:10:26.960,-0.815,0.16
2021-08-01 00:10:26.964,-0.805,0.135
2021-08-01 00:10:26.968,-0.825,0.165
2021-08-01 00:10:26.972,-0.82,0.18
2021-08-01 00:10:26.976,-0.815,0.18
2021-08-01 00:10:26.980,-0.8,0.2
2021-08-01 00:10:26.984,-0.785,0.22
2021-08-01 00:10:26.988,-0.785,0.2
2021-08-01 00:10:26.992,-0.795,0.225
2021-08-01 00:10:26.996,-0.795,0.24
2021-08-01 00:10:27.000,-0.81,0.255
2021-08-01 00:10:27.004,-0.825,0.24
2021-08-01 00:10:27.008,-0.865,0.28
2021-08-01 00:10:27.012,-0.875,0.275
2021-08-01 00:10:27.016,-0.89,0.275
2021-08-01 00:10:27.020,-0.94,0.29
2021-08-01 00:10:27.024,-0.97,0.285
2021-08-01 00:10:27.028,-0.995,0.29
2021-08-01 00:10:27.032,-1.03,0.31
2021-08-01 00:10:27.036,-1.035,0.305
2021-08-01 00:10:27.040,-1.03,0.315
2021-08-01 00:10:27.044,-1.04,0.295
2021-08-01 00:10:27.048,-1.0,0.305
2021-08-01 00:10:27.052,-1.005,0.295
2021-08-01 00:10:27.056,-0.985,0.305
2021-08-01 00:10:27.060,-0.965,0.265
2021-08-01 00:10:27.064,-0.97,0.265
2021-08-01 00:10:27.068,-0.925,0.255
2021-08-01 00:10:27.072,-0.92,0.245
2021-08-01 00:10:27.076,-0.93,0.205
2021-08-01 00:10:27.080,-0.91,0.205
2021-08-01 00:10:27.084,-0.88,0.215
2021-08-01 00:10:27.088,-0.87,0.205
2021-08-01 00:10:27.092,-0.845,0.175
2021-08-01 00:10:27.096,-0.83,0.18
2021-08-01 00:10:27.100,-0.835,0.19
2021-08-01 00:10:27.104,-0.795,0.175
2021-08-01 00:10:27.108,-0.76,0.205
2021-08-01 00:10:27.112,-0.775,0.165
2021-08-01 00:10:27.116,-0.76,0.18
2021-08-01 00:10:27.120,-0.74,0.155
2021-08-01 00:10:27.124,-0.73,0.195
2021-08-01 00:10:27.128,-0.725,0.19
2021-08-01 00:10:27.132,-0.735,0.195
2021-08-01 00:10:27.136,-0.735,0.195
2021-08-01 00:10:27.140,-0.72,0.17
2021-08-01 00:10:27.144,-0.705,0.195
2021-08-01 00:10:27.148,-0.69,0.19
2021-08-01 00:10:27.152,-0.66,0.155
2021-08-01 00:10:27.156,-0.67,0.155
2021-08-01 00:10:27.160,-0.65,0.16
2021-08-01 00:10:27.164,-0.655,0.18
2021-08-01 00:10:27.168,-0.625,0.16
2021-08-01 00:10:27.172,-0.635,0.17
2021-08-01 00:10:27.176,-0.64,0.205
2021-08-01 00:10:27.180,-0.635,0.205
2021-08-01 00:10:27.184,-0.615,0.215
2021-08-01 00:10:27.188,-0.595,0.215
2021-08-01 00:10:27.192,-0.57,0.24
2021-08-01 00:10:27.196,-0.57,0.235
2021-08-01 00:10:27.200,-0.57,0.26
2021-08-01 00:10:27.204,-0.55,0.275
2021-08-01 00:10:27.208,-0.54,0.275
2021-08-01 00:10:27.212,-0.55,0.295
2021-08-01 00:10:27.216,-0.525,0.28
2021-08-01 00:10:27.220,-0.54,0.29
2021-08-01 00:10:27.224,-0.535,0.3
2021-08-01 00:10:27.228,-0.525,0.315
2021-08-01 00:10:27.232,-0.495,0.305
2021-08-01 00:10:27.236,-0.465,0.305
2021-08-01 00:10:27.240,-0.395,0.31
2021-08-01 00:10:27.244,-0.34,0.275
2021-08-01 00:10:27.248,-0.335,0.28
2021-08-01 00:10:27.252,-0.34,0.265
2021-08-01 00:10:27.256,-0.34,0.28
2021-08-01 00:10:27.260,-0.36,0.28
2021-08-01 00:10:27.264,-0.375,0.26
2021-08-01 00:10:27.268,-0.24,0.185
2021-08-01 00:10:27.272,0.045,0.075
2021-08-01 00:10:27.276,0.405,-0.145
2021-08-01 00:10:27.280,0.71,-0.44
2021-08-01 00:10:27.284,0.84,-0.72
2021-08-01 00:10:27.288,0.74,-0.795
2021-08-01 00:10:27.292,0.385,-0.67
2021-08-01 00:10:27.296,-0.04,-0.345
2021-08-01 00:10:27.300,-0.37,-0.005
2021-08-01 00:10:27.304,-0.515,0.215
2021-08-01 00:10:27.308,-0.595,0.31
2021-08-01 00:10:27.312,-0.64,0.38
2021-08-01 00:10:27.316,-0.705,0.37
2021-08-01 00:10:27.320,-0.695,0.37
2021-08-01 00:10:27.324,-0.71,0.35
2021-08-01 00:10:27.328,-0.7,0.335
2021-08-01 00:10:27.332,-0.715,0.32
2021-08-01 00:10:27.336,-0.72,0.3
2021-08-01 00:10:27.340,-0.72,0.285
2021-08-01 00:10:27.344,-0.74,0.255
2021-08-01 00:10:27.348,-0.73,0.255
2021-08-01 00:10:27.352,-0.745,0.26
2021-08-01 00:10:27.356,-0.76,0.235
2021-08-01 00:10:27.360,-0.77,0.25
2021-08-01 00:10:27.364,-0.755,0.255
2021-08-01 00:10:27.368,-0.765,0.25
2021-08-01 00:10:27.372,-0.74,0.25
2021-08-01 00:10:27.376,-0.745,0.22
2021-08-01 00:10:27.380,-0.765,0.235
2021-08-01 00:10:27.384,-0.77,0.245
2021-08-01 00:10:27.388,-0.755,0.255
2021-08-01 00:10:27.392,-0.76,0.245
2021-08-01 00:10:27.396,-0.75,0.24
2021-08-01 00:10:27.400,-0.75,0.26
2021-08-01 00:10:27.404,-0.735,0.285
2021-08-01 00:10:27.408,-0.74,0.28
2021-08-01 00:10:27.412,-0.725,0.28
2021-08-01 00:10:27.416,-0.725,0.3
2021-08-01 00:10:27.420,-0.72,0.295
2021-08-01 00:10:27.424,-0.715,0.31
2021-08-01 00:10:27.428,-0.735,0.315
2021-08-01 00:10:27.432,-0.745,0.315
2021-08-01 00:10:27.436,-0.765,0.315
2021-08-01 00:10:27.440,-0.8,0.305
2021-08-01 00:10:27.444,-0.805,0.31
2021-08-01 00:10:27.448,-0.835,0.33
2021-08-01 00:10:27.452,-0.815,0.315
2021-08-01 00:10:27.456,-0.825,0.335
2021-08-01 00:10:27.460,-0.83,0.33
2021-08-01 00:10:27.464,-0.83,0.33
2021-08-01 00:10:27.468,-0.815,0.325
2021-08-01 00:10:27.472,-0.78,0.32
2021-08-01 00:10:27.476,-0.745,0.315
2021-08-01 00:10:27.480,-0.74,0.305
2021-08-01 00:10:27.484,-0.73,0.265
2021-08-01 00:10:27.488,-0.675,0.27
2021-08-01 00:10:27.492,-0.635,0.255
2021-08-01 00:10:27.496,-0.64,0.23
2021-08-01 00:10:27.500,-0.625,0.245
2021-08-01 00:10:27.504,-0.625,0.24
2021-08-01 00:10:27.508,-0.63,0.22
2021-08-01 00:10:27.512,-0.61,0.205
2021-08-01 00:10:27.516,-0.575,0.185
2021-08-01 00:10:27.520,-0.555,0.205
2021-08-01 00:10:27.524,-0.555,0.2
2021-08-01 00:10:27.528,-0.54,0.195
2021-08-01 00:10:27.532,-0.535,0.205
2021-08-01 00:10:27.536,-0.545,0.185
2021-08-01 00:10:27.540,-0.52,0.195
2021-08-01 00:10:27.544,-0.525,0.18
2021-08-01 00:10:27.548,-0.51,0.175
2021-08-01 00:10:27.552,-0.495,0.21
2021-08-01 00:10:27.556,-0.505,0.24
2021-08-01 00:10:27.560,-0.505,0.23
2021-08-01 00:10:27.564,-0.5,0.195
2021-08-01 00:10:27.568,-0.48,0.215
2021-08-01 00:10:27.572,-0.505,0.21
2021-08-01 00:10:27.576,-0.485,0.225
2021-08-01 00:10:27.580,-0.47,0.235
2021-08-01 00:10:27.584,-0.45,0.245
2021-08-01 00:10:27.588,-0.45,0.25
2021-08-01 00:10:27.592,-0.445,0.255
2021-08-01 00:10:27.596,-0.425,0.27
2021-08-01 00:10:27.600,-0.435,0.29
2021-08-01 00:10:27.604,-0.385,0.29
2021-08-01 00:10:27.608,-0.385,0.3
2021-08-01 00:10:27.612,-0.42,0.335
2021-08-01 00:10:27.616,-0.41,0.31
2021-08-01 00:10:27.620,-0.425,0.325
2021-08-01 00:10:27.624,-0.435,0.35
2021-08-01 00:10:27.628,-0.455,0.33
2021-08-01 00:10:27.632,-0.46,0.33
2021-08-01 00:10:27.636,-0.46,0.355
2021-08-01 00:10:27.640,-0.505,0.36
2021-08-01 00:10:27.644,-0.5,0.35
2021-08-01 00:10:27.648,-0.525,0.37
2021-08-01 00:10:27.652,-0.54,0.365
2021-08-01 00:10:27.656,-0.565,0.345
2021-08-01 00:10:27.660,-0.57,0.375
2021-08-01 00:10:27.664,-0.565,0.375
2021-08-01 00:10:27.668,-0.575,0.375
2021-08-01 00:10:27.672,-0.57,0.395
2021-08-01 00:10:27.676,-0.59,0.375
2021-08-01 00:10:27.680,-0.6,0.375
2021-08-01 00:10:27.684,-0.575,0.385
2021-08-01 00:10:27.688,-0.565,0.385
2021-08-01 00:10:27.692,-0.565,0.38
2021-08-01 00:10:27.696,-0.545,0.355
2021-08-01 00:10:27.700,-0.505,0.35
2021-08-01 00:10:27.704,-0.5,0.31
2021-08-01 00:10:27.708,-0.5,0.31
2021-08-01 00:10:27.712,-0.495,0.33
2021-08-01 00:10:27.716,-0.5,0.335
2021-08-01 00:10:27.720,-0.515,0.32
2021-08-01 00:10:27.724,-0.535,0.315
2021-08-01 00:10:27.728,-0.52,0.315
2021-08-01 00:10:27.732,-0.52,0.285
2021-08-01 00:10:27.736,-0.49,0.29
2021-08-01 00:10:27.740,-0.49,0.305
2021-08-01 00:10:27.744,-0.47,0.305
2021-08-01 00:10:27.748,-0.47,0.285
2021-08-01 00:10:27.752,-0.465,0.305
2021-08-01 00:10:27.756,-0.415,0.29
2021-08-01 00:10:27.760,-0.36,0.3
2021-08-01 00:10:27.764,-0.28,0.29
2021-08-01 00:10:27.768,-0.21,0.295
2021-08-01 00:10:27.772,-0.14,0.29
2021-08-01 00:10:27.776,-0.09,0.26
2021-08-01 00:10:27.780,-0.065,0.24
2021-08-01 00:10:27.784,-0.06,0.2
2021-08-01 00:10:27.788,-0.055,0.22
2021-08-01 00:10:27.792,-0.105,0.205
2021-08-01 00:10:27.796,-0.125,0.185
2021-08-01 00:10:27.800,-0.02,0.11
2021-08-01 00:10:27.804,0.21,-0.025
2021-08-01 00:10:27.808,0.53,-0.215
2021-08-01 00:10:27.812,0.83,-0.485
2021-08-01 00:10:27.816,0.975,-0.705
2021-08-01 00:10:27.820,0.875,-0.755
2021-08-01 00:10:27.824,0.525,-0.605
2021-08-01 00:10:27.828,0.085,-0.26
2021-08-01 00:10:27.832,-0.195,0.085
2021-08-01 00:10:27.836,-0.32,0.345
2021-08-01 00:10:27.840,-0.425,0.44
2021-08-01 00:10:27.844,-0.465,0.515
2021-08-01 00:10:27.848,-0.51,0.54
2021-08-01 00:10:27.852,-0.56,0.525
2021-08-01 00:10:27.856,-0.615,0.525
2021-08-01 00:10:27.860,-0.655,0.5
2021-08-01 00:10:27.864,-0.7,0.51
2021-08-01 00:10:27.868,-0.73,0.5
2021-08-01 00:10:27.872,-0.715,0.505
2021-08-01 00:10:27.876,-0.73,0.495
2021-08-01 00:10:27.880,-0.74,0.485
2021-08-01 00:10:27.884,-0.73,0.47
2021-08-01 00:10:27.888,-0.75,0.465
2021-08-01 00:10:27.892,-0.76,0.465
2021-08-01 00:10:27.896,-0.775,0.44
2021-08-01 00:10:27.900,-0.775,0.455
2021-08-01 00:10:27.904,-0.745,0.425
2021-08-01 00:10:27.908,-0.725,0.41
2021-08-01 00:10:27.912,-0.71,0.405
2021-08-01 00:10:27.916,-0.71,0.39
2021-08-01 00:10:27.920,-0.69,0.415
2021-08-01 00:10:27.924,-0.68,0.365
2021-08-01 00:10:27.928,-0.685,0.375
2021-08-01 00:10:27.932,-0.69,0.345
2021-08-01 00:10:27.936,-0.7,0.355
2021-08-01 00:10:27.940,-0.73,0.375
2021-08-01 00:10:27.944,-0.715,0.355
2021-08-01 00:10:27.948,-0.71,0.355
2021-08-01 00:10:27.952,-0.69,0.35
2021-08-01 00:10:27.956,-0.69,0.375
2021-08-01 00:10:27.960,-0.685,0.37
2021-08-01 00:10:27.964,-0.69,0.365
2021-08-01 00:10:27.968,-0.67,0.345
2021-08-01 00:10:27.972,-0.67,0.36
2021-08-01 00:10:27.976,-0.645,0.34
2021-08-01 00:10:27.980,-0.62,0.365
2021-08-01 00:10:27.984,-0.62,0.365
2021-08-01 00:10:27.988,-0.6,0.38
2021-08-01 00:10:27.992,-0.585,0.37
2021-08-01 00:10:27.996,-0.565,0.355
2021-08-01 00:10:28.000,-0.56,0.35
2021-08-01 00:10:28.004,-0.55,0.345
2021-08-01 00:10:28.008,-0.565,0.355
2021-08-01 00:10:28.012,-0.535,0.365
2021-08-01 00:10:28.016,-0.515,0.355
2021-08-01 00:10:28.020,-0.52,0.38
2021-08-01 00:10:28.024,-0.51,0.365
2021-08-01 00:10:28.028,-0.505,0.345
2021-08-01 00:10:28.032,-0.48,0.35
2021-08-01 00:10:28.036,-0.485,0.325
2021-08-01 00:10:28.040,-0.475,0.345
2021-08-01 00:10:28.044,-0.495,0.325
2021-08-01 00:10:28.048,-0.5,0.325
2021-08-01 00:10:28.052,-0.515,0.34
2021-08-01 00:10:28.056,-0.5,0.345
2021-08-01 00:10:28.060,-0.545,0.335
2021-08-01 00:10:28.064,-0.54,0.325
2021-08-01 00:10:28.068,-0.57,0.345
2021-08-01 00:10:28.072,-0.575,0.335
2021-08-01 00:10:28.076,-0.59,0.36
2021-08-01 00:10:28.080,-0.59,0.375
2021-08-01 00:10:28.084,-0.565,0.38
2021-08-01 00:10:28.088,-0.54,0.39
2021-08-01 00:10:28.092,-0.56,0.4
2021-08-01 00:10:28.096,-0.545,0.375
2021-08-01 00:10:28.100,-0.545,0.37
2021-08-01 00:10:28.104,-0.55,0.375
2021-08-01 00:10:28.108,-0.545,0.345
2021-08-01 00:10:28.112,-0.515,0.34
2021-08-01 00:10:28.116,-0.5,0.345
2021-08-01 00:10:28.120,-0.48,0.35
2021-08-01 00:10:28.124,-0.475,0.335
2021-08-01 00:10:28.128,-0.475,0.335
2021-08-01 00:10:28.132,-0.465,0.33
2021-08-01 00:10:28.136,-0.45,0.35
2021-08-01 00:10:28.140,-0.47,0.33
2021-08-01 00:10:28.144,-0.45,0.31
2021-08-01 00:10:28.148,-0.455,0.3
2021-08-01 00:10:28.152,-0.435,0.29
2021-08-01 00:10:28.156,-0.445,0.3
2021-08-01 00:10:28.160,-0.445,0.3
2021-08-01 00:10:28.164,-0.45,0.34
2021-08-01 00:10:28.168,-0.42,0.315
2021-08-01 00:10:28.172,-0.43,0.325
2021-08-01 00:10:28.176,-0.42,0.33
2021-08-01 00:10:28.180,-0.4,0.325
2021-08-01 00:10:28.184,-0.395,0.325
2021-08-01 00:10:28.188,-0.385,0.32
2021-08-01 00:10:28.192,-0.375,0.33
2021-08-01 00:10:28.196,-0.355,0.34
2021-08-01 00:10:28.200,-0.34,0.35
2021-08-01 00:10:28.204,-0.315,0.345
2021-08-01 00:10:28.208,-0.305,0.335
2021-08-01 00:10:28.212,-0.305,0.35
2021-08-01 00:10:28.216,-0.315,0.35
2021-08-01 00:10:28.220,-0.285,0.355
2021-08-01 00:10:28.224,-0.27,0.355
2021-08-01 00:10:28.228,-0.285,0.375
2021-08-01 00:10:28.232,-0.28,0.365
2021-08-01 00:10:28.236,-0.285,0.375
2021-08-01 00:10:28.240,-0.28,0.375
2021-08-01 00:10:28.244,-0.31,0.38
2021-08-01 00:10:28.248,-0.305,0.39
2021-08-01 00:10:28.252,-0.3,0.385
2021-08-01 00:10:28.256,-0.28,0.375
2021-08-01 00:10:28.260,-0.28,0.385
2021-08-01 00:10:28.264,-0.26,0.375
2021-08-01 00:10:28.268,-0.22,0.375
2021-08-01 00:10:28.272,-0.15,0.35
2021-08-01 00:10:28.276,-0.155,0.335
2021-08-01 00:10:28.280,-0.165,0.315
2021-08-01 00:10:28.284,-0.185,0.275
2021-08-01 00:10:28.288,-0.225,0.325
2021-08-01 00:10:28.292,-0.28,0.36
2021-08-01 00:10:28.296,-0.295,0.345
2021-08-01 00:10:28.300,-0.2,0.265
2021-08-01 00:10:28.304,0.08,0.155
2021-08-01 00:10:28.308,0.4,-0.065
2021-08-01 00:10:28.312,0.72,-0.39
2021-08-01 00:10:28.316,0.88,-0.655
2021-08-01 00:10:28.320,0.78,-0.7
2021-08-01 00:10:28.324,0.435,-0.53
2021-08-01 00:10:28.328,0.015,-0.2
2021-08-01 00:10:28.332,-0.27,0.15
2021-08-01 00:10:28.336,-0.415,0.365
2021-08-01 00:10:28.340,-0.47,0.46
2021-08-01 00:10:28.344,-0.52,0.495
2021-08-01 00:10:28.348,-0.52,0.47
2021-08-01 00:10:28.352,-0.55,0.465
2021-08-01 00:10:28.356,-0.555,0.47
2021-08-01 00:10:28.360,-0.555,0.43
2021-08-01 00:10:28.364,-0.55,0.42
2021-08-01 00:10:28.368,-0.555,0.39
2021-08-01 00:10:28.372,-0.55,0.375
2021-08-01 00:10:28.376,-0.54,0.35
2021-08-01 00:10:28.380,-0.545,0.345
2021-08-01 00:10:28.384,-0.55,0.34
2021-08-01 00:10:28.388,-0.535,0.35
2021-08-01 00:10:28.392,-0.545,0.345
2021-08-01 00:10:28.396,-0.53,0.33
2021-08-01 00:10:28.400,-0.52,0.32
2021-08-01 00:10:28.404,-0.505,0.325
2021-08-01 00:10:28.408,-0.485,0.34
2021-08-01 00:10:28.412,-0.49,0.345
2021-08-01 00:10:28.416,-0.46,0.365
2021-08-01 00:10:28.420,-0.46,0.35
2021-08-01 00:10:28.424,-0.445,0.36
2021-08-01 00:10:28.428,-0.45,0.395
2021-08-01 00:10:28.432,-0.455,0.395
2021-08-01 00:10:28.436,-0.425,0.39
2021-08-01 00:10:28.440,-0.445,0.375
2021-08-01 00:10:28.444,-0.435,0.4
2021-08-01 00:10:28.448,-0.46,0.39
2021-08-01 00:10:28.452,-0.44,0.38
2021-08-01 00:10:28.456,-0.445,0.395
2021-08-01 00:10:28.460,-0.465,0.385
2021-08-01 00:10:28.464,-0.465,0.38
2021-08-01 00:10:28.468,-0.485,0.395
2021-08-01 00:10:28.472,-0.495,0.42
2021-08-01 00:10:28.476,-0.54,0.415
2021-08-01 00:10:28.480,-0.57,0.39
2021-08-01 00:10:28.484,-0.605,0.38
2021-08-01 00:10:28.488,-0.625,0.4
2021-08-01 00:10:28.492,-0.6,0.395
2021-08-01 00:10:28.496,-0.62,0.41
2021-08-01 00:10:28.500,-0.62,0.425
2021-08-01 00:10:28.504,-0.595,0.415
2021-08-01 00:10:28.508,-0.595,0.42
2021-08-01 00:10:28.512,-0.605,0.405
2021-08-01 00:10:28.516,-0.62,0.375
2021-08-01 00:10:28.520,-0.57,0.36
2021-08-01 00:10:28.524,-0.58,0.345
2021-08-01 00:10:28.528,-0.535,0.315
2021-08-01 00:10:28.532,-0.53,0.3
2021-08-01 00:10:28.536,-0.515,0.3
2021-08-01 00:10:28.540,-0.525,0.285
2021-08-01 00:10:28.544,-0.525,0.26
2021-08-01 00:10:28.548,-0.495,0.26
2021-08-01 00:10:28.552,-0.48,0.25
2021-08-01 00:10:28.556,-0.48,0.23
2021-08-01 00:10:28.560,-0.475,0.23
2021-08-01 00:10:28.564,-0.435,0.225
2021-08-01 00:10:28.568,-0.425,0.21
2021-08-01 00:10:28.572,-0.415,0.22
2021-08-01 00:10:28.576,-0.405,0.22
2021-08-01 00:10:28.580,-0.39,0.21
2021-08-01 00:10:28.584,-0.37,0.22
2021-08-01 00:10:28.588,-0.355,0.215
2021-08-01 00:10:28.592,-0.34,0.225
2021-08-01 00:10:28.596,-0.32,0.23
2021-08-01 00:10:28.600,-0.305,0.23
2021-08-01 00:10:28.604,-0.305,0.24
2021-08-01 00:10:28.608,-0.295,0.24
2021-08-01 00:10:28.612,-0.285,0.255
2021-08-01 00:10:28.616,-0.285,0.255
2021-08-01 00:10:28.620,-0.27,0.27
2021-08-01 00:10:28.624,-0.255,0.285
2021-08-01 00:10:28.628,-0.255,0.3
2021-08-01 00:10:28.632,-0.24,0.295
2021-08-01 00:10:28.636,-0.215,0.3
2021-08-01 00:10:28.640,-0.23,0.315
2021-08-01 00:10:28.644,-0.225,0.3
2021-08-01 00:10:28.648,-0.225,0.33
2021-08-01 00:10:28.652,-0.235,0.35
2021-08-01 00:10:28.656,-0.24,0.34
2021-08-01 00:10:28.660,-0.235,0.335
2021-08-01 00:10:28.664,-0.225,0.325
2021-08-01 00:10:28.668,-0.245,0.33
2021-08-01 00:10:28.672,-0.23,0.32
2021-08-01 00:10:28.676,-0.265,0.325
2021-08-01 00:10:28.680,-0.29,0.325
2021-08-01 00:10:28.684,-0.305,0.31
2021-08-01 00:10:28.688,-0.33,0.315
2021-08-01 00:10:28.692,-0.365,0.33
2021-08-01 00:10:28.696,-0.385,0.295
2021-08-01 00:10:28.700,-0.405,0.31
2021-08-01 00:10:28.704,-0.41,0.305
2021-08-01 00:10:28.708,-0.415,0.305
2021-08-01 00:10:28.712,-0.375,0.315
2021-08-01 00:10:28.716,-0.355,0.325
2021-08-01 00:10:28.720,-0.305,0.33
2021-08-01 00:10:28.724,-0.22,0.33
2021-08-01 00:10:28.728,-0.125,0.31
2021-08-01 00:10:28.732,-0.03,0.305
2021-08-01 00:10:28.736,0.06,0.26
2021-08-01 00:10:28.740,0.105,0.21
2021-08-01 00:10:28.744,0.14,0.195
2021-08-01 00:10:28.748,0.115,0.22
2021-08-01 00:10:28.752,0.1,0.275
2021-08-01 00:10:28.756,0.065,0.235
2021-08-01 00:10:28.760,0.155,0.16
2021-08-01 00:10:28.764,0.385,0.04
2021-08-01 00:10:28.768,0.705,-0.195
2021-08-01 00:10:28.772,0.945,-0.465
2021-08-01 00:10:28.776,1.015,-0.695
2021-08-01 00:10:28.780,0.805,-0.735
2021-08-01 00:10:28.784,0.385,-0.565
2021-08-01 00:10:28.788,0.02,-0.22
2021-08-01 00:10:28.792,-0.2,0.045
2021-08-01 00:10:28.796,-0.29,0.18
2021-08-01 00:10:28.800,-0.345,0.285
2021-08-01 00:10:28.804,-0.385,0.31
2021-08-01 00:10:28.808,-0.425,0.31
2021-08-01 00:10:28.812,-0.425,0.31
2021-08-01 00:10:28.816,-0.41,0.285
2021-08-01 00:10:28.820,-0.41,0.27
2021-08-01 00:10:28.824,-0.39,0.22
2021-08-01 00:10:28.828,-0.39,0.205
2021-08-01 00:10:28.832,-0.38,0.2
2021-08-01 00:10:28.836,-0.39,0.215
2021-08-01 00:10:28.840,-0.385,0.225
2021-08-01 00:10:28.844,-0.385,0.225
2021-08-01 00:10:28.848,-0.39,0.235
2021-08-01 00:10:28.852,-0.38,0.235
2021-08-01 00:10:28.856,-0.35,0.255
2021-08-01 00:10:28.860,-0.35,0.275
2021-08-01 00:10:28.864,-0.385,0.245
2021-08-01 00:10:28.868,-0.405,0.23
2021-08-01 00:10:28.872,-0.405,0.24
2021-08-01 00:10:28.876,-0.4,0.25
2021-08-01 00:10:28.880,-0.415,0.24
2021-08-01 00:10:28.884,-0.435,0.255
2021-08-01 00:10:28.888,-0.475,0.26
2021-08-01 00:10:28.892,-0.5,0.255
2021-08-01 00:10:28.896,-0.555,0.25
2021-08-01 00:10:28.900,-0.585,0.235
2021-08-01 00:10:28.904,-0.605,0.235
2021-08-01 00:10:28.908,-0.615,0.225
2021-08-01 00:10:28.912,-0.65,0.26
2021-08-01 00:10:28.916,-0.655,0.23
2021-08-01 00:10:28.920,-0.65,0.235
2021-08-01 00:10:28.924,-0.66,0.2
2021-08-01 00:10:28.928,-0.64,0.235
2021-08-01 00:10:28.932,-0.62,0.225
2021-08-01 00:10:28.936,-0.605,0.23
2021-08-01 00:10:28.940,-0.605,0.195
2021-08-01 00:10:28.944,-0.595,0.195
2021-08-01 00:10:28.948,-0.57,0.16
2021-08-01 00:10:28.952,-0.54,0.16
2021-08-01 00:10:28.956,-0.54,0.165
2021-08-01 00:10:28.960,-0.52,0.155
2021-08-01 00:10:28.964,-0.51,0.145
2021-08-01 00:10:28.968,-0.52,0.15
2021-08-01 00:10:28.972,-0.52,0.135
2021-08-01 00:10:28.976,-0.505,0.13
2021-08-01 00:10:28.980,-0.5,0.125
2021-08-01 00:10:28.984,-0.515,0.125
2021-08-01 00:10:28.988,-0.49,0.09
2021-08-01 00:10:28.992,-0.505,0.07
2021-08-01 00:10:28.996,-0.47,0.085
2021-08-01 00:10:29.000,-0.44,0.065
2021-08-01 00:10:29.004,-0.445,0.055
2021-08-01 00:10:29.008,-0.4,0.055
2021-08-01 00:10:29.012,-0.405,0.05
2021-08-01 00:10:29.016,-0.39,0.04
2021-08-01 00:10:29.020,-0.365,0.035
2021-08-01 00:10:29.024,-0.365,0.04
2021-08-01 00:10:29.028,-0.345,0.045
2021-08-01 00:10:29.032,-0.29,0.05
2021-08-01 00:10:29.036,-0.25,0.035
2021-08-01 00:10:29.040,-0.245,0.04
2021-08-01 00:10:29.044,-0.225,0.065
2021-08-01 00:10:29.048,-0.23,0.05
2021-08-01 00:10:29.052,-0.235,0.06
2021-08-01 00:10:29.056,-0.23,0.1
2021-08-01 00:10:29.060,-0.21,0.105
2021-08-01 00:10:29.064,-0.22,0.105
2021-08-01 00:10:29.068,-0.22,0.125
2021-08-01 00:10:29.072,-0.23,0.125
2021-08-01 00:10:29.076,-0.23,0.14
2021-08-01 00:10:29.080,-0.22,0.12
2021-08-01 00:10:29.084,-0.225,0.145
2021-08-01 00:10:29.088,-0.225,0.15
2021-08-01 00:10:29.092,-0.265,0.145
2021-08-01 00:10:29.096,-0.29,0.145
2021-08-01 00:10:29.100,-0.305,0.16
2021-08-01 00:10:29.104,-0.32,0.155
2021-08-01 00:10:29.108,-0.32,0.145
2021-08-01 00:10:29.112,-0.285,0.135
2021-08-01 00:10:29.116,-0.22,0.16
2021-08-01 00:10:29.120,-0.155,0.165
2021-08-01 00:10:29.124,-0.085,0.145
2021-08-01 00:10:29.128,-0.04,0.12
2021-08-01 00:10:29.132,-0.035,0.105
2021-08-01 00:10:29.136,-0.025,0.14
2021-08-01 00:10:29.140,-0.05,0.175
2021-08-01 00:10:29.144,-0.08,0.15
2021-08-01 00:10:29.148,-0.01,0.135
2021-08-01 00:10:29.152,0.2,0.04
2021-08-01 00:10:29.156,0.53,-0.16
2021-08-01 00:10:29.160,0.825,-0.435
2021-08-01 00:10:29.164,1.005,-0.695
2021-08-01 00:10:29.168,0.935,-0.8
2021-08-01 00:10:29.172,0.6,-0.695
2021-08-01 00:10:29.176,0.185,-0.385
2021-08-01 00:10:29.180,-0.08,-0.075
2021-08-01 00:10:29.184,-0.195,0.095
2021-08-01 00:10:29.188,-0.265,0.2
2021-08-01 00:10:29.192,-0.325,0.255
2021-08-01 00:10:29.196,-0.365,0.25
2021-08-01 00:10:29.200,-0.41,0.275
2021-08-01 00:10:29.204,-0.435,0.245
2021-08-01 00:10:29.208,-0.455,0.235
2021-08-01 00:10:29.212,-0.465,0.22
2021-08-01 00:10:29.216,-0.455,0.185
2021-08-01 00:10:29.220,-0.445,0.175
2021-08-01 00:10:29.224,-0.44,0.155
2021-08-01 00:10:29.228,-0.445,0.15
2021-08-01 00:10:29.232,-0.44,0.155
2021-08-01 00:10:29.236,-0.415,0.14
2021-08-01 00:10:29.240,-0.42,0.105
2021-08-01 00:10:29.244,-0.415,0.115
2021-08-01 00:10:29.248,-0.41,0.12
2021-08-01 00:10:29.252,-0.385,0.13
2021-08-01 00:10:29.256,-0.345,0.12
2021-08-01 00:10:29.260,-0.34,0.12
2021-08-01 00:10:29.264,-0.295,0.145
2021-08-01 00:10:29.268,-0.305,0.13
2021-08-01 00:10:29.272,-0.3,0.15
2021-08-01 00:10:29.276,-0.295,0.185
2021-08-01 00:10:29.280,-0.285,0.185
2021-08-01 00:10:29.284,-0.29,0.18
2021-08-01 00:10:29.288,-0.32,0.195
2021-08-01 00:10:29.292,-0.33,0.195
2021-08-01 00:10:29.296,-0.345,0.195
2021-08-01 00:10:29.300,-0.345,0.175
2021-08-01 00:10:29.304,-0.35,0.19
2021-08-01 00:10:29.308,-0.415,0.18
2021-08-01 00:10:29.312,-0.435,0.18
2021-08-01 00:10:29.316,-0.465,0.175
2021-08-01 00:10:29.320,-0.49,0.155
2021-08-01 00:10:29.324,-0.515,0.145
2021-08-01 00:10:29.328,-0.535,0.15
2021-08-01 00:10:29.332,-0.54,0.15
2021-08-01 00:10:29.336,-0.535,0.16
2021-08-01 00:10:29.340,-0.55,0.135
2021-08-01 00:10:29.344,-0.555,0.125
2021-08-01 00:10:29.348,-0.56,0.13
2021-08-01 00:10:29.352,-0.565,0.125
2021-08-01 00:10:29.356,-0.515,0.125
2021-08-01 00:10:29.360,-0.51,0.1
2021-08-01 00:10:29.364,-0.475,0.075
2021-08-01 00:10:29.368,-0.465,0.09
2021-08-01 00:10:29.372,-0.44,0.06
2021-08-01 00:10:29.376,-0.445,0.05
2021-08-01 00:10:29.380,-0.425,0.06
2021-08-01 00:10:29.384,-0.395,0.025
2021-08-01 00:10:29.388,-0.375,0.015
2021-08-01 00:10:29.392,-0.37,0.02
2021-08-01 00:10:29.396,-0.345,0.025
2021-08-01 00:10:29.400,-0.335,0.02
2021-08-01 00:10:29.404,-0.305,0.01
2021-08-01 00:10:29.408,-0.3,0.02
2021-08-01 00:10:29.412,-0.315,0.01
2021-08-01 00:10:29.416,-0.275,0.005
2021-08-01 00:10:29.420,-0.29,0.0
2021-08-01 00:10:29.424,-0.3,0.015
2021-08-01 00:10:29.428,-0.31,0.0
2021-08-01 00:10:29.432,-0.29,-0.005
2021-08-01 00:10:29.436,-0.25,0.0
2021-08-01 00:10:29.440,-0.23,0.0
2021-08-01 00:10:29.444,-0.23,0.01
2021-08-01 00:10:29.448,-0.225,-0.025
2021-08-01 00:10:29.452,-0.2,0.0
2021-08-01 00:10:29.456,-0.155,0.0
2021-08-01 00:10:29.460,-0.16,0.005
2021-08-01 00:10:29.464,-0.15,0.015
2021-08-01 00:10:29.468,-0.115,0.0
2021-08-01 00:10:29.472,-0.06,0.015
2021-08-01 00:10:29.476,-0.04,0.015
2021-08-01 00:10:29.480,-0.035,0.025
2021-08-01 00:10:29.484,-0.035,0.03
2021-08-01 00:10:29.488,-0.06,0.035
2021-08-01 00:10:29.492,-0.045,0.085
2021-08-01 00:10:29.496,-0.02,0.075
2021-08-01 00:10:29.500,-0.04,0.095
2021-08-01 00:10:29.504,-0.04,0.085
2021-08-01 00:10:29.508,-0.05,0.09
2021-08-01 00:10:29.512,-0.055,0.075
2021-08-01 00:10:29.516,-0.045,0.07
2021-08-01 00:10:29.520,-0.08,0.075
2021-08-01 00:10:29.524,-0.13,0.1
2021-08-01 00:10:29.528,-0.13,0.075
2021-08-01 00:10:29.532,-0.17,0.07
2021-08-01 00:10:29.536,-0.19,0.06
2021-08-01 00:10:29.540,-0.195,0.05
2021-08-01 00:10:29.544,-0.215,0.05
2021-08-01 00:10:29.548,-0.22,0.06
2021-08-01 00:10:29.552,-0.23,0.08
2021-08-01 00:10:29.556,-0.24,0.075
2021-08-01 00:10:29.560,-0.24,0.07
2021-08-01 00:10:29.564,-0.245,0.045
2021-08-01 00:10:29.568,-0.25,0.045
2021-08-01 00:10:29.572,-0.22,0.045
2021-08-01 00:10:29.576,-0.2,0.04
2021-08-01 00:10:29.580,-0.11,0.01
2021-08-01 00:10:29.584,-0.035,0.035
2021-08-01 00:10:29.588,0.06,0.035
2021-08-01 00:10:29.592,0.105,-0.015
2021-08-01 00:10:29.596,0.155,-0.05
2021-08-01 00:10:29.600,0.155,-0.08
2021-08-01 00:10:29.604,0.145,-0.065
2021-08-01 00:10:29.608,0.095,-0.04
2021-08-01 00:10:29.612,0.09,-0.07
2021-08-01 00:10:29.616,0.125,-0.07
2021-08-01 00:10:29.620,0.3,-0.165
2021-08-01 00:10:29.624,0.6,-0.355
2021-08-01 00:10:29.628,0.905,-0.625
2021-08-01 00:10:29.632,1.11,-0.885
2021-08-01 00:10:29.636,1.12,-1.04
2021-08-01 00:10:29.640,0.895,-0.965
2021-08-01 00:10:29.644,0.46,-0.65
2021-08-01 00:10:29.648,0.095,-0.32
2021-08-01 00:10:29.652,-0.08,-0.065
2021-08-01 00:10:29.656,-0.17,0.045
2021-08-01 00:10:29.660,-0.19,0.12
2021-08-01 00:10:29.664,-0.18,0.14
2021-08-01 00:10:29.668,-0.2,0.1
2021-08-01 00:10:29.672,-0.205,0.105
2021-08-01 00:10:29.676,-0.205,0.12
2021-08-01 00:10:29.680,-0.21,0.075
2021-08-01 00:10:29.684,-0.175,0.06
2021-08-01 00:10:29.688,-0.115,0.035
2021-08-01 00:10:29.692,-0.11,0.045
2021-08-01 00:10:29.696,-0.125,0.035
2021-08-01 00:10:29.700,-0.12,0.035
2021-08-01 00:10:29.704,-0.11,0.045
2021-08-01 00:10:29.708,-0.095,0.065
2021-08-01 00:10:29.712,-0.075,0.075
2021-08-01 00:10:29.716,-0.045,0.085
2021-08-01 00:10:29.720,-0.075,0.08
2021-08-01 00:10:29.724,-0.08,0.09
2021-08-01 00:10:29.728,-0.11,0.075
2021-08-01 00:10:29.732,-0.155,0.07
2021-08-01 00:10:29.736,-0.2,0.05
2021-08-01 00:10:29.740,-0.23,0.055
2021-08-01 00:10:29.744,-0.24,0.055
2021-08-01 00:10:29.748,-0.31,0.03
2021-08-01 00:10:29.752,-0.335,0.04
2021-08-01 00:10:29.756,-0.36,0.045
2021-08-01 00:10:29.760,-0.375,0.06
2021-08-01 00:10:29.764,-0.355,0.035
2021-08-01 00:10:29.768,-0.35,0.035
2021-08-01 00:10:29.772,-0.345,0.025
2021-08-01 00:10:29.776,-0.355,0.03
2021-08-01 00:10:29.780,-0.345,0.015
2021-08-01 00:10:29.784,-0.36,0.035
2021-08-01 00:10:29.788,-0.365,0.02
2021-08-01 00:10:29.792,-0.345,0.015
2021-08-01 00:10:29.796,-0.365,0.0
2021-08-01 00:10:29.800,-0.38,0.0
2021-08-01 00:10:29.804,-0.335,0.0
2021-08-01 00:10:29.808,-0.32,-0.01
2021-08-01 00:10:29.812,-0.32,0.005
2021-08-01 00:10:29.816,-0.325,-0.035
2021-08-01 00:10:29.820,-0.32,-0.02
2021-08-01 00:10:29.824,-0.31,-0.04
2021-08-01 00:10:29.828,-0.32,-0.035
2021-08-01 00:10:29.832,-0.33,-0.06
2021-08-01 00:10:29.836,-0.315,-0.055
2021-08-01 00:10:29.840,-0.275,-0.06
2021-08-01 00:10:29.844,-0.235,-0.07
2021-08-01 00:10:29.848,-0.27,-0.05
2021-08-01 00:10:29.852,-0.245,-0.06
2021-08-01 00:10:29.856,-0.23,-0.075
2021-08-01 00:10:29.860,-0.23,-0.07
2021-08-01 00:10:29.864,-0.22,-0.07
2021-08-01 00:10:29.868,-0.205,-0.08
2021-08-01 00:10:29.872,-0.16,-0.08
2021-08-01 00:10:29.876,-0.13,-0.09
2021-08-01 00:10:29.880,-0.1,-0.09
2021-08-01 00:10:29.884,-0.1,-0.09
2021-08-01 00:10:29.888,-0.085,-0.085
2021-08-01 00:10:29.892,-0.075,-0.07
2021-08-01 00:10:29.896,-0.075,-0.05
2021-08-01 00:10:29.900,-0.025,-0.05
2021-08-01 00:10:29.904,0.02,-0.04
2021-08-01 00:10:29.908,0.035,-0.025
2021-08-01 00:10:29.912,0.075,-0.025
2021-08-01 00:10:29.916,0.095,-0.02
2021-08-01 00:10:29.920,0.1,-0.01
2021-08-01 00:10:29.924,0.11,0.03
2021-08-01 00:10:29.928,0.12,0.035
2021-08-01 00:10:29.932,0.14,0.08
2021-08-01 00:10:29.936,0.135,0.09
2021-08-01 00:10:29.940,0.1,0.075
2021-08-01 00:10:29.944,0.075,0.08
2021-08-01 00:10:29.948,0.03,0.1
2021-08-01 00:10:29.952,0.03,0.1
2021-08-01 00:10:29.956,0.005,0.08
2021-08-01 00:10:29.960,-0.035,0.045
2021-08-01 00:10:29.964,-0.075,0.025
2021-08-01 00:10:29.968,-0.13,0.02
2021-08-01 00:10:29.972,-0.13,0.005
2021-08-01 00:10:29.976,-0.155,-0.005
2021-08-01 00:10:29.980,-0.155,0.01
2021-08-01 00:10:29.984,-0.14,0.0
2021-08-01 00:10:29.988,-0.115,-0.02
2021-08-01 00:10:29.992,-0.09,-0.005
2021-08-01 00:10:29.996,-0.09,-0.04
2021-08-01 00:10:30.000,-0.155,-0.035
2021-08-01 00:10:30.004,-0.145,-0.015
2021-08-01 00:10:30.008,-0.145,-0.025
2021-08-01 00:10:30.012,-0.125,-0.03
2021-08-01 00:10:30.016,-0.095,-0.05
2021-08-01 00:10:30.020,-0.1,-0.06
2021-08-01 00:10:30.024,-0.115,-0.04
2021-08-01 00:10:30.028,-0.135,-0.045
2021-08-01 00:10:30.032,-0.135,-0.035
2021-08-01 00:10:30.036,-0.14,-0.045
2021-08-01 00:10:30.040,-0.115,-0.025
2021-08-01 00:10:30.044,-0.11,-0.035
2021-08-01 00:10:30.048,-0.12,-0.065
2021-08-01 00:10:30.052,-0.115,-0.075
2021-08-01 00:10:30.056,-0.16,-0.07
2021-08-01 00:10:30.060,-0.16,-0.075
2021-08-01 00:10:30.064,-0.155,-0.06
2021-08-01 00:10:30.068,-0.145,-0.08
2021-08-01 00:10:30.072,-0.12,-0.065
2021-08-01 00:10:30.076,-0.06,-0.08
2021-08-01 00:10:30.080,-0.005,-0.075
2021-08-01 00:10:30.084,0.06,-0.08
2021-08-01 00:10:30.088,0.15,-0.09
2021-08-01 00:10:30.092,0.195,-0.115
2021-08-01 00:10:30.096,0.25,-0.17
2021-08-01 00:10:30.100,0.26,-0.14
2021-08-01 00:10:30.104,0.25,-0.1
2021-08-01 00:10:30.108,0.205,-0.055
2021-08-01 00:10:30.112,0.15,-0.075
2021-08-01 00:10:30.116,0.235,-0.095
2021-08-01 00:10:30.120,0.455,-0.15
2021-08-01 00:10:30.124,0.795,-0.37
2021-08-01 00:10:30.128,1.1,-0.64
2021-08-01 00:10:30.132,1.32,-0.89
2021-08-01 00:10:30.136,1.29,-1.005
2021-08-01 00:10:30.140,0.995,-0.9
2021-08-01 00:10:30.144,0.58,-0.57
2021-08-01 00:10:30.148,0.22,-0.215
2021-08-01 00:10:30.152,0.035,0.01
2021-08-01 00:10:30.156,-0.07,0.12
2021-08-01 00:10:30.160,-0.13,0.175
2021-08-01 00:10:30.164,-0.165,0.16
2021-08-01 00:10:30.168,-0.225,0.155
2021-08-01 00:10:30.172,-0.245,0.16
2021-08-01 00:10:30.176,-0.285,0.135
2021-08-01 00:10:30.180,-0.3,0.11
2021-08-01 00:10:30.184,-0.335,0.115
2021-08-01 00:10:30.188,-0.36,0.085
2021-08-01 00:10:30.192,-0.335,0.065
2021-08-01 00:10:30.196,-0.315,0.04
2021-08-01 00:10:30.200,-0.3,0.03
2021-08-01 00:10:30.204,-0.305,0.035
2021-08-01 00:10:30.208,-0.335,0.015
2021-08-01 00:10:30.212,-0.32,0.0
2021-08-01 00:10:30.216,-0.34,0.005
2021-08-01 00:10:30.220,-0.35,-0.035
2021-08-01 00:10:30.224,-0.35,-0.075
2021-08-01 00:10:30.228,-0.34,-0.08
2021-08-01 00:10:30.232,-0.32,-0.09
2021-08-01 00:10:30.236,-0.32,-0.08
2021-08-01 00:10:30.240,-0.315,-0.07
2021-08-01 00:10:30.244,-0.345,-0.095
2021-08-01 00:10:30.248,-0.36,-0.105
2021-08-01 00:10:30.252,-0.355,-0.105
2021-08-01 00:10:30.256,-0.35,-0.125
2021-08-01 00:10:30.260,-0.355,-0.105
2021-08-01 00:10:30.264,-0.36,-0.115
2021-08-01 00:10:30.268,-0.365,-0.11
2021-08-01 00:10:30.272,-0.345,-0.125
2021-08-01 00:10:30.276,-0.355,-0.12
2021-08-01 00:10:30.280,-0.33,-0.14
2021-08-01 00:10:30.284,-0.35,-0.145
2021-08-01 00:10:30.288,-0.355,-0.12
2021-08-01 00:10:30.292,-0.34,-0.14
2021-08-01 00:10:30.296,-0.315,-0.14
2021-08-01 00:10:30.300,-0.31,-0.13
2021-08-01 00:10:30.304,-0.335,-0.17
2021-08-01 00:10:30.308,-0.3,-0.16
2021-08-01 00:10:30.312,-0.255,-0.155
2021-08-01 00:10:30.316,-0.24,-0.18
2021-08-01 00:10:30.320,-0.25,-0.16
2021-08-01 00:10:30.324,-0.245,-0.17
2021-08-01 00:10:30.328,-0.23,-0.135
2021-08-01 00:10:30.332,-0.225,-0.15
2021-08-01 00:10:30.336,-0.185,-0.1
2021-08-01 00:10:30.340,-0.165,-0.1
2021-08-01 00:10:30.344,-0.125,-0.1
2021-08-01 00:10:30.348,-0.105,-0.105
2021-08-01 00:10:30.352,-0.085,-0.085
2021-08-01 00:10:30.356,-0.06,-0.085
2021-08-01 00:10:30.360,-0.055,-0.095
2021-08-01 00:10:30.364,-0.035,-0.08
2021-08-01 00:10:30.368,-0.04,-0.08
2021-08-01 00:10:30.372,-0.065,-0.08
2021-08-01 00:10:30.376,-0.09,-0.07
2021-08-01 00:10:30.380,-0.105,-0.06
2021-08-01 00:10:30.384,-0.13,-0.08
2021-08-01 00:10:30.388,-0.16,-0.07
2021-08-01 00:10:30.392,-0.18,-0.07
2021-08-01 00:10:30.396,-0.2,-0.06
2021-08-01 00:10:30.400,-0.195,-0.04
2021-08-01 00:10:30.404,-0.18,-0.04
2021-08-01 00:10:30.408,-0.17,-0.04
2021-08-01 00:10:30.412,-0.145,-0.03
2021-08-01 00:10:30.416,-0.14,-0.065
2021-08-01 00:10:30.420,-0.085,-0.03
2021-08-01 00:10:30.424,-0.07,-0.035
2021-08-01 00:10:30.428,-0.075,-0.045
2021-08-01 00:10:30.432,-0.07,-0.045
2021-08-01 00:10:30.436,-0.08,-0.075
2021-08-01 00:10:30.440,-0.06,-0.065
2021-08-01 00:10:30.444,-0.065,-0.055
2021-08-01 00:10:30.448,-0.06,-0.03
2021-08-01 00:10:30.452,-0.065,-0.035
2021-08-01 00:10:30.456,-0.05,-0.05
2021-08-01 00:10:30.460,-0.035,-0.04
2021-08-01 00:10:30.464,-0.055,-0.055
2021-08-01 00:10:30.468,-0.075,-0.045
2021-08-01 00:10:30.472,-0.06,-0.07
2021-08-01 00:10:30.476,-0.07,-0.06
2021-08-01 00:10:30.480,-0.08,-0.055
2021-08-01 00:10:30.484,-0.085,-0.09
2021-08-01 00:10:30.488,-0.075,-0.09
2021-08-01 00:10:30.492,-0.055,-0.065
2021-08-01 00:10:30.496,-0.055,-0.06
2021-08-01 00:10:30.500,-0.06,-0.05
2021-08-01 00:10:30.504,-0.06,-0.115
2021-08-01 00:10:30.508,-0.06,-0.08
2021-08-01 00:10:30.512,-0.05,-0.07
2021-08-01 00:10:30.516,-0.02,-0.09
2021-08-01 00:10:30.520,-0.01,-0.09
2021-08-01 00:10:30.524,0.005,-0.1
2021-08-01 00:10:30.528,0.02,-0.1
2021-08-01 00:10:30.532,0.03,-0.09
2021-08-01 00:10:30.536,0.06,-0.105
2021-08-01 00:10:30.540,0.105,-0.08
2021-08-01 00:10:30.544,0.16,-0.075
2021-08-01 00:10:30.548,0.26,-0.09
2021-08-01 00:10:30.552,0.32,-0.095
2021-08-01 00:10:30.556,0.345,-0.1
2021-08-01 00:10:30.560,0.385,-0.12
2021-08-01 00:10:30.564,0.36,-0.075
2021-08-01 00:10:30.568,0.315,-0.045
2021-08-01 00:10:30.572,0.25,-0.005
2021-08-01 00:10:30.576,0.29,-0.005
2021-08-01 00:10:30.580,0.5,-0.075
2021-08-01 00:10:30.584,0.81,-0.245
2021-08-01 00:10:30.588,1.105,-0.54
2021-08-01 00:10:30.592,1.3,-0.83
2021-08-01 00:10:30.596,1.315,-0.945
2021-08-01 00:10:30.600,1.06,-0.875
2021-08-01 00:10:30.604,0.61,-0.605
2021-08-01 00:10:30.608,0.195,-0.245
2021-08-01 00:10:30.612,-0.03,0.025
2021-08-01 00:10:30.616,-0.155,0.145
2021-08-01 00:10:30.620,-0.2,0.2
2021-08-01 00:10:30.624,-0.255,0.205
2021-08-01 00:10:30.628,-0.285,0.185
2021-08-01 00:10:30.632,-0.29,0.17
2021-08-01 00:10:30.636,-0.26,0.115
2021-08-01 00:10:30.640,-0.245,0.1
2021-08-01 00:10:30.644,-0.24,0.075
2021-08-01 00:10:30.648,-0.22,0.05
2021-08-01 00:10:30.652,-0.21,0.03
2021-08-01 00:10:30.656,-0.2,0.01
2021-08-01 00:10:30.660,-0.215,0.005
2021-08-01 00:10:30.664,-0.205,-0.015
2021-08-01 00:10:30.668,-0.19,-0.05
2021-08-01 00:10:30.672,-0.195,-0.02
2021-08-01 00:10:30.676,-0.18,-0.02
2021-08-01 00:10:30.680,-0.215,-0.04
2021-08-01 00:10:30.684,-0.215,-0.02
2021-08-01 00:10:30.688,-0.2,-0.035
2021-08-01 00:10:30.692,-0.205,-0.045
2021-08-01 00:10:30.696,-0.21,-0.04
2021-08-01 00:10:30.700,-0.225,-0.06
2021-08-01 00:10:30.704,-0.21,-0.055
2021-08-01 00:10:30.708,-0.215,-0.07
2021-08-01 00:10:30.712,-0.215,-0.06
2021-08-01 00:10:30.716,-0.225,-0.08
2021-08-01 00:10:30.720,-0.235,-0.075
2021-08-01 00:10:30.724,-0.245,-0.06
2021-08-01 00:10:30.728,-0.245,-0.07
2021-08-01 00:10:30.732,-0.23,-0.075
2021-08-01 00:10:30.736,-0.23,-0.08
2021-08-01 00:10:30.740,-0.21,-0.09
2021-08-01 00:10:30.744,-0.195,-0.075
2021-08-01 00:10:30.748,-0.185,-0.065
2021-08-01 00:10:30.752,-0.19,-0.06
2021-08-01 00:10:30.756,-0.165,-0.075
2021-08-01 00:10:30.760,-0.17,-0.06
2021-08-01 00:10:30.764,-0.18,-0.065
2021-08-01 00:10:30.768,-0.17,-0.05
2021-08-01 00:10:30.772,-0.145,-0.035
2021-08-01 00:10:30.776,-0.14,-0.01
2021-08-01 00:10:30.780,-0.11,-0.015
2021-08-01 00:10:30.784,-0.105,-0.02
2021-08-01 00:10:30.788,-0.08,-0.02
2021-08-01 00:10:30.792,-0.06,-0.025
2021-08-01 00:10:30.796,-0.045,-0.01
2021-08-01 00:10:30.800,-0.03,-0.005
2021-08-01 00:10:30.804,-0.045,0.01
2021-08-01 00:10:30.808,-0.055,0.005
2021-08-01 00:10:30.812,-0.06,0.005
2021-08-01 00:10:30.816,-0.08,0.015
2021-08-01 00:10:30.820,-0.115,0.02
2021-08-01 00:10:30.824,-0.12,0.035
2021-08-01 00:10:30.828,-0.16,0.015
2021-08-01 00:10:30.832,-0.17,0.035
2021-08-01 00:10:30.836,-0.185,0.05
2021-08-01 00:10:30.840,-0.23,0.04
2021-08-01 00:10:30.844,-0.225,0.065
2021-08-01 00:10:30.848,-0.19,0.065
2021-08-01 00:10:30.852,-0.205,0.07
2021-08-01 00:10:30.856,-0.195,0.045
2021-08-01 00:10:30.860,-0.165,0.04
2021-08-01 00:10:30.864,-0.135,0.045
2021-08-01 00:10:30.868,-0.1,0.065
2021-08-01 00:10:30.872,-0.095,0.045
2021-08-01 00:10:30.876,-0.09,0.045
2021-08-01 00:10:30.880,-0.1,0.055
2021-08-01 00:10:30.884,-0.09,0.075
2021-08-01 00:10:30.888,-0.085,0.065
2021-08-01 00:10:30.892,-0.085,0.06
2021-08-01 00:10:30.896,-0.06,0.085
2021-08-01 00:10:30.900,-0.07,0.075
2021-08-01 00:10:30.904,-0.065,0.09
2021-08-01 00:10:30.908,-0.06,0.09
2021-08-01 00:10:30.912,-0.07,0.095
2021-08-01 00:10:30.916,-0.08,0.09
2021-08-01 00:10:30.920,-0.06,0.07
2021-08-01 00:10:30.924,-0.06,0.075
2021-08-01 00:10:30.928,-0.055,0.085
2021-08-01 00:10:30.932,-0.05,0.09
2021-08-01 00:10:30.936,-0.055,0.09
2021-08-01 00:10:30.940,-0.065,0.095
2021-08-01 00:10:30.944,-0.06,0.09
2021-08-01 00:10:30.948,-0.065,0.09
2021-08-01 00:10:30.952,-0.065,0.115
2021-08-01 00:10:30.956,-0.07,0.115
2021-08-01 00:10:30.960,-0.055,0.11
2021-08-01 00:10:30.964,-0.07,0.1
2021-08-01 00:10:30.968,-0.06,0.1
2021-08-01 00:10:30.972,-0.07,0.13
2021-08-01 00:10:30.976,-0.075,0.135
2021-08-01 00:10:30.980,-0.08,0.125
2021-08-01 00:10:30.984,-0.075,0.115
2021-08-01 00:10:30.988,-0.075,0.11
2021-08-01 00:10:30.992,-0.045,0.13
2021-08-01 00:10:30.996,0.0,0.12
2021-08-01 00:10:31.000,0.1,0.155
2021-08-01 00:10:31.004,0.185,0.13
2021-08-01 00:10:31.008,0.26,0.115
2021-08-01 00:10:31.012,0.315,0.105
2021-08-01 00:10:31.016,0.3,0.08
2021-08-01 00:10:31.020,0.28,0.09
2021-08-01 00:10:31.024,0.235,0.125
2021-08-01 00:10:31.028,0.195,0.15
2021-08-01 00:10:31.032,0.165,0.125
2021-08-01 00:10:31.036,0.27,0.065
2021-08-01 00:10:31.040,0.5,-0.08
2021-08-01 00:10:31.044,0.775,-0.365
2021-08-01 00:10:31.048,1.01,-0.655
2021-08-01 00:10:31.052,1.07,-0.86
2021-08-01 00:10:31.056,0.9,-0.815
2021-08-01 00:10:31.060,0.525,-0.61
2021-08-01 00:10:31.064,0.095,-0.24
2021-08-01 00:10:31.068,-0.15,0.065
2021-08-01 00:10:31.072,-0.285,0.245
2021-08-01 00:10:31.076,-0.31,0.31
2021-08-01 00:10:31.080,-0.335,0.295
2021-08-01 00:10:31.084,-0.36,0.31
2021-08-01 00:10:31.088,-0.36,0.275
2021-08-01 00:10:31.092,-0.365,0.245
2021-08-01 00:10:31.096,-0.375,0.225
2021-08-01 00:10:31.100,-0.395,0.17
2021-08-01 00:10:31.104,-0.37,0.135
2021-08-01 00:10:31.108,-0.375,0.135
2021-08-01 00:10:31.112,-0.375,0.125
2021-08-01 00:10:31.116,-0.355,0.13
2021-08-01 00:10:31.120,-0.375,0.11
2021-08-01 00:10:31.124,-0.365,0.1
2021-08-01 00:10:31.128,-0.37,0.11
2021-08-01 00:10:31.132,-0.355,0.1
2021-08-01 00:10:31.136,-0.36,0.09
2021-08-01 00:10:31.140,-0.355,0.085
2021-08-01 00:10:31.144,-0.36,0.08
2021-08-01 00:10:31.148,-0.37,0.1
2021-08-01 00:10:31.152,-0.375,0.095
2021-08-01 00:10:31.156,-0.39,0.095
2021-08-01 00:10:31.160,-0.39,0.1
2021-08-01 00:10:31.164,-0.395,0.09
2021-08-01 00:10:31.168,-0.38,0.06
2021-08-01 00:10:31.172,-0.375,0.07
2021-08-01 00:10:31.176,-0.39,0.065
2021-08-01 00:10:31.180,-0.355,0.07
2021-08-01 00:10:31.184,-0.365,0.08
2021-08-01 00:10:31.188,-0.375,0.07
2021-08-01 00:10:31.192,-0.38,0.07
2021-08-01 00:10:31.196,-0.395,0.065
2021-08-01 00:10:31.200,-0.4,0.09
2021-08-01 00:10:31.204,-0.385,0.065
2021-08-01 00:10:31.208,-0.36,0.045
2021-08-01 00:10:31.212,-0.36,0.075
2021-08-01 00:10:31.216,-0.37,0.055
2021-08-01 00:10:31.220,-0.345,0.095
2021-08-01 00:10:31.224,-0.335,0.09
2021-08-01 00:10:31.228,-0.315,0.095
2021-08-01 00:10:31.232,-0.28,0.08
2021-08-01 00:10:31.236,-0.265,0.09
2021-08-01 00:10:31.240,-0.24,0.08
2021-08-01 00:10:31.244,-0.24,0.09
2021-08-01 00:10:31.248,-0.25,0.08
2021-08-01 00:10:31.252,-0.255,0.075
2021-08-01 00:10:31.256,-0.27,0.085
2021-08-01 00:10:31.260,-0.305,0.085
2021-08-01 00:10:31.264,-0.34,0.065
2021-08-01 00:10:31.268,-0.355,0.055
2021-08-01 00:10:31.272,-0.41,0.055
2021-08-01 00:10:31.276,-0.43,0.06
2021-08-01 00:10:31.280,-0.435,0.065
2021-08-01 00:10:31.284,-0.43,0.05
2021-08-01 00:10:31.288,-0.415,0.035
2021-08-01 00:10:31.292,-0.385,0.005
2021-08-01 00:10:31.296,-0.36,0.025
2021-08-01 00:10:31.300,-0.36,0.0
2021-08-01 00:10:31.304,-0.34,-0.01
2021-08-01 00:10:31.308,-0.305,-0.02
2021-08-01 00:10:31.312,-0.295,-0.01
2021-08-01 00:10:31.316,-0.305,-0.005
2021-08-01 00:10:31.320,-0.285,-0.02
2021-08-01 00:10:31.324,-0.265,0.01
2021-08-01 00:10:31.328,-0.29,0.01
2021-08-01 00:10:31.332,-0.24,0.0
2021-08-01 00:10:31.336,-0.25,-0.005
2021-08-01 00:10:31.340,-0.26,0.0
2021-08-01 00:10:31.344,-0.255,-0.005
2021-08-01 00:10:31.348,-0.26,-0.005
2021-08-01 00:10:31.352,-0.26,0.01
2021-08-01 00:10:31.356,-0.265,0.03
2021-08-01 00:10:31.360,-0.24,0.01
2021-08-01 00:10:31.364,-0.225,0.01
2021-08-01 00:10:31.368,-0.235,0.025
2021-08-01 00:10:31.372,-0.24,0.01
2021-08-01 00:10:31.376,-0.245,0.0
2021-08-01 00:10:31.380,-0.23,0.01
2021-08-01 00:10:31.384,-0.23,0.02
2021-08-01 00:10:31.388,-0.22,0.005
2021-08-01 00:10:31.392,-0.21,0.005
2021-08-01 00:10:31.396,-0.195,0.0
2021-08-01 00:10:31.400,-0.195,0.01
2021-08-01 00:10:31.404,-0.195,0.0
2021-08-01 00:10:31.408,-0.205,0.005
2021-08-01 00:10:31.412,-0.19,0.005
2021-08-01 00:10:31.416,-0.195,0.02
2021-08-01 00:10:31.420,-0.19,0.005
2021-08-01 00:10:31.424,-0.16,0.015
2021-08-01 00:10:31.428,-0.155,0.015
2021-08-01 00:10:31.432,-0.16,0.015
2021-08-01 00:10:31.436,-0.14,0.015
2021-08-01 00:10:31.440,-0.115,0.02
2021-08-01 00:10:31.444,-0.095,0.005
2021-08-01 00:10:31.448,-0.105,0.0
2021-08-01 00:10:31.452,-0.08,0.025
2021-08-01 00:10:31.456,-0.09,0.03
2021-08-01 00:10:31.460,-0.075,0.015
2021-08-01 00:10:31.464,-0.08,0.03
2021-08-01 00:10:31.468,-0.06,0.015
2021-08-01 00:10:31.472,-0.08,0.04
2021-08-01 00:10:31.476,-0.025,0.025
2021-08-01 00:10:31.480,0.015,0.03
2021-08-01 00:10:31.484,0.075,0.035
2021-08-01 00:10:31.488,0.095,0.04
2021-08-01 00:10:31.492,0.17,0.01
2021-08-01 00:10:31.496,0.215,-0.015
2021-08-01 00:10:31.500,0.23,-0.035
2021-08-01 00:10:31.504,0.25,-0.025
2021-08-01 00:10:31.508,0.215,0.035
2021-08-01 00:10:31.512,0.14,0.03
2021-08-01 00:10:31.516,0.13,0.005
2021-08-01 00:10:31.520,0.25,-0.065
2021-08-01 00:10:31.524,0.51,-0.215
2021-08-01 00:10:31.528,0.84,-0.495
2021-08-01 00:10:31.532,1.11,-0.76
2021-08-01 00:10:31.536,1.115,-0.895
2021-08-01 00:10:31.540,0.805,-0.865
2021-08-01 00:10:31.544,0.39,-0.6
2021-08-01 00:10:31.548,0.065,-0.31
2021-08-01 00:10:31.552,-0.1,-0.095
2021-08-01 00:10:31.556,-0.18,0.02
2021-08-01 00:10:31.560,-0.23,0.1
2021-08-01 00:10:31.564,-0.27,0.125
2021-08-01 00:10:31.568,-0.305,0.11
2021-08-01 00:10:31.572,-0.335,0.1
2021-08-01 00:10:31.576,-0.36,0.085
2021-08-01 00:10:31.580,-0.35,0.06
2021-08-01 00:10:31.584,-0.37,0.04
2021-08-01 00:10:31.588,-0.385,0.01
2021-08-01 00:10:31.592,-0.375,0.005
2021-08-01 00:10:31.596,-0.39,0.0
2021-08-01 00:10:31.600,-0.39,0.015
2021-08-01 00:10:31.604,-0.415,0.01
2021-08-01 00:10:31.608,-0.39,0.01
2021-08-01 00:10:31.612,-0.385,0.025
2021-08-01 00:10:31.616,-0.38,0.03
2021-08-01 00:10:31.620,-0.395,0.005
2021-08-01 00:10:31.624,-0.39,0.0
2021-08-01 00:10:31.628,-0.375,0.005
2021-08-01 00:10:31.632,-0.385,0.01
2021-08-01 00:10:31.636,-0.355,0.02
2021-08-01 00:10:31.640,-0.35,0.0
2021-08-01 00:10:31.644,-0.37,-0.015
2021-08-01 00:10:31.648,-0.38,0.0
2021-08-01 00:10:31.652,-0.37,0.0
2021-08-01 00:10:31.656,-0.37,0.0
2021-08-01 00:10:31.660,-0.37,0.025
2021-08-01 00:10:31.664,-0.37,0.01
2021-08-01 00:10:31.668,-0.33,0.01
2021-08-01 00:10:31.672,-0.325,0.025
2021-08-01 00:10:31.676,-0.29,0.02
2021-08-01 00:10:31.680,-0.28,0.02
2021-08-01 00:10:31.684,-0.28,-0.005
2021-08-01 00:10:31.688,-0.295,0.01
2021-08-01 00:10:31.692,-0.29,0.02
2021-08-01 00:10:31.696,-0.29,0.045
2021-08-01 00:10:31.700,-0.345,0.02
2021-08-01 00:10:31.704,-0.38,0.015
2021-08-01 00:10:31.708,-0.395,0.01
2021-08-01 00:10:31.712,-0.4,0.025
2021-08-01 00:10:31.716,-0.43,0.03
2021-08-01 00:10:31.720,-0.42,0.01
2021-08-01 00:10:31.724,-0.44,0.025
2021-08-01 00:10:31.728,-0.445,0.02
2021-08-01 00:10:31.732,-0.455,0.015
2021-08-01 00:10:31.736,-0.435,0.02
2021-08-01 00:10:31.740,-0.415,0.02
2021-08-01 00:10:31.744,-0.425,0.0
2021-08-01 00:10:31.748,-0.42,-0.04
2021-08-01 00:10:31.752,-0.415,-0.06
2021-08-01 00:10:31.756,-0.415,-0.04
2021-08-01 00:10:31.760,-0.38,-0.075
2021-08-01 00:10:31.764,-0.34,-0.055
2021-08-01 00:10:31.768,-0.35,-0.08
2021-08-01 00:10:31.772,-0.34,-0.075
2021-08-01 00:10:31.776,-0.31,-0.08
2021-08-01 00:10:31.780,-0.315,-0.1
2021-08-01 00:10:31.784,-0.295,-0.08
2021-08-01 00:10:31.788,-0.275,-0.09
2021-08-01 00:10:31.792,-0.275,-0.1
2021-08-01 00:10:31.796,-0.29,-0.1
2021-08-01 00:10:31.800,-0.275,-0.105
2021-08-01 00:10:31.804,-0.27,-0.08
2021-08-01 00:10:31.808,-0.265,-0.095
2021-08-01 00:10:31.812,-0.25,-0.1
2021-08-01 00:10:31.816,-0.255,-0.085
2021-08-01 00:10:31.820,-0.24,-0.07
2021-08-01 00:10:31.824,-0.23,-0.085
2021-08-01 00:10:31.828,-0.22,-0.075
2021-08-01 00:10:31.832,-0.24,-0.06
2021-08-01 00:10:31.836,-0.23,-0.065
2021-08-01 00:10:31.840,-0.235,-0.04
2021-08-01 00:10:31.844,-0.215,-0.07
2021-08-01 00:10:31.848,-0.2,-0.045
2021-08-01 00:10:31.852,-0.2,-0.05
2021-08-01 00:10:31.856,-0.185,-0.045
2021-08-01 00:10:31.860,-0.19,-0.04
2021-08-01 00:10:31.864,-0.18,-0.05
2021-08-01 00:10:31.868,-0.16,-0.035
2021-08-01 00:10:31.872,-0.145,-0.015
2021-08-01 00:10:31.876,-0.145,-0.015
2021-08-01 00:10:31.880,-0.12,-0.015
2021-08-01 00:10:31.884,-0.095,-0.02
2021-08-01 00:10:31.888,-0.08,-0.015
2021-08-01 00:10:31.892,-0.08,0.0
2021-08-01 00:10:31.896,-0.065,-0.01
2021-08-01 00:10:31.900,-0.06,0.01
2021-08-01 00:10:31.904,-0.06,0.0
2021-08-01 00:10:31.908,-0.045,0.015
2021-08-01 00:10:31.912,-0.06,0.015
2021-08-01 00:10:31.916,-0.105,0.035
2021-08-01 00:10:31.920,-0.135,0.01
2021-08-01 00:10:31.924,-0.175,0.0
2021-08-01 00:10:31.928,-0.17,-0.01
2021-08-01 00:10:31.932,-0.195,0.01
2021-08-01 00:10:31.936,-0.19,0.025
2021-08-01 00:10:31.940,-0.215,0.01
2021-08-01 00:10:31.944,-0.235,0.01
2021-08-01 00:10:31.948,-0.26,0.025
2021-08-01 00:10:31.952,-0.23,0.015
2021-08-01 00:10:31.956,-0.23,0.005
2021-08-01 00:10:31.960,-0.205,0.0
2021-08-01 00:10:31.964,-0.15,0.01
2021-08-01 00:10:31.968,-0.08,-0.02
2021-08-01 00:10:31.972,0.01,-0.01
2021-08-01 00:10:31.976,0.075,-0.015
2021-08-01 00:10:31.980,0.135,-0.04
2021-08-01 00:10:31.984,0.225,-0.07
2021-08-01 00:10:31.988,0.265,-0.085
2021-08-01 00:10:31.992,0.295,-0.09
2021-08-01 00:10:31.996,0.29,-0.08
2021-08-01 00:10:32.000,0.27,-0.16
2021-08-01 00:10:32.004,0.325,-0.23
2021-08-01 00:10:32.008,0.505,-0.38
2021-08-01 00:10:32.012,0.825,-0.65
2021-08-01 00:10:32.016,1.14,-0.925
2021-08-01 00:10:32.020,1.315,-1.145
2021-08-01 00:10:32.024,1.235,-1.215
2021-08-01 00:10:32.028,0.905,-1.055
2021-08-01 00:10:32.032,0.47,-0.72
2021-08-01 00:10:32.036,0.145,-0.38
2021-08-01 00:10:32.040,-0.025,-0.185
2021-08-01 00:10:32.044,-0.11,-0.055
2021-08-01 00:10:32.048,-0.175,-0.02
2021-08-01 00:10:32.052,-0.22,0.005
2021-08-01 00:10:32.056,-0.27,-0.005
2021-08-01 00:10:32.060,-0.275,-0.015
2021-08-01 00:10:32.064,-0.235,-0.025
2021-08-01 00:10:32.068,-0.24,-0.03
2021-08-01 00:10:32.072,-0.31,-0.055
2021-08-01 00:10:32.076,-0.32,-0.075
2021-08-01 00:10:32.080,-0.32,-0.1
2021-08-01 00:10:32.084,-0.32,-0.1
2021-08-01 00:10:32.088,-0.31,-0.12
2021-08-01 00:10:32.092,-0.28,-0.125
2021-08-01 00:10:32.096,-0.275,-0.11
2021-08-01 00:10:32.100,-0.305,-0.115
2021-08-01 00:10:32.104,-0.295,-0.1
2021-08-01 00:10:32.108,-0.285,-0.09
2021-08-01 00:10:32.112,-0.28,-0.095
2021-08-01 00:10:32.116,-0.28,-0.1
2021-08-01 00:10:32.120,-0.28,-0.105
2021-08-01 00:10:32.124,-0.275,-0.1
2021-08-01 00:10:32.128,-0.285,-0.085
2021-08-01 00:10:32.132,-0.265,-0.14
2021-08-01 00:10:32.136,-0.315,-0.11
2021-08-01 00:10:32.140,-0.345,-0.105
2021-08-01 00:10:32.144,-0.385,-0.105
2021-08-01 00:10:32.148,-0.41,-0.12
2021-08-01 00:10:32.152,-0.425,-0.1
2021-08-01 00:10:32.156,-0.46,-0.12
2021-08-01 00:10:32.160,-0.49,-0.12
2021-08-01 00:10:32.164,-0.48,-0.115
2021-08-01 00:10:32.168,-0.465,-0.135
2021-08-01 00:10:32.172,-0.45,-0.125
2021-08-01 00:10:32.176,-0.435,-0.145
2021-08-01 00:10:32.180,-0.405,-0.135
2021-08-01 00:10:32.184,-0.395,-0.16
2021-08-01 00:10:32.188,-0.385,-0.16
2021-08-01 00:10:32.192,-0.405,-0.17
2021-08-01 00:10:32.196,-0.41,-0.16
2021-08-01 00:10:32.200,-0.475,-0.175
2021-08-01 00:10:32.204,-0.475,-0.18
2021-08-01 00:10:32.208,-0.47,-0.185
2021-08-01 00:10:32.212,-0.44,-0.185
2021-08-01 00:10:32.216,-0.4,-0.18
2021-08-01 00:10:32.220,-0.36,-0.185
2021-08-01 00:10:32.224,-0.355,-0.185
2021-08-01 00:10:32.228,-0.345,-0.205
2021-08-01 00:10:32.232,-0.34,-0.22
2021-08-01 00:10:32.236,-0.36,-0.23
2021-08-01 00:10:32.240,-0.325,-0.24
2021-08-01 00:10:32.244,-0.265,-0.23
2021-08-01 00:10:32.248,-0.255,-0.28
2021-08-01 00:10:32.252,-0.26,-0.255
2021-08-01 00:10:32.256,-0.235,-0.275
2021-08-01 00:10:32.260,-0.225,-0.275
2021-08-01 00:10:32.264,-0.215,-0.275
2021-08-01 00:10:32.268,-0.18,-0.235
2021-08-01 00:10:32.272,-0.16,-0.26
2021-08-01 00:10:32.276,-0.16,-0.24
2021-08-01 00:10:32.280,-0.14,-0.225
2021-08-01 00:10:32.284,-0.15,-0.245
2021-08-01 00:10:32.288,-0.15,-0.22
2021-08-01 00:10:32.292,-0.165,-0.235
2021-08-01 00:10:32.296,-0.15,-0.22
2021-08-01 00:10:32.300,-0.14,-0.24
2021-08-01 00:10:32.304,-0.09,-0.21
2021-08-01 00:10:32.308,-0.11,-0.215
2021-08-01 00:10:32.312,-0.125,-0.195
2021-08-01 00:10:32.316,-0.1,-0.215
2021-08-01 00:10:32.320,-0.13,-0.205
2021-08-01 00:10:32.324,-0.08,-0.19
2021-08-01 00:10:32.328,-0.025,-0.18
2021-08-01 00:10:32.332,-0.03,-0.19
2021-08-01 00:10:32.336,-0.09,-0.195
2021-08-01 00:10:32.340,-0.105,-0.18
2021-08-01 00:10:32.344,-0.1,-0.175
2021-08-01 00:10:32.348,-0.11,-0.205
2021-08-01 00:10:32.352,-0.12,-0.22
2021-08-01 00:10:32.356,-0.13,-0.17
2021-08-01 00:10:32.360,-0.16,-0.185
2021-08-01 00:10:32.364,-0.165,-0.19
2021-08-01 00:10:32.368,-0.225,-0.17
2021-08-01 00:10:32.372,-0.23,-0.175
2021-08-01 00:10:32.376,-0.22,-0.17
2021-08-01 00:10:32.380,-0.215,-0.195
2021-08-01 00:10:32.384,-0.225,-0.195
2021-08-01 00:10:32.388,-0.175,-0.195
2021-08-01 00:10:32.392,-0.175,-0.2
2021-08-01 00:10:32.396,-0.16,-0.18
2021-08-01 00:10:32.400,-0.08,-0.22
2021-08-01 00:10:32.404,0.055,-0.22
2021-08-01 00:10:32.408,0.1,-0.245
2021-08-01 00:10:32.412,0.1,-0.275
2021-08-01 00:10:32.416,0.145,-0.295
2021-08-01 00:10:32.420,0.15,-0.26
2021-08-01 00:10:32.424,0.105,-0.21
2021-08-01 00:10:32.428,0.09,-0.2
2021-08-01 00:10:32.432,0.14,-0.195
2021-08-01 00:10:32.436,0.27,-0.26
2021-08-01 00:10:32.440,0.555,-0.405
2021-08-01 00:10:32.444,0.9,-0.67
2021-08-01 00:10:32.448,1.115,-0.97
2021-08-01 00:10:32.452,1.165,-1.155
2021-08-01 00:10:32.456,0.995,-1.105
2021-08-01 00:10:32.460,0.615,-0.805
2021-08-01 00:10:32.464,0.215,-0.445
2021-08-01 00:10:32.468,0.0,-0.2
2021-08-01 00:10:32.472,-0.085,-0.1
2021-08-01 00:10:32.476,-0.13,-0.06
2021-08-01 00:10:32.480,-0.165,-0.065
2021-08-01 00:10:32.484,-0.195,-0.08
2021-08-01 00:10:32.488,-0.175,-0.12
2021-08-01 00:10:32.492,-0.145,-0.1
2021-08-01 00:10:32.496,-0.14,-0.155
2021-08-01 00:10:32.500,-0.18,-0.175
2021-08-01 00:10:32.504,-0.21,-0.215
2021-08-01 00:10:32.508,-0.185,-0.215
2021-08-01 00:10:32.512,-0.13,-0.24
2021-08-01 00:10:32.516,-0.1,-0.235
2021-08-01 00:10:32.520,-0.13,-0.215
2021-08-01 00:10:32.524,-0.14,-0.2
2021-08-01 00:10:32.528,-0.2,-0.22
2021-08-01 00:10:32.532,-0.17,-0.195
2021-08-01 00:10:32.536,-0.13,-0.215
2021-08-01 00:10:32.540,-0.12,-0.225
2021-08-01 00:10:32.544,-0.14,-0.215
2021-08-01 00:10:32.548,-0.16,-0.205
2021-08-01 00:10:32.552,-0.13,-0.2
2021-08-01 00:10:32.556,-0.105,-0.19
2021-08-01 00:10:32.560,-0.08,-0.21
2021-08-01 00:10:32.564,-0.125,-0.195
2021-08-01 00:10:32.568,-0.155,-0.21
2021-08-01 00:10:32.572,-0.225,-0.205
2021-08-01 00:10:32.576,-0.305,-0.235
2021-08-01 00:10:32.580,-0.345,-0.26
2021-08-01 00:10:32.584,-0.325,-0.24
2021-08-01 00:10:32.588,-0.285,-0.255
2021-08-01 00:10:32.592,-0.275,-0.24
2021-08-01 00:10:32.596,-0.275,-0.245
2021-08-01 00:10:32.600,-0.305,-0.25
2021-08-01 00:10:32.604,-0.33,-0.255
2021-08-01 00:10:32.608,-0.34,-0.27
2021-08-01 00:10:32.612,-0.33,-0.27
2021-08-01 00:10:32.616,-0.31,-0.25
2021-08-01 00:10:32.620,-0.32,-0.28
2021-08-01 00:10:32.624,-0.36,-0.29
2021-08-01 00:10:32.628,-0.38,-0.29
2021-08-01 00:10:32.632,-0.325,-0.29
2021-08-01 00:10:32.636,-0.27,-0.3
2021-08-01 00:10:32.640,-0.275,-0.28
2021-08-01 00:10:32.644,-0.295,-0.29
2021-08-01 00:10:32.648,-0.32,-0.275
2021-08-01 00:10:32.652,-0.34,-0.28
2021-08-01 00:10:32.656,-0.35,-0.275
2021-08-01 00:10:32.660,-0.315,-0.3
2021-08-01 00:10:32.664,-0.26,-0.305
2021-08-01 00:10:32.668,-0.195,-0.3
2021-08-01 00:10:32.672,-0.18,-0.305
2021-08-01 00:10:32.676,-0.17,-0.305
2021-08-01 00:10:32.680,-0.195,-0.28
2021-08-01 00:10:32.684,-0.2,-0.3
2021-08-01 00:10:32.688,-0.2,-0.305
2021-08-01 00:10:32.692,-0.205,-0.32
2021-08-01 00:10:32.696,-0.21,-0.31
2021-08-01 00:10:32.700,-0.165,-0.275
2021-08-01 00:10:32.704,-0.115,-0.275
2021-08-01 00:10:32.708,-0.13,-0.265
2021-08-01 00:10:32.712,-0.13,-0.26
2021-08-01 00:10:32.716,-0.08,-0.24
2021-08-01 00:10:32.720,-0.04,-0.26
2021-08-01 00:10:32.724,-0.035,-0.25
2021-08-01 00:10:32.728,-0.04,-0.235
2021-08-01 00:10:32.732,-0.025,-0.255
2021-08-01 00:10:32.736,-0.035,-0.24
2021-08-01 00:10:32.740,-0.04,-0.24
2021-08-01 00:10:32.744,-0.055,-0.225
2021-08-01 00:10:32.748,-0.045,-0.22
2021-08-01 00:10:32.752,-0.01,-0.23
2021-08-01 00:10:32.756,0.03,-0.25
2021-08-01 00:10:32.760,0.13,-0.24
2021-08-01 00:10:32.764,0.16,-0.24
2021-08-01 00:10:32.768,0.12,-0.24
2021-08-01 00:10:32.772,0.065,-0.225
2021-08-01 00:10:32.776,0.025,-0.19
2021-08-01 00:10:32.780,-0.03,-0.185
2021-08-01 00:10:32.784,-0.08,-0.195
2021-08-01 00:10:32.788,-0.135,-0.205
2021-08-01 00:10:32.792,-0.145,-0.205
2021-08-01 00:10:32.796,-0.16,-0.195
2021-08-01 00:10:32.800,-0.14,-0.21
2021-08-01 00:10:32.804,-0.135,-0.225
2021-08-01 00:10:32.808,-0.12,-0.22
2021-08-01 00:10:32.812,-0.11,-0.21
2021-08-01 00:10:32.816,-0.125,-0.205
2021-08-01 00:10:32.820,-0.16,-0.235
2021-08-01 00:10:32.824,-0.13,-0.23
2021-08-01 00:10:32.828,-0.17,-0.24
2021-08-01 00:10:32.832,-0.19,-0.255
2021-08-01 00:10:32.836,-0.205,-0.265
2021-08-01 00:10:32.840,-0.215,-0.27
2021-08-01 00:10:32.844,-0.2,-0.27
2021-08-01 00:10:32.848,-0.175,-0.285
2021-08-01 00:10:32.852,-0.16,-0.295
2021-08-01 00:10:32.856,-0.225,-0.285
2021-08-01 00:10:32.860,-0.24,-0.275
2021-08-01 00:10:32.864,-0.235,-0.29
2021-08-01 00:10:32.868,-0.2,-0.275
2021-08-01 00:10:32.872,-0.22,-0.25
2021-08-01 00:10:32.876,-0.24,-0.24
2021-08-01 00:10:32.880,-0.245,-0.265
2021-08-01 00:10:32.884,-0.23,-0.27
2021-08-01 00:10:32.888,-0.195,-0.27
2021-08-01 00:10:32.892,-0.21,-0.285
2021-08-01 00:10:32.896,-0.255,-0.29
2021-08-01 00:10:32.900,-0.3,-0.3
2021-08-01 00:10:32.904,-0.35,-0.295
2021-08-01 00:10:32.908,-0.325,-0.305
2021-08-01 00:10:32.912,-0.205,-0.295
2021-08-01 00:10:32.916,-0.125,-0.28
2021-08-01 00:10:32.920,-0.125,-0.28
2021-08-01 00:10:32.924,-0.165,-0.28
2021-08-01 00:10:32.928,-0.215,-0.28
2021-08-01 00:10:32.932,-0.235,-0.26
2021-08-01 00:10:32.936,-0.215,-0.275
2021-08-01 00:10:32.940,-0.17,-0.245
2021-08-01 00:10:32.944,-0.175,-0.26
2021-08-01 00:10:32.948,-0.24,-0.24
2021-08-01 00:10:32.952,-0.265,-0.26
2021-08-01 00:10:32.956,-0.19,-0.245
2021-08-01 00:10:32.960,-0.135,-0.24
2021-08-01 00:10:32.964,-0.155,-0.25
2021-08-01 00:10:32.968,-0.1,-0.23
2021-08-01 00:10:32.972,-0.01,-0.23
2021-08-01 00:10:32.976,0.0,-0.225
2021-08-01 00:10:32.980,0.01,-0.225
2021-08-01 00:10:32.984,0.015,-0.235
2021-08-01 00:10:32.988,-0.01,-0.255
2021-08-01 00:10:32.992,-0.02,-0.275
2021-08-01 00:10:32.996,-0.05,-0.26
2021-08-01 00:10:33.000,-0.065,-0.24
2021-08-01 00:10:33.004,-0.04,-0.24
2021-08-01 00:10:33.008,0.05,-0.255
2021-08-01 00:10:33.012,0.13,-0.27
2021-08-01 00:10:33.016,0.185,-0.275
2021-08-01 00:10:33.020,0.23,-0.26
2021-08-01 00:10:33.024,0.255,-0.285
2021-08-01 00:10:33.028,0.215,-0.29
2021-08-01 00:10:33.032,0.165,-0.265
2021-08-01 00:10:33.036,0.135,-0.225
2021-08-01 00:10:33.040,0.13,-0.26
2021-08-01 00:10:33.044,0.15,-0.305
2021-08-01 00:10:33.048,0.3,-0.39
2021-08-01 00:10:33.052,0.55,-0.61
2021-08-01 00:10:33.056,0.87,-0.895
2021-08-01 00:10:33.060,1.105,-1.145
2021-08-01 00:10:33.064,1.14,-1.25
2021-08-01 00:10:33.068,0.895,-1.115
2021-08-01 00:10:33.072,0.44,-0.8
2021-08-01 00:10:33.076,0.04,-0.445
2021-08-01 00:10:33.080,-0.205,-0.235
2021-08-01 00:10:33.084,-0.28,-0.165
2021-08-01 00:10:33.088,-0.355,-0.12
2021-08-01 00:10:33.092,-0.43,-0.13
2021-08-01 00:10:33.096,-0.43,-0.12
2021-08-01 00:10:33.100,-0.445,-0.18
2021-08-01 00:10:33.104,-0.425,-0.185
2021-08-01 00:10:33.108,-0.415,-0.21
2021-08-01 00:10:33.112,-0.405,-0.255
2021-08-01 00:10:33.116,-0.425,-0.255
2021-08-01 00:10:33.120,-0.45,-0.275
2021-08-01 00:10:33.124,-0.48,-0.29
2021-08-01 00:10:33.128,-0.48,-0.29
2021-08-01 00:10:33.132,-0.475,-0.3
2021-08-01 00:10:33.136,-0.45,-0.315
2021-08-01 00:10:33.140,-0.445,-0.3
2021-08-01 00:10:33.144,-0.45,-0.315
2021-08-01 00:10:33.148,-0.49,-0.32
2021-08-01 00:10:33.152,-0.495,-0.295
2021-08-01 00:10:33.156,-0.48,-0.275
2021-08-01 00:10:33.160,-0.435,-0.28
2021-08-01 00:10:33.164,-0.42,-0.27
2021-08-01 00:10:33.168,-0.445,-0.27
2021-08-01 00:10:33.172,-0.465,-0.27
2021-08-01 00:10:33.176,-0.485,-0.25
2021-08-01 00:10:33.180,-0.48,-0.25
2021-08-01 00:10:33.184,-0.465,-0.265
2021-08-01 00:10:33.188,-0.465,-0.255
2021-08-01 00:10:33.192,-0.47,-0.265
2021-08-01 00:10:33.196,-0.46,-0.275
2021-08-01 00:10:33.200,-0.435,-0.27
2021-08-01 00:10:33.204,-0.39,-0.25
2021-08-01 00:10:33.208,-0.355,-0.25
2021-08-01 00:10:33.212,-0.35,-0.255
2021-08-01 00:10:33.216,-0.33,-0.265
2021-08-01 00:10:33.220,-0.35,-0.23
2021-08-01 00:10:33.224,-0.375,-0.27
2021-08-01 00:10:33.228,-0.41,-0.265
2021-08-01 00:10:33.232,-0.47,-0.25
2021-08-01 00:10:33.236,-0.49,-0.27
2021-08-01 00:10:33.240,-0.51,-0.285
2021-08-01 00:10:33.244,-0.445,-0.26
2021-08-01 00:10:33.248,-0.43,-0.26
2021-08-01 00:10:33.252,-0.465,-0.275
2021-08-01 00:10:33.256,-0.485,-0.28
2021-08-01 00:10:33.260,-0.49,-0.295
2021-08-01 00:10:33.264,-0.48,-0.28
2021-08-01 00:10:33.268,-0.495,-0.295
2021-08-01 00:10:33.272,-0.51,-0.32
2021-08-01 00:10:33.276,-0.53,-0.31
2021-08-01 00:10:33.280,-0.54,-0.32
2021-08-01 00:10:33.284,-0.545,-0.32
2021-08-01 00:10:33.288,-0.53,-0.315
2021-08-01 00:10:33.292,-0.525,-0.33
2021-08-01 00:10:33.296,-0.535,-0.33
2021-08-01 00:10:33.300,-0.555,-0.355
2021-08-01 00:10:33.304,-0.55,-0.345
2021-08-01 00:10:33.308,-0.53,-0.35
2021-08-01 00:10:33.312,-0.52,-0.33
2021-08-01 00:10:33.316,-0.515,-0.325
2021-08-01 00:10:33.320,-0.49,-0.32
2021-08-01 00:10:33.324,-0.53,-0.345
2021-08-01 00:10:33.328,-0.505,-0.335
2021-08-01 00:10:33.332,-0.54,-0.32
2021-08-01 00:10:33.336,-0.535,-0.29
2021-08-01 00:10:33.340,-0.51,-0.29
2021-08-01 00:10:33.344,-0.51,-0.285
2021-08-01 00:10:33.348,-0.51,-0.33
2021-08-01 00:10:33.352,-0.5,-0.285
2021-08-01 00:10:33.356,-0.5,-0.27
2021-08-01 00:10:33.360,-0.5,-0.25
2021-08-01 00:10:33.364,-0.495,-0.23
2021-08-01 00:10:33.368,-0.475,-0.2
2021-08-01 00:10:33.372,-0.5,-0.22
2021-08-01 00:10:33.376,-0.45,-0.18
2021-08-01 00:10:33.380,-0.45,-0.19
2021-08-01 00:10:33.384,-0.455,-0.165
2021-08-01 00:10:33.388,-0.485,-0.135
2021-08-01 00:10:33.392,-0.475,-0.125
2021-08-01 00:10:33.396,-0.475,-0.13
2021-08-01 00:10:33.400,-0.46,-0.13
2021-08-01 00:10:33.404,-0.465,-0.105
2021-08-01 00:10:33.408,-0.47,-0.105
2021-08-01 00:10:33.412,-0.47,-0.11
2021-08-01 00:10:33.416,-0.455,-0.085
2021-08-01 00:10:33.420,-0.43,-0.04
2021-08-01 00:10:33.424,-0.43,-0.075
2021-08-01 00:10:33.428,-0.43,-0.05
2021-08-01 00:10:33.432,-0.445,-0.06
2021-08-01 00:10:33.436,-0.425,-0.035
2021-08-01 00:10:33.440,-0.43,-0.03
2021-08-01 00:10:33.444,-0.43,-0.05
2021-08-01 00:10:33.448,-0.42,-0.03
2021-08-01 00:10:33.452,-0.465,-0.025
2021-08-01 00:10:33.456,-0.495,-0.05
2021-08-01 00:10:33.460,-0.5,-0.03
2021-08-01 00:10:33.464,-0.51,-0.015
2021-08-01 00:10:33.468,-0.525,-0.015
2021-08-01 00:10:33.472,-0.53,-0.02
2021-08-01 00:10:33.476,-0.545,0.01
2021-08-01 00:10:33.480,-0.55,0.0
2021-08-01 00:10:33.484,-0.555,0.005
2021-08-01 00:10:33.488,-0.575,0.0
2021-08-01 00:10:33.492,-0.61,-0.02
2021-08-01 00:10:33.496,-0.615,-0.005
2021-08-01 00:10:33.500,-0.64,-0.01
2021-08-01 00:10:33.504,-0.615,-0.01
2021-08-01 00:10:33.508,-0.62,0.0
2021-08-01 00:10:33.512,-0.61,0.02
2021-08-01 00:10:33.516,-0.595,0.0
2021-08-01 00:10:33.520,-0.595,0.02
2021-08-01 00:10:33.524,-0.58,0.01
2021-08-01 00:10:33.528,-0.575,0.01
2021-08-01 00:10:33.532,-0.535,-0.005
2021-08-01 00:10:33.536,-0.47,0.02
2021-08-01 00:10:33.540,-0.39,0.01
2021-08-01 00:10:33.544,-0.32,0.01
2021-08-01 00:10:33.548,-0.27,-0.02
2021-08-01 00:10:33.552,-0.275,-0.04
2021-08-01 00:10:33.556,-0.29,-0.04
2021-08-01 00:10:33.560,-0.33,-0.03
2021-08-01 00:10:33.564,-0.37,-0.01
2021-08-01 00:10:33.568,-0.39,-0.06
2021-08-01 00:10:33.572,-0.24,-0.145
2021-08-01 00:10:33.576,0.06,-0.31
2021-08-01 00:10:33.580,0.395,-0.585
2021-08-01 00:10:33.584,0.635,-0.85
2021-08-01 00:10:33.588,0.75,-1.025
2021-08-01 00:10:33.592,0.58,-0.94
2021-08-01 00:10:33.596,0.18,-0.64
2021-08-01 00:10:33.600,-0.215,-0.26
2021-08-01 00:10:33.604,-0.43,0.055
2021-08-01 00:10:33.608,-0.53,0.21
2021-08-01 00:10:33.612,-0.585,0.275
2021-08-01 00:10:33.616,-0.605,0.295
2021-08-01 00:10:33.620,-0.62,0.26
2021-08-01 00:10:33.624,-0.605,0.285
2021-08-01 00:10:33.628,-0.605,0.285
2021-08-01 00:10:33.632,-0.62,0.26
2021-08-01 00:10:33.636,-0.64,0.265
2021-08-01 00:10:33.640,-0.605,0.25
2021-08-01 00:10:33.644,-0.62,0.24
2021-08-01 00:10:33.648,-0.62,0.21
2021-08-01 00:10:33.652,-0.63,0.21
2021-08-01 00:10:33.656,-0.64,0.185
2021-08-01 00:10:33.660,-0.665,0.21
2021-08-01 00:10:33.664,-0.66,0.19
2021-08-01 00:10:33.668,-0.685,0.205
2021-08-01 00:10:33.672,-0.68,0.175
2021-08-01 00:10:33.676,-0.66,0.16
2021-08-01 00:10:33.680,-0.685,0.195
2021-08-01 00:10:33.684,-0.695,0.185
2021-08-01 00:10:33.688,-0.71,0.175
2021-08-01 00:10:33.692,-0.685,0.15
2021-08-01 00:10:33.696,-0.685,0.18
2021-08-01 00:10:33.700,-0.7,0.155
2021-08-01 00:10:33.704,-0.71,0.14
2021-08-01 00:10:33.708,-0.71,0.165
2021-08-01 00:10:33.712,-0.745,0.12
2021-08-01 00:10:33.716,-0.74,0.13
2021-08-01 00:10:33.720,-0.73,0.12
2021-08-01 00:10:33.724,-0.74,0.125
2021-08-01 00:10:33.728,-0.765,0.11
2021-08-01 00:10:33.732,-0.76,0.125
2021-08-01 00:10:33.736,-0.75,0.125
2021-08-01 00:10:33.740,-0.765,0.095
2021-08-01 00:10:33.744,-0.79,0.12
2021-08-01 00:10:33.748,-0.785,0.11
2021-08-01 00:10:33.752,-0.77,0.1
2021-08-01 00:10:33.756,-0.775,0.095
2021-08-01 00:10:33.760,-0.75,0.095
2021-08-01 00:10:33.764,-0.75,0.06
2021-08-01 00:10:33.768,-0.745,0.055
2021-08-01 00:10:33.772,-0.75,0.07
2021-08-01 00:10:33.776,-0.73,0.055
2021-08-01 00:10:33.780,-0.725,0.035
2021-08-01 00:10:33.784,-0.74,0.04
2021-08-01 00:10:33.788,-0.7,0.055
2021-08-01 00:10:33.792,-0.71,0.035
2021-08-01 00:10:33.796,-0.695,0.055
2021-08-01 00:10:33.800,-0.67,0.055
2021-08-01 00:10:33.804,-0.655,0.02
2021-08-01 00:10:33.808,-0.64,0.005
2021-08-01 00:10:33.812,-0.64,0.03
2021-08-01 00:10:33.816,-0.635,0.02
2021-08-01 00:10:33.820,-0.615,0.01
2021-08-01 00:10:33.824,-0.62,0.01
2021-08-01 00:10:33.828,-0.62,0.005
2021-08-01 00:10:33.832,-0.57,0.0
2021-08-01 00:10:33.836,-0.565,0.01
2021-08-01 00:10:33.840,-0.57,0.0
2021-08-01 00:10:33.844,-0.555,0.015
2021-08-01 00:10:33.848,-0.525,-0.005
2021-08-01 00:10:33.852,-0.52,0.015
2021-08-01 00:10:33.856,-0.495,0.005
2021-08-01 00:10:33.860,-0.46,0.02
2021-08-01 00:10:33.864,-0.46,0.025
2021-08-01 00:10:33.868,-0.425,0.075
2021-08-01 00:10:33.872,-0.41,0.075
2021-08-01 00:10:33.876,-0.39,0.09
2021-08-01 00:10:33.880,-0.385,0.13
2021-08-01 00:10:33.884,-0.395,0.13
2021-08-01 00:10:33.888,-0.39,0.145
2021-08-01 00:10:33.892,-0.41,0.145
2021-08-01 00:10:33.896,-0.41,0.145
2021-08-01 00:10:33.900,-0.42,0.145
2021-08-01 00:10:33.904,-0.42,0.145
2021-08-01 00:10:33.908,-0.405,0.15
2021-08-01 00:10:33.912,-0.42,0.17
2021-08-01 00:10:33.916,-0.435,0.17
2021-08-01 00:10:33.920,-0.405,0.155
2021-08-01 00:10:33.924,-0.42,0.155
2021-08-01 00:10:33.928,-0.425,0.145
2021-08-01 00:10:33.932,-0.44,0.11
2021-08-01 00:10:33.936,-0.44,0.08
2021-08-01 00:10:33.940,-0.47,0.075
2021-08-01 00:10:33.944,-0.455,0.07
2021-08-01 00:10:33.948,-0.485,0.065
2021-08-01 00:10:33.952,-0.485,0.055
2021-08-01 00:10:33.956,-0.495,0.045
2021-08-01 00:10:33.960,-0.505,0.045
2021-08-01 00:10:33.964,-0.525,0.045
2021-08-01 00:10:33.968,-0.51,0.03
2021-08-01 00:10:33.972,-0.51,0.025
2021-08-01 00:10:33.976,-0.525,0.005
2021-08-01 00:10:33.980,-0.52,-0.01
2021-08-01 00:10:33.984,-0.515,0.02
2021-08-01 00:10:33.988,-0.51,0.01
2021-08-01 00:10:33.992,-0.5,0.0
2021-08-01 00:10:33.996,-0.495,-0.02
2021-08-01 00:10:34.000,-0.52,0.0
2021-08-01 00:10:34.004,-0.54,0.0
2021-08-01 00:10:34.008,-0.525,0.0
2021-08-01 00:10:34.012,-0.47,0.0
2021-08-01 00:10:34.016,-0.425,0.01
2021-08-01 00:10:34.020,-0.355,0.0
2021-08-01 00:10:34.024,-0.255,-0.02
2021-08-01 00:10:34.028,-0.155,0.0
2021-08-01 00:10:34.032,-0.06,-0.04
2021-08-01 00:10:34.036,-0.04,-0.09
2021-08-01 00:10:34.040,0.01,-0.085
2021-08-01 00:10:34.044,0.06,-0.07
2021-08-01 00:10:34.048,0.02,-0.06
2021-08-01 00:10:34.052,-0.04,-0.03
2021-08-01 00:10:34.056,-0.01,-0.065
2021-08-01 00:10:34.060,0.19,-0.18
2021-08-01 00:10:34.064,0.47,-0.4
2021-08-01 00:10:34.068,0.76,-0.675
2021-08-01 00:10:34.072,0.915,-0.85
2021-08-01 00:10:34.076,0.82,-0.935
2021-08-01 00:10:34.080,0.49,-0.76
2021-08-01 00:10:34.084,0.075,-0.45
2021-08-01 00:10:34.088,-0.16,-0.17
2021-08-01 00:10:34.092,-0.28,-0.02
2021-08-01 00:10:34.096,-0.355,0.07
2021-08-01 00:10:34.100,-0.37,0.145
2021-08-01 00:10:34.104,-0.39,0.19
2021-08-01 00:10:34.108,-0.425,0.2
2021-08-01 00:10:34.112,-0.45,0.2
2021-08-01 00:10:34.116,-0.465,0.2
2021-08-01 00:10:34.120,-0.48,0.175
2021-08-01 00:10:34.124,-0.51,0.145
2021-08-01 00:10:34.128,-0.525,0.12
2021-08-01 00:10:34.132,-0.56,0.12
2021-08-01 00:10:34.136,-0.565,0.105
2021-08-01 00:10:34.140,-0.57,0.125
2021-08-01 00:10:34.144,-0.57,0.135
2021-08-01 00:10:34.148,-0.59,0.115
2021-08-01 00:10:34.152,-0.605,0.125
2021-08-01 00:10:34.156,-0.635,0.13
2021-08-01 00:10:34.160,-0.655,0.13
2021-08-01 00:10:34.164,-0.65,0.11
2021-08-01 00:10:34.168,-0.68,0.11
2021-08-01 00:10:34.172,-0.685,0.095
2021-08-01 00:10:34.176,-0.7,0.055
2021-08-01 00:10:34.180,-0.725,0.025
2021-08-01 00:10:34.184,-0.7,0.02
2021-08-01 00:10:34.188,-0.72,0.035
2021-08-01 00:10:34.192,-0.71,0.005
2021-08-01 00:10:34.196,-0.705,-0.025
2021-08-01 00:10:34.200,-0.7,-0.04
2021-08-01 00:10:34.204,-0.73,-0.05
2021-08-01 00:10:34.208,-0.74,-0.05
2021-08-01 00:10:34.212,-0.735,-0.05
2021-08-01 00:10:34.216,-0.735,-0.035
2021-08-01 00:10:34.220,-0.74,-0.055
2021-08-01 00:10:34.224,-0.74,-0.07
2021-08-01 00:10:34.228,-0.73,-0.06
2021-08-01 00:10:34.232,-0.72,-0.075
2021-08-01 00:10:34.236,-0.69,-0.075
2021-08-01 00:10:34.240,-0.695,-0.09
2021-08-01 00:10:34.244,-0.675,-0.05
2021-08-01 00:10:34.248,-0.685,-0.065
2021-08-01 00:10:34.252,-0.675,-0.1
2021-08-01 00:10:34.256,-0.645,-0.095
2021-08-01 00:10:34.260,-0.64,-0.065
2021-08-01 00:10:34.264,-0.63,-0.09
2021-08-01 00:10:34.268,-0.64,-0.1
2021-08-01 00:10:34.272,-0.63,-0.115
2021-08-01 00:10:34.276,-0.625,-0.12
2021-08-01 00:10:34.280,-0.61,-0.095
2021-08-01 00:10:34.284,-0.61,-0.11
2021-08-01 00:10:34.288,-0.605,-0.135
2021-08-01 00:10:34.292,-0.565,-0.13
2021-08-01 00:10:34.296,-0.565,-0.115
2021-08-01 00:10:34.300,-0.53,-0.14
2021-08-01 00:10:34.304,-0.5,-0.145
2021-08-01 00:10:34.308,-0.485,-0.115
2021-08-01 00:10:34.312,-0.49,-0.12
2021-08-01 00:10:34.316,-0.45,-0.095
2021-08-01 00:10:34.320,-0.425,-0.1
2021-08-01 00:10:34.324,-0.405,-0.08
2021-08-01 00:10:34.328,-0.37,-0.065
2021-08-01 00:10:34.332,-0.345,-0.04
2021-08-01 00:10:34.336,-0.35,-0.035
2021-08-01 00:10:34.340,-0.33,-0.025
2021-08-01 00:10:34.344,-0.35,-0.005
2021-08-01 00:10:34.348,-0.355,0.02
2021-08-01 00:10:34.352,-0.4,0.015
2021-08-01 00:10:34.356,-0.42,0.03
2021-08-01 00:10:34.360,-0.41,0.015
2021-08-01 00:10:34.364,-0.445,0.0
2021-08-01 00:10:34.368,-0.48,0.025
2021-08-01 00:10:34.372,-0.495,0.05
2021-08-01 00:10:34.376,-0.5,0.04
2021-08-01 00:10:34.380,-0.51,0.08
2021-08-01 00:10:34.384,-0.53,0.065
2021-08-01 00:10:34.388,-0.52,0.055
2021-08-01 00:10:34.392,-0.52,0.05
2021-08-01 00:10:34.396,-0.53,0.05
2021-08-01 00:10:34.400,-0.53,0.04
2021-08-01 00:10:34.404,-0.54,0.02
2021-08-01 00:10:34.408,-0.54,-0.02
2021-08-01 00:10:34.412,-0.54,-0.02
2021-08-01 00:10:34.416,-0.545,-0.045
2021-08-01 00:10:34.420,-0.56,-0.055
2021-08-01 00:10:34.424,-0.55,-0.065
2021-08-01 00:10:34.428,-0.54,-0.05
2021-08-01 00:10:34.432,-0.56,-0.045
2021-08-01 00:10:34.436,-0.545,-0.07
2021-08-01 00:10:34.440,-0.535,-0.065
2021-08-01 00:10:34.444,-0.53,-0.07
2021-08-01 00:10:34.448,-0.54,-0.08
2021-08-01 00:10:34.452,-0.535,-0.05
2021-08-01 00:10:34.456,-0.53,-0.065
2021-08-01 00:10:34.460,-0.535,-0.09
2021-08-01 00:10:34.464,-0.55,-0.055
2021-08-01 00:10:34.468,-0.525,-0.06
2021-08-01 00:10:34.472,-0.52,-0.1
2021-08-01 00:10:34.476,-0.51,-0.07
2021-08-01 00:10:34.480,-0.5,-0.075
2021-08-01 00:10:34.484,-0.485,-0.09
2021-08-01 00:10:34.488,-0.505,-0.08
2021-08-01 00:10:34.492,-0.49,-0.08
2021-08-01 00:10:34.496,-0.46,-0.1
2021-08-01 00:10:34.500,-0.38,-0.08
2021-08-01 00:10:34.504,-0.32,-0.09
2021-08-01 00:10:34.508,-0.225,-0.095
2021-08-01 00:10:34.512,-0.115,-0.11
2021-08-01 00:10:34.516,-0.05,-0.135
2021-08-01 00:10:34.520,0.0,-0.165
2021-08-01 00:10:34.524,0.07,-0.16
2021-08-01 00:10:34.528,0.085,-0.1
2021-08-01 00:10:34.532,0.04,-0.09
2021-08-01 00:10:34.536,0.035,-0.14
2021-08-01 00:10:34.540,0.19,-0.2
2021-08-01 00:10:34.544,0.46,-0.345
2021-08-01 00:10:34.548,0.795,-0.59
2021-08-01 00:10:34.552,1.07,-0.8
2021-08-01 00:10:34.556,1.095,-0.93
2021-08-01 00:10:34.560,0.835,-0.85
2021-08-01 00:10:34.564,0.375,-0.52
2021-08-01 00:10:34.568,0.01,-0.175
2021-08-01 00:10:34.572,-0.16,0.0
2021-08-01 00:10:34.576,-0.295,0.095
2021-08-01 00:10:34.580,-0.36,0.175
2021-08-01 00:10:34.584,-0.405,0.2
2021-08-01 00:10:34.588,-0.45,0.2
2021-08-01 00:10:34.592,-0.515,0.195
2021-08-01 00:10:34.596,-0.565,0.205
2021-08-01 00:10:34.600,-0.58,0.2
2021-08-01 00:10:34.604,-0.585,0.175
2021-08-01 00:10:34.608,-0.585,0.19
2021-08-01 00:10:34.612,-0.6,0.155
2021-08-01 00:10:34.616,-0.605,0.155
2021-08-01 00:10:34.620,-0.605,0.175
2021-08-01 00:10:34.624,-0.59,0.165
2021-08-01 00:10:34.628,-0.61,0.155
2021-08-01 00:10:34.632,-0.62,0.12
2021-08-01 00:10:34.636,-0.635,0.115
2021-08-01 00:10:34.640,-0.645,0.085
2021-08-01 00:10:34.644,-0.66,0.105
2021-08-01 00:10:34.648,-0.67,0.06
2021-08-01 00:10:34.652,-0.675,0.07
2021-08-01 00:10:34.656,-0.66,0.07
2021-08-01 00:10:34.660,-0.67,0.065
2021-08-01 00:10:34.664,-0.68,0.04
2021-08-01 00:10:34.668,-0.66,0.03
2021-08-01 00:10:34.672,-0.66,0.03
2021-08-01 00:10:34.676,-0.675,0.03
2021-08-01 00:10:34.680,-0.7,0.03
2021-08-01 00:10:34.684,-0.7,0.025
2021-08-01 00:10:34.688,-0.69,0.02
2021-08-01 00:10:34.692,-0.685,0.03
2021-08-01 00:10:34.696,-0.665,0.04
2021-08-01 00:10:34.700,-0.68,0.01
2021-08-01 00:10:34.704,-0.67,0.005
2021-08-01 00:10:34.708,-0.65,-0.01
2021-08-01 00:10:34.712,-0.64,0.0
2021-08-01 00:10:34.716,-0.63,0.0
2021-08-01 00:10:34.720,-0.62,-0.01
2021-08-01 00:10:34.724,-0.615,-0.015
2021-08-01 00:10:34.728,-0.61,-0.005
2021-08-01 00:10:34.732,-0.605,-0.035
2021-08-01 00:10:34.736,-0.59,0.0
2021-08-01 00:10:34.740,-0.57,-0.01
2021-08-01 00:10:34.744,-0.55,-0.02
2021-08-01 00:10:34.748,-0.53,-0.01
2021-08-01 00:10:34.752,-0.53,-0.015
2021-08-01 00:10:34.756,-0.51,-0.005
2021-08-01 00:10:34.760,-0.5,0.0
2021-08-01 00:10:34.764,-0.475,0.015
2021-08-01 00:10:34.768,-0.45,0.01
2021-08-01 00:10:34.772,-0.42,0.025
2021-08-01 00:10:34.776,-0.4,0.025
2021-08-01 00:10:34.780,-0.38,0.04
2021-08-01 00:10:34.784,-0.36,0.05
2021-08-01 00:10:34.788,-0.34,0.095
2021-08-01 00:10:34.792,-0.34,0.1
2021-08-01 00:10:34.796,-0.335,0.095
2021-08-01 00:10:34.800,-0.36,0.085
2021-08-01 00:10:34.804,-0.38,0.07
2021-08-01 00:10:34.808,-0.395,0.095
2021-08-01 00:10:34.812,-0.4,0.085
2021-08-01 00:10:34.816,-0.44,0.075
2021-08-01 00:10:34.820,-0.44,0.085
2021-08-01 00:10:34.824,-0.45,0.085
2021-08-01 00:10:34.828,-0.465,0.105
2021-08-01 00:10:34.832,-0.465,0.08
2021-08-01 00:10:34.836,-0.45,0.095
2021-08-01 00:10:34.840,-0.45,0.08
2021-08-01 00:10:34.844,-0.445,0.07
2021-08-01 00:10:34.848,-0.43,0.075
2021-08-01 00:10:34.852,-0.44,0.09
2021-08-01 00:10:34.856,-0.43,0.11
2021-08-01 00:10:34.860,-0.415,0.1
2021-08-01 00:10:34.864,-0.42,0.095
2021-08-01 00:10:34.868,-0.41,0.12
2021-08-01 00:10:34.872,-0.41,0.105
2021-08-01 00:10:34.876,-0.435,0.1
2021-08-01 00:10:34.880,-0.425,0.085
2021-08-01 00:10:34.884,-0.44,0.065
2021-08-01 00:10:34.888,-0.425,0.075
2021-08-01 00:10:34.892,-0.435,0.055
2021-08-01 00:10:34.896,-0.445,0.035
2021-08-01 00:10:34.900,-0.425,0.035
2021-08-01 00:10:34.904,-0.43,0.03
2021-08-01 00:10:34.908,-0.425,0.0
2021-08-01 00:10:34.912,-0.44,0.015
2021-08-01 00:10:34.916,-0.435,0.02
2021-08-01 00:10:34.920,-0.44,0.025
2021-08-01 00:10:34.924,-0.425,-0.01
2021-08-01 00:10:34.928,-0.41,-0.015
2021-08-01 00:10:34.932,-0.42,0.0
2021-08-01 00:10:34.936,-0.4,-0.01
2021-08-01 00:10:34.940,-0.375,-0.015
2021-08-01 00:10:34.944,-0.365,-0.005
2021-08-01 00:10:34.948,-0.36,-0.02
2021-08-01 00:10:34.952,-0.34,-0.015
2021-08-01 00:10:34.956,-0.33,-0.035
2021-08-01 00:10:34.960,-0.34,0.0
2021-08-01 00:10:34.964,-0.32,-0.01
2021-08-01 00:10:34.968,-0.305,0.0
2021-08-01 00:10:34.972,-0.3,0.01
2021-08-01 00:10:34.976,-0.285,0.01
2021-08-01 00:10:34.980,-0.285,0.025
2021-08-01 00:10:34.984,-0.29,0.03
2021-08-01 00:10:34.988,-0.28,0.025
2021-08-01 00:10:34.992,-0.26,0.045
2021-08-01 00:10:34.996,-0.22,0.055
2021-08-01 00:10:35.000,-0.195,0.055
2021-08-01 00:10:35.004,-0.13,0.065
2021-08-01 00:10:35.008,-0.06,0.06
2021-08-01 00:10:35.012,0.05,0.07
2021-08-01 00:10:35.016,0.105,0.055
2021-08-01 00:10:35.020,0.155,0.015
2021-08-01 00:10:35.024,0.17,-0.015
2021-08-01 00:10:35.028,0.155,0.0
2021-08-01 00:10:35.032,0.13,-0.005
2021-08-01 00:10:35.036,0.055,0.0
2021-08-01 00:10:35.040,0.02,-0.055
2021-08-01 00:10:35.044,0.105,-0.155
2021-08-01 00:10:35.048,0.345,-0.315
2021-08-01 00:10:35.052,0.66,-0.585
2021-08-01 00:10:35.056,0.955,-0.845
2021-08-01 00:10:35.060,1.07,-0.98
2021-08-01 00:10:35.064,0.9,-0.945
2021-08-01 00:10:35.068,0.51,-0.675
2021-08-01 00:10:35.072,0.04,-0.335
2021-08-01 00:10:35.076,-0.18,-0.055
2021-08-01 00:10:35.080,-0.33,0.08
2021-08-01 00:10:35.084,-0.4,0.175
2021-08-01 00:10:35.088,-0.43,0.185
2021-08-01 00:10:35.092,-0.47,0.2
2021-08-01 00:10:35.096,-0.485,0.19
2021-08-01 00:10:35.100,-0.51,0.195
2021-08-01 00:10:35.104,-0.505,0.175
2021-08-01 00:10:35.108,-0.5,0.175
2021-08-01 00:10:35.112,-0.505,0.15
2021-08-01 00:10:35.116,-0.48,0.105
2021-08-01 00:10:35.120,-0.49,0.12
2021-08-01 00:10:35.124,-0.505,0.09
2021-08-01 00:10:35.128,-0.535,0.075
2021-08-01 00:10:35.132,-0.54,0.055
2021-08-01 00:10:35.136,-0.56,0.045
2021-08-01 00:10:35.140,-0.575,0.04
2021-08-01 00:10:35.144,-0.555,0.045
2021-08-01 00:10:35.148,-0.54,0.025
2021-08-01 00:10:35.152,-0.56,0.03
2021-08-01 00:10:35.156,-0.535,0.01
2021-08-01 00:10:35.160,-0.52,0.02
2021-08-01 00:10:35.164,-0.525,-0.01
2021-08-01 00:10:35.168,-0.52,-0.015
2021-08-01 00:10:35.172,-0.53,0.015
2021-08-01 00:10:35.176,-0.52,0.015
2021-08-01 00:10:35.180,-0.525,0.005
2021-08-01 00:10:35.184,-0.525,0.01
2021-08-01 00:10:35.188,-0.52,0.03
2021-08-01 00:10:35.192,-0.5,0.02
2021-08-01 00:10:35.196,-0.495,0.045
2021-08-01 00:10:35.200,-0.515,0.035
2021-08-01 00:10:35.204,-0.505,0.025
2021-08-01 00:10:35.208,-0.5,0.02
2021-08-01 00:10:35.212,-0.5,0.04
2021-08-01 00:10:35.216,-0.485,0.025
2021-08-01 00:10:35.220,-0.475,0.04
2021-08-01 00:10:35.224,-0.46,0.035
2021-08-01 00:10:35.228,-0.455,0.02
2021-08-01 00:10:35.232,-0.41,0.015
2021-08-01 00:10:35.236,-0.41,0.03
2021-08-01 00:10:35.240,-0.37,0.02
2021-08-01 00:10:35.244,-0.35,0.03
2021-08-01 00:10:35.248,-0.33,0.03
2021-08-01 00:10:35.252,-0.33,0.07
2021-08-01 00:10:35.256,-0.35,0.035
2021-08-01 00:10:35.260,-0.365,0.025
2021-08-01 00:10:35.264,-0.375,0.025
2021-08-01 00:10:35.268,-0.4,0.03
2021-08-01 00:10:35.272,-0.41,0.0
2021-08-01 00:10:35.276,-0.41,0.02
2021-08-01 00:10:35.280,-0.45,0.01
2021-08-01 00:10:35.284,-0.45,0.01
2021-08-01 00:10:35.288,-0.445,0.02
2021-08-01 00:10:35.292,-0.455,0.035
2021-08-01 00:10:35.296,-0.425,0.05
2021-08-01 00:10:35.300,-0.405,0.02
2021-08-01 00:10:35.304,-0.41,0.01
2021-08-01 00:10:35.308,-0.42,0.005
2021-08-01 00:10:35.312,-0.39,0.0
2021-08-01 00:10:35.316,-0.395,0.0
2021-08-01 00:10:35.320,-0.37,0.01
2021-08-01 00:10:35.324,-0.365,0.01
2021-08-01 00:10:35.328,-0.35,0.015
2021-08-01 00:10:35.332,-0.355,0.02
2021-08-01 00:10:35.336,-0.345,0.005
2021-08-01 00:10:35.340,-0.345,0.035
2021-08-01 00:10:35.344,-0.34,0.025
2021-08-01 00:10:35.348,-0.35,0.015
2021-08-01 00:10:35.352,-0.365,0.02
2021-08-01 00:10:35.356,-0.325,0.025
2021-08-01 00:10:35.360,-0.305,0.04
2021-08-01 00:10:35.364,-0.295,0.06
2021-08-01 00:10:35.368,-0.29,0.06
2021-08-01 00:10:35.372,-0.28,0.04
2021-08-01 00:10:35.376,-0.295,0.04
2021-08-01 00:10:35.380,-0.28,0.035
2021-08-01 00:10:35.384,-0.305,0.04
2021-08-01 00:10:35.388,-0.305,0.055
2021-08-01 00:10:35.392,-0.305,0.055
2021-08-01 00:10:35.396,-0.305,0.045
2021-08-01 00:10:35.400,-0.315,0.035
2021-08-01 00:10:35.404,-0.305,0.055
2021-08-01 00:10:35.408,-0.3,0.035
2021-08-01 00:10:35.412,-0.28,0.015
2021-08-01 00:10:35.416,-0.275,0.02
2021-08-01 00:10:35.420,-0.275,0.02
2021-08-01 00:10:35.424,-0.285,0.035
2021-08-01 00:10:35.428,-0.275,0.05
2021-08-01 00:10:35.432,-0.26,0.035
2021-08-01 00:10:35.436,-0.245,0.055
2021-08-01 00:10:35.440,-0.255,0.035
2021-08-01 00:10:35.444,-0.235,0.04
2021-08-01 00:10:35.448,-0.24,0.04
2021-08-01 00:10:35.452,-0.23,0.055
2021-08-01 00:10:35.456,-0.21,0.055
2021-08-01 00:10:35.460,-0.205,0.04
2021-08-01 00:10:35.464,-0.18,0.04
2021-08-01 00:10:35.468,-0.15,0.04
2021-08-01 00:10:35.472,-0.155,0.03
2021-08-01 00:10:35.476,-0.14,0.035
2021-08-01 00:10:35.480,-0.14,0.01
2021-08-01 00:10:35.484,-0.15,0.02
2021-08-01 00:10:35.488,-0.145,0.045
2021-08-01 00:10:35.492,-0.17,0.04
2021-08-01 00:10:35.496,-0.17,0.03
2021-08-01 00:10:35.500,-0.22,0.03
2021-08-01 00:10:35.504,-0.18,0.04
2021-08-01 00:10:35.508,-0.14,0.025
2021-08-01 00:10:35.512,-0.1,0.04
2021-08-01 00:10:35.516,-0.015,0.05
2021-08-01 00:10:35.520,0.02,0.04
2021-08-01 00:10:35.524,0.04,0.005
2021-08-01 00:10:35.528,0.05,-0.03
2021-08-01 00:10:35.532,0.05,-0.025
2021-08-01 00:10:35.536,0.0,-0.02
2021-08-01 00:10:35.540,-0.045,-0.025
2021-08-01 00:10:35.544,-0.02,-0.09
2021-08-01 00:10:35.548,0.125,-0.21
2021-08-01 00:10:35.552,0.435,-0.445
2021-08-01 00:10:35.556,0.77,-0.7
2021-08-01 00:10:35.560,1.015,-0.95
2021-08-01 00:10:35.564,1.045,-1.035
2021-08-01 00:10:35.568,0.815,-0.89
2021-08-01 00:10:35.572,0.4,-0.555
2021-08-01 00:10:35.576,0.0,-0.245
2021-08-01 00:10:35.580,-0.215,-0.005
2021-08-01 00:10:35.584,-0.34,0.13
2021-08-01 00:10:35.588,-0.4,0.18
2021-08-01 00:10:35.592,-0.425,0.2
2021-08-01 00:10:35.596,-0.45,0.21
2021-08-01 00:10:35.600,-0.48,0.21
2021-08-01 00:10:35.604,-0.49,0.18
2021-08-01 00:10:35.608,-0.475,0.17
2021-08-01 00:10:35.612,-0.475,0.165
2021-08-01 00:10:35.616,-0.445,0.15
2021-08-01 00:10:35.620,-0.415,0.14
2021-08-01 00:10:35.624,-0.4,0.1
2021-08-01 00:10:35.628,-0.41,0.11
2021-08-01 00:10:35.632,-0.395,0.09
2021-08-01 00:10:35.636,-0.405,0.1
2021-08-01 00:10:35.640,-0.405,0.105
2021-08-01 00:10:35.644,-0.395,0.085
2021-08-01 00:10:35.648,-0.4,0.085
2021-08-01 00:10:35.652,-0.4,0.075
2021-08-01 00:10:35.656,-0.38,0.055
2021-08-01 00:10:35.660,-0.38,0.08
2021-08-01 00:10:35.664,-0.365,0.07
2021-08-01 00:10:35.668,-0.38,0.055
2021-08-01 00:10:35.672,-0.36,0.05
2021-08-01 00:10:35.676,-0.365,0.06
2021-08-01 00:10:35.680,-0.35,0.05
2021-08-01 00:10:35.684,-0.335,0.07
2021-08-01 00:10:35.688,-0.3,0.05
2021-08-01 00:10:35.692,-0.295,0.05
2021-08-01 00:10:35.696,-0.275,0.04
2021-08-01 00:10:35.700,-0.27,0.07
2021-08-01 00:10:35.704,-0.275,0.06
2021-08-01 00:10:35.708,-0.28,0.07
2021-08-01 00:10:35.712,-0.31,0.07
2021-08-01 00:10:35.716,-0.325,0.07
2021-08-01 00:10:35.720,-0.345,0.09
2021-08-01 00:10:35.724,-0.355,0.08
2021-08-01 00:10:35.728,-0.36,0.055
2021-08-01 00:10:35.732,-0.385,0.05
2021-08-01 00:10:35.736,-0.415,0.065
2021-08-01 00:10:35.740,-0.42,0.075
2021-08-01 00:10:35.744,-0.43,0.055
2021-08-01 00:10:35.748,-0.405,0.045
2021-08-01 00:10:35.752,-0.41,0.05
2021-08-01 00:10:35.756,-0.4,0.045
2021-08-01 00:10:35.760,-0.41,0.03
2021-08-01 00:10:35.764,-0.385,0.02
2021-08-01 00:10:35.768,-0.39,0.01
2021-08-01 00:10:35.772,-0.375,0.01
2021-08-01 00:10:35.776,-0.35,0.0
2021-08-01 00:10:35.780,-0.37,-0.005
2021-08-01 00:10:35.784,-0.38,0.0
2021-08-01 00:10:35.788,-0.38,-0.015
2021-08-01 00:10:35.792,-0.36,-0.03
2021-08-01 00:10:35.796,-0.37,-0.04
2021-08-01 00:10:35.800,-0.36,-0.025
2021-08-01 00:10:35.804,-0.335,-0.005
2021-08-01 00:10:35.808,-0.32,0.005
2021-08-01 00:10:35.812,-0.32,0.01
2021-08-01 00:10:35.816,-0.29,-0.005
2021-08-01 00:10:35.820,-0.305,-0.005
2021-08-01 00:10:35.824,-0.335,0.0
2021-08-01 00:10:35.828,-0.345,0.005
2021-08-01 00:10:35.832,-0.325,0.03
2021-08-01 00:10:35.836,-0.29,0.025
2021-08-01 00:10:35.840,-0.29,0.03
2021-08-01 00:10:35.844,-0.31,0.04
2021-08-01 00:10:35.848,-0.315,0.05
2021-08-01 00:10:35.852,-0.295,0.075
2021-08-01 00:10:35.856,-0.295,0.085
2021-08-01 00:10:35.860,-0.285,0.055
2021-08-01 00:10:35.864,-0.27,0.085
2021-08-01 00:10:35.868,-0.265,0.075
2021-08-01 00:10:35.872,-0.26,0.065
2021-08-01 00:10:35.876,-0.27,0.055
2021-08-01 00:10:35.880,-0.265,0.04
2021-08-01 00:10:35.884,-0.255,0.05
2021-08-01 00:10:35.888,-0.235,0.025
2021-08-01 00:10:35.892,-0.24,0.005
2021-08-01 00:10:35.896,-0.215,0.03
2021-08-01 00:10:35.900,-0.215,0.025
2021-08-01 00:10:35.904,-0.215,0.025
2021-08-01 00:10:35.908,-0.205,0.005
2021-08-01 00:10:35.912,-0.195,0.005
2021-08-01 00:10:35.916,-0.165,0.015
2021-08-01 00:10:35.920,-0.16,0.025
2021-08-01 00:10:35.924,-0.175,0.015
2021-08-01 00:10:35.928,-0.16,0.015
2021-08-01 00:10:35.932,-0.145,0.015
2021-08-01 00:10:35.936,-0.155,0.02
2021-08-01 00:10:35.940,-0.15,0.0
2021-08-01 00:10:35.944,-0.16,0.0
2021-08-01 00:10:35.948,-0.185,-0.01
2021-08-01 00:10:35.952,-0.225,0.015
2021-08-01 00:10:35.956,-0.27,0.015
2021-08-01 00:10:35.960,-0.275,-0.005
2021-08-01 00:10:35.964,-0.265,0.01
2021-08-01 00:10:35.968,-0.27,0.025
2021-08-01 00:10:35.972,-0.26,0.01
2021-08-01 00:10:35.976,-0.25,-0.015
2021-08-01 00:10:35.980,-0.25,-0.025
2021-08-01 00:10:35.984,-0.21,-0.02
2021-08-01 00:10:35.988,-0.16,-0.025
2021-08-01 00:10:35.992,-0.08,-0.02
2021-08-01 00:10:35.996,-0.03,-0.05
2021-08-01 00:10:36.000,0.05,-0.065
2021-08-01 00:10:36.004,0.08,-0.095
2021-08-01 00:10:36.008,0.125,-0.115
2021-08-01 00:10:36.012,0.15,-0.09
2021-08-01 00:10:36.016,0.13,-0.07
2021-08-01 00:10:36.020,0.07,-0.09
2021-08-01 00:10:36.024,0.07,-0.11
2021-08-01 00:10:36.028,0.25,-0.22
2021-08-01 00:10:36.032,0.53,-0.46
2021-08-01 00:10:36.036,0.84,-0.72
2021-08-01 00:10:36.040,1.025,-0.93
2021-08-01 00:10:36.044,0.99,-0.985
2021-08-01 00:10:36.048,0.68,-0.815
2021-08-01 00:10:36.052,0.23,-0.455
2021-08-01 00:10:36.056,-0.065,-0.19
2021-08-01 00:10:36.060,-0.2,-0.025
2021-08-01 00:10:36.064,-0.285,0.065
2021-08-01 00:10:36.068,-0.31,0.1
2021-08-01 00:10:36.072,-0.355,0.125
2021-08-01 00:10:36.076,-0.4,0.12
2021-08-01 00:10:36.080,-0.43,0.11
2021-08-01 00:10:36.084,-0.45,0.095
2021-08-01 00:10:36.088,-0.48,0.06
2021-08-01 00:10:36.092,-0.48,0.02
2021-08-01 00:10:36.096,-0.475,0.02
2021-08-01 00:10:36.100,-0.5,0.015
2021-08-01 00:10:36.104,-0.465,-0.02
2021-08-01 00:10:36.108,-0.445,0.005
2021-08-01 00:10:36.112,-0.43,0.035
2021-08-01 00:10:36.116,-0.415,0.0
2021-08-01 00:10:36.120,-0.385,-0.015
2021-08-01 00:10:36.124,-0.395,-0.04
2021-08-01 00:10:36.128,-0.385,-0.045
2021-08-01 00:10:36.132,-0.395,-0.04
2021-08-01 00:10:36.136,-0.39,-0.08
2021-08-01 00:10:36.140,-0.365,-0.06
2021-08-01 00:10:36.144,-0.345,-0.06
2021-08-01 00:10:36.148,-0.355,-0.08
2021-08-01 00:10:36.152,-0.37,-0.06
2021-08-01 00:10:36.156,-0.385,-0.07
2021-08-01 00:10:36.160,-0.39,-0.075
2021-08-01 00:10:36.164,-0.39,-0.1
2021-08-01 00:10:36.168,-0.405,-0.07
2021-08-01 00:10:36.172,-0.415,-0.07
2021-08-01 00:10:36.176,-0.445,-0.08
2021-08-01 00:10:36.180,-0.465,-0.09
2021-08-01 00:10:36.184,-0.505,-0.07
2021-08-01 00:10:36.188,-0.52,-0.085
2021-08-01 00:10:36.192,-0.52,-0.095
2021-08-01 00:10:36.196,-0.525,-0.095
2021-08-01 00:10:36.200,-0.51,-0.095
2021-08-01 00:10:36.204,-0.51,-0.11
2021-08-01 00:10:36.208,-0.505,-0.13
2021-08-01 00:10:36.212,-0.52,-0.11
2021-08-01 00:10:36.216,-0.54,-0.14
2021-08-01 00:10:36.220,-0.5,-0.13
2021-08-01 00:10:36.224,-0.5,-0.135
2021-08-01 00:10:36.228,-0.49,-0.15
2021-08-01 00:10:36.232,-0.49,-0.15
2021-08-01 00:10:36.236,-0.505,-0.175
2021-08-01 00:10:36.240,-0.515,-0.195
2021-08-01 00:10:36.244,-0.52,-0.19
2021-08-01 00:10:36.248,-0.485,-0.19
2021-08-01 00:10:36.252,-0.455,-0.175
2021-08-01 00:10:36.256,-0.485,-0.19
2021-08-01 00:10:36.260,-0.475,-0.18
2021-08-01 00:10:36.264,-0.445,-0.17
2021-08-01 00:10:36.268,-0.44,-0.17
2021-08-01 00:10:36.272,-0.41,-0.18
2021-08-01 00:10:36.276,-0.405,-0.16
2021-08-01 00:10:36.280,-0.375,-0.14
2021-08-01 00:10:36.284,-0.38,-0.16
2021-08-01 00:10:36.288,-0.35,-0.145
2021-08-01 00:10:36.292,-0.365,-0.155
2021-08-01 00:10:36.296,-0.37,-0.17
2021-08-01 00:10:36.300,-0.355,-0.14
2021-08-01 00:10:36.304,-0.375,-0.14
2021-08-01 00:10:36.308,-0.36,-0.115
2021-08-01 00:10:36.312,-0.38,-0.135
2021-08-01 00:10:36.316,-0.365,-0.14
2021-08-01 00:10:36.320,-0.395,-0.13
2021-08-01 00:10:36.324,-0.395,-0.14
2021-08-01 00:10:36.328,-0.36,-0.14
2021-08-01 00:10:36.332,-0.35,-0.14
2021-08-01 00:10:36.336,-0.335,-0.13
2021-08-01 00:10:36.340,-0.34,-0.12
2021-08-01 00:10:36.344,-0.34,-0.105
2021-08-01 00:10:36.348,-0.28,-0.11
2021-08-01 00:10:36.352,-0.27,-0.11
2021-08-01 00:10:36.356,-0.255,-0.105
2021-08-01 00:10:36.360,-0.195,-0.095
2021-08-01 00:10:36.364,-0.15,-0.125
2021-08-01 00:10:36.368,-0.11,-0.105
2021-08-01 00:10:36.372,-0.08,-0.125
2021-08-01 00:10:36.376,-0.015,-0.12
2021-08-01 00:10:36.380,0.07,-0.125
2021-08-01 00:10:36.384,0.14,-0.14
2021-08-01 00:10:36.388,0.2,-0.165
2021-08-01 00:10:36.392,0.235,-0.17
2021-08-01 00:10:36.396,0.24,-0.195
2021-08-01 00:10:36.400,0.21,-0.165
2021-08-01 00:10:36.404,0.18,-0.14
2021-08-01 00:10:36.408,0.105,-0.12
2021-08-01 00:10:36.412,0.09,-0.125
2021-08-01 00:10:36.416,0.205,-0.195
2021-08-01 00:10:36.420,0.44,-0.35
2021-08-01 00:10:36.424,0.735,-0.64
2021-08-01 00:10:36.428,0.965,-0.96
2021-08-01 00:10:36.432,1.015,-1.12
2021-08-01 00:10:36.436,0.835,-1.05
2021-08-01 00:10:36.440,0.435,-0.815
2021-08-01 00:10:36.444,0.04,-0.485
2021-08-01 00:10:36.448,-0.185,-0.295
2021-08-01 00:10:36.452,-0.31,-0.175
2021-08-01 00:10:36.456,-0.365,-0.105
2021-08-01 00:10:36.460,-0.42,-0.075
2021-08-01 00:10:36.464,-0.465,-0.09
2021-08-01 00:10:36.468,-0.5,-0.095
2021-08-01 00:10:36.472,-0.525,-0.085
2021-08-01 00:10:36.476,-0.58,-0.13
2021-08-01 00:10:36.480,-0.58,-0.155
2021-08-01 00:10:36.484,-0.6,-0.16
2021-08-01 00:10:36.488,-0.58,-0.175
2021-08-01 00:10:36.492,-0.6,-0.175
2021-08-01 00:10:36.496,-0.595,-0.175
2021-08-01 00:10:36.500,-0.58,-0.17
2021-08-01 00:10:36.504,-0.59,-0.19
2021-08-01 00:10:36.508,-0.595,-0.15
2021-08-01 00:10:36.512,-0.56,-0.17
2021-08-01 00:10:36.516,-0.535,-0.16
2021-08-01 00:10:36.520,-0.535,-0.175
2021-08-01 00:10:36.524,-0.51,-0.17
2021-08-01 00:10:36.528,-0.515,-0.15
2021-08-01 00:10:36.532,-0.5,-0.16
2021-08-01 00:10:36.536,-0.52,-0.135
2021-08-01 00:10:36.540,-0.545,-0.12
2021-08-01 00:10:36.544,-0.535,-0.14
2021-08-01 00:10:36.548,-0.53,-0.13
2021-08-01 00:10:36.552,-0.515,-0.14
2021-08-01 00:10:36.556,-0.52,-0.15
2021-08-01 00:10:36.560,-0.515,-0.125
2021-08-01 00:10:36.564,-0.52,-0.13
2021-08-01 00:10:36.568,-0.51,-0.125
2021-08-01 00:10:36.572,-0.5,-0.12
2021-08-01 00:10:36.576,-0.485,-0.115
2021-08-01 00:10:36.580,-0.475,-0.11
2021-08-01 00:10:36.584,-0.47,-0.095
2021-08-01 00:10:36.588,-0.435,-0.08
2021-08-01 00:10:36.592,-0.405,-0.065
2021-08-01 00:10:36.596,-0.375,-0.055
2021-08-01 00:10:36.600,-0.335,-0.065
2021-08-01 00:10:36.604,-0.335,-0.055
2021-08-01 00:10:36.608,-0.305,-0.04
2021-08-01 00:10:36.612,-0.295,-0.04
2021-08-01 00:10:36.616,-0.285,-0.035
2021-08-01 00:10:36.620,-0.31,-0.055
2021-08-01 00:10:36.624,-0.32,-0.075
2021-08-01 00:10:36.628,-0.325,-0.08
2021-08-01 00:10:36.632,-0.335,-0.11
2021-08-01 00:10:36.636,-0.335,-0.115
2021-08-01 00:10:36.640,-0.345,-0.1
2021-08-01 00:10:36.644,-0.345,-0.135
2021-08-01 00:10:36.648,-0.35,-0.13
2021-08-01 00:10:36.652,-0.345,-0.15
2021-08-01 00:10:36.656,-0.35,-0.145
2021-08-01 00:10:36.660,-0.33,-0.16
2021-08-01 00:10:36.664,-0.35,-0.175
2021-08-01 00:10:36.668,-0.325,-0.19
2021-08-01 00:10:36.672,-0.315,-0.18
2021-08-01 00:10:36.676,-0.315,-0.175
2021-08-01 00:10:36.680,-0.32,-0.175
2021-08-01 00:10:36.684,-0.335,-0.19
2021-08-01 00:10:36.688,-0.37,-0.18
2021-08-01 00:10:36.692,-0.365,-0.185
2021-08-01 00:10:36.696,-0.355,-0.205
2021-08-01 00:10:36.700,-0.34,-0.18
2021-08-01 00:10:36.704,-0.38,-0.185
2021-08-01 00:10:36.708,-0.37,-0.17
2021-08-01 00:10:36.712,-0.35,-0.18
2021-08-01 00:10:36.716,-0.375,-0.175
2021-08-01 00:10:36.720,-0.365,-0.16
2021-08-01 00:10:36.724,-0.375,-0.175
2021-08-01 00:10:36.728,-0.36,-0.16
2021-08-01 00:10:36.732,-0.365,-0.16
2021-08-01 00:10:36.736,-0.36,-0.14
2021-08-01 00:10:36.740,-0.315,-0.13
2021-08-01 00:10:36.744,-0.305,-0.12
2021-08-01 00:10:36.748,-0.29,-0.13
2021-08-01 00:10:36.752,-0.3,-0.125
2021-08-01 00:10:36.756,-0.285,-0.11
2021-08-01 00:10:36.760,-0.29,-0.11
2021-08-01 00:10:36.764,-0.29,-0.11
2021-08-01 00:10:36.768,-0.26,-0.095
2021-08-01 00:10:36.772,-0.26,-0.08
2021-08-01 00:10:36.776,-0.25,-0.095
2021-08-01 00:10:36.780,-0.24,-0.075
2021-08-01 00:10:36.784,-0.23,-0.095
2021-08-01 00:10:36.788,-0.21,-0.1
2021-08-01 00:10:36.792,-0.22,-0.07
2021-08-01 00:10:36.796,-0.21,-0.07
2021-08-01 00:10:36.800,-0.2,-0.085
2021-08-01 00:10:36.804,-0.165,-0.075
2021-08-01 00:10:36.808,-0.15,-0.045
2021-08-01 00:10:36.812,-0.115,-0.06
2021-08-01 00:10:36.816,-0.095,-0.06
2021-08-01 00:10:36.820,-0.105,-0.04
2021-08-01 00:10:36.824,-0.09,-0.05
2021-08-01 00:10:36.828,-0.11,-0.025
2021-08-01 00:10:36.832,-0.09,-0.04
2021-08-01 00:10:36.836,-0.11,-0.04
2021-08-01 00:10:36.840,-0.105,-0.045
2021-08-01 00:10:36.844,-0.12,-0.05
2021-08-01 00:10:36.848,-0.12,-0.03
2021-08-01 00:10:36.852,-0.13,-0.045
2021-08-01 00:10:36.856,-0.13,-0.02
2021-08-01 00:10:36.860,-0.14,-0.015
2021-08-01 00:10:36.864,-0.155,-0.01
2021-08-01 00:10:36.868,-0.115,-0.01
2021-08-01 00:10:36.872,-0.14,-0.02
2021-08-01 00:10:36.876,-0.125,-0.03
2021-08-01 00:10:36.880,-0.125,-0.055
2021-08-01 00:10:36.884,-0.075,-0.06
2021-08-01 00:10:36.888,-0.035,-0.085
2021-08-01 00:10:36.892,0.055,-0.115
2021-08-01 00:10:36.896,0.135,-0.15
2021-08-01 00:10:36.900,0.195,-0.175
2021-08-01 00:10:36.904,0.21,-0.21
2021-08-01 00:10:36.908,0.235,-0.205
2021-08-01 00:10:36.912,0.245,-0.17
2021-08-01 00:10:36.916,0.205,-0.19
2021-08-01 00:10:36.920,0.155,-0.25
2021-08-01 00:10:36.924,0.18,-0.31
2021-08-01 00:10:36.928,0.375,-0.45
2021-08-01 00:10:36.932,0.665,-0.71
2021-08-01 00:10:36.936,0.97,-1.0
2021-08-01 00:10:36.940,1.155,-1.21
2021-08-01 00:10:36.944,1.135,-1.245
2021-08-01 00:10:36.948,0.8,-1.04
2021-08-01 00:10:36.952,0.37,-0.69
2021-08-01 00:10:36.956,0.015,-0.39
2021-08-01 00:10:36.960,-0.155,-0.21
2021-08-01 00:10:36.964,-0.235,-0.1
2021-08-01 00:10:36.968,-0.275,-0.06
2021-08-01 00:10:36.972,-0.3,-0.025
2021-08-01 00:10:36.976,-0.33,-0.005
2021-08-01 00:10:36.980,-0.34,-0.01
2021-08-01 00:10:36.984,-0.36,-0.02
2021-08-01 00:10:36.988,-0.36,-0.04
2021-08-01 00:10:36.992,-0.37,-0.06
2021-08-01 00:10:36.996,-0.385,-0.055
2021-08-01 00:10:37.000,-0.375,-0.055
2021-08-01 00:10:37.004,-0.37,-0.04
2021-08-01 00:10:37.008,-0.39,-0.06
2021-08-01 00:10:37.012,-0.365,-0.04
2021-08-01 00:10:37.016,-0.365,-0.06
2021-08-01 00:10:37.020,-0.345,-0.045
2021-08-01 00:10:37.024,-0.345,-0.03
2021-08-01 00:10:37.028,-0.325,-0.045
2021-08-01 00:10:37.032,-0.305,-0.055
2021-08-01 00:10:37.036,-0.28,-0.04
2021-08-01 00:10:37.040,-0.28,-0.03
2021-08-01 00:10:37.044,-0.28,-0.025
2021-08-01 00:10:37.048,-0.29,-0.03
2021-08-01 00:10:37.052,-0.32,-0.01
2021-08-01 00:10:37.056,-0.33,-0.03
2021-08-01 00:10:37.060,-0.34,-0.045
2021-08-01 00:10:37.064,-0.355,-0.025
2021-08-01 00:10:37.068,-0.38,-0.045
2021-08-01 00:10:37.072,-0.405,-0.045
2021-08-01 00:10:37.076,-0.39,-0.03
2021-08-01 00:10:37.080,-0.425,-0.025
2021-08-01 00:10:37.084,-0.42,-0.035
2021-08-01 00:10:37.088,-0.41,-0.03
2021-08-01 00:10:37.092,-0.405,-0.05
2021-08-01 00:10:37.096,-0.385,-0.065
2021-08-01 00:10:37.100,-0.37,-0.06
2021-08-01 00:10:37.104,-0.365,-0.05
2021-08-01 00:10:37.108,-0.385,-0.035
2021-08-01 00:10:37.112,-0.34,-0.02
2021-08-01 00:10:37.116,-0.36,-0.025
2021-08-01 00:10:37.120,-0.34,-0.03
2021-08-01 00:10:37.124,-0.35,-0.04
2021-08-01 00:10:37.128,-0.35,-0.06
2021-08-01 00:10:37.132,-0.38,-0.095
2021-08-01 00:10:37.136,-0.36,-0.1
2021-08-01 00:10:37.140,-0.35,-0.11
2021-08-01 00:10:37.144,-0.36,-0.13
2021-08-01 00:10:37.148,-0.36,-0.15
2021-08-01 00:10:37.152,-0.345,-0.165
2021-08-01 00:10:37.156,-0.365,-0.16
2021-08-01 00:10:37.160,-0.35,-0.18
2021-08-01 00:10:37.164,-0.32,-0.185
2021-08-01 00:10:37.168,-0.32,-0.175
2021-08-01 00:10:37.172,-0.3,-0.195
2021-08-01 00:10:37.176,-0.28,-0.2
2021-08-01 00:10:37.180,-0.285,-0.21
2021-08-01 00:10:37.184,-0.265,-0.215
2021-08-01 00:10:37.188,-0.26,-0.195
2021-08-01 00:10:37.192,-0.23,-0.195
2021-08-01 00:10:37.196,-0.23,-0.2
2021-08-01 00:10:37.200,-0.235,-0.19
2021-08-01 00:10:37.204,-0.2,-0.18
2021-08-01 00:10:37.208,-0.18,-0.205
2021-08-01 00:10:37.212,-0.2,-0.185
2021-08-01 00:10:37.216,-0.19,-0.155
2021-08-01 00:10:37.220,-0.195,-0.175
2021-08-01 00:10:37.224,-0.185,-0.155
2021-08-01 00:10:37.228,-0.18,-0.125
2021-08-01 00:10:37.232,-0.155,-0.125
2021-08-01 00:10:37.236,-0.135,-0.125
2021-08-01 00:10:37.240,-0.13,-0.145
2021-08-01 00:10:37.244,-0.12,-0.125
2021-08-01 00:10:37.248,-0.11,-0.11
2021-08-01 00:10:37.252,-0.1,-0.115
2021-08-01 00:10:37.256,-0.08,-0.105
2021-08-01 00:10:37.260,-0.085,-0.1
2021-08-01 00:10:37.264,-0.07,-0.085
2021-08-01 00:10:37.268,-0.065,-0.065
2021-08-01 00:10:37.272,-0.09,-0.07
2021-08-01 00:10:37.276,-0.09,-0.065
2021-08-01 00:10:37.280,-0.13,-0.075
2021-08-01 00:10:37.284,-0.135,-0.055
2021-08-01 00:10:37.288,-0.17,-0.05
2021-08-01 00:10:37.292,-0.205,-0.055
2021-08-01 00:10:37.296,-0.22,-0.04
2021-08-01 00:10:37.300,-0.23,-0.055
2021-08-01 00:10:37.304,-0.235,-0.04
2021-08-01 00:10:37.308,-0.235,-0.075
2021-08-01 00:10:37.312,-0.275,-0.09
2021-08-01 00:10:37.316,-0.26,-0.075
2021-08-01 00:10:37.320,-0.26,-0.075
2021-08-01 00:10:37.324,-0.285,-0.085
2021-08-01 00:10:37.328,-0.285,-0.075
2021-08-01 00:10:37.332,-0.27,-0.09
2021-08-01 00:10:37.336,-0.275,-0.07
2021-08-01 00:10:37.340,-0.26,-0.075
2021-08-01 00:10:37.344,-0.26,-0.095
2021-08-01 00:10:37.348,-0.285,-0.09
2021-08-01 00:10:37.352,-0.28,-0.095
2021-08-01 00:10:37.356,-0.245,-0.095
2021-08-01 00:10:37.360,-0.28,-0.11
2021-08-01 00:10:37.364,-0.295,-0.09
2021-08-01 00:10:37.368,-0.295,-0.075
2021-08-01 00:10:37.372,-0.275,-0.075
2021-08-01 00:10:37.376,-0.255,-0.08
2021-08-01 00:10:37.380,-0.25,-0.08
2021-08-01 00:10:37.384,-0.215,-0.08
2021-08-01 00:10:37.388,-0.195,-0.05
2021-08-01 00:10:37.392,-0.175,-0.045
2021-08-01 00:10:37.396,-0.16,-0.05
2021-08-01 00:10:37.400,-0.15,-0.02
2021-08-01 00:10:37.404,-0.155,-0.055
2021-08-01 00:10:37.408,-0.135,-0.055
2021-08-01 00:10:37.412,-0.15,-0.075
2021-08-01 00:10:37.416,-0.13,-0.105
2021-08-01 00:10:37.420,-0.09,-0.125
2021-08-01 00:10:37.424,-0.05,-0.11
2021-08-01 00:10:37.428,0.015,-0.13
2021-08-01 00:10:37.432,0.105,-0.16
2021-08-01 00:10:37.436,0.205,-0.15
2021-08-01 00:10:37.440,0.27,-0.19
2021-08-01 00:10:37.444,0.3,-0.215
2021-08-01 00:10:37.448,0.315,-0.19
2021-08-01 00:10:37.452,0.3,-0.155
2021-08-01 00:10:37.456,0.26,-0.16
2021-08-01 00:10:37.460,0.235,-0.225
2021-08-01 00:10:37.464,0.38,-0.35
2021-08-01 00:10:37.468,0.65,-0.55
2021-08-01 00:10:37.472,0.995,-0.81
2021-08-01 00:10:37.476,1.275,-1.07
2021-08-01 00:10:37.480,1.365,-1.175
2021-08-01 00:10:37.484,1.2,-1.055
2021-08-01 00:10:37.488,0.785,-0.735
2021-08-01 00:10:37.492,0.34,-0.35
2021-08-01 00:10:37.496,0.055,-0.14
2021-08-01 00:10:37.500,-0.095,-0.01
2021-08-01 00:10:37.504,-0.155,0.035
2021-08-01 00:10:37.508,-0.21,0.06
2021-08-01 00:10:37.512,-0.24,0.035
2021-08-01 00:10:37.516,-0.26,0.045
2021-08-01 00:10:37.520,-0.3,0.03
2021-08-01 00:10:37.524,-0.32,0.025
2021-08-01 00:10:37.528,-0.325,-0.005
2021-08-01 00:10:37.532,-0.34,-0.01
2021-08-01 00:10:37.536,-0.33,-0.05
2021-08-01 00:10:37.540,-0.36,-0.035
2021-08-01 00:10:37.544,-0.355,-0.04
2021-08-01 00:10:37.548,-0.355,-0.045
2021-08-01 00:10:37.552,-0.365,-0.04
2021-08-01 00:10:37.556,-0.365,-0.02
2021-08-01 00:10:37.560,-0.36,-0.04
2021-08-01 00:10:37.564,-0.375,-0.04
2021-08-01 00:10:37.568,-0.37,-0.03
2021-08-01 00:10:37.572,-0.375,-0.035
2021-08-01 00:10:37.576,-0.375,-0.04
2021-08-01 00:10:37.580,-0.385,-0.045
2021-08-01 00:10:37.584,-0.38,-0.055
2021-08-01 00:10:37.588,-0.405,-0.05
2021-08-01 00:10:37.592,-0.395,-0.055
2021-08-01 00:10:37.596,-0.38,-0.06
2021-08-01 00:10:37.600,-0.39,-0.065
2021-08-01 00:10:37.604,-0.39,-0.07
2021-08-01 00:10:37.608,-0.405,-0.075
2021-08-01 00:10:37.612,-0.415,-0.075
2021-08-01 00:10:37.616,-0.37,-0.07
2021-08-01 00:10:37.620,-0.375,-0.06
2021-08-01 00:10:37.624,-0.37,-0.07
2021-08-01 00:10:37.628,-0.345,-0.065
2021-08-01 00:10:37.632,-0.35,-0.055
2021-08-01 00:10:37.636,-0.36,-0.06
2021-08-01 00:10:37.640,-0.33,-0.035
2021-08-01 00:10:37.644,-0.31,-0.04
2021-08-01 00:10:37.648,-0.3,-0.04
2021-08-01 00:10:37.652,-0.25,-0.04
2021-08-01 00:10:37.656,-0.23,-0.04
2021-08-01 00:10:37.660,-0.2,-0.045
2021-08-01 00:10:37.664,-0.155,-0.06
2021-08-01 00:10:37.668,-0.18,-0.07
2021-08-01 00:10:37.672,-0.165,-0.07
2021-08-01 00:10:37.676,-0.14,-0.08
2021-08-01 00:10:37.680,-0.145,-0.075
2021-08-01 00:10:37.684,-0.135,-0.095
2021-08-01 00:10:37.688,-0.1,-0.065
2021-08-01 00:10:37.692,-0.105,-0.09
2021-08-01 00:10:37.696,-0.11,-0.115
2021-08-01 00:10:37.700,-0.105,-0.115
2021-08-01 00:10:37.704,-0.075,-0.105
2021-08-01 00:10:37.708,-0.08,-0.09
2021-08-01 00:10:37.712,-0.085,-0.11
2021-08-01 00:10:37.716,-0.065,-0.125
2021-08-01 00:10:37.720,-0.075,-0.13
2021-08-01 00:10:37.724,-0.07,-0.115
2021-08-01 00:10:37.728,-0.1,-0.14
2021-08-01 00:10:37.732,-0.11,-0.115
2021-08-01 00:10:37.736,-0.125,-0.14
2021-08-01 00:10:37.740,-0.11,-0.125
2021-08-01 00:10:37.744,-0.13,-0.12
2021-08-01 00:10:37.748,-0.16,-0.11
2021-08-01 00:10:37.752,-0.155,-0.125
2021-08-01 00:10:37.756,-0.155,-0.11
2021-08-01 00:10:37.760,-0.145,-0.115
2021-08-01 00:10:37.764,-0.15,-0.095
2021-08-01 00:10:37.768,-0.155,-0.095
2021-08-01 00:10:37.772,-0.14,-0.08
2021-08-01 00:10:37.776,-0.16,-0.07
2021-08-01 00:10:37.780,-0.155,-0.06
2021-08-01 00:10:37.784,-0.15,-0.065
2021-08-01 00:10:37.788,-0.165,-0.045
2021-08-01 00:10:37.792,-0.175,-0.065
2021-08-01 00:10:37.796,-0.175,-0.065
2021-08-01 00:10:37.800,-0.155,-0.055
2021-08-01 00:10:37.804,-0.18,-0.05
2021-08-01 00:10:37.808,-0.18,-0.05
2021-08-01 00:10:37.812,-0.195,-0.04
2021-08-01 00:10:37.816,-0.2,-0.04
2021-08-01 00:10:37.820,-0.19,-0.04
2021-08-01 00:10:37.824,-0.205,-0.06
2021-08-01 00:10:37.828,-0.195,-0.03
2021-08-01 00:10:37.832,-0.17,-0.08
2021-08-01 00:10:37.836,-0.165,-0.065
2021-08-01 00:10:37.840,-0.165,-0.05
2021-08-01 00:10:37.844,-0.185,-0.07
2021-08-01 00:10:37.848,-0.18,-0.04
2021-08-01 00:10:37.852,-0.2,-0.07
2021-08-01 00:10:37.856,-0.205,-0.055
2021-08-01 00:10:37.860,-0.18,-0.055
2021-08-01 00:10:37.864,-0.185,-0.04
2021-08-01 00:10:37.868,-0.19,-0.035
2021-08-01 00:10:37.872,-0.165,-0.06
2021-08-01 00:10:37.876,-0.14,-0.045
2021-08-01 00:10:37.880,-0.14,-0.05
2021-08-01 00:10:37.884,-0.14,-0.04
2021-08-01 00:10:37.888,-0.135,-0.04
2021-08-01 00:10:37.892,-0.13,-0.03
2021-08-01 00:10:37.896,-0.12,-0.04
2021-08-01 00:10:37.900,-0.1,-0.025
2021-08-01 00:10:37.904,-0.075,-0.035
2021-08-01 00:10:37.908,-0.04,-0.04
2021-08-01 00:10:37.912,-0.01,-0.055
2021-08-01 00:10:37.916,0.0,-0.06
2021-08-01 00:10:37.920,0.005,-0.055
2021-08-01 00:10:37.924,0.035,-0.06
2021-08-01 00:10:37.928,0.07,-0.05
2021-08-01 00:10:37.932,0.16,-0.07
2021-08-01 00:10:37.936,0.235,-0.075
2021-08-01 00:10:37.940,0.31,-0.11
2021-08-01 00:10:37.944,0.315,-0.14
2021-08-01 00:10:37.948,0.355,-0.165
2021-08-01 00:10:37.952,0.325,-0.135
2021-08-01 00:10:37.956,0.275,-0.105
2021-08-01 00:10:37.960,0.2,-0.12
2021-08-01 00:10:37.964,0.15,-0.185
2021-08-01 00:10:37.968,0.295,-0.31
2021-08-01 00:10:37.972,0.59,-0.505
2021-08-01 00:10:37.976,0.91,-0.78
2021-08-01 00:10:37.980,1.18,-1.07
2021-08-01 00:10:37.984,1.275,-1.17
2021-08-01 00:10:37.988,1.12,-1.06
2021-08-01 00:10:37.992,0.74,-0.74
2021-08-01 00:10:37.996,0.285,-0.365
2021-08-01 00:10:38.000,0.05,-0.095
2021-08-01 00:10:38.004,-0.08,0.045
2021-08-01 00:10:38.008,-0.175,0.09
2021-08-01 00:10:38.012,-0.21,0.085
2021-08-01 00:10:38.016,-0.24,0.095
2021-08-01 00:10:38.020,-0.275,0.045
2021-08-01 00:10:38.024,-0.285,0.06
2021-08-01 00:10:38.028,-0.315,0.035
2021-08-01 00:10:38.032,-0.32,0.025
2021-08-01 00:10:38.036,-0.325,0.005
2021-08-01 00:10:38.040,-0.345,-0.035
2021-08-01 00:10:38.044,-0.345,-0.025
2021-08-01 00:10:38.048,-0.34,-0.045
2021-08-01 00:10:38.052,-0.345,-0.035
2021-08-01 00:10:38.056,-0.35,-0.04
2021-08-01 00:10:38.060,-0.345,-0.05
2021-08-01 00:10:38.064,-0.34,-0.03
2021-08-01 00:10:38.068,-0.34,-0.005
2021-08-01 00:10:38.072,-0.35,-0.03
2021-08-01 00:10:38.076,-0.335,-0.05
2021-08-01 00:10:38.080,-0.345,-0.03
2021-08-01 00:10:38.084,-0.345,-0.05
2021-08-01 00:10:38.088,-0.33,-0.055
2021-08-01 00:10:38.092,-0.34,-0.085
2021-08-01 00:10:38.096,-0.365,-0.07
2021-08-01 00:10:38.100,-0.375,-0.065
2021-08-01 00:10:38.104,-0.37,-0.06
2021-08-01 00:10:38.108,-0.36,-0.07
2021-08-01 00:10:38.112,-0.36,-0.08
2021-08-01 00:10:38.116,-0.38,-0.09
2021-08-01 00:10:38.120,-0.375,-0.075
2021-08-01 00:10:38.124,-0.37,-0.065
2021-08-01 00:10:38.128,-0.355,-0.08
2021-08-01 00:10:38.132,-0.36,-0.08
2021-08-01 00:10:38.136,-0.375,-0.055
2021-08-01 00:10:38.140,-0.375,-0.055
2021-08-01 00:10:38.144,-0.34,-0.06
2021-08-01 00:10:38.148,-0.28,-0.055
2021-08-01 00:10:38.152,-0.225,-0.075
2021-08-01 00:10:38.156,-0.195,-0.085
2021-08-01 00:10:38.160,-0.2,-0.055
2021-08-01 00:10:38.164,-0.17,-0.07
2021-08-01 00:10:38.168,-0.16,-0.075
2021-08-01 00:10:38.172,-0.15,-0.085
2021-08-01 00:10:38.176,-0.17,-0.08
2021-08-01 00:10:38.180,-0.17,-0.08
2021-08-01 00:10:38.184,-0.205,-0.1
2021-08-01 00:10:38.188,-0.215,-0.11
2021-08-01 00:10:38.192,-0.21,-0.115
2021-08-01 00:10:38.196,-0.2,-0.105
2021-08-01 00:10:38.200,-0.2,-0.13
2021-08-01 00:10:38.204,-0.22,-0.12
2021-08-01 00:10:38.208,-0.2,-0.11
2021-08-01 00:10:38.212,-0.21,-0.16
2021-08-01 00:10:38.216,-0.2,-0.11
2021-08-01 00:10:38.220,-0.2,-0.115
2021-08-01 00:10:38.224,-0.21,-0.15
2021-08-01 00:10:38.228,-0.215,-0.135
2021-08-01 00:10:38.232,-0.205,-0.145
2021-08-01 00:10:38.236,-0.205,-0.16
2021-08-01 00:10:38.240,-0.23,-0.155
2021-08-01 00:10:38.244,-0.24,-0.15
2021-08-01 00:10:38.248,-0.23,-0.15
2021-08-01 00:10:38.252,-0.245,-0.155
2021-08-01 00:10:38.256,-0.245,-0.16
2021-08-01 00:10:38.260,-0.23,-0.155
2021-08-01 00:10:38.264,-0.225,-0.185
2021-08-01 00:10:38.268,-0.22,-0.145
2021-08-01 00:10:38.272,-0.24,-0.15
2021-08-01 00:10:38.276,-0.22,-0.12
2021-08-01 00:10:38.280,-0.215,-0.13
2021-08-01 00:10:38.284,-0.215,-0.13
2021-08-01 00:10:38.288,-0.2,-0.125
2021-08-01 00:10:38.292,-0.205,-0.1
2021-08-01 00:10:38.296,-0.185,-0.12
2021-08-01 00:10:38.300,-0.18,-0.115
2021-08-01 00:10:38.304,-0.185,-0.075
2021-08-01 00:10:38.308,-0.175,-0.085
2021-08-01 00:10:38.312,-0.195,-0.08
2021-08-01 00:10:38.316,-0.175,-0.065
2021-08-01 00:10:38.320,-0.16,-0.075
2021-08-01 00:10:38.324,-0.185,-0.095
2021-08-01 00:10:38.328,-0.175,-0.065
2021-08-01 00:10:38.332,-0.205,-0.08
2021-08-01 00:10:38.336,-0.2,-0.09
2021-08-01 00:10:38.340,-0.2,-0.09
2021-08-01 00:10:38.344,-0.19,-0.095
2021-08-01 00:10:38.348,-0.205,-0.09
2021-08-01 00:10:38.352,-0.22,-0.105
2021-08-01 00:10:38.356,-0.2,-0.125
2021-08-01 00:10:38.360,-0.21,-0.105
2021-08-01 00:10:38.364,-0.21,-0.095
2021-08-01 00:10:38.368,-0.21,-0.11
2021-08-01 00:10:38.372,-0.185,-0.11
2021-08-01 00:10:38.376,-0.18,-0.07
2021-08-01 00:10:38.380,-0.17,-0.065
2021-08-01 00:10:38.384,-0.14,-0.075
2021-08-01 00:10:38.388,-0.115,-0.055
2021-08-01 00:10:38.392,-0.08,-0.04
2021-08-01 00:10:38.396,-0.03,-0.05
2021-08-01 00:10:38.400,-0.025,-0.035
2021-08-01 00:10:38.404,-0.005,-0.02
2021-08-01 00:10:38.408,0.0,-0.045
2021-08-01 00:10:38.412,-0.02,-0.03
2021-08-01 00:10:38.416,-0.01,-0.055
2021-08-01 00:10:38.420,-0.04,-0.08
2021-08-01 00:10:38.424,-0.065,-0.06
2021-08-01 00:10:38.428,-0.09,-0.055
2021-08-01 00:10:38.432,-0.09,-0.08
2021-08-01 00:10:38.436,-0.03,-0.085
2021-08-01 00:10:38.440,0.005,-0.095
2021-08-01 00:10:38.444,0.07,-0.1
2021-08-01 00:10:38.448,0.14,-0.12
2021-08-01 00:10:38.452,0.175,-0.13
2021-08-01 00:10:38.456,0.19,-0.185
2021-08-01 00:10:38.460,0.21,-0.195
2021-08-01 00:10:38.464,0.2,-0.185
2021-08-01 00:10:38.468,0.14,-0.165
2021-08-01 00:10:38.472,0.11,-0.185
2021-08-01 00:10:38.476,0.145,-0.28
2021-08-01 00:10:38.480,0.33,-0.41
2021-08-01 00:10:38.484,0.62,-0.625
2021-08-01 00:10:38.488,0.95,-0.915
2021-08-01 00:10:38.492,1.15,-1.13
2021-08-01 00:10:38.496,1.155,-1.15
2021-08-01 00:10:38.500,0.88,-0.95
2021-08-01 00:10:38.504,0.44,-0.605
2021-08-01 00:10:38.508,0.085,-0.29
2021-08-01 00:10:38.512,-0.095,-0.095
2021-08-01 00:10:38.516,-0.195,0.005
2021-08-01 00:10:38.520,-0.245,0.025
2021-08-01 00:10:38.524,-0.3,0.03
2021-08-01 00:10:38.528,-0.3,0.035
2021-08-01 00:10:38.532,-0.345,0.01
2021-08-01 00:10:38.536,-0.36,-0.005
2021-08-01 00:10:38.540,-0.365,-0.04
2021-08-01 00:10:38.544,-0.365,-0.06
2021-08-01 00:10:38.548,-0.385,-0.08
2021-08-01 00:10:38.552,-0.405,-0.105
2021-08-01 00:10:38.556,-0.385,-0.09
2021-08-01 00:10:38.560,-0.415,-0.1
2021-08-01 00:10:38.564,-0.385,-0.11
2021-08-01 00:10:38.568,-0.41,-0.095
2021-08-01 00:10:38.572,-0.43,-0.08
2021-08-01 00:10:38.576,-0.43,-0.085
2021-08-01 00:10:38.580,-0.435,-0.13
2021-08-01 00:10:38.584,-0.435,-0.11
2021-08-01 00:10:38.588,-0.45,-0.13
2021-08-01 00:10:38.592,-0.41,-0.12
2021-08-01 00:10:38.596,-0.415,-0.105
2021-08-01 00:10:38.600,-0.395,-0.105
2021-08-01 00:10:38.604,-0.385,-0.13
2021-08-01 00:10:38.608,-0.385,-0.11
2021-08-01 00:10:38.612,-0.39,-0.105
2021-08-01 00:10:38.616,-0.385,-0.105
2021-08-01 00:10:38.620,-0.36,-0.06
2021-08-01 00:10:38.624,-0.335,-0.065
2021-08-01 00:10:38.628,-0.36,-0.055
2021-08-01 00:10:38.632,-0.36,-0.065
2021-08-01 00:10:38.636,-0.35,-0.065
2021-08-01 00:10:38.640,-0.33,-0.05
2021-08-01 00:10:38.644,-0.3,-0.05
2021-08-01 00:10:38.648,-0.285,-0.04
2021-08-01 00:10:38.652,-0.295,-0.065
2021-08-01 00:10:38.656,-0.29,-0.08
2021-08-01 00:10:38.660,-0.31,-0.095
2021-08-01 00:10:38.664,-0.32,-0.13
2021-08-01 00:10:38.668,-0.315,-0.12
2021-08-01 00:10:38.672,-0.335,-0.13
2021-08-01 00:10:38.676,-0.36,-0.15
2021-08-01 00:10:38.680,-0.375,-0.16
2021-08-01 00:10:38.684,-0.395,-0.15
2021-08-01 00:10:38.688,-0.38,-0.185
2021-08-01 00:10:38.692,-0.385,-0.205
2021-08-01 00:10:38.696,-0.38,-0.21
2021-08-01 00:10:38.700,-0.37,-0.205
2021-08-01 00:10:38.704,-0.355,-0.21
2021-08-01 00:10:38.708,-0.335,-0.19
2021-08-01 00:10:38.712,-0.34,-0.205
2021-08-01 00:10:38.716,-0.33,-0.215
2021-08-01 00:10:38.720,-0.3,-0.215
2021-08-01 00:10:38.724,-0.3,-0.23
2021-08-01 00:10:38.728,-0.28,-0.215
2021-08-01 00:10:38.732,-0.28,-0.205
2021-08-01 00:10:38.736,-0.29,-0.2
2021-08-01 00:10:38.740,-0.28,-0.22
2021-08-01 00:10:38.744,-0.305,-0.215
2021-08-01 00:10:38.748,-0.27,-0.21
2021-08-01 00:10:38.752,-0.26,-0.2
2021-08-01 00:10:38.756,-0.27,-0.215
2021-08-01 00:10:38.760,-0.28,-0.2
2021-08-01 00:10:38.764,-0.275,-0.18
2021-08-01 00:10:38.768,-0.265,-0.205
2021-08-01 00:10:38.772,-0.255,-0.215
2021-08-01 00:10:38.776,-0.25,-0.225
2021-08-01 00:10:38.780,-0.235,-0.225
2021-08-01 00:10:38.784,-0.265,-0.215
2021-08-01 00:10:38.788,-0.285,-0.225
2021-08-01 00:10:38.792,-0.29,-0.215
2021-08-01 00:10:38.796,-0.295,-0.245
2021-08-01 00:10:38.800,-0.28,-0.225
2021-08-01 00:10:38.804,-0.275,-0.215
2021-08-01 00:10:38.808,-0.25,-0.21
2021-08-01 00:10:38.812,-0.26,-0.23
2021-08-01 00:10:38.816,-0.25,-0.215
2021-08-01 00:10:38.820,-0.26,-0.22
2021-08-01 00:10:38.824,-0.265,-0.185
2021-08-01 00:10:38.828,-0.275,-0.18
2021-08-01 00:10:38.832,-0.295,-0.185
2021-08-01 00:10:38.836,-0.26,-0.205
2021-08-01 00:10:38.840,-0.255,-0.175
2021-08-01 00:10:38.844,-0.22,-0.175
2021-08-01 00:10:38.848,-0.195,-0.145
2021-08-01 00:10:38.852,-0.19,-0.145
2021-08-01 00:10:38.856,-0.205,-0.13
2021-08-01 00:10:38.860,-0.2,-0.135
2021-08-01 00:10:38.864,-0.23,-0.125
2021-08-01 00:10:38.868,-0.23,-0.12
2021-08-01 00:10:38.872,-0.24,-0.125
2021-08-01 00:10:38.876,-0.21,-0.12
2021-08-01 00:10:38.880,-0.21,-0.135
2021-08-01 00:10:38.884,-0.175,-0.15
2021-08-01 00:10:38.888,-0.195,-0.15
2021-08-01 00:10:38.892,-0.21,-0.135
2021-08-01 00:10:38.896,-0.245,-0.17
2021-08-01 00:10:38.900,-0.235,-0.185
2021-08-01 00:10:38.904,-0.275,-0.235
2021-08-01 00:10:38.908,-0.27,-0.23
2021-08-01 00:10:38.912,-0.29,-0.24
2021-08-01 00:10:38.916,-0.305,-0.22
2021-08-01 00:10:38.920,-0.315,-0.235
2021-08-01 00:10:38.924,-0.31,-0.245
2021-08-01 00:10:38.928,-0.315,-0.245
2021-08-01 00:10:38.932,-0.305,-0.25
2021-08-01 00:10:38.936,-0.29,-0.255
2021-08-01 00:10:38.940,-0.275,-0.24
2021-08-01 00:10:38.944,-0.255,-0.25
2021-08-01 00:10:38.948,-0.23,-0.24
2021-08-01 00:10:38.952,-0.245,-0.25
2021-08-01 00:10:38.956,-0.24,-0.255
2021-08-01 00:10:38.960,-0.205,-0.24
2021-08-01 00:10:38.964,-0.175,-0.25
2021-08-01 00:10:38.968,-0.12,-0.26
2021-08-01 00:10:38.972,-0.045,-0.27
2021-08-01 00:10:38.976,0.05,-0.275
2021-08-01 00:10:38.980,0.135,-0.275
2021-08-01 00:10:38.984,0.19,-0.32
2021-08-01 00:10:38.988,0.225,-0.335
2021-08-01 00:10:38.992,0.255,-0.33
2021-08-01 00:10:38.996,0.285,-0.305
2021-08-01 00:10:39.000,0.235,-0.31
2021-08-01 00:10:39.004,0.21,-0.33
2021-08-01 00:10:39.008,0.315,-0.42
2021-08-01 00:10:39.012,0.56,-0.62
2021-08-01 00:10:39.016,0.885,-0.86
2021-08-01 00:10:39.020,1.115,-1.075
2021-08-01 00:10:39.024,1.095,-1.175
2021-08-01 00:10:39.028,0.82,-1.075
2021-08-01 00:10:39.032,0.355,-0.76
2021-08-01 00:10:39.036,0.015,-0.51
2021-08-01 00:10:39.040,-0.15,-0.355
2021-08-01 00:10:39.044,-0.22,-0.275
2021-08-01 00:10:39.048,-0.275,-0.185
2021-08-01 00:10:39.052,-0.29,-0.145
2021-08-01 00:10:39.056,-0.32,-0.145
2021-08-01 00:10:39.060,-0.36,-0.16
2021-08-01 00:10:39.064,-0.365,-0.16
2021-08-01 00:10:39.068,-0.38,-0.16
2021-08-01 00:10:39.072,-0.405,-0.18
2021-08-01 00:10:39.076,-0.4,-0.225
2021-08-01 00:10:39.080,-0.405,-0.215
2021-08-01 00:10:39.084,-0.42,-0.195
2021-08-01 00:10:39.088,-0.435,-0.19
2021-08-01 00:10:39.092,-0.45,-0.185
2021-08-01 00:10:39.096,-0.46,-0.2
2021-08-01 00:10:39.100,-0.48,-0.19
2021-08-01 00:10:39.104,-0.495,-0.175
2021-08-01 00:10:39.108,-0.52,-0.205
2021-08-01 00:10:39.112,-0.515,-0.21
2021-08-01 00:10:39.116,-0.525,-0.18
2021-08-01 00:10:39.120,-0.52,-0.2
2021-08-01 00:10:39.124,-0.555,-0.2
2021-08-01 00:10:39.128,-0.56,-0.215
2021-08-01 00:10:39.132,-0.54,-0.21
2021-08-01 00:10:39.136,-0.545,-0.23
