Time,ECG1,ECG2
2021-08-01 00:54:03.880,-0.265,0.015
2021-08-01 00:54:03.884,-0.28,-0.04
2021-08-01 00:54:03.888,-0.29,-0.055
2021-08-01 00:54:03.892,-0.29,-0.08
2021-08-01 00:54:03.896,-0.285,-0.09
2021-08-01 00:54:03.900,-0.23,-0.08
2021-08-01 00:54:03.904,-0.225,-0.095
2021-08-01 00:54:03.908,-0.235,-0.11
2021-08-01 00:54:03.912,-0.23,-0.1
2021-08-01 00:54:03.916,-0.235,-0.13
2021-08-01 00:54:03.920,-0.235,-0.135
2021-08-01 00:54:03.924,-0.235,-0.12
2021-08-01 00:54:03.928,-0.195,-0.14
2021-08-01 00:54:03.932,-0.17,-0.13
2021-08-01 00:54:03.936,-0.155,-0.14
2021-08-01 00:54:03.940,-0.16,-0.13
2021-08-01 00:54:03.944,-0.16,-0.13
2021-08-01 00:54:03.948,-0.17,-0.135
2021-08-01 00:54:03.952,-0.155,-0.105
2021-08-01 00:54:03.956,-0.16,-0.135
2021-08-01 00:54:03.960,-0.15,-0.14
2021-08-01 00:54:03.964,-0.15,-0.13
2021-08-01 00:54:03.968,-0.105,-0.1
2021-08-01 00:54:03.972,-0.075,-0.1
2021-08-01 00:54:03.976,-0.025,-0.075
2021-08-01 00:54:03.980,-0.055,-0.115
2021-08-01 00:54:03.984,-0.075,-0.1
2021-08-01 00:54:03.988,-0.08,-0.09
2021-08-01 00:54:03.992,-0.105,-0.085
2021-08-01 00:54:03.996,-0.125,-0.07
2021-08-01 00:54:04.000,-0.135,-0.06
2021-08-01 00:54:04.004,-0.09,-0.085
2021-08-01 00:54:04.008,-0.07,-0.08
2021-08-01 00:54:04.012,-0.09,-0.05
2021-08-01 00:54:04.016,-0.085,-0.045
2021-08-01 00:54:04.020,-0.06,-0.055
2021-08-01 00:54:04.024,-0.035,-0.055
2021-08-01 00:54:04.028,0.015,-0.03
2021-08-01 00:54:04.032,0.09,-0.04
2021-08-01 00:54:04.036,0.195,-0.035
2021-08-01 00:54:04.040,0.305,-0.03
2021-08-01 00:54:04.044,0.405,-0.035
2021-08-01 00:54:04.048,0.455,-0.055
2021-08-01 00:54:04.052,0.475,-0.05
2021-08-01 00:54:04.056,0.415,-0.045
2021-08-01 00:54:04.060,0.365,-0.035
2021-08-01 00:54:04.064,0.325,-0.03
2021-08-01 00:54:04.068,0.35,-0.12
2021-08-01 00:54:04.072,0.55,-0.225
2021-08-01 00:54:04.076,0.835,-0.425
2021-08-01 00:54:04.080,1.11,-0.72
2021-08-01 00:54:04.084,1.345,-0.965
2021-08-01 00:54:04.088,1.37,-1.07
2021-08-01 00:54:04.092,1.14,-0.91
2021-08-01 00:54:04.096,0.69,-0.55
2021-08-01 00:54:04.100,0.25,-0.155
2021-08-01 00:54:04.104,0.0,0.085
2021-08-01 00:54:04.108,-0.12,0.21
2021-08-01 00:54:04.112,-0.155,0.225
2021-08-01 00:54:04.116,-0.19,0.21
2021-08-01 00:54:04.120,-0.21,0.16
2021-08-01 00:54:04.124,-0.2,0.15
2021-08-01 00:54:04.128,-0.21,0.155
2021-08-01 00:54:04.132,-0.225,0.095
2021-08-01 00:54:04.136,-0.22,0.08
2021-08-01 00:54:04.140,-0.25,0.03
2021-08-01 00:54:04.144,-0.25,-0.01
2021-08-01 00:54:04.148,-0.24,-0.035
2021-08-01 00:54:04.152,-0.21,-0.035
2021-08-01 00:54:04.156,-0.235,-0.02
2021-08-01 00:54:04.160,-0.255,-0.065
2021-08-01 00:54:04.164,-0.28,-0.06
2021-08-01 00:54:04.168,-0.27,-0.065
2021-08-01 00:54:04.172,-0.275,-0.035
2021-08-01 00:54:04.176,-0.265,-0.05
2021-08-01 00:54:04.180,-0.275,-0.035
2021-08-01 00:54:04.184,-0.295,-0.055
2021-08-01 00:54:04.188,-0.3,-0.04
2021-08-01 00:54:04.192,-0.31,-0.05
2021-08-01 00:54:04.196,-0.29,-0.05
2021-08-01 00:54:04.200,-0.295,-0.035
2021-08-01 00:54:04.204,-0.315,-0.05
2021-08-01 00:54:04.208,-0.32,-0.04
2021-08-01 00:54:04.212,-0.335,-0.04
2021-08-01 00:54:04.216,-0.35,-0.04
2021-08-01 00:54:04.220,-0.36,-0.06
2021-08-01 00:54:04.224,-0.34,-0.055
2021-08-01 00:54:04.228,-0.33,-0.05
2021-08-01 00:54:04.232,-0.345,-0.055
2021-08-01 00:54:04.236,-0.345,-0.025
2021-08-01 00:54:04.240,-0.365,-0.035
2021-08-01 00:54:04.244,-0.34,-0.075
2021-08-01 00:54:04.248,-0.325,-0.05
2021-08-01 00:54:04.252,-0.26,-0.065
2021-08-01 00:54:04.256,-0.2,-0.05
2021-08-01 00:54:04.260,-0.185,-0.035
2021-08-01 00:54:04.264,-0.16,-0.015
2021-08-01 00:54:04.268,-0.175,-0.005
2021-08-01 00:54:04.272,-0.16,-0.025
2021-08-01 00:54:04.276,-0.155,0.005
2021-08-01 00:54:04.280,-0.14,0.025
2021-08-01 00:54:04.284,-0.125,0.03
2021-08-01 00:54:04.288,-0.095,0.04
2021-08-01 00:54:04.292,-0.095,0.05
2021-08-01 00:54:04.296,-0.07,0.055
2021-08-01 00:54:04.300,-0.07,0.025
2021-08-01 00:54:04.304,-0.115,0.045
2021-08-01 00:54:04.308,-0.13,0.055
2021-08-01 00:54:04.312,-0.155,0.045
2021-08-01 00:54:04.316,-0.15,0.045
2021-08-01 00:54:04.320,-0.15,0.035
2021-08-01 00:54:04.324,-0.16,0.03
2021-08-01 00:54:04.328,-0.175,0.03
2021-08-01 00:54:04.332,-0.145,0.025
2021-08-01 00:54:04.336,-0.13,0.015
2021-08-01 00:54:04.340,-0.105,-0.015
2021-08-01 00:54:04.344,-0.09,-0.02
2021-08-01 00:54:04.348,-0.06,-0.005
2021-08-01 00:54:04.352,-0.015,-0.01
2021-08-01 00:54:04.356,0.0,-0.015
2021-08-01 00:54:04.360,0.05,-0.04
2021-08-01 00:54:04.364,0.035,-0.06
2021-08-01 00:54:04.368,0.0,-0.075
2021-08-01 00:54:04.372,-0.05,-0.065
2021-08-01 00:54:04.376,-0.06,-0.085
2021-08-01 00:54:04.380,-0.04,-0.085
2021-08-01 00:54:04.384,-0.025,-0.075
2021-08-01 00:54:04.388,-0.01,-0.09
2021-08-01 00:54:04.392,0.0,-0.075
2021-08-01 00:54:04.396,0.02,-0.09
2021-08-01 00:54:04.400,-0.025,-0.1
2021-08-01 00:54:04.404,-0.025,-0.09
2021-08-01 00:54:04.408,-0.02,-0.11
2021-08-01 00:54:04.412,0.04,-0.09
2021-08-01 00:54:04.416,0.095,-0.1
2021-08-01 00:54:04.420,0.165,-0.09
2021-08-01 00:54:04.424,0.25,-0.11
2021-08-01 00:54:04.428,0.31,-0.145
2021-08-01 00:54:04.432,0.345,-0.175
2021-08-01 00:54:04.436,0.345,-0.165
2021-08-01 00:54:04.440,0.35,-0.16
2021-08-01 00:54:04.444,0.31,-0.14
2021-08-01 00:54:04.448,0.31,-0.18
2021-08-01 00:54:04.452,0.395,-0.22
2021-08-01 00:54:04.456,0.635,-0.355
2021-08-01 00:54:04.460,0.955,-0.58
2021-08-01 00:54:04.464,1.235,-0.86
2021-08-01 00:54:04.468,1.38,-1.06
2021-08-01 00:54:04.472,1.2,-1.05
2021-08-01 00:54:04.476,0.79,-0.79
2021-08-01 00:54:04.480,0.395,-0.43
2021-08-01 00:54:04.484,0.17,-0.19
2021-08-01 00:54:04.488,0.08,-0.05
2021-08-01 00:54:04.492,0.02,0.05
2021-08-01 00:54:04.496,0.01,0.07
2021-08-01 00:54:04.500,0.005,0.085
2021-08-01 00:54:04.504,0.015,0.11
2021-08-01 00:54:04.508,-0.005,0.12
2021-08-01 00:54:04.512,-0.03,0.115
2021-08-01 00:54:04.516,-0.055,0.065
2021-08-01 00:54:04.520,-0.065,0.055
2021-08-01 00:54:04.524,-0.075,0.04
2021-08-01 00:54:04.528,-0.08,0.03
2021-08-01 00:54:04.532,-0.12,0.05
2021-08-01 00:54:04.536,-0.195,0.025
2021-08-01 00:54:04.540,-0.26,0.05
2021-08-01 00:54:04.544,-0.27,0.025
2021-08-01 00:54:04.548,-0.26,0.04
2021-08-01 00:54:04.552,-0.26,0.06
2021-08-01 00:54:04.556,-0.25,0.03
2021-08-01 00:54:04.560,-0.245,0.03
2021-08-01 00:54:04.564,-0.26,0.025
2021-08-01 00:54:04.568,-0.24,0.005
2021-08-01 00:54:04.572,-0.25,-0.02
2021-08-01 00:54:04.576,-0.26,-0.02
2021-08-01 00:54:04.580,-0.28,-0.035
2021-08-01 00:54:04.584,-0.285,-0.06
2021-08-01 00:54:04.588,-0.27,-0.07
2021-08-01 00:54:04.592,-0.26,-0.08
2021-08-01 00:54:04.596,-0.245,-0.095
2021-08-01 00:54:04.600,-0.225,-0.1
2021-08-01 00:54:04.604,-0.21,-0.1
2021-08-01 00:54:04.608,-0.23,-0.1
2021-08-01 00:54:04.612,-0.23,-0.12
2021-08-01 00:54:04.616,-0.255,-0.11
2021-08-01 00:54:04.620,-0.235,-0.15
2021-08-01 00:54:04.624,-0.205,-0.14
2021-08-01 00:54:04.628,-0.23,-0.12
2021-08-01 00:54:04.632,-0.26,-0.135
2021-08-01 00:54:04.636,-0.26,-0.155
2021-08-01 00:54:04.640,-0.25,-0.15
2021-08-01 00:54:04.644,-0.215,-0.14
2021-08-01 00:54:04.648,-0.25,-0.135
2021-08-01 00:54:04.652,-0.275,-0.135
2021-08-01 00:54:04.656,-0.315,-0.17
2021-08-01 00:54:04.660,-0.285,-0.15
2021-08-01 00:54:04.664,-0.24,-0.16
2021-08-01 00:54:04.668,-0.22,-0.16
2021-08-01 00:54:04.672,-0.225,-0.17
2021-08-01 00:54:04.676,-0.22,-0.19
2021-08-01 00:54:04.680,-0.21,-0.19
2021-08-01 00:54:04.684,-0.19,-0.18
2021-08-01 00:54:04.688,-0.16,-0.2
2021-08-01 00:54:04.692,-0.145,-0.2
2021-08-01 00:54:04.696,-0.13,-0.175
2021-08-01 00:54:04.700,-0.095,-0.17
2021-08-01 00:54:04.704,-0.065,-0.155
2021-08-01 00:54:04.708,-0.06,-0.14
2021-08-01 00:54:04.712,-0.03,-0.16
2021-08-01 00:54:04.716,0.005,-0.14
2021-08-01 00:54:04.720,0.0,-0.12
2021-08-01 00:54:04.724,-0.01,-0.08
2021-08-01 00:54:04.728,0.03,-0.085
2021-08-01 00:54:04.732,0.035,-0.075
2021-08-01 00:54:04.736,0.055,-0.05
2021-08-01 00:54:04.740,0.04,-0.03
2021-08-01 00:54:04.744,0.035,-0.015
2021-08-01 00:54:04.748,0.02,-0.035
2021-08-01 00:54:04.752,-0.01,-0.045
2021-08-01 00:54:04.756,-0.02,-0.035
2021-08-01 00:54:04.760,-0.04,-0.035
2021-08-01 00:54:04.764,-0.035,-0.035
2021-08-01 00:54:04.768,-0.05,-0.045
2021-08-01 00:54:04.772,-0.06,-0.04
2021-08-01 00:54:04.776,-0.08,-0.02
2021-08-01 00:54:04.780,-0.08,-0.055
2021-08-01 00:54:04.784,-0.085,-0.035
2021-08-01 00:54:04.788,-0.065,-0.055
2021-08-01 00:54:04.792,-0.025,-0.035
2021-08-01 00:54:04.796,0.005,-0.045
2021-08-01 00:54:04.800,0.0,-0.045
2021-08-01 00:54:04.804,0.0,-0.075
2021-08-01 00:54:04.808,-0.04,-0.09
2021-08-01 00:54:04.812,-0.075,-0.12
2021-08-01 00:54:04.816,-0.045,-0.115
2021-08-01 00:54:04.820,-0.06,-0.14
2021-08-01 00:54:04.824,-0.05,-0.14
2021-08-01 00:54:04.828,-0.03,-0.16
2021-08-01 00:54:04.832,-0.025,-0.165
2021-08-01 00:54:04.836,-0.025,-0.155
2021-08-01 00:54:04.840,-0.03,-0.165
2021-08-01 00:54:04.844,-0.03,-0.18
2021-08-01 00:54:04.848,-0.045,-0.185
2021-08-01 00:54:04.852,-0.06,-0.19
2021-08-01 00:54:04.856,-0.075,-0.19
2021-08-01 00:54:04.860,-0.125,-0.17
2021-08-01 00:54:04.864,-0.11,-0.19
2021-08-01 00:54:04.868,-0.09,-0.19
2021-08-01 00:54:04.872,-0.08,-0.2
2021-08-01 00:54:04.876,-0.09,-0.2
2021-08-01 00:54:04.880,-0.065,-0.21
2021-08-01 00:54:04.884,-0.065,-0.21
2021-08-01 00:54:04.888,-0.06,-0.21
2021-08-01 00:54:04.892,-0.07,-0.21
2021-08-01 00:54:04.896,-0.02,-0.215
2021-08-01 00:54:04.900,-0.04,-0.2
2021-08-01 00:54:04.904,-0.045,-0.2
2021-08-01 00:54:04.908,-0.06,-0.185
2021-08-01 00:54:04.912,-0.035,-0.175
2021-08-01 00:54:04.916,-0.015,-0.18
2021-08-01 00:54:04.920,-0.005,-0.165
2021-08-01 00:54:04.924,0.01,-0.15
2021-08-01 00:54:04.928,-0.01,-0.14
2021-08-01 00:54:04.932,-0.035,-0.125
2021-08-01 00:54:04.936,-0.025,-0.13
2021-08-01 00:54:04.940,0.0,-0.115
2021-08-01 00:54:04.944,0.04,-0.13
2021-08-01 00:54:04.948,0.035,-0.12
2021-08-01 00:54:04.952,0.03,-0.12
2021-08-01 00:54:04.956,0.02,-0.11
2021-08-01 00:54:04.960,0.04,-0.095
2021-08-01 00:54:04.964,0.015,-0.09
2021-08-01 00:54:04.968,0.005,-0.095
2021-08-01 00:54:04.972,-0.01,-0.075
2021-08-01 00:54:04.976,-0.02,-0.075
2021-08-01 00:54:04.980,-0.04,-0.085
2021-08-01 00:54:04.984,-0.055,-0.08
2021-08-01 00:54:04.988,-0.065,-0.08
2021-08-01 00:54:04.992,-0.045,-0.095
2021-08-01 00:54:04.996,-0.015,-0.085
2021-08-01 00:54:05.000,-0.025,-0.085
2021-08-01 00:54:05.004,-0.06,-0.1
2021-08-01 00:54:05.008,-0.07,-0.09
2021-08-01 00:54:05.012,-0.025,-0.09
2021-08-01 00:54:05.016,-0.005,-0.095
2021-08-01 00:54:05.020,0.02,-0.12
2021-08-01 00:54:05.024,0.0,-0.1
2021-08-01 00:54:05.028,0.02,-0.11
2021-08-01 00:54:05.032,0.03,-0.145
2021-08-01 00:54:05.036,0.01,-0.16
2021-08-01 00:54:05.040,-0.02,-0.195
2021-08-01 00:54:05.044,-0.065,-0.17
2021-08-01 00:54:05.048,-0.05,-0.195
2021-08-01 00:54:05.052,-0.05,-0.185
2021-08-01 00:54:05.056,-0.06,-0.2
2021-08-01 00:54:05.060,-0.055,-0.22
2021-08-01 00:54:05.064,-0.04,-0.21
2021-08-01 00:54:05.068,-0.06,-0.19
2021-08-01 00:54:05.072,-0.04,-0.195
2021-08-01 00:54:05.076,-0.04,-0.19
2021-08-01 00:54:05.080,-0.03,-0.2
2021-08-01 00:54:05.084,-0.025,-0.2
2021-08-01 00:54:05.088,-0.01,-0.195
2021-08-01 00:54:05.092,-0.03,-0.205
2021-08-01 00:54:05.096,-0.03,-0.19
2021-08-01 00:54:05.100,-0.03,-0.22
2021-08-01 00:54:05.104,-0.035,-0.205
2021-08-01 00:54:05.108,-0.02,-0.2
2021-08-01 00:54:05.112,-0.02,-0.205
2021-08-01 00:54:05.116,-0.06,-0.175
2021-08-01 00:54:05.120,-0.01,-0.16
2021-08-01 00:54:05.124,0.025,-0.14
2021-08-01 00:54:05.128,0.015,-0.15
2021-08-01 00:54:05.132,0.02,-0.155
2021-08-01 00:54:05.136,0.05,-0.15
2021-08-01 00:54:05.140,0.08,-0.11
2021-08-01 00:54:05.144,0.14,-0.11
2021-08-01 00:54:05.148,0.22,-0.105
2021-08-01 00:54:05.152,0.32,-0.13
2021-08-01 00:54:05.156,0.405,-0.125
2021-08-01 00:54:05.160,0.51,-0.17
2021-08-01 00:54:05.164,0.555,-0.21
2021-08-01 00:54:05.168,0.61,-0.2
2021-08-01 00:54:05.172,0.58,-0.205
2021-08-01 00:54:05.176,0.54,-0.23
2021-08-01 00:54:05.180,0.515,-0.29
2021-08-01 00:54:05.184,0.61,-0.41
2021-08-01 00:54:05.188,0.835,-0.58
2021-08-01 00:54:05.192,1.125,-0.805
2021-08-01 00:54:05.196,1.4,-1.07
2021-08-01 00:54:05.200,1.49,-1.21
2021-08-01 00:54:05.204,1.325,-1.105
2021-08-01 00:54:05.208,0.86,-0.785
2021-08-01 00:54:05.212,0.37,-0.41
2021-08-01 00:54:05.216,0.09,-0.195
2021-08-01 00:54:05.220,-0.04,-0.065
2021-08-01 00:54:05.224,-0.065,0.0
2021-08-01 00:54:05.228,-0.08,0.075
2021-08-01 00:54:05.232,-0.09,0.09
2021-08-01 00:54:05.236,-0.07,0.09
2021-08-01 00:54:05.240,-0.075,0.1
2021-08-01 00:54:05.244,-0.1,0.055
2021-08-01 00:54:05.248,-0.115,0.035
2021-08-01 00:54:05.252,-0.145,0.015
2021-08-01 00:54:05.256,-0.155,-0.015
2021-08-01 00:54:05.260,-0.135,-0.035
2021-08-01 00:54:05.264,-0.165,-0.05
2021-08-01 00:54:05.268,-0.225,-0.05
2021-08-01 00:54:05.272,-0.245,-0.04
2021-08-01 00:54:05.276,-0.24,-0.04
2021-08-01 00:54:05.280,-0.205,-0.07
2021-08-01 00:54:05.284,-0.18,-0.055
2021-08-01 00:54:05.288,-0.19,-0.05
2021-08-01 00:54:05.292,-0.205,-0.07
2021-08-01 00:54:05.296,-0.225,-0.085
2021-08-01 00:54:05.300,-0.21,-0.095
2021-08-01 00:54:05.304,-0.18,-0.075
2021-08-01 00:54:05.308,-0.215,-0.08
2021-08-01 00:54:05.312,-0.245,-0.095
2021-08-01 00:54:05.316,-0.235,-0.075
2021-08-01 00:54:05.320,-0.225,-0.07
2021-08-01 00:54:05.324,-0.205,-0.07
2021-08-01 00:54:05.328,-0.235,-0.085
2021-08-01 00:54:05.332,-0.23,-0.065
2021-08-01 00:54:05.336,-0.19,-0.06
2021-08-01 00:54:05.340,-0.185,-0.02
2021-08-01 00:54:05.344,-0.17,-0.06
2021-08-01 00:54:05.348,-0.155,-0.02
2021-08-01 00:54:05.352,-0.155,-0.025
2021-08-01 00:54:05.356,-0.18,-0.01
2021-08-01 00:54:05.360,-0.205,-0.015
2021-08-01 00:54:05.364,-0.205,-0.005
2021-08-01 00:54:05.368,-0.195,0.0
2021-08-01 00:54:05.372,-0.175,-0.005
2021-08-01 00:54:05.376,-0.18,0.005
2021-08-01 00:54:05.380,-0.18,0.0
2021-08-01 00:54:05.384,-0.195,0.02
2021-08-01 00:54:05.388,-0.21,0.005
2021-08-01 00:54:05.392,-0.205,0.015
2021-08-01 00:54:05.396,-0.21,0.01
2021-08-01 00:54:05.400,-0.2,0.02
2021-08-01 00:54:05.404,-0.185,0.015
2021-08-01 00:54:05.408,-0.18,-0.01
2021-08-01 00:54:05.412,-0.21,0.02
2021-08-01 00:54:05.416,-0.245,0.04
2021-08-01 00:54:05.420,-0.21,0.005
2021-08-01 00:54:05.424,-0.21,0.0
2021-08-01 00:54:05.428,-0.19,0.0
2021-08-01 00:54:05.432,-0.165,-0.025
2021-08-01 00:54:05.436,-0.145,-0.03
2021-08-01 00:54:05.440,-0.12,-0.04
2021-08-01 00:54:05.444,-0.09,-0.04
2021-08-01 00:54:05.448,-0.055,-0.05
2021-08-01 00:54:05.452,-0.05,-0.065
2021-08-01 00:54:05.456,-0.03,-0.075
2021-08-01 00:54:05.460,-0.015,-0.08
2021-08-01 00:54:05.464,-0.02,-0.09
2021-08-01 00:54:05.468,-0.005,-0.075
2021-08-01 00:54:05.472,-0.005,-0.095
2021-08-01 00:54:05.476,-0.03,-0.08
2021-08-01 00:54:05.480,-0.025,-0.08
2021-08-01 00:54:05.484,-0.03,-0.08
2021-08-01 00:54:05.488,-0.015,-0.1
2021-08-01 00:54:05.492,0.005,-0.085
2021-08-01 00:54:05.496,0.045,-0.07
2021-08-01 00:54:05.500,0.085,-0.085
2021-08-01 00:54:05.504,0.08,-0.08
2021-08-01 00:54:05.508,0.065,-0.07
2021-08-01 00:54:05.512,0.015,-0.07
2021-08-01 00:54:05.516,0.015,-0.065
2021-08-01 00:54:05.520,0.02,-0.06
2021-08-01 00:54:05.524,0.055,-0.04
2021-08-01 00:54:05.528,0.05,-0.05
2021-08-01 00:54:05.532,0.055,-0.035
2021-08-01 00:54:05.536,0.08,-0.025
2021-08-01 00:54:05.540,0.095,-0.03
2021-08-01 00:54:05.544,0.11,-0.005
2021-08-01 00:54:05.548,0.145,0.01
2021-08-01 00:54:05.552,0.13,0.025
2021-08-01 00:54:05.556,0.115,0.0
2021-08-01 00:54:05.560,0.095,0.015
2021-08-01 00:54:05.564,0.095,0.03
2021-08-01 00:54:05.568,0.105,0.03
2021-08-01 00:54:05.572,0.09,0.035
2021-08-01 00:54:05.576,0.06,0.035
2021-08-01 00:54:05.580,0.03,0.05
2021-08-01 00:54:05.584,0.035,0.035
2021-08-01 00:54:05.588,0.04,0.055
2021-08-01 00:54:05.592,0.04,0.05
2021-08-01 00:54:05.596,0.005,0.045
2021-08-01 00:54:05.600,0.02,0.03
2021-08-01 00:54:05.604,0.015,0.035
2021-08-01 00:54:05.608,0.02,0.025
2021-08-01 00:54:05.612,0.015,0.04
2021-08-01 00:54:05.616,0.0,0.04
2021-08-01 00:54:05.620,0.015,0.045
2021-08-01 00:54:05.624,0.04,0.02
2021-08-01 00:54:05.628,0.11,0.035
2021-08-01 00:54:05.632,0.195,0.035
2021-08-01 00:54:05.636,0.29,0.0
2021-08-01 00:54:05.640,0.37,-0.015
2021-08-01 00:54:05.644,0.42,-0.03
2021-08-01 00:54:05.648,0.41,-0.07
2021-08-01 00:54:05.652,0.415,-0.065
2021-08-01 00:54:05.656,0.38,-0.02
2021-08-01 00:54:05.660,0.345,-0.07
2021-08-01 00:54:05.664,0.39,-0.125
2021-08-01 00:54:05.668,0.54,-0.235
2021-08-01 00:54:05.672,0.83,-0.425
2021-08-01 00:54:05.676,1.155,-0.735
2021-08-01 00:54:05.680,1.4,-1.03
2021-08-01 00:54:05.684,1.48,-1.175
2021-08-01 00:54:05.688,1.345,-1.08
2021-08-01 00:54:05.692,0.9,-0.785
2021-08-01 00:54:05.696,0.435,-0.39
2021-08-01 00:54:05.700,0.155,-0.1
2021-08-01 00:54:05.704,0.015,0.02
2021-08-01 00:54:05.708,-0.04,0.075
2021-08-01 00:54:05.712,-0.07,0.095
2021-08-01 00:54:05.716,-0.08,0.055
2021-08-01 00:54:05.720,-0.095,0.055
2021-08-01 00:54:05.724,-0.1,0.055
2021-08-01 00:54:05.728,-0.125,0.02
2021-08-01 00:54:05.732,-0.15,0.02
2021-08-01 00:54:05.736,-0.155,0.01
2021-08-01 00:54:05.740,-0.14,0.0
2021-08-01 00:54:05.744,-0.08,-0.015
2021-08-01 00:54:05.748,-0.09,-0.005
2021-08-01 00:54:05.752,-0.105,-0.015
2021-08-01 00:54:05.756,-0.13,-0.015
2021-08-01 00:54:05.760,-0.115,-0.005
2021-08-01 00:54:05.764,-0.095,0.005
2021-08-01 00:54:05.768,-0.08,0.03
2021-08-01 00:54:05.772,-0.08,0.04
2021-08-01 00:54:05.776,-0.065,0.07
2021-08-01 00:54:05.780,-0.07,0.08
2021-08-01 00:54:05.784,-0.08,0.08
2021-08-01 00:54:05.788,-0.09,0.065
2021-08-01 00:54:05.792,-0.07,0.09
2021-08-01 00:54:05.796,-0.07,0.08
2021-08-01 00:54:05.800,-0.09,0.075
2021-08-01 00:54:05.804,-0.1,0.065
2021-08-01 00:54:05.808,-0.13,0.075
2021-08-01 00:54:05.812,-0.155,0.075
2021-08-01 00:54:05.816,-0.17,0.08
2021-08-01 00:54:05.820,-0.16,0.05
2021-08-01 00:54:05.824,-0.185,0.06
2021-08-01 00:54:05.828,-0.22,0.045
2021-08-01 00:54:05.832,-0.245,0.075
2021-08-01 00:54:05.836,-0.285,0.075
2021-08-01 00:54:05.840,-0.25,0.08
2021-08-01 00:54:05.844,-0.21,0.08
2021-08-01 00:54:05.848,-0.22,0.08
2021-08-01 00:54:05.852,-0.23,0.08
2021-08-01 00:54:05.856,-0.19,0.065
2021-08-01 00:54:05.860,-0.17,0.07
2021-08-01 00:54:05.864,-0.145,0.07
2021-08-01 00:54:05.868,-0.125,0.045
2021-08-01 00:54:05.872,-0.115,0.06
2021-08-01 00:54:05.876,-0.115,0.035
2021-08-01 00:54:05.880,-0.13,0.04
2021-08-01 00:54:05.884,-0.11,0.025
2021-08-01 00:54:05.888,-0.095,0.03
2021-08-01 00:54:05.892,-0.055,0.0
2021-08-01 00:54:05.896,-0.02,-0.01
2021-08-01 00:54:05.900,0.02,-0.015
2021-08-01 00:54:05.904,-0.01,-0.025
2021-08-01 00:54:05.908,-0.025,-0.03
2021-08-01 00:54:05.912,-0.06,-0.04
2021-08-01 00:54:05.916,-0.055,-0.09
2021-08-01 00:54:05.920,-0.045,-0.115
2021-08-01 00:54:05.924,-0.03,-0.115
2021-08-01 00:54:05.928,0.0,-0.085
2021-08-01 00:54:05.932,0.0,-0.095
2021-08-01 00:54:05.936,-0.005,-0.1
2021-08-01 00:54:05.940,0.0,-0.11
2021-08-01 00:54:05.944,0.005,-0.11
2021-08-01 00:54:05.948,0.01,-0.11
2021-08-01 00:54:05.952,0.01,-0.12
2021-08-01 00:54:05.956,0.025,-0.125
2021-08-01 00:54:05.960,0.055,-0.12
2021-08-01 00:54:05.964,0.07,-0.13
2021-08-01 00:54:05.968,0.105,-0.11
2021-08-01 00:54:05.972,0.065,-0.08
2021-08-01 00:54:05.976,0.06,-0.08
2021-08-01 00:54:05.980,0.03,-0.08
2021-08-01 00:54:05.984,0.0,-0.065
2021-08-01 00:54:05.988,0.03,-0.04
2021-08-01 00:54:05.992,0.05,-0.03
2021-08-01 00:54:05.996,0.08,-0.03
2021-08-01 00:54:06.000,0.055,-0.01
2021-08-01 00:54:06.004,0.07,0.01
2021-08-01 00:54:06.008,0.08,0.0
2021-08-01 00:54:06.012,0.07,0.02
2021-08-01 00:54:06.016,0.03,0.015
2021-08-01 00:54:06.020,0.02,0.02
2021-08-01 00:54:06.024,-0.01,0.01
2021-08-01 00:54:06.028,-0.035,0.03
2021-08-01 00:54:06.032,-0.05,0.035
2021-08-01 00:54:06.036,-0.065,0.035
2021-08-01 00:54:06.040,-0.045,0.01
2021-08-01 00:54:06.044,-0.01,0.04
2021-08-01 00:54:06.048,0.04,0.05
2021-08-01 00:54:06.052,0.085,0.055
2021-08-01 00:54:06.056,0.15,0.04
2021-08-01 00:54:06.060,0.2,0.02
2021-08-01 00:54:06.064,0.25,-0.01
2021-08-01 00:54:06.068,0.285,-0.03
2021-08-01 00:54:06.072,0.325,-0.075
2021-08-01 00:54:06.076,0.315,-0.045
2021-08-01 00:54:06.080,0.295,-0.035
2021-08-01 00:54:06.084,0.285,-0.075
2021-08-01 00:54:06.088,0.33,-0.15
2021-08-01 00:54:06.092,0.56,-0.275
2021-08-01 00:54:06.096,0.905,-0.49
2021-08-01 00:54:06.100,1.205,-0.79
2021-08-01 00:54:06.104,1.42,-1.015
2021-08-01 00:54:06.108,1.37,-1.07
2021-08-01 00:54:06.112,1.015,-0.845
2021-08-01 00:54:06.116,0.52,-0.47
2021-08-01 00:54:06.120,0.195,-0.185
2021-08-01 00:54:06.124,0.02,0.0
2021-08-01 00:54:06.128,-0.07,0.075
2021-08-01 00:54:06.132,-0.16,0.115
2021-08-01 00:54:06.136,-0.18,0.095
2021-08-01 00:54:06.140,-0.165,0.085
2021-08-01 00:54:06.144,-0.18,0.065
2021-08-01 00:54:06.148,-0.185,0.05
2021-08-01 00:54:06.152,-0.195,0.045
2021-08-01 00:54:06.156,-0.2,0.015
2021-08-01 00:54:06.160,-0.155,0.015
2021-08-01 00:54:06.164,-0.125,0.01
2021-08-01 00:54:06.168,-0.14,0.0
2021-08-01 00:54:06.172,-0.185,-0.015
2021-08-01 00:54:06.176,-0.17,-0.01
2021-08-01 00:54:06.180,-0.14,0.0
2021-08-01 00:54:06.184,-0.145,-0.005
2021-08-01 00:54:06.188,-0.16,0.0
2021-08-01 00:54:06.192,-0.15,0.01
2021-08-01 00:54:06.196,-0.135,0.015
2021-08-01 00:54:06.200,-0.125,0.035
2021-08-01 00:54:06.204,-0.14,0.055
2021-08-01 00:54:06.208,-0.12,0.05
2021-08-01 00:54:06.212,-0.135,0.06
2021-08-01 00:54:06.216,-0.19,0.055
2021-08-01 00:54:06.220,-0.245,0.02
2021-08-01 00:54:06.224,-0.225,0.025
2021-08-01 00:54:06.228,-0.195,0.04
2021-08-01 00:54:06.232,-0.18,0.03
2021-08-01 00:54:06.236,-0.185,0.035
2021-08-01 00:54:06.240,-0.225,0.04
2021-08-01 00:54:06.244,-0.315,0.045
2021-08-01 00:54:06.248,-0.34,0.025
2021-08-01 00:54:06.252,-0.35,0.025
2021-08-01 00:54:06.256,-0.34,0.03
2021-08-01 00:54:06.260,-0.33,0.02
2021-08-01 00:54:06.264,-0.365,0.03
2021-08-01 00:54:06.268,-0.365,0.035
2021-08-01 00:54:06.272,-0.345,0.03
2021-08-01 00:54:06.276,-0.335,0.035
2021-08-01 00:54:06.280,-0.31,0.05
2021-08-01 00:54:06.284,-0.31,0.01
2021-08-01 00:54:06.288,-0.315,0.01
2021-08-01 00:54:06.292,-0.32,0.025
2021-08-01 00:54:06.296,-0.34,0.01
2021-08-01 00:54:06.300,-0.31,-0.01
2021-08-01 00:54:06.304,-0.295,0.0
2021-08-01 00:54:06.308,-0.25,0.015
2021-08-01 00:54:06.312,-0.23,-0.015
2021-08-01 00:54:06.316,-0.25,-0.02
2021-08-01 00:54:06.320,-0.255,-0.045
2021-08-01 00:54:06.324,-0.24,-0.045
2021-08-01 00:54:06.328,-0.205,-0.06
2021-08-01 00:54:06.332,-0.195,-0.065
2021-08-01 00:54:06.336,-0.215,-0.05
2021-08-01 00:54:06.340,-0.2,-0.04
2021-08-01 00:54:06.344,-0.19,-0.065
2021-08-01 00:54:06.348,-0.175,-0.075
2021-08-01 00:54:06.352,-0.175,-0.045
2021-08-01 00:54:06.356,-0.16,-0.08
2021-08-01 00:54:06.360,-0.14,-0.075
2021-08-01 00:54:06.364,-0.12,-0.065
2021-08-01 00:54:06.368,-0.095,-0.065
2021-08-01 00:54:06.372,-0.105,-0.06
2021-08-01 00:54:06.376,-0.06,-0.07
2021-08-01 00:54:06.380,-0.06,-0.06
2021-08-01 00:54:06.384,-0.04,-0.065
2021-08-01 00:54:06.388,-0.02,-0.04
2021-08-01 00:54:06.392,-0.015,-0.05
2021-08-01 00:54:06.396,0.01,-0.045
2021-08-01 00:54:06.400,0.03,-0.045
2021-08-01 00:54:06.404,0.035,0.005
2021-08-01 00:54:06.408,0.06,-0.005
2021-08-01 00:54:06.412,0.06,0.02
2021-08-01 00:54:06.416,0.05,0.02
2021-08-01 00:54:06.420,0.03,0.025
2021-08-01 00:54:06.424,0.045,0.025
2021-08-01 00:54:06.428,0.045,0.03
2021-08-01 00:54:06.432,0.04,0.04
2021-08-01 00:54:06.436,0.08,0.035
2021-08-01 00:54:06.440,0.08,0.045
2021-08-01 00:54:06.444,0.055,0.03
2021-08-01 00:54:06.448,0.03,0.065
2021-08-01 00:54:06.452,0.025,0.07
2021-08-01 00:54:06.456,0.085,0.075
2021-08-01 00:54:06.460,0.085,0.045
2021-08-01 00:54:06.464,0.16,0.025
2021-08-01 00:54:06.468,0.22,0.005
2021-08-01 00:54:06.472,0.285,-0.02
2021-08-01 00:54:06.476,0.315,-0.035
2021-08-01 00:54:06.480,0.335,-0.07
2021-08-01 00:54:06.484,0.345,-0.07
2021-08-01 00:54:06.488,0.35,-0.04
2021-08-01 00:54:06.492,0.34,-0.005
2021-08-01 00:54:06.496,0.32,-0.04
2021-08-01 00:54:06.500,0.405,-0.095
2021-08-01 00:54:06.504,0.635,-0.24
2021-08-01 00:54:06.508,0.94,-0.505
2021-08-01 00:54:06.512,1.165,-0.8
2021-08-01 00:54:06.516,1.3,-1.015
2021-08-01 00:54:06.520,1.22,-1.025
2021-08-01 00:54:06.524,0.83,-0.8
2021-08-01 00:54:06.528,0.39,-0.43
2021-08-01 00:54:06.532,0.12,-0.14
2021-08-01 00:54:06.536,0.0,0.025
2021-08-01 00:54:06.540,-0.05,0.075
2021-08-01 00:54:06.544,-0.15,0.115
2021-08-01 00:54:06.548,-0.22,0.095
2021-08-01 00:54:06.552,-0.225,0.065
2021-08-01 00:54:06.556,-0.225,0.05
2021-08-01 00:54:06.560,-0.235,0.03
2021-08-01 00:54:06.564,-0.27,0.0
2021-08-01 00:54:06.568,-0.3,-0.005
2021-08-01 00:54:06.572,-0.295,-0.03
2021-08-01 00:54:06.576,-0.28,-0.035
2021-08-01 00:54:06.580,-0.27,-0.07
2021-08-01 00:54:06.584,-0.285,-0.055
2021-08-01 00:54:06.588,-0.245,-0.055
2021-08-01 00:54:06.592,-0.22,-0.06
2021-08-01 00:54:06.596,-0.225,-0.07
2021-08-01 00:54:06.600,-0.175,-0.09
2021-08-01 00:54:06.604,-0.18,-0.08
2021-08-01 00:54:06.608,-0.21,-0.085
2021-08-01 00:54:06.612,-0.27,-0.09
2021-08-01 00:54:06.616,-0.275,-0.105
2021-08-01 00:54:06.620,-0.28,-0.08
2021-08-01 00:54:06.624,-0.25,-0.045
2021-08-01 00:54:06.628,-0.26,-0.075
2021-08-01 00:54:06.632,-0.24,-0.045
2021-08-01 00:54:06.636,-0.215,-0.045
2021-08-01 00:54:06.640,-0.21,-0.03
2021-08-01 00:54:06.644,-0.21,-0.03
2021-08-01 00:54:06.648,-0.25,-0.01
2021-08-01 00:54:06.652,-0.255,-0.03
2021-08-01 00:54:06.656,-0.225,-0.035
2021-08-01 00:54:06.660,-0.205,-0.035
2021-08-01 00:54:06.664,-0.19,-0.025
2021-08-01 00:54:06.668,-0.215,-0.02
2021-08-01 00:54:06.672,-0.24,-0.02
2021-08-01 00:54:06.676,-0.29,-0.03
2021-08-01 00:54:06.680,-0.28,-0.04
2021-08-01 00:54:06.684,-0.28,-0.05
2021-08-01 00:54:06.688,-0.285,-0.04
2021-08-01 00:54:06.692,-0.29,-0.03
2021-08-01 00:54:06.696,-0.275,-0.03
2021-08-01 00:54:06.700,-0.26,-0.02
2021-08-01 00:54:06.704,-0.255,-0.02
2021-08-01 00:54:06.708,-0.205,-0.02
2021-08-01 00:54:06.712,-0.195,-0.02
2021-08-01 00:54:06.716,-0.235,-0.05
2021-08-01 00:54:06.720,-0.235,-0.055
2021-08-01 00:54:06.724,-0.215,-0.06
2021-08-01 00:54:06.728,-0.18,-0.085
2021-08-01 00:54:06.732,-0.16,-0.08
2021-08-01 00:54:06.736,-0.18,-0.09
2021-08-01 00:54:06.740,-0.19,-0.12
2021-08-01 00:54:06.744,-0.165,-0.105
2021-08-01 00:54:06.748,-0.165,-0.13
2021-08-01 00:54:06.752,-0.105,-0.135
2021-08-01 00:54:06.756,-0.11,-0.145
2021-08-01 00:54:06.760,-0.155,-0.145
2021-08-01 00:54:06.764,-0.2,-0.145
2021-08-01 00:54:06.768,-0.16,-0.155
2021-08-01 00:54:06.772,-0.15,-0.155
2021-08-01 00:54:06.776,-0.135,-0.155
2021-08-01 00:54:06.780,-0.11,-0.175
2021-08-01 00:54:06.784,-0.09,-0.185
2021-08-01 00:54:06.788,-0.07,-0.165
2021-08-01 00:54:06.792,-0.06,-0.19
2021-08-01 00:54:06.796,-0.065,-0.16
2021-08-01 00:54:06.800,-0.105,-0.175
2021-08-01 00:54:06.804,-0.12,-0.16
2021-08-01 00:54:06.808,-0.09,-0.155
2021-08-01 00:54:06.812,-0.065,-0.13
2021-08-01 00:54:06.816,-0.03,-0.16
2021-08-01 00:54:06.820,-0.065,-0.155
2021-08-01 00:54:06.824,-0.045,-0.155
2021-08-01 00:54:06.828,-0.045,-0.145
2021-08-01 00:54:06.832,-0.025,-0.13
2021-08-01 00:54:06.836,-0.04,-0.135
2021-08-01 00:54:06.840,-0.025,-0.13
2021-08-01 00:54:06.844,-0.06,-0.125
2021-08-01 00:54:06.848,-0.06,-0.11
2021-08-01 00:54:06.852,-0.04,-0.105
2021-08-01 00:54:06.856,-0.02,-0.115
2021-08-01 00:54:06.860,-0.035,-0.105
2021-08-01 00:54:06.864,-0.06,-0.105
2021-08-01 00:54:06.868,-0.07,-0.085
2021-08-01 00:54:06.872,-0.09,-0.09
2021-08-01 00:54:06.876,-0.095,-0.1
2021-08-01 00:54:06.880,-0.095,-0.08
2021-08-01 00:54:06.884,-0.095,-0.1
2021-08-01 00:54:06.888,-0.065,-0.085
2021-08-01 00:54:06.892,-0.095,-0.08
2021-08-01 00:54:06.896,-0.125,-0.06
2021-08-01 00:54:06.900,-0.145,-0.085
2021-08-01 00:54:06.904,-0.19,-0.105
2021-08-01 00:54:06.908,-0.22,-0.09
2021-08-01 00:54:06.912,-0.25,-0.09
2021-08-01 00:54:06.916,-0.215,-0.075
2021-08-01 00:54:06.920,-0.215,-0.07
2021-08-01 00:54:06.924,-0.175,-0.04
2021-08-01 00:54:06.928,-0.15,-0.045
2021-08-01 00:54:06.932,-0.145,-0.04
2021-08-01 00:54:06.936,-0.155,-0.045
2021-08-01 00:54:06.940,-0.12,-0.035
2021-08-01 00:54:06.944,-0.08,-0.04
2021-08-01 00:54:06.948,-0.07,-0.05
2021-08-01 00:54:06.952,-0.1,-0.06
2021-08-01 00:54:06.956,-0.105,-0.07
2021-08-01 00:54:06.960,-0.16,-0.1
2021-08-01 00:54:06.964,-0.16,-0.11
2021-08-01 00:54:06.968,-0.145,-0.11
2021-08-01 00:54:06.972,-0.11,-0.12
2021-08-01 00:54:06.976,-0.11,-0.14
2021-08-01 00:54:06.980,-0.075,-0.13
2021-08-01 00:54:06.984,0.005,-0.165
2021-08-01 00:54:06.988,0.115,-0.185
2021-08-01 00:54:06.992,0.215,-0.21
2021-08-01 00:54:06.996,0.275,-0.25
2021-08-01 00:54:07.000,0.3,-0.3
2021-08-01 00:54:07.004,0.33,-0.29
2021-08-01 00:54:07.008,0.38,-0.275
2021-08-01 00:54:07.012,0.365,-0.29
2021-08-01 00:54:07.016,0.39,-0.33
2021-08-01 00:54:07.020,0.475,-0.405
2021-08-01 00:54:07.024,0.73,-0.545
2021-08-01 00:54:07.028,1.03,-0.815
2021-08-01 00:54:07.032,1.315,-1.045
2021-08-01 00:54:07.036,1.415,-1.185
2021-08-01 00:54:07.040,1.165,-1.14
2021-08-01 00:54:07.044,0.7,-0.85
2021-08-01 00:54:07.048,0.265,-0.5
2021-08-01 00:54:07.052,0.03,-0.275
2021-08-01 00:54:07.056,-0.065,-0.16
2021-08-01 00:54:07.060,-0.13,-0.095
2021-08-01 00:54:07.064,-0.14,-0.015
2021-08-01 00:54:07.068,-0.145,0.005
2021-08-01 00:54:07.072,-0.205,0.0
2021-08-01 00:54:07.076,-0.24,0.0
2021-08-01 00:54:07.080,-0.28,-0.015
2021-08-01 00:54:07.084,-0.3,-0.01
2021-08-01 00:54:07.088,-0.285,-0.04
2021-08-01 00:54:07.092,-0.255,-0.07
2021-08-01 00:54:07.096,-0.265,-0.07
2021-08-01 00:54:07.100,-0.285,-0.065
2021-08-01 00:54:07.104,-0.3,-0.045
2021-08-01 00:54:07.108,-0.27,-0.035
2021-08-01 00:54:07.112,-0.28,-0.03
2021-08-01 00:54:07.116,-0.33,-0.045
2021-08-01 00:54:07.120,-0.38,-0.055
2021-08-01 00:54:07.124,-0.42,-0.025
2021-08-01 00:54:07.128,-0.405,-0.015
2021-08-01 00:54:07.132,-0.41,-0.01
2021-08-01 00:54:07.136,-0.46,-0.005
2021-08-01 00:54:07.140,-0.47,-0.015
2021-08-01 00:54:07.144,-0.47,0.0
2021-08-01 00:54:07.148,-0.44,0.015
2021-08-01 00:54:07.152,-0.445,0.02
2021-08-01 00:54:07.156,-0.44,0.0
2021-08-01 00:54:07.160,-0.42,0.0
2021-08-01 00:54:07.164,-0.395,-0.005
2021-08-01 00:54:07.168,-0.43,0.0
2021-08-01 00:54:07.172,-0.455,-0.025
2021-08-01 00:54:07.176,-0.44,-0.025
2021-08-01 00:54:07.180,-0.43,-0.035
2021-08-01 00:54:07.184,-0.39,-0.055
2021-08-01 00:54:07.188,-0.385,-0.06
2021-08-01 00:54:07.192,-0.38,-0.07
2021-08-01 00:54:07.196,-0.375,-0.08
2021-08-01 00:54:07.200,-0.395,-0.09
2021-08-01 00:54:07.204,-0.425,-0.11
2021-08-01 00:54:07.208,-0.43,-0.115
2021-08-01 00:54:07.212,-0.425,-0.1
2021-08-01 00:54:07.216,-0.395,-0.11
2021-08-01 00:54:07.220,-0.38,-0.12
2021-08-01 00:54:07.224,-0.365,-0.115
2021-08-01 00:54:07.228,-0.315,-0.125
2021-08-01 00:54:07.232,-0.34,-0.14
2021-08-01 00:54:07.236,-0.38,-0.175
2021-08-01 00:54:07.240,-0.39,-0.16
2021-08-01 00:54:07.244,-0.365,-0.15
2021-08-01 00:54:07.248,-0.32,-0.16
2021-08-01 00:54:07.252,-0.305,-0.17
2021-08-01 00:54:07.256,-0.3,-0.175
2021-08-01 00:54:07.260,-0.26,-0.17
2021-08-01 00:54:07.264,-0.255,-0.16
2021-08-01 00:54:07.268,-0.225,-0.18
2021-08-01 00:54:07.272,-0.215,-0.175
2021-08-01 00:54:07.276,-0.23,-0.15
2021-08-01 00:54:07.280,-0.23,-0.145
2021-08-01 00:54:07.284,-0.195,-0.145
2021-08-01 00:54:07.288,-0.16,-0.13
2021-08-01 00:54:07.292,-0.14,-0.14
2021-08-01 00:54:07.296,-0.115,-0.115
2021-08-01 00:54:07.300,-0.16,-0.14
2021-08-01 00:54:07.304,-0.175,-0.13
2021-08-01 00:54:07.308,-0.17,-0.11
2021-08-01 00:54:07.312,-0.13,-0.115
2021-08-01 00:54:07.316,-0.115,-0.095
2021-08-01 00:54:07.320,-0.095,-0.07
2021-08-01 00:54:07.324,-0.08,-0.06
2021-08-01 00:54:07.328,-0.125,-0.065
2021-08-01 00:54:07.332,-0.175,-0.065
2021-08-01 00:54:07.336,-0.18,-0.05
2021-08-01 00:54:07.340,-0.185,-0.04
2021-08-01 00:54:07.344,-0.205,-0.03
2021-08-01 00:54:07.348,-0.215,-0.05
2021-08-01 00:54:07.352,-0.215,-0.03
2021-08-01 00:54:07.356,-0.21,-0.01
2021-08-01 00:54:07.360,-0.2,-0.01
2021-08-01 00:54:07.364,-0.185,0.0
2021-08-01 00:54:07.368,-0.175,-0.005
2021-08-01 00:54:07.372,-0.19,-0.005
2021-08-01 00:54:07.376,-0.21,0.01
2021-08-01 00:54:07.380,-0.215,0.005
2021-08-01 00:54:07.384,-0.23,0.0
2021-08-01 00:54:07.388,-0.23,-0.01
2021-08-01 00:54:07.392,-0.235,-0.01
2021-08-01 00:54:07.396,-0.21,-0.04
2021-08-01 00:54:07.400,-0.18,-0.005
2021-08-01 00:54:07.404,-0.155,-0.005
2021-08-01 00:54:07.408,-0.16,-0.015
2021-08-01 00:54:07.412,-0.155,0.0
2021-08-01 00:54:07.416,-0.16,-0.03
2021-08-01 00:54:07.420,-0.175,-0.045
2021-08-01 00:54:07.424,-0.185,-0.05
2021-08-01 00:54:07.428,-0.185,-0.06
2021-08-01 00:54:07.432,-0.135,-0.06
2021-08-01 00:54:07.436,-0.16,-0.06
2021-08-01 00:54:07.440,-0.175,-0.075
2021-08-01 00:54:07.444,-0.16,-0.07
2021-08-01 00:54:07.448,-0.16,-0.055
2021-08-01 00:54:07.452,-0.14,-0.065
2021-08-01 00:54:07.456,-0.17,-0.055
2021-08-01 00:54:07.460,-0.13,-0.04
2021-08-01 00:54:07.464,-0.145,-0.04
2021-08-01 00:54:07.468,-0.165,-0.055
2021-08-01 00:54:07.472,-0.145,-0.07
2021-08-01 00:54:07.476,-0.12,-0.085
2021-08-01 00:54:07.480,-0.085,-0.06
2021-08-01 00:54:07.484,-0.05,-0.055
2021-08-01 00:54:07.488,-0.09,-0.065
2021-08-01 00:54:07.492,-0.12,-0.06
2021-08-01 00:54:07.496,-0.13,-0.08
2021-08-01 00:54:07.500,-0.155,-0.07
2021-08-01 00:54:07.504,-0.115,-0.075
2021-08-01 00:54:07.508,-0.14,-0.055
2021-08-01 00:54:07.512,-0.11,-0.05
2021-08-01 00:54:07.516,-0.095,-0.055
2021-08-01 00:54:07.520,-0.06,-0.035
2021-08-01 00:54:07.524,0.035,-0.02
2021-08-01 00:54:07.528,0.15,-0.035
2021-08-01 00:54:07.532,0.255,-0.065
2021-08-01 00:54:07.536,0.295,-0.075
2021-08-01 00:54:07.540,0.315,-0.13
2021-08-01 00:54:07.544,0.37,-0.11
2021-08-01 00:54:07.548,0.365,-0.095
2021-08-01 00:54:07.552,0.335,-0.125
2021-08-01 00:54:07.556,0.315,-0.21
2021-08-01 00:54:07.560,0.405,-0.3
2021-08-01 00:54:07.564,0.58,-0.44
2021-08-01 00:54:07.568,0.85,-0.71
2021-08-01 00:54:07.572,1.145,-0.96
2021-08-01 00:54:07.576,1.29,-1.12
2021-08-01 00:54:07.580,1.195,-1.125
2021-08-01 00:54:07.584,0.835,-0.865
2021-08-01 00:54:07.588,0.35,-0.45
2021-08-01 00:54:07.592,0.015,-0.16
2021-08-01 00:54:07.596,-0.165,-0.01
2021-08-01 00:54:07.600,-0.27,0.065
2021-08-01 00:54:07.604,-0.31,0.105
2021-08-01 00:54:07.608,-0.36,0.125
2021-08-01 00:54:07.612,-0.385,0.11
2021-08-01 00:54:07.616,-0.4,0.13
2021-08-01 00:54:07.620,-0.37,0.105
2021-08-01 00:54:07.624,-0.365,0.07
2021-08-01 00:54:07.628,-0.38,0.065
2021-08-01 00:54:07.632,-0.365,0.085
2021-08-01 00:54:07.636,-0.385,0.04
2021-08-01 00:54:07.640,-0.385,0.04
2021-08-01 00:54:07.644,-0.385,0.05
2021-08-01 00:54:07.648,-0.385,0.01
2021-08-01 00:54:07.652,-0.38,0.005
2021-08-01 00:54:07.656,-0.385,0.0
2021-08-01 00:54:07.660,-0.37,0.0
2021-08-01 00:54:07.664,-0.35,0.0
2021-08-01 00:54:07.668,-0.355,-0.005
2021-08-01 00:54:07.672,-0.345,-0.025
2021-08-01 00:54:07.676,-0.355,-0.005
2021-08-01 00:54:07.680,-0.345,-0.02
2021-08-01 00:54:07.684,-0.34,-0.025
2021-08-01 00:54:07.688,-0.36,-0.02
2021-08-01 00:54:07.692,-0.345,0.0
2021-08-01 00:54:07.696,-0.35,-0.005
2021-08-01 00:54:07.700,-0.32,-0.015
2021-08-01 00:54:07.704,-0.33,-0.02
2021-08-01 00:54:07.708,-0.33,-0.04
2021-08-01 00:54:07.712,-0.37,-0.02
2021-08-01 00:54:07.716,-0.385,-0.03
2021-08-01 00:54:07.720,-0.385,-0.055
2021-08-01 00:54:07.724,-0.37,-0.05
2021-08-01 00:54:07.728,-0.335,-0.01
2021-08-01 00:54:07.732,-0.315,-0.02
2021-08-01 00:54:07.736,-0.265,-0.02
2021-08-01 00:54:07.740,-0.25,-0.03
2021-08-01 00:54:07.744,-0.26,-0.025
2021-08-01 00:54:07.748,-0.27,-0.01
2021-08-01 00:54:07.752,-0.25,0.01
2021-08-01 00:54:07.756,-0.26,0.0
2021-08-01 00:54:07.760,-0.24,-0.015
2021-08-01 00:54:07.764,-0.25,-0.025
2021-08-01 00:54:07.768,-0.275,0.005
2021-08-01 00:54:07.772,-0.265,0.005
2021-08-01 00:54:07.776,-0.25,-0.025
2021-08-01 00:54:07.780,-0.25,-0.01
2021-08-01 00:54:07.784,-0.27,-0.015
2021-08-01 00:54:07.788,-0.32,-0.02
2021-08-01 00:54:07.792,-0.355,-0.035
2021-08-01 00:54:07.796,-0.34,-0.02
2021-08-01 00:54:07.800,-0.34,-0.015
2021-08-01 00:54:07.804,-0.33,-0.025
2021-08-01 00:54:07.808,-0.345,-0.01
2021-08-01 00:54:07.812,-0.35,-0.03
2021-08-01 00:54:07.816,-0.295,-0.04
2021-08-01 00:54:07.820,-0.285,-0.04
2021-08-01 00:54:07.824,-0.255,-0.025
2021-08-01 00:54:07.828,-0.275,-0.065
2021-08-01 00:54:07.832,-0.275,-0.06
2021-08-01 00:54:07.836,-0.26,-0.055
2021-08-01 00:54:07.840,-0.265,-0.04
2021-08-01 00:54:07.844,-0.235,-0.04
2021-08-01 00:54:07.848,-0.21,-0.035
2021-08-01 00:54:07.852,-0.19,-0.035
2021-08-01 00:54:07.856,-0.205,-0.02
2021-08-01 00:54:07.860,-0.19,-0.03
2021-08-01 00:54:07.864,-0.165,-0.015
2021-08-01 00:54:07.868,-0.135,-0.01
2021-08-01 00:54:07.872,-0.13,-0.03
2021-08-01 00:54:07.876,-0.135,-0.045
2021-08-01 00:54:07.880,-0.12,-0.045
2021-08-01 00:54:07.884,-0.125,-0.025
2021-08-01 00:54:07.888,-0.145,-0.02
2021-08-01 00:54:07.892,-0.16,-0.04
2021-08-01 00:54:07.896,-0.18,-0.04
2021-08-01 00:54:07.900,-0.17,-0.06
2021-08-01 00:54:07.904,-0.18,-0.06
2021-08-01 00:54:07.908,-0.175,-0.06
2021-08-01 00:54:07.912,-0.16,-0.04
2021-08-01 00:54:07.916,-0.185,-0.035
2021-08-01 00:54:07.920,-0.18,-0.045
2021-08-01 00:54:07.924,-0.205,-0.06
2021-08-01 00:54:07.928,-0.225,-0.06
2021-08-01 00:54:07.932,-0.245,-0.065
2021-08-01 00:54:07.936,-0.23,-0.065
2021-08-01 00:54:07.940,-0.195,-0.085
2021-08-01 00:54:07.944,-0.16,-0.085
2021-08-01 00:54:07.948,-0.18,-0.06
2021-08-01 00:54:07.952,-0.175,-0.05
2021-08-01 00:54:07.956,-0.165,-0.03
2021-08-01 00:54:07.960,-0.145,-0.04
2021-08-01 00:54:07.964,-0.16,0.0
2021-08-01 00:54:07.968,-0.105,-0.01
2021-08-01 00:54:07.972,-0.045,0.005
2021-08-01 00:54:07.976,-0.045,0.01
2021-08-01 00:54:07.980,-0.045,0.01
2021-08-01 00:54:07.984,-0.055,-0.015
2021-08-01 00:54:07.988,-0.06,0.0
2021-08-01 00:54:07.992,-0.06,0.015
2021-08-01 00:54:07.996,-0.075,0.015
2021-08-01 00:54:08.000,-0.075,0.025
2021-08-01 00:54:08.004,-0.07,0.035
2021-08-01 00:54:08.008,-0.03,0.03
2021-08-01 00:54:08.012,0.025,0.015
2021-08-01 00:54:08.016,0.095,-0.005
2021-08-01 00:54:08.020,0.125,-0.03
2021-08-01 00:54:08.024,0.16,-0.04
2021-08-01 00:54:08.028,0.19,-0.055
2021-08-01 00:54:08.032,0.17,-0.035
2021-08-01 00:54:08.036,0.13,-0.065
2021-08-01 00:54:08.040,0.12,-0.13
2021-08-01 00:54:08.044,0.25,-0.255
2021-08-01 00:54:08.048,0.46,-0.415
2021-08-01 00:54:08.052,0.74,-0.695
2021-08-01 00:54:08.056,1.035,-0.98
2021-08-01 00:54:08.060,1.185,-1.16
2021-08-01 00:54:08.064,1.105,-1.12
2021-08-01 00:54:08.068,0.735,-0.81
2021-08-01 00:54:08.072,0.275,-0.415
2021-08-01 00:54:08.076,-0.045,-0.1
2021-08-01 00:54:08.080,-0.19,0.04
2021-08-01 00:54:08.084,-0.23,0.105
2021-08-01 00:54:08.088,-0.275,0.14
2021-08-01 00:54:08.092,-0.305,0.135
2021-08-01 00:54:08.096,-0.32,0.12
2021-08-01 00:54:08.100,-0.305,0.13
2021-08-01 00:54:08.104,-0.335,0.115
2021-08-01 00:54:08.108,-0.375,0.055
2021-08-01 00:54:08.112,-0.43,0.025
2021-08-01 00:54:08.116,-0.41,0.005
2021-08-01 00:54:08.120,-0.405,0.0
2021-08-01 00:54:08.124,-0.405,-0.005
2021-08-01 00:54:08.128,-0.41,-0.03
2021-08-01 00:54:08.132,-0.43,-0.02
2021-08-01 00:54:08.136,-0.44,0.0
2021-08-01 00:54:08.140,-0.425,-0.015
2021-08-01 00:54:08.144,-0.42,-0.035
2021-08-01 00:54:08.148,-0.415,-0.04
2021-08-01 00:54:08.152,-0.44,-0.045
2021-08-01 00:54:08.156,-0.445,-0.03
2021-08-01 00:54:08.160,-0.41,-0.045
2021-08-01 00:54:08.164,-0.385,-0.015
2021-08-01 00:54:08.168,-0.375,-0.02
2021-08-01 00:54:08.172,-0.395,-0.03
2021-08-01 00:54:08.176,-0.4,-0.03
2021-08-01 00:54:08.180,-0.375,-0.015
2021-08-01 00:54:08.184,-0.34,-0.005
2021-08-01 00:54:08.188,-0.325,0.0
2021-08-01 00:54:08.192,-0.345,0.0
2021-08-01 00:54:08.196,-0.35,0.005
2021-08-01 00:54:08.200,-0.355,0.02
2021-08-01 00:54:08.204,-0.295,0.06
2021-08-01 00:54:08.208,-0.27,0.03
2021-08-01 00:54:08.212,-0.23,0.035
2021-08-01 00:54:08.216,-0.25,0.065
2021-08-01 00:54:08.220,-0.275,0.045
2021-08-01 00:54:08.224,-0.285,0.05
2021-08-01 00:54:08.228,-0.295,0.03
2021-08-01 00:54:08.232,-0.335,0.035
2021-08-01 00:54:08.236,-0.38,0.035
2021-08-01 00:54:08.240,-0.395,0.035
2021-08-01 00:54:08.244,-0.415,0.02
2021-08-01 00:54:08.248,-0.43,0.04
2021-08-01 00:54:08.252,-0.41,0.025
2021-08-01 00:54:08.256,-0.42,0.065
2021-08-01 00:54:08.260,-0.41,0.025
2021-08-01 00:54:08.264,-0.4,0.02
2021-08-01 00:54:08.268,-0.4,0.02
2021-08-01 00:54:08.272,-0.37,0.02
2021-08-01 00:54:08.276,-0.36,0.005
2021-08-01 00:54:08.280,-0.355,0.005
2021-08-01 00:54:08.284,-0.335,-0.005
2021-08-01 00:54:08.288,-0.345,0.0
2021-08-01 00:54:08.292,-0.35,-0.025
2021-08-01 00:54:08.296,-0.34,0.0
2021-08-01 00:54:08.300,-0.3,-0.005
2021-08-01 00:54:08.304,-0.26,-0.01
2021-08-01 00:54:08.308,-0.255,-0.01
2021-08-01 00:54:08.312,-0.245,-0.015
2021-08-01 00:54:08.316,-0.245,-0.005
2021-08-01 00:54:08.320,-0.24,-0.045
2021-08-01 00:54:08.324,-0.25,-0.04
2021-08-01 00:54:08.328,-0.235,-0.045
2021-08-01 00:54:08.332,-0.225,-0.065
2021-08-01 00:54:08.336,-0.235,-0.05
2021-08-01 00:54:08.340,-0.265,-0.06
2021-08-01 00:54:08.344,-0.245,-0.05
2021-08-01 00:54:08.348,-0.24,-0.075
2021-08-01 00:54:08.352,-0.215,-0.08
2021-08-01 00:54:08.356,-0.25,-0.085
2021-08-01 00:54:08.360,-0.25,-0.1
2021-08-01 00:54:08.364,-0.26,-0.1
2021-08-01 00:54:08.368,-0.23,-0.07
2021-08-01 00:54:08.372,-0.22,-0.05
2021-08-01 00:54:08.376,-0.23,-0.065
2021-08-01 00:54:08.380,-0.205,-0.07
2021-08-01 00:54:08.384,-0.195,-0.075
2021-08-01 00:54:08.388,-0.18,-0.05
2021-08-01 00:54:08.392,-0.155,-0.06
2021-08-01 00:54:08.396,-0.145,-0.045
2021-08-01 00:54:08.400,-0.115,-0.045
2021-08-01 00:54:08.404,-0.13,-0.02
2021-08-01 00:54:08.408,-0.19,-0.04
2021-08-01 00:54:08.412,-0.19,-0.03
2021-08-01 00:54:08.416,-0.16,-0.01
2021-08-01 00:54:08.420,-0.13,-0.025
2021-08-01 00:54:08.424,-0.11,-0.005
2021-08-01 00:54:08.428,-0.055,0.025
2021-08-01 00:54:08.432,-0.04,0.01
2021-08-01 00:54:08.436,-0.04,0.02
2021-08-01 00:54:08.440,-0.075,0.015
2021-08-01 00:54:08.444,-0.055,0.025
2021-08-01 00:54:08.448,0.01,0.015
2021-08-01 00:54:08.452,0.09,0.02
2021-08-01 00:54:08.456,0.15,0.005
2021-08-01 00:54:08.460,0.175,0.0
2021-08-01 00:54:08.464,0.175,-0.055
2021-08-01 00:54:08.468,0.15,-0.06
2021-08-01 00:54:08.472,0.165,-0.03
2021-08-01 00:54:08.476,0.17,-0.045
2021-08-01 00:54:08.480,0.11,-0.04
2021-08-01 00:54:08.484,0.23,-0.105
2021-08-01 00:54:08.488,0.47,-0.285
2021-08-01 00:54:08.492,0.805,-0.575
2021-08-01 00:54:08.496,1.12,-0.845
2021-08-01 00:54:08.500,1.26,-0.98
2021-08-01 00:54:08.504,1.16,-0.91
2021-08-01 00:54:08.508,0.74,-0.61
2021-08-01 00:54:08.512,0.26,-0.235
2021-08-01 00:54:08.516,-0.08,0.005
2021-08-01 00:54:08.520,-0.23,0.145
2021-08-01 00:54:08.524,-0.275,0.21
2021-08-01 00:54:08.528,-0.28,0.22
2021-08-01 00:54:08.532,-0.31,0.22
2021-08-01 00:54:08.536,-0.365,0.21
2021-08-01 00:54:08.540,-0.355,0.22
2021-08-01 00:54:08.544,-0.365,0.185
2021-08-01 00:54:08.548,-0.385,0.145
2021-08-01 00:54:08.552,-0.39,0.115
2021-08-01 00:54:08.556,-0.4,0.075
2021-08-01 00:54:08.560,-0.39,0.06
2021-08-01 00:54:08.564,-0.415,0.045
2021-08-01 00:54:08.568,-0.42,0.045
2021-08-01 00:54:08.572,-0.385,0.035
2021-08-01 00:54:08.576,-0.375,0.03
2021-08-01 00:54:08.580,-0.39,0.025
2021-08-01 00:54:08.584,-0.415,0.0
2021-08-01 00:54:08.588,-0.45,-0.01
2021-08-01 00:54:08.592,-0.425,-0.02
2021-08-01 00:54:08.596,-0.38,0.0
2021-08-01 00:54:08.600,-0.355,0.005
2021-08-01 00:54:08.604,-0.35,-0.015
2021-08-01 00:54:08.608,-0.34,-0.01
2021-08-01 00:54:08.612,-0.305,0.0
2021-08-01 00:54:08.616,-0.315,-0.03
2021-08-01 00:54:08.620,-0.325,-0.04
2021-08-01 00:54:08.624,-0.345,-0.03
2021-08-01 00:54:08.628,-0.31,-0.04
2021-08-01 00:54:08.632,-0.305,-0.02
2021-08-01 00:54:08.636,-0.345,-0.02
2021-08-01 00:54:08.640,-0.345,-0.045
2021-08-01 00:54:08.644,-0.31,-0.04
2021-08-01 00:54:08.648,-0.3,-0.045
2021-08-01 00:54:08.652,-0.31,-0.035
2021-08-01 00:54:08.656,-0.32,-0.01
2021-08-01 00:54:08.660,-0.305,0.005
2021-08-01 00:54:08.664,-0.325,-0.015
2021-08-01 00:54:08.668,-0.35,0.0
2021-08-01 00:54:08.672,-0.345,-0.01
2021-08-01 00:54:08.676,-0.32,-0.01
2021-08-01 00:54:08.680,-0.315,-0.02
2021-08-01 00:54:08.684,-0.305,0.0
2021-08-01 00:54:08.688,-0.32,0.015
2021-08-01 00:54:08.692,-0.36,0.01
2021-08-01 00:54:08.696,-0.37,0.0
2021-08-01 00:54:08.700,-0.36,-0.015
2021-08-01 00:54:08.704,-0.365,0.01
2021-08-01 00:54:08.708,-0.4,0.0
2021-08-01 00:54:08.712,-0.405,0.005
2021-08-01 00:54:08.716,-0.38,0.005
2021-08-01 00:54:08.720,-0.335,0.01
2021-08-01 00:54:08.724,-0.3,-0.005
2021-08-01 00:54:08.728,-0.29,0.0
2021-08-01 00:54:08.732,-0.26,0.0
2021-08-01 00:54:08.736,-0.25,0.0
2021-08-01 00:54:08.740,-0.28,-0.015
2021-08-01 00:54:08.744,-0.27,-0.015
2021-08-01 00:54:08.748,-0.27,-0.035
2021-08-01 00:54:08.752,-0.25,-0.01
2021-08-01 00:54:08.756,-0.255,0.0
2021-08-01 00:54:08.760,-0.245,0.005
2021-08-01 00:54:08.764,-0.24,-0.01
2021-08-01 00:54:08.768,-0.21,-0.015
2021-08-01 00:54:08.772,-0.175,-0.01
2021-08-01 00:54:08.776,-0.185,-0.01
2021-08-01 00:54:08.780,-0.215,-0.02
2021-08-01 00:54:08.784,-0.235,-0.02
2021-08-01 00:54:08.788,-0.23,-0.025
2021-08-01 00:54:08.792,-0.235,-0.01
2021-08-01 00:54:08.796,-0.225,-0.005
2021-08-01 00:54:08.800,-0.195,-0.04
2021-08-01 00:54:08.804,-0.205,-0.015
2021-08-01 00:54:08.808,-0.2,-0.025
2021-08-01 00:54:08.812,-0.19,-0.02
2021-08-01 00:54:08.816,-0.185,-0.055
2021-08-01 00:54:08.820,-0.155,-0.04
2021-08-01 00:54:08.824,-0.135,-0.015
2021-08-01 00:54:08.828,-0.105,-0.02
2021-08-01 00:54:08.832,-0.11,-0.04
2021-08-01 00:54:08.836,-0.12,-0.045
2021-08-01 00:54:08.840,-0.135,-0.045
2021-08-01 00:54:08.844,-0.135,-0.065
2021-08-01 00:54:08.848,-0.105,-0.045
2021-08-01 00:54:08.852,-0.06,-0.065
2021-08-01 00:54:08.856,-0.01,-0.05
2021-08-01 00:54:08.860,0.045,-0.06
2021-08-01 00:54:08.864,0.13,-0.085
2021-08-01 00:54:08.868,0.195,-0.115
2021-08-01 00:54:08.872,0.245,-0.125
2021-08-01 00:54:08.876,0.28,-0.15
2021-08-01 00:54:08.880,0.32,-0.13
2021-08-01 00:54:08.884,0.325,-0.085
2021-08-01 00:54:08.888,0.26,-0.1
2021-08-01 00:54:08.892,0.24,-0.11
2021-08-01 00:54:08.896,0.39,-0.215
2021-08-01 00:54:08.900,0.7,-0.39
2021-08-01 00:54:08.904,1.03,-0.675
2021-08-01 00:54:08.908,1.275,-0.95
2021-08-01 00:54:08.912,1.255,-1.05
2021-08-01 00:54:08.916,0.92,-0.92
2021-08-01 00:54:08.920,0.455,-0.59
2021-08-01 00:54:08.924,0.06,-0.235
2021-08-01 00:54:08.928,-0.14,-0.03
2021-08-01 00:54:08.932,-0.225,0.065
2021-08-01 00:54:08.936,-0.285,0.115
2021-08-01 00:54:08.940,-0.325,0.135
2021-08-01 00:54:08.944,-0.37,0.11
2021-08-01 00:54:08.948,-0.425,0.115
2021-08-01 00:54:08.952,-0.44,0.09
2021-08-01 00:54:08.956,-0.455,0.05
2021-08-01 00:54:08.960,-0.46,0.035
2021-08-01 00:54:08.964,-0.46,0.01
2021-08-01 00:54:08.968,-0.44,0.0
2021-08-01 00:54:08.972,-0.435,-0.025
2021-08-01 00:54:08.976,-0.485,-0.01
2021-08-01 00:54:08.980,-0.505,-0.02
2021-08-01 00:54:08.984,-0.505,-0.025
2021-08-01 00:54:08.988,-0.46,-0.01
2021-08-01 00:54:08.992,-0.45,-0.025
2021-08-01 00:54:08.996,-0.435,-0.01
2021-08-01 00:54:09.000,-0.445,-0.02
2021-08-01 00:54:09.004,-0.445,-0.03
2021-08-01 00:54:09.008,-0.435,-0.035
2021-08-01 00:54:09.012,-0.45,-0.05
2021-08-01 00:54:09.016,-0.485,-0.05
2021-08-01 00:54:09.020,-0.485,-0.065
2021-08-01 00:54:09.024,-0.44,-0.06
2021-08-01 00:54:09.028,-0.405,-0.04
2021-08-01 00:54:09.032,-0.42,-0.07
2021-08-01 00:54:09.036,-0.415,-0.075
2021-08-01 00:54:09.040,-0.395,-0.08
2021-08-01 00:54:09.044,-0.38,-0.085
2021-08-01 00:54:09.048,-0.365,-0.1
2021-08-01 00:54:09.052,-0.36,-0.095
2021-08-01 00:54:09.056,-0.4,-0.09
2021-08-01 00:54:09.060,-0.375,-0.115
2021-08-01 00:54:09.064,-0.39,-0.095
2021-08-01 00:54:09.068,-0.38,-0.095
2021-08-01 00:54:09.072,-0.34,-0.09
2021-08-01 00:54:09.076,-0.33,-0.11
2021-08-01 00:54:09.080,-0.345,-0.11
2021-08-01 00:54:09.084,-0.36,-0.11
2021-08-01 00:54:09.088,-0.36,-0.12
2021-08-01 00:54:09.092,-0.34,-0.115
2021-08-01 00:54:09.096,-0.29,-0.1
2021-08-01 00:54:09.100,-0.285,-0.12
2021-08-01 00:54:09.104,-0.28,-0.11
2021-08-01 00:54:09.108,-0.255,-0.115
2021-08-01 00:54:09.112,-0.25,-0.1
2021-08-01 00:54:09.116,-0.24,-0.105
2021-08-01 00:54:09.120,-0.25,-0.075
2021-08-01 00:54:09.124,-0.245,-0.075
2021-08-01 00:54:09.128,-0.235,-0.08
2021-08-01 00:54:09.132,-0.235,-0.07
2021-08-01 00:54:09.136,-0.22,-0.09
2021-08-01 00:54:09.140,-0.24,-0.085
2021-08-01 00:54:09.144,-0.25,-0.065
2021-08-01 00:54:09.148,-0.255,-0.065
2021-08-01 00:54:09.152,-0.245,-0.09
2021-08-01 00:54:09.156,-0.255,-0.085
2021-08-01 00:54:09.160,-0.255,-0.095
2021-08-01 00:54:09.164,-0.275,-0.08
2021-08-01 00:54:09.168,-0.28,-0.065
2021-08-01 00:54:09.172,-0.305,-0.065
2021-08-01 00:54:09.176,-0.335,-0.07
2021-08-01 00:54:09.180,-0.33,-0.07
2021-08-01 00:54:09.184,-0.345,-0.07
2021-08-01 00:54:09.188,-0.325,-0.065
2021-08-01 00:54:09.192,-0.32,-0.07
2021-08-01 00:54:09.196,-0.31,-0.09
2021-08-01 00:54:09.200,-0.295,-0.095
2021-08-01 00:54:09.204,-0.295,-0.105
2021-08-01 00:54:09.208,-0.305,-0.08
2021-08-01 00:54:09.212,-0.34,-0.075
2021-08-01 00:54:09.216,-0.315,-0.09
2021-08-01 00:54:09.220,-0.32,-0.085
2021-08-01 00:54:09.224,-0.28,-0.08
2021-08-01 00:54:09.228,-0.26,-0.075
2021-08-01 00:54:09.232,-0.24,-0.08
2021-08-01 00:54:09.236,-0.26,-0.065
2021-08-01 00:54:09.240,-0.28,-0.065
2021-08-01 00:54:09.244,-0.28,-0.05
2021-08-01 00:54:09.248,-0.265,-0.06
2021-08-01 00:54:09.252,-0.235,-0.075
2021-08-01 00:54:09.256,-0.21,-0.075
2021-08-01 00:54:09.260,-0.24,-0.07
2021-08-01 00:54:09.264,-0.27,-0.065
2021-08-01 00:54:09.268,-0.29,-0.095
2021-08-01 00:54:09.272,-0.25,-0.105
2021-08-01 00:54:09.276,-0.23,-0.105
2021-08-01 00:54:09.280,-0.22,-0.1
2021-08-01 00:54:09.284,-0.215,-0.115
2021-08-01 00:54:09.288,-0.205,-0.1
2021-08-01 00:54:09.292,-0.21,-0.115
2021-08-01 00:54:09.296,-0.205,-0.115
2021-08-01 00:54:09.300,-0.21,-0.13
2021-08-01 00:54:09.304,-0.205,-0.1
2021-08-01 00:54:09.308,-0.175,-0.105
2021-08-01 00:54:09.312,-0.155,-0.115
2021-08-01 00:54:09.316,-0.13,-0.08
2021-08-01 00:54:09.320,-0.14,-0.105
2021-08-01 00:54:09.324,-0.16,-0.09
2021-08-01 00:54:09.328,-0.165,-0.08
2021-08-01 00:54:09.332,-0.11,-0.095
2021-08-01 00:54:09.336,-0.1,-0.07
2021-08-01 00:54:09.340,-0.1,-0.06
2021-08-01 00:54:09.344,-0.105,-0.06
2021-08-01 00:54:09.348,-0.125,-0.085
2021-08-01 00:54:09.352,-0.17,-0.065
2021-08-01 00:54:09.356,-0.175,-0.065
2021-08-01 00:54:09.360,-0.135,-0.045
2021-08-01 00:54:09.364,-0.13,-0.06
2021-08-01 00:54:09.368,-0.17,-0.08
2021-08-01 00:54:09.372,-0.17,-0.06
2021-08-01 00:54:09.376,-0.195,-0.065
2021-08-01 00:54:09.380,-0.215,-0.045
2021-08-01 00:54:09.384,-0.225,-0.07
2021-08-01 00:54:09.388,-0.225,-0.05
2021-08-01 00:54:09.392,-0.2,-0.055
2021-08-01 00:54:09.396,-0.155,-0.07
2021-08-01 00:54:09.400,-0.105,-0.045
2021-08-01 00:54:09.404,0.015,-0.045
2021-08-01 00:54:09.408,0.13,-0.09
2021-08-01 00:54:09.412,0.205,-0.1
2021-08-01 00:54:09.416,0.22,-0.18
2021-08-01 00:54:09.420,0.235,-0.12
2021-08-01 00:54:09.424,0.21,-0.105
2021-08-01 00:54:09.428,0.225,-0.12
2021-08-01 00:54:09.432,0.225,-0.17
2021-08-01 00:54:09.436,0.31,-0.23
2021-08-01 00:54:09.440,0.5,-0.385
2021-08-01 00:54:09.444,0.81,-0.63
2021-08-01 00:54:09.448,1.115,-0.885
2021-08-01 00:54:09.452,1.29,-1.045
2021-08-01 00:54:09.456,1.17,-1.035
2021-08-01 00:54:09.460,0.77,-0.82
2021-08-01 00:54:09.464,0.295,-0.445
2021-08-01 00:54:09.468,-0.025,-0.18
2021-08-01 00:54:09.472,-0.13,-0.05
2021-08-01 00:54:09.476,-0.22,0.025
2021-08-01 00:54:09.480,-0.23,0.095
2021-08-01 00:54:09.484,-0.27,0.115
2021-08-01 00:54:09.488,-0.325,0.105
2021-08-01 00:54:09.492,-0.345,0.07
2021-08-01 00:54:09.496,-0.365,0.085
2021-08-01 00:54:09.500,-0.4,0.065
2021-08-01 00:54:09.504,-0.43,0.04
2021-08-01 00:54:09.508,-0.41,0.0
2021-08-01 00:54:09.512,-0.385,0.01
2021-08-01 00:54:09.516,-0.37,0.0
2021-08-01 00:54:09.520,-0.36,-0.005
2021-08-01 00:54:09.524,-0.34,0.0
2021-08-01 00:54:09.528,-0.35,0.0
2021-08-01 00:54:09.532,-0.36,0.01
2021-08-01 00:54:09.536,-0.365,0.01
2021-08-01 00:54:09.540,-0.365,0.035
2021-08-01 00:54:09.544,-0.31,0.015
2021-08-01 00:54:09.548,-0.26,0.005
2021-08-01 00:54:09.552,-0.245,0.0
2021-08-01 00:54:09.556,-0.28,0.01
2021-08-01 00:54:09.560,-0.335,0.015
2021-08-01 00:54:09.564,-0.37,0.025
2021-08-01 00:54:09.568,-0.36,0.005
2021-08-01 00:54:09.572,-0.32,0.0
2021-08-01 00:54:09.576,-0.345,0.01
2021-08-01 00:54:09.580,-0.37,0.01
2021-08-01 00:54:09.584,-0.365,0.025
2021-08-01 00:54:09.588,-0.34,0.01
2021-08-01 00:54:09.592,-0.39,0.02
2021-08-01 00:54:09.596,-0.415,0.015
2021-08-01 00:54:09.600,-0.445,0.01
2021-08-01 00:54:09.604,-0.435,0.02
2021-08-01 00:54:09.608,-0.445,0.0
2021-08-01 00:54:09.612,-0.415,-0.01
2021-08-01 00:54:09.616,-0.41,-0.005
2021-08-01 00:54:09.620,-0.43,0.005
2021-08-01 00:54:09.624,-0.46,0.01
2021-08-01 00:54:09.628,-0.455,0.025
2021-08-01 00:54:09.632,-0.435,0.03
2021-08-01 00:54:09.636,-0.43,0.02
2021-08-01 00:54:09.640,-0.42,0.01
2021-08-01 00:54:09.644,-0.41,0.035
2021-08-01 00:54:09.648,-0.42,0.005
2021-08-01 00:54:09.652,-0.41,0.0
2021-08-01 00:54:09.656,-0.38,0.0
2021-08-01 00:54:09.660,-0.38,-0.005
2021-08-01 00:54:09.664,-0.37,-0.005
2021-08-01 00:54:09.668,-0.335,-0.015
2021-08-01 00:54:09.672,-0.31,-0.005
2021-08-01 00:54:09.676,-0.335,0.0
2021-08-01 00:54:09.680,-0.335,-0.025
2021-08-01 00:54:09.684,-0.315,-0.035
2021-08-01 00:54:09.688,-0.315,0.0
2021-08-01 00:54:09.692,-0.275,-0.02
2021-08-01 00:54:09.696,-0.28,0.0
2021-08-01 00:54:09.700,-0.275,-0.015
2021-08-01 00:54:09.704,-0.29,-0.025
2021-08-01 00:54:09.708,-0.255,-0.025
2021-08-01 00:54:09.712,-0.245,-0.055
2021-08-01 00:54:09.716,-0.215,-0.05
2021-08-01 00:54:09.720,-0.195,-0.04
2021-08-01 00:54:09.724,-0.15,-0.055
2021-08-01 00:54:09.728,-0.155,-0.07
2021-08-01 00:54:09.732,-0.165,-0.1
2021-08-01 00:54:09.736,-0.15,-0.075
2021-08-01 00:54:09.740,-0.12,-0.065
2021-08-01 00:54:09.744,-0.12,-0.06
2021-08-01 00:54:09.748,-0.13,-0.075
2021-08-01 00:54:09.752,-0.155,-0.065
2021-08-01 00:54:09.756,-0.155,-0.07
2021-08-01 00:54:09.760,-0.13,-0.07
2021-08-01 00:54:09.764,-0.125,-0.055
2021-08-01 00:54:09.768,-0.115,-0.035
2021-08-01 00:54:09.772,-0.11,-0.04
2021-08-01 00:54:09.776,-0.12,-0.03
2021-08-01 00:54:09.780,-0.105,-0.025
2021-08-01 00:54:09.784,-0.09,-0.035
2021-08-01 00:54:09.788,-0.1,0.0
2021-08-01 00:54:09.792,-0.065,-0.005
2021-08-01 00:54:09.796,-0.04,-0.025
2021-08-01 00:54:09.800,-0.04,-0.015
2021-08-01 00:54:09.804,-0.09,0.0
2021-08-01 00:54:09.808,-0.095,0.03
2021-08-01 00:54:09.812,-0.12,0.005
2021-08-01 00:54:09.816,-0.15,-0.03
2021-08-01 00:54:09.820,-0.16,0.01
2021-08-01 00:54:09.824,-0.18,-0.01
2021-08-01 00:54:09.828,-0.19,-0.035
2021-08-01 00:54:09.832,-0.195,-0.035
2021-08-01 00:54:09.836,-0.245,-0.03
2021-08-01 00:54:09.840,-0.26,-0.025
2021-08-01 00:54:09.844,-0.27,-0.04
2021-08-01 00:54:09.848,-0.29,-0.04
2021-08-01 00:54:09.852,-0.26,-0.01
2021-08-01 00:54:09.856,-0.24,-0.015
2021-08-01 00:54:09.860,-0.235,0.005
2021-08-01 00:54:09.864,-0.22,0.0
2021-08-01 00:54:09.868,-0.21,0.005
2021-08-01 00:54:09.872,-0.22,-0.01
2021-08-01 00:54:09.876,-0.26,-0.015
2021-08-01 00:54:09.880,-0.25,0.0
2021-08-01 00:54:09.884,-0.195,0.005
2021-08-01 00:54:09.888,-0.185,0.0
2021-08-01 00:54:09.892,-0.22,-0.025
2021-08-01 00:54:09.896,-0.26,-0.01
2021-08-01 00:54:09.900,-0.235,-0.02
2021-08-01 00:54:09.904,-0.2,0.0
2021-08-01 00:54:09.908,-0.17,-0.005
2021-08-01 00:54:09.912,-0.06,0.0
2021-08-01 00:54:09.916,0.045,-0.01
2021-08-01 00:54:09.920,0.12,-0.015
2021-08-01 00:54:09.924,0.165,-0.06
2021-08-01 00:54:09.928,0.195,-0.08
2021-08-01 00:54:09.932,0.185,-0.075
2021-08-01 00:54:09.936,0.15,-0.07
2021-08-01 00:54:09.940,0.135,-0.105
2021-08-01 00:54:09.944,0.13,-0.175
2021-08-01 00:54:09.948,0.255,-0.275
2021-08-01 00:54:09.952,0.555,-0.485
2021-08-01 00:54:09.956,0.89,-0.735
2021-08-01 00:54:09.960,1.235,-1.025
2021-08-01 00:54:09.964,1.41,-1.135
2021-08-01 00:54:09.968,1.28,-1.06
2021-08-01 00:54:09.972,0.855,-0.75
2021-08-01 00:54:09.976,0.38,-0.35
2021-08-01 00:54:09.980,0.075,-0.05
2021-08-01 00:54:09.984,-0.05,0.04
2021-08-01 00:54:09.988,-0.11,0.09
2021-08-01 00:54:09.992,-0.145,0.125
2021-08-01 00:54:09.996,-0.19,0.12
2021-08-01 00:54:10.000,-0.225,0.1
2021-08-01 00:54:10.004,-0.24,0.085
2021-08-01 00:54:10.008,-0.27,0.04
2021-08-01 00:54:10.012,-0.295,0.01
2021-08-01 00:54:10.016,-0.305,0.0
2021-08-01 00:54:10.020,-0.3,0.0
2021-08-01 00:54:10.024,-0.275,-0.035
2021-08-01 00:54:10.028,-0.28,-0.01
2021-08-01 00:54:10.032,-0.28,-0.015
2021-08-01 00:54:10.036,-0.285,-0.035
2021-08-01 00:54:10.040,-0.265,-0.02
2021-08-01 00:54:10.044,-0.26,-0.02
2021-08-01 00:54:10.048,-0.245,-0.015
2021-08-01 00:54:10.052,-0.275,-0.01
2021-08-01 00:54:10.056,-0.35,-0.005
2021-08-01 00:54:10.060,-0.41,-0.005
2021-08-01 00:54:10.064,-0.42,-0.01
2021-08-01 00:54:10.068,-0.42,-0.005
2021-08-01 00:54:10.072,-0.455,-0.005
2021-08-01 00:54:10.076,-0.47,-0.01
2021-08-01 00:54:10.080,-0.48,0.0
2021-08-01 00:54:10.084,-0.48,0.005
2021-08-01 00:54:10.088,-0.49,-0.015
2021-08-01 00:54:10.092,-0.465,-0.02
2021-08-01 00:54:10.096,-0.455,-0.01
2021-08-01 00:54:10.100,-0.48,0.0
2021-08-01 00:54:10.104,-0.465,-0.02
2021-08-01 00:54:10.108,-0.485,-0.015
2021-08-01 00:54:10.112,-0.485,-0.02
2021-08-01 00:54:10.116,-0.49,-0.02
2021-08-01 00:54:10.120,-0.48,-0.03
2021-08-01 00:54:10.124,-0.48,-0.045
2021-08-01 00:54:10.128,-0.485,-0.04
2021-08-01 00:54:10.132,-0.465,-0.045
2021-08-01 00:54:10.136,-0.485,-0.04
2021-08-01 00:54:10.140,-0.48,-0.025
2021-08-01 00:54:10.144,-0.44,-0.03
2021-08-01 00:54:10.148,-0.415,-0.045
2021-08-01 00:54:10.152,-0.42,-0.04
2021-08-01 00:54:10.156,-0.4,-0.05
2021-08-01 00:54:10.160,-0.41,-0.035
2021-08-01 00:54:10.164,-0.39,-0.035
2021-08-01 00:54:10.168,-0.37,-0.045
2021-08-01 00:54:10.172,-0.36,-0.045
2021-08-01 00:54:10.176,-0.41,-0.05
2021-08-01 00:54:10.180,-0.405,-0.025
2021-08-01 00:54:10.184,-0.385,-0.065
2021-08-01 00:54:10.188,-0.34,-0.065
2021-08-01 00:54:10.192,-0.295,-0.065
2021-08-01 00:54:10.196,-0.27,-0.06
2021-08-01 00:54:10.200,-0.22,-0.025
2021-08-01 00:54:10.204,-0.215,-0.055
2021-08-01 00:54:10.208,-0.175,-0.05
2021-08-01 00:54:10.212,-0.145,-0.055
2021-08-01 00:54:10.216,-0.095,-0.055
2021-08-01 00:54:10.220,-0.085,-0.075
2021-08-01 00:54:10.224,-0.07,-0.065
2021-08-01 00:54:10.228,-0.07,-0.06
2021-08-01 00:54:10.232,-0.085,-0.045
2021-08-01 00:54:10.236,-0.115,-0.025
2021-08-01 00:54:10.240,-0.11,-0.03
2021-08-01 00:54:10.244,-0.095,-0.055
2021-08-01 00:54:10.248,-0.085,-0.035
2021-08-01 00:54:10.252,-0.09,-0.045
2021-08-01 00:54:10.256,-0.1,-0.065
2021-08-01 00:54:10.260,-0.04,-0.045
2021-08-01 00:54:10.264,-0.025,-0.045
2021-08-01 00:54:10.268,-0.01,-0.055
2021-08-01 00:54:10.272,-0.02,-0.04
2021-08-01 00:54:10.276,-0.055,-0.035
2021-08-01 00:54:10.280,-0.075,0.0
2021-08-01 00:54:10.284,-0.08,0.005
2021-08-01 00:54:10.288,-0.07,0.0
2021-08-01 00:54:10.292,-0.015,0.0
2021-08-01 00:54:10.296,0.025,-0.01
2021-08-01 00:54:10.300,0.03,-0.015
2021-08-01 00:54:10.304,0.055,-0.015
2021-08-01 00:54:10.308,0.07,-0.055
2021-08-01 00:54:10.312,0.09,-0.105
2021-08-01 00:54:10.316,0.095,-0.1
2021-08-01 00:54:10.320,0.055,-0.055
2021-08-01 00:54:10.324,0.005,-0.075
2021-08-01 00:54:10.328,0.0,-0.11
2021-08-01 00:54:10.332,0.05,-0.19
2021-08-01 00:54:10.336,0.245,-0.34
2021-08-01 00:54:10.340,0.55,-0.555
2021-08-01 00:54:10.344,0.865,-0.855
2021-08-01 00:54:10.348,1.12,-1.09
2021-08-01 00:54:10.352,1.185,-1.14
2021-08-01 00:54:10.356,0.955,-0.975
2021-08-01 00:54:10.360,0.54,-0.61
2021-08-01 00:54:10.364,0.14,-0.235
2021-08-01 00:54:10.368,-0.115,0.015
2021-08-01 00:54:10.372,-0.265,0.09
2021-08-01 00:54:10.376,-0.33,0.115
2021-08-01 00:54:10.380,-0.355,0.12
2021-08-01 00:54:10.384,-0.37,0.075
2021-08-01 00:54:10.388,-0.36,0.1
2021-08-01 00:54:10.392,-0.365,0.09
2021-08-01 00:54:10.396,-0.41,0.085
2021-08-01 00:54:10.400,-0.42,0.06
2021-08-01 00:54:10.404,-0.415,0.03
2021-08-01 00:54:10.408,-0.38,0.045
2021-08-01 00:54:10.412,-0.375,0.035
2021-08-01 00:54:10.416,-0.39,0.025
2021-08-01 00:54:10.420,-0.39,0.05
2021-08-01 00:54:10.424,-0.4,0.055
2021-08-01 00:54:10.428,-0.4,0.045
2021-08-01 00:54:10.432,-0.435,0.03
2021-08-01 00:54:10.436,-0.465,0.045
2021-08-01 00:54:10.440,-0.45,0.035
2021-08-01 00:54:10.444,-0.465,0.015
2021-08-01 00:54:10.448,-0.42,0.035
2021-08-01 00:54:10.452,-0.395,0.05
2021-08-01 00:54:10.456,-0.365,0.035
2021-08-01 00:54:10.460,-0.32,0.01
2021-08-01 00:54:10.464,-0.29,-0.01
2021-08-01 00:54:10.468,-0.315,0.0
2021-08-01 00:54:10.472,-0.295,-0.015
2021-08-01 00:54:10.476,-0.26,0.0
2021-08-01 00:54:10.480,-0.29,0.015
2021-08-01 00:54:10.484,-0.3,0.015
2021-08-01 00:54:10.488,-0.3,0.01
2021-08-01 00:54:10.492,-0.295,0.01
2021-08-01 00:54:10.496,-0.275,0.03
2021-08-01 00:54:10.500,-0.225,-0.005
2021-08-01 00:54:10.504,-0.205,-0.005
2021-08-01 00:54:10.508,-0.19,0.03
2021-08-01 00:54:10.512,-0.215,-0.01
2021-08-01 00:54:10.516,-0.215,0.01
2021-08-01 00:54:10.520,-0.24,0.0
2021-08-01 00:54:10.524,-0.22,0.0
2021-08-01 00:54:10.528,-0.245,0.005
2021-08-01 00:54:10.532,-0.285,0.0
2021-08-01 00:54:10.536,-0.305,-0.015
2021-08-01 00:54:10.540,-0.325,-0.015
2021-08-01 00:54:10.544,-0.3,-0.015
2021-08-01 00:54:10.548,-0.305,-0.045
2021-08-01 00:54:10.552,-0.305,-0.055
2021-08-01 00:54:10.556,-0.345,-0.05
2021-08-01 00:54:10.560,-0.335,-0.055
2021-08-01 00:54:10.564,-0.34,-0.05
2021-08-01 00:54:10.568,-0.33,-0.07
2021-08-01 00:54:10.572,-0.31,-0.07
2021-08-01 00:54:10.576,-0.29,-0.085
2021-08-01 00:54:10.580,-0.27,-0.085
2021-08-01 00:54:10.584,-0.265,-0.095
2021-08-01 00:54:10.588,-0.275,-0.095
2021-08-01 00:54:10.592,-0.255,-0.09
2021-08-01 00:54:10.596,-0.24,-0.08
2021-08-01 00:54:10.600,-0.27,-0.1
2021-08-01 00:54:10.604,-0.26,-0.08
2021-08-01 00:54:10.608,-0.255,-0.085
2021-08-01 00:54:10.612,-0.215,-0.105
2021-08-01 00:54:10.616,-0.205,-0.085
2021-08-01 00:54:10.620,-0.2,-0.09
2021-08-01 00:54:10.624,-0.225,-0.07
2021-08-01 00:54:10.628,-0.23,-0.085
2021-08-01 00:54:10.632,-0.24,-0.08
2021-08-01 00:54:10.636,-0.22,-0.08
2021-08-01 00:54:10.640,-0.215,-0.08
2021-08-01 00:54:10.644,-0.22,-0.075
2021-08-01 00:54:10.648,-0.25,-0.09
2021-08-01 00:54:10.652,-0.245,-0.1
2021-08-01 00:54:10.656,-0.23,-0.1
2021-08-01 00:54:10.660,-0.26,-0.075
2021-08-01 00:54:10.664,-0.235,-0.09
2021-08-01 00:54:10.668,-0.24,-0.06
2021-08-01 00:54:10.672,-0.235,-0.09
2021-08-01 00:54:10.676,-0.25,-0.08
2021-08-01 00:54:10.680,-0.255,-0.095
2021-08-01 00:54:10.684,-0.225,-0.095
2021-08-01 00:54:10.688,-0.225,-0.095
2021-08-01 00:54:10.692,-0.23,-0.05
2021-08-01 00:54:10.696,-0.23,-0.06
2021-08-01 00:54:10.700,-0.19,-0.07
2021-08-01 00:54:10.704,-0.15,-0.04
2021-08-01 00:54:10.708,-0.09,-0.05
2021-08-01 00:54:10.712,-0.095,-0.055
2021-08-01 00:54:10.716,-0.07,-0.025
2021-08-01 00:54:10.720,-0.105,-0.05
2021-08-01 00:54:10.724,-0.095,-0.04
2021-08-01 00:54:10.728,-0.095,-0.06
2021-08-01 00:54:10.732,-0.065,-0.04
2021-08-01 00:54:10.736,-0.04,-0.055
2021-08-01 00:54:10.740,-0.015,-0.06
2021-08-01 00:54:10.744,0.005,-0.05
2021-08-01 00:54:10.748,0.01,-0.06
2021-08-01 00:54:10.752,-0.01,-0.095
2021-08-01 00:54:10.756,0.01,-0.075
2021-08-01 00:54:10.760,0.0,-0.06
2021-08-01 00:54:10.764,-0.02,-0.085
2021-08-01 00:54:10.768,-0.04,-0.08
2021-08-01 00:54:10.772,-0.055,-0.1
2021-08-01 00:54:10.776,-0.095,-0.095
2021-08-01 00:54:10.780,-0.13,-0.105
2021-08-01 00:54:10.784,-0.115,-0.11
2021-08-01 00:54:10.788,-0.155,-0.095
2021-08-01 00:54:10.792,-0.18,-0.095
2021-08-01 00:54:10.796,-0.22,-0.08
2021-08-01 00:54:10.800,-0.19,-0.095
2021-08-01 00:54:10.804,-0.165,-0.11
2021-08-01 00:54:10.808,-0.15,-0.105
2021-08-01 00:54:10.812,-0.145,-0.08
2021-08-01 00:54:10.816,-0.135,-0.1
2021-08-01 00:54:10.820,-0.135,-0.12
2021-08-01 00:54:10.824,-0.145,-0.135
2021-08-01 00:54:10.828,-0.17,-0.105
2021-08-01 00:54:10.832,-0.175,-0.135
2021-08-01 00:54:10.836,-0.21,-0.135
2021-08-01 00:54:10.840,-0.21,-0.125
2021-08-01 00:54:10.844,-0.23,-0.125
2021-08-01 00:54:10.848,-0.24,-0.16
2021-08-01 00:54:10.852,-0.23,-0.16
2021-08-01 00:54:10.856,-0.235,-0.17
2021-08-01 00:54:10.860,-0.235,-0.19
2021-08-01 00:54:10.864,-0.23,-0.17
2021-08-01 00:54:10.868,-0.265,-0.195
2021-08-01 00:54:10.872,-0.26,-0.19
2021-08-01 00:54:10.876,-0.24,-0.18
2021-08-01 00:54:10.880,-0.245,-0.185
2021-08-01 00:54:10.884,-0.25,-0.19
2021-08-01 00:54:10.888,-0.265,-0.195
2021-08-01 00:54:10.892,-0.265,-0.175
2021-08-01 00:54:10.896,-0.245,-0.17
2021-08-01 00:54:10.900,-0.22,-0.175
2021-08-01 00:54:10.904,-0.215,-0.175
2021-08-01 00:54:10.908,-0.25,-0.155
2021-08-01 00:54:10.912,-0.24,-0.175
2021-08-01 00:54:10.916,-0.205,-0.165
2021-08-01 00:54:10.920,-0.2,-0.155
2021-08-01 00:54:10.924,-0.195,-0.15
2021-08-01 00:54:10.928,-0.16,-0.135
2021-08-01 00:54:10.932,-0.16,-0.145
2021-08-01 00:54:10.936,-0.16,-0.145
2021-08-01 00:54:10.940,-0.155,-0.13
2021-08-01 00:54:10.944,-0.145,-0.145
2021-08-01 00:54:10.948,-0.145,-0.11
2021-08-01 00:54:10.952,-0.15,-0.11
2021-08-01 00:54:10.956,-0.165,-0.115
2021-08-01 00:54:10.960,-0.18,-0.13
2021-08-01 00:54:10.964,-0.19,-0.13
2021-08-01 00:54:10.968,-0.16,-0.11
2021-08-01 00:54:10.972,-0.13,-0.09
2021-08-01 00:54:10.976,-0.11,-0.095
2021-08-01 00:54:10.980,-0.06,-0.125
2021-08-01 00:54:10.984,-0.065,-0.11
2021-08-01 00:54:10.988,-0.08,-0.11
2021-08-01 00:54:10.992,-0.09,-0.135
2021-08-01 00:54:10.996,-0.07,-0.1
2021-08-01 00:54:11.000,-0.075,-0.095
2021-08-01 00:54:11.004,-0.08,-0.1
2021-08-01 00:54:11.008,-0.095,-0.1
2021-08-01 00:54:11.012,-0.145,-0.08
2021-08-01 00:54:11.016,-0.15,-0.09
2021-08-01 00:54:11.020,-0.17,-0.105
2021-08-01 00:54:11.024,-0.145,-0.105
2021-08-01 00:54:11.028,-0.12,-0.095
2021-08-01 00:54:11.032,-0.06,-0.08
2021-08-01 00:54:11.036,-0.02,-0.08
2021-08-01 00:54:11.040,0.03,-0.09
2021-08-01 00:54:11.044,0.115,-0.11
2021-08-01 00:54:11.048,0.225,-0.12
2021-08-01 00:54:11.052,0.295,-0.16
2021-08-01 00:54:11.056,0.28,-0.23
2021-08-01 00:54:11.060,0.335,-0.245
2021-08-01 00:54:11.064,0.375,-0.235
2021-08-01 00:54:11.068,0.375,-0.24
2021-08-01 00:54:11.072,0.37,-0.29
2021-08-01 00:54:11.076,0.36,-0.365
2021-08-01 00:54:11.080,0.46,-0.46
2021-08-01 00:54:11.084,0.685,-0.66
2021-08-01 00:54:11.088,0.985,-0.96
2021-08-01 00:54:11.092,1.22,-1.145
2021-08-01 00:54:11.096,1.235,-1.205
2021-08-01 00:54:11.100,0.955,-1.025
2021-08-01 00:54:11.104,0.445,-0.675
2021-08-01 00:54:11.108,0.035,-0.38
2021-08-01 00:54:11.112,-0.14,-0.245
2021-08-01 00:54:11.116,-0.18,-0.17
2021-08-01 00:54:11.120,-0.21,-0.095
2021-08-01 00:54:11.124,-0.23,-0.045
2021-08-01 00:54:11.128,-0.25,-0.03
2021-08-01 00:54:11.132,-0.25,-0.06
2021-08-01 00:54:11.136,-0.295,-0.065
2021-08-01 00:54:11.140,-0.345,-0.095
2021-08-01 00:54:11.144,-0.355,-0.095
2021-08-01 00:54:11.148,-0.335,-0.11
2021-08-01 00:54:11.152,-0.315,-0.11
2021-08-01 00:54:11.156,-0.315,-0.105
2021-08-01 00:54:11.160,-0.32,-0.105
2021-08-01 00:54:11.164,-0.33,-0.105
2021-08-01 00:54:11.168,-0.375,-0.12
2021-08-01 00:54:11.172,-0.365,-0.105
2021-08-01 00:54:11.176,-0.37,-0.1
2021-08-01 00:54:11.180,-0.35,-0.085
2021-08-01 00:54:11.184,-0.35,-0.095
2021-08-01 00:54:11.188,-0.375,-0.1
2021-08-01 00:54:11.192,-0.405,-0.12
2021-08-01 00:54:11.196,-0.405,-0.12
2021-08-01 00:54:11.200,-0.38,-0.12
2021-08-01 00:54:11.204,-0.38,-0.125
2021-08-01 00:54:11.208,-0.365,-0.105
2021-08-01 00:54:11.212,-0.345,-0.11
2021-08-01 00:54:11.216,-0.36,-0.11
2021-08-01 00:54:11.220,-0.365,-0.105
2021-08-01 00:54:11.224,-0.32,-0.095
2021-08-01 00:54:11.228,-0.33,-0.12
2021-08-01 00:54:11.232,-0.34,-0.11
2021-08-01 00:54:11.236,-0.32,-0.1
2021-08-01 00:54:11.240,-0.325,-0.085
2021-08-01 00:54:11.244,-0.32,-0.085
2021-08-01 00:54:11.248,-0.34,-0.08
2021-08-01 00:54:11.252,-0.37,-0.07
2021-08-01 00:54:11.256,-0.4,-0.065
2021-08-01 00:54:11.260,-0.455,-0.08
2021-08-01 00:54:11.264,-0.445,-0.065
2021-08-01 00:54:11.268,-0.455,-0.05
2021-08-01 00:54:11.272,-0.44,-0.07
2021-08-01 00:54:11.276,-0.41,-0.09
2021-08-01 00:54:11.280,-0.4,-0.09
2021-08-01 00:54:11.284,-0.415,-0.125
2021-08-01 00:54:11.288,-0.385,-0.135
2021-08-01 00:54:11.292,-0.435,-0.13
2021-08-01 00:54:11.296,-0.41,-0.125
2021-08-01 00:54:11.300,-0.355,-0.13
2021-08-01 00:54:11.304,-0.345,-0.135
2021-08-01 00:54:11.308,-0.345,-0.115
2021-08-01 00:54:11.312,-0.325,-0.1
2021-08-01 00:54:11.316,-0.3,-0.11
2021-08-01 00:54:11.320,-0.29,-0.12
2021-08-01 00:54:11.324,-0.29,-0.15
2021-08-01 00:54:11.328,-0.355,-0.155
2021-08-01 00:54:11.332,-0.345,-0.165
2021-08-01 00:54:11.336,-0.305,-0.19
2021-08-01 00:54:11.340,-0.265,-0.195
2021-08-01 00:54:11.344,-0.215,-0.22
2021-08-01 00:54:11.348,-0.215,-0.21
2021-08-01 00:54:11.352,-0.19,-0.205
2021-08-01 00:54:11.356,-0.2,-0.195
2021-08-01 00:54:11.360,-0.23,-0.2
2021-08-01 00:54:11.364,-0.21,-0.225
2021-08-01 00:54:11.368,-0.16,-0.205
2021-08-01 00:54:11.372,-0.14,-0.205
2021-08-01 00:54:11.376,-0.17,-0.21
2021-08-01 00:54:11.380,-0.17,-0.185
2021-08-01 00:54:11.384,-0.19,-0.205
2021-08-01 00:54:11.388,-0.15,-0.19
2021-08-01 00:54:11.392,-0.145,-0.18
2021-08-01 00:54:11.396,-0.135,-0.16
2021-08-01 00:54:11.400,-0.15,-0.15
2021-08-01 00:54:11.404,-0.15,-0.15
2021-08-01 00:54:11.408,-0.15,-0.13
2021-08-01 00:54:11.412,-0.155,-0.135
2021-08-01 00:54:11.416,-0.17,-0.135
2021-08-01 00:54:11.420,-0.175,-0.155
2021-08-01 00:54:11.424,-0.18,-0.145
2021-08-01 00:54:11.428,-0.18,-0.12
2021-08-01 00:54:11.432,-0.205,-0.115
2021-08-01 00:54:11.436,-0.195,-0.1
2021-08-01 00:54:11.440,-0.195,-0.095
2021-08-01 00:54:11.444,-0.185,-0.105
2021-08-01 00:54:11.448,-0.175,-0.085
2021-08-01 00:54:11.452,-0.13,-0.085
2021-08-01 00:54:11.456,-0.16,-0.055
2021-08-01 00:54:11.460,-0.165,-0.08
2021-08-01 00:54:11.464,-0.165,-0.05
2021-08-01 00:54:11.468,-0.18,-0.04
2021-08-01 00:54:11.472,-0.205,-0.02
2021-08-01 00:54:11.476,-0.21,-0.03
2021-08-01 00:54:11.480,-0.215,-0.015
2021-08-01 00:54:11.484,-0.225,-0.025
2021-08-01 00:54:11.488,-0.275,-0.02
2021-08-01 00:54:11.492,-0.265,-0.015
2021-08-01 00:54:11.496,-0.285,-0.02
2021-08-01 00:54:11.500,-0.285,-0.02
2021-08-01 00:54:11.504,-0.265,-0.01
2021-08-01 00:54:11.508,-0.25,-0.05
2021-08-01 00:54:11.512,-0.255,-0.035
2021-08-01 00:54:11.516,-0.235,-0.04
2021-08-01 00:54:11.520,-0.28,-0.055
2021-08-01 00:54:11.524,-0.315,-0.075
2021-08-01 00:54:11.528,-0.265,-0.06
2021-08-01 00:54:11.532,-0.25,-0.08
2021-08-01 00:54:11.536,-0.25,-0.055
2021-08-01 00:54:11.540,-0.23,-0.065
2021-08-01 00:54:11.544,-0.245,-0.065
2021-08-01 00:54:11.548,-0.205,-0.055
2021-08-01 00:54:11.552,-0.2,-0.05
2021-08-01 00:54:11.556,-0.155,-0.07
2021-08-01 00:54:11.560,-0.14,-0.06
2021-08-01 00:54:11.564,-0.115,-0.045
2021-08-01 00:54:11.568,-0.08,-0.025
2021-08-01 00:54:11.572,-0.08,-0.02
2021-08-01 00:54:11.576,-0.085,-0.02
2021-08-01 00:54:11.580,-0.11,-0.04
2021-08-01 00:54:11.584,-0.1,-0.05
2021-08-01 00:54:11.588,-0.1,-0.06
2021-08-01 00:54:11.592,-0.11,-0.07
2021-08-01 00:54:11.596,-0.11,-0.075
2021-08-01 00:54:11.600,-0.11,-0.095
2021-08-01 00:54:11.604,-0.095,-0.115
2021-08-01 00:54:11.608,-0.08,-0.12
2021-08-01 00:54:11.612,-0.07,-0.1
2021-08-01 00:54:11.616,-0.075,-0.095
2021-08-01 00:54:11.620,-0.06,-0.1
2021-08-01 00:54:11.624,-0.095,-0.12
2021-08-01 00:54:11.628,-0.095,-0.11
2021-08-01 00:54:11.632,-0.125,-0.08
2021-08-01 00:54:11.636,-0.065,-0.085
2021-08-01 00:54:11.640,-0.005,-0.105
2021-08-01 00:54:11.644,0.05,-0.08
2021-08-01 00:54:11.648,0.12,-0.095
2021-08-01 00:54:11.652,0.215,-0.1
2021-08-01 00:54:11.656,0.295,-0.15
2021-08-01 00:54:11.660,0.325,-0.175
2021-08-01 00:54:11.664,0.365,-0.18
2021-08-01 00:54:11.668,0.37,-0.16
2021-08-01 00:54:11.672,0.375,-0.16
2021-08-01 00:54:11.676,0.355,-0.205
2021-08-01 00:54:11.680,0.385,-0.29
2021-08-01 00:54:11.684,0.585,-0.41
2021-08-01 00:54:11.688,0.885,-0.645
2021-08-01 00:54:11.692,1.215,-0.885
2021-08-01 00:54:11.696,1.425,-1.105
2021-08-01 00:54:11.700,1.385,-1.12
2021-08-01 00:54:11.704,1.01,-0.86
2021-08-01 00:54:11.708,0.455,-0.465
2021-08-01 00:54:11.712,0.04,-0.215
2021-08-01 00:54:11.716,-0.185,-0.045
2021-08-01 00:54:11.720,-0.295,0.04
2021-08-01 00:54:11.724,-0.36,0.09
2021-08-01 00:54:11.728,-0.385,0.105
2021-08-01 00:54:11.732,-0.435,0.125
2021-08-01 00:54:11.736,-0.395,0.125
2021-08-01 00:54:11.740,-0.37,0.075
2021-08-01 00:54:11.744,-0.39,0.07
2021-08-01 00:54:11.748,-0.435,0.025
2021-08-01 00:54:11.752,-0.46,0.01
2021-08-01 00:54:11.756,-0.445,0.02
2021-08-01 00:54:11.760,-0.45,-0.005
2021-08-01 00:54:11.764,-0.42,-0.005
2021-08-01 00:54:11.768,-0.415,0.0
2021-08-01 00:54:11.772,-0.415,0.0
2021-08-01 00:54:11.776,-0.41,0.01
2021-08-01 00:54:11.780,-0.395,0.005
2021-08-01 00:54:11.784,-0.37,0.005
2021-08-01 00:54:11.788,-0.365,0.0
2021-08-01 00:54:11.792,-0.385,0.0
2021-08-01 00:54:11.796,-0.36,-0.005
2021-08-01 00:54:11.800,-0.35,0.0
2021-08-01 00:54:11.804,-0.37,-0.035
2021-08-01 00:54:11.808,-0.38,0.0
2021-08-01 00:54:11.812,-0.425,-0.04
2021-08-01 00:54:11.816,-0.415,-0.02
2021-08-01 00:54:11.820,-0.4,-0.03
2021-08-01 00:54:11.824,-0.39,-0.01
2021-08-01 00:54:11.828,-0.38,-0.04
2021-08-01 00:54:11.832,-0.37,-0.045
2021-08-01 00:54:11.836,-0.39,-0.03
2021-08-01 00:54:11.840,-0.38,-0.035
2021-08-01 00:54:11.844,-0.365,-0.01
2021-08-01 00:54:11.848,-0.36,-0.04
2021-08-01 00:54:11.852,-0.35,-0.025
2021-08-01 00:54:11.856,-0.325,-0.02
2021-08-01 00:54:11.860,-0.295,-0.035
2021-08-01 00:54:11.864,-0.28,-0.045
2021-08-01 00:54:11.868,-0.28,0.0
2021-08-01 00:54:11.872,-0.275,0.0
2021-08-01 00:54:11.876,-0.255,0.0
2021-08-01 00:54:11.880,-0.225,-0.005
2021-08-01 00:54:11.884,-0.205,0.0
2021-08-01 00:54:11.888,-0.215,-0.01
2021-08-01 00:54:11.892,-0.245,0.005
2021-08-01 00:54:11.896,-0.24,0.0
2021-08-01 00:54:11.900,-0.27,0.005
2021-08-01 00:54:11.904,-0.26,0.005
2021-08-01 00:54:11.908,-0.305,0.0
2021-08-01 00:54:11.912,-0.305,0.0
2021-08-01 00:54:11.916,-0.255,-0.03
2021-08-01 00:54:11.920,-0.225,-0.045
2021-08-01 00:54:11.924,-0.26,-0.07
2021-08-01 00:54:11.928,-0.285,-0.105
2021-08-01 00:54:11.932,-0.29,-0.135
2021-08-01 00:54:11.936,-0.275,-0.125
2021-08-01 00:54:11.940,-0.235,-0.105
2021-08-01 00:54:11.944,-0.23,-0.125
2021-08-01 00:54:11.948,-0.255,-0.125
2021-08-01 00:54:11.952,-0.26,-0.105
2021-08-01 00:54:11.956,-0.28,-0.105
2021-08-01 00:54:11.960,-0.245,-0.08
2021-08-01 00:54:11.964,-0.26,-0.09
2021-08-01 00:54:11.968,-0.215,-0.08
2021-08-01 00:54:11.972,-0.22,-0.09
2021-08-01 00:54:11.976,-0.24,-0.105
2021-08-01 00:54:11.980,-0.265,-0.11
2021-08-01 00:54:11.984,-0.24,-0.115
2021-08-01 00:54:11.988,-0.2,-0.095
2021-08-01 00:54:11.992,-0.205,-0.09
2021-08-01 00:54:11.996,-0.2,-0.11
2021-08-01 00:54:12.000,-0.23,-0.1
2021-08-01 00:54:12.004,-0.255,-0.11
2021-08-01 00:54:12.008,-0.235,-0.12
2021-08-01 00:54:12.012,-0.23,-0.105
2021-08-01 00:54:12.016,-0.205,-0.11
2021-08-01 00:54:12.020,-0.195,-0.095
2021-08-01 00:54:12.024,-0.215,-0.085
2021-08-01 00:54:12.028,-0.21,-0.1
2021-08-01 00:54:12.032,-0.225,-0.105
2021-08-01 00:54:12.036,-0.22,-0.11
2021-08-01 00:54:12.040,-0.245,-0.09
2021-08-01 00:54:12.044,-0.23,-0.11
2021-08-01 00:54:12.048,-0.235,-0.085
2021-08-01 00:54:12.052,-0.225,-0.085
2021-08-01 00:54:12.056,-0.23,-0.085
2021-08-01 00:54:12.060,-0.215,-0.1
2021-08-01 00:54:12.064,-0.2,-0.09
2021-08-01 00:54:12.068,-0.18,-0.085
2021-08-01 00:54:12.072,-0.17,-0.065
2021-08-01 00:54:12.076,-0.175,-0.08
2021-08-01 00:54:12.080,-0.13,-0.07
2021-08-01 00:54:12.084,-0.115,-0.06
2021-08-01 00:54:12.088,-0.115,-0.055
2021-08-01 00:54:12.092,-0.195,-0.04
2021-08-01 00:54:12.096,-0.21,-0.055
2021-08-01 00:54:12.100,-0.215,-0.065
2021-08-01 00:54:12.104,-0.2,-0.06
2021-08-01 00:54:12.108,-0.18,-0.07
2021-08-01 00:54:12.112,-0.21,-0.055
2021-08-01 00:54:12.116,-0.215,-0.055
2021-08-01 00:54:12.120,-0.23,-0.04
2021-08-01 00:54:12.124,-0.185,-0.08
2021-08-01 00:54:12.128,-0.185,-0.09
2021-08-01 00:54:12.132,-0.19,-0.075
2021-08-01 00:54:12.136,-0.22,-0.09
2021-08-01 00:54:12.140,-0.225,-0.06
2021-08-01 00:54:12.144,-0.225,-0.07
2021-08-01 00:54:12.148,-0.215,-0.07
2021-08-01 00:54:12.152,-0.205,-0.085
2021-08-01 00:54:12.156,-0.22,-0.07
2021-08-01 00:54:12.160,-0.19,-0.045
2021-08-01 00:54:12.164,-0.135,-0.03
2021-08-01 00:54:12.168,-0.055,-0.04
2021-08-01 00:54:12.172,0.07,-0.03
2021-08-01 00:54:12.176,0.18,-0.04
2021-08-01 00:54:12.180,0.23,-0.035
2021-08-01 00:54:12.184,0.255,-0.08
2021-08-01 00:54:12.188,0.23,-0.085
2021-08-01 00:54:12.192,0.185,-0.07
2021-08-01 00:54:12.196,0.17,-0.065
2021-08-01 00:54:12.200,0.145,-0.13
2021-08-01 00:54:12.204,0.16,-0.205
2021-08-01 00:54:12.208,0.31,-0.31
2021-08-01 00:54:12.212,0.61,-0.555
2021-08-01 00:54:12.216,0.925,-0.845
2021-08-01 00:54:12.220,1.185,-1.13
2021-08-01 00:54:12.224,1.29,-1.255
2021-08-01 00:54:12.228,1.09,-1.1
2021-08-01 00:54:12.232,0.65,-0.75
2021-08-01 00:54:12.236,0.19,-0.345
2021-08-01 00:54:12.240,-0.075,-0.14
2021-08-01 00:54:12.244,-0.2,-0.04
2021-08-01 00:54:12.248,-0.275,0.03
2021-08-01 00:54:12.252,-0.295,0.03
2021-08-01 00:54:12.256,-0.305,0.025
2021-08-01 00:54:12.260,-0.305,0.025
2021-08-01 00:54:12.264,-0.315,0.01
2021-08-01 00:54:12.268,-0.34,-0.015
2021-08-01 00:54:12.272,-0.355,-0.045
2021-08-01 00:54:12.276,-0.365,-0.04
2021-08-01 00:54:12.280,-0.37,-0.05
2021-08-01 00:54:12.284,-0.335,-0.06
2021-08-01 00:54:12.288,-0.355,-0.04
2021-08-01 00:54:12.292,-0.355,-0.045
2021-08-01 00:54:12.296,-0.34,-0.055
2021-08-01 00:54:12.300,-0.34,-0.055
2021-08-01 00:54:12.304,-0.355,-0.045
2021-08-01 00:54:12.308,-0.37,-0.035
2021-08-01 00:54:12.312,-0.38,-0.05
2021-08-01 00:54:12.316,-0.395,-0.025
2021-08-01 00:54:12.320,-0.37,-0.025
2021-08-01 00:54:12.324,-0.38,-0.045
2021-08-01 00:54:12.328,-0.38,-0.035
2021-08-01 00:54:12.332,-0.38,-0.045
2021-08-01 00:54:12.336,-0.41,-0.035
2021-08-01 00:54:12.340,-0.42,-0.045
2021-08-01 00:54:12.344,-0.43,-0.055
2021-08-01 00:54:12.348,-0.455,-0.05
2021-08-01 00:54:12.352,-0.46,-0.045
2021-08-01 00:54:12.356,-0.45,-0.06
2021-08-01 00:54:12.360,-0.465,-0.07
2021-08-01 00:54:12.364,-0.49,-0.08
2021-08-01 00:54:12.368,-0.485,-0.06
2021-08-01 00:54:12.372,-0.45,-0.055
2021-08-01 00:54:12.376,-0.44,-0.03
2021-08-01 00:54:12.380,-0.465,-0.06
2021-08-01 00:54:12.384,-0.46,-0.07
2021-08-01 00:54:12.388,-0.47,-0.04
2021-08-01 00:54:12.392,-0.43,-0.035
2021-08-01 00:54:12.396,-0.415,-0.015
2021-08-01 00:54:12.400,-0.385,-0.015
2021-08-01 00:54:12.404,-0.35,0.0
2021-08-01 00:54:12.408,-0.34,0.015
2021-08-01 00:54:12.412,-0.345,0.0
2021-08-01 00:54:12.416,-0.325,0.0
2021-08-01 00:54:12.420,-0.32,0.0
2021-08-01 00:54:12.424,-0.325,-0.01
2021-08-01 00:54:12.428,-0.295,-0.025
2021-08-01 00:54:12.432,-0.25,-0.04
2021-08-01 00:54:12.436,-0.22,-0.04
2021-08-01 00:54:12.440,-0.225,-0.025
2021-08-01 00:54:12.444,-0.24,-0.065
2021-08-01 00:54:12.448,-0.265,-0.07
2021-08-01 00:54:12.452,-0.24,-0.08
2021-08-01 00:54:12.456,-0.265,-0.095
2021-08-01 00:54:12.460,-0.225,-0.08
2021-08-01 00:54:12.464,-0.195,-0.105
2021-08-01 00:54:12.468,-0.155,-0.115
2021-08-01 00:54:12.472,-0.165,-0.11
2021-08-01 00:54:12.476,-0.17,-0.13
2021-08-01 00:54:12.480,-0.165,-0.115
2021-08-01 00:54:12.484,-0.145,-0.14
2021-08-01 00:54:12.488,-0.115,-0.125
2021-08-01 00:54:12.492,-0.08,-0.125
2021-08-01 00:54:12.496,-0.095,-0.125
2021-08-01 00:54:12.500,-0.15,-0.08
2021-08-01 00:54:12.504,-0.17,-0.095
2021-08-01 00:54:12.508,-0.17,-0.09
2021-08-01 00:54:12.512,-0.165,-0.08
2021-08-01 00:54:12.516,-0.14,-0.105
2021-08-01 00:54:12.520,-0.155,-0.115
2021-08-01 00:54:12.524,-0.19,-0.08
2021-08-01 00:54:12.528,-0.225,-0.1
2021-08-01 00:54:12.532,-0.22,-0.08
2021-08-01 00:54:12.536,-0.22,-0.105
2021-08-01 00:54:12.540,-0.225,-0.11
2021-08-01 00:54:12.544,-0.22,-0.1
2021-08-01 00:54:12.548,-0.21,-0.125
2021-08-01 00:54:12.552,-0.22,-0.11
2021-08-01 00:54:12.556,-0.275,-0.125
2021-08-01 00:54:12.560,-0.305,-0.105
2021-08-01 00:54:12.564,-0.31,-0.08
2021-08-01 00:54:12.568,-0.3,-0.085
2021-08-01 00:54:12.572,-0.25,-0.08
2021-08-01 00:54:12.576,-0.25,-0.085
2021-08-01 00:54:12.580,-0.24,-0.08
2021-08-01 00:54:12.584,-0.24,-0.095
2021-08-01 00:54:12.588,-0.23,-0.08
2021-08-01 00:54:12.592,-0.225,-0.1
2021-08-01 00:54:12.596,-0.25,-0.095
2021-08-01 00:54:12.600,-0.265,-0.08
2021-08-01 00:54:12.604,-0.255,-0.095
2021-08-01 00:54:12.608,-0.25,-0.09
2021-08-01 00:54:12.612,-0.27,-0.06
2021-08-01 00:54:12.616,-0.295,-0.09
2021-08-01 00:54:12.620,-0.275,-0.06
2021-08-01 00:54:12.624,-0.245,-0.05
2021-08-01 00:54:12.628,-0.245,-0.05
2021-08-01 00:54:12.632,-0.22,-0.05
2021-08-01 00:54:12.636,-0.2,-0.055
2021-08-01 00:54:12.640,-0.18,-0.06
2021-08-01 00:54:12.644,-0.16,-0.06
2021-08-01 00:54:12.648,-0.155,-0.04
2021-08-01 00:54:12.652,-0.155,-0.06
2021-08-01 00:54:12.656,-0.19,-0.05
2021-08-01 00:54:12.660,-0.195,-0.045
2021-08-01 00:54:12.664,-0.195,-0.05
2021-08-01 00:54:12.668,-0.175,-0.04
2021-08-01 00:54:12.672,-0.17,-0.05
2021-08-01 00:54:12.676,-0.16,-0.08
2021-08-01 00:54:12.680,-0.15,-0.08
2021-08-01 00:54:12.684,-0.145,-0.095
2021-08-01 00:54:12.688,-0.13,-0.1
2021-08-01 00:54:12.692,-0.13,-0.09
2021-08-01 00:54:12.696,-0.105,-0.09
2021-08-01 00:54:12.700,-0.12,-0.105
2021-08-01 00:54:12.704,-0.14,-0.13
2021-08-01 00:54:12.708,-0.105,-0.125
2021-08-01 00:54:12.712,-0.13,-0.13
2021-08-01 00:54:12.716,-0.16,-0.135
2021-08-01 00:54:12.720,-0.165,-0.145
2021-08-01 00:54:12.724,-0.155,-0.16
2021-08-01 00:54:12.728,-0.145,-0.15
2021-08-01 00:54:12.732,-0.135,-0.14
2021-08-01 00:54:12.736,-0.195,-0.135
2021-08-01 00:54:12.740,-0.185,-0.145
2021-08-01 00:54:12.744,-0.21,-0.145
2021-08-01 00:54:12.748,-0.165,-0.15
2021-08-01 00:54:12.752,-0.165,-0.17
2021-08-01 00:54:12.756,-0.2,-0.155
2021-08-01 00:54:12.760,-0.265,-0.17
2021-08-01 00:54:12.764,-0.265,-0.18
2021-08-01 00:54:12.768,-0.24,-0.195
2021-08-01 00:54:12.772,-0.21,-0.17
2021-08-01 00:54:12.776,-0.225,-0.165
2021-08-01 00:54:12.780,-0.24,-0.155
2021-08-01 00:54:12.784,-0.265,-0.17
2021-08-01 00:54:12.788,-0.285,-0.16
2021-08-01 00:54:12.792,-0.265,-0.16
2021-08-01 00:54:12.796,-0.23,-0.16
2021-08-01 00:54:12.800,-0.215,-0.175
2021-08-01 00:54:12.804,-0.24,-0.15
2021-08-01 00:54:12.808,-0.255,-0.155
2021-08-01 00:54:12.812,-0.26,-0.165
2021-08-01 00:54:12.816,-0.27,-0.16
2021-08-01 00:54:12.820,-0.285,-0.145
2021-08-01 00:54:12.824,-0.26,-0.135
2021-08-01 00:54:12.828,-0.27,-0.12
2021-08-01 00:54:12.832,-0.27,-0.15
2021-08-01 00:54:12.836,-0.255,-0.135
2021-08-01 00:54:12.840,-0.265,-0.155
2021-08-01 00:54:12.844,-0.285,-0.13
2021-08-01 00:54:12.848,-0.29,-0.14
2021-08-01 00:54:12.852,-0.29,-0.115
2021-08-01 00:54:12.856,-0.235,-0.12
2021-08-01 00:54:12.860,-0.215,-0.115
2021-08-01 00:54:12.864,-0.185,-0.12
2021-08-01 00:54:12.868,-0.175,-0.14
2021-08-01 00:54:12.872,-0.17,-0.145
2021-08-01 00:54:12.876,-0.17,-0.13
2021-08-01 00:54:12.880,-0.18,-0.145
2021-08-01 00:54:12.884,-0.175,-0.12
2021-08-01 00:54:12.888,-0.2,-0.1
2021-08-01 00:54:12.892,-0.215,-0.12
2021-08-01 00:54:12.896,-0.22,-0.09
2021-08-01 00:54:12.900,-0.215,-0.1
2021-08-01 00:54:12.904,-0.21,-0.105
2021-08-01 00:54:12.908,-0.215,-0.095
2021-08-01 00:54:12.912,-0.215,-0.1
2021-08-01 00:54:12.916,-0.215,-0.08
2021-08-01 00:54:12.920,-0.16,-0.09
2021-08-01 00:54:12.924,-0.12,-0.125
2021-08-01 00:54:12.928,-0.145,-0.125
2021-08-01 00:54:12.932,-0.17,-0.135
2021-08-01 00:54:12.936,-0.175,-0.12
2021-08-01 00:54:12.940,-0.135,-0.14
2021-08-01 00:54:12.944,-0.14,-0.16
2021-08-01 00:54:12.948,-0.12,-0.155
2021-08-01 00:54:12.952,-0.14,-0.15
2021-08-01 00:54:12.956,-0.175,-0.15
2021-08-01 00:54:12.960,-0.22,-0.165
2021-08-01 00:54:12.964,-0.22,-0.175
2021-08-01 00:54:12.968,-0.2,-0.2
2021-08-01 00:54:12.972,-0.17,-0.19
2021-08-01 00:54:12.976,-0.175,-0.19
2021-08-01 00:54:12.980,-0.23,-0.18
2021-08-01 00:54:12.984,-0.28,-0.2
2021-08-01 00:54:12.988,-0.3,-0.18
2021-08-01 00:54:12.992,-0.25,-0.19
2021-08-01 00:54:12.996,-0.23,-0.185
2021-08-01 00:54:13.000,-0.24,-0.2
2021-08-01 00:54:13.004,-0.23,-0.195
2021-08-01 00:54:13.008,-0.24,-0.175
2021-08-01 00:54:13.012,-0.225,-0.17
2021-08-01 00:54:13.016,-0.205,-0.185
2021-08-01 00:54:13.020,-0.165,-0.185
2021-08-01 00:54:13.024,-0.12,-0.19
2021-08-01 00:54:13.028,-0.045,-0.17
2021-08-01 00:54:13.032,0.05,-0.205
2021-08-01 00:54:13.036,0.155,-0.235
2021-08-01 00:54:13.040,0.22,-0.25
2021-08-01 00:54:13.044,0.245,-0.28
2021-08-01 00:54:13.048,0.225,-0.235
2021-08-01 00:54:13.052,0.235,-0.255
2021-08-01 00:54:13.056,0.175,-0.29
2021-08-01 00:54:13.060,0.145,-0.35
2021-08-01 00:54:13.064,0.235,-0.445
2021-08-01 00:54:13.068,0.45,-0.635
2021-08-01 00:54:13.072,0.785,-0.885
2021-08-01 00:54:13.076,1.1,-1.095
2021-08-01 00:54:13.080,1.21,-1.2
2021-08-01 00:54:13.084,1.025,-1.05
2021-08-01 00:54:13.088,0.57,-0.72
2021-08-01 00:54:13.092,0.14,-0.385
2021-08-01 00:54:13.096,-0.085,-0.215
2021-08-01 00:54:13.100,-0.145,-0.085
2021-08-01 00:54:13.104,-0.19,-0.015
2021-08-01 00:54:13.108,-0.25,0.015
2021-08-01 00:54:13.112,-0.295,0.005
2021-08-01 00:54:13.116,-0.31,0.01
2021-08-01 00:54:13.120,-0.35,-0.005
2021-08-01 00:54:13.124,-0.375,-0.02
2021-08-01 00:54:13.128,-0.405,0.0
2021-08-01 00:54:13.132,-0.42,-0.04
2021-08-01 00:54:13.136,-0.435,-0.04
2021-08-01 00:54:13.140,-0.47,-0.035
2021-08-01 00:54:13.144,-0.49,-0.02
2021-08-01 00:54:13.148,-0.5,-0.035
2021-08-01 00:54:13.152,-0.45,-0.055
2021-08-01 00:54:13.156,-0.4,-0.055
2021-08-01 00:54:13.160,-0.41,-0.07
2021-08-01 00:54:13.164,-0.38,-0.08
2021-08-01 00:54:13.168,-0.35,-0.105
2021-08-01 00:54:13.172,-0.38,-0.105
2021-08-01 00:54:13.176,-0.4,-0.125
2021-08-01 00:54:13.180,-0.425,-0.115
2021-08-01 00:54:13.184,-0.425,-0.14
2021-08-01 00:54:13.188,-0.43,-0.13
2021-08-01 00:54:13.192,-0.405,-0.14
2021-08-01 00:54:13.196,-0.4,-0.155
2021-08-01 00:54:13.200,-0.405,-0.135
2021-08-01 00:54:13.204,-0.415,-0.155
2021-08-01 00:54:13.208,-0.445,-0.14
2021-08-01 00:54:13.212,-0.465,-0.125
2021-08-01 00:54:13.216,-0.46,-0.155
2021-08-01 00:54:13.220,-0.465,-0.12
2021-08-01 00:54:13.224,-0.475,-0.14
2021-08-01 00:54:13.228,-0.495,-0.16
2021-08-01 00:54:13.232,-0.5,-0.135
2021-08-01 00:54:13.236,-0.51,-0.13
2021-08-01 00:54:13.240,-0.51,-0.145
2021-08-01 00:54:13.244,-0.485,-0.15
2021-08-01 00:54:13.248,-0.49,-0.15
2021-08-01 00:54:13.252,-0.48,-0.135
2021-08-01 00:54:13.256,-0.505,-0.14
2021-08-01 00:54:13.260,-0.5,-0.135
2021-08-01 00:54:13.264,-0.52,-0.14
2021-08-01 00:54:13.268,-0.555,-0.125
2021-08-01 00:54:13.272,-0.54,-0.13
2021-08-01 00:54:13.276,-0.53,-0.125
2021-08-01 00:54:13.280,-0.545,-0.135
2021-08-01 00:54:13.284,-0.55,-0.125
2021-08-01 00:54:13.288,-0.52,-0.13
2021-08-01 00:54:13.292,-0.5,-0.125
2021-08-01 00:54:13.296,-0.52,-0.115
2021-08-01 00:54:13.300,-0.525,-0.14
2021-08-01 00:54:13.304,-0.53,-0.125
2021-08-01 00:54:13.308,-0.475,-0.125
2021-08-01 00:54:13.312,-0.455,-0.12
2021-08-01 00:54:13.316,-0.44,-0.115
2021-08-01 00:54:13.320,-0.43,-0.115
2021-08-01 00:54:13.324,-0.405,-0.11
2021-08-01 00:54:13.328,-0.355,-0.095
2021-08-01 00:54:13.332,-0.32,-0.11
2021-08-01 00:54:13.336,-0.29,-0.11
2021-08-01 00:54:13.340,-0.26,-0.105
2021-08-01 00:54:13.344,-0.235,-0.085
2021-08-01 00:54:13.348,-0.255,-0.07
2021-08-01 00:54:13.352,-0.245,-0.065
2021-08-01 00:54:13.356,-0.3,-0.055
2021-08-01 00:54:13.360,-0.32,-0.06
2021-08-01 00:54:13.364,-0.315,-0.075
2021-08-01 00:54:13.368,-0.285,-0.09
2021-08-01 00:54:13.372,-0.275,-0.075
2021-08-01 00:54:13.376,-0.28,-0.035
2021-08-01 00:54:13.380,-0.3,-0.04
2021-08-01 00:54:13.384,-0.295,-0.045
2021-08-01 00:54:13.388,-0.295,-0.05
2021-08-01 00:54:13.392,-0.27,-0.045
2021-08-01 00:54:13.396,-0.25,-0.045
2021-08-01 00:54:13.400,-0.235,-0.065
2021-08-01 00:54:13.404,-0.215,-0.08
2021-08-01 00:54:13.408,-0.195,-0.1
2021-08-01 00:54:13.412,-0.155,-0.075
2021-08-01 00:54:13.416,-0.12,-0.08
2021-08-01 00:54:13.420,-0.145,-0.06
2021-08-01 00:54:13.424,-0.155,-0.05
2021-08-01 00:54:13.428,-0.195,-0.05
2021-08-01 00:54:13.432,-0.215,-0.065
2021-08-01 00:54:13.436,-0.265,-0.08
2021-08-01 00:54:13.440,-0.265,-0.055
2021-08-01 00:54:13.444,-0.295,-0.075
2021-08-01 00:54:13.448,-0.295,-0.06
2021-08-01 00:54:13.452,-0.26,-0.035
2021-08-01 00:54:13.456,-0.25,-0.04
2021-08-01 00:54:13.460,-0.245,-0.05
2021-08-01 00:54:13.464,-0.27,-0.065
2021-08-01 00:54:13.468,-0.275,-0.05
2021-08-01 00:54:13.472,-0.305,-0.08
2021-08-01 00:54:13.476,-0.325,-0.07
2021-08-01 00:54:13.480,-0.3,-0.07
2021-08-01 00:54:13.484,-0.325,-0.055
2021-08-01 00:54:13.488,-0.32,-0.06
2021-08-01 00:54:13.492,-0.315,-0.055
2021-08-01 00:54:13.496,-0.275,-0.055
2021-08-01 00:54:13.500,-0.25,-0.065
2021-08-01 00:54:13.504,-0.26,-0.05
2021-08-01 00:54:13.508,-0.3,-0.035
2021-08-01 00:54:13.512,-0.385,-0.03
2021-08-01 00:54:13.516,-0.37,-0.045
2021-08-01 00:54:13.520,-0.345,-0.045
2021-08-01 00:54:13.524,-0.34,-0.01
2021-08-01 00:54:13.528,-0.36,-0.025
2021-08-01 00:54:13.532,-0.32,-0.025
2021-08-01 00:54:13.536,-0.285,-0.035
2021-08-01 00:54:13.540,-0.27,-0.035
2021-08-01 00:54:13.544,-0.25,-0.035
2021-08-01 00:54:13.548,-0.22,-0.015
2021-08-01 00:54:13.552,-0.18,0.0
2021-08-01 00:54:13.556,-0.185,-0.015
2021-08-01 00:54:13.560,-0.175,-0.005
2021-08-01 00:54:13.564,-0.14,-0.015
2021-08-01 00:54:13.568,-0.08,-0.015
2021-08-01 00:54:13.572,0.015,-0.01
2021-08-01 00:54:13.576,0.135,-0.02
2021-08-01 00:54:13.580,0.195,-0.035
2021-08-01 00:54:13.584,0.235,-0.08
2021-08-01 00:54:13.588,0.235,-0.095
2021-08-01 00:54:13.592,0.22,-0.09
2021-08-01 00:54:13.596,0.19,-0.11
2021-08-01 00:54:13.600,0.165,-0.17
2021-08-01 00:54:13.604,0.235,-0.265
2021-08-01 00:54:13.608,0.49,-0.42
2021-08-01 00:54:13.612,0.84,-0.675
2021-08-01 00:54:13.616,1.16,-0.94
2021-08-01 00:54:13.620,1.31,-1.075
2021-08-01 00:54:13.624,1.185,-1.015
2021-08-01 00:54:13.628,0.76,-0.695
2021-08-01 00:54:13.632,0.29,-0.3
2021-08-01 00:54:13.636,0.005,-0.085
2021-08-01 00:54:13.640,-0.105,0.03
2021-08-01 00:54:13.644,-0.195,0.105
2021-08-01 00:54:13.648,-0.25,0.12
2021-08-01 00:54:13.652,-0.28,0.105
2021-08-01 00:54:13.656,-0.285,0.095
2021-08-01 00:54:13.660,-0.26,0.09
2021-08-01 00:54:13.664,-0.32,0.075
2021-08-01 00:54:13.668,-0.39,0.045
2021-08-01 00:54:13.672,-0.375,0.03
2021-08-01 00:54:13.676,-0.385,0.005
2021-08-01 00:54:13.680,-0.41,0.015
2021-08-01 00:54:13.684,-0.445,0.0
2021-08-01 00:54:13.688,-0.43,0.005
2021-08-01 00:54:13.692,-0.44,0.0
2021-08-01 00:54:13.696,-0.47,0.0
2021-08-01 00:54:13.700,-0.495,-0.01
2021-08-01 00:54:13.704,-0.505,-0.01
2021-08-01 00:54:13.708,-0.5,0.0
2021-08-01 00:54:13.712,-0.475,0.0
2021-08-01 00:54:13.716,-0.475,0.01
2021-08-01 00:54:13.720,-0.49,0.015
2021-08-01 00:54:13.724,-0.47,0.0
2021-08-01 00:54:13.728,-0.48,-0.01
2021-08-01 00:54:13.732,-0.485,0.0
2021-08-01 00:54:13.736,-0.54,0.005
2021-08-01 00:54:13.740,-0.555,0.015
2021-08-01 00:54:13.744,-0.56,0.01
2021-08-01 00:54:13.748,-0.54,0.025
2021-08-01 00:54:13.752,-0.52,0.01
2021-08-01 00:54:13.756,-0.475,0.02
2021-08-01 00:54:13.760,-0.47,0.02
2021-08-01 00:54:13.764,-0.475,0.005
2021-08-01 00:54:13.768,-0.5,0.015
2021-08-01 00:54:13.772,-0.465,0.035
2021-08-01 00:54:13.776,-0.45,0.005
2021-08-01 00:54:13.780,-0.43,0.035
2021-08-01 00:54:13.784,-0.425,0.015
2021-08-01 00:54:13.788,-0.38,0.025
2021-08-01 00:54:13.792,-0.395,0.035
2021-08-01 00:54:13.796,-0.4,0.025
2021-08-01 00:54:13.800,-0.38,0.035
2021-08-01 00:54:13.804,-0.38,0.02
2021-08-01 00:54:13.808,-0.395,0.03
2021-08-01 00:54:13.812,-0.39,0.02
2021-08-01 00:54:13.816,-0.41,0.01
2021-08-01 00:54:13.820,-0.415,0.015
2021-08-01 00:54:13.824,-0.38,0.015
2021-08-01 00:54:13.828,-0.375,0.01
2021-08-01 00:54:13.832,-0.37,0.015
2021-08-01 00:54:13.836,-0.34,-0.01
2021-08-01 00:54:13.840,-0.31,0.015
2021-08-01 00:54:13.844,-0.285,0.015
2021-08-01 00:54:13.848,-0.245,0.005
2021-08-01 00:54:13.852,-0.275,0.015
2021-08-01 00:54:13.856,-0.28,0.005
2021-08-01 00:54:13.860,-0.31,0.01
2021-08-01 00:54:13.864,-0.275,0.015
2021-08-01 00:54:13.868,-0.23,0.0
2021-08-01 00:54:13.872,-0.27,0.01
2021-08-01 00:54:13.876,-0.255,0.01
2021-08-01 00:54:13.880,-0.23,0.02
2021-08-01 00:54:13.884,-0.235,-0.01
2021-08-01 00:54:13.888,-0.22,-0.015
2021-08-01 00:54:13.892,-0.24,-0.04
2021-08-01 00:54:13.896,-0.22,-0.035
2021-08-01 00:54:13.900,-0.215,-0.04
2021-08-01 00:54:13.904,-0.21,-0.06
2021-08-01 00:54:13.908,-0.195,-0.055
2021-08-01 00:54:13.912,-0.215,-0.05
2021-08-01 00:54:13.916,-0.245,-0.06
2021-08-01 00:54:13.920,-0.23,-0.05
2021-08-01 00:54:13.924,-0.24,-0.05
2021-08-01 00:54:13.928,-0.265,-0.05
2021-08-01 00:54:13.932,-0.25,-0.03
2021-08-01 00:54:13.936,-0.24,-0.055
2021-08-01 00:54:13.940,-0.265,-0.05
2021-08-01 00:54:13.944,-0.29,-0.035
2021-08-01 00:54:13.948,-0.315,-0.035
2021-08-01 00:54:13.952,-0.305,-0.03
2021-08-01 00:54:13.956,-0.28,-0.03
2021-08-01 00:54:13.960,-0.24,-0.025
2021-08-01 00:54:13.964,-0.26,-0.005
2021-08-01 00:54:13.968,-0.295,0.0
2021-08-01 00:54:13.972,-0.315,0.015
2021-08-01 00:54:13.976,-0.315,0.0
2021-08-01 00:54:13.980,-0.295,-0.02
2021-08-01 00:54:13.984,-0.3,-0.005
2021-08-01 00:54:13.988,-0.31,-0.025
2021-08-01 00:54:13.992,-0.29,0.005
2021-08-01 00:54:13.996,-0.26,0.0
2021-08-01 00:54:14.000,-0.255,-0.025
2021-08-01 00:54:14.004,-0.275,-0.025
2021-08-01 00:54:14.008,-0.26,-0.03
2021-08-01 00:54:14.012,-0.28,-0.02
2021-08-01 00:54:14.016,-0.26,-0.01
2021-08-01 00:54:14.020,-0.25,-0.02
2021-08-01 00:54:14.024,-0.23,-0.005
2021-08-01 00:54:14.028,-0.21,0.0
2021-08-01 00:54:14.032,-0.185,-0.01
2021-08-01 00:54:14.036,-0.21,0.005
2021-08-01 00:54:14.040,-0.22,-0.005
2021-08-01 00:54:14.044,-0.225,0.0
2021-08-01 00:54:14.048,-0.175,0.0
2021-08-01 00:54:14.052,-0.17,-0.02
2021-08-01 00:54:14.056,-0.205,-0.02
2021-08-01 00:54:14.060,-0.225,-0.035
2021-08-01 00:54:14.064,-0.22,-0.025
2021-08-01 00:54:14.068,-0.23,-0.01
2021-08-01 00:54:14.072,-0.225,-0.005
2021-08-01 00:54:14.076,-0.195,-0.015
2021-08-01 00:54:14.080,-0.16,-0.02
2021-08-01 00:54:14.084,-0.135,-0.01
2021-08-01 00:54:14.088,-0.095,0.0
2021-08-01 00:54:14.092,-0.015,-0.005
2021-08-01 00:54:14.096,0.05,-0.01
2021-08-01 00:54:14.100,0.105,-0.05
2021-08-01 00:54:14.104,0.18,-0.085
2021-08-01 00:54:14.108,0.215,-0.095
2021-08-01 00:54:14.112,0.175,-0.065
2021-08-01 00:54:14.116,0.13,-0.035
2021-08-01 00:54:14.120,0.1,-0.065
2021-08-01 00:54:14.124,0.11,-0.16
2021-08-01 00:54:14.128,0.23,-0.295
2021-08-01 00:54:14.132,0.495,-0.5
2021-08-01 00:54:14.136,0.855,-0.775
2021-08-01 00:54:14.140,1.175,-1.025
2021-08-01 00:54:14.144,1.31,-1.14
2021-08-01 00:54:14.148,1.14,-1.04
2021-08-01 00:54:14.152,0.705,-0.705
2021-08-01 00:54:14.156,0.225,-0.325
2021-08-01 00:54:14.160,-0.06,-0.09
2021-08-01 00:54:14.164,-0.2,0.02
2021-08-01 00:54:14.168,-0.265,0.08
2021-08-01 00:54:14.172,-0.305,0.1
2021-08-01 00:54:14.176,-0.335,0.08
2021-08-01 00:54:14.180,-0.395,0.085
2021-08-01 00:54:14.184,-0.42,0.08
2021-08-01 00:54:14.188,-0.445,0.06
2021-08-01 00:54:14.192,-0.47,0.03
2021-08-01 00:54:14.196,-0.465,0.015
2021-08-01 00:54:14.200,-0.465,0.015
2021-08-01 00:54:14.204,-0.49,0.03
2021-08-01 00:54:14.208,-0.515,0.005
2021-08-01 00:54:14.212,-0.515,0.02
2021-08-01 00:54:14.216,-0.54,-0.01
2021-08-01 00:54:14.220,-0.54,0.0
2021-08-01 00:54:14.224,-0.5,0.0
2021-08-01 00:54:14.228,-0.505,0.0
2021-08-01 00:54:14.232,-0.495,-0.01
2021-08-01 00:54:14.236,-0.475,-0.005
2021-08-01 00:54:14.240,-0.46,0.0
2021-08-01 00:54:14.244,-0.455,0.0
2021-08-01 00:54:14.248,-0.455,0.0
2021-08-01 00:54:14.252,-0.445,0.015
2021-08-01 00:54:14.256,-0.44,0.0
2021-08-01 00:54:14.260,-0.39,0.005
2021-08-01 00:54:14.264,-0.405,0.005
2021-08-01 00:54:14.268,-0.44,0.005
2021-08-01 00:54:14.272,-0.49,0.005
2021-08-01 00:54:14.276,-0.505,0.01
2021-08-01 00:54:14.280,-0.505,0.005
2021-08-01 00:54:14.284,-0.48,0.02
2021-08-01 00:54:14.288,-0.47,0.0
2021-08-01 00:54:14.292,-0.46,0.005
2021-08-01 00:54:14.296,-0.465,0.025
2021-08-01 00:54:14.300,-0.47,0.03
2021-08-01 00:54:14.304,-0.47,0.025
2021-08-01 00:54:14.308,-0.465,0.01
2021-08-01 00:54:14.312,-0.475,-0.01
2021-08-01 00:54:14.316,-0.495,0.005
2021-08-01 00:54:14.320,-0.49,0.02
2021-08-01 00:54:14.324,-0.47,0.0
2021-08-01 00:54:14.328,-0.465,-0.03
2021-08-01 00:54:14.332,-0.485,-0.01
2021-08-01 00:54:14.336,-0.51,0.01
2021-08-01 00:54:14.340,-0.495,-0.015
2021-08-01 00:54:14.344,-0.48,-0.015
2021-08-01 00:54:14.348,-0.475,-0.025
2021-08-01 00:54:14.352,-0.48,-0.035
2021-08-01 00:54:14.356,-0.475,-0.055
2021-08-01 00:54:14.360,-0.445,-0.055
2021-08-01 00:54:14.364,-0.415,-0.06
2021-08-01 00:54:14.368,-0.42,-0.06
2021-08-01 00:54:14.372,-0.38,-0.05
2021-08-01 00:54:14.376,-0.375,-0.055
2021-08-01 00:54:14.380,-0.35,-0.055
2021-08-01 00:54:14.384,-0.33,-0.075
2021-08-01 00:54:14.388,-0.35,-0.05
2021-08-01 00:54:14.392,-0.355,-0.055
2021-08-01 00:54:14.396,-0.3,-0.045
2021-08-01 00:54:14.400,-0.27,-0.04
2021-08-01 00:54:14.404,-0.255,-0.075
2021-08-01 00:54:14.408,-0.24,-0.055
2021-08-01 00:54:14.412,-0.235,-0.07
2021-08-01 00:54:14.416,-0.24,-0.07
2021-08-01 00:54:14.420,-0.275,-0.08
2021-08-01 00:54:14.424,-0.28,-0.085
2021-08-01 00:54:14.428,-0.285,-0.06
2021-08-01 00:54:14.432,-0.27,-0.055
2021-08-01 00:54:14.436,-0.275,-0.05
2021-08-01 00:54:14.440,-0.26,-0.07
2021-08-01 00:54:14.444,-0.23,-0.06
2021-08-01 00:54:14.448,-0.23,-0.05
2021-08-01 00:54:14.452,-0.215,-0.045
2021-08-01 00:54:14.456,-0.16,-0.04
2021-08-01 00:54:14.460,-0.115,-0.045
2021-08-01 00:54:14.464,-0.065,-0.03
2021-08-01 00:54:14.468,0.02,-0.045
2021-08-01 00:54:14.472,0.11,-0.045
2021-08-01 00:54:14.476,0.17,-0.085
2021-08-01 00:54:14.480,0.15,-0.095
2021-08-01 00:54:14.484,0.13,-0.04
2021-08-01 00:54:14.488,0.085,-0.01
2021-08-01 00:54:14.492,0.05,-0.05
2021-08-01 00:54:14.496,0.09,-0.085
2021-08-01 00:54:14.500,0.32,-0.215
2021-08-01 00:54:14.504,0.645,-0.435
2021-08-01 00:54:14.508,0.995,-0.735
2021-08-01 00:54:14.512,1.2,-0.96
2021-08-01 00:54:14.516,1.19,-0.995
2021-08-01 00:54:14.520,0.92,-0.79
2021-08-01 00:54:14.524,0.425,-0.435
2021-08-01 00:54:14.528,0.06,-0.105
2021-08-01 00:54:14.532,-0.12,0.1
2021-08-01 00:54:14.536,-0.185,0.135
2021-08-01 00:54:14.540,-0.25,0.14
2021-08-01 00:54:14.544,-0.34,0.15
2021-08-01 00:54:14.548,-0.42,0.135
2021-08-01 00:54:14.552,-0.465,0.115
2021-08-01 00:54:14.556,-0.46,0.08
2021-08-01 00:54:14.560,-0.475,0.025
2021-08-01 00:54:14.564,-0.455,-0.01
2021-08-01 00:54:14.568,-0.46,-0.02
2021-08-01 00:54:14.572,-0.46,-0.01
2021-08-01 00:54:14.576,-0.47,-0.015
2021-08-01 00:54:14.580,-0.47,-0.03
2021-08-01 00:54:14.584,-0.5,-0.02
2021-08-01 00:54:14.588,-0.515,-0.05
2021-08-01 00:54:14.592,-0.515,-0.02
2021-08-01 00:54:14.596,-0.51,-0.035
2021-08-01 00:54:14.600,-0.48,-0.03
2021-08-01 00:54:14.604,-0.48,-0.03
2021-08-01 00:54:14.608,-0.485,-0.05
2021-08-01 00:54:14.612,-0.49,-0.025
2021-08-01 00:54:14.616,-0.485,-0.02
2021-08-01 00:54:14.620,-0.5,0.0
2021-08-01 00:54:14.624,-0.515,0.0
2021-08-01 00:54:14.628,-0.51,-0.02
2021-08-01 00:54:14.632,-0.525,-0.01
2021-08-01 00:54:14.636,-0.545,-0.01
2021-08-01 00:54:14.640,-0.53,0.005
2021-08-01 00:54:14.644,-0.545,0.015
2021-08-01 00:54:14.648,-0.565,-0.015
2021-08-01 00:54:14.652,-0.575,-0.005
2021-08-01 00:54:14.656,-0.61,-0.005
2021-08-01 00:54:14.660,-0.6,0.0
2021-08-01 00:54:14.664,-0.575,-0.015
2021-08-01 00:54:14.668,-0.56,-0.02
2021-08-01 00:54:14.672,-0.55,-0.055
2021-08-01 00:54:14.676,-0.54,-0.065
2021-08-01 00:54:14.680,-0.505,-0.075
2021-08-01 00:54:14.684,-0.47,-0.095
2021-08-01 00:54:14.688,-0.475,-0.06
2021-08-01 00:54:14.692,-0.48,-0.08
2021-08-01 00:54:14.696,-0.44,-0.07
2021-08-01 00:54:14.700,-0.42,-0.05
2021-08-01 00:54:14.704,-0.43,-0.07
2021-08-01 00:54:14.708,-0.42,-0.075
2021-08-01 00:54:14.712,-0.385,-0.04
2021-08-01 00:54:14.716,-0.37,-0.04
2021-08-01 00:54:14.720,-0.375,-0.01
2021-08-01 00:54:14.724,-0.38,-0.04
2021-08-01 00:54:14.728,-0.35,-0.045
2021-08-01 00:54:14.732,-0.345,-0.04
2021-08-01 00:54:14.736,-0.31,-0.065
2021-08-01 00:54:14.740,-0.27,-0.07
2021-08-01 00:54:14.744,-0.27,-0.065
2021-08-01 00:54:14.748,-0.275,-0.06
2021-08-01 00:54:14.752,-0.33,-0.07
2021-08-01 00:54:14.756,-0.36,-0.06
2021-08-01 00:54:14.760,-0.36,-0.055
2021-08-01 00:54:14.764,-0.31,-0.06
2021-08-01 00:54:14.768,-0.31,-0.055
2021-08-01 00:54:14.772,-0.31,-0.075
2021-08-01 00:54:14.776,-0.35,-0.09
2021-08-01 00:54:14.780,-0.35,-0.1
2021-08-01 00:54:14.784,-0.34,-0.09
2021-08-01 00:54:14.788,-0.31,-0.075
2021-08-01 00:54:14.792,-0.275,-0.07
2021-08-01 00:54:14.796,-0.32,-0.08
2021-08-01 00:54:14.800,-0.34,-0.08
2021-08-01 00:54:14.804,-0.33,-0.075
2021-08-01 00:54:14.808,-0.31,-0.075
2021-08-01 00:54:14.812,-0.275,-0.08
2021-08-01 00:54:14.816,-0.29,-0.095
2021-08-01 00:54:14.820,-0.31,-0.08
2021-08-01 00:54:14.824,-0.31,-0.1
2021-08-01 00:54:14.828,-0.32,-0.06
2021-08-01 00:54:14.832,-0.31,-0.08
2021-08-01 00:54:14.836,-0.3,-0.08
2021-08-01 00:54:14.840,-0.325,-0.08
2021-08-01 00:54:14.844,-0.335,-0.11
2021-08-01 00:54:14.848,-0.325,-0.085
2021-08-01 00:54:14.852,-0.35,-0.08
2021-08-01 00:54:14.856,-0.365,-0.08
2021-08-01 00:54:14.860,-0.41,-0.08
2021-08-01 00:54:14.864,-0.43,-0.105
2021-08-01 00:54:14.868,-0.425,-0.115
2021-08-01 00:54:14.872,-0.38,-0.105
2021-08-01 00:54:14.876,-0.35,-0.105
2021-08-01 00:54:14.880,-0.37,-0.08
2021-08-01 00:54:14.884,-0.44,-0.08
2021-08-01 00:54:14.888,-0.47,-0.12
2021-08-01 00:54:14.892,-0.445,-0.08
2021-08-01 00:54:14.896,-0.41,-0.045
2021-08-01 00:54:14.900,-0.375,-0.075
2021-08-01 00:54:14.904,-0.35,-0.04
2021-08-01 00:54:14.908,-0.345,-0.065
2021-08-01 00:54:14.912,-0.29,-0.06
2021-08-01 00:54:14.916,-0.255,-0.065
2021-08-01 00:54:14.920,-0.19,-0.08
2021-08-01 00:54:14.924,-0.2,-0.06
2021-08-01 00:54:14.928,-0.2,-0.085
2021-08-01 00:54:14.932,-0.215,-0.06
2021-08-01 00:54:14.936,-0.205,-0.06
2021-08-01 00:54:14.940,-0.19,-0.05
2021-08-01 00:54:14.944,-0.195,-0.055
2021-08-01 00:54:14.948,-0.22,-0.05
2021-08-01 00:54:14.952,-0.195,-0.06
2021-08-01 00:54:14.956,-0.205,-0.08
2021-08-01 00:54:14.960,-0.21,-0.1
2021-08-01 00:54:14.964,-0.21,-0.075
2021-08-01 00:54:14.968,-0.215,-0.07
2021-08-01 00:54:14.972,-0.23,-0.07
2021-08-01 00:54:14.976,-0.24,-0.065
2021-08-01 00:54:14.980,-0.27,-0.07
2021-08-01 00:54:14.984,-0.28,-0.07
2021-08-01 00:54:14.988,-0.265,-0.08
2021-08-01 00:54:14.992,-0.27,-0.08
2021-08-01 00:54:14.996,-0.315,-0.065
2021-08-01 00:54:15.000,-0.32,-0.08
2021-08-01 00:54:15.004,-0.32,-0.09
2021-08-01 00:54:15.008,-0.3,-0.1
2021-08-01 00:54:15.012,-0.32,-0.1
2021-08-01 00:54:15.016,-0.32,-0.1
2021-08-01 00:54:15.020,-0.33,-0.08
2021-08-01 00:54:15.024,-0.31,-0.08
2021-08-01 00:54:15.028,-0.31,-0.08
2021-08-01 00:54:15.032,-0.29,-0.08
2021-08-01 00:54:15.036,-0.32,-0.085
2021-08-01 00:54:15.040,-0.34,-0.095
2021-08-01 00:54:15.044,-0.305,-0.075
2021-08-01 00:54:15.048,-0.29,-0.065
2021-08-01 00:54:15.052,-0.315,-0.085
2021-08-01 00:54:15.056,-0.33,-0.08
2021-08-01 00:54:15.060,-0.375,-0.095
2021-08-01 00:54:15.064,-0.365,-0.095
2021-08-01 00:54:15.068,-0.32,-0.1
2021-08-01 00:54:15.072,-0.285,-0.09
2021-08-01 00:54:15.076,-0.28,-0.08
2021-08-01 00:54:15.080,-0.305,-0.06
2021-08-01 00:54:15.084,-0.32,-0.08
2021-08-01 00:54:15.088,-0.34,-0.1
2021-08-01 00:54:15.092,-0.345,-0.105
2021-08-01 00:54:15.096,-0.355,-0.11
2021-08-01 00:54:15.100,-0.35,-0.08
2021-08-01 00:54:15.104,-0.335,-0.09
2021-08-01 00:54:15.108,-0.34,-0.08
2021-08-01 00:54:15.112,-0.4,-0.085
2021-08-01 00:54:15.116,-0.39,-0.11
2021-08-01 00:54:15.120,-0.385,-0.1
2021-08-01 00:54:15.124,-0.36,-0.08
2021-08-01 00:54:15.128,-0.325,-0.08
2021-08-01 00:54:15.132,-0.335,-0.07
2021-08-01 00:54:15.136,-0.355,-0.07
2021-08-01 00:54:15.140,-0.305,-0.06
2021-08-01 00:54:15.144,-0.27,-0.05
2021-08-01 00:54:15.148,-0.28,-0.055
2021-08-01 00:54:15.152,-0.245,-0.015
2021-08-01 00:54:15.156,-0.23,-0.01
2021-08-01 00:54:15.160,-0.22,0.0
2021-08-01 00:54:15.164,-0.2,-0.015
2021-08-01 00:54:15.168,-0.21,-0.01
2021-08-01 00:54:15.172,-0.19,-0.025
2021-08-01 00:54:15.176,-0.17,-0.03
2021-08-01 00:54:15.180,-0.16,-0.045
2021-08-01 00:54:15.184,-0.15,-0.065
2021-08-01 00:54:15.188,-0.13,-0.07
2021-08-01 00:54:15.192,-0.145,-0.08
2021-08-01 00:54:15.196,-0.16,-0.055
2021-08-01 00:54:15.200,-0.16,-0.06
2021-08-01 00:54:15.204,-0.205,-0.07
2021-08-01 00:54:15.208,-0.25,-0.065
2021-08-01 00:54:15.212,-0.265,-0.065
2021-08-01 00:54:15.216,-0.26,-0.08
2021-08-01 00:54:15.220,-0.26,-0.05
2021-08-01 00:54:15.224,-0.27,-0.07
2021-08-01 00:54:15.228,-0.255,-0.09
2021-08-01 00:54:15.232,-0.245,-0.085
2021-08-01 00:54:15.236,-0.285,-0.09
2021-08-01 00:54:15.240,-0.32,-0.045
2021-08-01 00:54:15.244,-0.32,-0.06
2021-08-01 00:54:15.248,-0.31,-0.06
2021-08-01 00:54:15.252,-0.3,-0.05
2021-08-01 00:54:15.256,-0.3,-0.055
2021-08-01 00:54:15.260,-0.3,-0.06
2021-08-01 00:54:15.264,-0.28,-0.07
2021-08-01 00:54:15.268,-0.27,-0.05
2021-08-01 00:54:15.272,-0.27,-0.045
2021-08-01 00:54:15.276,-0.295,-0.07
2021-08-01 00:54:15.280,-0.295,-0.05
2021-08-01 00:54:15.284,-0.245,-0.08
2021-08-01 00:54:15.288,-0.255,-0.075
2021-08-01 00:54:15.292,-0.28,-0.075
2021-08-01 00:54:15.296,-0.325,-0.095
2021-08-01 00:54:15.300,-0.33,-0.11
2021-08-01 00:54:15.304,-0.35,-0.095
2021-08-01 00:54:15.308,-0.34,-0.095
2021-08-01 00:54:15.312,-0.32,-0.075
2021-08-01 00:54:15.316,-0.31,-0.11
2021-08-01 00:54:15.320,-0.295,-0.1
2021-08-01 00:54:15.324,-0.28,-0.105
2021-08-01 00:54:15.328,-0.24,-0.11
2021-08-01 00:54:15.332,-0.13,-0.115
2021-08-01 00:54:15.336,-0.02,-0.12
2021-08-01 00:54:15.340,0.055,-0.14
2021-08-01 00:54:15.344,0.095,-0.145
2021-08-01 00:54:15.348,0.155,-0.16
2021-08-01 00:54:15.352,0.21,-0.15
2021-08-01 00:54:15.356,0.205,-0.12
2021-08-01 00:54:15.360,0.185,-0.15
2021-08-01 00:54:15.364,0.15,-0.24
2021-08-01 00:54:15.368,0.255,-0.33
2021-08-01 00:54:15.372,0.48,-0.5
2021-08-01 00:54:15.376,0.8,-0.765
2021-08-01 00:54:15.380,1.115,-1.005
2021-08-01 00:54:15.384,1.34,-1.15
2021-08-01 00:54:15.388,1.325,-1.1
2021-08-01 00:54:15.392,1.015,-0.825
2021-08-01 00:54:15.396,0.49,-0.43
2021-08-01 00:54:15.400,0.07,-0.12
2021-08-01 00:54:15.404,-0.13,0.025
2021-08-01 00:54:15.408,-0.205,0.11
2021-08-01 00:54:15.412,-0.245,0.145
2021-08-01 00:54:15.416,-0.29,0.155
2021-08-01 00:54:15.420,-0.345,0.135
2021-08-01 00:54:15.424,-0.345,0.11
2021-08-01 00:54:15.428,-0.355,0.075
2021-08-01 00:54:15.432,-0.385,0.095
2021-08-01 00:54:15.436,-0.405,0.04
2021-08-01 00:54:15.440,-0.41,0.045
2021-08-01 00:54:15.444,-0.41,0.035
2021-08-01 00:54:15.448,-0.385,0.04
2021-08-01 00:54:15.452,-0.4,0.035
2021-08-01 00:54:15.456,-0.41,0.035
2021-08-01 00:54:15.460,-0.42,0.025
2021-08-01 00:54:15.464,-0.425,0.02
2021-08-01 00:54:15.468,-0.425,0.025
2021-08-01 00:54:15.472,-0.44,0.03
2021-08-01 00:54:15.476,-0.44,0.0
2021-08-01 00:54:15.480,-0.445,-0.005
2021-08-01 00:54:15.484,-0.41,0.02
2021-08-01 00:54:15.488,-0.395,0.0
2021-08-01 00:54:15.492,-0.41,-0.04
2021-08-01 00:54:15.496,-0.495,-0.02
2021-08-01 00:54:15.500,-0.525,0.0
2021-08-01 00:54:15.504,-0.505,-0.035
2021-08-01 00:54:15.508,-0.47,-0.025
2021-08-01 00:54:15.512,-0.47,-0.035
2021-08-01 00:54:15.516,-0.49,-0.035
2021-08-01 00:54:15.520,-0.48,-0.03
2021-08-01 00:54:15.524,-0.45,-0.025
2021-08-01 00:54:15.528,-0.48,-0.03
2021-08-01 00:54:15.532,-0.49,-0.03
2021-08-01 00:54:15.536,-0.5,-0.025
2021-08-01 00:54:15.540,-0.46,-0.01
2021-08-01 00:54:15.544,-0.44,-0.025
2021-08-01 00:54:15.548,-0.47,-0.03
2021-08-01 00:54:15.552,-0.49,-0.04
2021-08-01 00:54:15.556,-0.53,-0.055
2021-08-01 00:54:15.560,-0.51,-0.035
2021-08-01 00:54:15.564,-0.535,-0.015
2021-08-01 00:54:15.568,-0.55,-0.035
2021-08-01 00:54:15.572,-0.53,-0.04
2021-08-01 00:54:15.576,-0.545,-0.025
2021-08-01 00:54:15.580,-0.53,-0.015
2021-08-01 00:54:15.584,-0.495,0.0
2021-08-01 00:54:15.588,-0.485,-0.025
2021-08-01 00:54:15.592,-0.47,-0.005
2021-08-01 00:54:15.596,-0.44,-0.005
2021-08-01 00:54:15.600,-0.45,-0.025
2021-08-01 00:54:15.604,-0.425,0.0
2021-08-01 00:54:15.608,-0.39,0.02
2021-08-01 00:54:15.612,-0.345,0.02
2021-08-01 00:54:15.616,-0.335,0.025
2021-08-01 00:54:15.620,-0.35,0.025
2021-08-01 00:54:15.624,-0.375,0.025
2021-08-01 00:54:15.628,-0.34,0.03
2021-08-01 00:54:15.632,-0.36,0.03
2021-08-01 00:54:15.636,-0.32,0.03
2021-08-01 00:54:15.640,-0.315,0.01
2021-08-01 00:54:15.644,-0.29,0.0
2021-08-01 00:54:15.648,-0.25,-0.01
2021-08-01 00:54:15.652,-0.24,-0.02
2021-08-01 00:54:15.656,-0.22,-0.005
2021-08-01 00:54:15.660,-0.24,-0.04
2021-08-01 00:54:15.664,-0.235,-0.02
2021-08-01 00:54:15.668,-0.215,-0.05
2021-08-01 00:54:15.672,-0.2,-0.05
2021-08-01 00:54:15.676,-0.18,-0.07
2021-08-01 00:54:15.680,-0.18,-0.065
2021-08-01 00:54:15.684,-0.2,-0.055
2021-08-01 00:54:15.688,-0.23,-0.07
2021-08-01 00:54:15.692,-0.22,-0.045
2021-08-01 00:54:15.696,-0.205,-0.055
2021-08-01 00:54:15.700,-0.2,-0.075
2021-08-01 00:54:15.704,-0.185,-0.02
2021-08-01 00:54:15.708,-0.19,-0.04
2021-08-01 00:54:15.712,-0.205,-0.03
2021-08-01 00:54:15.716,-0.21,-0.04
2021-08-01 00:54:15.720,-0.21,-0.03
2021-08-01 00:54:15.724,-0.17,-0.05
2021-08-01 00:54:15.728,-0.17,-0.01
2021-08-01 00:54:15.732,-0.21,-0.02
2021-08-01 00:54:15.736,-0.24,-0.03
2021-08-01 00:54:15.740,-0.24,-0.02
2021-08-01 00:54:15.744,-0.265,-0.015
2021-08-01 00:54:15.748,-0.27,-0.02
2021-08-01 00:54:15.752,-0.27,-0.025
2021-08-01 00:54:15.756,-0.26,-0.02
2021-08-01 00:54:15.760,-0.24,0.0
2021-08-01 00:54:15.764,-0.205,-0.015
2021-08-01 00:54:15.768,-0.225,0.0
2021-08-01 00:54:15.772,-0.22,0.0
2021-08-01 00:54:15.776,-0.265,-0.03
2021-08-01 00:54:15.780,-0.27,0.0
2021-08-01 00:54:15.784,-0.235,-0.025
2021-08-01 00:54:15.788,-0.155,-0.03
2021-08-01 00:54:15.792,-0.08,-0.02
2021-08-01 00:54:15.796,-0.02,-0.06
2021-08-01 00:54:15.800,0.01,-0.08
2021-08-01 00:54:15.804,0.06,-0.095
2021-08-01 00:54:15.808,0.04,-0.075
2021-08-01 00:54:15.812,0.015,-0.05
2021-08-01 00:54:15.816,-0.03,-0.09
2021-08-01 00:54:15.820,0.005,-0.17
2021-08-01 00:54:15.824,0.235,-0.265
2021-08-01 00:54:15.828,0.585,-0.495
2021-08-01 00:54:15.832,0.96,-0.82
2021-08-01 00:54:15.836,1.24,-1.04
2021-08-01 00:54:15.840,1.29,-1.065
2021-08-01 00:54:15.844,1.0,-0.855
2021-08-01 00:54:15.848,0.47,-0.445
2021-08-01 00:54:15.852,0.085,-0.095
2021-08-01 00:54:15.856,-0.13,0.1
2021-08-01 00:54:15.860,-0.235,0.21
2021-08-01 00:54:15.864,-0.28,0.21
2021-08-01 00:54:15.868,-0.28,0.21
2021-08-01 00:54:15.872,-0.32,0.22
2021-08-01 00:54:15.876,-0.34,0.19
2021-08-01 00:54:15.880,-0.37,0.145
2021-08-01 00:54:15.884,-0.415,0.115
2021-08-01 00:54:15.888,-0.39,0.09
2021-08-01 00:54:15.892,-0.39,0.055
2021-08-01 00:54:15.896,-0.365,0.055
2021-08-01 00:54:15.900,-0.39,0.04
2021-08-01 00:54:15.904,-0.39,0.02
2021-08-01 00:54:15.908,-0.425,0.03
2021-08-01 00:54:15.912,-0.46,0.01
2021-08-01 00:54:15.916,-0.45,0.0
2021-08-01 00:54:15.920,-0.43,0.0
2021-08-01 00:54:15.924,-0.435,-0.015
2021-08-01 00:54:15.928,-0.44,-0.01
2021-08-01 00:54:15.932,-0.43,-0.015
2021-08-01 00:54:15.936,-0.455,-0.015
2021-08-01 00:54:15.940,-0.485,-0.01
2021-08-01 00:54:15.944,-0.485,-0.02
2021-08-01 00:54:15.948,-0.44,-0.04
2021-08-01 00:54:15.952,-0.41,-0.04
2021-08-01 00:54:15.956,-0.4,-0.035
2021-08-01 00:54:15.960,-0.425,-0.025
2021-08-01 00:54:15.964,-0.475,-0.05
2021-08-01 00:54:15.968,-0.49,-0.04
2021-08-01 00:54:15.972,-0.46,-0.025
2021-08-01 00:54:15.976,-0.45,-0.025
2021-08-01 00:54:15.980,-0.455,-0.035
2021-08-01 00:54:15.984,-0.48,-0.04
2021-08-01 00:54:15.988,-0.485,-0.03
2021-08-01 00:54:15.992,-0.47,-0.025
2021-08-01 00:54:15.996,-0.46,-0.005
2021-08-01 00:54:16.000,-0.48,0.005
2021-08-01 00:54:16.004,-0.475,-0.02
2021-08-01 00:54:16.008,-0.485,-0.025
2021-08-01 00:54:16.012,-0.48,-0.03
2021-08-01 00:54:16.016,-0.5,-0.03
2021-08-01 00:54:16.020,-0.54,-0.02
2021-08-01 00:54:16.024,-0.565,-0.01
2021-08-01 00:54:16.028,-0.535,-0.025
2021-08-01 00:54:16.032,-0.505,-0.05
2021-08-01 00:54:16.036,-0.475,-0.05
2021-08-01 00:54:16.040,-0.44,-0.06
2021-08-01 00:54:16.044,-0.425,-0.04
2021-08-01 00:54:16.048,-0.4,-0.035
2021-08-01 00:54:16.052,-0.39,-0.035
2021-08-01 00:54:16.056,-0.39,-0.06
2021-08-01 00:54:16.060,-0.335,-0.04
2021-08-01 00:54:16.064,-0.315,-0.025
2021-08-01 00:54:16.068,-0.28,0.0
2021-08-01 00:54:16.072,-0.225,0.015
2021-08-01 00:54:16.076,-0.2,0.01
2021-08-01 00:54:16.080,-0.215,0.0
2021-08-01 00:54:16.084,-0.22,0.02
2021-08-01 00:54:16.088,-0.215,0.02
2021-08-01 00:54:16.092,-0.22,0.03
2021-08-01 00:54:16.096,-0.2,0.055
2021-08-01 00:54:16.100,-0.22,0.065
2021-08-01 00:54:16.104,-0.23,0.065
2021-08-01 00:54:16.108,-0.24,0.055
2021-08-01 00:54:16.112,-0.235,0.06
2021-08-01 00:54:16.116,-0.215,0.04
2021-08-01 00:54:16.120,-0.24,0.005
2021-08-01 00:54:16.124,-0.23,-0.01
2021-08-01 00:54:16.128,-0.24,-0.005
2021-08-01 00:54:16.132,-0.23,-0.005
2021-08-01 00:54:16.136,-0.24,-0.01
2021-08-01 00:54:16.140,-0.22,-0.03
2021-08-01 00:54:16.144,-0.24,-0.045
2021-08-01 00:54:16.148,-0.29,-0.07
2021-08-01 00:54:16.152,-0.31,-0.08
2021-08-01 00:54:16.156,-0.29,-0.09
2021-08-01 00:54:16.160,-0.26,-0.065
2021-08-01 00:54:16.164,-0.245,-0.08
2021-08-01 00:54:16.168,-0.26,-0.06
2021-08-01 00:54:16.172,-0.25,-0.08
2021-08-01 00:54:16.176,-0.23,-0.075
2021-08-01 00:54:16.180,-0.21,-0.08
2021-08-01 00:54:16.184,-0.225,-0.075
2021-08-01 00:54:16.188,-0.22,-0.085
2021-08-01 00:54:16.192,-0.24,-0.05
2021-08-01 00:54:16.196,-0.24,-0.08
2021-08-01 00:54:16.200,-0.23,-0.075
2021-08-01 00:54:16.204,-0.25,-0.075
2021-08-01 00:54:16.208,-0.26,-0.06
2021-08-01 00:54:16.212,-0.26,-0.07
2021-08-01 00:54:16.216,-0.23,-0.07
2021-08-01 00:54:16.220,-0.225,-0.065
2021-08-01 00:54:16.224,-0.21,-0.075
2021-08-01 00:54:16.228,-0.25,-0.105
2021-08-01 00:54:16.232,-0.3,-0.095
2021-08-01 00:54:16.236,-0.31,-0.11
2021-08-01 00:54:16.240,-0.22,-0.12
2021-08-01 00:54:16.244,-0.105,-0.105
2021-08-01 00:54:16.248,-0.01,-0.11
2021-08-01 00:54:16.252,0.07,-0.125
2021-08-01 00:54:16.256,0.11,-0.14
2021-08-01 00:54:16.260,0.125,-0.15
2021-08-01 00:54:16.264,0.11,-0.17
2021-08-01 00:54:16.268,0.125,-0.11
2021-08-01 00:54:16.272,0.11,-0.105
2021-08-01 00:54:16.276,0.125,-0.13
2021-08-01 00:54:16.280,0.19,-0.185
2021-08-01 00:54:16.284,0.42,-0.35
2021-08-01 00:54:16.288,0.745,-0.615
2021-08-01 00:54:16.292,1.065,-0.86
2021-08-01 00:54:16.296,1.295,-1.02
2021-08-01 00:54:16.300,1.235,-1.01
2021-08-01 00:54:16.304,0.925,-0.75
2021-08-01 00:54:16.308,0.455,-0.34
2021-08-01 00:54:16.312,0.075,-0.035
2021-08-01 00:54:16.316,-0.13,0.12
2021-08-01 00:54:16.320,-0.275,0.195
2021-08-01 00:54:16.324,-0.3,0.205
2021-08-01 00:54:16.328,-0.31,0.21
2021-08-01 00:54:16.332,-0.36,0.195
2021-08-01 00:54:16.336,-0.355,0.195
2021-08-01 00:54:16.340,-0.4,0.175
2021-08-01 00:54:16.344,-0.39,0.135
2021-08-01 00:54:16.348,-0.425,0.105
2021-08-01 00:54:16.352,-0.45,0.05
2021-08-01 00:54:16.356,-0.45,0.035
2021-08-01 00:54:16.360,-0.46,0.03
2021-08-01 00:54:16.364,-0.465,0.025
2021-08-01 00:54:16.368,-0.455,0.035
2021-08-01 00:54:16.372,-0.455,0.025
2021-08-01 00:54:16.376,-0.465,0.01
2021-08-01 00:54:16.380,-0.43,0.0
2021-08-01 00:54:16.384,-0.44,-0.025
2021-08-01 00:54:16.388,-0.45,0.0
2021-08-01 00:54:16.392,-0.465,-0.025
2021-08-01 00:54:16.396,-0.495,-0.01
2021-08-01 00:54:16.400,-0.475,-0.04
2021-08-01 00:54:16.404,-0.425,-0.055
2021-08-01 00:54:16.408,-0.425,-0.045
2021-08-01 00:54:16.412,-0.465,-0.025
2021-08-01 00:54:16.416,-0.48,-0.035
2021-08-01 00:54:16.420,-0.48,-0.035
2021-08-01 00:54:16.424,-0.475,-0.04
2021-08-01 00:54:16.428,-0.475,-0.045
2021-08-01 00:54:16.432,-0.475,-0.04
2021-08-01 00:54:16.436,-0.51,-0.04
2021-08-01 00:54:16.440,-0.5,-0.035
2021-08-01 00:54:16.444,-0.455,-0.04
2021-08-01 00:54:16.448,-0.445,-0.07
2021-08-01 00:54:16.452,-0.495,-0.07
2021-08-01 00:54:16.456,-0.495,-0.07
2021-08-01 00:54:16.460,-0.465,-0.055
2021-08-01 00:54:16.464,-0.47,-0.05
2021-08-01 00:54:16.468,-0.48,-0.055
2021-08-01 00:54:16.472,-0.48,-0.05
2021-08-01 00:54:16.476,-0.45,-0.045
2021-08-01 00:54:16.480,-0.42,-0.05
2021-08-01 00:54:16.484,-0.37,-0.055
2021-08-01 00:54:16.488,-0.385,-0.055
2021-08-01 00:54:16.492,-0.44,-0.04
2021-08-01 00:54:16.496,-0.41,-0.065
2021-08-01 00:54:16.500,-0.37,-0.055
2021-08-01 00:54:16.504,-0.315,-0.06
2021-08-01 00:54:16.508,-0.27,-0.055
2021-08-01 00:54:16.512,-0.24,-0.065
2021-08-01 00:54:16.516,-0.25,-0.05
2021-08-01 00:54:16.520,-0.255,-0.045
2021-08-01 00:54:16.524,-0.23,-0.02
2021-08-01 00:54:16.528,-0.2,-0.02
2021-08-01 00:54:16.532,-0.16,0.0
2021-08-01 00:54:16.536,-0.155,-0.005
2021-08-01 00:54:16.540,-0.18,0.01
2021-08-01 00:54:16.544,-0.185,0.055
2021-08-01 00:54:16.548,-0.175,0.05
2021-08-01 00:54:16.552,-0.185,0.05
2021-08-01 00:54:16.556,-0.195,0.075
2021-08-01 00:54:16.560,-0.215,0.035
2021-08-01 00:54:16.564,-0.24,0.06
2021-08-01 00:54:16.568,-0.265,0.08
2021-08-01 00:54:16.572,-0.29,0.085
2021-08-01 00:54:16.576,-0.295,0.06
2021-08-01 00:54:16.580,-0.275,0.07
2021-08-01 00:54:16.584,-0.255,0.03
2021-08-01 00:54:16.588,-0.255,0.01
2021-08-01 00:54:16.592,-0.29,0.0
2021-08-01 00:54:16.596,-0.315,-0.015
2021-08-01 00:54:16.600,-0.315,-0.05
2021-08-01 00:54:16.604,-0.31,-0.045
2021-08-01 00:54:16.608,-0.29,-0.03
2021-08-01 00:54:16.612,-0.29,-0.035
2021-08-01 00:54:16.616,-0.3,-0.01
2021-08-01 00:54:16.620,-0.295,-0.045
2021-08-01 00:54:16.624,-0.25,-0.03
2021-08-01 00:54:16.628,-0.265,-0.04
2021-08-01 00:54:16.632,-0.275,-0.04
2021-08-01 00:54:16.636,-0.32,-0.035
2021-08-01 00:54:16.640,-0.32,-0.03
2021-08-01 00:54:16.644,-0.32,-0.045
2021-08-01 00:54:16.648,-0.305,-0.05
2021-08-01 00:54:16.652,-0.315,-0.05
2021-08-01 00:54:16.656,-0.33,-0.055
2021-08-01 00:54:16.660,-0.375,-0.07
2021-08-01 00:54:16.664,-0.365,-0.065
2021-08-01 00:54:16.668,-0.34,-0.065
2021-08-01 00:54:16.672,-0.305,-0.065
2021-08-01 00:54:16.676,-0.285,-0.065
2021-08-01 00:54:16.680,-0.265,-0.08
2021-08-01 00:54:16.684,-0.335,-0.07
2021-08-01 00:54:16.688,-0.395,-0.095
2021-08-01 00:54:16.692,-0.385,-0.08
2021-08-01 00:54:16.696,-0.325,-0.08
2021-08-01 00:54:16.700,-0.3,-0.065
2021-08-01 00:54:16.704,-0.26,-0.075
2021-08-01 00:54:16.708,-0.285,-0.08
2021-08-01 00:54:16.712,-0.31,-0.085
