Time,ECG1,ECG2
2021-08-19 12:47:44.440,-0.355,1.565
2021-08-19 12:47:44.444,-0.315,1.47
2021-08-19 12:47:44.448,-0.32,1.165
2021-08-19 12:47:44.452,-0.305,0.75
2021-08-19 12:47:44.456,-0.3,0.35
2021-08-19 12:47:44.460,-0.29,0.18
2021-08-19 12:47:44.464,-0.28,0.12
2021-08-19 12:47:44.468,-0.27,0.07
2021-08-19 12:47:44.472,-0.27,0.0
2021-08-19 12:47:44.476,-0.265,-0.02
2021-08-19 12:47:44.480,-0.24,-0.05
2021-08-19 12:47:44.484,-0.235,-0.07
2021-08-19 12:47:44.488,-0.225,-0.08
2021-08-19 12:47:44.492,-0.205,-0.105
2021-08-19 12:47:44.496,-0.2,-0.095
2021-08-19 12:47:44.500,-0.2,-0.105
2021-08-19 12:47:44.504,-0.185,-0.12
2021-08-19 12:47:44.508,-0.17,-0.13
2021-08-19 12:47:44.512,-0.175,-0.125
2021-08-19 12:47:44.516,-0.155,-0.12
2021-08-19 12:47:44.520,-0.145,-0.135
2021-08-19 12:47:44.524,-0.16,-0.14
2021-08-19 12:47:44.528,-0.125,-0.12
2021-08-19 12:47:44.532,-0.1,-0.115
2021-08-19 12:47:44.536,-0.095,-0.105
2021-08-19 12:47:44.540,-0.085,-0.105
2021-08-19 12:47:44.544,-0.065,-0.145
2021-08-19 12:47:44.548,-0.05,-0.16
2021-08-19 12:47:44.552,-0.065,-0.205
2021-08-19 12:47:44.556,-0.04,-0.24
2021-08-19 12:47:44.560,-0.03,-0.285
2021-08-19 12:47:44.564,-0.005,-0.315
2021-08-19 12:47:44.568,0.01,-0.32
2021-08-19 12:47:44.572,0.005,-0.315
2021-08-19 12:47:44.576,0.01,-0.325
2021-08-19 12:47:44.580,0.04,-0.35
2021-08-19 12:47:44.584,0.035,-0.355
2021-08-19 12:47:44.588,0.045,-0.38
2021-08-19 12:47:44.592,0.055,-0.39
2021-08-19 12:47:44.596,0.075,-0.39
2021-08-19 12:47:44.600,0.075,-0.405
2021-08-19 12:47:44.604,0.09,-0.39
2021-08-19 12:47:44.608,0.085,-0.41
2021-08-19 12:47:44.612,0.07,-0.405
2021-08-19 12:47:44.616,0.075,-0.41
2021-08-19 12:47:44.620,0.05,-0.42
2021-08-19 12:47:44.624,0.015,-0.405
2021-08-19 12:47:44.628,0.0,-0.4
2021-08-19 12:47:44.632,-0.025,-0.405
2021-08-19 12:47:44.636,-0.035,-0.385
2021-08-19 12:47:44.640,-0.07,-0.395
2021-08-19 12:47:44.644,-0.08,-0.4
2021-08-19 12:47:44.648,-0.105,-0.38
2021-08-19 12:47:44.652,-0.145,-0.36
2021-08-19 12:47:44.656,-0.17,-0.355
2021-08-19 12:47:44.660,-0.19,-0.345
2021-08-19 12:47:44.664,-0.2,-0.295
2021-08-19 12:47:44.668,-0.205,-0.27
2021-08-19 12:47:44.672,-0.215,-0.26
2021-08-19 12:47:44.676,-0.22,-0.205
2021-08-19 12:47:44.680,-0.225,-0.19
2021-08-19 12:47:44.684,-0.24,-0.155
2021-08-19 12:47:44.688,-0.255,-0.1
2021-08-19 12:47:44.692,-0.23,-0.08
2021-08-19 12:47:44.696,-0.26,-0.04
2021-08-19 12:47:44.700,-0.265,-0.005
2021-08-19 12:47:44.704,-0.275,0.01
2021-08-19 12:47:44.708,-0.28,0.035
2021-08-19 12:47:44.712,-0.285,0.06
2021-08-19 12:47:44.716,-0.275,0.06
2021-08-19 12:47:44.720,-0.285,0.08
2021-08-19 12:47:44.724,-0.29,0.095
2021-08-19 12:47:44.728,-0.275,0.075
2021-08-19 12:47:44.732,-0.295,0.07
2021-08-19 12:47:44.736,-0.28,0.025
2021-08-19 12:47:44.740,-0.29,0.0
2021-08-19 12:47:44.744,-0.295,-0.035
2021-08-19 12:47:44.748,-0.3,-0.05
2021-08-19 12:47:44.752,-0.295,-0.045
2021-08-19 12:47:44.756,-0.31,-0.06
2021-08-19 12:47:44.760,-0.3,-0.04
2021-08-19 12:47:44.764,-0.305,-0.03
2021-08-19 12:47:44.768,-0.305,-0.02
2021-08-19 12:47:44.772,-0.32,-0.005
2021-08-19 12:47:44.776,-0.32,0.0
2021-08-19 12:47:44.780,-0.32,-0.005
2021-08-19 12:47:44.784,-0.315,-0.02
2021-08-19 12:47:44.788,-0.31,-0.025
2021-08-19 12:47:44.792,-0.335,-0.01
2021-08-19 12:47:44.796,-0.32,-0.01
2021-08-19 12:47:44.800,-0.31,-0.035
2021-08-19 12:47:44.804,-0.35,-0.01
2021-08-19 12:47:44.808,-0.365,-0.02
2021-08-19 12:47:44.812,-0.375,-0.005
2021-08-19 12:47:44.816,-0.355,0.005
2021-08-19 12:47:44.820,-0.37,0.005
2021-08-19 12:47:44.824,-0.365,-0.015
2021-08-19 12:47:44.828,-0.345,-0.005
2021-08-19 12:47:44.832,-0.375,-0.005
2021-08-19 12:47:44.836,-0.36,0.005
2021-08-19 12:47:44.840,-0.35,0.0
2021-08-19 12:47:44.844,-0.345,0.005
2021-08-19 12:47:44.848,-0.34,0.01
2021-08-19 12:47:44.852,-0.315,0.015
2021-08-19 12:47:44.856,-0.32,0.025
2021-08-19 12:47:44.860,-0.335,0.035
2021-08-19 12:47:44.864,-0.335,0.035
2021-08-19 12:47:44.868,-0.315,0.04
2021-08-19 12:47:44.872,-0.32,0.065
2021-08-19 12:47:44.876,-0.33,0.07
2021-08-19 12:47:44.880,-0.315,0.085
2021-08-19 12:47:44.884,-0.215,0.11
2021-08-19 12:47:44.888,-0.01,0.165
2021-08-19 12:47:44.892,0.23,0.2
2021-08-19 12:47:44.896,0.445,0.245
2021-08-19 12:47:44.900,0.545,0.22
2021-08-19 12:47:44.904,0.455,0.215
2021-08-19 12:47:44.908,0.115,0.175
2021-08-19 12:47:44.912,-0.2,0.105
2021-08-19 12:47:44.916,-0.345,0.135
2021-08-19 12:47:44.920,-0.43,0.245
2021-08-19 12:47:44.924,-0.44,0.35
2021-08-19 12:47:44.928,-0.455,0.5
2021-08-19 12:47:44.932,-0.49,0.63
2021-08-19 12:47:44.936,-0.49,0.75
2021-08-19 12:47:44.940,-0.52,0.93
2021-08-19 12:47:44.944,-0.585,1.085
2021-08-19 12:47:44.948,-0.595,1.12
2021-08-19 12:47:44.952,-0.63,1.025
2021-08-19 12:47:44.956,-0.585,0.855
2021-08-19 12:47:44.960,-0.5,0.75
2021-08-19 12:47:44.964,-0.375,0.72
2021-08-19 12:47:44.968,-0.325,0.645
2021-08-19 12:47:44.972,-0.315,0.465
2021-08-19 12:47:44.976,-0.325,0.255
2021-08-19 12:47:44.980,-0.335,0.14
2021-08-19 12:47:44.984,-0.345,0.08
2021-08-19 12:47:44.988,-0.33,0.055
2021-08-19 12:47:44.992,-0.33,0.025
2021-08-19 12:47:44.996,-0.335,0.0
2021-08-19 12:47:45.000,-0.315,-0.02
2021-08-19 12:47:45.004,-0.34,-0.04
2021-08-19 12:47:45.008,-0.31,-0.05
2021-08-19 12:47:45.012,-0.31,-0.05
2021-08-19 12:47:45.016,-0.31,-0.075
2021-08-19 12:47:45.020,-0.285,-0.11
2021-08-19 12:47:45.024,-0.285,-0.09
2021-08-19 12:47:45.028,-0.28,-0.1
2021-08-19 12:47:45.032,-0.27,-0.1
2021-08-19 12:47:45.036,-0.265,-0.105
2021-08-19 12:47:45.040,-0.27,-0.105
2021-08-19 12:47:45.044,-0.255,-0.1
2021-08-19 12:47:45.048,-0.245,-0.1
2021-08-19 12:47:45.052,-0.235,-0.095
2021-08-19 12:47:45.056,-0.23,-0.095
2021-08-19 12:47:45.060,-0.215,-0.09
2021-08-19 12:47:45.064,-0.185,-0.1
2021-08-19 12:47:45.068,-0.185,-0.105
2021-08-19 12:47:45.072,-0.18,-0.08
2021-08-19 12:47:45.076,-0.17,-0.09
2021-08-19 12:47:45.080,-0.14,-0.08
2021-08-19 12:47:45.084,-0.15,-0.07
2021-08-19 12:47:45.088,-0.13,-0.06
2021-08-19 12:47:45.092,-0.115,-0.085
2021-08-19 12:47:45.096,-0.115,-0.1
2021-08-19 12:47:45.100,-0.13,-0.13
2021-08-19 12:47:45.104,-0.125,-0.17
2021-08-19 12:47:45.108,-0.125,-0.215
2021-08-19 12:47:45.112,-0.12,-0.24
2021-08-19 12:47:45.116,-0.135,-0.25
2021-08-19 12:47:45.120,-0.135,-0.26
2021-08-19 12:47:45.124,-0.125,-0.285
2021-08-19 12:47:45.128,-0.145,-0.275
2021-08-19 12:47:45.132,-0.15,-0.295
2021-08-19 12:47:45.136,-0.14,-0.32
2021-08-19 12:47:45.140,-0.14,-0.305
2021-08-19 12:47:45.144,-0.165,-0.31
2021-08-19 12:47:45.148,-0.18,-0.32
2021-08-19 12:47:45.152,-0.19,-0.29
2021-08-19 12:47:45.156,-0.185,-0.305
2021-08-19 12:47:45.160,-0.18,-0.275
2021-08-19 12:47:45.164,-0.215,-0.275
2021-08-19 12:47:45.168,-0.24,-0.275
2021-08-19 12:47:45.172,-0.25,-0.265
2021-08-19 12:47:45.176,-0.24,-0.255
2021-08-19 12:47:45.180,-0.265,-0.235
2021-08-19 12:47:45.184,-0.265,-0.205
2021-08-19 12:47:45.188,-0.28,-0.17
2021-08-19 12:47:45.192,-0.295,-0.16
2021-08-19 12:47:45.196,-0.3,-0.13
2021-08-19 12:47:45.200,-0.3,-0.1
2021-08-19 12:47:45.204,-0.295,-0.09
2021-08-19 12:47:45.208,-0.315,-0.065
2021-08-19 12:47:45.212,-0.3,-0.025
2021-08-19 12:47:45.216,-0.315,-0.01
2021-08-19 12:47:45.220,-0.3,-0.015
2021-08-19 12:47:45.224,-0.29,0.0
2021-08-19 12:47:45.228,-0.295,0.03
2021-08-19 12:47:45.232,-0.3,0.015
2021-08-19 12:47:45.236,-0.305,0.055
2021-08-19 12:47:45.240,-0.29,0.055
2021-08-19 12:47:45.244,-0.285,0.05
2021-08-19 12:47:45.248,-0.295,0.07
2021-08-19 12:47:45.252,-0.285,0.08
2021-08-19 12:47:45.256,-0.265,0.105
2021-08-19 12:47:45.260,-0.295,0.12
2021-08-19 12:47:45.264,-0.28,0.125
2021-08-19 12:47:45.268,-0.245,0.145
2021-08-19 12:47:45.272,-0.25,0.155
2021-08-19 12:47:45.276,-0.26,0.14
2021-08-19 12:47:45.280,-0.245,0.17
2021-08-19 12:47:45.284,-0.255,0.15
2021-08-19 12:47:45.288,-0.245,0.125
2021-08-19 12:47:45.292,-0.235,0.075
2021-08-19 12:47:45.296,-0.265,0.04
2021-08-19 12:47:45.300,-0.265,0.015
2021-08-19 12:47:45.304,-0.275,0.02
2021-08-19 12:47:45.308,-0.275,0.015
2021-08-19 12:47:45.312,-0.27,0.0
2021-08-19 12:47:45.316,-0.265,-0.005
2021-08-19 12:47:45.320,-0.3,0.0
2021-08-19 12:47:45.324,-0.295,-0.02
2021-08-19 12:47:45.328,-0.3,0.0
2021-08-19 12:47:45.332,-0.32,-0.005
2021-08-19 12:47:45.336,-0.34,0.005
2021-08-19 12:47:45.340,-0.32,-0.015
2021-08-19 12:47:45.344,-0.31,-0.035
2021-08-19 12:47:45.348,-0.335,-0.035
2021-08-19 12:47:45.352,-0.33,-0.02
2021-08-19 12:47:45.356,-0.345,-0.01
2021-08-19 12:47:45.360,-0.38,0.005
2021-08-19 12:47:45.364,-0.395,0.025
2021-08-19 12:47:45.368,-0.32,0.04
2021-08-19 12:47:45.372,-0.125,0.1
2021-08-19 12:47:45.376,0.115,0.14
2021-08-19 12:47:45.380,0.325,0.135
2021-08-19 12:47:45.384,0.43,0.125
2021-08-19 12:47:45.388,0.3,0.11
2021-08-19 12:47:45.392,0.0,0.06
2021-08-19 12:47:45.396,-0.285,0.045
2021-08-19 12:47:45.400,-0.435,0.125
2021-08-19 12:47:45.404,-0.49,0.28
2021-08-19 12:47:45.408,-0.495,0.425
2021-08-19 12:47:45.412,-0.52,0.55
2021-08-19 12:47:45.416,-0.525,0.655
2021-08-19 12:47:45.420,-0.54,0.765
2021-08-19 12:47:45.424,-0.545,0.86
2021-08-19 12:47:45.428,-0.565,0.98
2021-08-19 12:47:45.432,-0.57,1.12
2021-08-19 12:47:45.436,-0.57,1.3
2021-08-19 12:47:45.440,-0.61,1.355
2021-08-19 12:47:45.444,-0.61,1.22
2021-08-19 12:47:45.448,-0.535,1.055
2021-08-19 12:47:45.452,-0.42,0.885
2021-08-19 12:47:45.456,-0.335,0.765
2021-08-19 12:47:45.460,-0.29,0.685
2021-08-19 12:47:45.464,-0.255,0.505
2021-08-19 12:47:45.468,-0.255,0.31
2021-08-19 12:47:45.472,-0.27,0.18
2021-08-19 12:47:45.476,-0.265,0.1
2021-08-19 12:47:45.480,-0.265,0.06
2021-08-19 12:47:45.484,-0.27,0.005
2021-08-19 12:47:45.488,-0.275,-0.025
2021-08-19 12:47:45.492,-0.25,-0.05
2021-08-19 12:47:45.496,-0.23,-0.07
2021-08-19 12:47:45.500,-0.28,-0.09
2021-08-19 12:47:45.504,-0.285,-0.14
2021-08-19 12:47:45.508,-0.295,-0.135
2021-08-19 12:47:45.512,-0.305,-0.15
2021-08-19 12:47:45.516,-0.32,-0.15
2021-08-19 12:47:45.520,-0.315,-0.16
2021-08-19 12:47:45.524,-0.32,-0.16
2021-08-19 12:47:45.528,-0.32,-0.155
2021-08-19 12:47:45.532,-0.295,-0.16
2021-08-19 12:47:45.536,-0.305,-0.165
2021-08-19 12:47:45.540,-0.28,-0.16
2021-08-19 12:47:45.544,-0.275,-0.16
2021-08-19 12:47:45.548,-0.28,-0.2
2021-08-19 12:47:45.552,-0.28,-0.18
2021-08-19 12:47:45.556,-0.26,-0.175
2021-08-19 12:47:45.560,-0.24,-0.19
2021-08-19 12:47:45.564,-0.25,-0.215
2021-08-19 12:47:45.568,-0.245,-0.205
2021-08-19 12:47:45.572,-0.215,-0.225
2021-08-19 12:47:45.576,-0.215,-0.225
2021-08-19 12:47:45.580,-0.21,-0.24
2021-08-19 12:47:45.584,-0.2,-0.245
2021-08-19 12:47:45.588,-0.18,-0.26
2021-08-19 12:47:45.592,-0.16,-0.24
2021-08-19 12:47:45.596,-0.15,-0.295
2021-08-19 12:47:45.600,-0.145,-0.28
2021-08-19 12:47:45.604,-0.135,-0.285
2021-08-19 12:47:45.608,-0.145,-0.305
2021-08-19 12:47:45.612,-0.14,-0.31
2021-08-19 12:47:45.616,-0.13,-0.32
2021-08-19 12:47:45.620,-0.14,-0.33
2021-08-19 12:47:45.624,-0.135,-0.32
2021-08-19 12:47:45.628,-0.125,-0.29
2021-08-19 12:47:45.632,-0.135,-0.285
2021-08-19 12:47:45.636,-0.145,-0.295
2021-08-19 12:47:45.640,-0.13,-0.27
2021-08-19 12:47:45.644,-0.16,-0.265
2021-08-19 12:47:45.648,-0.145,-0.24
2021-08-19 12:47:45.652,-0.15,-0.23
2021-08-19 12:47:45.656,-0.145,-0.22
2021-08-19 12:47:45.660,-0.17,-0.195
2021-08-19 12:47:45.664,-0.18,-0.185
2021-08-19 12:47:45.668,-0.215,-0.18
2021-08-19 12:47:45.672,-0.225,-0.2
2021-08-19 12:47:45.676,-0.225,-0.2
2021-08-19 12:47:45.680,-0.245,-0.2
2021-08-19 12:47:45.684,-0.255,-0.185
2021-08-19 12:47:45.688,-0.265,-0.17
2021-08-19 12:47:45.692,-0.27,-0.15
2021-08-19 12:47:45.696,-0.285,-0.14
2021-08-19 12:47:45.700,-0.295,-0.105
2021-08-19 12:47:45.704,-0.3,-0.09
2021-08-19 12:47:45.708,-0.31,-0.07
2021-08-19 12:47:45.712,-0.315,-0.09
2021-08-19 12:47:45.716,-0.3,-0.085
2021-08-19 12:47:45.720,-0.3,-0.05
2021-08-19 12:47:45.724,-0.295,-0.03
2021-08-19 12:47:45.728,-0.295,-0.02
2021-08-19 12:47:45.732,-0.3,-0.005
2021-08-19 12:47:45.736,-0.305,0.005
2021-08-19 12:47:45.740,-0.305,0.02
2021-08-19 12:47:45.744,-0.31,0.0
2021-08-19 12:47:45.748,-0.32,0.02
2021-08-19 12:47:45.752,-0.305,0.02
2021-08-19 12:47:45.756,-0.285,0.02
2021-08-19 12:47:45.760,-0.29,0.01
2021-08-19 12:47:45.764,-0.285,0.03
2021-08-19 12:47:45.768,-0.285,0.03
2021-08-19 12:47:45.772,-0.275,0.02
2021-08-19 12:47:45.776,-0.28,0.03
2021-08-19 12:47:45.780,-0.295,0.025
2021-08-19 12:47:45.784,-0.285,0.035
2021-08-19 12:47:45.788,-0.28,0.035
2021-08-19 12:47:45.792,-0.27,0.035
2021-08-19 12:47:45.796,-0.29,0.055
2021-08-19 12:47:45.800,-0.29,0.04
2021-08-19 12:47:45.804,-0.28,0.045
2021-08-19 12:47:45.808,-0.295,0.055
2021-08-19 12:47:45.812,-0.285,0.075
2021-08-19 12:47:45.816,-0.275,0.08
2021-08-19 12:47:45.820,-0.26,0.095
2021-08-19 12:47:45.824,-0.26,0.09
2021-08-19 12:47:45.828,-0.28,0.11
2021-08-19 12:47:45.832,-0.27,0.115
2021-08-19 12:47:45.836,-0.265,0.13
2021-08-19 12:47:45.840,-0.265,0.12
2021-08-19 12:47:45.844,-0.245,0.155
2021-08-19 12:47:45.848,-0.25,0.19
2021-08-19 12:47:45.852,-0.26,0.18
2021-08-19 12:47:45.856,-0.26,0.195
2021-08-19 12:47:45.860,-0.255,0.195
2021-08-19 12:47:45.864,-0.25,0.165
2021-08-19 12:47:45.868,-0.28,0.13
2021-08-19 12:47:45.872,-0.32,0.1
2021-08-19 12:47:45.876,-0.325,0.105
2021-08-19 12:47:45.880,-0.295,0.11
2021-08-19 12:47:45.884,-0.145,0.14
2021-08-19 12:47:45.888,0.085,0.195
2021-08-19 12:47:45.892,0.3,0.22
2021-08-19 12:47:45.896,0.46,0.155
2021-08-19 12:47:45.900,0.395,0.195
2021-08-19 12:47:45.904,0.14,0.15
2021-08-19 12:47:45.908,-0.195,0.1
2021-08-19 12:47:45.912,-0.42,0.15
2021-08-19 12:47:45.916,-0.525,0.28
2021-08-19 12:47:45.920,-0.51,0.44
2021-08-19 12:47:45.924,-0.53,0.565
2021-08-19 12:47:45.928,-0.51,0.69
2021-08-19 12:47:45.932,-0.54,0.765
2021-08-19 12:47:45.936,-0.53,0.82
2021-08-19 12:47:45.940,-0.56,0.92
2021-08-19 12:47:45.944,-0.57,1.015
2021-08-19 12:47:45.948,-0.56,1.12
2021-08-19 12:47:45.952,-0.57,1.175
2021-08-19 12:47:45.956,-0.555,1.23
2021-08-19 12:47:45.960,-0.54,1.305
2021-08-19 12:47:45.964,-0.535,1.36
2021-08-19 12:47:45.968,-0.475,1.385
2021-08-19 12:47:45.972,-0.365,1.365
2021-08-19 12:47:45.976,-0.355,1.26
2021-08-19 12:47:45.980,-0.325,0.985
2021-08-19 12:47:45.984,-0.315,0.62
2021-08-19 12:47:45.988,-0.29,0.285
2021-08-19 12:47:45.992,-0.295,0.17
2021-08-19 12:47:45.996,-0.29,0.115
2021-08-19 12:47:46.000,-0.27,0.055
2021-08-19 12:47:46.004,-0.245,0.03
2021-08-19 12:47:46.008,-0.235,0.005
2021-08-19 12:47:46.012,-0.26,-0.03
2021-08-19 12:47:46.016,-0.235,-0.02
2021-08-19 12:47:46.020,-0.23,-0.04
2021-08-19 12:47:46.024,-0.21,-0.035
2021-08-19 12:47:46.028,-0.225,-0.035
2021-08-19 12:47:46.032,-0.215,-0.05
2021-08-19 12:47:46.036,-0.215,-0.04
2021-08-19 12:47:46.040,-0.2,-0.06
2021-08-19 12:47:46.044,-0.21,-0.055
2021-08-19 12:47:46.048,-0.23,-0.055
2021-08-19 12:47:46.052,-0.225,-0.06
2021-08-19 12:47:46.056,-0.185,-0.045
2021-08-19 12:47:46.060,-0.185,-0.04
2021-08-19 12:47:46.064,-0.175,-0.055
2021-08-19 12:47:46.068,-0.18,-0.07
2021-08-19 12:47:46.072,-0.17,-0.07
2021-08-19 12:47:46.076,-0.175,-0.15
2021-08-19 12:47:46.080,-0.175,-0.185
2021-08-19 12:47:46.084,-0.175,-0.19
2021-08-19 12:47:46.088,-0.185,-0.22
2021-08-19 12:47:46.092,-0.2,-0.26
2021-08-19 12:47:46.096,-0.18,-0.265
2021-08-19 12:47:46.100,-0.195,-0.3
2021-08-19 12:47:46.104,-0.21,-0.32
2021-08-19 12:47:46.108,-0.2,-0.34
2021-08-19 12:47:46.112,-0.18,-0.35
2021-08-19 12:47:46.116,-0.165,-0.345
2021-08-19 12:47:46.120,-0.175,-0.38
2021-08-19 12:47:46.124,-0.175,-0.385
2021-08-19 12:47:46.128,-0.17,-0.415
2021-08-19 12:47:46.132,-0.18,-0.395
2021-08-19 12:47:46.136,-0.15,-0.415
2021-08-19 12:47:46.140,-0.155,-0.415
2021-08-19 12:47:46.144,-0.165,-0.425
2021-08-19 12:47:46.148,-0.16,-0.44
2021-08-19 12:47:46.152,-0.16,-0.44
2021-08-19 12:47:46.156,-0.165,-0.445
2021-08-19 12:47:46.160,-0.165,-0.435
2021-08-19 12:47:46.164,-0.18,-0.435
2021-08-19 12:47:46.168,-0.17,-0.42
2021-08-19 12:47:46.172,-0.185,-0.41
2021-08-19 12:47:46.176,-0.19,-0.39
2021-08-19 12:47:46.180,-0.215,-0.37
2021-08-19 12:47:46.184,-0.195,-0.355
2021-08-19 12:47:46.188,-0.24,-0.335
2021-08-19 12:47:46.192,-0.24,-0.32
2021-08-19 12:47:46.196,-0.235,-0.29
2021-08-19 12:47:46.200,-0.23,-0.255
2021-08-19 12:47:46.204,-0.235,-0.225
2021-08-19 12:47:46.208,-0.235,-0.2
2021-08-19 12:47:46.212,-0.24,-0.165
2021-08-19 12:47:46.216,-0.23,-0.14
2021-08-19 12:47:46.220,-0.24,-0.08
2021-08-19 12:47:46.224,-0.21,-0.055
2021-08-19 12:47:46.228,-0.2,-0.02
2021-08-19 12:47:46.232,-0.2,-0.01
2021-08-19 12:47:46.236,-0.22,0.05
2021-08-19 12:47:46.240,-0.23,0.12
2021-08-19 12:47:46.244,-0.26,0.13
2021-08-19 12:47:46.248,-0.23,0.145
2021-08-19 12:47:46.252,-0.075,0.2
2021-08-19 12:47:46.256,0.18,0.23
2021-08-19 12:47:46.260,0.455,0.275
2021-08-19 12:47:46.264,0.62,0.28
2021-08-19 12:47:46.268,0.59,0.24
2021-08-19 12:47:46.272,0.335,0.16
2021-08-19 12:47:46.276,-0.02,0.1
2021-08-19 12:47:46.280,-0.24,0.105
2021-08-19 12:47:46.284,-0.35,0.21
2021-08-19 12:47:46.288,-0.325,0.39
2021-08-19 12:47:46.292,-0.35,0.555
2021-08-19 12:47:46.296,-0.34,0.68
2021-08-19 12:47:46.300,-0.345,0.76
2021-08-19 12:47:46.304,-0.37,0.815
2021-08-19 12:47:46.308,-0.365,0.9
2021-08-19 12:47:46.312,-0.38,1.02
2021-08-19 12:47:46.316,-0.38,1.155
2021-08-19 12:47:46.320,-0.39,1.265
2021-08-19 12:47:46.324,-0.395,1.4
2021-08-19 12:47:46.328,-0.43,1.475
2021-08-19 12:47:46.332,-0.38,1.54
2021-08-19 12:47:46.336,-0.36,1.485
2021-08-19 12:47:46.340,-0.335,1.35
2021-08-19 12:47:46.344,-0.315,1.05
2021-08-19 12:47:46.348,-0.31,0.645
2021-08-19 12:47:46.352,-0.3,0.305
2021-08-19 12:47:46.356,-0.29,0.165
2021-08-19 12:47:46.360,-0.29,0.065
2021-08-19 12:47:46.364,-0.29,0.04
2021-08-19 12:47:46.368,-0.295,-0.015
2021-08-19 12:47:46.372,-0.295,-0.045
2021-08-19 12:47:46.376,-0.29,-0.06
2021-08-19 12:47:46.380,-0.28,-0.08
2021-08-19 12:47:46.384,-0.285,-0.08
2021-08-19 12:47:46.388,-0.305,-0.1
2021-08-19 12:47:46.392,-0.295,-0.11
2021-08-19 12:47:46.396,-0.26,-0.135
2021-08-19 12:47:46.400,-0.27,-0.125
2021-08-19 12:47:46.404,-0.245,-0.155
2021-08-19 12:47:46.408,-0.26,-0.16
2021-08-19 12:47:46.412,-0.22,-0.155
2021-08-19 12:47:46.416,-0.22,-0.165
2021-08-19 12:47:46.420,-0.22,-0.16
2021-08-19 12:47:46.424,-0.225,-0.155
2021-08-19 12:47:46.428,-0.225,-0.17
2021-08-19 12:47:46.432,-0.23,-0.155
2021-08-19 12:47:46.436,-0.22,-0.15
2021-08-19 12:47:46.440,-0.21,-0.16
2021-08-19 12:47:46.444,-0.205,-0.16
2021-08-19 12:47:46.448,-0.16,-0.145
2021-08-19 12:47:46.452,-0.15,-0.16
2021-08-19 12:47:46.456,-0.12,-0.175
2021-08-19 12:47:46.460,-0.115,-0.17
2021-08-19 12:47:46.464,-0.09,-0.18
2021-08-19 12:47:46.468,-0.1,-0.19
2021-08-19 12:47:46.472,-0.08,-0.24
2021-08-19 12:47:46.476,-0.1,-0.305
2021-08-19 12:47:46.480,-0.075,-0.33
2021-08-19 12:47:46.484,-0.07,-0.38
2021-08-19 12:47:46.488,-0.07,-0.4
2021-08-19 12:47:46.492,-0.065,-0.435
2021-08-19 12:47:46.496,-0.07,-0.42
2021-08-19 12:47:46.500,-0.06,-0.46
2021-08-19 12:47:46.504,-0.055,-0.47
2021-08-19 12:47:46.508,-0.06,-0.475
2021-08-19 12:47:46.512,-0.06,-0.485
2021-08-19 12:47:46.516,-0.08,-0.495
2021-08-19 12:47:46.520,-0.06,-0.49
2021-08-19 12:47:46.524,-0.1,-0.5
2021-08-19 12:47:46.528,-0.11,-0.48
2021-08-19 12:47:46.532,-0.125,-0.445
2021-08-19 12:47:46.536,-0.12,-0.435
2021-08-19 12:47:46.540,-0.135,-0.44
2021-08-19 12:47:46.544,-0.14,-0.42
2021-08-19 12:47:46.548,-0.14,-0.38
2021-08-19 12:47:46.552,-0.15,-0.375
2021-08-19 12:47:46.556,-0.17,-0.325
2021-08-19 12:47:46.560,-0.17,-0.305
2021-08-19 12:47:46.564,-0.165,-0.28
2021-08-19 12:47:46.568,-0.19,-0.25
2021-08-19 12:47:46.572,-0.22,-0.22
2021-08-19 12:47:46.576,-0.21,-0.18
2021-08-19 12:47:46.580,-0.145,-0.155
2021-08-19 12:47:46.584,0.08,-0.08
2021-08-19 12:47:46.588,0.36,-0.02
2021-08-19 12:47:46.592,0.625,0.04
2021-08-19 12:47:46.596,0.77,0.055
2021-08-19 12:47:46.600,0.72,0.08
2021-08-19 12:47:46.604,0.43,0.045
2021-08-19 12:47:46.608,0.05,0.005
2021-08-19 12:47:46.612,-0.18,0.005
2021-08-19 12:47:46.616,-0.305,0.145
2021-08-19 12:47:46.620,-0.41,0.375
2021-08-19 12:47:46.624,-0.515,0.685
2021-08-19 12:47:46.628,-0.625,0.935
2021-08-19 12:47:46.632,-0.68,0.995
2021-08-19 12:47:46.636,-0.64,0.875
2021-08-19 12:47:46.640,-0.575,0.695
2021-08-19 12:47:46.644,-0.475,0.6
2021-08-19 12:47:46.648,-0.415,0.63
2021-08-19 12:47:46.652,-0.38,0.61
2021-08-19 12:47:46.656,-0.34,0.49
2021-08-19 12:47:46.660,-0.3,0.4
2021-08-19 12:47:46.664,-0.275,0.345
2021-08-19 12:47:46.668,-0.265,0.29
2021-08-19 12:47:46.672,-0.27,0.25
2021-08-19 12:47:46.676,-0.265,0.205
2021-08-19 12:47:46.680,-0.27,0.15
2021-08-19 12:47:46.684,-0.28,0.095
2021-08-19 12:47:46.688,-0.285,0.065
2021-08-19 12:47:46.692,-0.29,0.045
2021-08-19 12:47:46.696,-0.295,0.035
2021-08-19 12:47:46.700,-0.3,0.0
2021-08-19 12:47:46.704,-0.315,-0.015
2021-08-19 12:47:46.708,-0.295,-0.02
2021-08-19 12:47:46.712,-0.3,-0.045
2021-08-19 12:47:46.716,-0.32,-0.065
2021-08-19 12:47:46.720,-0.315,-0.06
2021-08-19 12:47:46.724,-0.315,-0.075
2021-08-19 12:47:46.728,-0.325,-0.055
2021-08-19 12:47:46.732,-0.295,-0.09
2021-08-19 12:47:46.736,-0.3,-0.07
2021-08-19 12:47:46.740,-0.305,-0.045
2021-08-19 12:47:46.744,-0.29,-0.075
2021-08-19 12:47:46.748,-0.295,-0.065
2021-08-19 12:47:46.752,-0.27,-0.075
2021-08-19 12:47:46.756,-0.27,-0.08
2021-08-19 12:47:46.760,-0.29,-0.085
2021-08-19 12:47:46.764,-0.265,-0.07
2021-08-19 12:47:46.768,-0.28,-0.06
2021-08-19 12:47:46.772,-0.28,-0.055
2021-08-19 12:47:46.776,-0.265,-0.07
2021-08-19 12:47:46.780,-0.245,-0.08
2021-08-19 12:47:46.784,-0.25,-0.06
2021-08-19 12:47:46.788,-0.255,-0.055
2021-08-19 12:47:46.792,-0.24,-0.065
2021-08-19 12:47:46.796,-0.25,-0.105
2021-08-19 12:47:46.800,-0.22,-0.09
2021-08-19 12:47:46.804,-0.195,-0.09
2021-08-19 12:47:46.808,-0.19,-0.08
2021-08-19 12:47:46.812,-0.185,-0.095
2021-08-19 12:47:46.816,-0.155,-0.08
2021-08-19 12:47:46.820,-0.17,-0.08
2021-08-19 12:47:46.824,-0.14,-0.06
2021-08-19 12:47:46.828,-0.14,-0.075
2021-08-19 12:47:46.832,-0.13,-0.03
2021-08-19 12:47:46.836,-0.14,-0.04
2021-08-19 12:47:46.840,-0.16,-0.025
2021-08-19 12:47:46.844,-0.16,0.015
2021-08-19 12:47:46.848,-0.165,0.03
2021-08-19 12:47:46.852,-0.17,0.055
2021-08-19 12:47:46.856,-0.145,0.06
2021-08-19 12:47:46.860,-0.16,0.1
2021-08-19 12:47:46.864,-0.15,0.12
2021-08-19 12:47:46.868,-0.15,0.14
2021-08-19 12:47:46.872,-0.16,0.15
2021-08-19 12:47:46.876,-0.18,0.155
2021-08-19 12:47:46.880,-0.19,0.13
2021-08-19 12:47:46.884,-0.22,0.13
2021-08-19 12:47:46.888,-0.22,0.1
2021-08-19 12:47:46.892,-0.245,0.1
2021-08-19 12:47:46.896,-0.255,0.07
2021-08-19 12:47:46.900,-0.24,0.065
2021-08-19 12:47:46.904,-0.235,0.085
2021-08-19 12:47:46.908,-0.25,0.05
2021-08-19 12:47:46.912,-0.24,0.035
2021-08-19 12:47:46.916,-0.24,0.05
2021-08-19 12:47:46.920,-0.24,0.07
2021-08-19 12:47:46.924,-0.235,0.04
2021-08-19 12:47:46.928,-0.26,0.06
2021-08-19 12:47:46.932,-0.24,0.06
2021-08-19 12:47:46.936,-0.27,0.075
2021-08-19 12:47:46.940,-0.23,0.06
2021-08-19 12:47:46.944,-0.23,0.065
2021-08-19 12:47:46.948,-0.24,0.085
2021-08-19 12:47:46.952,-0.22,0.07
2021-08-19 12:47:46.956,-0.265,0.07
2021-08-19 12:47:46.960,-0.26,0.075
2021-08-19 12:47:46.964,-0.25,0.05
2021-08-19 12:47:46.968,-0.27,0.08
2021-08-19 12:47:46.972,-0.29,0.085
2021-08-19 12:47:46.976,-0.3,0.09
2021-08-19 12:47:46.980,-0.275,0.095
2021-08-19 12:47:46.984,-0.29,0.07
2021-08-19 12:47:46.988,-0.29,0.08
2021-08-19 12:47:46.992,-0.28,0.085
2021-08-19 12:47:46.996,-0.3,0.08
2021-08-19 12:47:47.000,-0.285,0.075
2021-08-19 12:47:47.004,-0.285,0.085
2021-08-19 12:47:47.008,-0.275,0.08
2021-08-19 12:47:47.012,-0.29,0.075
2021-08-19 12:47:47.016,-0.27,0.075
2021-08-19 12:47:47.020,-0.245,0.105
2021-08-19 12:47:47.024,-0.26,0.1
2021-08-19 12:47:47.028,-0.25,0.09
2021-08-19 12:47:47.032,-0.25,0.1
2021-08-19 12:47:47.036,-0.26,0.095
2021-08-19 12:47:47.040,-0.26,0.1
2021-08-19 12:47:47.044,-0.275,0.13
2021-08-19 12:47:47.048,-0.26,0.155
2021-08-19 12:47:47.052,-0.27,0.155
2021-08-19 12:47:47.056,-0.275,0.155
2021-08-19 12:47:47.060,-0.27,0.17
2021-08-19 12:47:47.064,-0.235,0.185
2021-08-19 12:47:47.068,-0.24,0.2
2021-08-19 12:47:47.072,-0.245,0.18
2021-08-19 12:47:47.076,-0.24,0.2
2021-08-19 12:47:47.080,-0.24,0.195
2021-08-19 12:47:47.084,-0.27,0.16
2021-08-19 12:47:47.088,-0.28,0.14
2021-08-19 12:47:47.092,-0.29,0.115
2021-08-19 12:47:47.096,-0.28,0.105
2021-08-19 12:47:47.100,-0.29,0.11
2021-08-19 12:47:47.104,-0.295,0.1
2021-08-19 12:47:47.108,-0.3,0.07
2021-08-19 12:47:47.112,-0.28,0.07
2021-08-19 12:47:47.116,-0.29,0.065
2021-08-19 12:47:47.120,-0.305,0.07
2021-08-19 12:47:47.124,-0.29,0.09
2021-08-19 12:47:47.128,-0.205,0.085
2021-08-19 12:47:47.132,-0.065,0.11
2021-08-19 12:47:47.136,0.115,0.17
2021-08-19 12:47:47.140,0.315,0.2
2021-08-19 12:47:47.144,0.48,0.2
2021-08-19 12:47:47.148,0.5,0.19
2021-08-19 12:47:47.152,0.29,0.19
2021-08-19 12:47:47.156,-0.04,0.14
2021-08-19 12:47:47.160,-0.275,0.115
2021-08-19 12:47:47.164,-0.37,0.215
2021-08-19 12:47:47.168,-0.42,0.33
2021-08-19 12:47:47.172,-0.46,0.43
2021-08-19 12:47:47.176,-0.44,0.595
2021-08-19 12:47:47.180,-0.465,0.685
2021-08-19 12:47:47.184,-0.505,0.83
2021-08-19 12:47:47.188,-0.545,0.985
2021-08-19 12:47:47.192,-0.58,1.1
2021-08-19 12:47:47.196,-0.615,1.09
2021-08-19 12:47:47.200,-0.58,0.94
2021-08-19 12:47:47.204,-0.55,0.805
2021-08-19 12:47:47.208,-0.44,0.675
2021-08-19 12:47:47.212,-0.32,0.65
2021-08-19 12:47:47.216,-0.29,0.59
2021-08-19 12:47:47.220,-0.275,0.42
2021-08-19 12:47:47.224,-0.265,0.255
2021-08-19 12:47:47.228,-0.24,0.16
2021-08-19 12:47:47.232,-0.235,0.1
2021-08-19 12:47:47.236,-0.235,0.1
2021-08-19 12:47:47.240,-0.225,0.09
2021-08-19 12:47:47.244,-0.21,0.05
2021-08-19 12:47:47.248,-0.185,0.045
2021-08-19 12:47:47.252,-0.18,0.07
2021-08-19 12:47:47.256,-0.18,0.04
2021-08-19 12:47:47.260,-0.175,0.055
2021-08-19 12:47:47.264,-0.15,0.06
2021-08-19 12:47:47.268,-0.17,0.035
2021-08-19 12:47:47.272,-0.185,0.045
2021-08-19 12:47:47.276,-0.18,0.02
2021-08-19 12:47:47.280,-0.155,0.04
2021-08-19 12:47:47.284,-0.19,0.05
2021-08-19 12:47:47.288,-0.18,0.06
2021-08-19 12:47:47.292,-0.18,0.035
2021-08-19 12:47:47.296,-0.165,0.015
2021-08-19 12:47:47.300,-0.17,-0.02
2021-08-19 12:47:47.304,-0.18,-0.075
2021-08-19 12:47:47.308,-0.16,-0.075
2021-08-19 12:47:47.312,-0.16,-0.105
2021-08-19 12:47:47.316,-0.16,-0.125
2021-08-19 12:47:47.320,-0.19,-0.145
2021-08-19 12:47:47.324,-0.2,-0.17
2021-08-19 12:47:47.328,-0.21,-0.175
2021-08-19 12:47:47.332,-0.205,-0.2
2021-08-19 12:47:47.336,-0.205,-0.205
2021-08-19 12:47:47.340,-0.185,-0.185
2021-08-19 12:47:47.344,-0.215,-0.19
2021-08-19 12:47:47.348,-0.205,-0.185
2021-08-19 12:47:47.352,-0.2,-0.225
2021-08-19 12:47:47.356,-0.195,-0.23
2021-08-19 12:47:47.360,-0.185,-0.215
2021-08-19 12:47:47.364,-0.185,-0.215
2021-08-19 12:47:47.368,-0.16,-0.225
2021-08-19 12:47:47.372,-0.165,-0.22
2021-08-19 12:47:47.376,-0.155,-0.24
2021-08-19 12:47:47.380,-0.135,-0.265
2021-08-19 12:47:47.384,-0.14,-0.25
2021-08-19 12:47:47.388,-0.14,-0.255
2021-08-19 12:47:47.392,-0.12,-0.27
2021-08-19 12:47:47.396,-0.1,-0.265
2021-08-19 12:47:47.400,-0.085,-0.235
2021-08-19 12:47:47.404,-0.075,-0.25
2021-08-19 12:47:47.408,-0.08,-0.255
2021-08-19 12:47:47.412,-0.07,-0.25
2021-08-19 12:47:47.416,-0.06,-0.25
2021-08-19 12:47:47.420,-0.06,-0.235
2021-08-19 12:47:47.424,-0.05,-0.21
2021-08-19 12:47:47.428,-0.045,-0.21
2021-08-19 12:47:47.432,-0.05,-0.17
2021-08-19 12:47:47.436,-0.04,-0.145
2021-08-19 12:47:47.440,-0.04,-0.125
2021-08-19 12:47:47.444,-0.05,-0.11
2021-08-19 12:47:47.448,-0.045,-0.06
2021-08-19 12:47:47.452,-0.065,-0.04
2021-08-19 12:47:47.456,-0.055,-0.015
2021-08-19 12:47:47.460,-0.065,0.01
2021-08-19 12:47:47.464,-0.075,0.04
2021-08-19 12:47:47.468,-0.1,0.075
2021-08-19 12:47:47.472,-0.095,0.09
2021-08-19 12:47:47.476,-0.075,0.085
2021-08-19 12:47:47.480,-0.07,0.12
2021-08-19 12:47:47.484,-0.05,0.145
2021-08-19 12:47:47.488,0.065,0.215
2021-08-19 12:47:47.492,0.185,0.265
2021-08-19 12:47:47.496,0.23,0.265
2021-08-19 12:47:47.500,0.23,0.2
2021-08-19 12:47:47.504,0.08,0.1
2021-08-19 12:47:47.508,-0.195,0.0
2021-08-19 12:47:47.512,-0.37,-0.08
2021-08-19 12:47:47.516,-0.385,-0.16
2021-08-19 12:47:47.520,-0.315,-0.1
2021-08-19 12:47:47.524,-0.275,0.08
2021-08-19 12:47:47.528,-0.29,0.265
2021-08-19 12:47:47.532,-0.29,0.545
2021-08-19 12:47:47.536,-0.335,0.77
2021-08-19 12:47:47.540,-0.415,0.945
2021-08-19 12:47:47.544,-0.48,1.135
2021-08-19 12:47:47.548,-0.475,1.32
2021-08-19 12:47:47.552,-0.47,1.405
2021-08-19 12:47:47.556,-0.45,1.38
2021-08-19 12:47:47.560,-0.385,1.23
2021-08-19 12:47:47.564,-0.3,1.03
2021-08-19 12:47:47.568,-0.29,0.835
2021-08-19 12:47:47.572,-0.27,0.59
2021-08-19 12:47:47.576,-0.25,0.325
2021-08-19 12:47:47.580,-0.28,0.13
2021-08-19 12:47:47.584,-0.265,0.1
2021-08-19 12:47:47.588,-0.265,0.075
2021-08-19 12:47:47.592,-0.26,0.04
2021-08-19 12:47:47.596,-0.26,0.015
2021-08-19 12:47:47.600,-0.28,-0.01
2021-08-19 12:47:47.604,-0.265,-0.03
2021-08-19 12:47:47.608,-0.26,-0.04
2021-08-19 12:47:47.612,-0.25,-0.05
2021-08-19 12:47:47.616,-0.225,-0.045
2021-08-19 12:47:47.620,-0.23,-0.055
2021-08-19 12:47:47.624,-0.225,-0.06
2021-08-19 12:47:47.628,-0.22,-0.06
2021-08-19 12:47:47.632,-0.2,-0.04
2021-08-19 12:47:47.636,-0.21,-0.06
2021-08-19 12:47:47.640,-0.18,-0.07
2021-08-19 12:47:47.644,-0.18,-0.075
2021-08-19 12:47:47.648,-0.18,-0.07
2021-08-19 12:47:47.652,-0.18,-0.065
2021-08-19 12:47:47.656,-0.165,-0.075
2021-08-19 12:47:47.660,-0.16,-0.05
2021-08-19 12:47:47.664,-0.16,-0.06
2021-08-19 12:47:47.668,-0.18,-0.035
2021-08-19 12:47:47.672,-0.18,-0.06
2021-08-19 12:47:47.676,-0.18,-0.06
2021-08-19 12:47:47.680,-0.165,-0.05
2021-08-19 12:47:47.684,-0.155,-0.03
2021-08-19 12:47:47.688,-0.12,-0.05
2021-08-19 12:47:47.692,-0.12,-0.035
2021-08-19 12:47:47.696,-0.1,-0.04
2021-08-19 12:47:47.700,-0.115,-0.045
2021-08-19 12:47:47.704,-0.11,-0.07
2021-08-19 12:47:47.708,-0.08,-0.075
2021-08-19 12:47:47.712,-0.09,-0.115
2021-08-19 12:47:47.716,-0.085,-0.165
2021-08-19 12:47:47.720,-0.065,-0.18
2021-08-19 12:47:47.724,-0.08,-0.245
2021-08-19 12:47:47.728,-0.09,-0.24
2021-08-19 12:47:47.732,-0.075,-0.245
2021-08-19 12:47:47.736,-0.075,-0.265
2021-08-19 12:47:47.740,-0.095,-0.285
2021-08-19 12:47:47.744,-0.095,-0.3
2021-08-19 12:47:47.748,-0.09,-0.305
2021-08-19 12:47:47.752,-0.085,-0.315
2021-08-19 12:47:47.756,-0.09,-0.285
2021-08-19 12:47:47.760,-0.125,-0.295
2021-08-19 12:47:47.764,-0.13,-0.27
2021-08-19 12:47:47.768,-0.135,-0.26
2021-08-19 12:47:47.772,-0.15,-0.245
2021-08-19 12:47:47.776,-0.155,-0.225
2021-08-19 12:47:47.780,-0.15,-0.205
2021-08-19 12:47:47.784,-0.17,-0.215
2021-08-19 12:47:47.788,-0.18,-0.145
2021-08-19 12:47:47.792,-0.19,-0.125
2021-08-19 12:47:47.796,-0.19,-0.095
2021-08-19 12:47:47.800,-0.2,-0.06
2021-08-19 12:47:47.804,-0.185,-0.05
2021-08-19 12:47:47.808,-0.19,-0.01
2021-08-19 12:47:47.812,-0.19,0.005
2021-08-19 12:47:47.816,-0.15,0.03
2021-08-19 12:47:47.820,-0.05,0.05
2021-08-19 12:47:47.824,0.145,0.085
2021-08-19 12:47:47.828,0.39,0.145
2021-08-19 12:47:47.832,0.62,0.19
2021-08-19 12:47:47.836,0.705,0.19
2021-08-19 12:47:47.840,0.625,0.195
2021-08-19 12:47:47.844,0.305,0.17
2021-08-19 12:47:47.848,-0.06,0.17
2021-08-19 12:47:47.852,-0.27,0.18
2021-08-19 12:47:47.856,-0.37,0.315
2021-08-19 12:47:47.860,-0.38,0.48
2021-08-19 12:47:47.864,-0.395,0.58
2021-08-19 12:47:47.868,-0.42,0.725
2021-08-19 12:47:47.872,-0.46,0.89
2021-08-19 12:47:47.876,-0.56,1.08
2021-08-19 12:47:47.880,-0.575,1.21
2021-08-19 12:47:47.884,-0.61,1.175
2021-08-19 12:47:47.888,-0.605,1.035
2021-08-19 12:47:47.892,-0.53,0.87
2021-08-19 12:47:47.896,-0.395,0.8
2021-08-19 12:47:47.900,-0.31,0.795
2021-08-19 12:47:47.904,-0.275,0.685
2021-08-19 12:47:47.908,-0.22,0.515
2021-08-19 12:47:47.912,-0.22,0.34
2021-08-19 12:47:47.916,-0.205,0.235
2021-08-19 12:47:47.920,-0.23,0.18
2021-08-19 12:47:47.924,-0.225,0.13
2021-08-19 12:47:47.928,-0.235,0.07
2021-08-19 12:47:47.932,-0.23,0.035
2021-08-19 12:47:47.936,-0.225,0.005
2021-08-19 12:47:47.940,-0.22,-0.01
2021-08-19 12:47:47.944,-0.23,-0.02
2021-08-19 12:47:47.948,-0.22,-0.06
2021-08-19 12:47:47.952,-0.255,-0.065
2021-08-19 12:47:47.956,-0.23,-0.07
2021-08-19 12:47:47.960,-0.215,-0.095
2021-08-19 12:47:47.964,-0.22,-0.09
2021-08-19 12:47:47.968,-0.23,-0.115
2021-08-19 12:47:47.972,-0.225,-0.105
2021-08-19 12:47:47.976,-0.24,-0.11
2021-08-19 12:47:47.980,-0.245,-0.1
2021-08-19 12:47:47.984,-0.235,-0.125
2021-08-19 12:47:47.988,-0.22,-0.12
2021-08-19 12:47:47.992,-0.24,-0.095
2021-08-19 12:47:47.996,-0.245,-0.12
2021-08-19 12:47:48.000,-0.255,-0.125
2021-08-19 12:47:48.004,-0.24,-0.12
2021-08-19 12:47:48.008,-0.24,-0.14
2021-08-19 12:47:48.012,-0.245,-0.14
2021-08-19 12:47:48.016,-0.23,-0.155
2021-08-19 12:47:48.020,-0.24,-0.17
2021-08-19 12:47:48.024,-0.23,-0.17
2021-08-19 12:47:48.028,-0.24,-0.16
2021-08-19 12:47:48.032,-0.25,-0.18
2021-08-19 12:47:48.036,-0.225,-0.195
2021-08-19 12:47:48.040,-0.205,-0.175
2021-08-19 12:47:48.044,-0.21,-0.2
2021-08-19 12:47:48.048,-0.19,-0.205
2021-08-19 12:47:48.052,-0.185,-0.21
2021-08-19 12:47:48.056,-0.165,-0.205
2021-08-19 12:47:48.060,-0.15,-0.205
2021-08-19 12:47:48.064,-0.145,-0.195
2021-08-19 12:47:48.068,-0.14,-0.195
2021-08-19 12:47:48.072,-0.155,-0.165
2021-08-19 12:47:48.076,-0.145,-0.16
2021-08-19 12:47:48.080,-0.14,-0.13
2021-08-19 12:47:48.084,-0.125,-0.115
2021-08-19 12:47:48.088,-0.125,-0.12
2021-08-19 12:47:48.092,-0.135,-0.085
2021-08-19 12:47:48.096,-0.125,-0.04
2021-08-19 12:47:48.100,-0.125,-0.025
2021-08-19 12:47:48.104,-0.13,0.02
2021-08-19 12:47:48.108,-0.14,0.035
2021-08-19 12:47:48.112,-0.115,0.035
2021-08-19 12:47:48.116,-0.135,0.035
2021-08-19 12:47:48.120,-0.145,0.025
2021-08-19 12:47:48.124,-0.145,0.025
2021-08-19 12:47:48.128,-0.16,0.025
2021-08-19 12:47:48.132,-0.165,0.015
2021-08-19 12:47:48.136,-0.195,0.035
2021-08-19 12:47:48.140,-0.19,0.04
2021-08-19 12:47:48.144,-0.17,0.02
2021-08-19 12:47:48.148,-0.185,0.015
2021-08-19 12:47:48.152,-0.175,0.015
2021-08-19 12:47:48.156,-0.185,0.03
2021-08-19 12:47:48.160,-0.21,0.045
2021-08-19 12:47:48.164,-0.2,0.07
2021-08-19 12:47:48.168,-0.195,0.03
2021-08-19 12:47:48.172,-0.21,0.06
2021-08-19 12:47:48.176,-0.185,0.06
2021-08-19 12:47:48.180,-0.19,0.05
2021-08-19 12:47:48.184,-0.18,0.05
2021-08-19 12:47:48.188,-0.125,0.07
2021-08-19 12:47:48.192,0.04,0.115
2021-08-19 12:47:48.196,0.27,0.16
2021-08-19 12:47:48.200,0.48,0.2
2021-08-19 12:47:48.204,0.6,0.2
2021-08-19 12:47:48.208,0.54,0.185
2021-08-19 12:47:48.212,0.23,0.155
2021-08-19 12:47:48.216,-0.105,0.12
2021-08-19 12:47:48.220,-0.28,0.135
2021-08-19 12:47:48.224,-0.36,0.275
2021-08-19 12:47:48.228,-0.38,0.44
2021-08-19 12:47:48.232,-0.36,0.6
2021-08-19 12:47:48.236,-0.42,0.77
2021-08-19 12:47:48.240,-0.515,0.965
2021-08-19 12:47:48.244,-0.575,1.105
2021-08-19 12:47:48.248,-0.625,1.085
2021-08-19 12:47:48.252,-0.615,0.945
2021-08-19 12:47:48.256,-0.52,0.79
2021-08-19 12:47:48.260,-0.45,0.71
2021-08-19 12:47:48.264,-0.375,0.71
2021-08-19 12:47:48.268,-0.31,0.655
2021-08-19 12:47:48.272,-0.28,0.485
2021-08-19 12:47:48.276,-0.295,0.325
2021-08-19 12:47:48.280,-0.295,0.26
2021-08-19 12:47:48.284,-0.275,0.19
2021-08-19 12:47:48.288,-0.28,0.155
2021-08-19 12:47:48.292,-0.245,0.145
2021-08-19 12:47:48.296,-0.235,0.14
2021-08-19 12:47:48.300,-0.24,0.11
2021-08-19 12:47:48.304,-0.245,0.075
2021-08-19 12:47:48.308,-0.245,0.06
2021-08-19 12:47:48.312,-0.24,0.035
2021-08-19 12:47:48.316,-0.225,0.0
2021-08-19 12:47:48.320,-0.22,-0.045
2021-08-19 12:47:48.324,-0.21,-0.055
2021-08-19 12:47:48.328,-0.225,-0.065
2021-08-19 12:47:48.332,-0.23,-0.095
2021-08-19 12:47:48.336,-0.24,-0.11
2021-08-19 12:47:48.340,-0.225,-0.145
2021-08-19 12:47:48.344,-0.235,-0.13
2021-08-19 12:47:48.348,-0.21,-0.155
2021-08-19 12:47:48.352,-0.23,-0.145
2021-08-19 12:47:48.356,-0.225,-0.14
2021-08-19 12:47:48.360,-0.24,-0.16
2021-08-19 12:47:48.364,-0.25,-0.17
2021-08-19 12:47:48.368,-0.23,-0.145
2021-08-19 12:47:48.372,-0.23,-0.135
2021-08-19 12:47:48.376,-0.23,-0.165
2021-08-19 12:47:48.380,-0.215,-0.145
2021-08-19 12:47:48.384,-0.215,-0.18
2021-08-19 12:47:48.388,-0.215,-0.17
2021-08-19 12:47:48.392,-0.22,-0.165
2021-08-19 12:47:48.396,-0.21,-0.195
2021-08-19 12:47:48.400,-0.2,-0.155
2021-08-19 12:47:48.404,-0.22,-0.18
2021-08-19 12:47:48.408,-0.2,-0.2
2021-08-19 12:47:48.412,-0.18,-0.185
2021-08-19 12:47:48.416,-0.19,-0.2
2021-08-19 12:47:48.420,-0.17,-0.2
2021-08-19 12:47:48.424,-0.145,-0.185
2021-08-19 12:47:48.428,-0.145,-0.18
2021-08-19 12:47:48.432,-0.14,-0.2
2021-08-19 12:47:48.436,-0.145,-0.195
2021-08-19 12:47:48.440,-0.15,-0.205
2021-08-19 12:47:48.444,-0.17,-0.195
2021-08-19 12:47:48.448,-0.16,-0.185
2021-08-19 12:47:48.452,-0.17,-0.17
2021-08-19 12:47:48.456,-0.16,-0.17
2021-08-19 12:47:48.460,-0.165,-0.135
2021-08-19 12:47:48.464,-0.16,-0.12
2021-08-19 12:47:48.468,-0.165,-0.085
2021-08-19 12:47:48.472,-0.175,-0.085
2021-08-19 12:47:48.476,-0.17,-0.04
2021-08-19 12:47:48.480,-0.195,-0.015
2021-08-19 12:47:48.484,-0.2,0.01
2021-08-19 12:47:48.488,-0.19,0.03
2021-08-19 12:47:48.492,-0.185,0.04
2021-08-19 12:47:48.496,-0.21,0.085
2021-08-19 12:47:48.500,-0.195,0.11
2021-08-19 12:47:48.504,-0.185,0.135
2021-08-19 12:47:48.508,-0.175,0.145
2021-08-19 12:47:48.512,-0.185,0.165
2021-08-19 12:47:48.516,-0.18,0.175
2021-08-19 12:47:48.520,-0.205,0.14
2021-08-19 12:47:48.524,-0.195,0.115
2021-08-19 12:47:48.528,-0.215,0.08
2021-08-19 12:47:48.532,-0.22,0.065
2021-08-19 12:47:48.536,-0.225,0.06
2021-08-19 12:47:48.540,-0.25,0.05
2021-08-19 12:47:48.544,-0.255,0.055
2021-08-19 12:47:48.548,-0.23,0.035
2021-08-19 12:47:48.552,-0.255,0.02
2021-08-19 12:47:48.556,-0.265,0.025
2021-08-19 12:47:48.560,-0.265,0.02
2021-08-19 12:47:48.564,-0.27,0.005
2021-08-19 12:47:48.568,-0.26,0.015
2021-08-19 12:47:48.572,-0.28,0.02
2021-08-19 12:47:48.576,-0.305,0.005
2021-08-19 12:47:48.580,-0.285,0.04
2021-08-19 12:47:48.584,-0.3,0.05
2021-08-19 12:47:48.588,-0.33,0.045
2021-08-19 12:47:48.592,-0.325,0.025
2021-08-19 12:47:48.596,-0.345,0.06
2021-08-19 12:47:48.600,-0.32,0.05
2021-08-19 12:47:48.604,-0.315,0.045
2021-08-19 12:47:48.608,-0.32,0.045
2021-08-19 12:47:48.612,-0.32,0.045
2021-08-19 12:47:48.616,-0.32,0.05
2021-08-19 12:47:48.620,-0.32,0.04
2021-08-19 12:47:48.624,-0.345,0.065
2021-08-19 12:47:48.628,-0.34,0.08
2021-08-19 12:47:48.632,-0.355,0.065
2021-08-19 12:47:48.636,-0.415,0.065
2021-08-19 12:47:48.640,-0.4,0.11
2021-08-19 12:47:48.644,-0.255,0.135
2021-08-19 12:47:48.648,-0.025,0.19
2021-08-19 12:47:48.652,0.21,0.195
2021-08-19 12:47:48.656,0.39,0.17
2021-08-19 12:47:48.660,0.39,0.18
2021-08-19 12:47:48.664,0.145,0.17
2021-08-19 12:47:48.668,-0.17,0.14
2021-08-19 12:47:48.672,-0.395,0.195
2021-08-19 12:47:48.676,-0.515,0.325
2021-08-19 12:47:48.680,-0.52,0.46
2021-08-19 12:47:48.684,-0.52,0.615
2021-08-19 12:47:48.688,-0.52,0.75
2021-08-19 12:47:48.692,-0.535,0.84
2021-08-19 12:47:48.696,-0.52,0.935
2021-08-19 12:47:48.700,-0.525,1.03
2021-08-19 12:47:48.704,-0.555,1.165
2021-08-19 12:47:48.708,-0.545,1.31
2021-08-19 12:47:48.712,-0.565,1.41
2021-08-19 12:47:48.716,-0.55,1.375
2021-08-19 12:47:48.720,-0.495,1.155
2021-08-19 12:47:48.724,-0.415,0.94
2021-08-19 12:47:48.728,-0.33,0.765
2021-08-19 12:47:48.732,-0.315,0.655
2021-08-19 12:47:48.736,-0.305,0.455
2021-08-19 12:47:48.740,-0.32,0.24
2021-08-19 12:47:48.744,-0.305,0.12
2021-08-19 12:47:48.748,-0.3,0.08
2021-08-19 12:47:48.752,-0.28,0.03
2021-08-19 12:47:48.756,-0.305,0.005
2021-08-19 12:47:48.760,-0.32,-0.03
2021-08-19 12:47:48.764,-0.315,-0.035
2021-08-19 12:47:48.768,-0.32,-0.055
2021-08-19 12:47:48.772,-0.36,-0.08
2021-08-19 12:47:48.776,-0.335,-0.095
2021-08-19 12:47:48.780,-0.34,-0.095
2021-08-19 12:47:48.784,-0.34,-0.105
2021-08-19 12:47:48.788,-0.335,-0.115
2021-08-19 12:47:48.792,-0.34,-0.115
2021-08-19 12:47:48.796,-0.315,-0.12
2021-08-19 12:47:48.800,-0.305,-0.125
2021-08-19 12:47:48.804,-0.325,-0.12
2021-08-19 12:47:48.808,-0.315,-0.115
2021-08-19 12:47:48.812,-0.34,-0.14
2021-08-19 12:47:48.816,-0.335,-0.14
2021-08-19 12:47:48.820,-0.355,-0.14
2021-08-19 12:47:48.824,-0.33,-0.14
2021-08-19 12:47:48.828,-0.35,-0.145
2021-08-19 12:47:48.832,-0.345,-0.15
2021-08-19 12:47:48.836,-0.315,-0.15
2021-08-19 12:47:48.840,-0.34,-0.16
2021-08-19 12:47:48.844,-0.33,-0.175
2021-08-19 12:47:48.848,-0.335,-0.17
2021-08-19 12:47:48.852,-0.335,-0.2
2021-08-19 12:47:48.856,-0.345,-0.215
2021-08-19 12:47:48.860,-0.345,-0.19
2021-08-19 12:47:48.864,-0.34,-0.215
2021-08-19 12:47:48.868,-0.33,-0.23
2021-08-19 12:47:48.872,-0.31,-0.245
2021-08-19 12:47:48.876,-0.3,-0.24
2021-08-19 12:47:48.880,-0.285,-0.25
2021-08-19 12:47:48.884,-0.285,-0.235
2021-08-19 12:47:48.888,-0.255,-0.245
2021-08-19 12:47:48.892,-0.25,-0.24
2021-08-19 12:47:48.896,-0.24,-0.23
2021-08-19 12:47:48.900,-0.215,-0.225
2021-08-19 12:47:48.904,-0.205,-0.2
2021-08-19 12:47:48.908,-0.165,-0.175
2021-08-19 12:47:48.912,-0.15,-0.165
2021-08-19 12:47:48.916,-0.165,-0.155
2021-08-19 12:47:48.920,-0.16,-0.14
2021-08-19 12:47:48.924,-0.155,-0.125
2021-08-19 12:47:48.928,-0.16,-0.14
2021-08-19 12:47:48.932,-0.16,-0.135
2021-08-19 12:47:48.936,-0.175,-0.14
2021-08-19 12:47:48.940,-0.18,-0.15
2021-08-19 12:47:48.944,-0.185,-0.14
2021-08-19 12:47:48.948,-0.19,-0.115
2021-08-19 12:47:48.952,-0.22,-0.11
2021-08-19 12:47:48.956,-0.24,-0.075
2021-08-19 12:47:48.960,-0.235,-0.055
2021-08-19 12:47:48.964,-0.26,-0.045
2021-08-19 12:47:48.968,-0.265,-0.035
2021-08-19 12:47:48.972,-0.27,-0.015
2021-08-19 12:47:48.976,-0.275,0.0
2021-08-19 12:47:48.980,-0.28,0.025
2021-08-19 12:47:48.984,-0.275,0.035
2021-08-19 12:47:48.988,-0.28,0.045
2021-08-19 12:47:48.992,-0.28,0.06
2021-08-19 12:47:48.996,-0.285,0.065
2021-08-19 12:47:49.000,-0.285,0.065
2021-08-19 12:47:49.004,-0.285,0.105
2021-08-19 12:47:49.008,-0.28,0.11
2021-08-19 12:47:49.012,-0.29,0.12
2021-08-19 12:47:49.016,-0.305,0.12
2021-08-19 12:47:49.020,-0.295,0.125
2021-08-19 12:47:49.024,-0.295,0.115
2021-08-19 12:47:49.028,-0.305,0.135
2021-08-19 12:47:49.032,-0.33,0.125
2021-08-19 12:47:49.036,-0.33,0.11
2021-08-19 12:47:49.040,-0.335,0.135
2021-08-19 12:47:49.044,-0.345,0.105
2021-08-19 12:47:49.048,-0.35,0.12
2021-08-19 12:47:49.052,-0.35,0.125
2021-08-19 12:47:49.056,-0.36,0.135
2021-08-19 12:47:49.060,-0.365,0.125
2021-08-19 12:47:49.064,-0.365,0.13
2021-08-19 12:47:49.068,-0.38,0.125
2021-08-19 12:47:49.072,-0.375,0.095
2021-08-19 12:47:49.076,-0.38,0.115
2021-08-19 12:47:49.080,-0.35,0.12
2021-08-19 12:47:49.084,-0.345,0.115
2021-08-19 12:47:49.088,-0.33,0.125
2021-08-19 12:47:49.092,-0.335,0.135
2021-08-19 12:47:49.096,-0.32,0.155
2021-08-19 12:47:49.100,-0.35,0.175
2021-08-19 12:47:49.104,-0.32,0.175
2021-08-19 12:47:49.108,-0.32,0.2
2021-08-19 12:47:49.112,-0.295,0.205
2021-08-19 12:47:49.116,-0.265,0.235
2021-08-19 12:47:49.120,-0.26,0.225
2021-08-19 12:47:49.124,-0.27,0.21
2021-08-19 12:47:49.128,-0.29,0.22
2021-08-19 12:47:49.132,-0.32,0.2
2021-08-19 12:47:49.136,-0.26,0.185
2021-08-19 12:47:49.140,-0.09,0.19
2021-08-19 12:47:49.144,0.15,0.24
2021-08-19 12:47:49.148,0.37,0.265
2021-08-19 12:47:49.152,0.49,0.24
2021-08-19 12:47:49.156,0.405,0.24
2021-08-19 12:47:49.160,0.08,0.2
2021-08-19 12:47:49.164,-0.24,0.21
2021-08-19 12:47:49.168,-0.435,0.28
2021-08-19 12:47:49.172,-0.49,0.415
2021-08-19 12:47:49.176,-0.505,0.58
2021-08-19 12:47:49.180,-0.495,0.695
2021-08-19 12:47:49.184,-0.495,0.79
2021-08-19 12:47:49.188,-0.51,0.885
2021-08-19 12:47:49.192,-0.515,0.98
2021-08-19 12:47:49.196,-0.515,1.04
2021-08-19 12:47:49.200,-0.515,1.15
2021-08-19 12:47:49.204,-0.525,1.27
2021-08-19 12:47:49.208,-0.52,1.33
2021-08-19 12:47:49.212,-0.535,1.395
2021-08-19 12:47:49.216,-0.53,1.47
2021-08-19 12:47:49.220,-0.49,1.52
2021-08-19 12:47:49.224,-0.41,1.525
2021-08-19 12:47:49.228,-0.385,1.455
2021-08-19 12:47:49.232,-0.365,1.185
2021-08-19 12:47:49.236,-0.34,0.84
2021-08-19 12:47:49.240,-0.35,0.485
2021-08-19 12:47:49.244,-0.36,0.315
2021-08-19 12:47:49.248,-0.345,0.235
2021-08-19 12:47:49.252,-0.335,0.175
2021-08-19 12:47:49.256,-0.34,0.115
2021-08-19 12:47:49.260,-0.34,0.11
2021-08-19 12:47:49.264,-0.335,0.065
2021-08-19 12:47:49.268,-0.31,0.02
2021-08-19 12:47:49.272,-0.31,-0.01
2021-08-19 12:47:49.276,-0.32,-0.015
2021-08-19 12:47:49.280,-0.31,-0.02
2021-08-19 12:47:49.284,-0.31,-0.05
2021-08-19 12:47:49.288,-0.305,-0.065
2021-08-19 12:47:49.292,-0.29,-0.08
2021-08-19 12:47:49.296,-0.27,-0.075
2021-08-19 12:47:49.300,-0.28,-0.1
2021-08-19 12:47:49.304,-0.28,-0.115
2021-08-19 12:47:49.308,-0.28,-0.125
2021-08-19 12:47:49.312,-0.28,-0.125
2021-08-19 12:47:49.316,-0.245,-0.13
2021-08-19 12:47:49.320,-0.245,-0.12
2021-08-19 12:47:49.324,-0.23,-0.12
2021-08-19 12:47:49.328,-0.25,-0.115
2021-08-19 12:47:49.332,-0.26,-0.105
2021-08-19 12:47:49.336,-0.245,-0.11
2021-08-19 12:47:49.340,-0.235,-0.125
2021-08-19 12:47:49.344,-0.24,-0.145
2021-08-19 12:47:49.348,-0.245,-0.14
2021-08-19 12:47:49.352,-0.25,-0.15
2021-08-19 12:47:49.356,-0.265,-0.145
2021-08-19 12:47:49.360,-0.245,-0.2
2021-08-19 12:47:49.364,-0.245,-0.275
2021-08-19 12:47:49.368,-0.24,-0.34
2021-08-19 12:47:49.372,-0.24,-0.36
2021-08-19 12:47:49.376,-0.25,-0.38
2021-08-19 12:47:49.380,-0.265,-0.365
2021-08-19 12:47:49.384,-0.24,-0.38
2021-08-19 12:47:49.388,-0.225,-0.375
2021-08-19 12:47:49.392,-0.23,-0.38
2021-08-19 12:47:49.396,-0.24,-0.395
2021-08-19 12:47:49.400,-0.24,-0.39
2021-08-19 12:47:49.404,-0.235,-0.395
2021-08-19 12:47:49.408,-0.245,-0.385
2021-08-19 12:47:49.412,-0.23,-0.355
2021-08-19 12:47:49.416,-0.26,-0.375
2021-08-19 12:47:49.420,-0.245,-0.385
2021-08-19 12:47:49.424,-0.27,-0.385
2021-08-19 12:47:49.428,-0.275,-0.34
2021-08-19 12:47:49.432,-0.265,-0.33
2021-08-19 12:47:49.436,-0.3,-0.315
2021-08-19 12:47:49.440,-0.295,-0.27
2021-08-19 12:47:49.444,-0.305,-0.24
2021-08-19 12:47:49.448,-0.32,-0.22
2021-08-19 12:47:49.452,-0.325,-0.185
2021-08-19 12:47:49.456,-0.315,-0.17
2021-08-19 12:47:49.460,-0.315,-0.14
2021-08-19 12:47:49.464,-0.335,-0.11
2021-08-19 12:47:49.468,-0.305,-0.085
2021-08-19 12:47:49.472,-0.3,-0.055
2021-08-19 12:47:49.476,-0.32,-0.04
2021-08-19 12:47:49.480,-0.32,0.0
2021-08-19 12:47:49.484,-0.32,0.03
2021-08-19 12:47:49.488,-0.305,0.055
2021-08-19 12:47:49.492,-0.3,0.055
2021-08-19 12:47:49.496,-0.305,0.08
2021-08-19 12:47:49.500,-0.295,0.09
2021-08-19 12:47:49.504,-0.305,0.075
2021-08-19 12:47:49.508,-0.295,0.095
2021-08-19 12:47:49.512,-0.29,0.125
2021-08-19 12:47:49.516,-0.28,0.12
2021-08-19 12:47:49.520,-0.295,0.1
2021-08-19 12:47:49.524,-0.28,0.125
2021-08-19 12:47:49.528,-0.31,0.13
2021-08-19 12:47:49.532,-0.295,0.12
2021-08-19 12:47:49.536,-0.305,0.13
2021-08-19 12:47:49.540,-0.305,0.14
2021-08-19 12:47:49.544,-0.3,0.15
2021-08-19 12:47:49.548,-0.305,0.155
2021-08-19 12:47:49.552,-0.295,0.17
2021-08-19 12:47:49.556,-0.27,0.205
2021-08-19 12:47:49.560,-0.27,0.205
2021-08-19 12:47:49.564,-0.255,0.215
2021-08-19 12:47:49.568,-0.265,0.23
2021-08-19 12:47:49.572,-0.275,0.27
2021-08-19 12:47:49.576,-0.28,0.265
2021-08-19 12:47:49.580,-0.285,0.26
2021-08-19 12:47:49.584,-0.31,0.245
2021-08-19 12:47:49.588,-0.32,0.225
2021-08-19 12:47:49.592,-0.335,0.18
2021-08-19 12:47:49.596,-0.34,0.18
2021-08-19 12:47:49.600,-0.365,0.16
2021-08-19 12:47:49.604,-0.365,0.13
2021-08-19 12:47:49.608,-0.37,0.12
2021-08-19 12:47:49.612,-0.365,0.095
2021-08-19 12:47:49.616,-0.385,0.12
2021-08-19 12:47:49.620,-0.39,0.105
2021-08-19 12:47:49.624,-0.385,0.095
2021-08-19 12:47:49.628,-0.395,0.105
2021-08-19 12:47:49.632,-0.375,0.105
2021-08-19 12:47:49.636,-0.385,0.1
2021-08-19 12:47:49.640,-0.375,0.095
2021-08-19 12:47:49.644,-0.365,0.09
2021-08-19 12:47:49.648,-0.37,0.07
2021-08-19 12:47:49.652,-0.375,0.095
2021-08-19 12:47:49.656,-0.385,0.105
2021-08-19 12:47:49.660,-0.385,0.09
2021-08-19 12:47:49.664,-0.395,0.08
2021-08-19 12:47:49.668,-0.39,0.115
2021-08-19 12:47:49.672,-0.39,0.1
2021-08-19 12:47:49.676,-0.4,0.105
2021-08-19 12:47:49.680,-0.415,0.085
2021-08-19 12:47:49.684,-0.415,0.105
2021-08-19 12:47:49.688,-0.425,0.14
2021-08-19 12:47:49.692,-0.415,0.11
2021-08-19 12:47:49.696,-0.435,0.115
2021-08-19 12:47:49.700,-0.43,0.13
2021-08-19 12:47:49.704,-0.44,0.13
2021-08-19 12:47:49.708,-0.43,0.105
2021-08-19 12:47:49.712,-0.43,0.11
2021-08-19 12:47:49.716,-0.44,0.12
2021-08-19 12:47:49.720,-0.44,0.13
2021-08-19 12:47:49.724,-0.42,0.11
2021-08-19 12:47:49.728,-0.425,0.11
2021-08-19 12:47:49.732,-0.44,0.11
2021-08-19 12:47:49.736,-0.415,0.115
2021-08-19 12:47:49.740,-0.415,0.125
2021-08-19 12:47:49.744,-0.4,0.13
2021-08-19 12:47:49.748,-0.39,0.155
2021-08-19 12:47:49.752,-0.395,0.17
2021-08-19 12:47:49.756,-0.365,0.17
2021-08-19 12:47:49.760,-0.385,0.2
2021-08-19 12:47:49.764,-0.37,0.205
2021-08-19 12:47:49.768,-0.38,0.225
2021-08-19 12:47:49.772,-0.375,0.24
2021-08-19 12:47:49.776,-0.355,0.235
2021-08-19 12:47:49.780,-0.355,0.23
2021-08-19 12:47:49.784,-0.33,0.245
2021-08-19 12:47:49.788,-0.33,0.245
2021-08-19 12:47:49.792,-0.32,0.225
2021-08-19 12:47:49.796,-0.32,0.18
2021-08-19 12:47:49.800,-0.32,0.175
2021-08-19 12:47:49.804,-0.32,0.175
2021-08-19 12:47:49.808,-0.33,0.135
2021-08-19 12:47:49.812,-0.34,0.14
2021-08-19 12:47:49.816,-0.325,0.135
2021-08-19 12:47:49.820,-0.23,0.165
2021-08-19 12:47:49.824,-0.07,0.215
2021-08-19 12:47:49.828,0.115,0.26
2021-08-19 12:47:49.832,0.28,0.255
2021-08-19 12:47:49.836,0.345,0.245
2021-08-19 12:47:49.840,0.23,0.205
2021-08-19 12:47:49.844,-0.035,0.185
2021-08-19 12:47:49.848,-0.305,0.155
2021-08-19 12:47:49.852,-0.4,0.155
2021-08-19 12:47:49.856,-0.46,0.295
2021-08-19 12:47:49.860,-0.48,0.425
2021-08-19 12:47:49.864,-0.48,0.605
2021-08-19 12:47:49.868,-0.49,0.735
2021-08-19 12:47:49.872,-0.545,0.85
2021-08-19 12:47:49.876,-0.605,1.015
2021-08-19 12:47:49.880,-0.64,1.195
2021-08-19 12:47:49.884,-0.665,1.22
2021-08-19 12:47:49.888,-0.68,1.115
2021-08-19 12:47:49.892,-0.63,0.955
2021-08-19 12:47:49.896,-0.54,0.815
2021-08-19 12:47:49.900,-0.48,0.775
2021-08-19 12:47:49.904,-0.445,0.73
2021-08-19 12:47:49.908,-0.44,0.57
2021-08-19 12:47:49.912,-0.435,0.375
2021-08-19 12:47:49.916,-0.42,0.27
2021-08-19 12:47:49.920,-0.42,0.2
2021-08-19 12:47:49.924,-0.435,0.2
2021-08-19 12:47:49.928,-0.42,0.135
2021-08-19 12:47:49.932,-0.39,0.145
2021-08-19 12:47:49.936,-0.39,0.11
2021-08-19 12:47:49.940,-0.38,0.115
2021-08-19 12:47:49.944,-0.36,0.105
2021-08-19 12:47:49.948,-0.34,0.085
2021-08-19 12:47:49.952,-0.33,0.08
2021-08-19 12:47:49.956,-0.32,0.085
2021-08-19 12:47:49.960,-0.305,0.1
2021-08-19 12:47:49.964,-0.315,0.095
2021-08-19 12:47:49.968,-0.3,0.095
2021-08-19 12:47:49.972,-0.305,0.1
2021-08-19 12:47:49.976,-0.32,0.11
2021-08-19 12:47:49.980,-0.31,0.09
2021-08-19 12:47:49.984,-0.3,0.095
2021-08-19 12:47:49.988,-0.29,0.115
2021-08-19 12:47:49.992,-0.28,0.12
2021-08-19 12:47:49.996,-0.255,0.135
2021-08-19 12:47:50.000,-0.25,0.125
2021-08-19 12:47:50.004,-0.245,0.125
2021-08-19 12:47:50.008,-0.23,0.13
2021-08-19 12:47:50.012,-0.225,0.12
2021-08-19 12:47:50.016,-0.24,0.065
2021-08-19 12:47:50.020,-0.255,0.035
2021-08-19 12:47:50.024,-0.265,-0.02
2021-08-19 12:47:50.028,-0.265,-0.025
2021-08-19 12:47:50.032,-0.285,-0.06
2021-08-19 12:47:50.036,-0.26,-0.07
2021-08-19 12:47:50.040,-0.285,-0.095
2021-08-19 12:47:50.044,-0.29,-0.115
2021-08-19 12:47:50.048,-0.275,-0.125
2021-08-19 12:47:50.052,-0.265,-0.12
2021-08-19 12:47:50.056,-0.255,-0.13
2021-08-19 12:47:50.060,-0.26,-0.135
2021-08-19 12:47:50.064,-0.265,-0.14
2021-08-19 12:47:50.068,-0.26,-0.115
2021-08-19 12:47:50.072,-0.25,-0.13
2021-08-19 12:47:50.076,-0.235,-0.13
2021-08-19 12:47:50.080,-0.225,-0.135
2021-08-19 12:47:50.084,-0.235,-0.145
2021-08-19 12:47:50.088,-0.215,-0.14
2021-08-19 12:47:50.092,-0.215,-0.13
2021-08-19 12:47:50.096,-0.23,-0.145
2021-08-19 12:47:50.100,-0.225,-0.13
2021-08-19 12:47:50.104,-0.215,-0.13
2021-08-19 12:47:50.108,-0.23,-0.155
2021-08-19 12:47:50.112,-0.2,-0.145
2021-08-19 12:47:50.116,-0.205,-0.125
2021-08-19 12:47:50.120,-0.235,-0.1
2021-08-19 12:47:50.124,-0.235,-0.105
2021-08-19 12:47:50.128,-0.25,-0.095
2021-08-19 12:47:50.132,-0.23,-0.08
2021-08-19 12:47:50.136,-0.245,-0.05
2021-08-19 12:47:50.140,-0.255,-0.015
2021-08-19 12:47:50.144,-0.24,0.0
2021-08-19 12:47:50.148,-0.245,0.02
2021-08-19 12:47:50.152,-0.235,0.035
2021-08-19 12:47:50.156,-0.26,0.065
2021-08-19 12:47:50.160,-0.255,0.085
2021-08-19 12:47:50.164,-0.24,0.115
2021-08-19 12:47:50.168,-0.265,0.15
2021-08-19 12:47:50.172,-0.275,0.15
2021-08-19 12:47:50.176,-0.285,0.165
2021-08-19 12:47:50.180,-0.285,0.18
2021-08-19 12:47:50.184,-0.295,0.205
2021-08-19 12:47:50.188,-0.28,0.215
2021-08-19 12:47:50.192,-0.305,0.22
2021-08-19 12:47:50.196,-0.275,0.225
2021-08-19 12:47:50.200,-0.27,0.23
2021-08-19 12:47:50.204,-0.26,0.24
2021-08-19 12:47:50.208,-0.245,0.245
2021-08-19 12:47:50.212,-0.27,0.245
2021-08-19 12:47:50.216,-0.245,0.255
2021-08-19 12:47:50.220,-0.26,0.2
2021-08-19 12:47:50.224,-0.25,0.185
2021-08-19 12:47:50.228,-0.255,0.155
2021-08-19 12:47:50.232,-0.24,0.16
2021-08-19 12:47:50.236,-0.265,0.155
2021-08-19 12:47:50.240,-0.27,0.135
2021-08-19 12:47:50.244,-0.29,0.13
2021-08-19 12:47:50.248,-0.28,0.135
2021-08-19 12:47:50.252,-0.29,0.12
2021-08-19 12:47:50.256,-0.3,0.1
2021-08-19 12:47:50.260,-0.315,0.11
2021-08-19 12:47:50.264,-0.32,0.11
2021-08-19 12:47:50.268,-0.335,0.105
2021-08-19 12:47:50.272,-0.335,0.075
2021-08-19 12:47:50.276,-0.33,0.105
2021-08-19 12:47:50.280,-0.35,0.105
2021-08-19 12:47:50.284,-0.365,0.115
2021-08-19 12:47:50.288,-0.34,0.105
2021-08-19 12:47:50.292,-0.365,0.1
2021-08-19 12:47:50.296,-0.365,0.105
2021-08-19 12:47:50.300,-0.38,0.125
2021-08-19 12:47:50.304,-0.37,0.11
2021-08-19 12:47:50.308,-0.38,0.12
2021-08-19 12:47:50.312,-0.395,0.1
2021-08-19 12:47:50.316,-0.37,0.1
2021-08-19 12:47:50.320,-0.375,0.12
2021-08-19 12:47:50.324,-0.42,0.12
2021-08-19 12:47:50.328,-0.48,0.14
2021-08-19 12:47:50.332,-0.44,0.13
2021-08-19 12:47:50.336,-0.32,0.195
2021-08-19 12:47:50.340,-0.125,0.21
2021-08-19 12:47:50.344,0.11,0.265
2021-08-19 12:47:50.348,0.29,0.28
2021-08-19 12:47:50.352,0.345,0.275
2021-08-19 12:47:50.356,0.155,0.25
2021-08-19 12:47:50.360,-0.175,0.215
2021-08-19 12:47:50.364,-0.435,0.205
2021-08-19 12:47:50.368,-0.575,0.325
2021-08-19 12:47:50.372,-0.6,0.485
2021-08-19 12:47:50.376,-0.59,0.635
2021-08-19 12:47:50.380,-0.57,0.775
2021-08-19 12:47:50.384,-0.575,0.89
2021-08-19 12:47:50.388,-0.61,0.96
2021-08-19 12:47:50.392,-0.59,1.05
2021-08-19 12:47:50.396,-0.58,1.175
2021-08-19 12:47:50.400,-0.565,1.285
2021-08-19 12:47:50.404,-0.545,1.355
2021-08-19 12:47:50.408,-0.555,1.43
2021-08-19 12:47:50.412,-0.55,1.495
2021-08-19 12:47:50.416,-0.515,1.56
2021-08-19 12:47:50.420,-0.465,1.555
2021-08-19 12:47:50.424,-0.39,1.51
2021-08-19 12:47:50.428,-0.36,1.4
2021-08-19 12:47:50.432,-0.365,1.11
2021-08-19 12:47:50.436,-0.355,0.71
2021-08-19 12:47:50.440,-0.36,0.37
2021-08-19 12:47:50.444,-0.36,0.23
2021-08-19 12:47:50.448,-0.36,0.15
2021-08-19 12:47:50.452,-0.345,0.085
2021-08-19 12:47:50.456,-0.34,0.05
2021-08-19 12:47:50.460,-0.34,0.02
2021-08-19 12:47:50.464,-0.34,-0.015
2021-08-19 12:47:50.468,-0.33,-0.045
2021-08-19 12:47:50.472,-0.33,-0.09
2021-08-19 12:47:50.476,-0.33,-0.105
2021-08-19 12:47:50.480,-0.34,-0.135
2021-08-19 12:47:50.484,-0.335,-0.145
2021-08-19 12:47:50.488,-0.32,-0.145
2021-08-19 12:47:50.492,-0.33,-0.185
2021-08-19 12:47:50.496,-0.34,-0.175
2021-08-19 12:47:50.500,-0.325,-0.185
2021-08-19 12:47:50.504,-0.32,-0.17
2021-08-19 12:47:50.508,-0.335,-0.205
2021-08-19 12:47:50.512,-0.32,-0.22
2021-08-19 12:47:50.516,-0.325,-0.22
2021-08-19 12:47:50.520,-0.32,-0.235
2021-08-19 12:47:50.524,-0.33,-0.255
2021-08-19 12:47:50.528,-0.34,-0.245
2021-08-19 12:47:50.532,-0.325,-0.245
2021-08-19 12:47:50.536,-0.33,-0.28
2021-08-19 12:47:50.540,-0.325,-0.28
2021-08-19 12:47:50.544,-0.33,-0.275
2021-08-19 12:47:50.548,-0.315,-0.275
2021-08-19 12:47:50.552,-0.315,-0.285
2021-08-19 12:47:50.556,-0.325,-0.3
2021-08-19 12:47:50.560,-0.315,-0.31
2021-08-19 12:47:50.564,-0.31,-0.33
2021-08-19 12:47:50.568,-0.335,-0.345
2021-08-19 12:47:50.572,-0.34,-0.34
2021-08-19 12:47:50.576,-0.335,-0.355
2021-08-19 12:47:50.580,-0.32,-0.34
2021-08-19 12:47:50.584,-0.335,-0.365
2021-08-19 12:47:50.588,-0.34,-0.385
2021-08-19 12:47:50.592,-0.31,-0.37
2021-08-19 12:47:50.596,-0.32,-0.355
2021-08-19 12:47:50.600,-0.325,-0.375
2021-08-19 12:47:50.604,-0.315,-0.36
2021-08-19 12:47:50.608,-0.315,-0.335
2021-08-19 12:47:50.612,-0.305,-0.33
2021-08-19 12:47:50.616,-0.285,-0.345
2021-08-19 12:47:50.620,-0.29,-0.31
2021-08-19 12:47:50.624,-0.265,-0.28
2021-08-19 12:47:50.628,-0.26,-0.275
2021-08-19 12:47:50.632,-0.285,-0.23
2021-08-19 12:47:50.636,-0.31,-0.24
2021-08-19 12:47:50.640,-0.315,-0.225
2021-08-19 12:47:50.644,-0.3,-0.24
2021-08-19 12:47:50.648,-0.32,-0.24
2021-08-19 12:47:50.652,-0.35,-0.235
2021-08-19 12:47:50.656,-0.345,-0.2
2021-08-19 12:47:50.660,-0.34,-0.205
2021-08-19 12:47:50.664,-0.36,-0.16
2021-08-19 12:47:50.668,-0.365,-0.13
2021-08-19 12:47:50.672,-0.4,-0.14
2021-08-19 12:47:50.676,-0.385,-0.1
2021-08-19 12:47:50.680,-0.37,-0.065
2021-08-19 12:47:50.684,-0.395,-0.07
2021-08-19 12:47:50.688,-0.405,-0.025
2021-08-19 12:47:50.692,-0.385,-0.04
2021-08-19 12:47:50.696,-0.41,-0.015
2021-08-19 12:47:50.700,-0.39,-0.01
2021-08-19 12:47:50.704,-0.395,0.01
2021-08-19 12:47:50.708,-0.39,0.05
2021-08-19 12:47:50.712,-0.41,0.045
2021-08-19 12:47:50.716,-0.395,0.04
2021-08-19 12:47:50.720,-0.42,0.07
2021-08-19 12:47:50.724,-0.395,0.06
2021-08-19 12:47:50.728,-0.385,0.06
2021-08-19 12:47:50.732,-0.39,0.08
2021-08-19 12:47:50.736,-0.385,0.06
2021-08-19 12:47:50.740,-0.38,0.07
2021-08-19 12:47:50.744,-0.395,0.09
2021-08-19 12:47:50.748,-0.385,0.11
2021-08-19 12:47:50.752,-0.4,0.115
2021-08-19 12:47:50.756,-0.43,0.13
2021-08-19 12:47:50.760,-0.455,0.12
2021-08-19 12:47:50.764,-0.455,0.11
2021-08-19 12:47:50.768,-0.445,0.1
2021-08-19 12:47:50.772,-0.455,0.09
2021-08-19 12:47:50.776,-0.46,0.105
2021-08-19 12:47:50.780,-0.45,0.125
2021-08-19 12:47:50.784,-0.445,0.125
2021-08-19 12:47:50.788,-0.44,0.125
2021-08-19 12:47:50.792,-0.43,0.13
2021-08-19 12:47:50.796,-0.435,0.125
2021-08-19 12:47:50.800,-0.42,0.14
2021-08-19 12:47:50.804,-0.42,0.145
2021-08-19 12:47:50.808,-0.39,0.13
2021-08-19 12:47:50.812,-0.38,0.165
2021-08-19 12:47:50.816,-0.355,0.165
2021-08-19 12:47:50.820,-0.36,0.17
2021-08-19 12:47:50.824,-0.35,0.165
2021-08-19 12:47:50.828,-0.345,0.14
2021-08-19 12:47:50.832,-0.33,0.14
2021-08-19 12:47:50.836,-0.35,0.13
2021-08-19 12:47:50.840,-0.35,0.12
2021-08-19 12:47:50.844,-0.35,0.125
2021-08-19 12:47:50.848,-0.365,0.115
2021-08-19 12:47:50.852,-0.395,0.11
2021-08-19 12:47:50.856,-0.4,0.09
2021-08-19 12:47:50.860,-0.385,0.11
2021-08-19 12:47:50.864,-0.375,0.115
2021-08-19 12:47:50.868,-0.39,0.12
2021-08-19 12:47:50.872,-0.39,0.09
2021-08-19 12:47:50.876,-0.385,0.125
2021-08-19 12:47:50.880,-0.38,0.115
2021-08-19 12:47:50.884,-0.405,0.115
2021-08-19 12:47:50.888,-0.39,0.115
2021-08-19 12:47:50.892,-0.405,0.09
2021-08-19 12:47:50.896,-0.405,0.11
2021-08-19 12:47:50.900,-0.4,0.085
2021-08-19 12:47:50.904,-0.395,0.11
2021-08-19 12:47:50.908,-0.4,0.11
2021-08-19 12:47:50.912,-0.385,0.1
2021-08-19 12:47:50.916,-0.4,0.11
2021-08-19 12:47:50.920,-0.375,0.095
2021-08-19 12:47:50.924,-0.385,0.1
2021-08-19 12:47:50.928,-0.38,0.12
2021-08-19 12:47:50.932,-0.385,0.12
2021-08-19 12:47:50.936,-0.38,0.155
2021-08-19 12:47:50.940,-0.36,0.155
2021-08-19 12:47:50.944,-0.38,0.17
2021-08-19 12:47:50.948,-0.38,0.145
2021-08-19 12:47:50.952,-0.38,0.145
2021-08-19 12:47:50.956,-0.4,0.145
2021-08-19 12:47:50.960,-0.445,0.14
2021-08-19 12:47:50.964,-0.45,0.14
2021-08-19 12:47:50.968,-0.45,0.135
2021-08-19 12:47:50.972,-0.45,0.115
2021-08-19 12:47:50.976,-0.465,0.11
2021-08-19 12:47:50.980,-0.44,0.12
2021-08-19 12:47:50.984,-0.46,0.145
2021-08-19 12:47:50.988,-0.425,0.12
2021-08-19 12:47:50.992,-0.43,0.125
2021-08-19 12:47:50.996,-0.435,0.15
2021-08-19 12:47:51.000,-0.4,0.165
2021-08-19 12:47:51.004,-0.285,0.2
2021-08-19 12:47:51.008,-0.09,0.23
2021-08-19 12:47:51.012,0.105,0.26
2021-08-19 12:47:51.016,0.315,0.275
2021-08-19 12:47:51.020,0.405,0.245
2021-08-19 12:47:51.024,0.31,0.215
2021-08-19 12:47:51.028,0.015,0.18
2021-08-19 12:47:51.032,-0.25,0.12
2021-08-19 12:47:51.036,-0.365,0.14
2021-08-19 12:47:51.040,-0.445,0.235
2021-08-19 12:47:51.044,-0.48,0.345
2021-08-19 12:47:51.048,-0.49,0.5
2021-08-19 12:47:51.052,-0.5,0.635
2021-08-19 12:47:51.056,-0.515,0.75
2021-08-19 12:47:51.060,-0.57,0.895
2021-08-19 12:47:51.064,-0.625,1.025
2021-08-19 12:47:51.068,-0.66,1.16
2021-08-19 12:47:51.072,-0.705,1.12
2021-08-19 12:47:51.076,-0.71,0.98
2021-08-19 12:47:51.080,-0.62,0.85
2021-08-19 12:47:51.084,-0.525,0.765
2021-08-19 12:47:51.088,-0.425,0.72
2021-08-19 12:47:51.092,-0.42,0.625
2021-08-19 12:47:51.096,-0.42,0.435
2021-08-19 12:47:51.100,-0.425,0.26
2021-08-19 12:47:51.104,-0.41,0.17
2021-08-19 12:47:51.108,-0.38,0.15
2021-08-19 12:47:51.112,-0.365,0.125
2021-08-19 12:47:51.116,-0.365,0.105
2021-08-19 12:47:51.120,-0.34,0.105
2021-08-19 12:47:51.124,-0.335,0.105
2021-08-19 12:47:51.128,-0.335,0.075
2021-08-19 12:47:51.132,-0.32,0.05
2021-08-19 12:47:51.136,-0.315,0.085
2021-08-19 12:47:51.140,-0.3,0.07
2021-08-19 12:47:51.144,-0.33,0.07
2021-08-19 12:47:51.148,-0.32,0.05
2021-08-19 12:47:51.152,-0.32,0.06
2021-08-19 12:47:51.156,-0.33,0.06
2021-08-19 12:47:51.160,-0.34,0.045
2021-08-19 12:47:51.164,-0.36,0.045
2021-08-19 12:47:51.168,-0.345,0.02
2021-08-19 12:47:51.172,-0.34,0.01
2021-08-19 12:47:51.176,-0.34,0.0
2021-08-19 12:47:51.180,-0.33,-0.01
2021-08-19 12:47:51.184,-0.345,0.0
2021-08-19 12:47:51.188,-0.335,0.0
2021-08-19 12:47:51.192,-0.345,-0.015
2021-08-19 12:47:51.196,-0.335,-0.015
2021-08-19 12:47:51.200,-0.305,-0.025
2021-08-19 12:47:51.204,-0.3,-0.01
2021-08-19 12:47:51.208,-0.24,-0.025
2021-08-19 12:47:51.212,-0.26,0.02
2021-08-19 12:47:51.216,-0.245,0.03
2021-08-19 12:47:51.220,-0.24,0.06
2021-08-19 12:47:51.224,-0.245,0.065
2021-08-19 12:47:51.228,-0.25,0.02
2021-08-19 12:47:51.232,-0.235,-0.02
2021-08-19 12:47:51.236,-0.22,-0.04
2021-08-19 12:47:51.240,-0.24,-0.065
2021-08-19 12:47:51.244,-0.235,-0.1
2021-08-19 12:47:51.248,-0.215,-0.12
2021-08-19 12:47:51.252,-0.225,-0.14
2021-08-19 12:47:51.256,-0.22,-0.185
2021-08-19 12:47:51.260,-0.215,-0.205
2021-08-19 12:47:51.264,-0.245,-0.195
2021-08-19 12:47:51.268,-0.25,-0.215
2021-08-19 12:47:51.272,-0.24,-0.25
2021-08-19 12:47:51.276,-0.24,-0.245
2021-08-19 12:47:51.280,-0.245,-0.23
2021-08-19 12:47:51.284,-0.255,-0.265
2021-08-19 12:47:51.288,-0.23,-0.245
2021-08-19 12:47:51.292,-0.235,-0.23
2021-08-19 12:47:51.296,-0.245,-0.23
2021-08-19 12:47:51.300,-0.255,-0.205
2021-08-19 12:47:51.304,-0.255,-0.2
2021-08-19 12:47:51.308,-0.26,-0.17
2021-08-19 12:47:51.312,-0.26,-0.165
2021-08-19 12:47:51.316,-0.25,-0.135
2021-08-19 12:47:51.320,-0.255,-0.1
2021-08-19 12:47:51.324,-0.25,-0.075
2021-08-19 12:47:51.328,-0.27,-0.04
2021-08-19 12:47:51.332,-0.26,-0.015
2021-08-19 12:47:51.336,-0.27,0.005
2021-08-19 12:47:51.340,-0.285,0.015
2021-08-19 12:47:51.344,-0.29,0.055
2021-08-19 12:47:51.348,-0.29,0.055
2021-08-19 12:47:51.352,-0.295,0.05
2021-08-19 12:47:51.356,-0.325,0.075
2021-08-19 12:47:51.360,-0.315,0.09
2021-08-19 12:47:51.364,-0.345,0.09
2021-08-19 12:47:51.368,-0.36,0.09
2021-08-19 12:47:51.372,-0.33,0.095
2021-08-19 12:47:51.376,-0.335,0.105
2021-08-19 12:47:51.380,-0.33,0.115
2021-08-19 12:47:51.384,-0.35,0.12
2021-08-19 12:47:51.388,-0.32,0.12
2021-08-19 12:47:51.392,-0.33,0.105
2021-08-19 12:47:51.396,-0.34,0.095
2021-08-19 12:47:51.400,-0.325,0.1
2021-08-19 12:47:51.404,-0.34,0.12
2021-08-19 12:47:51.408,-0.34,0.105
2021-08-19 12:47:51.412,-0.33,0.105
2021-08-19 12:47:51.416,-0.32,0.11
2021-08-19 12:47:51.420,-0.305,0.13
2021-08-19 12:47:51.424,-0.295,0.115
2021-08-19 12:47:51.428,-0.28,0.13
2021-08-19 12:47:51.432,-0.295,0.18
2021-08-19 12:47:51.436,-0.28,0.18
2021-08-19 12:47:51.440,-0.285,0.18
2021-08-19 12:47:51.444,-0.29,0.205
2021-08-19 12:47:51.448,-0.265,0.22
2021-08-19 12:47:51.452,-0.28,0.225
2021-08-19 12:47:51.456,-0.295,0.245
2021-08-19 12:47:51.460,-0.31,0.245
2021-08-19 12:47:51.464,-0.325,0.23
2021-08-19 12:47:51.468,-0.345,0.205
2021-08-19 12:47:51.472,-0.35,0.155
2021-08-19 12:47:51.476,-0.36,0.14
2021-08-19 12:47:51.480,-0.375,0.095
2021-08-19 12:47:51.484,-0.395,0.095
2021-08-19 12:47:51.488,-0.39,0.09
2021-08-19 12:47:51.492,-0.395,0.06
2021-08-19 12:47:51.496,-0.38,0.03
2021-08-19 12:47:51.500,-0.385,0.04
2021-08-19 12:47:51.504,-0.375,0.045
2021-08-19 12:47:51.508,-0.36,0.045
2021-08-19 12:47:51.512,-0.355,0.045
2021-08-19 12:47:51.516,-0.37,0.06
2021-08-19 12:47:51.520,-0.38,0.08
2021-08-19 12:47:51.524,-0.425,0.09
2021-08-19 12:47:51.528,-0.395,0.09
2021-08-19 12:47:51.532,-0.225,0.115
2021-08-19 12:47:51.536,0.0,0.17
2021-08-19 12:47:51.540,0.2,0.195
2021-08-19 12:47:51.544,0.365,0.185
2021-08-19 12:47:51.548,0.35,0.19
2021-08-19 12:47:51.552,0.09,0.155
2021-08-19 12:47:51.556,-0.26,0.14
2021-08-19 12:47:51.560,-0.485,0.165
2021-08-19 12:47:51.564,-0.58,0.295
2021-08-19 12:47:51.568,-0.585,0.435
2021-08-19 12:47:51.572,-0.61,0.57
2021-08-19 12:47:51.576,-0.595,0.7
2021-08-19 12:47:51.580,-0.615,0.795
2021-08-19 12:47:51.584,-0.635,0.85
2021-08-19 12:47:51.588,-0.63,0.94
2021-08-19 12:47:51.592,-0.64,1.05
2021-08-19 12:47:51.596,-0.625,1.11
2021-08-19 12:47:51.600,-0.63,1.175
2021-08-19 12:47:51.604,-0.62,1.25
2021-08-19 12:47:51.608,-0.63,1.305
2021-08-19 12:47:51.612,-0.59,1.36
2021-08-19 12:47:51.616,-0.53,1.37
2021-08-19 12:47:51.620,-0.465,1.38
2021-08-19 12:47:51.624,-0.435,1.27
2021-08-19 12:47:51.628,-0.42,1.01
2021-08-19 12:47:51.632,-0.395,0.62
2021-08-19 12:47:51.636,-0.37,0.31
2021-08-19 12:47:51.640,-0.36,0.165
2021-08-19 12:47:51.644,-0.365,0.125
2021-08-19 12:47:51.648,-0.335,0.07
2021-08-19 12:47:51.652,-0.36,0.05
2021-08-19 12:47:51.656,-0.355,0.02
2021-08-19 12:47:51.660,-0.355,0.0
2021-08-19 12:47:51.664,-0.355,0.0
2021-08-19 12:47:51.668,-0.35,-0.035
2021-08-19 12:47:51.672,-0.355,-0.035
2021-08-19 12:47:51.676,-0.34,-0.035
2021-08-19 12:47:51.680,-0.32,-0.025
2021-08-19 12:47:51.684,-0.3,-0.05
2021-08-19 12:47:51.688,-0.3,-0.05
2021-08-19 12:47:51.692,-0.295,-0.04
2021-08-19 12:47:51.696,-0.285,-0.03
2021-08-19 12:47:51.700,-0.3,-0.035
2021-08-19 12:47:51.704,-0.31,-0.08
2021-08-19 12:47:51.708,-0.315,-0.165
2021-08-19 12:47:51.712,-0.32,-0.185
2021-08-19 12:47:51.716,-0.315,-0.24
2021-08-19 12:47:51.720,-0.32,-0.25
2021-08-19 12:47:51.724,-0.315,-0.265
2021-08-19 12:47:51.728,-0.315,-0.295
2021-08-19 12:47:51.732,-0.315,-0.3
2021-08-19 12:47:51.736,-0.325,-0.325
2021-08-19 12:47:51.740,-0.31,-0.335
2021-08-19 12:47:51.744,-0.32,-0.35
2021-08-19 12:47:51.748,-0.33,-0.365
2021-08-19 12:47:51.752,-0.335,-0.37
2021-08-19 12:47:51.756,-0.345,-0.365
2021-08-19 12:47:51.760,-0.345,-0.405
2021-08-19 12:47:51.764,-0.33,-0.42
2021-08-19 12:47:51.768,-0.355,-0.42
2021-08-19 12:47:51.772,-0.35,-0.44
2021-08-19 12:47:51.776,-0.34,-0.445
2021-08-19 12:47:51.780,-0.35,-0.465
2021-08-19 12:47:51.784,-0.345,-0.48
2021-08-19 12:47:51.788,-0.335,-0.51
2021-08-19 12:47:51.792,-0.345,-0.495
2021-08-19 12:47:51.796,-0.335,-0.495
2021-08-19 12:47:51.800,-0.36,-0.475
2021-08-19 12:47:51.804,-0.34,-0.465
2021-08-19 12:47:51.808,-0.37,-0.485
2021-08-19 12:47:51.812,-0.38,-0.46
2021-08-19 12:47:51.816,-0.375,-0.45
2021-08-19 12:47:51.820,-0.385,-0.445
2021-08-19 12:47:51.824,-0.4,-0.44
2021-08-19 12:47:51.828,-0.405,-0.41
2021-08-19 12:47:51.832,-0.415,-0.38
2021-08-19 12:47:51.836,-0.405,-0.34
2021-08-19 12:47:51.840,-0.42,-0.31
2021-08-19 12:47:51.844,-0.42,-0.295
2021-08-19 12:47:51.848,-0.44,-0.24
2021-08-19 12:47:51.852,-0.45,-0.2
2021-08-19 12:47:51.856,-0.425,-0.175
2021-08-19 12:47:51.860,-0.435,-0.14
2021-08-19 12:47:51.864,-0.435,-0.115
2021-08-19 12:47:51.868,-0.43,-0.095
2021-08-19 12:47:51.872,-0.42,-0.055
2021-08-19 12:47:51.876,-0.415,-0.02
2021-08-19 12:47:51.880,-0.405,0.005
2021-08-19 12:47:51.884,-0.435,0.055
2021-08-19 12:47:51.888,-0.415,0.05
2021-08-19 12:47:51.892,-0.39,0.065
2021-08-19 12:47:51.896,-0.38,0.1
2021-08-19 12:47:51.900,-0.365,0.125
2021-08-19 12:47:51.904,-0.345,0.125
2021-08-19 12:47:51.908,-0.325,0.14
2021-08-19 12:47:51.912,-0.33,0.155
2021-08-19 12:47:51.916,-0.345,0.165
2021-08-19 12:47:51.920,-0.335,0.175
2021-08-19 12:47:51.924,-0.335,0.14
2021-08-19 12:47:51.928,-0.35,0.1
2021-08-19 12:47:51.932,-0.375,0.075
2021-08-19 12:47:51.936,-0.39,0.07
2021-08-19 12:47:51.940,-0.385,0.065
2021-08-19 12:47:51.944,-0.4,0.045
2021-08-19 12:47:51.948,-0.425,0.06
2021-08-19 12:47:51.952,-0.425,0.055
2021-08-19 12:47:51.956,-0.42,0.035
2021-08-19 12:47:51.960,-0.435,0.045
2021-08-19 12:47:51.964,-0.405,0.04
2021-08-19 12:47:51.968,-0.4,0.04
2021-08-19 12:47:51.972,-0.4,0.03
2021-08-19 12:47:51.976,-0.39,0.045
2021-08-19 12:47:51.980,-0.415,0.035
2021-08-19 12:47:51.984,-0.425,0.035
2021-08-19 12:47:51.988,-0.435,0.06
2021-08-19 12:47:51.992,-0.405,0.085
2021-08-19 12:47:51.996,-0.245,0.135
2021-08-19 12:47:52.000,-0.045,0.15
2021-08-19 12:47:52.004,0.15,0.2
2021-08-19 12:47:52.008,0.29,0.18
2021-08-19 12:47:52.012,0.245,0.195
2021-08-19 12:47:52.016,-0.015,0.185
2021-08-19 12:47:52.020,-0.295,0.115
2021-08-19 12:47:52.024,-0.455,0.135
2021-08-19 12:47:52.028,-0.54,0.285
2021-08-19 12:47:52.032,-0.58,0.41
2021-08-19 12:47:52.036,-0.585,0.525
2021-08-19 12:47:52.040,-0.605,0.66
2021-08-19 12:47:52.044,-0.63,0.755
2021-08-19 12:47:52.048,-0.64,0.865
2021-08-19 12:47:52.052,-0.665,1.03
2021-08-19 12:47:52.056,-0.68,1.18
2021-08-19 12:47:52.060,-0.695,1.225
2021-08-19 12:47:52.064,-0.71,1.135
2021-08-19 12:47:52.068,-0.68,0.94
2021-08-19 12:47:52.072,-0.56,0.83
2021-08-19 12:47:52.076,-0.44,0.715
2021-08-19 12:47:52.080,-0.395,0.655
2021-08-19 12:47:52.084,-0.36,0.515
2021-08-19 12:47:52.088,-0.365,0.315
2021-08-19 12:47:52.092,-0.345,0.2
2021-08-19 12:47:52.096,-0.345,0.16
2021-08-19 12:47:52.100,-0.325,0.13
2021-08-19 12:47:52.104,-0.33,0.12
2021-08-19 12:47:52.108,-0.3,0.1
2021-08-19 12:47:52.112,-0.275,0.095
2021-08-19 12:47:52.116,-0.275,0.095
2021-08-19 12:47:52.120,-0.255,0.11
2021-08-19 12:47:52.124,-0.275,0.06
2021-08-19 12:47:52.128,-0.255,0.045
2021-08-19 12:47:52.132,-0.27,0.02
2021-08-19 12:47:52.136,-0.255,-0.02
2021-08-19 12:47:52.140,-0.285,-0.03
2021-08-19 12:47:52.144,-0.29,-0.055
2021-08-19 12:47:52.148,-0.3,-0.08
2021-08-19 12:47:52.152,-0.3,-0.11
2021-08-19 12:47:52.156,-0.32,-0.125
2021-08-19 12:47:52.160,-0.295,-0.14
2021-08-19 12:47:52.164,-0.31,-0.155
2021-08-19 12:47:52.168,-0.315,-0.16
2021-08-19 12:47:52.172,-0.31,-0.165
2021-08-19 12:47:52.176,-0.285,-0.185
2021-08-19 12:47:52.180,-0.275,-0.18
2021-08-19 12:47:52.184,-0.275,-0.16
2021-08-19 12:47:52.188,-0.29,-0.19
2021-08-19 12:47:52.192,-0.26,-0.2
2021-08-19 12:47:52.196,-0.255,-0.205
2021-08-19 12:47:52.200,-0.275,-0.205
2021-08-19 12:47:52.204,-0.265,-0.22
2021-08-19 12:47:52.208,-0.255,-0.245
2021-08-19 12:47:52.212,-0.26,-0.25
2021-08-19 12:47:52.216,-0.25,-0.265
2021-08-19 12:47:52.220,-0.26,-0.255
2021-08-19 12:47:52.224,-0.24,-0.28
2021-08-19 12:47:52.228,-0.25,-0.275
2021-08-19 12:47:52.232,-0.265,-0.295
2021-08-19 12:47:52.236,-0.27,-0.275
2021-08-19 12:47:52.240,-0.29,-0.315
2021-08-19 12:47:52.244,-0.285,-0.3
2021-08-19 12:47:52.248,-0.295,-0.305
2021-08-19 12:47:52.252,-0.3,-0.29
2021-08-19 12:47:52.256,-0.295,-0.285
2021-08-19 12:47:52.260,-0.305,-0.285
2021-08-19 12:47:52.264,-0.32,-0.255
2021-08-19 12:47:52.268,-0.32,-0.27
2021-08-19 12:47:52.272,-0.32,-0.225
2021-08-19 12:47:52.276,-0.315,-0.22
2021-08-19 12:47:52.280,-0.315,-0.195
2021-08-19 12:47:52.284,-0.3,-0.17
2021-08-19 12:47:52.288,-0.315,-0.125
2021-08-19 12:47:52.292,-0.33,-0.09
2021-08-19 12:47:52.296,-0.35,-0.075
2021-08-19 12:47:52.300,-0.32,-0.045
2021-08-19 12:47:52.304,-0.32,-0.015
2021-08-19 12:47:52.308,-0.31,0.02
2021-08-19 12:47:52.312,-0.315,0.05
2021-08-19 12:47:52.316,-0.31,0.075
2021-08-19 12:47:52.320,-0.305,0.115
2021-08-19 12:47:52.324,-0.29,0.125
2021-08-19 12:47:52.328,-0.285,0.15
2021-08-19 12:47:52.332,-0.28,0.175
2021-08-19 12:47:52.336,-0.305,0.195
2021-08-19 12:47:52.340,-0.285,0.195
2021-08-19 12:47:52.344,-0.31,0.195
2021-08-19 12:47:52.348,-0.32,0.175
2021-08-19 12:47:52.352,-0.315,0.13
2021-08-19 12:47:52.356,-0.305,0.115
2021-08-19 12:47:52.360,-0.305,0.08
2021-08-19 12:47:52.364,-0.29,0.06
2021-08-19 12:47:52.368,-0.315,0.055
2021-08-19 12:47:52.372,-0.29,0.065
2021-08-19 12:47:52.376,-0.23,0.055
2021-08-19 12:47:52.380,-0.075,0.065
2021-08-19 12:47:52.384,0.17,0.09
2021-08-19 12:47:52.388,0.425,0.115
2021-08-19 12:47:52.392,0.615,0.125
2021-08-19 12:47:52.396,0.595,0.1
2021-08-19 12:47:52.400,0.355,0.105
2021-08-19 12:47:52.404,-0.04,0.04
2021-08-19 12:47:52.408,-0.35,0.035
2021-08-19 12:47:52.412,-0.51,0.12
2021-08-19 12:47:52.416,-0.565,0.325
2021-08-19 12:47:52.420,-0.575,0.525
2021-08-19 12:47:52.424,-0.565,0.65
2021-08-19 12:47:52.428,-0.59,0.695
2021-08-19 12:47:52.432,-0.58,0.76
2021-08-19 12:47:52.436,-0.59,0.835
2021-08-19 12:47:52.440,-0.595,0.945
2021-08-19 12:47:52.444,-0.625,1.045
2021-08-19 12:47:52.448,-0.65,1.14
2021-08-19 12:47:52.452,-0.635,1.21
2021-08-19 12:47:52.456,-0.645,1.28
2021-08-19 12:47:52.460,-0.635,1.335
2021-08-19 12:47:52.464,-0.55,1.385
2021-08-19 12:47:52.468,-0.48,1.375
2021-08-19 12:47:52.472,-0.435,1.235
2021-08-19 12:47:52.476,-0.415,0.95
2021-08-19 12:47:52.480,-0.41,0.555
2021-08-19 12:47:52.484,-0.4,0.255
2021-08-19 12:47:52.488,-0.395,0.12
2021-08-19 12:47:52.492,-0.38,0.07
2021-08-19 12:47:52.496,-0.365,0.025
2021-08-19 12:47:52.500,-0.345,0.025
2021-08-19 12:47:52.504,-0.34,0.005
2021-08-19 12:47:52.508,-0.325,-0.01
2021-08-19 12:47:52.512,-0.32,-0.015
2021-08-19 12:47:52.516,-0.32,-0.05
2021-08-19 12:47:52.520,-0.3,-0.05
2021-08-19 12:47:52.524,-0.3,-0.07
2021-08-19 12:47:52.528,-0.28,-0.06
2021-08-19 12:47:52.532,-0.29,-0.05
2021-08-19 12:47:52.536,-0.275,-0.075
2021-08-19 12:47:52.540,-0.265,-0.075
2021-08-19 12:47:52.544,-0.29,-0.09
2021-08-19 12:47:52.548,-0.28,-0.135
2021-08-19 12:47:52.552,-0.285,-0.165
2021-08-19 12:47:52.556,-0.28,-0.2
2021-08-19 12:47:52.560,-0.27,-0.205
2021-08-19 12:47:52.564,-0.29,-0.21
2021-08-19 12:47:52.568,-0.29,-0.23
2021-08-19 12:47:52.572,-0.28,-0.26
2021-08-19 12:47:52.576,-0.29,-0.29
2021-08-19 12:47:52.580,-0.31,-0.29
2021-08-19 12:47:52.584,-0.295,-0.32
2021-08-19 12:47:52.588,-0.295,-0.345
2021-08-19 12:47:52.592,-0.285,-0.38
2021-08-19 12:47:52.596,-0.28,-0.39
2021-08-19 12:47:52.600,-0.26,-0.4
2021-08-19 12:47:52.604,-0.29,-0.41
2021-08-19 12:47:52.608,-0.29,-0.435
2021-08-19 12:47:52.612,-0.305,-0.435
2021-08-19 12:47:52.616,-0.285,-0.475
2021-08-19 12:47:52.620,-0.305,-0.45
2021-08-19 12:47:52.624,-0.3,-0.46
2021-08-19 12:47:52.628,-0.28,-0.465
2021-08-19 12:47:52.632,-0.3,-0.48
2021-08-19 12:47:52.636,-0.315,-0.44
2021-08-19 12:47:52.640,-0.31,-0.48
2021-08-19 12:47:52.644,-0.295,-0.47
2021-08-19 12:47:52.648,-0.315,-0.465
2021-08-19 12:47:52.652,-0.32,-0.45
2021-08-19 12:47:52.656,-0.34,-0.425
2021-08-19 12:47:52.660,-0.335,-0.395
2021-08-19 12:47:52.664,-0.34,-0.41
2021-08-19 12:47:52.668,-0.335,-0.375
2021-08-19 12:47:52.672,-0.34,-0.335
2021-08-19 12:47:52.676,-0.32,-0.305
2021-08-19 12:47:52.680,-0.365,-0.305
2021-08-19 12:47:52.684,-0.385,-0.24
2021-08-19 12:47:52.688,-0.385,-0.225
2021-08-19 12:47:52.692,-0.24,-0.145
2021-08-19 12:47:52.696,-0.005,-0.09
2021-08-19 12:47:52.700,0.29,-0.02
2021-08-19 12:47:52.704,0.515,0.035
2021-08-19 12:47:52.708,0.515,0.065
2021-08-19 12:47:52.712,0.265,0.095
2021-08-19 12:47:52.716,-0.11,0.075
2021-08-19 12:47:52.720,-0.365,0.125
2021-08-19 12:47:52.724,-0.47,0.245
2021-08-19 12:47:52.728,-0.455,0.43
2021-08-19 12:47:52.732,-0.425,0.585
2021-08-19 12:47:52.736,-0.44,0.73
2021-08-19 12:47:52.740,-0.44,0.82
2021-08-19 12:47:52.744,-0.44,0.935
2021-08-19 12:47:52.748,-0.445,1.005
2021-08-19 12:47:52.752,-0.45,1.15
2021-08-19 12:47:52.756,-0.45,1.25
2021-08-19 12:47:52.760,-0.48,1.36
2021-08-19 12:47:52.764,-0.48,1.47
2021-08-19 12:47:52.768,-0.475,1.535
2021-08-19 12:47:52.772,-0.45,1.525
2021-08-19 12:47:52.776,-0.38,1.385
2021-08-19 12:47:52.780,-0.395,1.095
2021-08-19 12:47:52.784,-0.36,0.705
2021-08-19 12:47:52.788,-0.39,0.34
2021-08-19 12:47:52.792,-0.39,0.145
2021-08-19 12:47:52.796,-0.395,0.06
2021-08-19 12:47:52.800,-0.39,0.015
2021-08-19 12:47:52.804,-0.38,-0.06
2021-08-19 12:47:52.808,-0.39,-0.075
2021-08-19 12:47:52.812,-0.375,-0.095
2021-08-19 12:47:52.816,-0.38,-0.14
2021-08-19 12:47:52.820,-0.375,-0.16
2021-08-19 12:47:52.824,-0.345,-0.17
2021-08-19 12:47:52.828,-0.35,-0.18
2021-08-19 12:47:52.832,-0.34,-0.19
2021-08-19 12:47:52.836,-0.32,-0.2
2021-08-19 12:47:52.840,-0.33,-0.205
2021-08-19 12:47:52.844,-0.315,-0.215
2021-08-19 12:47:52.848,-0.305,-0.235
2021-08-19 12:47:52.852,-0.28,-0.22
2021-08-19 12:47:52.856,-0.28,-0.245
2021-08-19 12:47:52.860,-0.26,-0.25
2021-08-19 12:47:52.864,-0.27,-0.26
2021-08-19 12:47:52.868,-0.25,-0.28
2021-08-19 12:47:52.872,-0.215,-0.28
2021-08-19 12:47:52.876,-0.195,-0.28
2021-08-19 12:47:52.880,-0.195,-0.28
2021-08-19 12:47:52.884,-0.18,-0.3
2021-08-19 12:47:52.888,-0.18,-0.335
2021-08-19 12:47:52.892,-0.145,-0.32
2021-08-19 12:47:52.896,-0.12,-0.335
2021-08-19 12:47:52.900,-0.115,-0.33
2021-08-19 12:47:52.904,-0.105,-0.365
2021-08-19 12:47:52.908,-0.095,-0.325
2021-08-19 12:47:52.912,-0.08,-0.325
2021-08-19 12:47:52.916,-0.08,-0.335
2021-08-19 12:47:52.920,-0.08,-0.345
2021-08-19 12:47:52.924,-0.09,-0.35
2021-08-19 12:47:52.928,-0.08,-0.33
2021-08-19 12:47:52.932,-0.06,-0.32
2021-08-19 12:47:52.936,-0.04,-0.305
2021-08-19 12:47:52.940,-0.06,-0.305
2021-08-19 12:47:52.944,-0.075,-0.29
2021-08-19 12:47:52.948,-0.085,-0.28
2021-08-19 12:47:52.952,-0.095,-0.305
2021-08-19 12:47:52.956,-0.135,-0.32
2021-08-19 12:47:52.960,-0.145,-0.305
2021-08-19 12:47:52.964,-0.16,-0.31
2021-08-19 12:47:52.968,-0.195,-0.295
2021-08-19 12:47:52.972,-0.2,-0.31
2021-08-19 12:47:52.976,-0.205,-0.275
2021-08-19 12:47:52.980,-0.22,-0.245
2021-08-19 12:47:52.984,-0.245,-0.225
2021-08-19 12:47:52.988,-0.245,-0.2
2021-08-19 12:47:52.992,-0.255,-0.2
2021-08-19 12:47:52.996,-0.27,-0.16
2021-08-19 12:47:53.000,-0.295,-0.16
2021-08-19 12:47:53.004,-0.27,-0.105
2021-08-19 12:47:53.008,-0.2,-0.08
2021-08-19 12:47:53.012,0.0,-0.035
2021-08-19 12:47:53.016,0.285,0.025
2021-08-19 12:47:53.020,0.54,0.07
2021-08-19 12:47:53.024,0.655,0.075
2021-08-19 12:47:53.028,0.565,0.075
2021-08-19 12:47:53.032,0.27,0.055
2021-08-19 12:47:53.036,-0.1,0.035
2021-08-19 12:47:53.040,-0.29,0.035
2021-08-19 12:47:53.044,-0.365,0.185
2021-08-19 12:47:53.048,-0.405,0.385
2021-08-19 12:47:53.052,-0.47,0.58
2021-08-19 12:47:53.056,-0.555,0.815
2021-08-19 12:47:53.060,-0.66,1.025
2021-08-19 12:47:53.064,-0.695,1.045
2021-08-19 12:47:53.068,-0.665,0.895
2021-08-19 12:47:53.072,-0.605,0.71
2021-08-19 12:47:53.076,-0.505,0.625
2021-08-19 12:47:53.080,-0.445,0.62
2021-08-19 12:47:53.084,-0.42,0.555
2021-08-19 12:47:53.088,-0.395,0.455
2021-08-19 12:47:53.092,-0.37,0.31
2021-08-19 12:47:53.096,-0.365,0.24
2021-08-19 12:47:53.100,-0.37,0.17
2021-08-19 12:47:53.104,-0.345,0.135
2021-08-19 12:47:53.108,-0.32,0.12
2021-08-19 12:47:53.112,-0.33,0.105
2021-08-19 12:47:53.116,-0.285,0.08
2021-08-19 12:47:53.120,-0.31,0.08
2021-08-19 12:47:53.124,-0.27,0.085
2021-08-19 12:47:53.128,-0.265,0.095
2021-08-19 12:47:53.132,-0.24,0.08
2021-08-19 12:47:53.136,-0.245,0.08
2021-08-19 12:47:53.140,-0.24,0.11
2021-08-19 12:47:53.144,-0.24,0.11
2021-08-19 12:47:53.148,-0.245,0.09
2021-08-19 12:47:53.152,-0.24,0.06
2021-08-19 12:47:53.156,-0.26,0.03
2021-08-19 12:47:53.160,-0.29,0.0
2021-08-19 12:47:53.164,-0.305,-0.025
2021-08-19 12:47:53.168,-0.31,-0.04
2021-08-19 12:47:53.172,-0.31,-0.055
2021-08-19 12:47:53.176,-0.33,-0.085
2021-08-19 12:47:53.180,-0.345,-0.075
2021-08-19 12:47:53.184,-0.355,-0.09
2021-08-19 12:47:53.188,-0.38,-0.09
2021-08-19 12:47:53.192,-0.365,-0.115
2021-08-19 12:47:53.196,-0.37,-0.11
2021-08-19 12:47:53.200,-0.375,-0.12
2021-08-19 12:47:53.204,-0.36,-0.13
2021-08-19 12:47:53.208,-0.35,-0.125
2021-08-19 12:47:53.212,-0.355,-0.1
2021-08-19 12:47:53.216,-0.35,-0.13
2021-08-19 12:47:53.220,-0.355,-0.125
2021-08-19 12:47:53.224,-0.34,-0.11
2021-08-19 12:47:53.228,-0.32,-0.11
2021-08-19 12:47:53.232,-0.31,-0.135
2021-08-19 12:47:53.236,-0.32,-0.12
2021-08-19 12:47:53.240,-0.3,-0.11
2021-08-19 12:47:53.244,-0.275,-0.14
2021-08-19 12:47:53.248,-0.27,-0.115
2021-08-19 12:47:53.252,-0.275,-0.085
2021-08-19 12:47:53.256,-0.255,-0.095
2021-08-19 12:47:53.260,-0.255,-0.1
2021-08-19 12:47:53.264,-0.255,-0.07
2021-08-19 12:47:53.268,-0.245,-0.055
2021-08-19 12:47:53.272,-0.25,-0.04
2021-08-19 12:47:53.276,-0.275,-0.005
2021-08-19 12:47:53.280,-0.235,-0.005
2021-08-19 12:47:53.284,-0.235,0.025
2021-08-19 12:47:53.288,-0.265,0.045
2021-08-19 12:47:53.292,-0.265,0.035
2021-08-19 12:47:53.296,-0.25,0.055
2021-08-19 12:47:53.300,-0.255,0.075
2021-08-19 12:47:53.304,-0.265,0.095
2021-08-19 12:47:53.308,-0.26,0.105
2021-08-19 12:47:53.312,-0.28,0.11
2021-08-19 12:47:53.316,-0.265,0.13
2021-08-19 12:47:53.320,-0.245,0.145
2021-08-19 12:47:53.324,-0.245,0.135
2021-08-19 12:47:53.328,-0.23,0.15
2021-08-19 12:47:53.332,-0.21,0.165
2021-08-19 12:47:53.336,-0.18,0.175
2021-08-19 12:47:53.340,-0.08,0.185
2021-08-19 12:47:53.344,0.12,0.225
2021-08-19 12:47:53.348,0.38,0.255
2021-08-19 12:47:53.352,0.66,0.335
2021-08-19 12:47:53.356,0.78,0.33
2021-08-19 12:47:53.360,0.695,0.32
2021-08-19 12:47:53.364,0.41,0.275
2021-08-19 12:47:53.368,-0.005,0.225
2021-08-19 12:47:53.372,-0.305,0.22
2021-08-19 12:47:53.376,-0.415,0.305
2021-08-19 12:47:53.380,-0.455,0.465
2021-08-19 12:47:53.384,-0.44,0.625
2021-08-19 12:47:53.388,-0.41,0.745
2021-08-19 12:47:53.392,-0.415,0.79
2021-08-19 12:47:53.396,-0.44,0.855
2021-08-19 12:47:53.400,-0.46,0.895
2021-08-19 12:47:53.404,-0.465,1.015
2021-08-19 12:47:53.408,-0.5,1.08
2021-08-19 12:47:53.412,-0.5,1.195
2021-08-19 12:47:53.416,-0.525,1.275
2021-08-19 12:47:53.420,-0.525,1.355
2021-08-19 12:47:53.424,-0.52,1.39
2021-08-19 12:47:53.428,-0.46,1.395
2021-08-19 12:47:53.432,-0.405,1.305
2021-08-19 12:47:53.436,-0.4,1.075
2021-08-19 12:47:53.440,-0.37,0.76
2021-08-19 12:47:53.444,-0.365,0.4
2021-08-19 12:47:53.448,-0.345,0.175
2021-08-19 12:47:53.452,-0.345,0.065
2021-08-19 12:47:53.456,-0.36,0.0
2021-08-19 12:47:53.460,-0.33,-0.015
2021-08-19 12:47:53.464,-0.32,-0.05
2021-08-19 12:47:53.468,-0.315,-0.07
2021-08-19 12:47:53.472,-0.32,-0.105
2021-08-19 12:47:53.476,-0.3,-0.135
2021-08-19 12:47:53.480,-0.295,-0.14
2021-08-19 12:47:53.484,-0.265,-0.15
2021-08-19 12:47:53.488,-0.275,-0.15
2021-08-19 12:47:53.492,-0.275,-0.17
2021-08-19 12:47:53.496,-0.25,-0.18
2021-08-19 12:47:53.500,-0.26,-0.185
2021-08-19 12:47:53.504,-0.27,-0.21
2021-08-19 12:47:53.508,-0.265,-0.2
2021-08-19 12:47:53.512,-0.25,-0.23
2021-08-19 12:47:53.516,-0.235,-0.255
2021-08-19 12:47:53.520,-0.21,-0.22
2021-08-19 12:47:53.524,-0.205,-0.235
2021-08-19 12:47:53.528,-0.205,-0.25
2021-08-19 12:47:53.532,-0.175,-0.265
2021-08-19 12:47:53.536,-0.185,-0.27
2021-08-19 12:47:53.540,-0.14,-0.275
2021-08-19 12:47:53.544,-0.125,-0.27
2021-08-19 12:47:53.548,-0.095,-0.29
2021-08-19 12:47:53.552,-0.075,-0.3
2021-08-19 12:47:53.556,-0.065,-0.33
2021-08-19 12:47:53.560,-0.04,-0.34
2021-08-19 12:47:53.564,-0.03,-0.36
2021-08-19 12:47:53.568,-0.02,-0.41
2021-08-19 12:47:53.572,-0.02,-0.445
2021-08-19 12:47:53.576,-0.015,-0.465
2021-08-19 12:47:53.580,-0.02,-0.495
2021-08-19 12:47:53.584,-0.05,-0.5
2021-08-19 12:47:53.588,-0.04,-0.525
2021-08-19 12:47:53.592,-0.06,-0.54
2021-08-19 12:47:53.596,-0.08,-0.515
2021-08-19 12:47:53.600,-0.06,-0.535
2021-08-19 12:47:53.604,-0.075,-0.5
2021-08-19 12:47:53.608,-0.105,-0.52
2021-08-19 12:47:53.612,-0.125,-0.505
2021-08-19 12:47:53.616,-0.14,-0.49
2021-08-19 12:47:53.620,-0.18,-0.47
2021-08-19 12:47:53.624,-0.185,-0.465
2021-08-19 12:47:53.628,-0.225,-0.41
2021-08-19 12:47:53.632,-0.225,-0.4
2021-08-19 12:47:53.636,-0.225,-0.37
2021-08-19 12:47:53.640,-0.25,-0.35
2021-08-19 12:47:53.644,-0.27,-0.315
2021-08-19 12:47:53.648,-0.25,-0.27
2021-08-19 12:47:53.652,-0.255,-0.225
2021-08-19 12:47:53.656,-0.26,-0.215
2021-08-19 12:47:53.660,-0.27,-0.16
2021-08-19 12:47:53.664,-0.29,-0.155
2021-08-19 12:47:53.668,-0.28,-0.115
2021-08-19 12:47:53.672,-0.23,-0.085
2021-08-19 12:47:53.676,-0.12,-0.025
2021-08-19 12:47:53.680,0.085,-0.005
2021-08-19 12:47:53.684,0.37,0.05
2021-08-19 12:47:53.688,0.585,0.11
2021-08-19 12:47:53.692,0.69,0.16
2021-08-19 12:47:53.696,0.56,0.175
2021-08-19 12:47:53.700,0.215,0.19
2021-08-19 12:47:53.704,-0.185,0.175
2021-08-19 12:47:53.708,-0.43,0.2
2021-08-19 12:47:53.712,-0.485,0.325
2021-08-19 12:47:53.716,-0.47,0.54
2021-08-19 12:47:53.720,-0.445,0.7
2021-08-19 12:47:53.724,-0.42,0.79
2021-08-19 12:47:53.728,-0.43,0.875
2021-08-19 12:47:53.732,-0.43,0.94
2021-08-19 12:47:53.736,-0.425,1.02
2021-08-19 12:47:53.740,-0.41,1.135
2021-08-19 12:47:53.744,-0.405,1.25
2021-08-19 12:47:53.748,-0.39,1.355
2021-08-19 12:47:53.752,-0.405,1.465
2021-08-19 12:47:53.756,-0.425,1.58
2021-08-19 12:47:53.760,-0.395,1.63
2021-08-19 12:47:53.764,-0.36,1.58
2021-08-19 12:47:53.768,-0.3,1.38
2021-08-19 12:47:53.772,-0.28,1.08
2021-08-19 12:47:53.776,-0.265,0.66
2021-08-19 12:47:53.780,-0.285,0.3
2021-08-19 12:47:53.784,-0.27,0.135
2021-08-19 12:47:53.788,-0.28,0.065
2021-08-19 12:47:53.792,-0.295,0.02
2021-08-19 12:47:53.796,-0.28,-0.025
2021-08-19 12:47:53.800,-0.305,-0.09
2021-08-19 12:47:53.804,-0.315,-0.095
2021-08-19 12:47:53.808,-0.33,-0.135
2021-08-19 12:47:53.812,-0.315,-0.155
2021-08-19 12:47:53.816,-0.32,-0.19
2021-08-19 12:47:53.820,-0.33,-0.2
2021-08-19 12:47:53.824,-0.335,-0.21
2021-08-19 12:47:53.828,-0.36,-0.255
2021-08-19 12:47:53.832,-0.345,-0.225
2021-08-19 12:47:53.836,-0.36,-0.26
2021-08-19 12:47:53.840,-0.345,-0.255
2021-08-19 12:47:53.844,-0.36,-0.265
2021-08-19 12:47:53.848,-0.365,-0.275
2021-08-19 12:47:53.852,-0.36,-0.255
2021-08-19 12:47:53.856,-0.37,-0.29
2021-08-19 12:47:53.860,-0.37,-0.295
2021-08-19 12:47:53.864,-0.345,-0.295
2021-08-19 12:47:53.868,-0.35,-0.31
2021-08-19 12:47:53.872,-0.345,-0.3
2021-08-19 12:47:53.876,-0.325,-0.305
2021-08-19 12:47:53.880,-0.315,-0.325
2021-08-19 12:47:53.884,-0.305,-0.32
2021-08-19 12:47:53.888,-0.285,-0.33
2021-08-19 12:47:53.892,-0.28,-0.33
2021-08-19 12:47:53.896,-0.26,-0.33
2021-08-19 12:47:53.900,-0.255,-0.33
2021-08-19 12:47:53.904,-0.205,-0.335
2021-08-19 12:47:53.908,-0.215,-0.345
2021-08-19 12:47:53.912,-0.205,-0.33
2021-08-19 12:47:53.916,-0.205,-0.36
2021-08-19 12:47:53.920,-0.195,-0.355
2021-08-19 12:47:53.924,-0.185,-0.325
2021-08-19 12:47:53.928,-0.2,-0.35
2021-08-19 12:47:53.932,-0.17,-0.34
2021-08-19 12:47:53.936,-0.175,-0.345
2021-08-19 12:47:53.940,-0.175,-0.34
2021-08-19 12:47:53.944,-0.14,-0.305
2021-08-19 12:47:53.948,-0.14,-0.285
2021-08-19 12:47:53.952,-0.15,-0.28
2021-08-19 12:47:53.956,-0.125,-0.255
2021-08-19 12:47:53.960,-0.135,-0.21
2021-08-19 12:47:53.964,-0.15,-0.185
2021-08-19 12:47:53.968,-0.155,-0.165
2021-08-19 12:47:53.972,-0.155,-0.115
2021-08-19 12:47:53.976,-0.16,-0.06
2021-08-19 12:47:53.980,-0.165,-0.045
2021-08-19 12:47:53.984,-0.145,-0.01
2021-08-19 12:47:53.988,-0.16,0.03
2021-08-19 12:47:53.992,-0.15,0.05
2021-08-19 12:47:53.996,-0.165,0.095
2021-08-19 12:47:54.000,-0.165,0.11
2021-08-19 12:47:54.004,-0.17,0.105
2021-08-19 12:47:54.008,-0.185,0.09
2021-08-19 12:47:54.012,-0.19,0.07
2021-08-19 12:47:54.016,-0.19,0.03
2021-08-19 12:47:54.020,-0.205,0.025
2021-08-19 12:47:54.024,-0.165,0.015
2021-08-19 12:47:54.028,-0.075,0.015
2021-08-19 12:47:54.032,0.085,0.035
2021-08-19 12:47:54.036,0.305,0.085
2021-08-19 12:47:54.040,0.51,0.14
2021-08-19 12:47:54.044,0.615,0.13
2021-08-19 12:47:54.048,0.555,0.095
2021-08-19 12:47:54.052,0.31,0.09
2021-08-19 12:47:54.056,-0.07,0.065
2021-08-19 12:47:54.060,-0.3,0.07
2021-08-19 12:47:54.064,-0.4,0.15
2021-08-19 12:47:54.068,-0.445,0.3
2021-08-19 12:47:54.072,-0.43,0.465
2021-08-19 12:47:54.076,-0.42,0.595
2021-08-19 12:47:54.080,-0.49,0.7
2021-08-19 12:47:54.084,-0.535,0.855
2021-08-19 12:47:54.088,-0.625,1.015
2021-08-19 12:47:54.092,-0.655,1.125
2021-08-19 12:47:54.096,-0.655,1.07
2021-08-19 12:47:54.100,-0.625,0.9
2021-08-19 12:47:54.104,-0.55,0.73
2021-08-19 12:47:54.108,-0.425,0.655
2021-08-19 12:47:54.112,-0.38,0.605
2021-08-19 12:47:54.116,-0.335,0.505
2021-08-19 12:47:54.120,-0.35,0.32
2021-08-19 12:47:54.124,-0.355,0.17
2021-08-19 12:47:54.128,-0.335,0.085
2021-08-19 12:47:54.132,-0.33,0.045
2021-08-19 12:47:54.136,-0.31,0.025
2021-08-19 12:47:54.140,-0.285,0.01
2021-08-19 12:47:54.144,-0.285,-0.01
2021-08-19 12:47:54.148,-0.26,-0.015
2021-08-19 12:47:54.152,-0.24,-0.025
2021-08-19 12:47:54.156,-0.235,-0.02
2021-08-19 12:47:54.160,-0.225,-0.02
2021-08-19 12:47:54.164,-0.205,-0.06
2021-08-19 12:47:54.168,-0.19,-0.04
2021-08-19 12:47:54.172,-0.19,-0.05
2021-08-19 12:47:54.176,-0.19,-0.06
2021-08-19 12:47:54.180,-0.18,-0.065
2021-08-19 12:47:54.184,-0.195,-0.05
2021-08-19 12:47:54.188,-0.165,-0.05
2021-08-19 12:47:54.192,-0.175,-0.04
2021-08-19 12:47:54.196,-0.155,-0.055
2021-08-19 12:47:54.200,-0.15,-0.06
2021-08-19 12:47:54.204,-0.14,-0.04
2021-08-19 12:47:54.208,-0.16,-0.04
2021-08-19 12:47:54.212,-0.16,-0.045
2021-08-19 12:47:54.216,-0.15,-0.05
2021-08-19 12:47:54.220,-0.15,-0.045
2021-08-19 12:47:54.224,-0.135,-0.04
2021-08-19 12:47:54.228,-0.125,-0.055
2021-08-19 12:47:54.232,-0.14,-0.05
2021-08-19 12:47:54.236,-0.15,-0.075
2021-08-19 12:47:54.240,-0.14,-0.115
2021-08-19 12:47:54.244,-0.15,-0.2
2021-08-19 12:47:54.248,-0.125,-0.265
2021-08-19 12:47:54.252,-0.105,-0.28
2021-08-19 12:47:54.256,-0.115,-0.265
2021-08-19 12:47:54.260,-0.13,-0.265
2021-08-19 12:47:54.264,-0.125,-0.275
2021-08-19 12:47:54.268,-0.125,-0.29
2021-08-19 12:47:54.272,-0.115,-0.265
2021-08-19 12:47:54.276,-0.135,-0.29
2021-08-19 12:47:54.280,-0.135,-0.295
2021-08-19 12:47:54.284,-0.14,-0.295
2021-08-19 12:47:54.288,-0.16,-0.275
2021-08-19 12:47:54.292,-0.145,-0.25
2021-08-19 12:47:54.296,-0.155,-0.25
2021-08-19 12:47:54.300,-0.15,-0.215
2021-08-19 12:47:54.304,-0.15,-0.21
2021-08-19 12:47:54.308,-0.18,-0.185
2021-08-19 12:47:54.312,-0.175,-0.16
2021-08-19 12:47:54.316,-0.205,-0.15
2021-08-19 12:47:54.320,-0.22,-0.125
2021-08-19 12:47:54.324,-0.22,-0.1
2021-08-19 12:47:54.328,-0.215,-0.07
2021-08-19 12:47:54.332,-0.23,-0.06
2021-08-19 12:47:54.336,-0.215,-0.04
2021-08-19 12:47:54.340,-0.22,-0.02
2021-08-19 12:47:54.344,-0.235,0.0
2021-08-19 12:47:54.348,-0.24,0.025
2021-08-19 12:47:54.352,-0.2,0.03
2021-08-19 12:47:54.356,-0.23,0.045
2021-08-19 12:47:54.360,-0.23,0.055
2021-08-19 12:47:54.364,-0.245,0.07
2021-08-19 12:47:54.368,-0.23,0.07
2021-08-19 12:47:54.372,-0.22,0.08
2021-08-19 12:47:54.376,-0.215,0.065
2021-08-19 12:47:54.380,-0.225,0.06
2021-08-19 12:47:54.384,-0.21,0.07
2021-08-19 12:47:54.388,-0.22,0.085
2021-08-19 12:47:54.392,-0.215,0.075
2021-08-19 12:47:54.396,-0.22,0.085
2021-08-19 12:47:54.400,-0.215,0.105
2021-08-19 12:47:54.404,-0.22,0.11
2021-08-19 12:47:54.408,-0.235,0.12
2021-08-19 12:47:54.412,-0.235,0.11
2021-08-19 12:47:54.416,-0.23,0.11
2021-08-19 12:47:54.420,-0.245,0.135
2021-08-19 12:47:54.424,-0.24,0.155
2021-08-19 12:47:54.428,-0.215,0.175
2021-08-19 12:47:54.432,-0.195,0.175
2021-08-19 12:47:54.436,-0.185,0.2
2021-08-19 12:47:54.440,-0.185,0.215
2021-08-19 12:47:54.444,-0.175,0.225
2021-08-19 12:47:54.448,-0.2,0.24
2021-08-19 12:47:54.452,-0.215,0.25
2021-08-19 12:47:54.456,-0.225,0.215
2021-08-19 12:47:54.460,-0.25,0.175
2021-08-19 12:47:54.464,-0.27,0.16
2021-08-19 12:47:54.468,-0.28,0.11
2021-08-19 12:47:54.472,-0.305,0.105
2021-08-19 12:47:54.476,-0.29,0.085
2021-08-19 12:47:54.480,-0.285,0.08
2021-08-19 12:47:54.484,-0.3,0.07
2021-08-19 12:47:54.488,-0.315,0.065
2021-08-19 12:47:54.492,-0.305,0.055
2021-08-19 12:47:54.496,-0.315,0.06
2021-08-19 12:47:54.500,-0.31,0.055
2021-08-19 12:47:54.504,-0.325,0.05
2021-08-19 12:47:54.508,-0.32,0.045
2021-08-19 12:47:54.512,-0.35,0.035
2021-08-19 12:47:54.516,-0.34,0.05
2021-08-19 12:47:54.520,-0.35,0.035
2021-08-19 12:47:54.524,-0.36,0.04
2021-08-19 12:47:54.528,-0.365,0.025
2021-08-19 12:47:54.532,-0.355,0.035
2021-08-19 12:47:54.536,-0.34,0.03
2021-08-19 12:47:54.540,-0.355,0.05
2021-08-19 12:47:54.544,-0.36,0.035
2021-08-19 12:47:54.548,-0.34,0.045
2021-08-19 12:47:54.552,-0.34,0.045
2021-08-19 12:47:54.556,-0.33,0.025
2021-08-19 12:47:54.560,-0.33,0.045
2021-08-19 12:47:54.564,-0.32,0.035
2021-08-19 12:47:54.568,-0.32,0.06
2021-08-19 12:47:54.572,-0.315,0.055
2021-08-19 12:47:54.576,-0.29,0.085
2021-08-19 12:47:54.580,-0.305,0.045
2021-08-19 12:47:54.584,-0.315,0.065
2021-08-19 12:47:54.588,-0.23,0.085
2021-08-19 12:47:54.592,-0.085,0.11
2021-08-19 12:47:54.596,0.12,0.17
2021-08-19 12:47:54.600,0.31,0.185
2021-08-19 12:47:54.604,0.395,0.2
2021-08-19 12:47:54.608,0.36,0.175
2021-08-19 12:47:54.612,0.125,0.185
2021-08-19 12:47:54.616,-0.14,0.135
2021-08-19 12:47:54.620,-0.32,0.11
2021-08-19 12:47:54.624,-0.4,0.195
2021-08-19 12:47:54.628,-0.435,0.315
2021-08-19 12:47:54.632,-0.45,0.455
2021-08-19 12:47:54.636,-0.435,0.59
2021-08-19 12:47:54.640,-0.425,0.725
2021-08-19 12:47:54.644,-0.47,0.84
2021-08-19 12:47:54.648,-0.5,0.995
2021-08-19 12:47:54.652,-0.535,1.15
2021-08-19 12:47:54.656,-0.575,1.275
2021-08-19 12:47:54.660,-0.555,1.205
2021-08-19 12:47:54.664,-0.515,1.07
2021-08-19 12:47:54.668,-0.41,0.915
2021-08-19 12:47:54.672,-0.31,0.835
2021-08-19 12:47:54.676,-0.265,0.775
2021-08-19 12:47:54.680,-0.27,0.64
2021-08-19 12:47:54.684,-0.25,0.44
2021-08-19 12:47:54.688,-0.255,0.25
2021-08-19 12:47:54.692,-0.25,0.17
2021-08-19 12:47:54.696,-0.245,0.14
2021-08-19 12:47:54.700,-0.24,0.095
2021-08-19 12:47:54.704,-0.25,0.07
2021-08-19 12:47:54.708,-0.27,0.045
2021-08-19 12:47:54.712,-0.28,0.01
2021-08-19 12:47:54.716,-0.285,-0.03
2021-08-19 12:47:54.720,-0.285,-0.025
2021-08-19 12:47:54.724,-0.28,-0.065
2021-08-19 12:47:54.728,-0.275,-0.065
2021-08-19 12:47:54.732,-0.28,-0.09
2021-08-19 12:47:54.736,-0.27,-0.095
2021-08-19 12:47:54.740,-0.28,-0.09
2021-08-19 12:47:54.744,-0.275,-0.12
2021-08-19 12:47:54.748,-0.29,-0.09
2021-08-19 12:47:54.752,-0.255,-0.13
2021-08-19 12:47:54.756,-0.255,-0.11
2021-08-19 12:47:54.760,-0.26,-0.145
2021-08-19 12:47:54.764,-0.265,-0.14
2021-08-19 12:47:54.768,-0.245,-0.11
2021-08-19 12:47:54.772,-0.24,-0.155
2021-08-19 12:47:54.776,-0.255,-0.135
2021-08-19 12:47:54.780,-0.235,-0.145
2021-08-19 12:47:54.784,-0.25,-0.13
2021-08-19 12:47:54.788,-0.22,-0.155
2021-08-19 12:47:54.792,-0.225,-0.16
2021-08-19 12:47:54.796,-0.22,-0.135
2021-08-19 12:47:54.800,-0.22,-0.17
2021-08-19 12:47:54.804,-0.2,-0.155
2021-08-19 12:47:54.808,-0.215,-0.18
2021-08-19 12:47:54.812,-0.19,-0.16
2021-08-19 12:47:54.816,-0.2,-0.18
2021-08-19 12:47:54.820,-0.18,-0.185
2021-08-19 12:47:54.824,-0.165,-0.21
2021-08-19 12:47:54.828,-0.17,-0.215
2021-08-19 12:47:54.832,-0.14,-0.225
2021-08-19 12:47:54.836,-0.105,-0.23
2021-08-19 12:47:54.840,-0.125,-0.23
2021-08-19 12:47:54.844,-0.1,-0.23
2021-08-19 12:47:54.848,-0.115,-0.24
2021-08-19 12:47:54.852,-0.115,-0.225
2021-08-19 12:47:54.856,-0.1,-0.225
2021-08-19 12:47:54.860,-0.105,-0.195
2021-08-19 12:47:54.864,-0.08,-0.185
2021-08-19 12:47:54.868,-0.085,-0.16
2021-08-19 12:47:54.872,-0.09,-0.16
2021-08-19 12:47:54.876,-0.065,-0.13
2021-08-19 12:47:54.880,-0.075,-0.115
2021-08-19 12:47:54.884,-0.05,-0.095
2021-08-19 12:47:54.888,-0.05,-0.05
2021-08-19 12:47:54.892,-0.07,-0.02
2021-08-19 12:47:54.896,-0.095,-0.01
2021-08-19 12:47:54.900,-0.09,0.025
2021-08-19 12:47:54.904,-0.1,0.005
2021-08-19 12:47:54.908,-0.125,-0.005
2021-08-19 12:47:54.912,-0.15,-0.005
2021-08-19 12:47:54.916,-0.16,-0.02
2021-08-19 12:47:54.920,-0.18,-0.015
2021-08-19 12:47:54.924,-0.18,-0.005
2021-08-19 12:47:54.928,-0.2,0.0
2021-08-19 12:47:54.932,-0.2,0.0
2021-08-19 12:47:54.936,-0.2,0.0
2021-08-19 12:47:54.940,-0.215,0.0
2021-08-19 12:47:54.944,-0.235,0.005
2021-08-19 12:47:54.948,-0.225,0.015
2021-08-19 12:47:54.952,-0.235,0.045
2021-08-19 12:47:54.956,-0.24,0.035
2021-08-19 12:47:54.960,-0.22,0.05
2021-08-19 12:47:54.964,-0.225,0.04
2021-08-19 12:47:54.968,-0.235,0.055
2021-08-19 12:47:54.972,-0.235,0.06
2021-08-19 12:47:54.976,-0.26,0.07
2021-08-19 12:47:54.980,-0.245,0.095
2021-08-19 12:47:54.984,-0.225,0.08
2021-08-19 12:47:54.988,-0.225,0.075
2021-08-19 12:47:54.992,-0.215,0.07
2021-08-19 12:47:54.996,-0.215,0.06
2021-08-19 12:47:55.000,-0.22,0.08
2021-08-19 12:47:55.004,-0.23,0.09
2021-08-19 12:47:55.008,-0.23,0.09
2021-08-19 12:47:55.012,-0.235,0.095
2021-08-19 12:47:55.016,-0.225,0.105
2021-08-19 12:47:55.020,-0.24,0.08
2021-08-19 12:47:55.024,-0.26,0.08
2021-08-19 12:47:55.028,-0.255,0.095
2021-08-19 12:47:55.032,-0.26,0.065
2021-08-19 12:47:55.036,-0.26,0.1
2021-08-19 12:47:55.040,-0.26,0.065
2021-08-19 12:47:55.044,-0.28,0.07
2021-08-19 12:47:55.048,-0.27,0.055
2021-08-19 12:47:55.052,-0.28,0.075
2021-08-19 12:47:55.056,-0.27,0.09
2021-08-19 12:47:55.060,-0.275,0.08
2021-08-19 12:47:55.064,-0.28,0.1
2021-08-19 12:47:55.068,-0.245,0.1
2021-08-19 12:47:55.072,-0.26,0.125
2021-08-19 12:47:55.076,-0.26,0.13
2021-08-19 12:47:55.080,-0.26,0.135
2021-08-19 12:47:55.084,-0.265,0.135
2021-08-19 12:47:55.088,-0.295,0.15
2021-08-19 12:47:55.092,-0.335,0.165
2021-08-19 12:47:55.096,-0.325,0.19
2021-08-19 12:47:55.100,-0.25,0.23
2021-08-19 12:47:55.104,-0.05,0.275
2021-08-19 12:47:55.108,0.17,0.305
2021-08-19 12:47:55.112,0.37,0.335
2021-08-19 12:47:55.116,0.45,0.33
2021-08-19 12:47:55.120,0.315,0.315
2021-08-19 12:47:55.124,-0.015,0.27
2021-08-19 12:47:55.128,-0.295,0.21
2021-08-19 12:47:55.132,-0.475,0.275
2021-08-19 12:47:55.136,-0.49,0.425
2021-08-19 12:47:55.140,-0.505,0.565
2021-08-19 12:47:55.144,-0.475,0.68
2021-08-19 12:47:55.148,-0.5,0.775
2021-08-19 12:47:55.152,-0.5,0.855
2021-08-19 12:47:55.156,-0.495,0.93
2021-08-19 12:47:55.160,-0.5,1.04
2021-08-19 12:47:55.164,-0.51,1.155
2021-08-19 12:47:55.168,-0.52,1.18
2021-08-19 12:47:55.172,-0.52,1.235
2021-08-19 12:47:55.176,-0.525,1.32
2021-08-19 12:47:55.180,-0.49,1.365
2021-08-19 12:47:55.184,-0.45,1.405
2021-08-19 12:47:55.188,-0.395,1.44
2021-08-19 12:47:55.192,-0.335,1.345
2021-08-19 12:47:55.196,-0.3,1.15
2021-08-19 12:47:55.200,-0.285,0.825
2021-08-19 12:47:55.204,-0.26,0.44
2021-08-19 12:47:55.208,-0.275,0.245
2021-08-19 12:47:55.212,-0.255,0.145
2021-08-19 12:47:55.216,-0.24,0.105
2021-08-19 12:47:55.220,-0.26,0.065
2021-08-19 12:47:55.224,-0.25,0.035
2021-08-19 12:47:55.228,-0.24,0.0
2021-08-19 12:47:55.232,-0.245,-0.04
2021-08-19 12:47:55.236,-0.24,-0.045
2021-08-19 12:47:55.240,-0.235,-0.05
2021-08-19 12:47:55.244,-0.24,-0.085
2021-08-19 12:47:55.248,-0.235,-0.1
2021-08-19 12:47:55.252,-0.24,-0.1
2021-08-19 12:47:55.256,-0.245,-0.125
2021-08-19 12:47:55.260,-0.225,-0.125
2021-08-19 12:47:55.264,-0.215,-0.145
2021-08-19 12:47:55.268,-0.24,-0.145
2021-08-19 12:47:55.272,-0.235,-0.15
2021-08-19 12:47:55.276,-0.235,-0.16
2021-08-19 12:47:55.280,-0.23,-0.175
2021-08-19 12:47:55.284,-0.245,-0.175
2021-08-19 12:47:55.288,-0.235,-0.19
2021-08-19 12:47:55.292,-0.24,-0.17
2021-08-19 12:47:55.296,-0.245,-0.205
2021-08-19 12:47:55.300,-0.255,-0.185
2021-08-19 12:47:55.304,-0.275,-0.22
2021-08-19 12:47:55.308,-0.265,-0.22
2021-08-19 12:47:55.312,-0.25,-0.245
2021-08-19 12:47:55.316,-0.25,-0.235
2021-08-19 12:47:55.320,-0.215,-0.24
2021-08-19 12:47:55.324,-0.215,-0.22
2021-08-19 12:47:55.328,-0.2,-0.25
2021-08-19 12:47:55.332,-0.195,-0.255
2021-08-19 12:47:55.336,-0.2,-0.275
2021-08-19 12:47:55.340,-0.195,-0.29
2021-08-19 12:47:55.344,-0.21,-0.34
2021-08-19 12:47:55.348,-0.22,-0.39
2021-08-19 12:47:55.352,-0.235,-0.4
2021-08-19 12:47:55.356,-0.245,-0.43
2021-08-19 12:47:55.360,-0.26,-0.425
2021-08-19 12:47:55.364,-0.265,-0.415
2021-08-19 12:47:55.368,-0.265,-0.435
2021-08-19 12:47:55.372,-0.265,-0.44
2021-08-19 12:47:55.376,-0.255,-0.42
2021-08-19 12:47:55.380,-0.265,-0.42
2021-08-19 12:47:55.384,-0.27,-0.42
2021-08-19 12:47:55.388,-0.26,-0.405
2021-08-19 12:47:55.392,-0.28,-0.365
2021-08-19 12:47:55.396,-0.265,-0.35
2021-08-19 12:47:55.400,-0.27,-0.325
2021-08-19 12:47:55.404,-0.26,-0.295
2021-08-19 12:47:55.408,-0.275,-0.26
2021-08-19 12:47:55.412,-0.25,-0.225
2021-08-19 12:47:55.416,-0.26,-0.19
2021-08-19 12:47:55.420,-0.275,-0.17
2021-08-19 12:47:55.424,-0.24,-0.14
2021-08-19 12:47:55.428,-0.24,-0.1
2021-08-19 12:47:55.432,-0.24,-0.06
2021-08-19 12:47:55.436,-0.23,-0.07
2021-08-19 12:47:55.440,-0.225,-0.02
2021-08-19 12:47:55.444,-0.22,-0.015
2021-08-19 12:47:55.448,-0.18,0.015
2021-08-19 12:47:55.452,-0.055,0.05
2021-08-19 12:47:55.456,0.15,0.09
2021-08-19 12:47:55.460,0.42,0.12
2021-08-19 12:47:55.464,0.69,0.165
2021-08-19 12:47:55.468,0.795,0.195
2021-08-19 12:47:55.472,0.735,0.185
2021-08-19 12:47:55.476,0.415,0.15
2021-08-19 12:47:55.480,0.04,0.115
2021-08-19 12:47:55.484,-0.18,0.105
2021-08-19 12:47:55.488,-0.345,0.255
2021-08-19 12:47:55.492,-0.505,0.47
2021-08-19 12:47:55.496,-0.605,0.725
2021-08-19 12:47:55.500,-0.63,0.91
2021-08-19 12:47:55.504,-0.63,0.93
2021-08-19 12:47:55.508,-0.595,0.805
2021-08-19 12:47:55.512,-0.525,0.665
2021-08-19 12:47:55.516,-0.44,0.625
2021-08-19 12:47:55.520,-0.41,0.65
2021-08-19 12:47:55.524,-0.365,0.59
2021-08-19 12:47:55.528,-0.35,0.47
2021-08-19 12:47:55.532,-0.325,0.385
2021-08-19 12:47:55.536,-0.315,0.32
2021-08-19 12:47:55.540,-0.295,0.24
2021-08-19 12:47:55.544,-0.285,0.21
2021-08-19 12:47:55.548,-0.3,0.17
2021-08-19 12:47:55.552,-0.295,0.135
2021-08-19 12:47:55.556,-0.3,0.11
2021-08-19 12:47:55.560,-0.3,0.075
2021-08-19 12:47:55.564,-0.29,0.055
2021-08-19 12:47:55.568,-0.29,0.045
2021-08-19 12:47:55.572,-0.28,0.02
2021-08-19 12:47:55.576,-0.29,0.05
2021-08-19 12:47:55.580,-0.3,0.01
2021-08-19 12:47:55.584,-0.3,0.02
2021-08-19 12:47:55.588,-0.285,0.005
2021-08-19 12:47:55.592,-0.28,-0.025
2021-08-19 12:47:55.596,-0.275,-0.03
2021-08-19 12:47:55.600,-0.265,-0.06
2021-08-19 12:47:55.604,-0.27,-0.045
2021-08-19 12:47:55.608,-0.265,-0.02
2021-08-19 12:47:55.612,-0.25,-0.045
2021-08-19 12:47:55.616,-0.23,-0.035
2021-08-19 12:47:55.620,-0.21,-0.025
2021-08-19 12:47:55.624,-0.225,-0.025
2021-08-19 12:47:55.628,-0.185,-0.03
2021-08-19 12:47:55.632,-0.185,-0.01
2021-08-19 12:47:55.636,-0.195,-0.03
2021-08-19 12:47:55.640,-0.19,-0.01
2021-08-19 12:47:55.644,-0.19,-0.03
2021-08-19 12:47:55.648,-0.165,-0.045
2021-08-19 12:47:55.652,-0.17,-0.05
2021-08-19 12:47:55.656,-0.16,-0.06
2021-08-19 12:47:55.660,-0.165,-0.06
2021-08-19 12:47:55.664,-0.16,-0.06
2021-08-19 12:47:55.668,-0.155,-0.065
2021-08-19 12:47:55.672,-0.155,-0.055
2021-08-19 12:47:55.676,-0.16,-0.08
2021-08-19 12:47:55.680,-0.18,-0.055
2021-08-19 12:47:55.684,-0.175,-0.07
2021-08-19 12:47:55.688,-0.165,-0.07
2021-08-19 12:47:55.692,-0.18,-0.08
2021-08-19 12:47:55.696,-0.175,-0.06
2021-08-19 12:47:55.700,-0.175,-0.065
2021-08-19 12:47:55.704,-0.205,-0.065
2021-08-19 12:47:55.708,-0.18,-0.065
2021-08-19 12:47:55.712,-0.205,-0.025
2021-08-19 12:47:55.716,-0.195,-0.01
2021-08-19 12:47:55.720,-0.2,0.005
2021-08-19 12:47:55.724,-0.2,0.025
2021-08-19 12:47:55.728,-0.23,0.025
2021-08-19 12:47:55.732,-0.23,0.065
2021-08-19 12:47:55.736,-0.23,0.1
2021-08-19 12:47:55.740,-0.225,0.115
2021-08-19 12:47:55.744,-0.23,0.145
2021-08-19 12:47:55.748,-0.215,0.165
2021-08-19 12:47:55.752,-0.23,0.19
2021-08-19 12:47:55.756,-0.23,0.215
2021-08-19 12:47:55.760,-0.23,0.205
2021-08-19 12:47:55.764,-0.24,0.185
2021-08-19 12:47:55.768,-0.265,0.165
2021-08-19 12:47:55.772,-0.245,0.115
2021-08-19 12:47:55.776,-0.145,0.125
2021-08-19 12:47:55.780,0.075,0.135
2021-08-19 12:47:55.784,0.35,0.19
2021-08-19 12:47:55.788,0.58,0.195
2021-08-19 12:47:55.792,0.635,0.215
2021-08-19 12:47:55.796,0.455,0.19
2021-08-19 12:47:55.800,0.095,0.17
2021-08-19 12:47:55.804,-0.215,0.14
2021-08-19 12:47:55.808,-0.4,0.165
2021-08-19 12:47:55.812,-0.445,0.32
2021-08-19 12:47:55.816,-0.415,0.51
2021-08-19 12:47:55.820,-0.42,0.69
2021-08-19 12:47:55.824,-0.4,0.76
2021-08-19 12:47:55.828,-0.42,0.825
2021-08-19 12:47:55.832,-0.435,0.86
2021-08-19 12:47:55.836,-0.42,0.945
2021-08-19 12:47:55.840,-0.43,1.05
2021-08-19 12:47:55.844,-0.49,1.14
2021-08-19 12:47:55.848,-0.495,1.24
2021-08-19 12:47:55.852,-0.5,1.295
2021-08-19 12:47:55.856,-0.495,1.365
2021-08-19 12:47:55.860,-0.425,1.405
2021-08-19 12:47:55.864,-0.355,1.43
2021-08-19 12:47:55.868,-0.325,1.315
2021-08-19 12:47:55.872,-0.335,1.05
2021-08-19 12:47:55.876,-0.295,0.66
2021-08-19 12:47:55.880,-0.29,0.335
2021-08-19 12:47:55.884,-0.295,0.2
2021-08-19 12:47:55.888,-0.28,0.115
2021-08-19 12:47:55.892,-0.305,0.07
2021-08-19 12:47:55.896,-0.295,0.04
2021-08-19 12:47:55.900,-0.305,0.0
2021-08-19 12:47:55.904,-0.285,-0.005
2021-08-19 12:47:55.908,-0.31,-0.03
2021-08-19 12:47:55.912,-0.32,-0.055
2021-08-19 12:47:55.916,-0.3,-0.075
2021-08-19 12:47:55.920,-0.305,-0.115
2021-08-19 12:47:55.924,-0.28,-0.105
2021-08-19 12:47:55.928,-0.295,-0.125
2021-08-19 12:47:55.932,-0.305,-0.115
2021-08-19 12:47:55.936,-0.305,-0.145
2021-08-19 12:47:55.940,-0.305,-0.12
2021-08-19 12:47:55.944,-0.29,-0.14
2021-08-19 12:47:55.948,-0.31,-0.13
2021-08-19 12:47:55.952,-0.32,-0.15
2021-08-19 12:47:55.956,-0.295,-0.125
2021-08-19 12:47:55.960,-0.285,-0.155
2021-08-19 12:47:55.964,-0.255,-0.175
2021-08-19 12:47:55.968,-0.255,-0.165
2021-08-19 12:47:55.972,-0.21,-0.145
2021-08-19 12:47:55.976,-0.225,-0.175
2021-08-19 12:47:55.980,-0.205,-0.16
2021-08-19 12:47:55.984,-0.205,-0.165
2021-08-19 12:47:55.988,-0.195,-0.2
2021-08-19 12:47:55.992,-0.175,-0.245
2021-08-19 12:47:55.996,-0.16,-0.285
2021-08-19 12:47:56.000,-0.14,-0.315
2021-08-19 12:47:56.004,-0.145,-0.305
2021-08-19 12:47:56.008,-0.13,-0.345
2021-08-19 12:47:56.012,-0.135,-0.385
2021-08-19 12:47:56.016,-0.125,-0.365
2021-08-19 12:47:56.020,-0.125,-0.395
2021-08-19 12:47:56.024,-0.12,-0.39
2021-08-19 12:47:56.028,-0.135,-0.415
2021-08-19 12:47:56.032,-0.12,-0.395
2021-08-19 12:47:56.036,-0.105,-0.41
2021-08-19 12:47:56.040,-0.08,-0.395
2021-08-19 12:47:56.044,-0.085,-0.405
2021-08-19 12:47:56.048,-0.085,-0.375
2021-08-19 12:47:56.052,-0.115,-0.355
2021-08-19 12:47:56.056,-0.12,-0.315
2021-08-19 12:47:56.060,-0.14,-0.325
2021-08-19 12:47:56.064,-0.16,-0.305
2021-08-19 12:47:56.068,-0.175,-0.27
2021-08-19 12:47:56.072,-0.16,-0.24
2021-08-19 12:47:56.076,-0.185,-0.22
2021-08-19 12:47:56.080,-0.17,-0.185
2021-08-19 12:47:56.084,-0.195,-0.165
2021-08-19 12:47:56.088,-0.185,-0.13
2021-08-19 12:47:56.092,-0.185,-0.11
2021-08-19 12:47:56.096,-0.195,-0.075
2021-08-19 12:47:56.100,-0.205,-0.04
2021-08-19 12:47:56.104,-0.22,-0.01
2021-08-19 12:47:56.108,-0.22,-0.015
2021-08-19 12:47:56.112,-0.22,0.02
2021-08-19 12:47:56.116,-0.225,0.03
2021-08-19 12:47:56.120,-0.245,0.03
2021-08-19 12:47:56.124,-0.26,0.085
2021-08-19 12:47:56.128,-0.265,0.09
2021-08-19 12:47:56.132,-0.27,0.085
2021-08-19 12:47:56.136,-0.265,0.1
2021-08-19 12:47:56.140,-0.28,0.115
2021-08-19 12:47:56.144,-0.29,0.13
2021-08-19 12:47:56.148,-0.285,0.115
2021-08-19 12:47:56.152,-0.295,0.145
2021-08-19 12:47:56.156,-0.29,0.135
2021-08-19 12:47:56.160,-0.295,0.135
2021-08-19 12:47:56.164,-0.295,0.14
2021-08-19 12:47:56.168,-0.295,0.155
2021-08-19 12:47:56.172,-0.315,0.175
2021-08-19 12:47:56.176,-0.3,0.175
2021-08-19 12:47:56.180,-0.3,0.2
2021-08-19 12:47:56.184,-0.295,0.185
2021-08-19 12:47:56.188,-0.27,0.19
2021-08-19 12:47:56.192,-0.28,0.2
2021-08-19 12:47:56.196,-0.245,0.22
2021-08-19 12:47:56.200,-0.23,0.21
2021-08-19 12:47:56.204,-0.255,0.23
2021-08-19 12:47:56.208,-0.23,0.235
2021-08-19 12:47:56.212,-0.23,0.23
2021-08-19 12:47:56.216,-0.235,0.195
2021-08-19 12:47:56.220,-0.24,0.17
2021-08-19 12:47:56.224,-0.24,0.14
2021-08-19 12:47:56.228,-0.25,0.16
2021-08-19 12:47:56.232,-0.275,0.14
2021-08-19 12:47:56.236,-0.245,0.115
2021-08-19 12:47:56.240,-0.235,0.12
2021-08-19 12:47:56.244,-0.24,0.115
2021-08-19 12:47:56.248,-0.25,0.09
2021-08-19 12:47:56.252,-0.235,0.09
2021-08-19 12:47:56.256,-0.145,0.115
2021-08-19 12:47:56.260,0.06,0.155
2021-08-19 12:47:56.264,0.28,0.2
2021-08-19 12:47:56.268,0.465,0.215
2021-08-19 12:47:56.272,0.54,0.22
2021-08-19 12:47:56.276,0.435,0.215
2021-08-19 12:47:56.280,0.115,0.195
2021-08-19 12:47:56.284,-0.19,0.18
2021-08-19 12:47:56.288,-0.35,0.175
2021-08-19 12:47:56.292,-0.425,0.32
2021-08-19 12:47:56.296,-0.455,0.445
2021-08-19 12:47:56.300,-0.465,0.555
2021-08-19 12:47:56.304,-0.47,0.71
2021-08-19 12:47:56.308,-0.505,0.84
2021-08-19 12:47:56.312,-0.55,0.995
2021-08-19 12:47:56.316,-0.575,1.135
2021-08-19 12:47:56.320,-0.615,1.12
2021-08-19 12:47:56.324,-0.62,0.97
2021-08-19 12:47:56.328,-0.54,0.835
2021-08-19 12:47:56.332,-0.46,0.71
2021-08-19 12:47:56.336,-0.37,0.69
2021-08-19 12:47:56.340,-0.33,0.58
2021-08-19 12:47:56.344,-0.33,0.43
2021-08-19 12:47:56.348,-0.335,0.29
2021-08-19 12:47:56.352,-0.315,0.21
2021-08-19 12:47:56.356,-0.32,0.16
2021-08-19 12:47:56.360,-0.29,0.13
2021-08-19 12:47:56.364,-0.29,0.1
2021-08-19 12:47:56.368,-0.275,0.095
2021-08-19 12:47:56.372,-0.265,0.095
2021-08-19 12:47:56.376,-0.27,0.055
2021-08-19 12:47:56.380,-0.25,0.035
2021-08-19 12:47:56.384,-0.24,0.055
2021-08-19 12:47:56.388,-0.24,0.05
2021-08-19 12:47:56.392,-0.24,0.06
2021-08-19 12:47:56.396,-0.225,0.05
2021-08-19 12:47:56.400,-0.23,0.05
2021-08-19 12:47:56.404,-0.24,0.055
2021-08-19 12:47:56.408,-0.22,0.06
2021-08-19 12:47:56.412,-0.21,0.065
2021-08-19 12:47:56.416,-0.18,0.08
2021-08-19 12:47:56.420,-0.185,0.08
2021-08-19 12:47:56.424,-0.145,0.09
2021-08-19 12:47:56.428,-0.175,0.065
2021-08-19 12:47:56.432,-0.165,0.04
2021-08-19 12:47:56.436,-0.175,0.0
2021-08-19 12:47:56.440,-0.185,-0.055
2021-08-19 12:47:56.444,-0.17,-0.08
2021-08-19 12:47:56.448,-0.18,-0.07
2021-08-19 12:47:56.452,-0.19,-0.105
2021-08-19 12:47:56.456,-0.2,-0.12
2021-08-19 12:47:56.460,-0.215,-0.135
2021-08-19 12:47:56.464,-0.2,-0.15
2021-08-19 12:47:56.468,-0.195,-0.17
2021-08-19 12:47:56.472,-0.19,-0.2
2021-08-19 12:47:56.476,-0.185,-0.195
2021-08-19 12:47:56.480,-0.18,-0.195
2021-08-19 12:47:56.484,-0.15,-0.22
2021-08-19 12:47:56.488,-0.15,-0.225
2021-08-19 12:47:56.492,-0.135,-0.23
2021-08-19 12:47:56.496,-0.17,-0.23
2021-08-19 12:47:56.500,-0.16,-0.23
2021-08-19 12:47:56.504,-0.155,-0.225
2021-08-19 12:47:56.508,-0.15,-0.205
2021-08-19 12:47:56.512,-0.16,-0.18
2021-08-19 12:47:56.516,-0.17,-0.205
2021-08-19 12:47:56.520,-0.175,-0.21
2021-08-19 12:47:56.524,-0.175,-0.21
2021-08-19 12:47:56.528,-0.18,-0.2
2021-08-19 12:47:56.532,-0.185,-0.18
2021-08-19 12:47:56.536,-0.205,-0.17
2021-08-19 12:47:56.540,-0.195,-0.16
2021-08-19 12:47:56.544,-0.19,-0.135
2021-08-19 12:47:56.548,-0.22,-0.1
2021-08-19 12:47:56.552,-0.23,-0.08
2021-08-19 12:47:56.556,-0.23,-0.05
2021-08-19 12:47:56.560,-0.22,-0.055
2021-08-19 12:47:56.564,-0.23,-0.025
2021-08-19 12:47:56.568,-0.23,0.005
2021-08-19 12:47:56.572,-0.23,0.005
2021-08-19 12:47:56.576,-0.25,0.045
2021-08-19 12:47:56.580,-0.25,0.065
2021-08-19 12:47:56.584,-0.24,0.07
2021-08-19 12:47:56.588,-0.235,0.085
2021-08-19 12:47:56.592,-0.215,0.095
2021-08-19 12:47:56.596,-0.225,0.11
2021-08-19 12:47:56.600,-0.205,0.115
2021-08-19 12:47:56.604,-0.21,0.13
2021-08-19 12:47:56.608,-0.175,0.155
2021-08-19 12:47:56.612,-0.055,0.175
2021-08-19 12:47:56.616,0.16,0.21
2021-08-19 12:47:56.620,0.44,0.26
2021-08-19 12:47:56.624,0.675,0.29
2021-08-19 12:47:56.628,0.79,0.295
2021-08-19 12:47:56.632,0.65,0.295
2021-08-19 12:47:56.636,0.29,0.275
2021-08-19 12:47:56.640,-0.095,0.245
2021-08-19 12:47:56.644,-0.28,0.235
2021-08-19 12:47:56.648,-0.315,0.37
2021-08-19 12:47:56.652,-0.32,0.6
2021-08-19 12:47:56.656,-0.32,0.755
2021-08-19 12:47:56.660,-0.345,0.825
2021-08-19 12:47:56.664,-0.34,0.89
2021-08-19 12:47:56.668,-0.34,0.975
2021-08-19 12:47:56.672,-0.34,1.07
2021-08-19 12:47:56.676,-0.34,1.19
2021-08-19 12:47:56.680,-0.3,1.295
2021-08-19 12:47:56.684,-0.335,1.415
2021-08-19 12:47:56.688,-0.32,1.46
2021-08-19 12:47:56.692,-0.315,1.51
2021-08-19 12:47:56.696,-0.27,1.49
2021-08-19 12:47:56.700,-0.27,1.35
2021-08-19 12:47:56.704,-0.305,1.055
2021-08-19 12:47:56.708,-0.3,0.685
2021-08-19 12:47:56.712,-0.3,0.365
2021-08-19 12:47:56.716,-0.3,0.22
2021-08-19 12:47:56.720,-0.31,0.135
2021-08-19 12:47:56.724,-0.3,0.075
2021-08-19 12:47:56.728,-0.295,0.025
2021-08-19 12:47:56.732,-0.285,-0.015
2021-08-19 12:47:56.736,-0.295,-0.05
2021-08-19 12:47:56.740,-0.315,-0.05
2021-08-19 12:47:56.744,-0.285,-0.05
2021-08-19 12:47:56.748,-0.29,-0.11
2021-08-19 12:47:56.752,-0.28,-0.125
2021-08-19 12:47:56.756,-0.285,-0.135
2021-08-19 12:47:56.760,-0.285,-0.13
2021-08-19 12:47:56.764,-0.28,-0.14
2021-08-19 12:47:56.768,-0.295,-0.16
2021-08-19 12:47:56.772,-0.29,-0.17
2021-08-19 12:47:56.776,-0.285,-0.18
2021-08-19 12:47:56.780,-0.285,-0.195
2021-08-19 12:47:56.784,-0.28,-0.2
2021-08-19 12:47:56.788,-0.285,-0.225
2021-08-19 12:47:56.792,-0.27,-0.215
2021-08-19 12:47:56.796,-0.285,-0.225
2021-08-19 12:47:56.800,-0.265,-0.24
2021-08-19 12:47:56.804,-0.25,-0.27
2021-08-19 12:47:56.808,-0.25,-0.26
2021-08-19 12:47:56.812,-0.22,-0.26
2021-08-19 12:47:56.816,-0.2,-0.28
2021-08-19 12:47:56.820,-0.19,-0.25
2021-08-19 12:47:56.824,-0.17,-0.275
2021-08-19 12:47:56.828,-0.2,-0.295
2021-08-19 12:47:56.832,-0.145,-0.255
2021-08-19 12:47:56.836,-0.145,-0.265
2021-08-19 12:47:56.840,-0.12,-0.29
2021-08-19 12:47:56.844,-0.11,-0.29
2021-08-19 12:47:56.848,-0.115,-0.295
2021-08-19 12:47:56.852,-0.09,-0.34
2021-08-19 12:47:56.856,-0.11,-0.375
2021-08-19 12:47:56.860,-0.125,-0.38
2021-08-19 12:47:56.864,-0.11,-0.435
2021-08-19 12:47:56.868,-0.12,-0.4
2021-08-19 12:47:56.872,-0.12,-0.41
2021-08-19 12:47:56.876,-0.125,-0.41
2021-08-19 12:47:56.880,-0.14,-0.415
2021-08-19 12:47:56.884,-0.165,-0.38
2021-08-19 12:47:56.888,-0.165,-0.37
2021-08-19 12:47:56.892,-0.155,-0.345
2021-08-19 12:47:56.896,-0.17,-0.33
2021-08-19 12:47:56.900,-0.16,-0.31
2021-08-19 12:47:56.904,-0.17,-0.285
2021-08-19 12:47:56.908,-0.17,-0.25
2021-08-19 12:47:56.912,-0.19,-0.245
2021-08-19 12:47:56.916,-0.185,-0.21
2021-08-19 12:47:56.920,-0.195,-0.165
2021-08-19 12:47:56.924,-0.205,-0.105
2021-08-19 12:47:56.928,-0.21,-0.085
2021-08-19 12:47:56.932,-0.21,-0.035
2021-08-19 12:47:56.936,-0.21,0.01
2021-08-19 12:47:56.940,-0.225,0.01
2021-08-19 12:47:56.944,-0.215,0.015
2021-08-19 12:47:56.948,-0.22,0.06
2021-08-19 12:47:56.952,-0.215,0.075
2021-08-19 12:47:56.956,-0.215,0.075
2021-08-19 12:47:56.960,-0.225,0.11
2021-08-19 12:47:56.964,-0.21,0.125
2021-08-19 12:47:56.968,-0.225,0.125
2021-08-19 12:47:56.972,-0.235,0.11
2021-08-19 12:47:56.976,-0.24,0.13
2021-08-19 12:47:56.980,-0.24,0.15
2021-08-19 12:47:56.984,-0.24,0.13
2021-08-19 12:47:56.988,-0.24,0.14
2021-08-19 12:47:56.992,-0.26,0.15
2021-08-19 12:47:56.996,-0.24,0.14
2021-08-19 12:47:57.000,-0.25,0.16
2021-08-19 12:47:57.004,-0.25,0.16
2021-08-19 12:47:57.008,-0.24,0.135
2021-08-19 12:47:57.012,-0.26,0.155
2021-08-19 12:47:57.016,-0.26,0.18
2021-08-19 12:47:57.020,-0.265,0.155
2021-08-19 12:47:57.024,-0.275,0.155
2021-08-19 12:47:57.028,-0.275,0.155
2021-08-19 12:47:57.032,-0.27,0.155
2021-08-19 12:47:57.036,-0.255,0.15
2021-08-19 12:47:57.040,-0.245,0.16
2021-08-19 12:47:57.044,-0.265,0.145
2021-08-19 12:47:57.048,-0.245,0.155
2021-08-19 12:47:57.052,-0.24,0.185
2021-08-19 12:47:57.056,-0.255,0.19
2021-08-19 12:47:57.060,-0.25,0.19
2021-08-19 12:47:57.064,-0.24,0.19
2021-08-19 12:47:57.068,-0.21,0.195
2021-08-19 12:47:57.072,-0.2,0.21
2021-08-19 12:47:57.076,-0.2,0.18
2021-08-19 12:47:57.080,-0.205,0.19
2021-08-19 12:47:57.084,-0.21,0.185
2021-08-19 12:47:57.088,-0.22,0.135
2021-08-19 12:47:57.092,-0.22,0.125
2021-08-19 12:47:57.096,-0.22,0.115
2021-08-19 12:47:57.100,-0.225,0.105
2021-08-19 12:47:57.104,-0.23,0.105
2021-08-19 12:47:57.108,-0.245,0.105
2021-08-19 12:47:57.112,-0.225,0.11
2021-08-19 12:47:57.116,-0.23,0.1
2021-08-19 12:47:57.120,-0.23,0.095
2021-08-19 12:47:57.124,-0.25,0.07
2021-08-19 12:47:57.128,-0.235,0.07
2021-08-19 12:47:57.132,-0.26,0.09
2021-08-19 12:47:57.136,-0.25,0.075
2021-08-19 12:47:57.140,-0.235,0.09
2021-08-19 12:47:57.144,-0.245,0.08
2021-08-19 12:47:57.148,-0.25,0.1
2021-08-19 12:47:57.152,-0.26,0.105
2021-08-19 12:47:57.156,-0.215,0.115
2021-08-19 12:47:57.160,-0.135,0.155
2021-08-19 12:47:57.164,0.04,0.185
2021-08-19 12:47:57.168,0.255,0.225
2021-08-19 12:47:57.172,0.44,0.245
2021-08-19 12:47:57.176,0.54,0.245
2021-08-19 12:47:57.180,0.43,0.24
2021-08-19 12:47:57.184,0.145,0.21
2021-08-19 12:47:57.188,-0.175,0.18
2021-08-19 12:47:57.192,-0.32,0.2
2021-08-19 12:47:57.196,-0.395,0.325
2021-08-19 12:47:57.200,-0.43,0.41
2021-08-19 12:47:57.204,-0.445,0.56
2021-08-19 12:47:57.208,-0.465,0.67
2021-08-19 12:47:57.212,-0.475,0.81
2021-08-19 12:47:57.216,-0.515,0.98
2021-08-19 12:47:57.220,-0.54,1.135
2021-08-19 12:47:57.224,-0.575,1.195
2021-08-19 12:47:57.228,-0.615,1.13
2021-08-19 12:47:57.232,-0.59,0.985
2021-08-19 12:47:57.236,-0.495,0.825
2021-08-19 12:47:57.240,-0.38,0.78
2021-08-19 12:47:57.244,-0.32,0.72
2021-08-19 12:47:57.248,-0.295,0.585
2021-08-19 12:47:57.252,-0.29,0.42
2021-08-19 12:47:57.256,-0.28,0.27
2021-08-19 12:47:57.260,-0.275,0.205
2021-08-19 12:47:57.264,-0.24,0.17
2021-08-19 12:47:57.268,-0.24,0.16
2021-08-19 12:47:57.272,-0.235,0.135
2021-08-19 12:47:57.276,-0.225,0.135
2021-08-19 12:47:57.280,-0.22,0.12
2021-08-19 12:47:57.284,-0.21,0.11
2021-08-19 12:47:57.288,-0.205,0.105
2021-08-19 12:47:57.292,-0.17,0.085
2021-08-19 12:47:57.296,-0.17,0.1
2021-08-19 12:47:57.300,-0.16,0.125
2021-08-19 12:47:57.304,-0.135,0.125
2021-08-19 12:47:57.308,-0.115,0.11
2021-08-19 12:47:57.312,-0.11,0.13
2021-08-19 12:47:57.316,-0.115,0.15
2021-08-19 12:47:57.320,-0.1,0.13
2021-08-19 12:47:57.324,-0.08,0.13
2021-08-19 12:47:57.328,-0.09,0.1
