Time,ECG1,ECG2
2021-08-01 06:08:59.132,0.025,0.035
2021-08-01 06:08:59.136,0.01,0.025
2021-08-01 06:08:59.140,0.025,0.025
2021-08-01 06:08:59.144,0.035,0.03
2021-08-01 06:08:59.148,0.035,0.015
2021-08-01 06:08:59.152,0.055,0.035
2021-08-01 06:08:59.156,0.095,0.07
2021-08-01 06:08:59.160,0.055,0.085
2021-08-01 06:08:59.164,0.06,0.095
2021-08-01 06:08:59.168,0.04,0.06
2021-08-01 06:08:59.172,0.035,0.01
2021-08-01 06:08:59.176,0.02,-0.035
2021-08-01 06:08:59.180,0.005,-0.075
2021-08-01 06:08:59.184,0.0,-0.11
2021-08-01 06:08:59.188,0.005,-0.12
2021-08-01 06:08:59.192,-0.005,-0.17
2021-08-01 06:08:59.196,-0.025,-0.185
2021-08-01 06:08:59.200,0.0,-0.21
2021-08-01 06:08:59.204,-0.01,-0.215
2021-08-01 06:08:59.208,-0.01,-0.205
2021-08-01 06:08:59.212,-0.015,-0.215
2021-08-01 06:08:59.216,0.0,-0.21
2021-08-01 06:08:59.220,-0.01,-0.22
2021-08-01 06:08:59.224,-0.02,-0.245
2021-08-01 06:08:59.228,0.0,-0.245
2021-08-01 06:08:59.232,-0.005,-0.25
2021-08-01 06:08:59.236,-0.02,-0.235
2021-08-01 06:08:59.240,-0.005,-0.23
2021-08-01 06:08:59.244,-0.02,-0.26
2021-08-01 06:08:59.248,0.0,-0.26
2021-08-01 06:08:59.252,0.0,-0.255
2021-08-01 06:08:59.256,-0.005,-0.255
2021-08-01 06:08:59.260,-0.005,-0.25
2021-08-01 06:08:59.264,-0.005,-0.25
2021-08-01 06:08:59.268,0.0,-0.26
2021-08-01 06:08:59.272,-0.005,-0.255
2021-08-01 06:08:59.276,0.005,-0.25
2021-08-01 06:08:59.280,-0.01,-0.23
2021-08-01 06:08:59.284,-0.005,-0.235
2021-08-01 06:08:59.288,0.0,-0.24
2021-08-01 06:08:59.292,-0.015,-0.26
2021-08-01 06:08:59.296,-0.005,-0.25
2021-08-01 06:08:59.300,-0.01,-0.26
2021-08-01 06:08:59.304,0.0,-0.235
2021-08-01 06:08:59.308,-0.01,-0.235
2021-08-01 06:08:59.312,0.0,-0.235
2021-08-01 06:08:59.316,-0.015,-0.235
2021-08-01 06:08:59.320,0.0,-0.23
2021-08-01 06:08:59.324,-0.005,-0.215
2021-08-01 06:08:59.328,0.0,-0.19
2021-08-01 06:08:59.332,-0.005,-0.195
2021-08-01 06:08:59.336,-0.015,-0.22
2021-08-01 06:08:59.340,0.01,-0.21
2021-08-01 06:08:59.344,0.0,-0.195
2021-08-01 06:08:59.348,0.01,-0.18
2021-08-01 06:08:59.352,0.01,-0.205
2021-08-01 06:08:59.356,-0.005,-0.19
2021-08-01 06:08:59.360,0.0,-0.21
2021-08-01 06:08:59.364,0.005,-0.19
2021-08-01 06:08:59.368,0.005,-0.185
2021-08-01 06:08:59.372,0.01,-0.195
2021-08-01 06:08:59.376,0.03,-0.195
2021-08-01 06:08:59.380,0.07,-0.18
2021-08-01 06:08:59.384,0.12,-0.145
2021-08-01 06:08:59.388,0.23,0.035
2021-08-01 06:08:59.392,0.34,0.4
2021-08-01 06:08:59.396,0.395,0.865
2021-08-01 06:08:59.400,0.295,1.17
2021-08-01 06:08:59.404,0.095,1.05
2021-08-01 06:08:59.408,-0.085,0.445
2021-08-01 06:08:59.412,-0.165,-0.145
2021-08-01 06:08:59.416,-0.145,-0.625
2021-08-01 06:08:59.420,-0.025,-1.01
2021-08-01 06:08:59.424,0.01,-1.035
2021-08-01 06:08:59.428,0.015,-0.745
2021-08-01 06:08:59.432,0.0,-0.475
2021-08-01 06:08:59.436,-0.02,-0.31
2021-08-01 06:08:59.440,-0.025,-0.205
2021-08-01 06:08:59.444,-0.035,-0.145
2021-08-01 06:08:59.448,-0.04,-0.175
2021-08-01 06:08:59.452,-0.025,-0.215
2021-08-01 06:08:59.456,-0.03,-0.22
2021-08-01 06:08:59.460,-0.025,-0.23
2021-08-01 06:08:59.464,-0.015,-0.245
2021-08-01 06:08:59.468,-0.025,-0.225
2021-08-01 06:08:59.472,0.0,-0.19
2021-08-01 06:08:59.476,-0.005,-0.185
2021-08-01 06:08:59.480,0.005,-0.17
2021-08-01 06:08:59.484,0.02,-0.165
2021-08-01 06:08:59.488,0.0,-0.19
2021-08-01 06:08:59.492,0.01,-0.19
2021-08-01 06:08:59.496,0.0,-0.195
2021-08-01 06:08:59.500,0.0,-0.2
2021-08-01 06:08:59.504,0.02,-0.165
2021-08-01 06:08:59.508,0.005,-0.14
2021-08-01 06:08:59.512,0.0,-0.14
2021-08-01 06:08:59.516,0.01,-0.115
2021-08-01 06:08:59.520,0.0,-0.09
2021-08-01 06:08:59.524,-0.025,-0.11
2021-08-01 06:08:59.528,-0.045,-0.135
2021-08-01 06:08:59.532,-0.035,-0.18
2021-08-01 06:08:59.536,-0.04,-0.19
2021-08-01 06:08:59.540,-0.045,-0.215
2021-08-01 06:08:59.544,-0.045,-0.22
2021-08-01 06:08:59.548,-0.05,-0.225
2021-08-01 06:08:59.552,-0.05,-0.25
2021-08-01 06:08:59.556,-0.04,-0.26
2021-08-01 06:08:59.560,-0.04,-0.24
2021-08-01 06:08:59.564,-0.055,-0.215
2021-08-01 06:08:59.568,-0.035,-0.22
2021-08-01 06:08:59.572,-0.055,-0.225
2021-08-01 06:08:59.576,-0.05,-0.23
2021-08-01 06:08:59.580,-0.06,-0.22
2021-08-01 06:08:59.584,-0.065,-0.225
2021-08-01 06:08:59.588,-0.055,-0.21
2021-08-01 06:08:59.592,-0.055,-0.205
2021-08-01 06:08:59.596,-0.06,-0.19
2021-08-01 06:08:59.600,-0.05,-0.2
2021-08-01 06:08:59.604,-0.03,-0.175
2021-08-01 06:08:59.608,-0.065,-0.165
2021-08-01 06:08:59.612,-0.06,-0.16
2021-08-01 06:08:59.616,-0.075,-0.155
2021-08-01 06:08:59.620,-0.06,-0.145
2021-08-01 06:08:59.624,-0.065,-0.135
2021-08-01 06:08:59.628,-0.055,-0.105
2021-08-01 06:08:59.632,-0.05,-0.105
2021-08-01 06:08:59.636,-0.045,-0.095
2021-08-01 06:08:59.640,-0.055,-0.105
2021-08-01 06:08:59.644,-0.04,-0.095
2021-08-01 06:08:59.648,-0.04,-0.11
2021-08-01 06:08:59.652,-0.035,-0.1
2021-08-01 06:08:59.656,-0.005,-0.06
2021-08-01 06:08:59.660,-0.01,-0.085
2021-08-01 06:08:59.664,0.0,-0.075
2021-08-01 06:08:59.668,0.0,-0.075
2021-08-01 06:08:59.672,0.0,-0.105
2021-08-01 06:08:59.676,0.025,-0.11
2021-08-01 06:08:59.680,0.01,-0.105
2021-08-01 06:08:59.684,0.005,-0.115
2021-08-01 06:08:59.688,0.025,-0.16
2021-08-01 06:08:59.692,0.005,-0.19
2021-08-01 06:08:59.696,0.015,-0.2
2021-08-01 06:08:59.700,0.01,-0.215
2021-08-01 06:08:59.704,0.0,-0.2
2021-08-01 06:08:59.708,0.015,-0.2
2021-08-01 06:08:59.712,0.0,-0.215
2021-08-01 06:08:59.716,0.005,-0.225
2021-08-01 06:08:59.720,0.0,-0.255
2021-08-01 06:08:59.724,0.015,-0.235
2021-08-01 06:08:59.728,0.01,-0.235
2021-08-01 06:08:59.732,0.0,-0.22
2021-08-01 06:08:59.736,0.01,-0.235
2021-08-01 06:08:59.740,0.005,-0.225
2021-08-01 06:08:59.744,0.005,-0.24
2021-08-01 06:08:59.748,0.015,-0.225
2021-08-01 06:08:59.752,0.005,-0.22
2021-08-01 06:08:59.756,0.005,-0.205
2021-08-01 06:08:59.760,0.005,-0.22
2021-08-01 06:08:59.764,0.015,-0.195
2021-08-01 06:08:59.768,0.015,-0.21
2021-08-01 06:08:59.772,0.015,-0.19
2021-08-01 06:08:59.776,0.015,-0.17
2021-08-01 06:08:59.780,0.025,-0.17
2021-08-01 06:08:59.784,0.035,-0.18
2021-08-01 06:08:59.788,0.05,-0.18
2021-08-01 06:08:59.792,0.09,-0.17
2021-08-01 06:08:59.796,0.14,-0.11
2021-08-01 06:08:59.800,0.225,0.03
2021-08-01 06:08:59.804,0.34,0.335
2021-08-01 06:08:59.808,0.41,0.81
2021-08-01 06:08:59.812,0.305,1.265
2021-08-01 06:08:59.816,0.11,1.39
2021-08-01 06:08:59.820,-0.09,1.005
2021-08-01 06:08:59.824,-0.17,0.235
2021-08-01 06:08:59.828,-0.135,-0.495
2021-08-01 06:08:59.832,-0.035,-1.0
2021-08-01 06:08:59.836,0.005,-1.065
2021-08-01 06:08:59.840,0.025,-0.74
2021-08-01 06:08:59.844,0.025,-0.385
2021-08-01 06:08:59.848,0.025,-0.18
2021-08-01 06:08:59.852,0.0,-0.105
2021-08-01 06:08:59.856,0.025,-0.14
2021-08-01 06:08:59.860,0.015,-0.195
2021-08-01 06:08:59.864,0.02,-0.23
2021-08-01 06:08:59.868,0.01,-0.215
2021-08-01 06:08:59.872,0.02,-0.19
2021-08-01 06:08:59.876,0.025,-0.16
2021-08-01 06:08:59.880,-0.005,-0.16
2021-08-01 06:08:59.884,-0.01,-0.2
2021-08-01 06:08:59.888,-0.02,-0.21
2021-08-01 06:08:59.892,-0.02,-0.235
2021-08-01 06:08:59.896,-0.035,-0.25
2021-08-01 06:08:59.900,-0.03,-0.265
2021-08-01 06:08:59.904,-0.025,-0.295
2021-08-01 06:08:59.908,-0.03,-0.3
2021-08-01 06:08:59.912,-0.045,-0.3
2021-08-01 06:08:59.916,-0.05,-0.295
2021-08-01 06:08:59.920,-0.04,-0.305
2021-08-01 06:08:59.924,-0.05,-0.31
2021-08-01 06:08:59.928,-0.055,-0.305
2021-08-01 06:08:59.932,-0.05,-0.335
2021-08-01 06:08:59.936,-0.025,-0.335
2021-08-01 06:08:59.940,-0.04,-0.325
2021-08-01 06:08:59.944,-0.035,-0.315
2021-08-01 06:08:59.948,-0.035,-0.3
2021-08-01 06:08:59.952,-0.055,-0.315
2021-08-01 06:08:59.956,-0.03,-0.31
2021-08-01 06:08:59.960,-0.02,-0.315
2021-08-01 06:08:59.964,-0.025,-0.29
2021-08-01 06:08:59.968,-0.02,-0.28
2021-08-01 06:08:59.972,-0.03,-0.29
2021-08-01 06:08:59.976,-0.02,-0.29
2021-08-01 06:08:59.980,-0.03,-0.275
2021-08-01 06:08:59.984,-0.02,-0.275
2021-08-01 06:08:59.988,-0.005,-0.25
2021-08-01 06:08:59.992,-0.025,-0.235
2021-08-01 06:08:59.996,-0.025,-0.245
2021-08-01 06:09:00.000,0.0,-0.255
2021-08-01 06:09:00.004,-0.03,-0.245
2021-08-01 06:09:00.008,-0.01,-0.24
2021-08-01 06:09:00.012,0.0,-0.225
2021-08-01 06:09:00.016,-0.025,-0.18
2021-08-01 06:09:00.020,-0.005,-0.19
2021-08-01 06:09:00.024,0.0,-0.19
2021-08-01 06:09:00.028,0.0,-0.16
2021-08-01 06:09:00.032,-0.01,-0.155
2021-08-01 06:09:00.036,-0.015,-0.13
2021-08-01 06:09:00.040,0.015,-0.115
2021-08-01 06:09:00.044,0.0,-0.105
2021-08-01 06:09:00.048,0.005,-0.11
2021-08-01 06:09:00.052,0.01,-0.115
2021-08-01 06:09:00.056,0.015,-0.1
2021-08-01 06:09:00.060,0.03,-0.07
2021-08-01 06:09:00.064,0.025,-0.06
2021-08-01 06:09:00.068,0.04,-0.02
2021-08-01 06:09:00.072,0.03,-0.03
2021-08-01 06:09:00.076,0.045,-0.065
2021-08-01 06:09:00.080,0.025,-0.06
2021-08-01 06:09:00.084,0.05,-0.07
2021-08-01 06:09:00.088,0.02,-0.065
2021-08-01 06:09:00.092,0.025,-0.095
2021-08-01 06:09:00.096,0.015,-0.13
2021-08-01 06:09:00.100,0.02,-0.15
2021-08-01 06:09:00.104,0.02,-0.14
2021-08-01 06:09:00.108,0.03,-0.17
2021-08-01 06:09:00.112,0.015,-0.2
2021-08-01 06:09:00.116,0.03,-0.215
2021-08-01 06:09:00.120,0.025,-0.195
2021-08-01 06:09:00.124,0.025,-0.2
2021-08-01 06:09:00.128,0.035,-0.205
2021-08-01 06:09:00.132,0.02,-0.205
2021-08-01 06:09:00.136,0.02,-0.2
2021-08-01 06:09:00.140,0.02,-0.2
2021-08-01 06:09:00.144,0.02,-0.21
2021-08-01 06:09:00.148,0.01,-0.22
2021-08-01 06:09:00.152,0.025,-0.21
2021-08-01 06:09:00.156,0.035,-0.185
2021-08-01 06:09:00.160,0.015,-0.205
2021-08-01 06:09:00.164,0.015,-0.185
2021-08-01 06:09:00.168,0.015,-0.215
2021-08-01 06:09:00.172,0.015,-0.205
2021-08-01 06:09:00.176,0.035,-0.19
2021-08-01 06:09:00.180,0.035,-0.175
2021-08-01 06:09:00.184,0.025,-0.15
2021-08-01 06:09:00.188,0.05,-0.145
2021-08-01 06:09:00.192,0.05,-0.145
2021-08-01 06:09:00.196,0.06,-0.11
2021-08-01 06:09:00.200,0.05,-0.11
2021-08-01 06:09:00.204,0.06,-0.105
2021-08-01 06:09:00.208,0.055,-0.12
2021-08-01 06:09:00.212,0.05,-0.15
2021-08-01 06:09:00.216,0.06,-0.16
2021-08-01 06:09:00.220,0.1,-0.15
2021-08-01 06:09:00.224,0.16,-0.08
2021-08-01 06:09:00.228,0.22,0.03
2021-08-01 06:09:00.232,0.3,0.22
2021-08-01 06:09:00.236,0.38,0.54
2021-08-01 06:09:00.240,0.47,0.99
2021-08-01 06:09:00.244,0.445,1.405
2021-08-01 06:09:00.248,0.3,1.565
2021-08-01 06:09:00.252,0.115,1.23
2021-08-01 06:09:00.256,-0.03,0.545
2021-08-01 06:09:00.260,-0.145,0.045
2021-08-01 06:09:00.264,-0.22,-0.25
2021-08-01 06:09:00.268,-0.24,-0.57
2021-08-01 06:09:00.272,-0.16,-0.885
2021-08-01 06:09:00.276,-0.08,-1.165
2021-08-01 06:09:00.280,-0.055,-1.06
2021-08-01 06:09:00.284,-0.035,-0.705
2021-08-01 06:09:00.288,-0.02,-0.425
2021-08-01 06:09:00.292,-0.04,-0.32
2021-08-01 06:09:00.296,-0.05,-0.315
2021-08-01 06:09:00.300,-0.04,-0.34
2021-08-01 06:09:00.304,-0.045,-0.35
2021-08-01 06:09:00.308,-0.05,-0.35
2021-08-01 06:09:00.312,-0.06,-0.35
2021-08-01 06:09:00.316,-0.035,-0.35
2021-08-01 06:09:00.320,-0.045,-0.335
2021-08-01 06:09:00.324,-0.055,-0.35
2021-08-01 06:09:00.328,-0.04,-0.345
2021-08-01 06:09:00.332,-0.04,-0.345
2021-08-01 06:09:00.336,-0.045,-0.34
2021-08-01 06:09:00.340,-0.025,-0.355
2021-08-01 06:09:00.344,-0.045,-0.36
2021-08-01 06:09:00.348,-0.045,-0.35
2021-08-01 06:09:00.352,-0.04,-0.355
2021-08-01 06:09:00.356,-0.035,-0.35
2021-08-01 06:09:00.360,-0.04,-0.355
2021-08-01 06:09:00.364,-0.04,-0.355
2021-08-01 06:09:00.368,-0.025,-0.345
2021-08-01 06:09:00.372,-0.035,-0.325
2021-08-01 06:09:00.376,-0.04,-0.34
2021-08-01 06:09:00.380,-0.025,-0.355
2021-08-01 06:09:00.384,-0.035,-0.355
2021-08-01 06:09:00.388,-0.045,-0.34
2021-08-01 06:09:00.392,-0.03,-0.33
2021-08-01 06:09:00.396,-0.035,-0.32
2021-08-01 06:09:00.400,-0.025,-0.32
2021-08-01 06:09:00.404,-0.035,-0.335
2021-08-01 06:09:00.408,-0.04,-0.33
2021-08-01 06:09:00.412,-0.02,-0.305
2021-08-01 06:09:00.416,-0.03,-0.32
2021-08-01 06:09:00.420,-0.045,-0.295
2021-08-01 06:09:00.424,-0.045,-0.29
2021-08-01 06:09:00.428,-0.03,-0.3
2021-08-01 06:09:00.432,-0.02,-0.31
2021-08-01 06:09:00.436,-0.035,-0.29
2021-08-01 06:09:00.440,-0.04,-0.28
2021-08-01 06:09:00.444,-0.03,-0.28
2021-08-01 06:09:00.448,-0.035,-0.25
2021-08-01 06:09:00.452,-0.04,-0.265
2021-08-01 06:09:00.456,-0.035,-0.27
2021-08-01 06:09:00.460,-0.04,-0.275
2021-08-01 06:09:00.464,-0.03,-0.245
2021-08-01 06:09:00.468,-0.03,-0.25
2021-08-01 06:09:00.472,-0.03,-0.25
2021-08-01 06:09:00.476,-0.04,-0.22
2021-08-01 06:09:00.480,-0.02,-0.22
2021-08-01 06:09:00.484,-0.015,-0.225
2021-08-01 06:09:00.488,-0.025,-0.2
2021-08-01 06:09:00.492,-0.01,-0.17
2021-08-01 06:09:00.496,-0.005,-0.15
2021-08-01 06:09:00.500,-0.015,-0.13
2021-08-01 06:09:00.504,0.005,-0.11
2021-08-01 06:09:00.508,0.01,-0.095
2021-08-01 06:09:00.512,0.005,-0.075
2021-08-01 06:09:00.516,0.0,-0.095
2021-08-01 06:09:00.520,0.0,-0.115
2021-08-01 06:09:00.524,-0.005,-0.115
2021-08-01 06:09:00.528,-0.005,-0.15
2021-08-01 06:09:00.532,-0.01,-0.16
2021-08-01 06:09:00.536,-0.005,-0.16
2021-08-01 06:09:00.540,-0.01,-0.175
2021-08-01 06:09:00.544,-0.02,-0.175
2021-08-01 06:09:00.548,0.0,-0.2
2021-08-01 06:09:00.552,0.0,-0.215
2021-08-01 06:09:00.556,0.015,-0.21
2021-08-01 06:09:00.560,0.01,-0.19
2021-08-01 06:09:00.564,0.015,-0.16
2021-08-01 06:09:00.568,0.015,-0.16
2021-08-01 06:09:00.572,0.02,-0.185
2021-08-01 06:09:00.576,0.035,-0.195
2021-08-01 06:09:00.580,0.035,-0.2
2021-08-01 06:09:00.584,0.02,-0.19
2021-08-01 06:09:00.588,0.025,-0.17
2021-08-01 06:09:00.592,0.045,-0.155
2021-08-01 06:09:00.596,0.03,-0.125
2021-08-01 06:09:00.600,0.025,-0.105
2021-08-01 06:09:00.604,0.0,-0.135
2021-08-01 06:09:00.608,0.0,-0.11
2021-08-01 06:09:00.612,-0.01,-0.125
2021-08-01 06:09:00.616,-0.025,-0.19
2021-08-01 06:09:00.620,-0.025,-0.185
2021-08-01 06:09:00.624,-0.025,-0.205
2021-08-01 06:09:00.628,-0.03,-0.22
2021-08-01 06:09:00.632,-0.035,-0.23
2021-08-01 06:09:00.636,-0.03,-0.245
2021-08-01 06:09:00.640,-0.03,-0.27
2021-08-01 06:09:00.644,-0.06,-0.29
2021-08-01 06:09:00.648,-0.04,-0.31
2021-08-01 06:09:00.652,-0.03,-0.295
2021-08-01 06:09:00.656,-0.025,-0.275
2021-08-01 06:09:00.660,-0.04,-0.28
2021-08-01 06:09:00.664,-0.06,-0.32
2021-08-01 06:09:00.668,-0.035,-0.305
2021-08-01 06:09:00.672,-0.04,-0.315
2021-08-01 06:09:00.676,-0.04,-0.31
2021-08-01 06:09:00.680,-0.04,-0.3
2021-08-01 06:09:00.684,-0.03,-0.285
2021-08-01 06:09:00.688,-0.06,-0.28
2021-08-01 06:09:00.692,-0.045,-0.31
2021-08-01 06:09:00.696,-0.04,-0.335
2021-08-01 06:09:00.700,-0.045,-0.335
2021-08-01 06:09:00.704,-0.065,-0.32
2021-08-01 06:09:00.708,-0.055,-0.34
2021-08-01 06:09:00.712,-0.06,-0.335
2021-08-01 06:09:00.716,-0.045,-0.33
2021-08-01 06:09:00.720,-0.055,-0.325
2021-08-01 06:09:00.724,-0.05,-0.335
2021-08-01 06:09:00.728,-0.055,-0.325
2021-08-01 06:09:00.732,-0.045,-0.335
2021-08-01 06:09:00.736,-0.035,-0.355
2021-08-01 06:09:00.740,-0.03,-0.36
2021-08-01 06:09:00.744,-0.045,-0.35
2021-08-01 06:09:00.748,-0.04,-0.355
2021-08-01 06:09:00.752,-0.035,-0.34
2021-08-01 06:09:00.756,-0.05,-0.34
2021-08-01 06:09:00.760,-0.03,-0.325
2021-08-01 06:09:00.764,-0.04,-0.35
2021-08-01 06:09:00.768,-0.04,-0.365
2021-08-01 06:09:00.772,-0.035,-0.34
2021-08-01 06:09:00.776,-0.035,-0.345
2021-08-01 06:09:00.780,-0.04,-0.335
2021-08-01 06:09:00.784,-0.06,-0.34
2021-08-01 06:09:00.788,-0.06,-0.35
2021-08-01 06:09:00.792,-0.05,-0.355
2021-08-01 06:09:00.796,-0.02,-0.33
2021-08-01 06:09:00.800,-0.05,-0.31
2021-08-01 06:09:00.804,-0.04,-0.305
2021-08-01 06:09:00.808,-0.04,-0.335
2021-08-01 06:09:00.812,-0.04,-0.33
2021-08-01 06:09:00.816,-0.04,-0.33
2021-08-01 06:09:00.820,-0.035,-0.335
2021-08-01 06:09:00.824,-0.04,-0.325
2021-08-01 06:09:00.828,-0.04,-0.335
2021-08-01 06:09:00.832,-0.05,-0.32
2021-08-01 06:09:00.836,-0.04,-0.33
2021-08-01 06:09:00.840,-0.065,-0.35
2021-08-01 06:09:00.844,-0.02,-0.33
2021-08-01 06:09:00.848,-0.005,-0.325
2021-08-01 06:09:00.852,-0.02,-0.315
2021-08-01 06:09:00.856,0.01,-0.355
2021-08-01 06:09:00.860,0.075,-0.37
2021-08-01 06:09:00.864,0.145,-0.255
2021-08-01 06:09:00.868,0.235,0.025
2021-08-01 06:09:00.872,0.285,0.51
2021-08-01 06:09:00.876,0.34,1.0
2021-08-01 06:09:00.880,0.315,1.18
2021-08-01 06:09:00.884,0.23,0.765
2021-08-01 06:09:00.888,0.18,0.08
2021-08-01 06:09:00.892,0.09,-0.395
2021-08-01 06:09:00.896,-0.03,-0.58
2021-08-01 06:09:00.900,-0.17,-0.675
2021-08-01 06:09:00.904,-0.17,-0.74
2021-08-01 06:09:00.908,-0.065,-1.015
2021-08-01 06:09:00.912,0.0,-1.125
2021-08-01 06:09:00.916,-0.03,-0.89
2021-08-01 06:09:00.920,-0.025,-0.595
2021-08-01 06:09:00.924,-0.045,-0.345
2021-08-01 06:09:00.928,-0.045,-0.255
2021-08-01 06:09:00.932,-0.04,-0.265
2021-08-01 06:09:00.936,-0.04,-0.3
2021-08-01 06:09:00.940,-0.055,-0.31
2021-08-01 06:09:00.944,-0.035,-0.32
2021-08-01 06:09:00.948,-0.025,-0.32
2021-08-01 06:09:00.952,-0.02,-0.29
2021-08-01 06:09:00.956,-0.02,-0.26
2021-08-01 06:09:00.960,0.0,-0.225
2021-08-01 06:09:00.964,-0.005,-0.2
2021-08-01 06:09:00.968,-0.02,-0.195
2021-08-01 06:09:00.972,-0.045,-0.225
2021-08-01 06:09:00.976,-0.065,-0.26
2021-08-01 06:09:00.980,-0.04,-0.305
2021-08-01 06:09:00.984,-0.07,-0.32
2021-08-01 06:09:00.988,-0.065,-0.335
2021-08-01 06:09:00.992,-0.06,-0.345
2021-08-01 06:09:00.996,-0.08,-0.35
2021-08-01 06:09:01.000,-0.07,-0.385
2021-08-01 06:09:01.004,-0.065,-0.39
2021-08-01 06:09:01.008,-0.075,-0.38
2021-08-01 06:09:01.012,-0.07,-0.38
2021-08-01 06:09:01.016,-0.065,-0.36
2021-08-01 06:09:01.020,-0.07,-0.36
2021-08-01 06:09:01.024,-0.06,-0.39
2021-08-01 06:09:01.028,-0.04,-0.38
2021-08-01 06:09:01.032,-0.055,-0.38
2021-08-01 06:09:01.036,-0.075,-0.36
2021-08-01 06:09:01.040,-0.065,-0.345
2021-08-01 06:09:01.044,-0.06,-0.36
2021-08-01 06:09:01.048,-0.05,-0.345
2021-08-01 06:09:01.052,-0.05,-0.35
2021-08-01 06:09:01.056,-0.055,-0.355
2021-08-01 06:09:01.060,-0.06,-0.33
2021-08-01 06:09:01.064,-0.065,-0.32
2021-08-01 06:09:01.068,-0.065,-0.315
2021-08-01 06:09:01.072,-0.045,-0.33
2021-08-01 06:09:01.076,-0.055,-0.325
2021-08-01 06:09:01.080,-0.04,-0.31
2021-08-01 06:09:01.084,-0.055,-0.315
2021-08-01 06:09:01.088,-0.055,-0.32
2021-08-01 06:09:01.092,-0.07,-0.295
2021-08-01 06:09:01.096,-0.05,-0.305
2021-08-01 06:09:01.100,-0.045,-0.305
2021-08-01 06:09:01.104,-0.06,-0.285
2021-08-01 06:09:01.108,-0.055,-0.265
2021-08-01 06:09:01.112,-0.055,-0.26
2021-08-01 06:09:01.116,-0.05,-0.265
2021-08-01 06:09:01.120,-0.04,-0.255
2021-08-01 06:09:01.124,-0.035,-0.245
2021-08-01 06:09:01.128,-0.04,-0.245
2021-08-01 06:09:01.132,-0.04,-0.19
2021-08-01 06:09:01.136,-0.04,-0.16
2021-08-01 06:09:01.140,-0.025,-0.155
2021-08-01 06:09:01.144,-0.02,-0.15
2021-08-01 06:09:01.148,0.005,-0.11
2021-08-01 06:09:01.152,0.015,-0.09
2021-08-01 06:09:01.156,0.0,-0.09
2021-08-01 06:09:01.160,0.0,-0.095
2021-08-01 06:09:01.164,0.0,-0.11
2021-08-01 06:09:01.168,0.005,-0.135
2021-08-01 06:09:01.172,0.0,-0.16
2021-08-01 06:09:01.176,0.02,-0.145
2021-08-01 06:09:01.180,-0.005,-0.145
2021-08-01 06:09:01.184,-0.015,-0.17
2021-08-01 06:09:01.188,-0.02,-0.2
2021-08-01 06:09:01.192,-0.03,-0.23
2021-08-01 06:09:01.196,-0.03,-0.22
2021-08-01 06:09:01.200,-0.01,-0.24
2021-08-01 06:09:01.204,-0.025,-0.245
2021-08-01 06:09:01.208,-0.03,-0.245
2021-08-01 06:09:01.212,-0.035,-0.26
2021-08-01 06:09:01.216,0.0,-0.27
2021-08-01 06:09:01.220,-0.01,-0.25
2021-08-01 06:09:01.224,-0.04,-0.26
2021-08-01 06:09:01.228,-0.035,-0.255
2021-08-01 06:09:01.232,-0.04,-0.26
2021-08-01 06:09:01.236,-0.02,-0.27
2021-08-01 06:09:01.240,-0.03,-0.26
2021-08-01 06:09:01.244,-0.03,-0.265
2021-08-01 06:09:01.248,-0.02,-0.26
2021-08-01 06:09:01.252,-0.01,-0.245
2021-08-01 06:09:01.256,-0.025,-0.235
2021-08-01 06:09:01.260,-0.02,-0.26
2021-08-01 06:09:01.264,-0.02,-0.255
2021-08-01 06:09:01.268,-0.025,-0.24
2021-08-01 06:09:01.272,0.0,-0.225
2021-08-01 06:09:01.276,0.0,-0.215
2021-08-01 06:09:01.280,0.025,-0.205
2021-08-01 06:09:01.284,0.045,-0.175
2021-08-01 06:09:01.288,0.11,-0.08
2021-08-01 06:09:01.292,0.22,0.155
2021-08-01 06:09:01.296,0.32,0.505
2021-08-01 06:09:01.300,0.37,0.995
2021-08-01 06:09:01.304,0.345,1.46
2021-08-01 06:09:01.308,0.255,1.755
2021-08-01 06:09:01.312,0.12,1.77
2021-08-01 06:09:01.316,-0.035,1.525
2021-08-01 06:09:01.320,-0.18,1.045
2021-08-01 06:09:01.324,-0.225,0.365
2021-08-01 06:09:01.328,-0.17,-0.41
2021-08-01 06:09:01.332,-0.1,-1.025
2021-08-01 06:09:01.336,-0.075,-1.075
2021-08-01 06:09:01.340,-0.075,-0.705
2021-08-01 06:09:01.344,-0.08,-0.44
2021-08-01 06:09:01.348,-0.1,-0.375
2021-08-01 06:09:01.352,-0.095,-0.375
2021-08-01 06:09:01.356,-0.08,-0.36
2021-08-01 06:09:01.360,-0.075,-0.4
2021-08-01 06:09:01.364,-0.07,-0.385
2021-08-01 06:09:01.368,-0.06,-0.385
2021-08-01 06:09:01.372,-0.085,-0.38
2021-08-01 06:09:01.376,-0.085,-0.395
2021-08-01 06:09:01.380,-0.08,-0.4
2021-08-01 06:09:01.384,-0.08,-0.415
2021-08-01 06:09:01.388,-0.09,-0.395
2021-08-01 06:09:01.392,-0.095,-0.405
2021-08-01 06:09:01.396,-0.09,-0.385
2021-08-01 06:09:01.400,-0.095,-0.39
2021-08-01 06:09:01.404,-0.08,-0.385
2021-08-01 06:09:01.408,-0.075,-0.395
2021-08-01 06:09:01.412,-0.075,-0.39
2021-08-01 06:09:01.416,-0.075,-0.385
2021-08-01 06:09:01.420,-0.07,-0.385
2021-08-01 06:09:01.424,-0.06,-0.375
2021-08-01 06:09:01.428,-0.075,-0.375
2021-08-01 06:09:01.432,-0.07,-0.385
2021-08-01 06:09:01.436,-0.075,-0.38
2021-08-01 06:09:01.440,-0.07,-0.385
2021-08-01 06:09:01.444,-0.075,-0.37
2021-08-01 06:09:01.448,-0.065,-0.375
2021-08-01 06:09:01.452,-0.085,-0.365
2021-08-01 06:09:01.456,-0.075,-0.395
2021-08-01 06:09:01.460,-0.065,-0.375
2021-08-01 06:09:01.464,-0.065,-0.375
2021-08-01 06:09:01.468,-0.075,-0.355
2021-08-01 06:09:01.472,-0.075,-0.36
2021-08-01 06:09:01.476,-0.08,-0.36
2021-08-01 06:09:01.480,-0.07,-0.365
2021-08-01 06:09:01.484,-0.075,-0.355
2021-08-01 06:09:01.488,-0.07,-0.345
2021-08-01 06:09:01.492,-0.08,-0.35
2021-08-01 06:09:01.496,-0.075,-0.345
2021-08-01 06:09:01.500,-0.08,-0.36
2021-08-01 06:09:01.504,-0.07,-0.35
2021-08-01 06:09:01.508,-0.085,-0.35
2021-08-01 06:09:01.512,-0.08,-0.315
2021-08-01 06:09:01.516,-0.08,-0.335
2021-08-01 06:09:01.520,-0.09,-0.34
2021-08-01 06:09:01.524,-0.075,-0.33
2021-08-01 06:09:01.528,-0.085,-0.32
2021-08-01 06:09:01.532,-0.075,-0.32
2021-08-01 06:09:01.536,-0.065,-0.32
2021-08-01 06:09:01.540,-0.08,-0.285
2021-08-01 06:09:01.544,-0.095,-0.29
2021-08-01 06:09:01.548,-0.06,-0.28
2021-08-01 06:09:01.552,-0.075,-0.25
2021-08-01 06:09:01.556,-0.06,-0.215
2021-08-01 06:09:01.560,-0.035,-0.17
2021-08-01 06:09:01.564,-0.04,-0.16
2021-08-01 06:09:01.568,-0.015,-0.155
2021-08-01 06:09:01.572,-0.02,-0.145
2021-08-01 06:09:01.576,-0.025,-0.16
2021-08-01 06:09:01.580,-0.035,-0.125
2021-08-01 06:09:01.584,-0.045,-0.145
2021-08-01 06:09:01.588,-0.055,-0.185
2021-08-01 06:09:01.592,-0.05,-0.2
2021-08-01 06:09:01.596,-0.03,-0.225
2021-08-01 06:09:01.600,-0.05,-0.205
2021-08-01 06:09:01.604,-0.035,-0.22
2021-08-01 06:09:01.608,-0.05,-0.21
2021-08-01 06:09:01.612,-0.03,-0.22
2021-08-01 06:09:01.616,-0.06,-0.245
2021-08-01 06:09:01.620,-0.045,-0.255
2021-08-01 06:09:01.624,-0.04,-0.255
2021-08-01 06:09:01.628,-0.035,-0.25
2021-08-01 06:09:01.632,-0.04,-0.255
2021-08-01 06:09:01.636,-0.05,-0.255
2021-08-01 06:09:01.640,-0.035,-0.26
2021-08-01 06:09:01.644,-0.045,-0.275
2021-08-01 06:09:01.648,-0.045,-0.26
2021-08-01 06:09:01.652,-0.05,-0.275
2021-08-01 06:09:01.656,-0.05,-0.275
2021-08-01 06:09:01.660,-0.06,-0.265
2021-08-01 06:09:01.664,-0.06,-0.28
2021-08-01 06:09:01.668,-0.03,-0.28
2021-08-01 06:09:01.672,-0.025,-0.29
2021-08-01 06:09:01.676,-0.04,-0.265
2021-08-01 06:09:01.680,-0.045,-0.28
2021-08-01 06:09:01.684,-0.06,-0.265
2021-08-01 06:09:01.688,-0.04,-0.27
2021-08-01 06:09:01.692,-0.045,-0.28
2021-08-01 06:09:01.696,-0.045,-0.27
2021-08-01 06:09:01.700,-0.045,-0.265
2021-08-01 06:09:01.704,-0.04,-0.26
2021-08-01 06:09:01.708,-0.045,-0.285
2021-08-01 06:09:01.712,-0.035,-0.29
2021-08-01 06:09:01.716,-0.04,-0.28
2021-08-01 06:09:01.720,-0.045,-0.27
2021-08-01 06:09:01.724,-0.045,-0.275
2021-08-01 06:09:01.728,-0.04,-0.28
2021-08-01 06:09:01.732,-0.045,-0.275
2021-08-01 06:09:01.736,-0.06,-0.275
2021-08-01 06:09:01.740,-0.04,-0.3
2021-08-01 06:09:01.744,-0.035,-0.295
2021-08-01 06:09:01.748,-0.035,-0.275
2021-08-01 06:09:01.752,-0.04,-0.28
2021-08-01 06:09:01.756,-0.04,-0.29
2021-08-01 06:09:01.760,-0.04,-0.3
2021-08-01 06:09:01.764,-0.035,-0.3
2021-08-01 06:09:01.768,-0.045,-0.285
2021-08-01 06:09:01.772,-0.03,-0.29
2021-08-01 06:09:01.776,-0.04,-0.285
2021-08-01 06:09:01.780,-0.04,-0.28
2021-08-01 06:09:01.784,-0.04,-0.29
2021-08-01 06:09:01.788,-0.04,-0.285
2021-08-01 06:09:01.792,-0.025,-0.285
2021-08-01 06:09:01.796,-0.04,-0.28
2021-08-01 06:09:01.800,-0.05,-0.28
2021-08-01 06:09:01.804,-0.05,-0.27
2021-08-01 06:09:01.808,-0.045,-0.305
2021-08-01 06:09:01.812,-0.015,-0.305
2021-08-01 06:09:01.816,-0.035,-0.295
2021-08-01 06:09:01.820,-0.035,-0.295
2021-08-01 06:09:01.824,-0.035,-0.28
2021-08-01 06:09:01.828,-0.035,-0.3
2021-08-01 06:09:01.832,-0.06,-0.305
2021-08-01 06:09:01.836,-0.02,-0.31
2021-08-01 06:09:01.840,-0.03,-0.295
2021-08-01 06:09:01.844,-0.03,-0.27
2021-08-01 06:09:01.848,-0.04,-0.295
2021-08-01 06:09:01.852,-0.03,-0.31
2021-08-01 06:09:01.856,-0.015,-0.295
2021-08-01 06:09:01.860,-0.03,-0.3
2021-08-01 06:09:01.864,-0.025,-0.29
2021-08-01 06:09:01.868,-0.025,-0.28
2021-08-01 06:09:01.872,-0.025,-0.29
