Time,ECG1,ECG2
2021-08-19 00:40:19.812,-0.31,-0.08
2021-08-19 00:40:19.816,-0.28,-0.11
2021-08-19 00:40:19.820,-0.26,-0.135
2021-08-19 00:40:19.824,-0.275,-0.11
2021-08-19 00:40:19.828,-0.285,-0.13
2021-08-19 00:40:19.832,-0.295,-0.14
2021-08-19 00:40:19.836,-0.33,-0.075
2021-08-19 00:40:19.840,-0.325,-0.07
2021-08-19 00:40:19.844,-0.335,-0.105
2021-08-19 00:40:19.848,-0.295,-0.095
2021-08-19 00:40:19.852,-0.295,-0.08
2021-08-19 00:40:19.856,-0.315,-0.055
2021-08-19 00:40:19.860,-0.315,-0.07
2021-08-19 00:40:19.864,-0.33,-0.075
2021-08-19 00:40:19.868,-0.335,-0.08
2021-08-19 00:40:19.872,-0.35,-0.11
2021-08-19 00:40:19.876,-0.325,-0.11
2021-08-19 00:40:19.880,-0.295,-0.125
2021-08-19 00:40:19.884,-0.31,-0.07
2021-08-19 00:40:19.888,-0.285,-0.1
2021-08-19 00:40:19.892,-0.27,-0.11
2021-08-19 00:40:19.896,-0.3,-0.1
2021-08-19 00:40:19.900,-0.31,-0.16
2021-08-19 00:40:19.904,-0.325,-0.155
2021-08-19 00:40:19.908,-0.31,-0.115
2021-08-19 00:40:19.912,-0.295,-0.135
2021-08-19 00:40:19.916,-0.3,-0.145
2021-08-19 00:40:19.920,-0.335,-0.115
2021-08-19 00:40:19.924,-0.335,-0.125
2021-08-19 00:40:19.928,-0.365,-0.12
2021-08-19 00:40:19.932,-0.335,-0.09
2021-08-19 00:40:19.936,-0.3,-0.09
2021-08-19 00:40:19.940,-0.305,-0.125
2021-08-19 00:40:19.944,-0.28,-0.15
2021-08-19 00:40:19.948,-0.28,-0.155
2021-08-19 00:40:19.952,-0.295,-0.19
2021-08-19 00:40:19.956,-0.275,-0.185
2021-08-19 00:40:19.960,-0.335,-0.2
2021-08-19 00:40:19.964,-0.355,-0.18
2021-08-19 00:40:19.968,-0.35,-0.105
2021-08-19 00:40:19.972,-0.265,-0.13
2021-08-19 00:40:19.976,-0.28,-0.15
2021-08-19 00:40:19.980,-0.315,-0.165
2021-08-19 00:40:19.984,-0.325,-0.12
2021-08-19 00:40:19.988,-0.33,-0.17
2021-08-19 00:40:19.992,-0.28,-0.11
2021-08-19 00:40:19.996,-0.345,-0.125
2021-08-19 00:40:20.000,-0.315,-0.15
2021-08-19 00:40:20.004,-0.335,-0.165
2021-08-19 00:40:20.008,-0.33,-0.185
2021-08-19 00:40:20.012,-0.34,-0.11
2021-08-19 00:40:20.016,-0.33,-0.085
2021-08-19 00:40:20.020,-0.33,-0.125
2021-08-19 00:40:20.024,-0.29,-0.095
2021-08-19 00:40:20.028,-0.265,-0.185
2021-08-19 00:40:20.032,-0.25,-0.21
2021-08-19 00:40:20.036,-0.27,-0.225
2021-08-19 00:40:20.040,-0.32,-0.225
2021-08-19 00:40:20.044,-0.34,-0.195
2021-08-19 00:40:20.048,-0.33,-0.14
2021-08-19 00:40:20.052,-0.32,-0.135
2021-08-19 00:40:20.056,-0.295,-0.12
2021-08-19 00:40:20.060,-0.275,-0.155
2021-08-19 00:40:20.064,-0.225,-0.1
2021-08-19 00:40:20.068,-0.205,-0.06
2021-08-19 00:40:20.072,-0.21,-0.03
2021-08-19 00:40:20.076,-0.19,-0.05
2021-08-19 00:40:20.080,-0.19,-0.025
2021-08-19 00:40:20.084,-0.15,-0.005
2021-08-19 00:40:20.088,-0.095,0.03
2021-08-19 00:40:20.092,-0.085,0.005
2021-08-19 00:40:20.096,-0.06,0.005
2021-08-19 00:40:20.100,-0.055,-0.075
2021-08-19 00:40:20.104,-0.07,-0.105
2021-08-19 00:40:20.108,-0.065,-0.095
2021-08-19 00:40:20.112,-0.035,-0.045
2021-08-19 00:40:20.116,-0.09,-0.04
2021-08-19 00:40:20.120,-0.145,-0.07
2021-08-19 00:40:20.124,-0.21,-0.105
2021-08-19 00:40:20.128,-0.26,-0.145
2021-08-19 00:40:20.132,-0.26,-0.18
2021-08-19 00:40:20.136,-0.285,-0.18
2021-08-19 00:40:20.140,-0.31,-0.15
2021-08-19 00:40:20.144,-0.39,-0.17
2021-08-19 00:40:20.148,-0.4,-0.18
2021-08-19 00:40:20.152,-0.38,-0.175
2021-08-19 00:40:20.156,-0.375,-0.125
2021-08-19 00:40:20.160,-0.375,-0.145
2021-08-19 00:40:20.164,-0.4,-0.22
2021-08-19 00:40:20.168,-0.385,-0.3
2021-08-19 00:40:20.172,-0.385,-0.26
2021-08-19 00:40:20.176,-0.365,-0.255
2021-08-19 00:40:20.180,-0.38,-0.235
2021-08-19 00:40:20.184,-0.39,-0.215
2021-08-19 00:40:20.188,-0.36,-0.21
2021-08-19 00:40:20.192,-0.39,-0.205
2021-08-19 00:40:20.196,-0.415,-0.24
2021-08-19 00:40:20.200,-0.445,-0.215
2021-08-19 00:40:20.204,-0.475,-0.205
2021-08-19 00:40:20.208,-0.455,-0.205
2021-08-19 00:40:20.212,-0.45,-0.17
2021-08-19 00:40:20.216,-0.51,-0.16
2021-08-19 00:40:20.220,-0.625,-0.185
2021-08-19 00:40:20.224,-0.675,-0.2
2021-08-19 00:40:20.228,-0.66,-0.245
2021-08-19 00:40:20.232,-0.665,-0.33
2021-08-19 00:40:20.236,-0.545,-0.365
2021-08-19 00:40:20.240,-0.2,-0.42
2021-08-19 00:40:20.244,0.04,-0.525
2021-08-19 00:40:20.248,0.065,-0.51
2021-08-19 00:40:20.252,0.16,-0.48
2021-08-19 00:40:20.256,0.43,-0.565
2021-08-19 00:40:20.260,0.4,-0.49
2021-08-19 00:40:20.264,0.005,-0.05
2021-08-19 00:40:20.268,-0.6,0.51
2021-08-19 00:40:20.272,-1.295,0.84
2021-08-19 00:40:20.276,-1.9,0.26
2021-08-19 00:40:20.312,-1.685,-1.38
2021-08-19 00:40:20.316,-1.265,-1.07
2021-08-19 00:40:20.320,-0.935,-0.95
2021-08-19 00:40:20.324,-0.73,-0.705
2021-08-19 00:40:20.328,-0.675,-0.455
2021-08-19 00:40:20.332,-0.63,-0.295
2021-08-19 00:40:20.336,-0.54,-0.245
2021-08-19 00:40:20.340,-0.46,-0.21
2021-08-19 00:40:20.344,-0.47,-0.21
2021-08-19 00:40:20.348,-0.47,-0.185
2021-08-19 00:40:20.352,-0.465,-0.205
2021-08-19 00:40:20.356,-0.525,-0.14
2021-08-19 00:40:20.360,-0.52,-0.14
2021-08-19 00:40:20.364,-0.515,-0.115
2021-08-19 00:40:20.368,-0.48,-0.1
2021-08-19 00:40:20.372,-0.41,-0.14
2021-08-19 00:40:20.376,-0.355,-0.175
2021-08-19 00:40:20.380,-0.355,-0.195
2021-08-19 00:40:20.384,-0.375,-0.195
2021-08-19 00:40:20.388,-0.395,-0.21
2021-08-19 00:40:20.392,-0.435,-0.17
2021-08-19 00:40:20.396,-0.44,-0.155
2021-08-19 00:40:20.400,-0.405,-0.195
2021-08-19 00:40:20.404,-0.365,-0.155
2021-08-19 00:40:20.408,-0.325,-0.12
2021-08-19 00:40:20.412,-0.285,-0.11
2021-08-19 00:40:20.416,-0.32,-0.14
2021-08-19 00:40:20.420,-0.335,-0.155
2021-08-19 00:40:20.424,-0.345,-0.12
2021-08-19 00:40:20.428,-0.315,-0.085
2021-08-19 00:40:20.432,-0.295,-0.075
2021-08-19 00:40:20.436,-0.26,-0.12
2021-08-19 00:40:20.440,-0.22,-0.1
2021-08-19 00:40:20.444,-0.22,-0.12
2021-08-19 00:40:20.448,-0.17,-0.105
2021-08-19 00:40:20.452,-0.12,-0.13
2021-08-19 00:40:20.456,-0.115,-0.105
2021-08-19 00:40:20.460,-0.105,-0.065
2021-08-19 00:40:20.464,-0.085,-0.065
2021-08-19 00:40:20.468,-0.05,-0.005
2021-08-19 00:40:20.472,-0.055,0.015
2021-08-19 00:40:20.476,-0.035,0.07
2021-08-19 00:40:20.480,0.025,0.065
2021-08-19 00:40:20.484,0.08,0.08
2021-08-19 00:40:20.488,0.11,0.05
2021-08-19 00:40:20.492,0.18,0.075
2021-08-19 00:40:20.496,0.205,0.125
2021-08-19 00:40:20.500,0.255,0.225
2021-08-19 00:40:20.504,0.275,0.275
2021-08-19 00:40:20.508,0.37,0.255
2021-08-19 00:40:20.512,0.465,0.22
2021-08-19 00:40:20.516,0.5,0.23
2021-08-19 00:40:20.520,0.52,0.3
2021-08-19 00:40:20.524,0.54,0.39
2021-08-19 00:40:20.528,0.585,0.435
2021-08-19 00:40:20.532,0.595,0.415
2021-08-19 00:40:20.536,0.565,0.44
2021-08-19 00:40:20.540,0.585,0.53
2021-08-19 00:40:20.544,0.565,0.57
2021-08-19 00:40:20.548,0.565,0.565
2021-08-19 00:40:20.552,0.555,0.595
2021-08-19 00:40:20.556,0.6,0.595
2021-08-19 00:40:20.560,0.62,0.585
2021-08-19 00:40:20.564,0.66,0.595
2021-08-19 00:40:20.568,0.615,0.635
2021-08-19 00:40:20.572,0.55,0.68
2021-08-19 00:40:20.576,0.5,0.66
2021-08-19 00:40:20.580,0.45,0.69
2021-08-19 00:40:20.584,0.47,0.675
2021-08-19 00:40:20.588,0.435,0.675
2021-08-19 00:40:20.592,0.415,0.695
2021-08-19 00:40:20.596,0.325,0.655
2021-08-19 00:40:20.600,0.305,0.665
2021-08-19 00:40:20.604,0.26,0.575
2021-08-19 00:40:20.608,0.205,0.52
2021-08-19 00:40:20.612,0.195,0.505
2021-08-19 00:40:20.616,0.19,0.525
2021-08-19 00:40:20.620,0.205,0.515
2021-08-19 00:40:20.624,0.195,0.52
2021-08-19 00:40:20.628,0.1,0.52
2021-08-19 00:40:20.632,0.015,0.545
2021-08-19 00:40:20.636,-0.005,0.53
2021-08-19 00:40:20.640,-0.045,0.565
2021-08-19 00:40:20.644,0.0,0.555
2021-08-19 00:40:20.648,-0.02,0.505
2021-08-19 00:40:20.652,-0.095,0.505
2021-08-19 00:40:20.656,-0.14,0.465
2021-08-19 00:40:20.660,-0.14,0.43
2021-08-19 00:40:20.664,-0.12,0.4
2021-08-19 00:40:20.668,-0.095,0.38
2021-08-19 00:40:20.672,-0.135,0.32
2021-08-19 00:40:20.676,-0.17,0.32
2021-08-19 00:40:20.680,-0.16,0.39
2021-08-19 00:40:20.684,-0.155,0.36
2021-08-19 00:40:20.688,-0.2,0.32
2021-08-19 00:40:20.692,-0.18,0.305
2021-08-19 00:40:20.696,-0.245,0.26
2021-08-19 00:40:20.700,-0.265,0.185
2021-08-19 00:40:20.704,-0.235,0.15
2021-08-19 00:40:20.708,-0.19,0.11
2021-08-19 00:40:20.712,-0.215,0.12
2021-08-19 00:40:20.716,-0.21,0.15
2021-08-19 00:40:20.720,-0.28,0.145
2021-08-19 00:40:20.724,-0.28,0.115
2021-08-19 00:40:20.728,-0.275,0.095
2021-08-19 00:40:20.732,-0.265,0.115
2021-08-19 00:40:20.736,-0.215,0.1
2021-08-19 00:40:20.740,-0.25,0.1
2021-08-19 00:40:20.744,-0.29,0.055
2021-08-19 00:40:20.748,-0.32,0.045
2021-08-19 00:40:20.752,-0.31,-0.015
2021-08-19 00:40:20.756,-0.315,0.005
2021-08-19 00:40:20.760,-0.32,0.0
2021-08-19 00:40:20.764,-0.3,0.01
2021-08-19 00:40:20.768,-0.3,0.03
2021-08-19 00:40:20.772,-0.31,0.05
2021-08-19 00:40:20.776,-0.3,0.055
2021-08-19 00:40:20.780,-0.32,-0.03
2021-08-19 00:40:20.784,-0.34,-0.1
2021-08-19 00:40:20.788,-0.395,-0.13
2021-08-19 00:40:20.792,-0.48,-0.115
2021-08-19 00:40:20.796,-0.545,-0.065
2021-08-19 00:40:20.800,-0.475,-0.105
2021-08-19 00:40:20.804,-0.345,-0.11
2021-08-19 00:40:20.808,-0.26,-0.275
2021-08-19 00:40:20.812,-0.175,-0.385
2021-08-19 00:40:20.816,-0.135,-0.485
2021-08-19 00:40:20.820,-0.33,-0.52
2021-08-19 00:40:20.824,-0.685,-0.43
2021-08-19 00:40:20.828,-0.745,-0.425
2021-08-19 00:40:20.832,-0.855,-0.34
2021-08-19 00:40:20.836,-1.29,-0.035
2021-08-19 00:40:20.840,-1.645,0.58
2021-08-19 00:40:20.844,-1.96,0.905
2021-08-19 00:40:20.884,-1.84,-1.05
2021-08-19 00:40:20.888,-1.395,-0.97
2021-08-19 00:40:20.892,-0.965,-0.85
2021-08-19 00:40:20.896,-0.71,-0.64
2021-08-19 00:40:20.900,-0.57,-0.405
2021-08-19 00:40:20.904,-0.565,-0.2
2021-08-19 00:40:20.908,-0.55,-0.17
2021-08-19 00:40:20.912,-0.495,-0.175
2021-08-19 00:40:20.916,-0.47,-0.17
2021-08-19 00:40:20.920,-0.425,-0.16
2021-08-19 00:40:20.924,-0.39,-0.17
2021-08-19 00:40:20.928,-0.395,-0.16
2021-08-19 00:40:20.932,-0.43,-0.195
2021-08-19 00:40:20.936,-0.435,-0.185
2021-08-19 00:40:20.940,-0.42,-0.24
2021-08-19 00:40:20.944,-0.4,-0.24
2021-08-19 00:40:20.948,-0.445,-0.2
2021-08-19 00:40:20.952,-0.485,-0.18
2021-08-19 00:40:20.956,-0.5,-0.205
2021-08-19 00:40:20.960,-0.44,-0.27
2021-08-19 00:40:20.964,-0.455,-0.3
2021-08-19 00:40:20.968,-0.42,-0.315
2021-08-19 00:40:20.972,-0.425,-0.275
2021-08-19 00:40:20.976,-0.46,-0.275
2021-08-19 00:40:20.980,-0.485,-0.265
2021-08-19 00:40:20.984,-0.45,-0.235
2021-08-19 00:40:20.988,-0.475,-0.22
2021-08-19 00:40:20.992,-0.435,-0.215
2021-08-19 00:40:20.996,-0.41,-0.175
2021-08-19 00:40:21.000,-0.42,-0.12
2021-08-19 00:40:21.004,-0.425,-0.16
2021-08-19 00:40:21.008,-0.355,-0.18
2021-08-19 00:40:21.012,-0.285,-0.145
2021-08-19 00:40:21.016,-0.26,-0.135
2021-08-19 00:40:21.020,-0.245,-0.13
2021-08-19 00:40:21.024,-0.225,-0.035
2021-08-19 00:40:21.028,-0.13,-0.015
2021-08-19 00:40:21.032,-0.055,0.055
2021-08-19 00:40:21.036,0.0,0.14
2021-08-19 00:40:21.040,0.02,0.195
2021-08-19 00:40:21.044,0.05,0.235
2021-08-19 00:40:21.048,0.13,0.215
2021-08-19 00:40:21.052,0.155,0.23
2021-08-19 00:40:21.056,0.21,0.26
2021-08-19 00:40:21.060,0.275,0.31
2021-08-19 00:40:21.064,0.31,0.33
2021-08-19 00:40:21.068,0.325,0.37
2021-08-19 00:40:21.072,0.365,0.45
2021-08-19 00:40:21.076,0.4,0.465
2021-08-19 00:40:21.080,0.42,0.48
2021-08-19 00:40:21.084,0.465,0.55
2021-08-19 00:40:21.088,0.535,0.575
2021-08-19 00:40:21.092,0.585,0.555
2021-08-19 00:40:21.096,0.53,0.54
2021-08-19 00:40:21.100,0.5,0.615
2021-08-19 00:40:21.104,0.485,0.645
2021-08-19 00:40:21.108,0.47,0.675
2021-08-19 00:40:21.112,0.49,0.695
2021-08-19 00:40:21.116,0.47,0.765
2021-08-19 00:40:21.120,0.465,0.775
2021-08-19 00:40:21.124,0.46,0.835
2021-08-19 00:40:21.128,0.47,0.815
2021-08-19 00:40:21.132,0.44,0.8
2021-08-19 00:40:21.136,0.415,0.82
2021-08-19 00:40:21.140,0.34,0.78
2021-08-19 00:40:21.144,0.275,0.79
2021-08-19 00:40:21.148,0.25,0.81
2021-08-19 00:40:21.152,0.225,0.785
2021-08-19 00:40:21.156,0.18,0.735
2021-08-19 00:40:21.160,0.125,0.705
2021-08-19 00:40:21.164,0.02,0.715
2021-08-19 00:40:21.168,-0.015,0.695
2021-08-19 00:40:21.172,-0.05,0.68
2021-08-19 00:40:21.176,-0.12,0.64
2021-08-19 00:40:21.180,-0.18,0.565
2021-08-19 00:40:21.184,-0.21,0.515
2021-08-19 00:40:21.188,-0.2,0.455
2021-08-19 00:40:21.192,-0.205,0.38
2021-08-19 00:40:21.196,-0.205,0.305
2021-08-19 00:40:21.200,-0.24,0.295
2021-08-19 00:40:21.204,-0.26,0.28
2021-08-19 00:40:21.208,-0.27,0.245
2021-08-19 00:40:21.212,-0.3,0.185
2021-08-19 00:40:21.216,-0.33,0.19
2021-08-19 00:40:21.220,-0.32,0.16
2021-08-19 00:40:21.224,-0.345,0.16
2021-08-19 00:40:21.228,-0.385,0.135
2021-08-19 00:40:21.232,-0.54,0.12
2021-08-19 00:40:21.236,-0.605,0.055
2021-08-19 00:40:21.240,-0.57,-0.02
2021-08-19 00:40:21.244,-0.55,-0.11
2021-08-19 00:40:21.248,-0.455,-0.27
2021-08-19 00:40:21.252,-0.26,-0.45
2021-08-19 00:40:21.256,-0.265,-0.585
2021-08-19 00:40:21.260,-0.48,-0.58
2021-08-19 00:40:21.264,-0.66,-0.55
2021-08-19 00:40:21.268,-0.725,-0.55
2021-08-19 00:40:21.272,-1.16,-0.255
2021-08-19 00:40:21.276,-1.615,0.3
2021-08-19 00:40:21.280,-1.9,0.82
2021-08-19 00:40:21.320,-2.0,-1.29
2021-08-19 00:40:21.324,-1.565,-1.17
2021-08-19 00:40:21.328,-1.135,-1.03
2021-08-19 00:40:21.332,-0.86,-0.77
2021-08-19 00:40:21.336,-0.7,-0.495
2021-08-19 00:40:21.340,-0.615,-0.28
2021-08-19 00:40:21.344,-0.615,-0.235
2021-08-19 00:40:21.348,-0.585,-0.185
2021-08-19 00:40:21.352,-0.56,-0.175
2021-08-19 00:40:21.356,-0.53,-0.205
2021-08-19 00:40:21.360,-0.505,-0.235
2021-08-19 00:40:21.364,-0.47,-0.285
2021-08-19 00:40:21.368,-0.47,-0.265
2021-08-19 00:40:21.372,-0.515,-0.25
2021-08-19 00:40:21.376,-0.55,-0.275
2021-08-19 00:40:21.380,-0.58,-0.25
2021-08-19 00:40:21.384,-0.565,-0.195
2021-08-19 00:40:21.388,-0.58,-0.235
2021-08-19 00:40:21.392,-0.575,-0.255
2021-08-19 00:40:21.396,-0.58,-0.28
2021-08-19 00:40:21.400,-0.59,-0.305
2021-08-19 00:40:21.404,-0.555,-0.27
2021-08-19 00:40:21.408,-0.54,-0.275
2021-08-19 00:40:21.412,-0.58,-0.305
2021-08-19 00:40:21.416,-0.615,-0.315
2021-08-19 00:40:21.420,-0.63,-0.32
2021-08-19 00:40:21.424,-0.6,-0.27
2021-08-19 00:40:21.428,-0.59,-0.26
2021-08-19 00:40:21.432,-0.58,-0.27
2021-08-19 00:40:21.436,-0.565,-0.3
2021-08-19 00:40:21.440,-0.55,-0.275
2021-08-19 00:40:21.444,-0.52,-0.295
2021-08-19 00:40:21.448,-0.445,-0.235
2021-08-19 00:40:21.452,-0.41,-0.205
2021-08-19 00:40:21.456,-0.405,-0.15
2021-08-19 00:40:21.460,-0.37,-0.1
2021-08-19 00:40:21.464,-0.315,-0.025
2021-08-19 00:40:21.468,-0.18,-0.015
2021-08-19 00:40:21.472,-0.12,-0.03
2021-08-19 00:40:21.476,-0.065,-0.02
2021-08-19 00:40:21.480,-0.07,0.035
2021-08-19 00:40:21.484,-0.06,0.115
2021-08-19 00:40:21.488,-0.025,0.165
2021-08-19 00:40:21.492,0.05,0.14
2021-08-19 00:40:21.496,0.09,0.145
2021-08-19 00:40:21.500,0.135,0.165
2021-08-19 00:40:21.504,0.155,0.21
2021-08-19 00:40:21.508,0.185,0.22
2021-08-19 00:40:21.512,0.275,0.225
2021-08-19 00:40:21.516,0.305,0.195
2021-08-19 00:40:21.520,0.33,0.225
2021-08-19 00:40:21.524,0.34,0.28
2021-08-19 00:40:21.528,0.355,0.34
2021-08-19 00:40:21.532,0.365,0.38
2021-08-19 00:40:21.536,0.4,0.38
2021-08-19 00:40:21.540,0.37,0.425
2021-08-19 00:40:21.544,0.4,0.415
2021-08-19 00:40:21.548,0.375,0.455
2021-08-19 00:40:21.552,0.345,0.5
2021-08-19 00:40:21.556,0.29,0.525
2021-08-19 00:40:21.560,0.25,0.555
2021-08-19 00:40:21.564,0.24,0.575
2021-08-19 00:40:21.568,0.2,0.625
2021-08-19 00:40:21.572,0.14,0.6
2021-08-19 00:40:21.576,0.06,0.61
2021-08-19 00:40:21.580,-0.01,0.6
2021-08-19 00:40:21.584,-0.04,0.56
2021-08-19 00:40:21.588,-0.075,0.51
2021-08-19 00:40:21.592,-0.075,0.44
2021-08-19 00:40:21.596,-0.1,0.43
2021-08-19 00:40:21.600,-0.15,0.385
2021-08-19 00:40:21.604,-0.21,0.425
2021-08-19 00:40:21.608,-0.325,0.365
2021-08-19 00:40:21.612,-0.425,0.325
2021-08-19 00:40:21.616,-0.5,0.305
2021-08-19 00:40:21.620,-0.535,0.165
2021-08-19 00:40:21.624,-0.515,0.04
2021-08-19 00:40:21.628,-0.455,-0.135
2021-08-19 00:40:21.632,-0.61,-0.27
2021-08-19 00:40:21.636,-1.105,-0.285
2021-08-19 00:40:21.640,-1.59,-0.275
2021-08-19 00:40:21.644,-1.845,-0.34
2021-08-19 00:40:21.700,-1.655,-1.115
2021-08-19 00:40:21.704,-1.2,-0.99
2021-08-19 00:40:21.708,-0.89,-0.84
2021-08-19 00:40:21.712,-0.735,-0.59
2021-08-19 00:40:21.716,-0.65,-0.3
2021-08-19 00:40:21.720,-0.59,-0.24
2021-08-19 00:40:21.724,-0.525,-0.185
2021-08-19 00:40:21.728,-0.48,-0.165
2021-08-19 00:40:21.732,-0.49,-0.165
2021-08-19 00:40:21.736,-0.49,-0.195
2021-08-19 00:40:21.740,-0.475,-0.225
2021-08-19 00:40:21.744,-0.455,-0.295
2021-08-19 00:40:21.748,-0.435,-0.295
2021-08-19 00:40:21.752,-0.455,-0.295
2021-08-19 00:40:21.756,-0.46,-0.29
2021-08-19 00:40:21.760,-0.48,-0.28
2021-08-19 00:40:21.764,-0.5,-0.305
2021-08-19 00:40:21.768,-0.495,-0.305
2021-08-19 00:40:21.772,-0.455,-0.355
2021-08-19 00:40:21.776,-0.475,-0.34
2021-08-19 00:40:21.780,-0.475,-0.34
2021-08-19 00:40:21.784,-0.465,-0.34
2021-08-19 00:40:21.788,-0.47,-0.34
2021-08-19 00:40:21.792,-0.445,-0.325
2021-08-19 00:40:21.796,-0.44,-0.33
2021-08-19 00:40:21.800,-0.4,-0.37
2021-08-19 00:40:21.804,-0.405,-0.355
2021-08-19 00:40:21.808,-0.4,-0.33
2021-08-19 00:40:21.812,-0.375,-0.285
2021-08-19 00:40:21.816,-0.345,-0.28
2021-08-19 00:40:21.820,-0.27,-0.24
2021-08-19 00:40:21.824,-0.27,-0.24
2021-08-19 00:40:21.828,-0.27,-0.24
2021-08-19 00:40:21.832,-0.24,-0.215
2021-08-19 00:40:21.836,-0.185,-0.185
2021-08-19 00:40:21.840,-0.065,-0.09
2021-08-19 00:40:21.844,-0.02,-0.075
2021-08-19 00:40:21.848,0.065,-0.06
2021-08-19 00:40:21.852,0.14,-0.02
2021-08-19 00:40:21.856,0.14,0.05
2021-08-19 00:40:21.860,0.18,0.1
2021-08-19 00:40:21.864,0.225,0.1
2021-08-19 00:40:21.868,0.255,0.06
2021-08-19 00:40:21.872,0.28,0.07
2021-08-19 00:40:21.876,0.315,0.075
2021-08-19 00:40:21.880,0.34,0.07
2021-08-19 00:40:21.884,0.415,0.13
2021-08-19 00:40:21.888,0.49,0.175
2021-08-19 00:40:21.892,0.52,0.24
2021-08-19 00:40:21.896,0.5,0.315
2021-08-19 00:40:21.900,0.5,0.38
2021-08-19 00:40:21.904,0.465,0.405
2021-08-19 00:40:21.908,0.44,0.385
2021-08-19 00:40:21.912,0.445,0.38
2021-08-19 00:40:21.916,0.44,0.365
2021-08-19 00:40:21.920,0.435,0.375
2021-08-19 00:40:21.924,0.365,0.385
2021-08-19 00:40:21.928,0.305,0.41
2021-08-19 00:40:21.932,0.27,0.405
2021-08-19 00:40:21.936,0.24,0.385
2021-08-19 00:40:21.940,0.175,0.45
2021-08-19 00:40:21.944,0.1,0.43
2021-08-19 00:40:21.948,0.045,0.42
2021-08-19 00:40:21.952,0.01,0.41
2021-08-19 00:40:21.956,-0.03,0.365
2021-08-19 00:40:21.960,-0.06,0.38
2021-08-19 00:40:21.964,-0.1,0.32
2021-08-19 00:40:21.968,-0.1,0.295
2021-08-19 00:40:21.972,-0.115,0.3
2021-08-19 00:40:21.976,-0.165,0.295
2021-08-19 00:40:21.980,-0.23,0.28
2021-08-19 00:40:21.984,-0.325,0.255
2021-08-19 00:40:21.988,-0.38,0.195
2021-08-19 00:40:21.992,-0.38,0.15
2021-08-19 00:40:21.996,-0.365,0.115
2021-08-19 00:40:22.000,-0.325,0.085
2021-08-19 00:40:22.004,-0.285,0.055
2021-08-19 00:40:22.008,-0.295,0.04
2021-08-19 00:40:22.012,-0.355,0.03
2021-08-19 00:40:22.016,-0.4,0.0
2021-08-19 00:40:22.020,-0.425,-0.005
2021-08-19 00:40:22.024,-0.425,-0.035
2021-08-19 00:40:22.028,-0.475,-0.055
2021-08-19 00:40:22.032,-0.57,-0.03
2021-08-19 00:40:22.036,-0.625,-0.075
2021-08-19 00:40:22.040,-0.68,-0.155
2021-08-19 00:40:22.044,-0.67,-0.28
2021-08-19 00:40:22.048,-0.6,-0.4
2021-08-19 00:40:22.052,-0.42,-0.51
2021-08-19 00:40:22.056,-0.43,-0.605
2021-08-19 00:40:22.060,-0.87,-0.48
2021-08-19 00:40:22.064,-1.24,-0.455
2021-08-19 00:40:22.068,-1.395,-0.56
2021-08-19 00:40:22.072,-1.645,-0.48
2021-08-19 00:40:22.076,-1.885,-0.1
2021-08-19 00:40:22.124,-1.74,-1.315
2021-08-19 00:40:22.128,-1.25,-1.105
2021-08-19 00:40:22.132,-0.925,-0.84
2021-08-19 00:40:22.136,-0.72,-0.56
2021-08-19 00:40:22.140,-0.655,-0.31
2021-08-19 00:40:22.144,-0.59,-0.255
2021-08-19 00:40:22.148,-0.56,-0.265
2021-08-19 00:40:22.152,-0.55,-0.27
2021-08-19 00:40:22.156,-0.495,-0.3
2021-08-19 00:40:22.160,-0.45,-0.27
2021-08-19 00:40:22.164,-0.46,-0.25
2021-08-19 00:40:22.168,-0.47,-0.3
2021-08-19 00:40:22.172,-0.495,-0.32
2021-08-19 00:40:22.176,-0.495,-0.36
2021-08-19 00:40:22.180,-0.495,-0.33
2021-08-19 00:40:22.184,-0.465,-0.35
2021-08-19 00:40:22.188,-0.47,-0.37
2021-08-19 00:40:22.192,-0.49,-0.33
2021-08-19 00:40:22.196,-0.53,-0.325
2021-08-19 00:40:22.200,-0.52,-0.36
2021-08-19 00:40:22.204,-0.485,-0.32
2021-08-19 00:40:22.208,-0.5,-0.31
2021-08-19 00:40:22.212,-0.57,-0.29
2021-08-19 00:40:22.216,-0.585,-0.36
2021-08-19 00:40:22.220,-0.575,-0.4
2021-08-19 00:40:22.224,-0.52,-0.37
2021-08-19 00:40:22.228,-0.48,-0.385
2021-08-19 00:40:22.232,-0.445,-0.355
2021-08-19 00:40:22.236,-0.43,-0.33
2021-08-19 00:40:22.240,-0.425,-0.36
2021-08-19 00:40:22.244,-0.44,-0.365
2021-08-19 00:40:22.248,-0.36,-0.315
2021-08-19 00:40:22.252,-0.31,-0.285
2021-08-19 00:40:22.256,-0.19,-0.175
2021-08-19 00:40:22.260,-0.155,-0.135
2021-08-19 00:40:22.264,-0.08,-0.105
2021-08-19 00:40:22.268,0.0,-0.11
2021-08-19 00:40:22.272,0.03,-0.11
2021-08-19 00:40:22.276,0.08,-0.115
2021-08-19 00:40:22.280,0.14,-0.055
2021-08-19 00:40:22.284,0.16,0.055
2021-08-19 00:40:22.288,0.155,0.04
2021-08-19 00:40:22.292,0.215,0.065
2021-08-19 00:40:22.296,0.26,0.03
2021-08-19 00:40:22.300,0.325,0.015
2021-08-19 00:40:22.304,0.365,0.05
2021-08-19 00:40:22.308,0.375,0.09
2021-08-19 00:40:22.312,0.395,0.155
2021-08-19 00:40:22.316,0.425,0.2
2021-08-19 00:40:22.320,0.47,0.24
2021-08-19 00:40:22.324,0.5,0.27
2021-08-19 00:40:22.328,0.53,0.3
2021-08-19 00:40:22.332,0.49,0.315
2021-08-19 00:40:22.336,0.465,0.355
2021-08-19 00:40:22.340,0.43,0.395
2021-08-19 00:40:22.344,0.45,0.46
2021-08-19 00:40:22.348,0.465,0.515
2021-08-19 00:40:22.352,0.44,0.525
2021-08-19 00:40:22.356,0.38,0.545
2021-08-19 00:40:22.360,0.34,0.57
2021-08-19 00:40:22.364,0.26,0.565
2021-08-19 00:40:22.368,0.265,0.595
2021-08-19 00:40:22.372,0.205,0.615
2021-08-19 00:40:22.376,0.14,0.575
2021-08-19 00:40:22.380,0.095,0.575
2021-08-19 00:40:22.384,0.03,0.59
2021-08-19 00:40:22.388,-0.005,0.53
2021-08-19 00:40:22.392,-0.025,0.48
2021-08-19 00:40:22.396,-0.075,0.48
2021-08-19 00:40:22.400,-0.175,0.455
2021-08-19 00:40:22.404,-0.27,0.4
2021-08-19 00:40:22.408,-0.32,0.38
2021-08-19 00:40:22.412,-0.29,0.36
2021-08-19 00:40:22.416,-0.285,0.315
2021-08-19 00:40:22.420,-0.29,0.265
2021-08-19 00:40:22.424,-0.295,0.285
2021-08-19 00:40:22.428,-0.33,0.235
2021-08-19 00:40:22.432,-0.4,0.23
2021-08-19 00:40:22.436,-0.445,0.22
2021-08-19 00:40:22.440,-0.445,0.19
2021-08-19 00:40:22.444,-0.485,0.115
2021-08-19 00:40:22.448,-0.54,0.12
2021-08-19 00:40:22.452,-0.525,0.075
2021-08-19 00:40:22.456,-0.53,-0.025
2021-08-19 00:40:22.460,-0.52,-0.16
2021-08-19 00:40:22.464,-0.515,-0.32
2021-08-19 00:40:22.468,-0.61,-0.475
2021-08-19 00:40:22.472,-1.065,-0.555
2021-08-19 00:40:22.476,-1.49,-0.59
2021-08-19 00:40:22.480,-1.66,-0.655
2021-08-19 00:40:22.484,-1.855,-0.525
2021-08-19 00:40:22.536,-1.97,-1.18
2021-08-19 00:40:22.540,-1.545,-1.045
2021-08-19 00:40:22.544,-1.105,-0.885
2021-08-19 00:40:22.548,-0.885,-0.66
2021-08-19 00:40:22.552,-0.745,-0.435
2021-08-19 00:40:22.556,-0.615,-0.31
2021-08-19 00:40:22.560,-0.55,-0.255
2021-08-19 00:40:22.564,-0.53,-0.235
2021-08-19 00:40:22.568,-0.48,-0.23
2021-08-19 00:40:22.572,-0.505,-0.23
2021-08-19 00:40:22.576,-0.485,-0.27
2021-08-19 00:40:22.580,-0.49,-0.26
2021-08-19 00:40:22.584,-0.49,-0.26
2021-08-19 00:40:22.588,-0.495,-0.265
2021-08-19 00:40:22.592,-0.47,-0.275
2021-08-19 00:40:22.596,-0.415,-0.29
2021-08-19 00:40:22.600,-0.435,-0.3
2021-08-19 00:40:22.604,-0.49,-0.315
2021-08-19 00:40:22.608,-0.525,-0.35
2021-08-19 00:40:22.612,-0.52,-0.33
2021-08-19 00:40:22.616,-0.505,-0.355
2021-08-19 00:40:22.620,-0.505,-0.335
2021-08-19 00:40:22.624,-0.51,-0.3
2021-08-19 00:40:22.628,-0.475,-0.29
2021-08-19 00:40:22.632,-0.48,-0.285
2021-08-19 00:40:22.636,-0.48,-0.32
2021-08-19 00:40:22.640,-0.5,-0.315
2021-08-19 00:40:22.644,-0.485,-0.275
2021-08-19 00:40:22.648,-0.43,-0.265
2021-08-19 00:40:22.652,-0.385,-0.32
2021-08-19 00:40:22.656,-0.38,-0.305
2021-08-19 00:40:22.660,-0.32,-0.28
2021-08-19 00:40:22.664,-0.235,-0.29
2021-08-19 00:40:22.668,-0.165,-0.185
2021-08-19 00:40:22.672,-0.08,-0.09
2021-08-19 00:40:22.676,-0.055,-0.04
2021-08-19 00:40:22.680,-0.055,-0.01
2021-08-19 00:40:22.684,0.02,-0.005
2021-08-19 00:40:22.688,0.13,0.02
2021-08-19 00:40:22.692,0.2,0.03
2021-08-19 00:40:22.696,0.21,0.055
2021-08-19 00:40:22.700,0.205,0.06
2021-08-19 00:40:22.704,0.18,0.07
2021-08-19 00:40:22.708,0.225,0.155
2021-08-19 00:40:22.712,0.365,0.165
2021-08-19 00:40:22.716,0.47,0.155
2021-08-19 00:40:22.720,0.475,0.195
2021-08-19 00:40:22.724,0.415,0.235
2021-08-19 00:40:22.728,0.425,0.25
2021-08-19 00:40:22.732,0.455,0.325
2021-08-19 00:40:22.736,0.465,0.345
2021-08-19 00:40:22.740,0.495,0.37
2021-08-19 00:40:22.744,0.51,0.43
2021-08-19 00:40:22.748,0.445,0.475
2021-08-19 00:40:22.752,0.42,0.485
2021-08-19 00:40:22.756,0.39,0.495
2021-08-19 00:40:22.760,0.365,0.51
2021-08-19 00:40:22.764,0.355,0.51
2021-08-19 00:40:22.768,0.315,0.56
2021-08-19 00:40:22.772,0.26,0.575
2021-08-19 00:40:22.776,0.215,0.545
2021-08-19 00:40:22.780,0.15,0.515
2021-08-19 00:40:22.784,0.12,0.48
2021-08-19 00:40:22.788,0.085,0.495
2021-08-19 00:40:22.792,0.055,0.47
2021-08-19 00:40:22.796,-0.01,0.445
2021-08-19 00:40:22.800,-0.08,0.42
2021-08-19 00:40:22.804,-0.165,0.415
2021-08-19 00:40:22.808,-0.215,0.385
2021-08-19 00:40:22.812,-0.215,0.365
2021-08-19 00:40:22.816,-0.265,0.345
2021-08-19 00:40:22.820,-0.295,0.33
2021-08-19 00:40:22.824,-0.34,0.29
2021-08-19 00:40:22.828,-0.32,0.205
2021-08-19 00:40:22.832,-0.31,0.195
2021-08-19 00:40:22.836,-0.355,0.14
2021-08-19 00:40:22.840,-0.415,0.16
2021-08-19 00:40:22.844,-0.405,0.135
2021-08-19 00:40:22.848,-0.375,0.105
2021-08-19 00:40:22.852,-0.375,0.065
2021-08-19 00:40:22.856,-0.37,0.045
2021-08-19 00:40:22.860,-0.43,0.08
2021-08-19 00:40:22.864,-0.555,0.06
2021-08-19 00:40:22.868,-0.64,0.02
2021-08-19 00:40:22.872,-0.64,-0.08
2021-08-19 00:40:22.876,-0.625,-0.22
2021-08-19 00:40:22.880,-0.585,-0.395
2021-08-19 00:40:22.884,-0.57,-0.52
2021-08-19 00:40:22.888,-0.92,-0.575
2021-08-19 00:40:22.892,-1.365,-0.595
2021-08-19 00:40:22.896,-1.58,-0.74
2021-08-19 00:40:22.900,-1.715,-0.695
2021-08-19 00:40:22.904,-2.0,-0.385
2021-08-19 00:40:22.956,-1.665,-1.1
2021-08-19 00:40:22.960,-1.18,-0.995
2021-08-19 00:40:22.964,-0.89,-0.89
2021-08-19 00:40:22.968,-0.75,-0.58
2021-08-19 00:40:22.972,-0.68,-0.34
2021-08-19 00:40:22.976,-0.605,-0.215
2021-08-19 00:40:22.980,-0.575,-0.215
2021-08-19 00:40:22.984,-0.545,-0.24
2021-08-19 00:40:22.988,-0.53,-0.275
2021-08-19 00:40:22.992,-0.46,-0.275
2021-08-19 00:40:22.996,-0.455,-0.205
2021-08-19 00:40:23.000,-0.445,-0.245
2021-08-19 00:40:23.004,-0.435,-0.315
2021-08-19 00:40:23.008,-0.465,-0.335
2021-08-19 00:40:23.012,-0.46,-0.355
2021-08-19 00:40:23.016,-0.43,-0.32
2021-08-19 00:40:23.020,-0.445,-0.335
2021-08-19 00:40:23.024,-0.43,-0.31
2021-08-19 00:40:23.028,-0.435,-0.335
2021-08-19 00:40:23.032,-0.49,-0.315
2021-08-19 00:40:23.036,-0.51,-0.295
2021-08-19 00:40:23.040,-0.515,-0.345
2021-08-19 00:40:23.044,-0.49,-0.37
2021-08-19 00:40:23.048,-0.41,-0.41
2021-08-19 00:40:23.052,-0.415,-0.38
2021-08-19 00:40:23.056,-0.425,-0.38
2021-08-19 00:40:23.060,-0.445,-0.34
2021-08-19 00:40:23.064,-0.45,-0.275
2021-08-19 00:40:23.068,-0.425,-0.285
2021-08-19 00:40:23.072,-0.39,-0.335
2021-08-19 00:40:23.076,-0.34,-0.33
2021-08-19 00:40:23.080,-0.245,-0.32
2021-08-19 00:40:23.084,-0.165,-0.305
2021-08-19 00:40:23.088,-0.08,-0.24
2021-08-19 00:40:23.092,-0.025,-0.16
2021-08-19 00:40:23.096,0.02,-0.12
2021-08-19 00:40:23.100,0.06,-0.145
2021-08-19 00:40:23.104,0.135,-0.12
2021-08-19 00:40:23.108,0.205,-0.115
2021-08-19 00:40:23.112,0.275,-0.04
2021-08-19 00:40:23.116,0.28,0.005
2021-08-19 00:40:23.120,0.305,0.01
2021-08-19 00:40:23.124,0.32,0.025
2021-08-19 00:40:23.128,0.345,0.06
2021-08-19 00:40:23.132,0.415,0.14
2021-08-19 00:40:23.136,0.51,0.12
2021-08-19 00:40:23.140,0.555,0.17
2021-08-19 00:40:23.144,0.57,0.23
2021-08-19 00:40:23.148,0.54,0.255
2021-08-19 00:40:23.152,0.52,0.3
2021-08-19 00:40:23.156,0.54,0.3
2021-08-19 00:40:23.160,0.55,0.315
2021-08-19 00:40:23.164,0.535,0.285
2021-08-19 00:40:23.168,0.555,0.38
2021-08-19 00:40:23.172,0.49,0.405
2021-08-19 00:40:23.176,0.445,0.47
2021-08-19 00:40:23.180,0.375,0.525
2021-08-19 00:40:23.184,0.335,0.57
2021-08-19 00:40:23.188,0.295,0.59
2021-08-19 00:40:23.192,0.295,0.55
2021-08-19 00:40:23.196,0.245,0.51
2021-08-19 00:40:23.200,0.195,0.51
2021-08-19 00:40:23.204,0.085,0.515
2021-08-19 00:40:23.208,-0.02,0.515
2021-08-19 00:40:23.212,-0.055,0.44
2021-08-19 00:40:23.216,-0.095,0.5
2021-08-19 00:40:23.220,-0.135,0.455
2021-08-19 00:40:23.224,-0.2,0.4
2021-08-19 00:40:23.228,-0.225,0.345
2021-08-19 00:40:23.232,-0.3,0.35
2021-08-19 00:40:23.236,-0.315,0.325
2021-08-19 00:40:23.240,-0.32,0.37
2021-08-19 00:40:23.244,-0.34,0.305
2021-08-19 00:40:23.248,-0.365,0.27
2021-08-19 00:40:23.252,-0.345,0.215
2021-08-19 00:40:23.256,-0.345,0.115
2021-08-19 00:40:23.260,-0.38,0.09
2021-08-19 00:40:23.264,-0.39,0.095
2021-08-19 00:40:23.268,-0.43,0.11
2021-08-19 00:40:23.272,-0.445,0.13
2021-08-19 00:40:23.276,-0.505,0.12
2021-08-19 00:40:23.280,-0.55,0.08
2021-08-19 00:40:23.284,-0.565,0.0
2021-08-19 00:40:23.288,-0.56,-0.085
2021-08-19 00:40:23.292,-0.6,-0.25
2021-08-19 00:40:23.296,-0.61,-0.365
2021-08-19 00:40:23.300,-0.59,-0.505
2021-08-19 00:40:23.304,-0.9,-0.585
2021-08-19 00:40:23.308,-1.415,-0.565
2021-08-19 00:40:23.312,-1.67,-0.64
2021-08-19 00:40:23.316,-1.875,-0.625
2021-08-19 00:40:23.372,-1.805,-1.02
2021-08-19 00:40:23.376,-1.32,-0.92
2021-08-19 00:40:23.380,-1.025,-0.825
2021-08-19 00:40:23.384,-0.815,-0.62
2021-08-19 00:40:23.388,-0.72,-0.395
2021-08-19 00:40:23.392,-0.64,-0.255
2021-08-19 00:40:23.396,-0.56,-0.23
2021-08-19 00:40:23.400,-0.545,-0.265
2021-08-19 00:40:23.404,-0.52,-0.235
2021-08-19 00:40:23.408,-0.51,-0.225
2021-08-19 00:40:23.412,-0.505,-0.28
2021-08-19 00:40:23.416,-0.5,-0.275
2021-08-19 00:40:23.420,-0.48,-0.3
2021-08-19 00:40:23.424,-0.44,-0.345
2021-08-19 00:40:23.428,-0.405,-0.37
2021-08-19 00:40:23.432,-0.43,-0.36
2021-08-19 00:40:23.436,-0.415,-0.32
2021-08-19 00:40:23.440,-0.435,-0.265
2021-08-19 00:40:23.444,-0.47,-0.305
2021-08-19 00:40:23.448,-0.46,-0.34
2021-08-19 00:40:23.452,-0.44,-0.36
2021-08-19 00:40:23.456,-0.44,-0.365
2021-08-19 00:40:23.460,-0.45,-0.35
2021-08-19 00:40:23.464,-0.45,-0.395
2021-08-19 00:40:23.468,-0.44,-0.37
2021-08-19 00:40:23.472,-0.44,-0.36
2021-08-19 00:40:23.476,-0.4,-0.28
2021-08-19 00:40:23.480,-0.395,-0.3
2021-08-19 00:40:23.484,-0.415,-0.295
2021-08-19 00:40:23.488,-0.32,-0.305
2021-08-19 00:40:23.492,-0.285,-0.29
2021-08-19 00:40:23.496,-0.215,-0.315
2021-08-19 00:40:23.500,-0.115,-0.285
2021-08-19 00:40:23.504,-0.055,-0.23
2021-08-19 00:40:23.508,-0.015,-0.185
2021-08-19 00:40:23.512,0.005,-0.135
2021-08-19 00:40:23.516,0.085,-0.07
2021-08-19 00:40:23.520,0.18,-0.065
2021-08-19 00:40:23.524,0.255,-0.03
2021-08-19 00:40:23.528,0.285,-0.01
2021-08-19 00:40:23.532,0.325,0.01
2021-08-19 00:40:23.536,0.32,0.035
2021-08-19 00:40:23.540,0.36,0.07
2021-08-19 00:40:23.544,0.43,0.045
2021-08-19 00:40:23.548,0.5,0.03
2021-08-19 00:40:23.552,0.49,0.1
2021-08-19 00:40:23.556,0.5,0.115
2021-08-19 00:40:23.560,0.52,0.23
2021-08-19 00:40:23.564,0.565,0.25
2021-08-19 00:40:23.568,0.6,0.315
2021-08-19 00:40:23.572,0.63,0.32
2021-08-19 00:40:23.576,0.645,0.37
2021-08-19 00:40:23.580,0.55,0.405
2021-08-19 00:40:23.584,0.505,0.43
2021-08-19 00:40:23.588,0.46,0.48
2021-08-19 00:40:23.592,0.44,0.465
2021-08-19 00:40:23.596,0.385,0.51
2021-08-19 00:40:23.600,0.35,0.5
2021-08-19 00:40:23.604,0.335,0.515
2021-08-19 00:40:23.608,0.315,0.505
2021-08-19 00:40:23.612,0.305,0.44
2021-08-19 00:40:23.616,0.25,0.465
2021-08-19 00:40:23.620,0.14,0.485
2021-08-19 00:40:23.624,0.025,0.52
2021-08-19 00:40:23.628,-0.035,0.535
2021-08-19 00:40:23.632,-0.045,0.475
2021-08-19 00:40:23.636,-0.08,0.375
2021-08-19 00:40:23.640,-0.135,0.375
2021-08-19 00:40:23.644,-0.25,0.4
2021-08-19 00:40:23.648,-0.27,0.375
2021-08-19 00:40:23.652,-0.28,0.295
2021-08-19 00:40:23.656,-0.27,0.28
2021-08-19 00:40:23.660,-0.295,0.235
2021-08-19 00:40:23.664,-0.295,0.185
2021-08-19 00:40:23.668,-0.285,0.175
2021-08-19 00:40:23.672,-0.295,0.185
2021-08-19 00:40:23.676,-0.31,0.245
2021-08-19 00:40:23.680,-0.355,0.255
2021-08-19 00:40:23.684,-0.335,0.185
2021-08-19 00:40:23.688,-0.35,0.135
2021-08-19 00:40:23.692,-0.38,0.04
2021-08-19 00:40:23.696,-0.475,0.01
2021-08-19 00:40:23.700,-0.59,0.0
2021-08-19 00:40:23.704,-0.64,-0.03
2021-08-19 00:40:23.708,-0.63,-0.055
2021-08-19 00:40:23.712,-0.62,-0.175
2021-08-19 00:40:23.716,-0.635,-0.295
2021-08-19 00:40:23.720,-0.54,-0.445
2021-08-19 00:40:23.724,-0.64,-0.57
2021-08-19 00:40:23.728,-1.025,-0.52
2021-08-19 00:40:23.732,-1.32,-0.555
2021-08-19 00:40:23.736,-1.435,-0.63
2021-08-19 00:40:23.740,-1.805,-0.465
2021-08-19 00:40:23.792,-1.71,-1.065
2021-08-19 00:40:23.796,-1.28,-0.97
2021-08-19 00:40:23.800,-0.955,-0.84
2021-08-19 00:40:23.804,-0.79,-0.62
2021-08-19 00:40:23.808,-0.685,-0.355
2021-08-19 00:40:23.812,-0.59,-0.235
2021-08-19 00:40:23.816,-0.52,-0.24
2021-08-19 00:40:23.820,-0.48,-0.25
2021-08-19 00:40:23.824,-0.445,-0.295
2021-08-19 00:40:23.828,-0.42,-0.315
2021-08-19 00:40:23.832,-0.465,-0.345
2021-08-19 00:40:23.836,-0.465,-0.32
2021-08-19 00:40:23.840,-0.425,-0.315
2021-08-19 00:40:23.844,-0.385,-0.32
2021-08-19 00:40:23.848,-0.42,-0.3
2021-08-19 00:40:23.852,-0.44,-0.335
2021-08-19 00:40:23.856,-0.43,-0.365
2021-08-19 00:40:23.860,-0.43,-0.345
2021-08-19 00:40:23.864,-0.41,-0.315
2021-08-19 00:40:23.868,-0.4,-0.315
2021-08-19 00:40:23.872,-0.4,-0.355
2021-08-19 00:40:23.876,-0.355,-0.39
2021-08-19 00:40:23.880,-0.43,-0.36
2021-08-19 00:40:23.884,-0.455,-0.365
2021-08-19 00:40:23.888,-0.45,-0.355
2021-08-19 00:40:23.892,-0.415,-0.36
2021-08-19 00:40:23.896,-0.39,-0.355
2021-08-19 00:40:23.900,-0.355,-0.405
2021-08-19 00:40:23.904,-0.31,-0.39
2021-08-19 00:40:23.908,-0.265,-0.41
2021-08-19 00:40:23.912,-0.27,-0.365
2021-08-19 00:40:23.916,-0.235,-0.41
2021-08-19 00:40:23.920,-0.18,-0.39
2021-08-19 00:40:23.924,-0.105,-0.32
2021-08-19 00:40:23.928,0.01,-0.22
2021-08-19 00:40:23.932,0.095,-0.205
2021-08-19 00:40:23.936,0.175,-0.19
2021-08-19 00:40:23.940,0.25,-0.16
2021-08-19 00:40:23.944,0.32,-0.17
2021-08-19 00:40:23.948,0.31,-0.16
2021-08-19 00:40:23.952,0.315,-0.085
2021-08-19 00:40:23.956,0.29,-0.06
2021-08-19 00:40:23.960,0.35,-0.06
2021-08-19 00:40:23.964,0.42,-0.045
2021-08-19 00:40:23.968,0.51,-0.03
2021-08-19 00:40:23.972,0.54,0.01
2021-08-19 00:40:23.976,0.55,0.045
2021-08-19 00:40:23.980,0.55,0.135
2021-08-19 00:40:23.984,0.605,0.19
2021-08-19 00:40:23.988,0.64,0.175
2021-08-19 00:40:23.992,0.645,0.19
2021-08-19 00:40:23.996,0.625,0.2
2021-08-19 00:40:24.000,0.59,0.215
2021-08-19 00:40:24.004,0.575,0.26
2021-08-19 00:40:24.008,0.58,0.28
2021-08-19 00:40:24.012,0.565,0.36
2021-08-19 00:40:24.016,0.51,0.39
2021-08-19 00:40:24.020,0.435,0.39
2021-08-19 00:40:24.024,0.37,0.405
2021-08-19 00:40:24.028,0.325,0.425
2021-08-19 00:40:24.032,0.245,0.46
2021-08-19 00:40:24.036,0.185,0.455
2021-08-19 00:40:24.040,0.145,0.45
2021-08-19 00:40:24.044,0.12,0.46
2021-08-19 00:40:24.048,0.055,0.425
2021-08-19 00:40:24.052,-0.005,0.41
2021-08-19 00:40:24.056,-0.045,0.385
2021-08-19 00:40:24.060,-0.055,0.385
2021-08-19 00:40:24.064,-0.08,0.37
2021-08-19 00:40:24.068,-0.2,0.37
2021-08-19 00:40:24.072,-0.28,0.335
2021-08-19 00:40:24.076,-0.29,0.31
2021-08-19 00:40:24.080,-0.335,0.285
2021-08-19 00:40:24.084,-0.29,0.17
2021-08-19 00:40:24.088,-0.27,0.19
2021-08-19 00:40:24.092,-0.285,0.165
2021-08-19 00:40:24.096,-0.32,0.175
2021-08-19 00:40:24.100,-0.33,0.125
2021-08-19 00:40:24.104,-0.335,0.075
2021-08-19 00:40:24.108,-0.32,0.055
2021-08-19 00:40:24.112,-0.31,0.045
2021-08-19 00:40:24.116,-0.39,0.045
2021-08-19 00:40:24.120,-0.5,0.05
2021-08-19 00:40:24.124,-0.595,0.035
2021-08-19 00:40:24.128,-0.625,-0.035
2021-08-19 00:40:24.132,-0.6,-0.15
2021-08-19 00:40:24.136,-0.55,-0.26
2021-08-19 00:40:24.140,-0.5,-0.36
2021-08-19 00:40:24.144,-0.495,-0.5
2021-08-19 00:40:24.148,-0.77,-0.535
2021-08-19 00:40:24.152,-1.18,-0.58
2021-08-19 00:40:24.156,-1.335,-0.655
2021-08-19 00:40:24.160,-1.565,-0.575
2021-08-19 00:40:24.164,-1.935,-0.315
2021-08-19 00:40:24.212,-1.945,-1.265
2021-08-19 00:40:24.216,-1.525,-1.1
2021-08-19 00:40:24.220,-1.07,-0.97
2021-08-19 00:40:24.224,-0.785,-0.78
2021-08-19 00:40:24.228,-0.655,-0.535
2021-08-19 00:40:24.232,-0.595,-0.34
2021-08-19 00:40:24.236,-0.62,-0.23
2021-08-19 00:40:24.240,-0.585,-0.25
2021-08-19 00:40:24.244,-0.58,-0.285
2021-08-19 00:40:24.248,-0.52,-0.33
2021-08-19 00:40:24.252,-0.47,-0.35
2021-08-19 00:40:24.256,-0.42,-0.38
2021-08-19 00:40:24.260,-0.395,-0.355
2021-08-19 00:40:24.264,-0.415,-0.32
2021-08-19 00:40:24.268,-0.38,-0.34
2021-08-19 00:40:24.272,-0.395,-0.31
2021-08-19 00:40:24.276,-0.39,-0.33
2021-08-19 00:40:24.280,-0.4,-0.325
2021-08-19 00:40:24.284,-0.435,-0.36
2021-08-19 00:40:24.288,-0.47,-0.375
2021-08-19 00:40:24.292,-0.455,-0.39
2021-08-19 00:40:24.296,-0.45,-0.39
2021-08-19 00:40:24.300,-0.45,-0.42
2021-08-19 00:40:24.304,-0.43,-0.37
2021-08-19 00:40:24.308,-0.4,-0.385
2021-08-19 00:40:24.312,-0.375,-0.42
2021-08-19 00:40:24.316,-0.38,-0.4
2021-08-19 00:40:24.320,-0.38,-0.395
2021-08-19 00:40:24.324,-0.345,-0.395
2021-08-19 00:40:24.328,-0.34,-0.41
2021-08-19 00:40:24.332,-0.28,-0.365
2021-08-19 00:40:24.336,-0.23,-0.37
2021-08-19 00:40:24.340,-0.18,-0.365
2021-08-19 00:40:24.344,-0.095,-0.34
2021-08-19 00:40:24.348,0.0,-0.27
2021-08-19 00:40:24.352,0.07,-0.225
2021-08-19 00:40:24.356,0.11,-0.23
2021-08-19 00:40:24.360,0.155,-0.21
2021-08-19 00:40:24.364,0.18,-0.185
2021-08-19 00:40:24.368,0.245,-0.185
2021-08-19 00:40:24.372,0.335,-0.135
2021-08-19 00:40:24.376,0.37,-0.095
2021-08-19 00:40:24.380,0.38,-0.04
2021-08-19 00:40:24.384,0.405,-0.005
2021-08-19 00:40:24.388,0.435,0.005
2021-08-19 00:40:24.392,0.5,0.02
2021-08-19 00:40:24.396,0.535,0.005
2021-08-19 00:40:24.400,0.57,0.04
2021-08-19 00:40:24.404,0.61,0.055
2021-08-19 00:40:24.408,0.635,0.115
2021-08-19 00:40:24.412,0.685,0.145
2021-08-19 00:40:24.416,0.67,0.185
2021-08-19 00:40:24.420,0.645,0.23
2021-08-19 00:40:24.424,0.59,0.3
2021-08-19 00:40:24.428,0.555,0.36
2021-08-19 00:40:24.432,0.53,0.37
2021-08-19 00:40:24.436,0.52,0.295
2021-08-19 00:40:24.440,0.455,0.33
2021-08-19 00:40:24.444,0.385,0.38
2021-08-19 00:40:24.448,0.345,0.405
2021-08-19 00:40:24.452,0.35,0.42
2021-08-19 00:40:24.456,0.235,0.44
2021-08-19 00:40:24.460,0.175,0.485
2021-08-19 00:40:24.464,0.135,0.47
2021-08-19 00:40:24.468,0.1,0.435
2021-08-19 00:40:24.472,0.06,0.415
2021-08-19 00:40:24.476,0.02,0.395
2021-08-19 00:40:24.480,-0.06,0.37
2021-08-19 00:40:24.484,-0.08,0.365
2021-08-19 00:40:24.488,-0.1,0.375
2021-08-19 00:40:24.492,-0.15,0.36
2021-08-19 00:40:24.496,-0.2,0.31
2021-08-19 00:40:24.500,-0.275,0.335
2021-08-19 00:40:24.504,-0.34,0.3
2021-08-19 00:40:24.508,-0.295,0.265
2021-08-19 00:40:24.512,-0.295,0.21
2021-08-19 00:40:24.516,-0.29,0.2
2021-08-19 00:40:24.520,-0.23,0.21
2021-08-19 00:40:24.524,-0.265,0.205
2021-08-19 00:40:24.528,-0.27,0.19
2021-08-19 00:40:24.532,-0.305,0.115
2021-08-19 00:40:24.536,-0.33,0.105
2021-08-19 00:40:24.540,-0.38,0.09
2021-08-19 00:40:24.544,-0.435,0.115
2021-08-19 00:40:24.548,-0.535,0.08
2021-08-19 00:40:24.552,-0.6,-0.005
2021-08-19 00:40:24.556,-0.595,-0.095
2021-08-19 00:40:24.560,-0.59,-0.205
2021-08-19 00:40:24.564,-0.59,-0.32
2021-08-19 00:40:24.568,-0.42,-0.385
2021-08-19 00:40:24.572,-0.395,-0.52
2021-08-19 00:40:24.576,-0.735,-0.415
2021-08-19 00:40:24.580,-1.1,-0.405
2021-08-19 00:40:24.584,-1.275,-0.5
2021-08-19 00:40:24.588,-1.65,-0.355
2021-08-19 00:40:24.592,-1.96,0.02
2021-08-19 00:40:24.640,-1.83,-1.18
2021-08-19 00:40:24.644,-1.345,-1.04
2021-08-19 00:40:24.648,-0.96,-0.955
2021-08-19 00:40:24.652,-0.8,-0.73
2021-08-19 00:40:24.656,-0.695,-0.5
2021-08-19 00:40:24.660,-0.58,-0.28
2021-08-19 00:40:24.664,-0.5,-0.22
2021-08-19 00:40:24.668,-0.465,-0.17
2021-08-19 00:40:24.672,-0.46,-0.195
2021-08-19 00:40:24.676,-0.435,-0.18
2021-08-19 00:40:24.680,-0.425,-0.25
2021-08-19 00:40:24.684,-0.375,-0.265
2021-08-19 00:40:24.688,-0.385,-0.265
2021-08-19 00:40:24.692,-0.345,-0.265
2021-08-19 00:40:24.696,-0.345,-0.305
2021-08-19 00:40:24.700,-0.345,-0.27
2021-08-19 00:40:24.704,-0.34,-0.315
2021-08-19 00:40:24.708,-0.345,-0.295
2021-08-19 00:40:24.712,-0.365,-0.305
2021-08-19 00:40:24.716,-0.415,-0.325
2021-08-19 00:40:24.720,-0.42,-0.395
2021-08-19 00:40:24.724,-0.405,-0.36
2021-08-19 00:40:24.728,-0.39,-0.34
2021-08-19 00:40:24.732,-0.365,-0.32
2021-08-19 00:40:24.736,-0.38,-0.315
2021-08-19 00:40:24.740,-0.355,-0.285
2021-08-19 00:40:24.744,-0.34,-0.315
2021-08-19 00:40:24.748,-0.335,-0.305
2021-08-19 00:40:24.752,-0.275,-0.32
2021-08-19 00:40:24.756,-0.235,-0.315
2021-08-19 00:40:24.760,-0.175,-0.315
2021-08-19 00:40:24.764,-0.125,-0.33
2021-08-19 00:40:24.768,-0.075,-0.28
2021-08-19 00:40:24.772,-0.035,-0.29
2021-08-19 00:40:24.776,0.04,-0.205
2021-08-19 00:40:24.780,0.06,-0.16
2021-08-19 00:40:24.784,0.12,-0.135
2021-08-19 00:40:24.788,0.195,-0.095
2021-08-19 00:40:24.792,0.28,-0.07
2021-08-19 00:40:24.796,0.395,-0.09
2021-08-19 00:40:24.800,0.45,-0.065
2021-08-19 00:40:24.804,0.45,-0.035
2021-08-19 00:40:24.808,0.43,0.03
2021-08-19 00:40:24.812,0.43,0.04
2021-08-19 00:40:24.816,0.48,0.05
2021-08-19 00:40:24.820,0.59,0.065
2021-08-19 00:40:24.824,0.635,0.13
2021-08-19 00:40:24.828,0.65,0.175
2021-08-19 00:40:24.832,0.695,0.22
2021-08-19 00:40:24.836,0.71,0.245
2021-08-19 00:40:24.840,0.68,0.285
2021-08-19 00:40:24.844,0.7,0.34
2021-08-19 00:40:24.848,0.705,0.33
2021-08-19 00:40:24.852,0.68,0.355
2021-08-19 00:40:24.856,0.62,0.405
2021-08-19 00:40:24.860,0.56,0.505
2021-08-19 00:40:24.864,0.49,0.515
2021-08-19 00:40:24.868,0.485,0.51
2021-08-19 00:40:24.872,0.44,0.58
2021-08-19 00:40:24.876,0.4,0.575
2021-08-19 00:40:24.880,0.285,0.57
2021-08-19 00:40:24.884,0.245,0.54
2021-08-19 00:40:24.888,0.24,0.54
2021-08-19 00:40:24.892,0.255,0.525
2021-08-19 00:40:24.896,0.18,0.465
2021-08-19 00:40:24.900,0.1,0.48
2021-08-19 00:40:24.904,0.055,0.485
2021-08-19 00:40:24.908,-0.04,0.49
2021-08-19 00:40:24.912,-0.08,0.505
2021-08-19 00:40:24.916,-0.14,0.46
2021-08-19 00:40:24.920,-0.14,0.39
2021-08-19 00:40:24.924,-0.135,0.355
2021-08-19 00:40:24.928,-0.185,0.31
2021-08-19 00:40:24.932,-0.16,0.275
2021-08-19 00:40:24.936,-0.125,0.275
2021-08-19 00:40:24.940,-0.16,0.29
2021-08-19 00:40:24.944,-0.225,0.255
2021-08-19 00:40:24.948,-0.27,0.215
2021-08-19 00:40:24.952,-0.345,0.2
2021-08-19 00:40:24.956,-0.32,0.19
2021-08-19 00:40:24.960,-0.31,0.17
2021-08-19 00:40:24.964,-0.28,0.115
2021-08-19 00:40:24.968,-0.255,0.08
2021-08-19 00:40:24.972,-0.305,0.03
2021-08-19 00:40:24.976,-0.45,0.07
2021-08-19 00:40:24.980,-0.52,0.025
2021-08-19 00:40:24.984,-0.52,-0.035
2021-08-19 00:40:24.988,-0.495,-0.165
2021-08-19 00:40:24.992,-0.47,-0.265
2021-08-19 00:40:24.996,-0.385,-0.4
2021-08-19 00:40:25.000,-0.46,-0.54
2021-08-19 00:40:25.004,-0.83,-0.45
2021-08-19 00:40:25.008,-1.185,-0.455
2021-08-19 00:40:25.012,-1.33,-0.52
2021-08-19 00:40:25.016,-1.61,-0.4
2021-08-19 00:40:25.020,-1.965,-0.06
2021-08-19 00:40:25.068,-1.895,-1.295
2021-08-19 00:40:25.072,-1.485,-1.13
2021-08-19 00:40:25.076,-1.03,-1.045
2021-08-19 00:40:25.080,-0.735,-0.805
2021-08-19 00:40:25.084,-0.575,-0.53
2021-08-19 00:40:25.088,-0.485,-0.31
2021-08-19 00:40:25.092,-0.395,-0.235
2021-08-19 00:40:25.096,-0.38,-0.185
2021-08-19 00:40:25.100,-0.38,-0.205
2021-08-19 00:40:25.104,-0.405,-0.205
2021-08-19 00:40:25.108,-0.375,-0.18
2021-08-19 00:40:25.112,-0.325,-0.235
2021-08-19 00:40:25.116,-0.35,-0.255
2021-08-19 00:40:25.120,-0.28,-0.3
2021-08-19 00:40:25.124,-0.3,-0.32
2021-08-19 00:40:25.128,-0.31,-0.365
2021-08-19 00:40:25.132,-0.335,-0.345
2021-08-19 00:40:25.136,-0.37,-0.305
2021-08-19 00:40:25.140,-0.4,-0.32
2021-08-19 00:40:25.144,-0.375,-0.35
2021-08-19 00:40:25.148,-0.345,-0.35
2021-08-19 00:40:25.152,-0.3,-0.35
2021-08-19 00:40:25.156,-0.3,-0.33
2021-08-19 00:40:25.160,-0.305,-0.32
2021-08-19 00:40:25.164,-0.295,-0.34
2021-08-19 00:40:25.168,-0.315,-0.32
2021-08-19 00:40:25.172,-0.31,-0.32
2021-08-19 00:40:25.176,-0.285,-0.335
2021-08-19 00:40:25.180,-0.25,-0.32
2021-08-19 00:40:25.184,-0.26,-0.335
2021-08-19 00:40:25.188,-0.25,-0.345
2021-08-19 00:40:25.192,-0.16,-0.335
2021-08-19 00:40:25.196,-0.115,-0.305
2021-08-19 00:40:25.200,-0.01,-0.26
2021-08-19 00:40:25.204,0.075,-0.255
2021-08-19 00:40:25.208,0.135,-0.19
2021-08-19 00:40:25.212,0.215,-0.16
2021-08-19 00:40:25.216,0.255,-0.15
2021-08-19 00:40:25.220,0.325,-0.09
2021-08-19 00:40:25.224,0.335,-0.02
2021-08-19 00:40:25.228,0.415,0.065
2021-08-19 00:40:25.232,0.38,0.1
2021-08-19 00:40:25.236,0.41,0.075
2021-08-19 00:40:25.240,0.465,-0.015
2021-08-19 00:40:25.244,0.53,-0.055
2021-08-19 00:40:25.248,0.585,-0.025
2021-08-19 00:40:25.252,0.62,0.005
2021-08-19 00:40:25.256,0.645,0.1
2021-08-19 00:40:25.260,0.68,0.215
2021-08-19 00:40:25.264,0.715,0.25
2021-08-19 00:40:25.268,0.72,0.26
2021-08-19 00:40:25.272,0.7,0.305
2021-08-19 00:40:25.276,0.7,0.36
2021-08-19 00:40:25.280,0.69,0.4
2021-08-19 00:40:25.284,0.7,0.395
2021-08-19 00:40:25.288,0.62,0.42
2021-08-19 00:40:25.292,0.505,0.445
2021-08-19 00:40:25.296,0.44,0.465
2021-08-19 00:40:25.300,0.41,0.52
2021-08-19 00:40:25.304,0.395,0.55
2021-08-19 00:40:25.308,0.345,0.54
2021-08-19 00:40:25.312,0.305,0.525
2021-08-19 00:40:25.316,0.255,0.51
2021-08-19 00:40:25.320,0.2,0.505
2021-08-19 00:40:25.324,0.14,0.525
2021-08-19 00:40:25.328,0.05,0.52
2021-08-19 00:40:25.332,0.005,0.565
2021-08-19 00:40:25.336,-0.04,0.455
2021-08-19 00:40:25.340,-0.08,0.37
2021-08-19 00:40:25.344,-0.09,0.31
2021-08-19 00:40:25.348,-0.11,0.305
2021-08-19 00:40:25.352,-0.11,0.295
2021-08-19 00:40:25.356,-0.13,0.305
2021-08-19 00:40:25.360,-0.16,0.3
2021-08-19 00:40:25.364,-0.18,0.27
2021-08-19 00:40:25.368,-0.18,0.22
2021-08-19 00:40:25.372,-0.23,0.195
2021-08-19 00:40:25.376,-0.28,0.19
2021-08-19 00:40:25.380,-0.29,0.15
2021-08-19 00:40:25.384,-0.3,0.13
2021-08-19 00:40:25.388,-0.25,0.14
2021-08-19 00:40:25.392,-0.275,0.125
2021-08-19 00:40:25.396,-0.25,0.1
2021-08-19 00:40:25.400,-0.295,0.06
2021-08-19 00:40:25.404,-0.355,0.055
2021-08-19 00:40:25.408,-0.445,0.04
2021-08-19 00:40:25.412,-0.475,0.0
2021-08-19 00:40:25.416,-0.525,-0.04
2021-08-19 00:40:25.420,-0.51,-0.16
2021-08-19 00:40:25.424,-0.455,-0.285
2021-08-19 00:40:25.428,-0.355,-0.39
2021-08-19 00:40:25.432,-0.405,-0.47
2021-08-19 00:40:25.436,-0.82,-0.405
2021-08-19 00:40:25.440,-1.17,-0.445
2021-08-19 00:40:25.444,-1.365,-0.565
2021-08-19 00:40:25.448,-1.645,-0.465
2021-08-19 00:40:25.452,-1.88,-0.085
2021-08-19 00:40:25.456,-1.985,0.315
2021-08-19 00:40:25.500,-1.695,-1.14
2021-08-19 00:40:25.504,-1.225,-1.03
2021-08-19 00:40:25.508,-0.86,-0.87
2021-08-19 00:40:25.512,-0.64,-0.66
2021-08-19 00:40:25.516,-0.525,-0.38
2021-08-19 00:40:25.520,-0.45,-0.22
2021-08-19 00:40:25.524,-0.41,-0.205
2021-08-19 00:40:25.528,-0.385,-0.245
2021-08-19 00:40:25.532,-0.325,-0.265
2021-08-19 00:40:25.536,-0.275,-0.275
2021-08-19 00:40:25.540,-0.25,-0.235
2021-08-19 00:40:25.544,-0.26,-0.23
2021-08-19 00:40:25.548,-0.3,-0.235
2021-08-19 00:40:25.552,-0.29,-0.295
2021-08-19 00:40:25.556,-0.31,-0.345
2021-08-19 00:40:25.560,-0.295,-0.34
2021-08-19 00:40:25.564,-0.28,-0.275
2021-08-19 00:40:25.568,-0.255,-0.23
2021-08-19 00:40:25.572,-0.285,-0.29
2021-08-19 00:40:25.576,-0.31,-0.305
2021-08-19 00:40:25.580,-0.325,-0.325
2021-08-19 00:40:25.584,-0.27,-0.385
2021-08-19 00:40:25.588,-0.26,-0.38
2021-08-19 00:40:25.592,-0.235,-0.36
2021-08-19 00:40:25.596,-0.255,-0.32
2021-08-19 00:40:25.600,-0.245,-0.315
2021-08-19 00:40:25.604,-0.215,-0.265
2021-08-19 00:40:25.608,-0.16,-0.26
2021-08-19 00:40:25.612,-0.14,-0.275
2021-08-19 00:40:25.616,-0.195,-0.29
2021-08-19 00:40:25.620,-0.14,-0.28
2021-08-19 00:40:25.624,-0.105,-0.26
2021-08-19 00:40:25.628,-0.02,-0.205
2021-08-19 00:40:25.632,0.075,-0.195
2021-08-19 00:40:25.636,0.125,-0.155
2021-08-19 00:40:25.640,0.15,-0.17
2021-08-19 00:40:25.644,0.23,-0.185
2021-08-19 00:40:25.648,0.34,-0.105
2021-08-19 00:40:25.652,0.415,-0.065
2021-08-19 00:40:25.656,0.465,0.005
2021-08-19 00:40:25.660,0.505,0.08
2021-08-19 00:40:25.664,0.51,0.005
2021-08-19 00:40:25.668,0.495,0.02
2021-08-19 00:40:25.672,0.525,0.005
2021-08-19 00:40:25.676,0.595,0.055
2021-08-19 00:40:25.680,0.705,0.085
2021-08-19 00:40:25.684,0.775,0.15
2021-08-19 00:40:25.688,0.765,0.245
2021-08-19 00:40:25.692,0.75,0.275
2021-08-19 00:40:25.696,0.775,0.3
2021-08-19 00:40:25.700,0.745,0.3
2021-08-19 00:40:25.704,0.755,0.36
2021-08-19 00:40:25.708,0.73,0.395
2021-08-19 00:40:25.712,0.715,0.46
2021-08-19 00:40:25.716,0.65,0.5
2021-08-19 00:40:25.720,0.645,0.55
2021-08-19 00:40:25.724,0.625,0.6
2021-08-19 00:40:25.728,0.54,0.57
2021-08-19 00:40:25.732,0.475,0.55
2021-08-19 00:40:25.736,0.405,0.525
2021-08-19 00:40:25.740,0.375,0.52
2021-08-19 00:40:25.744,0.35,0.525
2021-08-19 00:40:25.748,0.29,0.52
2021-08-19 00:40:25.752,0.25,0.58
2021-08-19 00:40:25.756,0.18,0.52
2021-08-19 00:40:25.760,0.145,0.495
2021-08-19 00:40:25.764,0.075,0.475
2021-08-19 00:40:25.768,0.045,0.475
2021-08-19 00:40:25.772,-0.015,0.485
2021-08-19 00:40:25.776,-0.04,0.465
2021-08-19 00:40:25.780,-0.08,0.43
2021-08-19 00:40:25.784,-0.125,0.375
2021-08-19 00:40:25.788,-0.14,0.315
2021-08-19 00:40:25.792,-0.135,0.26
2021-08-19 00:40:25.796,-0.115,0.25
2021-08-19 00:40:25.800,-0.16,0.285
2021-08-19 00:40:25.804,-0.17,0.295
2021-08-19 00:40:25.808,-0.185,0.3
2021-08-19 00:40:25.812,-0.185,0.255
2021-08-19 00:40:25.816,-0.22,0.2
2021-08-19 00:40:25.820,-0.23,0.155
2021-08-19 00:40:25.824,-0.285,0.13
2021-08-19 00:40:25.828,-0.27,0.095
2021-08-19 00:40:25.832,-0.24,0.07
2021-08-19 00:40:25.836,-0.32,0.005
2021-08-19 00:40:25.840,-0.37,0.03
2021-08-19 00:40:25.844,-0.395,-0.04
2021-08-19 00:40:25.848,-0.385,-0.14
2021-08-19 00:40:25.852,-0.38,-0.255
2021-08-19 00:40:25.856,-0.335,-0.32
2021-08-19 00:40:25.860,-0.27,-0.375
2021-08-19 00:40:25.864,-0.6,-0.35
2021-08-19 00:40:25.868,-1.095,-0.35
2021-08-19 00:40:25.872,-1.37,-0.535
2021-08-19 00:40:25.876,-1.625,-0.54
2021-08-19 00:40:25.880,-1.96,-0.255
2021-08-19 00:40:25.884,-1.96,0.125
2021-08-19 00:40:25.928,-1.885,-1.185
2021-08-19 00:40:25.932,-1.49,-0.97
2021-08-19 00:40:25.936,-1.105,-0.91
2021-08-19 00:40:25.940,-0.785,-0.82
2021-08-19 00:40:25.944,-0.6,-0.58
2021-08-19 00:40:25.948,-0.5,-0.35
2021-08-19 00:40:25.952,-0.395,-0.23
2021-08-19 00:40:25.956,-0.345,-0.21
2021-08-19 00:40:25.960,-0.335,-0.205
2021-08-19 00:40:25.964,-0.35,-0.225
2021-08-19 00:40:25.968,-0.315,-0.19
2021-08-19 00:40:25.972,-0.305,-0.165
2021-08-19 00:40:25.976,-0.285,-0.2
2021-08-19 00:40:25.980,-0.28,-0.225
2021-08-19 00:40:25.984,-0.305,-0.265
2021-08-19 00:40:25.988,-0.27,-0.285
2021-08-19 00:40:25.992,-0.25,-0.295
2021-08-19 00:40:25.996,-0.25,-0.3
2021-08-19 00:40:26.000,-0.26,-0.315
2021-08-19 00:40:26.004,-0.255,-0.285
2021-08-19 00:40:26.008,-0.325,-0.29
2021-08-19 00:40:26.012,-0.32,-0.345
2021-08-19 00:40:26.016,-0.335,-0.29
2021-08-19 00:40:26.020,-0.285,-0.335
2021-08-19 00:40:26.024,-0.22,-0.31
2021-08-19 00:40:26.028,-0.225,-0.32
2021-08-19 00:40:26.032,-0.24,-0.34
2021-08-19 00:40:26.036,-0.27,-0.35
2021-08-19 00:40:26.040,-0.225,-0.32
2021-08-19 00:40:26.044,-0.18,-0.33
2021-08-19 00:40:26.048,-0.18,-0.335
2021-08-19 00:40:26.052,-0.14,-0.33
2021-08-19 00:40:26.056,-0.07,-0.26
2021-08-19 00:40:26.060,0.02,-0.24
2021-08-19 00:40:26.064,0.075,-0.2
2021-08-19 00:40:26.068,0.115,-0.16
2021-08-19 00:40:26.072,0.145,-0.15
2021-08-19 00:40:26.076,0.23,-0.14
2021-08-19 00:40:26.080,0.31,-0.105
2021-08-19 00:40:26.084,0.365,-0.06
2021-08-19 00:40:26.088,0.38,-0.02
2021-08-19 00:40:26.092,0.44,0.0
2021-08-19 00:40:26.096,0.435,0.065
2021-08-19 00:40:26.100,0.45,0.055
2021-08-19 00:40:26.104,0.5,0.06
2021-08-19 00:40:26.108,0.58,0.075
2021-08-19 00:40:26.112,0.67,0.08
2021-08-19 00:40:26.116,0.7,0.15
2021-08-19 00:40:26.120,0.735,0.2
2021-08-19 00:40:26.124,0.77,0.235
2021-08-19 00:40:26.128,0.755,0.255
2021-08-19 00:40:26.132,0.75,0.345
2021-08-19 00:40:26.136,0.715,0.38
2021-08-19 00:40:26.140,0.685,0.425
2021-08-19 00:40:26.144,0.63,0.465
2021-08-19 00:40:26.148,0.575,0.485
2021-08-19 00:40:26.152,0.57,0.505
2021-08-19 00:40:26.156,0.555,0.515
2021-08-19 00:40:26.160,0.495,0.545
2021-08-19 00:40:26.164,0.385,0.535
2021-08-19 00:40:26.168,0.315,0.545
2021-08-19 00:40:26.172,0.275,0.525
2021-08-19 00:40:26.176,0.235,0.52
2021-08-19 00:40:26.180,0.21,0.53
2021-08-19 00:40:26.184,0.18,0.535
2021-08-19 00:40:26.188,0.08,0.51
2021-08-19 00:40:26.192,0.005,0.47
2021-08-19 00:40:26.196,-0.06,0.43
2021-08-19 00:40:26.200,-0.055,0.395
2021-08-19 00:40:26.204,-0.08,0.4
2021-08-19 00:40:26.208,-0.115,0.345
2021-08-19 00:40:26.212,-0.15,0.31
2021-08-19 00:40:26.216,-0.195,0.27
2021-08-19 00:40:26.220,-0.175,0.255
2021-08-19 00:40:26.224,-0.18,0.305
2021-08-19 00:40:26.228,-0.2,0.27
2021-08-19 00:40:26.232,-0.19,0.205
2021-08-19 00:40:26.236,-0.24,0.155
2021-08-19 00:40:26.240,-0.245,0.145
2021-08-19 00:40:26.244,-0.27,0.135
2021-08-19 00:40:26.248,-0.24,0.1
2021-08-19 00:40:26.252,-0.195,0.12
2021-08-19 00:40:26.256,-0.265,0.13
2021-08-19 00:40:26.260,-0.315,0.145
2021-08-19 00:40:26.264,-0.44,0.105
2021-08-19 00:40:26.268,-0.525,0.07
2021-08-19 00:40:26.272,-0.505,0.01
2021-08-19 00:40:26.276,-0.47,-0.085
2021-08-19 00:40:26.280,-0.45,-0.235
2021-08-19 00:40:26.284,-0.385,-0.335
2021-08-19 00:40:26.288,-0.355,-0.43
2021-08-19 00:40:26.292,-0.525,-0.5
2021-08-19 00:40:26.296,-1.005,-0.435
2021-08-19 00:40:26.300,-1.355,-0.52
2021-08-19 00:40:26.304,-1.52,-0.535
2021-08-19 00:40:26.308,-1.835,-0.335
2021-08-19 00:40:26.312,-1.94,0.0
2021-08-19 00:40:26.360,-1.645,-0.95
2021-08-19 00:40:26.364,-1.16,-0.895
2021-08-19 00:40:26.368,-0.825,-0.765
2021-08-19 00:40:26.372,-0.635,-0.58
2021-08-19 00:40:26.376,-0.525,-0.365
2021-08-19 00:40:26.380,-0.42,-0.285
2021-08-19 00:40:26.384,-0.36,-0.24
2021-08-19 00:40:26.388,-0.305,-0.215
2021-08-19 00:40:26.392,-0.26,-0.19
2021-08-19 00:40:26.396,-0.285,-0.19
2021-08-19 00:40:26.400,-0.325,-0.175
2021-08-19 00:40:26.404,-0.32,-0.175
2021-08-19 00:40:26.408,-0.275,-0.18
2021-08-19 00:40:26.412,-0.24,-0.23
2021-08-19 00:40:26.416,-0.25,-0.245
2021-08-19 00:40:26.420,-0.29,-0.25
2021-08-19 00:40:26.424,-0.285,-0.285
2021-08-19 00:40:26.428,-0.26,-0.29
2021-08-19 00:40:26.432,-0.29,-0.24
2021-08-19 00:40:26.436,-0.295,-0.25
2021-08-19 00:40:26.440,-0.32,-0.29
2021-08-19 00:40:26.444,-0.31,-0.365
2021-08-19 00:40:26.448,-0.265,-0.39
2021-08-19 00:40:26.452,-0.195,-0.39
2021-08-19 00:40:26.456,-0.18,-0.315
2021-08-19 00:40:26.460,-0.19,-0.3
2021-08-19 00:40:26.464,-0.185,-0.25
2021-08-19 00:40:26.468,-0.25,-0.245
2021-08-19 00:40:26.472,-0.285,-0.275
2021-08-19 00:40:26.476,-0.22,-0.26
2021-08-19 00:40:26.480,-0.145,-0.23
2021-08-19 00:40:26.484,-0.05,-0.225
2021-08-19 00:40:26.488,-0.035,-0.28
2021-08-19 00:40:26.492,0.01,-0.21
2021-08-19 00:40:26.496,0.08,-0.14
2021-08-19 00:40:26.500,0.12,-0.02
2021-08-19 00:40:26.504,0.195,-0.005
2021-08-19 00:40:26.508,0.285,-0.005
2021-08-19 00:40:26.512,0.405,-0.07
2021-08-19 00:40:26.516,0.455,-0.065
2021-08-19 00:40:26.520,0.525,-0.05
2021-08-19 00:40:26.524,0.56,0.005
2021-08-19 00:40:26.528,0.57,0.08
2021-08-19 00:40:26.532,0.58,0.115
2021-08-19 00:40:26.536,0.59,0.12
2021-08-19 00:40:26.540,0.65,0.175
2021-08-19 00:40:26.544,0.71,0.255
2021-08-19 00:40:26.548,0.725,0.36
2021-08-19 00:40:26.552,0.74,0.35
2021-08-19 00:40:26.556,0.795,0.3
2021-08-19 00:40:26.560,0.82,0.315
2021-08-19 00:40:26.564,0.805,0.315
2021-08-19 00:40:26.568,0.83,0.41
2021-08-19 00:40:26.572,0.765,0.475
2021-08-19 00:40:26.576,0.705,0.525
2021-08-19 00:40:26.580,0.595,0.59
2021-08-19 00:40:26.584,0.565,0.58
2021-08-19 00:40:26.588,0.5,0.545
2021-08-19 00:40:26.592,0.525,0.585
2021-08-19 00:40:26.596,0.54,0.645
2021-08-19 00:40:26.600,0.465,0.565
2021-08-19 00:40:26.604,0.405,0.56
2021-08-19 00:40:26.608,0.285,0.535
2021-08-19 00:40:26.612,0.195,0.505
2021-08-19 00:40:26.616,0.145,0.535
2021-08-19 00:40:26.620,0.105,0.495
2021-08-19 00:40:26.624,0.075,0.485
2021-08-19 00:40:26.628,0.035,0.5
2021-08-19 00:40:26.632,-0.045,0.46
2021-08-19 00:40:26.636,-0.04,0.42
2021-08-19 00:40:26.640,-0.07,0.415
2021-08-19 00:40:26.644,-0.08,0.425
2021-08-19 00:40:26.648,-0.115,0.39
2021-08-19 00:40:26.652,-0.135,0.36
2021-08-19 00:40:26.656,-0.115,0.285
2021-08-19 00:40:26.660,-0.1,0.285
2021-08-19 00:40:26.664,-0.12,0.265
2021-08-19 00:40:26.668,-0.115,0.225
2021-08-19 00:40:26.672,-0.135,0.19
2021-08-19 00:40:26.676,-0.2,0.18
2021-08-19 00:40:26.680,-0.215,0.205
2021-08-19 00:40:26.684,-0.205,0.185
2021-08-19 00:40:26.688,-0.215,0.14
2021-08-19 00:40:26.692,-0.24,0.12
2021-08-19 00:40:26.696,-0.31,0.05
2021-08-19 00:40:26.700,-0.39,0.095
2021-08-19 00:40:26.704,-0.38,0.035
2021-08-19 00:40:26.708,-0.385,-0.01
2021-08-19 00:40:26.712,-0.375,-0.155
2021-08-19 00:40:26.716,-0.345,-0.27
2021-08-19 00:40:26.720,-0.32,-0.4
2021-08-19 00:40:26.724,-0.495,-0.43
2021-08-19 00:40:26.728,-1.02,-0.355
2021-08-19 00:40:26.732,-1.395,-0.425
2021-08-19 00:40:26.736,-1.585,-0.525
2021-08-19 00:40:26.740,-1.85,-0.37
2021-08-19 00:40:26.744,-1.88,-0.07
2021-08-19 00:40:26.748,-1.955,0.275
2021-08-19 00:40:26.788,-1.855,-1.085
2021-08-19 00:40:26.792,-1.465,-0.925
2021-08-19 00:40:26.796,-1.09,-0.855
2021-08-19 00:40:26.800,-0.74,-0.71
2021-08-19 00:40:26.804,-0.545,-0.5
2021-08-19 00:40:26.808,-0.45,-0.26
2021-08-19 00:40:26.812,-0.33,-0.195
2021-08-19 00:40:26.816,-0.32,-0.115
2021-08-19 00:40:26.820,-0.28,-0.14
2021-08-19 00:40:26.824,-0.25,-0.16
2021-08-19 00:40:26.828,-0.225,-0.175
2021-08-19 00:40:26.832,-0.22,-0.25
2021-08-19 00:40:26.836,-0.2,-0.28
2021-08-19 00:40:26.840,-0.18,-0.28
2021-08-19 00:40:26.844,-0.16,-0.3
2021-08-19 00:40:26.848,-0.15,-0.28
2021-08-19 00:40:26.852,-0.185,-0.235
2021-08-19 00:40:26.856,-0.22,-0.24
2021-08-19 00:40:26.860,-0.23,-0.255
2021-08-19 00:40:26.864,-0.225,-0.29
2021-08-19 00:40:26.868,-0.23,-0.3
2021-08-19 00:40:26.872,-0.175,-0.31
2021-08-19 00:40:26.876,-0.145,-0.25
2021-08-19 00:40:26.880,-0.185,-0.26
2021-08-19 00:40:26.884,-0.175,-0.27
2021-08-19 00:40:26.888,-0.16,-0.27
2021-08-19 00:40:26.892,-0.1,-0.305
2021-08-19 00:40:26.896,-0.11,-0.315
2021-08-19 00:40:26.900,-0.11,-0.255
2021-08-19 00:40:26.904,-0.125,-0.255
2021-08-19 00:40:26.908,-0.08,-0.29
2021-08-19 00:40:26.912,-0.04,-0.315
2021-08-19 00:40:26.916,0.02,-0.28
2021-08-19 00:40:26.920,0.07,-0.25
2021-08-19 00:40:26.924,0.17,-0.215
2021-08-19 00:40:26.928,0.245,-0.165
2021-08-19 00:40:26.932,0.35,-0.095
2021-08-19 00:40:26.936,0.38,-0.085
2021-08-19 00:40:26.940,0.34,-0.05
2021-08-19 00:40:26.944,0.395,-0.01
2021-08-19 00:40:26.948,0.47,0.005
2021-08-19 00:40:26.952,0.56,0.055
2021-08-19 00:40:26.956,0.6,0.115
2021-08-19 00:40:26.960,0.66,0.1
2021-08-19 00:40:26.964,0.705,0.01
2021-08-19 00:40:26.968,0.71,0.065
2021-08-19 00:40:26.972,0.73,0.115
2021-08-19 00:40:26.976,0.77,0.21
2021-08-19 00:40:26.980,0.78,0.205
2021-08-19 00:40:26.984,0.845,0.26
2021-08-19 00:40:26.988,0.9,0.275
2021-08-19 00:40:26.992,0.905,0.295
2021-08-19 00:40:26.996,0.93,0.335
2021-08-19 00:40:27.000,0.83,0.37
2021-08-19 00:40:27.004,0.73,0.405
2021-08-19 00:40:27.008,0.68,0.48
2021-08-19 00:40:27.012,0.635,0.47
2021-08-19 00:40:27.016,0.61,0.52
2021-08-19 00:40:27.020,0.52,0.54
2021-08-19 00:40:27.024,0.48,0.56
2021-08-19 00:40:27.028,0.415,0.56
2021-08-19 00:40:27.032,0.375,0.54
2021-08-19 00:40:27.036,0.335,0.45
2021-08-19 00:40:27.040,0.25,0.47
2021-08-19 00:40:27.044,0.195,0.47
2021-08-19 00:40:27.048,0.165,0.475
2021-08-19 00:40:27.052,0.16,0.5
2021-08-19 00:40:27.056,0.12,0.44
2021-08-19 00:40:27.060,0.07,0.405
2021-08-19 00:40:27.064,0.0,0.365
2021-08-19 00:40:27.068,0.0,0.32
2021-08-19 00:40:27.072,-0.02,0.29
2021-08-19 00:40:27.076,-0.08,0.315
2021-08-19 00:40:27.080,-0.18,0.305
2021-08-19 00:40:27.084,-0.17,0.29
2021-08-19 00:40:27.088,-0.15,0.255
2021-08-19 00:40:27.092,-0.135,0.19
2021-08-19 00:40:27.096,-0.13,0.165
2021-08-19 00:40:27.100,-0.14,0.185
2021-08-19 00:40:27.104,-0.135,0.155
2021-08-19 00:40:27.108,-0.185,0.155
2021-08-19 00:40:27.112,-0.215,0.155
2021-08-19 00:40:27.116,-0.23,0.12
2021-08-19 00:40:27.120,-0.21,0.14
2021-08-19 00:40:27.124,-0.25,0.12
2021-08-19 00:40:27.128,-0.29,0.08
2021-08-19 00:40:27.132,-0.36,0.0
2021-08-19 00:40:27.136,-0.39,-0.055
2021-08-19 00:40:27.140,-0.38,-0.1
2021-08-19 00:40:27.144,-0.38,-0.25
2021-08-19 00:40:27.148,-0.36,-0.345
2021-08-19 00:40:27.152,-0.33,-0.41
2021-08-19 00:40:27.156,-0.435,-0.5
2021-08-19 00:40:27.160,-0.775,-0.425
2021-08-19 00:40:27.164,-1.135,-0.4
2021-08-19 00:40:27.168,-1.28,-0.505
2021-08-19 00:40:27.172,-1.585,-0.42
2021-08-19 00:40:27.176,-1.74,-0.095
2021-08-19 00:40:27.180,-1.865,0.28
2021-08-19 00:40:27.224,-1.665,-1.0
2021-08-19 00:40:27.228,-1.185,-0.89
2021-08-19 00:40:27.232,-0.82,-0.775
2021-08-19 00:40:27.236,-0.585,-0.56
2021-08-19 00:40:27.240,-0.455,-0.36
2021-08-19 00:40:27.244,-0.35,-0.26
2021-08-19 00:40:27.248,-0.28,-0.255
2021-08-19 00:40:27.252,-0.295,-0.23
2021-08-19 00:40:27.256,-0.315,-0.23
2021-08-19 00:40:27.260,-0.26,-0.21
2021-08-19 00:40:27.264,-0.26,-0.27
2021-08-19 00:40:27.268,-0.23,-0.28
2021-08-19 00:40:27.272,-0.195,-0.285
2021-08-19 00:40:27.276,-0.105,-0.3
2021-08-19 00:40:27.280,-0.12,-0.33
2021-08-19 00:40:27.284,-0.16,-0.29
2021-08-19 00:40:27.288,-0.21,-0.315
2021-08-19 00:40:27.292,-0.275,-0.25
2021-08-19 00:40:27.296,-0.3,-0.3
2021-08-19 00:40:27.300,-0.24,-0.345
2021-08-19 00:40:27.304,-0.175,-0.35
2021-08-19 00:40:27.308,-0.15,-0.39
2021-08-19 00:40:27.312,-0.13,-0.38
2021-08-19 00:40:27.316,-0.18,-0.335
2021-08-19 00:40:27.320,-0.205,-0.28
2021-08-19 00:40:27.324,-0.17,-0.275
2021-08-19 00:40:27.328,-0.15,-0.285
2021-08-19 00:40:27.332,-0.09,-0.31
2021-08-19 00:40:27.336,-0.05,-0.355
2021-08-19 00:40:27.340,0.05,-0.38
2021-08-19 00:40:27.344,0.04,-0.4
2021-08-19 00:40:27.348,0.035,-0.355
2021-08-19 00:40:27.352,0.11,-0.315
2021-08-19 00:40:27.356,0.215,-0.255
2021-08-19 00:40:27.360,0.3,-0.245
2021-08-19 00:40:27.364,0.37,-0.19
2021-08-19 00:40:27.368,0.365,-0.075
2021-08-19 00:40:27.372,0.385,-0.07
2021-08-19 00:40:27.376,0.455,-0.06
2021-08-19 00:40:27.380,0.495,-0.03
2021-08-19 00:40:27.384,0.61,-0.02
2021-08-19 00:40:27.388,0.635,-0.025
2021-08-19 00:40:27.392,0.69,-0.01
2021-08-19 00:40:27.396,0.75,0.005
2021-08-19 00:40:27.400,0.73,0.015
2021-08-19 00:40:27.404,0.75,0.075
2021-08-19 00:40:27.408,0.775,0.15
2021-08-19 00:40:27.412,0.875,0.155
2021-08-19 00:40:27.416,0.915,0.22
2021-08-19 00:40:27.420,0.93,0.235
2021-08-19 00:40:27.424,0.915,0.295
2021-08-19 00:40:27.428,0.855,0.34
2021-08-19 00:40:27.432,0.775,0.345
2021-08-19 00:40:27.436,0.75,0.37
2021-08-19 00:40:27.440,0.75,0.395
2021-08-19 00:40:27.444,0.695,0.45
2021-08-19 00:40:27.448,0.695,0.465
2021-08-19 00:40:27.452,0.67,0.52
2021-08-19 00:40:27.456,0.6,0.47
2021-08-19 00:40:27.460,0.55,0.49
2021-08-19 00:40:27.464,0.48,0.495
2021-08-19 00:40:27.468,0.47,0.495
2021-08-19 00:40:27.472,0.375,0.51
2021-08-19 00:40:27.476,0.235,0.57
2021-08-19 00:40:27.480,0.175,0.495
2021-08-19 00:40:27.484,0.175,0.475
2021-08-19 00:40:27.488,0.17,0.44
2021-08-19 00:40:27.492,0.105,0.47
2021-08-19 00:40:27.496,0.06,0.44
2021-08-19 00:40:27.500,0.055,0.4
2021-08-19 00:40:27.504,0.025,0.35
2021-08-19 00:40:27.508,0.04,0.365
2021-08-19 00:40:27.512,0.005,0.325
2021-08-19 00:40:27.516,-0.005,0.355
2021-08-19 00:40:27.520,-0.035,0.335
2021-08-19 00:40:27.524,-0.065,0.345
2021-08-19 00:40:27.528,-0.105,0.305
2021-08-19 00:40:27.532,-0.115,0.225
2021-08-19 00:40:27.536,-0.11,0.165
2021-08-19 00:40:27.540,-0.06,0.19
2021-08-19 00:40:27.544,-0.095,0.195
2021-08-19 00:40:27.548,-0.135,0.195
2021-08-19 00:40:27.552,-0.11,0.195
2021-08-19 00:40:27.556,-0.17,0.19
2021-08-19 00:40:27.560,-0.18,0.18
2021-08-19 00:40:27.564,-0.3,0.115
2021-08-19 00:40:27.568,-0.32,0.095
2021-08-19 00:40:27.572,-0.29,0.0
2021-08-19 00:40:27.576,-0.255,-0.08
2021-08-19 00:40:27.580,-0.29,-0.19
2021-08-19 00:40:27.584,-0.215,-0.33
2021-08-19 00:40:27.588,-0.24,-0.45
2021-08-19 00:40:27.592,-0.505,-0.375
2021-08-19 00:40:27.596,-0.89,-0.33
2021-08-19 00:40:27.600,-1.005,-0.41
2021-08-19 00:40:27.604,-1.27,-0.335
2021-08-19 00:40:27.608,-1.595,0.0
2021-08-19 00:40:27.612,-1.735,0.45
2021-08-19 00:40:27.616,-1.995,0.7
2021-08-19 00:40:27.652,-1.835,-1.3
2021-08-19 00:40:27.656,-1.64,-1.05
2021-08-19 00:40:27.660,-1.29,-0.91
2021-08-19 00:40:27.664,-0.96,-0.765
2021-08-19 00:40:27.668,-0.625,-0.63
2021-08-19 00:40:27.672,-0.45,-0.445
2021-08-19 00:40:27.676,-0.335,-0.3
2021-08-19 00:40:27.680,-0.305,-0.27
2021-08-19 00:40:27.684,-0.29,-0.205
2021-08-19 00:40:27.688,-0.235,-0.155
2021-08-19 00:40:27.692,-0.2,-0.14
2021-08-19 00:40:27.696,-0.185,-0.19
2021-08-19 00:40:27.700,-0.195,-0.215
2021-08-19 00:40:27.704,-0.17,-0.225
2021-08-19 00:40:27.708,-0.12,-0.195
2021-08-19 00:40:27.712,-0.045,-0.235
2021-08-19 00:40:27.716,-0.065,-0.225
2021-08-19 00:40:27.720,-0.115,-0.23
2021-08-19 00:40:27.724,-0.165,-0.205
2021-08-19 00:40:27.728,-0.185,-0.245
2021-08-19 00:40:27.732,-0.165,-0.315
2021-08-19 00:40:27.736,-0.17,-0.32
2021-08-19 00:40:27.740,-0.17,-0.345
2021-08-19 00:40:27.744,-0.18,-0.335
2021-08-19 00:40:27.748,-0.175,-0.3
2021-08-19 00:40:27.752,-0.085,-0.295
2021-08-19 00:40:27.756,-0.025,-0.32
2021-08-19 00:40:27.760,0.065,-0.265
2021-08-19 00:40:27.764,0.045,-0.27
2021-08-19 00:40:27.768,0.0,-0.25
2021-08-19 00:40:27.772,-0.05,-0.265
2021-08-19 00:40:27.776,0.01,-0.28
2021-08-19 00:40:27.780,0.095,-0.305
2021-08-19 00:40:27.784,0.235,-0.3
2021-08-19 00:40:27.788,0.285,-0.225
2021-08-19 00:40:27.792,0.305,-0.195
2021-08-19 00:40:27.796,0.37,-0.125
2021-08-19 00:40:27.800,0.425,-0.075
2021-08-19 00:40:27.804,0.49,-0.085
2021-08-19 00:40:27.808,0.565,-0.085
2021-08-19 00:40:27.812,0.655,-0.06
2021-08-19 00:40:27.816,0.685,-0.015
2021-08-19 00:40:27.820,0.775,0.015
2021-08-19 00:40:27.824,0.755,0.035
2021-08-19 00:40:27.828,0.74,0.075
2021-08-19 00:40:27.832,0.785,0.005
2021-08-19 00:40:27.836,0.88,-0.015
2021-08-19 00:40:27.840,0.93,0.05
2021-08-19 00:40:27.844,0.945,0.165
2021-08-19 00:40:27.848,0.91,0.2
2021-08-19 00:40:27.852,0.905,0.265
2021-08-19 00:40:27.856,0.91,0.275
2021-08-19 00:40:27.860,0.87,0.305
2021-08-19 00:40:27.864,0.84,0.355
2021-08-19 00:40:27.868,0.83,0.39
2021-08-19 00:40:27.872,0.795,0.445
2021-08-19 00:40:27.876,0.735,0.44
2021-08-19 00:40:27.880,0.695,0.475
2021-08-19 00:40:27.884,0.685,0.51
2021-08-19 00:40:27.888,0.67,0.47
2021-08-19 00:40:27.892,0.57,0.5
2021-08-19 00:40:27.896,0.46,0.5
2021-08-19 00:40:27.900,0.375,0.515
2021-08-19 00:40:27.904,0.31,0.49
2021-08-19 00:40:27.908,0.285,0.5
2021-08-19 00:40:27.912,0.245,0.49
2021-08-19 00:40:27.916,0.195,0.48
2021-08-19 00:40:27.920,0.11,0.43
2021-08-19 00:40:27.924,0.08,0.455
2021-08-19 00:40:27.928,0.03,0.415
2021-08-19 00:40:27.932,0.035,0.405
2021-08-19 00:40:27.936,0.02,0.43
2021-08-19 00:40:27.940,0.03,0.42
2021-08-19 00:40:27.944,0.035,0.335
2021-08-19 00:40:27.948,-0.015,0.32
2021-08-19 00:40:27.952,-0.085,0.315
2021-08-19 00:40:27.956,-0.12,0.305
2021-08-19 00:40:27.960,-0.075,0.305
2021-08-19 00:40:27.964,-0.03,0.27
2021-08-19 00:40:27.968,-0.035,0.255
2021-08-19 00:40:27.972,-0.085,0.23
2021-08-19 00:40:27.976,-0.165,0.225
2021-08-19 00:40:27.980,-0.195,0.19
2021-08-19 00:40:27.984,-0.155,0.14
2021-08-19 00:40:27.988,-0.115,0.135
2021-08-19 00:40:27.992,-0.16,0.14
2021-08-19 00:40:27.996,-0.255,0.12
2021-08-19 00:40:28.000,-0.36,0.075
2021-08-19 00:40:28.004,-0.385,0.025
2021-08-19 00:40:28.008,-0.375,-0.015
2021-08-19 00:40:28.012,-0.335,-0.125
2021-08-19 00:40:28.016,-0.32,-0.21
2021-08-19 00:40:28.020,-0.225,-0.295
2021-08-19 00:40:28.024,-0.225,-0.35
2021-08-19 00:40:28.028,-0.53,-0.295
2021-08-19 00:40:28.032,-0.795,-0.33
2021-08-19 00:40:28.036,-0.93,-0.38
2021-08-19 00:40:28.040,-1.36,-0.145
2021-08-19 00:40:28.044,-1.67,0.265
2021-08-19 00:40:28.048,-1.845,0.64
2021-08-19 00:40:28.088,-1.92,-1.3
2021-08-19 00:40:28.092,-1.51,-1.02
2021-08-19 00:40:28.096,-1.035,-0.925
2021-08-19 00:40:28.100,-0.68,-0.8
2021-08-19 00:40:28.104,-0.47,-0.595
2021-08-19 00:40:28.108,-0.405,-0.385
2021-08-19 00:40:28.112,-0.37,-0.22
2021-08-19 00:40:28.116,-0.335,-0.18
2021-08-19 00:40:28.120,-0.29,-0.14
2021-08-19 00:40:28.124,-0.215,-0.145
2021-08-19 00:40:28.128,-0.135,-0.185
2021-08-19 00:40:28.132,-0.16,-0.23
2021-08-19 00:40:28.136,-0.225,-0.23
2021-08-19 00:40:28.140,-0.22,-0.235
2021-08-19 00:40:28.144,-0.17,-0.255
2021-08-19 00:40:28.148,-0.155,-0.27
2021-08-19 00:40:28.152,-0.145,-0.265
2021-08-19 00:40:28.156,-0.17,-0.27
2021-08-19 00:40:28.160,-0.2,-0.275
2021-08-19 00:40:28.164,-0.21,-0.235
2021-08-19 00:40:28.168,-0.155,-0.265
2021-08-19 00:40:28.172,-0.13,-0.24
2021-08-19 00:40:28.176,-0.105,-0.25
2021-08-19 00:40:28.180,-0.12,-0.295
2021-08-19 00:40:28.184,-0.095,-0.335
2021-08-19 00:40:28.188,-0.09,-0.305
2021-08-19 00:40:28.192,-0.09,-0.235
2021-08-19 00:40:28.196,-0.125,-0.185
2021-08-19 00:40:28.200,-0.115,-0.175
2021-08-19 00:40:28.204,-0.08,-0.25
2021-08-19 00:40:28.208,-0.015,-0.26
2021-08-19 00:40:28.212,0.045,-0.305
2021-08-19 00:40:28.216,0.115,-0.26
2021-08-19 00:40:28.220,0.26,-0.205
2021-08-19 00:40:28.224,0.33,-0.135
2021-08-19 00:40:28.228,0.32,-0.08
2021-08-19 00:40:28.232,0.36,-0.065
2021-08-19 00:40:28.236,0.43,-0.005
2021-08-19 00:40:28.240,0.495,-0.045
2021-08-19 00:40:28.244,0.575,-0.06
2021-08-19 00:40:28.248,0.615,-0.035
2021-08-19 00:40:28.252,0.7,0.04
2021-08-19 00:40:28.256,0.755,0.05
2021-08-19 00:40:28.260,0.785,0.095
2021-08-19 00:40:28.264,0.79,0.08
2021-08-19 00:40:28.268,0.81,0.095
2021-08-19 00:40:28.272,0.8,0.185
2021-08-19 00:40:28.276,0.855,0.22
2021-08-19 00:40:28.280,0.88,0.25
2021-08-19 00:40:28.284,0.965,0.275
2021-08-19 00:40:28.288,0.955,0.31
2021-08-19 00:40:28.292,0.945,0.365
2021-08-19 00:40:28.296,0.9,0.44
2021-08-19 00:40:28.300,0.84,0.495
2021-08-19 00:40:28.304,0.825,0.43
2021-08-19 00:40:28.308,0.795,0.465
2021-08-19 00:40:28.312,0.72,0.505
2021-08-19 00:40:28.316,0.655,0.535
2021-08-19 00:40:28.320,0.63,0.53
2021-08-19 00:40:28.324,0.62,0.585
2021-08-19 00:40:28.328,0.55,0.605
2021-08-19 00:40:28.332,0.46,0.575
2021-08-19 00:40:28.336,0.365,0.55
2021-08-19 00:40:28.340,0.265,0.59
2021-08-19 00:40:28.344,0.235,0.58
2021-08-19 00:40:28.348,0.24,0.525
2021-08-19 00:40:28.352,0.245,0.535
2021-08-19 00:40:28.356,0.205,0.48
2021-08-19 00:40:28.360,0.145,0.465
2021-08-19 00:40:28.364,0.065,0.395
2021-08-19 00:40:28.368,0.05,0.395
2021-08-19 00:40:28.372,0.04,0.395
2021-08-19 00:40:28.376,0.065,0.44
2021-08-19 00:40:28.380,-0.005,0.455
2021-08-19 00:40:28.384,-0.015,0.4
2021-08-19 00:40:28.388,-0.035,0.335
2021-08-19 00:40:28.392,-0.045,0.37
2021-08-19 00:40:28.396,-0.05,0.335
2021-08-19 00:40:28.400,-0.06,0.305
2021-08-19 00:40:28.404,-0.06,0.265
2021-08-19 00:40:28.408,-0.055,0.295
2021-08-19 00:40:28.412,-0.06,0.32
2021-08-19 00:40:28.416,-0.07,0.26
2021-08-19 00:40:28.420,-0.065,0.22
2021-08-19 00:40:28.424,-0.14,0.17
2021-08-19 00:40:28.428,-0.205,0.175
2021-08-19 00:40:28.432,-0.265,0.125
2021-08-19 00:40:28.436,-0.305,0.09
2021-08-19 00:40:28.440,-0.32,0.055
2021-08-19 00:40:28.444,-0.295,-0.015
2021-08-19 00:40:28.448,-0.24,-0.14
2021-08-19 00:40:28.452,-0.14,-0.24
2021-08-19 00:40:28.456,-0.12,-0.4
2021-08-19 00:40:28.460,-0.39,-0.32
2021-08-19 00:40:28.464,-0.84,-0.235
2021-08-19 00:40:28.468,-1.075,-0.335
2021-08-19 00:40:28.472,-1.26,-0.33
2021-08-19 00:40:28.476,-1.64,-0.025
2021-08-19 00:40:28.480,-1.775,0.375
2021-08-19 00:40:28.484,-1.875,0.71
2021-08-19 00:40:28.524,-1.835,-1.14
2021-08-19 00:40:28.528,-1.395,-1.015
2021-08-19 00:40:28.532,-0.915,-0.975
2021-08-19 00:40:28.536,-0.61,-0.84
2021-08-19 00:40:28.540,-0.425,-0.58
2021-08-19 00:40:28.544,-0.355,-0.32
2021-08-19 00:40:28.548,-0.295,-0.255
2021-08-19 00:40:28.552,-0.225,-0.17
2021-08-19 00:40:28.556,-0.185,-0.16
2021-08-19 00:40:28.560,-0.16,-0.205
2021-08-19 00:40:28.564,-0.2,-0.15
2021-08-19 00:40:28.568,-0.22,-0.1
2021-08-19 00:40:28.572,-0.195,-0.135
2021-08-19 00:40:28.576,-0.095,-0.2
2021-08-19 00:40:28.580,-0.06,-0.25
2021-08-19 00:40:28.584,-0.09,-0.24
2021-08-19 00:40:28.588,-0.095,-0.265
2021-08-19 00:40:28.592,-0.1,-0.255
2021-08-19 00:40:28.596,-0.125,-0.245
2021-08-19 00:40:28.600,-0.14,-0.29
2021-08-19 00:40:28.604,-0.085,-0.265
2021-08-19 00:40:28.608,-0.085,-0.275
2021-08-19 00:40:28.612,-0.125,-0.31
2021-08-19 00:40:28.616,-0.185,-0.28
2021-08-19 00:40:28.620,-0.1,-0.365
2021-08-19 00:40:28.624,-0.06,-0.36
2021-08-19 00:40:28.628,-0.05,-0.39
2021-08-19 00:40:28.632,-0.075,-0.355
2021-08-19 00:40:28.636,-0.095,-0.26
2021-08-19 00:40:28.640,-0.035,-0.25
2021-08-19 00:40:28.644,0.035,-0.22
2021-08-19 00:40:28.648,0.07,-0.225
2021-08-19 00:40:28.652,0.115,-0.26
2021-08-19 00:40:28.656,0.15,-0.195
2021-08-19 00:40:28.660,0.225,-0.145
2021-08-19 00:40:28.664,0.345,-0.08
2021-08-19 00:40:28.668,0.42,-0.125
2021-08-19 00:40:28.672,0.485,-0.12
2021-08-19 00:40:28.676,0.535,-0.09
2021-08-19 00:40:28.680,0.565,-0.12
2021-08-19 00:40:28.684,0.58,-0.015
2021-08-19 00:40:28.688,0.62,0.05
2021-08-19 00:40:28.692,0.675,0.065
2021-08-19 00:40:28.696,0.73,0.055
2021-08-19 00:40:28.700,0.745,0.09
2021-08-19 00:40:28.704,0.775,0.14
2021-08-19 00:40:28.708,0.81,0.215
2021-08-19 00:40:28.712,0.905,0.245
2021-08-19 00:40:28.716,0.935,0.245
2021-08-19 00:40:28.720,0.935,0.32
2021-08-19 00:40:28.724,0.915,0.375
2021-08-19 00:40:28.728,0.84,0.4
2021-08-19 00:40:28.732,0.83,0.42
2021-08-19 00:40:28.736,0.77,0.485
2021-08-19 00:40:28.740,0.81,0.495
2021-08-19 00:40:28.744,0.775,0.495
2021-08-19 00:40:28.748,0.705,0.53
2021-08-19 00:40:28.752,0.66,0.595
2021-08-19 00:40:28.756,0.6,0.615
2021-08-19 00:40:28.760,0.52,0.62
2021-08-19 00:40:28.764,0.44,0.555
2021-08-19 00:40:28.768,0.44,0.515
2021-08-19 00:40:28.772,0.385,0.545
2021-08-19 00:40:28.776,0.305,0.535
2021-08-19 00:40:28.780,0.28,0.55
2021-08-19 00:40:28.784,0.27,0.515
2021-08-19 00:40:28.788,0.225,0.515
2021-08-19 00:40:28.792,0.085,0.44
2021-08-19 00:40:28.796,-0.005,0.425
2021-08-19 00:40:28.800,-0.025,0.455
2021-08-19 00:40:28.804,-0.06,0.475
2021-08-19 00:40:28.808,-0.07,0.48
2021-08-19 00:40:28.812,-0.075,0.455
2021-08-19 00:40:28.816,-0.04,0.44
2021-08-19 00:40:28.820,-0.045,0.4
2021-08-19 00:40:28.824,-0.04,0.39
2021-08-19 00:40:28.828,-0.005,0.26
2021-08-19 00:40:28.832,-0.025,0.265
2021-08-19 00:40:28.836,-0.05,0.265
2021-08-19 00:40:28.840,-0.045,0.27
2021-08-19 00:40:28.844,-0.06,0.335
2021-08-19 00:40:28.848,-0.09,0.295
2021-08-19 00:40:28.852,-0.105,0.245
2021-08-19 00:40:28.856,-0.1,0.25
2021-08-19 00:40:28.860,-0.12,0.21
2021-08-19 00:40:28.864,-0.215,0.2
2021-08-19 00:40:28.868,-0.28,0.19
2021-08-19 00:40:28.872,-0.38,0.22
2021-08-19 00:40:28.876,-0.365,0.15
2021-08-19 00:40:28.880,-0.28,-0.04
2021-08-19 00:40:28.884,-0.2,-0.225
2021-08-19 00:40:28.888,-0.235,-0.3
2021-08-19 00:40:28.892,-0.225,-0.365
2021-08-19 00:40:28.896,-0.48,-0.325
2021-08-19 00:40:28.900,-0.905,-0.18
2021-08-19 00:40:28.904,-1.135,-0.295
2021-08-19 00:40:28.908,-1.285,-0.265
2021-08-19 00:40:28.912,-1.585,0.01
2021-08-19 00:40:28.916,-1.79,0.47
2021-08-19 00:40:28.920,-1.96,0.8
2021-08-19 00:40:28.960,-1.925,-1.37
2021-08-19 00:40:28.964,-1.45,-1.16
2021-08-19 00:40:28.968,-0.975,-1.005
2021-08-19 00:40:28.972,-0.59,-0.71
2021-08-19 00:40:28.976,-0.42,-0.39
2021-08-19 00:40:28.980,-0.395,-0.17
2021-08-19 00:40:28.984,-0.33,-0.07
2021-08-19 00:40:28.988,-0.21,-0.005
2021-08-19 00:40:28.992,-0.2,-0.08
2021-08-19 00:40:28.996,-0.2,-0.055
2021-08-19 00:40:29.000,-0.185,-0.095
2021-08-19 00:40:29.004,-0.16,-0.13
2021-08-19 00:40:29.008,-0.15,-0.115
2021-08-19 00:40:29.012,-0.16,-0.09
2021-08-19 00:40:29.016,-0.13,-0.135
2021-08-19 00:40:29.020,-0.11,-0.1
2021-08-19 00:40:29.024,-0.095,-0.035
2021-08-19 00:40:29.028,-0.155,-0.08
2021-08-19 00:40:29.032,-0.16,-0.18
2021-08-19 00:40:29.036,-0.15,-0.14
2021-08-19 00:40:29.040,-0.12,-0.15
2021-08-19 00:40:29.044,-0.135,-0.14
2021-08-19 00:40:29.048,-0.13,-0.18
2021-08-19 00:40:29.052,-0.175,-0.18
2021-08-19 00:40:29.056,-0.16,-0.195
2021-08-19 00:40:29.060,-0.125,-0.19
2021-08-19 00:40:29.064,-0.08,-0.2
2021-08-19 00:40:29.068,-0.095,-0.14
2021-08-19 00:40:29.072,-0.14,-0.075
2021-08-19 00:40:29.076,-0.12,-0.095
2021-08-19 00:40:29.080,-0.06,-0.17
2021-08-19 00:40:29.084,0.03,-0.105
2021-08-19 00:40:29.088,0.125,-0.115
2021-08-19 00:40:29.092,0.19,-0.08
2021-08-19 00:40:29.096,0.265,-0.005
2021-08-19 00:40:29.100,0.25,0.04
2021-08-19 00:40:29.104,0.245,0.07
2021-08-19 00:40:29.108,0.365,0.175
2021-08-19 00:40:29.112,0.47,0.24
2021-08-19 00:40:29.116,0.545,0.2
2021-08-19 00:40:29.120,0.595,0.155
2021-08-19 00:40:29.124,0.67,0.245
2021-08-19 00:40:29.128,0.7,0.305
2021-08-19 00:40:29.132,0.65,0.28
2021-08-19 00:40:29.136,0.61,0.275
2021-08-19 00:40:29.140,0.7,0.3
2021-08-19 00:40:29.144,0.815,0.34
2021-08-19 00:40:29.148,0.83,0.36
2021-08-19 00:40:29.152,0.86,0.42
2021-08-19 00:40:29.156,0.87,0.495
2021-08-19 00:40:29.160,0.865,0.615
2021-08-19 00:40:29.164,0.82,0.69
2021-08-19 00:40:29.168,0.775,0.74
2021-08-19 00:40:29.172,0.775,0.74
2021-08-19 00:40:29.176,0.76,0.69
2021-08-19 00:40:29.180,0.73,0.685
2021-08-19 00:40:29.184,0.67,0.75
2021-08-19 00:40:29.188,0.53,0.665
2021-08-19 00:40:29.192,0.485,0.645
2021-08-19 00:40:29.196,0.455,0.645
2021-08-19 00:40:29.200,0.415,0.63
2021-08-19 00:40:29.204,0.28,0.645
2021-08-19 00:40:29.208,0.185,0.68
2021-08-19 00:40:29.212,0.15,0.605
2021-08-19 00:40:29.216,0.145,0.585
2021-08-19 00:40:29.220,0.14,0.635
2021-08-19 00:40:29.224,0.065,0.59
2021-08-19 00:40:29.228,0.005,0.645
2021-08-19 00:40:29.232,-0.015,0.61
2021-08-19 00:40:29.236,-0.045,0.425
2021-08-19 00:40:29.240,-0.015,0.335
2021-08-19 00:40:29.244,-0.015,0.385
2021-08-19 00:40:29.248,-0.13,0.405
2021-08-19 00:40:29.252,-0.16,0.455
2021-08-19 00:40:29.256,-0.175,0.42
2021-08-19 00:40:29.260,-0.185,0.345
2021-08-19 00:40:29.264,-0.215,0.355
2021-08-19 00:40:29.268,-0.18,0.355
2021-08-19 00:40:29.272,-0.14,0.35
2021-08-19 00:40:29.276,-0.13,0.285
2021-08-19 00:40:29.280,-0.12,0.285
2021-08-19 00:40:29.284,-0.16,0.315
2021-08-19 00:40:29.288,-0.17,0.31
2021-08-19 00:40:29.292,-0.19,0.235
2021-08-19 00:40:29.296,-0.19,0.265
2021-08-19 00:40:29.300,-0.22,0.25
2021-08-19 00:40:29.304,-0.34,0.255
2021-08-19 00:40:29.308,-0.325,0.255
2021-08-19 00:40:29.312,-0.31,0.165
2021-08-19 00:40:29.316,-0.36,0.06
2021-08-19 00:40:29.320,-0.43,-0.06
2021-08-19 00:40:29.324,-0.51,-0.155
2021-08-19 00:40:29.328,-0.46,-0.265
2021-08-19 00:40:29.332,-0.535,-0.305
2021-08-19 00:40:29.336,-0.95,-0.24
2021-08-19 00:40:29.340,-1.28,-0.265
2021-08-19 00:40:29.344,-1.425,-0.315
2021-08-19 00:40:29.348,-1.72,-0.165
2021-08-19 00:40:29.352,-1.83,0.22
2021-08-19 00:40:29.400,-1.78,-1.26
2021-08-19 00:40:29.404,-1.285,-1.035
2021-08-19 00:40:29.408,-0.835,-0.855
2021-08-19 00:40:29.412,-0.61,-0.56
2021-08-19 00:40:29.416,-0.46,-0.275
2021-08-19 00:40:29.420,-0.345,-0.12
2021-08-19 00:40:29.424,-0.285,-0.05
2021-08-19 00:40:29.428,-0.28,0.035
2021-08-19 00:40:29.432,-0.225,0.075
2021-08-19 00:40:29.436,-0.165,0.035
2021-08-19 00:40:29.440,-0.155,0.01
2021-08-19 00:40:29.444,-0.11,-0.035
2021-08-19 00:40:29.448,-0.09,-0.1
2021-08-19 00:40:29.452,-0.06,-0.1
2021-08-19 00:40:29.456,-0.065,-0.165
2021-08-19 00:40:29.460,-0.115,-0.105
2021-08-19 00:40:29.464,-0.165,-0.11
2021-08-19 00:40:29.468,-0.185,-0.12
2021-08-19 00:40:29.472,-0.12,-0.055
2021-08-19 00:40:29.476,-0.075,-0.06
2021-08-19 00:40:29.480,-0.07,-0.08
2021-08-19 00:40:29.484,-0.11,-0.09
2021-08-19 00:40:29.488,-0.105,-0.13
2021-08-19 00:40:29.492,-0.05,-0.14
2021-08-19 00:40:29.496,-0.045,-0.105
2021-08-19 00:40:29.500,-0.02,-0.095
2021-08-19 00:40:29.504,0.005,-0.1
2021-08-19 00:40:29.508,-0.02,-0.1
2021-08-19 00:40:29.512,-0.065,-0.09
2021-08-19 00:40:29.516,0.005,-0.04
2021-08-19 00:40:29.520,0.085,-0.03
2021-08-19 00:40:29.524,0.125,-0.045
2021-08-19 00:40:29.528,0.195,-0.025
2021-08-19 00:40:29.532,0.275,-0.06
2021-08-19 00:40:29.536,0.36,0.02
2021-08-19 00:40:29.540,0.415,0.085
2021-08-19 00:40:29.544,0.48,0.185
2021-08-19 00:40:29.548,0.57,0.255
2021-08-19 00:40:29.552,0.665,0.275
2021-08-19 00:40:29.556,0.665,0.28
2021-08-19 00:40:29.560,0.705,0.26
2021-08-19 00:40:29.564,0.705,0.285
2021-08-19 00:40:29.568,0.75,0.355
2021-08-19 00:40:29.572,0.74,0.34
2021-08-19 00:40:29.576,0.825,0.34
2021-08-19 00:40:29.580,0.86,0.36
2021-08-19 00:40:29.584,0.87,0.37
2021-08-19 00:40:29.588,0.915,0.445
2021-08-19 00:40:29.592,0.9,0.535
2021-08-19 00:40:29.596,0.94,0.6
2021-08-19 00:40:29.600,0.925,0.605
2021-08-19 00:40:29.604,0.885,0.635
2021-08-19 00:40:29.608,0.88,0.755
2021-08-19 00:40:29.612,0.82,0.75
2021-08-19 00:40:29.616,0.755,0.79
2021-08-19 00:40:29.620,0.685,0.8
2021-08-19 00:40:29.624,0.61,0.75
2021-08-19 00:40:29.628,0.515,0.76
2021-08-19 00:40:29.632,0.545,0.74
2021-08-19 00:40:29.636,0.49,0.775
2021-08-19 00:40:29.640,0.425,0.75
2021-08-19 00:40:29.644,0.37,0.725
2021-08-19 00:40:29.648,0.26,0.68
2021-08-19 00:40:29.652,0.17,0.71
2021-08-19 00:40:29.656,0.205,0.67
2021-08-19 00:40:29.660,0.175,0.655
2021-08-19 00:40:29.664,0.12,0.665
2021-08-19 00:40:29.668,0.02,0.665
2021-08-19 00:40:29.672,-0.035,0.6
2021-08-19 00:40:29.676,0.025,0.51
2021-08-19 00:40:29.680,0.035,0.485
2021-08-19 00:40:29.684,0.02,0.515
2021-08-19 00:40:29.688,0.015,0.52
2021-08-19 00:40:29.692,-0.01,0.52
2021-08-19 00:40:29.696,-0.015,0.5
2021-08-19 00:40:29.700,-0.025,0.515
2021-08-19 00:40:29.704,0.0,0.485
2021-08-19 00:40:29.708,-0.075,0.42
2021-08-19 00:40:29.712,-0.125,0.375
2021-08-19 00:40:29.716,-0.19,0.375
2021-08-19 00:40:29.720,-0.2,0.31
2021-08-19 00:40:29.724,-0.115,0.305
2021-08-19 00:40:29.728,-0.175,0.275
2021-08-19 00:40:29.732,-0.2,0.3
2021-08-19 00:40:29.736,-0.235,0.24
2021-08-19 00:40:29.740,-0.28,0.235
2021-08-19 00:40:29.744,-0.31,0.185
2021-08-19 00:40:29.748,-0.33,0.15
2021-08-19 00:40:29.752,-0.355,0.15
2021-08-19 00:40:29.756,-0.41,0.085
2021-08-19 00:40:29.760,-0.415,-0.03
2021-08-19 00:40:29.764,-0.425,-0.145
2021-08-19 00:40:29.768,-0.33,-0.24
2021-08-19 00:40:29.772,-0.36,-0.225
2021-08-19 00:40:29.776,-0.68,-0.09
2021-08-19 00:40:29.780,-0.85,-0.06
2021-08-19 00:40:29.784,-0.945,-0.155
2021-08-19 00:40:29.788,-1.2,-0.07
2021-08-19 00:40:29.792,-1.49,0.32
2021-08-19 00:40:29.796,-1.635,0.74
2021-08-19 00:40:29.800,-1.9,1.035
2021-08-19 00:40:29.840,-1.785,-1.17
2021-08-19 00:40:29.844,-1.32,-0.91
2021-08-19 00:40:29.848,-0.84,-0.745
2021-08-19 00:40:29.852,-0.595,-0.585
2021-08-19 00:40:29.856,-0.42,-0.325
2021-08-19 00:40:29.860,-0.29,-0.25
2021-08-19 00:40:29.864,-0.22,-0.15
2021-08-19 00:40:29.868,-0.175,-0.095
2021-08-19 00:40:29.872,-0.175,-0.055
2021-08-19 00:40:29.876,-0.12,-0.06
2021-08-19 00:40:29.880,-0.085,-0.055
2021-08-19 00:40:29.884,-0.05,-0.09
2021-08-19 00:40:29.888,0.02,-0.135
2021-08-19 00:40:29.892,-0.04,-0.085
2021-08-19 00:40:29.896,-0.095,-0.03
2021-08-19 00:40:29.900,-0.12,-0.025
2021-08-19 00:40:29.904,-0.09,-0.07
2021-08-19 00:40:29.908,-0.085,-0.07
2021-08-19 00:40:29.912,-0.05,-0.055
2021-08-19 00:40:29.916,-0.03,-0.06
2021-08-19 00:40:29.920,-0.175,-0.12
2021-08-19 00:40:29.924,-0.195,-0.17
2021-08-19 00:40:29.928,-0.13,-0.18
2021-08-19 00:40:29.932,-0.065,-0.21
2021-08-19 00:40:29.936,-0.015,-0.205
2021-08-19 00:40:29.940,0.025,-0.26
2021-08-19 00:40:29.944,0.05,-0.215
2021-08-19 00:40:29.948,0.02,-0.15
2021-08-19 00:40:29.952,-0.005,-0.11
2021-08-19 00:40:29.956,0.05,-0.135
2021-08-19 00:40:29.960,0.135,-0.12
2021-08-19 00:40:29.964,0.195,-0.15
2021-08-19 00:40:29.968,0.19,-0.16
2021-08-19 00:40:29.972,0.2,-0.15
2021-08-19 00:40:29.976,0.25,-0.08
2021-08-19 00:40:29.980,0.385,-0.01
2021-08-19 00:40:29.984,0.485,-0.005
2021-08-19 00:40:29.988,0.54,0.15
2021-08-19 00:40:29.992,0.61,0.12
2021-08-19 00:40:29.996,0.645,0.065
2021-08-19 00:40:30.000,0.695,0.02
2021-08-19 00:40:30.004,0.735,0.085
2021-08-19 00:40:30.008,0.77,0.155
2021-08-19 00:40:30.012,0.785,0.175
2021-08-19 00:40:30.016,0.82,0.185
2021-08-19 00:40:30.020,0.895,0.185
2021-08-19 00:40:30.024,0.94,0.165
2021-08-19 00:40:30.028,0.91,0.215
2021-08-19 00:40:30.032,0.93,0.315
2021-08-19 00:40:30.036,0.975,0.44
2021-08-19 00:40:30.040,0.92,0.495
2021-08-19 00:40:30.044,0.875,0.525
2021-08-19 00:40:30.048,0.83,0.57
2021-08-19 00:40:30.052,0.875,0.575
2021-08-19 00:40:30.056,0.89,0.565
2021-08-19 00:40:30.060,0.85,0.595
2021-08-19 00:40:30.064,0.725,0.63
2021-08-19 00:40:30.068,0.57,0.675
2021-08-19 00:40:30.072,0.47,0.655
2021-08-19 00:40:30.076,0.46,0.66
2021-08-19 00:40:30.080,0.47,0.605
2021-08-19 00:40:30.084,0.49,0.62
2021-08-19 00:40:30.088,0.41,0.63
2021-08-19 00:40:30.092,0.385,0.635
2021-08-19 00:40:30.096,0.385,0.67
2021-08-19 00:40:30.100,0.275,0.625
2021-08-19 00:40:30.104,0.145,0.57
2021-08-19 00:40:30.108,0.07,0.57
2021-08-19 00:40:30.112,0.02,0.54
2021-08-19 00:40:30.116,0.035,0.585
2021-08-19 00:40:30.120,0.035,0.555
2021-08-19 00:40:30.124,0.0,0.545
2021-08-19 00:40:30.128,0.02,0.53
2021-08-19 00:40:30.132,0.01,0.49
2021-08-19 00:40:30.136,0.02,0.495
2021-08-19 00:40:30.140,-0.015,0.49
2021-08-19 00:40:30.144,-0.03,0.46
2021-08-19 00:40:30.148,-0.13,0.39
2021-08-19 00:40:30.152,-0.145,0.325
2021-08-19 00:40:30.156,-0.135,0.305
2021-08-19 00:40:30.160,-0.115,0.32
2021-08-19 00:40:30.164,-0.11,0.325
2021-08-19 00:40:30.168,-0.105,0.315
2021-08-19 00:40:30.172,-0.145,0.3
2021-08-19 00:40:30.176,-0.15,0.28
2021-08-19 00:40:30.180,-0.195,0.28
2021-08-19 00:40:30.184,-0.16,0.29
2021-08-19 00:40:30.188,-0.235,0.255
2021-08-19 00:40:30.192,-0.41,0.15
2021-08-19 00:40:30.196,-0.47,0.06
2021-08-19 00:40:30.200,-0.46,-0.045
2021-08-19 00:40:30.204,-0.4,-0.105
2021-08-19 00:40:30.208,-0.345,-0.2
2021-08-19 00:40:30.212,-0.31,-0.245
2021-08-19 00:40:30.216,-0.605,-0.085
2021-08-19 00:40:30.220,-0.915,-0.055
2021-08-19 00:40:30.224,-0.98,-0.075
2021-08-19 00:40:30.228,-1.1,0.01
2021-08-19 00:40:30.232,-1.385,0.425
2021-08-19 00:40:30.236,-1.58,0.805
2021-08-19 00:40:30.240,-1.84,1.0
2021-08-19 00:40:30.276,-1.9,-1.475
2021-08-19 00:40:30.280,-1.585,-1.16
2021-08-19 00:40:30.284,-1.115,-0.91
2021-08-19 00:40:30.288,-0.78,-0.735
2021-08-19 00:40:30.292,-0.54,-0.46
2021-08-19 00:40:30.296,-0.41,-0.23
2021-08-19 00:40:30.300,-0.35,-0.09
2021-08-19 00:40:30.304,-0.31,-0.075
2021-08-19 00:40:30.308,-0.245,-0.09
2021-08-19 00:40:30.312,-0.195,-0.1
2021-08-19 00:40:30.316,-0.19,-0.09
2021-08-19 00:40:30.320,-0.205,-0.06
2021-08-19 00:40:30.324,-0.25,-0.065
2021-08-19 00:40:30.328,-0.235,-0.015
2021-08-19 00:40:30.332,-0.18,-0.055
2021-08-19 00:40:30.336,-0.155,-0.095
2021-08-19 00:40:30.340,-0.15,-0.11
2021-08-19 00:40:30.344,-0.11,-0.1
2021-08-19 00:40:30.348,-0.085,-0.06
2021-08-19 00:40:30.352,-0.065,-0.05
2021-08-19 00:40:30.356,-0.115,-0.14
2021-08-19 00:40:30.360,-0.125,-0.18
2021-08-19 00:40:30.364,-0.16,-0.155
2021-08-19 00:40:30.368,-0.18,-0.165
2021-08-19 00:40:30.372,-0.165,-0.13
2021-08-19 00:40:30.376,-0.15,-0.055
2021-08-19 00:40:30.380,-0.135,-0.05
2021-08-19 00:40:30.384,-0.095,-0.06
2021-08-19 00:40:30.388,0.035,-0.12
2021-08-19 00:40:30.392,0.05,-0.18
2021-08-19 00:40:30.396,0.075,-0.135
2021-08-19 00:40:30.400,0.03,-0.125
2021-08-19 00:40:30.404,0.0,-0.12
2021-08-19 00:40:30.408,0.07,-0.075
2021-08-19 00:40:30.412,0.205,-0.025
2021-08-19 00:40:30.416,0.305,-0.02
2021-08-19 00:40:30.420,0.345,-0.035
2021-08-19 00:40:30.424,0.38,0.09
2021-08-19 00:40:30.428,0.465,0.155
2021-08-19 00:40:30.432,0.51,0.2
2021-08-19 00:40:30.436,0.56,0.185
2021-08-19 00:40:30.440,0.61,0.11
2021-08-19 00:40:30.444,0.695,0.15
2021-08-19 00:40:30.448,0.785,0.215
2021-08-19 00:40:30.452,0.805,0.275
2021-08-19 00:40:30.456,0.72,0.315
2021-08-19 00:40:30.460,0.745,0.335
2021-08-19 00:40:30.464,0.805,0.35
2021-08-19 00:40:30.468,0.9,0.365
2021-08-19 00:40:30.472,0.945,0.425
2021-08-19 00:40:30.476,0.92,0.505
2021-08-19 00:40:30.480,0.915,0.53
2021-08-19 00:40:30.484,0.875,0.55
2021-08-19 00:40:30.488,0.84,0.63
2021-08-19 00:40:30.492,0.765,0.64
2021-08-19 00:40:30.496,0.75,0.66
2021-08-19 00:40:30.500,0.715,0.66
2021-08-19 00:40:30.504,0.645,0.66
2021-08-19 00:40:30.508,0.59,0.695
2021-08-19 00:40:30.512,0.54,0.755
2021-08-19 00:40:30.516,0.565,0.83
2021-08-19 00:40:30.520,0.44,0.805
2021-08-19 00:40:30.524,0.32,0.745
2021-08-19 00:40:30.528,0.305,0.69
2021-08-19 00:40:30.532,0.3,0.68
2021-08-19 00:40:30.536,0.29,0.695
2021-08-19 00:40:30.540,0.175,0.71
2021-08-19 00:40:30.544,0.07,0.655
2021-08-19 00:40:30.548,0.04,0.635
2021-08-19 00:40:30.552,0.035,0.7
2021-08-19 00:40:30.556,0.05,0.72
2021-08-19 00:40:30.560,0.02,0.61
2021-08-19 00:40:30.564,-0.015,0.62
2021-08-19 00:40:30.568,-0.065,0.58
2021-08-19 00:40:30.572,-0.1,0.53
2021-08-19 00:40:30.576,-0.1,0.515
2021-08-19 00:40:30.580,-0.08,0.51
2021-08-19 00:40:30.584,-0.02,0.605
2021-08-19 00:40:30.588,-0.075,0.565
2021-08-19 00:40:30.592,-0.13,0.52
2021-08-19 00:40:30.596,-0.05,0.545
2021-08-19 00:40:30.600,-0.03,0.495
2021-08-19 00:40:30.604,-0.12,0.435
2021-08-19 00:40:30.608,-0.2,0.425
2021-08-19 00:40:30.612,-0.24,0.345
2021-08-19 00:40:30.616,-0.205,0.36
2021-08-19 00:40:30.620,-0.185,0.35
2021-08-19 00:40:30.624,-0.21,0.395
2021-08-19 00:40:30.628,-0.27,0.4
2021-08-19 00:40:30.632,-0.335,0.38
2021-08-19 00:40:30.636,-0.39,0.31
2021-08-19 00:40:30.640,-0.4,0.175
2021-08-19 00:40:30.644,-0.39,0.07
2021-08-19 00:40:30.648,-0.335,0.0
2021-08-19 00:40:30.652,-0.24,-0.03
2021-08-19 00:40:30.656,-0.295,-0.08
2021-08-19 00:40:30.660,-0.635,0.055
2021-08-19 00:40:30.664,-0.87,0.04
2021-08-19 00:40:30.668,-0.9,0.07
2021-08-19 00:40:30.672,-1.16,0.28
2021-08-19 00:40:30.676,-1.485,0.805
2021-08-19 00:40:30.680,-1.68,1.245
2021-08-19 00:40:30.684,-1.925,1.225
2021-08-19 00:40:30.720,-1.89,-1.435
2021-08-19 00:40:30.724,-1.595,-1.1
2021-08-19 00:40:30.728,-1.185,-0.9
2021-08-19 00:40:30.732,-0.81,-0.69
2021-08-19 00:40:30.736,-0.5,-0.355
2021-08-19 00:40:30.740,-0.37,-0.085
2021-08-19 00:40:30.744,-0.28,0.085
2021-08-19 00:40:30.748,-0.205,0.125
2021-08-19 00:40:30.752,-0.225,0.085
2021-08-19 00:40:30.756,-0.225,0.035
2021-08-19 00:40:30.760,-0.25,0.04
2021-08-19 00:40:30.764,-0.255,0.015
2021-08-19 00:40:30.768,-0.245,0.055
2021-08-19 00:40:30.772,-0.205,0.06
2021-08-19 00:40:30.776,-0.18,0.055
2021-08-19 00:40:30.780,-0.145,0.02
2021-08-19 00:40:30.784,-0.145,0.005
2021-08-19 00:40:30.788,-0.23,0.025
2021-08-19 00:40:30.792,-0.22,0.015
2021-08-19 00:40:30.796,-0.18,0.0
2021-08-19 00:40:30.800,-0.205,0.07
2021-08-19 00:40:30.804,-0.18,0.055
2021-08-19 00:40:30.808,-0.155,0.08
2021-08-19 00:40:30.812,-0.12,0.055
2021-08-19 00:40:30.816,-0.105,0.0
2021-08-19 00:40:30.820,-0.14,-0.105
2021-08-19 00:40:30.824,-0.115,-0.095
2021-08-19 00:40:30.828,-0.04,-0.07
2021-08-19 00:40:30.832,-0.04,-0.065
2021-08-19 00:40:30.836,-0.02,0.005
2021-08-19 00:40:30.840,0.01,0.015
2021-08-19 00:40:30.844,-0.005,0.03
2021-08-19 00:40:30.848,0.005,0.105
2021-08-19 00:40:30.852,0.085,0.105
2021-08-19 00:40:30.856,0.17,0.125
2021-08-19 00:40:30.860,0.275,0.145
2021-08-19 00:40:30.864,0.31,0.23
2021-08-19 00:40:30.868,0.415,0.27
2021-08-19 00:40:30.872,0.53,0.28
2021-08-19 00:40:30.876,0.61,0.275
2021-08-19 00:40:30.880,0.595,0.31
2021-08-19 00:40:30.884,0.545,0.385
2021-08-19 00:40:30.888,0.495,0.46
2021-08-19 00:40:30.892,0.555,0.49
2021-08-19 00:40:30.896,0.68,0.525
2021-08-19 00:40:30.900,0.775,0.57
2021-08-19 00:40:30.904,0.915,0.525
2021-08-19 00:40:30.908,0.89,0.545
2021-08-19 00:40:30.912,0.82,0.55
2021-08-19 00:40:30.916,0.78,0.59
2021-08-19 00:40:30.920,0.83,0.675
2021-08-19 00:40:30.924,0.825,0.725
2021-08-19 00:40:30.928,0.795,0.82
2021-08-19 00:40:30.932,0.825,0.855
2021-08-19 00:40:30.936,0.79,0.875
2021-08-19 00:40:30.940,0.685,0.885
2021-08-19 00:40:30.944,0.67,0.925
2021-08-19 00:40:30.948,0.62,0.935
2021-08-19 00:40:30.952,0.54,0.965
2021-08-19 00:40:30.956,0.46,1.0
2021-08-19 00:40:30.960,0.45,0.965
2021-08-19 00:40:30.964,0.395,0.915
2021-08-19 00:40:30.968,0.355,0.845
2021-08-19 00:40:30.972,0.265,0.795
2021-08-19 00:40:30.976,0.215,0.75
2021-08-19 00:40:30.980,0.185,0.775
2021-08-19 00:40:30.984,0.135,0.805
2021-08-19 00:40:30.988,0.095,0.86
2021-08-19 00:40:30.992,0.06,0.815
2021-08-19 00:40:30.996,0.03,0.7
2021-08-19 00:40:31.000,-0.085,0.66
2021-08-19 00:40:31.004,-0.16,0.59
2021-08-19 00:40:31.008,-0.155,0.615
2021-08-19 00:40:31.012,-0.135,0.615
2021-08-19 00:40:31.016,-0.105,0.57
2021-08-19 00:40:31.020,-0.115,0.57
2021-08-19 00:40:31.024,-0.155,0.6
2021-08-19 00:40:31.028,-0.135,0.61
2021-08-19 00:40:31.032,-0.115,0.565
2021-08-19 00:40:31.036,-0.125,0.535
2021-08-19 00:40:31.040,-0.125,0.52
2021-08-19 00:40:31.044,-0.12,0.49
2021-08-19 00:40:31.048,-0.185,0.52
2021-08-19 00:40:31.052,-0.215,0.465
2021-08-19 00:40:31.056,-0.245,0.4
2021-08-19 00:40:31.060,-0.255,0.33
2021-08-19 00:40:31.064,-0.31,0.375
2021-08-19 00:40:31.068,-0.355,0.44
2021-08-19 00:40:31.072,-0.375,0.455
2021-08-19 00:40:31.076,-0.395,0.39
2021-08-19 00:40:31.080,-0.395,0.235
2021-08-19 00:40:31.084,-0.415,0.155
2021-08-19 00:40:31.088,-0.42,0.115
2021-08-19 00:40:31.092,-0.42,-0.03
2021-08-19 00:40:31.096,-0.365,-0.205
2021-08-19 00:40:31.100,-0.53,-0.24
2021-08-19 00:40:31.104,-0.97,-0.135
2021-08-19 00:40:31.108,-1.19,-0.105
2021-08-19 00:40:31.112,-1.34,0.0
2021-08-19 00:40:31.116,-1.62,0.325
2021-08-19 00:40:31.120,-1.775,0.755
2021-08-19 00:40:31.124,-1.945,1.03
2021-08-19 00:40:31.168,-1.485,-1.1
2021-08-19 00:40:31.172,-1.0,-0.91
2021-08-19 00:40:31.176,-0.71,-0.62
2021-08-19 00:40:31.180,-0.58,-0.25
2021-08-19 00:40:31.184,-0.525,-0.045
2021-08-19 00:40:31.188,-0.425,-0.05
2021-08-19 00:40:31.192,-0.385,-0.025
2021-08-19 00:40:31.196,-0.35,-0.03
2021-08-19 00:40:31.200,-0.305,0.055
2021-08-19 00:40:31.204,-0.265,0.12
2021-08-19 00:40:31.208,-0.23,0.085
2021-08-19 00:40:31.212,-0.22,-0.055
2021-08-19 00:40:31.216,-0.21,0.03
2021-08-19 00:40:31.220,-0.21,-0.005
2021-08-19 00:40:31.224,-0.15,-0.035
2021-08-19 00:40:31.228,-0.105,-0.09
2021-08-19 00:40:31.232,-0.15,-0.045
2021-08-19 00:40:31.236,-0.2,-0.03
2021-08-19 00:40:31.240,-0.275,-0.03
2021-08-19 00:40:31.244,-0.295,-0.04
2021-08-19 00:40:31.248,-0.315,-0.115
2021-08-19 00:40:31.252,-0.27,-0.06
2021-08-19 00:40:31.256,-0.22,-0.025
2021-08-19 00:40:31.260,-0.17,-0.07
2021-08-19 00:40:31.264,-0.155,-0.08
2021-08-19 00:40:31.268,-0.08,-0.1
2021-08-19 00:40:31.272,-0.09,-0.125
2021-08-19 00:40:31.276,-0.1,-0.07
2021-08-19 00:40:31.280,-0.11,-0.02
2021-08-19 00:40:31.284,-0.125,0.03
2021-08-19 00:40:31.288,-0.06,0.125
2021-08-19 00:40:31.292,0.015,0.125
2021-08-19 00:40:31.296,0.21,-0.01
2021-08-19 00:40:31.300,0.315,-0.07
2021-08-19 00:40:31.304,0.3,0.025
2021-08-19 00:40:31.308,0.335,0.105
2021-08-19 00:40:31.312,0.375,0.175
2021-08-19 00:40:31.316,0.41,0.255
2021-08-19 00:40:31.320,0.415,0.28
2021-08-19 00:40:31.324,0.425,0.345
2021-08-19 00:40:31.328,0.51,0.41
2021-08-19 00:40:31.332,0.58,0.375
2021-08-19 00:40:31.336,0.63,0.435
2021-08-19 00:40:31.340,0.625,0.41
2021-08-19 00:40:31.344,0.695,0.34
2021-08-19 00:40:31.348,0.765,0.39
2021-08-19 00:40:31.352,0.825,0.53
2021-08-19 00:40:31.356,0.875,0.59
2021-08-19 00:40:31.360,0.825,0.625
2021-08-19 00:40:31.364,0.8,0.685
2021-08-19 00:40:31.368,0.76,0.71
2021-08-19 00:40:31.372,0.725,0.765
2021-08-19 00:40:31.376,0.69,0.79
2021-08-19 00:40:31.380,0.66,0.85
2021-08-19 00:40:31.384,0.675,0.85
2021-08-19 00:40:31.388,0.64,0.77
2021-08-19 00:40:31.392,0.445,0.745
2021-08-19 00:40:31.396,0.32,0.725
2021-08-19 00:40:31.400,0.3,0.77
2021-08-19 00:40:31.404,0.275,0.785
2021-08-19 00:40:31.408,0.215,0.76
2021-08-19 00:40:31.412,0.21,0.83
2021-08-19 00:40:31.416,0.155,0.835
2021-08-19 00:40:31.420,0.14,0.765
2021-08-19 00:40:31.424,0.14,0.655
2021-08-19 00:40:31.428,0.035,0.635
2021-08-19 00:40:31.432,-0.02,0.71
2021-08-19 00:40:31.436,-0.05,0.68
2021-08-19 00:40:31.440,-0.13,0.6
2021-08-19 00:40:31.444,-0.14,0.565
2021-08-19 00:40:31.448,-0.175,0.62
2021-08-19 00:40:31.452,-0.155,0.565
2021-08-19 00:40:31.456,-0.15,0.525
2021-08-19 00:40:31.460,-0.17,0.485
2021-08-19 00:40:31.464,-0.2,0.435
2021-08-19 00:40:31.468,-0.175,0.345
2021-08-19 00:40:31.472,-0.21,0.345
2021-08-19 00:40:31.476,-0.225,0.41
2021-08-19 00:40:31.480,-0.27,0.405
2021-08-19 00:40:31.484,-0.32,0.42
2021-08-19 00:40:31.488,-0.25,0.37
2021-08-19 00:40:31.492,-0.225,0.345
2021-08-19 00:40:31.496,-0.235,0.37
2021-08-19 00:40:31.500,-0.33,0.37
2021-08-19 00:40:31.504,-0.355,0.31
2021-08-19 00:40:31.508,-0.305,0.315
2021-08-19 00:40:31.512,-0.33,0.38
2021-08-19 00:40:31.516,-0.38,0.42
2021-08-19 00:40:31.520,-0.42,0.32
2021-08-19 00:40:31.524,-0.45,0.155
2021-08-19 00:40:31.528,-0.47,-0.035
2021-08-19 00:40:31.532,-0.52,-0.21
2021-08-19 00:40:31.536,-0.525,-0.225
2021-08-19 00:40:31.540,-0.495,-0.255
2021-08-19 00:40:31.544,-0.645,-0.23
2021-08-19 00:40:31.548,-1.09,-0.145
2021-08-19 00:40:31.552,-1.29,-0.245
2021-08-19 00:40:31.556,-1.375,-0.16
2021-08-19 00:40:31.560,-1.655,0.19
2021-08-19 00:40:31.564,-1.82,0.625
2021-08-19 00:40:31.608,-1.88,-1.37
2021-08-19 00:40:31.612,-1.42,-1.13
2021-08-19 00:40:31.616,-0.96,-0.935
2021-08-19 00:40:31.620,-0.63,-0.61
2021-08-19 00:40:31.624,-0.455,-0.3
2021-08-19 00:40:31.628,-0.36,-0.08
2021-08-19 00:40:31.632,-0.285,0.01
2021-08-19 00:40:31.636,-0.315,0.03
2021-08-19 00:40:31.640,-0.335,-0.005
2021-08-19 00:40:31.644,-0.3,-0.02
2021-08-19 00:40:31.648,-0.2,-0.01
2021-08-19 00:40:31.652,-0.15,0.035
2021-08-19 00:40:31.656,-0.19,0.0
2021-08-19 00:40:31.660,-0.25,-0.015
2021-08-19 00:40:31.664,-0.29,-0.115
2021-08-19 00:40:31.668,-0.22,-0.105
2021-08-19 00:40:31.672,-0.195,-0.045
2021-08-19 00:40:31.676,-0.2,-0.04
2021-08-19 00:40:31.680,-0.2,-0.08
2021-08-19 00:40:31.684,-0.26,-0.115
2021-08-19 00:40:31.688,-0.27,-0.115
2021-08-19 00:40:31.692,-0.275,-0.1
2021-08-19 00:40:31.696,-0.175,-0.105
2021-08-19 00:40:31.700,-0.08,-0.065
2021-08-19 00:40:31.704,-0.05,-0.11
2021-08-19 00:40:31.708,-0.085,-0.16
2021-08-19 00:40:31.712,-0.16,-0.12
2021-08-19 00:40:31.716,-0.195,-0.06
2021-08-19 00:40:31.720,-0.14,-0.08
2021-08-19 00:40:31.724,-0.06,-0.075
2021-08-19 00:40:31.728,-0.03,-0.025
2021-08-19 00:40:31.732,-0.025,0.0
2021-08-19 00:40:31.736,0.04,0.015
2021-08-19 00:40:31.740,0.215,0.0
2021-08-19 00:40:31.744,0.415,-0.01
2021-08-19 00:40:31.748,0.465,-0.04
2021-08-19 00:40:31.752,0.48,0.055
2021-08-19 00:40:31.756,0.445,0.1
2021-08-19 00:40:31.760,0.445,0.155
2021-08-19 00:40:31.764,0.45,0.19
2021-08-19 00:40:31.768,0.5,0.17
2021-08-19 00:40:31.772,0.61,0.315
2021-08-19 00:40:31.776,0.665,0.495
2021-08-19 00:40:31.780,0.66,0.41
2021-08-19 00:40:31.784,0.69,0.265
2021-08-19 00:40:31.788,0.725,0.205
2021-08-19 00:40:31.792,0.83,0.305
2021-08-19 00:40:31.796,0.86,0.46
2021-08-19 00:40:31.800,0.86,0.57
2021-08-19 00:40:31.804,0.9,0.54
2021-08-19 00:40:31.808,0.88,0.575
2021-08-19 00:40:31.812,0.86,0.6
2021-08-19 00:40:31.816,0.82,0.635
2021-08-19 00:40:31.820,0.765,0.68
2021-08-19 00:40:31.824,0.69,0.695
2021-08-19 00:40:31.828,0.585,0.71
2021-08-19 00:40:31.832,0.51,0.735
2021-08-19 00:40:31.836,0.455,0.735
2021-08-19 00:40:31.840,0.445,0.72
2021-08-19 00:40:31.844,0.415,0.77
2021-08-19 00:40:31.848,0.325,0.735
2021-08-19 00:40:31.852,0.26,0.71
2021-08-19 00:40:31.856,0.21,0.72
2021-08-19 00:40:31.860,0.165,0.71
2021-08-19 00:40:31.864,0.055,0.655
2021-08-19 00:40:31.868,0.05,0.615
2021-08-19 00:40:31.872,0.02,0.59
2021-08-19 00:40:31.876,0.025,0.585
2021-08-19 00:40:31.880,0.065,0.565
2021-08-19 00:40:31.884,0.005,0.585
2021-08-19 00:40:31.888,-0.025,0.555
2021-08-19 00:40:31.892,-0.11,0.535
2021-08-19 00:40:31.896,-0.115,0.52
2021-08-19 00:40:31.900,-0.17,0.505
2021-08-19 00:40:31.904,-0.15,0.495
2021-08-19 00:40:31.908,-0.125,0.45
2021-08-19 00:40:31.912,-0.075,0.475
2021-08-19 00:40:31.916,-0.125,0.41
2021-08-19 00:40:31.920,-0.105,0.375
2021-08-19 00:40:31.924,-0.075,0.405
2021-08-19 00:40:31.928,-0.105,0.39
2021-08-19 00:40:31.932,-0.165,0.35
2021-08-19 00:40:31.936,-0.23,0.25
2021-08-19 00:40:31.940,-0.285,0.18
2021-08-19 00:40:31.944,-0.24,0.19
2021-08-19 00:40:31.948,-0.295,0.14
2021-08-19 00:40:31.952,-0.32,0.21
2021-08-19 00:40:31.956,-0.325,0.175
2021-08-19 00:40:31.960,-0.33,0.2
2021-08-19 00:40:31.964,-0.36,0.12
2021-08-19 00:40:31.968,-0.395,0.085
2021-08-19 00:40:31.972,-0.43,-0.025
2021-08-19 00:40:31.976,-0.455,-0.155
2021-08-19 00:40:31.980,-0.455,-0.265
2021-08-19 00:40:31.984,-0.59,-0.37
2021-08-19 00:40:31.988,-0.965,-0.31
2021-08-19 00:40:31.992,-1.245,-0.37
2021-08-19 00:40:31.996,-1.44,-0.36
2021-08-19 00:40:32.000,-1.8,-0.165
2021-08-19 00:40:32.004,-1.915,0.26
2021-08-19 00:40:32.052,-1.725,-1.15
2021-08-19 00:40:32.056,-1.25,-0.945
2021-08-19 00:40:32.060,-0.815,-0.85
2021-08-19 00:40:32.064,-0.545,-0.615
2021-08-19 00:40:32.068,-0.425,-0.4
2021-08-19 00:40:32.072,-0.385,-0.245
2021-08-19 00:40:32.076,-0.355,-0.235
2021-08-19 00:40:32.080,-0.35,-0.175
2021-08-19 00:40:32.084,-0.355,-0.135
2021-08-19 00:40:32.088,-0.305,-0.145
2021-08-19 00:40:32.092,-0.205,-0.15
2021-08-19 00:40:32.096,-0.125,-0.18
2021-08-19 00:40:32.100,-0.1,-0.195
2021-08-19 00:40:32.104,-0.13,-0.22
2021-08-19 00:40:32.108,-0.14,-0.205
2021-08-19 00:40:32.112,-0.19,-0.215
2021-08-19 00:40:32.116,-0.23,-0.195
2021-08-19 00:40:32.120,-0.24,-0.135
2021-08-19 00:40:32.124,-0.19,-0.155
2021-08-19 00:40:32.128,-0.105,-0.315
2021-08-19 00:40:32.132,-0.075,-0.405
2021-08-19 00:40:32.136,-0.15,-0.395
2021-08-19 00:40:32.140,-0.25,-0.37
2021-08-19 00:40:32.144,-0.285,-0.345
2021-08-19 00:40:32.148,-0.27,-0.28
2021-08-19 00:40:32.152,-0.205,-0.325
2021-08-19 00:40:32.156,-0.165,-0.305
2021-08-19 00:40:32.160,-0.105,-0.29
2021-08-19 00:40:32.164,-0.045,-0.245
2021-08-19 00:40:32.168,0.0,-0.185
2021-08-19 00:40:32.172,0.005,-0.15
2021-08-19 00:40:32.176,-0.005,-0.13
2021-08-19 00:40:32.180,0.05,-0.14
2021-08-19 00:40:32.184,0.22,-0.145
2021-08-19 00:40:32.188,0.285,-0.115
2021-08-19 00:40:32.192,0.305,-0.115
2021-08-19 00:40:32.196,0.38,-0.07
2021-08-19 00:40:32.200,0.425,0.015
2021-08-19 00:40:32.204,0.54,0.07
2021-08-19 00:40:32.208,0.62,0.08
2021-08-19 00:40:32.212,0.7,0.13
2021-08-19 00:40:32.216,0.685,0.15
2021-08-19 00:40:32.220,0.66,0.12
2021-08-19 00:40:32.224,0.665,0.085
2021-08-19 00:40:32.228,0.755,0.135
2021-08-19 00:40:32.232,0.835,0.235
2021-08-19 00:40:32.236,0.875,0.355
2021-08-19 00:40:32.240,0.88,0.4
2021-08-19 00:40:32.244,0.855,0.435
2021-08-19 00:40:32.248,0.815,0.49
2021-08-19 00:40:32.252,0.795,0.5
2021-08-19 00:40:32.256,0.76,0.5
2021-08-19 00:40:32.260,0.755,0.55
2021-08-19 00:40:32.264,0.715,0.56
2021-08-19 00:40:32.268,0.685,0.585
2021-08-19 00:40:32.272,0.65,0.635
2021-08-19 00:40:32.276,0.53,0.635
2021-08-19 00:40:32.280,0.41,0.66
2021-08-19 00:40:32.284,0.315,0.68
2021-08-19 00:40:32.288,0.315,0.59
2021-08-19 00:40:32.292,0.27,0.55
2021-08-19 00:40:32.296,0.25,0.535
2021-08-19 00:40:32.300,0.19,0.535
2021-08-19 00:40:32.304,0.225,0.455
2021-08-19 00:40:32.308,0.125,0.43
2021-08-19 00:40:32.312,0.085,0.43
2021-08-19 00:40:32.316,0.05,0.46
2021-08-19 00:40:32.320,0.045,0.41
2021-08-19 00:40:32.324,-0.03,0.485
2021-08-19 00:40:32.328,-0.05,0.48
2021-08-19 00:40:32.332,-0.08,0.48
2021-08-19 00:40:32.336,-0.075,0.485
2021-08-19 00:40:32.340,-0.03,0.375
2021-08-19 00:40:32.344,0.11,0.36
2021-08-19 00:40:32.348,0.08,0.315
2021-08-19 00:40:32.352,0.0,0.42
2021-08-19 00:40:32.356,-0.14,0.48
2021-08-19 00:40:32.360,-0.27,0.375
2021-08-19 00:40:32.364,-0.26,0.3
2021-08-19 00:40:32.368,-0.25,0.255
2021-08-19 00:40:32.372,-0.29,0.205
2021-08-19 00:40:32.376,-0.32,0.245
2021-08-19 00:40:32.380,-0.34,0.175
2021-08-19 00:40:32.384,-0.255,0.185
2021-08-19 00:40:32.388,-0.185,0.165
2021-08-19 00:40:32.392,-0.175,0.155
2021-08-19 00:40:32.396,-0.22,0.18
2021-08-19 00:40:32.400,-0.29,0.23
2021-08-19 00:40:32.404,-0.33,0.23
2021-08-19 00:40:32.408,-0.31,0.185
2021-08-19 00:40:32.412,-0.345,0.015
2021-08-19 00:40:32.416,-0.4,-0.105
2021-08-19 00:40:32.420,-0.425,-0.24
2021-08-19 00:40:32.424,-0.34,-0.345
2021-08-19 00:40:32.428,-0.535,-0.33
2021-08-19 00:40:32.432,-0.885,-0.255
2021-08-19 00:40:32.436,-0.945,-0.345
2021-08-19 00:40:32.440,-1.06,-0.38
2021-08-19 00:40:32.444,-1.545,-0.125
2021-08-19 00:40:32.448,-1.88,0.31
2021-08-19 00:40:32.496,-1.665,-1.2
2021-08-19 00:40:32.500,-1.165,-1.015
2021-08-19 00:40:32.504,-0.78,-0.875
2021-08-19 00:40:32.508,-0.54,-0.665
2021-08-19 00:40:32.512,-0.37,-0.425
2021-08-19 00:40:32.516,-0.29,-0.27
2021-08-19 00:40:32.520,-0.245,-0.24
2021-08-19 00:40:32.524,-0.245,-0.215
2021-08-19 00:40:32.528,-0.22,-0.205
2021-08-19 00:40:32.532,-0.2,-0.185
2021-08-19 00:40:32.536,-0.14,-0.115
2021-08-19 00:40:32.540,-0.08,-0.13
2021-08-19 00:40:32.544,0.0,-0.175
2021-08-19 00:40:32.548,0.09,-0.255
2021-08-19 00:40:32.552,0.095,-0.265
2021-08-19 00:40:32.556,-0.11,-0.255
2021-08-19 00:40:32.560,-0.235,-0.215
2021-08-19 00:40:32.564,-0.275,-0.23
2021-08-19 00:40:32.568,-0.2,-0.195
2021-08-19 00:40:32.572,-0.075,-0.24
2021-08-19 00:40:32.576,0.015,-0.305
2021-08-19 00:40:32.580,-0.025,-0.34
2021-08-19 00:40:32.584,-0.125,-0.315
2021-08-19 00:40:32.588,-0.205,-0.215
2021-08-19 00:40:32.592,-0.155,-0.19
2021-08-19 00:40:32.596,0.015,-0.275
2021-08-19 00:40:32.600,0.185,-0.305
2021-08-19 00:40:32.604,0.25,-0.38
2021-08-19 00:40:32.608,0.18,-0.395
2021-08-19 00:40:32.612,0.11,-0.335
2021-08-19 00:40:32.616,0.155,-0.285
2021-08-19 00:40:32.620,0.25,-0.25
2021-08-19 00:40:32.624,0.275,-0.225
2021-08-19 00:40:32.628,0.35,-0.11
2021-08-19 00:40:32.632,0.375,-0.06
2021-08-19 00:40:32.636,0.53,0.03
2021-08-19 00:40:32.640,0.64,0.065
2021-08-19 00:40:32.644,0.66,0.065
2021-08-19 00:40:32.648,0.625,0.045
2021-08-19 00:40:32.652,0.62,-0.01
2021-08-19 00:40:32.656,0.67,0.03
2021-08-19 00:40:32.660,0.76,0.04
2021-08-19 00:40:32.664,0.84,0.015
2021-08-19 00:40:32.668,0.99,-0.005
2021-08-19 00:40:32.672,1.035,0.03
2021-08-19 00:40:32.676,1.015,0.13
2021-08-19 00:40:32.680,1.005,0.27
2021-08-19 00:40:32.684,1.03,0.315
2021-08-19 00:40:32.688,1.025,0.325
2021-08-19 00:40:32.692,0.99,0.35
2021-08-19 00:40:32.696,0.94,0.375
2021-08-19 00:40:32.700,0.86,0.385
2021-08-19 00:40:32.704,0.825,0.42
2021-08-19 00:40:32.708,0.89,0.49
2021-08-19 00:40:32.712,0.905,0.595
2021-08-19 00:40:32.716,0.845,0.695
2021-08-19 00:40:32.720,0.735,0.625
2021-08-19 00:40:32.724,0.63,0.495
2021-08-19 00:40:32.728,0.41,0.47
2021-08-19 00:40:32.732,0.285,0.405
2021-08-19 00:40:32.736,0.225,0.445
2021-08-19 00:40:32.740,0.215,0.435
2021-08-19 00:40:32.744,0.205,0.395
2021-08-19 00:40:32.748,0.2,0.43
2021-08-19 00:40:32.752,0.2,0.45
2021-08-19 00:40:32.756,0.165,0.45
2021-08-19 00:40:32.760,0.215,0.41
2021-08-19 00:40:32.764,0.16,0.345
2021-08-19 00:40:32.768,0.09,0.275
2021-08-19 00:40:32.772,0.0,0.27
2021-08-19 00:40:32.776,-0.03,0.32
2021-08-19 00:40:32.780,-0.03,0.36
2021-08-19 00:40:32.784,0.0,0.37
2021-08-19 00:40:32.788,0.055,0.34
2021-08-19 00:40:32.792,0.085,0.29
2021-08-19 00:40:32.796,0.12,0.225
2021-08-19 00:40:32.800,0.175,0.17
2021-08-19 00:40:32.804,0.125,0.125
2021-08-19 00:40:32.808,-0.02,0.195
2021-08-19 00:40:32.812,-0.135,0.25
2021-08-19 00:40:32.816,-0.175,0.255
2021-08-19 00:40:32.820,-0.135,0.25
2021-08-19 00:40:32.824,-0.075,0.13
2021-08-19 00:40:32.828,0.005,0.065
2021-08-19 00:40:32.832,0.055,-0.015
2021-08-19 00:40:32.836,0.005,-0.02
2021-08-19 00:40:32.840,-0.095,-0.03
2021-08-19 00:40:32.844,-0.17,-0.015
2021-08-19 00:40:32.848,-0.21,-0.045
2021-08-19 00:40:32.852,-0.22,-0.095
2021-08-19 00:40:32.856,-0.185,-0.13
2021-08-19 00:40:32.860,-0.19,-0.18
2021-08-19 00:40:32.864,-0.18,-0.275
2021-08-19 00:40:32.868,-0.16,-0.42
2021-08-19 00:40:32.872,-0.57,-0.38
2021-08-19 00:40:32.876,-0.97,-0.46
2021-08-19 00:40:32.880,-1.05,-0.51
2021-08-19 00:40:32.884,-1.285,-0.36
2021-08-19 00:40:32.888,-1.415,0.065
2021-08-19 00:40:32.892,-1.48,0.42
2021-08-19 00:40:32.896,-1.735,0.67
2021-08-19 00:40:32.936,-1.695,-1.395
2021-08-19 00:40:32.940,-1.325,-1.16
2021-08-19 00:40:32.944,-0.92,-1.0
2021-08-19 00:40:32.948,-0.62,-0.89
2021-08-19 00:40:32.952,-0.415,-0.64
2021-08-19 00:40:32.956,-0.275,-0.47
2021-08-19 00:40:32.960,-0.2,-0.365
2021-08-19 00:40:32.964,-0.16,-0.32
2021-08-19 00:40:32.968,-0.16,-0.325
2021-08-19 00:40:32.972,-0.17,-0.285
2021-08-19 00:40:32.976,-0.13,-0.32
2021-08-19 00:40:32.980,-0.075,-0.32
2021-08-19 00:40:32.984,0.0,-0.335
2021-08-19 00:40:32.988,0.0,-0.36
2021-08-19 00:40:32.992,-0.01,-0.385
2021-08-19 00:40:32.996,-0.025,-0.365
2021-08-19 00:40:33.000,-0.015,-0.39
2021-08-19 00:40:33.004,-0.02,-0.38
2021-08-19 00:40:33.008,0.015,-0.375
2021-08-19 00:40:33.012,0.055,-0.445
2021-08-19 00:40:33.016,0.025,-0.45
2021-08-19 00:40:33.020,-0.05,-0.445
2021-08-19 00:40:33.024,-0.065,-0.485
2021-08-19 00:40:33.028,0.0,-0.48
2021-08-19 00:40:33.032,0.08,-0.465
2021-08-19 00:40:33.036,0.115,-0.445
2021-08-19 00:40:33.040,0.055,-0.46
2021-08-19 00:40:33.044,0.055,-0.435
2021-08-19 00:40:33.048,0.09,-0.43
2021-08-19 00:40:33.052,0.165,-0.435
2021-08-19 00:40:33.056,0.21,-0.485
2021-08-19 00:40:33.060,0.27,-0.455
2021-08-19 00:40:33.064,0.3,-0.42
2021-08-19 00:40:33.068,0.37,-0.43
2021-08-19 00:40:33.072,0.49,-0.42
2021-08-19 00:40:33.076,0.56,-0.34
2021-08-19 00:40:33.080,0.62,-0.29
2021-08-19 00:40:33.084,0.615,-0.26
2021-08-19 00:40:33.088,0.655,-0.25
2021-08-19 00:40:33.092,0.755,-0.205
2021-08-19 00:40:33.096,0.86,-0.205
2021-08-19 00:40:33.100,0.9,-0.175
2021-08-19 00:40:33.104,0.89,-0.24
2021-08-19 00:40:33.108,0.885,-0.195
2021-08-19 00:40:33.112,0.91,-0.195
2021-08-19 00:40:33.116,0.94,-0.16
2021-08-19 00:40:33.120,0.99,-0.13
2021-08-19 00:40:33.124,1.065,-0.075
2021-08-19 00:40:33.128,1.05,0.03
2021-08-19 00:40:33.132,1.025,0.105
2021-08-19 00:40:33.136,1.0,0.215
2021-08-19 00:40:33.140,0.955,0.22
2021-08-19 00:40:33.144,0.94,0.185
2021-08-19 00:40:33.148,0.91,0.21
2021-08-19 00:40:33.152,0.845,0.175
2021-08-19 00:40:33.156,0.78,0.17
2021-08-19 00:40:33.160,0.73,0.135
2021-08-19 00:40:33.164,0.715,0.195
2021-08-19 00:40:33.168,0.68,0.235
2021-08-19 00:40:33.172,0.615,0.255
2021-08-19 00:40:33.176,0.52,0.285
2021-08-19 00:40:33.180,0.45,0.225
2021-08-19 00:40:33.184,0.38,0.19
2021-08-19 00:40:33.188,0.37,0.195
2021-08-19 00:40:33.192,0.305,0.21
2021-08-19 00:40:33.196,0.26,0.205
2021-08-19 00:40:33.200,0.17,0.2
2021-08-19 00:40:33.204,0.11,0.2
2021-08-19 00:40:33.208,0.075,0.19
2021-08-19 00:40:33.212,0.1,0.245
2021-08-19 00:40:33.216,0.105,0.275
2021-08-19 00:40:33.220,0.135,0.135
2021-08-19 00:40:33.224,0.115,0.04
2021-08-19 00:40:33.228,0.09,-0.005
2021-08-19 00:40:33.232,0.035,-0.06
2021-08-19 00:40:33.236,0.045,-0.06
2021-08-19 00:40:33.240,0.07,-0.05
2021-08-19 00:40:33.244,0.025,-0.075
2021-08-19 00:40:33.248,0.0,-0.125
2021-08-19 00:40:33.252,0.05,-0.15
2021-08-19 00:40:33.256,0.05,-0.205
2021-08-19 00:40:33.260,0.045,-0.2
2021-08-19 00:40:33.264,0.04,-0.175
2021-08-19 00:40:33.268,0.015,-0.25
2021-08-19 00:40:33.272,-0.01,-0.3
2021-08-19 00:40:33.276,-0.03,-0.31
2021-08-19 00:40:33.280,-0.025,-0.355
2021-08-19 00:40:33.284,-0.06,-0.44
2021-08-19 00:40:33.288,-0.15,-0.465
2021-08-19 00:40:33.292,-0.23,-0.43
2021-08-19 00:40:33.296,-0.235,-0.5
2021-08-19 00:40:33.300,-0.21,-0.555
2021-08-19 00:40:33.304,-0.2,-0.575
2021-08-19 00:40:33.308,-0.11,-0.625
2021-08-19 00:40:33.312,-0.08,-0.805
2021-08-19 00:40:33.316,-0.215,-0.81
2021-08-19 00:40:33.320,-0.535,-0.785
2021-08-19 00:40:33.324,-0.57,-0.915
2021-08-19 00:40:33.328,-0.575,-0.965
2021-08-19 00:40:33.332,-0.945,-0.68
2021-08-19 00:40:33.336,-1.19,-0.275
2021-08-19 00:40:33.340,-1.49,0.14
2021-08-19 00:40:33.344,-1.86,0.015
2021-08-19 00:40:33.388,-0.99,-2.0
2021-08-19 00:40:33.392,-0.645,-1.845
2021-08-19 00:40:33.396,-0.435,-1.65
2021-08-19 00:40:33.400,-0.29,-1.46
2021-08-19 00:40:33.404,-0.235,-1.36
2021-08-19 00:40:33.408,-0.16,-1.26
2021-08-19 00:40:33.412,-0.22,-1.275
2021-08-19 00:40:33.416,-0.18,-1.39
2021-08-19 00:40:33.420,-0.115,-1.46
2021-08-19 00:40:33.424,-0.105,-1.38
2021-08-19 00:40:33.428,-0.135,-1.43
2021-08-19 00:40:33.432,-0.19,-1.555
2021-08-19 00:40:33.436,-0.14,-1.615
2021-08-19 00:40:33.440,-0.02,-1.6
2021-08-19 00:40:33.444,-0.025,-1.61
2021-08-19 00:40:33.448,-0.055,-1.635
2021-08-19 00:40:33.452,-0.135,-1.655
2021-08-19 00:40:33.456,-0.11,-1.68
2021-08-19 00:40:33.460,-0.07,-1.81
2021-08-19 00:40:33.464,-0.08,-1.905
2021-08-19 00:40:33.468,-0.05,-1.855
2021-08-19 00:40:33.472,-0.045,-1.87
2021-08-19 00:40:33.476,-0.04,-1.925
2021-08-19 00:40:33.480,-0.02,-1.955
2021-08-19 00:40:33.484,0.0,-1.935
2021-08-19 00:40:33.488,0.075,-1.98
2021-08-19 00:40:33.500,0.11,-1.99
2021-08-19 00:40:33.520,0.305,-1.97
2021-08-19 00:40:33.524,0.41,-1.96
2021-08-19 00:40:33.528,0.5,-1.875
2021-08-19 00:40:33.532,0.565,-1.83
2021-08-19 00:40:33.536,0.655,-1.915
2021-08-19 00:40:33.540,0.76,-1.995
2021-08-19 00:40:33.552,0.88,-1.985
2021-08-19 00:40:33.556,0.83,-1.97
2021-08-19 00:40:33.560,0.885,-1.965
2021-08-19 00:40:33.564,0.91,-1.9
2021-08-19 00:40:33.568,0.94,-1.85
2021-08-19 00:40:33.572,0.905,-1.775
2021-08-19 00:40:33.576,0.89,-1.68
2021-08-19 00:40:33.580,0.86,-1.54
2021-08-19 00:40:33.584,0.845,-1.475
2021-08-19 00:40:33.588,0.885,-1.47
2021-08-19 00:40:33.592,0.905,-1.71
2021-08-19 00:40:33.596,0.915,-1.925
2021-08-19 00:40:33.600,0.925,-1.855
2021-08-19 00:40:33.604,0.86,-1.745
2021-08-19 00:40:33.608,0.76,-1.725
2021-08-19 00:40:33.612,0.69,-1.64
2021-08-19 00:40:33.616,0.635,-1.575
2021-08-19 00:40:33.620,0.605,-1.615
2021-08-19 00:40:33.624,0.525,-1.625
2021-08-19 00:40:33.628,0.48,-1.6
2021-08-19 00:40:33.632,0.41,-1.545
2021-08-19 00:40:33.636,0.37,-1.54
2021-08-19 00:40:33.640,0.34,-1.555
2021-08-19 00:40:33.644,0.26,-1.55
2021-08-19 00:40:33.648,0.23,-1.57
2021-08-19 00:40:33.652,0.2,-1.55
2021-08-19 00:40:33.656,0.165,-1.52
2021-08-19 00:40:33.660,0.15,-1.6
2021-08-19 00:40:33.664,0.115,-1.595
2021-08-19 00:40:33.668,0.135,-1.615
2021-08-19 00:40:33.672,0.1,-1.6
2021-08-19 00:40:33.676,0.105,-1.57
2021-08-19 00:40:33.680,0.07,-1.595
2021-08-19 00:40:33.684,0.05,-1.65
2021-08-19 00:40:33.688,0.055,-1.665
2021-08-19 00:40:33.692,0.045,-1.62
2021-08-19 00:40:33.696,0.055,-1.675
2021-08-19 00:40:33.700,0.045,-1.66
2021-08-19 00:40:33.704,0.015,-1.7
2021-08-19 00:40:33.708,-0.02,-1.64
2021-08-19 00:40:33.712,-0.005,-1.675
2021-08-19 00:40:33.716,0.03,-1.775
2021-08-19 00:40:33.720,0.035,-1.805
2021-08-19 00:40:33.724,0.0,-1.755
2021-08-19 00:40:33.728,-0.065,-1.72
2021-08-19 00:40:33.732,-0.11,-1.76
2021-08-19 00:40:33.736,-0.165,-1.765
2021-08-19 00:40:33.740,-0.235,-1.84
2021-08-19 00:40:33.744,-0.2,-1.835
2021-08-19 00:40:33.748,-0.2,-1.905
2021-08-19 00:40:33.752,-0.15,-1.925
2021-08-19 00:40:33.780,-0.985,-1.605
2021-08-19 00:40:33.784,-1.215,-1.265
2021-08-19 00:40:33.788,-1.54,-1.16
2021-08-19 00:40:33.792,-1.925,-1.56
2021-08-19 00:40:33.852,-0.245,-1.925
2021-08-19 00:40:33.856,-0.215,-2.0
2021-08-19 00:40:33.864,-0.115,-1.965
2021-08-19 00:40:33.868,-0.11,-1.99
2021-08-19 00:40:33.876,-0.115,-1.99
2021-08-19 00:40:33.880,-0.09,-1.98
2021-08-19 00:40:33.884,-0.09,-1.97
2021-08-19 00:40:33.888,-0.12,-1.96
2021-08-19 00:40:33.892,-0.15,-1.96
2021-08-19 00:40:33.896,-0.14,-1.99
2021-08-19 00:40:33.900,-0.15,-1.99
2021-08-19 00:40:33.904,-0.15,-2.0
2021-08-19 00:40:33.908,-0.16,-1.995
2021-08-19 00:40:33.912,-0.145,-2.0
2021-08-19 00:40:33.916,-0.145,-1.99
2021-08-19 00:40:33.928,-0.08,-1.995
2021-08-19 00:40:33.932,-0.085,-2.0
2021-08-19 00:40:33.936,-0.05,-1.965
2021-08-19 00:40:33.940,-0.03,-1.965
2021-08-19 00:40:33.944,0.005,-1.925
2021-08-19 00:40:33.948,0.03,-1.91
2021-08-19 00:40:33.952,0.095,-1.895
2021-08-19 00:40:33.956,0.11,-1.895
2021-08-19 00:40:33.960,0.16,-1.895
2021-08-19 00:40:33.964,0.2,-1.845
2021-08-19 00:40:33.968,0.29,-1.79
2021-08-19 00:40:33.972,0.35,-1.715
2021-08-19 00:40:33.976,0.415,-1.685
2021-08-19 00:40:33.980,0.485,-1.66
2021-08-19 00:40:33.984,0.535,-1.695
2021-08-19 00:40:33.988,0.625,-1.61
2021-08-19 00:40:33.992,0.71,-1.555
2021-08-19 00:40:33.996,0.775,-1.57
2021-08-19 00:40:34.000,0.79,-1.53
2021-08-19 00:40:34.004,0.77,-1.54
2021-08-19 00:40:34.008,0.83,-1.52
2021-08-19 00:40:34.012,0.88,-1.43
2021-08-19 00:40:34.016,0.925,-1.395
2021-08-19 00:40:34.020,0.945,-1.305
2021-08-19 00:40:34.024,0.935,-1.255
2021-08-19 00:40:34.028,0.91,-1.205
2021-08-19 00:40:34.032,0.92,-1.185
2021-08-19 00:40:34.036,0.9,-1.155
2021-08-19 00:40:34.040,0.84,-1.13
2021-08-19 00:40:34.044,0.855,-1.09
2021-08-19 00:40:34.048,0.8,-1.03
2021-08-19 00:40:34.052,0.72,-1.01
2021-08-19 00:40:34.056,0.66,-0.995
2021-08-19 00:40:34.060,0.595,-0.98
2021-08-19 00:40:34.064,0.55,-0.965
2021-08-19 00:40:34.068,0.51,-0.99
2021-08-19 00:40:34.072,0.48,-0.96
2021-08-19 00:40:34.076,0.395,-0.915
2021-08-19 00:40:34.080,0.34,-0.93
2021-08-19 00:40:34.084,0.33,-0.95
2021-08-19 00:40:34.088,0.28,-0.945
2021-08-19 00:40:34.092,0.24,-0.97
2021-08-19 00:40:34.096,0.19,-0.955
2021-08-19 00:40:34.100,0.13,-0.935
2021-08-19 00:40:34.104,0.085,-0.965
2021-08-19 00:40:34.108,0.1,-0.935
2021-08-19 00:40:34.112,0.07,-0.97
2021-08-19 00:40:34.116,0.055,-0.985
2021-08-19 00:40:34.120,0.06,-0.965
2021-08-19 00:40:34.124,0.06,-0.975
2021-08-19 00:40:34.128,0.055,-0.95
2021-08-19 00:40:34.132,0.045,-0.96
2021-08-19 00:40:34.136,0.025,-0.95
2021-08-19 00:40:34.140,0.04,-0.99
2021-08-19 00:40:34.144,0.03,-0.975
2021-08-19 00:40:34.148,0.01,-0.97
2021-08-19 00:40:34.152,0.01,-0.92
2021-08-19 00:40:34.156,0.025,-0.945
2021-08-19 00:40:34.160,0.0,-0.945
2021-08-19 00:40:34.164,-0.04,-0.95
