Time,ECG1,ECG2
2021-08-01 00:43:45.000,-0.265,-0.1
2021-08-01 00:43:45.004,-0.265,-0.11
2021-08-01 00:43:45.008,-0.23,-0.09
2021-08-01 00:43:45.012,-0.23,-0.1
2021-08-01 00:43:45.016,-0.24,-0.09
2021-08-01 00:43:45.020,-0.245,-0.12
2021-08-01 00:43:45.024,-0.205,-0.095
2021-08-01 00:43:45.028,-0.205,-0.105
2021-08-01 00:43:45.032,-0.205,-0.085
2021-08-01 00:43:45.036,-0.245,-0.105
2021-08-01 00:43:45.040,-0.215,-0.105
2021-08-01 00:43:45.044,-0.2,-0.095
2021-08-01 00:43:45.048,-0.215,-0.12
2021-08-01 00:43:45.052,-0.24,-0.09
2021-08-01 00:43:45.056,-0.215,-0.07
2021-08-01 00:43:45.060,-0.19,-0.075
2021-08-01 00:43:45.064,-0.215,-0.09
2021-08-01 00:43:45.068,-0.235,-0.1
2021-08-01 00:43:45.072,-0.215,-0.09
2021-08-01 00:43:45.076,-0.2,-0.07
2021-08-01 00:43:45.080,-0.215,-0.075
2021-08-01 00:43:45.084,-0.22,-0.08
2021-08-01 00:43:45.088,-0.195,-0.065
2021-08-01 00:43:45.092,-0.22,-0.055
2021-08-01 00:43:45.096,-0.195,-0.08
2021-08-01 00:43:45.100,-0.2,-0.095
2021-08-01 00:43:45.104,-0.18,-0.075
2021-08-01 00:43:45.108,-0.17,-0.05
2021-08-01 00:43:45.112,-0.19,-0.065
2021-08-01 00:43:45.116,-0.19,-0.08
2021-08-01 00:43:45.120,-0.195,-0.08
2021-08-01 00:43:45.124,-0.195,-0.05
2021-08-01 00:43:45.128,-0.175,-0.055
2021-08-01 00:43:45.132,-0.2,-0.07
2021-08-01 00:43:45.136,-0.2,-0.08
2021-08-01 00:43:45.140,-0.205,-0.065
2021-08-01 00:43:45.144,-0.19,-0.06
2021-08-01 00:43:45.148,-0.18,-0.08
2021-08-01 00:43:45.152,-0.19,-0.08
2021-08-01 00:43:45.156,-0.21,-0.05
2021-08-01 00:43:45.160,-0.165,-0.07
2021-08-01 00:43:45.164,-0.185,-0.055
2021-08-01 00:43:45.168,-0.185,-0.065
2021-08-01 00:43:45.172,-0.18,-0.065
2021-08-01 00:43:45.176,-0.195,-0.075
2021-08-01 00:43:45.180,-0.205,-0.08
2021-08-01 00:43:45.184,-0.185,-0.09
2021-08-01 00:43:45.188,-0.165,-0.045
2021-08-01 00:43:45.192,-0.195,-0.05
2021-08-01 00:43:45.196,-0.19,-0.055
2021-08-01 00:43:45.200,-0.175,-0.08
2021-08-01 00:43:45.204,-0.185,-0.07
2021-08-01 00:43:45.208,-0.165,-0.065
2021-08-01 00:43:45.212,-0.165,-0.065
2021-08-01 00:43:45.216,-0.2,-0.075
2021-08-01 00:43:45.220,-0.2,-0.06
2021-08-01 00:43:45.224,-0.18,-0.075
2021-08-01 00:43:45.228,-0.165,-0.04
2021-08-01 00:43:45.232,-0.185,-0.065
2021-08-01 00:43:45.236,-0.21,-0.065
2021-08-01 00:43:45.240,-0.17,-0.055
2021-08-01 00:43:45.244,-0.18,-0.055
2021-08-01 00:43:45.248,-0.18,-0.065
2021-08-01 00:43:45.252,-0.175,-0.06
2021-08-01 00:43:45.256,-0.175,-0.025
2021-08-01 00:43:45.260,-0.195,-0.03
2021-08-01 00:43:45.264,-0.18,-0.07
2021-08-01 00:43:45.268,-0.16,-0.05
2021-08-01 00:43:45.272,-0.165,-0.025
2021-08-01 00:43:45.276,-0.185,-0.025
2021-08-01 00:43:45.280,-0.165,-0.065
2021-08-01 00:43:45.284,-0.185,-0.05
2021-08-01 00:43:45.288,-0.175,-0.02
2021-08-01 00:43:45.292,-0.165,-0.02
2021-08-01 00:43:45.296,-0.17,-0.06
2021-08-01 00:43:45.300,-0.18,-0.065
2021-08-01 00:43:45.304,-0.165,-0.045
2021-08-01 00:43:45.308,-0.185,-0.045
2021-08-01 00:43:45.312,-0.16,-0.05
2021-08-01 00:43:45.316,-0.155,-0.065
2021-08-01 00:43:45.320,-0.15,-0.035
2021-08-01 00:43:45.324,-0.175,-0.03
2021-08-01 00:43:45.328,-0.185,-0.065
2021-08-01 00:43:45.332,-0.165,-0.06
2021-08-01 00:43:45.336,-0.17,-0.06
2021-08-01 00:43:45.340,-0.17,-0.025
2021-08-01 00:43:45.344,-0.16,-0.03
2021-08-01 00:43:45.348,-0.145,-0.055
2021-08-01 00:43:45.352,-0.145,-0.045
2021-08-01 00:43:45.356,-0.125,-0.02
2021-08-01 00:43:45.360,-0.14,-0.03
2021-08-01 00:43:45.364,-0.13,-0.045
2021-08-01 00:43:45.368,-0.145,-0.04
2021-08-01 00:43:45.372,-0.155,-0.01
2021-08-01 00:43:45.376,-0.15,-0.03
2021-08-01 00:43:45.380,-0.145,-0.045
2021-08-01 00:43:45.384,-0.15,-0.03
2021-08-01 00:43:45.388,-0.14,-0.01
2021-08-01 00:43:45.392,-0.135,0.005
2021-08-01 00:43:45.396,-0.12,-0.03
2021-08-01 00:43:45.400,-0.115,-0.03
2021-08-01 00:43:45.404,-0.11,-0.025
2021-08-01 00:43:45.408,-0.12,-0.025
2021-08-01 00:43:45.412,-0.12,-0.04
2021-08-01 00:43:45.416,-0.115,-0.065
2021-08-01 00:43:45.420,-0.115,-0.055
2021-08-01 00:43:45.424,-0.115,-0.015
2021-08-01 00:43:45.428,-0.12,-0.02
2021-08-01 00:43:45.432,-0.115,-0.03
2021-08-01 00:43:45.436,-0.11,-0.025
2021-08-01 00:43:45.440,-0.11,-0.03
2021-08-01 00:43:45.444,-0.08,-0.035
2021-08-01 00:43:45.448,-0.1,-0.03
2021-08-01 00:43:45.452,-0.08,-0.025
2021-08-01 00:43:45.456,-0.095,-0.035
2021-08-01 00:43:45.460,-0.06,-0.03
2021-08-01 00:43:45.464,-0.09,-0.02
2021-08-01 00:43:45.468,-0.07,-0.025
2021-08-01 00:43:45.472,-0.055,-0.005
2021-08-01 00:43:45.476,-0.05,-0.02
2021-08-01 00:43:45.480,-0.07,-0.04
2021-08-01 00:43:45.484,-0.055,-0.035
2021-08-01 00:43:45.488,-0.075,-0.005
2021-08-01 00:43:45.492,-0.085,-0.02
2021-08-01 00:43:45.496,-0.075,-0.04
2021-08-01 00:43:45.500,-0.1,-0.03
2021-08-01 00:43:45.504,-0.055,-0.02
2021-08-01 00:43:45.508,-0.09,-0.005
2021-08-01 00:43:45.512,-0.09,-0.005
2021-08-01 00:43:45.516,-0.08,0.03
2021-08-01 00:43:45.520,-0.09,0.1
2021-08-01 00:43:45.524,-0.075,0.13
2021-08-01 00:43:45.528,-0.055,0.2
2021-08-01 00:43:45.532,-0.02,0.21
2021-08-01 00:43:45.536,0.02,0.11
2021-08-01 00:43:45.540,0.03,0.07
2021-08-01 00:43:45.544,0.02,0.305
2021-08-01 00:43:45.548,-0.015,0.67
2021-08-01 00:43:45.552,-0.1,0.82
2021-08-01 00:43:45.556,-0.185,0.435
2021-08-01 00:43:45.560,-0.23,-0.32
2021-08-01 00:43:45.564,-0.21,-0.865
2021-08-01 00:43:45.568,-0.105,-0.95
2021-08-01 00:43:45.572,-0.03,-0.81
2021-08-01 00:43:45.576,-0.09,-0.765
2021-08-01 00:43:45.580,-0.26,-0.67
2021-08-01 00:43:45.584,-0.46,-0.445
2021-08-01 00:43:45.588,-0.555,-0.225
2021-08-01 00:43:45.592,-0.495,-0.14
2021-08-01 00:43:45.596,-0.495,-0.125
2021-08-01 00:43:45.600,-0.445,-0.115
2021-08-01 00:43:45.604,-0.285,-0.105
2021-08-01 00:43:45.608,-0.16,-0.09
2021-08-01 00:43:45.612,-0.07,-0.095
2021-08-01 00:43:45.616,-0.055,-0.12
2021-08-01 00:43:45.620,-0.06,-0.07
2021-08-01 00:43:45.624,-0.04,-0.05
2021-08-01 00:43:45.628,-0.03,-0.055
2021-08-01 00:43:45.632,-0.05,-0.035
2021-08-01 00:43:45.636,-0.04,-0.02
2021-08-01 00:43:45.640,-0.02,-0.03
2021-08-01 00:43:45.644,-0.005,-0.03
2021-08-01 00:43:45.648,0.0,-0.02
2021-08-01 00:43:45.652,-0.01,0.01
2021-08-01 00:43:45.656,0.04,0.005
2021-08-01 00:43:45.660,0.055,-0.015
2021-08-01 00:43:45.664,0.07,-0.045
2021-08-01 00:43:45.668,0.03,-0.025
2021-08-01 00:43:45.672,0.01,-0.01
2021-08-01 00:43:45.676,-0.04,-0.02
2021-08-01 00:43:45.680,-0.075,-0.045
2021-08-01 00:43:45.684,-0.08,-0.045
2021-08-01 00:43:45.688,-0.05,-0.075
2021-08-01 00:43:45.692,-0.04,-0.08
2021-08-01 00:43:45.696,-0.055,-0.055
2021-08-01 00:43:45.700,-0.045,-0.035
2021-08-01 00:43:45.704,-0.08,0.0
2021-08-01 00:43:45.708,-0.085,0.01
2021-08-01 00:43:45.712,-0.045,0.01
2021-08-01 00:43:45.716,-0.02,0.005
2021-08-01 00:43:45.720,-0.015,0.005
2021-08-01 00:43:45.724,0.0,-0.01
2021-08-01 00:43:45.728,0.02,-0.01
2021-08-01 00:43:45.732,0.02,-0.005
2021-08-01 00:43:45.736,0.01,0.005
2021-08-01 00:43:45.740,0.025,0.035
2021-08-01 00:43:45.744,0.0,0.045
2021-08-01 00:43:45.748,0.02,0.035
2021-08-01 00:43:45.752,0.03,0.085
2021-08-01 00:43:45.756,0.035,0.15
2021-08-01 00:43:45.760,0.05,0.185
2021-08-01 00:43:45.764,0.035,0.165
2021-08-01 00:43:45.768,0.05,0.205
2021-08-01 00:43:45.772,0.055,0.265
2021-08-01 00:43:45.776,0.06,0.265
2021-08-01 00:43:45.780,0.055,0.31
2021-08-01 00:43:45.784,0.08,0.34
2021-08-01 00:43:45.788,0.085,0.36
2021-08-01 00:43:45.792,0.075,0.41
2021-08-01 00:43:45.796,0.1,0.435
2021-08-01 00:43:45.800,0.1,0.45
2021-08-01 00:43:45.804,0.095,0.47
2021-08-01 00:43:45.808,0.09,0.48
2021-08-01 00:43:45.812,0.085,0.475
2021-08-01 00:43:45.816,0.075,0.45
2021-08-01 00:43:45.820,0.105,0.45
2021-08-01 00:43:45.824,0.1,0.415
2021-08-01 00:43:45.828,0.125,0.38
2021-08-01 00:43:45.832,0.115,0.35
2021-08-01 00:43:45.836,0.12,0.315
2021-08-01 00:43:45.840,0.11,0.28
2021-08-01 00:43:45.844,0.135,0.24
2021-08-01 00:43:45.848,0.14,0.215
2021-08-01 00:43:45.852,0.13,0.175
2021-08-01 00:43:45.856,0.15,0.16
2021-08-01 00:43:45.860,0.14,0.125
2021-08-01 00:43:45.864,0.125,0.11
2021-08-01 00:43:45.868,0.13,0.095
2021-08-01 00:43:45.872,0.13,0.09
2021-08-01 00:43:45.876,0.115,0.08
2021-08-01 00:43:45.880,0.1,0.045
2021-08-01 00:43:45.884,0.11,0.035
2021-08-01 00:43:45.888,0.1,0.05
2021-08-01 00:43:45.892,0.075,0.025
2021-08-01 00:43:45.896,0.09,0.03
2021-08-01 00:43:45.900,0.07,0.02
2021-08-01 00:43:45.904,0.075,0.005
2021-08-01 00:43:45.908,0.085,0.01
2021-08-01 00:43:45.912,0.075,0.0
2021-08-01 00:43:45.916,0.08,-0.015
2021-08-01 00:43:45.920,0.1,-0.015
2021-08-01 00:43:45.924,0.085,-0.015
2021-08-01 00:43:45.928,0.09,-0.01
2021-08-01 00:43:45.932,0.095,-0.03
2021-08-01 00:43:45.936,0.075,-0.035
2021-08-01 00:43:45.940,0.07,-0.045
2021-08-01 00:43:45.944,0.065,-0.05
2021-08-01 00:43:45.948,0.06,-0.06
2021-08-01 00:43:45.952,0.05,-0.05
2021-08-01 00:43:45.956,0.07,-0.06
2021-08-01 00:43:45.960,0.06,-0.08
2021-08-01 00:43:45.964,0.05,-0.04
2021-08-01 00:43:45.968,0.035,-0.08
2021-08-01 00:43:45.972,0.05,-0.08
2021-08-01 00:43:45.976,0.05,-0.08
2021-08-01 00:43:45.980,0.035,-0.095
2021-08-01 00:43:45.984,0.0,-0.085
2021-08-01 00:43:45.988,-0.01,-0.095
2021-08-01 00:43:45.992,0.0,-0.1
2021-08-01 00:43:45.996,0.03,-0.13
2021-08-01 00:43:46.000,0.02,-0.11
2021-08-01 00:43:46.004,0.025,-0.1
2021-08-01 00:43:46.008,0.0,-0.095
2021-08-01 00:43:46.012,0.0,-0.105
2021-08-01 00:43:46.016,-0.005,-0.13
2021-08-01 00:43:46.020,-0.01,-0.1
2021-08-01 00:43:46.024,-0.005,-0.08
2021-08-01 00:43:46.028,0.0,-0.085
2021-08-01 00:43:46.032,-0.005,-0.1
2021-08-01 00:43:46.036,0.0,-0.085
2021-08-01 00:43:46.040,0.0,-0.11
2021-08-01 00:43:46.044,0.01,-0.1
2021-08-01 00:43:46.048,-0.005,-0.095
2021-08-01 00:43:46.052,-0.01,-0.11
2021-08-01 00:43:46.056,-0.02,-0.095
2021-08-01 00:43:46.060,0.005,-0.085
2021-08-01 00:43:46.064,-0.015,-0.1
2021-08-01 00:43:46.068,-0.01,-0.11
2021-08-01 00:43:46.072,-0.02,-0.1
2021-08-01 00:43:46.076,-0.025,-0.08
2021-08-01 00:43:46.080,-0.01,-0.06
2021-08-01 00:43:46.084,0.0,-0.085
2021-08-01 00:43:46.088,-0.025,-0.085
2021-08-01 00:43:46.092,-0.01,-0.09
2021-08-01 00:43:46.096,-0.035,-0.105
2021-08-01 00:43:46.100,-0.025,-0.07
2021-08-01 00:43:46.104,-0.025,-0.09
2021-08-01 00:43:46.108,-0.035,-0.09
2021-08-01 00:43:46.112,-0.02,-0.1
2021-08-01 00:43:46.116,-0.05,-0.07
2021-08-01 00:43:46.120,-0.04,-0.095
2021-08-01 00:43:46.124,-0.04,-0.105
2021-08-01 00:43:46.128,-0.01,-0.095
2021-08-01 00:43:46.132,-0.03,-0.08
2021-08-01 00:43:46.136,-0.035,-0.1
2021-08-01 00:43:46.140,-0.02,-0.09
2021-08-01 00:43:46.144,-0.03,-0.095
2021-08-01 00:43:46.148,-0.03,-0.085
2021-08-01 00:43:46.152,-0.05,-0.09
2021-08-01 00:43:46.156,-0.04,-0.1
2021-08-01 00:43:46.160,-0.035,-0.08
2021-08-01 00:43:46.164,-0.05,-0.1
2021-08-01 00:43:46.168,-0.03,-0.11
2021-08-01 00:43:46.172,-0.03,-0.09
2021-08-01 00:43:46.176,-0.02,-0.075
2021-08-01 00:43:46.180,-0.055,-0.08
2021-08-01 00:43:46.184,-0.01,-0.09
2021-08-01 00:43:46.188,-0.035,-0.09
2021-08-01 00:43:46.192,-0.05,-0.09
2021-08-01 00:43:46.196,-0.04,-0.07
2021-08-01 00:43:46.200,-0.035,-0.1
2021-08-01 00:43:46.204,-0.035,-0.11
2021-08-01 00:43:46.208,-0.02,-0.09
2021-08-01 00:43:46.212,-0.025,-0.08
2021-08-01 00:43:46.216,-0.035,-0.075
2021-08-01 00:43:46.220,-0.035,-0.09
2021-08-01 00:43:46.224,-0.035,-0.075
2021-08-01 00:43:46.228,-0.02,-0.095
2021-08-01 00:43:46.232,-0.02,-0.09
2021-08-01 00:43:46.236,-0.055,-0.09
2021-08-01 00:43:46.240,-0.04,-0.1
2021-08-01 00:43:46.244,-0.055,-0.09
2021-08-01 00:43:46.248,-0.045,-0.075
2021-08-01 00:43:46.252,-0.04,-0.08
2021-08-01 00:43:46.256,-0.035,-0.07
2021-08-01 00:43:46.260,-0.025,-0.095
2021-08-01 00:43:46.264,-0.045,-0.075
2021-08-01 00:43:46.268,-0.03,-0.085
2021-08-01 00:43:46.272,-0.03,-0.09
2021-08-01 00:43:46.276,-0.03,-0.095
2021-08-01 00:43:46.280,-0.035,-0.09
2021-08-01 00:43:46.284,-0.06,-0.085
2021-08-01 00:43:46.288,-0.055,-0.08
2021-08-01 00:43:46.292,-0.045,-0.085
2021-08-01 00:43:46.296,-0.04,-0.09
2021-08-01 00:43:46.300,-0.02,-0.08
2021-08-01 00:43:46.304,-0.06,-0.1
2021-08-01 00:43:46.308,-0.035,-0.08
2021-08-01 00:43:46.312,-0.035,-0.07
2021-08-01 00:43:46.316,-0.05,-0.09
2021-08-01 00:43:46.320,-0.04,-0.09
2021-08-01 00:43:46.324,-0.04,-0.095
2021-08-01 00:43:46.328,-0.04,-0.095
2021-08-01 00:43:46.332,-0.04,-0.1
2021-08-01 00:43:46.336,-0.035,-0.095
2021-08-01 00:43:46.340,-0.01,-0.08
2021-08-01 00:43:46.344,-0.01,-0.07
2021-08-01 00:43:46.348,-0.025,-0.07
2021-08-01 00:43:46.352,-0.025,-0.09
2021-08-01 00:43:46.356,-0.02,-0.08
2021-08-01 00:43:46.360,-0.02,-0.1
2021-08-01 00:43:46.364,-0.03,-0.105
2021-08-01 00:43:46.368,-0.015,-0.07
2021-08-01 00:43:46.372,-0.025,-0.1
2021-08-01 00:43:46.376,-0.02,-0.095
2021-08-01 00:43:46.380,-0.005,-0.06
2021-08-01 00:43:46.384,-0.015,-0.07
2021-08-01 00:43:46.388,0.0,-0.085
2021-08-01 00:43:46.392,-0.01,-0.1
2021-08-01 00:43:46.396,-0.01,-0.095
2021-08-01 00:43:46.400,-0.005,-0.1
2021-08-01 00:43:46.404,-0.005,-0.09
2021-08-01 00:43:46.408,-0.005,-0.065
2021-08-01 00:43:46.412,0.005,-0.06
2021-08-01 00:43:46.416,0.015,-0.08
2021-08-01 00:43:46.420,-0.005,-0.08
2021-08-01 00:43:46.424,0.005,-0.08
2021-08-01 00:43:46.428,0.01,-0.08
2021-08-01 00:43:46.432,0.0,-0.09
2021-08-01 00:43:46.436,-0.01,-0.105
2021-08-01 00:43:46.440,0.0,-0.095
2021-08-01 00:43:46.444,0.005,-0.085
2021-08-01 00:43:46.448,0.0,-0.08
2021-08-01 00:43:46.452,-0.015,-0.07
2021-08-01 00:43:46.456,-0.005,-0.07
2021-08-01 00:43:46.460,0.0,-0.1
2021-08-01 00:43:46.464,0.015,-0.085
2021-08-01 00:43:46.468,0.0,-0.095
2021-08-01 00:43:46.472,-0.005,-0.1
2021-08-01 00:43:46.476,-0.005,-0.08
2021-08-01 00:43:46.480,-0.01,-0.07
2021-08-01 00:43:46.484,-0.02,-0.095
2021-08-01 00:43:46.488,-0.015,-0.1
2021-08-01 00:43:46.492,-0.005,-0.08
2021-08-01 00:43:46.496,0.0,-0.07
2021-08-01 00:43:46.500,-0.015,-0.075
2021-08-01 00:43:46.504,0.015,-0.08
2021-08-01 00:43:46.508,0.005,-0.07
2021-08-01 00:43:46.512,-0.01,-0.08
2021-08-01 00:43:46.516,-0.02,-0.095
2021-08-01 00:43:46.520,-0.03,-0.1
2021-08-01 00:43:46.524,-0.005,-0.1
2021-08-01 00:43:46.528,0.005,-0.08
2021-08-01 00:43:46.532,0.0,-0.08
2021-08-01 00:43:46.536,-0.02,-0.115
2021-08-01 00:43:46.540,-0.03,-0.09
2021-08-01 00:43:46.544,-0.015,-0.08
2021-08-01 00:43:46.548,0.0,-0.085
2021-08-01 00:43:46.552,-0.01,-0.1
2021-08-01 00:43:46.556,-0.015,-0.095
2021-08-01 00:43:46.560,-0.01,-0.075
2021-08-01 00:43:46.564,-0.015,-0.07
2021-08-01 00:43:46.568,-0.035,-0.1
2021-08-01 00:43:46.572,-0.02,-0.095
2021-08-01 00:43:46.576,-0.035,-0.08
2021-08-01 00:43:46.580,-0.05,-0.085
2021-08-01 00:43:46.584,-0.04,-0.105
2021-08-01 00:43:46.588,-0.04,-0.12
2021-08-01 00:43:46.592,-0.04,-0.11
2021-08-01 00:43:46.596,-0.02,-0.075
2021-08-01 00:43:46.600,-0.06,-0.095
2021-08-01 00:43:46.604,-0.05,-0.13
2021-08-01 00:43:46.608,-0.025,-0.12
2021-08-01 00:43:46.612,-0.045,-0.095
2021-08-01 00:43:46.616,-0.05,-0.085
2021-08-01 00:43:46.620,-0.08,-0.09
2021-08-01 00:43:46.624,-0.065,-0.09
2021-08-01 00:43:46.628,-0.075,-0.1
2021-08-01 00:43:46.632,-0.075,-0.11
2021-08-01 00:43:46.636,-0.05,-0.135
2021-08-01 00:43:46.640,-0.07,-0.12
2021-08-01 00:43:46.644,-0.06,-0.135
2021-08-01 00:43:46.648,-0.055,-0.14
2021-08-01 00:43:46.652,-0.07,-0.13
2021-08-01 00:43:46.656,-0.06,-0.12
2021-08-01 00:43:46.660,-0.07,-0.125
2021-08-01 00:43:46.664,-0.065,-0.135
2021-08-01 00:43:46.668,-0.075,-0.125
2021-08-01 00:43:46.672,-0.055,-0.13
2021-08-01 00:43:46.676,-0.04,-0.135
2021-08-01 00:43:46.680,-0.05,-0.065
2021-08-01 00:43:46.684,-0.055,0.04
2021-08-01 00:43:46.688,-0.075,0.1
2021-08-01 00:43:46.692,-0.06,0.145
2021-08-01 00:43:46.696,-0.02,0.18
2021-08-01 00:43:46.700,0.005,0.11
2021-08-01 00:43:46.704,0.015,-0.02
2021-08-01 00:43:46.708,0.04,0.04
2021-08-01 00:43:46.712,-0.015,0.275
2021-08-01 00:43:46.716,-0.095,0.45
2021-08-01 00:43:46.720,-0.19,0.08
2021-08-01 00:43:46.724,-0.27,-0.795
2021-08-01 00:43:46.728,-0.28,-1.455
2021-08-01 00:43:46.732,-0.275,-1.405
2021-08-01 00:43:46.736,-0.225,-1.02
2021-08-01 00:43:46.740,-0.17,-0.92
2021-08-01 00:43:46.744,-0.17,-0.995
2021-08-01 00:43:46.748,-0.16,-0.885
2021-08-01 00:43:46.752,-0.19,-0.62
2021-08-01 00:43:46.756,-0.215,-0.425
2021-08-01 00:43:46.760,-0.28,-0.33
2021-08-01 00:43:46.764,-0.37,-0.28
2021-08-01 00:43:46.768,-0.42,-0.265
2021-08-01 00:43:46.772,-0.33,-0.2
2021-08-01 00:43:46.776,-0.16,-0.185
2021-08-01 00:43:46.780,-0.085,-0.22
2021-08-01 00:43:46.784,-0.07,-0.23
2021-08-01 00:43:46.788,-0.07,-0.205
2021-08-01 00:43:46.792,-0.05,-0.21
2021-08-01 00:43:46.796,-0.08,-0.205
2021-08-01 00:43:46.800,-0.08,-0.19
2021-08-01 00:43:46.804,-0.06,-0.245
2021-08-01 00:43:46.808,-0.06,-0.14
2021-08-01 00:43:46.812,-0.075,-0.145
2021-08-01 00:43:46.816,-0.03,-0.21
2021-08-01 00:43:46.820,-0.025,-0.17
2021-08-01 00:43:46.824,-0.065,-0.145
2021-08-01 00:43:46.828,-0.055,-0.16
2021-08-01 00:43:46.832,-0.045,-0.165
2021-08-01 00:43:46.836,-0.045,-0.11
2021-08-01 00:43:46.840,-0.045,-0.14
2021-08-01 00:43:46.844,-0.035,-0.105
2021-08-01 00:43:46.848,-0.055,-0.11
2021-08-01 00:43:46.852,-0.02,-0.065
2021-08-01 00:43:46.856,-0.04,-0.05
2021-08-01 00:43:46.860,-0.06,-0.05
2021-08-01 00:43:46.864,-0.04,-0.07
2021-08-01 00:43:46.868,-0.045,-0.075
2021-08-01 00:43:46.872,-0.05,-0.06
2021-08-01 00:43:46.876,-0.06,-0.05
2021-08-01 00:43:46.880,-0.065,-0.09
2021-08-01 00:43:46.884,-0.04,-0.075
2021-08-01 00:43:46.888,-0.045,-0.045
2021-08-01 00:43:46.892,-0.055,-0.065
2021-08-01 00:43:46.896,-0.05,-0.075
2021-08-01 00:43:46.900,-0.04,-0.045
2021-08-01 00:43:46.904,-0.03,-0.01
2021-08-01 00:43:46.908,-0.055,-0.035
2021-08-01 00:43:46.912,-0.075,-0.02
2021-08-01 00:43:46.916,-0.085,-0.03
2021-08-01 00:43:46.920,-0.06,-0.03
2021-08-01 00:43:46.924,-0.085,-0.05
2021-08-01 00:43:46.928,-0.09,-0.06
2021-08-01 00:43:46.932,-0.1,-0.025
2021-08-01 00:43:46.936,-0.115,-0.02
2021-08-01 00:43:46.940,-0.17,-0.005
2021-08-01 00:43:46.944,-0.19,-0.005
2021-08-01 00:43:46.948,-0.21,0.015
2021-08-01 00:43:46.952,-0.215,0.16
2021-08-01 00:43:46.956,-0.245,0.27
2021-08-01 00:43:46.960,-0.235,0.25
2021-08-01 00:43:46.964,-0.19,0.265
2021-08-01 00:43:46.968,-0.155,0.25
2021-08-01 00:43:46.972,-0.145,0.225
2021-08-01 00:43:46.976,-0.15,0.19
2021-08-01 00:43:46.980,-0.175,0.2
2021-08-01 00:43:46.984,-0.145,0.195
2021-08-01 00:43:46.988,-0.12,0.15
2021-08-01 00:43:46.992,-0.135,0.075
2021-08-01 00:43:46.996,-0.125,0.01
2021-08-01 00:43:47.000,-0.115,-0.04
2021-08-01 00:43:47.004,-0.11,-0.04
2021-08-01 00:43:47.008,-0.1,-0.06
2021-08-01 00:43:47.012,-0.1,-0.11
2021-08-01 00:43:47.016,-0.095,-0.125
2021-08-01 00:43:47.020,-0.07,-0.135
2021-08-01 00:43:47.024,-0.07,-0.155
2021-08-01 00:43:47.028,-0.055,-0.2
2021-08-01 00:43:47.032,-0.1,-0.18
2021-08-01 00:43:47.036,-0.06,-0.23
2021-08-01 00:43:47.040,-0.1,-0.255
2021-08-01 00:43:47.044,-0.065,-0.275
2021-08-01 00:43:47.048,-0.07,-0.265
2021-08-01 00:43:47.052,-0.065,-0.205
2021-08-01 00:43:47.056,-0.095,-0.21
2021-08-01 00:43:47.060,-0.075,-0.25
2021-08-01 00:43:47.064,-0.065,-0.26
2021-08-01 00:43:47.068,-0.065,-0.285
2021-08-01 00:43:47.072,-0.075,-0.3
2021-08-01 00:43:47.076,-0.09,-0.305
2021-08-01 00:43:47.080,-0.1,-0.275
2021-08-01 00:43:47.084,-0.07,-0.28
2021-08-01 00:43:47.088,-0.065,-0.26
2021-08-01 00:43:47.092,-0.075,-0.275
2021-08-01 00:43:47.096,-0.055,-0.285
2021-08-01 00:43:47.100,-0.075,-0.3
2021-08-01 00:43:47.104,-0.09,-0.31
2021-08-01 00:43:47.108,-0.08,-0.29
2021-08-01 00:43:47.112,-0.085,-0.285
2021-08-01 00:43:47.116,-0.085,-0.285
2021-08-01 00:43:47.120,-0.065,-0.335
2021-08-01 00:43:47.124,-0.06,-0.325
2021-08-01 00:43:47.128,-0.06,-0.305
2021-08-01 00:43:47.132,-0.065,-0.29
2021-08-01 00:43:47.136,-0.055,-0.31
2021-08-01 00:43:47.140,-0.055,-0.31
2021-08-01 00:43:47.144,-0.075,-0.3
2021-08-01 00:43:47.148,-0.06,-0.28
2021-08-01 00:43:47.152,-0.045,-0.295
2021-08-01 00:43:47.156,-0.045,-0.32
2021-08-01 00:43:47.160,-0.045,-0.32
2021-08-01 00:43:47.164,-0.03,-0.305
2021-08-01 00:43:47.168,-0.08,-0.31
2021-08-01 00:43:47.172,-0.07,-0.32
2021-08-01 00:43:47.176,-0.04,-0.305
2021-08-01 00:43:47.180,-0.045,-0.31
2021-08-01 00:43:47.184,-0.025,-0.315
2021-08-01 00:43:47.188,-0.035,-0.31
2021-08-01 00:43:47.192,-0.04,-0.3
2021-08-01 00:43:47.196,-0.035,-0.295
2021-08-01 00:43:47.200,-0.03,-0.315
2021-08-01 00:43:47.204,-0.025,-0.305
2021-08-01 00:43:47.208,-0.04,-0.305
2021-08-01 00:43:47.212,-0.03,-0.305
2021-08-01 00:43:47.216,-0.045,-0.33
2021-08-01 00:43:47.220,-0.055,-0.32
2021-08-01 00:43:47.224,-0.045,-0.305
2021-08-01 00:43:47.228,-0.02,-0.295
2021-08-01 00:43:47.232,-0.03,-0.29
2021-08-01 00:43:47.236,-0.03,-0.3
2021-08-01 00:43:47.240,-0.03,-0.3
2021-08-01 00:43:47.244,-0.035,-0.315
2021-08-01 00:43:47.248,-0.03,-0.32
2021-08-01 00:43:47.252,-0.05,-0.31
2021-08-01 00:43:47.256,-0.035,-0.295
2021-08-01 00:43:47.260,-0.02,-0.315
2021-08-01 00:43:47.264,-0.025,-0.36
2021-08-01 00:43:47.268,-0.005,-0.36
2021-08-01 00:43:47.272,-0.01,-0.345
2021-08-01 00:43:47.276,-0.035,-0.32
2021-08-01 00:43:47.280,-0.025,-0.34
2021-08-01 00:43:47.284,-0.025,-0.32
2021-08-01 00:43:47.288,-0.045,-0.315
2021-08-01 00:43:47.292,-0.035,-0.315
2021-08-01 00:43:47.296,-0.03,-0.34
2021-08-01 00:43:47.300,-0.045,-0.335
2021-08-01 00:43:47.304,-0.045,-0.3
2021-08-01 00:43:47.308,-0.035,-0.29
2021-08-01 00:43:47.312,-0.035,-0.3
2021-08-01 00:43:47.316,-0.035,-0.32
2021-08-01 00:43:47.320,-0.025,-0.315
2021-08-01 00:43:47.324,-0.02,-0.31
2021-08-01 00:43:47.328,-0.02,-0.37
2021-08-01 00:43:47.332,-0.05,-0.35
2021-08-01 00:43:47.336,-0.045,-0.33
2021-08-01 00:43:47.340,-0.035,-0.32
2021-08-01 00:43:47.344,-0.045,-0.365
2021-08-01 00:43:47.348,-0.04,-0.365
2021-08-01 00:43:47.352,-0.05,-0.35
2021-08-01 00:43:47.356,-0.015,-0.315
2021-08-01 00:43:47.360,-0.025,-0.305
2021-08-01 00:43:47.364,-0.02,-0.315
2021-08-01 00:43:47.368,-0.025,-0.315
2021-08-01 00:43:47.372,-0.03,-0.305
2021-08-01 00:43:47.376,-0.035,-0.33
2021-08-01 00:43:47.380,-0.06,-0.32
2021-08-01 00:43:47.384,-0.035,-0.305
2021-08-01 00:43:47.388,-0.035,-0.3
2021-08-01 00:43:47.392,-0.065,-0.33
2021-08-01 00:43:47.396,-0.06,-0.29
2021-08-01 00:43:47.400,-0.05,-0.31
2021-08-01 00:43:47.404,-0.055,-0.32
2021-08-01 00:43:47.408,-0.025,-0.305
2021-08-01 00:43:47.412,-0.04,-0.28
2021-08-01 00:43:47.416,-0.035,-0.3
2021-08-01 00:43:47.420,-0.04,-0.305
2021-08-01 00:43:47.424,-0.07,-0.29
2021-08-01 00:43:47.428,-0.045,-0.305
2021-08-01 00:43:47.432,-0.05,-0.32
2021-08-01 00:43:47.436,-0.055,-0.315
2021-08-01 00:43:47.440,-0.065,-0.27
2021-08-01 00:43:47.444,-0.045,-0.275
2021-08-01 00:43:47.448,-0.06,-0.285
2021-08-01 00:43:47.452,-0.03,-0.285
2021-08-01 00:43:47.456,-0.045,-0.27
2021-08-01 00:43:47.460,-0.04,-0.275
2021-08-01 00:43:47.464,-0.045,-0.28
2021-08-01 00:43:47.468,-0.055,-0.275
2021-08-01 00:43:47.472,-0.04,-0.28
2021-08-01 00:43:47.476,-0.06,-0.265
2021-08-01 00:43:47.480,-0.075,-0.29
2021-08-01 00:43:47.484,-0.055,-0.265
2021-08-01 00:43:47.488,-0.06,-0.295
2021-08-01 00:43:47.492,-0.065,-0.275
2021-08-01 00:43:47.496,-0.075,-0.275
2021-08-01 00:43:47.500,-0.055,-0.27
2021-08-01 00:43:47.504,-0.05,-0.28
2021-08-01 00:43:47.508,-0.07,-0.28
2021-08-01 00:43:47.512,-0.095,-0.26
2021-08-01 00:43:47.516,-0.085,-0.27
2021-08-01 00:43:47.520,-0.085,-0.275
2021-08-01 00:43:47.524,-0.06,-0.26
2021-08-01 00:43:47.528,-0.04,-0.245
2021-08-01 00:43:47.532,-0.05,-0.27
2021-08-01 00:43:47.536,-0.06,-0.265
2021-08-01 00:43:47.540,-0.06,-0.285
2021-08-01 00:43:47.544,-0.06,-0.285
2021-08-01 00:43:47.548,-0.07,-0.275
2021-08-01 00:43:47.552,-0.065,-0.26
2021-08-01 00:43:47.556,-0.065,-0.275
2021-08-01 00:43:47.560,-0.085,-0.305
2021-08-01 00:43:47.564,-0.065,-0.325
2021-08-01 00:43:47.568,-0.04,-0.28
2021-08-01 00:43:47.572,-0.04,-0.26
2021-08-01 00:43:47.576,-0.06,-0.285
2021-08-01 00:43:47.580,-0.055,-0.295
2021-08-01 00:43:47.584,-0.07,-0.29
2021-08-01 00:43:47.588,-0.065,-0.27
2021-08-01 00:43:47.592,-0.075,-0.285
2021-08-01 00:43:47.596,-0.065,-0.285
2021-08-01 00:43:47.600,-0.08,-0.295
2021-08-01 00:43:47.604,-0.08,-0.29
2021-08-01 00:43:47.608,-0.075,-0.295
2021-08-01 00:43:47.612,-0.085,-0.295
2021-08-01 00:43:47.616,-0.1,-0.28
2021-08-01 00:43:47.620,-0.1,-0.3
2021-08-01 00:43:47.624,-0.07,-0.305
2021-08-01 00:43:47.628,-0.075,-0.285
2021-08-01 00:43:47.632,-0.07,-0.28
2021-08-01 00:43:47.636,-0.08,-0.275
2021-08-01 00:43:47.640,-0.09,-0.305
2021-08-01 00:43:47.644,-0.095,-0.305
2021-08-01 00:43:47.648,-0.1,-0.285
2021-08-01 00:43:47.652,-0.105,-0.275
2021-08-01 00:43:47.656,-0.08,-0.295
2021-08-01 00:43:47.660,-0.105,-0.325
2021-08-01 00:43:47.664,-0.095,-0.32
2021-08-01 00:43:47.668,-0.125,-0.31
2021-08-01 00:43:47.672,-0.125,-0.32
2021-08-01 00:43:47.676,-0.125,-0.3
2021-08-01 00:43:47.680,-0.115,-0.3
2021-08-01 00:43:47.684,-0.12,-0.31
2021-08-01 00:43:47.688,-0.125,-0.3
2021-08-01 00:43:47.692,-0.105,-0.275
2021-08-01 00:43:47.696,-0.12,-0.275
2021-08-01 00:43:47.700,-0.115,-0.315
2021-08-01 00:43:47.704,-0.09,-0.32
2021-08-01 00:43:47.708,-0.13,-0.3
2021-08-01 00:43:47.712,-0.125,-0.295
2021-08-01 00:43:47.716,-0.12,-0.28
2021-08-01 00:43:47.720,-0.115,-0.29
2021-08-01 00:43:47.724,-0.12,-0.285
2021-08-01 00:43:47.728,-0.11,-0.28
2021-08-01 00:43:47.732,-0.105,-0.275
2021-08-01 00:43:47.736,-0.095,-0.305
2021-08-01 00:43:47.740,-0.1,-0.295
2021-08-01 00:43:47.744,-0.1,-0.305
2021-08-01 00:43:47.748,-0.105,-0.285
2021-08-01 00:43:47.752,-0.095,-0.305
2021-08-01 00:43:47.756,-0.11,-0.3
2021-08-01 00:43:47.760,-0.115,-0.28
2021-08-01 00:43:47.764,-0.11,-0.25
2021-08-01 00:43:47.768,-0.11,-0.265
2021-08-01 00:43:47.772,-0.13,-0.295
2021-08-01 00:43:47.776,-0.13,-0.305
2021-08-01 00:43:47.780,-0.115,-0.265
2021-08-01 00:43:47.784,-0.13,-0.27
2021-08-01 00:43:47.788,-0.145,-0.27
2021-08-01 00:43:47.792,-0.1,-0.295
2021-08-01 00:43:47.796,-0.095,-0.29
2021-08-01 00:43:47.800,-0.13,-0.275
2021-08-01 00:43:47.804,-0.14,-0.27
2021-08-01 00:43:47.808,-0.165,-0.27
2021-08-01 00:43:47.812,-0.13,-0.265
2021-08-01 00:43:47.816,-0.11,-0.255
2021-08-01 00:43:47.820,-0.15,-0.26
2021-08-01 00:43:47.824,-0.14,-0.265
2021-08-01 00:43:47.828,-0.135,-0.28
2021-08-01 00:43:47.832,-0.115,-0.28
2021-08-01 00:43:47.836,-0.12,-0.29
2021-08-01 00:43:47.840,-0.15,-0.305
2021-08-01 00:43:47.844,-0.125,-0.275
2021-08-01 00:43:47.848,-0.14,-0.27
2021-08-01 00:43:47.852,-0.16,-0.265
2021-08-01 00:43:47.856,-0.14,-0.275
2021-08-01 00:43:47.860,-0.125,-0.26
2021-08-01 00:43:47.864,-0.12,-0.255
2021-08-01 00:43:47.868,-0.135,-0.265
2021-08-01 00:43:47.872,-0.16,-0.28
2021-08-01 00:43:47.876,-0.14,-0.26
2021-08-01 00:43:47.880,-0.15,-0.27
2021-08-01 00:43:47.884,-0.12,-0.265
2021-08-01 00:43:47.888,-0.11,-0.26
2021-08-01 00:43:47.892,-0.12,-0.265
2021-08-01 00:43:47.896,-0.125,-0.255
2021-08-01 00:43:47.900,-0.135,-0.28
2021-08-01 00:43:47.904,-0.135,-0.265
2021-08-01 00:43:47.908,-0.115,-0.28
2021-08-01 00:43:47.912,-0.14,-0.28
2021-08-01 00:43:47.916,-0.14,-0.285
2021-08-01 00:43:47.920,-0.155,-0.275
2021-08-01 00:43:47.924,-0.15,-0.26
2021-08-01 00:43:47.928,-0.17,-0.255
2021-08-01 00:43:47.932,-0.16,-0.26
2021-08-01 00:43:47.936,-0.16,-0.295
2021-08-01 00:43:47.940,-0.14,-0.315
2021-08-01 00:43:47.944,-0.13,-0.29
2021-08-01 00:43:47.948,-0.14,-0.28
2021-08-01 00:43:47.952,-0.13,-0.275
2021-08-01 00:43:47.956,-0.14,-0.295
2021-08-01 00:43:47.960,-0.15,-0.3
2021-08-01 00:43:47.964,-0.16,-0.27
2021-08-01 00:43:47.968,-0.15,-0.295
2021-08-01 00:43:47.972,-0.14,-0.305
2021-08-01 00:43:47.976,-0.12,-0.28
2021-08-01 00:43:47.980,-0.13,-0.29
2021-08-01 00:43:47.984,-0.135,-0.26
2021-08-01 00:43:47.988,-0.13,-0.255
2021-08-01 00:43:47.992,-0.155,-0.265
2021-08-01 00:43:47.996,-0.16,-0.29
2021-08-01 00:43:48.000,-0.155,-0.315
2021-08-01 00:43:48.004,-0.145,-0.295
2021-08-01 00:43:48.008,-0.185,-0.285
2021-08-01 00:43:48.012,-0.165,-0.3
2021-08-01 00:43:48.016,-0.175,-0.305
2021-08-01 00:43:48.020,-0.18,-0.285
2021-08-01 00:43:48.024,-0.17,-0.27
2021-08-01 00:43:48.028,-0.2,-0.305
2021-08-01 00:43:48.032,-0.21,-0.28
2021-08-01 00:43:48.036,-0.22,-0.295
2021-08-01 00:43:48.040,-0.2,-0.3
2021-08-01 00:43:48.044,-0.22,-0.325
2021-08-01 00:43:48.048,-0.195,-0.325
2021-08-01 00:43:48.052,-0.23,-0.355
2021-08-01 00:43:48.056,-0.205,-0.31
2021-08-01 00:43:48.060,-0.205,-0.3
2021-08-01 00:43:48.064,-0.24,-0.28
2021-08-01 00:43:48.068,-0.225,-0.305
2021-08-01 00:43:48.072,-0.215,-0.29
2021-08-01 00:43:48.076,-0.19,-0.3
2021-08-01 00:43:48.080,-0.245,-0.265
2021-08-01 00:43:48.084,-0.23,-0.285
2021-08-01 00:43:48.088,-0.22,-0.31
2021-08-01 00:43:48.092,-0.2,-0.325
2021-08-01 00:43:48.096,-0.225,-0.295
2021-08-01 00:43:48.100,-0.225,-0.29
2021-08-01 00:43:48.104,-0.21,-0.25
2021-08-01 00:43:48.108,-0.205,-0.24
2021-08-01 00:43:48.112,-0.225,-0.275
2021-08-01 00:43:48.116,-0.255,-0.28
2021-08-01 00:43:48.120,-0.26,-0.3
2021-08-01 00:43:48.124,-0.25,-0.32
2021-08-01 00:43:48.128,-0.215,-0.33
2021-08-01 00:43:48.132,-0.19,-0.295
2021-08-01 00:43:48.136,-0.22,-0.215
2021-08-01 00:43:48.140,-0.225,-0.19
2021-08-01 00:43:48.144,-0.225,-0.3
2021-08-01 00:43:48.148,-0.245,-0.37
2021-08-01 00:43:48.152,-0.265,-0.395
2021-08-01 00:43:48.156,-0.3,-0.385
2021-08-01 00:43:48.160,-0.285,-0.37
2021-08-01 00:43:48.164,-0.255,-0.335
2021-08-01 00:43:48.168,-0.245,-0.265
2021-08-01 00:43:48.172,-0.225,-0.16
2021-08-01 00:43:48.176,-0.28,-0.13
2021-08-01 00:43:48.180,-0.25,-0.235
2021-08-01 00:43:48.184,-0.235,-0.33
2021-08-01 00:43:48.188,-0.26,-0.38
2021-08-01 00:43:48.192,-0.28,-0.35
2021-08-01 00:43:48.196,-0.27,-0.35
2021-08-01 00:43:48.200,-0.26,-0.38
2021-08-01 00:43:48.204,-0.265,-0.37
2021-08-01 00:43:48.208,-0.26,-0.34
2021-08-01 00:43:48.212,-0.26,-0.32
2021-08-01 00:43:48.216,-0.29,-0.32
2021-08-01 00:43:48.220,-0.27,-0.305
2021-08-01 00:43:48.224,-0.305,-0.32
2021-08-01 00:43:48.228,-0.29,-0.35
2021-08-01 00:43:48.232,-0.285,-0.33
2021-08-01 00:43:48.236,-0.295,-0.3
2021-08-01 00:43:48.240,-0.315,-0.305
2021-08-01 00:43:48.244,-0.315,-0.35
2021-08-01 00:43:48.248,-0.27,-0.31
2021-08-01 00:43:48.252,-0.295,-0.3
2021-08-01 00:43:48.256,-0.305,-0.275
2021-08-01 00:43:48.260,-0.32,-0.255
2021-08-01 00:43:48.264,-0.345,-0.31
2021-08-01 00:43:48.268,-0.38,-0.235
2021-08-01 00:43:48.272,-0.385,-0.185
2021-08-01 00:43:48.276,-0.38,-0.165
2021-08-01 00:43:48.280,-0.37,-0.15
2021-08-01 00:43:48.284,-0.36,-0.28
2021-08-01 00:43:48.288,-0.37,-0.365
2021-08-01 00:43:48.292,-0.38,-0.335
2021-08-01 00:43:48.296,-0.42,-0.225
2021-08-01 00:43:48.300,-0.405,-0.25
2021-08-01 00:43:48.304,-0.435,-0.32
2021-08-01 00:43:48.308,-0.415,-0.475
2021-08-01 00:43:48.312,-0.43,-0.535
2021-08-01 00:43:48.316,-0.415,-0.415
2021-08-01 00:43:48.320,-0.425,-0.37
2021-08-01 00:43:48.324,-0.41,-0.38
2021-08-01 00:43:48.328,-0.4,-0.43
2021-08-01 00:43:48.332,-0.38,-0.43
2021-08-01 00:43:48.336,-0.36,-0.385
2021-08-01 00:43:48.340,-0.36,-0.415
2021-08-01 00:43:48.344,-0.37,-0.54
2021-08-01 00:43:48.348,-0.38,-0.55
2021-08-01 00:43:48.352,-0.375,-0.48
2021-08-01 00:43:48.356,-0.4,-0.42
2021-08-01 00:43:48.360,-0.37,-0.37
2021-08-01 00:43:48.364,-0.39,-0.42
2021-08-01 00:43:48.368,-0.405,-0.42
2021-08-01 00:43:48.372,-0.43,-0.36
2021-08-01 00:43:48.376,-0.465,-0.3
2021-08-01 00:43:48.380,-0.47,-0.23
2021-08-01 00:43:48.384,-0.47,-0.255
2021-08-01 00:43:48.388,-0.455,-0.31
2021-08-01 00:43:48.392,-0.445,-0.31
2021-08-01 00:43:48.396,-0.455,-0.34
2021-08-01 00:43:48.400,-0.4,-0.355
2021-08-01 00:43:48.404,-0.445,-0.335
2021-08-01 00:43:48.408,-0.495,-0.23
2021-08-01 00:43:48.412,-0.51,-0.21
2021-08-01 00:43:48.416,-0.455,-0.205
2021-08-01 00:43:48.420,-0.465,-0.225
2021-08-01 00:43:48.424,-0.48,-0.32
2021-08-01 00:43:48.428,-0.49,-0.49
2021-08-01 00:43:48.432,-0.52,-0.54
2021-08-01 00:43:48.436,-0.49,-0.415
2021-08-01 00:43:48.440,-0.47,-0.45
2021-08-01 00:43:48.444,-0.445,-0.605
2021-08-01 00:43:48.448,-0.43,-0.58
2021-08-01 00:43:48.452,-0.44,-0.455
2021-08-01 00:43:48.456,-0.445,-0.32
2021-08-01 00:43:48.460,-0.465,-0.26
2021-08-01 00:43:48.464,-0.42,-0.3
2021-08-01 00:43:48.468,-0.44,-0.35
2021-08-01 00:43:48.472,-0.465,-0.42
2021-08-01 00:43:48.476,-0.465,-0.5
2021-08-01 00:43:48.480,-0.475,-0.555
2021-08-01 00:43:48.484,-0.495,-0.58
2021-08-01 00:43:48.488,-0.51,-0.56
2021-08-01 00:43:48.492,-0.515,-0.55
2021-08-01 00:43:48.496,-0.54,-0.515
2021-08-01 00:43:48.500,-0.56,-0.48
2021-08-01 00:43:48.504,-0.545,-0.5
2021-08-01 00:43:48.508,-0.515,-0.44
2021-08-01 00:43:48.512,-0.495,-0.32
2021-08-01 00:43:48.516,-0.445,-0.335
2021-08-01 00:43:48.520,-0.43,-0.445
2021-08-01 00:43:48.524,-0.44,-0.52
2021-08-01 00:43:48.528,-0.445,-0.545
2021-08-01 00:43:48.532,-0.47,-0.55
2021-08-01 00:43:48.536,-0.46,-0.52
2021-08-01 00:43:48.540,-0.465,-0.455
2021-08-01 00:43:48.544,-0.455,-0.395
2021-08-01 00:43:48.548,-0.45,-0.35
2021-08-01 00:43:48.552,-0.495,-0.295
2021-08-01 00:43:48.556,-0.52,-0.24
2021-08-01 00:43:48.560,-0.525,-0.18
2021-08-01 00:43:48.564,-0.49,-0.05
2021-08-01 00:43:48.568,-0.48,0.085
2021-08-01 00:43:48.572,-0.405,0.335
2021-08-01 00:43:48.576,-0.38,0.715
2021-08-01 00:43:48.580,-0.47,1.015
2021-08-01 00:43:48.584,-0.72,1.15
2021-08-01 00:43:48.588,-1.08,1.345
2021-08-01 00:43:48.592,-1.585,1.555
2021-08-01 00:43:48.644,-1.895,1.685
2021-08-01 00:43:48.648,-1.805,1.2
2021-08-01 00:43:48.652,-1.71,0.595
2021-08-01 00:43:48.656,-1.61,0.12
2021-08-01 00:43:48.660,-1.495,-0.2
2021-08-01 00:43:48.664,-1.345,-0.5
2021-08-01 00:43:48.668,-1.22,-0.67
2021-08-01 00:43:48.672,-1.07,-0.77
2021-08-01 00:43:48.676,-0.885,-0.785
2021-08-01 00:43:48.680,-0.735,-0.71
2021-08-01 00:43:48.684,-0.585,-0.7
2021-08-01 00:43:48.688,-0.445,-0.69
2021-08-01 00:43:48.692,-0.315,-0.75
2021-08-01 00:43:48.696,-0.215,-0.795
2021-08-01 00:43:48.700,-0.145,-0.86
2021-08-01 00:43:48.704,-0.09,-0.86
2021-08-01 00:43:48.708,-0.095,-0.78
2021-08-01 00:43:48.712,-0.065,-0.7
2021-08-01 00:43:48.716,-0.025,-0.775
2021-08-01 00:43:48.720,-0.015,-0.765
2021-08-01 00:43:48.724,-0.005,-0.7
2021-08-01 00:43:48.728,0.025,-0.66
2021-08-01 00:43:48.732,0.05,-0.775
2021-08-01 00:43:48.736,0.045,-0.86
2021-08-01 00:43:48.740,0.04,-0.86
2021-08-01 00:43:48.744,0.04,-0.82
2021-08-01 00:43:48.748,0.055,-0.82
2021-08-01 00:43:48.752,0.07,-0.78
2021-08-01 00:43:48.756,0.07,-0.7
2021-08-01 00:43:48.760,0.11,-0.65
2021-08-01 00:43:48.764,0.1,-0.675
2021-08-01 00:43:48.768,0.075,-0.72
2021-08-01 00:43:48.772,0.11,-0.7
2021-08-01 00:43:48.776,0.145,-0.69
2021-08-01 00:43:48.780,0.145,-0.725
2021-08-01 00:43:48.784,0.13,-0.835
2021-08-01 00:43:48.788,0.135,-0.92
2021-08-01 00:43:48.792,0.165,-0.925
2021-08-01 00:43:48.796,0.175,-0.895
2021-08-01 00:43:48.800,0.21,-0.95
2021-08-01 00:43:48.804,0.26,-0.93
2021-08-01 00:43:48.808,0.28,-0.88
2021-08-01 00:43:48.812,0.27,-0.86
2021-08-01 00:43:48.816,0.34,-0.88
2021-08-01 00:43:48.820,0.34,-0.895
2021-08-01 00:43:48.824,0.355,-0.89
2021-08-01 00:43:48.828,0.375,-0.915
2021-08-01 00:43:48.832,0.415,-0.955
2021-08-01 00:43:48.836,0.415,-0.895
2021-08-01 00:43:48.840,0.41,-0.815
2021-08-01 00:43:48.844,0.455,-0.835
2021-08-01 00:43:48.848,0.445,-0.93
2021-08-01 00:43:48.852,0.43,-0.915
2021-08-01 00:43:48.856,0.425,-0.825
2021-08-01 00:43:48.860,0.45,-0.845
2021-08-01 00:43:48.864,0.41,-0.925
2021-08-01 00:43:48.868,0.405,-0.96
2021-08-01 00:43:48.872,0.4,-0.895
2021-08-01 00:43:48.876,0.38,-0.78
2021-08-01 00:43:48.880,0.34,-0.675
2021-08-01 00:43:48.884,0.295,-0.585
2021-08-01 00:43:48.888,0.245,-0.53
2021-08-01 00:43:48.892,0.195,-0.47
2021-08-01 00:43:48.896,0.16,-0.455
2021-08-01 00:43:48.900,0.095,-0.46
2021-08-01 00:43:48.904,0.065,-0.46
2021-08-01 00:43:48.908,0.0,-0.38
2021-08-01 00:43:48.912,-0.03,-0.335
2021-08-01 00:43:48.916,-0.085,-0.345
2021-08-01 00:43:48.920,-0.17,-0.275
2021-08-01 00:43:48.924,-0.17,-0.305
2021-08-01 00:43:48.928,-0.205,-0.39
2021-08-01 00:43:48.932,-0.25,-0.38
2021-08-01 00:43:48.936,-0.285,-0.425
2021-08-01 00:43:48.940,-0.31,-0.48
2021-08-01 00:43:48.944,-0.36,-0.49
2021-08-01 00:43:48.948,-0.38,-0.49
2021-08-01 00:43:48.952,-0.385,-0.485
2021-08-01 00:43:48.956,-0.435,-0.445
2021-08-01 00:43:48.960,-0.445,-0.37
2021-08-01 00:43:48.964,-0.425,-0.375
2021-08-01 00:43:48.968,-0.425,-0.455
2021-08-01 00:43:48.972,-0.47,-0.51
2021-08-01 00:43:48.976,-0.45,-0.56
2021-08-01 00:43:48.980,-0.46,-0.635
2021-08-01 00:43:48.984,-0.49,-0.615
2021-08-01 00:43:48.988,-0.48,-0.55
2021-08-01 00:43:48.992,-0.43,-0.51
2021-08-01 00:43:48.996,-0.41,-0.515
2021-08-01 00:43:49.000,-0.42,-0.54
2021-08-01 00:43:49.004,-0.465,-0.56
2021-08-01 00:43:49.008,-0.46,-0.52
2021-08-01 00:43:49.012,-0.47,-0.475
2021-08-01 00:43:49.016,-0.485,-0.49
2021-08-01 00:43:49.020,-0.475,-0.5
2021-08-01 00:43:49.024,-0.47,-0.455
2021-08-01 00:43:49.028,-0.515,-0.445
2021-08-01 00:43:49.032,-0.49,-0.49
2021-08-01 00:43:49.036,-0.475,-0.56
2021-08-01 00:43:49.040,-0.47,-0.525
2021-08-01 00:43:49.044,-0.5,-0.535
2021-08-01 00:43:49.048,-0.49,-0.62
2021-08-01 00:43:49.052,-0.495,-0.69
2021-08-01 00:43:49.056,-0.47,-0.72
2021-08-01 00:43:49.060,-0.48,-0.675
2021-08-01 00:43:49.064,-0.475,-0.595
2021-08-01 00:43:49.068,-0.46,-0.495
2021-08-01 00:43:49.072,-0.475,-0.515
2021-08-01 00:43:49.076,-0.51,-0.655
2021-08-01 00:43:49.080,-0.515,-0.75
2021-08-01 00:43:49.084,-0.52,-0.74
2021-08-01 00:43:49.088,-0.515,-0.64
2021-08-01 00:43:49.092,-0.475,-0.495
2021-08-01 00:43:49.096,-0.445,-0.485
2021-08-01 00:43:49.100,-0.445,-0.57
2021-08-01 00:43:49.104,-0.47,-0.73
2021-08-01 00:43:49.108,-0.505,-0.77
2021-08-01 00:43:49.112,-0.49,-0.725
2021-08-01 00:43:49.116,-0.505,-0.63
2021-08-01 00:43:49.120,-0.505,-0.615
2021-08-01 00:43:49.124,-0.495,-0.69
2021-08-01 00:43:49.128,-0.48,-0.7
2021-08-01 00:43:49.132,-0.49,-0.7
2021-08-01 00:43:49.136,-0.525,-0.675
2021-08-01 00:43:49.140,-0.515,-0.67
2021-08-01 00:43:49.144,-0.505,-0.64
2021-08-01 00:43:49.148,-0.535,-0.66
2021-08-01 00:43:49.152,-0.53,-0.66
2021-08-01 00:43:49.156,-0.52,-0.605
2021-08-01 00:43:49.160,-0.535,-0.565
2021-08-01 00:43:49.164,-0.525,-0.555
2021-08-01 00:43:49.168,-0.535,-0.605
2021-08-01 00:43:49.172,-0.54,-0.625
2021-08-01 00:43:49.176,-0.535,-0.6
2021-08-01 00:43:49.180,-0.56,-0.57
2021-08-01 00:43:49.184,-0.545,-0.545
2021-08-01 00:43:49.188,-0.525,-0.62
2021-08-01 00:43:49.192,-0.555,-0.695
2021-08-01 00:43:49.196,-0.54,-0.71
2021-08-01 00:43:49.200,-0.515,-0.625
2021-08-01 00:43:49.204,-0.54,-0.53
2021-08-01 00:43:49.208,-0.56,-0.525
2021-08-01 00:43:49.212,-0.555,-0.62
2021-08-01 00:43:49.216,-0.57,-0.625
2021-08-01 00:43:49.220,-0.58,-0.545
2021-08-01 00:43:49.224,-0.56,-0.515
2021-08-01 00:43:49.228,-0.54,-0.62
2021-08-01 00:43:49.232,-0.545,-0.685
2021-08-01 00:43:49.236,-0.565,-0.66
2021-08-01 00:43:49.240,-0.59,-0.615
2021-08-01 00:43:49.244,-0.595,-0.56
2021-08-01 00:43:49.248,-0.55,-0.585
2021-08-01 00:43:49.252,-0.54,-0.66
2021-08-01 00:43:49.256,-0.555,-0.61
2021-08-01 00:43:49.260,-0.555,-0.535
2021-08-01 00:43:49.264,-0.57,-0.56
2021-08-01 00:43:49.268,-0.57,-0.635
2021-08-01 00:43:49.272,-0.575,-0.665
2021-08-01 00:43:49.276,-0.585,-0.625
2021-08-01 00:43:49.280,-0.58,-0.57
2021-08-01 00:43:49.284,-0.555,-0.53
2021-08-01 00:43:49.288,-0.545,-0.455
2021-08-01 00:43:49.292,-0.515,-0.475
2021-08-01 00:43:49.296,-0.53,-0.62
2021-08-01 00:43:49.300,-0.55,-0.745
2021-08-01 00:43:49.304,-0.53,-0.67
2021-08-01 00:43:49.308,-0.545,-0.56
2021-08-01 00:43:49.312,-0.515,-0.51
2021-08-01 00:43:49.316,-0.515,-0.535
2021-08-01 00:43:49.320,-0.53,-0.575
2021-08-01 00:43:49.324,-0.54,-0.61
2021-08-01 00:43:49.328,-0.56,-0.595
2021-08-01 00:43:49.332,-0.56,-0.6
2021-08-01 00:43:49.336,-0.56,-0.595
2021-08-01 00:43:49.340,-0.54,-0.48
2021-08-01 00:43:49.344,-0.545,-0.445
2021-08-01 00:43:49.348,-0.53,-0.51
2021-08-01 00:43:49.352,-0.56,-0.605
2021-08-01 00:43:49.356,-0.6,-0.64
2021-08-01 00:43:49.360,-0.58,-0.615
2021-08-01 00:43:49.364,-0.595,-0.54
2021-08-01 00:43:49.368,-0.59,-0.515
2021-08-01 00:43:49.372,-0.585,-0.54
2021-08-01 00:43:49.376,-0.58,-0.585
2021-08-01 00:43:49.380,-0.615,-0.57
2021-08-01 00:43:49.384,-0.6,-0.59
2021-08-01 00:43:49.388,-0.62,-0.61
2021-08-01 00:43:49.392,-0.61,-0.58
2021-08-01 00:43:49.396,-0.61,-0.565
2021-08-01 00:43:49.400,-0.615,-0.54
2021-08-01 00:43:49.404,-0.635,-0.525
2021-08-01 00:43:49.408,-0.66,-0.52
2021-08-01 00:43:49.412,-0.635,-0.515
2021-08-01 00:43:49.416,-0.66,-0.575
2021-08-01 00:43:49.420,-0.675,-0.6
2021-08-01 00:43:49.424,-0.685,-0.585
2021-08-01 00:43:49.428,-0.7,-0.54
2021-08-01 00:43:49.432,-0.725,-0.5
2021-08-01 00:43:49.436,-0.725,-0.54
2021-08-01 00:43:49.440,-0.745,-0.57
2021-08-01 00:43:49.444,-0.73,-0.56
2021-08-01 00:43:49.448,-0.745,-0.535
2021-08-01 00:43:49.452,-0.78,-0.53
2021-08-01 00:43:49.456,-0.845,-0.485
2021-08-01 00:43:49.460,-0.935,-0.41
2021-08-01 00:43:49.464,-0.975,-0.385
2021-08-01 00:43:49.468,-0.995,-0.415
2021-08-01 00:43:49.472,-1.025,-0.54
2021-08-01 00:43:49.476,-1.065,-0.665
2021-08-01 00:43:49.480,-1.08,-0.66
2021-08-01 00:43:49.484,-1.095,-0.575
2021-08-01 00:43:49.488,-1.095,-0.525
2021-08-01 00:43:49.492,-1.09,-0.55
2021-08-01 00:43:49.496,-1.06,-0.58
2021-08-01 00:43:49.500,-1.085,-0.58
2021-08-01 00:43:49.504,-1.085,-0.55
2021-08-01 00:43:49.508,-1.105,-0.52
2021-08-01 00:43:49.512,-1.085,-0.545
2021-08-01 00:43:49.516,-1.07,-0.57
2021-08-01 00:43:49.520,-1.075,-0.57
2021-08-01 00:43:49.524,-1.075,-0.525
2021-08-01 00:43:49.528,-1.09,-0.55
2021-08-01 00:43:49.532,-1.09,-0.55
2021-08-01 00:43:49.536,-1.08,-0.525
2021-08-01 00:43:49.540,-1.1,-0.49
2021-08-01 00:43:49.544,-1.07,-0.49
2021-08-01 00:43:49.548,-1.065,-0.485
2021-08-01 00:43:49.552,-1.07,-0.535
2021-08-01 00:43:49.556,-1.06,-0.605
2021-08-01 00:43:49.560,-1.07,-0.595
2021-08-01 00:43:49.564,-1.08,-0.53
2021-08-01 00:43:49.568,-1.09,-0.455
2021-08-01 00:43:49.572,-1.075,-0.44
2021-08-01 00:43:49.576,-1.095,-0.47
2021-08-01 00:43:49.580,-1.07,-0.545
2021-08-01 00:43:49.584,-1.085,-0.63
2021-08-01 00:43:49.588,-1.105,-0.64
2021-08-01 00:43:49.592,-1.085,-0.575
2021-08-01 00:43:49.596,-1.07,-0.515
2021-08-01 00:43:49.600,-1.06,-0.51
2021-08-01 00:43:49.604,-1.08,-0.555
2021-08-01 00:43:49.608,-1.085,-0.555
2021-08-01 00:43:49.612,-1.075,-0.575
2021-08-01 00:43:49.616,-1.085,-0.575
2021-08-01 00:43:49.620,-1.085,-0.5
2021-08-01 00:43:49.624,-1.075,-0.475
2021-08-01 00:43:49.628,-1.06,-0.515
2021-08-01 00:43:49.632,-1.075,-0.58
2021-08-01 00:43:49.636,-1.065,-0.6
2021-08-01 00:43:49.640,-1.06,-0.495
2021-08-01 00:43:49.644,-1.085,-0.46
2021-08-01 00:43:49.648,-1.075,-0.495
2021-08-01 00:43:49.652,-1.065,-0.545
2021-08-01 00:43:49.656,-1.055,-0.54
2021-08-01 00:43:49.660,-1.06,-0.49
2021-08-01 00:43:49.664,-1.065,-0.45
2021-08-01 00:43:49.668,-1.095,-0.53
2021-08-01 00:43:49.672,-1.065,-0.56
2021-08-01 00:43:49.676,-1.03,-0.545
2021-08-01 00:43:49.680,-1.055,-0.52
2021-08-01 00:43:49.684,-1.025,-0.5
2021-08-01 00:43:49.688,-1.005,-0.505
2021-08-01 00:43:49.692,-1.05,-0.545
2021-08-01 00:43:49.696,-1.03,-0.575
2021-08-01 00:43:49.700,-0.995,-0.555
2021-08-01 00:43:49.704,-1.05,-0.54
2021-08-01 00:43:49.708,-1.055,-0.54
2021-08-01 00:43:49.712,-1.035,-0.55
2021-08-01 00:43:49.716,-1.05,-0.565
2021-08-01 00:43:49.720,-1.045,-0.485
2021-08-01 00:43:49.724,-1.06,-0.48
2021-08-01 00:43:49.728,-1.02,-0.57
2021-08-01 00:43:49.732,-1.01,-0.595
2021-08-01 00:43:49.736,-1.01,-0.54
2021-08-01 00:43:49.740,-1.03,-0.525
2021-08-01 00:43:49.744,-1.04,-0.55
2021-08-01 00:43:49.748,-1.035,-0.585
2021-08-01 00:43:49.752,-1.03,-0.585
2021-08-01 00:43:49.756,-1.03,-0.515
2021-08-01 00:43:49.760,-1.005,-0.48
2021-08-01 00:43:49.764,-1.015,-0.48
2021-08-01 00:43:49.768,-1.005,-0.4
2021-08-01 00:43:49.772,-0.985,-0.335
2021-08-01 00:43:49.776,-1.005,-0.365
2021-08-01 00:43:49.780,-1.0,-0.5
2021-08-01 00:43:49.784,-1.005,-0.64
2021-08-01 00:43:49.788,-1.02,-0.67
2021-08-01 00:43:49.792,-1.005,-0.62
2021-08-01 00:43:49.796,-0.995,-0.625
2021-08-01 00:43:49.800,-1.015,-0.6
2021-08-01 00:43:49.804,-1.005,-0.52
2021-08-01 00:43:49.808,-1.005,-0.485
2021-08-01 00:43:49.812,-0.995,-0.54
2021-08-01 00:43:49.816,-0.98,-0.575
2021-08-01 00:43:49.820,-0.965,-0.59
2021-08-01 00:43:49.824,-0.97,-0.565
2021-08-01 00:43:49.828,-1.0,-0.52
2021-08-01 00:43:49.832,-0.97,-0.495
2021-08-01 00:43:49.836,-0.955,-0.445
2021-08-01 00:43:49.840,-0.965,-0.395
2021-08-01 00:43:49.844,-0.96,-0.4
2021-08-01 00:43:49.848,-0.985,-0.385
2021-08-01 00:43:49.852,-0.98,-0.42
2021-08-01 00:43:49.856,-0.965,-0.555
2021-08-01 00:43:49.860,-0.975,-0.675
2021-08-01 00:43:49.864,-0.965,-0.665
2021-08-01 00:43:49.868,-0.975,-0.535
2021-08-01 00:43:49.872,-0.985,-0.46
2021-08-01 00:43:49.876,-0.95,-0.53
2021-08-01 00:43:49.880,-0.92,-0.585
2021-08-01 00:43:49.884,-0.895,-0.6
2021-08-01 00:43:49.888,-0.93,-0.55
2021-08-01 00:43:49.892,-0.915,-0.485
2021-08-01 00:43:49.896,-0.94,-0.39
2021-08-01 00:43:49.900,-0.93,-0.375
2021-08-01 00:43:49.904,-0.95,-0.435
2021-08-01 00:43:49.908,-0.935,-0.545
2021-08-01 00:43:49.912,-0.93,-0.6
2021-08-01 00:43:49.916,-0.94,-0.58
2021-08-01 00:43:49.920,-0.945,-0.575
2021-08-01 00:43:49.924,-0.925,-0.48
2021-08-01 00:43:49.928,-0.895,-0.435
2021-08-01 00:43:49.932,-0.9,-0.395
2021-08-01 00:43:49.936,-0.895,-0.35
2021-08-01 00:43:49.940,-0.89,-0.255
2021-08-01 00:43:49.944,-0.845,-0.25
2021-08-01 00:43:49.948,-0.855,-0.32
2021-08-01 00:43:49.952,-0.825,-0.39
2021-08-01 00:43:49.956,-0.8,-0.385
2021-08-01 00:43:49.960,-0.775,-0.33
2021-08-01 00:43:49.964,-0.77,-0.295
2021-08-01 00:43:49.968,-0.805,-0.285
2021-08-01 00:43:49.972,-0.81,-0.355
2021-08-01 00:43:49.976,-0.84,-0.375
2021-08-01 00:43:49.980,-0.86,-0.43
2021-08-01 00:43:49.984,-0.87,-0.55
2021-08-01 00:43:49.988,-0.89,-0.6
2021-08-01 00:43:49.992,-0.895,-0.565
2021-08-01 00:43:49.996,-0.885,-0.56
2021-08-01 00:43:50.000,-0.92,-0.575
2021-08-01 00:43:50.004,-0.925,-0.65
2021-08-01 00:43:50.008,-0.905,-0.655
2021-08-01 00:43:50.012,-0.955,-0.59
2021-08-01 00:43:50.016,-0.91,-0.575
2021-08-01 00:43:50.020,-0.92,-0.635
2021-08-01 00:43:50.024,-0.93,-0.68
2021-08-01 00:43:50.028,-0.91,-0.65
2021-08-01 00:43:50.032,-0.9,-0.63
2021-08-01 00:43:50.036,-0.92,-0.595
2021-08-01 00:43:50.040,-0.925,-0.575
2021-08-01 00:43:50.044,-0.935,-0.52
2021-08-01 00:43:50.048,-0.91,-0.53
2021-08-01 00:43:50.052,-0.935,-0.625
2021-08-01 00:43:50.056,-0.92,-0.66
2021-08-01 00:43:50.060,-0.92,-0.615
2021-08-01 00:43:50.064,-0.905,-0.585
2021-08-01 00:43:50.068,-0.88,-0.615
2021-08-01 00:43:50.072,-0.905,-0.635
2021-08-01 00:43:50.076,-0.89,-0.625
2021-08-01 00:43:50.080,-0.895,-0.615
2021-08-01 00:43:50.084,-0.9,-0.59
2021-08-01 00:43:50.088,-0.895,-0.51
2021-08-01 00:43:50.092,-0.875,-0.445
2021-08-01 00:43:50.096,-0.865,-0.28
2021-08-01 00:43:50.100,-0.845,-0.06
2021-08-01 00:43:50.104,-0.8,0.23
2021-08-01 00:43:50.108,-0.765,0.52
2021-08-01 00:43:50.112,-0.865,0.755
2021-08-01 00:43:50.116,-1.085,0.94
2021-08-01 00:43:50.120,-1.495,1.13
2021-08-01 00:43:50.192,-1.915,-0.425
2021-08-01 00:43:50.196,-1.76,-0.715
2021-08-01 00:43:50.200,-1.64,-0.83
2021-08-01 00:43:50.204,-1.505,-0.87
2021-08-01 00:43:50.208,-1.32,-0.875
2021-08-01 00:43:50.212,-1.13,-0.85
2021-08-01 00:43:50.216,-1.005,-0.855
2021-08-01 00:43:50.220,-0.835,-0.83
2021-08-01 00:43:50.224,-0.69,-0.81
2021-08-01 00:43:50.228,-0.57,-0.83
2021-08-01 00:43:50.232,-0.49,-0.825
2021-08-01 00:43:50.236,-0.465,-0.815
2021-08-01 00:43:50.240,-0.43,-0.81
2021-08-01 00:43:50.244,-0.405,-0.845
2021-08-01 00:43:50.248,-0.375,-0.865
2021-08-01 00:43:50.252,-0.35,-0.87
2021-08-01 00:43:50.256,-0.345,-0.825
2021-08-01 00:43:50.260,-0.3,-0.81
2021-08-01 00:43:50.264,-0.305,-0.8
2021-08-01 00:43:50.268,-0.28,-0.795
2021-08-01 00:43:50.272,-0.29,-0.82
2021-08-01 00:43:50.276,-0.26,-0.855
2021-08-01 00:43:50.280,-0.24,-0.85
2021-08-01 00:43:50.284,-0.22,-0.81
2021-08-01 00:43:50.288,-0.21,-0.795
2021-08-01 00:43:50.292,-0.185,-0.755
2021-08-01 00:43:50.296,-0.205,-0.745
2021-08-01 00:43:50.300,-0.185,-0.81
2021-08-01 00:43:50.304,-0.16,-0.89
2021-08-01 00:43:50.308,-0.14,-0.915
2021-08-01 00:43:50.312,-0.11,-0.94
2021-08-01 00:43:50.316,-0.085,-0.94
2021-08-01 00:43:50.320,-0.055,-0.915
2021-08-01 00:43:50.324,-0.045,-0.88
2021-08-01 00:43:50.328,-0.04,-0.87
2021-08-01 00:43:50.332,-0.01,-0.89
2021-08-01 00:43:50.336,0.015,-0.925
2021-08-01 00:43:50.340,0.055,-0.96
2021-08-01 00:43:50.344,0.07,-0.955
2021-08-01 00:43:50.348,0.08,-0.96
2021-08-01 00:43:50.352,0.1,-0.985
2021-08-01 00:43:50.356,0.14,-1.0
2021-08-01 00:43:50.360,0.15,-0.995
2021-08-01 00:43:50.364,0.185,-0.98
2021-08-01 00:43:50.368,0.185,-1.0
2021-08-01 00:43:50.372,0.22,-1.005
2021-08-01 00:43:50.376,0.23,-1.005
2021-08-01 00:43:50.380,0.23,-0.99
2021-08-01 00:43:50.384,0.25,-1.015
2021-08-01 00:43:50.388,0.26,-0.98
2021-08-01 00:43:50.392,0.245,-0.945
2021-08-01 00:43:50.396,0.235,-0.915
2021-08-01 00:43:50.400,0.225,-0.865
2021-08-01 00:43:50.404,0.205,-0.835
2021-08-01 00:43:50.408,0.19,-0.79
2021-08-01 00:43:50.412,0.155,-0.745
2021-08-01 00:43:50.416,0.15,-0.68
2021-08-01 00:43:50.420,0.11,-0.665
2021-08-01 00:43:50.424,0.045,-0.635
2021-08-01 00:43:50.428,-0.015,-0.55
2021-08-01 00:43:50.432,-0.055,-0.53
2021-08-01 00:43:50.436,-0.085,-0.49
2021-08-01 00:43:50.440,-0.145,-0.445
2021-08-01 00:43:50.444,-0.195,-0.395
2021-08-01 00:43:50.448,-0.265,-0.405
2021-08-01 00:43:50.452,-0.3,-0.39
2021-08-01 00:43:50.456,-0.335,-0.42
2021-08-01 00:43:50.460,-0.365,-0.435
2021-08-01 00:43:50.464,-0.38,-0.405
2021-08-01 00:43:50.468,-0.455,-0.375
2021-08-01 00:43:50.472,-0.47,-0.395
2021-08-01 00:43:50.476,-0.465,-0.43
2021-08-01 00:43:50.480,-0.48,-0.425
2021-08-01 00:43:50.484,-0.515,-0.415
2021-08-01 00:43:50.488,-0.535,-0.4
2021-08-01 00:43:50.492,-0.54,-0.41
2021-08-01 00:43:50.496,-0.525,-0.405
2021-08-01 00:43:50.500,-0.55,-0.39
2021-08-01 00:43:50.504,-0.565,-0.38
2021-08-01 00:43:50.508,-0.56,-0.405
2021-08-01 00:43:50.512,-0.575,-0.41
2021-08-01 00:43:50.516,-0.555,-0.445
2021-08-01 00:43:50.520,-0.56,-0.465
2021-08-01 00:43:50.524,-0.58,-0.46
2021-08-01 00:43:50.528,-0.59,-0.445
2021-08-01 00:43:50.532,-0.575,-0.435
2021-08-01 00:43:50.536,-0.585,-0.425
2021-08-01 00:43:50.540,-0.57,-0.46
2021-08-01 00:43:50.544,-0.56,-0.43
2021-08-01 00:43:50.548,-0.575,-0.44
2021-08-01 00:43:50.552,-0.555,-0.465
2021-08-01 00:43:50.556,-0.545,-0.47
2021-08-01 00:43:50.560,-0.545,-0.465
2021-08-01 00:43:50.564,-0.53,-0.455
2021-08-01 00:43:50.568,-0.55,-0.445
2021-08-01 00:43:50.572,-0.53,-0.46
2021-08-01 00:43:50.576,-0.545,-0.475
2021-08-01 00:43:50.580,-0.55,-0.46
2021-08-01 00:43:50.584,-0.525,-0.475
2021-08-01 00:43:50.588,-0.535,-0.47
2021-08-01 00:43:50.592,-0.54,-0.475
2021-08-01 00:43:50.596,-0.525,-0.465
2021-08-01 00:43:50.600,-0.545,-0.48
2021-08-01 00:43:50.604,-0.52,-0.495
2021-08-01 00:43:50.608,-0.52,-0.495
2021-08-01 00:43:50.612,-0.5,-0.48
2021-08-01 00:43:50.616,-0.5,-0.47
2021-08-01 00:43:50.620,-0.48,-0.495
2021-08-01 00:43:50.624,-0.445,-0.48
2021-08-01 00:43:50.628,-0.455,-0.485
2021-08-01 00:43:50.632,-0.44,-0.49
2021-08-01 00:43:50.636,-0.425,-0.515
2021-08-01 00:43:50.640,-0.42,-0.49
2021-08-01 00:43:50.644,-0.44,-0.49
2021-08-01 00:43:50.648,-0.415,-0.465
2021-08-01 00:43:50.652,-0.43,-0.49
2021-08-01 00:43:50.656,-0.425,-0.49
2021-08-01 00:43:50.660,-0.415,-0.475
2021-08-01 00:43:50.664,-0.4,-0.465
2021-08-01 00:43:50.668,-0.42,-0.475
2021-08-01 00:43:50.672,-0.42,-0.455
2021-08-01 00:43:50.676,-0.39,-0.455
2021-08-01 00:43:50.680,-0.395,-0.46
2021-08-01 00:43:50.684,-0.39,-0.445
2021-08-01 00:43:50.688,-0.38,-0.425
2021-08-01 00:43:50.692,-0.38,-0.435
2021-08-01 00:43:50.696,-0.35,-0.43
2021-08-01 00:43:50.700,-0.3,-0.435
2021-08-01 00:43:50.704,-0.25,-0.42
2021-08-01 00:43:50.708,-0.045,-0.425
2021-08-01 00:43:50.712,0.06,-0.42
2021-08-01 00:43:50.716,0.09,-0.395
2021-08-01 00:43:50.720,0.11,-0.43
2021-08-01 00:43:50.724,0.115,-0.435
2021-08-01 00:43:50.728,0.135,-0.415
2021-08-01 00:43:50.732,0.125,-0.425
2021-08-01 00:43:50.736,0.135,-0.41
2021-08-01 00:43:50.740,0.145,-0.39
2021-08-01 00:43:50.744,0.11,-0.38
2021-08-01 00:43:50.748,0.115,-0.38
2021-08-01 00:43:50.752,0.11,-0.4
2021-08-01 00:43:50.756,0.12,-0.37
2021-08-01 00:43:50.760,0.15,-0.37
2021-08-01 00:43:50.764,0.135,-0.355
2021-08-01 00:43:50.768,0.125,-0.36
2021-08-01 00:43:50.772,0.13,-0.385
2021-08-01 00:43:50.776,0.14,-0.385
2021-08-01 00:43:50.780,0.135,-0.37
2021-08-01 00:43:50.784,0.165,-0.37
2021-08-01 00:43:50.788,0.14,-0.345
2021-08-01 00:43:50.792,0.165,-0.325
2021-08-01 00:43:50.796,0.17,-0.33
2021-08-01 00:43:50.800,0.145,-0.375
2021-08-01 00:43:50.804,0.15,-0.365
2021-08-01 00:43:50.808,0.165,-0.36
2021-08-01 00:43:50.812,0.175,-0.35
2021-08-01 00:43:50.816,0.165,-0.365
2021-08-01 00:43:50.820,0.175,-0.33
2021-08-01 00:43:50.824,0.18,-0.325
2021-08-01 00:43:50.828,0.175,-0.32
2021-08-01 00:43:50.832,0.175,-0.325
2021-08-01 00:43:50.836,0.185,-0.34
2021-08-01 00:43:50.840,0.185,-0.315
2021-08-01 00:43:50.844,0.205,-0.33
2021-08-01 00:43:50.848,0.195,-0.33
2021-08-01 00:43:50.852,0.185,-0.315
2021-08-01 00:43:50.856,0.18,-0.305
2021-08-01 00:43:50.860,0.23,-0.275
2021-08-01 00:43:50.864,0.22,-0.28
2021-08-01 00:43:50.868,0.23,-0.305
2021-08-01 00:43:50.872,0.21,-0.305
2021-08-01 00:43:50.876,0.215,-0.305
2021-08-01 00:43:50.880,0.205,-0.32
2021-08-01 00:43:50.884,0.21,-0.31
2021-08-01 00:43:50.888,0.22,-0.285
2021-08-01 00:43:50.892,0.225,-0.27
2021-08-01 00:43:50.896,0.21,-0.285
2021-08-01 00:43:50.900,0.205,-0.32
2021-08-01 00:43:50.904,0.195,-0.295
2021-08-01 00:43:50.908,0.215,-0.31
2021-08-01 00:43:50.912,0.22,-0.29
2021-08-01 00:43:50.916,0.19,-0.3
2021-08-01 00:43:50.920,0.195,-0.28
2021-08-01 00:43:50.924,0.18,-0.275
2021-08-01 00:43:50.928,0.19,-0.275
2021-08-01 00:43:50.932,0.22,-0.295
2021-08-01 00:43:50.936,0.21,-0.275
2021-08-01 00:43:50.940,0.19,-0.275
2021-08-01 00:43:50.944,0.19,-0.28
2021-08-01 00:43:50.948,0.175,-0.285
2021-08-01 00:43:50.952,0.18,-0.28
2021-08-01 00:43:50.956,0.22,-0.265
2021-08-01 00:43:50.960,0.21,-0.245
2021-08-01 00:43:50.964,0.195,-0.275
2021-08-01 00:43:50.968,0.18,-0.28
2021-08-01 00:43:50.972,0.185,-0.26
2021-08-01 00:43:50.976,0.195,-0.24
2021-08-01 00:43:50.980,0.185,-0.265
2021-08-01 00:43:50.984,0.19,-0.26
2021-08-01 00:43:50.988,0.2,-0.275
2021-08-01 00:43:50.992,0.2,-0.25
2021-08-01 00:43:50.996,0.205,-0.25
2021-08-01 00:43:51.000,0.23,-0.24
2021-08-01 00:43:51.004,0.24,-0.255
2021-08-01 00:43:51.008,0.205,-0.27
2021-08-01 00:43:51.012,0.22,-0.275
2021-08-01 00:43:51.016,0.195,-0.295
2021-08-01 00:43:51.020,0.205,-0.285
2021-08-01 00:43:51.024,0.19,-0.24
2021-08-01 00:43:51.028,0.17,-0.25
2021-08-01 00:43:51.032,0.195,-0.245
2021-08-01 00:43:51.036,0.22,-0.245
2021-08-01 00:43:51.040,0.21,-0.23
2021-08-01 00:43:51.044,0.21,-0.26
2021-08-01 00:43:51.048,0.19,-0.24
2021-08-01 00:43:51.052,0.185,-0.23
2021-08-01 00:43:51.056,0.2,-0.215
2021-08-01 00:43:51.060,0.255,-0.23
2021-08-01 00:43:51.064,0.215,-0.245
2021-08-01 00:43:51.068,0.18,-0.23
2021-08-01 00:43:51.072,0.195,-0.22
2021-08-01 00:43:51.076,0.18,-0.2
2021-08-01 00:43:51.080,0.19,-0.22
2021-08-01 00:43:51.084,0.18,-0.22
2021-08-01 00:43:51.088,0.165,-0.215
2021-08-01 00:43:51.092,0.185,-0.22
2021-08-01 00:43:51.096,0.2,-0.24
2021-08-01 00:43:51.100,0.195,-0.215
2021-08-01 00:43:51.104,0.23,-0.22
2021-08-01 00:43:51.108,0.2,-0.215
2021-08-01 00:43:51.112,0.19,-0.22
2021-08-01 00:43:51.116,0.195,-0.21
2021-08-01 00:43:51.120,0.22,-0.21
2021-08-01 00:43:51.124,0.245,-0.23
2021-08-01 00:43:51.128,0.24,-0.225
2021-08-01 00:43:51.132,0.22,-0.22
2021-08-01 00:43:51.136,0.23,-0.2
2021-08-01 00:43:51.140,0.225,-0.23
2021-08-01 00:43:51.144,0.225,-0.255
2021-08-01 00:43:51.148,0.23,-0.24
2021-08-01 00:43:51.152,0.23,-0.205
2021-08-01 00:43:51.156,0.23,-0.235
2021-08-01 00:43:51.160,0.205,-0.225
2021-08-01 00:43:51.164,0.22,-0.2
2021-08-01 00:43:51.168,0.215,-0.175
2021-08-01 00:43:51.172,0.235,-0.18
2021-08-01 00:43:51.176,0.21,-0.22
2021-08-01 00:43:51.180,0.2,-0.215
2021-08-01 00:43:51.184,0.195,-0.195
2021-08-01 00:43:51.188,0.185,-0.225
2021-08-01 00:43:51.192,0.195,-0.225
2021-08-01 00:43:51.196,0.195,-0.23
2021-08-01 00:43:51.200,0.215,-0.2
2021-08-01 00:43:51.204,0.23,-0.215
2021-08-01 00:43:51.208,0.225,-0.24
2021-08-01 00:43:51.212,0.22,-0.225
2021-08-01 00:43:51.216,0.22,-0.205
2021-08-01 00:43:51.220,0.21,-0.23
2021-08-01 00:43:51.224,0.235,-0.23
2021-08-01 00:43:51.228,0.235,-0.21
2021-08-01 00:43:51.232,0.23,-0.21
2021-08-01 00:43:51.236,0.225,-0.22
2021-08-01 00:43:51.240,0.25,-0.24
2021-08-01 00:43:51.244,0.27,-0.245
2021-08-01 00:43:51.248,0.25,-0.205
2021-08-01 00:43:51.252,0.22,-0.22
2021-08-01 00:43:51.256,0.23,-0.24
2021-08-01 00:43:51.260,0.265,-0.235
2021-08-01 00:43:51.264,0.25,-0.22
2021-08-01 00:43:51.268,0.25,-0.23
2021-08-01 00:43:51.272,0.23,-0.215
2021-08-01 00:43:51.276,0.255,-0.235
2021-08-01 00:43:51.280,0.255,-0.22
2021-08-01 00:43:51.284,0.255,-0.24
2021-08-01 00:43:51.288,0.25,-0.23
2021-08-01 00:43:51.292,0.26,-0.215
2021-08-01 00:43:51.296,0.245,-0.2
2021-08-01 00:43:51.300,0.275,-0.22
2021-08-01 00:43:51.304,0.265,-0.23
2021-08-01 00:43:51.308,0.265,-0.26
2021-08-01 00:43:51.312,0.27,-0.235
2021-08-01 00:43:51.316,0.285,-0.24
2021-08-01 00:43:51.320,0.27,-0.265
2021-08-01 00:43:51.324,0.26,-0.26
2021-08-01 00:43:51.328,0.265,-0.24
2021-08-01 00:43:51.332,0.28,-0.22
2021-08-01 00:43:51.336,0.28,-0.25
2021-08-01 00:43:51.340,0.28,-0.25
2021-08-01 00:43:51.344,0.275,-0.24
2021-08-01 00:43:51.348,0.28,-0.25
2021-08-01 00:43:51.352,0.28,-0.24
2021-08-01 00:43:51.356,0.255,-0.245
2021-08-01 00:43:51.360,0.25,-0.235
2021-08-01 00:43:51.364,0.25,-0.24
2021-08-01 00:43:51.368,0.245,-0.245
2021-08-01 00:43:51.372,0.285,-0.225
2021-08-01 00:43:51.376,0.27,-0.23
2021-08-01 00:43:51.380,0.265,-0.225
2021-08-01 00:43:51.384,0.26,-0.22
2021-08-01 00:43:51.388,0.26,-0.22
2021-08-01 00:43:51.392,0.26,-0.205
2021-08-01 00:43:51.396,0.27,-0.21
2021-08-01 00:43:51.400,0.28,-0.245
2021-08-01 00:43:51.404,0.265,-0.23
2021-08-01 00:43:51.408,0.25,-0.225
2021-08-01 00:43:51.412,0.26,-0.21
2021-08-01 00:43:51.416,0.25,-0.215
2021-08-01 00:43:51.420,0.275,-0.235
2021-08-01 00:43:51.424,0.265,-0.235
2021-08-01 00:43:51.428,0.265,-0.23
2021-08-01 00:43:51.432,0.27,-0.235
2021-08-01 00:43:51.436,0.245,-0.24
2021-08-01 00:43:51.440,0.27,-0.21
2021-08-01 00:43:51.444,0.26,-0.205
2021-08-01 00:43:51.448,0.26,-0.22
2021-08-01 00:43:51.452,0.285,-0.21
2021-08-01 00:43:51.456,0.285,-0.215
2021-08-01 00:43:51.460,0.29,-0.2
2021-08-01 00:43:51.464,0.255,-0.22
2021-08-01 00:43:51.468,0.245,-0.22
2021-08-01 00:43:51.472,0.27,-0.19
2021-08-01 00:43:51.476,0.265,-0.21
2021-08-01 00:43:51.480,0.275,-0.23
2021-08-01 00:43:51.484,0.285,-0.225
2021-08-01 00:43:51.488,0.28,-0.22
2021-08-01 00:43:51.492,0.295,-0.215
2021-08-01 00:43:51.496,0.275,-0.225
2021-08-01 00:43:51.500,0.3,-0.22
2021-08-01 00:43:51.504,0.29,-0.18
2021-08-01 00:43:51.508,0.3,-0.185
2021-08-01 00:43:51.512,0.315,-0.19
2021-08-01 00:43:51.516,0.295,-0.21
2021-08-01 00:43:51.520,0.275,-0.185
2021-08-01 00:43:51.524,0.3,-0.21
2021-08-01 00:43:51.528,0.285,-0.215
2021-08-01 00:43:51.532,0.29,-0.205
2021-08-01 00:43:51.536,0.305,-0.195
2021-08-01 00:43:51.540,0.285,-0.185
2021-08-01 00:43:51.544,0.285,-0.23
2021-08-01 00:43:51.548,0.295,-0.26
2021-08-01 00:43:51.552,0.295,-0.225
2021-08-01 00:43:51.556,0.3,-0.205
2021-08-01 00:43:51.560,0.295,-0.2
2021-08-01 00:43:51.564,0.31,-0.19
2021-08-01 00:43:51.568,0.29,-0.185
2021-08-01 00:43:51.572,0.28,-0.195
2021-08-01 00:43:51.576,0.285,-0.225
2021-08-01 00:43:51.580,0.275,-0.22
2021-08-01 00:43:51.584,0.25,-0.185
2021-08-01 00:43:51.588,0.275,-0.2
2021-08-01 00:43:51.592,0.285,-0.225
2021-08-01 00:43:51.596,0.275,-0.225
2021-08-01 00:43:51.600,0.255,-0.225
2021-08-01 00:43:51.604,0.26,-0.205
2021-08-01 00:43:51.608,0.255,-0.225
2021-08-01 00:43:51.612,0.24,-0.21
2021-08-01 00:43:51.616,0.25,-0.195
2021-08-01 00:43:51.620,0.28,-0.185
2021-08-01 00:43:51.624,0.27,-0.205
2021-08-01 00:43:51.628,0.26,-0.225
2021-08-01 00:43:51.632,0.255,-0.205
2021-08-01 00:43:51.636,0.265,-0.21
2021-08-01 00:43:51.640,0.255,-0.25
2021-08-01 00:43:51.644,0.27,-0.24
2021-08-01 00:43:51.648,0.26,-0.235
2021-08-01 00:43:51.652,0.26,-0.23
2021-08-01 00:43:51.656,0.255,-0.215
2021-08-01 00:43:51.660,0.235,-0.2
2021-08-01 00:43:51.664,0.235,-0.195
2021-08-01 00:43:51.668,0.275,-0.19
2021-08-01 00:43:51.672,0.24,-0.195
2021-08-01 00:43:51.676,0.25,-0.185
2021-08-01 00:43:51.680,0.25,-0.18
2021-08-01 00:43:51.684,0.25,-0.2
2021-08-01 00:43:51.688,0.235,-0.215
2021-08-01 00:43:51.692,0.255,-0.2
2021-08-01 00:43:51.696,0.245,-0.195
2021-08-01 00:43:51.700,0.24,-0.18
2021-08-01 00:43:51.704,0.25,-0.17
2021-08-01 00:43:51.708,0.265,-0.135
2021-08-01 00:43:51.712,0.27,-0.08
2021-08-01 00:43:51.716,0.26,0.045
2021-08-01 00:43:51.720,0.26,0.225
2021-08-01 00:43:51.724,0.28,0.52
2021-08-01 00:43:51.728,0.335,0.83
2021-08-01 00:43:51.732,0.29,0.985
2021-08-01 00:43:51.736,0.14,1.075
2021-08-01 00:43:51.740,-0.14,1.175
2021-08-01 00:43:51.744,-0.605,1.365
2021-08-01 00:43:51.748,-1.09,1.495
2021-08-01 00:43:51.752,-1.56,1.54
2021-08-01 00:43:51.756,-1.95,1.52
2021-08-01 00:43:51.768,-1.88,1.235
2021-08-01 00:43:51.772,-1.805,1.13
2021-08-01 00:43:51.776,-1.72,1.055
2021-08-01 00:43:51.780,-1.595,1.045
2021-08-01 00:43:51.784,-1.48,1.055
2021-08-01 00:43:51.788,-1.41,1.11
2021-08-01 00:43:51.792,-1.31,1.1
2021-08-01 00:43:51.796,-1.2,0.855
2021-08-01 00:43:51.800,-1.12,0.355
2021-08-01 00:43:51.804,-1.055,-0.09
2021-08-01 00:43:51.808,-0.94,-0.41
2021-08-01 00:43:51.812,-0.795,-0.585
2021-08-01 00:43:51.816,-0.665,-0.62
2021-08-01 00:43:51.820,-0.515,-0.59
2021-08-01 00:43:51.824,-0.35,-0.565
2021-08-01 00:43:51.828,-0.15,-0.56
2021-08-01 00:43:51.832,0.005,-0.585
2021-08-01 00:43:51.836,0.18,-0.545
2021-08-01 00:43:51.840,0.315,-0.565
2021-08-01 00:43:51.844,0.45,-0.625
2021-08-01 00:43:51.848,0.53,-0.66
2021-08-01 00:43:51.852,0.535,-0.655
2021-08-01 00:43:51.856,0.51,-0.605
2021-08-01 00:43:51.860,0.505,-0.6
2021-08-01 00:43:51.864,0.51,-0.62
2021-08-01 00:43:51.868,0.515,-0.625
2021-08-01 00:43:51.872,0.55,-0.6
2021-08-01 00:43:51.876,0.555,-0.615
2021-08-01 00:43:51.880,0.57,-0.605
2021-08-01 00:43:51.884,0.58,-0.6
2021-08-01 00:43:51.888,0.61,-0.6
2021-08-01 00:43:51.892,0.64,-0.595
2021-08-01 00:43:51.896,0.63,-0.615
2021-08-01 00:43:51.900,0.61,-0.6
2021-08-01 00:43:51.904,0.655,-0.6
2021-08-01 00:43:51.908,0.65,-0.6
2021-08-01 00:43:51.912,0.655,-0.615
2021-08-01 00:43:51.916,0.68,-0.62
2021-08-01 00:43:51.920,0.685,-0.605
2021-08-01 00:43:51.924,0.715,-0.58
2021-08-01 00:43:51.928,0.735,-0.61
2021-08-01 00:43:51.932,0.75,-0.615
2021-08-01 00:43:51.936,0.755,-0.615
2021-08-01 00:43:51.940,0.775,-0.62
2021-08-01 00:43:51.944,0.815,-0.62
2021-08-01 00:43:51.948,0.835,-0.62
2021-08-01 00:43:51.952,0.875,-0.64
2021-08-01 00:43:51.956,0.87,-0.655
2021-08-01 00:43:51.960,0.91,-0.675
2021-08-01 00:43:51.964,0.94,-0.68
2021-08-01 00:43:51.968,0.96,-0.67
2021-08-01 00:43:51.972,1.01,-0.675
2021-08-01 00:43:51.976,1.005,-0.705
2021-08-01 00:43:51.980,1.015,-0.7
2021-08-01 00:43:51.984,1.04,-0.685
2021-08-01 00:43:51.988,1.035,-0.705
2021-08-01 00:43:51.992,1.09,-0.67
2021-08-01 00:43:51.996,1.08,-0.675
2021-08-01 00:43:52.000,1.095,-0.64
2021-08-01 00:43:52.004,1.115,-0.61
2021-08-01 00:43:52.008,1.065,-0.58
2021-08-01 00:43:52.012,1.07,-0.53
2021-08-01 00:43:52.016,1.05,-0.475
2021-08-01 00:43:52.020,1.005,-0.415
2021-08-01 00:43:52.024,0.995,-0.375
2021-08-01 00:43:52.028,0.96,-0.315
2021-08-01 00:43:52.032,0.94,-0.265
2021-08-01 00:43:52.036,0.885,-0.23
2021-08-01 00:43:52.040,0.855,-0.2
2021-08-01 00:43:52.044,0.815,-0.185
2021-08-01 00:43:52.048,0.76,-0.12
2021-08-01 00:43:52.052,0.725,-0.1
2021-08-01 00:43:52.056,0.67,-0.13
2021-08-01 00:43:52.060,0.64,-0.135
2021-08-01 00:43:52.064,0.585,-0.135
2021-08-01 00:43:52.068,0.55,-0.125
2021-08-01 00:43:52.072,0.515,-0.125
2021-08-01 00:43:52.076,0.5,-0.125
2021-08-01 00:43:52.080,0.45,-0.135
2021-08-01 00:43:52.084,0.41,-0.145
2021-08-01 00:43:52.088,0.385,-0.155
2021-08-01 00:43:52.092,0.355,-0.15
2021-08-01 00:43:52.096,0.34,-0.16
2021-08-01 00:43:52.100,0.375,-0.165
2021-08-01 00:43:52.104,0.335,-0.18
2021-08-01 00:43:52.108,0.32,-0.17
2021-08-01 00:43:52.112,0.305,-0.16
2021-08-01 00:43:52.116,0.305,-0.17
2021-08-01 00:43:52.120,0.305,-0.185
2021-08-01 00:43:52.124,0.295,-0.185
2021-08-01 00:43:52.128,0.28,-0.195
2021-08-01 00:43:52.132,0.275,-0.17
2021-08-01 00:43:52.136,0.255,-0.18
2021-08-01 00:43:52.140,0.265,-0.2
2021-08-01 00:43:52.144,0.265,-0.205
2021-08-01 00:43:52.148,0.275,-0.23
2021-08-01 00:43:52.152,0.275,-0.215
2021-08-01 00:43:52.156,0.285,-0.215
2021-08-01 00:43:52.160,0.3,-0.225
2021-08-01 00:43:52.164,0.285,-0.21
2021-08-01 00:43:52.168,0.28,-0.215
2021-08-01 00:43:52.172,0.27,-0.225
2021-08-01 00:43:52.176,0.275,-0.245
2021-08-01 00:43:52.180,0.26,-0.265
2021-08-01 00:43:52.184,0.27,-0.26
2021-08-01 00:43:52.188,0.26,-0.265
2021-08-01 00:43:52.192,0.27,-0.28
2021-08-01 00:43:52.196,0.27,-0.3
2021-08-01 00:43:52.200,0.28,-0.29
2021-08-01 00:43:52.204,0.26,-0.275
2021-08-01 00:43:52.208,0.27,-0.305
2021-08-01 00:43:52.212,0.26,-0.295
2021-08-01 00:43:52.216,0.285,-0.29
2021-08-01 00:43:52.220,0.27,-0.28
2021-08-01 00:43:52.224,0.285,-0.3
2021-08-01 00:43:52.228,0.3,-0.325
2021-08-01 00:43:52.232,0.275,-0.32
2021-08-01 00:43:52.236,0.275,-0.3
2021-08-01 00:43:52.240,0.27,-0.315
2021-08-01 00:43:52.244,0.275,-0.325
2021-08-01 00:43:52.248,0.28,-0.32
2021-08-01 00:43:52.252,0.275,-0.31
2021-08-01 00:43:52.256,0.28,-0.32
2021-08-01 00:43:52.260,0.295,-0.315
2021-08-01 00:43:52.264,0.28,-0.31
2021-08-01 00:43:52.268,0.265,-0.29
2021-08-01 00:43:52.272,0.3,-0.295
2021-08-01 00:43:52.276,0.275,-0.3
2021-08-01 00:43:52.280,0.265,-0.315
2021-08-01 00:43:52.284,0.26,-0.3
2021-08-01 00:43:52.288,0.28,-0.3
2021-08-01 00:43:52.292,0.28,-0.295
2021-08-01 00:43:52.296,0.27,-0.305
2021-08-01 00:43:52.300,0.25,-0.29
2021-08-01 00:43:52.304,0.24,-0.29
2021-08-01 00:43:52.308,0.24,-0.27
2021-08-01 00:43:52.312,0.24,-0.295
2021-08-01 00:43:52.316,0.235,-0.285
2021-08-01 00:43:52.320,0.26,-0.285
2021-08-01 00:43:52.324,0.26,-0.295
2021-08-01 00:43:52.328,0.25,-0.25
2021-08-01 00:43:52.332,0.235,-0.265
2021-08-01 00:43:52.336,0.25,-0.275
2021-08-01 00:43:52.340,0.235,-0.265
2021-08-01 00:43:52.344,0.25,-0.25
2021-08-01 00:43:52.348,0.245,-0.26
2021-08-01 00:43:52.352,0.245,-0.265
2021-08-01 00:43:52.356,0.26,-0.255
2021-08-01 00:43:52.360,0.26,-0.24
2021-08-01 00:43:52.364,0.235,-0.24
2021-08-01 00:43:52.368,0.225,-0.245
2021-08-01 00:43:52.372,0.22,-0.24
2021-08-01 00:43:52.376,0.245,-0.225
2021-08-01 00:43:52.380,0.24,-0.245
2021-08-01 00:43:52.384,0.24,-0.255
2021-08-01 00:43:52.388,0.235,-0.245
2021-08-01 00:43:52.392,0.25,-0.22
2021-08-01 00:43:52.396,0.235,-0.235
2021-08-01 00:43:52.400,0.22,-0.25
2021-08-01 00:43:52.404,0.215,-0.25
2021-08-01 00:43:52.408,0.215,-0.23
2021-08-01 00:43:52.412,0.23,-0.225
2021-08-01 00:43:52.416,0.235,-0.23
2021-08-01 00:43:52.420,0.26,-0.22
2021-08-01 00:43:52.424,0.24,-0.22
2021-08-01 00:43:52.428,0.25,-0.225
2021-08-01 00:43:52.432,0.245,-0.24
2021-08-01 00:43:52.436,0.235,-0.23
2021-08-01 00:43:52.440,0.25,-0.22
2021-08-01 00:43:52.444,0.23,-0.22
2021-08-01 00:43:52.448,0.27,-0.205
2021-08-01 00:43:52.452,0.25,-0.215
2021-08-01 00:43:52.456,0.24,-0.23
2021-08-01 00:43:52.460,0.255,-0.21
2021-08-01 00:43:52.464,0.27,-0.195
2021-08-01 00:43:52.468,0.245,-0.215
2021-08-01 00:43:52.472,0.26,-0.2
2021-08-01 00:43:52.476,0.225,-0.2
2021-08-01 00:43:52.480,0.225,-0.19
2021-08-01 00:43:52.484,0.245,-0.2
2021-08-01 00:43:52.488,0.255,-0.185
2021-08-01 00:43:52.492,0.26,-0.205
2021-08-01 00:43:52.496,0.245,-0.2
2021-08-01 00:43:52.500,0.24,-0.185
2021-08-01 00:43:52.504,0.255,-0.195
2021-08-01 00:43:52.508,0.24,-0.175
2021-08-01 00:43:52.512,0.235,-0.185
2021-08-01 00:43:52.516,0.23,-0.19
2021-08-01 00:43:52.520,0.25,-0.185
2021-08-01 00:43:52.524,0.245,-0.16
2021-08-01 00:43:52.528,0.23,-0.185
2021-08-01 00:43:52.532,0.255,-0.16
2021-08-01 00:43:52.536,0.26,-0.17
2021-08-01 00:43:52.540,0.255,-0.165
2021-08-01 00:43:52.544,0.27,-0.175
2021-08-01 00:43:52.548,0.22,-0.18
2021-08-01 00:43:52.552,0.235,-0.185
2021-08-01 00:43:52.556,0.245,-0.155
2021-08-01 00:43:52.560,0.245,-0.145
2021-08-01 00:43:52.564,0.235,-0.16
2021-08-01 00:43:52.568,0.24,-0.175
2021-08-01 00:43:52.572,0.255,-0.155
2021-08-01 00:43:52.576,0.255,-0.15
2021-08-01 00:43:52.580,0.235,-0.17
2021-08-01 00:43:52.584,0.245,-0.185
2021-08-01 00:43:52.588,0.25,-0.15
2021-08-01 00:43:52.592,0.23,-0.16
2021-08-01 00:43:52.596,0.235,-0.16
2021-08-01 00:43:52.600,0.25,-0.15
2021-08-01 00:43:52.604,0.24,-0.15
2021-08-01 00:43:52.608,0.23,-0.155
2021-08-01 00:43:52.612,0.21,-0.15
2021-08-01 00:43:52.616,0.245,-0.16
2021-08-01 00:43:52.620,0.255,-0.14
2021-08-01 00:43:52.624,0.25,-0.135
2021-08-01 00:43:52.628,0.255,-0.15
2021-08-01 00:43:52.632,0.25,-0.145
2021-08-01 00:43:52.636,0.215,-0.16
2021-08-01 00:43:52.640,0.22,-0.14
2021-08-01 00:43:52.644,0.22,-0.16
2021-08-01 00:43:52.648,0.235,-0.16
2021-08-01 00:43:52.652,0.24,-0.15
2021-08-01 00:43:52.656,0.235,-0.175
2021-08-01 00:43:52.660,0.22,-0.17
2021-08-01 00:43:52.664,0.23,-0.16
2021-08-01 00:43:52.668,0.235,-0.15
2021-08-01 00:43:52.672,0.235,-0.16
2021-08-01 00:43:52.676,0.235,-0.16
2021-08-01 00:43:52.680,0.24,-0.16
2021-08-01 00:43:52.684,0.235,-0.145
2021-08-01 00:43:52.688,0.225,-0.145
2021-08-01 00:43:52.692,0.21,-0.155
2021-08-01 00:43:52.696,0.21,-0.165
2021-08-01 00:43:52.700,0.21,-0.14
2021-08-01 00:43:52.704,0.22,-0.175
2021-08-01 00:43:52.708,0.225,-0.16
2021-08-01 00:43:52.712,0.22,-0.15
2021-08-01 00:43:52.716,0.255,-0.14
2021-08-01 00:43:52.720,0.23,-0.145
2021-08-01 00:43:52.724,0.225,-0.155
2021-08-01 00:43:52.728,0.23,-0.15
2021-08-01 00:43:52.732,0.255,-0.13
2021-08-01 00:43:52.736,0.235,-0.145
2021-08-01 00:43:52.740,0.215,-0.16
2021-08-01 00:43:52.744,0.23,-0.14
2021-08-01 00:43:52.748,0.215,-0.125
2021-08-01 00:43:52.752,0.21,-0.145
2021-08-01 00:43:52.756,0.215,-0.15
2021-08-01 00:43:52.760,0.21,-0.13
2021-08-01 00:43:52.764,0.215,-0.145
2021-08-01 00:43:52.768,0.215,-0.125
2021-08-01 00:43:52.772,0.215,-0.13
2021-08-01 00:43:52.776,0.21,-0.135
2021-08-01 00:43:52.780,0.22,-0.1
2021-08-01 00:43:52.784,0.215,-0.09
2021-08-01 00:43:52.788,0.2,-0.14
2021-08-01 00:43:52.792,0.2,-0.16
2021-08-01 00:43:52.796,0.195,-0.14
2021-08-01 00:43:52.800,0.185,-0.12
2021-08-01 00:43:52.804,0.2,-0.135
2021-08-01 00:43:52.808,0.2,-0.145
2021-08-01 00:43:52.812,0.205,-0.13
2021-08-01 00:43:52.816,0.215,-0.11
2021-08-01 00:43:52.820,0.195,-0.13
2021-08-01 00:43:52.824,0.2,-0.145
2021-08-01 00:43:52.828,0.21,-0.135
2021-08-01 00:43:52.832,0.21,-0.135
2021-08-01 00:43:52.836,0.21,-0.12
2021-08-01 00:43:52.840,0.21,-0.14
2021-08-01 00:43:52.844,0.205,-0.135
2021-08-01 00:43:52.848,0.21,-0.145
2021-08-01 00:43:52.852,0.205,-0.14
2021-08-01 00:43:52.856,0.175,-0.135
2021-08-01 00:43:52.860,0.19,-0.135
2021-08-01 00:43:52.864,0.18,-0.125
2021-08-01 00:43:52.868,0.185,-0.115
2021-08-01 00:43:52.872,0.19,-0.14
2021-08-01 00:43:52.876,0.185,-0.14
2021-08-01 00:43:52.880,0.19,-0.115
2021-08-01 00:43:52.884,0.18,-0.12
2021-08-01 00:43:52.888,0.19,-0.12
2021-08-01 00:43:52.892,0.18,-0.14
2021-08-01 00:43:52.896,0.195,-0.13
2021-08-01 00:43:52.900,0.15,-0.12
2021-08-01 00:43:52.904,0.185,-0.125
2021-08-01 00:43:52.908,0.175,-0.13
2021-08-01 00:43:52.912,0.175,-0.135
2021-08-01 00:43:52.916,0.195,-0.11
2021-08-01 00:43:52.920,0.185,-0.11
2021-08-01 00:43:52.924,0.2,-0.14
2021-08-01 00:43:52.928,0.185,-0.12
2021-08-01 00:43:52.932,0.165,-0.115
2021-08-01 00:43:52.936,0.175,-0.15
2021-08-01 00:43:52.940,0.185,-0.14
2021-08-01 00:43:52.944,0.205,-0.135
2021-08-01 00:43:52.948,0.205,-0.12
2021-08-01 00:43:52.952,0.195,-0.125
2021-08-01 00:43:52.956,0.185,-0.13
2021-08-01 00:43:52.960,0.175,-0.15
2021-08-01 00:43:52.964,0.19,-0.14
2021-08-01 00:43:52.968,0.175,-0.125
2021-08-01 00:43:52.972,0.17,-0.13
2021-08-01 00:43:52.976,0.175,-0.15
2021-08-01 00:43:52.980,0.175,-0.12
2021-08-01 00:43:52.984,0.17,-0.115
2021-08-01 00:43:52.988,0.18,-0.125
2021-08-01 00:43:52.992,0.16,-0.15
2021-08-01 00:43:52.996,0.165,-0.135
2021-08-01 00:43:53.000,0.175,-0.12
2021-08-01 00:43:53.004,0.18,-0.145
2021-08-01 00:43:53.008,0.18,-0.135
2021-08-01 00:43:53.012,0.165,-0.105
2021-08-01 00:43:53.016,0.155,-0.1
2021-08-01 00:43:53.020,0.17,-0.11
2021-08-01 00:43:53.024,0.185,-0.14
2021-08-01 00:43:53.028,0.175,-0.11
2021-08-01 00:43:53.032,0.155,-0.105
2021-08-01 00:43:53.036,0.165,-0.15
2021-08-01 00:43:53.040,0.14,-0.14
2021-08-01 00:43:53.044,0.16,-0.135
2021-08-01 00:43:53.048,0.17,-0.125
2021-08-01 00:43:53.052,0.18,-0.135
2021-08-01 00:43:53.056,0.185,-0.13
2021-08-01 00:43:53.060,0.155,-0.115
2021-08-01 00:43:53.064,0.175,-0.11
2021-08-01 00:43:53.068,0.17,-0.15
2021-08-01 00:43:53.072,0.16,-0.13
2021-08-01 00:43:53.076,0.175,-0.13
2021-08-01 00:43:53.080,0.18,-0.115
2021-08-01 00:43:53.084,0.17,-0.125
2021-08-01 00:43:53.088,0.14,-0.125
2021-08-01 00:43:53.092,0.17,-0.155
2021-08-01 00:43:53.096,0.155,-0.115
2021-08-01 00:43:53.100,0.16,-0.125
2021-08-01 00:43:53.104,0.155,-0.145
2021-08-01 00:43:53.108,0.16,-0.11
2021-08-01 00:43:53.112,0.145,-0.1
2021-08-01 00:43:53.116,0.16,-0.105
2021-08-01 00:43:53.120,0.14,-0.13
2021-08-01 00:43:53.124,0.135,-0.145
2021-08-01 00:43:53.128,0.14,-0.115
2021-08-01 00:43:53.132,0.135,-0.105
2021-08-01 00:43:53.136,0.14,-0.13
2021-08-01 00:43:53.140,0.13,-0.13
2021-08-01 00:43:53.144,0.15,-0.11
2021-08-01 00:43:53.148,0.165,-0.115
2021-08-01 00:43:53.152,0.145,-0.1
2021-08-01 00:43:53.156,0.155,-0.11
2021-08-01 00:43:53.160,0.15,-0.12
2021-08-01 00:43:53.164,0.16,-0.13
2021-08-01 00:43:53.168,0.135,-0.14
2021-08-01 00:43:53.172,0.16,-0.13
2021-08-01 00:43:53.176,0.14,-0.12
2021-08-01 00:43:53.180,0.12,-0.115
2021-08-01 00:43:53.184,0.135,-0.145
2021-08-01 00:43:53.188,0.12,-0.135
2021-08-01 00:43:53.192,0.13,-0.12
2021-08-01 00:43:53.196,0.14,-0.12
2021-08-01 00:43:53.200,0.11,-0.14
2021-08-01 00:43:53.204,0.11,-0.16
2021-08-01 00:43:53.208,0.14,-0.14
2021-08-01 00:43:53.212,0.14,-0.11
2021-08-01 00:43:53.216,0.12,-0.12
2021-08-01 00:43:53.220,0.125,-0.15
2021-08-01 00:43:53.224,0.145,-0.135
2021-08-01 00:43:53.228,0.115,-0.11
2021-08-01 00:43:53.232,0.11,-0.125
2021-08-01 00:43:53.236,0.125,-0.135
2021-08-01 00:43:53.240,0.105,-0.135
2021-08-01 00:43:53.244,0.12,-0.11
2021-08-01 00:43:53.248,0.125,-0.13
2021-08-01 00:43:53.252,0.11,-0.13
2021-08-01 00:43:53.256,0.095,-0.125
2021-08-01 00:43:53.260,0.095,-0.03
2021-08-01 00:43:53.264,0.115,0.05
2021-08-01 00:43:53.268,0.105,0.165
2021-08-01 00:43:53.272,0.105,0.375
2021-08-01 00:43:53.276,0.15,0.675
2021-08-01 00:43:53.280,0.205,0.885
2021-08-01 00:43:53.284,0.09,0.975
2021-08-01 00:43:53.288,-0.16,1.125
2021-08-01 00:43:53.292,-0.58,1.33
2021-08-01 00:43:53.296,-1.075,1.55
2021-08-01 00:43:53.300,-1.495,1.68
2021-08-01 00:43:53.304,-1.87,1.72
2021-08-01 00:43:53.320,-1.955,1.59
2021-08-01 00:43:53.324,-1.88,1.535
2021-08-01 00:43:53.328,-1.83,1.465
2021-08-01 00:43:53.332,-1.71,1.425
2021-08-01 00:43:53.336,-1.625,1.47
2021-08-01 00:43:53.340,-1.565,1.535
2021-08-01 00:43:53.344,-1.455,1.555
2021-08-01 00:43:53.348,-1.37,1.325
2021-08-01 00:43:53.352,-1.285,0.88
2021-08-01 00:43:53.356,-1.19,0.295
2021-08-01 00:43:53.360,-1.105,-0.125
2021-08-01 00:43:53.364,-1.01,-0.43
2021-08-01 00:43:53.368,-0.91,-0.575
2021-08-01 00:43:53.372,-0.765,-0.575
2021-08-01 00:43:53.376,-0.605,-0.54
2021-08-01 00:43:53.380,-0.445,-0.535
2021-08-01 00:43:53.384,-0.275,-0.54
2021-08-01 00:43:53.388,-0.14,-0.525
2021-08-01 00:43:53.392,0.0,-0.515
2021-08-01 00:43:53.396,0.12,-0.565
2021-08-01 00:43:53.400,0.215,-0.605
2021-08-01 00:43:53.404,0.275,-0.64
2021-08-01 00:43:53.408,0.33,-0.665
2021-08-01 00:43:53.412,0.315,-0.66
2021-08-01 00:43:53.416,0.325,-0.68
2021-08-01 00:43:53.420,0.31,-0.695
2021-08-01 00:43:53.424,0.3,-0.695
2021-08-01 00:43:53.428,0.305,-0.7
2021-08-01 00:43:53.432,0.33,-0.7
2021-08-01 00:43:53.436,0.31,-0.65
2021-08-01 00:43:53.440,0.32,-0.61
2021-08-01 00:43:53.444,0.34,-0.56
2021-08-01 00:43:53.448,0.34,-0.525
2021-08-01 00:43:53.452,0.395,-0.54
2021-08-01 00:43:53.456,0.44,-0.535
2021-08-01 00:43:53.460,0.455,-0.52
2021-08-01 00:43:53.464,0.445,-0.515
2021-08-01 00:43:53.468,0.46,-0.525
2021-08-01 00:43:53.472,0.465,-0.53
2021-08-01 00:43:53.476,0.5,-0.51
2021-08-01 00:43:53.480,0.52,-0.525
2021-08-01 00:43:53.484,0.535,-0.51
2021-08-01 00:43:53.488,0.545,-0.545
2021-08-01 00:43:53.492,0.575,-0.54
2021-08-01 00:43:53.496,0.59,-0.54
2021-08-01 00:43:53.500,0.62,-0.56
2021-08-01 00:43:53.504,0.625,-0.595
2021-08-01 00:43:53.508,0.645,-0.57
2021-08-01 00:43:53.512,0.675,-0.58
2021-08-01 00:43:53.516,0.695,-0.615
2021-08-01 00:43:53.520,0.71,-0.63
2021-08-01 00:43:53.524,0.755,-0.635
2021-08-01 00:43:53.528,0.805,-0.63
2021-08-01 00:43:53.532,0.8,-0.64
2021-08-01 00:43:53.536,0.82,-0.66
2021-08-01 00:43:53.540,0.86,-0.68
2021-08-01 00:43:53.544,0.88,-0.66
2021-08-01 00:43:53.548,0.9,-0.64
2021-08-01 00:43:53.552,0.88,-0.7
2021-08-01 00:43:53.556,0.91,-0.68
2021-08-01 00:43:53.560,0.915,-0.64
2021-08-01 00:43:53.564,0.905,-0.635
2021-08-01 00:43:53.568,0.9,-0.61
2021-08-01 00:43:53.572,0.91,-0.57
2021-08-01 00:43:53.576,0.89,-0.5
2021-08-01 00:43:53.580,0.87,-0.47
2021-08-01 00:43:53.584,0.85,-0.42
2021-08-01 00:43:53.588,0.795,-0.37
2021-08-01 00:43:53.592,0.76,-0.28
2021-08-01 00:43:53.596,0.73,-0.23
2021-08-01 00:43:53.600,0.675,-0.19
2021-08-01 00:43:53.604,0.645,-0.145
2021-08-01 00:43:53.608,0.595,-0.1
2021-08-01 00:43:53.612,0.555,-0.065
2021-08-01 00:43:53.616,0.5,-0.05
2021-08-01 00:43:53.620,0.435,-0.03
2021-08-01 00:43:53.624,0.405,-0.02
2021-08-01 00:43:53.628,0.365,-0.01
2021-08-01 00:43:53.632,0.315,-0.005
2021-08-01 00:43:53.636,0.265,0.0
2021-08-01 00:43:53.640,0.26,-0.01
2021-08-01 00:43:53.644,0.205,0.005
2021-08-01 00:43:53.648,0.155,-0.01
2021-08-01 00:43:53.652,0.15,-0.025
2021-08-01 00:43:53.656,0.125,-0.04
2021-08-01 00:43:53.660,0.11,-0.015
2021-08-01 00:43:53.664,0.095,-0.045
2021-08-01 00:43:53.668,0.09,-0.035
2021-08-01 00:43:53.672,0.075,-0.05
2021-08-01 00:43:53.676,0.065,-0.035
2021-08-01 00:43:53.680,0.065,-0.04
2021-08-01 00:43:53.684,0.055,-0.06
2021-08-01 00:43:53.688,0.055,-0.055
2021-08-01 00:43:53.692,0.05,-0.055
2021-08-01 00:43:53.696,0.05,-0.065
2021-08-01 00:43:53.700,0.035,-0.09
2021-08-01 00:43:53.704,0.02,-0.075
2021-08-01 00:43:53.708,0.035,-0.07
2021-08-01 00:43:53.712,0.045,-0.085
2021-08-01 00:43:53.716,0.03,-0.09
2021-08-01 00:43:53.720,0.04,-0.075
2021-08-01 00:43:53.724,0.04,-0.1
2021-08-01 00:43:53.728,0.035,-0.09
2021-08-01 00:43:53.732,0.045,-0.105
2021-08-01 00:43:53.736,0.01,-0.09
2021-08-01 00:43:53.740,0.015,-0.085
2021-08-01 00:43:53.744,0.01,-0.1
2021-08-01 00:43:53.748,0.02,-0.125
2021-08-01 00:43:53.752,0.005,-0.13
2021-08-01 00:43:53.756,0.015,-0.12
2021-08-01 00:43:53.760,0.01,-0.145
2021-08-01 00:43:53.764,0.005,-0.145
2021-08-01 00:43:53.768,-0.01,-0.18
2021-08-01 00:43:53.772,-0.015,-0.155
2021-08-01 00:43:53.776,0.02,-0.16
2021-08-01 00:43:53.780,0.015,-0.18
2021-08-01 00:43:53.784,-0.015,-0.18
2021-08-01 00:43:53.788,-0.005,-0.185
2021-08-01 00:43:53.792,0.0,-0.175
2021-08-01 00:43:53.796,-0.005,-0.19
2021-08-01 00:43:53.800,-0.03,-0.22
2021-08-01 00:43:53.804,-0.04,-0.215
2021-08-01 00:43:53.808,-0.015,-0.21
2021-08-01 00:43:53.812,-0.035,-0.21
2021-08-01 00:43:53.816,-0.02,-0.22
2021-08-01 00:43:53.820,-0.04,-0.205
2021-08-01 00:43:53.824,-0.04,-0.2
2021-08-01 00:43:53.828,-0.02,-0.2
2021-08-01 00:43:53.832,-0.035,-0.215
2021-08-01 00:43:53.836,-0.045,-0.21
2021-08-01 00:43:53.840,-0.065,-0.205
2021-08-01 00:43:53.844,-0.06,-0.215
2021-08-01 00:43:53.848,-0.05,-0.235
2021-08-01 00:43:53.852,-0.07,-0.205
2021-08-01 00:43:53.856,-0.085,-0.215
2021-08-01 00:43:53.860,-0.07,-0.205
2021-08-01 00:43:53.864,-0.085,-0.22
2021-08-01 00:43:53.868,-0.08,-0.23
2021-08-01 00:43:53.872,-0.07,-0.225
2021-08-01 00:43:53.876,-0.06,-0.2
2021-08-01 00:43:53.880,-0.07,-0.2
2021-08-01 00:43:53.884,-0.09,-0.19
2021-08-01 00:43:53.888,-0.115,-0.2
2021-08-01 00:43:53.892,-0.11,-0.185
2021-08-01 00:43:53.896,-0.105,-0.185
2021-08-01 00:43:53.900,-0.125,-0.185
2021-08-01 00:43:53.904,-0.09,-0.2
2021-08-01 00:43:53.908,-0.105,-0.205
2021-08-01 00:43:53.912,-0.11,-0.195
2021-08-01 00:43:53.916,-0.145,-0.215
2021-08-01 00:43:53.920,-0.125,-0.21
2021-08-01 00:43:53.924,-0.12,-0.18
2021-08-01 00:43:53.928,-0.125,-0.175
2021-08-01 00:43:53.932,-0.115,-0.175
2021-08-01 00:43:53.936,-0.115,-0.205
2021-08-01 00:43:53.940,-0.12,-0.185
2021-08-01 00:43:53.944,-0.16,-0.195
2021-08-01 00:43:53.948,-0.15,-0.205
2021-08-01 00:43:53.952,-0.18,-0.195
2021-08-01 00:43:53.956,-0.16,-0.19
2021-08-01 00:43:53.960,-0.155,-0.195
2021-08-01 00:43:53.964,-0.16,-0.22
2021-08-01 00:43:53.968,-0.19,-0.215
2021-08-01 00:43:53.972,-0.175,-0.205
2021-08-01 00:43:53.976,-0.185,-0.21
2021-08-01 00:43:53.980,-0.2,-0.22
2021-08-01 00:43:53.984,-0.19,-0.195
2021-08-01 00:43:53.988,-0.175,-0.2
2021-08-01 00:43:53.992,-0.195,-0.19
2021-08-01 00:43:53.996,-0.2,-0.195
2021-08-01 00:43:54.000,-0.195,-0.195
2021-08-01 00:43:54.004,-0.205,-0.215
2021-08-01 00:43:54.008,-0.2,-0.195
2021-08-01 00:43:54.012,-0.205,-0.195
2021-08-01 00:43:54.016,-0.225,-0.2
2021-08-01 00:43:54.020,-0.22,-0.21
2021-08-01 00:43:54.024,-0.24,-0.185
2021-08-01 00:43:54.028,-0.235,-0.19
2021-08-01 00:43:54.032,-0.235,-0.18
2021-08-01 00:43:54.036,-0.2,-0.225
2021-08-01 00:43:54.040,-0.22,-0.21
2021-08-01 00:43:54.044,-0.225,-0.205
2021-08-01 00:43:54.048,-0.24,-0.195
2021-08-01 00:43:54.052,-0.235,-0.185
2021-08-01 00:43:54.056,-0.22,-0.19
2021-08-01 00:43:54.060,-0.245,-0.185
2021-08-01 00:43:54.064,-0.24,-0.205
2021-08-01 00:43:54.068,-0.255,-0.195
2021-08-01 00:43:54.072,-0.255,-0.21
2021-08-01 00:43:54.076,-0.235,-0.195
2021-08-01 00:43:54.080,-0.25,-0.195
2021-08-01 00:43:54.084,-0.25,-0.2
2021-08-01 00:43:54.088,-0.24,-0.2
2021-08-01 00:43:54.092,-0.25,-0.205
2021-08-01 00:43:54.096,-0.25,-0.19
2021-08-01 00:43:54.100,-0.23,-0.195
2021-08-01 00:43:54.104,-0.245,-0.185
2021-08-01 00:43:54.108,-0.245,-0.215
2021-08-01 00:43:54.112,-0.24,-0.215
2021-08-01 00:43:54.116,-0.265,-0.2
2021-08-01 00:43:54.120,-0.26,-0.205
2021-08-01 00:43:54.124,-0.255,-0.205
2021-08-01 00:43:54.128,-0.25,-0.19
2021-08-01 00:43:54.132,-0.26,-0.195
2021-08-01 00:43:54.136,-0.27,-0.195
2021-08-01 00:43:54.140,-0.26,-0.21
2021-08-01 00:43:54.144,-0.275,-0.195
2021-08-01 00:43:54.148,-0.24,-0.18
2021-08-01 00:43:54.152,-0.265,-0.195
2021-08-01 00:43:54.156,-0.255,-0.19
2021-08-01 00:43:54.160,-0.27,-0.195
2021-08-01 00:43:54.164,-0.26,-0.18
2021-08-01 00:43:54.168,-0.275,-0.175
2021-08-01 00:43:54.172,-0.27,-0.18
2021-08-01 00:43:54.176,-0.255,-0.16
2021-08-01 00:43:54.180,-0.27,-0.17
2021-08-01 00:43:54.184,-0.255,-0.18
2021-08-01 00:43:54.188,-0.255,-0.18
2021-08-01 00:43:54.192,-0.26,-0.19
2021-08-01 00:43:54.196,-0.235,-0.2
2021-08-01 00:43:54.200,-0.265,-0.185
2021-08-01 00:43:54.204,-0.245,-0.2
2021-08-01 00:43:54.208,-0.26,-0.18
2021-08-01 00:43:54.212,-0.285,-0.19
2021-08-01 00:43:54.216,-0.255,-0.195
2021-08-01 00:43:54.220,-0.285,-0.195
2021-08-01 00:43:54.224,-0.285,-0.175
2021-08-01 00:43:54.228,-0.255,-0.185
2021-08-01 00:43:54.232,-0.26,-0.2
2021-08-01 00:43:54.236,-0.28,-0.185
2021-08-01 00:43:54.240,-0.26,-0.165
2021-08-01 00:43:54.244,-0.26,-0.17
2021-08-01 00:43:54.248,-0.27,-0.185
2021-08-01 00:43:54.252,-0.265,-0.17
2021-08-01 00:43:54.256,-0.265,-0.17
2021-08-01 00:43:54.260,-0.265,-0.175
2021-08-01 00:43:54.264,-0.29,-0.18
2021-08-01 00:43:54.268,-0.28,-0.18
2021-08-01 00:43:54.272,-0.28,-0.185
2021-08-01 00:43:54.276,-0.275,-0.175
2021-08-01 00:43:54.280,-0.275,-0.165
2021-08-01 00:43:54.284,-0.26,-0.165
2021-08-01 00:43:54.288,-0.285,-0.18
2021-08-01 00:43:54.292,-0.27,-0.17
2021-08-01 00:43:54.296,-0.28,-0.18
2021-08-01 00:43:54.300,-0.275,-0.195
2021-08-01 00:43:54.304,-0.255,-0.185
2021-08-01 00:43:54.308,-0.275,-0.19
2021-08-01 00:43:54.312,-0.29,-0.18
2021-08-01 00:43:54.316,-0.27,-0.19
2021-08-01 00:43:54.320,-0.3,-0.19
2021-08-01 00:43:54.324,-0.305,-0.19
2021-08-01 00:43:54.328,-0.27,-0.2
2021-08-01 00:43:54.332,-0.285,-0.205
2021-08-01 00:43:54.336,-0.285,-0.185
2021-08-01 00:43:54.340,-0.295,-0.185
2021-08-01 00:43:54.344,-0.29,-0.2
2021-08-01 00:43:54.348,-0.3,-0.18
2021-08-01 00:43:54.352,-0.315,-0.18
2021-08-01 00:43:54.356,-0.31,-0.195
2021-08-01 00:43:54.360,-0.32,-0.175
2021-08-01 00:43:54.364,-0.31,-0.195
2021-08-01 00:43:54.368,-0.295,-0.17
2021-08-01 00:43:54.372,-0.315,-0.18
2021-08-01 00:43:54.376,-0.3,-0.185
2021-08-01 00:43:54.380,-0.31,-0.2
2021-08-01 00:43:54.384,-0.32,-0.2
2021-08-01 00:43:54.388,-0.32,-0.175
2021-08-01 00:43:54.392,-0.31,-0.195
2021-08-01 00:43:54.396,-0.32,-0.205
2021-08-01 00:43:54.400,-0.31,-0.205
2021-08-01 00:43:54.404,-0.325,-0.21
2021-08-01 00:43:54.408,-0.32,-0.2
2021-08-01 00:43:54.412,-0.33,-0.185
2021-08-01 00:43:54.416,-0.325,-0.2
2021-08-01 00:43:54.420,-0.32,-0.185
2021-08-01 00:43:54.424,-0.305,-0.185
2021-08-01 00:43:54.428,-0.33,-0.19
2021-08-01 00:43:54.432,-0.335,-0.195
2021-08-01 00:43:54.436,-0.335,-0.2
2021-08-01 00:43:54.440,-0.325,-0.215
2021-08-01 00:43:54.444,-0.33,-0.19
2021-08-01 00:43:54.448,-0.335,-0.19
2021-08-01 00:43:54.452,-0.305,-0.21
2021-08-01 00:43:54.456,-0.325,-0.23
2021-08-01 00:43:54.460,-0.33,-0.21
2021-08-01 00:43:54.464,-0.335,-0.185
2021-08-01 00:43:54.468,-0.325,-0.18
2021-08-01 00:43:54.472,-0.34,-0.19
2021-08-01 00:43:54.476,-0.32,-0.175
2021-08-01 00:43:54.480,-0.315,-0.18
2021-08-01 00:43:54.484,-0.33,-0.19
2021-08-01 00:43:54.488,-0.335,-0.2
2021-08-01 00:43:54.492,-0.35,-0.215
2021-08-01 00:43:54.496,-0.335,-0.19
2021-08-01 00:43:54.500,-0.345,-0.2
2021-08-01 00:43:54.504,-0.32,-0.215
2021-08-01 00:43:54.508,-0.34,-0.205
2021-08-01 00:43:54.512,-0.34,-0.18
2021-08-01 00:43:54.516,-0.355,-0.2
2021-08-01 00:43:54.520,-0.35,-0.2
2021-08-01 00:43:54.524,-0.37,-0.19
2021-08-01 00:43:54.528,-0.365,-0.18
2021-08-01 00:43:54.532,-0.365,-0.18
2021-08-01 00:43:54.536,-0.35,-0.195
2021-08-01 00:43:54.540,-0.345,-0.175
2021-08-01 00:43:54.544,-0.34,-0.19
2021-08-01 00:43:54.548,-0.34,-0.21
2021-08-01 00:43:54.552,-0.355,-0.22
2021-08-01 00:43:54.556,-0.345,-0.17
2021-08-01 00:43:54.560,-0.345,-0.18
2021-08-01 00:43:54.564,-0.37,-0.195
2021-08-01 00:43:54.568,-0.365,-0.2
2021-08-01 00:43:54.572,-0.355,-0.2
2021-08-01 00:43:54.576,-0.33,-0.18
2021-08-01 00:43:54.580,-0.36,-0.17
2021-08-01 00:43:54.584,-0.34,-0.185
2021-08-01 00:43:54.588,-0.34,-0.21
2021-08-01 00:43:54.592,-0.35,-0.195
2021-08-01 00:43:54.596,-0.35,-0.17
2021-08-01 00:43:54.600,-0.35,-0.195
2021-08-01 00:43:54.604,-0.37,-0.19
2021-08-01 00:43:54.608,-0.365,-0.225
2021-08-01 00:43:54.612,-0.365,-0.21
2021-08-01 00:43:54.616,-0.345,-0.195
2021-08-01 00:43:54.620,-0.365,-0.17
2021-08-01 00:43:54.624,-0.36,-0.185
2021-08-01 00:43:54.628,-0.36,-0.19
2021-08-01 00:43:54.632,-0.36,-0.195
2021-08-01 00:43:54.636,-0.36,-0.205
2021-08-01 00:43:54.640,-0.385,-0.185
2021-08-01 00:43:54.644,-0.37,-0.215
2021-08-01 00:43:54.648,-0.385,-0.205
2021-08-01 00:43:54.652,-0.37,-0.21
2021-08-01 00:43:54.656,-0.375,-0.18
2021-08-01 00:43:54.660,-0.385,-0.195
2021-08-01 00:43:54.664,-0.38,-0.205
2021-08-01 00:43:54.668,-0.395,-0.18
2021-08-01 00:43:54.672,-0.375,-0.18
2021-08-01 00:43:54.676,-0.385,-0.185
2021-08-01 00:43:54.680,-0.38,-0.19
2021-08-01 00:43:54.684,-0.4,-0.175
2021-08-01 00:43:54.688,-0.36,-0.185
2021-08-01 00:43:54.692,-0.36,-0.195
2021-08-01 00:43:54.696,-0.38,-0.185
2021-08-01 00:43:54.700,-0.4,-0.205
2021-08-01 00:43:54.704,-0.395,-0.18
2021-08-01 00:43:54.708,-0.385,-0.195
2021-08-01 00:43:54.712,-0.395,-0.185
2021-08-01 00:43:54.716,-0.385,-0.18
2021-08-01 00:43:54.720,-0.37,-0.165
2021-08-01 00:43:54.724,-0.41,-0.195
2021-08-01 00:43:54.728,-0.4,-0.185
2021-08-01 00:43:54.732,-0.38,-0.19
2021-08-01 00:43:54.736,-0.375,-0.18
2021-08-01 00:43:54.740,-0.365,-0.17
2021-08-01 00:43:54.744,-0.38,-0.195
2021-08-01 00:43:54.748,-0.395,-0.18
2021-08-01 00:43:54.752,-0.385,-0.16
2021-08-01 00:43:54.756,-0.425,-0.16
2021-08-01 00:43:54.760,-0.42,-0.14
2021-08-01 00:43:54.764,-0.385,-0.135
2021-08-01 00:43:54.768,-0.395,-0.075
2021-08-01 00:43:54.772,-0.385,0.015
2021-08-01 00:43:54.776,-0.4,0.205
2021-08-01 00:43:54.780,-0.365,0.465
2021-08-01 00:43:54.784,-0.305,0.765
2021-08-01 00:43:54.788,-0.34,0.99
2021-08-01 00:43:54.792,-0.52,1.07
2021-08-01 00:43:54.796,-0.765,1.16
2021-08-01 00:43:54.800,-1.17,1.33
2021-08-01 00:43:54.804,-1.625,1.53
2021-08-01 00:43:54.852,-1.94,1.19
2021-08-01 00:43:54.856,-1.84,0.865
2021-08-01 00:43:54.860,-1.735,0.335
2021-08-01 00:43:54.864,-1.66,-0.155
2021-08-01 00:43:54.868,-1.56,-0.47
2021-08-01 00:43:54.872,-1.43,-0.62
2021-08-01 00:43:54.876,-1.29,-0.69
2021-08-01 00:43:54.880,-1.17,-0.65
2021-08-01 00:43:54.884,-1.02,-0.62
2021-08-01 00:43:54.888,-0.875,-0.61
2021-08-01 00:43:54.892,-0.72,-0.585
2021-08-01 00:43:54.896,-0.555,-0.61
2021-08-01 00:43:54.900,-0.43,-0.62
2021-08-01 00:43:54.904,-0.32,-0.64
2021-08-01 00:43:54.908,-0.265,-0.7
2021-08-01 00:43:54.912,-0.22,-0.71
2021-08-01 00:43:54.916,-0.18,-0.73
2021-08-01 00:43:54.920,-0.17,-0.76
2021-08-01 00:43:54.924,-0.19,-0.765
2021-08-01 00:43:54.928,-0.195,-0.785
2021-08-01 00:43:54.932,-0.2,-0.795
2021-08-01 00:43:54.936,-0.21,-0.77
2021-08-01 00:43:54.940,-0.225,-0.74
2021-08-01 00:43:54.944,-0.21,-0.7
2021-08-01 00:43:54.948,-0.21,-0.64
2021-08-01 00:43:54.952,-0.185,-0.62
2021-08-01 00:43:54.956,-0.115,-0.605
2021-08-01 00:43:54.960,-0.075,-0.605
2021-08-01 00:43:54.964,-0.075,-0.6
2021-08-01 00:43:54.968,-0.07,-0.6
2021-08-01 00:43:54.972,-0.085,-0.605
2021-08-01 00:43:54.976,-0.06,-0.6
2021-08-01 00:43:54.980,-0.045,-0.575
2021-08-01 00:43:54.984,0.0,-0.555
2021-08-01 00:43:54.988,0.0,-0.595
2021-08-01 00:43:54.992,0.0,-0.59
2021-08-01 00:43:54.996,0.045,-0.595
2021-08-01 00:43:55.000,0.055,-0.61
2021-08-01 00:43:55.004,0.09,-0.64
2021-08-01 00:43:55.008,0.11,-0.665
2021-08-01 00:43:55.012,0.14,-0.65
2021-08-01 00:43:55.016,0.165,-0.665
2021-08-01 00:43:55.020,0.2,-0.68
2021-08-01 00:43:55.024,0.215,-0.685
2021-08-01 00:43:55.028,0.255,-0.705
2021-08-01 00:43:55.032,0.29,-0.71
2021-08-01 00:43:55.036,0.295,-0.74
2021-08-01 00:43:55.040,0.325,-0.75
2021-08-01 00:43:55.044,0.345,-0.765
2021-08-01 00:43:55.048,0.375,-0.77
2021-08-01 00:43:55.052,0.375,-0.765
2021-08-01 00:43:55.056,0.385,-0.76
2021-08-01 00:43:55.060,0.395,-0.76
2021-08-01 00:43:55.064,0.39,-0.73
2021-08-01 00:43:55.068,0.41,-0.705
2021-08-01 00:43:55.072,0.385,-0.685
2021-08-01 00:43:55.076,0.39,-0.665
2021-08-01 00:43:55.080,0.37,-0.58
2021-08-01 00:43:55.084,0.34,-0.51
2021-08-01 00:43:55.088,0.31,-0.495
2021-08-01 00:43:55.092,0.28,-0.43
2021-08-01 00:43:55.096,0.235,-0.37
2021-08-01 00:43:55.100,0.2,-0.3
2021-08-01 00:43:55.104,0.17,-0.275
2021-08-01 00:43:55.108,0.135,-0.215
2021-08-01 00:43:55.112,0.08,-0.16
2021-08-01 00:43:55.116,0.02,-0.135
2021-08-01 00:43:55.120,-0.02,-0.155
2021-08-01 00:43:55.124,-0.05,-0.14
2021-08-01 00:43:55.128,-0.12,-0.09
2021-08-01 00:43:55.132,-0.165,-0.095
2021-08-01 00:43:55.136,-0.205,-0.13
2021-08-01 00:43:55.140,-0.24,-0.12
2021-08-01 00:43:55.144,-0.275,-0.115
2021-08-01 00:43:55.148,-0.295,-0.12
2021-08-01 00:43:55.152,-0.32,-0.165
2021-08-01 00:43:55.156,-0.35,-0.135
2021-08-01 00:43:55.160,-0.35,-0.125
2021-08-01 00:43:55.164,-0.37,-0.155
2021-08-01 00:43:55.168,-0.38,-0.16
2021-08-01 00:43:55.172,-0.365,-0.17
2021-08-01 00:43:55.176,-0.39,-0.15
2021-08-01 00:43:55.180,-0.405,-0.155
2021-08-01 00:43:55.184,-0.41,-0.195
2021-08-01 00:43:55.188,-0.4,-0.2
2021-08-01 00:43:55.192,-0.385,-0.2
2021-08-01 00:43:55.196,-0.395,-0.2
2021-08-01 00:43:55.200,-0.405,-0.225
2021-08-01 00:43:55.204,-0.405,-0.23
2021-08-01 00:43:55.208,-0.405,-0.22
2021-08-01 00:43:55.212,-0.41,-0.215
2021-08-01 00:43:55.216,-0.415,-0.23
2021-08-01 00:43:55.220,-0.395,-0.235
2021-08-01 00:43:55.224,-0.4,-0.23
2021-08-01 00:43:55.228,-0.435,-0.215
2021-08-01 00:43:55.232,-0.455,-0.24
2021-08-01 00:43:55.236,-0.435,-0.255
2021-08-01 00:43:55.240,-0.435,-0.25
2021-08-01 00:43:55.244,-0.415,-0.23
2021-08-01 00:43:55.248,-0.44,-0.24
2021-08-01 00:43:55.252,-0.435,-0.285
2021-08-01 00:43:55.256,-0.41,-0.285
2021-08-01 00:43:55.260,-0.415,-0.275
2021-08-01 00:43:55.264,-0.41,-0.29
2021-08-01 00:43:55.268,-0.4,-0.31
2021-08-01 00:43:55.272,-0.4,-0.305
2021-08-01 00:43:55.276,-0.43,-0.305
2021-08-01 00:43:55.280,-0.405,-0.325
2021-08-01 00:43:55.284,-0.42,-0.335
2021-08-01 00:43:55.288,-0.42,-0.335
2021-08-01 00:43:55.292,-0.42,-0.32
2021-08-01 00:43:55.296,-0.425,-0.335
2021-08-01 00:43:55.300,-0.415,-0.34
2021-08-01 00:43:55.304,-0.42,-0.35
2021-08-01 00:43:55.308,-0.42,-0.32
2021-08-01 00:43:55.312,-0.44,-0.34
2021-08-01 00:43:55.316,-0.42,-0.4
2021-08-01 00:43:55.320,-0.41,-0.375
2021-08-01 00:43:55.324,-0.425,-0.365
2021-08-01 00:43:55.328,-0.405,-0.365
2021-08-01 00:43:55.332,-0.42,-0.405
2021-08-01 00:43:55.336,-0.405,-0.395
2021-08-01 00:43:55.340,-0.435,-0.37
2021-08-01 00:43:55.344,-0.41,-0.35
2021-08-01 00:43:55.348,-0.43,-0.395
2021-08-01 00:43:55.352,-0.44,-0.405
2021-08-01 00:43:55.356,-0.455,-0.395
2021-08-01 00:43:55.360,-0.44,-0.385
2021-08-01 00:43:55.364,-0.445,-0.4
2021-08-01 00:43:55.368,-0.445,-0.41
2021-08-01 00:43:55.372,-0.45,-0.385
2021-08-01 00:43:55.376,-0.45,-0.385
2021-08-01 00:43:55.380,-0.45,-0.4
2021-08-01 00:43:55.384,-0.45,-0.39
2021-08-01 00:43:55.388,-0.46,-0.39
2021-08-01 00:43:55.392,-0.465,-0.37
2021-08-01 00:43:55.396,-0.455,-0.39
2021-08-01 00:43:55.400,-0.46,-0.4
2021-08-01 00:43:55.404,-0.475,-0.385
2021-08-01 00:43:55.408,-0.5,-0.385
2021-08-01 00:43:55.412,-0.49,-0.38
2021-08-01 00:43:55.416,-0.48,-0.39
2021-08-01 00:43:55.420,-0.455,-0.37
2021-08-01 00:43:55.424,-0.455,-0.39
2021-08-01 00:43:55.428,-0.475,-0.385
2021-08-01 00:43:55.432,-0.47,-0.4
2021-08-01 00:43:55.436,-0.475,-0.38
2021-08-01 00:43:55.440,-0.46,-0.385
2021-08-01 00:43:55.444,-0.475,-0.35
2021-08-01 00:43:55.448,-0.465,-0.385
2021-08-01 00:43:55.452,-0.485,-0.365
2021-08-01 00:43:55.456,-0.495,-0.37
2021-08-01 00:43:55.460,-0.475,-0.365
2021-08-01 00:43:55.464,-0.495,-0.38
2021-08-01 00:43:55.468,-0.49,-0.385
2021-08-01 00:43:55.472,-0.485,-0.355
2021-08-01 00:43:55.476,-0.5,-0.36
2021-08-01 00:43:55.480,-0.48,-0.375
2021-08-01 00:43:55.484,-0.47,-0.365
2021-08-01 00:43:55.488,-0.48,-0.36
2021-08-01 00:43:55.492,-0.485,-0.34
2021-08-01 00:43:55.496,-0.49,-0.355
2021-08-01 00:43:55.500,-0.48,-0.355
2021-08-01 00:43:55.504,-0.5,-0.365
2021-08-01 00:43:55.508,-0.49,-0.34
2021-08-01 00:43:55.512,-0.47,-0.36
2021-08-01 00:43:55.516,-0.48,-0.365
2021-08-01 00:43:55.520,-0.445,-0.375
2021-08-01 00:43:55.524,-0.45,-0.33
2021-08-01 00:43:55.528,-0.46,-0.345
2021-08-01 00:43:55.532,-0.45,-0.365
2021-08-01 00:43:55.536,-0.44,-0.35
2021-08-01 00:43:55.540,-0.445,-0.345
2021-08-01 00:43:55.544,-0.445,-0.34
2021-08-01 00:43:55.548,-0.46,-0.36
2021-08-01 00:43:55.552,-0.475,-0.35
2021-08-01 00:43:55.556,-0.46,-0.33
2021-08-01 00:43:55.560,-0.455,-0.345
2021-08-01 00:43:55.564,-0.455,-0.355
2021-08-01 00:43:55.568,-0.425,-0.345
2021-08-01 00:43:55.572,-0.44,-0.32
2021-08-01 00:43:55.576,-0.455,-0.37
2021-08-01 00:43:55.580,-0.44,-0.365
2021-08-01 00:43:55.584,-0.435,-0.35
2021-08-01 00:43:55.588,-0.445,-0.33
2021-08-01 00:43:55.592,-0.435,-0.34
2021-08-01 00:43:55.596,-0.41,-0.34
2021-08-01 00:43:55.600,-0.425,-0.335
2021-08-01 00:43:55.604,-0.43,-0.32
2021-08-01 00:43:55.608,-0.43,-0.335
2021-08-01 00:43:55.612,-0.43,-0.35
2021-08-01 00:43:55.616,-0.42,-0.34
2021-08-01 00:43:55.620,-0.43,-0.32
2021-08-01 00:43:55.624,-0.445,-0.325
2021-08-01 00:43:55.628,-0.415,-0.355
2021-08-01 00:43:55.632,-0.415,-0.33
2021-08-01 00:43:55.636,-0.4,-0.31
2021-08-01 00:43:55.640,-0.405,-0.345
2021-08-01 00:43:55.644,-0.45,-0.33
2021-08-01 00:43:55.648,-0.43,-0.34
2021-08-01 00:43:55.652,-0.42,-0.345
2021-08-01 00:43:55.656,-0.43,-0.345
2021-08-01 00:43:55.660,-0.415,-0.35
2021-08-01 00:43:55.664,-0.4,-0.35
2021-08-01 00:43:55.668,-0.42,-0.31
2021-08-01 00:43:55.672,-0.4,-0.33
2021-08-01 00:43:55.676,-0.42,-0.34
2021-08-01 00:43:55.680,-0.43,-0.33
2021-08-01 00:43:55.684,-0.415,-0.32
2021-08-01 00:43:55.688,-0.435,-0.33
2021-08-01 00:43:55.692,-0.445,-0.335
2021-08-01 00:43:55.696,-0.415,-0.325
2021-08-01 00:43:55.700,-0.425,-0.315
2021-08-01 00:43:55.704,-0.42,-0.34
2021-08-01 00:43:55.708,-0.415,-0.32
2021-08-01 00:43:55.712,-0.385,-0.345
2021-08-01 00:43:55.716,-0.4,-0.32
2021-08-01 00:43:55.720,-0.4,-0.315
2021-08-01 00:43:55.724,-0.395,-0.305
2021-08-01 00:43:55.728,-0.42,-0.3
2021-08-01 00:43:55.732,-0.4,-0.305
2021-08-01 00:43:55.736,-0.395,-0.31
2021-08-01 00:43:55.740,-0.405,-0.31
2021-08-01 00:43:55.744,-0.405,-0.325
2021-08-01 00:43:55.748,-0.39,-0.295
2021-08-01 00:43:55.752,-0.37,-0.31
2021-08-01 00:43:55.756,-0.41,-0.31
2021-08-01 00:43:55.760,-0.42,-0.32
2021-08-01 00:43:55.764,-0.39,-0.31
2021-08-01 00:43:55.768,-0.375,-0.305
2021-08-01 00:43:55.772,-0.39,-0.31
2021-08-01 00:43:55.776,-0.395,-0.305
2021-08-01 00:43:55.780,-0.39,-0.305
2021-08-01 00:43:55.784,-0.38,-0.31
2021-08-01 00:43:55.788,-0.375,-0.3
2021-08-01 00:43:55.792,-0.385,-0.31
2021-08-01 00:43:55.796,-0.37,-0.3
2021-08-01 00:43:55.800,-0.37,-0.32
2021-08-01 00:43:55.804,-0.39,-0.32
2021-08-01 00:43:55.808,-0.375,-0.32
2021-08-01 00:43:55.812,-0.38,-0.29
2021-08-01 00:43:55.816,-0.37,-0.305
2021-08-01 00:43:55.820,-0.415,-0.31
2021-08-01 00:43:55.824,-0.385,-0.3
2021-08-01 00:43:55.828,-0.385,-0.295
2021-08-01 00:43:55.832,-0.4,-0.285
2021-08-01 00:43:55.836,-0.385,-0.31
2021-08-01 00:43:55.840,-0.4,-0.3
2021-08-01 00:43:55.844,-0.4,-0.3
2021-08-01 00:43:55.848,-0.38,-0.3
2021-08-01 00:43:55.852,-0.385,-0.315
2021-08-01 00:43:55.856,-0.365,-0.325
2021-08-01 00:43:55.860,-0.38,-0.31
2021-08-01 00:43:55.864,-0.365,-0.305
2021-08-01 00:43:55.868,-0.35,-0.32
2021-08-01 00:43:55.872,-0.37,-0.32
2021-08-01 00:43:55.876,-0.375,-0.31
2021-08-01 00:43:55.880,-0.36,-0.3
2021-08-01 00:43:55.884,-0.36,-0.32
2021-08-01 00:43:55.888,-0.375,-0.325
2021-08-01 00:43:55.892,-0.37,-0.315
2021-08-01 00:43:55.896,-0.37,-0.305
2021-08-01 00:43:55.900,-0.37,-0.33
2021-08-01 00:43:55.904,-0.38,-0.325
2021-08-01 00:43:55.908,-0.36,-0.3
2021-08-01 00:43:55.912,-0.355,-0.305
2021-08-01 00:43:55.916,-0.375,-0.31
2021-08-01 00:43:55.920,-0.35,-0.32
2021-08-01 00:43:55.924,-0.365,-0.3
2021-08-01 00:43:55.928,-0.355,-0.31
2021-08-01 00:43:55.932,-0.36,-0.315
2021-08-01 00:43:55.936,-0.37,-0.345
2021-08-01 00:43:55.940,-0.35,-0.315
2021-08-01 00:43:55.944,-0.375,-0.3
2021-08-01 00:43:55.948,-0.36,-0.305
2021-08-01 00:43:55.952,-0.35,-0.32
2021-08-01 00:43:55.956,-0.35,-0.28
2021-08-01 00:43:55.960,-0.34,-0.28
2021-08-01 00:43:55.964,-0.36,-0.3
2021-08-01 00:43:55.968,-0.37,-0.31
2021-08-01 00:43:55.972,-0.36,-0.3
2021-08-01 00:43:55.976,-0.36,-0.305
2021-08-01 00:43:55.980,-0.34,-0.31
2021-08-01 00:43:55.984,-0.36,-0.315
2021-08-01 00:43:55.988,-0.345,-0.3
2021-08-01 00:43:55.992,-0.355,-0.3
2021-08-01 00:43:55.996,-0.35,-0.31
2021-08-01 00:43:56.000,-0.37,-0.31
2021-08-01 00:43:56.004,-0.35,-0.3
2021-08-01 00:43:56.008,-0.35,-0.305
2021-08-01 00:43:56.012,-0.355,-0.31
2021-08-01 00:43:56.016,-0.365,-0.315
2021-08-01 00:43:56.020,-0.36,-0.32
2021-08-01 00:43:56.024,-0.37,-0.3
2021-08-01 00:43:56.028,-0.37,-0.315
2021-08-01 00:43:56.032,-0.375,-0.31
2021-08-01 00:43:56.036,-0.34,-0.31
2021-08-01 00:43:56.040,-0.34,-0.305
2021-08-01 00:43:56.044,-0.34,-0.31
2021-08-01 00:43:56.048,-0.355,-0.32
2021-08-01 00:43:56.052,-0.345,-0.31
2021-08-01 00:43:56.056,-0.345,-0.28
2021-08-01 00:43:56.060,-0.375,-0.3
2021-08-01 00:43:56.064,-0.365,-0.31
2021-08-01 00:43:56.068,-0.36,-0.295
2021-08-01 00:43:56.072,-0.35,-0.295
2021-08-01 00:43:56.076,-0.365,-0.305
2021-08-01 00:43:56.080,-0.37,-0.295
2021-08-01 00:43:56.084,-0.355,-0.305
2021-08-01 00:43:56.088,-0.37,-0.3
2021-08-01 00:43:56.092,-0.375,-0.29
2021-08-01 00:43:56.096,-0.38,-0.32
2021-08-01 00:43:56.100,-0.375,-0.32
2021-08-01 00:43:56.104,-0.365,-0.29
2021-08-01 00:43:56.108,-0.37,-0.29
2021-08-01 00:43:56.112,-0.37,-0.315
2021-08-01 00:43:56.116,-0.34,-0.3
2021-08-01 00:43:56.120,-0.34,-0.295
2021-08-01 00:43:56.124,-0.345,-0.29
2021-08-01 00:43:56.128,-0.355,-0.3
2021-08-01 00:43:56.132,-0.355,-0.295
2021-08-01 00:43:56.136,-0.355,-0.29
2021-08-01 00:43:56.140,-0.36,-0.27
2021-08-01 00:43:56.144,-0.36,-0.315
2021-08-01 00:43:56.148,-0.35,-0.3
2021-08-01 00:43:56.152,-0.32,-0.285
2021-08-01 00:43:56.156,-0.335,-0.28
2021-08-01 00:43:56.160,-0.36,-0.275
2021-08-01 00:43:56.164,-0.335,-0.28
2021-08-01 00:43:56.168,-0.34,-0.29
2021-08-01 00:43:56.172,-0.33,-0.29
2021-08-01 00:43:56.176,-0.36,-0.305
2021-08-01 00:43:56.180,-0.34,-0.28
2021-08-01 00:43:56.184,-0.345,-0.28
2021-08-01 00:43:56.188,-0.34,-0.275
2021-08-01 00:43:56.192,-0.34,-0.285
2021-08-01 00:43:56.196,-0.35,-0.25
2021-08-01 00:43:56.200,-0.35,-0.18
2021-08-01 00:43:56.204,-0.33,-0.075
2021-08-01 00:43:56.208,-0.34,0.06
2021-08-01 00:43:56.212,-0.3,0.315
2021-08-01 00:43:56.216,-0.23,0.6
2021-08-01 00:43:56.220,-0.26,0.78
2021-08-01 00:43:56.224,-0.44,0.91
2021-08-01 00:43:56.228,-0.73,1.045
2021-08-01 00:43:56.232,-1.205,1.23
2021-08-01 00:43:56.236,-1.665,1.46
2021-08-01 00:43:56.280,-1.895,1.435
2021-08-01 00:43:56.284,-1.785,1.24
2021-08-01 00:43:56.288,-1.685,0.705
2021-08-01 00:43:56.292,-1.585,0.105
2021-08-01 00:43:56.296,-1.48,-0.315
2021-08-01 00:43:56.300,-1.375,-0.59
2021-08-01 00:43:56.304,-1.21,-0.705
2021-08-01 00:43:56.308,-1.1,-0.68
2021-08-01 00:43:56.312,-0.925,-0.7
2021-08-01 00:43:56.316,-0.78,-0.68
2021-08-01 00:43:56.320,-0.58,-0.735
2021-08-01 00:43:56.324,-0.445,-0.72
2021-08-01 00:43:56.328,-0.275,-0.715
2021-08-01 00:43:56.332,-0.17,-0.78
2021-08-01 00:43:56.336,-0.14,-0.81
2021-08-01 00:43:56.340,-0.105,-0.825
2021-08-01 00:43:56.344,-0.07,-0.83
2021-08-01 00:43:56.348,-0.06,-0.855
2021-08-01 00:43:56.352,-0.06,-0.875
2021-08-01 00:43:56.356,-0.055,-0.88
2021-08-01 00:43:56.360,-0.06,-0.84
2021-08-01 00:43:56.364,-0.06,-0.805
2021-08-01 00:43:56.368,-0.07,-0.74
2021-08-01 00:43:56.372,-0.02,-0.705
2021-08-01 00:43:56.376,0.02,-0.69
2021-08-01 00:43:56.380,0.08,-0.695
2021-08-01 00:43:56.384,0.105,-0.7
2021-08-01 00:43:56.388,0.08,-0.71
2021-08-01 00:43:56.392,0.11,-0.69
2021-08-01 00:43:56.396,0.15,-0.68
2021-08-01 00:43:56.400,0.17,-0.685
2021-08-01 00:43:56.404,0.17,-0.69
2021-08-01 00:43:56.408,0.195,-0.69
2021-08-01 00:43:56.412,0.235,-0.68
2021-08-01 00:43:56.416,0.25,-0.7
2021-08-01 00:43:56.420,0.25,-0.695
2021-08-01 00:43:56.424,0.3,-0.69
2021-08-01 00:43:56.428,0.295,-0.695
2021-08-01 00:43:56.432,0.335,-0.72
2021-08-01 00:43:56.436,0.365,-0.69
2021-08-01 00:43:56.440,0.375,-0.695
2021-08-01 00:43:56.444,0.395,-0.72
2021-08-01 00:43:56.448,0.41,-0.75
2021-08-01 00:43:56.452,0.445,-0.75
2021-08-01 00:43:56.456,0.485,-0.76
2021-08-01 00:43:56.460,0.515,-0.76
2021-08-01 00:43:56.464,0.555,-0.8
2021-08-01 00:43:56.468,0.58,-0.805
2021-08-01 00:43:56.472,0.58,-0.805
2021-08-01 00:43:56.476,0.61,-0.805
2021-08-01 00:43:56.480,0.63,-0.805
2021-08-01 00:43:56.484,0.635,-0.805
2021-08-01 00:43:56.488,0.665,-0.815
2021-08-01 00:43:56.492,0.675,-0.78
2021-08-01 00:43:56.496,0.67,-0.755
2021-08-01 00:43:56.500,0.65,-0.735
2021-08-01 00:43:56.504,0.65,-0.68
2021-08-01 00:43:56.508,0.63,-0.615
2021-08-01 00:43:56.512,0.6,-0.58
2021-08-01 00:43:56.516,0.58,-0.52
2021-08-01 00:43:56.520,0.55,-0.46
2021-08-01 00:43:56.524,0.52,-0.39
2021-08-01 00:43:56.528,0.475,-0.35
2021-08-01 00:43:56.532,0.41,-0.295
2021-08-01 00:43:56.536,0.395,-0.235
2021-08-01 00:43:56.540,0.345,-0.2
2021-08-01 00:43:56.544,0.275,-0.18
2021-08-01 00:43:56.548,0.25,-0.17
2021-08-01 00:43:56.552,0.185,-0.125
2021-08-01 00:43:56.556,0.13,-0.115
2021-08-01 00:43:56.560,0.095,-0.105
2021-08-01 00:43:56.564,0.04,-0.11
2021-08-01 00:43:56.568,0.02,-0.085
2021-08-01 00:43:56.572,0.0,-0.08
2021-08-01 00:43:56.576,-0.055,-0.08
2021-08-01 00:43:56.580,-0.075,-0.1
2021-08-01 00:43:56.584,-0.11,-0.1
2021-08-01 00:43:56.588,-0.145,-0.105
2021-08-01 00:43:56.592,-0.145,-0.11
2021-08-01 00:43:56.596,-0.17,-0.11
2021-08-01 00:43:56.600,-0.17,-0.1
2021-08-01 00:43:56.604,-0.175,-0.1
2021-08-01 00:43:56.608,-0.195,-0.13
2021-08-01 00:43:56.612,-0.18,-0.125
2021-08-01 00:43:56.616,-0.2,-0.125
2021-08-01 00:43:56.620,-0.19,-0.125
2021-08-01 00:43:56.624,-0.2,-0.125
2021-08-01 00:43:56.628,-0.195,-0.13
2021-08-01 00:43:56.632,-0.18,-0.12
2021-08-01 00:43:56.636,-0.18,-0.14
2021-08-01 00:43:56.640,-0.16,-0.145
2021-08-01 00:43:56.644,-0.185,-0.12
2021-08-01 00:43:56.648,-0.185,-0.14
2021-08-01 00:43:56.652,-0.16,-0.14
2021-08-01 00:43:56.656,-0.185,-0.155
2021-08-01 00:43:56.660,-0.19,-0.16
2021-08-01 00:43:56.664,-0.19,-0.14
2021-08-01 00:43:56.668,-0.19,-0.15
2021-08-01 00:43:56.672,-0.19,-0.17
2021-08-01 00:43:56.676,-0.2,-0.18
2021-08-01 00:43:56.680,-0.185,-0.17
2021-08-01 00:43:56.684,-0.185,-0.18
2021-08-01 00:43:56.688,-0.175,-0.175
2021-08-01 00:43:56.692,-0.19,-0.185
2021-08-01 00:43:56.696,-0.195,-0.2
2021-08-01 00:43:56.700,-0.185,-0.17
2021-08-01 00:43:56.704,-0.18,-0.2
2021-08-01 00:43:56.708,-0.21,-0.22
2021-08-01 00:43:56.712,-0.215,-0.23
2021-08-01 00:43:56.716,-0.21,-0.205
2021-08-01 00:43:56.720,-0.19,-0.225
2021-08-01 00:43:56.724,-0.18,-0.23
2021-08-01 00:43:56.728,-0.19,-0.225
2021-08-01 00:43:56.732,-0.18,-0.23
2021-08-01 00:43:56.736,-0.18,-0.23
2021-08-01 00:43:56.740,-0.19,-0.24
2021-08-01 00:43:56.744,-0.18,-0.25
2021-08-01 00:43:56.748,-0.185,-0.235
2021-08-01 00:43:56.752,-0.185,-0.24
2021-08-01 00:43:56.756,-0.215,-0.265
2021-08-01 00:43:56.760,-0.205,-0.25
2021-08-01 00:43:56.764,-0.2,-0.23
2021-08-01 00:43:56.768,-0.2,-0.24
2021-08-01 00:43:56.772,-0.21,-0.25
2021-08-01 00:43:56.776,-0.215,-0.23
2021-08-01 00:43:56.780,-0.22,-0.25
2021-08-01 00:43:56.784,-0.2,-0.255
2021-08-01 00:43:56.788,-0.225,-0.23
2021-08-01 00:43:56.792,-0.235,-0.245
2021-08-01 00:43:56.796,-0.23,-0.23
2021-08-01 00:43:56.800,-0.22,-0.22
2021-08-01 00:43:56.804,-0.255,-0.22
2021-08-01 00:43:56.808,-0.24,-0.24
2021-08-01 00:43:56.812,-0.25,-0.21
2021-08-01 00:43:56.816,-0.26,-0.215
2021-08-01 00:43:56.820,-0.275,-0.245
2021-08-01 00:43:56.824,-0.245,-0.25
2021-08-01 00:43:56.828,-0.255,-0.23
2021-08-01 00:43:56.832,-0.26,-0.23
2021-08-01 00:43:56.836,-0.25,-0.23
2021-08-01 00:43:56.840,-0.29,-0.225
2021-08-01 00:43:56.844,-0.27,-0.23
2021-08-01 00:43:56.848,-0.27,-0.22
2021-08-01 00:43:56.852,-0.265,-0.22
2021-08-01 00:43:56.856,-0.295,-0.21
2021-08-01 00:43:56.860,-0.28,-0.215
2021-08-01 00:43:56.864,-0.255,-0.205
2021-08-01 00:43:56.868,-0.29,-0.21
2021-08-01 00:43:56.872,-0.29,-0.215
2021-08-01 00:43:56.876,-0.29,-0.22
2021-08-01 00:43:56.880,-0.31,-0.215
2021-08-01 00:43:56.884,-0.315,-0.19
2021-08-01 00:43:56.888,-0.29,-0.225
2021-08-01 00:43:56.892,-0.295,-0.23
2021-08-01 00:43:56.896,-0.305,-0.22
2021-08-01 00:43:56.900,-0.3,-0.23
2021-08-01 00:43:56.904,-0.305,-0.205
2021-08-01 00:43:56.908,-0.32,-0.21
2021-08-01 00:43:56.912,-0.29,-0.195
2021-08-01 00:43:56.916,-0.3,-0.19
2021-08-01 00:43:56.920,-0.3,-0.21
2021-08-01 00:43:56.924,-0.305,-0.225
2021-08-01 00:43:56.928,-0.29,-0.205
2021-08-01 00:43:56.932,-0.305,-0.215
2021-08-01 00:43:56.936,-0.3,-0.215
2021-08-01 00:43:56.940,-0.31,-0.205
2021-08-01 00:43:56.944,-0.31,-0.205
2021-08-01 00:43:56.948,-0.305,-0.21
2021-08-01 00:43:56.952,-0.31,-0.22
2021-08-01 00:43:56.956,-0.3,-0.2
2021-08-01 00:43:56.960,-0.305,-0.205
2021-08-01 00:43:56.964,-0.29,-0.215
2021-08-01 00:43:56.968,-0.29,-0.22
2021-08-01 00:43:56.972,-0.315,-0.21
2021-08-01 00:43:56.976,-0.29,-0.2
2021-08-01 00:43:56.980,-0.31,-0.235
2021-08-01 00:43:56.984,-0.31,-0.21
2021-08-01 00:43:56.988,-0.33,-0.22
2021-08-01 00:43:56.992,-0.335,-0.24
2021-08-01 00:43:56.996,-0.31,-0.205
2021-08-01 00:43:57.000,-0.31,-0.22
2021-08-01 00:43:57.004,-0.295,-0.2
2021-08-01 00:43:57.008,-0.31,-0.205
2021-08-01 00:43:57.012,-0.305,-0.22
2021-08-01 00:43:57.016,-0.3,-0.225
2021-08-01 00:43:57.020,-0.305,-0.215
2021-08-01 00:43:57.024,-0.315,-0.22
2021-08-01 00:43:57.028,-0.31,-0.205
2021-08-01 00:43:57.032,-0.315,-0.19
2021-08-01 00:43:57.036,-0.31,-0.22
2021-08-01 00:43:57.040,-0.335,-0.205
2021-08-01 00:43:57.044,-0.3,-0.22
2021-08-01 00:43:57.048,-0.3,-0.235
2021-08-01 00:43:57.052,-0.29,-0.225
2021-08-01 00:43:57.056,-0.32,-0.23
2021-08-01 00:43:57.060,-0.295,-0.23
2021-08-01 00:43:57.064,-0.305,-0.195
2021-08-01 00:43:57.068,-0.31,-0.225
2021-08-01 00:43:57.072,-0.29,-0.22
2021-08-01 00:43:57.076,-0.315,-0.23
2021-08-01 00:43:57.080,-0.325,-0.23
2021-08-01 00:43:57.084,-0.32,-0.225
2021-08-01 00:43:57.088,-0.305,-0.215
2021-08-01 00:43:57.092,-0.295,-0.225
2021-08-01 00:43:57.096,-0.295,-0.23
2021-08-01 00:43:57.100,-0.33,-0.225
2021-08-01 00:43:57.104,-0.31,-0.22
2021-08-01 00:43:57.108,-0.315,-0.23
2021-08-01 00:43:57.112,-0.31,-0.21
2021-08-01 00:43:57.116,-0.29,-0.21
2021-08-01 00:43:57.120,-0.3,-0.23
2021-08-01 00:43:57.124,-0.32,-0.23
2021-08-01 00:43:57.128,-0.31,-0.25
2021-08-01 00:43:57.132,-0.32,-0.22
2021-08-01 00:43:57.136,-0.315,-0.225
2021-08-01 00:43:57.140,-0.31,-0.23
2021-08-01 00:43:57.144,-0.305,-0.23
2021-08-01 00:43:57.148,-0.305,-0.225
2021-08-01 00:43:57.152,-0.32,-0.22
2021-08-01 00:43:57.156,-0.31,-0.235
2021-08-01 00:43:57.160,-0.315,-0.23
2021-08-01 00:43:57.164,-0.295,-0.24
2021-08-01 00:43:57.168,-0.29,-0.235
2021-08-01 00:43:57.172,-0.305,-0.225
2021-08-01 00:43:57.176,-0.31,-0.22
2021-08-01 00:43:57.180,-0.275,-0.22
2021-08-01 00:43:57.184,-0.3,-0.24
2021-08-01 00:43:57.188,-0.3,-0.25
2021-08-01 00:43:57.192,-0.285,-0.23
2021-08-01 00:43:57.196,-0.3,-0.23
2021-08-01 00:43:57.200,-0.315,-0.24
2021-08-01 00:43:57.204,-0.305,-0.23
2021-08-01 00:43:57.208,-0.295,-0.23
2021-08-01 00:43:57.212,-0.28,-0.225
2021-08-01 00:43:57.216,-0.305,-0.22
2021-08-01 00:43:57.220,-0.31,-0.26
2021-08-01 00:43:57.224,-0.295,-0.245
2021-08-01 00:43:57.228,-0.3,-0.26
2021-08-01 00:43:57.232,-0.275,-0.23
2021-08-01 00:43:57.236,-0.3,-0.25
2021-08-01 00:43:57.240,-0.275,-0.235
2021-08-01 00:43:57.244,-0.3,-0.245
2021-08-01 00:43:57.248,-0.31,-0.22
2021-08-01 00:43:57.252,-0.305,-0.26
2021-08-01 00:43:57.256,-0.29,-0.26
2021-08-01 00:43:57.260,-0.29,-0.245
2021-08-01 00:43:57.264,-0.3,-0.225
2021-08-01 00:43:57.268,-0.3,-0.24
2021-08-01 00:43:57.272,-0.27,-0.255
2021-08-01 00:43:57.276,-0.285,-0.235
2021-08-01 00:43:57.280,-0.28,-0.24
2021-08-01 00:43:57.284,-0.29,-0.26
2021-08-01 00:43:57.288,-0.295,-0.26
2021-08-01 00:43:57.292,-0.27,-0.26
2021-08-01 00:43:57.296,-0.27,-0.26
2021-08-01 00:43:57.300,-0.275,-0.245
2021-08-01 00:43:57.304,-0.3,-0.26
2021-08-01 00:43:57.308,-0.29,-0.25
2021-08-01 00:43:57.312,-0.285,-0.245
2021-08-01 00:43:57.316,-0.275,-0.245
2021-08-01 00:43:57.320,-0.305,-0.25
2021-08-01 00:43:57.324,-0.29,-0.265
2021-08-01 00:43:57.328,-0.285,-0.235
2021-08-01 00:43:57.332,-0.265,-0.25
2021-08-01 00:43:57.336,-0.28,-0.275
2021-08-01 00:43:57.340,-0.26,-0.255
2021-08-01 00:43:57.344,-0.27,-0.235
2021-08-01 00:43:57.348,-0.27,-0.245
2021-08-01 00:43:57.352,-0.25,-0.25
2021-08-01 00:43:57.356,-0.265,-0.275
2021-08-01 00:43:57.360,-0.255,-0.265
2021-08-01 00:43:57.364,-0.25,-0.28
2021-08-01 00:43:57.368,-0.26,-0.28
2021-08-01 00:43:57.372,-0.26,-0.26
2021-08-01 00:43:57.376,-0.26,-0.28
2021-08-01 00:43:57.380,-0.275,-0.255
2021-08-01 00:43:57.384,-0.275,-0.27
2021-08-01 00:43:57.388,-0.265,-0.285
2021-08-01 00:43:57.392,-0.23,-0.25
2021-08-01 00:43:57.396,-0.26,-0.245
2021-08-01 00:43:57.400,-0.26,-0.26
2021-08-01 00:43:57.404,-0.245,-0.26
2021-08-01 00:43:57.408,-0.25,-0.27
2021-08-01 00:43:57.412,-0.255,-0.255
2021-08-01 00:43:57.416,-0.245,-0.235
2021-08-01 00:43:57.420,-0.26,-0.275
2021-08-01 00:43:57.424,-0.24,-0.26
2021-08-01 00:43:57.428,-0.23,-0.25
2021-08-01 00:43:57.432,-0.24,-0.25
2021-08-01 00:43:57.436,-0.255,-0.255
2021-08-01 00:43:57.440,-0.24,-0.275
2021-08-01 00:43:57.444,-0.24,-0.27
2021-08-01 00:43:57.448,-0.23,-0.26
2021-08-01 00:43:57.452,-0.255,-0.275
2021-08-01 00:43:57.456,-0.22,-0.26
2021-08-01 00:43:57.460,-0.22,-0.26
2021-08-01 00:43:57.464,-0.23,-0.24
2021-08-01 00:43:57.468,-0.225,-0.275
2021-08-01 00:43:57.472,-0.205,-0.27
2021-08-01 00:43:57.476,-0.23,-0.25
2021-08-01 00:43:57.480,-0.235,-0.245
2021-08-01 00:43:57.484,-0.2,-0.22
2021-08-01 00:43:57.488,-0.23,-0.245
2021-08-01 00:43:57.492,-0.19,-0.255
2021-08-01 00:43:57.496,-0.195,-0.235
2021-08-01 00:43:57.500,-0.21,-0.225
2021-08-01 00:43:57.504,-0.205,-0.245
2021-08-01 00:43:57.508,-0.215,-0.24
2021-08-01 00:43:57.512,-0.2,-0.225
2021-08-01 00:43:57.516,-0.22,-0.23
2021-08-01 00:43:57.520,-0.195,-0.245
2021-08-01 00:43:57.524,-0.215,-0.24
2021-08-01 00:43:57.528,-0.2,-0.22
2021-08-01 00:43:57.532,-0.19,-0.215
2021-08-01 00:43:57.536,-0.2,-0.23
2021-08-01 00:43:57.540,-0.195,-0.23
2021-08-01 00:43:57.544,-0.19,-0.21
2021-08-01 00:43:57.548,-0.185,-0.215
2021-08-01 00:43:57.552,-0.205,-0.225
2021-08-01 00:43:57.556,-0.21,-0.23
2021-08-01 00:43:57.560,-0.195,-0.235
2021-08-01 00:43:57.564,-0.205,-0.205
2021-08-01 00:43:57.568,-0.205,-0.235
2021-08-01 00:43:57.572,-0.215,-0.22
2021-08-01 00:43:57.576,-0.185,-0.215
2021-08-01 00:43:57.580,-0.2,-0.2
2021-08-01 00:43:57.584,-0.195,-0.205
2021-08-01 00:43:57.588,-0.18,-0.19
2021-08-01 00:43:57.592,-0.185,-0.175
2021-08-01 00:43:57.596,-0.205,-0.095
2021-08-01 00:43:57.600,-0.2,0.0
2021-08-01 00:43:57.604,-0.175,0.18
2021-08-01 00:43:57.608,-0.14,0.45
2021-08-01 00:43:57.612,-0.08,0.725
2021-08-01 00:43:57.616,-0.125,0.865
2021-08-01 00:43:57.620,-0.35,0.97
2021-08-01 00:43:57.624,-0.68,1.11
2021-08-01 00:43:57.628,-1.195,1.3
2021-08-01 00:43:57.632,-1.675,1.495
2021-08-01 00:43:57.672,-1.92,1.23
2021-08-01 00:43:57.676,-1.85,1.255
2021-08-01 00:43:57.680,-1.76,1.19
2021-08-01 00:43:57.684,-1.655,0.9
2021-08-01 00:43:57.688,-1.565,0.38
2021-08-01 00:43:57.692,-1.455,-0.13
2021-08-01 00:43:57.696,-1.38,-0.465
2021-08-01 00:43:57.700,-1.265,-0.665
2021-08-01 00:43:57.704,-1.125,-0.725
2021-08-01 00:43:57.708,-0.965,-0.675
2021-08-01 00:43:57.712,-0.82,-0.66
2021-08-01 00:43:57.716,-0.65,-0.655
2021-08-01 00:43:57.720,-0.49,-0.67
2021-08-01 00:43:57.724,-0.31,-0.67
2021-08-01 00:43:57.728,-0.17,-0.665
2021-08-01 00:43:57.732,-0.085,-0.72
2021-08-01 00:43:57.736,-0.05,-0.765
2021-08-01 00:43:57.740,0.0,-0.77
2021-08-01 00:43:57.744,0.015,-0.775
2021-08-01 00:43:57.748,0.035,-0.805
2021-08-01 00:43:57.752,0.025,-0.82
2021-08-01 00:43:57.756,0.035,-0.855
2021-08-01 00:43:57.760,0.025,-0.82
2021-08-01 00:43:57.764,-0.005,-0.765
2021-08-01 00:43:57.768,0.025,-0.72
2021-08-01 00:43:57.772,0.03,-0.705
2021-08-01 00:43:57.776,0.085,-0.685
2021-08-01 00:43:57.780,0.13,-0.65
2021-08-01 00:43:57.784,0.155,-0.63
2021-08-01 00:43:57.788,0.165,-0.66
2021-08-01 00:43:57.792,0.195,-0.645
2021-08-01 00:43:57.796,0.19,-0.635
2021-08-01 00:43:57.800,0.21,-0.6
2021-08-01 00:43:57.804,0.24,-0.62
2021-08-01 00:43:57.808,0.245,-0.635
2021-08-01 00:43:57.812,0.28,-0.605
2021-08-01 00:43:57.816,0.285,-0.615
2021-08-01 00:43:57.820,0.295,-0.64
2021-08-01 00:43:57.824,0.345,-0.66
2021-08-01 00:43:57.828,0.355,-0.63
2021-08-01 00:43:57.832,0.39,-0.625
2021-08-01 00:43:57.836,0.405,-0.64
2021-08-01 00:43:57.840,0.445,-0.66
2021-08-01 00:43:57.844,0.47,-0.67
2021-08-01 00:43:57.848,0.515,-0.67
2021-08-01 00:43:57.852,0.515,-0.705
2021-08-01 00:43:57.856,0.535,-0.71
2021-08-01 00:43:57.860,0.59,-0.735
2021-08-01 00:43:57.864,0.605,-0.715
2021-08-01 00:43:57.868,0.635,-0.74
2021-08-01 00:43:57.872,0.665,-0.755
2021-08-01 00:43:57.876,0.685,-0.765
2021-08-01 00:43:57.880,0.69,-0.745
2021-08-01 00:43:57.884,0.71,-0.78
2021-08-01 00:43:57.888,0.715,-0.77
2021-08-01 00:43:57.892,0.72,-0.79
2021-08-01 00:43:57.896,0.74,-0.745
2021-08-01 00:43:57.900,0.74,-0.73
2021-08-01 00:43:57.904,0.695,-0.715
2021-08-01 00:43:57.908,0.71,-0.7
2021-08-01 00:43:57.912,0.71,-0.64
2021-08-01 00:43:57.916,0.67,-0.585
2021-08-01 00:43:57.920,0.65,-0.545
2021-08-01 00:43:57.924,0.595,-0.51
2021-08-01 00:43:57.928,0.575,-0.43
2021-08-01 00:43:57.932,0.535,-0.365
2021-08-01 00:43:57.936,0.475,-0.32
2021-08-01 00:43:57.940,0.435,-0.325
2021-08-01 00:43:57.944,0.405,-0.26
2021-08-01 00:43:57.948,0.35,-0.195
2021-08-01 00:43:57.952,0.31,-0.195
2021-08-01 00:43:57.956,0.26,-0.16
2021-08-01 00:43:57.960,0.215,-0.155
2021-08-01 00:43:57.964,0.17,-0.125
2021-08-01 00:43:57.968,0.115,-0.135
2021-08-01 00:43:57.972,0.075,-0.125
2021-08-01 00:43:57.976,0.035,-0.115
2021-08-01 00:43:57.980,0.01,-0.135
2021-08-01 00:43:57.984,-0.01,-0.15
2021-08-01 00:43:57.988,-0.06,-0.145
2021-08-01 00:43:57.992,-0.09,-0.145
2021-08-01 00:43:57.996,-0.12,-0.165
2021-08-01 00:43:58.000,-0.14,-0.175
2021-08-01 00:43:58.004,-0.145,-0.17
2021-08-01 00:43:58.008,-0.155,-0.185
2021-08-01 00:43:58.012,-0.155,-0.18
2021-08-01 00:43:58.016,-0.18,-0.17
2021-08-01 00:43:58.020,-0.16,-0.21
2021-08-01 00:43:58.024,-0.185,-0.21
2021-08-01 00:43:58.028,-0.185,-0.18
2021-08-01 00:43:58.032,-0.195,-0.185
2021-08-01 00:43:58.036,-0.2,-0.225
2021-08-01 00:43:58.040,-0.215,-0.22
2021-08-01 00:43:58.044,-0.21,-0.205
2021-08-01 00:43:58.048,-0.21,-0.215
2021-08-01 00:43:58.052,-0.195,-0.25
2021-08-01 00:43:58.056,-0.24,-0.24
2021-08-01 00:43:58.060,-0.24,-0.25
2021-08-01 00:43:58.064,-0.22,-0.24
2021-08-01 00:43:58.068,-0.2,-0.26
2021-08-01 00:43:58.072,-0.215,-0.245
2021-08-01 00:43:58.076,-0.185,-0.26
2021-08-01 00:43:58.080,-0.19,-0.245
