Time,ECG1,ECG2
2021-08-19 13:47:49.056,-0.465,0.14
2021-08-19 13:47:49.060,-0.48,0.135
2021-08-19 13:47:49.064,-0.48,0.165
2021-08-19 13:47:49.068,-0.47,0.14
2021-08-19 13:47:49.072,-0.465,0.135
2021-08-19 13:47:49.076,-0.465,0.135
2021-08-19 13:47:49.080,-0.465,0.16
2021-08-19 13:47:49.084,-0.46,0.15
2021-08-19 13:47:49.088,-0.485,0.16
2021-08-19 13:47:49.092,-0.455,0.155
2021-08-19 13:47:49.096,-0.435,0.155
2021-08-19 13:47:49.100,-0.415,0.17
2021-08-19 13:47:49.104,-0.415,0.155
2021-08-19 13:47:49.108,-0.43,0.16
2021-08-19 13:47:49.112,-0.43,0.17
2021-08-19 13:47:49.116,-0.445,0.195
2021-08-19 13:47:49.120,-0.44,0.19
2021-08-19 13:47:49.124,-0.45,0.17
2021-08-19 13:47:49.128,-0.45,0.18
2021-08-19 13:47:49.132,-0.44,0.2
2021-08-19 13:47:49.136,-0.43,0.165
2021-08-19 13:47:49.140,-0.45,0.17
2021-08-19 13:47:49.144,-0.47,0.16
2021-08-19 13:47:49.148,-0.475,0.165
2021-08-19 13:47:49.152,-0.485,0.13
2021-08-19 13:47:49.156,-0.505,0.13
2021-08-19 13:47:49.160,-0.485,0.11
2021-08-19 13:47:49.164,-0.44,0.115
2021-08-19 13:47:49.168,-0.405,0.12
2021-08-19 13:47:49.172,-0.36,0.13
2021-08-19 13:47:49.176,-0.35,0.14
2021-08-19 13:47:49.180,-0.375,0.15
2021-08-19 13:47:49.184,-0.435,0.185
2021-08-19 13:47:49.188,-0.475,0.18
2021-08-19 13:47:49.192,-0.485,0.165
2021-08-19 13:47:49.196,-0.5,0.155
2021-08-19 13:47:49.200,-0.47,0.15
2021-08-19 13:47:49.204,-0.505,0.12
2021-08-19 13:47:49.208,-0.515,0.095
2021-08-19 13:47:49.212,-0.505,0.1
2021-08-19 13:47:49.216,-0.52,0.1
2021-08-19 13:47:49.220,-0.525,0.08
2021-08-19 13:47:49.224,-0.515,0.045
2021-08-19 13:47:49.228,-0.51,0.045
2021-08-19 13:47:49.232,-0.515,0.06
2021-08-19 13:47:49.236,-0.52,0.06
2021-08-19 13:47:49.240,-0.5,0.055
2021-08-19 13:47:49.244,-0.51,0.025
2021-08-19 13:47:49.248,-0.485,0.035
2021-08-19 13:47:49.252,-0.515,0.025
2021-08-19 13:47:49.256,-0.52,0.025
2021-08-19 13:47:49.260,-0.49,0.035
2021-08-19 13:47:49.264,-0.5,0.015
2021-08-19 13:47:49.268,-0.51,0.015
2021-08-19 13:47:49.272,-0.49,-0.005
2021-08-19 13:47:49.276,-0.48,0.025
2021-08-19 13:47:49.280,-0.47,0.0
2021-08-19 13:47:49.284,-0.5,0.0
2021-08-19 13:47:49.288,-0.5,0.02
2021-08-19 13:47:49.292,-0.515,0.045
2021-08-19 13:47:49.296,-0.55,0.03
2021-08-19 13:47:49.300,-0.58,0.02
2021-08-19 13:47:49.304,-0.57,0.02
2021-08-19 13:47:49.308,-0.56,0.0
2021-08-19 13:47:49.312,-0.55,-0.025
2021-08-19 13:47:49.316,-0.585,-0.07
2021-08-19 13:47:49.320,-0.58,-0.055
2021-08-19 13:47:49.324,-0.555,-0.035
2021-08-19 13:47:49.328,-0.585,-0.02
2021-08-19 13:47:49.332,-0.57,0.0
2021-08-19 13:47:49.336,-0.535,0.015
2021-08-19 13:47:49.340,-0.475,0.03
2021-08-19 13:47:49.344,-0.445,0.025
2021-08-19 13:47:49.348,-0.385,0.03
2021-08-19 13:47:49.352,-0.355,0.03
2021-08-19 13:47:49.356,-0.35,0.02
2021-08-19 13:47:49.360,-0.385,0.02
2021-08-19 13:47:49.364,-0.45,0.035
2021-08-19 13:47:49.368,-0.45,0.045
2021-08-19 13:47:49.372,-0.445,0.065
2021-08-19 13:47:49.376,-0.435,0.06
2021-08-19 13:47:49.380,-0.43,0.04
2021-08-19 13:47:49.384,-0.425,0.03
2021-08-19 13:47:49.388,-0.44,0.045
2021-08-19 13:47:49.392,-0.45,0.03
2021-08-19 13:47:49.396,-0.46,0.0
2021-08-19 13:47:49.400,-0.46,-0.04
2021-08-19 13:47:49.404,-0.45,-0.035
2021-08-19 13:47:49.408,-0.435,0.005
2021-08-19 13:47:49.412,-0.42,0.0
2021-08-19 13:47:49.416,-0.425,-0.015
2021-08-19 13:47:49.420,-0.435,-0.01
2021-08-19 13:47:49.424,-0.43,-0.005
2021-08-19 13:47:49.428,-0.43,0.0
2021-08-19 13:47:49.432,-0.43,-0.01
2021-08-19 13:47:49.436,-0.435,-0.02
2021-08-19 13:47:49.440,-0.43,0.015
2021-08-19 13:47:49.444,-0.43,-0.01
2021-08-19 13:47:49.448,-0.445,-0.03
2021-08-19 13:47:49.452,-0.44,-0.045
2021-08-19 13:47:49.456,-0.425,0.025
2021-08-19 13:47:49.460,-0.465,0.035
2021-08-19 13:47:49.464,-0.47,0.015
2021-08-19 13:47:49.468,-0.445,0.015
2021-08-19 13:47:49.472,-0.465,0.005
2021-08-19 13:47:49.476,-0.49,0.0
2021-08-19 13:47:49.480,-0.5,-0.015
2021-08-19 13:47:49.484,-0.5,-0.005
2021-08-19 13:47:49.488,-0.51,0.005
2021-08-19 13:47:49.492,-0.505,0.025
2021-08-19 13:47:49.496,-0.485,-0.005
2021-08-19 13:47:49.500,-0.49,0.01
2021-08-19 13:47:49.504,-0.47,0.01
2021-08-19 13:47:49.508,-0.37,0.045
2021-08-19 13:47:49.512,-0.18,0.07
2021-08-19 13:47:49.516,0.015,0.1
2021-08-19 13:47:49.520,0.05,0.145
2021-08-19 13:47:49.524,-0.02,0.225
2021-08-19 13:47:49.528,-0.2,0.265
2021-08-19 13:47:49.532,-0.615,0.035
2021-08-19 13:47:49.536,-1.135,-0.49
2021-08-19 13:47:49.540,-1.6,-1.085
2021-08-19 13:47:49.544,-1.935,-1.965
2021-08-19 13:47:49.628,-0.845,-1.965
2021-08-19 13:47:49.632,-0.695,-1.525
2021-08-19 13:47:49.636,-0.515,-1.105
2021-08-19 13:47:49.640,-0.35,-0.815
2021-08-19 13:47:49.644,-0.23,-0.585
2021-08-19 13:47:49.648,-0.21,-0.345
2021-08-19 13:47:49.652,-0.18,-0.11
2021-08-19 13:47:49.656,-0.17,0.14
2021-08-19 13:47:49.660,-0.16,0.295
2021-08-19 13:47:49.664,-0.105,0.435
2021-08-19 13:47:49.668,-0.115,0.58
2021-08-19 13:47:49.672,-0.105,0.675
2021-08-19 13:47:49.676,-0.105,0.725
2021-08-19 13:47:49.680,-0.09,0.73
2021-08-19 13:47:49.684,-0.07,0.765
2021-08-19 13:47:49.688,-0.04,0.755
2021-08-19 13:47:49.692,-0.02,0.795
2021-08-19 13:47:49.696,-0.02,0.85
2021-08-19 13:47:49.700,-0.005,0.825
2021-08-19 13:47:49.704,0.03,0.855
2021-08-19 13:47:49.708,0.11,0.9
2021-08-19 13:47:49.712,0.17,0.91
2021-08-19 13:47:49.716,0.17,0.945
2021-08-19 13:47:49.720,0.19,0.975
2021-08-19 13:47:49.724,0.23,0.99
2021-08-19 13:47:49.728,0.28,0.975
2021-08-19 13:47:49.732,0.27,0.985
2021-08-19 13:47:49.736,0.275,0.985
2021-08-19 13:47:49.740,0.25,1.04
2021-08-19 13:47:49.744,0.26,1.045
2021-08-19 13:47:49.748,0.285,1.02
2021-08-19 13:47:49.752,0.295,1.015
2021-08-19 13:47:49.756,0.295,1.01
2021-08-19 13:47:49.760,0.3,1.03
2021-08-19 13:47:49.764,0.3,1.09
2021-08-19 13:47:49.768,0.32,1.105
2021-08-19 13:47:49.772,0.355,1.125
2021-08-19 13:47:49.776,0.36,1.16
2021-08-19 13:47:49.780,0.37,1.175
2021-08-19 13:47:49.784,0.395,1.19
2021-08-19 13:47:49.788,0.39,1.22
2021-08-19 13:47:49.792,0.39,1.235
2021-08-19 13:47:49.796,0.37,1.26
2021-08-19 13:47:49.800,0.37,1.285
2021-08-19 13:47:49.804,0.35,1.305
2021-08-19 13:47:49.808,0.375,1.33
2021-08-19 13:47:49.812,0.375,1.345
2021-08-19 13:47:49.816,0.37,1.375
2021-08-19 13:47:49.820,0.37,1.345
2021-08-19 13:47:49.824,0.37,1.36
2021-08-19 13:47:49.828,0.345,1.36
2021-08-19 13:47:49.832,0.305,1.39
2021-08-19 13:47:49.836,0.28,1.405
2021-08-19 13:47:49.840,0.235,1.4
2021-08-19 13:47:49.844,0.21,1.37
2021-08-19 13:47:49.848,0.165,1.34
2021-08-19 13:47:49.852,0.155,1.32
2021-08-19 13:47:49.856,0.12,1.27
2021-08-19 13:47:49.860,0.1,1.23
2021-08-19 13:47:49.864,0.085,1.19
2021-08-19 13:47:49.868,0.04,1.135
2021-08-19 13:47:49.872,0.005,1.09
2021-08-19 13:47:49.876,-0.03,1.045
2021-08-19 13:47:49.880,-0.06,1.005
2021-08-19 13:47:49.884,-0.08,0.98
2021-08-19 13:47:49.888,-0.085,0.93
2021-08-19 13:47:49.892,-0.085,0.87
2021-08-19 13:47:49.896,-0.125,0.8
2021-08-19 13:47:49.900,-0.11,0.755
2021-08-19 13:47:49.904,-0.13,0.72
2021-08-19 13:47:49.908,-0.14,0.63
2021-08-19 13:47:49.912,-0.155,0.56
2021-08-19 13:47:49.916,-0.185,0.5
2021-08-19 13:47:49.920,-0.205,0.45
2021-08-19 13:47:49.924,-0.22,0.42
2021-08-19 13:47:49.928,-0.245,0.385
2021-08-19 13:47:49.932,-0.275,0.355
2021-08-19 13:47:49.936,-0.28,0.33
2021-08-19 13:47:49.940,-0.29,0.305
2021-08-19 13:47:49.944,-0.29,0.285
2021-08-19 13:47:49.948,-0.285,0.26
2021-08-19 13:47:49.952,-0.29,0.235
2021-08-19 13:47:49.956,-0.3,0.225
2021-08-19 13:47:49.960,-0.325,0.265
2021-08-19 13:47:49.964,-0.32,0.255
2021-08-19 13:47:49.968,-0.315,0.235
2021-08-19 13:47:49.972,-0.35,0.245
2021-08-19 13:47:49.976,-0.335,0.22
2021-08-19 13:47:49.980,-0.35,0.215
2021-08-19 13:47:49.984,-0.345,0.195
2021-08-19 13:47:49.988,-0.36,0.2
2021-08-19 13:47:49.992,-0.355,0.235
2021-08-19 13:47:49.996,-0.35,0.225
2021-08-19 13:47:50.000,-0.355,0.2
2021-08-19 13:47:50.004,-0.36,0.205
2021-08-19 13:47:50.008,-0.375,0.215
2021-08-19 13:47:50.012,-0.395,0.225
2021-08-19 13:47:50.016,-0.395,0.265
2021-08-19 13:47:50.020,-0.435,0.25
2021-08-19 13:47:50.024,-0.44,0.24
2021-08-19 13:47:50.028,-0.39,0.245
2021-08-19 13:47:50.032,-0.285,0.235
2021-08-19 13:47:50.036,-0.105,0.185
2021-08-19 13:47:50.040,0.1,0.19
2021-08-19 13:47:50.044,0.185,0.27
2021-08-19 13:47:50.048,0.1,0.32
2021-08-19 13:47:50.052,-0.13,0.375
2021-08-19 13:47:50.056,-0.47,0.31
2021-08-19 13:47:50.060,-0.99,0.065
2021-08-19 13:47:50.064,-1.475,-0.345
2021-08-19 13:47:50.068,-1.85,-0.925
2021-08-19 13:47:50.156,-0.72,-1.69
2021-08-19 13:47:50.160,-0.58,-1.23
2021-08-19 13:47:50.164,-0.42,-0.865
2021-08-19 13:47:50.168,-0.285,-0.575
2021-08-19 13:47:50.172,-0.255,-0.355
2021-08-19 13:47:50.176,-0.21,-0.125
2021-08-19 13:47:50.180,-0.175,0.08
2021-08-19 13:47:50.184,-0.15,0.25
2021-08-19 13:47:50.188,-0.145,0.4
2021-08-19 13:47:50.192,-0.13,0.54
2021-08-19 13:47:50.196,-0.12,0.655
2021-08-19 13:47:50.200,-0.135,0.735
2021-08-19 13:47:50.204,-0.105,0.785
2021-08-19 13:47:50.208,-0.12,0.81
2021-08-19 13:47:50.212,-0.12,0.815
2021-08-19 13:47:50.216,-0.115,0.785
2021-08-19 13:47:50.220,-0.075,0.83
2021-08-19 13:47:50.224,-0.03,0.875
2021-08-19 13:47:50.228,0.01,0.855
2021-08-19 13:47:50.232,0.035,0.925
2021-08-19 13:47:50.236,0.065,0.94
2021-08-19 13:47:50.240,0.105,0.96
2021-08-19 13:47:50.244,0.15,0.99
2021-08-19 13:47:50.248,0.195,1.04
2021-08-19 13:47:50.252,0.21,1.07
2021-08-19 13:47:50.256,0.21,1.11
2021-08-19 13:47:50.260,0.225,1.15
2021-08-19 13:47:50.264,0.215,1.18
2021-08-19 13:47:50.268,0.225,1.17
2021-08-19 13:47:50.272,0.25,1.175
2021-08-19 13:47:50.276,0.25,1.175
2021-08-19 13:47:50.280,0.24,1.19
2021-08-19 13:47:50.284,0.22,1.21
2021-08-19 13:47:50.288,0.225,1.215
2021-08-19 13:47:50.292,0.205,1.235
2021-08-19 13:47:50.296,0.195,1.245
2021-08-19 13:47:50.300,0.19,1.255
2021-08-19 13:47:50.304,0.205,1.28
2021-08-19 13:47:50.308,0.19,1.31
2021-08-19 13:47:50.312,0.18,1.3
2021-08-19 13:47:50.316,0.14,1.3
2021-08-19 13:47:50.320,0.165,1.305
2021-08-19 13:47:50.324,0.16,1.315
2021-08-19 13:47:50.328,0.125,1.35
2021-08-19 13:47:50.332,0.12,1.395
2021-08-19 13:47:50.336,0.12,1.395
2021-08-19 13:47:50.340,0.115,1.395
2021-08-19 13:47:50.344,0.09,1.415
2021-08-19 13:47:50.348,0.055,1.425
2021-08-19 13:47:50.352,0.045,1.425
2021-08-19 13:47:50.356,0.02,1.415
2021-08-19 13:47:50.360,0.01,1.405
2021-08-19 13:47:50.364,-0.01,1.4
2021-08-19 13:47:50.368,-0.05,1.375
2021-08-19 13:47:50.372,-0.08,1.315
2021-08-19 13:47:50.376,-0.105,1.26
2021-08-19 13:47:50.380,-0.15,1.22
2021-08-19 13:47:50.384,-0.185,1.18
2021-08-19 13:47:50.388,-0.2,1.135
2021-08-19 13:47:50.392,-0.225,1.045
2021-08-19 13:47:50.396,-0.27,0.97
2021-08-19 13:47:50.400,-0.28,0.885
2021-08-19 13:47:50.404,-0.295,0.855
2021-08-19 13:47:50.408,-0.29,0.805
2021-08-19 13:47:50.412,-0.285,0.76
2021-08-19 13:47:50.416,-0.27,0.725
2021-08-19 13:47:50.420,-0.25,0.68
2021-08-19 13:47:50.424,-0.255,0.64
2021-08-19 13:47:50.428,-0.245,0.605
2021-08-19 13:47:50.432,-0.21,0.56
2021-08-19 13:47:50.436,-0.2,0.49
2021-08-19 13:47:50.440,-0.215,0.42
2021-08-19 13:47:50.444,-0.22,0.37
2021-08-19 13:47:50.448,-0.22,0.325
2021-08-19 13:47:50.452,-0.21,0.285
2021-08-19 13:47:50.456,-0.21,0.245
2021-08-19 13:47:50.460,-0.205,0.225
2021-08-19 13:47:50.464,-0.215,0.23
2021-08-19 13:47:50.468,-0.22,0.21
2021-08-19 13:47:50.472,-0.225,0.175
2021-08-19 13:47:50.476,-0.24,0.17
2021-08-19 13:47:50.480,-0.275,0.16
2021-08-19 13:47:50.484,-0.28,0.165
2021-08-19 13:47:50.488,-0.3,0.15
2021-08-19 13:47:50.492,-0.335,0.135
2021-08-19 13:47:50.496,-0.34,0.13
2021-08-19 13:47:50.500,-0.34,0.16
2021-08-19 13:47:50.504,-0.36,0.12
2021-08-19 13:47:50.508,-0.38,0.1
2021-08-19 13:47:50.512,-0.365,0.11
2021-08-19 13:47:50.516,-0.355,0.12
2021-08-19 13:47:50.520,-0.375,0.12
2021-08-19 13:47:50.524,-0.4,0.13
2021-08-19 13:47:50.528,-0.415,0.165
2021-08-19 13:47:50.532,-0.425,0.165
2021-08-19 13:47:50.536,-0.415,0.165
2021-08-19 13:47:50.540,-0.425,0.17
2021-08-19 13:47:50.544,-0.41,0.19
2021-08-19 13:47:50.548,-0.425,0.175
2021-08-19 13:47:50.552,-0.43,0.175
2021-08-19 13:47:50.556,-0.435,0.2
2021-08-19 13:47:50.560,-0.44,0.195
2021-08-19 13:47:50.564,-0.42,0.185
2021-08-19 13:47:50.568,-0.405,0.175
2021-08-19 13:47:50.572,-0.365,0.175
2021-08-19 13:47:50.576,-0.235,0.145
2021-08-19 13:47:50.580,-0.03,0.155
2021-08-19 13:47:50.584,0.125,0.23
2021-08-19 13:47:50.588,0.125,0.295
2021-08-19 13:47:50.592,0.045,0.34
2021-08-19 13:47:50.596,-0.125,0.41
2021-08-19 13:47:50.600,-0.44,0.23
2021-08-19 13:47:50.604,-0.835,-0.21
2021-08-19 13:47:50.608,-1.175,-0.8
2021-08-19 13:47:50.612,-1.385,-1.615
2021-08-19 13:47:50.700,-0.87,-1.92
2021-08-19 13:47:50.704,-0.695,-1.42
2021-08-19 13:47:50.708,-0.53,-1.015
2021-08-19 13:47:50.712,-0.39,-0.68
2021-08-19 13:47:50.716,-0.31,-0.42
2021-08-19 13:47:50.720,-0.265,-0.175
2021-08-19 13:47:50.724,-0.25,0.045
2021-08-19 13:47:50.728,-0.245,0.27
2021-08-19 13:47:50.732,-0.22,0.45
2021-08-19 13:47:50.736,-0.185,0.6
2021-08-19 13:47:50.740,-0.16,0.71
2021-08-19 13:47:50.744,-0.13,0.795
2021-08-19 13:47:50.748,-0.085,0.87
2021-08-19 13:47:50.752,-0.075,0.9
2021-08-19 13:47:50.756,-0.005,0.925
2021-08-19 13:47:50.760,0.015,0.925
2021-08-19 13:47:50.764,0.045,0.955
2021-08-19 13:47:50.768,0.12,0.985
2021-08-19 13:47:50.772,0.165,1.01
2021-08-19 13:47:50.776,0.235,1.035
2021-08-19 13:47:50.780,0.245,1.065
2021-08-19 13:47:50.784,0.24,1.12
2021-08-19 13:47:50.788,0.275,1.14
2021-08-19 13:47:50.792,0.28,1.165
2021-08-19 13:47:50.796,0.285,1.165
2021-08-19 13:47:50.800,0.285,1.16
2021-08-19 13:47:50.804,0.3,1.2
2021-08-19 13:47:50.808,0.305,1.215
2021-08-19 13:47:50.812,0.305,1.215
2021-08-19 13:47:50.816,0.315,1.22
2021-08-19 13:47:50.820,0.34,1.225
2021-08-19 13:47:50.824,0.35,1.245
2021-08-19 13:47:50.828,0.355,1.28
2021-08-19 13:47:50.832,0.36,1.305
2021-08-19 13:47:50.836,0.375,1.345
2021-08-19 13:47:50.840,0.385,1.395
2021-08-19 13:47:50.844,0.37,1.425
2021-08-19 13:47:50.848,0.365,1.425
2021-08-19 13:47:50.852,0.375,1.435
2021-08-19 13:47:50.856,0.37,1.465
2021-08-19 13:47:50.860,0.375,1.51
2021-08-19 13:47:50.864,0.385,1.52
2021-08-19 13:47:50.868,0.385,1.525
2021-08-19 13:47:50.872,0.395,1.555
2021-08-19 13:47:50.876,0.41,1.585
2021-08-19 13:47:50.880,0.395,1.625
2021-08-19 13:47:50.884,0.405,1.595
2021-08-19 13:47:50.888,0.38,1.61
2021-08-19 13:47:50.892,0.345,1.62
2021-08-19 13:47:50.896,0.31,1.64
2021-08-19 13:47:50.900,0.305,1.645
2021-08-19 13:47:50.904,0.265,1.6
2021-08-19 13:47:50.908,0.25,1.585
2021-08-19 13:47:50.912,0.215,1.585
2021-08-19 13:47:50.916,0.18,1.52
2021-08-19 13:47:50.920,0.135,1.46
2021-08-19 13:47:50.924,0.115,1.425
2021-08-19 13:47:50.928,0.07,1.375
2021-08-19 13:47:50.932,0.025,1.335
2021-08-19 13:47:50.936,-0.03,1.275
2021-08-19 13:47:50.940,-0.05,1.18
2021-08-19 13:47:50.944,-0.085,1.145
2021-08-19 13:47:50.948,-0.12,1.06
2021-08-19 13:47:50.952,-0.16,0.995
2021-08-19 13:47:50.956,-0.2,0.89
2021-08-19 13:47:50.960,-0.185,0.825
2021-08-19 13:47:50.964,-0.14,0.775
2021-08-19 13:47:50.968,-0.12,0.76
2021-08-19 13:47:50.972,-0.12,0.665
2021-08-19 13:47:50.976,-0.12,0.62
2021-08-19 13:47:50.980,-0.13,0.605
2021-08-19 13:47:50.984,-0.125,0.6
2021-08-19 13:47:50.988,-0.12,0.55
2021-08-19 13:47:50.992,-0.13,0.535
2021-08-19 13:47:50.996,-0.095,0.545
2021-08-19 13:47:51.000,-0.135,0.52
2021-08-19 13:47:51.004,-0.135,0.51
2021-08-19 13:47:51.008,-0.115,0.5
2021-08-19 13:47:51.012,-0.105,0.495
2021-08-19 13:47:51.016,-0.115,0.535
2021-08-19 13:47:51.020,-0.11,0.54
2021-08-19 13:47:51.024,-0.135,0.53
2021-08-19 13:47:51.028,-0.12,0.51
2021-08-19 13:47:51.032,-0.16,0.495
2021-08-19 13:47:51.036,-0.17,0.445
2021-08-19 13:47:51.040,-0.2,0.365
2021-08-19 13:47:51.044,-0.21,0.355
2021-08-19 13:47:51.048,-0.25,0.35
2021-08-19 13:47:51.052,-0.255,0.3
2021-08-19 13:47:51.056,-0.27,0.25
2021-08-19 13:47:51.060,-0.31,0.27
2021-08-19 13:47:51.064,-0.345,0.27
2021-08-19 13:47:51.068,-0.36,0.265
2021-08-19 13:47:51.072,-0.36,0.215
2021-08-19 13:47:51.076,-0.395,0.2
2021-08-19 13:47:51.080,-0.41,0.17
2021-08-19 13:47:51.084,-0.41,0.185
2021-08-19 13:47:51.088,-0.4,0.19
2021-08-19 13:47:51.092,-0.4,0.145
2021-08-19 13:47:51.096,-0.4,0.12
2021-08-19 13:47:51.100,-0.42,0.125
2021-08-19 13:47:51.104,-0.42,0.14
2021-08-19 13:47:51.108,-0.395,0.16
2021-08-19 13:47:51.112,-0.415,0.165
2021-08-19 13:47:51.116,-0.42,0.15
2021-08-19 13:47:51.120,-0.44,0.13
2021-08-19 13:47:51.124,-0.44,0.105
2021-08-19 13:47:51.128,-0.475,0.105
2021-08-19 13:47:51.132,-0.46,0.115
2021-08-19 13:47:51.136,-0.48,0.115
2021-08-19 13:47:51.140,-0.495,0.09
2021-08-19 13:47:51.144,-0.49,0.06
2021-08-19 13:47:51.148,-0.475,0.1
2021-08-19 13:47:51.152,-0.475,0.085
2021-08-19 13:47:51.156,-0.415,0.06
2021-08-19 13:47:51.160,-0.42,0.06
2021-08-19 13:47:51.164,-0.4,0.105
2021-08-19 13:47:51.168,-0.415,0.135
2021-08-19 13:47:51.172,-0.4,0.16
2021-08-19 13:47:51.176,-0.4,0.165
2021-08-19 13:47:51.180,-0.4,0.145
2021-08-19 13:47:51.184,-0.395,0.135
2021-08-19 13:47:51.188,-0.4,0.125
2021-08-19 13:47:51.192,-0.385,0.135
2021-08-19 13:47:51.196,-0.37,0.155
2021-08-19 13:47:51.200,-0.365,0.16
2021-08-19 13:47:51.204,-0.375,0.15
2021-08-19 13:47:51.208,-0.395,0.095
2021-08-19 13:47:51.212,-0.415,0.145
2021-08-19 13:47:51.216,-0.425,0.2
2021-08-19 13:47:51.220,-0.4,0.215
2021-08-19 13:47:51.224,-0.4,0.19
2021-08-19 13:47:51.228,-0.35,0.13
2021-08-19 13:47:51.232,-0.275,0.09
2021-08-19 13:47:51.236,-0.11,0.075
2021-08-19 13:47:51.240,0.03,0.11
2021-08-19 13:47:51.244,0.05,0.16
2021-08-19 13:47:51.248,-0.06,0.205
2021-08-19 13:47:51.252,-0.22,0.275
2021-08-19 13:47:51.256,-0.5,0.185
2021-08-19 13:47:51.260,-0.905,-0.195
2021-08-19 13:47:51.264,-1.34,-0.815
2021-08-19 13:47:51.268,-1.695,-1.535
2021-08-19 13:47:51.360,-0.82,-1.765
2021-08-19 13:47:51.364,-0.63,-1.305
2021-08-19 13:47:51.368,-0.465,-0.895
2021-08-19 13:47:51.372,-0.33,-0.58
2021-08-19 13:47:51.376,-0.255,-0.295
2021-08-19 13:47:51.380,-0.23,-0.08
2021-08-19 13:47:51.384,-0.18,0.145
2021-08-19 13:47:51.388,-0.15,0.35
2021-08-19 13:47:51.392,-0.11,0.525
2021-08-19 13:47:51.396,-0.09,0.695
2021-08-19 13:47:51.400,-0.06,0.805
2021-08-19 13:47:51.404,-0.01,0.89
2021-08-19 13:47:51.408,-0.01,0.925
2021-08-19 13:47:51.412,-0.02,0.945
2021-08-19 13:47:51.416,0.0,1.01
2021-08-19 13:47:51.420,0.01,1.045
2021-08-19 13:47:51.424,0.045,1.05
2021-08-19 13:47:51.428,0.04,1.01
2021-08-19 13:47:51.432,0.05,1.035
2021-08-19 13:47:51.436,0.07,1.03
2021-08-19 13:47:51.440,0.105,1.03
2021-08-19 13:47:51.444,0.13,1.045
2021-08-19 13:47:51.448,0.14,1.04
2021-08-19 13:47:51.452,0.18,1.07
2021-08-19 13:47:51.456,0.175,1.08
2021-08-19 13:47:51.460,0.185,1.09
2021-08-19 13:47:51.464,0.195,1.15
2021-08-19 13:47:51.468,0.195,1.17
2021-08-19 13:47:51.472,0.2,1.2
2021-08-19 13:47:51.476,0.215,1.18
2021-08-19 13:47:51.480,0.235,1.16
2021-08-19 13:47:51.484,0.24,1.21
2021-08-19 13:47:51.488,0.21,1.255
2021-08-19 13:47:51.492,0.23,1.295
2021-08-19 13:47:51.496,0.24,1.345
2021-08-19 13:47:51.500,0.25,1.375
2021-08-19 13:47:51.504,0.245,1.395
2021-08-19 13:47:51.508,0.29,1.385
2021-08-19 13:47:51.512,0.325,1.42
2021-08-19 13:47:51.516,0.36,1.485
2021-08-19 13:47:51.520,0.395,1.515
2021-08-19 13:47:51.524,0.425,1.555
2021-08-19 13:47:51.528,0.455,1.595
2021-08-19 13:47:51.532,0.46,1.62
2021-08-19 13:47:51.536,0.455,1.64
2021-08-19 13:47:51.540,0.465,1.665
2021-08-19 13:47:51.544,0.455,1.695
2021-08-19 13:47:51.548,0.43,1.695
2021-08-19 13:47:51.552,0.405,1.72
2021-08-19 13:47:51.556,0.39,1.74
2021-08-19 13:47:51.560,0.36,1.725
2021-08-19 13:47:51.564,0.33,1.725
2021-08-19 13:47:51.568,0.3,1.695
2021-08-19 13:47:51.572,0.275,1.66
2021-08-19 13:47:51.576,0.255,1.625
2021-08-19 13:47:51.580,0.225,1.605
2021-08-19 13:47:51.584,0.185,1.595
2021-08-19 13:47:51.588,0.145,1.55
2021-08-19 13:47:51.592,0.095,1.49
2021-08-19 13:47:51.596,0.06,1.455
2021-08-19 13:47:51.600,0.025,1.38
2021-08-19 13:47:51.604,-0.025,1.32
2021-08-19 13:47:51.608,-0.08,1.28
2021-08-19 13:47:51.612,-0.125,1.205
2021-08-19 13:47:51.616,-0.16,1.15
2021-08-19 13:47:51.620,-0.17,1.02
2021-08-19 13:47:51.624,-0.2,0.895
2021-08-19 13:47:51.628,-0.21,0.78
2021-08-19 13:47:51.632,-0.24,0.685
2021-08-19 13:47:51.636,-0.275,0.65
2021-08-19 13:47:51.640,-0.295,0.56
2021-08-19 13:47:51.644,-0.335,0.545
2021-08-19 13:47:51.648,-0.375,0.445
2021-08-19 13:47:51.652,-0.405,0.41
2021-08-19 13:47:51.656,-0.415,0.36
2021-08-19 13:47:51.660,-0.435,0.295
2021-08-19 13:47:51.664,-0.475,0.24
2021-08-19 13:47:51.668,-0.49,0.185
2021-08-19 13:47:51.672,-0.52,0.17
2021-08-19 13:47:51.676,-0.52,0.165
2021-08-19 13:47:51.680,-0.53,0.145
2021-08-19 13:47:51.684,-0.51,0.095
2021-08-19 13:47:51.688,-0.5,0.095
2021-08-19 13:47:51.692,-0.5,0.095
2021-08-19 13:47:51.696,-0.485,0.125
2021-08-19 13:47:51.700,-0.455,0.14
2021-08-19 13:47:51.704,-0.45,0.135
2021-08-19 13:47:51.708,-0.44,0.165
2021-08-19 13:47:51.712,-0.425,0.155
2021-08-19 13:47:51.716,-0.395,0.165
2021-08-19 13:47:51.720,-0.375,0.19
2021-08-19 13:47:51.724,-0.395,0.22
2021-08-19 13:47:51.728,-0.39,0.21
2021-08-19 13:47:51.732,-0.38,0.205
2021-08-19 13:47:51.736,-0.395,0.215
2021-08-19 13:47:51.740,-0.375,0.155
2021-08-19 13:47:51.744,-0.38,0.2
2021-08-19 13:47:51.748,-0.37,0.245
2021-08-19 13:47:51.752,-0.385,0.205
2021-08-19 13:47:51.756,-0.375,0.215
2021-08-19 13:47:51.760,-0.38,0.22
2021-08-19 13:47:51.764,-0.36,0.19
2021-08-19 13:47:51.768,-0.34,0.205
2021-08-19 13:47:51.772,-0.34,0.22
2021-08-19 13:47:51.776,-0.405,0.27
2021-08-19 13:47:51.780,-0.41,0.3
2021-08-19 13:47:51.784,-0.405,0.315
2021-08-19 13:47:51.788,-0.43,0.335
2021-08-19 13:47:51.792,-0.45,0.335
2021-08-19 13:47:51.796,-0.43,0.315
2021-08-19 13:47:51.800,-0.39,0.32
2021-08-19 13:47:51.804,-0.38,0.28
2021-08-19 13:47:51.808,-0.385,0.275
2021-08-19 13:47:51.812,-0.375,0.25
2021-08-19 13:47:51.816,-0.39,0.235
2021-08-19 13:47:51.820,-0.41,0.235
2021-08-19 13:47:51.824,-0.4,0.225
2021-08-19 13:47:51.828,-0.41,0.195
2021-08-19 13:47:51.832,-0.415,0.165
2021-08-19 13:47:51.836,-0.425,0.14
2021-08-19 13:47:51.840,-0.465,0.14
2021-08-19 13:47:51.844,-0.485,0.125
2021-08-19 13:47:51.848,-0.495,0.095
2021-08-19 13:47:51.852,-0.525,0.06
2021-08-19 13:47:51.856,-0.52,0.06
2021-08-19 13:47:51.860,-0.505,0.095
2021-08-19 13:47:51.864,-0.46,0.065
2021-08-19 13:47:51.868,-0.455,0.085
2021-08-19 13:47:51.872,-0.44,0.085
2021-08-19 13:47:51.876,-0.465,0.11
2021-08-19 13:47:51.880,-0.44,0.095
2021-08-19 13:47:51.884,-0.425,0.11
2021-08-19 13:47:51.888,-0.44,0.105
2021-08-19 13:47:51.892,-0.41,0.125
2021-08-19 13:47:51.896,-0.375,0.11
2021-08-19 13:47:51.900,-0.245,0.095
2021-08-19 13:47:51.904,-0.06,0.09
2021-08-19 13:47:51.908,0.09,0.115
2021-08-19 13:47:51.912,0.06,0.18
2021-08-19 13:47:51.916,-0.07,0.275
2021-08-19 13:47:51.920,-0.305,0.35
2021-08-19 13:47:51.924,-0.7,0.155
2021-08-19 13:47:51.928,-1.205,-0.265
2021-08-19 13:47:51.932,-1.6,-0.86
2021-08-19 13:47:51.936,-1.88,-1.64
2021-08-19 13:47:52.024,-0.8,-1.85
2021-08-19 13:47:52.028,-0.61,-1.37
2021-08-19 13:47:52.032,-0.44,-1.005
2021-08-19 13:47:52.036,-0.28,-0.68
2021-08-19 13:47:52.040,-0.215,-0.415
2021-08-19 13:47:52.044,-0.205,-0.21
2021-08-19 13:47:52.048,-0.15,0.03
2021-08-19 13:47:52.052,-0.135,0.29
2021-08-19 13:47:52.056,-0.105,0.45
2021-08-19 13:47:52.060,-0.095,0.59
2021-08-19 13:47:52.064,-0.06,0.715
2021-08-19 13:47:52.068,-0.05,0.77
2021-08-19 13:47:52.072,-0.02,0.81
2021-08-19 13:47:52.076,-0.025,0.835
2021-08-19 13:47:52.080,-0.005,0.875
2021-08-19 13:47:52.084,-0.005,0.875
2021-08-19 13:47:52.088,0.0,0.935
2021-08-19 13:47:52.092,0.045,0.955
2021-08-19 13:47:52.096,0.055,0.965
2021-08-19 13:47:52.100,0.03,0.98
2021-08-19 13:47:52.104,0.065,0.985
2021-08-19 13:47:52.108,0.07,1.01
2021-08-19 13:47:52.112,0.095,1.06
2021-08-19 13:47:52.116,0.075,1.06
2021-08-19 13:47:52.120,0.095,1.085
2021-08-19 13:47:52.124,0.115,1.05
2021-08-19 13:47:52.128,0.125,1.08
2021-08-19 13:47:52.132,0.16,1.09
2021-08-19 13:47:52.136,0.175,1.105
2021-08-19 13:47:52.140,0.21,1.13
2021-08-19 13:47:52.144,0.255,1.15
2021-08-19 13:47:52.148,0.275,1.21
2021-08-19 13:47:52.152,0.3,1.235
2021-08-19 13:47:52.156,0.29,1.295
2021-08-19 13:47:52.160,0.275,1.31
2021-08-19 13:47:52.164,0.305,1.385
2021-08-19 13:47:52.168,0.34,1.43
2021-08-19 13:47:52.172,0.375,1.425
2021-08-19 13:47:52.176,0.415,1.445
2021-08-19 13:47:52.180,0.4,1.45
2021-08-19 13:47:52.184,0.43,1.51
2021-08-19 13:47:52.188,0.47,1.56
2021-08-19 13:47:52.192,0.46,1.6
2021-08-19 13:47:52.196,0.48,1.59
2021-08-19 13:47:52.200,0.47,1.6
2021-08-19 13:47:52.204,0.48,1.585
2021-08-19 13:47:52.208,0.43,1.595
2021-08-19 13:47:52.212,0.425,1.615
2021-08-19 13:47:52.216,0.42,1.6
2021-08-19 13:47:52.220,0.4,1.555
2021-08-19 13:47:52.224,0.39,1.51
2021-08-19 13:47:52.228,0.375,1.51
2021-08-19 13:47:52.232,0.35,1.49
2021-08-19 13:47:52.236,0.345,1.455
2021-08-19 13:47:52.240,0.305,1.405
2021-08-19 13:47:52.244,0.255,1.37
2021-08-19 13:47:52.248,0.195,1.29
2021-08-19 13:47:52.252,0.155,1.27
2021-08-19 13:47:52.256,0.1,1.235
2021-08-19 13:47:52.260,0.07,1.135
2021-08-19 13:47:52.264,0.05,1.075
2021-08-19 13:47:52.268,0.035,0.99
2021-08-19 13:47:52.272,0.01,0.955
2021-08-19 13:47:52.276,-0.02,0.845
2021-08-19 13:47:52.280,-0.01,0.79
2021-08-19 13:47:52.284,-0.03,0.75
2021-08-19 13:47:52.288,-0.08,0.705
2021-08-19 13:47:52.292,-0.125,0.675
2021-08-19 13:47:52.296,-0.145,0.6
2021-08-19 13:47:52.300,-0.18,0.535
2021-08-19 13:47:52.304,-0.185,0.49
2021-08-19 13:47:52.308,-0.2,0.43
2021-08-19 13:47:52.312,-0.21,0.415
2021-08-19 13:47:52.316,-0.205,0.355
2021-08-19 13:47:52.320,-0.225,0.35
2021-08-19 13:47:52.324,-0.22,0.335
2021-08-19 13:47:52.328,-0.23,0.325
2021-08-19 13:47:52.332,-0.25,0.315
2021-08-19 13:47:52.336,-0.245,0.295
2021-08-19 13:47:52.340,-0.235,0.3
2021-08-19 13:47:52.344,-0.225,0.315
2021-08-19 13:47:52.348,-0.22,0.29
2021-08-19 13:47:52.352,-0.23,0.29
2021-08-19 13:47:52.356,-0.24,0.3
2021-08-19 13:47:52.360,-0.23,0.325
2021-08-19 13:47:52.364,-0.22,0.34
2021-08-19 13:47:52.368,-0.19,0.335
2021-08-19 13:47:52.372,-0.175,0.33
2021-08-19 13:47:52.376,-0.155,0.35
2021-08-19 13:47:52.380,-0.145,0.335
2021-08-19 13:47:52.384,-0.115,0.295
2021-08-19 13:47:52.388,-0.11,0.27
2021-08-19 13:47:52.392,-0.1,0.235
2021-08-19 13:47:52.396,-0.1,0.22
2021-08-19 13:47:52.400,-0.1,0.23
2021-08-19 13:47:52.404,-0.095,0.245
2021-08-19 13:47:52.408,-0.09,0.265
2021-08-19 13:47:52.412,-0.11,0.225
2021-08-19 13:47:52.416,-0.11,0.21
2021-08-19 13:47:52.420,-0.105,0.175
2021-08-19 13:47:52.424,-0.125,0.18
2021-08-19 13:47:52.428,-0.115,0.185
2021-08-19 13:47:52.432,-0.125,0.195
2021-08-19 13:47:52.436,-0.15,0.19
2021-08-19 13:47:52.440,-0.135,0.155
2021-08-19 13:47:52.444,-0.12,0.17
2021-08-19 13:47:52.448,-0.045,0.13
2021-08-19 13:47:52.452,0.1,0.105
2021-08-19 13:47:52.456,0.295,0.105
2021-08-19 13:47:52.460,0.325,0.15
2021-08-19 13:47:52.464,0.205,0.185
2021-08-19 13:47:52.468,-0.01,0.25
2021-08-19 13:47:52.472,-0.35,0.205
2021-08-19 13:47:52.476,-0.81,-0.11
2021-08-19 13:47:52.480,-1.26,-0.605
2021-08-19 13:47:52.484,-1.62,-1.21
2021-08-19 13:47:52.568,-0.435,-1.835
2021-08-19 13:47:52.572,-0.26,-1.375
2021-08-19 13:47:52.576,-0.145,-0.98
2021-08-19 13:47:52.580,-0.01,-0.655
2021-08-19 13:47:52.584,0.08,-0.37
2021-08-19 13:47:52.588,0.085,-0.14
2021-08-19 13:47:52.592,0.105,0.03
2021-08-19 13:47:52.596,0.11,0.235
2021-08-19 13:47:52.600,0.15,0.42
2021-08-19 13:47:52.604,0.185,0.555
2021-08-19 13:47:52.608,0.185,0.69
2021-08-19 13:47:52.612,0.21,0.785
2021-08-19 13:47:52.616,0.205,0.81
2021-08-19 13:47:52.620,0.215,0.885
2021-08-19 13:47:52.624,0.225,0.885
2021-08-19 13:47:52.628,0.215,0.89
2021-08-19 13:47:52.632,0.205,0.915
2021-08-19 13:47:52.636,0.2,0.915
2021-08-19 13:47:52.640,0.215,0.91
2021-08-19 13:47:52.644,0.22,0.91
2021-08-19 13:47:52.648,0.24,0.935
2021-08-19 13:47:52.652,0.265,0.965
2021-08-19 13:47:52.656,0.27,0.975
2021-08-19 13:47:52.660,0.29,0.995
2021-08-19 13:47:52.664,0.305,1.015
2021-08-19 13:47:52.668,0.305,1.045
2021-08-19 13:47:52.672,0.255,1.035
2021-08-19 13:47:52.676,0.3,1.08
2021-08-19 13:47:52.680,0.315,1.09
2021-08-19 13:47:52.684,0.345,1.105
2021-08-19 13:47:52.688,0.34,1.13
2021-08-19 13:47:52.692,0.35,1.14
2021-08-19 13:47:52.696,0.37,1.17
2021-08-19 13:47:52.700,0.375,1.23
2021-08-19 13:47:52.704,0.38,1.275
2021-08-19 13:47:52.708,0.41,1.335
2021-08-19 13:47:52.712,0.405,1.34
2021-08-19 13:47:52.716,0.4,1.36
2021-08-19 13:47:52.720,0.415,1.375
2021-08-19 13:47:52.724,0.415,1.4
2021-08-19 13:47:52.728,0.465,1.435
2021-08-19 13:47:52.732,0.435,1.445
2021-08-19 13:47:52.736,0.47,1.45
2021-08-19 13:47:52.740,0.47,1.465
2021-08-19 13:47:52.744,0.49,1.5
2021-08-19 13:47:52.748,0.485,1.5
2021-08-19 13:47:52.752,0.47,1.515
2021-08-19 13:47:52.756,0.48,1.53
2021-08-19 13:47:52.760,0.455,1.575
2021-08-19 13:47:52.764,0.455,1.56
2021-08-19 13:47:52.768,0.445,1.53
2021-08-19 13:47:52.772,0.415,1.505
2021-08-19 13:47:52.776,0.385,1.47
2021-08-19 13:47:52.780,0.36,1.415
2021-08-19 13:47:52.784,0.35,1.37
2021-08-19 13:47:52.788,0.315,1.295
2021-08-19 13:47:52.792,0.265,1.265
2021-08-19 13:47:52.796,0.215,1.195
2021-08-19 13:47:52.800,0.185,1.12
2021-08-19 13:47:52.804,0.125,1.065
2021-08-19 13:47:52.808,0.07,1.0
2021-08-19 13:47:52.812,0.05,0.92
2021-08-19 13:47:52.816,0.02,0.86
2021-08-19 13:47:52.820,0.0,0.8
2021-08-19 13:47:52.824,-0.015,0.725
2021-08-19 13:47:52.828,-0.045,0.66
2021-08-19 13:47:52.832,-0.105,0.615
2021-08-19 13:47:52.836,-0.105,0.57
2021-08-19 13:47:52.840,-0.11,0.515
2021-08-19 13:47:52.844,-0.14,0.475
2021-08-19 13:47:52.848,-0.16,0.425
2021-08-19 13:47:52.852,-0.175,0.405
2021-08-19 13:47:52.856,-0.19,0.34
2021-08-19 13:47:52.860,-0.185,0.3
2021-08-19 13:47:52.864,-0.19,0.28
2021-08-19 13:47:52.868,-0.175,0.26
2021-08-19 13:47:52.872,-0.2,0.245
2021-08-19 13:47:52.876,-0.195,0.23
2021-08-19 13:47:52.880,-0.195,0.23
2021-08-19 13:47:52.884,-0.185,0.26
2021-08-19 13:47:52.888,-0.195,0.265
2021-08-19 13:47:52.892,-0.2,0.275
2021-08-19 13:47:52.896,-0.2,0.275
2021-08-19 13:47:52.900,-0.205,0.275
2021-08-19 13:47:52.904,-0.18,0.27
2021-08-19 13:47:52.908,-0.18,0.255
2021-08-19 13:47:52.912,-0.19,0.27
2021-08-19 13:47:52.916,-0.225,0.255
2021-08-19 13:47:52.920,-0.195,0.265
2021-08-19 13:47:52.924,-0.17,0.255
2021-08-19 13:47:52.928,-0.135,0.255
2021-08-19 13:47:52.932,-0.12,0.265
2021-08-19 13:47:52.936,-0.145,0.295
2021-08-19 13:47:52.940,-0.155,0.275
2021-08-19 13:47:52.944,-0.18,0.325
2021-08-19 13:47:52.948,-0.19,0.33
2021-08-19 13:47:52.952,-0.185,0.325
2021-08-19 13:47:52.956,-0.175,0.315
2021-08-19 13:47:52.960,-0.15,0.28
2021-08-19 13:47:52.964,-0.14,0.29
2021-08-19 13:47:52.968,-0.115,0.3
2021-08-19 13:47:52.972,-0.1,0.29
2021-08-19 13:47:52.976,-0.105,0.265
2021-08-19 13:47:52.980,-0.13,0.265
2021-08-19 13:47:52.984,-0.14,0.23
2021-08-19 13:47:52.988,-0.145,0.235
2021-08-19 13:47:52.992,-0.16,0.175
2021-08-19 13:47:52.996,-0.18,0.16
2021-08-19 13:47:53.000,-0.19,0.145
2021-08-19 13:47:53.004,-0.2,0.145
2021-08-19 13:47:53.008,-0.2,0.135
2021-08-19 13:47:53.012,-0.2,0.135
2021-08-19 13:47:53.016,-0.22,0.145
2021-08-19 13:47:53.020,-0.225,0.14
2021-08-19 13:47:53.024,-0.265,0.13
2021-08-19 13:47:53.028,-0.27,0.135
2021-08-19 13:47:53.032,-0.29,0.12
2021-08-19 13:47:53.036,-0.31,0.115
2021-08-19 13:47:53.040,-0.34,0.085
2021-08-19 13:47:53.044,-0.35,0.09
2021-08-19 13:47:53.048,-0.375,0.065
2021-08-19 13:47:53.052,-0.375,0.04
2021-08-19 13:47:53.056,-0.39,0.06
2021-08-19 13:47:53.060,-0.385,0.065
2021-08-19 13:47:53.064,-0.385,0.08
2021-08-19 13:47:53.068,-0.38,0.085
2021-08-19 13:47:53.072,-0.37,0.08
2021-08-19 13:47:53.076,-0.375,0.08
2021-08-19 13:47:53.080,-0.39,0.075
2021-08-19 13:47:53.084,-0.385,0.065
2021-08-19 13:47:53.088,-0.385,0.09
2021-08-19 13:47:53.092,-0.37,0.09
2021-08-19 13:47:53.096,-0.385,0.08
2021-08-19 13:47:53.100,-0.36,0.075
2021-08-19 13:47:53.104,-0.36,0.095
2021-08-19 13:47:53.108,-0.3,0.08
2021-08-19 13:47:53.112,-0.27,0.11
2021-08-19 13:47:53.116,-0.24,0.09
2021-08-19 13:47:53.120,-0.24,0.11
2021-08-19 13:47:53.124,-0.235,0.145
2021-08-19 13:47:53.128,-0.255,0.19
2021-08-19 13:47:53.132,-0.265,0.21
2021-08-19 13:47:53.136,-0.285,0.185
2021-08-19 13:47:53.140,-0.285,0.195
2021-08-19 13:47:53.144,-0.27,0.19
2021-08-19 13:47:53.148,-0.225,0.175
2021-08-19 13:47:53.152,-0.22,0.185
2021-08-19 13:47:53.156,-0.21,0.17
2021-08-19 13:47:53.160,-0.21,0.17
2021-08-19 13:47:53.164,-0.22,0.17
2021-08-19 13:47:53.168,-0.225,0.135
2021-08-19 13:47:53.172,-0.23,0.11
2021-08-19 13:47:53.176,-0.225,0.12
2021-08-19 13:47:53.180,-0.235,0.1
2021-08-19 13:47:53.184,-0.235,0.05
2021-08-19 13:47:53.188,-0.23,0.055
2021-08-19 13:47:53.192,-0.22,0.03
2021-08-19 13:47:53.196,-0.165,0.02
2021-08-19 13:47:53.200,-0.125,0.03
2021-08-19 13:47:53.204,0.005,0.04
2021-08-19 13:47:53.208,0.135,0.055
2021-08-19 13:47:53.212,0.135,0.13
2021-08-19 13:47:53.216,-0.02,0.2
2021-08-19 13:47:53.220,-0.265,0.305
2021-08-19 13:47:53.224,-0.64,0.205
2021-08-19 13:47:53.228,-1.145,-0.265
2021-08-19 13:47:53.232,-1.59,-0.85
2021-08-19 13:47:53.236,-1.95,-1.63
2021-08-19 13:47:53.320,-0.84,-1.965
2021-08-19 13:47:53.324,-0.64,-1.475
2021-08-19 13:47:53.328,-0.455,-1.065
2021-08-19 13:47:53.332,-0.26,-0.73
2021-08-19 13:47:53.336,-0.12,-0.435
2021-08-19 13:47:53.340,-0.05,-0.245
2021-08-19 13:47:53.344,-0.02,-0.01
2021-08-19 13:47:53.348,0.0,0.195
2021-08-19 13:47:53.352,0.025,0.39
2021-08-19 13:47:53.356,0.05,0.515
2021-08-19 13:47:53.360,0.055,0.63
2021-08-19 13:47:53.364,0.06,0.72
2021-08-19 13:47:53.368,0.055,0.74
2021-08-19 13:47:53.372,0.065,0.775
2021-08-19 13:47:53.376,0.09,0.79
2021-08-19 13:47:53.380,0.095,0.815
2021-08-19 13:47:53.384,0.14,0.845
2021-08-19 13:47:53.388,0.145,0.84
2021-08-19 13:47:53.392,0.17,0.88
2021-08-19 13:47:53.396,0.175,0.885
2021-08-19 13:47:53.400,0.17,0.915
2021-08-19 13:47:53.404,0.16,0.935
2021-08-19 13:47:53.408,0.175,0.95
2021-08-19 13:47:53.412,0.18,0.985
2021-08-19 13:47:53.416,0.185,1.025
2021-08-19 13:47:53.420,0.22,1.03
2021-08-19 13:47:53.424,0.235,1.05
2021-08-19 13:47:53.428,0.255,1.085
2021-08-19 13:47:53.432,0.255,1.14
2021-08-19 13:47:53.436,0.28,1.155
2021-08-19 13:47:53.440,0.265,1.2
2021-08-19 13:47:53.444,0.31,1.24
2021-08-19 13:47:53.448,0.375,1.27
2021-08-19 13:47:53.452,0.41,1.285
2021-08-19 13:47:53.456,0.43,1.315
2021-08-19 13:47:53.460,0.47,1.35
2021-08-19 13:47:53.464,0.49,1.41
2021-08-19 13:47:53.468,0.525,1.475
2021-08-19 13:47:53.472,0.52,1.515
2021-08-19 13:47:53.476,0.545,1.565
2021-08-19 13:47:53.480,0.55,1.59
2021-08-19 13:47:53.484,0.555,1.615
2021-08-19 13:47:53.488,0.565,1.655
2021-08-19 13:47:53.492,0.54,1.675
2021-08-19 13:47:53.496,0.545,1.71
2021-08-19 13:47:53.500,0.54,1.715
2021-08-19 13:47:53.504,0.535,1.72
2021-08-19 13:47:53.508,0.53,1.715
2021-08-19 13:47:53.512,0.535,1.74
2021-08-19 13:47:53.516,0.525,1.74
2021-08-19 13:47:53.520,0.495,1.725
2021-08-19 13:47:53.524,0.47,1.675
2021-08-19 13:47:53.528,0.41,1.65
2021-08-19 13:47:53.532,0.38,1.615
2021-08-19 13:47:53.536,0.34,1.57
2021-08-19 13:47:53.540,0.315,1.485
2021-08-19 13:47:53.544,0.275,1.435
2021-08-19 13:47:53.548,0.255,1.33
2021-08-19 13:47:53.552,0.22,1.27
2021-08-19 13:47:53.556,0.21,1.215
2021-08-19 13:47:53.560,0.165,1.17
2021-08-19 13:47:53.564,0.115,1.075
2021-08-19 13:47:53.568,0.045,1.03
2021-08-19 13:47:53.572,0.005,0.99
2021-08-19 13:47:53.576,-0.045,0.905
2021-08-19 13:47:53.580,-0.075,0.82
2021-08-19 13:47:53.584,-0.125,0.78
2021-08-19 13:47:53.588,-0.14,0.705
2021-08-19 13:47:53.592,-0.18,0.61
2021-08-19 13:47:53.596,-0.19,0.56
2021-08-19 13:47:53.600,-0.2,0.525
2021-08-19 13:47:53.604,-0.2,0.445
2021-08-19 13:47:53.608,-0.225,0.405
2021-08-19 13:47:53.612,-0.245,0.37
2021-08-19 13:47:53.616,-0.27,0.33
2021-08-19 13:47:53.620,-0.255,0.315
2021-08-19 13:47:53.624,-0.27,0.27
2021-08-19 13:47:53.628,-0.22,0.27
2021-08-19 13:47:53.632,-0.18,0.215
2021-08-19 13:47:53.636,-0.115,0.22
2021-08-19 13:47:53.640,-0.03,0.22
2021-08-19 13:47:53.644,0.045,0.28
2021-08-19 13:47:53.648,0.055,0.32
2021-08-19 13:47:53.652,-0.11,0.36
2021-08-19 13:47:53.656,-0.545,0.315
2021-08-19 13:47:53.660,-1.195,0.09
2021-08-19 13:47:53.664,-1.79,-0.245
2021-08-19 13:47:53.752,-0.53,-1.63
2021-08-19 13:47:53.756,-0.33,-1.2
2021-08-19 13:47:53.760,-0.205,-0.82
2021-08-19 13:47:53.764,-0.125,-0.51
2021-08-19 13:47:53.768,-0.065,-0.22
2021-08-19 13:47:53.772,-0.035,0.065
2021-08-19 13:47:53.776,-0.01,0.3
2021-08-19 13:47:53.780,-0.005,0.49
2021-08-19 13:47:53.784,-0.02,0.615
2021-08-19 13:47:53.788,-0.005,0.685
2021-08-19 13:47:53.792,0.005,0.725
2021-08-19 13:47:53.796,0.015,0.75
2021-08-19 13:47:53.800,0.06,0.78
2021-08-19 13:47:53.804,0.07,0.8
2021-08-19 13:47:53.808,0.07,0.855
2021-08-19 13:47:53.812,0.095,0.86
2021-08-19 13:47:53.816,0.095,0.895
2021-08-19 13:47:53.820,0.105,0.88
2021-08-19 13:47:53.824,0.13,0.905
2021-08-19 13:47:53.828,0.15,0.96
2021-08-19 13:47:53.832,0.135,0.995
2021-08-19 13:47:53.836,0.12,0.99
2021-08-19 13:47:53.840,0.145,1.04
2021-08-19 13:47:53.844,0.12,1.05
2021-08-19 13:47:53.848,0.12,1.075
2021-08-19 13:47:53.852,0.11,1.09
2021-08-19 13:47:53.856,0.1,1.1
2021-08-19 13:47:53.860,0.085,1.11
2021-08-19 13:47:53.864,0.09,1.11
2021-08-19 13:47:53.868,0.11,1.1
2021-08-19 13:47:53.872,0.13,1.105
2021-08-19 13:47:53.876,0.14,1.13
2021-08-19 13:47:53.880,0.15,1.175
2021-08-19 13:47:53.884,0.15,1.18
2021-08-19 13:47:53.888,0.135,1.22
2021-08-19 13:47:53.892,0.135,1.225
2021-08-19 13:47:53.896,0.115,1.2
2021-08-19 13:47:53.900,0.135,1.22
2021-08-19 13:47:53.904,0.13,1.22
2021-08-19 13:47:53.908,0.13,1.205
2021-08-19 13:47:53.912,0.14,1.23
2021-08-19 13:47:53.916,0.135,1.225
2021-08-19 13:47:53.920,0.145,1.205
2021-08-19 13:47:53.924,0.15,1.215
2021-08-19 13:47:53.928,0.17,1.24
2021-08-19 13:47:53.932,0.155,1.23
2021-08-19 13:47:53.936,0.155,1.23
2021-08-19 13:47:53.940,0.13,1.225
2021-08-19 13:47:53.944,0.125,1.24
2021-08-19 13:47:53.948,0.06,1.21
2021-08-19 13:47:53.952,0.04,1.215
2021-08-19 13:47:53.956,0.05,1.18
2021-08-19 13:47:53.960,0.065,1.145
2021-08-19 13:47:53.964,0.07,1.105
2021-08-19 13:47:53.968,0.06,1.045
2021-08-19 13:47:53.972,0.03,1.04
2021-08-19 13:47:53.976,0.035,1.015
2021-08-19 13:47:53.980,0.015,0.98
2021-08-19 13:47:53.984,-0.01,0.93
2021-08-19 13:47:53.988,-0.055,0.885
2021-08-19 13:47:53.992,-0.06,0.83
2021-08-19 13:47:53.996,-0.1,0.775
2021-08-19 13:47:54.000,-0.12,0.72
2021-08-19 13:47:54.004,-0.135,0.66
2021-08-19 13:47:54.008,-0.13,0.63
2021-08-19 13:47:54.012,-0.165,0.57
2021-08-19 13:47:54.016,-0.18,0.52
2021-08-19 13:47:54.020,-0.185,0.51
2021-08-19 13:47:54.024,-0.205,0.46
2021-08-19 13:47:54.028,-0.21,0.405
2021-08-19 13:47:54.032,-0.23,0.395
2021-08-19 13:47:54.036,-0.265,0.37
2021-08-19 13:47:54.040,-0.285,0.355
2021-08-19 13:47:54.044,-0.29,0.33
2021-08-19 13:47:54.048,-0.32,0.335
2021-08-19 13:47:54.052,-0.33,0.325
2021-08-19 13:47:54.056,-0.345,0.335
2021-08-19 13:47:54.060,-0.32,0.335
2021-08-19 13:47:54.064,-0.3,0.33
2021-08-19 13:47:54.068,-0.325,0.275
2021-08-19 13:47:54.072,-0.32,0.28
2021-08-19 13:47:54.076,-0.315,0.245
2021-08-19 13:47:54.080,-0.33,0.215
2021-08-19 13:47:54.084,-0.3,0.185
2021-08-19 13:47:54.088,-0.2,0.14
2021-08-19 13:47:54.092,0.0,0.115
2021-08-19 13:47:54.096,0.245,0.1
2021-08-19 13:47:54.100,0.325,0.115
2021-08-19 13:47:54.104,0.22,0.21
2021-08-19 13:47:54.108,0.03,0.325
2021-08-19 13:47:54.112,-0.345,0.28
2021-08-19 13:47:54.116,-0.88,-0.06
2021-08-19 13:47:54.120,-1.44,-0.63
2021-08-19 13:47:54.124,-1.795,-1.4
2021-08-19 13:47:54.212,-0.61,-1.53
2021-08-19 13:47:54.216,-0.465,-1.105
2021-08-19 13:47:54.220,-0.265,-0.715
2021-08-19 13:47:54.224,-0.16,-0.425
2021-08-19 13:47:54.228,-0.12,-0.18
2021-08-19 13:47:54.232,-0.08,0.075
2021-08-19 13:47:54.236,-0.06,0.325
2021-08-19 13:47:54.240,-0.05,0.53
2021-08-19 13:47:54.244,-0.035,0.695
2021-08-19 13:47:54.248,-0.06,0.84
2021-08-19 13:47:54.252,-0.04,0.93
2021-08-19 13:47:54.256,-0.01,1.0
2021-08-19 13:47:54.260,-0.01,1.01
2021-08-19 13:47:54.264,0.01,1.005
2021-08-19 13:47:54.268,0.03,0.99
2021-08-19 13:47:54.272,0.06,0.985
2021-08-19 13:47:54.276,0.055,0.99
2021-08-19 13:47:54.280,0.07,0.975
2021-08-19 13:47:54.284,0.075,0.995
2021-08-19 13:47:54.288,0.1,0.99
2021-08-19 13:47:54.292,0.14,1.03
2021-08-19 13:47:54.296,0.13,1.04
2021-08-19 13:47:54.300,0.14,1.04
2021-08-19 13:47:54.304,0.17,1.05
2021-08-19 13:47:54.308,0.2,1.05
2021-08-19 13:47:54.312,0.235,1.08
2021-08-19 13:47:54.316,0.27,1.11
2021-08-19 13:47:54.320,0.275,1.14
2021-08-19 13:47:54.324,0.29,1.17
2021-08-19 13:47:54.328,0.305,1.25
2021-08-19 13:47:54.332,0.33,1.26
2021-08-19 13:47:54.336,0.345,1.285
2021-08-19 13:47:54.340,0.36,1.33
2021-08-19 13:47:54.344,0.365,1.35
2021-08-19 13:47:54.348,0.38,1.37
2021-08-19 13:47:54.352,0.405,1.39
2021-08-19 13:47:54.356,0.41,1.415
2021-08-19 13:47:54.360,0.44,1.435
2021-08-19 13:47:54.364,0.435,1.465
2021-08-19 13:47:54.368,0.445,1.485
2021-08-19 13:47:54.372,0.47,1.505
2021-08-19 13:47:54.376,0.47,1.52
2021-08-19 13:47:54.380,0.45,1.56
2021-08-19 13:47:54.384,0.47,1.58
2021-08-19 13:47:54.388,0.445,1.605
2021-08-19 13:47:54.392,0.415,1.63
2021-08-19 13:47:54.396,0.385,1.585
2021-08-19 13:47:54.400,0.36,1.59
2021-08-19 13:47:54.404,0.335,1.58
2021-08-19 13:47:54.408,0.315,1.525
2021-08-19 13:47:54.412,0.275,1.48
2021-08-19 13:47:54.416,0.26,1.435
2021-08-19 13:47:54.420,0.2,1.41
2021-08-19 13:47:54.424,0.17,1.37
2021-08-19 13:47:54.428,0.14,1.32
2021-08-19 13:47:54.432,0.11,1.29
2021-08-19 13:47:54.436,0.08,1.22
2021-08-19 13:47:54.440,0.035,1.16
2021-08-19 13:47:54.444,-0.01,1.11
2021-08-19 13:47:54.448,-0.05,1.045
2021-08-19 13:47:54.452,-0.07,0.97
2021-08-19 13:47:54.456,-0.09,0.865
2021-08-19 13:47:54.460,-0.12,0.78
2021-08-19 13:47:54.464,-0.16,0.695
2021-08-19 13:47:54.468,-0.19,0.605
2021-08-19 13:47:54.472,-0.23,0.5
2021-08-19 13:47:54.476,-0.28,0.465
2021-08-19 13:47:54.480,-0.285,0.385
2021-08-19 13:47:54.484,-0.29,0.34
2021-08-19 13:47:54.488,-0.305,0.285
2021-08-19 13:47:54.492,-0.295,0.26
2021-08-19 13:47:54.496,-0.29,0.245
2021-08-19 13:47:54.500,-0.275,0.235
2021-08-19 13:47:54.504,-0.275,0.225
2021-08-19 13:47:54.508,-0.27,0.215
2021-08-19 13:47:54.512,-0.23,0.185
2021-08-19 13:47:54.516,-0.165,0.195
2021-08-19 13:47:54.520,-0.055,0.175
2021-08-19 13:47:54.524,0.08,0.195
2021-08-19 13:47:54.528,0.175,0.24
2021-08-19 13:47:54.532,0.115,0.3
2021-08-19 13:47:54.536,-0.11,0.41
2021-08-19 13:47:54.540,-0.61,0.38
2021-08-19 13:47:54.544,-1.255,0.12
2021-08-19 13:47:54.548,-1.795,-0.32
2021-08-19 13:47:54.636,-0.78,-1.955
2021-08-19 13:47:54.640,-0.6,-1.45
2021-08-19 13:47:54.644,-0.375,-1.02
2021-08-19 13:47:54.648,-0.2,-0.705
2021-08-19 13:47:54.652,-0.08,-0.43
2021-08-19 13:47:54.656,-0.045,-0.17
2021-08-19 13:47:54.660,-0.02,0.06
2021-08-19 13:47:54.664,0.04,0.3
2021-08-19 13:47:54.668,0.04,0.505
2021-08-19 13:47:54.672,0.05,0.65
2021-08-19 13:47:54.676,0.05,0.8
2021-08-19 13:47:54.680,0.07,0.895
2021-08-19 13:47:54.684,0.075,0.905
2021-08-19 13:47:54.688,0.08,0.915
2021-08-19 13:47:54.692,0.09,0.945
2021-08-19 13:47:54.696,0.13,0.95
2021-08-19 13:47:54.700,0.14,0.97
2021-08-19 13:47:54.704,0.135,0.985
2021-08-19 13:47:54.708,0.165,1.025
2021-08-19 13:47:54.712,0.175,1.035
2021-08-19 13:47:54.716,0.195,1.08
2021-08-19 13:47:54.720,0.185,1.08
2021-08-19 13:47:54.724,0.18,1.09
2021-08-19 13:47:54.728,0.185,1.1
2021-08-19 13:47:54.732,0.195,1.13
2021-08-19 13:47:54.736,0.205,1.135
2021-08-19 13:47:54.740,0.23,1.165
2021-08-19 13:47:54.744,0.27,1.165
2021-08-19 13:47:54.748,0.26,1.2
2021-08-19 13:47:54.752,0.27,1.225
2021-08-19 13:47:54.756,0.275,1.265
2021-08-19 13:47:54.760,0.255,1.26
2021-08-19 13:47:54.764,0.235,1.28
2021-08-19 13:47:54.768,0.25,1.29
2021-08-19 13:47:54.772,0.24,1.315
2021-08-19 13:47:54.776,0.255,1.31
2021-08-19 13:47:54.780,0.27,1.335
2021-08-19 13:47:54.784,0.265,1.335
2021-08-19 13:47:54.788,0.26,1.37
2021-08-19 13:47:54.792,0.26,1.365
2021-08-19 13:47:54.796,0.265,1.355
2021-08-19 13:47:54.800,0.27,1.375
2021-08-19 13:47:54.804,0.265,1.37
2021-08-19 13:47:54.808,0.28,1.4
2021-08-19 13:47:54.812,0.29,1.42
2021-08-19 13:47:54.816,0.3,1.46
2021-08-19 13:47:54.820,0.285,1.455
2021-08-19 13:47:54.824,0.28,1.48
2021-08-19 13:47:54.828,0.26,1.475
2021-08-19 13:47:54.832,0.28,1.48
2021-08-19 13:47:54.836,0.26,1.51
2021-08-19 13:47:54.840,0.23,1.5
2021-08-19 13:47:54.844,0.18,1.44
2021-08-19 13:47:54.848,0.15,1.42
2021-08-19 13:47:54.852,0.15,1.355
2021-08-19 13:47:54.856,0.13,1.27
2021-08-19 13:47:54.860,0.12,1.18
2021-08-19 13:47:54.864,0.115,1.11
2021-08-19 13:47:54.868,0.06,1.06
2021-08-19 13:47:54.872,0.03,1.01
2021-08-19 13:47:54.876,0.02,0.955
2021-08-19 13:47:54.880,-0.005,0.895
2021-08-19 13:47:54.884,-0.025,0.83
2021-08-19 13:47:54.888,-0.055,0.75
2021-08-19 13:47:54.892,-0.06,0.705
2021-08-19 13:47:54.896,-0.085,0.655
2021-08-19 13:47:54.900,-0.115,0.6
2021-08-19 13:47:54.904,-0.13,0.545
2021-08-19 13:47:54.908,-0.145,0.485
2021-08-19 13:47:54.912,-0.15,0.445
2021-08-19 13:47:54.916,-0.15,0.39
2021-08-19 13:47:54.920,-0.15,0.35
2021-08-19 13:47:54.924,-0.17,0.325
2021-08-19 13:47:54.928,-0.155,0.335
2021-08-19 13:47:54.932,-0.155,0.295
2021-08-19 13:47:54.936,-0.17,0.28
2021-08-19 13:47:54.940,-0.2,0.28
2021-08-19 13:47:54.944,-0.19,0.255
2021-08-19 13:47:54.948,-0.225,0.265
2021-08-19 13:47:54.952,-0.22,0.265
2021-08-19 13:47:54.956,-0.235,0.25
2021-08-19 13:47:54.960,-0.23,0.235
2021-08-19 13:47:54.964,-0.23,0.21
2021-08-19 13:47:54.968,-0.23,0.21
2021-08-19 13:47:54.972,-0.255,0.19
2021-08-19 13:47:54.976,-0.24,0.185
2021-08-19 13:47:54.980,-0.245,0.185
2021-08-19 13:47:54.984,-0.23,0.18
2021-08-19 13:47:54.988,-0.23,0.19
2021-08-19 13:47:54.992,-0.235,0.185
2021-08-19 13:47:54.996,-0.245,0.225
2021-08-19 13:47:55.000,-0.25,0.215
2021-08-19 13:47:55.004,-0.305,0.23
2021-08-19 13:47:55.008,-0.305,0.235
2021-08-19 13:47:55.012,-0.29,0.24
2021-08-19 13:47:55.016,-0.325,0.235
2021-08-19 13:47:55.020,-0.305,0.235
2021-08-19 13:47:55.024,-0.27,0.26
2021-08-19 13:47:55.028,-0.24,0.27
2021-08-19 13:47:55.032,-0.22,0.26
2021-08-19 13:47:55.036,-0.22,0.275
2021-08-19 13:47:55.040,-0.215,0.26
2021-08-19 13:47:55.044,-0.215,0.255
2021-08-19 13:47:55.048,-0.175,0.255
2021-08-19 13:47:55.052,-0.145,0.25
2021-08-19 13:47:55.056,-0.135,0.255
2021-08-19 13:47:55.060,-0.145,0.245
2021-08-19 13:47:55.064,-0.115,0.24
2021-08-19 13:47:55.068,-0.115,0.25
2021-08-19 13:47:55.072,-0.09,0.25
2021-08-19 13:47:55.076,-0.095,0.215
2021-08-19 13:47:55.080,-0.065,0.21
2021-08-19 13:47:55.084,-0.095,0.22
2021-08-19 13:47:55.088,-0.1,0.215
2021-08-19 13:47:55.092,-0.105,0.22
2021-08-19 13:47:55.096,-0.09,0.245
2021-08-19 13:47:55.100,-0.09,0.24
2021-08-19 13:47:55.104,-0.1,0.22
2021-08-19 13:47:55.108,-0.095,0.195
2021-08-19 13:47:55.112,-0.09,0.225
2021-08-19 13:47:55.116,-0.1,0.22
2021-08-19 13:47:55.120,-0.095,0.225
2021-08-19 13:47:55.124,-0.08,0.205
2021-08-19 13:47:55.128,-0.075,0.2
2021-08-19 13:47:55.132,-0.09,0.195
2021-08-19 13:47:55.136,-0.12,0.21
2021-08-19 13:47:55.140,-0.125,0.215
2021-08-19 13:47:55.144,-0.13,0.205
2021-08-19 13:47:55.148,-0.14,0.205
2021-08-19 13:47:55.152,-0.16,0.18
2021-08-19 13:47:55.156,-0.18,0.19
2021-08-19 13:47:55.160,-0.18,0.195
2021-08-19 13:47:55.164,-0.175,0.16
2021-08-19 13:47:55.168,-0.145,0.15
2021-08-19 13:47:55.172,-0.16,0.145
2021-08-19 13:47:55.176,-0.125,0.13
2021-08-19 13:47:55.180,-0.055,0.13
2021-08-19 13:47:55.184,0.04,0.13
2021-08-19 13:47:55.188,0.175,0.125
2021-08-19 13:47:55.192,0.185,0.175
2021-08-19 13:47:55.196,0.065,0.23
2021-08-19 13:47:55.200,-0.095,0.325
2021-08-19 13:47:55.204,-0.4,0.31
2021-08-19 13:47:55.208,-0.83,0.0
2021-08-19 13:47:55.212,-1.27,-0.575
2021-08-19 13:47:55.216,-1.62,-1.27
2021-08-19 13:47:55.308,-0.3,-1.705
2021-08-19 13:47:55.312,-0.17,-1.28
2021-08-19 13:47:55.316,-0.07,-0.91
2021-08-19 13:47:55.320,0.045,-0.605
2021-08-19 13:47:55.324,0.09,-0.37
2021-08-19 13:47:55.328,0.125,-0.12
2021-08-19 13:47:55.332,0.125,0.09
2021-08-19 13:47:55.336,0.15,0.235
2021-08-19 13:47:55.340,0.165,0.415
2021-08-19 13:47:55.344,0.175,0.56
2021-08-19 13:47:55.348,0.2,0.655
2021-08-19 13:47:55.352,0.235,0.77
2021-08-19 13:47:55.356,0.27,0.835
2021-08-19 13:47:55.360,0.28,0.855
2021-08-19 13:47:55.364,0.315,0.89
2021-08-19 13:47:55.368,0.33,0.935
2021-08-19 13:47:55.372,0.345,0.95
2021-08-19 13:47:55.376,0.36,0.99
2021-08-19 13:47:55.380,0.35,1.04
2021-08-19 13:47:55.384,0.355,1.07
2021-08-19 13:47:55.388,0.41,1.09
2021-08-19 13:47:55.392,0.445,1.12
2021-08-19 13:47:55.396,0.47,1.15
2021-08-19 13:47:55.400,0.53,1.18
2021-08-19 13:47:55.404,0.54,1.19
2021-08-19 13:47:55.408,0.575,1.225
2021-08-19 13:47:55.412,0.62,1.275
2021-08-19 13:47:55.416,0.61,1.305
2021-08-19 13:47:55.420,0.625,1.345
2021-08-19 13:47:55.424,0.645,1.36
2021-08-19 13:47:55.428,0.69,1.415
2021-08-19 13:47:55.432,0.74,1.43
2021-08-19 13:47:55.436,0.77,1.43
2021-08-19 13:47:55.440,0.81,1.49
2021-08-19 13:47:55.444,0.86,1.54
2021-08-19 13:47:55.448,0.87,1.6
2021-08-19 13:47:55.452,0.915,1.62
2021-08-19 13:47:55.456,0.93,1.665
2021-08-19 13:47:55.460,0.945,1.72
2021-08-19 13:47:55.464,0.935,1.78
2021-08-19 13:47:55.468,0.93,1.77
2021-08-19 13:47:55.472,0.955,1.76
2021-08-19 13:47:55.476,0.965,1.775
2021-08-19 13:47:55.480,0.98,1.74
2021-08-19 13:47:55.484,0.965,1.735
2021-08-19 13:47:55.488,0.97,1.725
2021-08-19 13:47:55.492,0.99,1.76
2021-08-19 13:47:55.496,0.98,1.765
2021-08-19 13:47:55.500,0.97,1.74
2021-08-19 13:47:55.504,0.92,1.78
2021-08-19 13:47:55.508,0.91,1.76
2021-08-19 13:47:55.512,0.87,1.73
2021-08-19 13:47:55.516,0.83,1.715
2021-08-19 13:47:55.520,0.835,1.695
2021-08-19 13:47:55.524,0.785,1.645
2021-08-19 13:47:55.528,0.76,1.61
2021-08-19 13:47:55.532,0.725,1.54
2021-08-19 13:47:55.536,0.69,1.505
2021-08-19 13:47:55.540,0.635,1.44
2021-08-19 13:47:55.544,0.61,1.385
2021-08-19 13:47:55.548,0.58,1.315
2021-08-19 13:47:55.552,0.53,1.275
2021-08-19 13:47:55.556,0.5,1.215
2021-08-19 13:47:55.560,0.475,1.135
2021-08-19 13:47:55.564,0.395,1.065
2021-08-19 13:47:55.568,0.325,0.99
2021-08-19 13:47:55.572,0.3,0.94
2021-08-19 13:47:55.576,0.28,0.875
2021-08-19 13:47:55.580,0.28,0.825
2021-08-19 13:47:55.584,0.245,0.745
2021-08-19 13:47:55.588,0.225,0.685
2021-08-19 13:47:55.592,0.24,0.65
2021-08-19 13:47:55.596,0.26,0.605
2021-08-19 13:47:55.600,0.23,0.58
2021-08-19 13:47:55.604,0.17,0.535
2021-08-19 13:47:55.608,0.16,0.515
2021-08-19 13:47:55.612,0.165,0.47
2021-08-19 13:47:55.616,0.175,0.455
2021-08-19 13:47:55.620,0.22,0.445
2021-08-19 13:47:55.624,0.27,0.415
2021-08-19 13:47:55.628,0.27,0.415
2021-08-19 13:47:55.632,0.245,0.41
2021-08-19 13:47:55.636,0.23,0.46
2021-08-19 13:47:55.640,0.22,0.475
2021-08-19 13:47:55.644,0.25,0.47
2021-08-19 13:47:55.648,0.34,0.47
2021-08-19 13:47:55.652,0.435,0.485
2021-08-19 13:47:55.656,0.58,0.475
2021-08-19 13:47:55.660,0.69,0.47
2021-08-19 13:47:55.664,0.745,0.51
2021-08-19 13:47:55.668,0.615,0.575
2021-08-19 13:47:55.672,0.28,0.645
2021-08-19 13:47:55.676,-0.265,0.55
2021-08-19 13:47:55.680,-0.88,0.2
2021-08-19 13:47:55.684,-1.395,-0.27
2021-08-19 13:47:55.688,-1.735,-0.885
2021-08-19 13:47:55.692,-1.85,-1.795
2021-08-19 13:47:55.768,-0.125,-1.975
2021-08-19 13:47:55.772,-0.005,-1.56
2021-08-19 13:47:55.776,0.135,-1.185
2021-08-19 13:47:55.780,0.255,-0.82
2021-08-19 13:47:55.784,0.35,-0.525
2021-08-19 13:47:55.788,0.365,-0.26
2021-08-19 13:47:55.792,0.37,-0.015
2021-08-19 13:47:55.796,0.375,0.235
2021-08-19 13:47:55.800,0.39,0.435
2021-08-19 13:47:55.804,0.4,0.6
2021-08-19 13:47:55.808,0.435,0.7
2021-08-19 13:47:55.812,0.505,0.77
2021-08-19 13:47:55.816,0.5,0.84
2021-08-19 13:47:55.820,0.53,0.895
2021-08-19 13:47:55.824,0.55,0.93
2021-08-19 13:47:55.828,0.56,0.965
2021-08-19 13:47:55.832,0.555,1.03
2021-08-19 13:47:55.836,0.55,1.065
2021-08-19 13:47:55.840,0.585,1.1
2021-08-19 13:47:55.844,0.57,1.125
2021-08-19 13:47:55.848,0.56,1.14
2021-08-19 13:47:55.852,0.575,1.105
2021-08-19 13:47:55.856,0.565,1.12
2021-08-19 13:47:55.860,0.565,1.055
2021-08-19 13:47:55.864,0.575,1.04
2021-08-19 13:47:55.868,0.58,1.04
2021-08-19 13:47:55.872,0.595,1.045
2021-08-19 13:47:55.876,0.605,1.065
2021-08-19 13:47:55.880,0.61,1.075
2021-08-19 13:47:55.884,0.58,1.095
2021-08-19 13:47:55.888,0.585,1.105
2021-08-19 13:47:55.892,0.575,1.135
2021-08-19 13:47:55.896,0.57,1.12
2021-08-19 13:47:55.900,0.575,1.145
2021-08-19 13:47:55.904,0.565,1.165
2021-08-19 13:47:55.908,0.545,1.15
2021-08-19 13:47:55.912,0.555,1.155
2021-08-19 13:47:55.916,0.565,1.165
2021-08-19 13:47:55.920,0.565,1.175
2021-08-19 13:47:55.924,0.555,1.2
2021-08-19 13:47:55.928,0.55,1.22
2021-08-19 13:47:55.932,0.56,1.26
2021-08-19 13:47:55.936,0.565,1.28
2021-08-19 13:47:55.940,0.545,1.285
2021-08-19 13:47:55.944,0.515,1.3
2021-08-19 13:47:55.948,0.535,1.355
2021-08-19 13:47:55.952,0.545,1.35
2021-08-19 13:47:55.956,0.555,1.335
2021-08-19 13:47:55.960,0.53,1.35
2021-08-19 13:47:55.964,0.51,1.355
2021-08-19 13:47:55.968,0.52,1.335
2021-08-19 13:47:55.972,0.5,1.345
2021-08-19 13:47:55.976,0.51,1.335
2021-08-19 13:47:55.980,0.475,1.325
2021-08-19 13:47:55.984,0.475,1.295
2021-08-19 13:47:55.988,0.445,1.28
2021-08-19 13:47:55.992,0.45,1.25
2021-08-19 13:47:55.996,0.435,1.185
2021-08-19 13:47:56.000,0.44,1.155
2021-08-19 13:47:56.004,0.425,1.12
2021-08-19 13:47:56.008,0.43,1.08
2021-08-19 13:47:56.012,0.415,1.04
2021-08-19 13:47:56.016,0.395,1.015
2021-08-19 13:47:56.020,0.395,0.96
2021-08-19 13:47:56.024,0.355,0.91
2021-08-19 13:47:56.028,0.345,0.89
2021-08-19 13:47:56.032,0.345,0.88
2021-08-19 13:47:56.036,0.335,0.81
2021-08-19 13:47:56.040,0.34,0.78
2021-08-19 13:47:56.044,0.33,0.735
2021-08-19 13:47:56.048,0.31,0.72
2021-08-19 13:47:56.052,0.265,0.66
2021-08-19 13:47:56.056,0.26,0.6
2021-08-19 13:47:56.060,0.235,0.545
2021-08-19 13:47:56.064,0.22,0.495
2021-08-19 13:47:56.068,0.19,0.43
2021-08-19 13:47:56.072,0.18,0.395
2021-08-19 13:47:56.076,0.13,0.365
2021-08-19 13:47:56.080,0.09,0.35
2021-08-19 13:47:56.084,0.075,0.33
2021-08-19 13:47:56.088,0.075,0.305
2021-08-19 13:47:56.092,0.055,0.295
2021-08-19 13:47:56.096,0.025,0.27
2021-08-19 13:47:56.100,0.03,0.25
2021-08-19 13:47:56.104,0.02,0.265
2021-08-19 13:47:56.108,0.025,0.24
2021-08-19 13:47:56.112,0.01,0.27
2021-08-19 13:47:56.116,0.015,0.24
2021-08-19 13:47:56.120,0.015,0.27
2021-08-19 13:47:56.124,0.0,0.275
2021-08-19 13:47:56.128,-0.005,0.275
2021-08-19 13:47:56.132,-0.015,0.25
2021-08-19 13:47:56.136,0.005,0.255
2021-08-19 13:47:56.140,-0.02,0.25
2021-08-19 13:47:56.144,-0.03,0.21
2021-08-19 13:47:56.148,-0.02,0.22
2021-08-19 13:47:56.152,-0.045,0.22
2021-08-19 13:47:56.156,-0.04,0.2
2021-08-19 13:47:56.160,-0.035,0.21
2021-08-19 13:47:56.164,-0.03,0.22
2021-08-19 13:47:56.168,-0.005,0.2
2021-08-19 13:47:56.172,0.015,0.22
2021-08-19 13:47:56.176,0.025,0.215
2021-08-19 13:47:56.180,0.045,0.21
2021-08-19 13:47:56.184,0.03,0.245
2021-08-19 13:47:56.188,0.035,0.25
2021-08-19 13:47:56.192,0.02,0.255
2021-08-19 13:47:56.196,0.05,0.255
2021-08-19 13:47:56.200,0.035,0.245
2021-08-19 13:47:56.204,0.055,0.26
2021-08-19 13:47:56.208,0.055,0.25
2021-08-19 13:47:56.212,0.07,0.26
2021-08-19 13:47:56.216,0.065,0.27
2021-08-19 13:47:56.220,0.04,0.29
2021-08-19 13:47:56.224,0.02,0.27
2021-08-19 13:47:56.228,-0.01,0.265
2021-08-19 13:47:56.232,-0.01,0.26
2021-08-19 13:47:56.236,-0.02,0.28
2021-08-19 13:47:56.240,-0.035,0.26
2021-08-19 13:47:56.244,-0.035,0.24
2021-08-19 13:47:56.248,-0.035,0.205
2021-08-19 13:47:56.252,-0.025,0.205
2021-08-19 13:47:56.256,-0.035,0.15
2021-08-19 13:47:56.260,-0.05,0.135
2021-08-19 13:47:56.264,-0.025,0.12
2021-08-19 13:47:56.268,-0.025,0.105
2021-08-19 13:47:56.272,-0.015,0.125
2021-08-19 13:47:56.276,0.02,0.105
2021-08-19 13:47:56.280,0.125,0.11
2021-08-19 13:47:56.284,0.22,0.125
2021-08-19 13:47:56.288,0.165,0.18
2021-08-19 13:47:56.292,0.025,0.23
2021-08-19 13:47:56.296,-0.16,0.325
2021-08-19 13:47:56.300,-0.48,0.23
2021-08-19 13:47:56.304,-0.925,-0.2
2021-08-19 13:47:56.308,-1.345,-0.76
2021-08-19 13:47:56.312,-1.705,-1.445
2021-08-19 13:47:56.400,-0.29,-1.58
2021-08-19 13:47:56.404,-0.16,-1.135
2021-08-19 13:47:56.408,-0.055,-0.75
2021-08-19 13:47:56.412,0.05,-0.425
2021-08-19 13:47:56.416,0.165,-0.17
2021-08-19 13:47:56.420,0.185,0.045
2021-08-19 13:47:56.424,0.23,0.23
2021-08-19 13:47:56.428,0.25,0.45
2021-08-19 13:47:56.432,0.29,0.63
2021-08-19 13:47:56.436,0.3,0.76
2021-08-19 13:47:56.440,0.33,0.895
2021-08-19 13:47:56.444,0.34,0.975
2021-08-19 13:47:56.448,0.34,1.025
2021-08-19 13:47:56.452,0.37,1.065
2021-08-19 13:47:56.456,0.38,1.06
2021-08-19 13:47:56.460,0.39,1.065
2021-08-19 13:47:56.464,0.38,1.07
2021-08-19 13:47:56.468,0.405,1.055
2021-08-19 13:47:56.472,0.39,1.06
2021-08-19 13:47:56.476,0.395,1.085
2021-08-19 13:47:56.480,0.395,1.09
2021-08-19 13:47:56.484,0.405,1.12
2021-08-19 13:47:56.488,0.42,1.125
2021-08-19 13:47:56.492,0.425,1.15
2021-08-19 13:47:56.496,0.45,1.165
2021-08-19 13:47:56.500,0.46,1.2
2021-08-19 13:47:56.504,0.46,1.22
2021-08-19 13:47:56.508,0.465,1.21
2021-08-19 13:47:56.512,0.485,1.225
2021-08-19 13:47:56.516,0.495,1.255
2021-08-19 13:47:56.520,0.51,1.3
2021-08-19 13:47:56.524,0.505,1.31
2021-08-19 13:47:56.528,0.535,1.34
2021-08-19 13:47:56.532,0.58,1.385
2021-08-19 13:47:56.536,0.63,1.405
2021-08-19 13:47:56.540,0.63,1.45
2021-08-19 13:47:56.544,0.64,1.495
2021-08-19 13:47:56.548,0.665,1.555
2021-08-19 13:47:56.552,0.685,1.605
2021-08-19 13:47:56.556,0.68,1.64
2021-08-19 13:47:56.560,0.7,1.65
2021-08-19 13:47:56.564,0.72,1.69
2021-08-19 13:47:56.568,0.73,1.705
2021-08-19 13:47:56.572,0.725,1.74
2021-08-19 13:47:56.576,0.73,1.785
2021-08-19 13:47:56.580,0.725,1.815
2021-08-19 13:47:56.584,0.74,1.81
2021-08-19 13:47:56.588,0.685,1.825
2021-08-19 13:47:56.592,0.69,1.81
2021-08-19 13:47:56.596,0.68,1.835
2021-08-19 13:47:56.600,0.67,1.83
2021-08-19 13:47:56.604,0.63,1.84
2021-08-19 13:47:56.608,0.6,1.81
2021-08-19 13:47:56.612,0.56,1.76
2021-08-19 13:47:56.616,0.515,1.75
2021-08-19 13:47:56.620,0.48,1.715
2021-08-19 13:47:56.624,0.42,1.66
2021-08-19 13:47:56.628,0.395,1.635
2021-08-19 13:47:56.632,0.37,1.59
2021-08-19 13:47:56.636,0.355,1.52
2021-08-19 13:47:56.640,0.32,1.46
2021-08-19 13:47:56.644,0.285,1.395
2021-08-19 13:47:56.648,0.25,1.305
2021-08-19 13:47:56.652,0.21,1.205
2021-08-19 13:47:56.656,0.18,1.135
2021-08-19 13:47:56.660,0.125,1.035
2021-08-19 13:47:56.664,0.085,0.98
2021-08-19 13:47:56.668,0.055,0.87
2021-08-19 13:47:56.672,0.03,0.78
2021-08-19 13:47:56.676,-0.005,0.705
2021-08-19 13:47:56.680,-0.04,0.65
2021-08-19 13:47:56.684,-0.04,0.6
2021-08-19 13:47:56.688,-0.07,0.54
2021-08-19 13:47:56.692,-0.085,0.49
2021-08-19 13:47:56.696,-0.105,0.45
2021-08-19 13:47:56.700,-0.125,0.405
2021-08-19 13:47:56.704,-0.155,0.375
2021-08-19 13:47:56.708,-0.14,0.36
2021-08-19 13:47:56.712,-0.12,0.335
2021-08-19 13:47:56.716,-0.1,0.315
2021-08-19 13:47:56.720,-0.115,0.31
2021-08-19 13:47:56.724,-0.115,0.3
2021-08-19 13:47:56.728,-0.105,0.35
2021-08-19 13:47:56.732,-0.1,0.36
2021-08-19 13:47:56.736,-0.11,0.38
2021-08-19 13:47:56.740,-0.13,0.365
2021-08-19 13:47:56.744,-0.115,0.375
2021-08-19 13:47:56.748,-0.125,0.38
2021-08-19 13:47:56.752,-0.12,0.395
2021-08-19 13:47:56.756,-0.125,0.39
2021-08-19 13:47:56.760,-0.125,0.41
2021-08-19 13:47:56.764,-0.125,0.42
2021-08-19 13:47:56.768,-0.145,0.445
2021-08-19 13:47:56.772,-0.14,0.43
2021-08-19 13:47:56.776,-0.185,0.42
2021-08-19 13:47:56.780,-0.185,0.43
2021-08-19 13:47:56.784,-0.195,0.4
2021-08-19 13:47:56.788,-0.225,0.405
2021-08-19 13:47:56.792,-0.215,0.38
2021-08-19 13:47:56.796,-0.235,0.365
2021-08-19 13:47:56.800,-0.25,0.38
2021-08-19 13:47:56.804,-0.25,0.35
2021-08-19 13:47:56.808,-0.23,0.35
2021-08-19 13:47:56.812,-0.19,0.355
2021-08-19 13:47:56.816,-0.095,0.355
2021-08-19 13:47:56.820,0.09,0.34
2021-08-19 13:47:56.824,0.22,0.365
2021-08-19 13:47:56.828,0.2,0.405
2021-08-19 13:47:56.832,0.02,0.47
2021-08-19 13:47:56.836,-0.235,0.565
2021-08-19 13:47:56.840,-0.685,0.45
2021-08-19 13:47:56.844,-1.2,0.065
2021-08-19 13:47:56.848,-1.65,-0.46
2021-08-19 13:47:56.852,-1.965,-1.14
2021-08-19 13:47:56.936,-0.72,-1.99
2021-08-19 13:47:56.940,-0.5,-1.51
2021-08-19 13:47:56.944,-0.3,-1.085
2021-08-19 13:47:56.948,-0.15,-0.705
2021-08-19 13:47:56.952,-0.08,-0.405
2021-08-19 13:47:56.956,-0.08,-0.105
2021-08-19 13:47:56.960,-0.025,0.18
2021-08-19 13:47:56.964,-0.03,0.42
2021-08-19 13:47:56.968,-0.02,0.595
2021-08-19 13:47:56.972,-0.025,0.74
2021-08-19 13:47:56.976,-0.015,0.855
2021-08-19 13:47:56.980,-0.005,0.93
2021-08-19 13:47:56.984,0.0,0.97
2021-08-19 13:47:56.988,0.035,0.975
2021-08-19 13:47:56.992,0.025,0.995
2021-08-19 13:47:56.996,0.01,1.005
2021-08-19 13:47:57.000,0.015,1.04
2021-08-19 13:47:57.004,0.04,1.065
2021-08-19 13:47:57.008,0.045,1.095
2021-08-19 13:47:57.012,0.04,1.095
2021-08-19 13:47:57.016,0.07,1.11
2021-08-19 13:47:57.020,0.085,1.115
2021-08-19 13:47:57.024,0.075,1.15
2021-08-19 13:47:57.028,0.1,1.175
2021-08-19 13:47:57.032,0.13,1.2
2021-08-19 13:47:57.036,0.155,1.215
2021-08-19 13:47:57.040,0.155,1.245
2021-08-19 13:47:57.044,0.195,1.265
2021-08-19 13:47:57.048,0.225,1.275
2021-08-19 13:47:57.052,0.24,1.28
2021-08-19 13:47:57.056,0.235,1.295
2021-08-19 13:47:57.060,0.235,1.295
2021-08-19 13:47:57.064,0.26,1.325
2021-08-19 13:47:57.068,0.275,1.365
2021-08-19 13:47:57.072,0.295,1.4
2021-08-19 13:47:57.076,0.31,1.38
2021-08-19 13:47:57.080,0.32,1.39
2021-08-19 13:47:57.084,0.33,1.44
2021-08-19 13:47:57.088,0.33,1.455
2021-08-19 13:47:57.092,0.335,1.505
2021-08-19 13:47:57.096,0.355,1.515
2021-08-19 13:47:57.100,0.36,1.55
2021-08-19 13:47:57.104,0.355,1.56
2021-08-19 13:47:57.108,0.38,1.59
2021-08-19 13:47:57.112,0.38,1.595
2021-08-19 13:47:57.116,0.35,1.61
2021-08-19 13:47:57.120,0.34,1.595
2021-08-19 13:47:57.124,0.335,1.6
2021-08-19 13:47:57.128,0.315,1.595
2021-08-19 13:47:57.132,0.285,1.565
2021-08-19 13:47:57.136,0.26,1.56
2021-08-19 13:47:57.140,0.215,1.525
2021-08-19 13:47:57.144,0.175,1.505
2021-08-19 13:47:57.148,0.14,1.44
2021-08-19 13:47:57.152,0.075,1.4
2021-08-19 13:47:57.156,0.045,1.355
2021-08-19 13:47:57.160,0.02,1.27
2021-08-19 13:47:57.164,-0.035,1.2
2021-08-19 13:47:57.168,-0.055,1.13
2021-08-19 13:47:57.172,-0.075,1.055
2021-08-19 13:47:57.176,-0.1,0.985
2021-08-19 13:47:57.180,-0.135,0.91
2021-08-19 13:47:57.184,-0.145,0.845
2021-08-19 13:47:57.188,-0.155,0.79
2021-08-19 13:47:57.192,-0.18,0.72
2021-08-19 13:47:57.196,-0.195,0.675
2021-08-19 13:47:57.200,-0.225,0.62
2021-08-19 13:47:57.204,-0.26,0.58
2021-08-19 13:47:57.208,-0.285,0.54
2021-08-19 13:47:57.212,-0.28,0.515
2021-08-19 13:47:57.216,-0.3,0.505
2021-08-19 13:47:57.220,-0.31,0.445
2021-08-19 13:47:57.224,-0.32,0.435
2021-08-19 13:47:57.228,-0.32,0.39
2021-08-19 13:47:57.232,-0.33,0.385
2021-08-19 13:47:57.236,-0.345,0.36
2021-08-19 13:47:57.240,-0.36,0.345
2021-08-19 13:47:57.244,-0.31,0.325
2021-08-19 13:47:57.248,-0.32,0.32
2021-08-19 13:47:57.252,-0.3,0.35
2021-08-19 13:47:57.256,-0.295,0.355
2021-08-19 13:47:57.260,-0.225,0.39
2021-08-19 13:47:57.264,-0.2,0.42
2021-08-19 13:47:57.268,-0.19,0.415
2021-08-19 13:47:57.272,-0.19,0.44
2021-08-19 13:47:57.276,-0.18,0.445
2021-08-19 13:47:57.280,-0.185,0.43
2021-08-19 13:47:57.284,-0.195,0.41
2021-08-19 13:47:57.288,-0.185,0.36
2021-08-19 13:47:57.292,-0.195,0.355
2021-08-19 13:47:57.296,-0.23,0.345
2021-08-19 13:47:57.300,-0.24,0.33
2021-08-19 13:47:57.304,-0.22,0.27
2021-08-19 13:47:57.308,-0.205,0.285
2021-08-19 13:47:57.312,-0.265,0.255
2021-08-19 13:47:57.316,-0.27,0.265
2021-08-19 13:47:57.320,-0.315,0.255
2021-08-19 13:47:57.324,-0.32,0.255
2021-08-19 13:47:57.328,-0.35,0.215
2021-08-19 13:47:57.332,-0.36,0.21
2021-08-19 13:47:57.336,-0.375,0.18
2021-08-19 13:47:57.340,-0.4,0.165
2021-08-19 13:47:57.344,-0.395,0.17
2021-08-19 13:47:57.348,-0.43,0.18
2021-08-19 13:47:57.352,-0.405,0.16
2021-08-19 13:47:57.356,-0.455,0.15
2021-08-19 13:47:57.360,-0.485,0.135
2021-08-19 13:47:57.364,-0.52,0.155
2021-08-19 13:47:57.368,-0.535,0.15
2021-08-19 13:47:57.372,-0.53,0.145
2021-08-19 13:47:57.376,-0.505,0.135
2021-08-19 13:47:57.380,-0.52,0.115
2021-08-19 13:47:57.384,-0.54,0.115
2021-08-19 13:47:57.388,-0.52,0.115
2021-08-19 13:47:57.392,-0.53,0.115
2021-08-19 13:47:57.396,-0.54,0.125
2021-08-19 13:47:57.400,-0.535,0.13
2021-08-19 13:47:57.404,-0.525,0.155
2021-08-19 13:47:57.408,-0.54,0.14
2021-08-19 13:47:57.412,-0.515,0.12
2021-08-19 13:47:57.416,-0.505,0.115
2021-08-19 13:47:57.420,-0.51,0.125
2021-08-19 13:47:57.424,-0.515,0.095
2021-08-19 13:47:57.428,-0.48,0.145
2021-08-19 13:47:57.432,-0.46,0.13
2021-08-19 13:47:57.436,-0.455,0.155
2021-08-19 13:47:57.440,-0.465,0.165
2021-08-19 13:47:57.444,-0.45,0.19
2021-08-19 13:47:57.448,-0.465,0.22
2021-08-19 13:47:57.452,-0.44,0.245
2021-08-19 13:47:57.456,-0.44,0.235
2021-08-19 13:47:57.460,-0.415,0.24
2021-08-19 13:47:57.464,-0.395,0.215
2021-08-19 13:47:57.468,-0.365,0.205
2021-08-19 13:47:57.472,-0.35,0.18
2021-08-19 13:47:57.476,-0.34,0.15
2021-08-19 13:47:57.480,-0.34,0.155
2021-08-19 13:47:57.484,-0.315,0.13
2021-08-19 13:47:57.488,-0.295,0.155
2021-08-19 13:47:57.492,-0.29,0.155
2021-08-19 13:47:57.496,-0.275,0.185
2021-08-19 13:47:57.500,-0.215,0.16
2021-08-19 13:47:57.504,-0.135,0.15
2021-08-19 13:47:57.508,-0.015,0.15
2021-08-19 13:47:57.512,0.065,0.19
2021-08-19 13:47:57.516,-0.005,0.265
2021-08-19 13:47:57.520,-0.15,0.375
2021-08-19 13:47:57.524,-0.43,0.375
2021-08-19 13:47:57.528,-0.82,0.065
2021-08-19 13:47:57.532,-1.275,-0.55
2021-08-19 13:47:57.536,-1.68,-1.28
2021-08-19 13:47:57.624,-0.775,-1.735
2021-08-19 13:47:57.628,-0.59,-1.245
2021-08-19 13:47:57.632,-0.405,-0.825
2021-08-19 13:47:57.636,-0.25,-0.445
2021-08-19 13:47:57.640,-0.135,-0.155
2021-08-19 13:47:57.644,-0.065,0.09
2021-08-19 13:47:57.648,-0.035,0.315
2021-08-19 13:47:57.652,-0.015,0.54
2021-08-19 13:47:57.656,0.0,0.715
2021-08-19 13:47:57.660,0.025,0.825
2021-08-19 13:47:57.664,0.05,0.92
2021-08-19 13:47:57.668,0.085,0.97
2021-08-19 13:47:57.672,0.115,0.995
2021-08-19 13:47:57.676,0.15,1.005
2021-08-19 13:47:57.680,0.15,1.04
2021-08-19 13:47:57.684,0.16,1.055
2021-08-19 13:47:57.688,0.17,1.07
2021-08-19 13:47:57.692,0.2,1.11
2021-08-19 13:47:57.696,0.2,1.115
2021-08-19 13:47:57.700,0.215,1.145
2021-08-19 13:47:57.704,0.23,1.14
2021-08-19 13:47:57.708,0.25,1.17
2021-08-19 13:47:57.712,0.255,1.2
2021-08-19 13:47:57.716,0.235,1.225
2021-08-19 13:47:57.720,0.245,1.2
2021-08-19 13:47:57.724,0.23,1.26
2021-08-19 13:47:57.728,0.22,1.295
2021-08-19 13:47:57.732,0.22,1.325
2021-08-19 13:47:57.736,0.235,1.32
2021-08-19 13:47:57.740,0.235,1.355
2021-08-19 13:47:57.744,0.26,1.395
2021-08-19 13:47:57.748,0.275,1.42
2021-08-19 13:47:57.752,0.29,1.435
2021-08-19 13:47:57.756,0.34,1.47
2021-08-19 13:47:57.760,0.365,1.51
2021-08-19 13:47:57.764,0.36,1.555
2021-08-19 13:47:57.768,0.365,1.59
2021-08-19 13:47:57.772,0.395,1.64
2021-08-19 13:47:57.776,0.405,1.68
2021-08-19 13:47:57.780,0.4,1.725
2021-08-19 13:47:57.784,0.425,1.74
2021-08-19 13:47:57.788,0.475,1.77
2021-08-19 13:47:57.792,0.515,1.805
2021-08-19 13:47:57.796,0.525,1.815
2021-08-19 13:47:57.800,0.55,1.845
2021-08-19 13:47:57.804,0.545,1.855
2021-08-19 13:47:57.808,0.535,1.905
2021-08-19 13:47:57.812,0.48,1.935
2021-08-19 13:47:57.816,0.46,1.935
2021-08-19 13:47:57.820,0.435,1.955
2021-08-19 13:47:57.824,0.38,1.945
2021-08-19 13:47:57.828,0.36,1.895
2021-08-19 13:47:57.832,0.34,1.85
2021-08-19 13:47:57.836,0.335,1.8
2021-08-19 13:47:57.840,0.305,1.75
2021-08-19 13:47:57.844,0.27,1.68
2021-08-19 13:47:57.848,0.23,1.62
2021-08-19 13:47:57.852,0.205,1.56
2021-08-19 13:47:57.856,0.16,1.46
2021-08-19 13:47:57.860,0.125,1.38
2021-08-19 13:47:57.864,0.08,1.305
2021-08-19 13:47:57.868,0.055,1.205
2021-08-19 13:47:57.872,-0.005,1.105
2021-08-19 13:47:57.876,-0.04,1.02
2021-08-19 13:47:57.880,-0.07,0.935
2021-08-19 13:47:57.884,-0.08,0.895
2021-08-19 13:47:57.888,-0.1,0.81
2021-08-19 13:47:57.892,-0.145,0.745
2021-08-19 13:47:57.896,-0.16,0.69
2021-08-19 13:47:57.900,-0.22,0.635
2021-08-19 13:47:57.904,-0.265,0.595
2021-08-19 13:47:57.908,-0.305,0.56
2021-08-19 13:47:57.912,-0.365,0.5
2021-08-19 13:47:57.916,-0.38,0.48
2021-08-19 13:47:57.920,-0.445,0.44
2021-08-19 13:47:57.924,-0.455,0.405
2021-08-19 13:47:57.928,-0.48,0.39
2021-08-19 13:47:57.932,-0.48,0.33
2021-08-19 13:47:57.936,-0.49,0.315
2021-08-19 13:47:57.940,-0.455,0.32
2021-08-19 13:47:57.944,-0.45,0.315
2021-08-19 13:47:57.948,-0.39,0.33
2021-08-19 13:47:57.952,-0.24,0.305
2021-08-19 13:47:57.956,-0.08,0.315
2021-08-19 13:47:57.960,-0.03,0.355
2021-08-19 13:47:57.964,-0.15,0.455
2021-08-19 13:47:57.968,-0.52,0.52
2021-08-19 13:47:57.972,-1.115,0.405
2021-08-19 13:47:57.976,-1.745,0.085
2021-08-19 13:47:58.064,-0.695,-1.84
2021-08-19 13:47:58.068,-0.51,-1.365
2021-08-19 13:47:58.072,-0.295,-0.955
2021-08-19 13:47:58.076,-0.17,-0.635
2021-08-19 13:47:58.080,-0.12,-0.335
2021-08-19 13:47:58.084,-0.08,-0.035
2021-08-19 13:47:58.088,-0.07,0.22
2021-08-19 13:47:58.092,-0.055,0.47
2021-08-19 13:47:58.096,-0.06,0.635
2021-08-19 13:47:58.100,-0.075,0.79
2021-08-19 13:47:58.104,-0.055,0.845
2021-08-19 13:47:58.108,-0.07,0.88
2021-08-19 13:47:58.112,-0.085,0.92
2021-08-19 13:47:58.116,-0.08,0.945
2021-08-19 13:47:58.120,-0.075,0.97
2021-08-19 13:47:58.124,-0.07,0.99
2021-08-19 13:47:58.128,-0.055,0.98
2021-08-19 13:47:58.132,-0.045,1.0
2021-08-19 13:47:58.136,-0.05,1.035
2021-08-19 13:47:58.140,-0.04,1.055
2021-08-19 13:47:58.144,-0.005,1.075
2021-08-19 13:47:58.148,0.025,1.1
2021-08-19 13:47:58.152,0.04,1.1
2021-08-19 13:47:58.156,0.06,1.105
2021-08-19 13:47:58.160,0.07,1.16
2021-08-19 13:47:58.164,0.1,1.17
2021-08-19 13:47:58.168,0.11,1.195
2021-08-19 13:47:58.172,0.095,1.195
2021-08-19 13:47:58.176,0.125,1.235
2021-08-19 13:47:58.180,0.1,1.24
2021-08-19 13:47:58.184,0.1,1.25
2021-08-19 13:47:58.188,0.095,1.305
2021-08-19 13:47:58.192,0.085,1.315
2021-08-19 13:47:58.196,0.085,1.34
2021-08-19 13:47:58.200,0.085,1.355
2021-08-19 13:47:58.204,0.11,1.355
2021-08-19 13:47:58.208,0.125,1.37
2021-08-19 13:47:58.212,0.155,1.41
2021-08-19 13:47:58.216,0.15,1.44
2021-08-19 13:47:58.220,0.145,1.46
2021-08-19 13:47:58.224,0.14,1.44
2021-08-19 13:47:58.228,0.145,1.42
2021-08-19 13:47:58.232,0.11,1.415
2021-08-19 13:47:58.236,0.12,1.445
2021-08-19 13:47:58.240,0.115,1.445
2021-08-19 13:47:58.244,0.115,1.42
2021-08-19 13:47:58.248,0.115,1.435
2021-08-19 13:47:58.252,0.095,1.395
2021-08-19 13:47:58.256,0.075,1.395
2021-08-19 13:47:58.260,0.035,1.36
2021-08-19 13:47:58.264,-0.03,1.365
2021-08-19 13:47:58.268,-0.05,1.335
2021-08-19 13:47:58.272,-0.1,1.31
2021-08-19 13:47:58.276,-0.15,1.26
2021-08-19 13:47:58.280,-0.195,1.2
2021-08-19 13:47:58.284,-0.24,1.155
2021-08-19 13:47:58.288,-0.26,1.055
2021-08-19 13:47:58.292,-0.31,1.025
2021-08-19 13:47:58.296,-0.3,0.955
2021-08-19 13:47:58.300,-0.345,0.885
2021-08-19 13:47:58.304,-0.35,0.83
2021-08-19 13:47:58.308,-0.38,0.77
2021-08-19 13:47:58.312,-0.41,0.705
2021-08-19 13:47:58.316,-0.43,0.66
2021-08-19 13:47:58.320,-0.43,0.615
2021-08-19 13:47:58.324,-0.45,0.565
2021-08-19 13:47:58.328,-0.425,0.52
2021-08-19 13:47:58.332,-0.425,0.495
2021-08-19 13:47:58.336,-0.415,0.465
2021-08-19 13:47:58.340,-0.42,0.42
2021-08-19 13:47:58.344,-0.39,0.42
2021-08-19 13:47:58.348,-0.355,0.39
2021-08-19 13:47:58.352,-0.275,0.375
2021-08-19 13:47:58.356,-0.135,0.38
2021-08-19 13:47:58.360,0.1,0.365
2021-08-19 13:47:58.364,0.26,0.39
2021-08-19 13:47:58.368,0.21,0.47
2021-08-19 13:47:58.372,-0.01,0.585
2021-08-19 13:47:58.376,-0.44,0.645
2021-08-19 13:47:58.380,-1.01,0.43
2021-08-19 13:47:58.384,-1.585,-0.06
2021-08-19 13:47:58.388,-1.995,-0.7
2021-08-19 13:47:58.476,-0.85,-1.785
2021-08-19 13:47:58.480,-0.68,-1.28
2021-08-19 13:47:58.484,-0.49,-0.875
2021-08-19 13:47:58.488,-0.34,-0.56
2021-08-19 13:47:58.492,-0.28,-0.305
2021-08-19 13:47:58.496,-0.24,-0.065
2021-08-19 13:47:58.500,-0.17,0.195
2021-08-19 13:47:58.504,-0.16,0.42
2021-08-19 13:47:58.508,-0.145,0.59
2021-08-19 13:47:58.512,-0.115,0.74
2021-08-19 13:47:58.516,-0.095,0.86
2021-08-19 13:47:58.520,-0.06,0.95
2021-08-19 13:47:58.524,-0.05,0.99
2021-08-19 13:47:58.528,-0.015,1.045
2021-08-19 13:47:58.532,0.0,1.06
2021-08-19 13:47:58.536,0.015,1.095
2021-08-19 13:47:58.540,0.03,1.12
2021-08-19 13:47:58.544,0.03,1.14
2021-08-19 13:47:58.548,0.045,1.17
2021-08-19 13:47:58.552,0.055,1.195
2021-08-19 13:47:58.556,0.07,1.215
2021-08-19 13:47:58.560,0.085,1.24
2021-08-19 13:47:58.564,0.1,1.25
2021-08-19 13:47:58.568,0.105,1.265
2021-08-19 13:47:58.572,0.13,1.285
2021-08-19 13:47:58.576,0.125,1.28
2021-08-19 13:47:58.580,0.145,1.32
2021-08-19 13:47:58.584,0.17,1.365
2021-08-19 13:47:58.588,0.165,1.39
2021-08-19 13:47:58.592,0.185,1.44
2021-08-19 13:47:58.596,0.17,1.47
2021-08-19 13:47:58.600,0.215,1.495
2021-08-19 13:47:58.604,0.22,1.515
2021-08-19 13:47:58.608,0.22,1.52
2021-08-19 13:47:58.612,0.24,1.515
2021-08-19 13:47:58.616,0.245,1.545
2021-08-19 13:47:58.620,0.245,1.545
2021-08-19 13:47:58.624,0.25,1.55
2021-08-19 13:47:58.628,0.28,1.535
2021-08-19 13:47:58.632,0.285,1.575
2021-08-19 13:47:58.636,0.255,1.58
2021-08-19 13:47:58.640,0.27,1.57
2021-08-19 13:47:58.644,0.27,1.595
2021-08-19 13:47:58.648,0.24,1.6
2021-08-19 13:47:58.652,0.26,1.59
2021-08-19 13:47:58.656,0.26,1.595
2021-08-19 13:47:58.660,0.27,1.58
2021-08-19 13:47:58.664,0.235,1.57
2021-08-19 13:47:58.668,0.22,1.555
2021-08-19 13:47:58.672,0.18,1.55
2021-08-19 13:47:58.676,0.125,1.515
2021-08-19 13:47:58.680,0.085,1.51
2021-08-19 13:47:58.684,0.06,1.44
2021-08-19 13:47:58.688,0.015,1.405
2021-08-19 13:47:58.692,0.0,1.35
2021-08-19 13:47:58.696,-0.035,1.295
2021-08-19 13:47:58.700,-0.065,1.225
2021-08-19 13:47:58.704,-0.075,1.18
2021-08-19 13:47:58.708,-0.095,1.11
2021-08-19 13:47:58.712,-0.145,1.01
2021-08-19 13:47:58.716,-0.14,0.95
2021-08-19 13:47:58.720,-0.155,0.9
2021-08-19 13:47:58.724,-0.165,0.865
2021-08-19 13:47:58.728,-0.21,0.84
2021-08-19 13:47:58.732,-0.205,0.775
2021-08-19 13:47:58.736,-0.25,0.76
2021-08-19 13:47:58.740,-0.265,0.725
2021-08-19 13:47:58.744,-0.285,0.685
2021-08-19 13:47:58.748,-0.29,0.635
2021-08-19 13:47:58.752,-0.29,0.605
2021-08-19 13:47:58.756,-0.285,0.57
2021-08-19 13:47:58.760,-0.275,0.575
2021-08-19 13:47:58.764,-0.285,0.56
2021-08-19 13:47:58.768,-0.285,0.55
2021-08-19 13:47:58.772,-0.305,0.53
2021-08-19 13:47:58.776,-0.32,0.53
2021-08-19 13:47:58.780,-0.32,0.545
2021-08-19 13:47:58.784,-0.335,0.555
2021-08-19 13:47:58.788,-0.335,0.555
2021-08-19 13:47:58.792,-0.345,0.515
2021-08-19 13:47:58.796,-0.34,0.475
2021-08-19 13:47:58.800,-0.355,0.455
2021-08-19 13:47:58.804,-0.38,0.44
2021-08-19 13:47:58.808,-0.395,0.395
2021-08-19 13:47:58.812,-0.395,0.375
2021-08-19 13:47:58.816,-0.4,0.365
2021-08-19 13:47:58.820,-0.4,0.345
2021-08-19 13:47:58.824,-0.41,0.285
2021-08-19 13:47:58.828,-0.435,0.27
2021-08-19 13:47:58.832,-0.435,0.26
2021-08-19 13:47:58.836,-0.425,0.26
2021-08-19 13:47:58.840,-0.48,0.27
2021-08-19 13:47:58.844,-0.49,0.27
2021-08-19 13:47:58.848,-0.46,0.245
2021-08-19 13:47:58.852,-0.45,0.275
2021-08-19 13:47:58.856,-0.455,0.28
2021-08-19 13:47:58.860,-0.44,0.265
2021-08-19 13:47:58.864,-0.435,0.285
2021-08-19 13:47:58.868,-0.44,0.29
2021-08-19 13:47:58.872,-0.47,0.295
2021-08-19 13:47:58.876,-0.475,0.29
2021-08-19 13:47:58.880,-0.48,0.295
2021-08-19 13:47:58.884,-0.5,0.26
2021-08-19 13:47:58.888,-0.495,0.26
2021-08-19 13:47:58.892,-0.48,0.255
2021-08-19 13:47:58.896,-0.43,0.26
2021-08-19 13:47:58.900,-0.41,0.25
2021-08-19 13:47:58.904,-0.375,0.255
2021-08-19 13:47:58.908,-0.36,0.23
2021-08-19 13:47:58.912,-0.35,0.27
2021-08-19 13:47:58.916,-0.355,0.3
2021-08-19 13:47:58.920,-0.345,0.335
2021-08-19 13:47:58.924,-0.355,0.38
2021-08-19 13:47:58.928,-0.365,0.35
2021-08-19 13:47:58.932,-0.375,0.345
2021-08-19 13:47:58.936,-0.38,0.335
2021-08-19 13:47:58.940,-0.37,0.355
2021-08-19 13:47:58.944,-0.38,0.375
2021-08-19 13:47:58.948,-0.385,0.365
2021-08-19 13:47:58.952,-0.395,0.38
2021-08-19 13:47:58.956,-0.43,0.35
2021-08-19 13:47:58.960,-0.44,0.335
2021-08-19 13:47:58.964,-0.445,0.335
2021-08-19 13:47:58.968,-0.44,0.33
2021-08-19 13:47:58.972,-0.455,0.31
2021-08-19 13:47:58.976,-0.43,0.295
2021-08-19 13:47:58.980,-0.405,0.275
2021-08-19 13:47:58.984,-0.425,0.26
2021-08-19 13:47:58.988,-0.435,0.22
2021-08-19 13:47:58.992,-0.435,0.24
2021-08-19 13:47:58.996,-0.43,0.22
2021-08-19 13:47:59.000,-0.455,0.205
2021-08-19 13:47:59.004,-0.45,0.165
2021-08-19 13:47:59.008,-0.46,0.145
2021-08-19 13:47:59.012,-0.455,0.15
2021-08-19 13:47:59.016,-0.445,0.135
2021-08-19 13:47:59.020,-0.435,0.13
2021-08-19 13:47:59.024,-0.445,0.145
2021-08-19 13:47:59.028,-0.44,0.13
2021-08-19 13:47:59.032,-0.44,0.145
2021-08-19 13:47:59.036,-0.465,0.155
2021-08-19 13:47:59.040,-0.49,0.195
2021-08-19 13:47:59.044,-0.5,0.19
2021-08-19 13:47:59.048,-0.505,0.18
2021-08-19 13:47:59.052,-0.52,0.2
2021-08-19 13:47:59.056,-0.54,0.16
2021-08-19 13:47:59.060,-0.545,0.145
2021-08-19 13:47:59.064,-0.545,0.145
2021-08-19 13:47:59.068,-0.575,0.13
2021-08-19 13:47:59.072,-0.56,0.105
2021-08-19 13:47:59.076,-0.51,0.11
2021-08-19 13:47:59.080,-0.49,0.095
2021-08-19 13:47:59.084,-0.48,0.095
2021-08-19 13:47:59.088,-0.44,0.125
2021-08-19 13:47:59.092,-0.425,0.14
2021-08-19 13:47:59.096,-0.41,0.18
2021-08-19 13:47:59.100,-0.39,0.185
2021-08-19 13:47:59.104,-0.38,0.22
2021-08-19 13:47:59.108,-0.36,0.24
2021-08-19 13:47:59.112,-0.32,0.25
2021-08-19 13:47:59.116,-0.23,0.215
2021-08-19 13:47:59.120,-0.105,0.225
2021-08-19 13:47:59.124,0.01,0.255
2021-08-19 13:47:59.128,0.0,0.295
2021-08-19 13:47:59.132,-0.16,0.405
2021-08-19 13:47:59.136,-0.39,0.5
2021-08-19 13:47:59.140,-0.77,0.395
2021-08-19 13:47:59.144,-1.23,-0.025
2021-08-19 13:47:59.148,-1.605,-0.585
2021-08-19 13:47:59.152,-1.885,-1.355
2021-08-19 13:47:59.244,-0.8,-1.505
2021-08-19 13:47:59.248,-0.62,-1.095
2021-08-19 13:47:59.252,-0.46,-0.765
2021-08-19 13:47:59.256,-0.375,-0.495
2021-08-19 13:47:59.260,-0.3,-0.22
2021-08-19 13:47:59.264,-0.25,0.0
2021-08-19 13:47:59.268,-0.165,0.24
2021-08-19 13:47:59.272,-0.135,0.415
2021-08-19 13:47:59.276,-0.075,0.605
2021-08-19 13:47:59.280,-0.04,0.765
2021-08-19 13:47:59.284,-0.015,0.905
2021-08-19 13:47:59.288,0.01,0.98
2021-08-19 13:47:59.292,0.015,1.06
2021-08-19 13:47:59.296,0.035,1.075
2021-08-19 13:47:59.300,0.07,1.095
2021-08-19 13:47:59.304,0.075,1.115
2021-08-19 13:47:59.308,0.105,1.165
2021-08-19 13:47:59.312,0.11,1.17
2021-08-19 13:47:59.316,0.17,1.22
2021-08-19 13:47:59.320,0.195,1.245
2021-08-19 13:47:59.324,0.21,1.265
2021-08-19 13:47:59.328,0.21,1.3
2021-08-19 13:47:59.332,0.235,1.335
2021-08-19 13:47:59.336,0.24,1.365
2021-08-19 13:47:59.340,0.275,1.405
2021-08-19 13:47:59.344,0.29,1.43
2021-08-19 13:47:59.348,0.315,1.455
2021-08-19 13:47:59.352,0.345,1.495
2021-08-19 13:47:59.356,0.35,1.49
2021-08-19 13:47:59.360,0.37,1.5
2021-08-19 13:47:59.364,0.36,1.5
2021-08-19 13:47:59.368,0.39,1.5
2021-08-19 13:47:59.372,0.385,1.525
2021-08-19 13:47:59.376,0.41,1.545
2021-08-19 13:47:59.380,0.405,1.54
2021-08-19 13:47:59.384,0.41,1.54
2021-08-19 13:47:59.388,0.425,1.61
2021-08-19 13:47:59.392,0.425,1.635
2021-08-19 13:47:59.396,0.455,1.64
2021-08-19 13:47:59.400,0.465,1.675
2021-08-19 13:47:59.404,0.485,1.7
2021-08-19 13:47:59.408,0.465,1.74
2021-08-19 13:47:59.412,0.465,1.765
2021-08-19 13:47:59.416,0.475,1.775
2021-08-19 13:47:59.420,0.505,1.805
2021-08-19 13:47:59.424,0.475,1.82
2021-08-19 13:47:59.428,0.485,1.84
2021-08-19 13:47:59.432,0.475,1.86
2021-08-19 13:47:59.436,0.47,1.87
2021-08-19 13:47:59.440,0.455,1.865
2021-08-19 13:47:59.444,0.45,1.88
2021-08-19 13:47:59.448,0.41,1.89
2021-08-19 13:47:59.452,0.375,1.865
2021-08-19 13:47:59.456,0.375,1.83
2021-08-19 13:47:59.460,0.385,1.79
2021-08-19 13:47:59.464,0.38,1.795
2021-08-19 13:47:59.468,0.37,1.76
2021-08-19 13:47:59.472,0.345,1.75
2021-08-19 13:47:59.476,0.31,1.705
2021-08-19 13:47:59.480,0.28,1.63
2021-08-19 13:47:59.484,0.235,1.595
2021-08-19 13:47:59.488,0.2,1.545
2021-08-19 13:47:59.492,0.17,1.47
2021-08-19 13:47:59.496,0.12,1.39
2021-08-19 13:47:59.500,0.09,1.35
2021-08-19 13:47:59.504,0.04,1.27
2021-08-19 13:47:59.508,0.015,1.185
2021-08-19 13:47:59.512,-0.015,1.125
2021-08-19 13:47:59.516,-0.035,1.07
2021-08-19 13:47:59.520,-0.085,1.005
2021-08-19 13:47:59.524,-0.105,0.95
2021-08-19 13:47:59.528,-0.15,0.895
2021-08-19 13:47:59.532,-0.2,0.86
2021-08-19 13:47:59.536,-0.23,0.805
2021-08-19 13:47:59.540,-0.26,0.755
2021-08-19 13:47:59.544,-0.27,0.705
2021-08-19 13:47:59.548,-0.265,0.655
2021-08-19 13:47:59.552,-0.28,0.635
2021-08-19 13:47:59.556,-0.275,0.605
2021-08-19 13:47:59.560,-0.26,0.58
2021-08-19 13:47:59.564,-0.245,0.57
2021-08-19 13:47:59.568,-0.28,0.52
2021-08-19 13:47:59.572,-0.275,0.485
2021-08-19 13:47:59.576,-0.29,0.45
2021-08-19 13:47:59.580,-0.29,0.44
2021-08-19 13:47:59.584,-0.32,0.405
2021-08-19 13:47:59.588,-0.36,0.385
2021-08-19 13:47:59.592,-0.37,0.365
2021-08-19 13:47:59.596,-0.375,0.355
2021-08-19 13:47:59.600,-0.385,0.37
2021-08-19 13:47:59.604,-0.37,0.34
2021-08-19 13:47:59.608,-0.37,0.33
2021-08-19 13:47:59.612,-0.38,0.32
2021-08-19 13:47:59.616,-0.385,0.32
2021-08-19 13:47:59.620,-0.415,0.32
2021-08-19 13:47:59.624,-0.43,0.315
2021-08-19 13:47:59.628,-0.465,0.325
2021-08-19 13:47:59.632,-0.495,0.335
2021-08-19 13:47:59.636,-0.495,0.34
2021-08-19 13:47:59.640,-0.465,0.31
2021-08-19 13:47:59.644,-0.42,0.3
2021-08-19 13:47:59.648,-0.41,0.31
2021-08-19 13:47:59.652,-0.39,0.32
2021-08-19 13:47:59.656,-0.375,0.335
2021-08-19 13:47:59.660,-0.375,0.375
2021-08-19 13:47:59.664,-0.365,0.4
2021-08-19 13:47:59.668,-0.375,0.42
2021-08-19 13:47:59.672,-0.385,0.445
2021-08-19 13:47:59.676,-0.385,0.445
2021-08-19 13:47:59.680,-0.355,0.435
2021-08-19 13:47:59.684,-0.345,0.445
2021-08-19 13:47:59.688,-0.36,0.475
2021-08-19 13:47:59.692,-0.36,0.445
2021-08-19 13:47:59.696,-0.365,0.445
2021-08-19 13:47:59.700,-0.355,0.435
2021-08-19 13:47:59.704,-0.355,0.445
2021-08-19 13:47:59.708,-0.35,0.43
2021-08-19 13:47:59.712,-0.335,0.445
2021-08-19 13:47:59.716,-0.38,0.425
2021-08-19 13:47:59.720,-0.415,0.425
2021-08-19 13:47:59.724,-0.44,0.435
2021-08-19 13:47:59.728,-0.46,0.455
2021-08-19 13:47:59.732,-0.49,0.435
2021-08-19 13:47:59.736,-0.51,0.405
2021-08-19 13:47:59.740,-0.505,0.41
2021-08-19 13:47:59.744,-0.505,0.365
2021-08-19 13:47:59.748,-0.5,0.35
2021-08-19 13:47:59.752,-0.48,0.31
2021-08-19 13:47:59.756,-0.465,0.32
2021-08-19 13:47:59.760,-0.47,0.295
2021-08-19 13:47:59.764,-0.475,0.275
2021-08-19 13:47:59.768,-0.5,0.275
2021-08-19 13:47:59.772,-0.445,0.28
2021-08-19 13:47:59.776,-0.32,0.26
2021-08-19 13:47:59.780,-0.13,0.23
2021-08-19 13:47:59.784,-0.015,0.24
2021-08-19 13:47:59.788,-0.065,0.27
2021-08-19 13:47:59.792,-0.225,0.325
2021-08-19 13:47:59.796,-0.48,0.4
2021-08-19 13:47:59.800,-0.915,0.265
2021-08-19 13:47:59.804,-1.43,-0.145
2021-08-19 13:47:59.808,-1.92,-0.73
2021-08-19 13:47:59.900,-0.665,-1.825
2021-08-19 13:47:59.904,-0.505,-1.335
2021-08-19 13:47:59.908,-0.345,-0.905
2021-08-19 13:47:59.912,-0.2,-0.55
2021-08-19 13:47:59.916,-0.145,-0.24
2021-08-19 13:47:59.920,-0.11,0.035
2021-08-19 13:47:59.924,-0.095,0.29
2021-08-19 13:47:59.928,-0.065,0.5
2021-08-19 13:47:59.932,-0.04,0.675
2021-08-19 13:47:59.936,-0.015,0.795
2021-08-19 13:47:59.940,-0.005,0.92
2021-08-19 13:47:59.944,0.015,1.0
2021-08-19 13:47:59.948,0.03,1.03
2021-08-19 13:47:59.952,0.02,1.09
2021-08-19 13:47:59.956,0.02,1.085
2021-08-19 13:47:59.960,0.06,1.085
2021-08-19 13:47:59.964,0.055,1.1
2021-08-19 13:47:59.968,0.095,1.11
2021-08-19 13:47:59.972,0.095,1.08
2021-08-19 13:47:59.976,0.115,1.075
2021-08-19 13:47:59.980,0.14,1.045
2021-08-19 13:47:59.984,0.17,1.07
2021-08-19 13:47:59.988,0.18,1.11
2021-08-19 13:47:59.992,0.17,1.13
2021-08-19 13:47:59.996,0.18,1.135
2021-08-19 13:48:00.000,0.185,1.15
2021-08-19 13:48:00.004,0.235,1.18
2021-08-19 13:48:00.008,0.27,1.18
2021-08-19 13:48:00.012,0.305,1.2
2021-08-19 13:48:00.016,0.31,1.22
2021-08-19 13:48:00.020,0.305,1.23
2021-08-19 13:48:00.024,0.315,1.33
2021-08-19 13:48:00.028,0.36,1.325
2021-08-19 13:48:00.032,0.345,1.33
2021-08-19 13:48:00.036,0.33,1.36
2021-08-19 13:48:00.040,0.35,1.405
2021-08-19 13:48:00.044,0.37,1.445
2021-08-19 13:48:00.048,0.395,1.485
2021-08-19 13:48:00.052,0.4,1.485
2021-08-19 13:48:00.056,0.385,1.51
2021-08-19 13:48:00.060,0.39,1.545
2021-08-19 13:48:00.064,0.38,1.575
2021-08-19 13:48:00.068,0.385,1.6
2021-08-19 13:48:00.072,0.37,1.6
2021-08-19 13:48:00.076,0.375,1.635
2021-08-19 13:48:00.080,0.42,1.64
2021-08-19 13:48:00.084,0.445,1.64
2021-08-19 13:48:00.088,0.385,1.69
2021-08-19 13:48:00.092,0.345,1.7
2021-08-19 13:48:00.096,0.305,1.69
2021-08-19 13:48:00.100,0.3,1.685
2021-08-19 13:48:00.104,0.26,1.67
2021-08-19 13:48:00.108,0.215,1.66
2021-08-19 13:48:00.112,0.2,1.625
2021-08-19 13:48:00.116,0.2,1.585
2021-08-19 13:48:00.120,0.195,1.545
2021-08-19 13:48:00.124,0.145,1.51
2021-08-19 13:48:00.128,0.105,1.45
2021-08-19 13:48:00.132,0.105,1.385
2021-08-19 13:48:00.136,0.05,1.39
2021-08-19 13:48:00.140,0.02,1.335
2021-08-19 13:48:00.144,0.005,1.25
2021-08-19 13:48:00.148,-0.04,1.18
2021-08-19 13:48:00.152,-0.085,1.08
2021-08-19 13:48:00.156,-0.09,0.995
2021-08-19 13:48:00.160,-0.105,0.89
2021-08-19 13:48:00.164,-0.135,0.79
2021-08-19 13:48:00.168,-0.15,0.72
2021-08-19 13:48:00.172,-0.155,0.635
2021-08-19 13:48:00.176,-0.15,0.61
2021-08-19 13:48:00.180,-0.14,0.595
2021-08-19 13:48:00.184,-0.13,0.545
2021-08-19 13:48:00.188,-0.1,0.5
2021-08-19 13:48:00.192,-0.1,0.44
2021-08-19 13:48:00.196,-0.11,0.43
2021-08-19 13:48:00.200,-0.095,0.45
2021-08-19 13:48:00.204,-0.09,0.44
2021-08-19 13:48:00.208,-0.095,0.44
2021-08-19 13:48:00.212,-0.11,0.43
2021-08-19 13:48:00.216,-0.125,0.375
2021-08-19 13:48:00.220,-0.125,0.37
2021-08-19 13:48:00.224,-0.1,0.355
2021-08-19 13:48:00.228,-0.11,0.35
2021-08-19 13:48:00.232,-0.11,0.365
2021-08-19 13:48:00.236,-0.1,0.405
2021-08-19 13:48:00.240,-0.105,0.41
2021-08-19 13:48:00.244,-0.115,0.4
2021-08-19 13:48:00.248,-0.15,0.4
2021-08-19 13:48:00.252,-0.175,0.395
2021-08-19 13:48:00.256,-0.155,0.365
2021-08-19 13:48:00.260,-0.18,0.365
2021-08-19 13:48:00.264,-0.16,0.34
2021-08-19 13:48:00.268,-0.165,0.35
2021-08-19 13:48:00.272,-0.18,0.37
2021-08-19 13:48:00.276,-0.18,0.375
2021-08-19 13:48:00.280,-0.175,0.355
2021-08-19 13:48:00.284,-0.19,0.35
2021-08-19 13:48:00.288,-0.215,0.345
2021-08-19 13:48:00.292,-0.2,0.335
2021-08-19 13:48:00.296,-0.215,0.325
2021-08-19 13:48:00.300,-0.24,0.32
2021-08-19 13:48:00.304,-0.22,0.325
2021-08-19 13:48:00.308,-0.19,0.34
2021-08-19 13:48:00.312,-0.14,0.36
2021-08-19 13:48:00.316,-0.12,0.355
2021-08-19 13:48:00.320,-0.14,0.33
2021-08-19 13:48:00.324,-0.155,0.33
2021-08-19 13:48:00.328,-0.185,0.345
2021-08-19 13:48:00.332,-0.2,0.34
2021-08-19 13:48:00.336,-0.19,0.315
2021-08-19 13:48:00.340,-0.175,0.26
2021-08-19 13:48:00.344,-0.17,0.25
2021-08-19 13:48:00.348,-0.18,0.205
2021-08-19 13:48:00.352,-0.17,0.225
2021-08-19 13:48:00.356,-0.135,0.215
2021-08-19 13:48:00.360,-0.13,0.19
2021-08-19 13:48:00.364,-0.155,0.19
2021-08-19 13:48:00.368,-0.155,0.19
2021-08-19 13:48:00.372,-0.14,0.215
2021-08-19 13:48:00.376,-0.105,0.205
2021-08-19 13:48:00.380,-0.055,0.165
2021-08-19 13:48:00.384,-0.06,0.215
2021-08-19 13:48:00.388,-0.03,0.27
2021-08-19 13:48:00.392,-0.05,0.28
2021-08-19 13:48:00.396,-0.055,0.27
2021-08-19 13:48:00.400,-0.065,0.275
2021-08-19 13:48:00.404,-0.05,0.28
2021-08-19 13:48:00.408,-0.04,0.275
2021-08-19 13:48:00.412,-0.005,0.27
2021-08-19 13:48:00.416,0.055,0.26
2021-08-19 13:48:00.420,0.2,0.28
2021-08-19 13:48:00.424,0.32,0.315
2021-08-19 13:48:00.428,0.305,0.355
2021-08-19 13:48:00.432,0.145,0.445
2021-08-19 13:48:00.436,-0.04,0.53
2021-08-19 13:48:00.440,-0.38,0.405
2021-08-19 13:48:00.444,-0.81,-0.015
2021-08-19 13:48:00.448,-1.15,-0.615
2021-08-19 13:48:00.452,-1.375,-1.335
2021-08-19 13:48:00.536,-0.38,-1.745
2021-08-19 13:48:00.540,-0.28,-1.335
2021-08-19 13:48:00.544,-0.18,-0.98
2021-08-19 13:48:00.548,-0.055,-0.655
2021-08-19 13:48:00.552,0.04,-0.405
2021-08-19 13:48:00.556,0.085,-0.18
2021-08-19 13:48:00.560,0.115,0.03
2021-08-19 13:48:00.564,0.14,0.28
2021-08-19 13:48:00.568,0.17,0.465
2021-08-19 13:48:00.572,0.17,0.615
2021-08-19 13:48:00.576,0.175,0.765
2021-08-19 13:48:00.580,0.195,0.865
2021-08-19 13:48:00.584,0.22,0.96
2021-08-19 13:48:00.588,0.255,0.985
2021-08-19 13:48:00.592,0.265,0.99
2021-08-19 13:48:00.596,0.285,0.99
2021-08-19 13:48:00.600,0.3,1.035
2021-08-19 13:48:00.604,0.345,1.06
2021-08-19 13:48:00.608,0.35,1.115
2021-08-19 13:48:00.612,0.38,1.14
2021-08-19 13:48:00.616,0.39,1.15
2021-08-19 13:48:00.620,0.415,1.17
2021-08-19 13:48:00.624,0.43,1.185
2021-08-19 13:48:00.628,0.43,1.22
2021-08-19 13:48:00.632,0.45,1.23
2021-08-19 13:48:00.636,0.495,1.255
2021-08-19 13:48:00.640,0.505,1.3
2021-08-19 13:48:00.644,0.525,1.34
2021-08-19 13:48:00.648,0.515,1.365
2021-08-19 13:48:00.652,0.51,1.39
2021-08-19 13:48:00.656,0.535,1.395
2021-08-19 13:48:00.660,0.555,1.43
2021-08-19 13:48:00.664,0.55,1.47
2021-08-19 13:48:00.668,0.59,1.5
2021-08-19 13:48:00.672,0.6,1.525
2021-08-19 13:48:00.676,0.625,1.56
2021-08-19 13:48:00.680,0.645,1.575
2021-08-19 13:48:00.684,0.67,1.6
2021-08-19 13:48:00.688,0.685,1.65
2021-08-19 13:48:00.692,0.69,1.695
2021-08-19 13:48:00.696,0.675,1.72
2021-08-19 13:48:00.700,0.68,1.72
2021-08-19 13:48:00.704,0.67,1.72
2021-08-19 13:48:00.708,0.645,1.78
2021-08-19 13:48:00.712,0.635,1.74
2021-08-19 13:48:00.716,0.63,1.71
2021-08-19 13:48:00.720,0.625,1.68
2021-08-19 13:48:00.724,0.635,1.655
2021-08-19 13:48:00.728,0.61,1.655
2021-08-19 13:48:00.732,0.575,1.69
2021-08-19 13:48:00.736,0.535,1.69
2021-08-19 13:48:00.740,0.49,1.67
2021-08-19 13:48:00.744,0.465,1.675
2021-08-19 13:48:00.748,0.42,1.65
2021-08-19 13:48:00.752,0.4,1.595
2021-08-19 13:48:00.756,0.37,1.52
2021-08-19 13:48:00.760,0.32,1.5
2021-08-19 13:48:00.764,0.305,1.44
2021-08-19 13:48:00.768,0.265,1.33
2021-08-19 13:48:00.772,0.22,1.33
2021-08-19 13:48:00.776,0.2,1.285
2021-08-19 13:48:00.780,0.17,1.195
2021-08-19 13:48:00.784,0.16,1.13
2021-08-19 13:48:00.788,0.11,1.045
2021-08-19 13:48:00.792,0.08,1.01
2021-08-19 13:48:00.796,0.075,0.955
2021-08-19 13:48:00.800,0.065,0.885
2021-08-19 13:48:00.804,0.035,0.81
2021-08-19 13:48:00.808,0.03,0.78
2021-08-19 13:48:00.812,0.01,0.72
2021-08-19 13:48:00.816,-0.025,0.67
2021-08-19 13:48:00.820,-0.02,0.63
2021-08-19 13:48:00.824,-0.035,0.605
2021-08-19 13:48:00.828,-0.075,0.565
2021-08-19 13:48:00.832,-0.075,0.54
2021-08-19 13:48:00.836,-0.1,0.53
2021-08-19 13:48:00.840,-0.115,0.48
2021-08-19 13:48:00.844,-0.125,0.46
2021-08-19 13:48:00.848,-0.085,0.5
2021-08-19 13:48:00.852,-0.065,0.515
2021-08-19 13:48:00.856,-0.07,0.505
2021-08-19 13:48:00.860,-0.045,0.535
2021-08-19 13:48:00.864,-0.05,0.555
2021-08-19 13:48:00.868,-0.075,0.555
2021-08-19 13:48:00.872,-0.09,0.59
2021-08-19 13:48:00.876,-0.095,0.645
2021-08-19 13:48:00.880,-0.085,0.615
2021-08-19 13:48:00.884,-0.1,0.58
2021-08-19 13:48:00.888,-0.105,0.55
2021-08-19 13:48:00.892,-0.095,0.52
2021-08-19 13:48:00.896,-0.105,0.49
2021-08-19 13:48:00.900,-0.12,0.44
2021-08-19 13:48:00.904,-0.135,0.43
2021-08-19 13:48:00.908,-0.135,0.495
2021-08-19 13:48:00.912,-0.13,0.485
2021-08-19 13:48:00.916,-0.13,0.475
2021-08-19 13:48:00.920,-0.16,0.43
2021-08-19 13:48:00.924,-0.18,0.43
2021-08-19 13:48:00.928,-0.185,0.43
2021-08-19 13:48:00.932,-0.175,0.375
2021-08-19 13:48:00.936,-0.18,0.38
2021-08-19 13:48:00.940,-0.21,0.39
2021-08-19 13:48:00.944,-0.21,0.41
2021-08-19 13:48:00.948,-0.19,0.39
2021-08-19 13:48:00.952,-0.2,0.36
2021-08-19 13:48:00.956,-0.18,0.345
2021-08-19 13:48:00.960,-0.175,0.33
2021-08-19 13:48:00.964,-0.185,0.35
2021-08-19 13:48:00.968,-0.165,0.355
2021-08-19 13:48:00.972,-0.175,0.355
2021-08-19 13:48:00.976,-0.19,0.335
2021-08-19 13:48:00.980,-0.17,0.325
2021-08-19 13:48:00.984,-0.13,0.335
2021-08-19 13:48:00.988,-0.06,0.3
2021-08-19 13:48:00.992,0.085,0.29
2021-08-19 13:48:00.996,0.25,0.34
2021-08-19 13:48:01.000,0.225,0.39
2021-08-19 13:48:01.004,0.14,0.46
2021-08-19 13:48:01.008,-0.01,0.495
2021-08-19 13:48:01.012,-0.245,0.42
2021-08-19 13:48:01.016,-0.655,0.04
2021-08-19 13:48:01.020,-1.05,-0.515
2021-08-19 13:48:01.024,-1.355,-1.18
2021-08-19 13:48:01.108,-0.64,-1.85
2021-08-19 13:48:01.112,-0.485,-1.39
2021-08-19 13:48:01.116,-0.33,-0.985
2021-08-19 13:48:01.120,-0.185,-0.61
2021-08-19 13:48:01.124,-0.12,-0.27
2021-08-19 13:48:01.128,-0.06,-0.055
2021-08-19 13:48:01.132,-0.025,0.18
2021-08-19 13:48:01.136,-0.01,0.445
2021-08-19 13:48:01.140,0.015,0.655
2021-08-19 13:48:01.144,0.06,0.83
2021-08-19 13:48:01.148,0.09,0.94
2021-08-19 13:48:01.152,0.115,1.025
2021-08-19 13:48:01.156,0.1,1.08
2021-08-19 13:48:01.160,0.105,1.1
2021-08-19 13:48:01.164,0.13,1.135
2021-08-19 13:48:01.168,0.145,1.17
2021-08-19 13:48:01.172,0.16,1.2
2021-08-19 13:48:01.176,0.165,1.195
2021-08-19 13:48:01.180,0.195,1.205
2021-08-19 13:48:01.184,0.235,1.23
2021-08-19 13:48:01.188,0.255,1.275
2021-08-19 13:48:01.192,0.28,1.305
2021-08-19 13:48:01.196,0.27,1.315
2021-08-19 13:48:01.200,0.25,1.345
2021-08-19 13:48:01.204,0.27,1.395
2021-08-19 13:48:01.208,0.26,1.43
2021-08-19 13:48:01.212,0.29,1.43
2021-08-19 13:48:01.216,0.31,1.42
2021-08-19 13:48:01.220,0.32,1.435
2021-08-19 13:48:01.224,0.315,1.48
2021-08-19 13:48:01.228,0.315,1.48
2021-08-19 13:48:01.232,0.285,1.495
2021-08-19 13:48:01.236,0.31,1.52
2021-08-19 13:48:01.240,0.35,1.58
2021-08-19 13:48:01.244,0.31,1.625
2021-08-19 13:48:01.248,0.325,1.645
2021-08-19 13:48:01.252,0.32,1.68
2021-08-19 13:48:01.256,0.3,1.74
2021-08-19 13:48:01.260,0.32,1.76
2021-08-19 13:48:01.264,0.325,1.775
2021-08-19 13:48:01.268,0.35,1.79
2021-08-19 13:48:01.272,0.36,1.84
2021-08-19 13:48:01.276,0.35,1.83
2021-08-19 13:48:01.280,0.335,1.805
2021-08-19 13:48:01.284,0.315,1.81
2021-08-19 13:48:01.288,0.29,1.815
2021-08-19 13:48:01.292,0.255,1.795
2021-08-19 13:48:01.296,0.225,1.78
2021-08-19 13:48:01.300,0.195,1.75
2021-08-19 13:48:01.304,0.145,1.73
2021-08-19 13:48:01.308,0.135,1.7
2021-08-19 13:48:01.312,0.085,1.665
2021-08-19 13:48:01.316,0.065,1.62
2021-08-19 13:48:01.320,0.03,1.55
2021-08-19 13:48:01.324,-0.005,1.48
2021-08-19 13:48:01.328,-0.035,1.42
2021-08-19 13:48:01.332,-0.075,1.36
2021-08-19 13:48:01.336,-0.115,1.295
2021-08-19 13:48:01.340,-0.145,1.23
2021-08-19 13:48:01.344,-0.16,1.17
2021-08-19 13:48:01.348,-0.19,1.075
2021-08-19 13:48:01.352,-0.23,0.99
2021-08-19 13:48:01.356,-0.255,0.91
2021-08-19 13:48:01.360,-0.275,0.86
2021-08-19 13:48:01.364,-0.275,0.8
2021-08-19 13:48:01.368,-0.295,0.75
2021-08-19 13:48:01.372,-0.3,0.7
2021-08-19 13:48:01.376,-0.32,0.665
2021-08-19 13:48:01.380,-0.32,0.6
2021-08-19 13:48:01.384,-0.31,0.58
2021-08-19 13:48:01.388,-0.335,0.56
2021-08-19 13:48:01.392,-0.34,0.525
2021-08-19 13:48:01.396,-0.33,0.515
2021-08-19 13:48:01.400,-0.315,0.5
2021-08-19 13:48:01.404,-0.28,0.475
2021-08-19 13:48:01.408,-0.27,0.495
2021-08-19 13:48:01.412,-0.245,0.49
2021-08-19 13:48:01.416,-0.23,0.49
2021-08-19 13:48:01.420,-0.275,0.48
2021-08-19 13:48:01.424,-0.355,0.49
2021-08-19 13:48:01.428,-0.415,0.47
2021-08-19 13:48:01.432,-0.42,0.515
2021-08-19 13:48:01.436,-0.435,0.505
2021-08-19 13:48:01.440,-0.48,0.535
2021-08-19 13:48:01.444,-0.485,0.54
2021-08-19 13:48:01.448,-0.495,0.53
2021-08-19 13:48:01.452,-0.49,0.525
2021-08-19 13:48:01.456,-0.47,0.54
2021-08-19 13:48:01.460,-0.42,0.55
2021-08-19 13:48:01.464,-0.395,0.55
2021-08-19 13:48:01.468,-0.39,0.53
2021-08-19 13:48:01.472,-0.4,0.54
2021-08-19 13:48:01.476,-0.365,0.57
2021-08-19 13:48:01.480,-0.385,0.6
2021-08-19 13:48:01.484,-0.38,0.545
2021-08-19 13:48:01.488,-0.385,0.505
2021-08-19 13:48:01.492,-0.395,0.475
2021-08-19 13:48:01.496,-0.4,0.48
2021-08-19 13:48:01.500,-0.385,0.435
2021-08-19 13:48:01.504,-0.395,0.425
2021-08-19 13:48:01.508,-0.39,0.39
2021-08-19 13:48:01.512,-0.39,0.395
2021-08-19 13:48:01.516,-0.37,0.37
2021-08-19 13:48:01.520,-0.38,0.42
2021-08-19 13:48:01.524,-0.39,0.43
2021-08-19 13:48:01.528,-0.405,0.385
2021-08-19 13:48:01.532,-0.415,0.385
2021-08-19 13:48:01.536,-0.41,0.385
2021-08-19 13:48:01.540,-0.415,0.405
2021-08-19 13:48:01.544,-0.405,0.37
2021-08-19 13:48:01.548,-0.4,0.375
2021-08-19 13:48:01.552,-0.395,0.375
2021-08-19 13:48:01.556,-0.405,0.365
2021-08-19 13:48:01.560,-0.41,0.38
2021-08-19 13:48:01.564,-0.405,0.35
2021-08-19 13:48:01.568,-0.405,0.34
2021-08-19 13:48:01.572,-0.405,0.36
2021-08-19 13:48:01.576,-0.395,0.37
2021-08-19 13:48:01.580,-0.385,0.355
2021-08-19 13:48:01.584,-0.37,0.34
2021-08-19 13:48:01.588,-0.36,0.315
2021-08-19 13:48:01.592,-0.345,0.355
2021-08-19 13:48:01.596,-0.375,0.365
2021-08-19 13:48:01.600,-0.405,0.365
2021-08-19 13:48:01.604,-0.425,0.365
2021-08-19 13:48:01.608,-0.48,0.405
2021-08-19 13:48:01.612,-0.535,0.37
2021-08-19 13:48:01.616,-0.53,0.35
2021-08-19 13:48:01.620,-0.545,0.37
2021-08-19 13:48:01.624,-0.555,0.365
2021-08-19 13:48:01.628,-0.57,0.355
2021-08-19 13:48:01.632,-0.555,0.375
2021-08-19 13:48:01.636,-0.585,0.355
2021-08-19 13:48:01.640,-0.585,0.36
2021-08-19 13:48:01.644,-0.565,0.365
2021-08-19 13:48:01.648,-0.57,0.36
2021-08-19 13:48:01.652,-0.52,0.37
2021-08-19 13:48:01.656,-0.49,0.36
2021-08-19 13:48:01.660,-0.515,0.32
2021-08-19 13:48:01.664,-0.52,0.265
2021-08-19 13:48:01.668,-0.51,0.27
2021-08-19 13:48:01.672,-0.525,0.255
2021-08-19 13:48:01.676,-0.5,0.215
2021-08-19 13:48:01.680,-0.475,0.235
2021-08-19 13:48:01.684,-0.46,0.25
2021-08-19 13:48:01.688,-0.465,0.215
2021-08-19 13:48:01.692,-0.465,0.24
2021-08-19 13:48:01.696,-0.455,0.265
2021-08-19 13:48:01.700,-0.465,0.295
2021-08-19 13:48:01.704,-0.47,0.31
2021-08-19 13:48:01.708,-0.47,0.28
2021-08-19 13:48:01.712,-0.47,0.275
2021-08-19 13:48:01.716,-0.465,0.26
2021-08-19 13:48:01.720,-0.46,0.28
2021-08-19 13:48:01.724,-0.475,0.265
2021-08-19 13:48:01.728,-0.42,0.27
2021-08-19 13:48:01.732,-0.41,0.28
2021-08-19 13:48:01.736,-0.4,0.28
2021-08-19 13:48:01.740,-0.39,0.3
2021-08-19 13:48:01.744,-0.365,0.305
2021-08-19 13:48:01.748,-0.33,0.295
2021-08-19 13:48:01.752,-0.2,0.3
2021-08-19 13:48:01.756,-0.07,0.29
2021-08-19 13:48:01.760,-0.015,0.33
2021-08-19 13:48:01.764,-0.115,0.395
2021-08-19 13:48:01.768,-0.315,0.475
2021-08-19 13:48:01.772,-0.715,0.435
2021-08-19 13:48:01.776,-1.255,0.065
2021-08-19 13:48:01.780,-1.73,-0.58
2021-08-19 13:48:01.872,-0.79,-1.575
2021-08-19 13:48:01.876,-0.62,-1.115
2021-08-19 13:48:01.880,-0.425,-0.765
2021-08-19 13:48:01.884,-0.29,-0.46
2021-08-19 13:48:01.888,-0.24,-0.17
2021-08-19 13:48:01.892,-0.185,0.08
2021-08-19 13:48:01.896,-0.14,0.31
2021-08-19 13:48:01.900,-0.125,0.53
2021-08-19 13:48:01.904,-0.105,0.675
2021-08-19 13:48:01.908,-0.075,0.835
2021-08-19 13:48:01.912,-0.045,0.945
2021-08-19 13:48:01.916,-0.02,1.005
2021-08-19 13:48:01.920,0.035,1.025
2021-08-19 13:48:01.924,0.05,1.035
2021-08-19 13:48:01.928,0.065,1.105
2021-08-19 13:48:01.932,0.075,1.16
2021-08-19 13:48:01.936,0.085,1.22
2021-08-19 13:48:01.940,0.1,1.185
2021-08-19 13:48:01.944,0.1,1.215
2021-08-19 13:48:01.948,0.085,1.22
2021-08-19 13:48:01.952,0.08,1.24
2021-08-19 13:48:01.956,0.12,1.275
2021-08-19 13:48:01.960,0.14,1.285
2021-08-19 13:48:01.964,0.145,1.325
2021-08-19 13:48:01.968,0.18,1.36
2021-08-19 13:48:01.972,0.205,1.38
2021-08-19 13:48:01.976,0.23,1.435
2021-08-19 13:48:01.980,0.25,1.495
2021-08-19 13:48:01.984,0.26,1.48
2021-08-19 13:48:01.988,0.305,1.51
2021-08-19 13:48:01.992,0.3,1.55
2021-08-19 13:48:01.996,0.32,1.6
2021-08-19 13:48:02.000,0.35,1.585
2021-08-19 13:48:02.004,0.35,1.615
2021-08-19 13:48:02.008,0.365,1.635
2021-08-19 13:48:02.012,0.4,1.65
2021-08-19 13:48:02.016,0.425,1.695
2021-08-19 13:48:02.020,0.44,1.695
2021-08-19 13:48:02.024,0.475,1.715
2021-08-19 13:48:02.028,0.465,1.74
2021-08-19 13:48:02.032,0.51,1.735
2021-08-19 13:48:02.036,0.525,1.77
2021-08-19 13:48:02.040,0.555,1.775
2021-08-19 13:48:02.044,0.535,1.785
2021-08-19 13:48:02.048,0.53,1.82
2021-08-19 13:48:02.052,0.52,1.855
2021-08-19 13:48:02.056,0.485,1.87
2021-08-19 13:48:02.060,0.455,1.86
2021-08-19 13:48:02.064,0.425,1.875
2021-08-19 13:48:02.068,0.415,1.855
2021-08-19 13:48:02.072,0.39,1.84
2021-08-19 13:48:02.076,0.35,1.8
2021-08-19 13:48:02.080,0.32,1.725
2021-08-19 13:48:02.084,0.3,1.68
2021-08-19 13:48:02.088,0.27,1.635
2021-08-19 13:48:02.092,0.24,1.59
2021-08-19 13:48:02.096,0.19,1.54
2021-08-19 13:48:02.100,0.135,1.45
2021-08-19 13:48:02.104,0.1,1.4
2021-08-19 13:48:02.108,0.055,1.35
2021-08-19 13:48:02.112,0.035,1.255
2021-08-19 13:48:02.116,0.0,1.175
2021-08-19 13:48:02.120,-0.035,1.1
2021-08-19 13:48:02.124,-0.05,1.02
2021-08-19 13:48:02.128,-0.125,0.98
2021-08-19 13:48:02.132,-0.155,0.895
2021-08-19 13:48:02.136,-0.19,0.81
2021-08-19 13:48:02.140,-0.235,0.76
2021-08-19 13:48:02.144,-0.255,0.75
2021-08-19 13:48:02.148,-0.26,0.72
2021-08-19 13:48:02.152,-0.25,0.66
2021-08-19 13:48:02.156,-0.255,0.66
2021-08-19 13:48:02.160,-0.275,0.59
2021-08-19 13:48:02.164,-0.295,0.565
2021-08-19 13:48:02.168,-0.3,0.56
2021-08-19 13:48:02.172,-0.315,0.525
2021-08-19 13:48:02.176,-0.315,0.53
2021-08-19 13:48:02.180,-0.335,0.535
2021-08-19 13:48:02.184,-0.34,0.545
2021-08-19 13:48:02.188,-0.34,0.555
2021-08-19 13:48:02.192,-0.325,0.55
2021-08-19 13:48:02.196,-0.305,0.535
2021-08-19 13:48:02.200,-0.31,0.48
2021-08-19 13:48:02.204,-0.32,0.405
2021-08-19 13:48:02.208,-0.325,0.4
2021-08-19 13:48:02.212,-0.315,0.375
2021-08-19 13:48:02.216,-0.3,0.345
2021-08-19 13:48:02.220,-0.295,0.325
2021-08-19 13:48:02.224,-0.295,0.32
2021-08-19 13:48:02.228,-0.29,0.315
2021-08-19 13:48:02.232,-0.285,0.32
2021-08-19 13:48:02.236,-0.27,0.3
2021-08-19 13:48:02.240,-0.28,0.34
2021-08-19 13:48:02.244,-0.285,0.355
2021-08-19 13:48:02.248,-0.29,0.33
2021-08-19 13:48:02.252,-0.31,0.325
2021-08-19 13:48:02.256,-0.31,0.325
2021-08-19 13:48:02.260,-0.3,0.335
2021-08-19 13:48:02.264,-0.305,0.335
2021-08-19 13:48:02.268,-0.295,0.36
2021-08-19 13:48:02.272,-0.275,0.36
2021-08-19 13:48:02.276,-0.285,0.375
2021-08-19 13:48:02.280,-0.28,0.3
2021-08-19 13:48:02.284,-0.305,0.31
2021-08-19 13:48:02.288,-0.32,0.35
2021-08-19 13:48:02.292,-0.315,0.345
2021-08-19 13:48:02.296,-0.34,0.3
2021-08-19 13:48:02.300,-0.39,0.3
2021-08-19 13:48:02.304,-0.385,0.3
2021-08-19 13:48:02.308,-0.39,0.27
2021-08-19 13:48:02.312,-0.415,0.245
2021-08-19 13:48:02.316,-0.41,0.24
2021-08-19 13:48:02.320,-0.41,0.255
2021-08-19 13:48:02.324,-0.375,0.275
2021-08-19 13:48:02.328,-0.365,0.3
2021-08-19 13:48:02.332,-0.37,0.315
2021-08-19 13:48:02.336,-0.36,0.325
2021-08-19 13:48:02.340,-0.355,0.315
2021-08-19 13:48:02.344,-0.335,0.325
2021-08-19 13:48:02.348,-0.35,0.325
2021-08-19 13:48:02.352,-0.355,0.27
2021-08-19 13:48:02.356,-0.32,0.295
2021-08-19 13:48:02.360,-0.295,0.35
2021-08-19 13:48:02.364,-0.285,0.315
2021-08-19 13:48:02.368,-0.23,0.335
2021-08-19 13:48:02.372,-0.14,0.305
2021-08-19 13:48:02.376,0.01,0.315
2021-08-19 13:48:02.380,0.04,0.335
2021-08-19 13:48:02.384,-0.045,0.38
2021-08-19 13:48:02.388,-0.235,0.445
2021-08-19 13:48:02.392,-0.54,0.37
2021-08-19 13:48:02.396,-0.975,-0.045
2021-08-19 13:48:02.400,-1.33,-0.695
2021-08-19 13:48:02.404,-1.575,-1.385
2021-08-19 13:48:02.488,-0.55,-1.975
2021-08-19 13:48:02.492,-0.39,-1.545
2021-08-19 13:48:02.496,-0.24,-1.065
2021-08-19 13:48:02.500,-0.1,-0.675
2021-08-19 13:48:02.504,-0.035,-0.35
2021-08-19 13:48:02.508,0.03,-0.075
2021-08-19 13:48:02.512,0.065,0.21
2021-08-19 13:48:02.516,0.07,0.395
2021-08-19 13:48:02.520,0.08,0.545
2021-08-19 13:48:02.524,0.115,0.74
2021-08-19 13:48:02.528,0.12,0.9
2021-08-19 13:48:02.532,0.135,0.98
2021-08-19 13:48:02.536,0.155,1.0
2021-08-19 13:48:02.540,0.19,1.035
2021-08-19 13:48:02.544,0.22,1.11
2021-08-19 13:48:02.548,0.225,1.125
2021-08-19 13:48:02.552,0.23,1.13
2021-08-19 13:48:02.556,0.245,1.13
2021-08-19 13:48:02.560,0.26,1.18
2021-08-19 13:48:02.564,0.27,1.175
2021-08-19 13:48:02.568,0.25,1.135
2021-08-19 13:48:02.572,0.22,1.145
2021-08-19 13:48:02.576,0.26,1.13
2021-08-19 13:48:02.580,0.3,1.15
2021-08-19 13:48:02.584,0.365,1.145
2021-08-19 13:48:02.588,0.375,1.135
2021-08-19 13:48:02.592,0.385,1.165
2021-08-19 13:48:02.596,0.425,1.175
2021-08-19 13:48:02.600,0.45,1.235
2021-08-19 13:48:02.604,0.495,1.265
2021-08-19 13:48:02.608,0.5,1.295
2021-08-19 13:48:02.612,0.485,1.295
2021-08-19 13:48:02.616,0.485,1.33
2021-08-19 13:48:02.620,0.52,1.36
2021-08-19 13:48:02.624,0.53,1.385
2021-08-19 13:48:02.628,0.565,1.4
2021-08-19 13:48:02.632,0.585,1.405
2021-08-19 13:48:02.636,0.595,1.44
2021-08-19 13:48:02.640,0.605,1.475
2021-08-19 13:48:02.644,0.55,1.525
2021-08-19 13:48:02.648,0.57,1.53
2021-08-19 13:48:02.652,0.55,1.56
2021-08-19 13:48:02.656,0.53,1.59
2021-08-19 13:48:02.660,0.49,1.58
2021-08-19 13:48:02.664,0.495,1.58
2021-08-19 13:48:02.668,0.49,1.61
2021-08-19 13:48:02.672,0.49,1.605
2021-08-19 13:48:02.676,0.485,1.625
2021-08-19 13:48:02.680,0.49,1.59
2021-08-19 13:48:02.684,0.485,1.595
2021-08-19 13:48:02.688,0.47,1.595
2021-08-19 13:48:02.692,0.41,1.605
2021-08-19 13:48:02.696,0.41,1.585
2021-08-19 13:48:02.700,0.355,1.55
2021-08-19 13:48:02.704,0.315,1.49
2021-08-19 13:48:02.708,0.285,1.465
2021-08-19 13:48:02.712,0.255,1.43
2021-08-19 13:48:02.716,0.23,1.37
2021-08-19 13:48:02.720,0.205,1.3
2021-08-19 13:48:02.724,0.2,1.25
2021-08-19 13:48:02.728,0.22,1.2
2021-08-19 13:48:02.732,0.235,1.125
2021-08-19 13:48:02.736,0.185,1.06
2021-08-19 13:48:02.740,0.155,1.035
2021-08-19 13:48:02.744,0.13,0.925
2021-08-19 13:48:02.748,0.135,0.845
2021-08-19 13:48:02.752,0.12,0.75
2021-08-19 13:48:02.756,0.095,0.695
2021-08-19 13:48:02.760,0.085,0.63
2021-08-19 13:48:02.764,0.08,0.54
2021-08-19 13:48:02.768,0.065,0.48
2021-08-19 13:48:02.772,0.11,0.47
2021-08-19 13:48:02.776,0.1,0.42
2021-08-19 13:48:02.780,0.12,0.435
2021-08-19 13:48:02.784,0.105,0.425
2021-08-19 13:48:02.788,0.11,0.375
2021-08-19 13:48:02.792,0.13,0.41
2021-08-19 13:48:02.796,0.12,0.42
2021-08-19 13:48:02.800,0.12,0.4
2021-08-19 13:48:02.804,0.12,0.395
2021-08-19 13:48:02.808,0.13,0.39
2021-08-19 13:48:02.812,0.12,0.38
2021-08-19 13:48:02.816,0.085,0.34
2021-08-19 13:48:02.820,0.065,0.385
2021-08-19 13:48:02.824,0.035,0.375
2021-08-19 13:48:02.828,-0.005,0.39
2021-08-19 13:48:02.832,-0.045,0.38
2021-08-19 13:48:02.836,-0.08,0.355
2021-08-19 13:48:02.840,-0.115,0.36
2021-08-19 13:48:02.844,-0.14,0.385
2021-08-19 13:48:02.848,-0.14,0.39
2021-08-19 13:48:02.852,-0.105,0.36
2021-08-19 13:48:02.856,-0.08,0.335
2021-08-19 13:48:02.860,-0.085,0.39
2021-08-19 13:48:02.864,-0.05,0.395
2021-08-19 13:48:02.868,-0.035,0.38
2021-08-19 13:48:02.872,-0.01,0.4
2021-08-19 13:48:02.876,-0.01,0.415
2021-08-19 13:48:02.880,-0.04,0.42
2021-08-19 13:48:02.884,-0.065,0.43
2021-08-19 13:48:02.888,-0.045,0.42
2021-08-19 13:48:02.892,-0.03,0.385
2021-08-19 13:48:02.896,-0.01,0.405
2021-08-19 13:48:02.900,0.035,0.405
2021-08-19 13:48:02.904,0.065,0.41
2021-08-19 13:48:02.908,0.065,0.42
2021-08-19 13:48:02.912,0.09,0.395
2021-08-19 13:48:02.916,0.09,0.37
2021-08-19 13:48:02.920,0.09,0.385
2021-08-19 13:48:02.924,0.03,0.35
2021-08-19 13:48:02.928,-0.01,0.305
2021-08-19 13:48:02.932,-0.02,0.295
2021-08-19 13:48:02.936,-0.025,0.28
2021-08-19 13:48:02.940,-0.065,0.29
2021-08-19 13:48:02.944,-0.045,0.305
2021-08-19 13:48:02.948,0.0,0.32
2021-08-19 13:48:02.952,0.0,0.325
2021-08-19 13:48:02.956,0.04,0.285
2021-08-19 13:48:02.960,0.06,0.31
2021-08-19 13:48:02.964,0.06,0.32
2021-08-19 13:48:02.968,0.085,0.34
2021-08-19 13:48:02.972,0.055,0.32
2021-08-19 13:48:02.976,0.045,0.3
2021-08-19 13:48:02.980,0.055,0.275
2021-08-19 13:48:02.984,0.05,0.28
2021-08-19 13:48:02.988,0.02,0.24
2021-08-19 13:48:02.992,0.01,0.215
2021-08-19 13:48:02.996,0.055,0.195
2021-08-19 13:48:03.000,0.095,0.18
2021-08-19 13:48:03.004,0.115,0.17
2021-08-19 13:48:03.008,0.195,0.145
2021-08-19 13:48:03.012,0.285,0.165
2021-08-19 13:48:03.016,0.235,0.235
2021-08-19 13:48:03.020,0.15,0.34
2021-08-19 13:48:03.024,-0.015,0.405
2021-08-19 13:48:03.028,-0.31,0.2
2021-08-19 13:48:03.032,-0.655,-0.29
2021-08-19 13:48:03.036,-0.96,-0.935
2021-08-19 13:48:03.040,-1.13,-1.66
2021-08-19 13:48:03.124,0.0,-1.975
2021-08-19 13:48:03.128,0.09,-1.53
2021-08-19 13:48:03.132,0.13,-1.14
2021-08-19 13:48:03.136,0.185,-0.82
2021-08-19 13:48:03.140,0.31,-0.56
2021-08-19 13:48:03.144,0.375,-0.305
2021-08-19 13:48:03.148,0.425,-0.01
2021-08-19 13:48:03.152,0.44,0.21
2021-08-19 13:48:03.156,0.455,0.385
2021-08-19 13:48:03.160,0.475,0.53
2021-08-19 13:48:03.164,0.495,0.7
2021-08-19 13:48:03.168,0.515,0.84
2021-08-19 13:48:03.172,0.57,0.935
2021-08-19 13:48:03.176,0.6,0.95
2021-08-19 13:48:03.180,0.62,1.01
2021-08-19 13:48:03.184,0.62,1.01
2021-08-19 13:48:03.188,0.63,1.035
2021-08-19 13:48:03.192,0.64,1.08
2021-08-19 13:48:03.196,0.655,1.065
2021-08-19 13:48:03.200,0.615,1.125
2021-08-19 13:48:03.204,0.555,1.135
2021-08-19 13:48:03.208,0.515,1.15
2021-08-19 13:48:03.212,0.53,1.11
2021-08-19 13:48:03.216,0.535,1.16
2021-08-19 13:48:03.220,0.51,1.165
2021-08-19 13:48:03.224,0.565,1.22
2021-08-19 13:48:03.228,0.63,1.27
2021-08-19 13:48:03.232,0.665,1.325
2021-08-19 13:48:03.236,0.665,1.335
2021-08-19 13:48:03.240,0.65,1.38
2021-08-19 13:48:03.244,0.67,1.465
2021-08-19 13:48:03.248,0.66,1.455
2021-08-19 13:48:03.252,0.65,1.445
2021-08-19 13:48:03.256,0.715,1.45
2021-08-19 13:48:03.260,0.74,1.5
2021-08-19 13:48:03.264,0.72,1.54
2021-08-19 13:48:03.268,0.71,1.565
2021-08-19 13:48:03.272,0.68,1.605
2021-08-19 13:48:03.276,0.65,1.62
2021-08-19 13:48:03.280,0.675,1.625
2021-08-19 13:48:03.284,0.7,1.605
2021-08-19 13:48:03.288,0.75,1.59
2021-08-19 13:48:03.292,0.775,1.63
2021-08-19 13:48:03.296,0.77,1.64
2021-08-19 13:48:03.300,0.785,1.65
2021-08-19 13:48:03.304,0.76,1.655
2021-08-19 13:48:03.308,0.76,1.625
2021-08-19 13:48:03.312,0.78,1.655
2021-08-19 13:48:03.316,0.76,1.695
2021-08-19 13:48:03.320,0.76,1.685
2021-08-19 13:48:03.324,0.765,1.64
2021-08-19 13:48:03.328,0.755,1.65
2021-08-19 13:48:03.332,0.75,1.68
2021-08-19 13:48:03.336,0.715,1.665
2021-08-19 13:48:03.340,0.69,1.61
2021-08-19 13:48:03.344,0.655,1.595
2021-08-19 13:48:03.348,0.64,1.585
2021-08-19 13:48:03.352,0.63,1.545
2021-08-19 13:48:03.356,0.58,1.51
2021-08-19 13:48:03.360,0.585,1.46
2021-08-19 13:48:03.364,0.53,1.42
2021-08-19 13:48:03.368,0.465,1.33
2021-08-19 13:48:03.372,0.435,1.275
2021-08-19 13:48:03.376,0.42,1.22
2021-08-19 13:48:03.380,0.38,1.17
2021-08-19 13:48:03.384,0.33,1.085
2021-08-19 13:48:03.388,0.33,0.99
2021-08-19 13:48:03.392,0.3,0.92
2021-08-19 13:48:03.396,0.31,0.86
2021-08-19 13:48:03.400,0.27,0.805
2021-08-19 13:48:03.404,0.225,0.755
2021-08-19 13:48:03.408,0.21,0.71
2021-08-19 13:48:03.412,0.17,0.675
2021-08-19 13:48:03.416,0.165,0.625
2021-08-19 13:48:03.420,0.12,0.515
2021-08-19 13:48:03.424,0.125,0.48
2021-08-19 13:48:03.428,0.11,0.495
2021-08-19 13:48:03.432,0.12,0.49
2021-08-19 13:48:03.436,0.1,0.485
2021-08-19 13:48:03.440,0.1,0.45
2021-08-19 13:48:03.444,0.07,0.425
2021-08-19 13:48:03.448,0.06,0.43
2021-08-19 13:48:03.452,0.05,0.37
2021-08-19 13:48:03.456,0.05,0.315
2021-08-19 13:48:03.460,0.05,0.295
2021-08-19 13:48:03.464,0.06,0.275
2021-08-19 13:48:03.468,0.045,0.275
2021-08-19 13:48:03.472,0.065,0.275
2021-08-19 13:48:03.476,0.06,0.24
2021-08-19 13:48:03.480,0.075,0.24
2021-08-19 13:48:03.484,0.13,0.275
2021-08-19 13:48:03.488,0.145,0.255
2021-08-19 13:48:03.492,0.135,0.225
2021-08-19 13:48:03.496,0.125,0.245
2021-08-19 13:48:03.500,0.115,0.26
2021-08-19 13:48:03.504,0.135,0.285
2021-08-19 13:48:03.508,0.14,0.285
2021-08-19 13:48:03.512,0.15,0.26
2021-08-19 13:48:03.516,0.12,0.26
2021-08-19 13:48:03.520,0.14,0.255
2021-08-19 13:48:03.524,0.145,0.305
2021-08-19 13:48:03.528,0.145,0.315
2021-08-19 13:48:03.532,0.185,0.365
2021-08-19 13:48:03.536,0.16,0.36
2021-08-19 13:48:03.540,0.125,0.31
2021-08-19 13:48:03.544,0.16,0.355
2021-08-19 13:48:03.548,0.17,0.365
2021-08-19 13:48:03.552,0.155,0.355
2021-08-19 13:48:03.556,0.125,0.33
2021-08-19 13:48:03.560,0.1,0.365
2021-08-19 13:48:03.564,0.08,0.355
2021-08-19 13:48:03.568,0.045,0.325
2021-08-19 13:48:03.572,0.05,0.33
2021-08-19 13:48:03.576,0.07,0.345
2021-08-19 13:48:03.580,0.09,0.36
2021-08-19 13:48:03.584,0.085,0.355
2021-08-19 13:48:03.588,0.055,0.345
2021-08-19 13:48:03.592,0.085,0.33
2021-08-19 13:48:03.596,0.075,0.325
2021-08-19 13:48:03.600,0.06,0.335
2021-08-19 13:48:03.604,0.03,0.29
2021-08-19 13:48:03.608,0.01,0.26
2021-08-19 13:48:03.612,0.0,0.24
2021-08-19 13:48:03.616,0.005,0.28
2021-08-19 13:48:03.620,0.03,0.29
2021-08-19 13:48:03.624,0.055,0.265
2021-08-19 13:48:03.628,0.1,0.255
2021-08-19 13:48:03.632,0.18,0.31
2021-08-19 13:48:03.636,0.285,0.325
2021-08-19 13:48:03.640,0.4,0.31
2021-08-19 13:48:03.644,0.41,0.295
2021-08-19 13:48:03.648,0.355,0.355
2021-08-19 13:48:03.652,0.265,0.45
2021-08-19 13:48:03.656,0.005,0.355
2021-08-19 13:48:03.660,-0.33,-0.01
2021-08-19 13:48:03.664,-0.67,-0.59
2021-08-19 13:48:03.668,-1.015,-1.21
2021-08-19 13:48:03.756,-0.275,-1.88
2021-08-19 13:48:03.760,-0.155,-1.405
2021-08-19 13:48:03.764,-0.015,-1.025
2021-08-19 13:48:03.768,0.165,-0.68
2021-08-19 13:48:03.772,0.29,-0.37
2021-08-19 13:48:03.776,0.345,-0.115
2021-08-19 13:48:03.780,0.39,0.12
2021-08-19 13:48:03.784,0.415,0.335
2021-08-19 13:48:03.788,0.38,0.545
2021-08-19 13:48:03.792,0.345,0.675
2021-08-19 13:48:03.796,0.355,0.775
2021-08-19 13:48:03.800,0.36,0.905
2021-08-19 13:48:03.804,0.365,1.04
2021-08-19 13:48:03.808,0.385,1.105
2021-08-19 13:48:03.812,0.41,1.09
2021-08-19 13:48:03.816,0.42,1.095
2021-08-19 13:48:03.820,0.425,1.095
2021-08-19 13:48:03.824,0.425,1.13
2021-08-19 13:48:03.828,0.445,1.22
2021-08-19 13:48:03.832,0.485,1.275
2021-08-19 13:48:03.836,0.49,1.265
2021-08-19 13:48:03.840,0.47,1.26
2021-08-19 13:48:03.844,0.435,1.275
2021-08-19 13:48:03.848,0.435,1.315
2021-08-19 13:48:03.852,0.45,1.305
2021-08-19 13:48:03.856,0.455,1.315
2021-08-19 13:48:03.860,0.47,1.28
2021-08-19 13:48:03.864,0.51,1.255
2021-08-19 13:48:03.868,0.515,1.255
2021-08-19 13:48:03.872,0.535,1.26
2021-08-19 13:48:03.876,0.55,1.26
2021-08-19 13:48:03.880,0.55,1.285
2021-08-19 13:48:03.884,0.535,1.345
2021-08-19 13:48:03.888,0.555,1.39
2021-08-19 13:48:03.892,0.565,1.4
2021-08-19 13:48:03.896,0.6,1.395
2021-08-19 13:48:03.900,0.615,1.405
2021-08-19 13:48:03.904,0.645,1.455
2021-08-19 13:48:03.908,0.665,1.46
2021-08-19 13:48:03.912,0.665,1.49
2021-08-19 13:48:03.916,0.66,1.56
2021-08-19 13:48:03.920,0.67,1.57
2021-08-19 13:48:03.924,0.685,1.6
2021-08-19 13:48:03.928,0.695,1.64
2021-08-19 13:48:03.932,0.685,1.65
2021-08-19 13:48:03.936,0.68,1.68
2021-08-19 13:48:03.940,0.68,1.665
2021-08-19 13:48:03.944,0.665,1.66
2021-08-19 13:48:03.948,0.65,1.675
2021-08-19 13:48:03.952,0.635,1.675
2021-08-19 13:48:03.956,0.61,1.67
2021-08-19 13:48:03.960,0.62,1.645
2021-08-19 13:48:03.964,0.62,1.645
2021-08-19 13:48:03.968,0.58,1.61
2021-08-19 13:48:03.972,0.565,1.555
2021-08-19 13:48:03.976,0.525,1.535
2021-08-19 13:48:03.980,0.5,1.475
2021-08-19 13:48:03.984,0.455,1.4
2021-08-19 13:48:03.988,0.365,1.365
2021-08-19 13:48:03.992,0.29,1.31
2021-08-19 13:48:03.996,0.245,1.245
2021-08-19 13:48:04.000,0.21,1.16
2021-08-19 13:48:04.004,0.195,1.105
2021-08-19 13:48:04.008,0.18,1.01
2021-08-19 13:48:04.012,0.18,0.935
2021-08-19 13:48:04.016,0.165,0.885
2021-08-19 13:48:04.020,0.135,0.84
2021-08-19 13:48:04.024,0.12,0.78
2021-08-19 13:48:04.028,0.11,0.7
2021-08-19 13:48:04.032,0.1,0.68
2021-08-19 13:48:04.036,0.105,0.675
2021-08-19 13:48:04.040,0.05,0.6
2021-08-19 13:48:04.044,0.035,0.56
2021-08-19 13:48:04.048,0.015,0.53
2021-08-19 13:48:04.052,-0.005,0.49
2021-08-19 13:48:04.056,-0.03,0.42
2021-08-19 13:48:04.060,-0.03,0.34
2021-08-19 13:48:04.064,-0.025,0.295
2021-08-19 13:48:04.068,-0.05,0.255
2021-08-19 13:48:04.072,-0.04,0.24
2021-08-19 13:48:04.076,-0.06,0.245
2021-08-19 13:48:04.080,-0.075,0.225
2021-08-19 13:48:04.084,-0.07,0.21
2021-08-19 13:48:04.088,-0.065,0.2
2021-08-19 13:48:04.092,-0.075,0.205
2021-08-19 13:48:04.096,-0.055,0.205
2021-08-19 13:48:04.100,-0.055,0.16
2021-08-19 13:48:04.104,-0.05,0.14
2021-08-19 13:48:04.108,-0.045,0.155
2021-08-19 13:48:04.112,-0.05,0.18
2021-08-19 13:48:04.116,-0.045,0.225
2021-08-19 13:48:04.120,-0.06,0.23
2021-08-19 13:48:04.124,-0.09,0.21
2021-08-19 13:48:04.128,-0.1,0.19
2021-08-19 13:48:04.132,-0.07,0.18
2021-08-19 13:48:04.136,-0.095,0.205
2021-08-19 13:48:04.140,-0.085,0.2
2021-08-19 13:48:04.144,-0.08,0.19
2021-08-19 13:48:04.148,-0.07,0.205
2021-08-19 13:48:04.152,-0.045,0.17
2021-08-19 13:48:04.156,-0.02,0.155
2021-08-19 13:48:04.160,0.01,0.16
2021-08-19 13:48:04.164,0.02,0.21
2021-08-19 13:48:04.168,-0.01,0.21
2021-08-19 13:48:04.172,-0.025,0.195
2021-08-19 13:48:04.176,-0.115,0.24
2021-08-19 13:48:04.180,-0.155,0.24
2021-08-19 13:48:04.184,-0.175,0.225
2021-08-19 13:48:04.188,-0.15,0.19
2021-08-19 13:48:04.192,-0.125,0.15
2021-08-19 13:48:04.196,-0.065,0.165
2021-08-19 13:48:04.200,-0.06,0.185
2021-08-19 13:48:04.204,-0.045,0.175
2021-08-19 13:48:04.208,-0.085,0.19
2021-08-19 13:48:04.212,-0.07,0.225
2021-08-19 13:48:04.216,-0.07,0.21
2021-08-19 13:48:04.220,-0.09,0.16
2021-08-19 13:48:04.224,-0.09,0.145
2021-08-19 13:48:04.228,-0.095,0.18
2021-08-19 13:48:04.232,-0.09,0.18
2021-08-19 13:48:04.236,-0.05,0.14
2021-08-19 13:48:04.240,-0.01,0.115
2021-08-19 13:48:04.244,0.12,0.09
2021-08-19 13:48:04.248,0.28,0.12
2021-08-19 13:48:04.252,0.345,0.135
2021-08-19 13:48:04.256,0.31,0.205
2021-08-19 13:48:04.260,0.22,0.315
2021-08-19 13:48:04.264,0.07,0.38
2021-08-19 13:48:04.268,-0.215,0.18
2021-08-19 13:48:04.272,-0.565,-0.33
2021-08-19 13:48:04.276,-0.825,-1.03
2021-08-19 13:48:04.280,-0.965,-1.78
2021-08-19 13:48:04.368,-0.38,-1.66
2021-08-19 13:48:04.372,-0.26,-1.235
2021-08-19 13:48:04.376,-0.11,-0.86
2021-08-19 13:48:04.380,-0.03,-0.55
