Time,ECG1,ECG2
2021-08-01 02:28:49.248,-0.165,0.055
2021-08-01 02:28:49.252,-0.16,0.045
2021-08-01 02:28:49.256,-0.165,0.05
2021-08-01 02:28:49.260,-0.185,0.035
2021-08-01 02:28:49.264,-0.175,0.025
2021-08-01 02:28:49.268,-0.19,0.05
2021-08-01 02:28:49.272,-0.16,0.035
2021-08-01 02:28:49.276,-0.19,0.025
2021-08-01 02:28:49.280,-0.185,0.015
2021-08-01 02:28:49.284,-0.185,0.015
2021-08-01 02:28:49.288,-0.19,0.0
2021-08-01 02:28:49.292,-0.22,0.01
2021-08-01 02:28:49.296,-0.21,0.005
2021-08-01 02:28:49.300,-0.23,0.0
2021-08-01 02:28:49.304,-0.2,0.0
2021-08-01 02:28:49.308,-0.21,0.02
2021-08-01 02:28:49.312,-0.2,0.03
2021-08-01 02:28:49.316,-0.215,0.02
2021-08-01 02:28:49.320,-0.22,0.05
2021-08-01 02:28:49.324,-0.215,0.045
2021-08-01 02:28:49.328,-0.21,0.05
2021-08-01 02:28:49.332,-0.2,0.045
2021-08-01 02:28:49.336,-0.215,0.06
2021-08-01 02:28:49.340,-0.21,0.05
2021-08-01 02:28:49.344,-0.195,0.03
2021-08-01 02:28:49.348,-0.185,0.05
2021-08-01 02:28:49.352,-0.16,0.09
2021-08-01 02:28:49.356,-0.17,0.105
2021-08-01 02:28:49.360,-0.16,0.12
2021-08-01 02:28:49.364,-0.17,0.14
2021-08-01 02:28:49.368,-0.14,0.145
2021-08-01 02:28:49.372,-0.15,0.155
2021-08-01 02:28:49.376,-0.135,0.16
2021-08-01 02:28:49.380,-0.115,0.145
2021-08-01 02:28:49.384,-0.085,0.16
2021-08-01 02:28:49.388,-0.09,0.15
2021-08-01 02:28:49.392,-0.065,0.145
2021-08-01 02:28:49.396,-0.06,0.13
2021-08-01 02:28:49.400,-0.04,0.125
2021-08-01 02:28:49.404,-0.05,0.14
2021-08-01 02:28:49.408,-0.015,0.145
2021-08-01 02:28:49.412,-0.01,0.12
2021-08-01 02:28:49.416,-0.01,0.105
2021-08-01 02:28:49.420,-0.005,0.1
2021-08-01 02:28:49.424,-0.02,0.095
2021-08-01 02:28:49.428,0.015,0.09
2021-08-01 02:28:49.432,0.025,0.075
2021-08-01 02:28:49.436,0.035,0.07
2021-08-01 02:28:49.440,0.05,0.05
2021-08-01 02:28:49.444,0.045,0.055
2021-08-01 02:28:49.448,0.055,0.055
2021-08-01 02:28:49.452,0.065,0.035
2021-08-01 02:28:49.456,0.045,0.04
2021-08-01 02:28:49.460,0.055,0.035
2021-08-01 02:28:49.464,0.055,0.015
2021-08-01 02:28:49.468,0.03,0.035
2021-08-01 02:28:49.472,0.055,0.02
2021-08-01 02:28:49.476,0.05,0.01
2021-08-01 02:28:49.480,0.04,0.01
2021-08-01 02:28:49.484,0.04,0.02
2021-08-01 02:28:49.488,0.035,-0.005
2021-08-01 02:28:49.492,0.03,-0.005
2021-08-01 02:28:49.496,0.015,-0.035
2021-08-01 02:28:49.500,0.015,-0.05
2021-08-01 02:28:49.504,0.015,-0.04
2021-08-01 02:28:49.508,0.02,-0.045
2021-08-01 02:28:49.512,0.01,-0.07
2021-08-01 02:28:49.516,0.015,-0.085
2021-08-01 02:28:49.520,0.025,-0.06
2021-08-01 02:28:49.524,0.03,-0.02
2021-08-01 02:28:49.528,0.03,0.005
2021-08-01 02:28:49.532,0.045,0.035
2021-08-01 02:28:49.536,0.025,0.05
2021-08-01 02:28:49.540,0.015,0.055
2021-08-01 02:28:49.544,0.02,0.06
2021-08-01 02:28:49.548,0.005,0.06
2021-08-01 02:28:49.552,0.005,0.045
2021-08-01 02:28:49.556,0.0,0.035
2021-08-01 02:28:49.560,0.005,0.025
2021-08-01 02:28:49.564,-0.015,0.025
2021-08-01 02:28:49.568,-0.02,0.035
2021-08-01 02:28:49.572,-0.015,0.025
2021-08-01 02:28:49.576,-0.005,0.01
2021-08-01 02:28:49.580,-0.015,0.02
2021-08-01 02:28:49.584,0.0,0.015
2021-08-01 02:28:49.588,0.0,0.03
2021-08-01 02:28:49.592,-0.005,0.025
2021-08-01 02:28:49.596,0.0,0.02
2021-08-01 02:28:49.600,0.015,-0.005
2021-08-01 02:28:49.604,0.025,-0.005
2021-08-01 02:28:49.608,0.045,0.0
2021-08-01 02:28:49.612,0.025,0.0
2021-08-01 02:28:49.616,0.04,-0.005
2021-08-01 02:28:49.620,0.045,-0.02
2021-08-01 02:28:49.624,0.025,0.0
2021-08-01 02:28:49.628,0.025,-0.015
2021-08-01 02:28:49.632,0.035,-0.015
2021-08-01 02:28:49.636,0.04,-0.02
2021-08-01 02:28:49.640,0.035,-0.05
2021-08-01 02:28:49.644,0.035,-0.045
2021-08-01 02:28:49.648,0.03,-0.05
2021-08-01 02:28:49.652,0.02,-0.04
2021-08-01 02:28:49.656,0.02,-0.065
2021-08-01 02:28:49.660,0.015,-0.055
2021-08-01 02:28:49.664,0.01,-0.04
2021-08-01 02:28:49.668,0.015,-0.05
2021-08-01 02:28:49.672,0.025,-0.07
2021-08-01 02:28:49.676,0.015,-0.06
2021-08-01 02:28:49.680,0.025,-0.075
2021-08-01 02:28:49.684,0.025,-0.09
2021-08-01 02:28:49.688,0.03,-0.07
2021-08-01 02:28:49.692,0.015,-0.01
2021-08-01 02:28:49.696,0.03,0.025
2021-08-01 02:28:49.700,0.065,0.075
2021-08-01 02:28:49.704,0.055,0.115
2021-08-01 02:28:49.708,0.07,0.12
2021-08-01 02:28:49.712,0.05,0.09
2021-08-01 02:28:49.716,0.06,0.09
2021-08-01 02:28:49.720,0.03,0.095
2021-08-01 02:28:49.724,0.025,0.07
2021-08-01 02:28:49.728,0.01,0.07
2021-08-01 02:28:49.732,0.01,0.1
2021-08-01 02:28:49.736,0.0,0.185
2021-08-01 02:28:49.740,0.025,0.34
2021-08-01 02:28:49.744,0.05,0.575
2021-08-01 02:28:49.748,0.065,0.815
2021-08-01 02:28:49.752,0.135,0.875
2021-08-01 02:28:49.756,0.21,0.7
2021-08-01 02:28:49.760,0.28,0.355
2021-08-01 02:28:49.764,0.31,-0.165
2021-08-01 02:28:49.768,0.255,-0.63
2021-08-01 02:28:49.772,0.19,-0.865
2021-08-01 02:28:49.776,0.03,-0.945
2021-08-01 02:28:49.780,-0.135,-0.825
2021-08-01 02:28:49.784,-0.225,-0.635
2021-08-01 02:28:49.788,-0.285,-0.47
2021-08-01 02:28:49.792,-0.275,-0.345
2021-08-01 02:28:49.796,-0.255,-0.23
2021-08-01 02:28:49.800,-0.205,-0.125
2021-08-01 02:28:49.804,-0.125,-0.08
2021-08-01 02:28:49.808,-0.04,-0.055
2021-08-01 02:28:49.812,-0.005,-0.05
2021-08-01 02:28:49.816,0.0,-0.07
2021-08-01 02:28:49.820,0.01,-0.07
2021-08-01 02:28:49.824,0.005,-0.075
2021-08-01 02:28:49.828,0.0,-0.1
2021-08-01 02:28:49.832,-0.015,-0.1
2021-08-01 02:28:49.836,-0.01,-0.125
2021-08-01 02:28:49.840,0.0,-0.095
2021-08-01 02:28:49.844,-0.005,-0.065
2021-08-01 02:28:49.848,0.015,-0.055
2021-08-01 02:28:49.852,0.015,-0.03
2021-08-01 02:28:49.856,0.025,-0.05
2021-08-01 02:28:49.860,0.02,-0.045
2021-08-01 02:28:49.864,0.01,-0.025
2021-08-01 02:28:49.868,-0.015,0.0
2021-08-01 02:28:49.872,-0.015,0.0
2021-08-01 02:28:49.876,-0.025,0.025
2021-08-01 02:28:49.880,-0.03,0.02
2021-08-01 02:28:49.884,-0.03,0.025
2021-08-01 02:28:49.888,-0.035,0.035
2021-08-01 02:28:49.892,-0.02,0.05
2021-08-01 02:28:49.896,-0.01,0.025
2021-08-01 02:28:49.900,-0.015,0.005
2021-08-01 02:28:49.904,-0.02,0.01
2021-08-01 02:28:49.908,-0.02,0.02
2021-08-01 02:28:49.912,-0.045,0.005
2021-08-01 02:28:49.916,-0.055,-0.015
2021-08-01 02:28:49.920,-0.06,-0.03
2021-08-01 02:28:49.924,-0.045,-0.01
2021-08-01 02:28:49.928,-0.055,-0.015
2021-08-01 02:28:49.932,-0.065,-0.01
2021-08-01 02:28:49.936,-0.045,-0.02
2021-08-01 02:28:49.940,-0.02,-0.005
2021-08-01 02:28:49.944,-0.035,0.0
2021-08-01 02:28:49.948,-0.025,0.015
2021-08-01 02:28:49.952,-0.01,0.0
2021-08-01 02:28:49.956,0.0,0.005
2021-08-01 02:28:49.960,0.0,0.015
2021-08-01 02:28:49.964,0.015,0.01
2021-08-01 02:28:49.968,0.05,-0.02
2021-08-01 02:28:49.972,0.02,-0.01
2021-08-01 02:28:49.976,0.025,-0.02
2021-08-01 02:28:49.980,0.03,-0.025
2021-08-01 02:28:49.984,0.025,-0.02
2021-08-01 02:28:49.988,0.025,0.0
2021-08-01 02:28:49.992,0.025,0.01
2021-08-01 02:28:49.996,0.055,0.045
2021-08-01 02:28:50.000,0.05,0.075
2021-08-01 02:28:50.004,0.065,0.095
2021-08-01 02:28:50.008,0.07,0.115
2021-08-01 02:28:50.012,0.065,0.13
2021-08-01 02:28:50.016,0.05,0.12
2021-08-01 02:28:50.020,0.04,0.105
2021-08-01 02:28:50.024,0.035,0.13
2021-08-01 02:28:50.028,0.025,0.155
2021-08-01 02:28:50.032,0.015,0.13
2021-08-01 02:28:50.036,0.03,0.115
2021-08-01 02:28:50.040,0.025,0.095
2021-08-01 02:28:50.044,0.015,0.095
2021-08-01 02:28:50.048,-0.005,0.09
2021-08-01 02:28:50.052,0.005,0.09
2021-08-01 02:28:50.056,0.015,0.085
2021-08-01 02:28:50.060,0.01,0.07
2021-08-01 02:28:50.064,0.025,0.07
2021-08-01 02:28:50.068,0.005,0.06
2021-08-01 02:28:50.072,0.0,0.05
2021-08-01 02:28:50.076,-0.005,0.025
2021-08-01 02:28:50.080,-0.005,0.01
2021-08-01 02:28:50.084,0.005,0.005
2021-08-01 02:28:50.088,0.02,0.015
2021-08-01 02:28:50.092,0.02,0.02
2021-08-01 02:28:50.096,0.0,0.01
2021-08-01 02:28:50.100,-0.005,0.0
2021-08-01 02:28:50.104,0.01,-0.01
2021-08-01 02:28:50.108,0.005,0.0
2021-08-01 02:28:50.112,0.01,0.005
2021-08-01 02:28:50.116,0.015,0.01
2021-08-01 02:28:50.120,0.055,-0.005
2021-08-01 02:28:50.124,0.02,-0.02
2021-08-01 02:28:50.128,0.04,-0.025
2021-08-01 02:28:50.132,0.03,-0.03
2021-08-01 02:28:50.136,0.025,-0.05
2021-08-01 02:28:50.140,0.03,-0.055
2021-08-01 02:28:50.144,0.04,-0.06
2021-08-01 02:28:50.148,0.045,-0.055
2021-08-01 02:28:50.152,0.05,-0.045
2021-08-01 02:28:50.156,0.045,-0.015
2021-08-01 02:28:50.160,0.05,0.035
2021-08-01 02:28:50.164,0.075,0.14
2021-08-01 02:28:50.168,0.07,0.275
2021-08-01 02:28:50.172,0.085,0.41
2021-08-01 02:28:50.176,0.125,0.595
2021-08-01 02:28:50.180,0.135,0.73
2021-08-01 02:28:50.184,0.19,0.645
2021-08-01 02:28:50.188,0.235,0.355
2021-08-01 02:28:50.192,0.305,-0.145
2021-08-01 02:28:50.196,0.295,-0.735
2021-08-01 02:28:50.200,0.245,-1.06
2021-08-01 02:28:50.204,0.125,-1.055
2021-08-01 02:28:50.208,-0.04,-0.91
2021-08-01 02:28:50.212,-0.19,-0.71
2021-08-01 02:28:50.216,-0.27,-0.57
2021-08-01 02:28:50.220,-0.28,-0.44
2021-08-01 02:28:50.224,-0.28,-0.335
2021-08-01 02:28:50.228,-0.255,-0.225
2021-08-01 02:28:50.232,-0.175,-0.13
2021-08-01 02:28:50.236,-0.125,-0.08
2021-08-01 02:28:50.240,-0.1,-0.085
2021-08-01 02:28:50.244,-0.045,-0.115
2021-08-01 02:28:50.248,-0.04,-0.1
2021-08-01 02:28:50.252,-0.05,-0.11
2021-08-01 02:28:50.256,-0.055,-0.115
2021-08-01 02:28:50.260,-0.055,-0.125
2021-08-01 02:28:50.264,-0.045,-0.12
2021-08-01 02:28:50.268,-0.045,-0.115
2021-08-01 02:28:50.272,-0.045,-0.1
2021-08-01 02:28:50.276,-0.04,-0.095
2021-08-01 02:28:50.280,-0.035,-0.1
2021-08-01 02:28:50.284,-0.04,-0.105
2021-08-01 02:28:50.288,-0.03,-0.105
2021-08-01 02:28:50.292,-0.02,-0.09
2021-08-01 02:28:50.296,0.0,-0.09
2021-08-01 02:28:50.300,-0.005,-0.075
2021-08-01 02:28:50.304,0.0,-0.07
2021-08-01 02:28:50.308,0.0,-0.065
2021-08-01 02:28:50.312,0.03,-0.06
2021-08-01 02:28:50.316,0.035,-0.045
2021-08-01 02:28:50.320,0.055,-0.045
2021-08-01 02:28:50.324,0.045,-0.015
2021-08-01 02:28:50.328,0.05,-0.015
2021-08-01 02:28:50.332,0.065,-0.02
2021-08-01 02:28:50.336,0.05,-0.04
2021-08-01 02:28:50.340,0.06,-0.06
2021-08-01 02:28:50.344,0.03,-0.08
2021-08-01 02:28:50.348,-0.015,-0.105
2021-08-01 02:28:50.352,-0.045,-0.1
2021-08-01 02:28:50.356,-0.06,-0.12
2021-08-01 02:28:50.360,-0.075,-0.135
2021-08-01 02:28:50.364,-0.08,-0.15
2021-08-01 02:28:50.368,-0.08,-0.125
2021-08-01 02:28:50.372,-0.08,-0.125
2021-08-01 02:28:50.376,-0.095,-0.13
2021-08-01 02:28:50.380,-0.085,-0.145
2021-08-01 02:28:50.384,-0.095,-0.12
2021-08-01 02:28:50.388,-0.115,-0.125
2021-08-01 02:28:50.392,-0.08,-0.13
2021-08-01 02:28:50.396,-0.075,-0.11
2021-08-01 02:28:50.400,-0.07,-0.115
2021-08-01 02:28:50.404,-0.085,-0.115
2021-08-01 02:28:50.408,-0.065,-0.1
2021-08-01 02:28:50.412,-0.075,-0.085
2021-08-01 02:28:50.416,-0.07,-0.075
2021-08-01 02:28:50.420,-0.065,-0.06
2021-08-01 02:28:50.424,-0.075,-0.055
2021-08-01 02:28:50.428,-0.04,-0.05
2021-08-01 02:28:50.432,-0.05,-0.035
2021-08-01 02:28:50.436,-0.005,-0.025
2021-08-01 02:28:50.440,-0.03,-0.035
2021-08-01 02:28:50.444,-0.02,-0.03
2021-08-01 02:28:50.448,0.0,-0.02
2021-08-01 02:28:50.452,-0.01,-0.01
2021-08-01 02:28:50.456,-0.01,-0.04
2021-08-01 02:28:50.460,0.01,-0.035
2021-08-01 02:28:50.464,0.01,-0.02
2021-08-01 02:28:50.468,0.025,-0.035
2021-08-01 02:28:50.472,0.025,-0.025
2021-08-01 02:28:50.476,0.035,-0.03
2021-08-01 02:28:50.480,0.035,-0.055
2021-08-01 02:28:50.484,0.05,-0.05
2021-08-01 02:28:50.488,0.05,-0.035
2021-08-01 02:28:50.492,0.05,-0.03
2021-08-01 02:28:50.496,0.05,-0.06
2021-08-01 02:28:50.500,0.075,-0.08
2021-08-01 02:28:50.504,0.085,-0.09
2021-08-01 02:28:50.508,0.08,-0.08
2021-08-01 02:28:50.512,0.09,-0.07
2021-08-01 02:28:50.516,0.085,-0.045
2021-08-01 02:28:50.520,0.1,-0.015
2021-08-01 02:28:50.524,0.09,-0.015
2021-08-01 02:28:50.528,0.105,-0.005
2021-08-01 02:28:50.532,0.08,0.005
2021-08-01 02:28:50.536,0.045,-0.03
2021-08-01 02:28:50.540,0.04,-0.05
2021-08-01 02:28:50.544,0.01,-0.055
2021-08-01 02:28:50.548,-0.005,-0.045
2021-08-01 02:28:50.552,-0.03,-0.04
2021-08-01 02:28:50.556,-0.01,-0.03
2021-08-01 02:28:50.560,-0.005,-0.045
2021-08-01 02:28:50.564,-0.015,-0.045
2021-08-01 02:28:50.568,0.0,-0.04
2021-08-01 02:28:50.572,0.0,-0.05
2021-08-01 02:28:50.576,0.01,-0.045
2021-08-01 02:28:50.580,0.0,-0.05
2021-08-01 02:28:50.584,-0.005,-0.055
2021-08-01 02:28:50.588,0.0,-0.045
2021-08-01 02:28:50.592,0.005,-0.03
2021-08-01 02:28:50.596,0.015,-0.035
2021-08-01 02:28:50.600,0.01,-0.05
2021-08-01 02:28:50.604,0.01,-0.04
2021-08-01 02:28:50.608,0.0,-0.04
2021-08-01 02:28:50.612,0.02,-0.045
2021-08-01 02:28:50.616,-0.005,-0.025
2021-08-01 02:28:50.620,0.005,-0.035
2021-08-01 02:28:50.624,0.02,-0.065
2021-08-01 02:28:50.628,0.015,-0.055
2021-08-01 02:28:50.632,0.005,-0.055
2021-08-01 02:28:50.636,0.005,-0.045
2021-08-01 02:28:50.640,0.015,-0.03
2021-08-01 02:28:50.644,0.03,-0.025
2021-08-01 02:28:50.648,0.02,-0.05
2021-08-01 02:28:50.652,0.02,-0.05
2021-08-01 02:28:50.656,0.01,-0.05
2021-08-01 02:28:50.660,0.0,-0.075
2021-08-01 02:28:50.664,0.015,-0.08
2021-08-01 02:28:50.668,0.03,-0.095
2021-08-01 02:28:50.672,0.015,-0.095
2021-08-01 02:28:50.676,0.035,-0.12
2021-08-01 02:28:50.680,0.03,-0.15
2021-08-01 02:28:50.684,0.03,-0.16
2021-08-01 02:28:50.688,0.03,-0.125
2021-08-01 02:28:50.692,0.05,-0.08
2021-08-01 02:28:50.696,0.06,-0.08
2021-08-01 02:28:50.700,0.055,-0.09
2021-08-01 02:28:50.704,0.055,-0.105
2021-08-01 02:28:50.708,0.035,-0.115
2021-08-01 02:28:50.712,0.015,-0.105
2021-08-01 02:28:50.716,0.02,-0.1
2021-08-01 02:28:50.720,0.02,-0.1
2021-08-01 02:28:50.724,0.005,-0.12
2021-08-01 02:28:50.728,-0.015,-0.13
2021-08-01 02:28:50.732,-0.005,-0.125
2021-08-01 02:28:50.736,-0.02,-0.075
2021-08-01 02:28:50.740,-0.005,0.025
2021-08-01 02:28:50.744,0.0,0.17
2021-08-01 02:28:50.748,0.05,0.38
2021-08-01 02:28:50.752,0.055,0.635
2021-08-01 02:28:50.756,0.105,0.805
2021-08-01 02:28:50.760,0.18,0.76
2021-08-01 02:28:50.764,0.25,0.53
2021-08-01 02:28:50.768,0.28,0.045
2021-08-01 02:28:50.772,0.265,-0.575
2021-08-01 02:28:50.776,0.195,-0.945
2021-08-01 02:28:50.780,0.045,-1.075
2021-08-01 02:28:50.784,-0.14,-1.03
2021-08-01 02:28:50.788,-0.275,-0.86
2021-08-01 02:28:50.792,-0.345,-0.685
2021-08-01 02:28:50.796,-0.335,-0.56
2021-08-01 02:28:50.800,-0.32,-0.445
2021-08-01 02:28:50.804,-0.295,-0.32
2021-08-01 02:28:50.808,-0.225,-0.22
2021-08-01 02:28:50.812,-0.135,-0.16
2021-08-01 02:28:50.816,-0.055,-0.15
2021-08-01 02:28:50.820,-0.025,-0.165
2021-08-01 02:28:50.824,-0.03,-0.16
2021-08-01 02:28:50.828,-0.02,-0.155
2021-08-01 02:28:50.832,-0.02,-0.165
2021-08-01 02:28:50.836,-0.015,-0.205
2021-08-01 02:28:50.840,-0.015,-0.24
2021-08-01 02:28:50.844,-0.02,-0.24
2021-08-01 02:28:50.848,-0.03,-0.21
2021-08-01 02:28:50.852,-0.03,-0.205
2021-08-01 02:28:50.856,-0.005,-0.17
2021-08-01 02:28:50.860,-0.015,-0.145
2021-08-01 02:28:50.864,-0.01,-0.13
2021-08-01 02:28:50.868,0.0,-0.135
2021-08-01 02:28:50.872,-0.02,-0.115
2021-08-01 02:28:50.876,-0.03,-0.115
2021-08-01 02:28:50.880,-0.04,-0.115
2021-08-01 02:28:50.884,-0.035,-0.125
2021-08-01 02:28:50.888,-0.06,-0.125
2021-08-01 02:28:50.892,-0.03,-0.145
2021-08-01 02:28:50.896,-0.04,-0.14
2021-08-01 02:28:50.900,-0.04,-0.135
2021-08-01 02:28:50.904,-0.07,-0.135
2021-08-01 02:28:50.908,-0.06,-0.15
2021-08-01 02:28:50.912,-0.06,-0.135
2021-08-01 02:28:50.916,-0.065,-0.14
2021-08-01 02:28:50.920,-0.065,-0.145
2021-08-01 02:28:50.924,-0.05,-0.125
2021-08-01 02:28:50.928,-0.05,-0.125
2021-08-01 02:28:50.932,-0.065,-0.13
2021-08-01 02:28:50.936,-0.04,-0.115
2021-08-01 02:28:50.940,-0.035,-0.12
2021-08-01 02:28:50.944,-0.04,-0.125
2021-08-01 02:28:50.948,-0.02,-0.135
2021-08-01 02:28:50.952,-0.055,-0.135
2021-08-01 02:28:50.956,-0.05,-0.13
2021-08-01 02:28:50.960,-0.05,-0.14
2021-08-01 02:28:50.964,-0.04,-0.13
2021-08-01 02:28:50.968,-0.035,-0.13
2021-08-01 02:28:50.972,-0.045,-0.125
2021-08-01 02:28:50.976,-0.06,-0.105
2021-08-01 02:28:50.980,-0.045,-0.1
2021-08-01 02:28:50.984,-0.04,-0.1
2021-08-01 02:28:50.988,-0.025,-0.07
2021-08-01 02:28:50.992,-0.01,-0.08
2021-08-01 02:28:50.996,0.0,-0.065
2021-08-01 02:28:51.000,-0.005,-0.08
2021-08-01 02:28:51.004,0.0,-0.075
2021-08-01 02:28:51.008,0.025,-0.01
2021-08-01 02:28:51.012,0.04,0.005
2021-08-01 02:28:51.016,0.065,0.035
2021-08-01 02:28:51.020,0.075,0.055
2021-08-01 02:28:51.024,0.05,0.05
2021-08-01 02:28:51.028,0.04,0.055
2021-08-01 02:28:51.032,0.035,0.045
2021-08-01 02:28:51.036,0.035,0.07
2021-08-01 02:28:51.040,0.025,0.06
2021-08-01 02:28:51.044,0.025,0.015
2021-08-01 02:28:51.048,0.005,0.015
2021-08-01 02:28:51.052,0.0,0.005
2021-08-01 02:28:51.056,0.0,-0.005
2021-08-01 02:28:51.060,0.0,-0.025
2021-08-01 02:28:51.064,0.0,-0.045
2021-08-01 02:28:51.068,-0.01,-0.075
2021-08-01 02:28:51.072,-0.02,-0.085
2021-08-01 02:28:51.076,-0.01,-0.085
2021-08-01 02:28:51.080,-0.04,-0.095
2021-08-01 02:28:51.084,-0.03,-0.1
2021-08-01 02:28:51.088,-0.035,-0.1
2021-08-01 02:28:51.092,-0.025,-0.1
2021-08-01 02:28:51.096,-0.03,-0.12
2021-08-01 02:28:51.100,-0.03,-0.11
2021-08-01 02:28:51.104,-0.03,-0.11
2021-08-01 02:28:51.108,-0.035,-0.115
2021-08-01 02:28:51.112,-0.035,-0.125
2021-08-01 02:28:51.116,-0.01,-0.135
2021-08-01 02:28:51.120,-0.015,-0.14
2021-08-01 02:28:51.124,-0.015,-0.155
2021-08-01 02:28:51.128,-0.015,-0.155
2021-08-01 02:28:51.132,-0.015,-0.155
2021-08-01 02:28:51.136,-0.02,-0.16
2021-08-01 02:28:51.140,-0.025,-0.18
2021-08-01 02:28:51.144,-0.03,-0.185
2021-08-01 02:28:51.148,-0.04,-0.195
2021-08-01 02:28:51.152,-0.04,-0.195
2021-08-01 02:28:51.156,-0.025,-0.185
2021-08-01 02:28:51.160,-0.03,-0.205
2021-08-01 02:28:51.164,-0.005,-0.21
2021-08-01 02:28:51.168,-0.01,-0.215
2021-08-01 02:28:51.172,-0.005,-0.145
2021-08-01 02:28:51.176,-0.005,-0.1
2021-08-01 02:28:51.180,0.015,-0.08
2021-08-01 02:28:51.184,0.015,-0.1
2021-08-01 02:28:51.188,0.0,-0.095
2021-08-01 02:28:51.192,0.01,-0.095
2021-08-01 02:28:51.196,0.0,-0.115
2021-08-01 02:28:51.200,-0.005,-0.12
2021-08-01 02:28:51.204,-0.035,-0.12
2021-08-01 02:28:51.208,-0.03,-0.145
2021-08-01 02:28:51.212,-0.01,-0.14
2021-08-01 02:28:51.216,-0.03,-0.13
2021-08-01 02:28:51.220,-0.035,-0.115
2021-08-01 02:28:51.224,-0.035,-0.13
2021-08-01 02:28:51.228,-0.035,-0.145
2021-08-01 02:28:51.232,-0.03,-0.13
2021-08-01 02:28:51.236,-0.025,-0.15
2021-08-01 02:28:51.240,-0.035,-0.13
2021-08-01 02:28:51.244,-0.06,-0.035
2021-08-01 02:28:51.248,-0.015,0.115
2021-08-01 02:28:51.252,0.015,0.34
2021-08-01 02:28:51.256,0.045,0.55
2021-08-01 02:28:51.260,0.105,0.665
2021-08-01 02:28:51.264,0.17,0.53
2021-08-01 02:28:51.268,0.23,0.205
2021-08-01 02:28:51.272,0.22,-0.31
2021-08-01 02:28:51.276,0.155,-0.795
2021-08-01 02:28:51.280,0.065,-1.045
2021-08-01 02:28:51.284,-0.115,-1.07
2021-08-01 02:28:51.288,-0.28,-0.96
2021-08-01 02:28:51.292,-0.365,-0.78
2021-08-01 02:28:51.296,-0.395,-0.625
2021-08-01 02:28:51.300,-0.345,-0.485
2021-08-01 02:28:51.304,-0.295,-0.375
2021-08-01 02:28:51.308,-0.245,-0.3
2021-08-01 02:28:51.312,-0.14,-0.26
2021-08-01 02:28:51.316,-0.095,-0.255
2021-08-01 02:28:51.320,-0.065,-0.235
2021-08-01 02:28:51.324,-0.055,-0.22
2021-08-01 02:28:51.328,-0.05,-0.245
2021-08-01 02:28:51.332,-0.055,-0.235
2021-08-01 02:28:51.336,-0.06,-0.225
2021-08-01 02:28:51.340,-0.065,-0.195
2021-08-01 02:28:51.344,-0.05,-0.16
2021-08-01 02:28:51.348,-0.06,-0.175
2021-08-01 02:28:51.352,-0.045,-0.16
2021-08-01 02:28:51.356,-0.04,-0.165
2021-08-01 02:28:51.360,-0.035,-0.155
2021-08-01 02:28:51.364,-0.04,-0.165
2021-08-01 02:28:51.368,-0.05,-0.19
2021-08-01 02:28:51.372,-0.025,-0.21
2021-08-01 02:28:51.376,-0.03,-0.22
2021-08-01 02:28:51.380,-0.045,-0.25
2021-08-01 02:28:51.384,-0.07,-0.255
2021-08-01 02:28:51.388,-0.055,-0.27
2021-08-01 02:28:51.392,-0.075,-0.265
2021-08-01 02:28:51.396,-0.08,-0.28
2021-08-01 02:28:51.400,-0.075,-0.27
2021-08-01 02:28:51.404,-0.085,-0.285
2021-08-01 02:28:51.408,-0.09,-0.28
2021-08-01 02:28:51.412,-0.08,-0.285
2021-08-01 02:28:51.416,-0.08,-0.275
2021-08-01 02:28:51.420,-0.08,-0.275
2021-08-01 02:28:51.424,-0.065,-0.275
2021-08-01 02:28:51.428,-0.07,-0.28
2021-08-01 02:28:51.432,-0.06,-0.275
2021-08-01 02:28:51.436,-0.065,-0.28
2021-08-01 02:28:51.440,-0.065,-0.275
2021-08-01 02:28:51.444,-0.055,-0.25
2021-08-01 02:28:51.448,-0.055,-0.275
2021-08-01 02:28:51.452,-0.025,-0.27
2021-08-01 02:28:51.456,-0.055,-0.26
2021-08-01 02:28:51.460,-0.04,-0.24
2021-08-01 02:28:51.464,-0.04,-0.24
2021-08-01 02:28:51.468,-0.03,-0.25
2021-08-01 02:28:51.472,-0.03,-0.23
2021-08-01 02:28:51.476,-0.04,-0.175
2021-08-01 02:28:51.480,0.005,-0.155
2021-08-01 02:28:51.484,0.015,-0.16
2021-08-01 02:28:51.488,0.005,-0.145
2021-08-01 02:28:51.492,-0.015,-0.14
2021-08-01 02:28:51.496,-0.03,-0.1
2021-08-01 02:28:51.500,-0.04,-0.085
2021-08-01 02:28:51.504,-0.035,-0.09
2021-08-01 02:28:51.508,-0.02,-0.095
2021-08-01 02:28:51.512,-0.035,-0.085
2021-08-01 02:28:51.516,-0.02,-0.065
2021-08-01 02:28:51.520,-0.03,-0.055
2021-08-01 02:28:51.524,-0.035,-0.05
2021-08-01 02:28:51.528,-0.03,-0.04
2021-08-01 02:28:51.532,-0.01,-0.025
2021-08-01 02:28:51.536,0.0,-0.015
2021-08-01 02:28:51.540,-0.005,-0.01
2021-08-01 02:28:51.544,0.005,-0.02
2021-08-01 02:28:51.548,-0.005,-0.025
2021-08-01 02:28:51.552,0.01,-0.075
2021-08-01 02:28:51.556,0.03,-0.095
2021-08-01 02:28:51.560,0.005,-0.12
2021-08-01 02:28:51.564,0.015,-0.135
2021-08-01 02:28:51.568,0.0,-0.13
2021-08-01 02:28:51.572,-0.005,-0.145
2021-08-01 02:28:51.576,0.015,-0.175
2021-08-01 02:28:51.580,0.015,-0.17
2021-08-01 02:28:51.584,0.005,-0.18
2021-08-01 02:28:51.588,0.01,-0.195
2021-08-01 02:28:51.592,0.01,-0.19
2021-08-01 02:28:51.596,0.005,-0.2
2021-08-01 02:28:51.600,0.0,-0.205
2021-08-01 02:28:51.604,0.0,-0.2
2021-08-01 02:28:51.608,-0.015,-0.215
2021-08-01 02:28:51.612,0.0,-0.215
2021-08-01 02:28:51.616,0.0,-0.215
2021-08-01 02:28:51.620,0.015,-0.22
2021-08-01 02:28:51.624,0.01,-0.215
2021-08-01 02:28:51.628,-0.01,-0.23
2021-08-01 02:28:51.632,0.0,-0.205
2021-08-01 02:28:51.636,0.015,-0.155
2021-08-01 02:28:51.640,0.01,-0.125
2021-08-01 02:28:51.644,0.025,-0.14
2021-08-01 02:28:51.648,0.02,-0.145
2021-08-01 02:28:51.652,0.0,-0.13
2021-08-01 02:28:51.656,-0.01,-0.125
2021-08-01 02:28:51.660,0.005,-0.125
2021-08-01 02:28:51.664,-0.015,-0.12
2021-08-01 02:28:51.668,-0.015,-0.15
2021-08-01 02:28:51.672,-0.025,-0.155
2021-08-01 02:28:51.676,-0.005,-0.17
2021-08-01 02:28:51.680,-0.045,-0.165
2021-08-01 02:28:51.684,-0.025,-0.175
2021-08-01 02:28:51.688,-0.04,-0.17
2021-08-01 02:28:51.692,-0.045,-0.185
2021-08-01 02:28:51.696,-0.045,-0.185
2021-08-01 02:28:51.700,-0.06,-0.19
2021-08-01 02:28:51.704,-0.05,-0.17
2021-08-01 02:28:51.708,-0.045,-0.17
2021-08-01 02:28:51.712,-0.045,-0.19
2021-08-01 02:28:51.716,-0.02,-0.16
2021-08-01 02:28:51.720,-0.03,-0.14
2021-08-01 02:28:51.724,-0.01,-0.15
2021-08-01 02:28:51.728,0.0,-0.145
2021-08-01 02:28:51.732,0.015,-0.16
2021-08-01 02:28:51.736,0.015,-0.16
2021-08-01 02:28:51.740,0.01,-0.175
2021-08-01 02:28:51.744,-0.01,-0.18
2021-08-01 02:28:51.748,-0.005,-0.195
2021-08-01 02:28:51.752,0.01,-0.21
2021-08-01 02:28:51.756,0.035,-0.22
2021-08-01 02:28:51.760,0.01,-0.22
2021-08-01 02:28:51.764,0.01,-0.22
2021-08-01 02:28:51.768,0.0,-0.27
2021-08-01 02:28:51.772,0.0,-0.285
2021-08-01 02:28:51.776,-0.02,-0.26
2021-08-01 02:28:51.780,-0.01,-0.27
2021-08-01 02:28:51.784,0.0,-0.265
2021-08-01 02:28:51.788,0.005,-0.235
2021-08-01 02:28:51.792,0.01,-0.2
2021-08-01 02:28:51.796,0.015,-0.195
2021-08-01 02:28:51.800,0.01,-0.14
2021-08-01 02:28:51.804,0.015,-0.06
2021-08-01 02:28:51.808,0.035,0.09
2021-08-01 02:28:51.812,0.04,0.28
2021-08-01 02:28:51.816,0.1,0.515
2021-08-01 02:28:51.820,0.12,0.695
2021-08-01 02:28:51.824,0.18,0.72
2021-08-01 02:28:51.828,0.23,0.565
2021-08-01 02:28:51.832,0.3,0.145
2021-08-01 02:28:51.836,0.29,-0.475
2021-08-01 02:28:51.840,0.245,-0.91
2021-08-01 02:28:51.844,0.125,-1.12
2021-08-01 02:28:51.848,-0.025,-1.125
2021-08-01 02:28:51.852,-0.18,-0.975
2021-08-01 02:28:51.856,-0.295,-0.8
2021-08-01 02:28:51.860,-0.335,-0.665
2021-08-01 02:28:51.864,-0.285,-0.505
2021-08-01 02:28:51.868,-0.275,-0.395
2021-08-01 02:28:51.872,-0.245,-0.295
2021-08-01 02:28:51.876,-0.14,-0.245
2021-08-01 02:28:51.880,-0.08,-0.23
2021-08-01 02:28:51.884,-0.045,-0.24
2021-08-01 02:28:51.888,-0.04,-0.245
2021-08-01 02:28:51.892,-0.04,-0.245
2021-08-01 02:28:51.896,-0.065,-0.24
2021-08-01 02:28:51.900,-0.025,-0.245
2021-08-01 02:28:51.904,-0.035,-0.235
2021-08-01 02:28:51.908,-0.045,-0.23
2021-08-01 02:28:51.912,-0.04,-0.22
2021-08-01 02:28:51.916,-0.05,-0.24
2021-08-01 02:28:51.920,-0.015,-0.235
2021-08-01 02:28:51.924,-0.005,-0.24
2021-08-01 02:28:51.928,-0.01,-0.22
2021-08-01 02:28:51.932,0.005,-0.21
2021-08-01 02:28:51.936,-0.015,-0.205
2021-08-01 02:28:51.940,-0.01,-0.225
2021-08-01 02:28:51.944,0.015,-0.23
2021-08-01 02:28:51.948,0.02,-0.22
2021-08-01 02:28:51.952,-0.005,-0.2
2021-08-01 02:28:51.956,0.01,-0.23
2021-08-01 02:28:51.960,0.01,-0.25
2021-08-01 02:28:51.964,0.015,-0.24
2021-08-01 02:28:51.968,0.025,-0.22
2021-08-01 02:28:51.972,0.03,-0.205
2021-08-01 02:28:51.976,0.01,-0.18
2021-08-01 02:28:51.980,0.0,-0.19
2021-08-01 02:28:51.984,0.02,-0.175
2021-08-01 02:28:51.988,0.0,-0.16
2021-08-01 02:28:51.992,-0.005,-0.205
2021-08-01 02:28:51.996,-0.015,-0.23
2021-08-01 02:28:52.000,-0.04,-0.2
2021-08-01 02:28:52.004,-0.07,-0.21
2021-08-01 02:28:52.008,-0.085,-0.23
2021-08-01 02:28:52.012,-0.08,-0.24
2021-08-01 02:28:52.016,-0.095,-0.24
2021-08-01 02:28:52.020,-0.095,-0.235
2021-08-01 02:28:52.024,-0.09,-0.245
2021-08-01 02:28:52.028,-0.1,-0.24
2021-08-01 02:28:52.032,-0.095,-0.255
2021-08-01 02:28:52.036,-0.095,-0.25
2021-08-01 02:28:52.040,-0.1,-0.225
2021-08-01 02:28:52.044,-0.11,-0.215
2021-08-01 02:28:52.048,-0.105,-0.21
2021-08-01 02:28:52.052,-0.085,-0.215
2021-08-01 02:28:52.056,-0.08,-0.21
2021-08-01 02:28:52.060,-0.085,-0.2
2021-08-01 02:28:52.064,-0.08,-0.185
2021-08-01 02:28:52.068,-0.075,-0.175
2021-08-01 02:28:52.072,-0.09,-0.145
2021-08-01 02:28:52.076,-0.08,-0.145
2021-08-01 02:28:52.080,-0.075,-0.155
2021-08-01 02:28:52.084,-0.05,-0.14
2021-08-01 02:28:52.088,-0.055,-0.135
2021-08-01 02:28:52.092,-0.06,-0.16
2021-08-01 02:28:52.096,-0.06,-0.13
2021-08-01 02:28:52.100,-0.06,-0.12
2021-08-01 02:28:52.104,-0.065,-0.125
2021-08-01 02:28:52.108,-0.04,-0.115
2021-08-01 02:28:52.112,-0.035,-0.105
2021-08-01 02:28:52.116,-0.04,-0.13
2021-08-01 02:28:52.120,-0.04,-0.145
2021-08-01 02:28:52.124,-0.025,-0.16
2021-08-01 02:28:52.128,-0.02,-0.165
2021-08-01 02:28:52.132,-0.01,-0.17
2021-08-01 02:28:52.136,-0.02,-0.16
2021-08-01 02:28:52.140,-0.01,-0.145
2021-08-01 02:28:52.144,0.01,-0.14
2021-08-01 02:28:52.148,0.01,-0.12
2021-08-01 02:28:52.152,0.02,-0.135
2021-08-01 02:28:52.156,0.04,-0.15
2021-08-01 02:28:52.160,0.05,-0.125
2021-08-01 02:28:52.164,0.05,-0.08
2021-08-01 02:28:52.168,0.06,-0.05
2021-08-01 02:28:52.172,0.065,-0.05
2021-08-01 02:28:52.176,0.1,-0.06
2021-08-01 02:28:52.180,0.095,-0.075
2021-08-01 02:28:52.184,0.08,-0.075
2021-08-01 02:28:52.188,0.065,-0.09
2021-08-01 02:28:52.192,0.035,-0.125
2021-08-01 02:28:52.196,0.025,-0.13
2021-08-01 02:28:52.200,0.01,-0.145
2021-08-01 02:28:52.204,-0.01,-0.15
2021-08-01 02:28:52.208,-0.025,-0.17
2021-08-01 02:28:52.212,-0.035,-0.18
2021-08-01 02:28:52.216,-0.03,-0.18
2021-08-01 02:28:52.220,-0.015,-0.2
2021-08-01 02:28:52.224,-0.02,-0.195
2021-08-01 02:28:52.228,-0.035,-0.2
2021-08-01 02:28:52.232,-0.04,-0.18
2021-08-01 02:28:52.236,-0.04,-0.19
2021-08-01 02:28:52.240,-0.035,-0.205
2021-08-01 02:28:52.244,-0.025,-0.21
2021-08-01 02:28:52.248,-0.03,-0.215
2021-08-01 02:28:52.252,-0.04,-0.225
2021-08-01 02:28:52.256,-0.045,-0.225
2021-08-01 02:28:52.260,-0.03,-0.225
2021-08-01 02:28:52.264,-0.045,-0.21
2021-08-01 02:28:52.268,-0.04,-0.205
2021-08-01 02:28:52.272,-0.02,-0.225
2021-08-01 02:28:52.276,-0.04,-0.235
2021-08-01 02:28:52.280,-0.04,-0.235
2021-08-01 02:28:52.284,-0.045,-0.225
2021-08-01 02:28:52.288,-0.045,-0.235
2021-08-01 02:28:52.292,-0.055,-0.24
2021-08-01 02:28:52.296,-0.05,-0.24
2021-08-01 02:28:52.300,-0.045,-0.245
2021-08-01 02:28:52.304,-0.07,-0.24
2021-08-01 02:28:52.308,-0.045,-0.235
2021-08-01 02:28:52.312,-0.035,-0.25
2021-08-01 02:28:52.316,-0.06,-0.245
2021-08-01 02:28:52.320,-0.06,-0.24
2021-08-01 02:28:52.324,-0.05,-0.26
2021-08-01 02:28:52.328,-0.03,-0.275
2021-08-01 02:28:52.332,-0.055,-0.245
2021-08-01 02:28:52.336,-0.035,-0.26
2021-08-01 02:28:52.340,-0.02,-0.28
2021-08-01 02:28:52.344,-0.01,-0.295
2021-08-01 02:28:52.348,-0.005,-0.26
2021-08-01 02:28:52.352,0.0,-0.22
2021-08-01 02:28:52.356,0.01,-0.23
2021-08-01 02:28:52.360,0.0,-0.22
2021-08-01 02:28:52.364,0.01,-0.22
2021-08-01 02:28:52.368,0.01,-0.195
2021-08-01 02:28:52.372,0.0,-0.16
2021-08-01 02:28:52.376,0.005,-0.18
2021-08-01 02:28:52.380,0.005,-0.205
2021-08-01 02:28:52.384,0.0,-0.21
2021-08-01 02:28:52.388,-0.02,-0.195
2021-08-01 02:28:52.392,-0.005,-0.18
2021-08-01 02:28:52.396,-0.02,-0.125
2021-08-01 02:28:52.400,-0.02,-0.015
2021-08-01 02:28:52.404,-0.005,0.135
2021-08-01 02:28:52.408,0.015,0.365
2021-08-01 02:28:52.412,0.03,0.56
2021-08-01 02:28:52.416,0.07,0.535
2021-08-01 02:28:52.420,0.17,0.325
2021-08-01 02:28:52.424,0.21,-0.12
2021-08-01 02:28:52.428,0.215,-0.705
2021-08-01 02:28:52.432,0.19,-1.11
2021-08-01 02:28:52.436,0.13,-1.275
2021-08-01 02:28:52.440,0.02,-1.225
2021-08-01 02:28:52.444,-0.125,-1.03
2021-08-01 02:28:52.448,-0.22,-0.89
2021-08-01 02:28:52.452,-0.305,-0.755
2021-08-01 02:28:52.456,-0.32,-0.635
2021-08-01 02:28:52.460,-0.305,-0.515
2021-08-01 02:28:52.464,-0.24,-0.385
2021-08-01 02:28:52.468,-0.195,-0.33
2021-08-01 02:28:52.472,-0.115,-0.32
2021-08-01 02:28:52.476,-0.065,-0.33
2021-08-01 02:28:52.480,-0.085,-0.33
2021-08-01 02:28:52.484,-0.07,-0.345
2021-08-01 02:28:52.488,-0.06,-0.325
2021-08-01 02:28:52.492,-0.08,-0.32
2021-08-01 02:28:52.496,-0.07,-0.34
2021-08-01 02:28:52.500,-0.05,-0.355
2021-08-01 02:28:52.504,-0.07,-0.355
2021-08-01 02:28:52.508,-0.07,-0.34
2021-08-01 02:28:52.512,-0.07,-0.335
2021-08-01 02:28:52.516,-0.065,-0.325
2021-08-01 02:28:52.520,-0.045,-0.285
2021-08-01 02:28:52.524,-0.025,-0.255
2021-08-01 02:28:52.528,0.01,-0.24
2021-08-01 02:28:52.532,0.01,-0.235
2021-08-01 02:28:52.536,0.0,-0.225
2021-08-01 02:28:52.540,-0.02,-0.205
2021-08-01 02:28:52.544,-0.02,-0.21
2021-08-01 02:28:52.548,-0.02,-0.215
2021-08-01 02:28:52.552,-0.03,-0.23
2021-08-01 02:28:52.556,-0.03,-0.24
2021-08-01 02:28:52.560,-0.045,-0.26
2021-08-01 02:28:52.564,-0.065,-0.27
2021-08-01 02:28:52.568,-0.05,-0.285
2021-08-01 02:28:52.572,-0.06,-0.295
2021-08-01 02:28:52.576,-0.075,-0.305
2021-08-01 02:28:52.580,-0.06,-0.305
2021-08-01 02:28:52.584,-0.07,-0.3
2021-08-01 02:28:52.588,-0.075,-0.3
2021-08-01 02:28:52.592,-0.07,-0.295
2021-08-01 02:28:52.596,-0.085,-0.305
2021-08-01 02:28:52.600,-0.085,-0.31
2021-08-01 02:28:52.604,-0.105,-0.305
2021-08-01 02:28:52.608,-0.09,-0.315
2021-08-01 02:28:52.612,-0.08,-0.32
2021-08-01 02:28:52.616,-0.08,-0.315
2021-08-01 02:28:52.620,-0.095,-0.31
2021-08-01 02:28:52.624,-0.085,-0.3
2021-08-01 02:28:52.628,-0.09,-0.32
2021-08-01 02:28:52.632,-0.09,-0.305
2021-08-01 02:28:52.636,-0.095,-0.32
2021-08-01 02:28:52.640,-0.08,-0.345
2021-08-01 02:28:52.644,-0.09,-0.32
2021-08-01 02:28:52.648,-0.1,-0.33
2021-08-01 02:28:52.652,-0.075,-0.345
2021-08-01 02:28:52.656,-0.09,-0.335
2021-08-01 02:28:52.660,-0.105,-0.335
2021-08-01 02:28:52.664,-0.1,-0.33
2021-08-01 02:28:52.668,-0.09,-0.33
2021-08-01 02:28:52.672,-0.09,-0.325
2021-08-01 02:28:52.676,-0.08,-0.315
2021-08-01 02:28:52.680,-0.085,-0.29
2021-08-01 02:28:52.684,-0.085,-0.235
2021-08-01 02:28:52.688,-0.08,-0.175
2021-08-01 02:28:52.692,-0.065,-0.125
2021-08-01 02:28:52.696,-0.05,-0.095
2021-08-01 02:28:52.700,-0.05,-0.08
2021-08-01 02:28:52.704,-0.01,-0.08
2021-08-01 02:28:52.708,0.005,-0.06
2021-08-01 02:28:52.712,0.005,-0.08
2021-08-01 02:28:52.716,0.02,-0.1
2021-08-01 02:28:52.720,0.01,-0.145
2021-08-01 02:28:52.724,-0.02,-0.15
2021-08-01 02:28:52.728,-0.015,-0.17
2021-08-01 02:28:52.732,-0.01,-0.19
2021-08-01 02:28:52.736,-0.01,-0.185
2021-08-01 02:28:52.740,-0.03,-0.185
2021-08-01 02:28:52.744,-0.02,-0.18
2021-08-01 02:28:52.748,-0.015,-0.185
2021-08-01 02:28:52.752,-0.01,-0.19
2021-08-01 02:28:52.756,-0.015,-0.175
2021-08-01 02:28:52.760,-0.025,-0.18
2021-08-01 02:28:52.764,-0.015,-0.19
2021-08-01 02:28:52.768,-0.015,-0.165
2021-08-01 02:28:52.772,-0.005,-0.18
2021-08-01 02:28:52.776,0.0,-0.175
2021-08-01 02:28:52.780,-0.01,-0.195
2021-08-01 02:28:52.784,-0.01,-0.2
2021-08-01 02:28:52.788,-0.03,-0.22
2021-08-01 02:28:52.792,0.0,-0.205
2021-08-01 02:28:52.796,-0.02,-0.235
2021-08-01 02:28:52.800,-0.025,-0.235
2021-08-01 02:28:52.804,-0.025,-0.245
2021-08-01 02:28:52.808,-0.03,-0.22
2021-08-01 02:28:52.812,-0.03,-0.23
2021-08-01 02:28:52.816,-0.02,-0.25
2021-08-01 02:28:52.820,-0.03,-0.25
2021-08-01 02:28:52.824,-0.04,-0.25
2021-08-01 02:28:52.828,-0.03,-0.28
2021-08-01 02:28:52.832,-0.035,-0.3
2021-08-01 02:28:52.836,-0.045,-0.295
2021-08-01 02:28:52.840,-0.045,-0.275
2021-08-01 02:28:52.844,-0.055,-0.255
2021-08-01 02:28:52.848,-0.015,-0.24
2021-08-01 02:28:52.852,-0.02,-0.21
2021-08-01 02:28:52.856,-0.02,-0.2
2021-08-01 02:28:52.860,-0.055,-0.185
2021-08-01 02:28:52.864,-0.05,-0.165
2021-08-01 02:28:52.868,-0.035,-0.14
2021-08-01 02:28:52.872,-0.05,-0.14
2021-08-01 02:28:52.876,-0.03,-0.145
2021-08-01 02:28:52.880,-0.04,-0.15
2021-08-01 02:28:52.884,-0.035,-0.17
2021-08-01 02:28:52.888,-0.035,-0.175
2021-08-01 02:28:52.892,-0.035,-0.195
2021-08-01 02:28:52.896,-0.02,-0.2
2021-08-01 02:28:52.900,-0.02,-0.215
2021-08-01 02:28:52.904,-0.03,-0.21
2021-08-01 02:28:52.908,-0.04,-0.23
2021-08-01 02:28:52.912,-0.015,-0.235
2021-08-01 02:28:52.916,-0.055,-0.23
2021-08-01 02:28:52.920,-0.035,-0.23
2021-08-01 02:28:52.924,-0.04,-0.24
2021-08-01 02:28:52.928,-0.05,-0.24
2021-08-01 02:28:52.932,-0.03,-0.25
2021-08-01 02:28:52.936,-0.03,-0.24
2021-08-01 02:28:52.940,-0.05,-0.24
2021-08-01 02:28:52.944,-0.04,-0.24
2021-08-01 02:28:52.948,-0.045,-0.27
2021-08-01 02:28:52.952,-0.045,-0.25
2021-08-01 02:28:52.956,-0.07,-0.25
2021-08-01 02:28:52.960,-0.075,-0.275
2021-08-01 02:28:52.964,-0.025,-0.295
2021-08-01 02:28:52.968,-0.055,-0.27
2021-08-01 02:28:52.972,-0.085,-0.27
2021-08-01 02:28:52.976,-0.055,-0.295
2021-08-01 02:28:52.980,-0.07,-0.305
2021-08-01 02:28:52.984,-0.085,-0.305
2021-08-01 02:28:52.988,-0.075,-0.335
2021-08-01 02:28:52.992,-0.075,-0.32
2021-08-01 02:28:52.996,-0.09,-0.315
2021-08-01 02:28:53.000,-0.09,-0.28
2021-08-01 02:28:53.004,-0.07,-0.27
2021-08-01 02:28:53.008,-0.05,-0.27
2021-08-01 02:28:53.012,-0.065,-0.235
2021-08-01 02:28:53.016,-0.07,-0.205
2021-08-01 02:28:53.020,-0.06,-0.185
2021-08-01 02:28:53.024,-0.08,-0.18
2021-08-01 02:28:53.028,-0.055,-0.18
2021-08-01 02:28:53.032,-0.045,-0.16
2021-08-01 02:28:53.036,-0.065,-0.13
2021-08-01 02:28:53.040,-0.06,-0.04
2021-08-01 02:28:53.044,-0.035,0.115
2021-08-01 02:28:53.048,0.0,0.355
2021-08-01 02:28:53.052,0.01,0.595
2021-08-01 02:28:53.056,0.07,0.705
2021-08-01 02:28:53.060,0.13,0.605
2021-08-01 02:28:53.064,0.195,0.285
2021-08-01 02:28:53.068,0.23,-0.245
2021-08-01 02:28:53.072,0.185,-0.79
2021-08-01 02:28:53.076,0.085,-1.11
2021-08-01 02:28:53.080,-0.07,-1.185
2021-08-01 02:28:53.084,-0.235,-1.07
2021-08-01 02:28:53.088,-0.34,-0.88
2021-08-01 02:28:53.092,-0.405,-0.71
2021-08-01 02:28:53.096,-0.365,-0.565
2021-08-01 02:28:53.100,-0.345,-0.465
2021-08-01 02:28:53.104,-0.28,-0.355
2021-08-01 02:28:53.108,-0.215,-0.305
2021-08-01 02:28:53.112,-0.125,-0.31
2021-08-01 02:28:53.116,-0.095,-0.32
2021-08-01 02:28:53.120,-0.085,-0.345
2021-08-01 02:28:53.124,-0.09,-0.34
2021-08-01 02:28:53.128,-0.085,-0.35
2021-08-01 02:28:53.132,-0.08,-0.36
2021-08-01 02:28:53.136,-0.1,-0.375
2021-08-01 02:28:53.140,-0.085,-0.4
2021-08-01 02:28:53.144,-0.09,-0.415
2021-08-01 02:28:53.148,-0.11,-0.395
2021-08-01 02:28:53.152,-0.1,-0.38
2021-08-01 02:28:53.156,-0.09,-0.36
2021-08-01 02:28:53.160,-0.105,-0.335
2021-08-01 02:28:53.164,-0.11,-0.32
2021-08-01 02:28:53.168,-0.115,-0.32
2021-08-01 02:28:53.172,-0.095,-0.29
2021-08-01 02:28:53.176,-0.1,-0.26
2021-08-01 02:28:53.180,-0.11,-0.28
2021-08-01 02:28:53.184,-0.1,-0.265
2021-08-01 02:28:53.188,-0.095,-0.275
2021-08-01 02:28:53.192,-0.08,-0.265
2021-08-01 02:28:53.196,-0.11,-0.28
2021-08-01 02:28:53.200,-0.11,-0.275
2021-08-01 02:28:53.204,-0.11,-0.285
2021-08-01 02:28:53.208,-0.115,-0.285
2021-08-01 02:28:53.212,-0.11,-0.285
2021-08-01 02:28:53.216,-0.11,-0.26
2021-08-01 02:28:53.220,-0.1,-0.26
2021-08-01 02:28:53.224,-0.105,-0.245
2021-08-01 02:28:53.228,-0.1,-0.25
2021-08-01 02:28:53.232,-0.095,-0.22
2021-08-01 02:28:53.236,-0.085,-0.225
2021-08-01 02:28:53.240,-0.07,-0.225
2021-08-01 02:28:53.244,-0.07,-0.235
2021-08-01 02:28:53.248,-0.055,-0.245
2021-08-01 02:28:53.252,-0.06,-0.27
2021-08-01 02:28:53.256,-0.055,-0.265
2021-08-01 02:28:53.260,-0.065,-0.245
2021-08-01 02:28:53.264,-0.075,-0.26
2021-08-01 02:28:53.268,-0.07,-0.25
2021-08-01 02:28:53.272,-0.065,-0.24
2021-08-01 02:28:53.276,-0.06,-0.235
2021-08-01 02:28:53.280,-0.05,-0.25
2021-08-01 02:28:53.284,-0.06,-0.24
2021-08-01 02:28:53.288,-0.07,-0.255
2021-08-01 02:28:53.292,-0.07,-0.245
2021-08-01 02:28:53.296,-0.06,-0.225
2021-08-01 02:28:53.300,-0.065,-0.23
2021-08-01 02:28:53.304,-0.055,-0.25
2021-08-01 02:28:53.308,-0.05,-0.255
2021-08-01 02:28:53.312,-0.065,-0.23
2021-08-01 02:28:53.316,-0.05,-0.21
2021-08-01 02:28:53.320,-0.06,-0.145
2021-08-01 02:28:53.324,-0.04,-0.105
2021-08-01 02:28:53.328,-0.01,-0.085
2021-08-01 02:28:53.332,-0.015,-0.06
2021-08-01 02:28:53.336,-0.02,-0.065
2021-08-01 02:28:53.340,-0.025,-0.05
2021-08-01 02:28:53.344,-0.05,-0.055
2021-08-01 02:28:53.348,-0.04,-0.055
2021-08-01 02:28:53.352,-0.035,-0.075
2021-08-01 02:28:53.356,-0.04,-0.08
2021-08-01 02:28:53.360,-0.055,-0.105
2021-08-01 02:28:53.364,-0.07,-0.11
2021-08-01 02:28:53.368,-0.085,-0.15
2021-08-01 02:28:53.372,-0.095,-0.16
2021-08-01 02:28:53.376,-0.07,-0.19
2021-08-01 02:28:53.380,-0.1,-0.18
2021-08-01 02:28:53.384,-0.095,-0.2
2021-08-01 02:28:53.388,-0.085,-0.195
2021-08-01 02:28:53.392,-0.08,-0.205
2021-08-01 02:28:53.396,-0.095,-0.215
2021-08-01 02:28:53.400,-0.09,-0.22
2021-08-01 02:28:53.404,-0.1,-0.215
2021-08-01 02:28:53.408,-0.095,-0.21
2021-08-01 02:28:53.412,-0.1,-0.225
2021-08-01 02:28:53.416,-0.1,-0.225
2021-08-01 02:28:53.420,-0.105,-0.23
2021-08-01 02:28:53.424,-0.105,-0.23
2021-08-01 02:28:53.428,-0.09,-0.225
2021-08-01 02:28:53.432,-0.085,-0.215
2021-08-01 02:28:53.436,-0.07,-0.19
2021-08-01 02:28:53.440,-0.04,-0.195
2021-08-01 02:28:53.444,-0.04,-0.175
2021-08-01 02:28:53.448,-0.04,-0.19
2021-08-01 02:28:53.452,-0.065,-0.205
2021-08-01 02:28:53.456,-0.05,-0.215
2021-08-01 02:28:53.460,-0.055,-0.22
2021-08-01 02:28:53.464,-0.015,-0.25
2021-08-01 02:28:53.468,-0.035,-0.29
2021-08-01 02:28:53.472,-0.01,-0.315
2021-08-01 02:28:53.476,-0.01,-0.315
2021-08-01 02:28:53.480,-0.03,-0.295
2021-08-01 02:28:53.484,-0.015,-0.255
2021-08-01 02:28:53.488,-0.01,-0.245
2021-08-01 02:28:53.492,-0.005,-0.22
2021-08-01 02:28:53.496,-0.02,-0.215
2021-08-01 02:28:53.500,-0.025,-0.195
2021-08-01 02:28:53.504,-0.03,-0.21
2021-08-01 02:28:53.508,-0.02,-0.2
2021-08-01 02:28:53.512,-0.06,-0.21
2021-08-01 02:28:53.516,-0.055,-0.21
2021-08-01 02:28:53.520,-0.06,-0.205
2021-08-01 02:28:53.524,-0.055,-0.225
2021-08-01 02:28:53.528,-0.055,-0.235
2021-08-01 02:28:53.532,-0.065,-0.22
2021-08-01 02:28:53.536,-0.055,-0.21
2021-08-01 02:28:53.540,-0.075,-0.215
2021-08-01 02:28:53.544,-0.075,-0.23
2021-08-01 02:28:53.548,-0.07,-0.24
2021-08-01 02:28:53.552,-0.07,-0.225
2021-08-01 02:28:53.556,-0.085,-0.2
2021-08-01 02:28:53.560,-0.06,-0.23
2021-08-01 02:28:53.564,-0.08,-0.23
2021-08-01 02:28:53.568,-0.07,-0.2
2021-08-01 02:28:53.572,-0.06,-0.085
2021-08-01 02:28:53.576,-0.015,0.075
2021-08-01 02:28:53.580,-0.025,0.32
2021-08-01 02:28:53.584,0.0,0.54
2021-08-01 02:28:53.588,0.085,0.595
2021-08-01 02:28:53.592,0.16,0.485
2021-08-01 02:28:53.596,0.205,0.16
2021-08-01 02:28:53.600,0.195,-0.37
2021-08-01 02:28:53.604,0.125,-0.865
2021-08-01 02:28:53.608,0.0,-1.105
2021-08-01 02:28:53.612,-0.165,-1.11
2021-08-01 02:28:53.616,-0.29,-0.995
2021-08-01 02:28:53.620,-0.365,-0.805
2021-08-01 02:28:53.624,-0.38,-0.665
2021-08-01 02:28:53.628,-0.335,-0.55
2021-08-01 02:28:53.632,-0.325,-0.42
2021-08-01 02:28:53.636,-0.23,-0.32
2021-08-01 02:28:53.640,-0.18,-0.285
2021-08-01 02:28:53.644,-0.11,-0.295
2021-08-01 02:28:53.648,-0.075,-0.315
2021-08-01 02:28:53.652,-0.05,-0.325
2021-08-01 02:28:53.656,-0.045,-0.35
2021-08-01 02:28:53.660,-0.055,-0.345
2021-08-01 02:28:53.664,-0.04,-0.315
2021-08-01 02:28:53.668,-0.03,-0.27
2021-08-01 02:28:53.672,-0.01,-0.27
2021-08-01 02:28:53.676,-0.01,-0.245
2021-08-01 02:28:53.680,-0.025,-0.26
2021-08-01 02:28:53.684,-0.01,-0.255
2021-08-01 02:28:53.688,-0.03,-0.275
2021-08-01 02:28:53.692,-0.055,-0.295
2021-08-01 02:28:53.696,-0.065,-0.3
2021-08-01 02:28:53.700,-0.095,-0.305
2021-08-01 02:28:53.704,-0.095,-0.31
2021-08-01 02:28:53.708,-0.11,-0.305
2021-08-01 02:28:53.712,-0.11,-0.32
2021-08-01 02:28:53.716,-0.115,-0.305
2021-08-01 02:28:53.720,-0.115,-0.3
2021-08-01 02:28:53.724,-0.12,-0.295
2021-08-01 02:28:53.728,-0.125,-0.315
2021-08-01 02:28:53.732,-0.12,-0.305
2021-08-01 02:28:53.736,-0.125,-0.295
2021-08-01 02:28:53.740,-0.115,-0.29
2021-08-01 02:28:53.744,-0.1,-0.295
2021-08-01 02:28:53.748,-0.115,-0.285
2021-08-01 02:28:53.752,-0.115,-0.28
2021-08-01 02:28:53.756,-0.125,-0.27
2021-08-01 02:28:53.760,-0.095,-0.3
2021-08-01 02:28:53.764,-0.105,-0.285
2021-08-01 02:28:53.768,-0.11,-0.295
2021-08-01 02:28:53.772,-0.105,-0.285
2021-08-01 02:28:53.776,-0.11,-0.28
2021-08-01 02:28:53.780,-0.105,-0.28
2021-08-01 02:28:53.784,-0.1,-0.285
2021-08-01 02:28:53.788,-0.11,-0.26
2021-08-01 02:28:53.792,-0.095,-0.27
2021-08-01 02:28:53.796,-0.07,-0.26
2021-08-01 02:28:53.800,-0.075,-0.26
2021-08-01 02:28:53.804,-0.1,-0.255
2021-08-01 02:28:53.808,-0.09,-0.28
2021-08-01 02:28:53.812,-0.07,-0.265
2021-08-01 02:28:53.816,-0.085,-0.235
2021-08-01 02:28:53.820,-0.075,-0.22
2021-08-01 02:28:53.824,-0.04,-0.205
2021-08-01 02:28:53.828,-0.035,-0.19
2021-08-01 02:28:53.832,-0.015,-0.17
2021-08-01 02:28:53.836,-0.005,-0.13
2021-08-01 02:28:53.840,0.02,-0.075
2021-08-01 02:28:53.844,0.015,-0.03
2021-08-01 02:28:53.848,0.03,-0.02
2021-08-01 02:28:53.852,0.015,-0.005
2021-08-01 02:28:53.856,0.015,-0.005
2021-08-01 02:28:53.860,0.02,-0.035
2021-08-01 02:28:53.864,0.01,-0.065
2021-08-01 02:28:53.868,-0.01,-0.085
2021-08-01 02:28:53.872,-0.025,-0.125
2021-08-01 02:28:53.876,-0.02,-0.14
2021-08-01 02:28:53.880,-0.04,-0.14
2021-08-01 02:28:53.884,-0.045,-0.145
2021-08-01 02:28:53.888,-0.075,-0.175
2021-08-01 02:28:53.892,-0.055,-0.18
2021-08-01 02:28:53.896,-0.045,-0.2
2021-08-01 02:28:53.900,-0.05,-0.2
2021-08-01 02:28:53.904,-0.07,-0.21
2021-08-01 02:28:53.908,-0.08,-0.225
2021-08-01 02:28:53.912,-0.085,-0.205
2021-08-01 02:28:53.916,-0.065,-0.205
2021-08-01 02:28:53.920,-0.065,-0.2
2021-08-01 02:28:53.924,-0.06,-0.19
2021-08-01 02:28:53.928,-0.08,-0.205
2021-08-01 02:28:53.932,-0.075,-0.21
2021-08-01 02:28:53.936,-0.05,-0.2
2021-08-01 02:28:53.940,-0.05,-0.2
2021-08-01 02:28:53.944,-0.045,-0.205
2021-08-01 02:28:53.948,-0.045,-0.2
2021-08-01 02:28:53.952,-0.065,-0.21
2021-08-01 02:28:53.956,-0.06,-0.22
2021-08-01 02:28:53.960,-0.055,-0.235
2021-08-01 02:28:53.964,-0.065,-0.225
2021-08-01 02:28:53.968,-0.055,-0.26
2021-08-01 02:28:53.972,-0.055,-0.275
2021-08-01 02:28:53.976,-0.075,-0.28
2021-08-01 02:28:53.980,-0.075,-0.275
2021-08-01 02:28:53.984,-0.075,-0.275
2021-08-01 02:28:53.988,-0.085,-0.295
2021-08-01 02:28:53.992,-0.085,-0.305
2021-08-01 02:28:53.996,-0.07,-0.3
2021-08-01 02:28:54.000,-0.03,-0.295
2021-08-01 02:28:54.004,-0.045,-0.265
2021-08-01 02:28:54.008,-0.035,-0.23
2021-08-01 02:28:54.012,-0.01,-0.215
2021-08-01 02:28:54.016,-0.01,-0.155
2021-08-01 02:28:54.020,-0.03,-0.14
2021-08-01 02:28:54.024,-0.025,-0.18
2021-08-01 02:28:54.028,-0.06,-0.205
2021-08-01 02:28:54.032,-0.065,-0.195
2021-08-01 02:28:54.036,-0.065,-0.22
2021-08-01 02:28:54.040,-0.05,-0.225
2021-08-01 02:28:54.044,-0.06,-0.22
2021-08-01 02:28:54.048,-0.055,-0.22
2021-08-01 02:28:54.052,-0.065,-0.21
2021-08-01 02:28:54.056,-0.06,-0.21
2021-08-01 02:28:54.060,-0.075,-0.215
2021-08-01 02:28:54.064,-0.06,-0.255
2021-08-01 02:28:54.068,-0.08,-0.25
2021-08-01 02:28:54.072,-0.105,-0.26
2021-08-01 02:28:54.076,-0.11,-0.27
2021-08-01 02:28:54.080,-0.085,-0.265
2021-08-01 02:28:54.084,-0.085,-0.28
2021-08-01 02:28:54.088,-0.105,-0.275
2021-08-01 02:28:54.092,-0.12,-0.3
2021-08-01 02:28:54.096,-0.1,-0.275
2021-08-01 02:28:54.100,-0.1,-0.265
2021-08-01 02:28:54.104,-0.095,-0.29
2021-08-01 02:28:54.108,-0.1,-0.285
2021-08-01 02:28:54.112,-0.12,-0.275
2021-08-01 02:28:54.116,-0.125,-0.265
2021-08-01 02:28:54.120,-0.08,-0.28
2021-08-01 02:28:54.124,-0.09,-0.26
2021-08-01 02:28:54.128,-0.1,-0.265
2021-08-01 02:28:54.132,-0.075,-0.255
2021-08-01 02:28:54.136,-0.065,-0.26
2021-08-01 02:28:54.140,-0.075,-0.25
2021-08-01 02:28:54.144,-0.085,-0.205
2021-08-01 02:28:54.148,-0.07,-0.12
2021-08-01 02:28:54.152,-0.04,0.015
2021-08-01 02:28:54.156,-0.005,0.225
2021-08-01 02:28:54.160,0.02,0.47
2021-08-01 02:28:54.164,0.055,0.625
2021-08-01 02:28:54.168,0.13,0.56
2021-08-01 02:28:54.172,0.205,0.26
2021-08-01 02:28:54.176,0.255,-0.315
2021-08-01 02:28:54.180,0.23,-0.87
2021-08-01 02:28:54.184,0.145,-1.175
2021-08-01 02:28:54.188,0.015,-1.24
2021-08-01 02:28:54.192,-0.115,-1.1
2021-08-01 02:28:54.196,-0.25,-0.895
2021-08-01 02:28:54.200,-0.31,-0.72
2021-08-01 02:28:54.204,-0.32,-0.605
2021-08-01 02:28:54.208,-0.3,-0.47
2021-08-01 02:28:54.212,-0.305,-0.345
2021-08-01 02:28:54.216,-0.235,-0.275
2021-08-01 02:28:54.220,-0.15,-0.245
2021-08-01 02:28:54.224,-0.11,-0.255
2021-08-01 02:28:54.228,-0.09,-0.26
2021-08-01 02:28:54.232,-0.075,-0.275
2021-08-01 02:28:54.236,-0.08,-0.265
2021-08-01 02:28:54.240,-0.095,-0.265
2021-08-01 02:28:54.244,-0.075,-0.25
2021-08-01 02:28:54.248,-0.08,-0.245
2021-08-01 02:28:54.252,-0.08,-0.245
2021-08-01 02:28:54.256,-0.085,-0.275
2021-08-01 02:28:54.260,-0.08,-0.25
2021-08-01 02:28:54.264,-0.08,-0.25
2021-08-01 02:28:54.268,-0.075,-0.27
2021-08-01 02:28:54.272,-0.09,-0.275
2021-08-01 02:28:54.276,-0.075,-0.275
2021-08-01 02:28:54.280,-0.09,-0.26
2021-08-01 02:28:54.284,-0.1,-0.28
2021-08-01 02:28:54.288,-0.075,-0.295
2021-08-01 02:28:54.292,-0.095,-0.285
2021-08-01 02:28:54.296,-0.1,-0.29
2021-08-01 02:28:54.300,-0.105,-0.3
2021-08-01 02:28:54.304,-0.11,-0.295
2021-08-01 02:28:54.308,-0.12,-0.295
2021-08-01 02:28:54.312,-0.105,-0.31
2021-08-01 02:28:54.316,-0.095,-0.3
2021-08-01 02:28:54.320,-0.1,-0.3
2021-08-01 02:28:54.324,-0.11,-0.27
2021-08-01 02:28:54.328,-0.1,-0.265
2021-08-01 02:28:54.332,-0.1,-0.27
2021-08-01 02:28:54.336,-0.1,-0.295
2021-08-01 02:28:54.340,-0.095,-0.29
2021-08-01 02:28:54.344,-0.09,-0.27
2021-08-01 02:28:54.348,-0.09,-0.23
2021-08-01 02:28:54.352,-0.06,-0.255
2021-08-01 02:28:54.356,-0.045,-0.24
2021-08-01 02:28:54.360,-0.07,-0.22
2021-08-01 02:28:54.364,-0.09,-0.22
2021-08-01 02:28:54.368,-0.08,-0.225
2021-08-01 02:28:54.372,-0.1,-0.215
2021-08-01 02:28:54.376,-0.11,-0.205
2021-08-01 02:28:54.380,-0.115,-0.215
2021-08-01 02:28:54.384,-0.13,-0.2
2021-08-01 02:28:54.388,-0.14,-0.2
2021-08-01 02:28:54.392,-0.12,-0.2
2021-08-01 02:28:54.396,-0.135,-0.205
2021-08-01 02:28:54.400,-0.13,-0.19
2021-08-01 02:28:54.404,-0.125,-0.185
2021-08-01 02:28:54.408,-0.115,-0.165
2021-08-01 02:28:54.412,-0.13,-0.155
2021-08-01 02:28:54.416,-0.125,-0.14
2021-08-01 02:28:54.420,-0.125,-0.13
2021-08-01 02:28:54.424,-0.1,-0.105
2021-08-01 02:28:54.428,-0.1,-0.105
2021-08-01 02:28:54.432,-0.095,-0.115
2021-08-01 02:28:54.436,-0.09,-0.09
2021-08-01 02:28:54.440,-0.095,-0.075
2021-08-01 02:28:54.444,-0.075,-0.06
2021-08-01 02:28:54.448,-0.06,-0.055
2021-08-01 02:28:54.452,-0.045,-0.065
2021-08-01 02:28:54.456,-0.05,-0.075
2021-08-01 02:28:54.460,-0.045,-0.08
2021-08-01 02:28:54.464,-0.025,-0.07
2021-08-01 02:28:54.468,-0.035,-0.1
2021-08-01 02:28:54.472,-0.04,-0.115
2021-08-01 02:28:54.476,-0.02,-0.14
2021-08-01 02:28:54.480,-0.015,-0.15
2021-08-01 02:28:54.484,0.0,-0.18
2021-08-01 02:28:54.488,-0.02,-0.185
2021-08-01 02:28:54.492,-0.03,-0.175
2021-08-01 02:28:54.496,-0.02,-0.155
2021-08-01 02:28:54.500,-0.015,-0.115
2021-08-01 02:28:54.504,0.0,-0.1
2021-08-01 02:28:54.508,-0.02,-0.085
2021-08-01 02:28:54.512,-0.01,-0.085
2021-08-01 02:28:54.516,0.0,-0.105
2021-08-01 02:28:54.520,-0.02,-0.085
2021-08-01 02:28:54.524,-0.03,-0.085
2021-08-01 02:28:54.528,-0.04,-0.11
2021-08-01 02:28:54.532,0.0,-0.135
2021-08-01 02:28:54.536,-0.015,-0.13
2021-08-01 02:28:54.540,-0.035,-0.17
2021-08-01 02:28:54.544,-0.03,-0.165
2021-08-01 02:28:54.548,-0.035,-0.165
2021-08-01 02:28:54.552,-0.035,-0.175
2021-08-01 02:28:54.556,-0.025,-0.185
2021-08-01 02:28:54.560,-0.035,-0.205
2021-08-01 02:28:54.564,-0.055,-0.23
2021-08-01 02:28:54.568,-0.075,-0.245
2021-08-01 02:28:54.572,-0.075,-0.255
2021-08-01 02:28:54.576,-0.08,-0.245
2021-08-01 02:28:54.580,-0.085,-0.255
2021-08-01 02:28:54.584,-0.065,-0.245
2021-08-01 02:28:54.588,-0.075,-0.265
2021-08-01 02:28:54.592,-0.1,-0.28
2021-08-01 02:28:54.596,-0.095,-0.265
2021-08-01 02:28:54.600,-0.09,-0.27
2021-08-01 02:28:54.604,-0.08,-0.27
2021-08-01 02:28:54.608,-0.095,-0.29
2021-08-01 02:28:54.612,-0.08,-0.3
2021-08-01 02:28:54.616,-0.085,-0.29
2021-08-01 02:28:54.620,-0.105,-0.29
2021-08-01 02:28:54.624,-0.1,-0.31
2021-08-01 02:28:54.628,-0.1,-0.285
2021-08-01 02:28:54.632,-0.095,-0.28
2021-08-01 02:28:54.636,-0.08,-0.29
2021-08-01 02:28:54.640,-0.085,-0.265
2021-08-01 02:28:54.644,-0.075,-0.26
2021-08-01 02:28:54.648,-0.065,-0.24
2021-08-01 02:28:54.652,-0.06,-0.255
2021-08-01 02:28:54.656,-0.06,-0.265
2021-08-01 02:28:54.660,-0.04,-0.24
2021-08-01 02:28:54.664,-0.05,-0.235
2021-08-01 02:28:54.668,-0.055,-0.24
2021-08-01 02:28:54.672,-0.035,-0.235
2021-08-01 02:28:54.676,-0.005,-0.245
2021-08-01 02:28:54.680,-0.015,-0.225
2021-08-01 02:28:54.684,-0.005,-0.18
2021-08-01 02:28:54.688,-0.025,-0.135
2021-08-01 02:28:54.692,-0.02,-0.115
2021-08-01 02:28:54.696,-0.015,-0.12
2021-08-01 02:28:54.700,-0.02,-0.125
2021-08-01 02:28:54.704,-0.055,-0.15
2021-08-01 02:28:54.708,-0.06,-0.165
2021-08-01 02:28:54.712,-0.04,-0.16
2021-08-01 02:28:54.716,-0.065,-0.155
2021-08-01 02:28:54.720,-0.08,-0.155
2021-08-01 02:28:54.724,-0.065,-0.175
2021-08-01 02:28:54.728,-0.08,-0.18
2021-08-01 02:28:54.732,-0.08,-0.18
2021-08-01 02:28:54.736,-0.08,-0.205
2021-08-01 02:28:54.740,-0.095,-0.195
2021-08-01 02:28:54.744,-0.09,-0.18
2021-08-01 02:28:54.748,-0.07,-0.195
2021-08-01 02:28:54.752,-0.095,-0.205
2021-08-01 02:28:54.756,-0.09,-0.185
2021-08-01 02:28:54.760,-0.095,-0.175
2021-08-01 02:28:54.764,-0.08,-0.105
2021-08-01 02:28:54.768,-0.08,-0.005
2021-08-01 02:28:54.772,-0.04,0.155
2021-08-01 02:28:54.776,-0.04,0.355
2021-08-01 02:28:54.780,-0.01,0.545
2021-08-01 02:28:54.784,0.035,0.615
2021-08-01 02:28:54.788,0.115,0.47
2021-08-01 02:28:54.792,0.16,0.135
2021-08-01 02:28:54.796,0.185,-0.395
2021-08-01 02:28:54.800,0.18,-0.88
2021-08-01 02:28:54.804,0.14,-1.155
2021-08-01 02:28:54.808,0.06,-1.205
2021-08-01 02:28:54.812,-0.05,-1.085
2021-08-01 02:28:54.816,-0.21,-0.92
2021-08-01 02:28:54.820,-0.32,-0.775
2021-08-01 02:28:54.824,-0.35,-0.645
2021-08-01 02:28:54.828,-0.335,-0.51
2021-08-01 02:28:54.832,-0.305,-0.4
2021-08-01 02:28:54.836,-0.265,-0.315
2021-08-01 02:28:54.840,-0.205,-0.275
2021-08-01 02:28:54.844,-0.135,-0.275
2021-08-01 02:28:54.848,-0.115,-0.255
2021-08-01 02:28:54.852,-0.085,-0.255
2021-08-01 02:28:54.856,-0.085,-0.25
2021-08-01 02:28:54.860,-0.07,-0.25
2021-08-01 02:28:54.864,-0.08,-0.245
2021-08-01 02:28:54.868,-0.085,-0.235
2021-08-01 02:28:54.872,-0.08,-0.25
2021-08-01 02:28:54.876,-0.06,-0.26
2021-08-01 02:28:54.880,-0.065,-0.26
2021-08-01 02:28:54.884,-0.055,-0.24
2021-08-01 02:28:54.888,-0.065,-0.24
2021-08-01 02:28:54.892,-0.045,-0.255
2021-08-01 02:28:54.896,-0.05,-0.27
2021-08-01 02:28:54.900,-0.025,-0.255
2021-08-01 02:28:54.904,-0.03,-0.25
2021-08-01 02:28:54.908,-0.02,-0.225
2021-08-01 02:28:54.912,-0.025,-0.215
2021-08-01 02:28:54.916,-0.03,-0.21
2021-08-01 02:28:54.920,-0.02,-0.2
2021-08-01 02:28:54.924,-0.01,-0.21
2021-08-01 02:28:54.928,-0.035,-0.19
2021-08-01 02:28:54.932,-0.05,-0.21
2021-08-01 02:28:54.936,-0.065,-0.265
2021-08-01 02:28:54.940,-0.07,-0.265
2021-08-01 02:28:54.944,-0.11,-0.28
2021-08-01 02:28:54.948,-0.115,-0.275
2021-08-01 02:28:54.952,-0.145,-0.29
2021-08-01 02:28:54.956,-0.13,-0.305
2021-08-01 02:28:54.960,-0.15,-0.31
2021-08-01 02:28:54.964,-0.16,-0.295
2021-08-01 02:28:54.968,-0.15,-0.295
2021-08-01 02:28:54.972,-0.14,-0.29
2021-08-01 02:28:54.976,-0.16,-0.305
2021-08-01 02:28:54.980,-0.15,-0.295
2021-08-01 02:28:54.984,-0.15,-0.285
2021-08-01 02:28:54.988,-0.16,-0.275
2021-08-01 02:28:54.992,-0.155,-0.29
2021-08-01 02:28:54.996,-0.155,-0.255
2021-08-01 02:28:55.000,-0.155,-0.26
2021-08-01 02:28:55.004,-0.14,-0.27
2021-08-01 02:28:55.008,-0.15,-0.275
2021-08-01 02:28:55.012,-0.15,-0.25
2021-08-01 02:28:55.016,-0.15,-0.255
2021-08-01 02:28:55.020,-0.15,-0.25
2021-08-01 02:28:55.024,-0.135,-0.255
2021-08-01 02:28:55.028,-0.11,-0.235
2021-08-01 02:28:55.032,-0.135,-0.23
2021-08-01 02:28:55.036,-0.13,-0.235
2021-08-01 02:28:55.040,-0.145,-0.23
2021-08-01 02:28:55.044,-0.13,-0.2
2021-08-01 02:28:55.048,-0.11,-0.18
2021-08-01 02:28:55.052,-0.105,-0.15
2021-08-01 02:28:55.056,-0.085,-0.155
2021-08-01 02:28:55.060,-0.08,-0.145
2021-08-01 02:28:55.064,-0.08,-0.115
2021-08-01 02:28:55.068,-0.06,-0.125
2021-08-01 02:28:55.072,-0.05,-0.16
2021-08-01 02:28:55.076,-0.035,-0.2
2021-08-01 02:28:55.080,-0.045,-0.225
2021-08-01 02:28:55.084,-0.045,-0.21
2021-08-01 02:28:55.088,-0.03,-0.18
2021-08-01 02:28:55.092,-0.01,-0.16
2021-08-01 02:28:55.096,-0.03,-0.15
2021-08-01 02:28:55.100,-0.045,-0.145
2021-08-01 02:28:55.104,-0.03,-0.125
2021-08-01 02:28:55.108,-0.04,-0.13
2021-08-01 02:28:55.112,-0.045,-0.115
2021-08-01 02:28:55.116,-0.035,-0.14
2021-08-01 02:28:55.120,-0.05,-0.165
2021-08-01 02:28:55.124,-0.065,-0.16
2021-08-01 02:28:55.128,-0.07,-0.15
2021-08-01 02:28:55.132,-0.075,-0.155
2021-08-01 02:28:55.136,-0.09,-0.15
2021-08-01 02:28:55.140,-0.08,-0.16
2021-08-01 02:28:55.144,-0.095,-0.18
2021-08-01 02:28:55.148,-0.09,-0.155
2021-08-01 02:28:55.152,-0.1,-0.155
2021-08-01 02:28:55.156,-0.115,-0.165
2021-08-01 02:28:55.160,-0.095,-0.195
2021-08-01 02:28:55.164,-0.095,-0.185
2021-08-01 02:28:55.168,-0.09,-0.185
2021-08-01 02:28:55.172,-0.09,-0.185
2021-08-01 02:28:55.176,-0.095,-0.175
2021-08-01 02:28:55.180,-0.105,-0.195
2021-08-01 02:28:55.184,-0.09,-0.2
2021-08-01 02:28:55.188,-0.08,-0.195
2021-08-01 02:28:55.192,-0.1,-0.18
2021-08-01 02:28:55.196,-0.09,-0.195
2021-08-01 02:28:55.200,-0.075,-0.19
2021-08-01 02:28:55.204,-0.085,-0.195
2021-08-01 02:28:55.208,-0.08,-0.2
2021-08-01 02:28:55.212,-0.07,-0.205
2021-08-01 02:28:55.216,-0.095,-0.205
2021-08-01 02:28:55.220,-0.1,-0.195
2021-08-01 02:28:55.224,-0.09,-0.21
2021-08-01 02:28:55.228,-0.08,-0.21
2021-08-01 02:28:55.232,-0.08,-0.23
2021-08-01 02:28:55.236,-0.09,-0.22
2021-08-01 02:28:55.240,-0.09,-0.255
2021-08-01 02:28:55.244,-0.075,-0.295
2021-08-01 02:28:55.248,-0.085,-0.285
2021-08-01 02:28:55.252,-0.055,-0.26
2021-08-01 02:28:55.256,-0.05,-0.235
2021-08-01 02:28:55.260,-0.035,-0.215
2021-08-01 02:28:55.264,-0.05,-0.195
2021-08-01 02:28:55.268,-0.04,-0.17
2021-08-01 02:28:55.272,-0.065,-0.14
2021-08-01 02:28:55.276,-0.065,-0.15
2021-08-01 02:28:55.280,-0.065,-0.175
2021-08-01 02:28:55.284,-0.07,-0.18
2021-08-01 02:28:55.288,-0.08,-0.195
2021-08-01 02:28:55.292,-0.075,-0.2
2021-08-01 02:28:55.296,-0.09,-0.2
2021-08-01 02:28:55.300,-0.085,-0.21
2021-08-01 02:28:55.304,-0.08,-0.23
2021-08-01 02:28:55.308,-0.08,-0.24
2021-08-01 02:28:55.312,-0.085,-0.235
2021-08-01 02:28:55.316,-0.12,-0.235
2021-08-01 02:28:55.320,-0.12,-0.255
2021-08-01 02:28:55.324,-0.1,-0.275
2021-08-01 02:28:55.328,-0.12,-0.255
2021-08-01 02:28:55.332,-0.12,-0.26
2021-08-01 02:28:55.336,-0.105,-0.26
2021-08-01 02:28:55.340,-0.115,-0.265
2021-08-01 02:28:55.344,-0.115,-0.27
2021-08-01 02:28:55.348,-0.095,-0.285
2021-08-01 02:28:55.352,-0.095,-0.27
2021-08-01 02:28:55.356,-0.095,-0.245
2021-08-01 02:28:55.360,-0.1,-0.26
2021-08-01 02:28:55.364,-0.09,-0.265
2021-08-01 02:28:55.368,-0.115,-0.25
2021-08-01 02:28:55.372,-0.1,-0.275
2021-08-01 02:28:55.376,-0.085,-0.28
2021-08-01 02:28:55.380,-0.09,-0.28
2021-08-01 02:28:55.384,-0.1,-0.28
2021-08-01 02:28:55.388,-0.105,-0.28
2021-08-01 02:28:55.392,-0.11,-0.27
2021-08-01 02:28:55.396,-0.105,-0.25
2021-08-01 02:28:55.400,-0.1,-0.255
2021-08-01 02:28:55.404,-0.08,-0.26
2021-08-01 02:28:55.408,-0.075,-0.26
2021-08-01 02:28:55.412,-0.08,-0.245
2021-08-01 02:28:55.416,-0.07,-0.29
2021-08-01 02:28:55.420,-0.07,-0.315
2021-08-01 02:28:55.424,-0.065,-0.285
2021-08-01 02:28:55.428,-0.05,-0.24
2021-08-01 02:28:55.432,-0.035,-0.215
2021-08-01 02:28:55.436,-0.035,-0.195
2021-08-01 02:28:55.440,-0.055,-0.215
2021-08-01 02:28:55.444,-0.06,-0.18
2021-08-01 02:28:55.448,-0.075,-0.16
2021-08-01 02:28:55.452,-0.065,-0.155
2021-08-01 02:28:55.456,-0.08,-0.14
2021-08-01 02:28:55.460,-0.07,-0.14
2021-08-01 02:28:55.464,-0.07,-0.16
2021-08-01 02:28:55.468,-0.08,-0.16
2021-08-01 02:28:55.472,-0.08,-0.13
2021-08-01 02:28:55.476,-0.08,-0.085
2021-08-01 02:28:55.480,-0.065,-0.05
2021-08-01 02:28:55.484,-0.03,0.07
2021-08-01 02:28:55.488,-0.015,0.265
2021-08-01 02:28:55.492,0.0,0.49
2021-08-01 02:28:55.496,0.03,0.7
2021-08-01 02:28:55.500,0.075,0.76
2021-08-01 02:28:55.504,0.14,0.61
2021-08-01 02:28:55.508,0.2,0.245
2021-08-01 02:28:55.512,0.23,-0.31
2021-08-01 02:28:55.516,0.155,-0.78
2021-08-01 02:28:55.520,0.05,-1.015
2021-08-01 02:28:55.524,-0.11,-1.1
2021-08-01 02:28:55.528,-0.25,-0.96
2021-08-01 02:28:55.532,-0.355,-0.815
2021-08-01 02:28:55.536,-0.385,-0.655
2021-08-01 02:28:55.540,-0.38,-0.535
2021-08-01 02:28:55.544,-0.355,-0.415
2021-08-01 02:28:55.548,-0.29,-0.31
2021-08-01 02:28:55.552,-0.22,-0.265
2021-08-01 02:28:55.556,-0.12,-0.255
2021-08-01 02:28:55.560,-0.095,-0.25
2021-08-01 02:28:55.564,-0.09,-0.28
2021-08-01 02:28:55.568,-0.08,-0.27
2021-08-01 02:28:55.572,-0.09,-0.255
2021-08-01 02:28:55.576,-0.085,-0.27
2021-08-01 02:28:55.580,-0.07,-0.295
2021-08-01 02:28:55.584,-0.07,-0.3
2021-08-01 02:28:55.588,-0.06,-0.31
2021-08-01 02:28:55.592,-0.06,-0.285
2021-08-01 02:28:55.596,-0.04,-0.255
2021-08-01 02:28:55.600,-0.035,-0.245
2021-08-01 02:28:55.604,-0.025,-0.235
2021-08-01 02:28:55.608,-0.045,-0.225
2021-08-01 02:28:55.612,-0.055,-0.22
2021-08-01 02:28:55.616,-0.06,-0.2
2021-08-01 02:28:55.620,-0.06,-0.205
2021-08-01 02:28:55.624,-0.08,-0.22
2021-08-01 02:28:55.628,-0.09,-0.245
2021-08-01 02:28:55.632,-0.09,-0.255
2021-08-01 02:28:55.636,-0.08,-0.25
2021-08-01 02:28:55.640,-0.1,-0.245
2021-08-01 02:28:55.644,-0.11,-0.255
2021-08-01 02:28:55.648,-0.1,-0.275
2021-08-01 02:28:55.652,-0.115,-0.27
2021-08-01 02:28:55.656,-0.11,-0.26
2021-08-01 02:28:55.660,-0.105,-0.26
2021-08-01 02:28:55.664,-0.105,-0.265
2021-08-01 02:28:55.668,-0.105,-0.275
2021-08-01 02:28:55.672,-0.11,-0.275
2021-08-01 02:28:55.676,-0.11,-0.27
2021-08-01 02:28:55.680,-0.12,-0.25
2021-08-01 02:28:55.684,-0.115,-0.245
2021-08-01 02:28:55.688,-0.11,-0.25
2021-08-01 02:28:55.692,-0.11,-0.26
2021-08-01 02:28:55.696,-0.115,-0.235
2021-08-01 02:28:55.700,-0.095,-0.22
2021-08-01 02:28:55.704,-0.085,-0.215
2021-08-01 02:28:55.708,-0.085,-0.205
2021-08-01 02:28:55.712,-0.085,-0.21
2021-08-01 02:28:55.716,-0.09,-0.195
2021-08-01 02:28:55.720,-0.1,-0.19
2021-08-01 02:28:55.724,-0.08,-0.175
2021-08-01 02:28:55.728,-0.085,-0.155
2021-08-01 02:28:55.732,-0.075,-0.15
2021-08-01 02:28:55.736,-0.07,-0.125
2021-08-01 02:28:55.740,-0.06,-0.13
2021-08-01 02:28:55.744,-0.06,-0.14
2021-08-01 02:28:55.748,-0.035,-0.135
2021-08-01 02:28:55.752,-0.035,-0.135
2021-08-01 02:28:55.756,-0.015,-0.115
2021-08-01 02:28:55.760,-0.02,-0.09
2021-08-01 02:28:55.764,-0.01,-0.07
2021-08-01 02:28:55.768,-0.015,-0.075
2021-08-01 02:28:55.772,0.0,-0.055
2021-08-01 02:28:55.776,-0.02,-0.03
2021-08-01 02:28:55.780,-0.035,-0.01
2021-08-01 02:28:55.784,-0.045,-0.02
2021-08-01 02:28:55.788,-0.03,-0.02
2021-08-01 02:28:55.792,-0.045,-0.045
2021-08-01 02:28:55.796,-0.04,-0.035
2021-08-01 02:28:55.800,-0.05,-0.025
2021-08-01 02:28:55.804,-0.065,-0.06
2021-08-01 02:28:55.808,-0.065,-0.085
2021-08-01 02:28:55.812,-0.055,-0.11
2021-08-01 02:28:55.816,-0.06,-0.11
2021-08-01 02:28:55.820,-0.075,-0.11
2021-08-01 02:28:55.824,-0.075,-0.13
2021-08-01 02:28:55.828,-0.065,-0.14
2021-08-01 02:28:55.832,-0.065,-0.145
2021-08-01 02:28:55.836,-0.06,-0.15
2021-08-01 02:28:55.840,-0.07,-0.145
2021-08-01 02:28:55.844,-0.075,-0.14
2021-08-01 02:28:55.848,-0.065,-0.14
2021-08-01 02:28:55.852,-0.07,-0.155
2021-08-01 02:28:55.856,-0.055,-0.145
2021-08-01 02:28:55.860,-0.055,-0.14
2021-08-01 02:28:55.864,-0.06,-0.155
2021-08-01 02:28:55.868,-0.035,-0.165
2021-08-01 02:28:55.872,-0.065,-0.155
2021-08-01 02:28:55.876,-0.06,-0.18
2021-08-01 02:28:55.880,-0.05,-0.18
2021-08-01 02:28:55.884,-0.04,-0.185
2021-08-01 02:28:55.888,-0.065,-0.19
2021-08-01 02:28:55.892,-0.055,-0.19
2021-08-01 02:28:55.896,-0.05,-0.17
2021-08-01 02:28:55.900,-0.05,-0.19
2021-08-01 02:28:55.904,-0.05,-0.195
2021-08-01 02:28:55.908,-0.015,-0.25
2021-08-01 02:28:55.912,-0.05,-0.265
2021-08-01 02:28:55.916,-0.04,-0.265
2021-08-01 02:28:55.920,-0.03,-0.21
2021-08-01 02:28:55.924,-0.025,-0.185
2021-08-01 02:28:55.928,-0.015,-0.18
2021-08-01 02:28:55.932,-0.03,-0.14
2021-08-01 02:28:55.936,-0.055,-0.11
2021-08-01 02:28:55.940,-0.055,-0.09
2021-08-01 02:28:55.944,-0.06,-0.115
2021-08-01 02:28:55.948,-0.035,-0.155
2021-08-01 02:28:55.952,-0.06,-0.16
2021-08-01 02:28:55.956,-0.055,-0.18
2021-08-01 02:28:55.960,-0.07,-0.17
2021-08-01 02:28:55.964,-0.075,-0.17
2021-08-01 02:28:55.968,-0.1,-0.19
2021-08-01 02:28:55.972,-0.1,-0.205
2021-08-01 02:28:55.976,-0.105,-0.205
2021-08-01 02:28:55.980,-0.09,-0.205
2021-08-01 02:28:55.984,-0.105,-0.21
2021-08-01 02:28:55.988,-0.1,-0.215
2021-08-01 02:28:55.992,-0.1,-0.195
2021-08-01 02:28:55.996,-0.08,-0.2
2021-08-01 02:28:56.000,-0.09,-0.21
2021-08-01 02:28:56.004,-0.105,-0.21
2021-08-01 02:28:56.008,-0.105,-0.21
2021-08-01 02:28:56.012,-0.115,-0.23
2021-08-01 02:28:56.016,-0.085,-0.235
2021-08-01 02:28:56.020,-0.11,-0.21
2021-08-01 02:28:56.024,-0.105,-0.2
2021-08-01 02:28:56.028,-0.1,-0.19
2021-08-01 02:28:56.032,-0.105,-0.225
2021-08-01 02:28:56.036,-0.075,-0.205
2021-08-01 02:28:56.040,-0.07,-0.2
2021-08-01 02:28:56.044,-0.06,-0.205
2021-08-01 02:28:56.048,-0.09,-0.225
2021-08-01 02:28:56.052,-0.085,-0.235
2021-08-01 02:28:56.056,-0.075,-0.225
2021-08-01 02:28:56.060,-0.08,-0.22
2021-08-01 02:28:56.064,-0.07,-0.21
2021-08-01 02:28:56.068,-0.07,-0.195
2021-08-01 02:28:56.072,-0.075,-0.225
2021-08-01 02:28:56.076,-0.08,-0.235
2021-08-01 02:28:56.080,-0.08,-0.235
2021-08-01 02:28:56.084,-0.08,-0.265
2021-08-01 02:28:56.088,-0.095,-0.295
2021-08-01 02:28:56.092,-0.06,-0.25
2021-08-01 02:28:56.096,-0.045,-0.2
2021-08-01 02:28:56.100,-0.05,-0.17
2021-08-01 02:28:56.104,-0.04,-0.19
2021-08-01 02:28:56.108,-0.045,-0.185
2021-08-01 02:28:56.112,-0.06,-0.175
2021-08-01 02:28:56.116,-0.08,-0.17
2021-08-01 02:28:56.120,-0.085,-0.175
2021-08-01 02:28:56.124,-0.065,-0.195
2021-08-01 02:28:56.128,-0.075,-0.195
2021-08-01 02:28:56.132,-0.085,-0.21
2021-08-01 02:28:56.136,-0.105,-0.24
2021-08-01 02:28:56.140,-0.115,-0.24
2021-08-01 02:28:56.144,-0.13,-0.24
2021-08-01 02:28:56.148,-0.135,-0.25
2021-08-01 02:28:56.152,-0.125,-0.265
2021-08-01 02:28:56.156,-0.12,-0.26
2021-08-01 02:28:56.160,-0.135,-0.26
2021-08-01 02:28:56.164,-0.13,-0.28
2021-08-01 02:28:56.168,-0.125,-0.285
2021-08-01 02:28:56.172,-0.14,-0.285
2021-08-01 02:28:56.176,-0.135,-0.29
2021-08-01 02:28:56.180,-0.135,-0.29
2021-08-01 02:28:56.184,-0.14,-0.275
2021-08-01 02:28:56.188,-0.135,-0.305
2021-08-01 02:28:56.192,-0.13,-0.305
2021-08-01 02:28:56.196,-0.135,-0.305
2021-08-01 02:28:56.200,-0.12,-0.29
2021-08-01 02:28:56.204,-0.13,-0.29
2021-08-01 02:28:56.208,-0.135,-0.29
2021-08-01 02:28:56.212,-0.13,-0.29
2021-08-01 02:28:56.216,-0.125,-0.28
2021-08-01 02:28:56.220,-0.125,-0.265
2021-08-01 02:28:56.224,-0.105,-0.29
2021-08-01 02:28:56.228,-0.1,-0.27
2021-08-01 02:28:56.232,-0.105,-0.26
2021-08-01 02:28:56.236,-0.085,-0.245
2021-08-01 02:28:56.240,-0.075,-0.25
2021-08-01 02:28:56.244,-0.065,-0.245
2021-08-01 02:28:56.248,-0.06,-0.255
2021-08-01 02:28:56.252,-0.07,-0.28
2021-08-01 02:28:56.256,-0.065,-0.295
2021-08-01 02:28:56.260,-0.055,-0.285
2021-08-01 02:28:56.264,-0.02,-0.25
2021-08-01 02:28:56.268,-0.03,-0.185
2021-08-01 02:28:56.272,-0.015,-0.12
2021-08-01 02:28:56.276,-0.015,0.035
2021-08-01 02:28:56.280,0.015,0.235
2021-08-01 02:28:56.284,0.035,0.45
2021-08-01 02:28:56.288,0.055,0.66
2021-08-01 02:28:56.292,0.085,0.77
2021-08-01 02:28:56.296,0.13,0.64
2021-08-01 02:28:56.300,0.185,0.315
2021-08-01 02:28:56.304,0.215,-0.23
2021-08-01 02:28:56.308,0.13,-0.76
2021-08-01 02:28:56.312,0.03,-1.07
2021-08-01 02:28:56.316,-0.105,-1.16
2021-08-01 02:28:56.320,-0.29,-1.04
2021-08-01 02:28:56.324,-0.405,-0.835
2021-08-01 02:28:56.328,-0.435,-0.66
2021-08-01 02:28:56.332,-0.415,-0.54
2021-08-01 02:28:56.336,-0.38,-0.425
2021-08-01 02:28:56.340,-0.31,-0.32
2021-08-01 02:28:56.344,-0.225,-0.265
2021-08-01 02:28:56.348,-0.16,-0.26
2021-08-01 02:28:56.352,-0.125,-0.28
2021-08-01 02:28:56.356,-0.095,-0.3
2021-08-01 02:28:56.360,-0.1,-0.28
2021-08-01 02:28:56.364,-0.105,-0.285
2021-08-01 02:28:56.368,-0.125,-0.295
2021-08-01 02:28:56.372,-0.105,-0.305
2021-08-01 02:28:56.376,-0.11,-0.295
2021-08-01 02:28:56.380,-0.12,-0.285
2021-08-01 02:28:56.384,-0.095,-0.295
2021-08-01 02:28:56.388,-0.11,-0.305
2021-08-01 02:28:56.392,-0.1,-0.3
2021-08-01 02:28:56.396,-0.12,-0.31
2021-08-01 02:28:56.400,-0.115,-0.31
2021-08-01 02:28:56.404,-0.12,-0.31
2021-08-01 02:28:56.408,-0.11,-0.31
2021-08-01 02:28:56.412,-0.095,-0.32
2021-08-01 02:28:56.416,-0.105,-0.31
2021-08-01 02:28:56.420,-0.105,-0.3
2021-08-01 02:28:56.424,-0.095,-0.28
2021-08-01 02:28:56.428,-0.09,-0.295
2021-08-01 02:28:56.432,-0.075,-0.31
2021-08-01 02:28:56.436,-0.04,-0.32
2021-08-01 02:28:56.440,-0.035,-0.27
2021-08-01 02:28:56.444,-0.07,-0.235
2021-08-01 02:28:56.448,-0.03,-0.245
2021-08-01 02:28:56.452,-0.02,-0.22
2021-08-01 02:28:56.456,-0.045,-0.215
2021-08-01 02:28:56.460,-0.04,-0.21
2021-08-01 02:28:56.464,-0.045,-0.21
2021-08-01 02:28:56.468,-0.07,-0.205
2021-08-01 02:28:56.472,-0.08,-0.22
2021-08-01 02:28:56.476,-0.09,-0.235
2021-08-01 02:28:56.480,-0.1,-0.24
2021-08-01 02:28:56.484,-0.12,-0.23
2021-08-01 02:28:56.488,-0.115,-0.235
2021-08-01 02:28:56.492,-0.1,-0.225
2021-08-01 02:28:56.496,-0.1,-0.215
2021-08-01 02:28:56.500,-0.095,-0.22
2021-08-01 02:28:56.504,-0.1,-0.2
2021-08-01 02:28:56.508,-0.11,-0.19
2021-08-01 02:28:56.512,-0.105,-0.18
2021-08-01 02:28:56.516,-0.11,-0.195
2021-08-01 02:28:56.520,-0.1,-0.2
2021-08-01 02:28:56.524,-0.095,-0.185
2021-08-01 02:28:56.528,-0.08,-0.185
2021-08-01 02:28:56.532,-0.085,-0.17
2021-08-01 02:28:56.536,-0.085,-0.16
2021-08-01 02:28:56.540,-0.06,-0.145
2021-08-01 02:28:56.544,-0.045,-0.14
2021-08-01 02:28:56.548,-0.07,-0.145
2021-08-01 02:28:56.552,-0.065,-0.14
2021-08-01 02:28:56.556,-0.09,-0.15
2021-08-01 02:28:56.560,-0.085,-0.135
2021-08-01 02:28:56.564,-0.08,-0.1
2021-08-01 02:28:56.568,-0.07,-0.095
2021-08-01 02:28:56.572,-0.06,-0.09
2021-08-01 02:28:56.576,-0.055,-0.07
2021-08-01 02:28:56.580,-0.045,-0.04
2021-08-01 02:28:56.584,-0.02,-0.04
2021-08-01 02:28:56.588,-0.02,-0.06
2021-08-01 02:28:56.592,-0.005,-0.09
2021-08-01 02:28:56.596,0.0,-0.08
2021-08-01 02:28:56.600,0.01,-0.05
2021-08-01 02:28:56.604,0.03,-0.035
2021-08-01 02:28:56.608,0.04,-0.07
2021-08-01 02:28:56.612,0.02,-0.085
2021-08-01 02:28:56.616,0.02,-0.105
2021-08-01 02:28:56.620,-0.02,-0.11
2021-08-01 02:28:56.624,-0.005,-0.125
2021-08-01 02:28:56.628,-0.015,-0.14
2021-08-01 02:28:56.632,-0.02,-0.15
2021-08-01 02:28:56.636,-0.045,-0.165
2021-08-01 02:28:56.640,-0.035,-0.18
2021-08-01 02:28:56.644,-0.06,-0.195
2021-08-01 02:28:56.648,-0.08,-0.175
2021-08-01 02:28:56.652,-0.08,-0.185
2021-08-01 02:28:56.656,-0.08,-0.185
2021-08-01 02:28:56.660,-0.08,-0.18
2021-08-01 02:28:56.664,-0.06,-0.19
2021-08-01 02:28:56.668,-0.085,-0.19
2021-08-01 02:28:56.672,-0.065,-0.19
2021-08-01 02:28:56.676,-0.09,-0.205
2021-08-01 02:28:56.680,-0.075,-0.2
2021-08-01 02:28:56.684,-0.08,-0.21
2021-08-01 02:28:56.688,-0.065,-0.185
2021-08-01 02:28:56.692,-0.07,-0.21
2021-08-01 02:28:56.696,-0.075,-0.215
2021-08-01 02:28:56.700,-0.08,-0.23
2021-08-01 02:28:56.704,-0.08,-0.21
2021-08-01 02:28:56.708,-0.09,-0.205
2021-08-01 02:28:56.712,-0.065,-0.21
2021-08-01 02:28:56.716,-0.075,-0.23
2021-08-01 02:28:56.720,-0.085,-0.22
2021-08-01 02:28:56.724,-0.065,-0.215
2021-08-01 02:28:56.728,-0.065,-0.22
2021-08-01 02:28:56.732,-0.08,-0.225
2021-08-01 02:28:56.736,-0.07,-0.245
2021-08-01 02:28:56.740,-0.06,-0.25
2021-08-01 02:28:56.744,-0.085,-0.235
2021-08-01 02:28:56.748,-0.07,-0.23
2021-08-01 02:28:56.752,-0.07,-0.23
2021-08-01 02:28:56.756,-0.07,-0.265
2021-08-01 02:28:56.760,-0.055,-0.275
2021-08-01 02:28:56.764,-0.045,-0.305
2021-08-01 02:28:56.768,-0.05,-0.25
2021-08-01 02:28:56.772,-0.055,-0.18
2021-08-01 02:28:56.776,-0.025,-0.16
2021-08-01 02:28:56.780,-0.02,-0.14
2021-08-01 02:28:56.784,-0.025,-0.095
2021-08-01 02:28:56.788,-0.03,-0.105
2021-08-01 02:28:56.792,-0.015,-0.1
2021-08-01 02:28:56.796,-0.01,-0.125
2021-08-01 02:28:56.800,-0.035,-0.145
2021-08-01 02:28:56.804,-0.03,-0.14
2021-08-01 02:28:56.808,-0.02,-0.16
2021-08-01 02:28:56.812,-0.04,-0.16
2021-08-01 02:28:56.816,-0.05,-0.155
2021-08-01 02:28:56.820,-0.065,-0.125
2021-08-01 02:28:56.824,-0.045,0.0
2021-08-01 02:28:56.828,-0.03,0.16
2021-08-01 02:28:56.832,-0.005,0.395
2021-08-01 02:28:56.836,0.01,0.59
2021-08-01 02:28:56.840,0.07,0.635
2021-08-01 02:28:56.844,0.14,0.455
2021-08-01 02:28:56.848,0.205,0.075
2021-08-01 02:28:56.852,0.21,-0.465
2021-08-01 02:28:56.856,0.17,-0.915
2021-08-01 02:28:56.860,0.125,-1.125
2021-08-01 02:28:56.864,0.0,-1.125
2021-08-01 02:28:56.868,-0.16,-0.96
2021-08-01 02:28:56.872,-0.255,-0.83
2021-08-01 02:28:56.876,-0.32,-0.7
2021-08-01 02:28:56.880,-0.335,-0.59
2021-08-01 02:28:56.884,-0.33,-0.465
2021-08-01 02:28:56.888,-0.275,-0.35
2021-08-01 02:28:56.892,-0.215,-0.29
2021-08-01 02:28:56.896,-0.18,-0.26
2021-08-01 02:28:56.900,-0.1,-0.28
2021-08-01 02:28:56.904,-0.085,-0.26
2021-08-01 02:28:56.908,-0.09,-0.255
2021-08-01 02:28:56.912,-0.105,-0.265
2021-08-01 02:28:56.916,-0.095,-0.275
2021-08-01 02:28:56.920,-0.115,-0.265
2021-08-01 02:28:56.924,-0.1,-0.26
2021-08-01 02:28:56.928,-0.075,-0.24
2021-08-01 02:28:56.932,-0.07,-0.24
2021-08-01 02:28:56.936,-0.065,-0.24
2021-08-01 02:28:56.940,-0.05,-0.275
2021-08-01 02:28:56.944,-0.06,-0.265
2021-08-01 02:28:56.948,-0.07,-0.26
2021-08-01 02:28:56.952,-0.06,-0.29
2021-08-01 02:28:56.956,-0.045,-0.265
2021-08-01 02:28:56.960,-0.055,-0.265
2021-08-01 02:28:56.964,-0.04,-0.255
2021-08-01 02:28:56.968,-0.04,-0.25
2021-08-01 02:28:56.972,-0.055,-0.235
2021-08-01 02:28:56.976,-0.045,-0.225
2021-08-01 02:28:56.980,-0.07,-0.245
2021-08-01 02:28:56.984,-0.1,-0.265
2021-08-01 02:28:56.988,-0.105,-0.245
2021-08-01 02:28:56.992,-0.115,-0.245
2021-08-01 02:28:56.996,-0.115,-0.265
2021-08-01 02:28:57.000,-0.125,-0.265
2021-08-01 02:28:57.004,-0.13,-0.27
2021-08-01 02:28:57.008,-0.14,-0.295
2021-08-01 02:28:57.012,-0.155,-0.295
2021-08-01 02:28:57.016,-0.18,-0.315
2021-08-01 02:28:57.020,-0.15,-0.315
2021-08-01 02:28:57.024,-0.155,-0.315
2021-08-01 02:28:57.028,-0.185,-0.295
2021-08-01 02:28:57.032,-0.19,-0.29
2021-08-01 02:28:57.036,-0.18,-0.305
2021-08-01 02:28:57.040,-0.165,-0.295
2021-08-01 02:28:57.044,-0.18,-0.3
2021-08-01 02:28:57.048,-0.17,-0.26
2021-08-01 02:28:57.052,-0.17,-0.26
2021-08-01 02:28:57.056,-0.15,-0.27
2021-08-01 02:28:57.060,-0.13,-0.265
2021-08-01 02:28:57.064,-0.135,-0.245
2021-08-01 02:28:57.068,-0.15,-0.23
2021-08-01 02:28:57.072,-0.145,-0.22
2021-08-01 02:28:57.076,-0.13,-0.245
2021-08-01 02:28:57.080,-0.13,-0.22
2021-08-01 02:28:57.084,-0.15,-0.21
2021-08-01 02:28:57.088,-0.125,-0.205
2021-08-01 02:28:57.092,-0.125,-0.18
2021-08-01 02:28:57.096,-0.115,-0.16
2021-08-01 02:28:57.100,-0.09,-0.155
2021-08-01 02:28:57.104,-0.095,-0.145
2021-08-01 02:28:57.108,-0.08,-0.14
2021-08-01 02:28:57.112,-0.07,-0.14
2021-08-01 02:28:57.116,-0.055,-0.185
2021-08-01 02:28:57.120,-0.02,-0.215
2021-08-01 02:28:57.124,-0.04,-0.215
2021-08-01 02:28:57.128,-0.04,-0.195
2021-08-01 02:28:57.132,-0.04,-0.175
2021-08-01 02:28:57.136,-0.03,-0.145
2021-08-01 02:28:57.140,-0.04,-0.175
2021-08-01 02:28:57.144,-0.025,-0.17
2021-08-01 02:28:57.148,-0.04,-0.16
2021-08-01 02:28:57.152,-0.035,-0.16
2021-08-01 02:28:57.156,-0.05,-0.165
2021-08-01 02:28:57.160,-0.065,-0.175
2021-08-01 02:28:57.164,-0.08,-0.18
2021-08-01 02:28:57.168,-0.075,-0.195
2021-08-01 02:28:57.172,-0.065,-0.205
2021-08-01 02:28:57.176,-0.06,-0.21
2021-08-01 02:28:57.180,-0.095,-0.2
2021-08-01 02:28:57.184,-0.085,-0.21
2021-08-01 02:28:57.188,-0.08,-0.21
2021-08-01 02:28:57.192,-0.095,-0.21
2021-08-01 02:28:57.196,-0.11,-0.23
2021-08-01 02:28:57.200,-0.115,-0.245
2021-08-01 02:28:57.204,-0.12,-0.245
2021-08-01 02:28:57.208,-0.11,-0.235
2021-08-01 02:28:57.212,-0.105,-0.245
2021-08-01 02:28:57.216,-0.09,-0.25
2021-08-01 02:28:57.220,-0.1,-0.245
2021-08-01 02:28:57.224,-0.09,-0.23
2021-08-01 02:28:57.228,-0.1,-0.24
2021-08-01 02:28:57.232,-0.1,-0.24
2021-08-01 02:28:57.236,-0.09,-0.235
2021-08-01 02:28:57.240,-0.095,-0.26
2021-08-01 02:28:57.244,-0.105,-0.25
2021-08-01 02:28:57.248,-0.08,-0.245
2021-08-01 02:28:57.252,-0.09,-0.23
2021-08-01 02:28:57.256,-0.09,-0.235
2021-08-01 02:28:57.260,-0.085,-0.245
2021-08-01 02:28:57.264,-0.08,-0.245
2021-08-01 02:28:57.268,-0.065,-0.235
2021-08-01 02:28:57.272,-0.07,-0.235
2021-08-01 02:28:57.276,-0.065,-0.23
2021-08-01 02:28:57.280,-0.055,-0.275
2021-08-01 02:28:57.284,-0.05,-0.29
2021-08-01 02:28:57.288,-0.045,-0.33
2021-08-01 02:28:57.292,-0.05,-0.34
2021-08-01 02:28:57.296,-0.035,-0.315
2021-08-01 02:28:57.300,-0.03,-0.285
2021-08-01 02:28:57.304,-0.02,-0.25
2021-08-01 02:28:57.308,-0.045,-0.23
2021-08-01 02:28:57.312,-0.055,-0.195
2021-08-01 02:28:57.316,-0.035,-0.19
2021-08-01 02:28:57.320,-0.025,-0.21
2021-08-01 02:28:57.324,-0.05,-0.21
2021-08-01 02:28:57.328,-0.045,-0.22
2021-08-01 02:28:57.332,-0.055,-0.215
2021-08-01 02:28:57.336,-0.065,-0.215
2021-08-01 02:28:57.340,-0.06,-0.245
2021-08-01 02:28:57.344,-0.08,-0.225
2021-08-01 02:28:57.348,-0.08,-0.26
2021-08-01 02:28:57.352,-0.075,-0.265
2021-08-01 02:28:57.356,-0.07,-0.265
2021-08-01 02:28:57.360,-0.075,-0.27
2021-08-01 02:28:57.364,-0.09,-0.27
2021-08-01 02:28:57.368,-0.11,-0.275
2021-08-01 02:28:57.372,-0.09,-0.265
2021-08-01 02:28:57.376,-0.095,-0.27
2021-08-01 02:28:57.380,-0.08,-0.28
2021-08-01 02:28:57.384,-0.08,-0.28
2021-08-01 02:28:57.388,-0.11,-0.285
2021-08-01 02:28:57.392,-0.1,-0.275
2021-08-01 02:28:57.396,-0.105,-0.265
2021-08-01 02:28:57.400,-0.085,-0.25
2021-08-01 02:28:57.404,-0.09,-0.215
2021-08-01 02:28:57.408,-0.07,-0.075
2021-08-01 02:28:57.412,-0.055,0.145
2021-08-01 02:28:57.416,-0.02,0.38
2021-08-01 02:28:57.420,0.0,0.56
2021-08-01 02:28:57.424,0.08,0.605
2021-08-01 02:28:57.428,0.135,0.465
2021-08-01 02:28:57.432,0.18,0.08
2021-08-01 02:28:57.436,0.19,-0.49
2021-08-01 02:28:57.440,0.135,-0.99
2021-08-01 02:28:57.444,0.04,-1.17
2021-08-01 02:28:57.448,-0.09,-1.19
2021-08-01 02:28:57.452,-0.23,-1.065
2021-08-01 02:28:57.456,-0.31,-0.9
2021-08-01 02:28:57.460,-0.34,-0.755
2021-08-01 02:28:57.464,-0.345,-0.635
2021-08-01 02:28:57.468,-0.315,-0.53
2021-08-01 02:28:57.472,-0.255,-0.425
2021-08-01 02:28:57.476,-0.175,-0.285
2021-08-01 02:28:57.480,-0.1,-0.245
2021-08-01 02:28:57.484,-0.02,-0.23
2021-08-01 02:28:57.488,-0.025,-0.22
2021-08-01 02:28:57.492,-0.035,-0.205
2021-08-01 02:28:57.496,-0.02,-0.22
2021-08-01 02:28:57.500,-0.05,-0.2
2021-08-01 02:28:57.504,-0.07,-0.23
2021-08-01 02:28:57.508,-0.08,-0.22
2021-08-01 02:28:57.512,-0.07,-0.23
2021-08-01 02:28:57.516,-0.085,-0.245
2021-08-01 02:28:57.520,-0.07,-0.265
2021-08-01 02:28:57.524,-0.09,-0.275
2021-08-01 02:28:57.528,-0.095,-0.285
2021-08-01 02:28:57.532,-0.11,-0.27
2021-08-01 02:28:57.536,-0.11,-0.285
2021-08-01 02:28:57.540,-0.1,-0.27
2021-08-01 02:28:57.544,-0.095,-0.29
2021-08-01 02:28:57.548,-0.085,-0.295
2021-08-01 02:28:57.552,-0.1,-0.29
2021-08-01 02:28:57.556,-0.095,-0.27
2021-08-01 02:28:57.560,-0.11,-0.285
2021-08-01 02:28:57.564,-0.1,-0.29
2021-08-01 02:28:57.568,-0.095,-0.29
2021-08-01 02:28:57.572,-0.1,-0.27
2021-08-01 02:28:57.576,-0.115,-0.28
2021-08-01 02:28:57.580,-0.095,-0.265
2021-08-01 02:28:57.584,-0.085,-0.275
2021-08-01 02:28:57.588,-0.085,-0.28
2021-08-01 02:28:57.592,-0.08,-0.28
2021-08-01 02:28:57.596,-0.08,-0.29
2021-08-01 02:28:57.600,-0.1,-0.28
2021-08-01 02:28:57.604,-0.09,-0.29
2021-08-01 02:28:57.608,-0.105,-0.29
2021-08-01 02:28:57.612,-0.1,-0.265
2021-08-01 02:28:57.616,-0.095,-0.245
2021-08-01 02:28:57.620,-0.075,-0.22
2021-08-01 02:28:57.624,-0.045,-0.205
2021-08-01 02:28:57.628,-0.045,-0.235
2021-08-01 02:28:57.632,-0.045,-0.255
2021-08-01 02:28:57.636,-0.035,-0.22
2021-08-01 02:28:57.640,-0.04,-0.17
2021-08-01 02:28:57.644,-0.015,-0.155
2021-08-01 02:28:57.648,0.0,-0.17
2021-08-01 02:28:57.652,-0.02,-0.16
2021-08-01 02:28:57.656,-0.03,-0.135
2021-08-01 02:28:57.660,-0.04,-0.145
2021-08-01 02:28:57.664,-0.045,-0.16
2021-08-01 02:28:57.668,-0.06,-0.16
2021-08-01 02:28:57.672,-0.045,-0.15
2021-08-01 02:28:57.676,-0.05,-0.15
2021-08-01 02:28:57.680,-0.07,-0.175
2021-08-01 02:28:57.684,-0.08,-0.15
2021-08-01 02:28:57.688,-0.085,-0.15
2021-08-01 02:28:57.692,-0.1,-0.155
2021-08-01 02:28:57.696,-0.075,-0.155
2021-08-01 02:28:57.700,-0.075,-0.155
2021-08-01 02:28:57.704,-0.08,-0.155
2021-08-01 02:28:57.708,-0.08,-0.155
2021-08-01 02:28:57.712,-0.1,-0.18
2021-08-01 02:28:57.716,-0.075,-0.185
2021-08-01 02:28:57.720,-0.05,-0.19
2021-08-01 02:28:57.724,-0.075,-0.185
2021-08-01 02:28:57.728,-0.07,-0.215
2021-08-01 02:28:57.732,-0.05,-0.21
2021-08-01 02:28:57.736,-0.05,-0.205
2021-08-01 02:28:57.740,-0.065,-0.195
2021-08-01 02:28:57.744,-0.075,-0.23
2021-08-01 02:28:57.748,-0.07,-0.23
2021-08-01 02:28:57.752,-0.04,-0.225
2021-08-01 02:28:57.756,-0.04,-0.225
2021-08-01 02:28:57.760,-0.055,-0.225
2021-08-01 02:28:57.764,-0.06,-0.215
2021-08-01 02:28:57.768,-0.065,-0.215
2021-08-01 02:28:57.772,-0.05,-0.225
2021-08-01 02:28:57.776,-0.045,-0.21
2021-08-01 02:28:57.780,-0.065,-0.2
2021-08-01 02:28:57.784,-0.07,-0.185
2021-08-01 02:28:57.788,-0.03,-0.185
2021-08-01 02:28:57.792,-0.02,-0.18
2021-08-01 02:28:57.796,-0.025,-0.16
2021-08-01 02:28:57.800,-0.005,-0.18
2021-08-01 02:28:57.804,-0.005,-0.18
2021-08-01 02:28:57.808,-0.005,-0.16
2021-08-01 02:28:57.812,0.0,-0.155
2021-08-01 02:28:57.816,0.035,-0.125
2021-08-01 02:28:57.820,0.035,-0.125
2021-08-01 02:28:57.824,0.04,-0.12
2021-08-01 02:28:57.828,0.015,-0.14
2021-08-01 02:28:57.832,0.0,-0.14
2021-08-01 02:28:57.836,-0.015,-0.16
2021-08-01 02:28:57.840,-0.02,-0.185
2021-08-01 02:28:57.844,-0.05,-0.205
2021-08-01 02:28:57.848,-0.055,-0.22
2021-08-01 02:28:57.852,-0.08,-0.235
2021-08-01 02:28:57.856,-0.08,-0.22
2021-08-01 02:28:57.860,-0.075,-0.225
2021-08-01 02:28:57.864,-0.065,-0.245
2021-08-01 02:28:57.868,-0.08,-0.25
2021-08-01 02:28:57.872,-0.09,-0.245
2021-08-01 02:28:57.876,-0.1,-0.245
2021-08-01 02:28:57.880,-0.08,-0.255
2021-08-01 02:28:57.884,-0.08,-0.25
2021-08-01 02:28:57.888,-0.09,-0.255
2021-08-01 02:28:57.892,-0.095,-0.265
2021-08-01 02:28:57.896,-0.085,-0.26
2021-08-01 02:28:57.900,-0.095,-0.24
2021-08-01 02:28:57.904,-0.095,-0.255
2021-08-01 02:28:57.908,-0.08,-0.265
2021-08-01 02:28:57.912,-0.08,-0.26
2021-08-01 02:28:57.916,-0.08,-0.26
2021-08-01 02:28:57.920,-0.1,-0.25
2021-08-01 02:28:57.924,-0.08,-0.25
2021-08-01 02:28:57.928,-0.075,-0.265
2021-08-01 02:28:57.932,-0.1,-0.28
2021-08-01 02:28:57.936,-0.09,-0.27
2021-08-01 02:28:57.940,-0.09,-0.265
2021-08-01 02:28:57.944,-0.085,-0.26
2021-08-01 02:28:57.948,-0.075,-0.265
2021-08-01 02:28:57.952,-0.09,-0.26
2021-08-01 02:28:57.956,-0.105,-0.24
2021-08-01 02:28:57.960,-0.075,-0.255
2021-08-01 02:28:57.964,-0.06,-0.25
2021-08-01 02:28:57.968,-0.065,-0.24
2021-08-01 02:28:57.972,-0.065,-0.25
2021-08-01 02:28:57.976,-0.035,-0.29
2021-08-01 02:28:57.980,-0.05,-0.28
2021-08-01 02:28:57.984,-0.035,-0.235
2021-08-01 02:28:57.988,-0.025,-0.205
2021-08-01 02:28:57.992,0.0,-0.115
2021-08-01 02:28:57.996,0.005,0.015
2021-08-01 02:28:58.000,0.01,0.235
2021-08-01 02:28:58.004,0.03,0.48
2021-08-01 02:28:58.008,0.045,0.685
2021-08-01 02:28:58.012,0.11,0.77
2021-08-01 02:28:58.016,0.19,0.62
2021-08-01 02:28:58.020,0.225,0.235
2021-08-01 02:28:58.024,0.23,-0.395
2021-08-01 02:28:58.028,0.155,-0.925
2021-08-01 02:28:58.032,0.015,-1.15
2021-08-01 02:28:58.036,-0.18,-1.155
2021-08-01 02:28:58.040,-0.31,-1.0
2021-08-01 02:28:58.044,-0.41,-0.83
2021-08-01 02:28:58.048,-0.43,-0.67
2021-08-01 02:28:58.052,-0.395,-0.535
2021-08-01 02:28:58.056,-0.365,-0.43
2021-08-01 02:28:58.060,-0.29,-0.33
2021-08-01 02:28:58.064,-0.215,-0.33
2021-08-01 02:28:58.068,-0.16,-0.36
2021-08-01 02:28:58.072,-0.14,-0.37
2021-08-01 02:28:58.076,-0.14,-0.345
2021-08-01 02:28:58.080,-0.13,-0.355
2021-08-01 02:28:58.084,-0.14,-0.34
2021-08-01 02:28:58.088,-0.155,-0.345
2021-08-01 02:28:58.092,-0.145,-0.35
2021-08-01 02:28:58.096,-0.15,-0.355
2021-08-01 02:28:58.100,-0.135,-0.35
2021-08-01 02:28:58.104,-0.135,-0.345
2021-08-01 02:28:58.108,-0.13,-0.34
2021-08-01 02:28:58.112,-0.135,-0.36
2021-08-01 02:28:58.116,-0.12,-0.36
2021-08-01 02:28:58.120,-0.12,-0.345
2021-08-01 02:28:58.124,-0.115,-0.345
2021-08-01 02:28:58.128,-0.11,-0.355
2021-08-01 02:28:58.132,-0.125,-0.335
2021-08-01 02:28:58.136,-0.1,-0.33
2021-08-01 02:28:58.140,-0.08,-0.325
2021-08-01 02:28:58.144,-0.06,-0.325
2021-08-01 02:28:58.148,-0.08,-0.375
2021-08-01 02:28:58.152,-0.09,-0.38
2021-08-01 02:28:58.156,-0.105,-0.36
2021-08-01 02:28:58.160,-0.08,-0.33
2021-08-01 02:28:58.164,-0.07,-0.31
2021-08-01 02:28:58.168,-0.065,-0.305
2021-08-01 02:28:58.172,-0.09,-0.28
2021-08-01 02:28:58.176,-0.105,-0.285
2021-08-01 02:28:58.180,-0.115,-0.26
2021-08-01 02:28:58.184,-0.12,-0.24
2021-08-01 02:28:58.188,-0.12,-0.26
2021-08-01 02:28:58.192,-0.12,-0.28
2021-08-01 02:28:58.196,-0.115,-0.27
2021-08-01 02:28:58.200,-0.12,-0.255
2021-08-01 02:28:58.204,-0.11,-0.24
2021-08-01 02:28:58.208,-0.12,-0.245
2021-08-01 02:28:58.212,-0.125,-0.27
2021-08-01 02:28:58.216,-0.14,-0.245
2021-08-01 02:28:58.220,-0.14,-0.245
2021-08-01 02:28:58.224,-0.12,-0.245
2021-08-01 02:28:58.228,-0.125,-0.24
2021-08-01 02:28:58.232,-0.12,-0.26
2021-08-01 02:28:58.236,-0.12,-0.25
2021-08-01 02:28:58.240,-0.13,-0.24
2021-08-01 02:28:58.244,-0.145,-0.22
2021-08-01 02:28:58.248,-0.13,-0.225
2021-08-01 02:28:58.252,-0.145,-0.22
2021-08-01 02:28:58.256,-0.13,-0.23
2021-08-01 02:28:58.260,-0.125,-0.205
2021-08-01 02:28:58.264,-0.14,-0.2
2021-08-01 02:28:58.268,-0.12,-0.195
2021-08-01 02:28:58.272,-0.11,-0.185
2021-08-01 02:28:58.276,-0.11,-0.185
2021-08-01 02:28:58.280,-0.1,-0.175
2021-08-01 02:28:58.284,-0.09,-0.15
2021-08-01 02:28:58.288,-0.1,-0.155
2021-08-01 02:28:58.292,-0.09,-0.16
2021-08-01 02:28:58.296,-0.085,-0.16
2021-08-01 02:28:58.300,-0.075,-0.145
2021-08-01 02:28:58.304,-0.05,-0.15
2021-08-01 02:28:58.308,-0.025,-0.17
2021-08-01 02:28:58.312,-0.045,-0.205
2021-08-01 02:28:58.316,-0.03,-0.235
2021-08-01 02:28:58.320,-0.02,-0.255
2021-08-01 02:28:58.324,-0.025,-0.285
2021-08-01 02:28:58.328,-0.035,-0.285
2021-08-01 02:28:58.332,-0.03,-0.26
2021-08-01 02:28:58.336,-0.02,-0.215
2021-08-01 02:28:58.340,0.0,-0.205
2021-08-01 02:28:58.344,-0.02,-0.18
2021-08-01 02:28:58.348,-0.04,-0.175
2021-08-01 02:28:58.352,-0.045,-0.185
2021-08-01 02:28:58.356,-0.055,-0.19
2021-08-01 02:28:58.360,-0.05,-0.21
2021-08-01 02:28:58.364,-0.055,-0.2
2021-08-01 02:28:58.368,-0.06,-0.225
2021-08-01 02:28:58.372,-0.055,-0.24
2021-08-01 02:28:58.376,-0.085,-0.24
2021-08-01 02:28:58.380,-0.11,-0.255
2021-08-01 02:28:58.384,-0.09,-0.25
2021-08-01 02:28:58.388,-0.1,-0.27
2021-08-01 02:28:58.392,-0.125,-0.26
2021-08-01 02:28:58.396,-0.105,-0.285
2021-08-01 02:28:58.400,-0.09,-0.275
2021-08-01 02:28:58.404,-0.1,-0.28
2021-08-01 02:28:58.408,-0.095,-0.28
2021-08-01 02:28:58.412,-0.095,-0.27
2021-08-01 02:28:58.416,-0.095,-0.26
2021-08-01 02:28:58.420,-0.09,-0.29
2021-08-01 02:28:58.424,-0.095,-0.265
2021-08-01 02:28:58.428,-0.08,-0.26
2021-08-01 02:28:58.432,-0.09,-0.25
2021-08-01 02:28:58.436,-0.115,-0.285
2021-08-01 02:28:58.440,-0.095,-0.285
2021-08-01 02:28:58.444,-0.065,-0.27
2021-08-01 02:28:58.448,-0.095,-0.28
2021-08-01 02:28:58.452,-0.085,-0.29
2021-08-01 02:28:58.456,-0.1,-0.295
2021-08-01 02:28:58.460,-0.105,-0.285
2021-08-01 02:28:58.464,-0.1,-0.27
2021-08-01 02:28:58.468,-0.075,-0.275
2021-08-01 02:28:58.472,-0.085,-0.28
2021-08-01 02:28:58.476,-0.09,-0.305
2021-08-01 02:28:58.480,-0.08,-0.295
2021-08-01 02:28:58.484,-0.08,-0.295
2021-08-01 02:28:58.488,-0.07,-0.285
2021-08-01 02:28:58.492,-0.075,-0.225
2021-08-01 02:28:58.496,-0.04,-0.035
2021-08-01 02:28:58.500,0.015,0.205
2021-08-01 02:28:58.504,0.045,0.44
2021-08-01 02:28:58.508,0.135,0.565
2021-08-01 02:28:58.512,0.195,0.475
2021-08-01 02:28:58.516,0.26,0.145
2021-08-01 02:28:58.520,0.23,-0.335
2021-08-01 02:28:58.524,0.13,-0.78
2021-08-01 02:28:58.528,0.01,-1.02
2021-08-01 02:28:58.532,-0.12,-1.085
2021-08-01 02:28:58.536,-0.27,-0.965
2021-08-01 02:28:58.540,-0.365,-0.78
2021-08-01 02:28:58.544,-0.37,-0.615
2021-08-01 02:28:58.548,-0.335,-0.485
2021-08-01 02:28:58.552,-0.315,-0.37
2021-08-01 02:28:58.556,-0.245,-0.3
2021-08-01 02:28:58.560,-0.18,-0.26
2021-08-01 02:28:58.564,-0.125,-0.27
2021-08-01 02:28:58.568,-0.1,-0.26
2021-08-01 02:28:58.572,-0.09,-0.275
2021-08-01 02:28:58.576,-0.085,-0.29
2021-08-01 02:28:58.580,-0.06,-0.295
2021-08-01 02:28:58.584,-0.08,-0.295
2021-08-01 02:28:58.588,-0.075,-0.28
2021-08-01 02:28:58.592,-0.07,-0.275
2021-08-01 02:28:58.596,-0.09,-0.295
2021-08-01 02:28:58.600,-0.085,-0.295
2021-08-01 02:28:58.604,-0.06,-0.285
2021-08-01 02:28:58.608,-0.075,-0.28
2021-08-01 02:28:58.612,-0.065,-0.3
2021-08-01 02:28:58.616,-0.065,-0.3
2021-08-01 02:28:58.620,-0.075,-0.295
2021-08-01 02:28:58.624,-0.08,-0.3
2021-08-01 02:28:58.628,-0.065,-0.3
2021-08-01 02:28:58.632,-0.055,-0.305
2021-08-01 02:28:58.636,-0.06,-0.285
2021-08-01 02:28:58.640,-0.075,-0.295
2021-08-01 02:28:58.644,-0.04,-0.275
2021-08-01 02:28:58.648,-0.03,-0.27
2021-08-01 02:28:58.652,-0.02,-0.28
2021-08-01 02:28:58.656,-0.02,-0.26
2021-08-01 02:28:58.660,-0.015,-0.225
2021-08-01 02:28:58.664,-0.02,-0.2
2021-08-01 02:28:58.668,0.0,-0.21
2021-08-01 02:28:58.672,0.005,-0.205
2021-08-01 02:28:58.676,0.0,-0.18
2021-08-01 02:28:58.680,0.0,-0.205
2021-08-01 02:28:58.684,-0.005,-0.185
2021-08-01 02:28:58.688,-0.04,-0.155
2021-08-01 02:28:58.692,-0.045,-0.165
2021-08-01 02:28:58.696,-0.05,-0.185
2021-08-01 02:28:58.700,-0.045,-0.165
2021-08-01 02:28:58.704,-0.045,-0.16
2021-08-01 02:28:58.708,-0.07,-0.18
2021-08-01 02:28:58.712,-0.07,-0.195
2021-08-01 02:28:58.716,-0.075,-0.21
2021-08-01 02:28:58.720,-0.09,-0.215
2021-08-01 02:28:58.724,-0.085,-0.21
2021-08-01 02:28:58.728,-0.085,-0.21
2021-08-01 02:28:58.732,-0.08,-0.195
2021-08-01 02:28:58.736,-0.075,-0.2
2021-08-01 02:28:58.740,-0.075,-0.2
2021-08-01 02:28:58.744,-0.09,-0.175
2021-08-01 02:28:58.748,-0.085,-0.175
2021-08-01 02:28:58.752,-0.08,-0.155
2021-08-01 02:28:58.756,-0.085,-0.145
2021-08-01 02:28:58.760,-0.08,-0.15
2021-08-01 02:28:58.764,-0.085,-0.13
2021-08-01 02:28:58.768,-0.045,-0.135
2021-08-01 02:28:58.772,-0.055,-0.1
2021-08-01 02:28:58.776,-0.055,-0.105
2021-08-01 02:28:58.780,-0.055,-0.105
2021-08-01 02:28:58.784,-0.025,-0.1
2021-08-01 02:28:58.788,-0.035,-0.1
2021-08-01 02:28:58.792,-0.035,-0.12
2021-08-01 02:28:58.796,-0.025,-0.12
2021-08-01 02:28:58.800,-0.045,-0.135
2021-08-01 02:28:58.804,-0.03,-0.135
2021-08-01 02:28:58.808,-0.03,-0.15
2021-08-01 02:28:58.812,-0.03,-0.15
2021-08-01 02:28:58.816,-0.03,-0.15
2021-08-01 02:28:58.820,-0.01,-0.14
2021-08-01 02:28:58.824,0.0,-0.125
2021-08-01 02:28:58.828,0.02,-0.12
2021-08-01 02:28:58.832,0.015,-0.13
2021-08-01 02:28:58.836,0.03,-0.115
2021-08-01 02:28:58.840,0.02,-0.105
2021-08-01 02:28:58.844,0.03,-0.09
2021-08-01 02:28:58.848,0.04,-0.09
2021-08-01 02:28:58.852,0.06,-0.065
2021-08-01 02:28:58.856,0.045,-0.06
2021-08-01 02:28:58.860,0.06,-0.075
2021-08-01 02:28:58.864,0.03,-0.08
2021-08-01 02:28:58.868,0.015,-0.08
2021-08-01 02:28:58.872,0.0,-0.095
2021-08-01 02:28:58.876,-0.005,-0.12
2021-08-01 02:28:58.880,-0.025,-0.145
2021-08-01 02:28:58.884,-0.04,-0.155
2021-08-01 02:28:58.888,-0.05,-0.165
2021-08-01 02:28:58.892,-0.065,-0.155
2021-08-01 02:28:58.896,-0.08,-0.165
2021-08-01 02:28:58.900,-0.07,-0.2
2021-08-01 02:28:58.904,-0.075,-0.2
2021-08-01 02:28:58.908,-0.09,-0.195
2021-08-01 02:28:58.912,-0.095,-0.21
2021-08-01 02:28:58.916,-0.085,-0.205
2021-08-01 02:28:58.920,-0.085,-0.205
2021-08-01 02:28:58.924,-0.09,-0.225
2021-08-01 02:28:58.928,-0.08,-0.225
2021-08-01 02:28:58.932,-0.08,-0.22
2021-08-01 02:28:58.936,-0.1,-0.215
2021-08-01 02:28:58.940,-0.105,-0.23
2021-08-01 02:28:58.944,-0.095,-0.225
2021-08-01 02:28:58.948,-0.09,-0.215
2021-08-01 02:28:58.952,-0.09,-0.22
2021-08-01 02:28:58.956,-0.065,-0.225
2021-08-01 02:28:58.960,-0.075,-0.23
2021-08-01 02:28:58.964,-0.09,-0.235
2021-08-01 02:28:58.968,-0.06,-0.23
2021-08-01 02:28:58.972,-0.07,-0.22
2021-08-01 02:28:58.976,-0.07,-0.215
2021-08-01 02:28:58.980,-0.09,-0.245
2021-08-01 02:28:58.984,-0.08,-0.235
2021-08-01 02:28:58.988,-0.08,-0.215
2021-08-01 02:28:58.992,-0.065,-0.22
2021-08-01 02:28:58.996,-0.06,-0.21
2021-08-01 02:28:59.000,-0.055,-0.205
2021-08-01 02:28:59.004,-0.05,-0.185
2021-08-01 02:28:59.008,-0.045,-0.185
2021-08-01 02:28:59.012,-0.02,-0.18
2021-08-01 02:28:59.016,-0.025,-0.205
2021-08-01 02:28:59.020,-0.015,-0.21
2021-08-01 02:28:59.024,0.0,-0.16
2021-08-01 02:28:59.028,0.0,-0.025
2021-08-01 02:28:59.032,0.035,0.175
2021-08-01 02:28:59.036,0.05,0.445
2021-08-01 02:28:59.040,0.075,0.67
2021-08-01 02:28:59.044,0.125,0.74
2021-08-01 02:28:59.048,0.19,0.6
2021-08-01 02:28:59.052,0.255,0.295
2021-08-01 02:28:59.056,0.25,-0.24
2021-08-01 02:28:59.060,0.205,-0.73
2021-08-01 02:28:59.064,0.155,-1.005
2021-08-01 02:28:59.068,0.07,-1.07
2021-08-01 02:28:59.072,-0.095,-0.94
2021-08-01 02:28:59.076,-0.22,-0.79
2021-08-01 02:28:59.080,-0.315,-0.66
2021-08-01 02:28:59.084,-0.305,-0.53
2021-08-01 02:28:59.088,-0.31,-0.42
2021-08-01 02:28:59.092,-0.29,-0.32
2021-08-01 02:28:59.096,-0.22,-0.255
2021-08-01 02:28:59.100,-0.155,-0.225
2021-08-01 02:28:59.104,-0.095,-0.245
2021-08-01 02:28:59.108,-0.095,-0.25
2021-08-01 02:28:59.112,-0.105,-0.235
2021-08-01 02:28:59.116,-0.115,-0.25
2021-08-01 02:28:59.120,-0.11,-0.255
2021-08-01 02:28:59.124,-0.11,-0.265
2021-08-01 02:28:59.128,-0.09,-0.26
2021-08-01 02:28:59.132,-0.09,-0.28
2021-08-01 02:28:59.136,-0.1,-0.285
2021-08-01 02:28:59.140,-0.12,-0.28
2021-08-01 02:28:59.144,-0.12,-0.29
2021-08-01 02:28:59.148,-0.12,-0.27
2021-08-01 02:28:59.152,-0.115,-0.28
2021-08-01 02:28:59.156,-0.1,-0.27
2021-08-01 02:28:59.160,-0.115,-0.28
2021-08-01 02:28:59.164,-0.1,-0.26
2021-08-01 02:28:59.168,-0.11,-0.24
2021-08-01 02:28:59.172,-0.075,-0.24
2021-08-01 02:28:59.176,-0.075,-0.25
2021-08-01 02:28:59.180,-0.09,-0.245
2021-08-01 02:28:59.184,-0.095,-0.235
2021-08-01 02:28:59.188,-0.08,-0.26
2021-08-01 02:28:59.192,-0.075,-0.23
2021-08-01 02:28:59.196,-0.08,-0.205
2021-08-01 02:28:59.200,-0.045,-0.2
2021-08-01 02:28:59.204,-0.05,-0.19
2021-08-01 02:28:59.208,-0.06,-0.17
2021-08-01 02:28:59.212,-0.075,-0.135
2021-08-01 02:28:59.216,-0.08,-0.14
2021-08-01 02:28:59.220,-0.07,-0.185
2021-08-01 02:28:59.224,-0.08,-0.16
2021-08-01 02:28:59.228,-0.08,-0.185
2021-08-01 02:28:59.232,-0.08,-0.18
2021-08-01 02:28:59.236,-0.105,-0.19
2021-08-01 02:28:59.240,-0.11,-0.205
2021-08-01 02:28:59.244,-0.115,-0.2
2021-08-01 02:28:59.248,-0.135,-0.19
2021-08-01 02:28:59.252,-0.13,-0.19
2021-08-01 02:28:59.256,-0.13,-0.18
2021-08-01 02:28:59.260,-0.115,-0.195
2021-08-01 02:28:59.264,-0.135,-0.185
2021-08-01 02:28:59.268,-0.125,-0.195
2021-08-01 02:28:59.272,-0.12,-0.19
2021-08-01 02:28:59.276,-0.13,-0.16
2021-08-01 02:28:59.280,-0.125,-0.15
2021-08-01 02:28:59.284,-0.12,-0.145
2021-08-01 02:28:59.288,-0.105,-0.125
2021-08-01 02:28:59.292,-0.105,-0.125
2021-08-01 02:28:59.296,-0.105,-0.115
2021-08-01 02:28:59.300,-0.09,-0.11
2021-08-01 02:28:59.304,-0.085,-0.08
2021-08-01 02:28:59.308,-0.065,-0.08
2021-08-01 02:28:59.312,-0.055,-0.07
2021-08-01 02:28:59.316,-0.06,-0.085
2021-08-01 02:28:59.320,-0.06,-0.07
2021-08-01 02:28:59.324,-0.055,-0.095
2021-08-01 02:28:59.328,-0.035,-0.085
2021-08-01 02:28:59.332,-0.04,-0.05
2021-08-01 02:28:59.336,-0.015,-0.06
2021-08-01 02:28:59.340,-0.005,-0.075
2021-08-01 02:28:59.344,-0.01,-0.065
2021-08-01 02:28:59.348,0.0,-0.09
2021-08-01 02:28:59.352,0.005,-0.11
2021-08-01 02:28:59.356,0.02,-0.135
2021-08-01 02:28:59.360,0.01,-0.135
2021-08-01 02:28:59.364,-0.01,-0.12
2021-08-01 02:28:59.368,0.01,-0.105
2021-08-01 02:28:59.372,0.0,-0.075
2021-08-01 02:28:59.376,-0.005,-0.06
2021-08-01 02:28:59.380,-0.01,-0.06
2021-08-01 02:28:59.384,0.005,-0.07
2021-08-01 02:28:59.388,-0.01,-0.075
2021-08-01 02:28:59.392,-0.015,-0.08
2021-08-01 02:28:59.396,-0.025,-0.075
2021-08-01 02:28:59.400,-0.03,-0.095
2021-08-01 02:28:59.404,-0.045,-0.12
2021-08-01 02:28:59.408,-0.04,-0.125
2021-08-01 02:28:59.412,-0.05,-0.115
2021-08-01 02:28:59.416,-0.06,-0.125
2021-08-01 02:28:59.420,-0.065,-0.145
2021-08-01 02:28:59.424,-0.06,-0.135
2021-08-01 02:28:59.428,-0.075,-0.155
2021-08-01 02:28:59.432,-0.055,-0.15
2021-08-01 02:28:59.436,-0.045,-0.16
2021-08-01 02:28:59.440,-0.065,-0.15
2021-08-01 02:28:59.444,-0.075,-0.16
2021-08-01 02:28:59.448,-0.08,-0.17
2021-08-01 02:28:59.452,-0.07,-0.165
2021-08-01 02:28:59.456,-0.07,-0.16
2021-08-01 02:28:59.460,-0.075,-0.155
2021-08-01 02:28:59.464,-0.075,-0.15
2021-08-01 02:28:59.468,-0.075,-0.155
2021-08-01 02:28:59.472,-0.06,-0.155
2021-08-01 02:28:59.476,-0.065,-0.145
2021-08-01 02:28:59.480,-0.045,-0.155
2021-08-01 02:28:59.484,-0.05,-0.195
2021-08-01 02:28:59.488,-0.055,-0.175
2021-08-01 02:28:59.492,-0.06,-0.16
2021-08-01 02:28:59.496,-0.04,-0.165
2021-08-01 02:28:59.500,-0.045,-0.185
2021-08-01 02:28:59.504,-0.06,-0.16
2021-08-01 02:28:59.508,-0.035,-0.18
2021-08-01 02:28:59.512,-0.035,-0.18
2021-08-01 02:28:59.516,-0.035,-0.165
2021-08-01 02:28:59.520,-0.04,-0.16
2021-08-01 02:28:59.524,-0.025,-0.2
2021-08-01 02:28:59.528,-0.015,-0.185
2021-08-01 02:28:59.532,0.005,-0.19
2021-08-01 02:28:59.536,0.015,-0.155
2021-08-01 02:28:59.540,0.035,-0.12
2021-08-01 02:28:59.544,0.025,-0.085
2021-08-01 02:28:59.548,0.015,-0.055
2021-08-01 02:28:59.552,0.01,-0.02
2021-08-01 02:28:59.556,0.03,-0.04
2021-08-01 02:28:59.560,0.025,-0.04
2021-08-01 02:28:59.564,0.01,-0.07
2021-08-01 02:28:59.568,-0.015,-0.075
2021-08-01 02:28:59.572,-0.02,-0.085
2021-08-01 02:28:59.576,-0.025,-0.09
2021-08-01 02:28:59.580,-0.015,-0.09
2021-08-01 02:28:59.584,-0.03,-0.1
2021-08-01 02:28:59.588,-0.03,-0.11
2021-08-01 02:28:59.592,-0.03,-0.11
2021-08-01 02:28:59.596,-0.01,-0.09
2021-08-01 02:28:59.600,-0.035,-0.105
2021-08-01 02:28:59.604,-0.025,-0.115
2021-08-01 02:28:59.608,-0.02,-0.105
2021-08-01 02:28:59.612,-0.035,-0.11
2021-08-01 02:28:59.616,-0.04,-0.11
2021-08-01 02:28:59.620,-0.035,-0.115
2021-08-01 02:28:59.624,-0.02,-0.12
2021-08-01 02:28:59.628,-0.025,-0.105
2021-08-01 02:28:59.632,-0.025,-0.125
2021-08-01 02:28:59.636,-0.005,-0.13
2021-08-01 02:28:59.640,-0.01,-0.11
2021-08-01 02:28:59.644,-0.02,-0.11
2021-08-01 02:28:59.648,-0.02,-0.12
2021-08-01 02:28:59.652,-0.015,-0.12
2021-08-01 02:28:59.656,-0.02,-0.11
2021-08-01 02:28:59.660,-0.025,-0.14
2021-08-01 02:28:59.664,-0.005,-0.14
2021-08-01 02:28:59.668,-0.025,-0.15
2021-08-01 02:28:59.672,-0.035,-0.13
2021-08-01 02:28:59.676,-0.02,-0.12
2021-08-01 02:28:59.680,-0.01,-0.13
2021-08-01 02:28:59.684,-0.02,-0.13
2021-08-01 02:28:59.688,0.0,-0.15
2021-08-01 02:28:59.692,-0.01,-0.165
2021-08-01 02:28:59.696,-0.01,-0.175
2021-08-01 02:28:59.700,-0.01,-0.19
2021-08-01 02:28:59.704,-0.01,-0.19
2021-08-01 02:28:59.708,0.0,-0.16
2021-08-01 02:28:59.712,0.005,-0.15
2021-08-01 02:28:59.716,0.015,-0.165
2021-08-01 02:28:59.720,0.01,-0.11
2021-08-01 02:28:59.724,-0.01,-0.07
2021-08-01 02:28:59.728,0.0,-0.075
2021-08-01 02:28:59.732,0.01,-0.085
2021-08-01 02:28:59.736,0.015,-0.07
2021-08-01 02:28:59.740,-0.02,-0.055
2021-08-01 02:28:59.744,-0.025,-0.04
2021-08-01 02:28:59.748,-0.015,-0.005
2021-08-01 02:28:59.752,-0.02,0.1
2021-08-01 02:28:59.756,0.01,0.3
2021-08-01 02:28:59.760,0.03,0.54
2021-08-01 02:28:59.764,0.065,0.755
2021-08-01 02:28:59.768,0.125,0.82
2021-08-01 02:28:59.772,0.19,0.665
2021-08-01 02:28:59.776,0.25,0.305
2021-08-01 02:28:59.780,0.245,-0.265
2021-08-01 02:28:59.784,0.175,-0.74
2021-08-01 02:28:59.788,0.095,-0.98
2021-08-01 02:28:59.792,-0.055,-1.04
2021-08-01 02:28:59.796,-0.2,-0.905
2021-08-01 02:28:59.800,-0.29,-0.74
2021-08-01 02:28:59.804,-0.335,-0.595
2021-08-01 02:28:59.808,-0.32,-0.455
2021-08-01 02:28:59.812,-0.3,-0.365
2021-08-01 02:28:59.816,-0.25,-0.25
2021-08-01 02:28:59.820,-0.185,-0.175
2021-08-01 02:28:59.824,-0.115,-0.15
2021-08-01 02:28:59.828,-0.065,-0.17
2021-08-01 02:28:59.832,-0.05,-0.175
2021-08-01 02:28:59.836,-0.045,-0.175
2021-08-01 02:28:59.840,-0.06,-0.175
2021-08-01 02:28:59.844,-0.045,-0.175
2021-08-01 02:28:59.848,-0.045,-0.155
2021-08-01 02:28:59.852,-0.035,-0.145
2021-08-01 02:28:59.856,-0.035,-0.115
2021-08-01 02:28:59.860,-0.02,-0.1
2021-08-01 02:28:59.864,0.0,-0.105
2021-08-01 02:28:59.868,-0.015,-0.125
2021-08-01 02:28:59.872,-0.015,-0.12
2021-08-01 02:28:59.876,-0.01,-0.11
2021-08-01 02:28:59.880,0.0,-0.125
2021-08-01 02:28:59.884,0.01,-0.12
2021-08-01 02:28:59.888,0.015,-0.085
2021-08-01 02:28:59.892,0.03,-0.075
2021-08-01 02:28:59.896,0.055,-0.05
2021-08-01 02:28:59.900,0.035,-0.025
2021-08-01 02:28:59.904,0.02,-0.035
2021-08-01 02:28:59.908,0.005,-0.05
2021-08-01 02:28:59.912,-0.01,-0.065
2021-08-01 02:28:59.916,-0.02,-0.055
2021-08-01 02:28:59.920,-0.03,-0.06
2021-08-01 02:28:59.924,-0.035,-0.07
2021-08-01 02:28:59.928,-0.045,-0.075
2021-08-01 02:28:59.932,-0.055,-0.07
2021-08-01 02:28:59.936,-0.045,-0.09
2021-08-01 02:28:59.940,-0.05,-0.11
2021-08-01 02:28:59.944,-0.06,-0.12
2021-08-01 02:28:59.948,-0.065,-0.165
2021-08-01 02:28:59.952,-0.075,-0.145
2021-08-01 02:28:59.956,-0.07,-0.14
2021-08-01 02:28:59.960,-0.07,-0.15
2021-08-01 02:28:59.964,-0.065,-0.155
2021-08-01 02:28:59.968,-0.08,-0.15
2021-08-01 02:28:59.972,-0.06,-0.145
2021-08-01 02:28:59.976,-0.07,-0.13
2021-08-01 02:28:59.980,-0.055,-0.14
2021-08-01 02:28:59.984,-0.075,-0.13
2021-08-01 02:28:59.988,-0.065,-0.14
2021-08-01 02:28:59.992,-0.08,-0.15
2021-08-01 02:28:59.996,-0.065,-0.12
2021-08-01 02:41:00.000,-0.025,-0.12
2021-08-01 02:41:00.004,-0.025,-0.135
2021-08-01 02:41:00.008,-0.045,-0.155
2021-08-01 02:41:00.012,-0.055,-0.15
2021-08-01 02:41:00.016,-0.06,-0.15
2021-08-01 02:41:00.020,-0.065,-0.125
2021-08-01 02:41:00.024,-0.03,-0.135
2021-08-01 02:41:00.028,-0.04,-0.13
2021-08-01 02:41:00.032,-0.055,-0.1
2021-08-01 02:41:00.036,-0.035,-0.085
2021-08-01 02:41:00.040,-0.005,-0.08
2021-08-01 02:41:00.044,0.01,-0.085
2021-08-01 02:41:00.048,0.005,-0.09
2021-08-01 02:41:00.052,0.005,-0.09
2021-08-01 02:41:00.056,0.035,-0.095
2021-08-01 02:41:00.060,0.03,-0.08
2021-08-01 02:41:00.064,0.02,-0.08
2021-08-01 02:41:00.068,0.02,-0.09
2021-08-01 02:41:00.072,0.04,-0.095
2021-08-01 02:41:00.076,0.035,-0.09
2021-08-01 02:41:00.080,0.04,-0.065
2021-08-01 02:41:00.084,0.04,-0.075
2021-08-01 02:41:00.088,0.02,-0.085
2021-08-01 02:41:00.092,0.03,-0.08
2021-08-01 02:41:00.096,0.05,-0.06
2021-08-01 02:41:00.100,0.025,-0.055
2021-08-01 02:41:00.104,0.05,-0.045
2021-08-01 02:41:00.108,0.05,-0.045
2021-08-01 02:41:00.112,0.045,-0.025
2021-08-01 02:41:00.116,0.055,-0.005
2021-08-01 02:41:00.120,0.06,0.03
2021-08-01 02:41:00.124,0.07,0.085
2021-08-01 02:41:00.128,0.095,0.11
2021-08-01 02:41:00.132,0.1,0.115
2021-08-01 02:41:00.136,0.08,0.13
2021-08-01 02:41:00.140,0.085,0.155
2021-08-01 02:41:00.144,0.075,0.15
2021-08-01 02:41:00.148,0.085,0.145
2021-08-01 02:41:00.152,0.08,0.12
2021-08-01 02:41:00.156,0.065,0.105
2021-08-01 02:41:00.160,0.05,0.095
2021-08-01 02:41:00.164,0.055,0.085
2021-08-01 02:41:00.168,0.035,0.075
2021-08-01 02:41:00.172,0.025,0.03
2021-08-01 02:41:00.176,0.01,0.03
2021-08-01 02:41:00.180,0.015,0.035
2021-08-01 02:41:00.184,0.0,0.015
2021-08-01 02:41:00.188,0.0,-0.01
2021-08-01 02:41:00.192,-0.005,0.01
2021-08-01 02:41:00.196,0.01,0.0
2021-08-01 02:41:00.200,0.01,0.005
2021-08-01 02:41:00.204,0.01,0.005
2021-08-01 02:41:00.208,0.015,0.015
2021-08-01 02:41:00.212,0.03,0.005
2021-08-01 02:41:00.216,0.04,0.02
2021-08-01 02:41:00.220,0.035,0.025
2021-08-01 02:41:00.224,0.04,0.025
2021-08-01 02:41:00.228,0.05,0.02
2021-08-01 02:41:00.232,0.035,0.0
2021-08-01 02:41:00.236,0.04,0.0
2021-08-01 02:41:00.240,0.025,-0.015
2021-08-01 02:41:00.244,0.045,-0.03
2021-08-01 02:41:00.248,0.04,-0.04
2021-08-01 02:41:00.252,0.04,-0.07
2021-08-01 02:41:00.256,0.035,-0.105
2021-08-01 02:41:00.260,0.03,-0.125
2021-08-01 02:41:00.264,0.02,-0.12
2021-08-01 02:41:00.268,0.03,-0.145
2021-08-01 02:41:00.272,0.01,-0.12
2021-08-01 02:41:00.276,0.015,-0.095
2021-08-01 02:41:00.280,0.015,-0.085
2021-08-01 02:41:00.284,0.035,-0.06
2021-08-01 02:41:00.288,0.04,-0.02
2021-08-01 02:41:00.292,0.025,-0.03
2021-08-01 02:41:00.296,0.02,-0.025
2021-08-01 02:41:00.300,0.025,-0.015
2021-08-01 02:41:00.304,0.015,0.01
2021-08-01 02:41:00.308,0.035,0.005
2021-08-01 02:41:00.312,0.035,0.0
2021-08-01 02:41:00.316,0.03,-0.01
2021-08-01 02:41:00.320,0.035,-0.02
2021-08-01 02:41:00.324,0.035,-0.02
2021-08-01 02:41:00.328,0.01,-0.025
2021-08-01 02:41:00.332,0.02,-0.025
2021-08-01 02:41:00.336,0.02,-0.03
2021-08-01 02:41:00.340,0.01,-0.035
2021-08-01 02:41:00.344,0.025,-0.025
2021-08-01 02:41:00.348,0.0,-0.06
2021-08-01 02:41:00.352,-0.01,-0.07
2021-08-01 02:41:00.356,-0.005,-0.075
2021-08-01 02:41:00.360,-0.02,-0.065
2021-08-01 02:41:00.364,-0.015,-0.075
2021-08-01 02:41:00.368,-0.005,-0.065
2021-08-01 02:41:00.372,-0.015,-0.07
2021-08-01 02:41:00.376,-0.015,-0.08
2021-08-01 02:41:00.380,0.0,-0.09
2021-08-01 02:41:00.384,-0.01,-0.095
2021-08-01 02:41:00.388,0.0,-0.095
2021-08-01 02:41:00.392,-0.005,-0.1
2021-08-01 02:41:00.396,-0.025,-0.075
2021-08-01 02:41:00.400,-0.02,-0.08
2021-08-01 02:41:00.404,-0.015,-0.085
2021-08-01 02:41:00.408,-0.015,-0.07
2021-08-01 02:41:00.412,-0.005,-0.07
2021-08-01 02:41:00.416,0.015,-0.085
2021-08-01 02:41:00.420,0.035,-0.07
2021-08-01 02:41:00.424,0.02,-0.06
2021-08-01 02:41:00.428,0.025,-0.085
2021-08-01 02:41:00.432,0.035,-0.075
2021-08-01 02:41:00.436,0.025,-0.08
2021-08-01 02:41:00.440,0.015,-0.07
2021-08-01 02:41:00.444,0.0,-0.055
2021-08-01 02:41:00.448,-0.005,-0.05
2021-08-01 02:41:00.452,-0.01,-0.04
2021-08-01 02:41:00.456,-0.005,-0.03
2021-08-01 02:41:00.460,-0.015,-0.035
2021-08-01 02:41:00.464,0.0,-0.03
2021-08-01 02:41:00.468,0.0,-0.045
2021-08-01 02:41:00.472,0.0,-0.05
2021-08-01 02:41:00.476,0.0,-0.06
2021-08-01 02:41:00.480,-0.01,-0.065
2021-08-01 02:41:00.484,-0.015,-0.06
2021-08-01 02:41:00.488,-0.02,-0.065
2021-08-01 02:41:00.492,-0.035,-0.065
2021-08-01 02:41:00.496,-0.025,-0.095
2021-08-01 02:41:00.500,-0.015,-0.08
2021-08-01 02:41:00.504,-0.02,-0.035
2021-08-01 02:41:00.508,-0.01,0.09
2021-08-01 02:41:00.512,0.005,0.295
2021-08-01 02:41:00.516,0.04,0.56
2021-08-01 02:41:00.520,0.085,0.785
2021-08-01 02:41:00.524,0.165,0.88
2021-08-01 02:41:00.528,0.245,0.775
2021-08-01 02:41:00.532,0.295,0.43
2021-08-01 02:41:00.536,0.305,-0.2
2021-08-01 02:41:00.540,0.265,-0.795
2021-08-01 02:41:00.544,0.16,-1.065
2021-08-01 02:41:00.548,0.015,-1.075
2021-08-01 02:41:00.552,-0.15,-0.9
2021-08-01 02:41:00.556,-0.255,-0.725
2021-08-01 02:41:00.560,-0.3,-0.565
2021-08-01 02:41:00.564,-0.285,-0.425
2021-08-01 02:41:00.568,-0.265,-0.32
2021-08-01 02:41:00.572,-0.195,-0.21
2021-08-01 02:41:00.576,-0.13,-0.12
2021-08-01 02:41:00.580,-0.06,-0.095
2021-08-01 02:41:00.584,-0.005,-0.075
2021-08-01 02:41:00.588,0.015,-0.06
2021-08-01 02:41:00.592,0.01,-0.075
2021-08-01 02:41:00.596,0.015,-0.095
2021-08-01 02:41:00.600,0.0,-0.085
2021-08-01 02:41:00.604,0.005,-0.09
2021-08-01 02:41:00.608,-0.005,-0.075
2021-08-01 02:41:00.612,0.0,-0.08
2021-08-01 02:41:00.616,-0.015,-0.08
2021-08-01 02:41:00.620,-0.015,-0.105
2021-08-01 02:41:00.624,-0.01,-0.11
2021-08-01 02:41:00.628,-0.005,-0.11
2021-08-01 02:41:00.632,-0.015,-0.095
2021-08-01 02:41:00.636,-0.025,-0.1
2021-08-01 02:41:00.640,-0.02,-0.125
2021-08-01 02:41:00.644,-0.015,-0.13
2021-08-01 02:41:00.648,-0.025,-0.145
2021-08-01 02:41:00.652,-0.025,-0.16
2021-08-01 02:41:00.656,-0.03,-0.145
2021-08-01 02:41:00.660,-0.04,-0.17
2021-08-01 02:41:00.664,-0.04,-0.18
2021-08-01 02:41:00.668,-0.03,-0.175
2021-08-01 02:41:00.672,-0.04,-0.15
2021-08-01 02:41:00.676,-0.04,-0.17
2021-08-01 02:41:00.680,-0.035,-0.16
2021-08-01 02:41:00.684,-0.05,-0.16
2021-08-01 02:41:00.688,-0.05,-0.175
2021-08-01 02:41:00.692,-0.055,-0.17
2021-08-01 02:41:00.696,-0.065,-0.145
2021-08-01 02:41:00.700,-0.065,-0.125
2021-08-01 02:41:00.704,-0.045,-0.13
2021-08-01 02:41:00.708,-0.045,-0.14
2021-08-01 02:41:00.712,-0.045,-0.12
2021-08-01 02:41:00.716,-0.03,-0.11
2021-08-01 02:41:00.720,-0.03,-0.105
2021-08-01 02:41:00.724,-0.01,-0.115
2021-08-01 02:41:00.728,-0.01,-0.115
2021-08-01 02:41:00.732,0.0,-0.105
2021-08-01 02:41:00.736,-0.025,-0.09
2021-08-01 02:41:00.740,-0.015,-0.075
2021-08-01 02:41:00.744,-0.01,-0.095
2021-08-01 02:41:00.748,-0.01,-0.1
2021-08-01 02:41:00.752,-0.02,-0.06
2021-08-01 02:41:00.756,-0.01,-0.075
2021-08-01 02:41:00.760,-0.01,-0.055
2021-08-01 02:41:00.764,0.0,-0.04
2021-08-01 02:41:00.768,0.005,-0.025
2021-08-01 02:41:00.772,0.01,-0.01
2021-08-01 02:41:00.776,0.02,0.015
2021-08-01 02:41:00.780,0.015,0.01
2021-08-01 02:41:00.784,0.025,0.02
2021-08-01 02:41:00.788,0.04,0.025
2021-08-01 02:41:00.792,0.025,0.035
2021-08-01 02:41:00.796,0.04,0.035
2021-08-01 02:41:00.800,0.045,0.045
2021-08-01 02:41:00.804,0.055,0.035
2021-08-01 02:41:00.808,0.065,0.025
2021-08-01 02:41:00.812,0.05,0.015
2021-08-01 02:41:00.816,0.06,0.03
2021-08-01 02:41:00.820,0.05,0.02
2021-08-01 02:41:00.824,0.055,0.005
2021-08-01 02:41:00.828,0.06,0.005
2021-08-01 02:41:00.832,0.06,0.025
2021-08-01 02:41:00.836,0.07,0.01
2021-08-01 02:41:00.840,0.085,0.01
2021-08-01 02:41:00.844,0.1,0.02
2021-08-01 02:41:00.848,0.105,0.01
2021-08-01 02:41:00.852,0.1,-0.01
2021-08-01 02:41:00.856,0.1,-0.025
2021-08-01 02:41:00.860,0.1,-0.03
2021-08-01 02:41:00.864,0.085,-0.015
2021-08-01 02:41:00.868,0.085,0.015
2021-08-01 02:41:00.872,0.085,0.065
2021-08-01 02:41:00.876,0.1,0.07
2021-08-01 02:41:00.880,0.115,0.065
2021-08-01 02:41:00.884,0.11,0.06
2021-08-01 02:41:00.888,0.11,0.055
2021-08-01 02:41:00.892,0.09,0.04
2021-08-01 02:41:00.896,0.055,0.035
2021-08-01 02:41:00.900,0.035,0.015
2021-08-01 02:41:00.904,0.04,-0.01
2021-08-01 02:41:00.908,0.035,-0.015
2021-08-01 02:41:00.912,0.035,-0.02
2021-08-01 02:41:00.916,0.035,-0.03
2021-08-01 02:41:00.920,0.025,-0.05
2021-08-01 02:41:00.924,0.015,-0.05
2021-08-01 02:41:00.928,0.005,-0.055
2021-08-01 02:41:00.932,0.02,-0.055
2021-08-01 02:41:00.936,0.015,-0.04
2021-08-01 02:41:00.940,0.01,-0.065
2021-08-01 02:41:00.944,0.005,-0.06
2021-08-01 02:41:00.948,0.0,-0.075
2021-08-01 02:41:00.952,0.005,-0.065
2021-08-01 02:41:00.956,0.015,-0.05
2021-08-01 02:41:00.960,0.01,-0.055
2021-08-01 02:41:00.964,0.015,-0.06
2021-08-01 02:41:00.968,0.02,-0.07
2021-08-01 02:41:00.972,0.03,-0.075
2021-08-01 02:41:00.976,0.03,-0.05
2021-08-01 02:41:00.980,0.04,-0.045
2021-08-01 02:41:00.984,0.02,-0.05
2021-08-01 02:41:00.988,0.04,-0.06
2021-08-01 02:41:00.992,0.045,-0.05
2021-08-01 02:41:00.996,0.055,-0.07
2021-08-01 02:41:01.000,0.05,-0.09
2021-08-01 02:41:01.004,0.045,-0.085
2021-08-01 02:41:01.008,0.055,-0.08
2021-08-01 02:41:01.012,0.055,-0.11
2021-08-01 02:41:01.016,0.065,-0.105
2021-08-01 02:41:01.020,0.06,-0.105
2021-08-01 02:41:01.024,0.08,-0.095
2021-08-01 02:41:01.028,0.075,-0.095
2021-08-01 02:41:01.032,0.08,-0.08
2021-08-01 02:41:01.036,0.09,-0.07
2021-08-01 02:41:01.040,0.06,-0.055
2021-08-01 02:41:01.044,0.065,-0.05
2021-08-01 02:41:01.048,0.075,-0.035
2021-08-01 02:41:01.052,0.085,-0.005
2021-08-01 02:41:01.056,0.075,0.005
2021-08-01 02:41:01.060,0.075,-0.015
2021-08-01 02:41:01.064,0.06,0.0
2021-08-01 02:41:01.068,0.06,-0.015
2021-08-01 02:41:01.072,0.045,0.0
2021-08-01 02:41:01.076,0.05,-0.005
2021-08-01 02:41:01.080,0.03,0.0
2021-08-01 02:41:01.084,0.035,-0.015
2021-08-01 02:41:01.088,0.025,-0.025
2021-08-01 02:41:01.092,0.045,-0.02
2021-08-01 02:41:01.096,0.02,-0.025
2021-08-01 02:41:01.100,0.02,-0.035
2021-08-01 02:41:01.104,0.005,-0.025
2021-08-01 02:41:01.108,0.015,-0.03
2021-08-01 02:41:01.112,0.015,-0.035
2021-08-01 02:41:01.116,0.015,-0.05
2021-08-01 02:41:01.120,0.02,-0.02
2021-08-01 02:41:01.124,0.02,0.03
2021-08-01 02:41:01.128,0.025,0.155
2021-08-01 02:41:01.132,0.065,0.355
2021-08-01 02:41:01.136,0.085,0.625
2021-08-01 02:41:01.140,0.14,0.875
2021-08-01 02:41:01.144,0.205,0.97
2021-08-01 02:41:01.148,0.29,0.85
2021-08-01 02:41:01.152,0.345,0.495
2021-08-01 02:41:01.156,0.355,-0.175
2021-08-01 02:41:01.160,0.31,-0.745
2021-08-01 02:41:01.164,0.215,-1.025
2021-08-01 02:41:01.168,0.07,-1.09
2021-08-01 02:41:01.172,-0.08,-0.94
2021-08-01 02:41:01.176,-0.205,-0.745
2021-08-01 02:41:01.180,-0.25,-0.595
2021-08-01 02:41:01.184,-0.23,-0.465
2021-08-01 02:41:01.188,-0.19,-0.355
2021-08-01 02:41:01.192,-0.15,-0.26
2021-08-01 02:41:01.196,-0.08,-0.135
2021-08-01 02:41:01.200,-0.03,-0.05
2021-08-01 02:41:01.204,0.035,-0.05
2021-08-01 02:41:01.208,0.03,-0.055
2021-08-01 02:41:01.212,0.02,-0.075
2021-08-01 02:41:01.216,-0.005,-0.09
2021-08-01 02:41:01.220,-0.015,-0.11
2021-08-01 02:41:01.224,0.0,-0.08
2021-08-01 02:41:01.228,-0.01,-0.09
2021-08-01 02:41:01.232,-0.02,-0.095
2021-08-01 02:41:01.236,-0.015,-0.095
2021-08-01 02:41:01.240,-0.025,-0.095
2021-08-01 02:41:01.244,0.005,-0.1
2021-08-01 02:41:01.248,0.0,-0.1
2021-08-01 02:41:01.252,-0.005,-0.11
2021-08-01 02:41:01.256,-0.025,-0.12
2021-08-01 02:41:01.260,-0.02,-0.125
2021-08-01 02:41:01.264,-0.025,-0.11
2021-08-01 02:41:01.268,0.0,-0.09
2021-08-01 02:41:01.272,0.0,-0.1
2021-08-01 02:41:01.276,-0.025,-0.105
2021-08-01 02:41:01.280,-0.025,-0.11
2021-08-01 02:41:01.284,-0.015,-0.095
2021-08-01 02:41:01.288,-0.01,-0.095
2021-08-01 02:41:01.292,-0.01,-0.1
2021-08-01 02:41:01.296,-0.025,-0.095
2021-08-01 02:41:01.300,-0.02,-0.085
2021-08-01 02:41:01.304,-0.01,-0.07
2021-08-01 02:41:01.308,0.0,-0.05
2021-08-01 02:41:01.312,0.0,-0.075
2021-08-01 02:41:01.316,0.01,-0.08
2021-08-01 02:41:01.320,0.005,-0.085
2021-08-01 02:41:01.324,0.0,-0.075
2021-08-01 02:41:01.328,-0.005,-0.115
2021-08-01 02:41:01.332,0.0,-0.12
2021-08-01 02:41:01.336,0.0,-0.135
2021-08-01 02:41:01.340,0.005,-0.15
2021-08-01 02:41:01.344,0.025,-0.145
2021-08-01 02:41:01.348,0.03,-0.135
2021-08-01 02:41:01.352,0.025,-0.145
2021-08-01 02:41:01.356,0.045,-0.135
2021-08-01 02:41:01.360,0.03,-0.1
2021-08-01 02:41:01.364,0.035,-0.105
2021-08-01 02:41:01.368,0.025,-0.085
2021-08-01 02:41:01.372,0.025,-0.07
2021-08-01 02:41:01.376,0.015,-0.04
2021-08-01 02:41:01.380,0.0,-0.045
2021-08-01 02:41:01.384,-0.01,-0.03
2021-08-01 02:41:01.388,-0.015,-0.015
2021-08-01 02:41:01.392,-0.015,-0.01
2021-08-01 02:41:01.396,-0.005,-0.02
2021-08-01 02:41:01.400,0.0,0.0
2021-08-01 02:41:01.404,0.0,0.0
2021-08-01 02:41:01.408,-0.005,0.02
2021-08-01 02:41:01.412,0.015,0.005
2021-08-01 02:41:01.416,0.02,0.02
2021-08-01 02:41:01.420,0.015,0.015
2021-08-01 02:41:01.424,0.02,0.02
2021-08-01 02:41:01.428,0.0,0.015
2021-08-01 02:41:01.432,0.025,0.015
2021-08-01 02:41:01.436,0.01,-0.005
2021-08-01 02:41:01.440,0.01,-0.02
2021-08-01 02:41:01.444,0.0,-0.015
2021-08-01 02:41:01.448,0.01,0.0
2021-08-01 02:41:01.452,0.03,0.005
2021-08-01 02:41:01.456,0.02,-0.01
2021-08-01 02:41:01.460,0.04,-0.005
2021-08-01 02:41:01.464,0.015,-0.005
2021-08-01 02:41:01.468,0.025,-0.01
2021-08-01 02:41:01.472,0.025,-0.015
2021-08-01 02:41:01.476,0.045,-0.02
2021-08-01 02:41:01.480,0.055,-0.03
2021-08-01 02:41:01.484,0.06,-0.035
2021-08-01 02:41:01.488,0.045,-0.035
2021-08-01 02:41:01.492,0.04,-0.065
2021-08-01 02:41:01.496,0.045,-0.065
2021-08-01 02:41:01.500,0.03,-0.05
2021-08-01 02:41:01.504,0.03,-0.035
2021-08-01 02:41:01.508,0.02,-0.005
2021-08-01 02:41:01.512,0.03,-0.015
2021-08-01 02:41:01.516,0.045,-0.02
2021-08-01 02:41:01.520,0.04,-0.03
2021-08-01 02:41:01.524,0.04,-0.035
2021-08-01 02:41:01.528,0.02,-0.015
2021-08-01 02:41:01.532,0.015,-0.01
2021-08-01 02:41:01.536,0.015,0.0
2021-08-01 02:41:01.540,0.015,0.015
2021-08-01 02:41:01.544,0.015,-0.005
2021-08-01 02:41:01.548,0.01,-0.01
2021-08-01 02:41:01.552,0.02,-0.015
2021-08-01 02:41:01.556,0.015,-0.025
2021-08-01 02:41:01.560,0.01,-0.03
2021-08-01 02:41:01.564,0.0,-0.04
2021-08-01 02:41:01.568,0.005,-0.03
2021-08-01 02:41:01.572,0.01,-0.055
2021-08-01 02:41:01.576,0.005,-0.06
2021-08-01 02:41:01.580,0.005,-0.05
2021-08-01 02:41:01.584,0.005,-0.07
2021-08-01 02:41:01.588,0.005,-0.065
2021-08-01 02:41:01.592,0.0,-0.05
2021-08-01 02:41:01.596,0.0,-0.06
2021-08-01 02:41:01.600,0.005,-0.07
2021-08-01 02:41:01.604,0.01,-0.08
2021-08-01 02:41:01.608,0.0,-0.1
2021-08-01 02:41:01.612,-0.01,-0.085
2021-08-01 02:41:01.616,0.0,-0.095
2021-08-01 02:41:01.620,-0.01,-0.07
2021-08-01 02:41:01.624,-0.015,-0.1
2021-08-01 02:41:01.628,-0.015,-0.095
2021-08-01 02:41:01.632,0.02,-0.095
2021-08-01 02:41:01.636,0.025,-0.105
2021-08-01 02:41:01.640,0.02,-0.135
2021-08-01 02:41:01.644,0.03,-0.175
2021-08-01 02:41:01.648,0.04,-0.175
2021-08-01 02:41:01.652,0.02,-0.15
2021-08-01 02:41:01.656,0.03,-0.12
2021-08-01 02:41:01.660,0.055,-0.095
2021-08-01 02:41:01.664,0.035,-0.07
2021-08-01 02:41:01.668,0.02,-0.045
2021-08-01 02:41:01.672,0.035,-0.035
2021-08-01 02:41:01.676,0.02,-0.045
2021-08-01 02:41:01.680,0.035,-0.045
2021-08-01 02:41:01.684,0.025,-0.065
2021-08-01 02:41:01.688,0.035,-0.08
2021-08-01 02:41:01.692,0.015,-0.07
2021-08-01 02:41:01.696,0.0,-0.065
2021-08-01 02:41:01.700,0.0,-0.04
2021-08-01 02:41:01.704,0.005,-0.07
2021-08-01 02:41:01.708,0.005,-0.07
2021-08-01 02:41:01.712,0.025,-0.08
2021-08-01 02:41:01.716,0.025,-0.08
2021-08-01 02:41:01.720,0.025,-0.055
2021-08-01 02:41:01.724,0.015,0.01
2021-08-01 02:41:01.728,0.04,0.19
2021-08-01 02:41:01.732,0.065,0.465
2021-08-01 02:41:01.736,0.115,0.72
2021-08-01 02:41:01.740,0.175,0.935
2021-08-01 02:41:01.744,0.25,0.955
2021-08-01 02:41:01.748,0.32,0.78
2021-08-01 02:41:01.752,0.35,0.32
2021-08-01 02:41:01.756,0.295,-0.325
2021-08-01 02:41:01.760,0.155,-0.8
2021-08-01 02:41:01.764,-0.02,-1.005
2021-08-01 02:41:01.768,-0.2,-1.0
2021-08-01 02:41:01.772,-0.315,-0.83
2021-08-01 02:41:01.776,-0.385,-0.65
2021-08-01 02:41:01.780,-0.37,-0.51
2021-08-01 02:41:01.784,-0.31,-0.37
2021-08-01 02:41:01.788,-0.265,-0.275
2021-08-01 02:41:01.792,-0.18,-0.175
2021-08-01 02:41:01.796,-0.085,-0.155
2021-08-01 02:41:01.800,-0.015,-0.165
2021-08-01 02:41:01.804,-0.005,-0.175
2021-08-01 02:41:01.808,0.0,-0.175
2021-08-01 02:41:01.812,0.015,-0.145
2021-08-01 02:41:01.816,0.02,-0.11
2021-08-01 02:41:01.820,0.02,-0.065
2021-08-01 02:41:01.824,0.03,-0.01
2021-08-01 02:41:01.828,0.035,-0.025
2021-08-01 02:41:01.832,0.06,-0.025
2021-08-01 02:41:01.836,0.055,-0.03
2021-08-01 02:41:01.840,0.02,0.0
2021-08-01 02:41:01.844,0.035,-0.03
2021-08-01 02:41:01.848,0.03,-0.045
2021-08-01 02:41:01.852,0.03,-0.045
2021-08-01 02:41:01.856,0.01,-0.055
2021-08-01 02:41:01.860,0.015,-0.07
2021-08-01 02:41:01.864,0.01,-0.08
2021-08-01 02:41:01.868,-0.01,-0.095
2021-08-01 02:41:01.872,-0.005,-0.12
2021-08-01 02:41:01.876,-0.005,-0.13
2021-08-01 02:41:01.880,-0.015,-0.125
2021-08-01 02:41:01.884,-0.02,-0.14
2021-08-01 02:41:01.888,-0.005,-0.125
2021-08-01 02:41:01.892,-0.02,-0.14
2021-08-01 02:41:01.896,-0.015,-0.14
2021-08-01 02:41:01.900,-0.015,-0.135
2021-08-01 02:41:01.904,-0.01,-0.12
2021-08-01 02:41:01.908,-0.02,-0.13
2021-08-01 02:41:01.912,-0.025,-0.125
2021-08-01 02:41:01.916,-0.01,-0.12
2021-08-01 02:41:01.920,-0.025,-0.105
2021-08-01 02:41:01.924,-0.02,-0.1
2021-08-01 02:41:01.928,-0.005,-0.095
2021-08-01 02:41:01.932,-0.005,-0.1
2021-08-01 02:41:01.936,-0.015,-0.08
2021-08-01 02:41:01.940,-0.01,-0.08
2021-08-01 02:41:01.944,0.015,-0.07
2021-08-01 02:41:01.948,0.005,-0.07
2021-08-01 02:41:01.952,0.02,-0.065
2021-08-01 02:41:01.956,0.045,-0.075
2021-08-01 02:41:01.960,0.04,-0.05
2021-08-01 02:41:01.964,0.035,-0.055
2021-08-01 02:41:01.968,0.045,-0.04
2021-08-01 02:41:01.972,0.06,0.0
2021-08-01 02:41:01.976,0.08,0.02
2021-08-01 02:41:01.980,0.105,0.04
2021-08-01 02:41:01.984,0.135,0.06
2021-08-01 02:41:01.988,0.1,0.07
2021-08-01 02:41:01.992,0.1,0.065
2021-08-01 02:41:01.996,0.085,0.065
2021-08-01 02:41:02.000,0.075,0.075
2021-08-01 02:41:02.004,0.05,0.1
2021-08-01 02:41:02.008,0.065,0.085
2021-08-01 02:41:02.012,0.065,0.065
2021-08-01 02:41:02.016,0.045,0.06
2021-08-01 02:41:02.020,0.05,0.05
2021-08-01 02:41:02.024,0.045,0.03
2021-08-01 02:41:02.028,0.05,0.04
2021-08-01 02:41:02.032,0.03,-0.005
2021-08-01 02:41:02.036,0.04,0.0
2021-08-01 02:41:02.040,0.065,-0.005
2021-08-01 02:41:02.044,0.055,0.005
2021-08-01 02:41:02.048,0.045,-0.005
2021-08-01 02:41:02.052,0.05,-0.035
2021-08-01 02:41:02.056,0.045,-0.025
2021-08-01 02:41:02.060,0.055,-0.035
2021-08-01 02:41:02.064,0.04,-0.04
