Time,ECG1,ECG2
2021-08-19 22:32:53.480,-0.6,0.105
2021-08-19 22:32:53.484,-0.575,0.085
2021-08-19 22:32:53.488,-0.58,0.065
2021-08-19 22:32:53.492,-0.575,0.025
2021-08-19 22:32:53.496,-0.56,0.005
2021-08-19 22:32:53.500,-0.55,-0.01
2021-08-19 22:32:53.504,-0.53,-0.065
2021-08-19 22:32:53.508,-0.49,-0.095
2021-08-19 22:32:53.512,-0.48,-0.16
2021-08-19 22:32:53.516,-0.46,-0.17
2021-08-19 22:32:53.520,-0.445,-0.215
2021-08-19 22:32:53.524,-0.435,-0.25
2021-08-19 22:32:53.528,-0.435,-0.3
2021-08-19 22:32:53.532,-0.42,-0.33
2021-08-19 22:32:53.536,-0.42,-0.39
2021-08-19 22:32:53.540,-0.405,-0.43
2021-08-19 22:32:53.544,-0.39,-0.48
2021-08-19 22:32:53.548,-0.39,-0.51
2021-08-19 22:32:53.552,-0.395,-0.545
2021-08-19 22:32:53.556,-0.395,-0.6
2021-08-19 22:32:53.560,-0.395,-0.635
2021-08-19 22:32:53.564,-0.395,-0.695
2021-08-19 22:32:53.568,-0.375,-0.73
2021-08-19 22:32:53.572,-0.385,-0.81
2021-08-19 22:32:53.576,-0.36,-0.815
2021-08-19 22:32:53.580,-0.34,-0.855
2021-08-19 22:32:53.584,-0.32,-0.91
2021-08-19 22:32:53.588,-0.325,-0.955
2021-08-19 22:32:53.592,-0.325,-1.0
2021-08-19 22:32:53.596,-0.295,-1.04
2021-08-19 22:32:53.600,-0.245,-1.03
2021-08-19 22:32:53.604,-0.225,-1.06
2021-08-19 22:32:53.608,-0.195,-1.06
2021-08-19 22:32:53.612,-0.15,-1.11
2021-08-19 22:32:53.616,-0.13,-1.13
2021-08-19 22:32:53.620,-0.115,-1.11
2021-08-19 22:32:53.624,-0.065,-1.13
2021-08-19 22:32:53.628,0.01,-1.11
2021-08-19 22:32:53.632,0.06,-1.13
2021-08-19 22:32:53.636,0.125,-1.135
2021-08-19 22:32:53.640,0.17,-1.145
2021-08-19 22:32:53.644,0.19,-1.195
2021-08-19 22:32:53.648,0.17,-1.22
2021-08-19 22:32:53.652,0.17,-1.225
2021-08-19 22:32:53.656,0.125,-1.22
2021-08-19 22:32:53.660,0.06,-1.245
2021-08-19 22:32:53.664,0.025,-1.305
2021-08-19 22:32:53.668,0.125,-1.44
2021-08-19 22:32:53.672,0.375,-1.645
2021-08-19 22:32:53.676,0.67,-1.95
2021-08-19 22:32:53.692,0.28,-1.895
2021-08-19 22:32:53.696,-0.08,-1.495
2021-08-19 22:32:53.700,-0.27,-1.24
2021-08-19 22:32:53.704,-0.32,-1.14
2021-08-19 22:32:53.708,-0.355,-1.05
2021-08-19 22:32:53.712,-0.35,-0.99
2021-08-19 22:32:53.716,-0.39,-0.985
2021-08-19 22:32:53.720,-0.405,-0.99
2021-08-19 22:32:53.724,-0.425,-1.0
2021-08-19 22:32:53.728,-0.41,-1.04
2021-08-19 22:32:53.732,-0.415,-1.06
2021-08-19 22:32:53.736,-0.435,-1.06
2021-08-19 22:32:53.740,-0.43,-1.05
2021-08-19 22:32:53.744,-0.42,-1.05
2021-08-19 22:32:53.748,-0.46,-1.025
2021-08-19 22:32:53.752,-0.465,-1.03
2021-08-19 22:32:53.756,-0.485,-1.005
2021-08-19 22:32:53.760,-0.48,-1.01
2021-08-19 22:32:53.764,-0.495,-1.0
2021-08-19 22:32:53.768,-0.515,-0.98
2021-08-19 22:32:53.772,-0.495,-0.99
2021-08-19 22:32:53.776,-0.51,-0.985
2021-08-19 22:32:53.780,-0.52,-0.97
2021-08-19 22:32:53.784,-0.5,-0.945
2021-08-19 22:32:53.788,-0.515,-0.945
2021-08-19 22:32:53.792,-0.505,-0.94
2021-08-19 22:32:53.796,-0.525,-0.92
2021-08-19 22:32:53.800,-0.535,-0.885
2021-08-19 22:32:53.804,-0.535,-0.875
2021-08-19 22:32:53.808,-0.535,-0.89
2021-08-19 22:32:53.812,-0.56,-0.865
2021-08-19 22:32:53.816,-0.575,-0.84
2021-08-19 22:32:53.820,-0.57,-0.82
2021-08-19 22:32:53.824,-0.59,-0.81
2021-08-19 22:32:53.828,-0.585,-0.775
2021-08-19 22:32:53.832,-0.56,-0.765
2021-08-19 22:32:53.836,-0.555,-0.725
2021-08-19 22:32:53.840,-0.51,-0.71
2021-08-19 22:32:53.844,-0.495,-0.69
2021-08-19 22:32:53.848,-0.46,-0.665
2021-08-19 22:32:53.852,-0.44,-0.665
2021-08-19 22:32:53.856,-0.39,-0.625
2021-08-19 22:32:53.860,-0.36,-0.56
2021-08-19 22:32:53.864,-0.33,-0.53
2021-08-19 22:32:53.868,-0.275,-0.48
2021-08-19 22:32:53.872,-0.26,-0.45
2021-08-19 22:32:53.876,-0.24,-0.45
2021-08-19 22:32:53.880,-0.255,-0.415
2021-08-19 22:32:53.884,-0.295,-0.395
2021-08-19 22:32:53.888,-0.32,-0.375
2021-08-19 22:32:53.892,-0.34,-0.385
2021-08-19 22:32:53.896,-0.345,-0.375
2021-08-19 22:32:53.900,-0.355,-0.36
2021-08-19 22:32:53.904,-0.34,-0.37
2021-08-19 22:32:53.908,-0.325,-0.36
2021-08-19 22:32:53.912,-0.31,-0.36
2021-08-19 22:32:53.916,-0.28,-0.34
2021-08-19 22:32:53.920,-0.24,-0.36
2021-08-19 22:32:53.924,-0.225,-0.36
2021-08-19 22:32:53.928,-0.22,-0.38
2021-08-19 22:32:53.932,-0.225,-0.365
2021-08-19 22:32:53.936,-0.225,-0.345
2021-08-19 22:32:53.940,-0.21,-0.36
2021-08-19 22:32:53.944,-0.205,-0.37
2021-08-19 22:32:53.948,-0.225,-0.385
2021-08-19 22:32:53.952,-0.2,-0.385
2021-08-19 22:32:53.956,-0.205,-0.415
2021-08-19 22:32:53.960,-0.2,-0.41
2021-08-19 22:32:53.964,-0.205,-0.385
2021-08-19 22:32:53.968,-0.205,-0.39
2021-08-19 22:32:53.972,-0.195,-0.39
2021-08-19 22:32:53.976,-0.215,-0.395
2021-08-19 22:32:53.980,-0.23,-0.39
2021-08-19 22:32:53.984,-0.23,-0.37
2021-08-19 22:32:53.988,-0.245,-0.375
2021-08-19 22:32:53.992,-0.24,-0.37
2021-08-19 22:32:53.996,-0.255,-0.39
2021-08-19 22:32:54.000,-0.28,-0.375
2021-08-19 22:32:54.004,-0.275,-0.355
2021-08-19 22:32:54.008,-0.265,-0.38
2021-08-19 22:32:54.012,-0.285,-0.37
2021-08-19 22:32:54.016,-0.295,-0.39
2021-08-19 22:32:54.020,-0.295,-0.395
2021-08-19 22:32:54.024,-0.315,-0.405
2021-08-19 22:32:54.028,-0.33,-0.385
2021-08-19 22:32:54.032,-0.325,-0.385
2021-08-19 22:32:54.036,-0.31,-0.38
2021-08-19 22:32:54.040,-0.32,-0.38
2021-08-19 22:32:54.044,-0.34,-0.36
2021-08-19 22:32:54.048,-0.32,-0.37
2021-08-19 22:32:54.052,-0.315,-0.355
2021-08-19 22:32:54.056,-0.29,-0.365
2021-08-19 22:32:54.060,-0.28,-0.35
2021-08-19 22:32:54.064,-0.305,-0.34
2021-08-19 22:32:54.068,-0.265,-0.345
2021-08-19 22:32:54.072,-0.265,-0.345
2021-08-19 22:32:54.076,-0.29,-0.35
2021-08-19 22:32:54.080,-0.275,-0.345
2021-08-19 22:32:54.084,-0.29,-0.33
2021-08-19 22:32:54.088,-0.28,-0.31
2021-08-19 22:32:54.092,-0.295,-0.335
2021-08-19 22:32:54.096,-0.305,-0.3
2021-08-19 22:32:54.100,-0.29,-0.305
2021-08-19 22:32:54.104,-0.32,-0.32
2021-08-19 22:32:54.108,-0.355,-0.325
2021-08-19 22:32:54.112,-0.395,-0.34
2021-08-19 22:32:54.116,-0.385,-0.345
2021-08-19 22:32:54.120,-0.4,-0.34
2021-08-19 22:32:54.124,-0.41,-0.345
2021-08-19 22:32:54.128,-0.44,-0.35
2021-08-19 22:32:54.132,-0.455,-0.36
2021-08-19 22:32:54.136,-0.465,-0.37
2021-08-19 22:32:54.140,-0.46,-0.36
2021-08-19 22:32:54.144,-0.48,-0.355
2021-08-19 22:32:54.148,-0.48,-0.385
2021-08-19 22:32:54.152,-0.46,-0.39
2021-08-19 22:32:54.156,-0.47,-0.41
2021-08-19 22:32:54.160,-0.415,-0.395
2021-08-19 22:32:54.164,-0.38,-0.41
2021-08-19 22:32:54.168,-0.295,-0.415
2021-08-19 22:32:54.172,-0.23,-0.415
2021-08-19 22:32:54.176,-0.195,-0.405
2021-08-19 22:32:54.180,-0.165,-0.38
2021-08-19 22:32:54.184,-0.14,-0.325
2021-08-19 22:32:54.188,-0.12,-0.315
2021-08-19 22:32:54.192,-0.09,-0.31
2021-08-19 22:32:54.196,-0.105,-0.28
2021-08-19 22:32:54.200,-0.1,-0.28
2021-08-19 22:32:54.204,-0.115,-0.305
2021-08-19 22:32:54.208,-0.12,-0.33
2021-08-19 22:32:54.212,-0.12,-0.39
2021-08-19 22:32:54.216,-0.14,-0.48
2021-08-19 22:32:54.220,-0.155,-0.535
2021-08-19 22:32:54.224,-0.155,-0.575
2021-08-19 22:32:54.228,-0.15,-0.57
2021-08-19 22:32:54.232,-0.16,-0.6
2021-08-19 22:32:54.236,-0.175,-0.635
2021-08-19 22:32:54.240,-0.16,-0.695
2021-08-19 22:32:54.244,-0.18,-0.745
2021-08-19 22:32:54.248,-0.155,-0.795
2021-08-19 22:32:54.252,-0.175,-0.855
2021-08-19 22:32:54.256,-0.18,-0.935
2021-08-19 22:32:54.260,-0.17,-0.99
2021-08-19 22:32:54.264,-0.175,-1.04
2021-08-19 22:32:54.268,-0.165,-1.105
2021-08-19 22:32:54.272,-0.135,-1.175
2021-08-19 22:32:54.276,-0.07,-1.27
2021-08-19 22:32:54.280,-0.01,-1.36
2021-08-19 22:32:54.284,0.09,-1.455
2021-08-19 22:32:54.288,0.14,-1.58
2021-08-19 22:32:54.292,0.205,-1.705
2021-08-19 22:32:54.296,0.24,-1.86
2021-08-19 22:32:54.300,0.285,-1.95
2021-08-19 22:32:54.444,-0.255,-1.945
2021-08-19 22:32:54.448,-0.255,-1.925
2021-08-19 22:32:54.452,-0.25,-1.915
2021-08-19 22:32:54.456,-0.265,-1.94
2021-08-19 22:32:54.460,-0.275,-1.97
2021-08-19 22:32:54.464,-0.28,-1.97
2021-08-19 22:32:54.468,-0.285,-1.96
2021-08-19 22:32:54.472,-0.28,-1.925
2021-08-19 22:32:54.476,-0.305,-1.905
2021-08-19 22:32:54.480,-0.325,-1.845
2021-08-19 22:32:54.484,-0.345,-1.84
2021-08-19 22:32:54.488,-0.345,-1.805
2021-08-19 22:32:54.492,-0.35,-1.745
2021-08-19 22:32:54.496,-0.36,-1.675
2021-08-19 22:32:54.500,-0.375,-1.64
2021-08-19 22:32:54.504,-0.38,-1.57
2021-08-19 22:32:54.508,-0.36,-1.54
2021-08-19 22:32:54.512,-0.36,-1.515
2021-08-19 22:32:54.516,-0.365,-1.47
2021-08-19 22:32:54.520,-0.335,-1.39
2021-08-19 22:32:54.524,-0.34,-1.335
2021-08-19 22:32:54.528,-0.34,-1.245
2021-08-19 22:32:54.532,-0.34,-1.22
2021-08-19 22:32:54.536,-0.345,-1.19
2021-08-19 22:32:54.540,-0.34,-1.13
2021-08-19 22:32:54.544,-0.335,-1.08
2021-08-19 22:32:54.548,-0.345,-1.055
2021-08-19 22:32:54.552,-0.36,-1.035
2021-08-19 22:32:54.556,-0.325,-0.995
2021-08-19 22:32:54.560,-0.31,-0.98
2021-08-19 22:32:54.564,-0.335,-0.935
2021-08-19 22:32:54.568,-0.35,-0.93
2021-08-19 22:32:54.572,-0.34,-0.89
2021-08-19 22:32:54.576,-0.355,-0.875
2021-08-19 22:32:54.580,-0.37,-0.845
2021-08-19 22:32:54.584,-0.375,-0.835
2021-08-19 22:32:54.588,-0.4,-0.835
2021-08-19 22:32:54.592,-0.395,-0.815
2021-08-19 22:32:54.596,-0.415,-0.785
2021-08-19 22:32:54.600,-0.42,-0.79
2021-08-19 22:32:54.604,-0.425,-0.765
2021-08-19 22:32:54.608,-0.425,-0.745
2021-08-19 22:32:54.612,-0.435,-0.73
2021-08-19 22:32:54.616,-0.435,-0.735
2021-08-19 22:32:54.620,-0.45,-0.71
2021-08-19 22:32:54.624,-0.405,-0.7
2021-08-19 22:32:54.628,-0.375,-0.675
2021-08-19 22:32:54.632,-0.375,-0.64
2021-08-19 22:32:54.636,-0.33,-0.625
2021-08-19 22:32:54.640,-0.3,-0.61
2021-08-19 22:32:54.644,-0.245,-0.595
2021-08-19 22:32:54.648,-0.205,-0.545
2021-08-19 22:32:54.652,-0.19,-0.51
2021-08-19 22:32:54.656,-0.135,-0.445
2021-08-19 22:32:54.660,-0.16,-0.45
2021-08-19 22:32:54.664,-0.13,-0.445
2021-08-19 22:32:54.668,-0.14,-0.425
2021-08-19 22:32:54.672,-0.13,-0.425
2021-08-19 22:32:54.676,-0.1,-0.415
2021-08-19 22:32:54.680,-0.12,-0.415
2021-08-19 22:32:54.684,-0.125,-0.41
2021-08-19 22:32:54.688,-0.13,-0.405
2021-08-19 22:32:54.692,-0.13,-0.37
2021-08-19 22:32:54.696,-0.13,-0.415
2021-08-19 22:32:54.700,-0.14,-0.405
2021-08-19 22:32:54.704,-0.14,-0.415
2021-08-19 22:32:54.708,-0.175,-0.4
2021-08-19 22:32:54.712,-0.21,-0.41
2021-08-19 22:32:54.716,-0.2,-0.425
2021-08-19 22:32:54.720,-0.215,-0.405
2021-08-19 22:32:54.724,-0.185,-0.385
2021-08-19 22:32:54.728,-0.18,-0.39
2021-08-19 22:32:54.732,-0.185,-0.395
2021-08-19 22:32:54.736,-0.165,-0.39
2021-08-19 22:32:54.740,-0.12,-0.375
2021-08-19 22:32:54.744,-0.075,-0.375
2021-08-19 22:32:54.748,0.005,-0.37
2021-08-19 22:32:54.752,0.105,-0.39
2021-08-19 22:32:54.756,0.18,-0.425
2021-08-19 22:32:54.760,0.205,-0.47
2021-08-19 22:32:54.764,0.235,-0.475
2021-08-19 22:32:54.768,0.31,-0.465
2021-08-19 22:32:54.772,0.335,-0.49
2021-08-19 22:32:54.776,0.325,-0.55
2021-08-19 22:32:54.780,0.35,-0.585
2021-08-19 22:32:54.784,0.535,-0.74
2021-08-19 22:32:54.788,0.79,-0.935
2021-08-19 22:32:54.792,1.04,-1.185
2021-08-19 22:32:54.796,1.075,-1.365
2021-08-19 22:32:54.800,0.835,-1.39
2021-08-19 22:32:54.804,0.4,-1.1
2021-08-19 22:32:54.808,0.02,-0.75
2021-08-19 22:32:54.812,-0.2,-0.53
2021-08-19 22:32:54.816,-0.31,-0.425
2021-08-19 22:32:54.820,-0.35,-0.31
2021-08-19 22:32:54.824,-0.375,-0.22
2021-08-19 22:32:54.828,-0.4,-0.175
2021-08-19 22:32:54.832,-0.41,-0.17
2021-08-19 22:32:54.836,-0.425,-0.16
2021-08-19 22:32:54.840,-0.475,-0.17
2021-08-19 22:32:54.844,-0.535,-0.16
2021-08-19 22:32:54.848,-0.56,-0.145
2021-08-19 22:32:54.852,-0.59,-0.16
2021-08-19 22:32:54.856,-0.585,-0.19
2021-08-19 22:32:54.860,-0.575,-0.215
2021-08-19 22:32:54.864,-0.615,-0.195
2021-08-19 22:32:54.868,-0.605,-0.19
2021-08-19 22:32:54.872,-0.615,-0.21
2021-08-19 22:32:54.876,-0.6,-0.2
2021-08-19 22:32:54.880,-0.57,-0.19
2021-08-19 22:32:54.884,-0.535,-0.2
2021-08-19 22:32:54.888,-0.525,-0.18
2021-08-19 22:32:54.892,-0.465,-0.17
2021-08-19 22:32:54.896,-0.44,-0.16
2021-08-19 22:32:54.900,-0.39,-0.145
2021-08-19 22:32:54.904,-0.37,-0.12
2021-08-19 22:32:54.908,-0.34,-0.11
2021-08-19 22:32:54.912,-0.335,-0.12
2021-08-19 22:32:54.916,-0.32,-0.115
2021-08-19 22:32:54.920,-0.335,-0.115
2021-08-19 22:32:54.924,-0.36,-0.14
2021-08-19 22:32:54.928,-0.385,-0.115
2021-08-19 22:32:54.932,-0.39,-0.095
2021-08-19 22:32:54.936,-0.415,-0.105
2021-08-19 22:32:54.940,-0.4,-0.105
2021-08-19 22:32:54.944,-0.395,-0.085
2021-08-19 22:32:54.948,-0.39,-0.095
2021-08-19 22:32:54.952,-0.39,-0.08
2021-08-19 22:32:54.956,-0.375,-0.075
2021-08-19 22:32:54.960,-0.385,-0.07
2021-08-19 22:32:54.964,-0.385,-0.065
2021-08-19 22:32:54.968,-0.4,-0.09
2021-08-19 22:32:54.972,-0.37,-0.105
2021-08-19 22:32:54.976,-0.345,-0.1
2021-08-19 22:32:54.980,-0.3,-0.12
2021-08-19 22:32:54.984,-0.325,-0.135
2021-08-19 22:32:54.988,-0.295,-0.12
2021-08-19 22:32:54.992,-0.265,-0.12
2021-08-19 22:32:54.996,-0.235,-0.13
2021-08-19 22:32:55.000,-0.235,-0.13
2021-08-19 22:32:55.004,-0.26,-0.14
2021-08-19 22:32:55.008,-0.275,-0.16
2021-08-19 22:32:55.012,-0.305,-0.165
2021-08-19 22:32:55.016,-0.27,-0.19
2021-08-19 22:32:55.020,-0.22,-0.195
2021-08-19 22:32:55.024,-0.215,-0.185
2021-08-19 22:32:55.028,-0.225,-0.16
2021-08-19 22:32:55.032,-0.265,-0.17
2021-08-19 22:32:55.036,-0.305,-0.19
2021-08-19 22:32:55.040,-0.305,-0.2
2021-08-19 22:32:55.044,-0.275,-0.195
2021-08-19 22:32:55.048,-0.245,-0.18
2021-08-19 22:32:55.052,-0.21,-0.19
2021-08-19 22:32:55.056,-0.21,-0.185
2021-08-19 22:32:55.060,-0.19,-0.17
2021-08-19 22:32:55.064,-0.215,-0.18
2021-08-19 22:32:55.068,-0.225,-0.195
2021-08-19 22:32:55.072,-0.265,-0.2
2021-08-19 22:32:55.076,-0.29,-0.205
2021-08-19 22:32:55.080,-0.28,-0.195
2021-08-19 22:32:55.084,-0.25,-0.16
2021-08-19 22:32:55.088,-0.225,-0.16
2021-08-19 22:32:55.092,-0.255,-0.155
2021-08-19 22:32:55.096,-0.31,-0.15
2021-08-19 22:32:55.100,-0.32,-0.165
2021-08-19 22:32:55.104,-0.34,-0.145
2021-08-19 22:32:55.108,-0.365,-0.155
2021-08-19 22:32:55.112,-0.38,-0.145
2021-08-19 22:32:55.116,-0.38,-0.16
2021-08-19 22:32:55.120,-0.37,-0.165
2021-08-19 22:32:55.124,-0.38,-0.185
2021-08-19 22:32:55.128,-0.35,-0.205
2021-08-19 22:32:55.132,-0.3,-0.22
2021-08-19 22:32:55.136,-0.295,-0.2
2021-08-19 22:32:55.140,-0.27,-0.17
2021-08-19 22:32:55.144,-0.24,-0.15
2021-08-19 22:32:55.148,-0.215,-0.12
2021-08-19 22:32:55.152,-0.16,-0.12
2021-08-19 22:32:55.156,-0.12,-0.105
2021-08-19 22:32:55.160,-0.085,-0.105
2021-08-19 22:32:55.164,-0.065,-0.1
2021-08-19 22:32:55.168,-0.075,-0.105
2021-08-19 22:32:55.172,-0.11,-0.11
2021-08-19 22:32:55.176,-0.1,-0.105
2021-08-19 22:32:55.180,-0.105,-0.12
2021-08-19 22:32:55.184,-0.08,-0.09
2021-08-19 22:32:55.188,-0.115,-0.07
2021-08-19 22:32:55.192,-0.13,-0.065
2021-08-19 22:32:55.196,-0.12,-0.04
2021-08-19 22:32:55.200,-0.11,-0.04
2021-08-19 22:32:55.204,-0.085,-0.04
2021-08-19 22:32:55.208,-0.095,-0.02
2021-08-19 22:32:55.212,-0.115,-0.02
2021-08-19 22:32:55.216,-0.11,-0.03
2021-08-19 22:32:55.220,-0.11,-0.04
2021-08-19 22:32:55.224,-0.115,-0.01
2021-08-19 22:32:55.228,-0.11,-0.005
2021-08-19 22:32:55.232,-0.13,-0.02
2021-08-19 22:32:55.236,-0.13,-0.005
2021-08-19 22:32:55.240,-0.125,0.0
2021-08-19 22:32:55.244,-0.08,0.0
2021-08-19 22:32:55.248,-0.02,0.025
2021-08-19 22:32:55.252,0.06,0.015
2021-08-19 22:32:55.256,0.15,-0.005
2021-08-19 22:32:55.260,0.23,-0.04
2021-08-19 22:32:55.264,0.285,-0.11
2021-08-19 22:32:55.268,0.31,-0.12
2021-08-19 22:32:55.272,0.37,-0.11
2021-08-19 22:32:55.276,0.415,-0.125
2021-08-19 22:32:55.280,0.43,-0.18
2021-08-19 22:32:55.284,0.46,-0.285
2021-08-19 22:32:55.288,0.63,-0.43
2021-08-19 22:32:55.292,0.93,-0.62
2021-08-19 22:32:55.296,1.17,-0.805
2021-08-19 22:32:55.300,1.195,-0.955
2021-08-19 22:32:55.304,0.895,-0.935
2021-08-19 22:32:55.308,0.4,-0.64
2021-08-19 22:32:55.312,0.02,-0.28
2021-08-19 22:32:55.316,-0.13,-0.09
2021-08-19 22:32:55.320,-0.24,0.035
2021-08-19 22:32:55.324,-0.26,0.155
2021-08-19 22:32:55.328,-0.265,0.245
2021-08-19 22:32:55.332,-0.305,0.305
2021-08-19 22:32:55.336,-0.355,0.35
2021-08-19 22:32:55.340,-0.385,0.395
2021-08-19 22:32:55.344,-0.435,0.385
2021-08-19 22:32:55.348,-0.485,0.37
2021-08-19 22:32:55.352,-0.55,0.35
2021-08-19 22:32:55.356,-0.61,0.375
2021-08-19 22:32:55.360,-0.645,0.4
2021-08-19 22:32:55.364,-0.64,0.41
2021-08-19 22:32:55.368,-0.64,0.385
2021-08-19 22:32:55.372,-0.635,0.375
2021-08-19 22:32:55.376,-0.575,0.395
2021-08-19 22:32:55.380,-0.575,0.35
2021-08-19 22:32:55.384,-0.555,0.34
2021-08-19 22:32:55.388,-0.57,0.35
2021-08-19 22:32:55.392,-0.555,0.34
2021-08-19 22:32:55.396,-0.515,0.325
2021-08-19 22:32:55.400,-0.465,0.345
2021-08-19 22:32:55.404,-0.39,0.4
2021-08-19 22:32:55.408,-0.355,0.42
2021-08-19 22:32:55.412,-0.3,0.425
2021-08-19 22:32:55.416,-0.26,0.445
2021-08-19 22:32:55.420,-0.285,0.44
2021-08-19 22:32:55.424,-0.295,0.44
2021-08-19 22:32:55.428,-0.315,0.465
2021-08-19 22:32:55.432,-0.345,0.485
2021-08-19 22:32:55.436,-0.35,0.5
2021-08-19 22:32:55.440,-0.39,0.525
2021-08-19 22:32:55.444,-0.365,0.525
2021-08-19 22:32:55.448,-0.335,0.53
2021-08-19 22:32:55.452,-0.335,0.53
2021-08-19 22:32:55.456,-0.355,0.54
2021-08-19 22:32:55.460,-0.365,0.525
2021-08-19 22:32:55.464,-0.355,0.535
2021-08-19 22:32:55.468,-0.335,0.555
2021-08-19 22:32:55.472,-0.36,0.57
2021-08-19 22:32:55.476,-0.355,0.59
2021-08-19 22:32:55.480,-0.35,0.58
2021-08-19 22:32:55.484,-0.345,0.565
2021-08-19 22:32:55.488,-0.34,0.59
2021-08-19 22:32:55.492,-0.31,0.59
2021-08-19 22:32:55.496,-0.305,0.58
2021-08-19 22:32:55.500,-0.295,0.575
2021-08-19 22:32:55.504,-0.3,0.56
2021-08-19 22:32:55.508,-0.305,0.555
2021-08-19 22:32:55.512,-0.32,0.57
2021-08-19 22:32:55.516,-0.315,0.55
2021-08-19 22:32:55.520,-0.295,0.555
2021-08-19 22:32:55.524,-0.255,0.545
2021-08-19 22:32:55.528,-0.265,0.56
2021-08-19 22:32:55.532,-0.3,0.55
2021-08-19 22:32:55.536,-0.29,0.5
2021-08-19 22:32:55.540,-0.295,0.52
2021-08-19 22:32:55.544,-0.26,0.52
2021-08-19 22:32:55.548,-0.245,0.53
2021-08-19 22:32:55.552,-0.255,0.515
2021-08-19 22:32:55.556,-0.27,0.53
2021-08-19 22:32:55.560,-0.27,0.53
2021-08-19 22:32:55.564,-0.28,0.545
2021-08-19 22:32:55.568,-0.29,0.53
2021-08-19 22:32:55.572,-0.285,0.55
2021-08-19 22:32:55.576,-0.31,0.525
2021-08-19 22:32:55.580,-0.335,0.5
2021-08-19 22:32:55.584,-0.355,0.485
2021-08-19 22:32:55.588,-0.38,0.475
2021-08-19 22:32:55.592,-0.385,0.465
2021-08-19 22:32:55.596,-0.41,0.49
2021-08-19 22:32:55.600,-0.44,0.52
2021-08-19 22:32:55.604,-0.47,0.505
2021-08-19 22:32:55.608,-0.45,0.525
2021-08-19 22:32:55.612,-0.47,0.53
2021-08-19 22:32:55.616,-0.46,0.495
2021-08-19 22:32:55.620,-0.42,0.48
2021-08-19 22:32:55.624,-0.365,0.485
2021-08-19 22:32:55.628,-0.33,0.51
2021-08-19 22:32:55.632,-0.355,0.51
2021-08-19 22:32:55.636,-0.365,0.525
2021-08-19 22:32:55.640,-0.345,0.545
2021-08-19 22:32:55.644,-0.29,0.575
2021-08-19 22:32:55.648,-0.24,0.61
2021-08-19 22:32:55.652,-0.185,0.63
2021-08-19 22:32:55.656,-0.14,0.645
2021-08-19 22:32:55.660,-0.17,0.64
2021-08-19 22:32:55.664,-0.195,0.62
2021-08-19 22:32:55.668,-0.2,0.63
2021-08-19 22:32:55.672,-0.195,0.64
2021-08-19 22:32:55.676,-0.225,0.64
2021-08-19 22:32:55.680,-0.22,0.67
2021-08-19 22:32:55.684,-0.215,0.675
2021-08-19 22:32:55.688,-0.21,0.635
2021-08-19 22:32:55.692,-0.22,0.645
2021-08-19 22:32:55.696,-0.225,0.64
2021-08-19 22:32:55.700,-0.205,0.64
2021-08-19 22:32:55.704,-0.21,0.62
2021-08-19 22:32:55.708,-0.195,0.615
2021-08-19 22:32:55.712,-0.21,0.595
2021-08-19 22:32:55.716,-0.21,0.6
2021-08-19 22:32:55.720,-0.215,0.615
2021-08-19 22:32:55.724,-0.185,0.615
2021-08-19 22:32:55.728,-0.2,0.605
2021-08-19 22:32:55.732,-0.18,0.625
2021-08-19 22:32:55.736,-0.175,0.615
2021-08-19 22:32:55.740,-0.1,0.595
2021-08-19 22:32:55.744,-0.01,0.59
2021-08-19 22:32:55.748,0.055,0.575
2021-08-19 22:32:55.752,0.13,0.555
2021-08-19 22:32:55.756,0.185,0.51
2021-08-19 22:32:55.760,0.195,0.44
2021-08-19 22:32:55.764,0.26,0.445
2021-08-19 22:32:55.768,0.295,0.43
2021-08-19 22:32:55.772,0.305,0.335
2021-08-19 22:32:55.776,0.32,0.215
2021-08-19 22:32:55.780,0.45,0.04
2021-08-19 22:32:55.784,0.705,-0.145
2021-08-19 22:32:55.788,1.0,-0.39
2021-08-19 22:32:55.792,1.15,-0.585
2021-08-19 22:32:55.796,1.035,-0.675
2021-08-19 22:32:55.800,0.625,-0.42
2021-08-19 22:32:55.804,0.13,0.005
2021-08-19 22:32:55.808,-0.2,0.3
2021-08-19 22:32:55.812,-0.32,0.465
2021-08-19 22:32:55.816,-0.385,0.575
2021-08-19 22:32:55.820,-0.38,0.66
2021-08-19 22:32:55.824,-0.39,0.735
2021-08-19 22:32:55.828,-0.455,0.765
2021-08-19 22:32:55.832,-0.49,0.77
2021-08-19 22:32:55.836,-0.52,0.76
2021-08-19 22:32:55.840,-0.55,0.755
2021-08-19 22:32:55.844,-0.57,0.74
2021-08-19 22:32:55.848,-0.585,0.73
2021-08-19 22:32:55.852,-0.595,0.725
2021-08-19 22:32:55.856,-0.61,0.745
2021-08-19 22:32:55.860,-0.6,0.72
2021-08-19 22:32:55.864,-0.595,0.72
2021-08-19 22:32:55.868,-0.575,0.715
2021-08-19 22:32:55.872,-0.535,0.71
2021-08-19 22:32:55.876,-0.48,0.72
2021-08-19 22:32:55.880,-0.48,0.705
2021-08-19 22:32:55.884,-0.455,0.735
2021-08-19 22:32:55.888,-0.415,0.745
2021-08-19 22:32:55.892,-0.38,0.775
2021-08-19 22:32:55.896,-0.355,0.81
2021-08-19 22:32:55.900,-0.32,0.85
2021-08-19 22:32:55.904,-0.29,0.84
2021-08-19 22:32:55.908,-0.28,0.83
2021-08-19 22:32:55.912,-0.305,0.83
2021-08-19 22:32:55.916,-0.315,0.84
2021-08-19 22:32:55.920,-0.32,0.825
2021-08-19 22:32:55.924,-0.35,0.85
2021-08-19 22:32:55.928,-0.34,0.85
2021-08-19 22:32:55.932,-0.33,0.845
2021-08-19 22:32:55.936,-0.345,0.84
2021-08-19 22:32:55.940,-0.355,0.855
2021-08-19 22:32:55.944,-0.345,0.825
2021-08-19 22:32:55.948,-0.345,0.84
2021-08-19 22:32:55.952,-0.335,0.85
2021-08-19 22:32:55.956,-0.35,0.86
2021-08-19 22:32:55.960,-0.365,0.815
2021-08-19 22:32:55.964,-0.345,0.825
2021-08-19 22:32:55.968,-0.33,0.825
2021-08-19 22:32:55.972,-0.33,0.85
2021-08-19 22:32:55.976,-0.305,0.86
2021-08-19 22:32:55.980,-0.29,0.86
2021-08-19 22:32:55.984,-0.285,0.855
2021-08-19 22:32:55.988,-0.29,0.83
2021-08-19 22:32:55.992,-0.325,0.845
2021-08-19 22:32:55.996,-0.29,0.84
2021-08-19 22:32:56.000,-0.3,0.825
2021-08-19 22:32:56.004,-0.28,0.825
2021-08-19 22:32:56.008,-0.275,0.835
2021-08-19 22:32:56.012,-0.28,0.81
2021-08-19 22:32:56.016,-0.27,0.81
2021-08-19 22:32:56.020,-0.26,0.81
2021-08-19 22:32:56.024,-0.255,0.795
2021-08-19 22:32:56.028,-0.27,0.805
2021-08-19 22:32:56.032,-0.25,0.795
2021-08-19 22:32:56.036,-0.26,0.78
2021-08-19 22:32:56.040,-0.25,0.78
2021-08-19 22:32:56.044,-0.24,0.77
2021-08-19 22:32:56.048,-0.25,0.78
2021-08-19 22:32:56.052,-0.24,0.785
2021-08-19 22:32:56.056,-0.245,0.78
2021-08-19 22:32:56.060,-0.275,0.78
2021-08-19 22:32:56.064,-0.28,0.795
2021-08-19 22:32:56.068,-0.295,0.785
2021-08-19 22:32:56.072,-0.32,0.795
2021-08-19 22:32:56.076,-0.35,0.795
2021-08-19 22:32:56.080,-0.34,0.785
2021-08-19 22:32:56.084,-0.35,0.795
2021-08-19 22:32:56.088,-0.355,0.81
2021-08-19 22:32:56.092,-0.365,0.785
2021-08-19 22:32:56.096,-0.375,0.805
2021-08-19 22:32:56.100,-0.365,0.805
2021-08-19 22:32:56.104,-0.38,0.815
2021-08-19 22:32:56.108,-0.37,0.79
2021-08-19 22:32:56.112,-0.34,0.815
2021-08-19 22:32:56.116,-0.295,0.845
2021-08-19 22:32:56.120,-0.295,0.825
2021-08-19 22:32:56.124,-0.29,0.83
2021-08-19 22:32:56.128,-0.27,0.83
2021-08-19 22:32:56.132,-0.215,0.89
2021-08-19 22:32:56.136,-0.185,0.91
2021-08-19 22:32:56.140,-0.17,0.915
2021-08-19 22:32:56.144,-0.17,0.94
2021-08-19 22:32:56.148,-0.12,0.94
2021-08-19 22:32:56.152,-0.11,0.9
2021-08-19 22:32:56.156,-0.145,0.895
2021-08-19 22:32:56.160,-0.145,0.9
2021-08-19 22:32:56.164,-0.17,0.9
2021-08-19 22:32:56.168,-0.2,0.93
2021-08-19 22:32:56.172,-0.215,0.925
2021-08-19 22:32:56.176,-0.21,0.915
2021-08-19 22:32:56.180,-0.21,0.905
2021-08-19 22:32:56.184,-0.205,0.92
2021-08-19 22:32:56.188,-0.23,0.91
2021-08-19 22:32:56.192,-0.2,0.88
2021-08-19 22:32:56.196,-0.225,0.895
2021-08-19 22:32:56.200,-0.225,0.885
2021-08-19 22:32:56.204,-0.25,0.865
2021-08-19 22:32:56.208,-0.24,0.87
2021-08-19 22:32:56.212,-0.21,0.87
2021-08-19 22:32:56.216,-0.19,0.88
2021-08-19 22:32:56.220,-0.135,0.86
2021-08-19 22:32:56.224,-0.105,0.855
2021-08-19 22:32:56.228,-0.03,0.86
2021-08-19 22:32:56.232,0.07,0.83
2021-08-19 22:32:56.236,0.1,0.77
2021-08-19 22:32:56.240,0.11,0.725
2021-08-19 22:32:56.244,0.155,0.72
2021-08-19 22:32:56.248,0.2,0.71
2021-08-19 22:32:56.252,0.18,0.62
2021-08-19 22:32:56.256,0.15,0.51
2021-08-19 22:32:56.260,0.255,0.335
2021-08-19 22:32:56.264,0.53,0.14
2021-08-19 22:32:56.268,0.805,-0.125
2021-08-19 22:32:56.272,0.975,-0.3
2021-08-19 22:32:56.276,0.905,-0.41
2021-08-19 22:32:56.280,0.515,-0.225
2021-08-19 22:32:56.284,0.04,0.19
2021-08-19 22:32:56.288,-0.28,0.54
2021-08-19 22:32:56.292,-0.4,0.725
2021-08-19 22:32:56.296,-0.48,0.835
2021-08-19 22:32:56.300,-0.475,0.94
2021-08-19 22:32:56.304,-0.51,1.01
2021-08-19 22:32:56.308,-0.51,1.02
2021-08-19 22:32:56.312,-0.5,1.01
2021-08-19 22:32:56.316,-0.515,1.005
2021-08-19 22:32:56.320,-0.6,0.995
2021-08-19 22:32:56.324,-0.64,0.99
2021-08-19 22:32:56.328,-0.65,0.98
2021-08-19 22:32:56.332,-0.67,0.99
2021-08-19 22:32:56.336,-0.705,0.975
2021-08-19 22:32:56.340,-0.715,0.975
2021-08-19 22:32:56.344,-0.73,0.99
2021-08-19 22:32:56.348,-0.72,0.985
2021-08-19 22:32:56.352,-0.73,0.98
2021-08-19 22:32:56.356,-0.735,0.955
2021-08-19 22:32:56.360,-0.735,0.93
2021-08-19 22:32:56.364,-0.71,0.94
2021-08-19 22:32:56.368,-0.67,0.95
2021-08-19 22:32:56.372,-0.63,0.95
2021-08-19 22:32:56.376,-0.62,0.925
2021-08-19 22:32:56.380,-0.555,0.975
2021-08-19 22:32:56.384,-0.545,0.995
2021-08-19 22:32:56.388,-0.52,1.01
2021-08-19 22:32:56.392,-0.495,1.035
2021-08-19 22:32:56.396,-0.47,1.02
2021-08-19 22:32:56.400,-0.46,1.015
2021-08-19 22:32:56.404,-0.465,1.01
2021-08-19 22:32:56.408,-0.47,1.025
2021-08-19 22:32:56.412,-0.48,1.035
2021-08-19 22:32:56.416,-0.5,1.015
2021-08-19 22:32:56.420,-0.51,1.005
2021-08-19 22:32:56.424,-0.51,0.99
2021-08-19 22:32:56.428,-0.51,1.01
2021-08-19 22:32:56.432,-0.5,1.01
2021-08-19 22:32:56.436,-0.48,0.97
2021-08-19 22:32:56.440,-0.485,0.98
2021-08-19 22:32:56.444,-0.485,0.975
2021-08-19 22:32:56.448,-0.505,0.955
2021-08-19 22:32:56.452,-0.5,0.95
2021-08-19 22:32:56.456,-0.47,0.955
2021-08-19 22:32:56.460,-0.475,0.97
2021-08-19 22:32:56.464,-0.465,0.965
2021-08-19 22:32:56.468,-0.465,0.955
2021-08-19 22:32:56.472,-0.49,0.95
2021-08-19 22:32:56.476,-0.5,0.915
2021-08-19 22:32:56.480,-0.5,0.87
2021-08-19 22:32:56.484,-0.49,0.845
2021-08-19 22:32:56.488,-0.47,0.81
2021-08-19 22:32:56.492,-0.435,0.74
2021-08-19 22:32:56.496,-0.43,0.65
2021-08-19 22:32:56.500,-0.445,0.525
2021-08-19 22:32:56.504,-0.425,0.25
2021-08-19 22:32:56.508,-0.365,-0.265
2021-08-19 22:32:56.512,-0.37,-0.865
2021-08-19 22:32:56.516,-0.395,-1.21
2021-08-19 22:32:56.520,-0.42,-1.23
2021-08-19 22:32:56.524,-0.41,-1.045
2021-08-19 22:32:56.528,-0.37,-1.025
2021-08-19 22:32:56.532,-0.335,-1.135
2021-08-19 22:32:56.536,-0.305,-1.255
2021-08-19 22:32:56.540,-0.345,-1.3
2021-08-19 22:32:56.544,-0.37,-1.29
2021-08-19 22:32:56.548,-0.35,-1.275
2021-08-19 22:32:56.552,-0.32,-1.29
2021-08-19 22:32:56.556,-0.33,-1.28
2021-08-19 22:32:56.560,-0.35,-1.28
2021-08-19 22:32:56.564,-0.3,-1.265
2021-08-19 22:32:56.568,-0.29,-1.23
2021-08-19 22:32:56.572,-0.335,-1.19
2021-08-19 22:32:56.576,-0.43,-1.145
2021-08-19 22:32:56.580,-0.49,-1.13
2021-08-19 22:32:56.584,-0.51,-1.07
2021-08-19 22:32:56.588,-0.515,-1.045
2021-08-19 22:32:56.592,-0.505,-1.03
2021-08-19 22:32:56.596,-0.52,-1.0
2021-08-19 22:32:56.600,-0.505,-0.985
2021-08-19 22:32:56.604,-0.52,-1.0
2021-08-19 22:32:56.608,-0.53,-0.99
2021-08-19 22:32:56.612,-0.59,-0.97
2021-08-19 22:32:56.616,-0.625,-0.95
2021-08-19 22:32:56.620,-0.605,-0.93
2021-08-19 22:32:56.624,-0.555,-0.895
2021-08-19 22:32:56.628,-0.47,-0.82
2021-08-19 22:32:56.632,-0.415,-0.77
2021-08-19 22:32:56.636,-0.415,-0.72
2021-08-19 22:32:56.640,-0.43,-0.64
2021-08-19 22:32:56.644,-0.39,-0.59
2021-08-19 22:32:56.648,-0.32,-0.55
2021-08-19 22:32:56.652,-0.27,-0.49
2021-08-19 22:32:56.656,-0.275,-0.43
2021-08-19 22:32:56.660,-0.25,-0.425
2021-08-19 22:32:56.664,-0.28,-0.39
2021-08-19 22:32:56.668,-0.335,-0.37
2021-08-19 22:32:56.672,-0.335,-0.29
2021-08-19 22:32:56.676,-0.33,-0.22
2021-08-19 22:32:56.680,-0.32,-0.19
2021-08-19 22:32:56.684,-0.345,-0.145
2021-08-19 22:32:56.688,-0.36,-0.105
2021-08-19 22:32:56.692,-0.35,-0.075
2021-08-19 22:32:56.696,-0.35,-0.06
2021-08-19 22:32:56.700,-0.37,-0.06
2021-08-19 22:32:56.704,-0.4,-0.04
2021-08-19 22:32:56.708,-0.395,-0.05
2021-08-19 22:32:56.712,-0.36,-0.06
2021-08-19 22:32:56.716,-0.355,-0.04
2021-08-19 22:32:56.720,-0.34,-0.035
2021-08-19 22:32:56.724,-0.345,-0.05
2021-08-19 22:32:56.728,-0.33,-0.06
2021-08-19 22:32:56.732,-0.31,-0.065
2021-08-19 22:32:56.736,-0.265,-0.08
2021-08-19 22:32:56.740,-0.155,-0.11
2021-08-19 22:32:56.744,-0.035,-0.15
2021-08-19 22:32:56.748,0.07,-0.22
2021-08-19 22:32:56.752,0.14,-0.26
2021-08-19 22:32:56.756,0.22,-0.33
2021-08-19 22:32:56.760,0.26,-0.365
2021-08-19 22:32:56.764,0.285,-0.43
2021-08-19 22:32:56.768,0.28,-0.52
2021-08-19 22:32:56.772,0.31,-0.64
2021-08-19 22:32:56.776,0.5,-0.84
2021-08-19 22:32:56.780,0.77,-1.065
2021-08-19 22:32:56.784,0.98,-1.285
2021-08-19 22:32:56.788,0.96,-1.42
2021-08-19 22:32:56.792,0.64,-1.41
2021-08-19 22:32:56.796,0.135,-1.09
2021-08-19 22:32:56.800,-0.215,-0.79
2021-08-19 22:32:56.804,-0.385,-0.63
2021-08-19 22:32:56.808,-0.46,-0.515
2021-08-19 22:32:56.812,-0.49,-0.38
2021-08-19 22:32:56.816,-0.49,-0.295
2021-08-19 22:32:56.820,-0.5,-0.25
2021-08-19 22:32:56.824,-0.52,-0.2
2021-08-19 22:32:56.828,-0.62,-0.21
2021-08-19 22:32:56.832,-0.695,-0.21
2021-08-19 22:32:56.836,-0.74,-0.235
2021-08-19 22:32:56.840,-0.7,-0.25
2021-08-19 22:32:56.844,-0.705,-0.285
2021-08-19 22:32:56.848,-0.755,-0.34
2021-08-19 22:32:56.852,-0.855,-0.365
2021-08-19 22:32:56.856,-0.945,-0.405
2021-08-19 22:32:56.860,-0.925,-0.415
2021-08-19 22:32:56.864,-0.92,-0.495
2021-08-19 22:32:56.868,-0.875,-0.53
2021-08-19 22:32:56.872,-0.855,-0.57
2021-08-19 22:32:56.876,-0.82,-0.6
2021-08-19 22:32:56.880,-0.79,-0.62
2021-08-19 22:32:56.884,-0.75,-0.64
2021-08-19 22:32:56.888,-0.715,-0.63
2021-08-19 22:32:56.892,-0.675,-0.6
2021-08-19 22:32:56.896,-0.64,-0.56
2021-08-19 22:32:56.900,-0.62,-0.53
2021-08-19 22:32:56.904,-0.585,-0.495
2021-08-19 22:32:56.908,-0.59,-0.44
2021-08-19 22:32:56.912,-0.56,-0.435
2021-08-19 22:32:56.916,-0.54,-0.44
2021-08-19 22:32:56.920,-0.58,-0.415
2021-08-19 22:32:56.924,-0.61,-0.4
2021-08-19 22:32:56.928,-0.595,-0.37
2021-08-19 22:32:56.932,-0.61,-0.34
2021-08-19 22:32:56.936,-0.62,-0.31
2021-08-19 22:32:56.940,-0.63,-0.275
2021-08-19 22:32:56.944,-0.64,-0.26
2021-08-19 22:32:56.948,-0.625,-0.255
2021-08-19 22:32:56.952,-0.635,-0.215
2021-08-19 22:32:56.956,-0.62,-0.18
2021-08-19 22:32:56.960,-0.6,-0.165
2021-08-19 22:32:56.964,-0.595,-0.11
2021-08-19 22:32:56.968,-0.585,-0.08
2021-08-19 22:32:56.972,-0.61,-0.07
2021-08-19 22:32:56.976,-0.58,-0.015
2021-08-19 22:32:56.980,-0.58,0.02
2021-08-19 22:32:56.984,-0.585,0.05
2021-08-19 22:32:56.988,-0.55,0.09
2021-08-19 22:32:56.992,-0.525,0.145
2021-08-19 22:32:56.996,-0.505,0.18
2021-08-19 22:32:57.000,-0.5,0.215
2021-08-19 22:32:57.004,-0.5,0.27
2021-08-19 22:32:57.008,-0.485,0.285
2021-08-19 22:32:57.012,-0.47,0.305
2021-08-19 22:32:57.016,-0.45,0.335
2021-08-19 22:32:57.020,-0.465,0.36
2021-08-19 22:32:57.024,-0.445,0.405
2021-08-19 22:32:57.028,-0.43,0.425
2021-08-19 22:32:57.032,-0.435,0.44
2021-08-19 22:32:57.036,-0.445,0.5
2021-08-19 22:32:57.040,-0.435,0.495
2021-08-19 22:32:57.044,-0.425,0.52
2021-08-19 22:32:57.048,-0.44,0.53
2021-08-19 22:32:57.052,-0.42,0.55
2021-08-19 22:32:57.056,-0.4,0.56
2021-08-19 22:32:57.060,-0.42,0.585
2021-08-19 22:32:57.064,-0.425,0.61
2021-08-19 22:32:57.068,-0.44,0.61
2021-08-19 22:32:57.072,-0.445,0.655
2021-08-19 22:32:57.076,-0.455,0.67
2021-08-19 22:32:57.080,-0.46,0.65
2021-08-19 22:32:57.084,-0.49,0.68
2021-08-19 22:32:57.088,-0.54,0.69
2021-08-19 22:32:57.092,-0.52,0.72
2021-08-19 22:32:57.096,-0.49,0.72
2021-08-19 22:32:57.100,-0.49,0.735
2021-08-19 22:32:57.104,-0.485,0.71
2021-08-19 22:32:57.108,-0.555,0.715
2021-08-19 22:32:57.112,-0.57,0.735
2021-08-19 22:32:57.116,-0.59,0.725
2021-08-19 22:32:57.120,-0.59,0.75
2021-08-19 22:32:57.124,-0.56,0.755
2021-08-19 22:32:57.128,-0.51,0.75
2021-08-19 22:32:57.132,-0.475,0.74
2021-08-19 22:32:57.136,-0.43,0.68
2021-08-19 22:32:57.140,-0.395,0.63
2021-08-19 22:32:57.144,-0.355,0.61
2021-08-19 22:32:57.148,-0.315,0.61
2021-08-19 22:32:57.152,-0.32,0.655
2021-08-19 22:32:57.156,-0.305,0.67
2021-08-19 22:32:57.160,-0.295,0.65
2021-08-19 22:32:57.164,-0.275,0.6
2021-08-19 22:32:57.168,-0.275,0.58
2021-08-19 22:32:57.172,-0.28,0.54
2021-08-19 22:32:57.176,-0.28,0.515
2021-08-19 22:32:57.180,-0.28,0.52
2021-08-19 22:32:57.184,-0.3,0.5
2021-08-19 22:32:57.188,-0.3,0.455
2021-08-19 22:32:57.192,-0.3,0.47
2021-08-19 22:32:57.196,-0.3,0.44
2021-08-19 22:32:57.200,-0.31,0.42
2021-08-19 22:32:57.204,-0.305,0.38
2021-08-19 22:32:57.208,-0.32,0.34
2021-08-19 22:32:57.212,-0.3,0.33
2021-08-19 22:32:57.216,-0.305,0.3
2021-08-19 22:32:57.220,-0.305,0.29
2021-08-19 22:32:57.224,-0.28,0.275
2021-08-19 22:32:57.228,-0.3,0.275
2021-08-19 22:32:57.232,-0.31,0.26
2021-08-19 22:32:57.236,-0.3,0.25
2021-08-19 22:32:57.240,-0.245,0.235
2021-08-19 22:32:57.244,-0.195,0.245
2021-08-19 22:32:57.248,-0.13,0.22
2021-08-19 22:32:57.252,-0.08,0.21
2021-08-19 22:32:57.256,0.005,0.2
2021-08-19 22:32:57.260,0.07,0.15
2021-08-19 22:32:57.264,0.095,0.075
2021-08-19 22:32:57.268,0.125,0.055
2021-08-19 22:32:57.272,0.185,0.015
2021-08-19 22:32:57.276,0.215,-0.085
2021-08-19 22:32:57.280,0.21,-0.235
2021-08-19 22:32:57.284,0.29,-0.385
2021-08-19 22:32:57.288,0.53,-0.655
2021-08-19 22:32:57.292,0.82,-0.875
2021-08-19 22:32:57.296,1.03,-1.075
2021-08-19 22:32:57.300,0.985,-1.16
2021-08-19 22:32:57.304,0.655,-1.025
2021-08-19 22:32:57.308,0.13,-0.615
2021-08-19 22:32:57.312,-0.255,-0.24
2021-08-19 22:32:57.316,-0.425,-0.05
2021-08-19 22:32:57.320,-0.48,0.095
2021-08-19 22:32:57.324,-0.515,0.2
2021-08-19 22:32:57.328,-0.525,0.275
2021-08-19 22:32:57.332,-0.535,0.315
2021-08-19 22:32:57.336,-0.575,0.325
2021-08-19 22:32:57.340,-0.6,0.32
2021-08-19 22:32:57.344,-0.63,0.315
2021-08-19 22:32:57.348,-0.68,0.31
2021-08-19 22:32:57.352,-0.7,0.3
2021-08-19 22:32:57.356,-0.7,0.31
2021-08-19 22:32:57.360,-0.745,0.3
2021-08-19 22:32:57.364,-0.76,0.28
2021-08-19 22:32:57.368,-0.76,0.31
2021-08-19 22:32:57.372,-0.77,0.295
2021-08-19 22:32:57.376,-0.75,0.27
2021-08-19 22:32:57.380,-0.78,0.265
2021-08-19 22:32:57.384,-0.705,0.265
2021-08-19 22:32:57.388,-0.685,0.28
2021-08-19 22:32:57.392,-0.665,0.28
2021-08-19 22:32:57.396,-0.63,0.275
2021-08-19 22:32:57.400,-0.6,0.3
2021-08-19 22:32:57.404,-0.53,0.315
2021-08-19 22:32:57.408,-0.51,0.335
2021-08-19 22:32:57.412,-0.52,0.37
2021-08-19 22:32:57.416,-0.525,0.37
2021-08-19 22:32:57.420,-0.515,0.345
2021-08-19 22:32:57.424,-0.505,0.35
2021-08-19 22:32:57.428,-0.5,0.345
2021-08-19 22:32:57.432,-0.475,0.35
2021-08-19 22:32:57.436,-0.465,0.38
2021-08-19 22:32:57.440,-0.485,0.38
2021-08-19 22:32:57.444,-0.5,0.355
2021-08-19 22:32:57.448,-0.49,0.345
2021-08-19 22:32:57.452,-0.475,0.315
2021-08-19 22:32:57.456,-0.465,0.33
2021-08-19 22:32:57.460,-0.52,0.35
2021-08-19 22:32:57.464,-0.53,0.32
2021-08-19 22:32:57.468,-0.54,0.29
2021-08-19 22:32:57.472,-0.52,0.285
2021-08-19 22:32:57.476,-0.49,0.285
2021-08-19 22:32:57.480,-0.49,0.25
2021-08-19 22:32:57.484,-0.475,0.23
2021-08-19 22:32:57.488,-0.47,0.22
2021-08-19 22:32:57.492,-0.505,0.205
2021-08-19 22:32:57.496,-0.5,0.18
2021-08-19 22:32:57.500,-0.5,0.15
2021-08-19 22:32:57.504,-0.485,0.13
2021-08-19 22:32:57.508,-0.45,0.09
2021-08-19 22:32:57.512,-0.425,0.09
2021-08-19 22:32:57.516,-0.465,0.055
2021-08-19 22:32:57.520,-0.46,0.05
2021-08-19 22:32:57.524,-0.435,0.01
2021-08-19 22:32:57.528,-0.425,-0.01
2021-08-19 22:32:57.532,-0.43,-0.04
2021-08-19 22:32:57.536,-0.415,-0.07
2021-08-19 22:32:57.540,-0.41,-0.08
2021-08-19 22:32:57.544,-0.38,-0.125
2021-08-19 22:32:57.548,-0.375,-0.165
2021-08-19 22:32:57.552,-0.37,-0.195
2021-08-19 22:32:57.556,-0.37,-0.225
2021-08-19 22:32:57.560,-0.38,-0.25
2021-08-19 22:32:57.564,-0.385,-0.27
2021-08-19 22:32:57.568,-0.385,-0.275
2021-08-19 22:32:57.572,-0.355,-0.285
2021-08-19 22:32:57.576,-0.355,-0.285
2021-08-19 22:32:57.580,-0.35,-0.275
2021-08-19 22:32:57.584,-0.34,-0.29
2021-08-19 22:32:57.588,-0.36,-0.285
2021-08-19 22:32:57.592,-0.37,-0.295
2021-08-19 22:32:57.596,-0.365,-0.295
2021-08-19 22:32:57.600,-0.38,-0.325
2021-08-19 22:32:57.604,-0.385,-0.36
2021-08-19 22:32:57.608,-0.425,-0.375
2021-08-19 22:32:57.612,-0.445,-0.4
2021-08-19 22:32:57.616,-0.455,-0.425
2021-08-19 22:32:57.620,-0.45,-0.45
2021-08-19 22:32:57.624,-0.445,-0.435
2021-08-19 22:32:57.628,-0.48,-0.425
2021-08-19 22:32:57.632,-0.47,-0.465
2021-08-19 22:32:57.636,-0.45,-0.47
2021-08-19 22:32:57.640,-0.4,-0.485
2021-08-19 22:32:57.644,-0.425,-0.495
2021-08-19 22:32:57.648,-0.51,-0.475
2021-08-19 22:32:57.652,-0.585,-0.46
2021-08-19 22:32:57.656,-0.56,-0.44
2021-08-19 22:32:57.660,-0.455,-0.41
2021-08-19 22:32:57.664,-0.32,-0.42
2021-08-19 22:32:57.668,-0.27,-0.375
2021-08-19 22:32:57.672,-0.3,-0.36
2021-08-19 22:32:57.676,-0.305,-0.34
2021-08-19 22:32:57.680,-0.27,-0.33
2021-08-19 22:32:57.684,-0.21,-0.32
2021-08-19 22:32:57.688,-0.195,-0.335
2021-08-19 22:32:57.692,-0.285,-0.32
2021-08-19 22:32:57.696,-0.325,-0.3
2021-08-19 22:32:57.700,-0.32,-0.285
2021-08-19 22:32:57.704,-0.275,-0.27
2021-08-19 22:32:57.708,-0.29,-0.26
2021-08-19 22:32:57.712,-0.35,-0.27
2021-08-19 22:32:57.716,-0.385,-0.285
2021-08-19 22:32:57.720,-0.38,-0.32
2021-08-19 22:32:57.724,-0.34,-0.315
2021-08-19 22:32:57.728,-0.27,-0.29
2021-08-19 22:32:57.732,-0.25,-0.31
2021-08-19 22:32:57.736,-0.32,-0.31
2021-08-19 22:32:57.740,-0.425,-0.325
2021-08-19 22:32:57.744,-0.445,-0.33
2021-08-19 22:32:57.748,-0.4,-0.31
2021-08-19 22:32:57.752,-0.355,-0.32
2021-08-19 22:32:57.756,-0.325,-0.305
2021-08-19 22:32:57.760,-0.32,-0.285
2021-08-19 22:32:57.764,-0.295,-0.26
2021-08-19 22:32:57.768,-0.265,-0.28
2021-08-19 22:32:57.772,-0.23,-0.245
2021-08-19 22:32:57.776,-0.155,-0.27
2021-08-19 22:32:57.780,-0.115,-0.235
2021-08-19 22:32:57.784,-0.07,-0.26
2021-08-19 22:32:57.788,0.01,-0.25
2021-08-19 22:32:57.792,0.13,-0.255
2021-08-19 22:32:57.796,0.185,-0.315
2021-08-19 22:32:57.800,0.215,-0.285
2021-08-19 22:32:57.804,0.195,-0.315
2021-08-19 22:32:57.808,0.155,-0.405
2021-08-19 22:32:57.812,0.15,-0.55
2021-08-19 22:32:57.816,0.3,-0.67
2021-08-19 22:32:57.820,0.57,-0.91
2021-08-19 22:32:57.824,0.855,-1.125
2021-08-19 22:32:57.828,0.985,-1.27
2021-08-19 22:32:57.832,0.84,-1.26
2021-08-19 22:32:57.836,0.39,-0.955
2021-08-19 22:32:57.840,-0.095,-0.465
2021-08-19 22:32:57.844,-0.405,-0.15
2021-08-19 22:32:57.848,-0.475,0.025
2021-08-19 22:32:57.852,-0.465,0.16
2021-08-19 22:32:57.856,-0.39,0.26
2021-08-19 22:32:57.860,-0.37,0.31
2021-08-19 22:32:57.864,-0.48,0.35
2021-08-19 22:32:57.868,-0.625,0.365
2021-08-19 22:32:57.872,-0.67,0.38
2021-08-19 22:32:57.876,-0.63,0.4
2021-08-19 22:32:57.880,-0.595,0.38
2021-08-19 22:32:57.884,-0.57,0.4
2021-08-19 22:32:57.888,-0.515,0.405
2021-08-19 22:32:57.892,-0.495,0.4
2021-08-19 22:32:57.896,-0.565,0.395
2021-08-19 22:32:57.900,-0.655,0.38
2021-08-19 22:32:57.904,-0.68,0.395
2021-08-19 22:32:57.908,-0.705,0.405
2021-08-19 22:32:57.912,-0.765,0.39
2021-08-19 22:32:57.916,-0.8,0.4
2021-08-19 22:32:57.920,-0.73,0.395
2021-08-19 22:32:57.924,-0.71,0.4
2021-08-19 22:32:57.928,-0.67,0.4
2021-08-19 22:32:57.932,-0.615,0.38
2021-08-19 22:32:57.936,-0.565,0.4
2021-08-19 22:32:57.940,-0.505,0.4
2021-08-19 22:32:57.944,-0.46,0.42
2021-08-19 22:32:57.948,-0.47,0.405
2021-08-19 22:32:57.952,-0.515,0.375
2021-08-19 22:32:57.956,-0.45,0.35
2021-08-19 22:32:57.960,-0.375,0.36
2021-08-19 22:32:57.964,-0.39,0.36
2021-08-19 22:32:57.968,-0.435,0.345
2021-08-19 22:32:57.972,-0.49,0.335
2021-08-19 22:32:57.976,-0.505,0.29
2021-08-19 22:32:57.980,-0.53,0.26
2021-08-19 22:32:57.984,-0.545,0.255
2021-08-19 22:32:57.988,-0.575,0.215
2021-08-19 22:32:57.992,-0.68,0.17
2021-08-19 22:32:57.996,-0.76,0.15
2021-08-19 22:32:58.000,-0.67,0.12
2021-08-19 22:32:58.004,-0.59,0.085
2021-08-19 22:32:58.008,-0.52,0.08
2021-08-19 22:32:58.012,-0.48,0.065
2021-08-19 22:32:58.016,-0.455,0.005
2021-08-19 22:32:58.020,-0.425,-0.02
2021-08-19 22:32:58.024,-0.43,-0.11
2021-08-19 22:32:58.028,-0.47,-0.135
2021-08-19 22:32:58.032,-0.525,-0.17
2021-08-19 22:32:58.036,-0.57,-0.23
2021-08-19 22:32:58.040,-0.58,-0.3
2021-08-19 22:32:58.044,-0.545,-0.34
2021-08-19 22:32:58.048,-0.505,-0.385
2021-08-19 22:32:58.052,-0.485,-0.455
2021-08-19 22:32:58.056,-0.44,-0.51
2021-08-19 22:32:58.060,-0.455,-0.595
2021-08-19 22:32:58.064,-0.49,-0.665
2021-08-19 22:32:58.068,-0.475,-0.745
2021-08-19 22:32:58.072,-0.415,-0.81
2021-08-19 22:32:58.076,-0.405,-0.89
2021-08-19 22:32:58.080,-0.45,-0.93
2021-08-19 22:32:58.084,-0.53,-0.995
2021-08-19 22:32:58.088,-0.54,-1.08
2021-08-19 22:32:58.092,-0.535,-1.14
2021-08-19 22:32:58.096,-0.54,-1.185
2021-08-19 22:32:58.100,-0.54,-1.23
2021-08-19 22:32:58.104,-0.525,-1.26
2021-08-19 22:32:58.108,-0.48,-1.285
2021-08-19 22:32:58.112,-0.46,-1.325
2021-08-19 22:32:58.116,-0.465,-1.335
2021-08-19 22:32:58.120,-0.475,-1.37
2021-08-19 22:32:58.124,-0.43,-1.38
2021-08-19 22:32:58.128,-0.465,-1.42
2021-08-19 22:32:58.132,-0.425,-1.435
2021-08-19 22:32:58.136,-0.31,-1.46
2021-08-19 22:32:58.140,-0.34,-1.465
2021-08-19 22:32:58.144,-0.565,-1.465
2021-08-19 22:32:58.148,-0.74,-1.465
2021-08-19 22:32:58.152,-0.76,-1.485
2021-08-19 22:32:58.156,-0.73,-1.495
2021-08-19 22:32:58.160,-0.7,-1.51
2021-08-19 22:32:58.164,-0.64,-1.495
2021-08-19 22:32:58.168,-0.63,-1.505
2021-08-19 22:32:58.172,-0.665,-1.485
2021-08-19 22:32:58.176,-0.715,-1.52
2021-08-19 22:32:58.180,-0.65,-1.51
2021-08-19 22:32:58.184,-0.575,-1.535
2021-08-19 22:32:58.188,-0.47,-1.545
2021-08-19 22:32:58.192,-0.375,-1.53
2021-08-19 22:32:58.196,-0.325,-1.51
2021-08-19 22:32:58.200,-0.39,-1.495
2021-08-19 22:32:58.204,-0.5,-1.505
2021-08-19 22:32:58.208,-0.56,-1.51
2021-08-19 22:32:58.212,-0.47,-1.515
2021-08-19 22:32:58.216,-0.35,-1.52
2021-08-19 22:32:58.220,-0.375,-1.545
2021-08-19 22:32:58.224,-0.44,-1.525
2021-08-19 22:32:58.228,-0.4,-1.545
2021-08-19 22:32:58.232,-0.39,-1.555
2021-08-19 22:32:58.236,-0.43,-1.55
2021-08-19 22:32:58.240,-0.4,-1.55
2021-08-19 22:32:58.244,-0.39,-1.565
2021-08-19 22:32:58.248,-0.455,-1.56
2021-08-19 22:32:58.252,-0.45,-1.57
2021-08-19 22:32:58.256,-0.39,-1.57
2021-08-19 22:32:58.260,-0.38,-1.57
2021-08-19 22:32:58.264,-0.4,-1.54
2021-08-19 22:32:58.268,-0.43,-1.585
2021-08-19 22:32:58.272,-0.44,-1.585
2021-08-19 22:32:58.276,-0.475,-1.595
2021-08-19 22:32:58.280,-0.495,-1.595
2021-08-19 22:32:58.284,-0.45,-1.58
2021-08-19 22:32:58.288,-0.37,-1.575
2021-08-19 22:32:58.292,-0.37,-1.59
2021-08-19 22:32:58.296,-0.485,-1.61
2021-08-19 22:32:58.300,-0.59,-1.6
2021-08-19 22:32:58.304,-0.6,-1.62
2021-08-19 22:32:58.308,-0.575,-1.605
2021-08-19 22:32:58.312,-0.545,-1.6
2021-08-19 22:32:58.316,-0.495,-1.59
2021-08-19 22:32:58.320,-0.43,-1.6
2021-08-19 22:32:58.324,-0.415,-1.595
2021-08-19 22:32:58.328,-0.47,-1.6
2021-08-19 22:32:58.332,-0.49,-1.6
2021-08-19 22:32:58.336,-0.475,-1.58
2021-08-19 22:32:58.340,-0.51,-1.595
2021-08-19 22:32:58.344,-0.56,-1.595
2021-08-19 22:32:58.348,-0.55,-1.575
2021-08-19 22:32:58.352,-0.52,-1.625
2021-08-19 22:32:58.356,-0.515,-1.605
2021-08-19 22:32:58.360,-0.535,-1.605
2021-08-19 22:32:58.364,-0.555,-1.61
2021-08-19 22:32:58.368,-0.595,-1.605
2021-08-19 22:32:58.372,-0.54,-1.62
2021-08-19 22:32:58.376,-0.52,-1.59
2021-08-19 22:32:58.380,-0.545,-1.625
2021-08-19 22:32:58.384,-0.595,-1.625
2021-08-19 22:32:58.388,-0.595,-1.645
2021-08-19 22:32:58.392,-0.63,-1.65
2021-08-19 22:32:58.396,-0.64,-1.655
2021-08-19 22:32:58.400,-0.705,-1.675
2021-08-19 22:32:58.404,-0.695,-1.68
2021-08-19 22:32:58.408,-0.7,-1.705
2021-08-19 22:32:58.412,-0.715,-1.685
2021-08-19 22:32:58.416,-0.745,-1.695
2021-08-19 22:32:58.420,-0.74,-1.71
2021-08-19 22:32:58.424,-0.76,-1.7
2021-08-19 22:32:58.428,-0.735,-1.7
2021-08-19 22:32:58.432,-0.71,-1.735
2021-08-19 22:32:58.436,-0.71,-1.75
2021-08-19 22:32:58.440,-0.71,-1.74
2021-08-19 22:32:58.444,-0.64,-1.76
2021-08-19 22:32:58.448,-0.54,-1.75
2021-08-19 22:32:58.452,-0.49,-1.74
2021-08-19 22:32:58.456,-0.47,-1.72
2021-08-19 22:32:58.460,-0.51,-1.715
2021-08-19 22:32:58.464,-0.525,-1.715
2021-08-19 22:32:58.468,-0.47,-1.71
2021-08-19 22:32:58.472,-0.41,-1.7
2021-08-19 22:32:58.476,-0.38,-1.715
2021-08-19 22:32:58.480,-0.39,-1.7
2021-08-19 22:32:58.484,-0.38,-1.7
2021-08-19 22:32:58.488,-0.45,-1.705
2021-08-19 22:32:58.492,-0.45,-1.725
2021-08-19 22:32:58.496,-0.41,-1.725
2021-08-19 22:32:58.500,-0.375,-1.71
2021-08-19 22:32:58.504,-0.405,-1.71
2021-08-19 22:32:58.508,-0.46,-1.745
2021-08-19 22:32:58.512,-0.51,-1.77
2021-08-19 22:32:58.516,-0.505,-1.77
2021-08-19 22:32:58.520,-0.47,-1.755
2021-08-19 22:32:58.524,-0.455,-1.765
2021-08-19 22:32:58.528,-0.445,-1.755
2021-08-19 22:32:58.532,-0.455,-1.74
2021-08-19 22:32:58.536,-0.48,-1.755
2021-08-19 22:32:58.540,-0.49,-1.74
2021-08-19 22:32:58.544,-0.51,-1.735
2021-08-19 22:32:58.548,-0.54,-1.715
2021-08-19 22:32:58.552,-0.515,-1.705
2021-08-19 22:32:58.556,-0.51,-1.7
2021-08-19 22:32:58.560,-0.51,-1.67
2021-08-19 22:32:58.564,-0.53,-1.63
2021-08-19 22:32:58.568,-0.575,-1.61
2021-08-19 22:32:58.572,-0.555,-1.6
2021-08-19 22:32:58.576,-0.52,-1.59
2021-08-19 22:32:58.580,-0.505,-1.55
2021-08-19 22:32:58.584,-0.51,-1.52
2021-08-19 22:32:58.588,-0.475,-1.49
2021-08-19 22:32:58.592,-0.445,-1.48
2021-08-19 22:32:58.596,-0.485,-1.435
2021-08-19 22:32:58.600,-0.555,-1.415
2021-08-19 22:32:58.604,-0.56,-1.385
2021-08-19 22:32:58.608,-0.495,-1.355
2021-08-19 22:32:58.612,-0.445,-1.33
2021-08-19 22:32:58.616,-0.44,-1.315
2021-08-19 22:32:58.620,-0.5,-1.3
2021-08-19 22:32:58.624,-0.585,-1.29
2021-08-19 22:32:58.628,-0.64,-1.275
2021-08-19 22:32:58.632,-0.625,-1.265
2021-08-19 22:32:58.636,-0.6,-1.26
2021-08-19 22:32:58.640,-0.61,-1.245
2021-08-19 22:32:58.644,-0.625,-1.25
2021-08-19 22:32:58.648,-0.64,-1.23
2021-08-19 22:32:58.652,-0.645,-1.25
2021-08-19 22:32:58.656,-0.635,-1.245
2021-08-19 22:32:58.660,-0.64,-1.235
2021-08-19 22:32:58.664,-0.645,-1.245
2021-08-19 22:32:58.668,-0.645,-1.23
2021-08-19 22:32:58.672,-0.61,-1.25
2021-08-19 22:32:58.676,-0.535,-1.265
2021-08-19 22:32:58.680,-0.48,-1.245
2021-08-19 22:32:58.684,-0.375,-1.265
2021-08-19 22:32:58.688,-0.24,-1.28
2021-08-19 22:32:58.692,-0.16,-1.32
2021-08-19 22:32:58.696,-0.08,-1.37
2021-08-19 22:32:58.700,0.015,-1.39
2021-08-19 22:32:58.704,0.025,-1.385
2021-08-19 22:32:58.708,0.025,-1.4
2021-08-19 22:32:58.712,0.12,-1.475
2021-08-19 22:32:58.716,0.305,-1.56
2021-08-19 22:32:58.720,0.455,-1.69
2021-08-19 22:32:58.724,0.625,-1.84
2021-08-19 22:32:58.728,0.88,-1.965
2021-08-19 22:32:58.740,0.565,-1.8
2021-08-19 22:32:58.744,0.16,-1.47
2021-08-19 22:32:58.748,-0.15,-1.265
2021-08-19 22:32:58.752,-0.3,-1.185
2021-08-19 22:32:58.756,-0.28,-1.115
2021-08-19 22:32:58.760,-0.32,-1.035
2021-08-19 22:32:58.764,-0.55,-0.995
2021-08-19 22:32:58.768,-0.76,-0.96
2021-08-19 22:32:58.772,-0.8,-0.965
2021-08-19 22:32:58.776,-0.705,-0.94
2021-08-19 22:32:58.780,-0.535,-0.95
2021-08-19 22:32:58.784,-0.465,-0.905
2021-08-19 22:32:58.788,-0.545,-0.92
2021-08-19 22:32:58.792,-0.715,-0.935
2021-08-19 22:32:58.796,-0.77,-0.93
2021-08-19 22:32:58.800,-0.755,-0.915
2021-08-19 22:32:58.804,-0.7,-0.89
2021-08-19 22:32:58.808,-0.675,-0.875
2021-08-19 22:32:58.812,-0.655,-0.865
2021-08-19 22:32:58.816,-0.68,-0.875
2021-08-19 22:32:58.820,-0.695,-0.87
2021-08-19 22:32:58.824,-0.735,-0.855
2021-08-19 22:32:58.828,-0.7,-0.88
2021-08-19 22:32:58.832,-0.65,-0.875
2021-08-19 22:32:58.836,-0.65,-0.855
2021-08-19 22:32:58.840,-0.715,-0.875
2021-08-19 22:32:58.844,-0.705,-0.875
2021-08-19 22:32:58.848,-0.685,-0.875
2021-08-19 22:32:58.852,-0.67,-0.89
2021-08-19 22:32:58.856,-0.66,-0.89
2021-08-19 22:32:58.860,-0.68,-0.925
2021-08-19 22:32:58.864,-0.71,-0.9
2021-08-19 22:32:58.868,-0.71,-0.905
2021-08-19 22:32:58.872,-0.65,-0.875
2021-08-19 22:32:58.876,-0.7,-0.875
2021-08-19 22:32:58.880,-0.785,-0.885
2021-08-19 22:32:58.884,-0.785,-0.87
2021-08-19 22:32:58.888,-0.745,-0.86
2021-08-19 22:32:58.892,-0.755,-0.84
2021-08-19 22:32:58.896,-0.795,-0.86
2021-08-19 22:32:58.900,-0.825,-0.83
2021-08-19 22:32:58.904,-0.86,-0.82
2021-08-19 22:32:58.908,-0.925,-0.82
2021-08-19 22:32:58.912,-0.925,-0.815
2021-08-19 22:32:58.916,-0.88,-0.785
2021-08-19 22:32:58.920,-0.815,-0.78
2021-08-19 22:32:58.924,-0.81,-0.765
2021-08-19 22:32:58.928,-0.865,-0.755
2021-08-19 22:32:58.932,-0.91,-0.755
2021-08-19 22:32:58.936,-0.895,-0.75
2021-08-19 22:32:58.940,-0.87,-0.72
2021-08-19 22:32:58.944,-0.855,-0.71
2021-08-19 22:32:58.948,-0.825,-0.695
2021-08-19 22:32:58.952,-0.795,-0.66
2021-08-19 22:32:58.956,-0.75,-0.66
2021-08-19 22:32:58.960,-0.705,-0.61
2021-08-19 22:32:58.964,-0.645,-0.59
2021-08-19 22:32:58.968,-0.615,-0.57
2021-08-19 22:32:58.972,-0.56,-0.515
2021-08-19 22:32:58.976,-0.515,-0.505
2021-08-19 22:32:58.980,-0.515,-0.48
2021-08-19 22:32:58.984,-0.495,-0.49
2021-08-19 22:32:58.988,-0.495,-0.49
2021-08-19 22:32:58.992,-0.45,-0.49
2021-08-19 22:32:58.996,-0.43,-0.5
2021-08-19 22:32:59.000,-0.445,-0.515
2021-08-19 22:32:59.004,-0.455,-0.475
2021-08-19 22:32:59.008,-0.415,-0.45
2021-08-19 22:32:59.012,-0.435,-0.455
2021-08-19 22:32:59.016,-0.43,-0.465
2021-08-19 22:32:59.020,-0.445,-0.49
2021-08-19 22:32:59.024,-0.43,-0.48
2021-08-19 22:32:59.028,-0.43,-0.46
2021-08-19 22:32:59.032,-0.41,-0.45
2021-08-19 22:32:59.036,-0.395,-0.475
2021-08-19 22:32:59.040,-0.38,-0.44
2021-08-19 22:32:59.044,-0.435,-0.435
2021-08-19 22:32:59.048,-0.45,-0.415
2021-08-19 22:32:59.052,-0.42,-0.395
2021-08-19 22:32:59.056,-0.435,-0.415
2021-08-19 22:32:59.060,-0.445,-0.37
2021-08-19 22:32:59.064,-0.445,-0.35
2021-08-19 22:32:59.068,-0.44,-0.31
2021-08-19 22:32:59.072,-0.42,-0.32
2021-08-19 22:32:59.076,-0.4,-0.29
2021-08-19 22:32:59.080,-0.34,-0.275
2021-08-19 22:32:59.084,-0.405,-0.255
2021-08-19 22:32:59.088,-0.545,-0.245
2021-08-19 22:32:59.092,-0.55,-0.235
2021-08-19 22:32:59.096,-0.495,-0.245
2021-08-19 22:32:59.100,-0.495,-0.22
2021-08-19 22:32:59.104,-0.495,-0.23
2021-08-19 22:32:59.108,-0.49,-0.23
2021-08-19 22:32:59.112,-0.485,-0.26
2021-08-19 22:32:59.116,-0.48,-0.265
2021-08-19 22:32:59.120,-0.51,-0.28
2021-08-19 22:32:59.124,-0.525,-0.305
2021-08-19 22:32:59.128,-0.52,-0.31
2021-08-19 22:32:59.132,-0.545,-0.345
2021-08-19 22:32:59.136,-0.525,-0.35
2021-08-19 22:32:59.140,-0.53,-0.35
2021-08-19 22:32:59.144,-0.505,-0.385
2021-08-19 22:32:59.148,-0.535,-0.41
2021-08-19 22:32:59.152,-0.555,-0.445
2021-08-19 22:32:59.156,-0.525,-0.45
2021-08-19 22:32:59.160,-0.53,-0.47
2021-08-19 22:32:59.164,-0.535,-0.515
2021-08-19 22:32:59.168,-0.585,-0.565
2021-08-19 22:32:59.172,-0.62,-0.615
2021-08-19 22:32:59.176,-0.63,-0.64
2021-08-19 22:32:59.180,-0.625,-0.685
2021-08-19 22:32:59.184,-0.64,-0.715
2021-08-19 22:32:59.188,-0.65,-0.74
2021-08-19 22:32:59.192,-0.635,-0.795
2021-08-19 22:32:59.196,-0.61,-0.82
2021-08-19 22:32:59.200,-0.645,-0.85
2021-08-19 22:32:59.204,-0.69,-0.865
2021-08-19 22:32:59.208,-0.7,-0.91
2021-08-19 22:32:59.212,-0.68,-0.965
2021-08-19 22:32:59.216,-0.64,-0.975
2021-08-19 22:32:59.220,-0.62,-0.975
2021-08-19 22:32:59.224,-0.575,-0.975
2021-08-19 22:32:59.228,-0.545,-0.995
2021-08-19 22:32:59.232,-0.505,-0.975
2021-08-19 22:32:59.236,-0.47,-0.98
2021-08-19 22:32:59.240,-0.435,-0.96
2021-08-19 22:32:59.244,-0.405,-0.955
2021-08-19 22:32:59.248,-0.425,-0.96
2021-08-19 22:32:59.252,-0.43,-0.965
2021-08-19 22:32:59.256,-0.405,-0.96
2021-08-19 22:32:59.260,-0.385,-0.975
2021-08-19 22:32:59.264,-0.4,-0.98
2021-08-19 22:32:59.268,-0.425,-0.975
2021-08-19 22:32:59.272,-0.4,-1.01
2021-08-19 22:32:59.276,-0.37,-1.02
2021-08-19 22:32:59.280,-0.395,-1.02
2021-08-19 22:32:59.284,-0.435,-1.03
2021-08-19 22:32:59.288,-0.425,-1.045
2021-08-19 22:32:59.292,-0.34,-1.05
2021-08-19 22:32:59.296,-0.29,-1.065
2021-08-19 22:32:59.300,-0.24,-1.06
2021-08-19 22:32:59.304,-0.16,-1.06
2021-08-19 22:32:59.308,-0.075,-1.1
2021-08-19 22:32:59.312,-0.02,-1.145
2021-08-19 22:32:59.316,0.0,-1.215
2021-08-19 22:32:59.320,0.055,-1.255
2021-08-19 22:32:59.324,0.13,-1.25
2021-08-19 22:32:59.328,0.16,-1.32
2021-08-19 22:32:59.332,0.115,-1.43
2021-08-19 22:32:59.336,0.155,-1.585
2021-08-19 22:32:59.340,0.36,-1.745
2021-08-19 22:32:59.344,0.665,-1.9
2021-08-19 22:32:59.356,0.445,-1.99
2021-08-19 22:32:59.360,-0.065,-1.72
2021-08-19 22:32:59.364,-0.41,-1.42
2021-08-19 22:32:59.368,-0.575,-1.265
2021-08-19 22:32:59.372,-0.61,-1.19
2021-08-19 22:32:59.376,-0.61,-1.1
2021-08-19 22:32:59.380,-0.645,-1.02
2021-08-19 22:32:59.384,-0.69,-0.99
2021-08-19 22:32:59.388,-0.69,-0.97
2021-08-19 22:32:59.392,-0.69,-0.97
2021-08-19 22:32:59.396,-0.6,-1.01
2021-08-19 22:32:59.400,-0.55,-1.015
2021-08-19 22:32:59.404,-0.58,-1.025
2021-08-19 22:32:59.408,-0.655,-0.99
2021-08-19 22:32:59.412,-0.655,-0.995
2021-08-19 22:32:59.416,-0.605,-1.015
2021-08-19 22:32:59.420,-0.66,-0.99
2021-08-19 22:32:59.424,-0.775,-1.01
2021-08-19 22:32:59.428,-0.81,-1.005
2021-08-19 22:32:59.432,-0.87,-1.01
2021-08-19 22:32:59.436,-0.985,-1.0
2021-08-19 22:32:59.440,-0.98,-1.005
2021-08-19 22:32:59.444,-0.85,-0.98
2021-08-19 22:32:59.448,-0.765,-1.01
2021-08-19 22:32:59.452,-0.8,-1.005
2021-08-19 22:32:59.456,-0.915,-1.015
2021-08-19 22:32:59.460,-1.02,-1.035
2021-08-19 22:32:59.464,-0.98,-1.04
2021-08-19 22:32:59.468,-0.95,-1.01
2021-08-19 22:32:59.472,-0.95,-1.005
2021-08-19 22:32:59.476,-0.955,-1.01
2021-08-19 22:32:59.480,-0.965,-1.015
2021-08-19 22:32:59.484,-1.01,-1.015
2021-08-19 22:32:59.488,-0.975,-0.995
2021-08-19 22:32:59.492,-0.88,-0.975
2021-08-19 22:32:59.496,-0.815,-0.95
2021-08-19 22:32:59.500,-0.775,-0.94
2021-08-19 22:32:59.504,-0.735,-0.915
2021-08-19 22:32:59.508,-0.685,-0.895
2021-08-19 22:32:59.512,-0.665,-0.895
2021-08-19 22:32:59.516,-0.635,-0.91
2021-08-19 22:32:59.520,-0.555,-0.92
2021-08-19 22:32:59.524,-0.51,-0.905
2021-08-19 22:32:59.528,-0.55,-0.9
2021-08-19 22:32:59.532,-0.585,-0.925
2021-08-19 22:32:59.536,-0.6,-0.92
2021-08-19 22:32:59.540,-0.595,-0.935
2021-08-19 22:32:59.544,-0.575,-0.945
2021-08-19 22:32:59.548,-0.6,-0.96
2021-08-19 22:32:59.552,-0.585,-0.97
2021-08-19 22:32:59.556,-0.535,-1.015
2021-08-19 22:32:59.560,-0.53,-1.035
2021-08-19 22:32:59.564,-0.58,-1.04
2021-08-19 22:32:59.568,-0.635,-1.075
2021-08-19 22:32:59.572,-0.655,-1.085
2021-08-19 22:32:59.576,-0.64,-1.135
2021-08-19 22:32:59.580,-0.625,-1.155
2021-08-19 22:32:59.584,-0.585,-1.16
2021-08-19 22:32:59.588,-0.585,-1.16
2021-08-19 22:32:59.592,-0.625,-1.2
2021-08-19 22:32:59.596,-0.66,-1.225
2021-08-19 22:32:59.600,-0.605,-1.235
2021-08-19 22:32:59.604,-0.545,-1.255
2021-08-19 22:32:59.608,-0.585,-1.255
2021-08-19 22:32:59.612,-0.595,-1.255
2021-08-19 22:32:59.616,-0.62,-1.285
2021-08-19 22:32:59.620,-0.665,-1.3
2021-08-19 22:32:59.624,-0.665,-1.335
2021-08-19 22:32:59.628,-0.59,-1.32
2021-08-19 22:32:59.632,-0.56,-1.335
2021-08-19 22:32:59.636,-0.615,-1.35
2021-08-19 22:32:59.640,-0.68,-1.365
2021-08-19 22:32:59.644,-0.68,-1.37
2021-08-19 22:32:59.648,-0.63,-1.37
2021-08-19 22:32:59.652,-0.605,-1.38
2021-08-19 22:32:59.656,-0.52,-1.37
2021-08-19 22:32:59.660,-0.58,-1.37
2021-08-19 22:32:59.664,-0.73,-1.355
2021-08-19 22:32:59.668,-0.75,-1.38
2021-08-19 22:32:59.672,-0.725,-1.39
2021-08-19 22:32:59.676,-0.695,-1.385
2021-08-19 22:32:59.680,-0.695,-1.415
2021-08-19 22:32:59.684,-0.695,-1.395
2021-08-19 22:32:59.688,-0.74,-1.405
2021-08-19 22:32:59.692,-0.78,-1.41
2021-08-19 22:32:59.696,-0.825,-1.415
2021-08-19 22:32:59.700,-0.885,-1.395
2021-08-19 22:32:59.704,-0.88,-1.405
2021-08-19 22:32:59.708,-0.875,-1.4
2021-08-19 22:32:59.712,-0.92,-1.425
2021-08-19 22:32:59.716,-0.945,-1.42
2021-08-19 22:32:59.720,-0.845,-1.43
2021-08-19 22:32:59.724,-0.89,-1.43
2021-08-19 22:32:59.728,-0.945,-1.435
2021-08-19 22:32:59.732,-0.89,-1.445
2021-08-19 22:32:59.736,-0.865,-1.45
2021-08-19 22:32:59.740,-0.88,-1.45
2021-08-19 22:32:59.744,-0.9,-1.44
2021-08-19 22:32:59.748,-0.875,-1.435
2021-08-19 22:32:59.752,-0.77,-1.445
2021-08-19 22:32:59.756,-0.685,-1.425
2021-08-19 22:32:59.760,-0.635,-1.39
2021-08-19 22:32:59.764,-0.675,-1.375
2021-08-19 22:32:59.768,-0.7,-1.37
2021-08-19 22:32:59.772,-0.68,-1.36
2021-08-19 22:32:59.776,-0.63,-1.355
2021-08-19 22:32:59.780,-0.575,-1.32
2021-08-19 22:32:59.784,-0.555,-1.325
2021-08-19 22:32:59.788,-0.575,-1.305
2021-08-19 22:32:59.792,-0.59,-1.33
2021-08-19 22:32:59.796,-0.565,-1.32
2021-08-19 22:32:59.800,-0.56,-1.325
2021-08-19 22:32:59.804,-0.51,-1.335
2021-08-19 22:32:59.808,-0.52,-1.34
2021-08-19 22:32:59.812,-0.55,-1.37
2021-08-19 22:32:59.816,-0.525,-1.385
2021-08-19 22:32:59.820,-0.535,-1.385
2021-08-19 22:32:59.824,-0.615,-1.385
2021-08-19 22:32:59.828,-0.66,-1.375
2021-08-19 22:32:59.832,-0.69,-1.375
2021-08-19 22:32:59.836,-0.69,-1.375
2021-08-19 22:32:59.840,-0.67,-1.36
2021-08-19 22:32:59.844,-0.665,-1.375
2021-08-19 22:32:59.848,-0.655,-1.385
2021-08-19 22:32:59.852,-0.635,-1.35
2021-08-19 22:32:59.856,-0.615,-1.355
2021-08-19 22:32:59.860,-0.555,-1.375
2021-08-19 22:32:59.864,-0.535,-1.365
2021-08-19 22:32:59.868,-0.505,-1.385
2021-08-19 22:32:59.872,-0.435,-1.36
2021-08-19 22:32:59.876,-0.32,-1.4
2021-08-19 22:32:59.880,-0.245,-1.405
2021-08-19 22:32:59.884,-0.21,-1.455
2021-08-19 22:32:59.888,-0.1,-1.525
2021-08-19 22:32:59.892,-0.01,-1.525
2021-08-19 22:32:59.896,0.065,-1.595
2021-08-19 22:32:59.900,0.035,-1.64
2021-08-19 22:32:59.904,0.02,-1.735
2021-08-19 22:32:59.908,0.105,-1.85
2021-08-19 22:32:59.912,0.385,-1.975
2021-08-19 22:32:59.932,-0.36,-1.79
2021-08-19 22:32:59.936,-0.61,-1.61
2021-08-19 22:32:59.940,-0.715,-1.505
2021-08-19 22:32:59.944,-0.825,-1.39
2021-08-19 22:32:59.948,-0.88,-1.285
2021-08-19 22:32:59.952,-0.92,-1.22
2021-08-19 22:32:59.956,-0.94,-1.145
2021-08-19 22:32:59.960,-0.945,-1.135
2021-08-19 22:32:59.964,-1.015,-1.14
2021-08-19 22:32:59.968,-1.03,-1.12
2021-08-19 22:32:59.972,-1.02,-1.145
2021-08-19 22:32:59.976,-1.035,-1.115
2021-08-19 22:32:59.980,-1.08,-1.115
2021-08-19 22:32:59.984,-1.08,-1.115
2021-08-19 22:32:59.988,-1.05,-1.095
2021-08-19 22:32:59.992,-1.05,-1.055
2021-08-19 22:32:59.996,-1.085,-1.045
2021-08-19 22:33:00.000,-1.155,-1.045
2021-08-19 22:33:00.004,-1.135,-1.06
2021-08-19 22:33:00.008,-1.095,-1.04
2021-08-19 22:33:00.012,-0.99,-1.01
2021-08-19 22:33:00.016,-0.95,-0.99
2021-08-19 22:33:00.020,-0.935,-0.97
2021-08-19 22:33:00.024,-0.895,-0.99
2021-08-19 22:33:00.028,-0.885,-0.97
2021-08-19 22:33:00.032,-0.84,-0.94
2021-08-19 22:33:00.036,-0.85,-0.905
2021-08-19 22:33:00.040,-0.845,-0.9
2021-08-19 22:33:00.044,-0.875,-0.915
2021-08-19 22:33:00.048,-0.85,-0.91
2021-08-19 22:33:00.052,-0.805,-0.93
2021-08-19 22:33:00.056,-0.81,-0.96
2021-08-19 22:33:00.060,-0.845,-0.945
2021-08-19 22:33:00.064,-0.855,-0.98
2021-08-19 22:33:00.068,-0.87,-1.005
2021-08-19 22:33:00.072,-0.835,-1.05
2021-08-19 22:33:00.076,-0.865,-1.105
2021-08-19 22:33:00.080,-0.865,-1.145
2021-08-19 22:33:00.084,-0.88,-1.145
2021-08-19 22:33:00.088,-0.875,-1.19
2021-08-19 22:33:00.092,-0.875,-1.195
2021-08-19 22:33:00.096,-0.88,-1.215
2021-08-19 22:33:00.100,-0.855,-1.23
2021-08-19 22:33:00.104,-0.855,-1.23
2021-08-19 22:33:00.108,-0.875,-1.24
2021-08-19 22:33:00.112,-0.85,-1.25
2021-08-19 22:33:00.116,-0.84,-1.265
2021-08-19 22:33:00.120,-0.865,-1.285
2021-08-19 22:33:00.124,-0.85,-1.355
2021-08-19 22:33:00.128,-0.85,-1.375
2021-08-19 22:33:00.132,-0.83,-1.4
2021-08-19 22:33:00.136,-0.82,-1.42
2021-08-19 22:33:00.140,-0.815,-1.44
2021-08-19 22:33:00.144,-0.825,-1.485
2021-08-19 22:33:00.148,-0.855,-1.525
2021-08-19 22:33:00.152,-0.845,-1.525
2021-08-19 22:33:00.156,-0.815,-1.57
2021-08-19 22:33:00.160,-0.82,-1.58
2021-08-19 22:33:00.164,-0.785,-1.6
2021-08-19 22:33:00.168,-0.76,-1.605
2021-08-19 22:33:00.172,-0.755,-1.63
2021-08-19 22:33:00.176,-0.74,-1.64
2021-08-19 22:33:00.180,-0.77,-1.66
2021-08-19 22:33:00.184,-0.785,-1.705
2021-08-19 22:33:00.188,-0.74,-1.68
2021-08-19 22:33:00.192,-0.725,-1.685
2021-08-19 22:33:00.196,-0.78,-1.69
2021-08-19 22:33:00.200,-0.805,-1.705
2021-08-19 22:33:00.204,-0.815,-1.715
2021-08-19 22:33:00.208,-0.79,-1.715
2021-08-19 22:33:00.212,-0.785,-1.725
2021-08-19 22:33:00.216,-0.77,-1.715
2021-08-19 22:33:00.220,-0.79,-1.745
2021-08-19 22:33:00.224,-0.845,-1.745
2021-08-19 22:33:00.228,-0.87,-1.74
2021-08-19 22:33:00.232,-0.85,-1.72
2021-08-19 22:33:00.236,-0.855,-1.7
2021-08-19 22:33:00.240,-0.885,-1.7
2021-08-19 22:33:00.244,-0.925,-1.72
2021-08-19 22:33:00.248,-0.945,-1.73
2021-08-19 22:33:00.252,-0.93,-1.74
2021-08-19 22:33:00.256,-0.98,-1.735
2021-08-19 22:33:00.260,-0.995,-1.74
2021-08-19 22:33:00.264,-0.995,-1.75
2021-08-19 22:33:00.268,-0.995,-1.74
2021-08-19 22:33:00.272,-0.96,-1.725
2021-08-19 22:33:00.276,-0.93,-1.72
2021-08-19 22:33:00.280,-0.855,-1.7
2021-08-19 22:33:00.284,-0.84,-1.665
2021-08-19 22:33:00.288,-0.84,-1.665
2021-08-19 22:33:00.292,-0.78,-1.66
2021-08-19 22:33:00.296,-0.72,-1.62
2021-08-19 22:33:00.300,-0.685,-1.595
2021-08-19 22:33:00.304,-0.665,-1.545
2021-08-19 22:33:00.308,-0.67,-1.555
2021-08-19 22:33:00.312,-0.665,-1.555
2021-08-19 22:33:00.316,-0.615,-1.545
2021-08-19 22:33:00.320,-0.62,-1.535
2021-08-19 22:33:00.324,-0.605,-1.52
2021-08-19 22:33:00.328,-0.62,-1.51
2021-08-19 22:33:00.332,-0.6,-1.47
2021-08-19 22:33:00.336,-0.585,-1.485
2021-08-19 22:33:00.340,-0.625,-1.47
2021-08-19 22:33:00.344,-0.615,-1.48
2021-08-19 22:33:00.348,-0.59,-1.455
2021-08-19 22:33:00.352,-0.61,-1.445
2021-08-19 22:33:00.356,-0.63,-1.405
2021-08-19 22:33:00.360,-0.61,-1.375
2021-08-19 22:33:00.364,-0.635,-1.365
2021-08-19 22:33:00.368,-0.625,-1.365
2021-08-19 22:33:00.372,-0.62,-1.335
2021-08-19 22:33:00.376,-0.635,-1.31
2021-08-19 22:33:00.380,-0.63,-1.265
2021-08-19 22:33:00.384,-0.655,-1.26
2021-08-19 22:33:00.388,-0.665,-1.255
2021-08-19 22:33:00.392,-0.665,-1.24
2021-08-19 22:33:00.396,-0.655,-1.2
2021-08-19 22:33:00.400,-0.685,-1.165
2021-08-19 22:33:00.404,-0.66,-1.145
2021-08-19 22:33:00.408,-0.68,-1.145
2021-08-19 22:33:00.412,-0.64,-1.11
2021-08-19 22:33:00.416,-0.635,-1.11
2021-08-19 22:33:00.420,-0.605,-1.07
2021-08-19 22:33:00.424,-0.535,-1.07
2021-08-19 22:33:00.428,-0.435,-1.045
2021-08-19 22:33:00.432,-0.355,-1.06
2021-08-19 22:33:00.436,-0.28,-1.06
2021-08-19 22:33:00.440,-0.195,-1.08
2021-08-19 22:33:00.444,-0.135,-1.14
2021-08-19 22:33:00.448,-0.035,-1.135
2021-08-19 22:33:00.452,0.0,-1.13
2021-08-19 22:33:00.456,-0.045,-1.175
2021-08-19 22:33:00.460,-0.065,-1.26
2021-08-19 22:33:00.464,0.035,-1.395
2021-08-19 22:33:00.468,0.285,-1.57
2021-08-19 22:33:00.472,0.585,-1.72
2021-08-19 22:33:00.476,0.77,-1.83
2021-08-19 22:33:00.480,0.71,-1.905
2021-08-19 22:33:00.484,0.3,-1.77
2021-08-19 22:33:00.488,-0.23,-1.425
2021-08-19 22:33:00.492,-0.585,-1.125
2021-08-19 22:33:00.496,-0.77,-0.96
2021-08-19 22:33:00.500,-0.855,-0.84
2021-08-19 22:33:00.504,-0.94,-0.74
2021-08-19 22:33:00.508,-0.96,-0.625
2021-08-19 22:33:00.512,-0.955,-0.585
2021-08-19 22:33:00.516,-0.945,-0.56
2021-08-19 22:33:00.520,-1.015,-0.54
2021-08-19 22:33:00.524,-1.05,-0.52
2021-08-19 22:33:00.528,-1.05,-0.525
2021-08-19 22:33:00.532,-1.045,-0.555
2021-08-19 22:33:00.536,-1.065,-0.515
2021-08-19 22:33:00.540,-1.05,-0.515
2021-08-19 22:33:00.544,-1.06,-0.495
2021-08-19 22:33:00.548,-1.025,-0.485
2021-08-19 22:33:00.552,-0.965,-0.475
2021-08-19 22:33:00.556,-0.925,-0.485
2021-08-19 22:33:00.560,-0.91,-0.44
2021-08-19 22:33:00.564,-0.91,-0.44
2021-08-19 22:33:00.568,-0.905,-0.37
2021-08-19 22:33:00.572,-0.82,-0.34
2021-08-19 22:33:00.576,-0.78,-0.28
2021-08-19 22:33:00.580,-0.77,-0.27
2021-08-19 22:33:00.584,-0.815,-0.23
2021-08-19 22:33:00.588,-0.83,-0.215
2021-08-19 22:33:00.592,-0.8,-0.22
2021-08-19 22:33:00.596,-0.795,-0.185
2021-08-19 22:33:00.600,-0.82,-0.155
2021-08-19 22:33:00.604,-0.815,-0.145
2021-08-19 22:33:00.608,-0.78,-0.16
2021-08-19 22:33:00.612,-0.74,-0.155
2021-08-19 22:33:00.616,-0.785,-0.175
2021-08-19 22:33:00.620,-0.825,-0.18
2021-08-19 22:33:00.624,-0.84,-0.165
2021-08-19 22:33:00.628,-0.815,-0.16
2021-08-19 22:33:00.632,-0.77,-0.145
2021-08-19 22:33:00.636,-0.74,-0.14
2021-08-19 22:33:00.640,-0.76,-0.13
2021-08-19 22:33:00.644,-0.84,-0.13
2021-08-19 22:33:00.648,-0.805,-0.145
2021-08-19 22:33:00.652,-0.765,-0.145
2021-08-19 22:33:00.656,-0.745,-0.115
2021-08-19 22:33:00.660,-0.735,-0.145
2021-08-19 22:33:00.664,-0.72,-0.13
2021-08-19 22:33:00.668,-0.75,-0.155
2021-08-19 22:33:00.672,-0.75,-0.165
2021-08-19 22:33:00.676,-0.765,-0.18
2021-08-19 22:33:00.680,-0.725,-0.18
2021-08-19 22:33:00.684,-0.685,-0.165
2021-08-19 22:33:00.688,-0.64,-0.19
2021-08-19 22:33:00.692,-0.635,-0.23
2021-08-19 22:33:00.696,-0.595,-0.26
2021-08-19 22:33:00.700,-0.615,-0.285
2021-08-19 22:33:00.704,-0.6,-0.31
2021-08-19 22:33:00.708,-0.55,-0.36
2021-08-19 22:33:00.712,-0.605,-0.39
2021-08-19 22:33:00.716,-0.67,-0.415
2021-08-19 22:33:00.720,-0.695,-0.48
2021-08-19 22:33:00.724,-0.72,-0.51
2021-08-19 22:33:00.728,-0.725,-0.57
2021-08-19 22:33:00.732,-0.69,-0.59
2021-08-19 22:33:00.736,-0.615,-0.62
2021-08-19 22:33:00.740,-0.58,-0.655
2021-08-19 22:33:00.744,-0.61,-0.69
2021-08-19 22:33:00.748,-0.625,-0.7
2021-08-19 22:33:00.752,-0.62,-0.75
2021-08-19 22:33:00.756,-0.63,-0.775
2021-08-19 22:33:00.760,-0.635,-0.83
2021-08-19 22:33:00.764,-0.63,-0.855
2021-08-19 22:33:00.768,-0.59,-0.87
2021-08-19 22:33:00.772,-0.63,-0.905
2021-08-19 22:33:00.776,-0.68,-0.915
2021-08-19 22:33:00.780,-0.7,-0.95
2021-08-19 22:33:00.784,-0.69,-0.92
2021-08-19 22:33:00.788,-0.655,-0.94
2021-08-19 22:33:00.792,-0.705,-0.93
2021-08-19 22:33:00.796,-0.755,-0.95
2021-08-19 22:33:00.800,-0.775,-0.975
2021-08-19 22:33:00.804,-0.765,-0.985
2021-08-19 22:33:00.808,-0.76,-1.025
2021-08-19 22:33:00.812,-0.73,-1.02
2021-08-19 22:33:00.816,-0.71,-1.055
2021-08-19 22:33:00.820,-0.68,-1.1
2021-08-19 22:33:00.824,-0.67,-1.165
2021-08-19 22:33:00.828,-0.655,-1.19
2021-08-19 22:33:00.832,-0.595,-1.21
2021-08-19 22:33:00.836,-0.52,-1.265
2021-08-19 22:33:00.840,-0.475,-1.29
2021-08-19 22:33:00.844,-0.47,-1.33
2021-08-19 22:33:00.848,-0.46,-1.345
2021-08-19 22:33:00.852,-0.445,-1.335
2021-08-19 22:33:00.856,-0.46,-1.345
2021-08-19 22:33:00.860,-0.47,-1.385
2021-08-19 22:33:00.864,-0.465,-1.43
2021-08-19 22:33:00.868,-0.46,-1.455
2021-08-19 22:33:00.872,-0.455,-1.475
2021-08-19 22:33:00.876,-0.43,-1.47
2021-08-19 22:33:00.880,-0.42,-1.49
2021-08-19 22:33:00.884,-0.41,-1.53
2021-08-19 22:33:00.888,-0.39,-1.55
2021-08-19 22:33:00.892,-0.4,-1.565
2021-08-19 22:33:00.896,-0.38,-1.59
2021-08-19 22:33:00.900,-0.375,-1.63
2021-08-19 22:33:00.904,-0.335,-1.635
2021-08-19 22:33:00.908,-0.29,-1.65
2021-08-19 22:33:00.912,-0.235,-1.64
2021-08-19 22:33:00.916,-0.155,-1.675
2021-08-19 22:33:00.920,-0.075,-1.71
2021-08-19 22:33:00.924,0.0,-1.755
2021-08-19 22:33:00.928,0.025,-1.83
2021-08-19 22:33:00.932,0.065,-1.835
2021-08-19 22:33:00.936,0.12,-1.87
2021-08-19 22:33:00.940,0.135,-1.92
2021-08-19 22:33:00.984,-0.475,-2.0
2021-08-19 22:33:00.988,-0.525,-1.95
2021-08-19 22:33:00.992,-0.545,-1.92
2021-08-19 22:33:00.996,-0.56,-1.895
2021-08-19 22:33:01.000,-0.63,-1.89
2021-08-19 22:33:01.004,-0.61,-1.91
2021-08-19 22:33:01.008,-0.625,-1.925
2021-08-19 22:33:01.012,-0.64,-1.92
2021-08-19 22:33:01.016,-0.64,-1.955
2021-08-19 22:33:01.020,-0.625,-1.985
2021-08-19 22:33:01.024,-0.655,-1.985
2021-08-19 22:33:01.028,-0.67,-1.975
2021-08-19 22:33:01.780,-0.405,-1.995
2021-08-19 22:33:01.832,-0.29,-2.0
2021-08-19 22:33:01.860,-0.34,-1.995
2021-08-19 22:33:01.864,-0.31,-1.99
2021-08-19 22:33:01.868,-0.29,-1.985
2021-08-19 22:33:01.872,-0.325,-1.955
2021-08-19 22:33:01.876,-0.335,-1.95
2021-08-19 22:33:01.880,-0.34,-1.96
2021-08-19 22:33:01.884,-0.385,-1.995
2021-08-19 22:33:01.888,-0.425,-1.99
2021-08-19 22:33:01.892,-0.43,-1.975
2021-08-19 22:33:01.896,-0.4,-1.965
2021-08-19 22:33:01.900,-0.405,-1.955
2021-08-19 22:33:01.904,-0.47,-1.955
2021-08-19 22:33:01.908,-0.495,-1.945
2021-08-19 22:33:01.912,-0.49,-1.945
2021-08-19 22:33:01.916,-0.48,-1.945
2021-08-19 22:33:01.920,-0.465,-1.92
2021-08-19 22:33:01.924,-0.435,-1.92
2021-08-19 22:33:01.928,-0.44,-1.915
2021-08-19 22:33:01.932,-0.395,-1.915
2021-08-19 22:33:01.936,-0.39,-1.91
2021-08-19 22:33:01.940,-0.38,-1.875
2021-08-19 22:33:01.944,-0.36,-1.88
2021-08-19 22:33:01.948,-0.3,-1.86
2021-08-19 22:33:01.952,-0.235,-1.825
2021-08-19 22:33:01.956,-0.17,-1.815
2021-08-19 22:33:01.960,-0.09,-1.815
2021-08-19 22:33:01.964,-0.075,-1.81
2021-08-19 22:33:01.968,-0.075,-1.81
2021-08-19 22:33:01.972,-0.125,-1.81
2021-08-19 22:33:01.976,-0.19,-1.785
2021-08-19 22:33:01.980,-0.225,-1.78
2021-08-19 22:33:01.984,-0.215,-1.79
2021-08-19 22:33:01.988,-0.19,-1.77
2021-08-19 22:33:01.992,-0.125,-1.74
2021-08-19 22:33:01.996,-0.12,-1.785
2021-08-19 22:33:02.000,-0.16,-1.775
2021-08-19 22:33:02.004,-0.205,-1.78
2021-08-19 22:33:02.008,-0.185,-1.765
2021-08-19 22:33:02.012,-0.16,-1.75
2021-08-19 22:33:02.016,-0.155,-1.755
2021-08-19 22:33:02.020,-0.155,-1.73
2021-08-19 22:33:02.024,-0.155,-1.75
2021-08-19 22:33:02.028,-0.11,-1.765
2021-08-19 22:33:02.032,-0.03,-1.765
2021-08-19 22:33:02.036,0.025,-1.745
2021-08-19 22:33:02.040,0.11,-1.75
2021-08-19 22:33:02.044,0.2,-1.77
2021-08-19 22:33:02.048,0.265,-1.84
2021-08-19 22:33:02.052,0.335,-1.865
2021-08-19 22:33:02.056,0.415,-1.875
2021-08-19 22:33:02.060,0.435,-1.91
2021-08-19 22:33:02.064,0.39,-1.955
2021-08-19 22:33:02.068,0.485,-2.0
2021-08-19 22:33:02.096,-0.125,-1.9
2021-08-19 22:33:02.100,-0.22,-1.8
2021-08-19 22:33:02.104,-0.295,-1.71
2021-08-19 22:33:02.108,-0.34,-1.635
2021-08-19 22:33:02.112,-0.345,-1.575
2021-08-19 22:33:02.116,-0.385,-1.525
2021-08-19 22:33:02.120,-0.41,-1.5
2021-08-19 22:33:02.124,-0.44,-1.51
2021-08-19 22:33:02.128,-0.465,-1.52
2021-08-19 22:33:02.132,-0.45,-1.525
2021-08-19 22:33:02.136,-0.465,-1.51
2021-08-19 22:33:02.140,-0.5,-1.505
2021-08-19 22:33:02.144,-0.5,-1.49
2021-08-19 22:33:02.148,-0.51,-1.485
2021-08-19 22:33:02.152,-0.475,-1.465
2021-08-19 22:33:02.156,-0.495,-1.455
2021-08-19 22:33:02.160,-0.54,-1.48
2021-08-19 22:33:02.164,-0.605,-1.475
2021-08-19 22:33:02.168,-0.64,-1.455
2021-08-19 22:33:02.172,-0.65,-1.435
2021-08-19 22:33:02.176,-0.645,-1.44
2021-08-19 22:33:02.180,-0.655,-1.44
2021-08-19 22:33:02.184,-0.665,-1.42
2021-08-19 22:33:02.188,-0.68,-1.43
2021-08-19 22:33:02.192,-0.68,-1.435
2021-08-19 22:33:02.196,-0.675,-1.44
2021-08-19 22:33:02.200,-0.655,-1.435
2021-08-19 22:33:02.204,-0.65,-1.425
2021-08-19 22:33:02.208,-0.69,-1.425
2021-08-19 22:33:02.212,-0.67,-1.415
2021-08-19 22:33:02.216,-0.64,-1.385
2021-08-19 22:33:02.220,-0.555,-1.345
2021-08-19 22:33:02.224,-0.515,-1.335
2021-08-19 22:33:02.228,-0.465,-1.335
2021-08-19 22:33:02.232,-0.425,-1.335
2021-08-19 22:33:02.236,-0.425,-1.325
2021-08-19 22:33:02.240,-0.425,-1.315
2021-08-19 22:33:02.244,-0.39,-1.315
2021-08-19 22:33:02.248,-0.42,-1.28
2021-08-19 22:33:02.252,-0.45,-1.28
2021-08-19 22:33:02.256,-0.455,-1.265
2021-08-19 22:33:02.260,-0.42,-1.255
2021-08-19 22:33:02.264,-0.385,-1.245
2021-08-19 22:33:02.268,-0.41,-1.255
2021-08-19 22:33:02.272,-0.41,-1.25
2021-08-19 22:33:02.276,-0.405,-1.265
2021-08-19 22:33:02.280,-0.385,-1.25
2021-08-19 22:33:02.284,-0.385,-1.25
2021-08-19 22:33:02.288,-0.365,-1.25
2021-08-19 22:33:02.292,-0.33,-1.27
2021-08-19 22:33:02.296,-0.31,-1.27
2021-08-19 22:33:02.300,-0.295,-1.28
2021-08-19 22:33:02.304,-0.305,-1.275
2021-08-19 22:33:02.308,-0.305,-1.285
2021-08-19 22:33:02.312,-0.3,-1.255
2021-08-19 22:33:02.316,-0.29,-1.26
2021-08-19 22:33:02.320,-0.25,-1.25
2021-08-19 22:33:02.324,-0.22,-1.275
2021-08-19 22:33:02.328,-0.255,-1.26
2021-08-19 22:33:02.332,-0.255,-1.25
2021-08-19 22:33:02.336,-0.23,-1.23
2021-08-19 22:33:02.340,-0.23,-1.22
2021-08-19 22:33:02.344,-0.25,-1.24
2021-08-19 22:33:02.348,-0.23,-1.245
2021-08-19 22:33:02.352,-0.24,-1.23
2021-08-19 22:33:02.356,-0.235,-1.21
2021-08-19 22:33:02.360,-0.24,-1.21
2021-08-19 22:33:02.364,-0.23,-1.205
2021-08-19 22:33:02.368,-0.24,-1.205
2021-08-19 22:33:02.372,-0.245,-1.17
2021-08-19 22:33:02.376,-0.28,-1.155
2021-08-19 22:33:02.380,-0.29,-1.16
2021-08-19 22:33:02.384,-0.26,-1.16
2021-08-19 22:33:02.388,-0.245,-1.155
2021-08-19 22:33:02.392,-0.245,-1.13
2021-08-19 22:33:02.396,-0.24,-1.11
2021-08-19 22:33:02.400,-0.24,-1.1
2021-08-19 22:33:02.404,-0.2,-1.085
2021-08-19 22:33:02.408,-0.225,-1.09
2021-08-19 22:33:02.412,-0.205,-1.07
2021-08-19 22:33:02.416,-0.2,-1.05
2021-08-19 22:33:02.420,-0.18,-1.05
2021-08-19 22:33:02.424,-0.195,-1.02
2021-08-19 22:33:02.428,-0.225,-1.03
2021-08-19 22:33:02.432,-0.235,-0.975
2021-08-19 22:33:02.436,-0.24,-0.98
2021-08-19 22:33:02.440,-0.275,-0.97
2021-08-19 22:33:02.444,-0.3,-0.96
2021-08-19 22:33:02.448,-0.315,-0.97
2021-08-19 22:33:02.452,-0.315,-0.95
2021-08-19 22:33:02.456,-0.32,-0.945
2021-08-19 22:33:02.460,-0.345,-0.935
2021-08-19 22:33:02.464,-0.32,-0.925
2021-08-19 22:33:02.468,-0.325,-0.92
2021-08-19 22:33:02.472,-0.335,-0.91
2021-08-19 22:33:02.476,-0.355,-0.93
2021-08-19 22:33:02.480,-0.33,-0.925
2021-08-19 22:33:02.484,-0.31,-0.915
2021-08-19 22:33:02.488,-0.275,-0.895
2021-08-19 22:33:02.492,-0.25,-0.89
2021-08-19 22:33:02.496,-0.2,-0.87
2021-08-19 22:33:02.500,-0.15,-0.86
2021-08-19 22:33:02.504,-0.09,-0.81
2021-08-19 22:33:02.508,-0.015,-0.8
2021-08-19 22:33:02.512,0.02,-0.785
2021-08-19 22:33:02.516,0.03,-0.755
2021-08-19 22:33:02.520,0.045,-0.765
2021-08-19 22:33:02.524,0.055,-0.775
2021-08-19 22:33:02.528,0.045,-0.755
2021-08-19 22:33:02.532,0.06,-0.755
2021-08-19 22:33:02.536,0.08,-0.72
2021-08-19 22:33:02.540,0.075,-0.715
2021-08-19 22:33:02.544,0.075,-0.72
2021-08-19 22:33:02.548,0.07,-0.73
2021-08-19 22:33:02.552,0.085,-0.72
2021-08-19 22:33:02.556,0.08,-0.7
2021-08-19 22:33:02.560,0.075,-0.69
2021-08-19 22:33:02.564,0.075,-0.67
2021-08-19 22:33:02.568,0.075,-0.685
2021-08-19 22:33:02.572,0.1,-0.69
2021-08-19 22:33:02.576,0.09,-0.71
2021-08-19 22:33:02.580,0.12,-0.68
2021-08-19 22:33:02.584,0.145,-0.675
2021-08-19 22:33:02.588,0.21,-0.665
2021-08-19 22:33:02.592,0.285,-0.67
2021-08-19 22:33:02.596,0.365,-0.67
2021-08-19 22:33:02.600,0.44,-0.69
2021-08-19 22:33:02.604,0.52,-0.695
2021-08-19 22:33:02.608,0.575,-0.775
2021-08-19 22:33:02.612,0.62,-0.825
2021-08-19 22:33:02.616,0.66,-0.85
2021-08-19 22:33:02.620,0.7,-0.9
2021-08-19 22:33:02.624,0.665,-0.98
2021-08-19 22:33:02.628,0.705,-1.095
2021-08-19 22:33:02.632,0.895,-1.265
2021-08-19 22:33:02.636,1.18,-1.445
2021-08-19 22:33:02.640,1.455,-1.64
2021-08-19 22:33:02.644,1.55,-1.745
2021-08-19 22:33:02.648,1.38,-1.72
2021-08-19 22:33:02.652,0.93,-1.48
2021-08-19 22:33:02.656,0.48,-1.09
2021-08-19 22:33:02.660,0.225,-0.835
2021-08-19 22:33:02.664,0.145,-0.69
2021-08-19 22:33:02.668,0.13,-0.59
2021-08-19 22:33:02.672,0.1,-0.505
2021-08-19 22:33:02.676,0.065,-0.44
2021-08-19 22:33:02.680,0.06,-0.395
2021-08-19 22:33:02.684,0.055,-0.38
2021-08-19 22:33:02.688,0.035,-0.375
2021-08-19 22:33:02.692,0.04,-0.37
2021-08-19 22:33:02.696,0.035,-0.355
2021-08-19 22:33:02.700,0.01,-0.35
2021-08-19 22:33:02.704,0.0,-0.365
2021-08-19 22:33:02.708,0.0,-0.385
2021-08-19 22:33:02.712,0.035,-0.38
2021-08-19 22:33:02.716,0.025,-0.35
2021-08-19 22:33:02.720,-0.04,-0.34
2021-08-19 22:33:02.724,-0.07,-0.31
2021-08-19 22:33:02.728,-0.09,-0.32
2021-08-19 22:33:02.732,-0.115,-0.33
2021-08-19 22:33:02.736,-0.13,-0.32
2021-08-19 22:33:02.740,-0.135,-0.315
2021-08-19 22:33:02.744,-0.16,-0.3
2021-08-19 22:33:02.748,-0.185,-0.28
2021-08-19 22:33:02.752,-0.14,-0.275
2021-08-19 22:33:02.756,-0.1,-0.295
2021-08-19 22:33:02.760,-0.08,-0.295
2021-08-19 22:33:02.764,-0.08,-0.285
2021-08-19 22:33:02.768,-0.1,-0.275
2021-08-19 22:33:02.772,-0.04,-0.26
2021-08-19 22:33:02.776,-0.01,-0.245
2021-08-19 22:33:02.780,0.02,-0.245
2021-08-19 22:33:02.784,0.05,-0.2
2021-08-19 22:33:02.788,0.09,-0.18
2021-08-19 22:33:02.792,0.145,-0.17
2021-08-19 22:33:02.796,0.2,-0.145
2021-08-19 22:33:02.800,0.215,-0.15
2021-08-19 22:33:02.804,0.225,-0.13
2021-08-19 22:33:02.808,0.23,-0.135
2021-08-19 22:33:02.812,0.23,-0.13
2021-08-19 22:33:02.816,0.24,-0.11
2021-08-19 22:33:02.820,0.265,-0.11
2021-08-19 22:33:02.824,0.28,-0.1
2021-08-19 22:33:02.828,0.295,-0.115
2021-08-19 22:33:02.832,0.305,-0.105
2021-08-19 22:33:02.836,0.28,-0.11
2021-08-19 22:33:02.840,0.285,-0.115
2021-08-19 22:33:02.844,0.325,-0.125
2021-08-19 22:33:02.848,0.36,-0.13
2021-08-19 22:33:02.852,0.385,-0.135
2021-08-19 22:33:02.856,0.44,-0.1
2021-08-19 22:33:02.860,0.43,-0.165
2021-08-19 22:33:02.864,0.42,-0.15
2021-08-19 22:33:02.868,0.41,-0.15
2021-08-19 22:33:02.872,0.465,-0.165
2021-08-19 22:33:02.876,0.525,-0.155
2021-08-19 22:33:02.880,0.565,-0.155
2021-08-19 22:33:02.884,0.545,-0.16
2021-08-19 22:33:02.888,0.565,-0.15
2021-08-19 22:33:02.892,0.625,-0.155
2021-08-19 22:33:02.896,0.635,-0.145
2021-08-19 22:33:02.900,0.625,-0.15
2021-08-19 22:33:02.904,0.62,-0.145
2021-08-19 22:33:02.908,0.65,-0.16
2021-08-19 22:33:02.912,0.665,-0.12
2021-08-19 22:33:02.916,0.74,-0.115
2021-08-19 22:33:02.920,0.79,-0.125
2021-08-19 22:33:02.924,0.785,-0.115
2021-08-19 22:33:02.928,0.785,-0.09
2021-08-19 22:33:02.932,0.76,-0.105
2021-08-19 22:33:02.936,0.77,-0.09
2021-08-19 22:33:02.940,0.83,-0.09
2021-08-19 22:33:02.944,0.925,-0.075
2021-08-19 22:33:02.948,0.98,-0.08
2021-08-19 22:33:02.952,1.03,-0.08
2021-08-19 22:33:02.956,1.01,-0.05
2021-08-19 22:33:02.960,1.015,-0.035
2021-08-19 22:33:02.964,1.04,-0.035
2021-08-19 22:33:02.968,1.075,-0.025
2021-08-19 22:33:02.972,1.065,-0.03
2021-08-19 22:33:02.976,1.05,-0.01
2021-08-19 22:33:02.980,1.06,0.005
2021-08-19 22:33:02.984,1.14,-0.005
2021-08-19 22:33:02.988,1.16,-0.01
2021-08-19 22:33:02.992,1.055,0.01
2021-08-19 22:33:02.996,0.97,0.005
2021-08-19 22:33:03.000,1.04,0.0
2021-08-19 22:33:03.004,1.055,0.02
2021-08-19 22:33:03.008,1.08,0.045
2021-08-19 22:33:03.012,1.08,0.035
2021-08-19 22:33:03.016,1.1,0.03
2021-08-19 22:33:03.020,1.22,0.04
2021-08-19 22:33:03.024,1.255,0.03
2021-08-19 22:33:03.028,1.245,0.035
2021-08-19 22:33:03.032,1.275,0.045
2021-08-19 22:33:03.036,1.355,0.05
2021-08-19 22:33:03.040,1.425,0.045
2021-08-19 22:33:03.044,1.5,0.06
2021-08-19 22:33:03.048,1.585,0.04
2021-08-19 22:33:03.052,1.65,0.07
2021-08-19 22:33:03.056,1.67,0.095
2021-08-19 22:33:03.060,1.74,0.095
2021-08-19 22:33:03.064,1.865,0.12
2021-08-19 22:33:03.068,1.975,0.135
2021-08-19 22:33:03.424,2.0,0.675
2021-08-19 22:33:03.456,2.0,0.72
2021-08-19 22:33:03.488,1.985,0.74
2021-08-19 22:33:03.492,1.875,0.775
2021-08-19 22:33:03.496,1.795,0.785
2021-08-19 22:33:03.500,1.78,0.785
2021-08-19 22:33:03.504,1.81,0.785
2021-08-19 22:33:03.508,1.905,0.765
2021-08-19 22:33:03.740,1.915,1.09
2021-08-19 22:33:03.744,1.825,1.175
2021-08-19 22:33:03.748,1.77,1.21
2021-08-19 22:33:03.752,1.715,1.215
2021-08-19 22:33:03.756,1.69,1.25
2021-08-19 22:33:03.760,1.655,1.245
2021-08-19 22:33:03.764,1.62,1.245
2021-08-19 22:33:03.768,1.57,1.24
2021-08-19 22:33:03.772,1.54,1.245
2021-08-19 22:33:03.776,1.515,1.265
2021-08-19 22:33:03.780,1.51,1.265
2021-08-19 22:33:03.784,1.49,1.255
2021-08-19 22:33:03.788,1.44,1.255
2021-08-19 22:33:03.792,1.435,1.27
2021-08-19 22:33:03.796,1.41,1.3
2021-08-19 22:33:03.800,1.375,1.315
2021-08-19 22:33:03.804,1.35,1.32
2021-08-19 22:33:03.808,1.315,1.33
2021-08-19 22:33:03.812,1.305,1.355
2021-08-19 22:33:03.816,1.29,1.36
2021-08-19 22:33:03.820,1.245,1.37
2021-08-19 22:33:03.824,1.19,1.34
2021-08-19 22:33:03.828,1.175,1.37
2021-08-19 22:33:03.832,1.15,1.39
2021-08-19 22:33:03.836,1.13,1.39
2021-08-19 22:33:03.840,1.1,1.395
2021-08-19 22:33:03.844,1.06,1.42
2021-08-19 22:33:03.848,1.05,1.42
2021-08-19 22:33:03.852,1.03,1.425
2021-08-19 22:33:03.856,0.99,1.44
2021-08-19 22:33:03.860,0.99,1.455
2021-08-19 22:33:03.864,0.99,1.465
2021-08-19 22:33:03.868,1.005,1.465
2021-08-19 22:33:03.872,1.02,1.47
2021-08-19 22:33:03.876,1.055,1.47
2021-08-19 22:33:03.880,1.055,1.48
2021-08-19 22:33:03.884,1.065,1.495
2021-08-19 22:33:03.888,1.095,1.515
2021-08-19 22:33:03.892,1.11,1.505
2021-08-19 22:33:03.896,1.125,1.545
2021-08-19 22:33:03.900,1.13,1.55
2021-08-19 22:33:03.904,1.105,1.56
2021-08-19 22:33:03.908,1.095,1.575
2021-08-19 22:33:03.912,1.085,1.55
2021-08-19 22:33:03.916,1.11,1.545
2021-08-19 22:33:03.920,1.085,1.535
2021-08-19 22:33:03.924,1.06,1.525
2021-08-19 22:33:03.928,1.025,1.54
2021-08-19 22:33:03.932,0.99,1.535
2021-08-19 22:33:03.936,0.97,1.525
2021-08-19 22:33:03.940,0.955,1.515
2021-08-19 22:33:03.944,0.975,1.51
2021-08-19 22:33:03.948,0.95,1.495
2021-08-19 22:33:03.952,0.905,1.5
2021-08-19 22:33:03.956,0.89,1.505
2021-08-19 22:33:03.960,0.86,1.475
2021-08-19 22:33:03.964,0.82,1.505
2021-08-19 22:33:03.968,0.82,1.515
2021-08-19 22:33:03.972,0.775,1.505
2021-08-19 22:33:03.976,0.765,1.52
2021-08-19 22:33:03.980,0.715,1.54
2021-08-19 22:33:03.984,0.705,1.515
2021-08-19 22:33:03.988,0.69,1.5
2021-08-19 22:33:03.992,0.66,1.515
2021-08-19 22:33:03.996,0.64,1.525
2021-08-19 22:33:04.000,0.63,1.525
2021-08-19 22:33:04.004,0.575,1.54
2021-08-19 22:33:04.008,0.56,1.56
2021-08-19 22:33:04.012,0.535,1.56
2021-08-19 22:33:04.016,0.5,1.585
2021-08-19 22:33:04.020,0.47,1.59
2021-08-19 22:33:04.024,0.415,1.62
2021-08-19 22:33:04.028,0.41,1.625
2021-08-19 22:33:04.032,0.37,1.625
2021-08-19 22:33:04.036,0.35,1.64
2021-08-19 22:33:04.040,0.29,1.66
2021-08-19 22:33:04.044,0.25,1.675
2021-08-19 22:33:04.048,0.185,1.66
2021-08-19 22:33:04.052,0.15,1.675
2021-08-19 22:33:04.056,0.085,1.695
2021-08-19 22:33:04.060,0.005,1.7
2021-08-19 22:33:04.064,-0.07,1.705
2021-08-19 22:33:04.068,-0.1,1.705
2021-08-19 22:33:04.072,-0.16,1.735
2021-08-19 22:33:04.076,-0.235,1.72
2021-08-19 22:33:04.080,-0.27,1.71
2021-08-19 22:33:04.084,-0.325,1.695
2021-08-19 22:33:04.088,-0.35,1.715
2021-08-19 22:33:04.092,-0.4,1.745
2021-08-19 22:33:04.096,-0.455,1.75
2021-08-19 22:33:04.100,-0.51,1.735
2021-08-19 22:33:04.104,-0.525,1.725
2021-08-19 22:33:04.108,-0.54,1.735
2021-08-19 22:33:04.112,-0.575,1.76
2021-08-19 22:33:04.116,-0.6,1.76
2021-08-19 22:33:04.120,-0.645,1.75
2021-08-19 22:33:04.124,-0.67,1.765
2021-08-19 22:33:04.128,-0.7,1.795
2021-08-19 22:33:04.132,-0.705,1.79
2021-08-19 22:33:04.136,-0.7,1.795
2021-08-19 22:33:04.140,-0.695,1.78
2021-08-19 22:33:04.144,-0.65,1.765
2021-08-19 22:33:04.148,-0.625,1.79
2021-08-19 22:33:04.152,-0.62,1.815
2021-08-19 22:33:04.156,-0.595,1.845
2021-08-19 22:33:04.160,-0.605,1.86
2021-08-19 22:33:04.164,-0.655,1.87
2021-08-19 22:33:04.168,-0.665,1.87
2021-08-19 22:33:04.172,-0.7,1.895
2021-08-19 22:33:04.176,-0.73,1.88
2021-08-19 22:33:04.180,-0.74,1.89
2021-08-19 22:33:04.184,-0.73,1.91
2021-08-19 22:33:04.188,-0.725,1.87
2021-08-19 22:33:04.192,-0.715,1.86
2021-08-19 22:33:04.196,-0.755,1.845
2021-08-19 22:33:04.200,-0.775,1.84
2021-08-19 22:33:04.204,-0.815,1.8
2021-08-19 22:33:04.208,-0.825,1.79
2021-08-19 22:33:04.212,-0.855,1.775
2021-08-19 22:33:04.216,-0.87,1.765
2021-08-19 22:33:04.220,-0.875,1.755
2021-08-19 22:33:04.224,-0.88,1.765
2021-08-19 22:33:04.228,-0.92,1.76
2021-08-19 22:33:04.232,-0.905,1.75
2021-08-19 22:33:04.236,-0.895,1.74
2021-08-19 22:33:04.240,-0.885,1.76
2021-08-19 22:33:04.244,-0.825,1.745
2021-08-19 22:33:04.248,-0.75,1.735
2021-08-19 22:33:04.252,-0.67,1.705
2021-08-19 22:33:04.256,-0.595,1.665
2021-08-19 22:33:04.260,-0.56,1.6
2021-08-19 22:33:04.264,-0.5,1.56
2021-08-19 22:33:04.268,-0.45,1.555
2021-08-19 22:33:04.272,-0.46,1.49
2021-08-19 22:33:04.276,-0.505,1.415
2021-08-19 22:33:04.280,-0.465,1.3
2021-08-19 22:33:04.284,-0.285,1.115
2021-08-19 22:33:04.288,0.0,0.93
2021-08-19 22:33:04.292,0.225,0.745
2021-08-19 22:33:04.296,0.185,0.63
2021-08-19 22:33:04.300,-0.125,0.735
2021-08-19 22:33:04.304,-0.595,1.075
2021-08-19 22:33:04.308,-0.955,1.4
2021-08-19 22:33:04.312,-1.155,1.56
2021-08-19 22:33:04.316,-1.265,1.655
2021-08-19 22:33:04.320,-1.265,1.77
2021-08-19 22:33:04.324,-1.285,1.83
2021-08-19 22:33:04.328,-1.365,1.9
2021-08-19 22:33:04.332,-1.465,1.88
2021-08-19 22:33:04.336,-1.52,1.88
2021-08-19 22:33:04.340,-1.49,1.865
2021-08-19 22:33:04.344,-1.505,1.88
2021-08-19 22:33:04.348,-1.475,1.85
2021-08-19 22:33:04.352,-1.485,1.855
2021-08-19 22:33:04.356,-1.525,1.87
2021-08-19 22:33:04.360,-1.545,1.85
2021-08-19 22:33:04.364,-1.61,1.825
2021-08-19 22:33:04.368,-1.605,1.83
2021-08-19 22:33:04.372,-1.58,1.825
2021-08-19 22:33:04.376,-1.565,1.82
2021-08-19 22:33:04.380,-1.585,1.835
2021-08-19 22:33:04.384,-1.59,1.855
2021-08-19 22:33:04.388,-1.605,1.835
2021-08-19 22:33:04.392,-1.585,1.84
2021-08-19 22:33:04.396,-1.585,1.865
2021-08-19 22:33:04.400,-1.555,1.885
2021-08-19 22:33:04.404,-1.525,1.88
2021-08-19 22:33:04.408,-1.495,1.87
2021-08-19 22:33:04.412,-1.44,1.855
2021-08-19 22:33:04.416,-1.415,1.885
2021-08-19 22:33:04.420,-1.405,1.885
2021-08-19 22:33:04.424,-1.395,1.89
2021-08-19 22:33:04.428,-1.39,1.93
2021-08-19 22:33:04.432,-1.415,1.95
2021-08-19 22:33:04.436,-1.395,1.945
2021-08-19 22:33:04.440,-1.395,1.935
2021-08-19 22:33:04.444,-1.42,1.94
2021-08-19 22:33:04.448,-1.435,1.95
2021-08-19 22:33:04.452,-1.405,1.92
2021-08-19 22:33:04.456,-1.38,1.94
2021-08-19 22:33:04.460,-1.335,1.915
2021-08-19 22:33:04.464,-1.3,1.895
2021-08-19 22:33:04.468,-1.315,1.88
2021-08-19 22:33:04.472,-1.35,1.865
2021-08-19 22:33:04.476,-1.355,1.845
2021-08-19 22:33:04.480,-1.36,1.835
2021-08-19 22:33:04.484,-1.335,1.825
2021-08-19 22:33:04.488,-1.34,1.805
2021-08-19 22:33:04.492,-1.355,1.78
2021-08-19 22:33:04.496,-1.355,1.805
2021-08-19 22:33:04.500,-1.32,1.79
2021-08-19 22:33:04.504,-1.315,1.785
2021-08-19 22:33:04.508,-1.32,1.785
2021-08-19 22:33:04.512,-1.315,1.785
2021-08-19 22:33:04.516,-1.315,1.775
2021-08-19 22:33:04.520,-1.32,1.755
2021-08-19 22:33:04.524,-1.335,1.73
2021-08-19 22:33:04.528,-1.335,1.725
2021-08-19 22:33:04.532,-1.33,1.715
2021-08-19 22:33:04.536,-1.335,1.725
2021-08-19 22:33:04.540,-1.335,1.725
2021-08-19 22:33:04.544,-1.34,1.7
2021-08-19 22:33:04.548,-1.355,1.695
2021-08-19 22:33:04.552,-1.335,1.71
2021-08-19 22:33:04.556,-1.32,1.68
2021-08-19 22:33:04.560,-1.315,1.68
2021-08-19 22:33:04.564,-1.32,1.68
2021-08-19 22:33:04.568,-1.34,1.665
2021-08-19 22:33:04.572,-1.31,1.71
2021-08-19 22:33:04.576,-1.33,1.695
2021-08-19 22:33:04.580,-1.33,1.68
2021-08-19 22:33:04.584,-1.305,1.705
2021-08-19 22:33:04.588,-1.315,1.7
2021-08-19 22:33:04.592,-1.325,1.71
2021-08-19 22:33:04.596,-1.355,1.7
2021-08-19 22:33:04.600,-1.36,1.715
2021-08-19 22:33:04.604,-1.39,1.73
2021-08-19 22:33:04.608,-1.4,1.715
2021-08-19 22:33:04.612,-1.425,1.735
2021-08-19 22:33:04.616,-1.44,1.745
2021-08-19 22:33:04.620,-1.44,1.725
2021-08-19 22:33:04.624,-1.465,1.73
2021-08-19 22:33:04.628,-1.485,1.72
2021-08-19 22:33:04.632,-1.505,1.735
2021-08-19 22:33:04.636,-1.535,1.735
2021-08-19 22:33:04.640,-1.575,1.75
2021-08-19 22:33:04.644,-1.57,1.745
2021-08-19 22:33:04.648,-1.56,1.74
2021-08-19 22:33:04.652,-1.555,1.77
2021-08-19 22:33:04.656,-1.575,1.76
2021-08-19 22:33:04.660,-1.565,1.74
2021-08-19 22:33:04.664,-1.555,1.74
2021-08-19 22:33:04.668,-1.52,1.72
2021-08-19 22:33:04.672,-1.48,1.77
2021-08-19 22:33:04.676,-1.45,1.765
2021-08-19 22:33:04.680,-1.41,1.785
2021-08-19 22:33:04.684,-1.355,1.805
2021-08-19 22:33:04.688,-1.31,1.835
2021-08-19 22:33:04.692,-1.285,1.84
2021-08-19 22:33:04.696,-1.245,1.835
2021-08-19 22:33:04.700,-1.24,1.85
2021-08-19 22:33:04.704,-1.255,1.88
2021-08-19 22:33:04.708,-1.23,1.895
2021-08-19 22:33:04.712,-1.215,1.9
2021-08-19 22:33:04.716,-1.195,1.91
2021-08-19 22:33:04.720,-1.18,1.895
2021-08-19 22:33:04.724,-1.16,1.905
2021-08-19 22:33:04.728,-1.16,1.885
2021-08-19 22:33:04.732,-1.165,1.86
2021-08-19 22:33:04.736,-1.18,1.855
2021-08-19 22:33:04.740,-1.21,1.84
2021-08-19 22:33:04.744,-1.21,1.825
2021-08-19 22:33:04.748,-1.22,1.82
2021-08-19 22:33:04.752,-1.235,1.81
2021-08-19 22:33:04.756,-1.24,1.83
2021-08-19 22:33:04.760,-1.235,1.795
2021-08-19 22:33:04.764,-1.23,1.825
2021-08-19 22:33:04.768,-1.225,1.81
2021-08-19 22:33:04.772,-1.2,1.8
2021-08-19 22:33:04.776,-1.155,1.785
2021-08-19 22:33:04.780,-1.08,1.8
2021-08-19 22:33:04.784,-1.015,1.775
2021-08-19 22:33:04.788,-0.93,1.735
2021-08-19 22:33:04.792,-0.875,1.705
2021-08-19 22:33:04.796,-0.82,1.64
2021-08-19 22:33:04.800,-0.775,1.57
2021-08-19 22:33:04.804,-0.725,1.545
2021-08-19 22:33:04.808,-0.7,1.495
2021-08-19 22:33:04.812,-0.71,1.395
2021-08-19 22:33:04.816,-0.67,1.255
2021-08-19 22:33:04.820,-0.485,1.06
2021-08-19 22:33:04.824,-0.18,0.86
2021-08-19 22:33:04.828,0.07,0.68
2021-08-19 22:33:04.832,0.105,0.56
2021-08-19 22:33:04.836,-0.14,0.6
2021-08-19 22:33:04.840,-0.62,0.915
2021-08-19 22:33:04.844,-1.025,1.295
2021-08-19 22:33:04.848,-1.285,1.505
2021-08-19 22:33:04.852,-1.365,1.675
2021-08-19 22:33:04.856,-1.385,1.765
2021-08-19 22:33:04.860,-1.395,1.845
2021-08-19 22:33:04.864,-1.41,1.885
2021-08-19 22:33:04.868,-1.42,1.9
2021-08-19 22:33:04.872,-1.425,1.925
2021-08-19 22:33:04.876,-1.45,1.89
2021-08-19 22:33:04.880,-1.5,1.89
2021-08-19 22:33:04.884,-1.52,1.89
2021-08-19 22:33:04.888,-1.525,1.88
2021-08-19 22:33:04.892,-1.53,1.885
2021-08-19 22:33:04.896,-1.53,1.88
2021-08-19 22:33:04.900,-1.54,1.89
2021-08-19 22:33:04.904,-1.5,1.88
2021-08-19 22:33:04.908,-1.53,1.88
2021-08-19 22:33:04.912,-1.58,1.895
2021-08-19 22:33:04.916,-1.64,1.87
2021-08-19 22:33:04.920,-1.65,1.87
2021-08-19 22:33:04.924,-1.635,1.875
2021-08-19 22:33:04.928,-1.615,1.875
2021-08-19 22:33:04.932,-1.605,1.87
2021-08-19 22:33:04.936,-1.585,1.86
2021-08-19 22:33:04.940,-1.55,1.87
2021-08-19 22:33:04.944,-1.525,1.89
2021-08-19 22:33:04.948,-1.52,1.88
2021-08-19 22:33:04.952,-1.495,1.88
2021-08-19 22:33:04.956,-1.45,1.9
2021-08-19 22:33:04.960,-1.405,1.935
2021-08-19 22:33:04.964,-1.385,1.97
2021-08-19 22:33:04.968,-1.38,1.955
2021-08-19 22:33:04.972,-1.34,1.975
2021-08-19 22:33:04.976,-1.3,1.99
2021-08-19 22:33:04.980,-1.305,1.985
2021-08-19 22:33:04.984,-1.275,1.975
2021-08-19 22:33:04.988,-1.265,1.93
2021-08-19 22:33:04.992,-1.305,1.94
2021-08-19 22:33:04.996,-1.305,1.93
2021-08-19 22:33:05.000,-1.3,1.925
2021-08-19 22:33:05.004,-1.26,1.92
2021-08-19 22:33:05.008,-1.27,1.92
2021-08-19 22:33:05.012,-1.265,1.935
2021-08-19 22:33:05.016,-1.255,1.925
2021-08-19 22:33:05.020,-1.26,1.9
2021-08-19 22:33:05.024,-1.25,1.9
2021-08-19 22:33:05.028,-1.255,1.91
2021-08-19 22:33:05.032,-1.235,1.865
2021-08-19 22:33:05.036,-1.215,1.855
2021-08-19 22:33:05.040,-1.205,1.855
2021-08-19 22:33:05.044,-1.195,1.845
2021-08-19 22:33:05.048,-1.205,1.83
2021-08-19 22:33:05.052,-1.2,1.835
2021-08-19 22:33:05.056,-1.205,1.85
2021-08-19 22:33:05.060,-1.215,1.805
2021-08-19 22:33:05.064,-1.22,1.815
2021-08-19 22:33:05.068,-1.215,1.78
2021-08-19 22:33:05.072,-1.22,1.785
2021-08-19 22:33:05.076,-1.19,1.785
2021-08-19 22:33:05.080,-1.195,1.79
2021-08-19 22:33:05.084,-1.18,1.77
2021-08-19 22:33:05.088,-1.165,1.765
2021-08-19 22:33:05.092,-1.18,1.775
2021-08-19 22:33:05.096,-1.19,1.775
2021-08-19 22:33:05.100,-1.2,1.765
2021-08-19 22:33:05.104,-1.195,1.79
2021-08-19 22:33:05.108,-1.185,1.775
2021-08-19 22:33:05.112,-1.195,1.77
2021-08-19 22:33:05.116,-1.16,1.8
2021-08-19 22:33:05.120,-1.15,1.78
2021-08-19 22:33:05.124,-1.165,1.795
2021-08-19 22:33:05.128,-1.17,1.8
2021-08-19 22:33:05.132,-1.16,1.79
2021-08-19 22:33:05.136,-1.145,1.785
2021-08-19 22:33:05.140,-1.155,1.825
2021-08-19 22:33:05.144,-1.18,1.84
2021-08-19 22:33:05.148,-1.17,1.82
2021-08-19 22:33:05.152,-1.15,1.84
2021-08-19 22:33:05.156,-1.14,1.855
2021-08-19 22:33:05.160,-1.16,1.86
2021-08-19 22:33:05.164,-1.19,1.85
2021-08-19 22:33:05.168,-1.205,1.875
2021-08-19 22:33:05.172,-1.235,1.86
2021-08-19 22:33:05.176,-1.275,1.88
2021-08-19 22:33:05.180,-1.26,1.88
2021-08-19 22:33:05.184,-1.27,1.87
2021-08-19 22:33:05.188,-1.27,1.87
2021-08-19 22:33:05.192,-1.29,1.87
2021-08-19 22:33:05.196,-1.31,1.88
2021-08-19 22:33:05.200,-1.295,1.86
2021-08-19 22:33:05.204,-1.275,1.86
2021-08-19 22:33:05.208,-1.31,1.875
2021-08-19 22:33:05.212,-1.32,1.88
2021-08-19 22:33:05.216,-1.3,1.92
2021-08-19 22:33:05.220,-1.27,1.92
2021-08-19 22:33:05.224,-1.255,1.94
2021-08-19 22:33:05.228,-1.215,1.96
2021-08-19 22:33:05.232,-1.125,1.97
2021-08-19 22:33:05.236,-1.09,1.95
2021-08-19 22:33:05.240,-1.045,1.96
2021-08-19 22:33:05.244,-1.06,2.0
2021-08-19 22:33:05.324,-0.61,1.965
2021-08-19 22:33:05.328,-0.615,1.87
2021-08-19 22:33:05.332,-0.57,1.77
2021-08-19 22:33:05.336,-0.42,1.62
2021-08-19 22:33:05.340,-0.1,1.415
2021-08-19 22:33:05.344,0.155,1.23
2021-08-19 22:33:05.348,0.26,1.115
2021-08-19 22:33:05.352,0.05,1.17
2021-08-19 22:33:05.356,-0.43,1.465
2021-08-19 22:33:05.360,-0.89,1.86
2021-08-19 22:33:05.772,0.24,1.99
2021-08-19 22:33:05.776,0.36,1.835
2021-08-19 22:33:05.780,0.235,1.855
2021-08-19 22:33:06.268,-1.25,1.985
2021-08-19 22:33:06.272,-1.24,1.965
2021-08-19 22:33:06.276,-1.25,1.96
2021-08-19 22:33:06.280,-1.235,1.93
2021-08-19 22:33:06.284,-1.25,1.945
2021-08-19 22:33:06.288,-1.255,1.935
2021-08-19 22:33:06.292,-1.24,1.94
2021-08-19 22:33:06.296,-1.21,1.93
2021-08-19 22:33:06.300,-1.205,1.935
2021-08-19 22:33:06.304,-1.21,1.92
2021-08-19 22:33:06.308,-1.26,1.92
2021-08-19 22:33:06.312,-1.265,1.92
2021-08-19 22:33:06.316,-1.25,1.93
