Time,ECG1,ECG2
2021-08-01 00:42:24.000,-0.35,-1.89
2021-08-01 00:42:24.004,-0.36,-1.87
2021-08-01 00:42:24.008,-0.365,-1.89
2021-08-01 00:42:24.012,-0.385,-1.895
2021-08-01 00:42:24.016,-0.375,-1.855
2021-08-01 00:42:24.020,-0.35,-1.865
2021-08-01 00:42:24.024,-0.385,-1.87
2021-08-01 00:42:24.028,-0.365,-1.87
2021-08-01 00:42:24.032,-0.34,-1.86
2021-08-01 00:42:24.036,-0.37,-1.82
2021-08-01 00:42:24.040,-0.38,-1.86
2021-08-01 00:42:24.044,-0.38,-1.865
2021-08-01 00:42:24.048,-0.39,-1.855
2021-08-01 00:42:24.052,-0.39,-1.84
2021-08-01 00:42:24.056,-0.375,-1.87
2021-08-01 00:42:24.060,-0.38,-1.85
2021-08-01 00:42:24.064,-0.39,-1.865
2021-08-01 00:42:24.068,-0.37,-1.85
2021-08-01 00:42:24.072,-0.375,-1.855
2021-08-01 00:42:24.076,-0.395,-1.86
2021-08-01 00:42:24.080,-0.365,-1.86
2021-08-01 00:42:24.084,-0.4,-1.83
2021-08-01 00:42:24.088,-0.4,-1.865
2021-08-01 00:42:24.092,-0.37,-1.87
2021-08-01 00:42:24.096,-0.37,-1.87
2021-08-01 00:42:24.100,-0.38,-1.84
2021-08-01 00:42:24.104,-0.36,-1.85
2021-08-01 00:42:24.108,-0.365,-1.845
2021-08-01 00:42:24.112,-0.385,-1.84
2021-08-01 00:42:24.116,-0.36,-1.835
2021-08-01 00:42:24.120,-0.365,-1.815
2021-08-01 00:42:24.124,-0.38,-1.835
2021-08-01 00:42:24.128,-0.365,-1.785
2021-08-01 00:42:24.132,-0.365,-1.74
2021-08-01 00:42:24.136,-0.34,-1.735
2021-08-01 00:42:24.140,-0.345,-1.725
2021-08-01 00:42:24.144,-0.3,-1.7
2021-08-01 00:42:24.148,-0.29,-1.66
2021-08-01 00:42:24.152,-0.28,-1.635
2021-08-01 00:42:24.156,-0.25,-1.635
2021-08-01 00:42:24.160,-0.21,-1.64
2021-08-01 00:42:24.164,-0.185,-1.66
2021-08-01 00:42:24.168,-0.19,-1.68
2021-08-01 00:42:24.172,-0.2,-1.71
2021-08-01 00:42:24.176,-0.245,-1.725
2021-08-01 00:42:24.180,-0.26,-1.72
2021-08-01 00:42:24.184,-0.3,-1.71
2021-08-01 00:42:24.188,-0.345,-1.755
2021-08-01 00:42:24.192,-0.34,-1.795
2021-08-01 00:42:24.196,-0.33,-1.805
2021-08-01 00:42:24.200,-0.37,-1.8
2021-08-01 00:42:24.204,-0.415,-1.81
2021-08-01 00:42:24.208,-0.405,-1.87
2021-08-01 00:42:24.212,-0.4,-1.9
2021-08-01 00:42:24.216,-0.395,-1.91
2021-08-01 00:42:24.220,-0.4,-1.93
2021-08-01 00:42:24.224,-0.41,-1.95
2021-08-01 00:42:24.228,-0.4,-1.925
2021-08-01 00:42:24.232,-0.4,-1.925
2021-08-01 00:42:24.236,-0.405,-1.92
2021-08-01 00:42:24.240,-0.395,-1.945
2021-08-01 00:42:24.244,-0.39,-1.93
2021-08-01 00:42:24.248,-0.38,-1.91
2021-08-01 00:42:24.252,-0.375,-1.93
2021-08-01 00:42:24.256,-0.405,-1.935
2021-08-01 00:42:24.260,-0.4,-1.92
2021-08-01 00:42:24.264,-0.39,-1.88
2021-08-01 00:42:24.268,-0.41,-1.895
2021-08-01 00:42:24.272,-0.4,-1.89
2021-08-01 00:42:24.276,-0.36,-1.92
2021-08-01 00:42:24.280,-0.38,-1.87
2021-08-01 00:42:24.284,-0.36,-1.88
2021-08-01 00:42:24.288,-0.365,-1.87
2021-08-01 00:42:24.292,-0.37,-1.875
2021-08-01 00:42:24.296,-0.375,-1.835
2021-08-01 00:42:24.300,-0.365,-1.815
2021-08-01 00:42:24.304,-0.385,-1.77
2021-08-01 00:42:24.308,-0.35,-1.68
2021-08-01 00:42:24.312,-0.325,-1.495
2021-08-01 00:42:24.316,-0.24,-1.165
2021-08-01 00:42:24.320,-0.175,-0.88
2021-08-01 00:42:24.324,-0.235,-0.67
2021-08-01 00:42:24.328,-0.455,-0.49
2021-08-01 00:42:24.332,-0.88,-0.28
2021-08-01 00:42:24.336,-1.55,-0.04
2021-08-01 00:42:24.384,-1.915,0.265
2021-08-01 00:42:24.388,-1.81,0.195
2021-08-01 00:42:24.392,-1.67,-0.12
2021-08-01 00:42:24.396,-1.6,-0.7
2021-08-01 00:42:24.400,-1.505,-1.29
2021-08-01 00:42:24.404,-1.46,-1.755
2021-08-01 00:42:24.496,0.33,-1.995
2021-08-01 00:42:24.516,0.38,-2.0
2021-08-01 00:42:24.612,0.66,-1.96
2021-08-01 00:42:24.616,0.63,-1.915
2021-08-01 00:42:24.620,0.6,-1.85
2021-08-01 00:42:24.624,0.55,-1.795
2021-08-01 00:42:24.628,0.53,-1.745
2021-08-01 00:42:24.632,0.485,-1.72
2021-08-01 00:42:24.636,0.41,-1.665
2021-08-01 00:42:24.640,0.355,-1.59
2021-08-01 00:42:24.644,0.31,-1.55
2021-08-01 00:42:24.648,0.285,-1.51
2021-08-01 00:42:24.652,0.23,-1.5
2021-08-01 00:42:24.656,0.19,-1.475
2021-08-01 00:42:24.660,0.165,-1.44
2021-08-01 00:42:24.664,0.13,-1.45
2021-08-01 00:42:24.668,0.07,-1.465
2021-08-01 00:42:24.672,0.085,-1.45
2021-08-01 00:42:24.676,0.025,-1.445
2021-08-01 00:42:24.680,-0.015,-1.415
2021-08-01 00:42:24.684,-0.05,-1.45
2021-08-01 00:42:24.688,-0.04,-1.465
2021-08-01 00:42:24.692,-0.05,-1.43
2021-08-01 00:42:24.696,-0.075,-1.41
2021-08-01 00:42:24.700,-0.08,-1.425
2021-08-01 00:42:24.704,-0.08,-1.5
2021-08-01 00:42:24.708,-0.07,-1.55
2021-08-01 00:42:24.712,-0.08,-1.56
2021-08-01 00:42:24.716,-0.095,-1.5
2021-08-01 00:42:24.720,-0.07,-1.46
2021-08-01 00:42:24.724,-0.08,-1.455
2021-08-01 00:42:24.728,-0.08,-1.445
2021-08-01 00:42:24.732,-0.075,-1.51
2021-08-01 00:42:24.736,-0.06,-1.51
2021-08-01 00:42:24.740,-0.085,-1.45
2021-08-01 00:42:24.744,-0.055,-1.41
2021-08-01 00:42:24.748,-0.055,-1.425
2021-08-01 00:42:24.752,-0.055,-1.53
2021-08-01 00:42:24.756,-0.08,-1.67
2021-08-01 00:42:24.760,-0.08,-1.7
2021-08-01 00:42:24.764,-0.08,-1.635
2021-08-01 00:42:24.768,-0.055,-1.615
2021-08-01 00:42:24.772,-0.03,-1.605
2021-08-01 00:42:24.776,-0.005,-1.58
2021-08-01 00:42:24.780,-0.04,-1.55
2021-08-01 00:42:24.784,0.0,-1.54
2021-08-01 00:42:24.788,0.05,-1.545
2021-08-01 00:42:24.792,0.08,-1.54
2021-08-01 00:42:24.796,0.005,-1.56
2021-08-01 00:42:24.800,-0.06,-1.555
2021-08-01 00:42:24.804,-0.1,-1.5
2021-08-01 00:42:24.808,-0.095,-1.46
2021-08-01 00:42:24.812,-0.09,-1.415
2021-08-01 00:42:24.816,-0.06,-1.49
2021-08-01 00:42:24.820,-0.02,-1.475
2021-08-01 00:42:24.824,-0.045,-1.38
2021-08-01 00:42:24.828,-0.08,-1.41
2021-08-01 00:42:24.832,-0.06,-1.545
2021-08-01 00:42:24.836,-0.055,-1.67
2021-08-01 00:42:24.840,-0.07,-1.64
2021-08-01 00:42:24.844,-0.1,-1.635
2021-08-01 00:42:24.848,-0.095,-1.67
2021-08-01 00:42:24.852,-0.08,-1.67
2021-08-01 00:42:24.856,-0.085,-1.595
2021-08-01 00:42:24.860,-0.06,-1.555
2021-08-01 00:42:24.864,-0.065,-1.57
2021-08-01 00:42:24.868,-0.05,-1.56
2021-08-01 00:42:24.872,-0.02,-1.585
2021-08-01 00:42:24.876,-0.025,-1.54
2021-08-01 00:42:24.880,-0.035,-1.54
2021-08-01 00:42:24.884,-0.055,-1.515
2021-08-01 00:42:24.888,-0.08,-1.525
2021-08-01 00:42:24.892,-0.1,-1.47
2021-08-01 00:42:24.896,-0.09,-1.445
2021-08-01 00:42:24.900,-0.085,-1.435
2021-08-01 00:42:24.904,-0.115,-1.445
2021-08-01 00:42:24.908,-0.115,-1.37
2021-08-01 00:42:24.912,-0.14,-1.35
2021-08-01 00:42:24.916,-0.16,-1.44
2021-08-01 00:42:24.920,-0.17,-1.5
2021-08-01 00:42:24.924,-0.15,-1.4
2021-08-01 00:42:24.928,-0.13,-1.34
2021-08-01 00:42:24.932,-0.135,-1.29
2021-08-01 00:42:24.936,-0.16,-1.33
2021-08-01 00:42:24.940,-0.15,-1.375
2021-08-01 00:42:24.944,-0.125,-1.35
2021-08-01 00:42:24.948,-0.155,-1.355
2021-08-01 00:42:24.952,-0.16,-1.305
2021-08-01 00:42:24.956,-0.165,-1.265
2021-08-01 00:42:24.960,-0.115,-1.21
2021-08-01 00:42:24.964,-0.12,-1.175
2021-08-01 00:42:24.968,-0.12,-1.025
2021-08-01 00:42:24.972,-0.11,-0.59
2021-08-01 00:42:24.976,-0.08,0.21
2021-08-01 00:42:24.980,-0.02,0.775
2021-08-01 00:42:24.984,0.05,0.9
2021-08-01 00:42:24.988,0.06,0.87
2021-08-01 00:42:24.992,0.02,0.85
2021-08-01 00:42:24.996,0.0,0.845
2021-08-01 00:42:25.000,0.01,0.76
2021-08-01 00:42:25.004,0.035,0.66
2021-08-01 00:42:25.008,0.06,0.615
2021-08-01 00:42:25.012,0.0,0.59
2021-08-01 00:42:25.016,-0.055,0.56
2021-08-01 00:42:25.020,-0.095,0.535
2021-08-01 00:42:25.024,-0.1,0.465
2021-08-01 00:42:25.028,-0.11,0.46
2021-08-01 00:42:25.032,-0.135,0.445
2021-08-01 00:42:25.036,-0.18,0.455
2021-08-01 00:42:25.040,-0.2,0.39
2021-08-01 00:42:25.044,-0.215,0.31
2021-08-01 00:42:25.048,-0.24,0.26
2021-08-01 00:42:25.052,-0.19,0.15
2021-08-01 00:42:25.056,-0.22,0.135
2021-08-01 00:42:25.060,-0.225,0.12
2021-08-01 00:42:25.064,-0.22,0.125
2021-08-01 00:42:25.068,-0.215,0.14
2021-08-01 00:42:25.072,-0.23,0.145
2021-08-01 00:42:25.076,-0.23,0.125
2021-08-01 00:42:25.080,-0.27,0.16
2021-08-01 00:42:25.084,-0.27,0.175
2021-08-01 00:42:25.088,-0.26,0.05
2021-08-01 00:42:25.092,-0.305,0.01
2021-08-01 00:42:25.096,-0.335,0.015
2021-08-01 00:42:25.100,-0.335,0.045
2021-08-01 00:42:25.104,-0.24,0.07
2021-08-01 00:42:25.108,-0.18,0.04
2021-08-01 00:42:25.112,-0.2,0.035
2021-08-01 00:42:25.116,-0.29,0.125
2021-08-01 00:42:25.120,-0.31,0.115
2021-08-01 00:42:25.124,-0.325,0.06
2021-08-01 00:42:25.128,-0.27,0.02
2021-08-01 00:42:25.132,-0.23,0.03
2021-08-01 00:42:25.136,-0.26,0.075
2021-08-01 00:42:25.140,-0.22,0.15
2021-08-01 00:42:25.144,-0.215,0.255
2021-08-01 00:42:25.148,-0.2,0.29
2021-08-01 00:42:25.152,-0.29,0.415
2021-08-01 00:42:25.156,-0.245,0.735
2021-08-01 00:42:25.160,-0.205,1.02
2021-08-01 00:42:25.164,-0.26,1.19
2021-08-01 00:42:25.168,-0.52,1.295
2021-08-01 00:42:25.172,-0.935,1.495
2021-08-01 00:42:25.176,-1.53,1.755
2021-08-01 00:42:25.236,-1.385,1.895
2021-08-01 00:42:25.240,-1.315,1.335
2021-08-01 00:42:25.244,-1.22,0.99
2021-08-01 00:42:25.248,-1.12,0.805
2021-08-01 00:42:25.252,-0.965,0.655
2021-08-01 00:42:25.256,-0.82,0.745
2021-08-01 00:42:25.260,-0.665,0.9
2021-08-01 00:42:25.264,-0.465,0.97
2021-08-01 00:42:25.268,-0.285,0.895
2021-08-01 00:42:25.272,-0.08,0.9
2021-08-01 00:42:25.276,0.105,0.955
2021-08-01 00:42:25.280,0.23,1.005
2021-08-01 00:42:25.284,0.295,1.005
2021-08-01 00:42:25.288,0.355,0.98
2021-08-01 00:42:25.292,0.33,0.945
2021-08-01 00:42:25.296,0.305,0.945
2021-08-01 00:42:25.300,0.3,0.975
2021-08-01 00:42:25.304,0.3,0.955
2021-08-01 00:42:25.308,0.34,0.95
2021-08-01 00:42:25.312,0.33,0.99
2021-08-01 00:42:25.316,0.335,1.01
2021-08-01 00:42:25.320,0.38,1.015
2021-08-01 00:42:25.324,0.4,1.05
2021-08-01 00:42:25.328,0.42,1.03
2021-08-01 00:42:25.332,0.415,0.965
2021-08-01 00:42:25.336,0.41,0.97
2021-08-01 00:42:25.340,0.44,0.995
2021-08-01 00:42:25.344,0.445,1.045
2021-08-01 00:42:25.348,0.445,0.985
2021-08-01 00:42:25.352,0.475,0.965
2021-08-01 00:42:25.356,0.51,0.995
2021-08-01 00:42:25.360,0.49,0.995
2021-08-01 00:42:25.364,0.51,0.97
2021-08-01 00:42:25.368,0.515,0.96
2021-08-01 00:42:25.372,0.565,0.945
2021-08-01 00:42:25.376,0.57,0.91
2021-08-01 00:42:25.380,0.57,0.91
2021-08-01 00:42:25.384,0.595,0.895
2021-08-01 00:42:25.388,0.62,0.86
2021-08-01 00:42:25.392,0.665,0.915
2021-08-01 00:42:25.396,0.76,0.965
2021-08-01 00:42:25.400,0.735,0.865
2021-08-01 00:42:25.404,0.71,0.775
2021-08-01 00:42:25.408,0.695,0.755
2021-08-01 00:42:25.412,0.725,0.755
2021-08-01 00:42:25.416,0.735,0.715
2021-08-01 00:42:25.420,0.77,0.71
2021-08-01 00:42:25.424,0.805,0.705
2021-08-01 00:42:25.428,0.76,0.74
2021-08-01 00:42:25.432,0.76,0.765
2021-08-01 00:42:25.436,0.75,0.755
2021-08-01 00:42:25.440,0.72,0.785
2021-08-01 00:42:25.444,0.71,0.83
2021-08-01 00:42:25.448,0.66,0.875
2021-08-01 00:42:25.452,0.615,0.915
2021-08-01 00:42:25.456,0.575,0.975
2021-08-01 00:42:25.460,0.535,1.02
2021-08-01 00:42:25.464,0.52,1.02
2021-08-01 00:42:25.468,0.445,1.07
2021-08-01 00:42:25.472,0.375,1.11
2021-08-01 00:42:25.476,0.35,1.16
2021-08-01 00:42:25.480,0.295,1.165
2021-08-01 00:42:25.484,0.235,1.19
2021-08-01 00:42:25.488,0.225,1.21
2021-08-01 00:42:25.492,0.145,1.2
2021-08-01 00:42:25.496,0.085,1.135
2021-08-01 00:42:25.500,0.045,1.11
2021-08-01 00:42:25.504,0.0,1.095
2021-08-01 00:42:25.508,0.01,1.115
2021-08-01 00:42:25.512,-0.005,1.125
2021-08-01 00:42:25.516,0.055,1.105
2021-08-01 00:42:25.520,0.01,1.055
2021-08-01 00:42:25.524,-0.075,0.995
2021-08-01 00:42:25.528,-0.16,1.02
2021-08-01 00:42:25.532,-0.19,1.1
2021-08-01 00:42:25.536,-0.165,1.255
2021-08-01 00:42:25.540,-0.125,1.5
2021-08-01 00:42:25.544,-0.06,1.84
2021-08-01 00:42:25.752,-0.2,1.97
2021-08-01 00:42:25.756,-0.15,1.965
2021-08-01 00:42:25.760,-0.125,1.91
2021-08-01 00:42:25.764,-0.115,1.79
2021-08-01 00:42:25.768,-0.15,1.8
2021-08-01 00:42:25.772,-0.18,1.895
2021-08-01 00:42:25.776,-0.145,1.895
2021-08-01 00:42:25.780,-0.105,1.805
2021-08-01 00:42:25.784,-0.025,1.725
2021-08-01 00:42:25.788,0.095,1.72
2021-08-01 00:42:25.792,0.575,1.75
2021-08-01 00:42:25.796,1.215,1.945
2021-08-01 00:42:25.804,1.275,1.835
2021-08-01 00:42:25.808,1.345,1.615
2021-08-01 00:42:25.812,1.37,1.58
2021-08-01 00:42:25.816,1.38,1.615
2021-08-01 00:42:25.820,1.395,1.71
2021-08-01 00:42:25.824,1.375,1.71
2021-08-01 00:42:25.828,1.43,1.71
2021-08-01 00:42:25.832,1.455,1.69
2021-08-01 00:42:25.836,1.455,1.615
2021-08-01 00:42:25.840,1.445,1.59
2021-08-01 00:42:25.844,1.435,1.585
2021-08-01 00:42:25.848,1.365,1.51
2021-08-01 00:42:25.852,1.365,1.475
2021-08-01 00:42:25.856,1.345,1.42
2021-08-01 00:42:25.860,1.32,1.38
2021-08-01 00:42:25.864,1.29,1.355
2021-08-01 00:42:25.868,1.26,1.345
2021-08-01 00:42:25.872,1.19,1.335
2021-08-01 00:42:25.876,1.185,1.265
2021-08-01 00:42:25.880,1.185,1.175
2021-08-01 00:42:25.884,1.17,1.115
2021-08-01 00:42:25.888,1.205,1.12
2021-08-01 00:42:25.892,1.185,1.125
2021-08-01 00:42:25.896,1.24,1.115
2021-08-01 00:42:25.900,1.235,1.105
2021-08-01 00:42:25.904,1.23,1.08
2021-08-01 00:42:25.908,1.175,1.065
2021-08-01 00:42:25.912,1.175,1.035
2021-08-01 00:42:25.916,1.165,1.005
2021-08-01 00:42:25.920,1.175,1.055
2021-08-01 00:42:25.924,1.21,1.04
2021-08-01 00:42:25.928,1.205,1.03
2021-08-01 00:42:25.932,1.175,1.06
2021-08-01 00:42:25.936,1.18,1.045
2021-08-01 00:42:25.940,1.18,0.955
2021-08-01 00:42:25.944,1.205,0.9
2021-08-01 00:42:25.948,1.23,0.945
2021-08-01 00:42:25.952,1.225,0.95
2021-08-01 00:42:25.956,1.17,0.92
2021-08-01 00:42:25.960,1.2,0.94
2021-08-01 00:42:25.964,1.2,0.985
2021-08-01 00:42:25.968,1.2,0.99
2021-08-01 00:42:25.972,1.205,1.02
2021-08-01 00:42:25.976,1.2,1.07
2021-08-01 00:42:25.980,1.19,1.195
2021-08-01 00:42:25.984,1.215,1.375
2021-08-01 00:42:25.988,1.245,1.675
2021-08-01 00:42:26.072,-0.12,1.805
2021-08-01 00:42:26.076,-0.005,1.335
2021-08-01 00:42:26.080,0.14,1.06
2021-08-01 00:42:26.084,0.295,0.94
2021-08-01 00:42:26.088,0.43,0.885
2021-08-01 00:42:26.092,0.61,0.875
2021-08-01 00:42:26.096,0.805,0.895
2021-08-01 00:42:26.100,0.98,0.885
2021-08-01 00:42:26.104,1.115,0.9
2021-08-01 00:42:26.108,1.27,0.885
2021-08-01 00:42:26.112,1.41,0.9
2021-08-01 00:42:26.116,1.44,0.905
2021-08-01 00:42:26.120,1.46,0.915
2021-08-01 00:42:26.124,1.475,0.885
2021-08-01 00:42:26.128,1.525,0.89
2021-08-01 00:42:26.132,1.525,0.86
2021-08-01 00:42:26.136,1.515,0.845
2021-08-01 00:42:26.140,1.525,0.82
2021-08-01 00:42:26.144,1.545,0.79
2021-08-01 00:42:26.148,1.535,0.795
2021-08-01 00:42:26.152,1.56,0.8
2021-08-01 00:42:26.156,1.57,0.84
2021-08-01 00:42:26.160,1.58,0.91
2021-08-01 00:42:26.164,1.59,0.955
2021-08-01 00:42:26.168,1.565,0.865
2021-08-01 00:42:26.172,1.585,0.77
2021-08-01 00:42:26.176,1.6,0.765
2021-08-01 00:42:26.180,1.62,0.77
2021-08-01 00:42:26.184,1.645,0.745
2021-08-01 00:42:26.188,1.645,0.715
2021-08-01 00:42:26.192,1.67,0.74
2021-08-01 00:42:26.196,1.665,0.73
2021-08-01 00:42:26.200,1.685,0.655
2021-08-01 00:42:26.204,1.72,0.595
2021-08-01 00:42:26.208,1.74,0.585
2021-08-01 00:42:26.212,1.765,0.585
2021-08-01 00:42:26.216,1.79,0.54
2021-08-01 00:42:26.220,1.765,0.515
2021-08-01 00:42:26.224,1.815,0.5
2021-08-01 00:42:26.228,1.865,0.5
2021-08-01 00:42:26.232,1.855,0.47
2021-08-01 00:42:26.236,1.865,0.405
2021-08-01 00:42:26.240,1.875,0.34
2021-08-01 00:42:26.244,1.89,0.355
2021-08-01 00:42:26.248,1.895,0.365
2021-08-01 00:42:26.252,1.89,0.365
2021-08-01 00:42:26.256,1.885,0.365
2021-08-01 00:42:26.260,1.875,0.425
2021-08-01 00:42:26.264,1.87,0.46
2021-08-01 00:42:26.268,1.825,0.455
2021-08-01 00:42:26.272,1.81,0.48
2021-08-01 00:42:26.276,1.75,0.515
2021-08-01 00:42:26.280,1.71,0.575
2021-08-01 00:42:26.284,1.715,0.615
2021-08-01 00:42:26.288,1.67,0.66
2021-08-01 00:42:26.292,1.63,0.745
2021-08-01 00:42:26.296,1.565,0.825
2021-08-01 00:42:26.300,1.5,0.845
2021-08-01 00:42:26.304,1.415,0.86
2021-08-01 00:42:26.308,1.39,0.9
2021-08-01 00:42:26.312,1.33,0.96
2021-08-01 00:42:26.316,1.275,1.01
2021-08-01 00:42:26.320,1.23,1.075
2021-08-01 00:42:26.324,1.2,1.08
2021-08-01 00:42:26.328,1.165,1.03
2021-08-01 00:42:26.332,1.12,0.985
2021-08-01 00:42:26.336,1.075,1.03
2021-08-01 00:42:26.340,1.08,1.055
2021-08-01 00:42:26.344,1.035,1.04
2021-08-01 00:42:26.348,0.995,1.025
2021-08-01 00:42:26.352,0.98,1.055
2021-08-01 00:42:26.356,0.965,1.03
2021-08-01 00:42:26.360,0.95,1.015
2021-08-01 00:42:26.364,0.945,1.02
2021-08-01 00:42:26.368,0.95,1.055
2021-08-01 00:42:26.372,0.945,1.05
2021-08-01 00:42:26.376,0.95,1.02
2021-08-01 00:42:26.380,0.945,1.02
2021-08-01 00:42:26.384,0.935,0.99
2021-08-01 00:42:26.388,0.945,0.97
2021-08-01 00:42:26.392,0.965,1.02
2021-08-01 00:42:26.396,0.935,1.06
2021-08-01 00:42:26.400,0.955,1.035
2021-08-01 00:42:26.404,0.945,0.96
2021-08-01 00:42:26.408,0.955,0.92
2021-08-01 00:42:26.412,0.955,0.92
2021-08-01 00:42:26.416,0.97,0.96
2021-08-01 00:42:26.420,0.965,1.01
2021-08-01 00:42:26.424,0.97,0.98
2021-08-01 00:42:26.428,0.97,0.87
2021-08-01 00:42:26.432,0.975,0.805
2021-08-01 00:42:26.436,0.975,0.86
2021-08-01 00:42:26.440,0.995,0.875
2021-08-01 00:42:26.444,0.985,0.885
2021-08-01 00:42:26.448,0.955,0.915
2021-08-01 00:42:26.452,0.995,0.855
2021-08-01 00:42:26.456,0.995,0.8
2021-08-01 00:42:26.460,1.01,0.815
2021-08-01 00:42:26.464,0.985,0.79
2021-08-01 00:42:26.468,1.0,0.77
2021-08-01 00:42:26.472,0.995,0.75
2021-08-01 00:42:26.476,1.02,0.725
2021-08-01 00:42:26.480,1.03,0.77
2021-08-01 00:42:26.484,0.98,0.77
2021-08-01 00:42:26.488,0.98,0.785
2021-08-01 00:42:26.492,0.97,0.8
2021-08-01 00:42:26.496,0.98,0.84
2021-08-01 00:42:26.500,0.955,0.81
2021-08-01 00:42:26.504,0.95,0.775
2021-08-01 00:42:26.508,0.935,0.785
2021-08-01 00:42:26.512,0.935,0.82
2021-08-01 00:42:26.516,0.955,0.82
2021-08-01 00:42:26.520,0.955,0.81
2021-08-01 00:42:26.524,0.935,0.815
2021-08-01 00:42:26.528,0.92,0.82
2021-08-01 00:42:26.532,0.92,0.77
2021-08-01 00:42:26.536,0.925,0.745
2021-08-01 00:42:26.540,0.895,0.83
2021-08-01 00:42:26.544,0.895,0.825
2021-08-01 00:42:26.548,0.905,0.835
2021-08-01 00:42:26.552,0.905,0.835
2021-08-01 00:42:26.556,0.92,0.8
2021-08-01 00:42:26.560,0.94,0.82
2021-08-01 00:42:26.564,0.92,0.8
2021-08-01 00:42:26.568,0.845,0.78
2021-08-01 00:42:26.572,0.85,0.81
2021-08-01 00:42:26.576,0.84,0.78
2021-08-01 00:42:26.580,0.83,0.79
2021-08-01 00:42:26.584,0.845,0.795
2021-08-01 00:42:26.588,0.86,0.79
2021-08-01 00:42:26.592,0.855,0.79
2021-08-01 00:42:26.596,0.855,0.79
2021-08-01 00:42:26.600,0.865,0.775
2021-08-01 00:42:26.604,0.865,0.81
2021-08-01 00:42:26.608,0.865,0.85
2021-08-01 00:42:26.612,0.865,0.84
2021-08-01 00:42:26.616,0.885,0.825
2021-08-01 00:42:26.620,0.915,0.86
2021-08-01 00:42:26.624,0.925,0.92
2021-08-01 00:42:26.628,0.935,0.93
2021-08-01 00:42:26.632,0.95,0.955
2021-08-01 00:42:26.636,0.95,0.975
2021-08-01 00:42:26.640,0.98,0.955
2021-08-01 00:42:26.644,0.985,0.955
2021-08-01 00:42:26.648,1.005,0.925
2021-08-01 00:42:26.652,0.975,0.895
2021-08-01 00:42:26.656,0.98,0.95
2021-08-01 00:42:26.660,0.935,0.935
2021-08-01 00:42:26.664,0.91,0.91
2021-08-01 00:42:26.668,0.84,0.86
2021-08-01 00:42:26.672,0.855,0.86
2021-08-01 00:42:26.676,0.855,0.85
2021-08-01 00:42:26.680,0.835,0.795
2021-08-01 00:42:26.684,0.795,0.745
2021-08-01 00:42:26.688,0.75,0.72
2021-08-01 00:42:26.692,0.775,0.645
2021-08-01 00:42:26.696,0.785,0.615
2021-08-01 00:42:26.700,0.815,0.66
2021-08-01 00:42:26.704,0.81,0.7
2021-08-01 00:42:26.708,0.825,0.685
2021-08-01 00:42:26.712,0.79,0.635
2021-08-01 00:42:26.716,0.79,0.615
2021-08-01 00:42:26.720,0.78,0.64
2021-08-01 00:42:26.724,0.77,0.63
2021-08-01 00:42:26.728,0.765,0.62
2021-08-01 00:42:26.732,0.75,0.61
2021-08-01 00:42:26.736,0.755,0.6
2021-08-01 00:42:26.740,0.735,0.61
2021-08-01 00:42:26.744,0.725,0.61
2021-08-01 00:42:26.748,0.705,0.635
2021-08-01 00:42:26.752,0.7,0.65
2021-08-01 00:42:26.756,0.73,0.66
2021-08-01 00:42:26.760,0.715,0.635
2021-08-01 00:42:26.764,0.7,0.595
2021-08-01 00:42:26.768,0.715,0.62
2021-08-01 00:42:26.772,0.735,0.625
2021-08-01 00:42:26.776,0.725,0.635
2021-08-01 00:42:26.780,0.7,0.685
2021-08-01 00:42:26.784,0.715,0.755
2021-08-01 00:42:26.788,0.735,0.855
2021-08-01 00:42:26.792,0.755,0.975
2021-08-01 00:42:26.796,0.81,1.2
2021-08-01 00:42:26.800,0.855,1.5
2021-08-01 00:42:26.804,0.78,1.785
2021-08-01 00:42:26.808,0.53,1.96
2021-08-01 00:42:26.876,-0.63,1.755
2021-08-01 00:42:26.880,-0.535,1.14
2021-08-01 00:42:26.884,-0.42,0.73
2021-08-01 00:42:26.888,-0.25,0.475
2021-08-01 00:42:26.892,-0.12,0.34
2021-08-01 00:42:26.896,0.03,0.255
2021-08-01 00:42:26.900,0.235,0.23
2021-08-01 00:42:26.904,0.425,0.2
2021-08-01 00:42:26.908,0.585,0.26
2021-08-01 00:42:26.912,0.785,0.275
2021-08-01 00:42:26.916,0.915,0.195
2021-08-01 00:42:26.920,1.0,0.135
2021-08-01 00:42:26.924,1.05,0.095
2021-08-01 00:42:26.928,1.11,0.115
2021-08-01 00:42:26.932,1.13,0.195
2021-08-01 00:42:26.936,1.14,0.19
2021-08-01 00:42:26.940,1.15,0.065
2021-08-01 00:42:26.944,1.175,0.07
2021-08-01 00:42:26.948,1.19,0.08
2021-08-01 00:42:26.952,1.205,0.135
2021-08-01 00:42:26.956,1.205,0.125
2021-08-01 00:42:26.960,1.2,0.105
2021-08-01 00:42:26.964,1.185,0.055
2021-08-01 00:42:26.968,1.205,0.045
2021-08-01 00:42:26.972,1.21,0.085
2021-08-01 00:42:26.976,1.22,0.11
2021-08-01 00:42:26.980,1.215,0.085
2021-08-01 00:42:26.984,1.225,0.07
2021-08-01 00:42:26.988,1.235,0.02
2021-08-01 00:42:26.992,1.265,-0.035
2021-08-01 00:42:26.996,1.295,-0.015
2021-08-01 00:42:27.000,1.29,-0.015
2021-08-01 00:42:27.004,1.305,-0.08
2021-08-01 00:42:27.008,1.32,-0.1
2021-08-01 00:42:27.012,1.34,-0.135
2021-08-01 00:42:27.016,1.37,-0.125
2021-08-01 00:42:27.020,1.39,-0.125
2021-08-01 00:42:27.024,1.415,-0.175
2021-08-01 00:42:27.028,1.435,-0.28
2021-08-01 00:42:27.032,1.44,-0.31
2021-08-01 00:42:27.036,1.435,-0.28
2021-08-01 00:42:27.040,1.475,-0.315
2021-08-01 00:42:27.044,1.495,-0.325
2021-08-01 00:42:27.048,1.5,-0.37
2021-08-01 00:42:27.052,1.495,-0.38
2021-08-01 00:42:27.056,1.49,-0.325
2021-08-01 00:42:27.060,1.51,-0.31
2021-08-01 00:42:27.064,1.475,-0.29
2021-08-01 00:42:27.068,1.45,-0.315
2021-08-01 00:42:27.072,1.455,-0.32
2021-08-01 00:42:27.076,1.415,-0.275
2021-08-01 00:42:27.080,1.4,-0.175
2021-08-01 00:42:27.084,1.34,-0.135
2021-08-01 00:42:27.088,1.305,-0.15
2021-08-01 00:42:27.092,1.265,-0.05
2021-08-01 00:42:27.096,1.21,0.025
2021-08-01 00:42:27.100,1.16,0.055
2021-08-01 00:42:27.104,1.11,0.07
2021-08-01 00:42:27.108,1.06,0.115
2021-08-01 00:42:27.112,1.005,0.13
2021-08-01 00:42:27.116,0.96,0.165
2021-08-01 00:42:27.120,0.89,0.25
2021-08-01 00:42:27.124,0.87,0.265
2021-08-01 00:42:27.128,0.79,0.27
2021-08-01 00:42:27.132,0.75,0.235
2021-08-01 00:42:27.136,0.705,0.245
2021-08-01 00:42:27.140,0.66,0.245
2021-08-01 00:42:27.144,0.655,0.24
2021-08-01 00:42:27.148,0.625,0.2
2021-08-01 00:42:27.152,0.625,0.185
2021-08-01 00:42:27.156,0.625,0.22
2021-08-01 00:42:27.160,0.59,0.235
2021-08-01 00:42:27.164,0.585,0.255
2021-08-01 00:42:27.168,0.545,0.215
2021-08-01 00:42:27.172,0.58,0.185
2021-08-01 00:42:27.176,0.535,0.18
2021-08-01 00:42:27.180,0.545,0.16
2021-08-01 00:42:27.184,0.54,0.15
2021-08-01 00:42:27.188,0.505,0.17
2021-08-01 00:42:27.192,0.535,0.185
2021-08-01 00:42:27.196,0.53,0.185
2021-08-01 00:42:27.200,0.505,0.175
2021-08-01 00:42:27.204,0.51,0.145
2021-08-01 00:42:27.208,0.515,0.175
2021-08-01 00:42:27.212,0.5,0.11
2021-08-01 00:42:27.216,0.515,0.055
2021-08-01 00:42:27.220,0.49,0.145
2021-08-01 00:42:27.224,0.515,0.21
2021-08-01 00:42:27.228,0.525,0.175
2021-08-01 00:42:27.232,0.505,0.035
2021-08-01 00:42:27.236,0.55,-0.03
2021-08-01 00:42:27.240,0.545,-0.005
2021-08-01 00:42:27.244,0.545,0.025
2021-08-01 00:42:27.248,0.55,0.04
2021-08-01 00:42:27.252,0.515,0.03
2021-08-01 00:42:27.256,0.555,0.005
2021-08-01 00:42:27.260,0.545,-0.005
2021-08-01 00:42:27.264,0.535,0.0
2021-08-01 00:42:27.268,0.535,0.01
2021-08-01 00:42:27.272,0.51,0.015
2021-08-01 00:42:27.276,0.51,0.02
2021-08-01 00:42:27.280,0.51,0.015
2021-08-01 00:42:27.284,0.545,0.04
2021-08-01 00:42:27.288,0.52,0.065
2021-08-01 00:42:27.292,0.5,0.03
2021-08-01 00:42:27.296,0.51,0.04
2021-08-01 00:42:27.300,0.495,0.045
2021-08-01 00:42:27.304,0.49,-0.015
2021-08-01 00:42:27.308,0.49,-0.015
2021-08-01 00:42:27.312,0.5,0.03
2021-08-01 00:42:27.316,0.48,0.09
2021-08-01 00:42:27.320,0.455,0.095
2021-08-01 00:42:27.324,0.47,0.11
2021-08-01 00:42:27.328,0.465,0.075
2021-08-01 00:42:27.332,0.465,-0.015
2021-08-01 00:42:27.336,0.45,-0.08
2021-08-01 00:42:27.340,0.435,-0.045
2021-08-01 00:42:27.344,0.44,0.005
2021-08-01 00:42:27.348,0.455,0.05
2021-08-01 00:42:27.352,0.47,0.055
2021-08-01 00:42:27.356,0.435,0.065
2021-08-01 00:42:27.360,0.41,0.125
2021-08-01 00:42:27.364,0.425,0.095
2021-08-01 00:42:27.368,0.44,0.09
2021-08-01 00:42:27.372,0.425,0.12
2021-08-01 00:42:27.376,0.47,0.135
2021-08-01 00:42:27.380,0.52,0.185
2021-08-01 00:42:27.384,0.52,0.215
2021-08-01 00:42:27.388,0.535,0.225
2021-08-01 00:42:27.392,0.555,0.225
2021-08-01 00:42:27.396,0.555,0.215
2021-08-01 00:42:27.400,0.56,0.22
2021-08-01 00:42:27.404,0.54,0.165
2021-08-01 00:42:27.408,0.515,0.14
2021-08-01 00:42:27.412,0.475,0.13
2021-08-01 00:42:27.416,0.42,0.105
2021-08-01 00:42:27.420,0.38,0.09
2021-08-01 00:42:27.424,0.375,0.09
2021-08-01 00:42:27.428,0.39,0.06
2021-08-01 00:42:27.432,0.355,0.055
2021-08-01 00:42:27.436,0.325,0.08
2021-08-01 00:42:27.440,0.31,0.06
2021-08-01 00:42:27.444,0.295,0.0
2021-08-01 00:42:27.448,0.32,-0.035
2021-08-01 00:42:27.452,0.33,-0.05
2021-08-01 00:42:27.456,0.33,-0.07
2021-08-01 00:42:27.460,0.33,-0.09
2021-08-01 00:42:27.464,0.32,-0.115
2021-08-01 00:42:27.468,0.35,-0.125
2021-08-01 00:42:27.472,0.325,-0.08
2021-08-01 00:42:27.476,0.335,-0.085
2021-08-01 00:42:27.480,0.335,-0.06
2021-08-01 00:42:27.484,0.32,-0.03
2021-08-01 00:42:27.488,0.325,-0.035
2021-08-01 00:42:27.492,0.305,-0.06
2021-08-01 00:42:27.496,0.315,-0.125
2021-08-01 00:42:27.500,0.315,-0.08
2021-08-01 00:42:27.504,0.315,-0.03
2021-08-01 00:42:27.508,0.33,-0.06
2021-08-01 00:42:27.512,0.325,-0.12
2021-08-01 00:42:27.516,0.295,-0.125
2021-08-01 00:42:27.520,0.3,-0.085
2021-08-01 00:42:27.524,0.32,-0.085
2021-08-01 00:42:27.528,0.33,-0.045
2021-08-01 00:42:27.532,0.325,-0.01
2021-08-01 00:42:27.536,0.31,0.0
2021-08-01 00:42:27.540,0.35,0.065
2021-08-01 00:42:27.544,0.305,0.175
2021-08-01 00:42:27.548,0.38,0.35
2021-08-01 00:42:27.552,0.435,0.705
2021-08-01 00:42:27.556,0.46,0.995
2021-08-01 00:42:27.560,0.315,1.175
2021-08-01 00:42:27.564,-0.015,1.435
2021-08-01 00:42:27.568,-0.59,1.735
2021-08-01 00:42:27.628,-1.1,1.815
2021-08-01 00:42:27.632,-1.01,1.045
2021-08-01 00:42:27.636,-0.885,0.475
2021-08-01 00:42:27.640,-0.755,0.085
2021-08-01 00:42:27.644,-0.595,-0.235
2021-08-01 00:42:27.648,-0.445,-0.39
2021-08-01 00:42:27.652,-0.255,-0.42
2021-08-01 00:42:27.656,-0.075,-0.45
2021-08-01 00:42:27.660,0.14,-0.435
2021-08-01 00:42:27.664,0.3,-0.44
2021-08-01 00:42:27.668,0.505,-0.44
2021-08-01 00:42:27.672,0.635,-0.44
2021-08-01 00:42:27.676,0.69,-0.43
2021-08-01 00:42:27.680,0.71,-0.445
2021-08-01 00:42:27.684,0.76,-0.49
2021-08-01 00:42:27.688,0.815,-0.485
2021-08-01 00:42:27.692,0.84,-0.505
2021-08-01 00:42:27.696,0.83,-0.5
2021-08-01 00:42:27.700,0.84,-0.515
2021-08-01 00:42:27.704,0.865,-0.475
2021-08-01 00:42:27.708,0.895,-0.475
2021-08-01 00:42:27.712,0.89,-0.455
2021-08-01 00:42:27.716,0.925,-0.495
2021-08-01 00:42:27.720,0.935,-0.485
2021-08-01 00:42:27.724,0.96,-0.465
2021-08-01 00:42:27.728,0.98,-0.485
2021-08-01 00:42:27.732,1.035,-0.435
2021-08-01 00:42:27.736,1.035,-0.37
2021-08-01 00:42:27.740,1.065,-0.4
2021-08-01 00:42:27.744,1.06,-0.51
2021-08-01 00:42:27.748,1.125,-0.57
2021-08-01 00:42:27.752,1.205,-0.565
2021-08-01 00:42:27.756,1.21,-0.63
2021-08-01 00:42:27.760,1.26,-0.7
2021-08-01 00:42:27.764,1.305,-0.705
2021-08-01 00:42:27.768,1.325,-0.775
2021-08-01 00:42:27.772,1.325,-0.88
2021-08-01 00:42:27.776,1.295,-0.93
2021-08-01 00:42:27.780,1.275,-0.94
2021-08-01 00:42:27.784,1.265,-0.955
2021-08-01 00:42:27.788,1.275,-0.985
2021-08-01 00:42:27.792,1.255,-1.0
2021-08-01 00:42:27.796,1.23,-1.03
2021-08-01 00:42:27.800,1.265,-1.045
2021-08-01 00:42:27.804,1.25,-1.055
2021-08-01 00:42:27.808,1.275,-1.025
2021-08-01 00:42:27.812,1.255,-1.04
2021-08-01 00:42:27.816,1.255,-1.09
2021-08-01 00:42:27.820,1.225,-1.085
2021-08-01 00:42:27.824,1.215,-0.995
2021-08-01 00:42:27.828,1.185,-0.98
2021-08-01 00:42:27.832,1.15,-0.945
2021-08-01 00:42:27.836,1.08,-0.87
2021-08-01 00:42:27.840,1.07,-0.77
2021-08-01 00:42:27.844,1.03,-0.645
2021-08-01 00:42:27.848,0.96,-0.61
2021-08-01 00:42:27.852,0.925,-0.595
2021-08-01 00:42:27.856,0.86,-0.51
2021-08-01 00:42:27.860,0.775,-0.425
2021-08-01 00:42:27.864,0.74,-0.4
2021-08-01 00:42:27.868,0.735,-0.365
2021-08-01 00:42:27.872,0.725,-0.315
2021-08-01 00:42:27.876,0.625,-0.27
2021-08-01 00:42:27.880,0.535,-0.22
2021-08-01 00:42:27.884,0.47,-0.22
2021-08-01 00:42:27.888,0.435,-0.23
2021-08-01 00:42:27.892,0.42,-0.27
2021-08-01 00:42:27.896,0.39,-0.255
2021-08-01 00:42:27.900,0.385,-0.235
2021-08-01 00:42:27.904,0.375,-0.23
2021-08-01 00:42:27.908,0.33,-0.25
2021-08-01 00:42:27.912,0.335,-0.225
2021-08-01 00:42:27.916,0.34,-0.22
2021-08-01 00:42:27.920,0.325,-0.235
2021-08-01 00:42:27.924,0.33,-0.17
2021-08-01 00:42:27.928,0.36,-0.095
2021-08-01 00:42:27.932,0.37,-0.065
2021-08-01 00:42:27.936,0.37,-0.28
2021-08-01 00:42:27.940,0.36,-0.47
2021-08-01 00:42:27.944,0.355,-0.495
2021-08-01 00:42:27.948,0.39,-0.46
2021-08-01 00:42:27.952,0.425,-0.4
2021-08-01 00:42:27.956,0.41,-0.37
2021-08-01 00:42:27.960,0.4,-0.34
2021-08-01 00:42:27.964,0.385,-0.305
2021-08-01 00:42:27.968,0.39,-0.31
2021-08-01 00:42:27.972,0.39,-0.35
2021-08-01 00:42:27.976,0.39,-0.375
2021-08-01 00:42:27.980,0.415,-0.34
2021-08-01 00:42:27.984,0.425,-0.295
2021-08-01 00:42:27.988,0.415,-0.25
2021-08-01 00:42:27.992,0.43,-0.225
2021-08-01 00:42:27.996,0.485,-0.145
2021-08-01 00:42:28.000,0.52,-0.05
2021-08-01 00:42:28.004,0.635,0.125
2021-08-01 00:42:28.008,0.75,0.36
2021-08-01 00:42:28.012,0.73,0.505
2021-08-01 00:42:28.016,0.48,0.72
2021-08-01 00:42:28.020,-0.08,1.02
2021-08-01 00:42:28.024,-0.855,1.275
2021-08-01 00:42:28.028,-1.49,1.515
2021-08-01 00:42:28.052,-1.985,1.91
2021-08-01 00:42:28.056,-1.83,1.81
2021-08-01 00:42:28.060,-1.685,1.775
2021-08-01 00:42:28.064,-1.575,1.905
2021-08-01 00:42:28.068,-1.48,1.97
2021-08-01 00:42:28.072,-1.35,1.905
2021-08-01 00:42:28.076,-1.225,1.56
2021-08-01 00:42:28.080,-1.05,0.97
2021-08-01 00:42:28.084,-0.985,0.33
2021-08-01 00:42:28.088,-0.895,-0.195
2021-08-01 00:42:28.092,-0.755,-0.505
2021-08-01 00:42:28.096,-0.615,-0.7
2021-08-01 00:42:28.100,-0.45,-0.75
2021-08-01 00:42:28.104,-0.245,-0.785
2021-08-01 00:42:28.108,0.005,-0.79
2021-08-01 00:42:28.112,0.2,-0.815
2021-08-01 00:42:28.116,0.38,-0.845
2021-08-01 00:42:28.120,0.515,-0.81
2021-08-01 00:42:28.124,0.635,-0.82
2021-08-01 00:42:28.128,0.685,-0.89
2021-08-01 00:42:28.132,0.715,-0.94
2021-08-01 00:42:28.136,0.74,-0.9
2021-08-01 00:42:28.140,0.775,-0.9
2021-08-01 00:42:28.144,0.805,-0.905
2021-08-01 00:42:28.148,0.79,-0.935
2021-08-01 00:42:28.152,0.805,-0.895
2021-08-01 00:42:28.156,0.845,-0.895
2021-08-01 00:42:28.160,0.84,-0.885
2021-08-01 00:42:28.164,0.85,-0.875
2021-08-01 00:42:28.168,0.84,-0.86
2021-08-01 00:42:28.172,0.84,-0.825
2021-08-01 00:42:28.176,0.89,-0.815
2021-08-01 00:42:28.180,0.96,-0.855
2021-08-01 00:42:28.184,0.96,-0.865
2021-08-01 00:42:28.188,0.96,-0.865
2021-08-01 00:42:28.192,0.885,-0.88
2021-08-01 00:42:28.196,0.87,-0.87
2021-08-01 00:42:28.200,0.845,-0.89
2021-08-01 00:42:28.204,0.84,-0.89
2021-08-01 00:42:28.208,0.845,-0.87
2021-08-01 00:42:28.212,0.9,-0.86
2021-08-01 00:42:28.216,0.91,-0.84
2021-08-01 00:42:28.220,0.94,-0.865
2021-08-01 00:42:28.224,0.965,-0.885
2021-08-01 00:42:28.228,0.98,-0.885
2021-08-01 00:42:28.232,1.025,-0.915
2021-08-01 00:42:28.236,1.035,-0.945
2021-08-01 00:42:28.240,1.09,-0.955
2021-08-01 00:42:28.244,1.105,-0.945
2021-08-01 00:42:28.248,1.105,-1.005
2021-08-01 00:42:28.252,1.135,-1.035
2021-08-01 00:42:28.256,1.14,-1.0
2021-08-01 00:42:28.260,1.13,-0.895
2021-08-01 00:42:28.264,1.1,-0.945
2021-08-01 00:42:28.268,1.09,-1.04
2021-08-01 00:42:28.272,1.065,-1.04
2021-08-01 00:42:28.276,1.06,-0.94
2021-08-01 00:42:28.280,1.03,-0.83
2021-08-01 00:42:28.284,0.99,-0.79
2021-08-01 00:42:28.288,0.955,-0.775
2021-08-01 00:42:28.292,0.9,-0.745
2021-08-01 00:42:28.296,0.855,-0.675
2021-08-01 00:42:28.300,0.8,-0.65
2021-08-01 00:42:28.304,0.72,-0.585
2021-08-01 00:42:28.308,0.665,-0.555
2021-08-01 00:42:28.312,0.63,-0.555
2021-08-01 00:42:28.316,0.575,-0.55
2021-08-01 00:42:28.320,0.525,-0.485
2021-08-01 00:42:28.324,0.49,-0.46
2021-08-01 00:42:28.328,0.485,-0.485
2021-08-01 00:42:28.332,0.42,-0.515
2021-08-01 00:42:28.336,0.41,-0.535
2021-08-01 00:42:28.340,0.385,-0.545
2021-08-01 00:42:28.344,0.345,-0.475
2021-08-01 00:42:28.348,0.3,-0.49
2021-08-01 00:42:28.352,0.315,-0.505
2021-08-01 00:42:28.356,0.305,-0.53
2021-08-01 00:42:28.360,0.26,-0.555
2021-08-01 00:42:28.364,0.2,-0.57
2021-08-01 00:42:28.368,0.175,-0.565
2021-08-01 00:42:28.372,0.14,-0.505
2021-08-01 00:42:28.376,0.15,-0.515
2021-08-01 00:42:28.380,0.15,-0.595
2021-08-01 00:42:28.384,0.125,-0.69
2021-08-01 00:42:28.388,0.11,-0.705
2021-08-01 00:42:28.392,0.14,-0.65
2021-08-01 00:42:28.396,0.165,-0.63
2021-08-01 00:42:28.400,0.19,-0.61
2021-08-01 00:42:28.404,0.195,-0.62
2021-08-01 00:42:28.408,0.235,-0.645
2021-08-01 00:42:28.412,0.23,-0.635
2021-08-01 00:42:28.416,0.215,-0.63
2021-08-01 00:42:28.420,0.215,-0.615
2021-08-01 00:42:28.424,0.235,-0.59
2021-08-01 00:42:28.428,0.24,-0.575
2021-08-01 00:42:28.432,0.26,-0.6
2021-08-01 00:42:28.436,0.235,-0.58
2021-08-01 00:42:28.440,0.26,-0.56
2021-08-01 00:42:28.444,0.25,-0.545
2021-08-01 00:42:28.448,0.29,-0.545
2021-08-01 00:42:28.452,0.29,-0.52
2021-08-01 00:42:28.456,0.3,-0.46
2021-08-01 00:42:28.460,0.245,-0.515
2021-08-01 00:42:28.464,0.26,-0.575
2021-08-01 00:42:28.468,0.25,-0.52
2021-08-01 00:42:28.472,0.22,-0.51
2021-08-01 00:42:28.476,0.225,-0.5
2021-08-01 00:42:28.480,0.285,-0.52
2021-08-01 00:42:28.484,0.3,-0.53
2021-08-01 00:42:28.488,0.29,-0.565
2021-08-01 00:42:28.492,0.295,-0.555
2021-08-01 00:42:28.496,0.26,-0.545
2021-08-01 00:42:28.500,0.235,-0.515
2021-08-01 00:42:28.504,0.235,-0.53
2021-08-01 00:42:28.508,0.185,-0.535
2021-08-01 00:42:28.512,0.135,-0.5
2021-08-01 00:42:28.516,0.135,-0.55
2021-08-01 00:42:28.520,0.155,-0.55
2021-08-01 00:42:28.524,0.145,-0.565
2021-08-01 00:42:28.528,0.095,-0.515
2021-08-01 00:42:28.532,0.085,-0.525
2021-08-01 00:42:28.536,0.05,-0.535
2021-08-01 00:42:28.540,0.05,-0.57
2021-08-01 00:42:28.544,0.095,-0.585
2021-08-01 00:42:28.548,0.115,-0.555
2021-08-01 00:42:28.552,0.13,-0.515
2021-08-01 00:42:28.556,0.12,-0.455
2021-08-01 00:42:28.560,0.11,-0.44
2021-08-01 00:42:28.564,0.105,-0.555
2021-08-01 00:42:28.568,0.11,-0.665
2021-08-01 00:42:28.572,0.12,-0.65
2021-08-01 00:42:28.576,0.095,-0.63
2021-08-01 00:42:28.580,0.125,-0.59
2021-08-01 00:42:28.584,0.11,-0.58
2021-08-01 00:42:28.588,0.115,-0.57
2021-08-01 00:42:28.592,0.155,-0.56
2021-08-01 00:42:28.596,0.145,-0.53
2021-08-01 00:42:28.600,0.12,-0.51
2021-08-01 00:42:28.604,0.135,-0.5
2021-08-01 00:42:28.608,0.125,-0.49
2021-08-01 00:42:28.612,0.17,-0.505
2021-08-01 00:42:28.616,0.16,-0.425
2021-08-01 00:42:28.620,0.155,-0.245
2021-08-01 00:42:28.624,0.19,0.035
2021-08-01 00:42:28.628,0.275,0.325
2021-08-01 00:42:28.632,0.28,0.54
2021-08-01 00:42:28.636,0.12,0.75
2021-08-01 00:42:28.640,-0.295,1.03
2021-08-01 00:42:28.644,-0.89,1.305
2021-08-01 00:42:28.648,-1.49,1.52
2021-08-01 00:42:28.684,-1.915,1.58
2021-08-01 00:42:28.688,-1.83,1.64
2021-08-01 00:42:28.692,-1.74,1.76
2021-08-01 00:42:28.696,-1.635,1.82
2021-08-01 00:42:28.700,-1.54,1.61
2021-08-01 00:42:28.704,-1.43,1.055
2021-08-01 00:42:28.708,-1.285,0.375
2021-08-01 00:42:28.712,-1.15,-0.115
2021-08-01 00:42:28.716,-0.98,-0.475
2021-08-01 00:42:28.720,-0.865,-0.835
2021-08-01 00:42:28.724,-0.735,-0.995
2021-08-01 00:42:28.728,-0.575,-0.94
2021-08-01 00:42:28.732,-0.31,-0.94
2021-08-01 00:42:28.736,-0.08,-0.935
2021-08-01 00:42:28.740,0.075,-0.935
2021-08-01 00:42:28.744,0.225,-0.985
2021-08-01 00:42:28.748,0.29,-1.015
2021-08-01 00:42:28.752,0.365,-1.0
2021-08-01 00:42:28.756,0.455,-0.985
2021-08-01 00:42:28.760,0.495,-1.015
2021-08-01 00:42:28.764,0.545,-1.04
2021-08-01 00:42:28.768,0.59,-1.05
2021-08-01 00:42:28.772,0.615,-1.03
2021-08-01 00:42:28.776,0.62,-1.005
2021-08-01 00:42:28.780,0.61,-1.005
2021-08-01 00:42:28.784,0.63,-1.02
2021-08-01 00:42:28.788,0.67,-1.04
2021-08-01 00:42:28.792,0.71,-1.01
2021-08-01 00:42:28.796,0.715,-0.96
2021-08-01 00:42:28.800,0.74,-0.94
2021-08-01 00:42:28.804,0.795,-0.955
2021-08-01 00:42:28.808,0.815,-0.98
2021-08-01 00:42:28.812,0.82,-0.97
2021-08-01 00:42:28.816,0.845,-0.99
2021-08-01 00:42:28.820,0.85,-0.995
2021-08-01 00:42:28.824,0.865,-1.02
2021-08-01 00:42:28.828,0.87,-0.965
2021-08-01 00:42:28.832,0.83,-0.935
2021-08-01 00:42:28.836,0.82,-1.005
2021-08-01 00:42:28.840,0.845,-1.055
2021-08-01 00:42:28.844,0.9,-1.045
2021-08-01 00:42:28.848,0.9,-0.99
2021-08-01 00:42:28.852,0.895,-0.99
2021-08-01 00:42:28.856,0.88,-1.065
2021-08-01 00:42:28.860,0.86,-1.17
2021-08-01 00:42:28.864,0.895,-1.16
2021-08-01 00:42:28.868,0.925,-1.15
2021-08-01 00:42:28.872,0.95,-1.095
2021-08-01 00:42:28.876,0.97,-1.085
2021-08-01 00:42:28.880,1.01,-1.13
2021-08-01 00:42:28.884,1.045,-1.125
2021-08-01 00:42:28.888,1.05,-1.11
2021-08-01 00:42:28.892,1.115,-1.08
2021-08-01 00:42:28.896,1.07,-1.095
2021-08-01 00:42:28.900,0.965,-1.07
2021-08-01 00:42:28.904,0.91,-1.04
2021-08-01 00:42:28.908,0.915,-1.0
2021-08-01 00:42:28.912,0.91,-0.96
2021-08-01 00:42:28.916,0.87,-0.93
2021-08-01 00:42:28.920,0.81,-0.845
2021-08-01 00:42:28.924,0.79,-0.85
2021-08-01 00:42:28.928,0.77,-0.8
2021-08-01 00:42:28.932,0.72,-0.67
2021-08-01 00:42:28.936,0.68,-0.565
2021-08-01 00:42:28.940,0.67,-0.575
2021-08-01 00:42:28.944,0.635,-0.635
2021-08-01 00:42:28.948,0.625,-0.6
2021-08-01 00:42:28.952,0.6,-0.51
2021-08-01 00:42:28.956,0.56,-0.495
2021-08-01 00:42:28.960,0.475,-0.46
2021-08-01 00:42:28.964,0.375,-0.455
2021-08-01 00:42:28.968,0.275,-0.51
2021-08-01 00:42:28.972,0.275,-0.53
2021-08-01 00:42:28.976,0.33,-0.515
2021-08-01 00:42:28.980,0.31,-0.485
2021-08-01 00:42:28.984,0.23,-0.475
2021-08-01 00:42:28.988,0.18,-0.525
2021-08-01 00:42:28.992,0.16,-0.58
2021-08-01 00:42:28.996,0.105,-0.605
2021-08-01 00:42:29.000,0.11,-0.6
2021-08-01 00:42:29.004,0.125,-0.64
2021-08-01 00:42:29.008,0.065,-0.655
2021-08-01 00:42:29.012,0.025,-0.54
2021-08-01 00:42:29.016,-0.05,-0.58
2021-08-01 00:42:29.020,0.0,-0.695
2021-08-01 00:42:29.024,0.06,-0.7
2021-08-01 00:42:29.028,0.06,-0.665
2021-08-01 00:42:29.032,0.0,-0.68
2021-08-01 00:42:29.036,-0.055,-0.68
2021-08-01 00:42:29.040,0.045,-0.685
2021-08-01 00:42:29.044,0.14,-0.685
2021-08-01 00:42:29.048,0.13,-0.66
2021-08-01 00:42:29.052,0.065,-0.715
2021-08-01 00:42:29.056,0.005,-0.755
2021-08-01 00:42:29.060,-0.06,-0.76
2021-08-01 00:42:29.064,-0.02,-0.715
2021-08-01 00:42:29.068,0.025,-0.74
2021-08-01 00:42:29.072,0.05,-0.825
2021-08-01 00:42:29.076,0.065,-0.835
2021-08-01 00:42:29.080,0.025,-0.805
2021-08-01 00:42:29.084,0.005,-0.78
2021-08-01 00:42:29.088,-0.015,-0.765
2021-08-01 00:42:29.092,-0.04,-0.755
2021-08-01 00:42:29.096,-0.02,-0.74
2021-08-01 00:42:29.100,-0.02,-0.72
2021-08-01 00:42:29.104,-0.025,-0.755
2021-08-01 00:42:29.108,-0.015,-0.85
2021-08-01 00:42:29.112,0.0,-0.905
2021-08-01 00:42:29.116,0.015,-0.83
2021-08-01 00:42:29.120,0.0,-0.72
2021-08-01 00:42:29.124,0.015,-0.715
2021-08-01 00:42:29.128,0.055,-0.75
2021-08-01 00:42:29.132,0.075,-0.805
2021-08-01 00:42:29.136,0.1,-0.82
2021-08-01 00:42:29.140,0.06,-0.785
2021-08-01 00:42:29.144,-0.035,-0.785
2021-08-01 00:42:29.148,-0.055,-0.8
2021-08-01 00:42:29.152,-0.05,-0.8
2021-08-01 00:42:29.156,0.0,-0.77
2021-08-01 00:42:29.160,0.02,-0.72
2021-08-01 00:42:29.164,0.03,-0.715
2021-08-01 00:42:29.168,0.125,-0.725
2021-08-01 00:42:29.172,-0.02,-0.735
2021-08-01 00:42:29.176,-0.38,-0.705
2021-08-01 00:42:29.180,-0.57,-0.705
2021-08-01 00:42:29.184,-0.54,-0.72
2021-08-01 00:42:29.188,-0.445,-0.675
2021-08-01 00:42:29.192,-0.335,-0.61
2021-08-01 00:42:29.196,-0.27,-0.595
2021-08-01 00:42:29.200,-0.215,-0.595
2021-08-01 00:42:29.204,-0.14,-0.595
2021-08-01 00:42:29.208,-0.11,-0.6
2021-08-01 00:42:29.212,-0.125,-0.585
2021-08-01 00:42:29.216,-0.125,-0.625
2021-08-01 00:42:29.220,-0.15,-0.66
2021-08-01 00:42:29.224,-0.135,-0.625
2021-08-01 00:42:29.228,-0.135,-0.575
2021-08-01 00:42:29.232,-0.11,-0.605
2021-08-01 00:42:29.236,-0.105,-0.62
2021-08-01 00:42:29.240,-0.105,-0.64
2021-08-01 00:42:29.244,-0.02,-0.635
2021-08-01 00:42:29.248,-0.02,-0.65
2021-08-01 00:42:29.252,-0.12,-0.625
2021-08-01 00:42:29.256,-0.16,-0.59
2021-08-01 00:42:29.260,-0.12,-0.625
2021-08-01 00:42:29.264,-0.085,-0.585
2021-08-01 00:42:29.268,-0.14,-0.61
2021-08-01 00:42:29.272,-0.175,-0.615
2021-08-01 00:42:29.276,-0.165,-0.545
2021-08-01 00:42:29.280,-0.175,-0.515
2021-08-01 00:42:29.284,-0.215,-0.565
2021-08-01 00:42:29.288,-0.18,-0.585
2021-08-01 00:42:29.292,-0.205,-0.54
2021-08-01 00:42:29.296,-0.24,-0.535
2021-08-01 00:42:29.300,-0.28,-0.54
2021-08-01 00:42:29.304,-0.4,-0.51
2021-08-01 00:42:29.308,-0.475,-0.505
2021-08-01 00:42:29.312,-0.49,-0.5
2021-08-01 00:42:29.316,-0.525,-0.535
2021-08-01 00:42:29.320,-0.595,-0.575
2021-08-01 00:42:29.324,-0.66,-0.555
2021-08-01 00:42:29.328,-0.745,-0.505
2021-08-01 00:42:29.332,-0.81,-0.555
2021-08-01 00:42:29.336,-0.84,-0.605
2021-08-01 00:42:29.340,-0.84,-0.59
2021-08-01 00:42:29.344,-0.86,-0.605
2021-08-01 00:42:29.348,-0.98,-0.595
2021-08-01 00:42:29.352,-1.13,-0.57
2021-08-01 00:42:29.356,-1.175,-0.58
2021-08-01 00:42:29.360,-1.2,-0.625
2021-08-01 00:42:29.364,-1.195,-0.64
2021-08-01 00:42:29.368,-1.17,-0.65
2021-08-01 00:42:29.372,-1.165,-0.61
2021-08-01 00:42:29.376,-1.13,-0.59
2021-08-01 00:42:29.380,-1.15,-0.55
2021-08-01 00:42:29.384,-1.22,-0.505
2021-08-01 00:42:29.388,-1.22,-0.52
2021-08-01 00:42:29.392,-1.245,-0.575
2021-08-01 00:42:29.396,-1.25,-0.585
2021-08-01 00:42:29.400,-1.23,-0.63
2021-08-01 00:42:29.404,-1.23,-0.64
2021-08-01 00:42:29.408,-1.21,-0.63
2021-08-01 00:42:29.412,-1.225,-0.6
2021-08-01 00:42:29.416,-1.21,-0.615
2021-08-01 00:42:29.420,-1.205,-0.63
2021-08-01 00:42:29.424,-1.17,-0.61
2021-08-01 00:42:29.428,-1.17,-0.56
2021-08-01 00:42:29.432,-1.22,-0.515
2021-08-01 00:42:29.436,-1.195,-0.485
2021-08-01 00:42:29.440,-1.19,-0.505
2021-08-01 00:42:29.444,-1.195,-0.5
2021-08-01 00:42:29.448,-1.23,-0.555
2021-08-01 00:42:29.452,-1.225,-0.565
2021-08-01 00:42:29.456,-1.205,-0.525
2021-08-01 00:42:29.460,-1.205,-0.46
2021-08-01 00:42:29.464,-1.22,-0.465
2021-08-01 00:42:29.468,-1.245,-0.435
2021-08-01 00:42:29.472,-1.3,-0.435
2021-08-01 00:42:29.476,-1.275,-0.43
2021-08-01 00:42:29.480,-1.26,-0.45
2021-08-01 00:42:29.484,-1.295,-0.455
2021-08-01 00:42:29.488,-1.305,-0.465
2021-08-01 00:42:29.492,-1.25,-0.46
2021-08-01 00:42:29.496,-1.205,-0.455
2021-08-01 00:42:29.500,-1.225,-0.485
2021-08-01 00:42:29.504,-1.275,-0.495
2021-08-01 00:42:29.508,-1.315,-0.455
2021-08-01 00:42:29.512,-1.31,-0.43
2021-08-01 00:42:29.516,-1.295,-0.48
2021-08-01 00:42:29.520,-1.275,-0.555
2021-08-01 00:42:29.524,-1.27,-0.55
2021-08-01 00:42:29.528,-1.235,-0.53
2021-08-01 00:42:29.532,-1.22,-0.53
2021-08-01 00:42:29.536,-1.15,-0.53
2021-08-01 00:42:29.540,-1.085,-0.48
2021-08-01 00:42:29.544,-0.95,-0.46
2021-08-01 00:42:29.548,-1.05,-0.44
2021-08-01 00:42:29.552,-1.235,-0.455
2021-08-01 00:42:29.556,-1.345,-0.525
2021-08-01 00:42:29.560,-1.275,-0.55
2021-08-01 00:42:29.564,-1.18,-0.525
2021-08-01 00:42:29.568,-1.105,-0.46
2021-08-01 00:42:29.572,-1.085,-0.42
2021-08-01 00:42:29.576,-1.105,-0.435
2021-08-01 00:42:29.580,-1.155,-0.44
2021-08-01 00:42:29.584,-1.16,-0.415
2021-08-01 00:42:29.588,-1.215,-0.4
2021-08-01 00:42:29.592,-1.235,-0.31
2021-08-01 00:42:29.596,-1.195,-0.13
2021-08-01 00:42:29.600,-1.135,0.115
2021-08-01 00:42:29.604,-1.1,0.5
2021-08-01 00:42:29.608,-1.17,0.855
2021-08-01 00:42:29.612,-1.36,1.065
2021-08-01 00:42:29.616,-1.675,1.225
2021-08-01 00:42:29.696,-1.92,-0.595
2021-08-01 00:42:29.700,-1.76,-0.705
2021-08-01 00:42:29.704,-1.555,-0.79
2021-08-01 00:42:29.708,-1.395,-0.81
2021-08-01 00:42:29.712,-1.29,-0.82
2021-08-01 00:42:29.716,-1.235,-0.85
2021-08-01 00:42:29.720,-1.135,-0.81
2021-08-01 00:42:29.724,-1.01,-0.845
2021-08-01 00:42:29.728,-0.825,-0.855
2021-08-01 00:42:29.732,-0.71,-0.825
2021-08-01 00:42:29.736,-0.585,-0.775
2021-08-01 00:42:29.740,-0.52,-0.79
2021-08-01 00:42:29.744,-0.58,-0.83
2021-08-01 00:42:29.748,-0.68,-0.87
2021-08-01 00:42:29.752,-0.725,-0.88
2021-08-01 00:42:29.756,-0.655,-0.86
2021-08-01 00:42:29.760,-0.55,-0.84
2021-08-01 00:42:29.764,-0.56,-0.825
2021-08-01 00:42:29.768,-0.58,-0.845
2021-08-01 00:42:29.772,-0.5,-0.875
2021-08-01 00:42:29.776,-0.455,-0.88
2021-08-01 00:42:29.780,-0.51,-0.88
2021-08-01 00:42:29.784,-0.475,-0.855
2021-08-01 00:42:29.788,-0.48,-0.88
2021-08-01 00:42:29.792,-0.515,-0.96
2021-08-01 00:42:29.796,-0.53,-0.945
2021-08-01 00:42:29.800,-0.515,-0.95
2021-08-01 00:42:29.804,-0.475,-0.95
2021-08-01 00:42:29.808,-0.435,-0.945
2021-08-01 00:42:29.812,-0.375,-0.93
2021-08-01 00:42:29.816,-0.295,-0.98
2021-08-01 00:42:29.820,-0.33,-0.995
2021-08-01 00:42:29.824,-0.39,-1.04
2021-08-01 00:42:29.828,-0.425,-1.06
2021-08-01 00:42:29.832,-0.34,-1.025
2021-08-01 00:42:29.836,-0.23,-1.01
2021-08-01 00:42:29.840,-0.11,-1.02
2021-08-01 00:42:29.844,-0.135,-1.0
2021-08-01 00:42:29.848,-0.205,-0.995
2021-08-01 00:42:29.852,-0.23,-1.015
2021-08-01 00:42:29.856,-0.165,-1.015
2021-08-01 00:42:29.860,-0.03,-1.055
2021-08-01 00:42:29.864,0.0,-1.02
2021-08-01 00:42:29.868,-0.135,-1.02
2021-08-01 00:42:29.872,-0.185,-1.03
2021-08-01 00:42:29.876,-0.2,-1.045
2021-08-01 00:42:29.880,-0.175,-0.98
2021-08-01 00:42:29.884,-0.13,-0.895
2021-08-01 00:42:29.888,-0.13,-0.795
2021-08-01 00:42:29.892,-0.14,-0.75
2021-08-01 00:42:29.896,-0.14,-0.79
2021-08-01 00:42:29.900,-0.18,-0.775
2021-08-01 00:42:29.904,-0.25,-0.685
2021-08-01 00:42:29.908,-0.305,-0.68
2021-08-01 00:42:29.912,-0.31,-0.55
2021-08-01 00:42:29.916,-0.29,-0.465
2021-08-01 00:42:29.920,-0.325,-0.45
2021-08-01 00:42:29.924,-0.325,-0.465
2021-08-01 00:42:29.928,-0.32,-0.415
2021-08-01 00:42:29.932,-0.385,-0.335
2021-08-01 00:42:29.936,-0.485,-0.305
2021-08-01 00:42:29.940,-0.44,-0.3
2021-08-01 00:42:29.944,-0.555,-0.325
2021-08-01 00:42:29.948,-0.64,-0.32
2021-08-01 00:42:29.952,-0.815,-0.275
2021-08-01 00:42:29.956,-0.89,-0.3
2021-08-01 00:42:29.960,-0.875,-0.355
2021-08-01 00:42:29.964,-0.875,-0.35
2021-08-01 00:42:29.968,-0.835,-0.335
2021-08-01 00:42:29.972,-0.765,-0.36
2021-08-01 00:42:29.976,-0.675,-0.39
2021-08-01 00:42:29.980,-0.765,-0.38
2021-08-01 00:42:29.984,-0.925,-0.36
2021-08-01 00:42:29.988,-1.01,-0.355
2021-08-01 00:42:29.992,-0.985,-0.385
2021-08-01 00:42:29.996,-0.9,-0.375
2021-08-01 00:42:30.000,-0.885,-0.355
2021-08-01 00:42:30.004,-0.865,-0.45
2021-08-01 00:42:30.008,-0.91,-0.475
2021-08-01 00:42:30.012,-1.045,-0.445
2021-08-01 00:42:30.016,-1.19,-0.45
2021-08-01 00:42:30.020,-1.23,-0.51
2021-08-01 00:42:30.024,-1.195,-0.515
2021-08-01 00:42:30.028,-1.13,-0.48
2021-08-01 00:42:30.032,-1.075,-0.44
2021-08-01 00:42:30.036,-1.02,-0.445
2021-08-01 00:42:30.040,-1.025,-0.435
2021-08-01 00:42:30.044,-0.995,-0.375
2021-08-01 00:42:30.048,-0.965,-0.385
2021-08-01 00:42:30.052,-0.935,-0.44
2021-08-01 00:42:30.056,-0.86,-0.475
2021-08-01 00:42:30.060,-0.865,-0.515
2021-08-01 00:42:30.064,-0.87,-0.46
2021-08-01 00:42:30.068,-0.975,-0.375
2021-08-01 00:42:30.072,-1.13,-0.4
2021-08-01 00:42:30.076,-1.26,-0.425
2021-08-01 00:42:30.080,-1.23,-0.37
2021-08-01 00:42:30.084,-1.125,-0.3
2021-08-01 00:42:30.088,-1.01,-0.26
2021-08-01 00:42:30.092,-0.96,-0.16
2021-08-01 00:42:30.096,-0.87,0.075
2021-08-01 00:42:30.100,-0.835,0.365
2021-08-01 00:42:30.104,-0.91,0.575
2021-08-01 00:42:30.108,-1.145,0.775
2021-08-01 00:42:30.112,-1.5,1.01
2021-08-01 00:42:30.196,-1.85,-0.72
2021-08-01 00:42:30.200,-1.725,-0.795
2021-08-01 00:42:30.204,-1.52,-0.855
2021-08-01 00:42:30.208,-1.35,-0.825
2021-08-01 00:42:30.212,-1.2,-0.82
2021-08-01 00:42:30.216,-1.105,-0.77
2021-08-01 00:42:30.220,-1.08,-0.755
2021-08-01 00:42:30.224,-1.075,-0.765
2021-08-01 00:42:30.228,-1.06,-0.8
2021-08-01 00:42:30.232,-0.97,-0.81
2021-08-01 00:42:30.236,-0.94,-0.76
2021-08-01 00:42:30.240,-1.02,-0.77
2021-08-01 00:42:30.244,-1.085,-0.755
2021-08-01 00:42:30.248,-1.045,-0.765
2021-08-01 00:42:30.252,-0.94,-0.725
2021-08-01 00:42:30.256,-0.87,-0.73
2021-08-01 00:42:30.260,-0.93,-0.695
2021-08-01 00:42:30.264,-0.92,-0.695
2021-08-01 00:42:30.268,-0.88,-0.74
2021-08-01 00:42:30.272,-0.765,-0.755
2021-08-01 00:42:30.276,-0.775,-0.765
2021-08-01 00:42:30.280,-0.805,-0.745
2021-08-01 00:42:30.284,-0.765,-0.725
2021-08-01 00:42:30.288,-0.76,-0.73
2021-08-01 00:42:30.292,-0.82,-0.675
2021-08-01 00:42:30.296,-0.795,-0.67
2021-08-01 00:42:30.300,-0.7,-0.705
2021-08-01 00:42:30.304,-0.585,-0.74
2021-08-01 00:42:30.308,-0.6,-0.77
2021-08-01 00:42:30.312,-0.64,-0.76
2021-08-01 00:42:30.316,-0.595,-0.82
2021-08-01 00:42:30.320,-0.46,-0.88
2021-08-01 00:42:30.324,-0.34,-0.865
2021-08-01 00:42:30.328,-0.325,-0.88
2021-08-01 00:42:30.332,-0.455,-0.87
2021-08-01 00:42:30.336,-0.535,-0.815
2021-08-01 00:42:30.340,-0.495,-0.855
2021-08-01 00:42:30.344,-0.455,-0.895
2021-08-01 00:42:30.348,-0.375,-0.905
2021-08-01 00:42:30.352,-0.43,-0.9
2021-08-01 00:42:30.356,-0.495,-0.845
2021-08-01 00:42:30.360,-0.37,-0.8
2021-08-01 00:42:30.364,-0.295,-0.82
2021-08-01 00:42:30.368,-0.41,-0.83
2021-08-01 00:42:30.372,-0.45,-0.735
2021-08-01 00:42:30.376,-0.535,-0.685
2021-08-01 00:42:30.380,-0.615,-0.69
2021-08-01 00:42:30.384,-0.7,-0.62
2021-08-01 00:42:30.388,-0.78,-0.545
2021-08-01 00:42:30.392,-0.835,-0.5
2021-08-01 00:42:30.396,-0.855,-0.49
2021-08-01 00:42:30.400,-0.855,-0.465
2021-08-01 00:42:30.404,-0.845,-0.455
2021-08-01 00:42:30.408,-0.88,-0.465
2021-08-01 00:42:30.412,-0.905,-0.42
2021-08-01 00:42:30.416,-0.845,-0.38
2021-08-01 00:42:30.420,-0.775,-0.35
2021-08-01 00:42:30.424,-0.85,-0.34
2021-08-01 00:42:30.428,-1.045,-0.41
2021-08-01 00:42:30.432,-1.285,-0.45
2021-08-01 00:42:30.436,-1.335,-0.45
2021-08-01 00:42:30.440,-1.35,-0.4
2021-08-01 00:42:30.444,-1.385,-0.375
2021-08-01 00:42:30.448,-1.27,-0.39
2021-08-01 00:42:30.452,-1.215,-0.365
2021-08-01 00:42:30.456,-1.245,-0.31
2021-08-01 00:42:30.460,-1.08,-0.315
2021-08-01 00:42:30.464,-1.005,-0.325
2021-08-01 00:42:30.468,-1.125,-0.345
2021-08-01 00:42:30.472,-1.22,-0.33
2021-08-01 00:42:30.476,-1.075,-0.34
2021-08-01 00:42:30.480,-0.95,-0.33
2021-08-01 00:42:30.484,-1.085,-0.25
2021-08-01 00:42:30.488,-1.245,-0.225
2021-08-01 00:42:30.492,-1.195,-0.25
2021-08-01 00:42:30.496,-1.16,-0.32
2021-08-01 00:42:30.500,-1.24,-0.34
2021-08-01 00:42:30.504,-1.235,-0.295
2021-08-01 00:42:30.508,-1.275,-0.255
2021-08-01 00:42:30.512,-1.335,-0.255
2021-08-01 00:42:30.516,-1.275,-0.265
2021-08-01 00:42:30.520,-1.14,-0.29
2021-08-01 00:42:30.524,-0.99,-0.305
2021-08-01 00:42:30.528,-1.105,-0.275
2021-08-01 00:42:30.532,-1.32,-0.245
2021-08-01 00:42:30.536,-1.345,-0.24
2021-08-01 00:42:30.540,-1.225,-0.26
2021-08-01 00:42:30.544,-1.22,-0.32
2021-08-01 00:42:30.548,-1.19,-0.295
2021-08-01 00:42:30.552,-1.165,-0.285
2021-08-01 00:42:30.556,-1.18,-0.295
2021-08-01 00:42:30.560,-1.225,-0.31
2021-08-01 00:42:30.564,-1.205,-0.295
2021-08-01 00:42:30.568,-1.08,-0.275
2021-08-01 00:42:30.572,-1.05,-0.26
2021-08-01 00:42:30.576,-1.155,-0.235
2021-08-01 00:42:30.580,-1.255,-0.265
2021-08-01 00:42:30.584,-1.215,-0.29
2021-08-01 00:42:30.588,-1.24,-0.32
2021-08-01 00:42:30.592,-1.295,-0.36
2021-08-01 00:42:30.596,-1.195,-0.305
2021-08-01 00:42:30.600,-1.22,-0.25
2021-08-01 00:42:30.604,-1.405,-0.315
2021-08-01 00:42:30.608,-1.48,-0.415
2021-08-01 00:42:30.612,-1.4,-0.395
2021-08-01 00:42:30.616,-1.35,-0.36
2021-08-01 00:42:30.620,-1.41,-0.355
2021-08-01 00:42:30.624,-1.395,-0.32
2021-08-01 00:42:30.628,-1.355,-0.315
2021-08-01 00:42:30.632,-1.315,-0.315
2021-08-01 00:42:30.636,-1.28,-0.335
2021-08-01 00:42:30.640,-1.19,-0.305
2021-08-01 00:42:30.644,-1.15,-0.265
2021-08-01 00:42:30.648,-1.245,-0.25
2021-08-01 00:42:30.652,-1.32,-0.245
2021-08-01 00:42:30.656,-1.32,-0.265
2021-08-01 00:42:30.660,-1.28,-0.29
2021-08-01 00:42:30.664,-1.255,-0.27
2021-08-01 00:42:30.668,-1.195,-0.23
2021-08-01 00:42:30.672,-1.12,-0.225
2021-08-01 00:42:30.676,-1.085,-0.275
2021-08-01 00:42:30.680,-1.1,-0.255
2021-08-01 00:42:30.684,-1.265,-0.24
2021-08-01 00:42:30.688,-1.395,-0.24
2021-08-01 00:42:30.692,-1.34,-0.255
2021-08-01 00:42:30.696,-1.26,-0.25
2021-08-01 00:42:30.700,-1.18,-0.27
2021-08-01 00:42:30.704,-1.135,-0.25
2021-08-01 00:42:30.708,-1.03,-0.19
2021-08-01 00:42:30.712,-1.045,-0.16
2021-08-01 00:42:30.716,-1.185,-0.18
2021-08-01 00:42:30.720,-1.22,-0.17
2021-08-01 00:42:30.724,-1.165,-0.095
2021-08-01 00:42:30.728,-1.155,0.1
2021-08-01 00:42:30.732,-1.055,0.375
2021-08-01 00:42:30.736,-0.95,0.585
2021-08-01 00:42:30.740,-1.125,0.74
2021-08-01 00:42:30.744,-1.49,0.905
2021-08-01 00:42:30.824,-1.92,-0.375
2021-08-01 00:42:30.828,-1.705,-0.455
2021-08-01 00:42:30.832,-1.55,-0.545
2021-08-01 00:42:30.836,-1.405,-0.53
2021-08-01 00:42:30.840,-1.16,-0.515
2021-08-01 00:42:30.844,-1.03,-0.47
2021-08-01 00:42:30.848,-0.98,-0.475
2021-08-01 00:42:30.852,-1.05,-0.56
2021-08-01 00:42:30.856,-1.025,-0.64
2021-08-01 00:42:30.860,-0.93,-0.65
2021-08-01 00:42:30.864,-0.86,-0.55
2021-08-01 00:42:30.868,-0.65,-0.55
2021-08-01 00:42:30.872,-0.46,-0.525
2021-08-01 00:42:30.876,-0.53,-0.51
2021-08-01 00:42:30.880,-0.685,-0.56
2021-08-01 00:42:30.884,-0.735,-0.63
2021-08-01 00:42:30.888,-0.605,-0.67
2021-08-01 00:42:30.892,-0.47,-0.655
2021-08-01 00:42:30.896,-0.525,-0.62
2021-08-01 00:42:30.900,-0.685,-0.565
2021-08-01 00:42:30.904,-0.72,-0.555
2021-08-01 00:42:30.908,-0.67,-0.56
2021-08-01 00:42:30.912,-0.605,-0.57
2021-08-01 00:42:30.916,-0.5,-0.575
2021-08-01 00:42:30.920,-0.43,-0.55
2021-08-01 00:42:30.924,-0.41,-0.54
2021-08-01 00:42:30.928,-0.39,-0.575
2021-08-01 00:42:30.932,-0.29,-0.625
2021-08-01 00:42:30.936,-0.24,-0.635
2021-08-01 00:42:30.940,-0.32,-0.64
2021-08-01 00:42:30.944,-0.305,-0.605
2021-08-01 00:42:30.948,-0.215,-0.6
2021-08-01 00:42:30.952,-0.1,-0.59
2021-08-01 00:42:30.956,-0.08,-0.615
2021-08-01 00:42:30.960,-0.11,-0.71
2021-08-01 00:42:30.964,-0.18,-0.715
2021-08-01 00:42:30.968,-0.285,-0.695
2021-08-01 00:42:30.972,-0.215,-0.72
2021-08-01 00:42:30.976,-0.125,-0.765
2021-08-01 00:42:30.980,-0.015,-0.75
2021-08-01 00:42:30.984,0.025,-0.71
2021-08-01 00:42:30.988,-0.085,-0.73
2021-08-01 00:42:30.992,-0.135,-0.785
2021-08-01 00:42:30.996,-0.065,-0.74
2021-08-01 00:42:31.000,0.0,-0.67
2021-08-01 00:42:31.004,-0.06,-0.64
2021-08-01 00:42:31.008,-0.24,-0.66
2021-08-01 00:42:31.012,-0.35,-0.65
2021-08-01 00:42:31.016,-0.4,-0.625
2021-08-01 00:42:31.020,-0.375,-0.56
2021-08-01 00:42:31.024,-0.37,-0.5
2021-08-01 00:42:31.028,-0.39,-0.48
2021-08-01 00:42:31.032,-0.405,-0.41
2021-08-01 00:42:31.036,-0.45,-0.33
2021-08-01 00:42:31.040,-0.485,-0.285
2021-08-01 00:42:31.044,-0.52,-0.28
2021-08-01 00:42:31.048,-0.545,-0.28
2021-08-01 00:42:31.052,-0.575,-0.225
2021-08-01 00:42:31.056,-0.6,-0.205
2021-08-01 00:42:31.060,-0.64,-0.175
2021-08-01 00:42:31.064,-0.69,-0.19
2021-08-01 00:42:31.068,-0.73,-0.19
2021-08-01 00:42:31.072,-0.7,-0.21
2021-08-01 00:42:31.076,-0.655,-0.23
2021-08-01 00:42:31.080,-0.64,-0.22
2021-08-01 00:42:31.084,-0.73,-0.225
2021-08-01 00:42:31.088,-0.845,-0.185
2021-08-01 00:42:31.092,-0.91,-0.22
2021-08-01 00:42:31.096,-0.99,-0.275
2021-08-01 00:42:31.100,-1.105,-0.265
2021-08-01 00:42:31.104,-1.125,-0.26
2021-08-01 00:42:31.108,-0.99,-0.195
2021-08-01 00:42:31.112,-0.775,-0.135
2021-08-01 00:42:31.116,-0.65,-0.195
2021-08-01 00:42:31.120,-0.64,-0.295
2021-08-01 00:42:31.124,-0.86,-0.275
2021-08-01 00:42:31.128,-1.075,-0.285
2021-08-01 00:42:31.132,-1.11,-0.26
2021-08-01 00:42:31.136,-1.14,-0.24
2021-08-01 00:42:31.140,-1.135,-0.255
2021-08-01 00:42:31.144,-1.14,-0.295
2021-08-01 00:42:31.148,-1.04,-0.3
2021-08-01 00:42:31.152,-0.945,-0.3
2021-08-01 00:42:31.156,-0.98,-0.29
2021-08-01 00:42:31.160,-1.045,-0.275
2021-08-01 00:42:31.164,-1.02,-0.285
2021-08-01 00:42:31.168,-0.98,-0.255
2021-08-01 00:42:31.172,-0.945,-0.225
2021-08-01 00:42:31.176,-0.94,-0.23
2021-08-01 00:42:31.180,-0.925,-0.24
2021-08-01 00:42:31.184,-0.905,-0.27
2021-08-01 00:42:31.188,-0.905,-0.32
2021-08-01 00:42:31.192,-0.885,-0.33
2021-08-01 00:42:31.196,-0.86,-0.295
2021-08-01 00:42:31.200,-0.83,-0.255
2021-08-01 00:42:31.204,-0.83,-0.245
2021-08-01 00:42:31.208,-0.79,-0.28
2021-08-01 00:42:31.212,-0.75,-0.295
2021-08-01 00:42:31.216,-0.695,-0.26
2021-08-01 00:42:31.220,-0.775,-0.205
2021-08-01 00:42:31.224,-0.855,-0.165
2021-08-01 00:42:31.228,-0.84,-0.015
2021-08-01 00:42:31.232,-0.74,0.2
2021-08-01 00:42:31.236,-0.75,0.365
2021-08-01 00:42:31.240,-0.8,0.52
2021-08-01 00:42:31.244,-0.86,0.685
2021-08-01 00:42:31.248,-1.09,0.95
2021-08-01 00:42:31.252,-1.55,1.235
2021-08-01 00:42:31.320,-1.935,-0.155
2021-08-01 00:42:31.324,-1.835,-0.44
2021-08-01 00:42:31.328,-1.745,-0.595
2021-08-01 00:42:31.332,-1.6,-0.655
2021-08-01 00:42:31.336,-1.355,-0.685
2021-08-01 00:42:31.340,-1.135,-0.665
2021-08-01 00:42:31.344,-0.905,-0.65
2021-08-01 00:42:31.348,-0.665,-0.635
2021-08-01 00:42:31.352,-0.47,-0.64
2021-08-01 00:42:31.356,-0.53,-0.625
2021-08-01 00:42:31.360,-0.665,-0.63
2021-08-01 00:42:31.364,-0.67,-0.63
2021-08-01 00:42:31.368,-0.625,-0.665
2021-08-01 00:42:31.372,-0.505,-0.665
2021-08-01 00:42:31.376,-0.36,-0.615
2021-08-01 00:42:31.380,-0.4,-0.6
2021-08-01 00:42:31.384,-0.47,-0.63
2021-08-01 00:42:31.388,-0.465,-0.62
2021-08-01 00:42:31.392,-0.505,-0.62
2021-08-01 00:42:31.396,-0.49,-0.64
2021-08-01 00:42:31.400,-0.405,-0.625
2021-08-01 00:42:31.404,-0.395,-0.62
2021-08-01 00:42:31.408,-0.35,-0.605
2021-08-01 00:42:31.412,-0.36,-0.605
2021-08-01 00:42:31.416,-0.305,-0.585
2021-08-01 00:42:31.420,-0.225,-0.555
2021-08-01 00:42:31.424,-0.2,-0.58
2021-08-01 00:42:31.428,-0.18,-0.58
2021-08-01 00:42:31.432,-0.145,-0.585
2021-08-01 00:42:31.436,-0.25,-0.59
2021-08-01 00:42:31.440,-0.22,-0.6
2021-08-01 00:42:31.444,-0.18,-0.59
2021-08-01 00:42:31.448,-0.25,-0.61
2021-08-01 00:42:31.452,-0.15,-0.64
2021-08-01 00:42:31.456,-0.06,-0.65
2021-08-01 00:42:31.460,-0.195,-0.63
2021-08-01 00:42:31.464,-0.195,-0.64
2021-08-01 00:42:31.468,-0.12,-0.665
2021-08-01 00:42:31.472,-0.025,-0.64
2021-08-01 00:42:31.476,-0.055,-0.66
2021-08-01 00:42:31.480,-0.13,-0.63
2021-08-01 00:42:31.484,-0.08,-0.665
2021-08-01 00:42:31.488,-0.07,-0.69
2021-08-01 00:42:31.492,-0.07,-0.66
2021-08-01 00:42:31.496,-0.1,-0.625
2021-08-01 00:42:31.500,-0.06,-0.565
2021-08-01 00:42:31.504,0.04,-0.54
2021-08-01 00:42:31.508,-0.09,-0.515
2021-08-01 00:42:31.512,-0.335,-0.455
2021-08-01 00:42:31.516,-0.37,-0.405
2021-08-01 00:42:31.520,-0.34,-0.385
2021-08-01 00:42:31.524,-0.35,-0.34
2021-08-01 00:42:31.528,-0.355,-0.275
2021-08-01 00:42:31.532,-0.43,-0.245
2021-08-01 00:42:31.536,-0.475,-0.215
2021-08-01 00:42:31.540,-0.495,-0.175
2021-08-01 00:42:31.544,-0.535,-0.16
2021-08-01 00:42:31.548,-0.6,-0.15
2021-08-01 00:42:31.552,-0.795,-0.135
2021-08-01 00:42:31.556,-0.85,-0.135
2021-08-01 00:42:31.560,-0.83,-0.17
2021-08-01 00:42:31.564,-0.78,-0.185
2021-08-01 00:42:31.568,-0.725,-0.175
2021-08-01 00:42:31.572,-0.7,-0.155
2021-08-01 00:42:31.576,-0.76,-0.16
2021-08-01 00:42:31.580,-0.825,-0.18
2021-08-01 00:42:31.584,-0.84,-0.175
2021-08-01 00:42:31.588,-0.905,-0.16
2021-08-01 00:42:31.592,-0.9,-0.215
2021-08-01 00:42:31.596,-0.895,-0.28
2021-08-01 00:42:31.600,-0.91,-0.255
2021-08-01 00:42:31.604,-0.865,-0.19
2021-08-01 00:42:31.608,-0.84,-0.185
2021-08-01 00:42:31.612,-0.835,-0.16
2021-08-01 00:42:31.616,-0.875,-0.14
2021-08-01 00:42:31.620,-1.045,-0.16
2021-08-01 00:42:31.624,-1.04,-0.2
2021-08-01 00:42:31.628,-0.98,-0.18
2021-08-01 00:42:31.632,-0.91,-0.19
2021-08-01 00:42:31.636,-0.87,-0.2
2021-08-01 00:42:31.640,-0.82,-0.215
2021-08-01 00:42:31.644,-0.835,-0.195
2021-08-01 00:42:31.648,-0.95,-0.21
2021-08-01 00:42:31.652,-1.0,-0.25
2021-08-01 00:42:31.656,-0.955,-0.245
2021-08-01 00:42:31.660,-0.92,-0.23
2021-08-01 00:42:31.664,-0.905,-0.23
2021-08-01 00:42:31.668,-0.86,-0.19
2021-08-01 00:42:31.672,-0.8,-0.18
2021-08-01 00:42:31.676,-0.78,-0.155
2021-08-01 00:42:31.680,-0.855,-0.145
2021-08-01 00:42:31.684,-0.915,-0.115
2021-08-01 00:42:31.688,-0.89,-0.115
2021-08-01 00:42:31.692,-0.85,-0.085
2021-08-01 00:42:31.696,-0.82,-0.09
2021-08-01 00:42:31.700,-0.845,-0.15
2021-08-01 00:42:31.704,-0.88,-0.24
2021-08-01 00:42:31.708,-0.885,-0.275
2021-08-01 00:42:31.712,-0.855,-0.185
2021-08-01 00:42:31.716,-0.795,-0.145
2021-08-01 00:42:31.720,-0.7,-0.15
2021-08-01 00:42:31.724,-0.745,-0.165
2021-08-01 00:42:31.728,-0.82,-0.195
2021-08-01 00:42:31.732,-0.875,-0.195
2021-08-01 00:42:31.736,-0.89,-0.135
2021-08-01 00:42:31.740,-0.87,-0.11
2021-08-01 00:42:31.744,-0.855,-0.115
2021-08-01 00:42:31.748,-0.825,-0.15
2021-08-01 00:42:31.752,-0.82,-0.195
2021-08-01 00:42:31.756,-0.815,-0.205
2021-08-01 00:42:31.760,-0.755,-0.195
2021-08-01 00:42:31.764,-0.775,-0.18
2021-08-01 00:42:31.768,-0.89,-0.16
2021-08-01 00:42:31.772,-0.91,-0.175
2021-08-01 00:42:31.776,-0.965,-0.14
2021-08-01 00:42:31.780,-1.065,-0.14
2021-08-01 00:42:31.784,-1.09,-0.185
2021-08-01 00:42:31.788,-1.03,-0.12
2021-08-01 00:42:31.792,-0.98,-0.12
2021-08-01 00:42:31.796,-0.995,-0.195
2021-08-01 00:42:31.800,-0.97,-0.265
2021-08-01 00:42:31.804,-0.96,-0.265
2021-08-01 00:42:31.808,-0.96,-0.255
2021-08-01 00:42:31.812,-0.96,-0.205
2021-08-01 00:42:31.816,-0.93,-0.11
2021-08-01 00:42:31.820,-0.89,-0.075
2021-08-01 00:42:31.824,-0.88,-0.05
2021-08-01 00:42:31.828,-0.87,0.105
2021-08-01 00:42:31.832,-0.84,0.39
2021-08-01 00:42:31.836,-0.735,0.66
2021-08-01 00:42:31.840,-0.79,0.87
2021-08-01 00:42:31.844,-0.975,1.04
2021-08-01 00:42:31.848,-1.34,1.315
2021-08-01 00:42:31.852,-1.91,1.54
2021-08-01 00:42:31.912,-1.91,0.795
2021-08-01 00:42:31.916,-1.825,0.3
2021-08-01 00:42:31.920,-1.725,-0.07
2021-08-01 00:42:31.924,-1.54,-0.42
2021-08-01 00:42:31.928,-1.48,-0.62
2021-08-01 00:42:31.932,-1.385,-0.64
2021-08-01 00:42:31.936,-1.26,-0.64
2021-08-01 00:42:31.940,-1.085,-0.635
2021-08-01 00:42:31.944,-0.98,-0.59
2021-08-01 00:42:31.948,-0.855,-0.565
2021-08-01 00:42:31.952,-0.76,-0.635
2021-08-01 00:42:31.956,-0.725,-0.67
2021-08-01 00:42:31.960,-0.695,-0.71
2021-08-01 00:42:31.964,-0.705,-0.71
2021-08-01 00:42:31.968,-0.64,-0.635
2021-08-01 00:42:31.972,-0.6,-0.59
2021-08-01 00:42:31.976,-0.575,-0.615
2021-08-01 00:42:31.980,-0.555,-0.635
2021-08-01 00:42:31.984,-0.545,-0.63
2021-08-01 00:42:31.988,-0.525,-0.725
2021-08-01 00:42:31.992,-0.48,-0.705
2021-08-01 00:42:31.996,-0.41,-0.61
2021-08-01 00:42:32.000,-0.35,-0.645
2021-08-01 00:42:32.004,-0.39,-0.66
2021-08-01 00:42:32.008,-0.445,-0.615
2021-08-01 00:42:32.012,-0.41,-0.66
2021-08-01 00:42:32.016,-0.29,-0.685
2021-08-01 00:42:32.020,-0.235,-0.65
2021-08-01 00:42:32.024,-0.26,-0.6
2021-08-01 00:42:32.028,-0.285,-0.6
2021-08-01 00:42:32.032,-0.24,-0.635
2021-08-01 00:42:32.036,-0.15,-0.685
2021-08-01 00:42:32.040,-0.1,-0.655
2021-08-01 00:42:32.044,-0.025,-0.64
2021-08-01 00:42:32.048,0.005,-0.59
2021-08-01 00:42:32.052,0.035,-0.575
2021-08-01 00:42:32.056,0.07,-0.625
2021-08-01 00:42:32.060,0.11,-0.72
2021-08-01 00:42:32.064,0.15,-0.775
2021-08-01 00:42:32.068,0.21,-0.79
2021-08-01 00:42:32.072,0.3,-0.82
2021-08-01 00:42:32.076,0.335,-0.805
2021-08-01 00:42:32.080,0.36,-0.785
2021-08-01 00:42:32.084,0.355,-0.77
2021-08-01 00:42:32.088,0.37,-0.745
2021-08-01 00:42:32.092,0.36,-0.755
2021-08-01 00:42:32.096,0.355,-0.72
2021-08-01 00:42:32.100,0.345,-0.67
2021-08-01 00:42:32.104,0.325,-0.665
2021-08-01 00:42:32.108,0.325,-0.645
2021-08-01 00:42:32.112,0.335,-0.595
2021-08-01 00:42:32.116,0.27,-0.56
2021-08-01 00:42:32.120,0.15,-0.51
2021-08-01 00:42:32.124,0.025,-0.545
2021-08-01 00:42:32.128,-0.035,-0.56
2021-08-01 00:42:32.132,-0.025,-0.47
2021-08-01 00:42:32.136,-0.05,-0.415
2021-08-01 00:42:32.140,-0.12,-0.35
2021-08-01 00:42:32.144,-0.255,-0.305
2021-08-01 00:42:32.148,-0.315,-0.285
2021-08-01 00:42:32.152,-0.335,-0.245
2021-08-01 00:42:32.156,-0.375,-0.19
2021-08-01 00:42:32.160,-0.41,-0.185
2021-08-01 00:42:32.164,-0.415,-0.195
2021-08-01 00:42:32.168,-0.415,-0.155
2021-08-01 00:42:32.172,-0.44,-0.195
2021-08-01 00:42:32.176,-0.485,-0.335
2021-08-01 00:42:32.180,-0.49,-0.385
2021-08-01 00:42:32.184,-0.515,-0.32
2021-08-01 00:42:32.188,-0.485,-0.255
2021-08-01 00:42:32.192,-0.5,-0.24
2021-08-01 00:42:32.196,-0.55,-0.28
2021-08-01 00:42:32.200,-0.55,-0.285
2021-08-01 00:42:32.204,-0.51,-0.245
2021-08-01 00:42:32.208,-0.49,-0.26
2021-08-01 00:42:32.212,-0.485,-0.285
2021-08-01 00:42:32.216,-0.475,-0.29
2021-08-01 00:42:32.220,-0.41,-0.305
2021-08-01 00:42:32.224,-0.51,-0.295
2021-08-01 00:42:32.228,-0.69,-0.31
2021-08-01 00:42:32.232,-0.775,-0.315
2021-08-01 00:42:32.236,-0.76,-0.315
2021-08-01 00:42:32.240,-0.715,-0.32
2021-08-01 00:42:32.244,-0.67,-0.34
2021-08-01 00:42:32.248,-0.665,-0.32
2021-08-01 00:42:32.252,-0.675,-0.29
2021-08-01 00:42:32.256,-0.64,-0.29
2021-08-01 00:42:32.260,-0.635,-0.33
2021-08-01 00:42:32.264,-0.62,-0.36
2021-08-01 00:42:32.268,-0.6,-0.375
2021-08-01 00:42:32.272,-0.62,-0.35
2021-08-01 00:42:32.276,-0.575,-0.335
2021-08-01 00:42:32.280,-0.54,-0.34
2021-08-01 00:42:32.284,-0.57,-0.34
2021-08-01 00:42:32.288,-0.56,-0.36
2021-08-01 00:42:32.292,-0.56,-0.315
2021-08-01 00:42:32.296,-0.575,-0.305
2021-08-01 00:42:32.300,-0.57,-0.32
2021-08-01 00:42:32.304,-0.53,-0.38
2021-08-01 00:42:32.308,-0.53,-0.405
2021-08-01 00:42:32.312,-0.54,-0.37
2021-08-01 00:42:32.316,-0.53,-0.345
2021-08-01 00:42:32.320,-0.595,-0.355
2021-08-01 00:42:32.324,-0.61,-0.325
2021-08-01 00:42:32.328,-0.6,-0.28
2021-08-01 00:42:32.332,-0.55,-0.33
2021-08-01 00:42:32.336,-0.55,-0.435
2021-08-01 00:42:32.340,-0.6,-0.415
2021-08-01 00:42:32.344,-0.64,-0.42
2021-08-01 00:42:32.348,-0.62,-0.435
2021-08-01 00:42:32.352,-0.575,-0.43
2021-08-01 00:42:32.356,-0.555,-0.44
2021-08-01 00:42:32.360,-0.56,-0.42
2021-08-01 00:42:32.364,-0.53,-0.385
2021-08-01 00:42:32.368,-0.525,-0.355
2021-08-01 00:42:32.372,-0.525,-0.36
2021-08-01 00:42:32.376,-0.58,-0.35
2021-08-01 00:42:32.380,-0.57,-0.295
2021-08-01 00:42:32.384,-0.575,-0.215
2021-08-01 00:42:32.388,-0.54,-0.055
2021-08-01 00:42:32.392,-0.535,0.235
2021-08-01 00:42:32.396,-0.5,0.62
2021-08-01 00:42:32.400,-0.49,0.96
2021-08-01 00:42:32.404,-0.635,1.16
2021-08-01 00:42:32.408,-0.905,1.31
2021-08-01 00:42:32.412,-1.375,1.51
2021-08-01 00:42:32.416,-1.87,1.725
2021-08-01 00:42:32.468,-1.795,1.885
2021-08-01 00:42:32.472,-1.7,1.485
2021-08-01 00:42:32.476,-1.645,0.915
2021-08-01 00:42:32.480,-1.56,0.395
2021-08-01 00:42:32.484,-1.46,0.055
2021-08-01 00:42:32.488,-1.335,-0.2
2021-08-01 00:42:32.492,-1.225,-0.4
2021-08-01 00:42:32.496,-1.085,-0.51
2021-08-01 00:42:32.500,-0.915,-0.54
2021-08-01 00:42:32.504,-0.785,-0.52
2021-08-01 00:42:32.508,-0.665,-0.53
2021-08-01 00:42:32.512,-0.505,-0.565
2021-08-01 00:42:32.516,-0.4,-0.585
2021-08-01 00:42:32.520,-0.305,-0.605
2021-08-01 00:42:32.524,-0.295,-0.595
2021-08-01 00:42:32.528,-0.31,-0.59
2021-08-01 00:42:32.532,-0.305,-0.615
2021-08-01 00:42:32.536,-0.245,-0.62
2021-08-01 00:42:32.540,-0.24,-0.625
2021-08-01 00:42:32.544,-0.245,-0.605
2021-08-01 00:42:32.548,-0.195,-0.58
2021-08-01 00:42:32.552,-0.225,-0.54
2021-08-01 00:42:32.556,-0.215,-0.5
2021-08-01 00:42:32.560,-0.215,-0.5
2021-08-01 00:42:32.564,-0.15,-0.495
2021-08-01 00:42:32.568,-0.16,-0.535
2021-08-01 00:42:32.572,-0.175,-0.56
2021-08-01 00:42:32.576,-0.135,-0.6
2021-08-01 00:42:32.580,-0.16,-0.66
2021-08-01 00:42:32.584,-0.155,-0.755
2021-08-01 00:42:32.588,-0.135,-0.745
2021-08-01 00:42:32.592,-0.09,-0.695
2021-08-01 00:42:32.596,-0.065,-0.64
2021-08-01 00:42:32.600,0.0,-0.65
2021-08-01 00:42:32.604,-0.01,-0.67
2021-08-01 00:42:32.608,0.03,-0.71
2021-08-01 00:42:32.612,0.04,-0.755
2021-08-01 00:42:32.616,0.075,-0.76
2021-08-01 00:42:32.620,0.12,-0.75
2021-08-01 00:42:32.624,0.135,-0.725
2021-08-01 00:42:32.628,0.15,-0.73
2021-08-01 00:42:32.632,0.215,-0.765
2021-08-01 00:42:32.636,0.245,-0.76
2021-08-01 00:42:32.640,0.26,-0.735
2021-08-01 00:42:32.644,0.295,-0.725
2021-08-01 00:42:32.648,0.3,-0.73
2021-08-01 00:42:32.652,0.32,-0.73
2021-08-01 00:42:32.656,0.33,-0.695
2021-08-01 00:42:32.660,0.325,-0.67
2021-08-01 00:42:32.664,0.31,-0.615
2021-08-01 00:42:32.668,0.275,-0.555
2021-08-01 00:42:32.672,0.24,-0.49
2021-08-01 00:42:32.676,0.2,-0.44
2021-08-01 00:42:32.680,0.2,-0.38
2021-08-01 00:42:32.684,0.16,-0.33
2021-08-01 00:42:32.688,0.11,-0.295
2021-08-01 00:42:32.692,0.045,-0.25
2021-08-01 00:42:32.696,0.03,-0.195
2021-08-01 00:42:32.700,-0.025,-0.14
2021-08-01 00:42:32.704,-0.095,-0.08
2021-08-01 00:42:32.708,-0.165,-0.04
2021-08-01 00:42:32.712,-0.235,-0.005
2021-08-01 00:42:32.716,-0.27,-0.01
2021-08-01 00:42:32.720,-0.335,-0.02
2021-08-01 00:42:32.724,-0.355,-0.035
2021-08-01 00:42:32.728,-0.4,-0.03
2021-08-01 00:42:32.732,-0.445,-0.03
2021-08-01 00:42:32.736,-0.465,-0.04
2021-08-01 00:42:32.740,-0.46,-0.06
2021-08-01 00:42:32.744,-0.465,-0.04
2021-08-01 00:42:32.748,-0.475,-0.02
2021-08-01 00:42:32.752,-0.48,0.015
2021-08-01 00:42:32.756,-0.49,0.015
2021-08-01 00:42:32.760,-0.465,0.0
2021-08-01 00:42:32.764,-0.495,-0.025
2021-08-01 00:42:32.768,-0.465,-0.195
2021-08-01 00:42:32.772,-0.445,-0.4
2021-08-01 00:42:32.776,-0.445,-0.465
2021-08-01 00:42:32.780,-0.45,-0.465
2021-08-01 00:42:32.784,-0.45,-0.465
2021-08-01 00:42:32.788,-0.44,-0.445
2021-08-01 00:42:32.792,-0.42,-0.47
2021-08-01 00:42:32.796,-0.415,-0.48
2021-08-01 00:42:32.800,-0.41,-0.48
2021-08-01 00:42:32.804,-0.405,-0.485
2021-08-01 00:42:32.808,-0.415,-0.5
2021-08-01 00:42:32.812,-0.4,-0.51
2021-08-01 00:42:32.816,-0.39,-0.525
2021-08-01 00:42:32.820,-0.38,-0.535
2021-08-01 00:42:32.824,-0.375,-0.565
2021-08-01 00:42:32.828,-0.365,-0.6
2021-08-01 00:42:32.832,-0.35,-0.665
2021-08-01 00:42:32.836,-0.35,-0.72
2021-08-01 00:42:32.840,-0.345,-0.685
2021-08-01 00:42:32.844,-0.325,-0.585
2021-08-01 00:42:32.848,-0.32,-0.47
2021-08-01 00:42:32.852,-0.285,-0.215
2021-08-01 00:42:32.856,-0.23,0.07
2021-08-01 00:42:32.860,-0.205,0.405
2021-08-01 00:42:32.864,-0.295,0.62
2021-08-01 00:42:32.868,-0.555,0.855
2021-08-01 00:42:32.872,-0.99,1.12
2021-08-01 00:42:32.876,-1.6,1.36
2021-08-01 00:42:32.916,-2.0,1.455
2021-08-01 00:42:32.920,-1.97,1.565
2021-08-01 00:42:32.924,-1.875,1.645
2021-08-01 00:42:32.928,-1.785,1.57
2021-08-01 00:42:32.932,-1.655,1.2
2021-08-01 00:42:32.936,-1.565,0.65
2021-08-01 00:42:32.940,-1.53,0.02
2021-08-01 00:42:32.944,-1.44,-0.51
2021-08-01 00:42:32.948,-1.345,-0.915
2021-08-01 00:42:32.952,-1.19,-1.135
2021-08-01 00:42:32.956,-1.05,-1.23
2021-08-01 00:42:32.960,-0.885,-1.31
2021-08-01 00:42:32.964,-0.705,-1.295
2021-08-01 00:42:32.968,-0.54,-1.28
2021-08-01 00:42:32.972,-0.4,-1.31
2021-08-01 00:42:32.976,-0.245,-1.325
2021-08-01 00:42:32.980,-0.19,-1.315
2021-08-01 00:42:32.984,-0.15,-1.305
2021-08-01 00:42:32.988,-0.115,-1.3
2021-08-01 00:42:32.992,-0.07,-1.32
2021-08-01 00:42:32.996,-0.06,-1.315
2021-08-01 00:42:33.000,-0.035,-1.305
2021-08-01 00:42:33.004,-0.035,-1.265
2021-08-01 00:42:33.008,0.0,-1.275
2021-08-01 00:42:33.012,0.065,-1.245
2021-08-01 00:42:33.016,0.08,-1.26
2021-08-01 00:42:33.020,0.085,-1.245
2021-08-01 00:42:33.024,0.11,-1.245
2021-08-01 00:42:33.028,0.15,-1.225
2021-08-01 00:42:33.032,0.155,-1.21
2021-08-01 00:42:33.036,0.17,-1.22
2021-08-01 00:42:33.040,0.22,-1.245
2021-08-01 00:42:33.044,0.25,-1.24
2021-08-01 00:42:33.048,0.28,-1.235
2021-08-01 00:42:33.052,0.31,-1.235
2021-08-01 00:42:33.056,0.335,-1.26
2021-08-01 00:42:33.060,0.365,-1.22
2021-08-01 00:42:33.064,0.38,-1.235
2021-08-01 00:42:33.068,0.42,-1.245
2021-08-01 00:42:33.072,0.47,-1.235
2021-08-01 00:42:33.076,0.47,-1.27
2021-08-01 00:42:33.080,0.505,-1.275
2021-08-01 00:42:33.084,0.51,-1.325
2021-08-01 00:42:33.088,0.5,-1.34
2021-08-01 00:42:33.092,0.47,-1.33
2021-08-01 00:42:33.096,0.455,-1.345
2021-08-01 00:42:33.100,0.455,-1.365
2021-08-01 00:42:33.104,0.465,-1.36
2021-08-01 00:42:33.108,0.455,-1.375
2021-08-01 00:42:33.112,0.445,-1.375
2021-08-01 00:42:33.116,0.455,-1.395
2021-08-01 00:42:33.120,0.425,-1.39
2021-08-01 00:42:33.124,0.395,-1.33
2021-08-01 00:42:33.128,0.38,-1.26
2021-08-01 00:42:33.132,0.345,-1.155
2021-08-01 00:42:33.136,0.28,-1.095
2021-08-01 00:42:33.140,0.25,-1.04
2021-08-01 00:42:33.144,0.26,-0.99
2021-08-01 00:42:33.148,0.235,-0.915
2021-08-01 00:42:33.152,0.185,-0.86
2021-08-01 00:42:33.156,0.135,-0.81
2021-08-01 00:42:33.160,0.12,-0.775
2021-08-01 00:42:33.164,0.065,-0.74
2021-08-01 00:42:33.168,0.0,-0.7
2021-08-01 00:42:33.172,-0.03,-0.685
2021-08-01 00:42:33.176,-0.07,-0.64
2021-08-01 00:42:33.180,-0.115,-0.61
2021-08-01 00:42:33.184,-0.115,-0.6
2021-08-01 00:42:33.188,-0.165,-0.585
2021-08-01 00:42:33.192,-0.2,-0.6
2021-08-01 00:42:33.196,-0.22,-0.57
2021-08-01 00:42:33.200,-0.24,-0.57
2021-08-01 00:42:33.204,-0.225,-0.56
2021-08-01 00:42:33.208,-0.23,-0.57
2021-08-01 00:42:33.212,-0.265,-0.55
2021-08-01 00:42:33.216,-0.25,-0.55
2021-08-01 00:42:33.220,-0.245,-0.545
2021-08-01 00:42:33.224,-0.24,-0.54
2021-08-01 00:42:33.228,-0.255,-0.53
2021-08-01 00:42:33.232,-0.27,-0.525
2021-08-01 00:42:33.236,-0.235,-0.52
2021-08-01 00:42:33.240,-0.235,-0.505
2021-08-01 00:42:33.244,-0.225,-0.515
2021-08-01 00:42:33.248,-0.24,-0.515
2021-08-01 00:42:33.252,-0.25,-0.52
2021-08-01 00:42:33.256,-0.235,-0.51
2021-08-01 00:42:33.260,-0.215,-0.5
2021-08-01 00:42:33.264,-0.215,-0.48
2021-08-01 00:42:33.268,-0.2,-0.48
2021-08-01 00:42:33.272,-0.195,-0.47
2021-08-01 00:42:33.276,-0.215,-0.455
2021-08-01 00:42:33.280,-0.195,-0.48
2021-08-01 00:42:33.284,-0.205,-0.51
2021-08-01 00:42:33.288,-0.205,-0.555
2021-08-01 00:42:33.292,-0.23,-0.575
2021-08-01 00:42:33.296,-0.255,-0.58
2021-08-01 00:42:33.300,-0.285,-0.59
2021-08-01 00:42:33.304,-0.325,-0.6
2021-08-01 00:42:33.308,-0.36,-0.6
2021-08-01 00:42:33.312,-0.375,-0.595
2021-08-01 00:42:33.316,-0.375,-0.59
2021-08-01 00:42:33.320,-0.375,-0.58
2021-08-01 00:42:33.324,-0.38,-0.605
2021-08-01 00:42:33.328,-0.395,-0.61
2021-08-01 00:42:33.332,-0.39,-0.605
2021-08-01 00:42:33.336,-0.38,-0.58
2021-08-01 00:42:33.340,-0.38,-0.585
2021-08-01 00:42:33.344,-0.38,-0.58
2021-08-01 00:42:33.348,-0.39,-0.56
2021-08-01 00:42:33.352,-0.375,-0.55
2021-08-01 00:42:33.356,-0.375,-0.54
2021-08-01 00:42:33.360,-0.355,-0.545
2021-08-01 00:42:33.364,-0.37,-0.555
2021-08-01 00:42:33.368,-0.365,-0.555
2021-08-01 00:42:33.372,-0.37,-0.535
2021-08-01 00:42:33.376,-0.38,-0.505
2021-08-01 00:42:33.380,-0.365,-0.52
2021-08-01 00:42:33.384,-0.365,-0.51
2021-08-01 00:42:33.388,-0.37,-0.51
2021-08-01 00:42:33.392,-0.41,-0.48
2021-08-01 00:42:33.396,-0.39,-0.49
2021-08-01 00:42:33.400,-0.385,-0.48
2021-08-01 00:42:33.404,-0.395,-0.475
2021-08-01 00:42:33.408,-0.395,-0.445
2021-08-01 00:42:33.412,-0.4,-0.42
2021-08-01 00:42:33.416,-0.38,-0.44
2021-08-01 00:42:33.420,-0.38,-0.425
2021-08-01 00:42:33.424,-0.385,-0.4
2021-08-01 00:42:33.428,-0.385,-0.4
2021-08-01 00:42:33.432,-0.37,-0.415
2021-08-01 00:42:33.436,-0.355,-0.395
2021-08-01 00:42:33.440,-0.36,-0.395
2021-08-01 00:42:33.444,-0.36,-0.38
2021-08-01 00:42:33.448,-0.34,-0.375
2021-08-01 00:42:33.452,-0.355,-0.34
2021-08-01 00:42:33.456,-0.36,-0.32
2021-08-01 00:42:33.460,-0.335,-0.33
2021-08-01 00:42:33.464,-0.345,-0.315
2021-08-01 00:42:33.468,-0.315,-0.28
2021-08-01 00:42:33.472,-0.325,-0.28
2021-08-01 00:42:33.476,-0.34,-0.28
2021-08-01 00:42:33.480,-0.325,-0.3
2021-08-01 00:42:33.484,-0.31,-0.225
2021-08-01 00:42:33.488,-0.325,-0.125
2021-08-01 00:42:33.492,-0.33,0.08
2021-08-01 00:42:33.496,-0.26,0.39
2021-08-01 00:42:33.500,-0.175,0.705
2021-08-01 00:42:33.504,-0.255,0.97
2021-08-01 00:42:33.508,-0.44,1.18
2021-08-01 00:42:33.512,-0.825,1.425
2021-08-01 00:42:33.516,-1.36,1.68
2021-08-01 00:42:33.520,-1.875,1.91
2021-08-01 00:42:33.556,-1.94,1.985
2021-08-01 00:42:33.576,-1.43,1.73
2021-08-01 00:42:33.580,-1.36,1.04
2021-08-01 00:42:33.584,-1.28,0.475
2021-08-01 00:42:33.588,-1.175,-0.015
2021-08-01 00:42:33.592,-1.04,-0.37
2021-08-01 00:42:33.596,-0.92,-0.525
2021-08-01 00:42:33.600,-0.785,-0.58
2021-08-01 00:42:33.604,-0.63,-0.58
2021-08-01 00:42:33.608,-0.495,-0.59
2021-08-01 00:42:33.612,-0.345,-0.57
2021-08-01 00:42:33.616,-0.185,-0.555
2021-08-01 00:42:33.620,-0.055,-0.575
2021-08-01 00:42:33.624,-0.005,-0.58
2021-08-01 00:42:33.628,0.065,-0.595
2021-08-01 00:42:33.632,0.1,-0.6
2021-08-01 00:42:33.636,0.12,-0.575
2021-08-01 00:42:33.640,0.17,-0.595
2021-08-01 00:42:33.644,0.195,-0.6
2021-08-01 00:42:33.648,0.19,-0.575
2021-08-01 00:42:33.652,0.225,-0.56
2021-08-01 00:42:33.656,0.26,-0.56
2021-08-01 00:42:33.660,0.27,-0.565
2021-08-01 00:42:33.664,0.305,-0.565
2021-08-01 00:42:33.668,0.33,-0.59
2021-08-01 00:42:33.672,0.355,-0.585
2021-08-01 00:42:33.676,0.35,-0.595
2021-08-01 00:42:33.680,0.36,-0.585
2021-08-01 00:42:33.684,0.385,-0.58
2021-08-01 00:42:33.688,0.415,-0.59
2021-08-01 00:42:33.692,0.455,-0.565
2021-08-01 00:42:33.696,0.48,-0.605
2021-08-01 00:42:33.700,0.515,-0.61
2021-08-01 00:42:33.704,0.57,-0.615
2021-08-01 00:42:33.708,0.61,-0.63
2021-08-01 00:42:33.712,0.62,-0.685
2021-08-01 00:42:33.716,0.675,-0.71
2021-08-01 00:42:33.720,0.68,-0.72
2021-08-01 00:42:33.724,0.665,-0.725
2021-08-01 00:42:33.728,0.65,-0.74
2021-08-01 00:42:33.732,0.685,-0.725
2021-08-01 00:42:33.736,0.69,-0.75
2021-08-01 00:42:33.740,0.685,-0.745
2021-08-01 00:42:33.744,0.695,-0.75
2021-08-01 00:42:33.748,0.71,-0.76
2021-08-01 00:42:33.752,0.72,-0.735
2021-08-01 00:42:33.756,0.71,-0.7
2021-08-01 00:42:33.760,0.685,-0.685
2021-08-01 00:42:33.764,0.675,-0.67
2021-08-01 00:42:33.768,0.69,-0.61
2021-08-01 00:42:33.772,0.68,-0.58
2021-08-01 00:42:33.776,0.665,-0.55
2021-08-01 00:42:33.780,0.66,-0.525
2021-08-01 00:42:33.784,0.615,-0.46
2021-08-01 00:42:33.788,0.595,-0.4
2021-08-01 00:42:33.792,0.565,-0.325
2021-08-01 00:42:33.796,0.52,-0.27
2021-08-01 00:42:33.800,0.5,-0.185
2021-08-01 00:42:33.804,0.47,-0.15
2021-08-01 00:42:33.808,0.415,-0.085
2021-08-01 00:42:33.812,0.395,-0.045
2021-08-01 00:42:33.816,0.335,0.035
2021-08-01 00:42:33.820,0.275,0.08
2021-08-01 00:42:33.824,0.245,0.11
2021-08-01 00:42:33.828,0.21,0.115
2021-08-01 00:42:33.832,0.175,0.12
2021-08-01 00:42:33.836,0.145,0.12
2021-08-01 00:42:33.840,0.13,0.11
2021-08-01 00:42:33.844,0.105,0.065
2021-08-01 00:42:33.848,0.09,0.075
2021-08-01 00:42:33.852,0.06,0.09
2021-08-01 00:42:33.856,0.025,0.07
2021-08-01 00:42:33.860,0.045,0.04
2021-08-01 00:42:33.864,0.055,0.035
2021-08-01 00:42:33.868,0.04,0.03
2021-08-01 00:42:33.872,0.03,0.005
2021-08-01 00:42:33.876,0.05,-0.005
2021-08-01 00:42:33.880,0.05,-0.04
2021-08-01 00:42:33.884,0.065,-0.06
2021-08-01 00:42:33.888,0.06,-0.055
2021-08-01 00:42:33.892,0.015,-0.085
2021-08-01 00:42:33.896,0.015,-0.105
2021-08-01 00:42:33.900,-0.01,-0.11
2021-08-01 00:42:33.904,-0.025,-0.11
2021-08-01 00:42:33.908,-0.03,-0.11
2021-08-01 00:42:33.912,-0.015,-0.13
2021-08-01 00:42:33.916,-0.025,-0.13
2021-08-01 00:42:33.920,-0.04,-0.125
2021-08-01 00:42:33.924,-0.05,-0.14
2021-08-01 00:42:33.928,-0.05,-0.14
2021-08-01 00:42:33.932,-0.045,-0.14
2021-08-01 00:42:33.936,-0.05,-0.145
2021-08-01 00:42:33.940,-0.05,-0.13
2021-08-01 00:42:33.944,-0.03,-0.155
2021-08-01 00:42:33.948,-0.045,-0.125
2021-08-01 00:42:33.952,-0.025,-0.115
2021-08-01 00:42:33.956,-0.025,-0.125
2021-08-01 00:42:33.960,-0.015,-0.14
2021-08-01 00:42:33.964,-0.01,-0.12
2021-08-01 00:42:33.968,-0.01,-0.125
2021-08-01 00:42:33.972,-0.005,-0.115
2021-08-01 00:42:33.976,0.01,-0.13
2021-08-01 00:42:33.980,0.0,-0.105
2021-08-01 00:42:33.984,0.0,-0.095
2021-08-01 00:42:33.988,0.025,-0.075
2021-08-01 00:42:33.992,0.005,-0.095
2021-08-01 00:42:33.996,0.025,-0.04
2021-08-01 00:42:34.000,0.03,0.01
2021-08-01 00:42:34.004,0.045,0.035
2021-08-01 00:42:34.008,0.03,0.095
2021-08-01 00:42:34.012,0.055,0.2
2021-08-01 00:42:34.016,0.095,0.385
2021-08-01 00:42:34.020,0.155,0.68
2021-08-01 00:42:34.024,0.26,0.975
2021-08-01 00:42:34.028,0.235,1.23
2021-08-01 00:42:34.032,0.055,1.465
2021-08-01 00:42:34.036,-0.365,1.775
2021-08-01 00:42:34.100,-0.995,1.47
2021-08-01 00:42:34.104,-0.93,0.8
2021-08-01 00:42:34.108,-0.8,0.33
2021-08-01 00:42:34.112,-0.7,-0.02
2021-08-01 00:42:34.116,-0.615,-0.19
2021-08-01 00:42:34.120,-0.47,-0.24
2021-08-01 00:42:34.124,-0.305,-0.28
2021-08-01 00:42:34.128,-0.12,-0.295
2021-08-01 00:42:34.132,0.06,-0.27
2021-08-01 00:42:34.136,0.235,-0.27
2021-08-01 00:42:34.140,0.37,-0.28
2021-08-01 00:42:34.144,0.465,-0.295
2021-08-01 00:42:34.148,0.535,-0.28
2021-08-01 00:42:34.152,0.54,-0.3
2021-08-01 00:42:34.156,0.57,-0.28
2021-08-01 00:42:34.160,0.6,-0.29
2021-08-01 00:42:34.164,0.61,-0.26
2021-08-01 00:42:34.168,0.63,-0.275
2021-08-01 00:42:34.172,0.65,-0.28
2021-08-01 00:42:34.176,0.665,-0.275
2021-08-01 00:42:34.180,0.695,-0.26
2021-08-01 00:42:34.184,0.705,-0.265
2021-08-01 00:42:34.188,0.715,-0.265
2021-08-01 00:42:34.192,0.755,-0.25
2021-08-01 00:42:34.196,0.775,-0.23
2021-08-01 00:42:34.200,0.765,-0.23
2021-08-01 00:42:34.204,0.785,-0.25
2021-08-01 00:42:34.208,0.84,-0.24
2021-08-01 00:42:34.212,0.87,-0.22
2021-08-01 00:42:34.216,0.89,-0.235
2021-08-01 00:42:34.220,0.93,-0.24
2021-08-01 00:42:34.224,0.95,-0.25
2021-08-01 00:42:34.228,0.975,-0.225
2021-08-01 00:42:34.232,1.005,-0.22
2021-08-01 00:42:34.236,1.02,-0.24
2021-08-01 00:42:34.240,1.045,-0.26
2021-08-01 00:42:34.244,1.095,-0.22
2021-08-01 00:42:34.248,1.1,-0.24
2021-08-01 00:42:34.252,1.145,-0.3
2021-08-01 00:42:34.256,1.175,-0.335
2021-08-01 00:42:34.260,1.21,-0.335
2021-08-01 00:42:34.264,1.24,-0.355
2021-08-01 00:42:34.268,1.22,-0.365
2021-08-01 00:42:34.272,1.215,-0.325
2021-08-01 00:42:34.276,1.245,-0.28
2021-08-01 00:42:34.280,1.25,-0.255
2021-08-01 00:42:34.284,1.24,-0.235
2021-08-01 00:42:34.288,1.21,-0.18
2021-08-01 00:42:34.292,1.15,-0.155
2021-08-01 00:42:34.296,1.12,-0.115
2021-08-01 00:42:34.300,1.1,-0.085
2021-08-01 00:42:34.304,1.025,-0.055
2021-08-01 00:42:34.308,0.98,-0.005
2021-08-01 00:42:34.312,0.955,0.03
2021-08-01 00:42:34.316,0.87,0.055
2021-08-01 00:42:34.320,0.82,0.1
2021-08-01 00:42:34.324,0.75,0.12
2021-08-01 00:42:34.328,0.725,0.14
2021-08-01 00:42:34.332,0.665,0.14
2021-08-01 00:42:34.336,0.645,0.14
2021-08-01 00:42:34.340,0.605,0.185
2021-08-01 00:42:34.344,0.59,0.185
2021-08-01 00:42:34.348,0.56,0.16
2021-08-01 00:42:34.352,0.525,0.16
2021-08-01 00:42:34.356,0.545,0.17
2021-08-01 00:42:34.360,0.53,0.175
2021-08-01 00:42:34.364,0.505,0.175
2021-08-01 00:42:34.368,0.525,0.145
2021-08-01 00:42:34.372,0.54,0.145
2021-08-01 00:42:34.376,0.54,0.15
2021-08-01 00:42:34.380,0.5,0.15
2021-08-01 00:42:34.384,0.52,0.155
2021-08-01 00:42:34.388,0.54,0.17
2021-08-01 00:42:34.392,0.56,0.16
2021-08-01 00:42:34.396,0.52,0.14
2021-08-01 00:42:34.400,0.525,0.14
2021-08-01 00:42:34.404,0.545,0.165
2021-08-01 00:42:34.408,0.55,0.19
2021-08-01 00:42:34.412,0.555,0.175
2021-08-01 00:42:34.416,0.595,0.185
2021-08-01 00:42:34.420,0.6,0.185
2021-08-01 00:42:34.424,0.61,0.205
2021-08-01 00:42:34.428,0.6,0.21
2021-08-01 00:42:34.432,0.62,0.185
2021-08-01 00:42:34.436,0.645,0.175
2021-08-01 00:42:34.440,0.66,0.155
2021-08-01 00:42:34.444,0.665,0.145
2021-08-01 00:42:34.448,0.65,0.13
2021-08-01 00:42:34.452,0.685,0.12
2021-08-01 00:42:34.456,0.67,0.155
2021-08-01 00:42:34.460,0.66,0.145
2021-08-01 00:42:34.464,0.66,0.14
2021-08-01 00:42:34.468,0.645,0.12
2021-08-01 00:42:34.472,0.665,0.17
2021-08-01 00:42:34.476,0.7,0.155
2021-08-01 00:42:34.480,0.705,0.13
2021-08-01 00:42:34.484,0.69,0.135
2021-08-01 00:42:34.488,0.72,0.15
2021-08-01 00:42:34.492,0.715,0.135
2021-08-01 00:42:34.496,0.71,0.145
2021-08-01 00:42:34.500,0.665,0.18
2021-08-01 00:42:34.504,0.65,0.2
2021-08-01 00:42:34.508,0.63,0.21
2021-08-01 00:42:34.512,0.655,0.19
2021-08-01 00:42:34.516,0.67,0.195
2021-08-01 00:42:34.520,0.675,0.23
2021-08-01 00:42:34.524,0.65,0.22
2021-08-01 00:42:34.528,0.655,0.23
2021-08-01 00:42:34.532,0.68,0.225
2021-08-01 00:42:34.536,0.69,0.255
2021-08-01 00:42:34.540,0.695,0.25
2021-08-01 00:42:34.544,0.69,0.25
2021-08-01 00:42:34.548,0.695,0.25
2021-08-01 00:42:34.552,0.725,0.265
2021-08-01 00:42:34.556,0.705,0.27
2021-08-01 00:42:34.560,0.695,0.27
2021-08-01 00:42:34.564,0.71,0.265
2021-08-01 00:42:34.568,0.685,0.285
2021-08-01 00:42:34.572,0.685,0.31
2021-08-01 00:42:34.576,0.7,0.29
2021-08-01 00:42:34.580,0.745,0.3
2021-08-01 00:42:34.584,0.74,0.295
2021-08-01 00:42:34.588,0.745,0.33
2021-08-01 00:42:34.592,0.735,0.305
2021-08-01 00:42:34.596,0.75,0.3
2021-08-01 00:42:34.600,0.765,0.31
2021-08-01 00:42:34.604,0.765,0.32
2021-08-01 00:42:34.608,0.78,0.295
2021-08-01 00:42:34.612,0.8,0.26
2021-08-01 00:42:34.616,0.815,0.255
2021-08-01 00:42:34.620,0.83,0.28
2021-08-01 00:42:34.624,0.82,0.27
2021-08-01 00:42:34.628,0.83,0.25
2021-08-01 00:42:34.632,0.84,0.28
2021-08-01 00:42:34.636,0.815,0.305
2021-08-01 00:42:34.640,0.805,0.29
2021-08-01 00:42:34.644,0.82,0.265
2021-08-01 00:42:34.648,0.84,0.27
2021-08-01 00:42:34.652,0.84,0.275
2021-08-01 00:42:34.656,0.855,0.26
2021-08-01 00:42:34.660,0.86,0.27
2021-08-01 00:42:34.664,0.89,0.24
2021-08-01 00:42:34.668,0.9,0.255
2021-08-01 00:42:34.672,0.92,0.25
2021-08-01 00:42:34.676,0.935,0.23
2021-08-01 00:42:34.680,0.935,0.24
2021-08-01 00:42:34.684,0.95,0.26
2021-08-01 00:42:34.688,0.93,0.245
2021-08-01 00:42:34.692,0.895,0.23
2021-08-01 00:42:34.696,0.87,0.21
2021-08-01 00:42:34.700,0.85,0.25
2021-08-01 00:42:34.704,0.82,0.27
2021-08-01 00:42:34.708,0.8,0.255
2021-08-01 00:42:34.712,0.8,0.28
2021-08-01 00:42:34.716,0.825,0.28
2021-08-01 00:42:34.720,0.84,0.28
2021-08-01 00:42:34.724,0.855,0.265
2021-08-01 00:42:34.728,0.835,0.27
2021-08-01 00:42:34.732,0.845,0.29
2021-08-01 00:42:34.736,0.88,0.3
2021-08-01 00:42:34.740,0.87,0.33
2021-08-01 00:42:34.744,0.865,0.31
2021-08-01 00:42:34.748,0.88,0.315
2021-08-01 00:42:34.752,0.855,0.35
2021-08-01 00:42:34.756,0.89,0.36
2021-08-01 00:42:34.760,0.885,0.33
2021-08-01 00:42:34.764,0.92,0.34
2021-08-01 00:42:34.768,0.93,0.355
2021-08-01 00:42:34.772,0.91,0.375
2021-08-01 00:42:34.776,0.94,0.365
2021-08-01 00:42:34.780,0.93,0.365
2021-08-01 00:42:34.784,0.935,0.38
2021-08-01 00:42:34.788,0.94,0.38
2021-08-01 00:42:34.792,0.945,0.34
2021-08-01 00:42:34.796,0.94,0.33
2021-08-01 00:42:34.800,0.975,0.315
2021-08-01 00:42:34.804,0.96,0.3
2021-08-01 00:42:34.808,0.97,0.28
2021-08-01 00:42:34.812,0.96,0.265
2021-08-01 00:42:34.816,0.96,0.28
2021-08-01 00:42:34.820,0.945,0.27
2021-08-01 00:42:34.824,0.985,0.245
2021-08-01 00:42:34.828,1.0,0.23
2021-08-01 00:42:34.832,0.99,0.245
2021-08-01 00:42:34.836,1.015,0.25
2021-08-01 00:42:34.840,1.0,0.25
2021-08-01 00:42:34.844,0.99,0.255
2021-08-01 00:42:34.848,1.04,0.27
2021-08-01 00:42:34.852,1.05,0.265
2021-08-01 00:42:34.856,1.05,0.235
2021-08-01 00:42:34.860,1.05,0.23
2021-08-01 00:42:34.864,1.055,0.21
2021-08-01 00:42:34.868,1.06,0.165
2021-08-01 00:42:34.872,1.07,0.195
2021-08-01 00:42:34.876,1.03,0.23
2021-08-01 00:42:34.880,1.02,0.265
2021-08-01 00:42:34.884,0.985,0.275
2021-08-01 00:42:34.888,0.98,0.31
2021-08-01 00:42:34.892,0.97,0.31
2021-08-01 00:42:34.896,0.995,0.35
2021-08-01 00:42:34.900,1.005,0.34
2021-08-01 00:42:34.904,0.99,0.315
2021-08-01 00:42:34.908,0.985,0.3
2021-08-01 00:42:34.912,1.0,0.34
2021-08-01 00:42:34.916,1.03,0.33
2021-08-01 00:42:34.920,1.02,0.31
2021-08-01 00:42:34.924,1.035,0.315
2021-08-01 00:42:34.928,1.035,0.325
2021-08-01 00:42:34.932,1.045,0.335
2021-08-01 00:42:34.936,1.03,0.335
2021-08-01 00:42:34.940,1.05,0.35
2021-08-01 00:42:34.944,1.035,0.355
2021-08-01 00:42:34.948,1.01,0.355
2021-08-01 00:42:34.952,1.025,0.345
2021-08-01 00:42:34.956,1.03,0.36
2021-08-01 00:42:34.960,1.065,0.37
2021-08-01 00:42:34.964,1.045,0.375
2021-08-01 00:42:34.968,1.03,0.395
2021-08-01 00:42:34.972,1.065,0.515
2021-08-01 00:42:34.976,1.085,0.67
2021-08-01 00:42:34.980,1.16,0.94
2021-08-01 00:42:34.984,1.2,1.27
2021-08-01 00:42:34.988,1.14,1.535
2021-08-01 00:42:34.992,0.915,1.77
2021-08-01 00:42:35.040,-0.64,1.815
2021-08-01 00:42:35.044,-0.505,1.005
2021-08-01 00:42:35.048,-0.365,0.59
2021-08-01 00:42:35.052,-0.23,0.45
2021-08-01 00:42:35.056,-0.1,0.345
2021-08-01 00:42:35.060,0.13,0.18
2021-08-01 00:42:35.064,0.425,0.075
2021-08-01 00:42:35.068,0.75,0.005
2021-08-01 00:42:35.072,1.01,-0.005
2021-08-01 00:42:35.076,1.145,-0.025
2021-08-01 00:42:35.080,1.195,-0.045
2021-08-01 00:42:35.084,1.225,-0.05
2021-08-01 00:42:35.088,1.275,-0.03
2021-08-01 00:42:35.092,1.29,-0.005
2021-08-01 00:42:35.096,1.305,-0.005
2021-08-01 00:42:35.100,1.36,-0.01
2021-08-01 00:42:35.104,1.375,-0.03
2021-08-01 00:42:35.108,1.405,0.0
2021-08-01 00:42:35.112,1.41,0.01
2021-08-01 00:42:35.116,1.425,-0.005
2021-08-01 00:42:35.120,1.45,0.01
2021-08-01 00:42:35.124,1.445,0.01
2021-08-01 00:42:35.128,1.465,0.025
2021-08-01 00:42:35.132,1.485,0.03
2021-08-01 00:42:35.136,1.505,0.035
2021-08-01 00:42:35.140,1.53,0.07
2021-08-01 00:42:35.144,1.545,0.06
2021-08-01 00:42:35.148,1.53,0.04
2021-08-01 00:42:35.152,1.555,0.015
2021-08-01 00:42:35.156,1.565,-0.005
2021-08-01 00:42:35.160,1.56,-0.02
2021-08-01 00:42:35.164,1.56,-0.01
2021-08-01 00:42:35.168,1.59,-0.005
2021-08-01 00:42:35.172,1.61,0.005
2021-08-01 00:42:35.176,1.58,-0.005
2021-08-01 00:42:35.180,1.635,0.01
2021-08-01 00:42:35.184,1.68,0.01
2021-08-01 00:42:35.188,1.705,0.035
2021-08-01 00:42:35.192,1.735,0.02
2021-08-01 00:42:35.196,1.8,-0.02
2021-08-01 00:42:35.200,1.795,-0.005
2021-08-01 00:42:35.204,1.84,0.01
2021-08-01 00:42:35.208,1.88,-0.01
2021-08-01 00:42:35.212,1.88,-0.02
2021-08-01 00:42:35.216,1.88,-0.03
2021-08-01 00:42:35.220,1.895,-0.04
2021-08-01 00:42:35.224,1.905,-0.08
2021-08-01 00:42:35.228,1.89,-0.1
2021-08-01 00:42:35.232,1.875,-0.07
2021-08-01 00:42:35.236,1.85,-0.05
2021-08-01 00:42:35.240,1.84,-0.065
2021-08-01 00:42:35.244,1.87,-0.06
2021-08-01 00:42:35.248,1.86,-0.06
2021-08-01 00:42:35.252,1.85,-0.005
2021-08-01 00:42:35.256,1.81,-0.01
2021-08-01 00:42:35.260,1.76,0.02
2021-08-01 00:42:35.264,1.735,0.065
2021-08-01 00:42:35.268,1.71,0.1
2021-08-01 00:42:35.272,1.69,0.135
2021-08-01 00:42:35.276,1.64,0.18
2021-08-01 00:42:35.280,1.59,0.235
2021-08-01 00:42:35.284,1.555,0.3
2021-08-01 00:42:35.288,1.48,0.34
2021-08-01 00:42:35.292,1.44,0.35
2021-08-01 00:42:35.296,1.4,0.39
2021-08-01 00:42:35.300,1.35,0.41
2021-08-01 00:42:35.304,1.34,0.425
2021-08-01 00:42:35.308,1.325,0.45
2021-08-01 00:42:35.312,1.33,0.45
2021-08-01 00:42:35.316,1.285,0.46
2021-08-01 00:42:35.320,1.285,0.455
2021-08-01 00:42:35.324,1.27,0.435
2021-08-01 00:42:35.328,1.25,0.43
2021-08-01 00:42:35.332,1.265,0.41
2021-08-01 00:42:35.336,1.26,0.365
2021-08-01 00:42:35.340,1.26,0.325
2021-08-01 00:42:35.344,1.255,0.34
2021-08-01 00:42:35.348,1.245,0.36
2021-08-01 00:42:35.352,1.21,0.355
2021-08-01 00:42:35.356,1.22,0.32
2021-08-01 00:42:35.360,1.21,0.35
2021-08-01 00:42:35.364,1.23,0.355
2021-08-01 00:42:35.368,1.25,0.345
2021-08-01 00:42:35.372,1.24,0.34
2021-08-01 00:42:35.376,1.285,0.36
2021-08-01 00:42:35.380,1.3,0.35
2021-08-01 00:42:35.384,1.305,0.36
2021-08-01 00:42:35.388,1.3,0.37
2021-08-01 00:42:35.392,1.32,0.36
2021-08-01 00:42:35.396,1.35,0.325
2021-08-01 00:42:35.400,1.4,0.29
2021-08-01 00:42:35.404,1.4,0.265
2021-08-01 00:42:35.408,1.37,0.27
2021-08-01 00:42:35.412,1.33,0.255
2021-08-01 00:42:35.416,1.31,0.265
2021-08-01 00:42:35.420,1.295,0.245
2021-08-01 00:42:35.424,1.29,0.255
2021-08-01 00:42:35.428,1.285,0.245
2021-08-01 00:42:35.432,1.265,0.235
2021-08-01 00:42:35.436,1.26,0.23
2021-08-01 00:42:35.440,1.245,0.215
2021-08-01 00:42:35.444,1.23,0.215
2021-08-01 00:42:35.448,1.215,0.21
2021-08-01 00:42:35.452,1.22,0.21
2021-08-01 00:42:35.456,1.21,0.22
2021-08-01 00:42:35.460,1.215,0.215
2021-08-01 00:42:35.464,1.215,0.225
2021-08-01 00:42:35.468,1.23,0.24
2021-08-01 00:42:35.472,1.2,0.23
2021-08-01 00:42:35.476,1.2,0.215
2021-08-01 00:42:35.480,1.195,0.24
2021-08-01 00:42:35.484,1.19,0.25
2021-08-01 00:42:35.488,1.195,0.235
2021-08-01 00:42:35.492,1.19,0.255
2021-08-01 00:42:35.496,1.205,0.245
2021-08-01 00:42:35.500,1.175,0.245
2021-08-01 00:42:35.504,1.185,0.25
2021-08-01 00:42:35.508,1.2,0.235
2021-08-01 00:42:35.512,1.225,0.22
2021-08-01 00:42:35.516,1.2,0.215
2021-08-01 00:42:35.520,1.205,0.235
2021-08-01 00:42:35.524,1.19,0.215
2021-08-01 00:42:35.528,1.195,0.215
2021-08-01 00:42:35.532,1.19,0.235
2021-08-01 00:42:35.536,1.185,0.25
2021-08-01 00:42:35.540,1.2,0.255
2021-08-01 00:42:35.544,1.19,0.265
2021-08-01 00:42:35.548,1.21,0.28
2021-08-01 00:42:35.552,1.19,0.29
2021-08-01 00:42:35.556,1.19,0.28
2021-08-01 00:42:35.560,1.23,0.29
2021-08-01 00:42:35.564,1.225,0.315
2021-08-01 00:42:35.568,1.22,0.32
2021-08-01 00:42:35.572,1.24,0.32
2021-08-01 00:42:35.576,1.25,0.3
2021-08-01 00:42:35.580,1.235,0.285
2021-08-01 00:42:35.584,1.23,0.325
2021-08-01 00:42:35.588,1.22,0.35
2021-08-01 00:42:35.592,1.23,0.39
2021-08-01 00:42:35.596,1.21,0.4
2021-08-01 00:42:35.600,1.215,0.405
2021-08-01 00:42:35.604,1.23,0.4
2021-08-01 00:42:35.608,1.255,0.405
2021-08-01 00:42:35.612,1.235,0.405
2021-08-01 00:42:35.616,1.235,0.39
2021-08-01 00:42:35.620,1.215,0.405
2021-08-01 00:42:35.624,1.21,0.395
2021-08-01 00:42:35.628,1.2,0.425
2021-08-01 00:42:35.632,1.17,0.42
2021-08-01 00:42:35.636,1.12,0.425
2021-08-01 00:42:35.640,1.155,0.43
2021-08-01 00:42:35.644,1.11,0.445
2021-08-01 00:42:35.648,1.145,0.435
2021-08-01 00:42:35.652,1.165,0.425
2021-08-01 00:42:35.656,1.17,0.42
2021-08-01 00:42:35.660,1.18,0.42
2021-08-01 00:42:35.664,1.15,0.415
2021-08-01 00:42:35.668,1.15,0.415
2021-08-01 00:42:35.672,1.12,0.42
2021-08-01 00:42:35.676,1.13,0.425
2021-08-01 00:42:35.680,1.14,0.435
2021-08-01 00:42:35.684,1.12,0.42
2021-08-01 00:42:35.688,1.14,0.41
2021-08-01 00:42:35.692,1.13,0.385
2021-08-01 00:42:35.696,1.11,0.38
2021-08-01 00:42:35.700,1.13,0.35
2021-08-01 00:42:35.704,1.11,0.34
2021-08-01 00:42:35.708,1.11,0.33
2021-08-01 00:42:35.712,1.09,0.335
2021-08-01 00:42:35.716,1.085,0.345
2021-08-01 00:42:35.720,1.09,0.335
2021-08-01 00:42:35.724,1.1,0.37
2021-08-01 00:42:35.728,1.115,0.37
2021-08-01 00:42:35.732,1.11,0.375
2021-08-01 00:42:35.736,1.125,0.375
2021-08-01 00:42:35.740,1.12,0.375
2021-08-01 00:42:35.744,1.15,0.405
2021-08-01 00:42:35.748,1.16,0.42
2021-08-01 00:42:35.752,1.165,0.415
2021-08-01 00:42:35.756,1.155,0.395
2021-08-01 00:42:35.760,1.18,0.39
2021-08-01 00:42:35.764,1.155,0.405
2021-08-01 00:42:35.768,1.165,0.45
2021-08-01 00:42:35.772,1.115,0.465
2021-08-01 00:42:35.776,1.135,0.505
2021-08-01 00:42:35.780,1.16,0.515
2021-08-01 00:42:35.784,1.205,0.535
2021-08-01 00:42:35.788,1.22,0.565
2021-08-01 00:42:35.792,1.205,0.65
2021-08-01 00:42:35.796,1.23,0.81
2021-08-01 00:42:35.800,1.285,1.06
2021-08-01 00:42:35.804,1.325,1.41
2021-08-01 00:42:35.808,1.305,1.705
2021-08-01 00:42:35.812,1.115,1.895
2021-08-01 00:42:35.884,-0.18,1.32
2021-08-01 00:42:35.888,-0.05,0.56
2021-08-01 00:42:35.892,0.095,-0.02
2021-08-01 00:42:35.896,0.235,-0.405
2021-08-01 00:42:35.900,0.41,-0.585
2021-08-01 00:42:35.904,0.585,-0.71
2021-08-01 00:42:35.908,0.77,-0.775
2021-08-01 00:42:35.912,0.905,-0.85
2021-08-01 00:42:35.916,1.075,-0.895
2021-08-01 00:42:35.920,1.225,-0.965
2021-08-01 00:42:35.924,1.335,-1.01
2021-08-01 00:42:35.928,1.355,-1.1
2021-08-01 00:42:35.932,1.405,-1.14
2021-08-01 00:42:35.936,1.405,-1.16
2021-08-01 00:42:35.940,1.425,-1.18
2021-08-01 00:42:35.944,1.43,-1.16
2021-08-01 00:42:35.948,1.46,-1.175
2021-08-01 00:42:35.952,1.49,-1.19
2021-08-01 00:42:35.956,1.52,-1.205
2021-08-01 00:42:35.960,1.565,-1.215
2021-08-01 00:42:35.964,1.59,-1.26
2021-08-01 00:42:35.968,1.6,-1.265
2021-08-01 00:42:35.972,1.62,-1.255
2021-08-01 00:42:35.976,1.645,-1.265
2021-08-01 00:42:35.980,1.645,-1.275
2021-08-01 00:42:35.984,1.675,-1.295
2021-08-01 00:42:35.988,1.695,-1.325
2021-08-01 00:42:35.992,1.735,-1.33
2021-08-01 00:42:35.996,1.75,-1.295
2021-08-01 00:42:36.000,1.755,-1.33
2021-08-01 00:42:36.004,1.805,-1.345
2021-08-01 00:42:36.008,1.845,-1.36
2021-08-01 00:42:36.012,1.865,-1.38
2021-08-01 00:42:36.016,1.88,-1.415
2021-08-01 00:42:36.020,1.88,-1.45
2021-08-01 00:42:36.024,1.86,-1.47
2021-08-01 00:42:36.028,1.87,-1.51
2021-08-01 00:42:36.032,1.875,-1.535
2021-08-01 00:42:36.036,1.87,-1.575
2021-08-01 00:42:36.040,1.87,-1.57
2021-08-01 00:42:36.044,1.905,-1.6
2021-08-01 00:42:36.048,1.91,-1.63
2021-08-01 00:42:36.052,1.925,-1.64
2021-08-01 00:42:36.056,1.915,-1.675
2021-08-01 00:42:36.060,1.895,-1.675
2021-08-01 00:42:36.064,1.92,-1.66
2021-08-01 00:42:36.068,1.91,-1.66
2021-08-01 00:42:36.072,1.925,-1.625
2021-08-01 00:42:36.076,1.905,-1.59
2021-08-01 00:42:36.080,1.86,-1.565
2021-08-01 00:42:36.084,1.84,-1.535
2021-08-01 00:42:36.088,1.845,-1.475
2021-08-01 00:42:36.092,1.795,-1.415
2021-08-01 00:42:36.096,1.795,-1.365
2021-08-01 00:42:36.100,1.74,-1.315
2021-08-01 00:42:36.104,1.725,-1.255
2021-08-01 00:42:36.108,1.69,-1.195
2021-08-01 00:42:36.112,1.645,-1.15
2021-08-01 00:42:36.116,1.6,-1.115
2021-08-01 00:42:36.120,1.57,-1.08
2021-08-01 00:42:36.124,1.535,-1.075
2021-08-01 00:42:36.128,1.495,-1.08
2021-08-01 00:42:36.132,1.47,-1.085
2021-08-01 00:42:36.136,1.415,-1.075
2021-08-01 00:42:36.140,1.38,-1.055
2021-08-01 00:42:36.144,1.315,-1.055
2021-08-01 00:42:36.148,1.29,-1.055
2021-08-01 00:42:36.152,1.24,-1.04
2021-08-01 00:42:36.156,1.215,-1.04
2021-08-01 00:42:36.160,1.21,-1.045
2021-08-01 00:42:36.164,1.215,-1.075
2021-08-01 00:42:36.168,1.225,-1.075
2021-08-01 00:42:36.172,1.21,-1.095
2021-08-01 00:42:36.176,1.21,-1.11
2021-08-01 00:42:36.180,1.22,-1.105
2021-08-01 00:42:36.184,1.21,-1.105
2021-08-01 00:42:36.188,1.205,-1.1
2021-08-01 00:42:36.192,1.22,-1.145
2021-08-01 00:42:36.196,1.215,-1.15
2021-08-01 00:42:36.200,1.25,-1.17
2021-08-01 00:42:36.204,1.25,-1.15
2021-08-01 00:42:36.208,1.22,-1.16
2021-08-01 00:42:36.212,1.2,-1.195
2021-08-01 00:42:36.216,1.185,-1.205
2021-08-01 00:42:36.220,1.17,-1.195
2021-08-01 00:42:36.224,1.175,-1.195
2021-08-01 00:42:36.228,1.165,-1.24
2021-08-01 00:42:36.232,1.16,-1.24
2021-08-01 00:42:36.236,1.12,-1.25
2021-08-01 00:42:36.240,1.12,-1.245
2021-08-01 00:42:36.244,1.08,-1.285
2021-08-01 00:42:36.248,1.1,-1.29
2021-08-01 00:42:36.252,1.095,-1.235
2021-08-01 00:42:36.256,1.07,-1.255
2021-08-01 00:42:36.260,1.08,-1.295
2021-08-01 00:42:36.264,1.09,-1.305
2021-08-01 00:42:36.268,1.11,-1.275
2021-08-01 00:42:36.272,1.095,-1.28
2021-08-01 00:42:36.276,1.085,-1.295
2021-08-01 00:42:36.280,1.08,-1.295
2021-08-01 00:42:36.284,1.09,-1.295
2021-08-01 00:42:36.288,1.06,-1.275
2021-08-01 00:42:36.292,1.055,-1.29
2021-08-01 00:42:36.296,1.045,-1.31
2021-08-01 00:42:36.300,1.06,-1.27
2021-08-01 00:42:36.304,1.065,-1.275
2021-08-01 00:42:36.308,1.035,-1.27
2021-08-01 00:42:36.312,1.025,-1.29
2021-08-01 00:42:36.316,1.03,-1.315
2021-08-01 00:42:36.320,1.03,-1.31
2021-08-01 00:42:36.324,1.035,-1.35
2021-08-01 00:42:36.328,1.01,-1.375
2021-08-01 00:42:36.332,0.99,-1.37
2021-08-01 00:42:36.336,0.98,-1.33
2021-08-01 00:42:36.340,0.98,-1.365
2021-08-01 00:42:36.344,0.985,-1.335
2021-08-01 00:42:36.348,0.995,-1.295
2021-08-01 00:42:36.352,0.99,-1.28
2021-08-01 00:42:36.356,0.99,-1.32
2021-08-01 00:42:36.360,1.01,-1.325
2021-08-01 00:42:36.364,1.025,-1.32
2021-08-01 00:42:36.368,1.01,-1.31
2021-08-01 00:42:36.372,1.015,-1.295
2021-08-01 00:42:36.376,1.03,-1.27
2021-08-01 00:42:36.380,1.025,-1.23
2021-08-01 00:42:36.384,1.025,-1.215
2021-08-01 00:42:36.388,1.03,-1.185
2021-08-01 00:42:36.392,1.055,-1.07
2021-08-01 00:42:36.396,1.075,-0.84
2021-08-01 00:42:36.400,1.125,-0.55
2021-08-01 00:42:36.404,1.215,-0.25
2021-08-01 00:42:36.408,1.21,0.025
2021-08-01 00:42:36.412,1.005,0.25
2021-08-01 00:42:36.416,0.595,0.5
2021-08-01 00:42:36.420,-0.03,0.775
2021-08-01 00:42:36.424,-0.66,0.985
2021-08-01 00:42:36.428,-1.205,1.115
2021-08-01 00:42:36.432,-1.615,1.18
2021-08-01 00:42:36.436,-1.725,1.22
2021-08-01 00:42:36.440,-1.64,1.17
2021-08-01 00:42:36.444,-1.505,1.105
2021-08-01 00:42:36.448,-1.365,1.11
2021-08-01 00:42:36.452,-1.3,1.045
2021-08-01 00:42:36.456,-1.17,0.97
2021-08-01 00:42:36.460,-0.99,0.98
2021-08-01 00:42:36.464,-0.865,1.035
2021-08-01 00:42:36.468,-0.765,1.16
2021-08-01 00:42:36.472,-0.62,1.155
2021-08-01 00:42:36.476,-0.515,0.945
2021-08-01 00:42:36.480,-0.375,0.405
2021-08-01 00:42:36.484,-0.31,-0.235
2021-08-01 00:42:36.488,-0.195,-0.77
2021-08-01 00:42:36.492,-0.06,-1.15
2021-08-01 00:42:36.496,0.12,-1.425
2021-08-01 00:42:36.500,0.255,-1.495
2021-08-01 00:42:36.504,0.425,-1.53
2021-08-01 00:42:36.508,0.56,-1.58
2021-08-01 00:42:36.512,0.76,-1.585
2021-08-01 00:42:36.516,0.92,-1.595
2021-08-01 00:42:36.520,1.08,-1.6
2021-08-01 00:42:36.524,1.13,-1.67
2021-08-01 00:42:36.528,1.175,-1.71
2021-08-01 00:42:36.532,1.215,-1.665
2021-08-01 00:42:36.536,1.24,-1.69
2021-08-01 00:42:36.540,1.26,-1.695
2021-08-01 00:42:36.544,1.27,-1.65
2021-08-01 00:42:36.548,1.285,-1.605
2021-08-01 00:42:36.552,1.315,-1.61
2021-08-01 00:42:36.556,1.33,-1.65
2021-08-01 00:42:36.560,1.37,-1.67
2021-08-01 00:42:36.564,1.375,-1.65
2021-08-01 00:42:36.568,1.395,-1.64
2021-08-01 00:42:36.572,1.43,-1.65
2021-08-01 00:42:36.576,1.415,-1.65
2021-08-01 00:42:36.580,1.435,-1.65
2021-08-01 00:42:36.584,1.46,-1.7
2021-08-01 00:42:36.588,1.475,-1.725
2021-08-01 00:42:36.592,1.5,-1.7
2021-08-01 00:42:36.596,1.52,-1.68
2021-08-01 00:42:36.600,1.55,-1.685
2021-08-01 00:42:36.604,1.585,-1.725
2021-08-01 00:42:36.608,1.61,-1.75
2021-08-01 00:42:36.612,1.605,-1.76
2021-08-01 00:42:36.616,1.63,-1.74
2021-08-01 00:42:36.620,1.6,-1.765
2021-08-01 00:42:36.624,1.61,-1.78
2021-08-01 00:42:36.628,1.65,-1.805
2021-08-01 00:42:36.632,1.675,-1.835
2021-08-01 00:42:36.636,1.66,-1.85
2021-08-01 00:42:36.640,1.685,-1.91
2021-08-01 00:42:36.644,1.665,-1.905
2021-08-01 00:42:36.648,1.68,-1.9
2021-08-01 00:42:36.652,1.685,-1.905
2021-08-01 00:42:36.656,1.685,-1.915
2021-08-01 00:42:36.660,1.73,-1.895
2021-08-01 00:42:36.664,1.71,-1.87
2021-08-01 00:42:36.668,1.69,-1.835
2021-08-01 00:42:36.672,1.685,-1.795
2021-08-01 00:42:36.676,1.665,-1.73
2021-08-01 00:42:36.680,1.63,-1.66
2021-08-01 00:42:36.684,1.61,-1.61
2021-08-01 00:42:36.688,1.555,-1.56
2021-08-01 00:42:36.692,1.505,-1.505
2021-08-01 00:42:36.696,1.475,-1.415
2021-08-01 00:42:36.700,1.405,-1.36
2021-08-01 00:42:36.704,1.355,-1.335
2021-08-01 00:42:36.708,1.315,-1.3
2021-08-01 00:42:36.712,1.27,-1.255
2021-08-01 00:42:36.716,1.21,-1.245
2021-08-01 00:42:36.720,1.155,-1.225
2021-08-01 00:42:36.724,1.12,-1.19
2021-08-01 00:42:36.728,1.055,-1.16
2021-08-01 00:42:36.732,1.015,-1.175
2021-08-01 00:42:36.736,1.0,-1.175
2021-08-01 00:42:36.740,0.965,-1.14
2021-08-01 00:42:36.744,0.945,-1.14
2021-08-01 00:42:36.748,0.935,-1.14
2021-08-01 00:42:36.752,0.925,-1.145
2021-08-01 00:42:36.756,0.915,-1.145
2021-08-01 00:42:36.760,0.915,-1.165
2021-08-01 00:42:36.764,0.925,-1.145
2021-08-01 00:42:36.768,0.92,-1.145
2021-08-01 00:42:36.772,0.925,-1.145
2021-08-01 00:42:36.776,0.925,-1.165
2021-08-01 00:42:36.780,0.925,-1.185
2021-08-01 00:42:36.784,0.92,-1.17
2021-08-01 00:42:36.788,0.92,-1.18
2021-08-01 00:42:36.792,0.935,-1.18
2021-08-01 00:42:36.796,0.915,-1.185
2021-08-01 00:42:36.800,0.89,-1.17
2021-08-01 00:42:36.804,0.875,-1.17
2021-08-01 00:42:36.808,0.845,-1.18
2021-08-01 00:42:36.812,0.845,-1.185
2021-08-01 00:42:36.816,0.85,-1.195
2021-08-01 00:42:36.820,0.82,-1.195
2021-08-01 00:42:36.824,0.795,-1.18
2021-08-01 00:42:36.828,0.805,-1.17
2021-08-01 00:42:36.832,0.8,-1.2
2021-08-01 00:42:36.836,0.78,-1.195
2021-08-01 00:42:36.840,0.78,-1.2
2021-08-01 00:42:36.844,0.78,-1.2
2021-08-01 00:42:36.848,0.76,-1.215
2021-08-01 00:42:36.852,0.765,-1.19
2021-08-01 00:42:36.856,0.765,-1.22
2021-08-01 00:42:36.860,0.75,-1.205
2021-08-01 00:42:36.864,0.765,-1.205
2021-08-01 00:42:36.868,0.76,-1.195
2021-08-01 00:42:36.872,0.785,-1.205
2021-08-01 00:42:36.876,0.75,-1.19
2021-08-01 00:42:36.880,0.75,-1.15
2021-08-01 00:42:36.884,0.745,-1.165
2021-08-01 00:42:36.888,0.735,-1.145
2021-08-01 00:42:36.892,0.745,-1.145
2021-08-01 00:42:36.896,0.76,-1.11
2021-08-01 00:42:36.900,0.75,-1.085
2021-08-01 00:42:36.904,0.76,-1.005
2021-08-01 00:42:36.908,0.77,-0.88
2021-08-01 00:42:36.912,0.83,-0.685
2021-08-01 00:42:36.916,0.91,-0.395
2021-08-01 00:42:36.920,0.86,-0.17
2021-08-01 00:42:36.924,0.655,0.1
2021-08-01 00:42:36.928,0.22,0.415
2021-08-01 00:42:36.932,-0.42,0.745
2021-08-01 00:42:36.936,-1.07,1.02
2021-08-01 00:42:36.940,-1.53,1.16
2021-08-01 00:42:36.944,-1.89,1.205
2021-08-01 00:42:36.948,-1.96,1.245
2021-08-01 00:42:36.952,-1.91,1.24
2021-08-01 00:42:36.956,-1.755,1.205
2021-08-01 00:42:36.960,-1.645,1.18
2021-08-01 00:42:36.964,-1.52,1.155
2021-08-01 00:42:36.968,-1.39,1.1
2021-08-01 00:42:36.972,-1.225,1.05
2021-08-01 00:42:36.976,-1.095,1.095
2021-08-01 00:42:36.980,-0.975,1.195
2021-08-01 00:42:36.984,-0.855,1.27
2021-08-01 00:42:36.988,-0.765,1.06
2021-08-01 00:42:36.992,-0.66,0.48
2021-08-01 00:42:36.996,-0.545,-0.165
2021-08-01 00:42:37.000,-0.455,-0.73
2021-08-01 00:42:37.004,-0.335,-1.14
2021-08-01 00:42:37.008,-0.19,-1.415
2021-08-01 00:42:37.012,-0.055,-1.53
2021-08-01 00:42:37.016,0.11,-1.55
2021-08-01 00:42:37.020,0.275,-1.55
2021-08-01 00:42:37.024,0.445,-1.55
2021-08-01 00:42:37.028,0.63,-1.56
2021-08-01 00:42:37.032,0.815,-1.575
2021-08-01 00:42:37.036,0.92,-1.585
2021-08-01 00:42:37.040,0.955,-1.59
2021-08-01 00:42:37.044,1.01,-1.61
2021-08-01 00:42:37.048,1.03,-1.61
2021-08-01 00:42:37.052,1.05,-1.61
2021-08-01 00:42:37.056,1.075,-1.625
2021-08-01 00:42:37.060,1.1,-1.635
2021-08-01 00:42:37.064,1.115,-1.615
2021-08-01 00:42:37.068,1.15,-1.6
2021-08-01 00:42:37.072,1.14,-1.62
2021-08-01 00:42:37.076,1.14,-1.615
2021-08-01 00:42:37.080,1.175,-1.625
2021-08-01 00:42:37.084,1.185,-1.625
2021-08-01 00:42:37.088,1.195,-1.64
2021-08-01 00:42:37.092,1.22,-1.63
2021-08-01 00:42:37.096,1.215,-1.655
2021-08-01 00:42:37.100,1.22,-1.66
2021-08-01 00:42:37.104,1.26,-1.715
2021-08-01 00:42:37.108,1.3,-1.74
2021-08-01 00:42:37.112,1.27,-1.745
2021-08-01 00:42:37.116,1.29,-1.73
2021-08-01 00:42:37.120,1.31,-1.74
2021-08-01 00:42:37.124,1.315,-1.775
2021-08-01 00:42:37.128,1.355,-1.765
2021-08-01 00:42:37.132,1.38,-1.735
2021-08-01 00:42:37.136,1.375,-1.75
2021-08-01 00:42:37.140,1.42,-1.775
2021-08-01 00:42:37.144,1.47,-1.815
2021-08-01 00:42:37.148,1.495,-1.835
2021-08-01 00:42:37.152,1.53,-1.815
2021-08-01 00:42:37.156,1.535,-1.81
2021-08-01 00:42:37.160,1.55,-1.83
2021-08-01 00:42:37.164,1.575,-1.845
2021-08-01 00:42:37.168,1.585,-1.86
2021-08-01 00:42:37.172,1.6,-1.81
2021-08-01 00:42:37.176,1.6,-1.785
2021-08-01 00:42:37.180,1.58,-1.715
2021-08-01 00:42:37.184,1.59,-1.7
2021-08-01 00:42:37.188,1.545,-1.655
2021-08-01 00:42:37.192,1.55,-1.64
2021-08-01 00:42:37.196,1.48,-1.595
2021-08-01 00:42:37.200,1.35,-1.5
2021-08-01 00:42:37.204,1.3,-1.46
2021-08-01 00:42:37.208,1.225,-1.41
2021-08-01 00:42:37.212,1.17,-1.365
2021-08-01 00:42:37.216,1.115,-1.3
2021-08-01 00:42:37.220,1.015,-1.26
2021-08-01 00:42:37.224,0.97,-1.225
2021-08-01 00:42:37.228,0.935,-1.205
2021-08-01 00:42:37.232,0.89,-1.17
2021-08-01 00:42:37.236,0.87,-1.155
2021-08-01 00:42:37.240,0.8,-1.18
2021-08-01 00:42:37.244,0.76,-1.165
2021-08-01 00:42:37.248,0.745,-1.185
2021-08-01 00:42:37.252,0.725,-1.185
2021-08-01 00:42:37.256,0.67,-1.215
2021-08-01 00:42:37.260,0.655,-1.22
2021-08-01 00:42:37.264,0.635,-1.22
2021-08-01 00:42:37.268,0.625,-1.215
2021-08-01 00:42:37.272,0.62,-1.245
2021-08-01 00:42:37.276,0.62,-1.275
2021-08-01 00:42:37.280,0.62,-1.305
2021-08-01 00:42:37.284,0.615,-1.33
2021-08-01 00:42:37.288,0.6,-1.345
2021-08-01 00:42:37.292,0.575,-1.405
2021-08-01 00:42:37.296,0.565,-1.43
2021-08-01 00:42:37.300,0.57,-1.415
2021-08-01 00:42:37.304,0.55,-1.455
2021-08-01 00:42:37.308,0.53,-1.46
2021-08-01 00:42:37.312,0.53,-1.435
2021-08-01 00:42:37.316,0.51,-1.41
2021-08-01 00:42:37.320,0.525,-1.45
2021-08-01 00:42:37.324,0.54,-1.455
2021-08-01 00:42:37.328,0.545,-1.44
2021-08-01 00:42:37.332,0.545,-1.445
2021-08-01 00:42:37.336,0.545,-1.47
2021-08-01 00:42:37.340,0.555,-1.48
2021-08-01 00:42:37.344,0.56,-1.465
2021-08-01 00:42:37.348,0.555,-1.465
2021-08-01 00:42:37.352,0.54,-1.5
2021-08-01 00:42:37.356,0.535,-1.555
2021-08-01 00:42:37.360,0.54,-1.54
2021-08-01 00:42:37.364,0.55,-1.49
2021-08-01 00:42:37.368,0.53,-1.485
2021-08-01 00:42:37.372,0.52,-1.5
2021-08-01 00:42:37.376,0.555,-1.505
2021-08-01 00:42:37.380,0.585,-1.505
2021-08-01 00:42:37.384,0.57,-1.51
2021-08-01 00:42:37.388,0.545,-1.52
2021-08-01 00:42:37.392,0.51,-1.515
2021-08-01 00:42:37.396,0.48,-1.495
2021-08-01 00:42:37.400,0.43,-1.48
2021-08-01 00:42:37.404,0.43,-1.495
2021-08-01 00:42:37.408,0.405,-1.49
2021-08-01 00:42:37.412,0.39,-1.475
2021-08-01 00:42:37.416,0.375,-1.46
2021-08-01 00:42:37.420,0.395,-1.44
2021-08-01 00:42:37.424,0.385,-1.435
2021-08-01 00:42:37.428,0.4,-1.44
2021-08-01 00:42:37.432,0.415,-1.435
2021-08-01 00:42:37.436,0.425,-1.46
2021-08-01 00:42:37.440,0.435,-1.435
2021-08-01 00:42:37.444,0.445,-1.455
2021-08-01 00:42:37.448,0.425,-1.455
2021-08-01 00:42:37.452,0.41,-1.46
2021-08-01 00:42:37.456,0.425,-1.455
2021-08-01 00:42:37.460,0.425,-1.435
2021-08-01 00:42:37.464,0.405,-1.415
2021-08-01 00:42:37.468,0.405,-1.445
2021-08-01 00:42:37.472,0.415,-1.47
2021-08-01 00:42:37.476,0.415,-1.51
2021-08-01 00:42:37.480,0.42,-1.5
2021-08-01 00:42:37.484,0.4,-1.505
2021-08-01 00:42:37.488,0.385,-1.565
2021-08-01 00:42:37.492,0.4,-1.555
2021-08-01 00:42:37.496,0.38,-1.56
2021-08-01 00:42:37.500,0.38,-1.54
2021-08-01 00:42:37.504,0.36,-1.57
2021-08-01 00:42:37.508,0.355,-1.55
2021-08-01 00:42:37.512,0.375,-1.515
2021-08-01 00:42:37.516,0.38,-1.5
2021-08-01 00:42:37.520,0.395,-1.48
2021-08-01 00:42:37.524,0.385,-1.52
2021-08-01 00:42:37.528,0.41,-1.51
2021-08-01 00:42:37.532,0.41,-1.565
2021-08-01 00:42:37.536,0.405,-1.585
2021-08-01 00:42:37.540,0.395,-1.52
2021-08-01 00:42:37.544,0.4,-1.48
2021-08-01 00:42:37.548,0.385,-1.485
2021-08-01 00:42:37.552,0.41,-1.485
2021-08-01 00:42:37.556,0.415,-1.48
2021-08-01 00:42:37.560,0.43,-1.48
2021-08-01 00:42:37.564,0.46,-1.485
2021-08-01 00:42:37.568,0.45,-1.505
2021-08-01 00:42:37.572,0.455,-1.49
2021-08-01 00:42:37.576,0.45,-1.5
2021-08-01 00:42:37.580,0.47,-1.465
2021-08-01 00:42:37.584,0.485,-1.485
2021-08-01 00:42:37.588,0.47,-1.495
2021-08-01 00:42:37.592,0.455,-1.5
2021-08-01 00:42:37.596,0.42,-1.495
2021-08-01 00:42:37.600,0.385,-1.495
2021-08-01 00:42:37.604,0.365,-1.48
2021-08-01 00:42:37.608,0.33,-1.45
2021-08-01 00:42:37.612,0.345,-1.455
2021-08-01 00:42:37.616,0.32,-1.465
2021-08-01 00:42:37.620,0.295,-1.465
2021-08-01 00:42:37.624,0.29,-1.47
2021-08-01 00:42:37.628,0.33,-1.445
2021-08-01 00:42:37.632,0.335,-1.415
2021-08-01 00:42:37.636,0.315,-1.425
2021-08-01 00:42:37.640,0.305,-1.38
2021-08-01 00:42:37.644,0.325,-1.295
2021-08-01 00:42:37.648,0.32,-1.19
2021-08-01 00:42:37.652,0.36,-0.995
2021-08-01 00:42:37.656,0.445,-0.69
2021-08-01 00:42:37.660,0.47,-0.475
2021-08-01 00:42:37.664,0.3,-0.285
2021-08-01 00:42:37.668,-0.015,-0.105
2021-08-01 00:42:37.672,-0.61,0.18
2021-08-01 00:42:37.676,-1.275,0.42
2021-08-01 00:42:37.680,-1.775,0.57
2021-08-01 00:42:37.708,-1.92,0.41
2021-08-01 00:42:37.712,-1.785,0.44
2021-08-01 00:42:37.716,-1.625,0.51
2021-08-01 00:42:37.720,-1.55,0.65
2021-08-01 00:42:37.724,-1.385,0.805
2021-08-01 00:42:37.728,-1.205,0.715
2021-08-01 00:42:37.732,-1.08,0.31
2021-08-01 00:42:37.736,-0.905,-0.325
2021-08-01 00:42:37.740,-0.78,-0.89
2021-08-01 00:42:37.744,-0.67,-1.32
2021-08-01 00:42:37.748,-0.525,-1.605
2021-08-01 00:42:37.752,-0.37,-1.73
2021-08-01 00:42:37.756,-0.175,-1.79
2021-08-01 00:42:37.760,0.0,-1.775
2021-08-01 00:42:37.764,0.165,-1.8
2021-08-01 00:42:37.768,0.32,-1.8
2021-08-01 00:42:37.772,0.5,-1.81
2021-08-01 00:42:37.776,0.62,-1.835
2021-08-01 00:42:37.780,0.67,-1.85
2021-08-01 00:42:37.784,0.67,-1.87
2021-08-01 00:42:37.788,0.67,-1.885
2021-08-01 00:42:37.792,0.65,-1.905
2021-08-01 00:42:37.796,0.68,-1.93
2021-08-01 00:42:37.800,0.695,-1.965
2021-08-01 00:42:37.804,0.685,-1.955
2021-08-01 00:42:37.808,0.7,-1.915
2021-08-01 00:42:37.812,0.715,-1.865
2021-08-01 00:42:37.816,0.71,-1.825
2021-08-01 00:42:37.820,0.73,-1.865
2021-08-01 00:42:37.824,0.755,-1.93
2021-08-01 00:42:37.828,0.785,-1.94
2021-08-01 00:42:37.832,0.79,-1.84
2021-08-01 00:42:37.836,0.84,-1.735
2021-08-01 00:42:37.840,0.835,-1.75
2021-08-01 00:42:37.844,0.865,-1.795
2021-08-01 00:42:37.848,0.885,-1.81
2021-08-01 00:42:37.852,0.925,-1.79
2021-08-01 00:42:37.856,0.98,-1.8
2021-08-01 00:42:37.860,1.005,-1.79
2021-08-01 00:42:37.864,1.005,-1.815
2021-08-01 00:42:37.868,1.05,-1.815
2021-08-01 00:42:37.872,1.08,-1.855
2021-08-01 00:42:37.876,1.105,-1.885
2021-08-01 00:42:37.880,1.135,-1.895
2021-08-01 00:42:37.884,1.195,-1.92
2021-08-01 00:42:37.888,1.225,-1.91
2021-08-01 00:42:37.892,1.22,-1.935
2021-08-01 00:42:37.896,1.185,-1.965
2021-08-01 00:42:37.900,1.205,-1.99
2021-08-01 00:42:37.904,1.26,-1.985
2021-08-01 00:42:37.908,1.24,-1.925
2021-08-01 00:42:37.912,1.26,-1.905
2021-08-01 00:42:37.916,1.235,-1.915
2021-08-01 00:42:37.920,1.22,-1.89
2021-08-01 00:42:37.924,1.235,-1.875
2021-08-01 00:42:37.928,1.245,-1.85
2021-08-01 00:42:37.932,1.205,-1.79
2021-08-01 00:42:37.936,1.18,-1.79
2021-08-01 00:42:37.940,1.165,-1.745
2021-08-01 00:42:37.944,1.135,-1.64
2021-08-01 00:42:37.948,1.09,-1.505
2021-08-01 00:42:37.952,1.0,-1.465
2021-08-01 00:42:37.956,0.965,-1.53
2021-08-01 00:42:37.960,0.945,-1.515
2021-08-01 00:42:37.964,0.945,-1.41
2021-08-01 00:42:37.968,0.865,-1.345
2021-08-01 00:42:37.972,0.77,-1.39
2021-08-01 00:42:37.976,0.705,-1.455
2021-08-01 00:42:37.980,0.62,-1.39
2021-08-01 00:42:37.984,0.55,-1.33
2021-08-01 00:42:37.988,0.465,-1.25
2021-08-01 00:42:37.992,0.405,-1.24
2021-08-01 00:42:37.996,0.405,-1.35
2021-08-01 00:42:38.000,0.37,-1.375
2021-08-01 00:42:38.004,0.345,-1.27
2021-08-01 00:42:38.008,0.28,-1.245
2021-08-01 00:42:38.012,0.26,-1.29
2021-08-01 00:42:38.016,0.215,-1.325
2021-08-01 00:42:38.020,0.225,-1.345
2021-08-01 00:42:38.024,0.21,-1.43
2021-08-01 00:42:38.028,0.2,-1.52
2021-08-01 00:42:38.032,0.19,-1.365
2021-08-01 00:42:38.036,0.17,-1.245
2021-08-01 00:42:38.040,0.145,-1.255
2021-08-01 00:42:38.044,0.135,-1.325
2021-08-01 00:42:38.048,0.16,-1.43
2021-08-01 00:42:38.052,0.135,-1.44
2021-08-01 00:42:38.056,0.14,-1.39
2021-08-01 00:42:38.060,0.16,-1.335
2021-08-01 00:42:38.064,0.155,-1.295
2021-08-01 00:42:38.068,0.165,-1.385
2021-08-01 00:42:38.072,0.155,-1.555
2021-08-01 00:42:38.076,0.195,-1.53
2021-08-01 00:42:38.080,0.205,-1.42
2021-08-01 00:42:38.084,0.17,-1.515
2021-08-01 00:42:38.088,0.13,-1.545
2021-08-01 00:42:38.092,0.185,-1.515
2021-08-01 00:42:38.096,0.195,-1.445
2021-08-01 00:42:38.100,0.155,-1.335
2021-08-01 00:42:38.104,0.195,-1.415
2021-08-01 00:42:38.108,0.185,-1.5
2021-08-01 00:42:38.112,0.19,-1.475
2021-08-01 00:42:38.116,0.2,-1.47
2021-08-01 00:42:38.120,0.225,-1.46
2021-08-01 00:42:38.124,0.2,-1.425
2021-08-01 00:42:38.128,0.215,-1.36
2021-08-01 00:42:38.132,0.195,-1.3
2021-08-01 00:42:38.136,0.22,-1.245
2021-08-01 00:42:38.140,0.23,-1.125
2021-08-01 00:42:38.144,0.265,-0.87
2021-08-01 00:42:38.148,0.32,-0.645
2021-08-01 00:42:38.152,0.315,-0.505
2021-08-01 00:42:38.156,0.14,-0.325
2021-08-01 00:42:38.160,-0.26,-0.1
2021-08-01 00:42:38.164,-0.92,0.075
2021-08-01 00:42:38.168,-1.59,0.26
2021-08-01 00:42:38.208,-1.975,0.385
2021-08-01 00:42:38.212,-1.855,0.395
2021-08-01 00:42:38.216,-1.73,0.265
2021-08-01 00:42:38.220,-1.595,-0.095
2021-08-01 00:42:38.224,-1.495,-0.545
2021-08-01 00:42:38.228,-1.405,-1.0
2021-08-01 00:42:38.232,-1.275,-1.37
2021-08-01 00:42:38.236,-1.13,-1.57
2021-08-01 00:42:38.240,-0.99,-1.56
2021-08-01 00:42:38.244,-0.755,-1.54
2021-08-01 00:42:38.248,-0.535,-1.61
2021-08-01 00:42:38.252,-0.28,-1.57
2021-08-01 00:42:38.256,-0.09,-1.5
2021-08-01 00:42:38.260,0.07,-1.55
2021-08-01 00:42:38.264,0.175,-1.57
2021-08-01 00:42:38.268,0.26,-1.555
2021-08-01 00:42:38.272,0.27,-1.535
2021-08-01 00:42:38.276,0.27,-1.53
2021-08-01 00:42:38.280,0.27,-1.54
2021-08-01 00:42:38.284,0.32,-1.525
2021-08-01 00:42:38.288,0.315,-1.51
2021-08-01 00:42:38.292,0.33,-1.52
2021-08-01 00:42:38.296,0.345,-1.485
2021-08-01 00:42:38.300,0.36,-1.465
2021-08-01 00:42:38.304,0.375,-1.435
2021-08-01 00:42:38.308,0.395,-1.425
2021-08-01 00:42:38.312,0.4,-1.42
2021-08-01 00:42:38.316,0.42,-1.45
2021-08-01 00:42:38.320,0.455,-1.425
2021-08-01 00:42:38.324,0.45,-1.385
2021-08-01 00:42:38.328,0.445,-1.36
2021-08-01 00:42:38.332,0.455,-1.4
2021-08-01 00:42:38.336,0.495,-1.42
2021-08-01 00:42:38.340,0.515,-1.44
2021-08-01 00:42:38.344,0.54,-1.445
2021-08-01 00:42:38.348,0.525,-1.44
2021-08-01 00:42:38.352,0.545,-1.46
2021-08-01 00:42:38.356,0.595,-1.485
2021-08-01 00:42:38.360,0.65,-1.51
2021-08-01 00:42:38.364,0.655,-1.555
2021-08-01 00:42:38.368,0.695,-1.535
2021-08-01 00:42:38.372,0.71,-1.5
2021-08-01 00:42:38.376,0.695,-1.56
2021-08-01 00:42:38.380,0.66,-1.56
2021-08-01 00:42:38.384,0.67,-1.53
2021-08-01 00:42:38.388,0.645,-1.52
2021-08-01 00:42:38.392,0.635,-1.49
2021-08-01 00:42:38.396,0.63,-1.51
2021-08-01 00:42:38.400,0.6,-1.505
2021-08-01 00:42:38.404,0.585,-1.46
2021-08-01 00:42:38.408,0.55,-1.425
2021-08-01 00:42:38.412,0.49,-1.38
2021-08-01 00:42:38.416,0.43,-1.315
2021-08-01 00:42:38.420,0.425,-1.255
2021-08-01 00:42:38.424,0.37,-1.245
2021-08-01 00:42:38.428,0.315,-1.205
2021-08-01 00:42:38.432,0.27,-1.165
2021-08-01 00:42:38.436,0.21,-1.125
2021-08-01 00:42:38.440,0.14,-1.15
2021-08-01 00:42:38.444,0.1,-1.125
2021-08-01 00:42:38.448,0.04,-1.09
2021-08-01 00:42:38.452,0.01,-1.07
2021-08-01 00:42:38.456,-0.055,-1.07
2021-08-01 00:42:38.460,-0.09,-1.07
