Time,ECG1,ECG2
2021-08-19 13:51:36.392,0.175,0.09
2021-08-19 13:51:36.396,0.18,0.13
2021-08-19 13:51:36.400,0.2,0.17
2021-08-19 13:51:36.404,0.24,0.155
2021-08-19 13:51:36.408,0.23,0.165
2021-08-19 13:51:36.412,0.23,0.18
2021-08-19 13:51:36.416,0.225,0.18
2021-08-19 13:51:36.420,0.26,0.175
2021-08-19 13:51:36.424,0.28,0.135
2021-08-19 13:51:36.428,0.27,0.105
2021-08-19 13:51:36.432,0.26,0.02
2021-08-19 13:51:36.436,0.26,0.0
2021-08-19 13:51:36.440,0.275,-0.025
2021-08-19 13:51:36.444,0.265,-0.04
2021-08-19 13:51:36.448,0.295,-0.055
2021-08-19 13:51:36.452,0.3,-0.075
2021-08-19 13:51:36.456,0.265,-0.115
2021-08-19 13:51:36.460,0.245,-0.105
2021-08-19 13:51:36.464,0.225,-0.11
2021-08-19 13:51:36.468,0.185,-0.13
2021-08-19 13:51:36.472,0.15,-0.115
2021-08-19 13:51:36.476,0.155,-0.12
2021-08-19 13:51:36.480,0.125,-0.14
2021-08-19 13:51:36.484,0.145,-0.16
2021-08-19 13:51:36.488,0.155,-0.145
2021-08-19 13:51:36.492,0.15,-0.13
2021-08-19 13:51:36.496,0.14,-0.13
2021-08-19 13:51:36.500,0.14,-0.175
2021-08-19 13:51:36.504,0.105,-0.175
2021-08-19 13:51:36.508,0.135,-0.175
2021-08-19 13:51:36.512,0.13,-0.18
2021-08-19 13:51:36.516,0.125,-0.17
2021-08-19 13:51:36.520,0.1,-0.16
2021-08-19 13:51:36.524,0.12,-0.155
2021-08-19 13:51:36.528,0.155,-0.15
2021-08-19 13:51:36.532,0.175,-0.165
2021-08-19 13:51:36.536,0.17,-0.16
2021-08-19 13:51:36.540,0.145,-0.16
2021-08-19 13:51:36.544,0.12,-0.145
2021-08-19 13:51:36.548,0.115,-0.155
2021-08-19 13:51:36.552,0.125,-0.16
2021-08-19 13:51:36.556,0.11,-0.155
2021-08-19 13:51:36.560,0.1,-0.14
2021-08-19 13:51:36.564,0.125,-0.15
2021-08-19 13:51:36.568,0.13,-0.145
2021-08-19 13:51:36.572,0.16,-0.145
2021-08-19 13:51:36.576,0.145,-0.135
2021-08-19 13:51:36.580,0.15,-0.18
2021-08-19 13:51:36.584,0.16,-0.19
2021-08-19 13:51:36.588,0.125,-0.18
2021-08-19 13:51:36.592,0.08,-0.175
2021-08-19 13:51:36.596,0.085,-0.155
2021-08-19 13:51:36.600,0.105,-0.15
2021-08-19 13:51:36.604,0.115,-0.16
2021-08-19 13:51:36.608,0.125,-0.155
2021-08-19 13:51:36.612,0.13,-0.14
2021-08-19 13:51:36.616,0.14,-0.145
2021-08-19 13:51:36.620,0.14,-0.155
2021-08-19 13:51:36.624,0.125,-0.17
2021-08-19 13:51:36.628,0.155,-0.22
2021-08-19 13:51:36.632,0.31,-0.17
2021-08-19 13:51:36.636,0.55,-0.03
2021-08-19 13:51:36.640,0.65,0.22
2021-08-19 13:51:36.644,0.375,0.525
2021-08-19 13:51:36.648,-0.275,0.79
2021-08-19 13:51:36.652,-1.025,0.885
2021-08-19 13:51:36.656,-1.53,0.75
2021-08-19 13:51:36.660,-1.69,0.44
2021-08-19 13:51:36.664,-1.77,0.245
2021-08-19 13:51:36.668,-1.855,0.2
2021-08-19 13:51:36.672,-1.685,0.255
2021-08-19 13:51:36.676,-1.275,0.28
2021-08-19 13:51:36.680,-0.795,0.195
2021-08-19 13:51:36.684,-0.455,0.085
2021-08-19 13:51:36.688,-0.23,0.0
2021-08-19 13:51:36.692,-0.065,-0.045
2021-08-19 13:51:36.696,0.035,-0.08
2021-08-19 13:51:36.700,0.1,-0.07
2021-08-19 13:51:36.704,0.14,-0.075
2021-08-19 13:51:36.708,0.15,-0.09
2021-08-19 13:51:36.712,0.17,-0.085
2021-08-19 13:51:36.716,0.17,-0.08
2021-08-19 13:51:36.720,0.175,-0.07
2021-08-19 13:51:36.724,0.22,-0.06
2021-08-19 13:51:36.728,0.27,-0.015
2021-08-19 13:51:36.732,0.295,-0.015
2021-08-19 13:51:36.736,0.3,0.0
2021-08-19 13:51:36.740,0.31,0.015
2021-08-19 13:51:36.744,0.28,0.01
2021-08-19 13:51:36.748,0.28,-0.005
2021-08-19 13:51:36.752,0.305,0.0
2021-08-19 13:51:36.756,0.335,0.015
2021-08-19 13:51:36.760,0.31,-0.01
2021-08-19 13:51:36.764,0.345,-0.03
2021-08-19 13:51:36.768,0.35,-0.06
2021-08-19 13:51:36.772,0.36,-0.1
2021-08-19 13:51:36.776,0.37,-0.145
2021-08-19 13:51:36.780,0.355,-0.165
2021-08-19 13:51:36.784,0.335,-0.19
2021-08-19 13:51:36.788,0.285,-0.2
2021-08-19 13:51:36.792,0.23,-0.2
2021-08-19 13:51:36.796,0.215,-0.21
2021-08-19 13:51:36.800,0.205,-0.21
2021-08-19 13:51:36.804,0.22,-0.21
2021-08-19 13:51:36.808,0.225,-0.21
2021-08-19 13:51:36.812,0.225,-0.21
2021-08-19 13:51:36.816,0.225,-0.21
2021-08-19 13:51:36.820,0.235,-0.195
2021-08-19 13:51:36.824,0.24,-0.215
2021-08-19 13:51:36.828,0.24,-0.255
2021-08-19 13:51:36.832,0.2,-0.265
2021-08-19 13:51:36.836,0.21,-0.24
2021-08-19 13:51:36.840,0.22,-0.24
2021-08-19 13:51:36.844,0.22,-0.24
2021-08-19 13:51:36.848,0.22,-0.22
2021-08-19 13:51:36.852,0.24,-0.215
2021-08-19 13:51:36.856,0.26,-0.19
2021-08-19 13:51:36.860,0.275,-0.205
2021-08-19 13:51:36.864,0.265,-0.235
2021-08-19 13:51:36.868,0.245,-0.25
2021-08-19 13:51:36.872,0.235,-0.235
2021-08-19 13:51:36.876,0.225,-0.225
2021-08-19 13:51:36.880,0.205,-0.215
2021-08-19 13:51:36.884,0.225,-0.245
2021-08-19 13:51:36.888,0.24,-0.235
2021-08-19 13:51:36.892,0.255,-0.215
2021-08-19 13:51:36.896,0.265,-0.21
2021-08-19 13:51:36.900,0.28,-0.215
2021-08-19 13:51:36.904,0.245,-0.22
2021-08-19 13:51:36.908,0.245,-0.22
2021-08-19 13:51:36.912,0.235,-0.215
2021-08-19 13:51:36.916,0.245,-0.21
2021-08-19 13:51:36.920,0.245,-0.2
2021-08-19 13:51:36.924,0.26,-0.205
2021-08-19 13:51:36.928,0.24,-0.185
2021-08-19 13:51:36.932,0.25,-0.185
2021-08-19 13:51:36.936,0.245,-0.13
2021-08-19 13:51:36.940,0.23,-0.14
2021-08-19 13:51:36.944,0.255,-0.135
2021-08-19 13:51:36.948,0.26,-0.13
2021-08-19 13:51:36.952,0.255,-0.155
2021-08-19 13:51:36.956,0.265,-0.13
2021-08-19 13:51:36.960,0.285,-0.115
2021-08-19 13:51:36.964,0.255,-0.085
2021-08-19 13:51:36.968,0.285,-0.055
2021-08-19 13:51:36.972,0.265,-0.02
2021-08-19 13:51:36.976,0.27,0.0
2021-08-19 13:51:36.980,0.28,0.005
2021-08-19 13:51:36.984,0.295,0.005
2021-08-19 13:51:36.988,0.33,0.035
2021-08-19 13:51:36.992,0.31,0.03
2021-08-19 13:51:36.996,0.315,0.04
2021-08-19 13:51:37.000,0.285,0.07
2021-08-19 13:51:37.004,0.31,0.065
2021-08-19 13:51:37.008,0.345,0.115
2021-08-19 13:51:37.012,0.435,0.19
2021-08-19 13:51:37.016,0.58,0.335
2021-08-19 13:51:37.020,0.785,0.525
2021-08-19 13:51:37.024,1.14,0.75
2021-08-19 13:51:37.028,1.34,0.88
2021-08-19 13:51:37.032,0.96,0.955
2021-08-19 13:51:37.036,0.095,0.855
2021-08-19 13:51:37.040,-0.77,0.555
2021-08-19 13:51:37.044,-1.34,0.22
2021-08-19 13:51:37.048,-1.735,0.145
2021-08-19 13:51:37.052,-1.9,0.235
2021-08-19 13:51:37.056,-1.68,0.32
2021-08-19 13:51:37.060,-1.225,0.28
2021-08-19 13:51:37.064,-0.715,0.175
2021-08-19 13:51:37.068,-0.37,0.07
2021-08-19 13:51:37.072,-0.175,-0.035
2021-08-19 13:51:37.076,-0.04,-0.105
2021-08-19 13:51:37.080,0.04,-0.145
2021-08-19 13:51:37.084,0.045,-0.15
2021-08-19 13:51:37.088,0.055,-0.17
2021-08-19 13:51:37.092,0.04,-0.2
2021-08-19 13:51:37.096,0.03,-0.2
2021-08-19 13:51:37.100,0.07,-0.18
2021-08-19 13:51:37.104,0.08,-0.19
2021-08-19 13:51:37.108,0.085,-0.205
2021-08-19 13:51:37.112,0.09,-0.23
2021-08-19 13:51:37.116,0.1,-0.255
2021-08-19 13:51:37.120,0.1,-0.26
2021-08-19 13:51:37.124,0.065,-0.255
2021-08-19 13:51:37.128,0.01,-0.29
2021-08-19 13:51:37.132,0.005,-0.295
2021-08-19 13:51:37.136,0.0,-0.25
2021-08-19 13:51:37.140,0.035,-0.225
2021-08-19 13:51:37.144,0.03,-0.235
2021-08-19 13:51:37.148,0.055,-0.235
2021-08-19 13:51:37.152,0.055,-0.24
2021-08-19 13:51:37.156,0.05,-0.27
2021-08-19 13:51:37.160,0.04,-0.275
2021-08-19 13:51:37.164,0.06,-0.265
2021-08-19 13:51:37.168,0.035,-0.24
2021-08-19 13:51:37.172,0.03,-0.235
2021-08-19 13:51:37.176,0.005,-0.24
2021-08-19 13:51:37.180,0.04,-0.265
2021-08-19 13:51:37.184,0.065,-0.245
2021-08-19 13:51:37.188,0.105,-0.215
2021-08-19 13:51:37.192,0.08,-0.23
2021-08-19 13:51:37.196,0.09,-0.22
2021-08-19 13:51:37.200,0.105,-0.2
2021-08-19 13:51:37.204,0.07,-0.215
2021-08-19 13:51:37.208,0.065,-0.2
2021-08-19 13:51:37.212,0.055,-0.19
2021-08-19 13:51:37.216,0.11,-0.205
2021-08-19 13:51:37.220,0.075,-0.195
2021-08-19 13:51:37.224,0.08,-0.18
2021-08-19 13:51:37.228,0.175,-0.165
2021-08-19 13:51:37.232,0.16,-0.165
2021-08-19 13:51:37.236,0.14,-0.155
2021-08-19 13:51:37.240,0.135,-0.14
2021-08-19 13:51:37.244,0.145,-0.13
2021-08-19 13:51:37.248,0.16,-0.105
2021-08-19 13:51:37.252,0.175,-0.095
2021-08-19 13:51:37.256,0.165,-0.075
2021-08-19 13:51:37.260,0.175,-0.05
2021-08-19 13:51:37.264,0.19,-0.025
2021-08-19 13:51:37.268,0.23,-0.01
2021-08-19 13:51:37.272,0.255,0.0
2021-08-19 13:51:37.276,0.275,0.015
2021-08-19 13:51:37.280,0.285,0.03
2021-08-19 13:51:37.284,0.275,0.025
2021-08-19 13:51:37.288,0.315,0.05
2021-08-19 13:51:37.292,0.285,0.065
2021-08-19 13:51:37.296,0.3,0.095
2021-08-19 13:51:37.300,0.295,0.14
2021-08-19 13:51:37.304,0.315,0.18
2021-08-19 13:51:37.308,0.335,0.175
2021-08-19 13:51:37.312,0.38,0.17
2021-08-19 13:51:37.316,0.39,0.155
2021-08-19 13:51:37.320,0.39,0.135
2021-08-19 13:51:37.324,0.37,0.125
2021-08-19 13:51:37.328,0.37,0.105
2021-08-19 13:51:37.332,0.345,0.08
2021-08-19 13:51:37.336,0.34,0.06
2021-08-19 13:51:37.340,0.32,0.06
2021-08-19 13:51:37.344,0.305,0.04
2021-08-19 13:51:37.348,0.265,0.015
2021-08-19 13:51:37.352,0.305,0.0
2021-08-19 13:51:37.356,0.31,-0.015
2021-08-19 13:51:37.360,0.27,-0.035
2021-08-19 13:51:37.364,0.29,-0.065
2021-08-19 13:51:37.368,0.24,-0.085
2021-08-19 13:51:37.372,0.235,-0.095
2021-08-19 13:51:37.376,0.225,-0.1
2021-08-19 13:51:37.380,0.165,-0.115
2021-08-19 13:51:37.384,0.18,-0.125
2021-08-19 13:51:37.388,0.165,-0.1
2021-08-19 13:51:37.392,0.12,-0.095
2021-08-19 13:51:37.396,0.135,-0.125
2021-08-19 13:51:37.400,0.13,-0.15
2021-08-19 13:51:37.404,0.145,-0.16
2021-08-19 13:51:37.408,0.155,-0.175
2021-08-19 13:51:37.412,0.1,-0.17
2021-08-19 13:51:37.416,0.095,-0.16
2021-08-19 13:51:37.420,0.065,-0.195
2021-08-19 13:51:37.424,0.07,-0.17
2021-08-19 13:51:37.428,0.07,-0.18
2021-08-19 13:51:37.432,0.065,-0.16
2021-08-19 13:51:37.436,0.065,-0.155
2021-08-19 13:51:37.440,0.065,-0.17
2021-08-19 13:51:37.444,0.055,-0.19
2021-08-19 13:51:37.448,0.055,-0.205
2021-08-19 13:51:37.452,0.075,-0.19
2021-08-19 13:51:37.456,0.075,-0.205
2021-08-19 13:51:37.460,0.03,-0.215
2021-08-19 13:51:37.464,0.005,-0.225
2021-08-19 13:51:37.468,0.03,-0.195
2021-08-19 13:51:37.472,0.025,-0.185
2021-08-19 13:51:37.476,0.02,-0.19
2021-08-19 13:51:37.480,0.025,-0.19
2021-08-19 13:51:37.484,0.02,-0.175
2021-08-19 13:51:37.488,0.06,-0.19
2021-08-19 13:51:37.492,0.055,-0.18
2021-08-19 13:51:37.496,0.05,-0.175
2021-08-19 13:51:37.500,0.01,-0.175
2021-08-19 13:51:37.504,-0.005,-0.21
2021-08-19 13:51:37.508,-0.025,-0.2
2021-08-19 13:51:37.512,0.0,-0.185
2021-08-19 13:51:37.516,-0.015,-0.205
2021-08-19 13:51:37.520,0.01,-0.195
2021-08-19 13:51:37.524,0.055,-0.17
2021-08-19 13:51:37.528,0.075,-0.175
2021-08-19 13:51:37.532,0.04,-0.17
2021-08-19 13:51:37.536,0.025,-0.12
2021-08-19 13:51:37.540,0.01,-0.14
2021-08-19 13:51:37.544,0.025,-0.115
2021-08-19 13:51:37.548,0.02,-0.115
2021-08-19 13:51:37.552,0.05,-0.085
2021-08-19 13:51:37.556,0.055,-0.075
2021-08-19 13:51:37.560,0.1,-0.08
2021-08-19 13:51:37.564,0.13,-0.04
2021-08-19 13:51:37.568,0.18,-0.02
2021-08-19 13:51:37.572,0.2,0.0
2021-08-19 13:51:37.576,0.185,-0.005
2021-08-19 13:51:37.580,0.18,0.0
2021-08-19 13:51:37.584,0.16,0.015
2021-08-19 13:51:37.588,0.175,0.075
2021-08-19 13:51:37.592,0.19,0.1
2021-08-19 13:51:37.596,0.21,0.12
2021-08-19 13:51:37.600,0.225,0.11
2021-08-19 13:51:37.604,0.27,0.12
2021-08-19 13:51:37.608,0.285,0.085
2021-08-19 13:51:37.612,0.305,0.07
2021-08-19 13:51:37.616,0.295,0.045
2021-08-19 13:51:37.620,0.29,0.015
2021-08-19 13:51:37.624,0.31,-0.005
2021-08-19 13:51:37.628,0.345,-0.025
2021-08-19 13:51:37.632,0.45,-0.035
2021-08-19 13:51:37.636,0.56,0.045
2021-08-19 13:51:37.640,0.665,0.18
2021-08-19 13:51:37.644,0.82,0.375
2021-08-19 13:51:37.648,0.97,0.55
2021-08-19 13:51:37.652,0.8,0.675
2021-08-19 13:51:37.656,0.35,0.61
2021-08-19 13:51:37.660,-0.305,0.355
2021-08-19 13:51:37.664,-0.895,0.135
2021-08-19 13:51:37.668,-1.285,-0.06
2021-08-19 13:51:37.672,-1.495,-0.065
2021-08-19 13:51:37.676,-1.58,0.085
2021-08-19 13:51:37.680,-1.415,0.165
2021-08-19 13:51:37.684,-1.045,0.13
2021-08-19 13:51:37.688,-0.74,0.055
2021-08-19 13:51:37.692,-0.465,-0.02
2021-08-19 13:51:37.696,-0.265,-0.095
2021-08-19 13:51:37.700,-0.135,-0.125
2021-08-19 13:51:37.704,-0.065,-0.15
2021-08-19 13:51:37.708,-0.01,-0.16
2021-08-19 13:51:37.712,0.01,-0.14
2021-08-19 13:51:37.716,0.02,-0.185
2021-08-19 13:51:37.720,0.035,-0.175
2021-08-19 13:51:37.724,0.05,-0.185
2021-08-19 13:51:37.728,0.045,-0.17
2021-08-19 13:51:37.732,0.12,-0.16
2021-08-19 13:51:37.736,0.115,-0.14
2021-08-19 13:51:37.740,0.09,-0.15
2021-08-19 13:51:37.744,0.095,-0.15
2021-08-19 13:51:37.748,0.13,-0.17
2021-08-19 13:51:37.752,0.13,-0.205
2021-08-19 13:51:37.756,0.115,-0.185
2021-08-19 13:51:37.760,0.095,-0.195
2021-08-19 13:51:37.764,0.1,-0.165
2021-08-19 13:51:37.768,0.11,-0.16
2021-08-19 13:51:37.772,0.13,-0.155
2021-08-19 13:51:37.776,0.16,-0.17
2021-08-19 13:51:37.780,0.15,-0.155
2021-08-19 13:51:37.784,0.15,-0.16
2021-08-19 13:51:37.788,0.16,-0.18
2021-08-19 13:51:37.792,0.15,-0.18
2021-08-19 13:51:37.796,0.14,-0.185
2021-08-19 13:51:37.800,0.13,-0.18
2021-08-19 13:51:37.804,0.14,-0.18
2021-08-19 13:51:37.808,0.13,-0.165
2021-08-19 13:51:37.812,0.135,-0.15
2021-08-19 13:51:37.816,0.18,-0.12
2021-08-19 13:51:37.820,0.19,-0.15
2021-08-19 13:51:37.824,0.195,-0.17
2021-08-19 13:51:37.828,0.21,-0.19
2021-08-19 13:51:37.832,0.215,-0.2
2021-08-19 13:51:37.836,0.22,-0.205
2021-08-19 13:51:37.840,0.17,-0.2
2021-08-19 13:51:37.844,0.145,-0.185
2021-08-19 13:51:37.848,0.13,-0.17
2021-08-19 13:51:37.852,0.125,-0.17
2021-08-19 13:51:37.856,0.15,-0.145
2021-08-19 13:51:37.860,0.175,-0.13
2021-08-19 13:51:37.864,0.19,-0.135
2021-08-19 13:51:37.868,0.195,-0.145
2021-08-19 13:51:37.872,0.22,-0.1
2021-08-19 13:51:37.876,0.22,-0.095
2021-08-19 13:51:37.880,0.23,-0.06
2021-08-19 13:51:37.884,0.25,-0.05
2021-08-19 13:51:37.888,0.24,-0.03
2021-08-19 13:51:37.892,0.265,0.015
2021-08-19 13:51:37.896,0.255,0.035
2021-08-19 13:51:37.900,0.23,0.09
2021-08-19 13:51:37.904,0.235,0.1
2021-08-19 13:51:37.908,0.26,0.085
2021-08-19 13:51:37.912,0.275,0.065
2021-08-19 13:51:37.916,0.28,0.04
2021-08-19 13:51:37.920,0.305,0.015
2021-08-19 13:51:37.924,0.285,0.0
2021-08-19 13:51:37.928,0.295,-0.015
2021-08-19 13:51:37.932,0.315,-0.015
2021-08-19 13:51:37.936,0.315,-0.005
2021-08-19 13:51:37.940,0.305,-0.005
2021-08-19 13:51:37.944,0.32,-0.025
2021-08-19 13:51:37.948,0.32,-0.05
2021-08-19 13:51:37.952,0.29,-0.04
2021-08-19 13:51:37.956,0.26,-0.04
2021-08-19 13:51:37.960,0.22,-0.06
2021-08-19 13:51:37.964,0.2,-0.04
2021-08-19 13:51:37.968,0.18,-0.05
2021-08-19 13:51:37.972,0.185,-0.055
2021-08-19 13:51:37.976,0.195,-0.06
2021-08-19 13:51:37.980,0.155,-0.035
2021-08-19 13:51:37.984,0.125,-0.035
2021-08-19 13:51:37.988,0.12,-0.045
2021-08-19 13:51:37.992,0.18,-0.04
2021-08-19 13:51:37.996,0.175,-0.04
2021-08-19 13:51:38.000,0.195,-0.04
2021-08-19 13:51:38.004,0.17,-0.065
2021-08-19 13:51:38.008,0.15,-0.065
2021-08-19 13:51:38.012,0.145,-0.05
2021-08-19 13:51:38.016,0.135,-0.06
2021-08-19 13:51:38.020,0.155,-0.055
2021-08-19 13:51:38.024,0.155,-0.055
2021-08-19 13:51:38.028,0.16,-0.065
2021-08-19 13:51:38.032,0.175,-0.09
2021-08-19 13:51:38.036,0.215,-0.09
2021-08-19 13:51:38.040,0.185,-0.095
2021-08-19 13:51:38.044,0.19,-0.12
2021-08-19 13:51:38.048,0.175,-0.115
2021-08-19 13:51:38.052,0.15,-0.12
2021-08-19 13:51:38.056,0.11,-0.14
2021-08-19 13:51:38.060,0.115,-0.145
2021-08-19 13:51:38.064,0.095,-0.13
2021-08-19 13:51:38.068,0.085,-0.12
2021-08-19 13:51:38.072,0.07,-0.135
2021-08-19 13:51:38.076,0.115,-0.14
2021-08-19 13:51:38.080,0.125,-0.14
2021-08-19 13:51:38.084,0.085,-0.195
2021-08-19 13:51:38.088,0.1,-0.205
2021-08-19 13:51:38.092,0.09,-0.17
2021-08-19 13:51:38.096,0.075,-0.15
2021-08-19 13:51:38.100,0.075,-0.16
2021-08-19 13:51:38.104,0.05,-0.16
2021-08-19 13:51:38.108,0.06,-0.18
2021-08-19 13:51:38.112,0.08,-0.195
2021-08-19 13:51:38.116,0.11,-0.19
2021-08-19 13:51:38.120,0.125,-0.185
2021-08-19 13:51:38.124,0.075,-0.18
2021-08-19 13:51:38.128,0.075,-0.215
2021-08-19 13:51:38.132,0.055,-0.21
2021-08-19 13:51:38.136,0.08,-0.18
2021-08-19 13:51:38.140,0.065,-0.17
2021-08-19 13:51:38.144,0.105,-0.185
2021-08-19 13:51:38.148,0.215,-0.21
2021-08-19 13:51:38.152,0.36,-0.18
2021-08-19 13:51:38.156,0.39,-0.045
2021-08-19 13:51:38.160,0.49,0.165
2021-08-19 13:51:38.164,0.665,0.36
2021-08-19 13:51:38.168,0.575,0.51
2021-08-19 13:51:38.172,0.13,0.51
2021-08-19 13:51:38.176,-0.525,0.335
2021-08-19 13:51:38.180,-1.155,0.155
2021-08-19 13:51:38.184,-1.545,0.055
2021-08-19 13:51:38.188,-1.67,0.08
2021-08-19 13:51:38.192,-1.665,0.235
2021-08-19 13:51:38.196,-1.34,0.295
2021-08-19 13:51:38.200,-0.865,0.245
2021-08-19 13:51:38.204,-0.545,0.135
2021-08-19 13:51:38.208,-0.325,0.06
2021-08-19 13:51:38.212,-0.125,0.035
2021-08-19 13:51:38.216,0.03,0.025
2021-08-19 13:51:38.220,0.125,0.01
2021-08-19 13:51:38.224,0.145,-0.015
2021-08-19 13:51:38.228,0.225,-0.05
2021-08-19 13:51:38.232,0.27,-0.055
2021-08-19 13:51:38.236,0.275,-0.07
2021-08-19 13:51:38.240,0.23,-0.07
2021-08-19 13:51:38.244,0.225,-0.09
2021-08-19 13:51:38.248,0.22,-0.105
2021-08-19 13:51:38.252,0.22,-0.115
2021-08-19 13:51:38.256,0.235,-0.155
2021-08-19 13:51:38.260,0.205,-0.145
2021-08-19 13:51:38.264,0.185,-0.18
2021-08-19 13:51:38.268,0.16,-0.18
2021-08-19 13:51:38.272,0.13,-0.18
2021-08-19 13:51:38.276,0.165,-0.155
2021-08-19 13:51:38.280,0.155,-0.17
2021-08-19 13:51:38.284,0.145,-0.18
2021-08-19 13:51:38.288,0.13,-0.17
2021-08-19 13:51:38.292,0.155,-0.175
2021-08-19 13:51:38.296,0.15,-0.185
2021-08-19 13:51:38.300,0.14,-0.2
2021-08-19 13:51:38.304,0.14,-0.235
2021-08-19 13:51:38.308,0.145,-0.23
2021-08-19 13:51:38.312,0.11,-0.23
2021-08-19 13:51:38.316,0.11,-0.215
2021-08-19 13:51:38.320,0.1,-0.21
2021-08-19 13:51:38.324,0.125,-0.185
2021-08-19 13:51:38.328,0.135,-0.175
2021-08-19 13:51:38.332,0.155,-0.175
2021-08-19 13:51:38.336,0.105,-0.185
2021-08-19 13:51:38.340,0.105,-0.195
2021-08-19 13:51:38.344,0.07,-0.2
2021-08-19 13:51:38.348,0.09,-0.235
2021-08-19 13:51:38.352,0.095,-0.22
2021-08-19 13:51:38.356,0.085,-0.215
2021-08-19 13:51:38.360,0.09,-0.22
2021-08-19 13:51:38.364,0.115,-0.19
2021-08-19 13:51:38.368,0.125,-0.185
2021-08-19 13:51:38.372,0.125,-0.195
2021-08-19 13:51:38.376,0.12,-0.22
2021-08-19 13:51:38.380,0.095,-0.215
2021-08-19 13:51:38.384,0.045,-0.24
2021-08-19 13:51:38.388,0.035,-0.23
2021-08-19 13:51:38.392,0.055,-0.245
2021-08-19 13:51:38.396,0.05,-0.255
2021-08-19 13:51:38.400,0.03,-0.22
2021-08-19 13:51:38.404,0.09,-0.2
2021-08-19 13:51:38.408,0.08,-0.195
2021-08-19 13:51:38.412,0.055,-0.19
2021-08-19 13:51:38.416,0.06,-0.22
2021-08-19 13:51:38.420,0.045,-0.22
2021-08-19 13:51:38.424,0.04,-0.19
2021-08-19 13:51:38.428,0.015,-0.18
2021-08-19 13:51:38.432,0.025,-0.185
2021-08-19 13:51:38.436,0.05,-0.17
2021-08-19 13:51:38.440,0.05,-0.14
2021-08-19 13:51:38.444,0.04,-0.125
2021-08-19 13:51:38.448,0.05,-0.11
2021-08-19 13:51:38.452,0.07,-0.1
2021-08-19 13:51:38.456,0.115,-0.065
2021-08-19 13:51:38.460,0.115,-0.05
2021-08-19 13:51:38.464,0.155,-0.02
2021-08-19 13:51:38.468,0.15,-0.03
2021-08-19 13:51:38.472,0.17,-0.005
2021-08-19 13:51:38.476,0.19,0.0
2021-08-19 13:51:38.480,0.22,0.015
2021-08-19 13:51:38.484,0.26,0.045
2021-08-19 13:51:38.488,0.255,0.05
2021-08-19 13:51:38.492,0.255,0.065
2021-08-19 13:51:38.496,0.295,0.115
2021-08-19 13:51:38.500,0.325,0.13
2021-08-19 13:51:38.504,0.36,0.085
2021-08-19 13:51:38.508,0.375,0.055
2021-08-19 13:51:38.512,0.375,0.065
2021-08-19 13:51:38.516,0.35,0.015
2021-08-19 13:51:38.520,0.34,0.01
2021-08-19 13:51:38.524,0.3,0.0
2021-08-19 13:51:38.528,0.295,-0.03
2021-08-19 13:51:38.532,0.305,-0.02
2021-08-19 13:51:38.536,0.3,-0.045
2021-08-19 13:51:38.540,0.315,-0.01
2021-08-19 13:51:38.544,0.275,-0.07
2021-08-19 13:51:38.548,0.26,-0.1
2021-08-19 13:51:38.552,0.22,-0.105
2021-08-19 13:51:38.556,0.235,-0.11
2021-08-19 13:51:38.560,0.205,-0.105
2021-08-19 13:51:38.564,0.17,-0.12
2021-08-19 13:51:38.568,0.165,-0.14
2021-08-19 13:51:38.572,0.185,-0.145
2021-08-19 13:51:38.576,0.22,-0.18
2021-08-19 13:51:38.580,0.205,-0.2
2021-08-19 13:51:38.584,0.165,-0.18
2021-08-19 13:51:38.588,0.15,-0.17
2021-08-19 13:51:38.592,0.12,-0.16
2021-08-19 13:51:38.596,0.1,-0.19
2021-08-19 13:51:38.600,0.1,-0.18
2021-08-19 13:51:38.604,0.075,-0.18
2021-08-19 13:51:38.608,0.095,-0.2
2021-08-19 13:51:38.612,0.095,-0.19
2021-08-19 13:51:38.616,0.095,-0.185
2021-08-19 13:51:38.620,0.105,-0.21
2021-08-19 13:51:38.624,0.125,-0.185
2021-08-19 13:51:38.628,0.13,-0.2
2021-08-19 13:51:38.632,0.1,-0.22
2021-08-19 13:51:38.636,0.075,-0.235
2021-08-19 13:51:38.640,0.07,-0.25
2021-08-19 13:51:38.644,0.075,-0.24
2021-08-19 13:51:38.648,0.075,-0.215
2021-08-19 13:51:38.652,0.05,-0.19
2021-08-19 13:51:38.656,0.06,-0.205
2021-08-19 13:51:38.660,0.085,-0.205
2021-08-19 13:51:38.664,0.09,-0.195
2021-08-19 13:51:38.668,0.07,-0.22
2021-08-19 13:51:38.672,0.06,-0.215
2021-08-19 13:51:38.676,0.05,-0.225
2021-08-19 13:51:38.680,0.045,-0.22
2021-08-19 13:51:38.684,0.03,-0.23
2021-08-19 13:51:38.688,0.075,-0.21
2021-08-19 13:51:38.692,0.065,-0.21
2021-08-19 13:51:38.696,0.06,-0.19
2021-08-19 13:51:38.700,0.08,-0.21
2021-08-19 13:51:38.704,0.08,-0.195
2021-08-19 13:51:38.708,0.11,-0.2
2021-08-19 13:51:38.712,0.135,-0.185
2021-08-19 13:51:38.716,0.11,-0.175
2021-08-19 13:51:38.720,0.06,-0.175
2021-08-19 13:51:38.724,0.065,-0.175
2021-08-19 13:51:38.728,0.075,-0.14
2021-08-19 13:51:38.732,0.1,-0.115
2021-08-19 13:51:38.736,0.12,-0.105
2021-08-19 13:51:38.740,0.16,-0.08
2021-08-19 13:51:38.744,0.17,-0.065
2021-08-19 13:51:38.748,0.195,-0.05
2021-08-19 13:51:38.752,0.225,-0.04
2021-08-19 13:51:38.756,0.255,-0.03
2021-08-19 13:51:38.760,0.29,-0.025
2021-08-19 13:51:38.764,0.415,0.01
2021-08-19 13:51:38.768,0.545,0.115
2021-08-19 13:51:38.772,0.635,0.305
2021-08-19 13:51:38.776,0.83,0.51
2021-08-19 13:51:38.780,0.96,0.67
2021-08-19 13:51:38.784,0.73,0.71
2021-08-19 13:51:38.788,0.16,0.56
2021-08-19 13:51:38.792,-0.56,0.285
2021-08-19 13:51:38.796,-1.165,0.09
2021-08-19 13:51:38.800,-1.41,-0.045
2021-08-19 13:51:38.804,-1.515,0.02
2021-08-19 13:51:38.808,-1.435,0.15
2021-08-19 13:51:38.812,-1.045,0.15
2021-08-19 13:51:38.816,-0.62,0.085
2021-08-19 13:51:38.820,-0.345,-0.015
2021-08-19 13:51:38.824,-0.15,-0.065
2021-08-19 13:51:38.828,-0.045,-0.135
2021-08-19 13:51:38.832,0.015,-0.185
2021-08-19 13:51:38.836,0.095,-0.22
2021-08-19 13:51:38.840,0.1,-0.235
2021-08-19 13:51:38.844,0.085,-0.23
2021-08-19 13:51:38.848,0.095,-0.23
2021-08-19 13:51:38.852,0.125,-0.24
2021-08-19 13:51:38.856,0.165,-0.24
2021-08-19 13:51:38.860,0.16,-0.21
2021-08-19 13:51:38.864,0.215,-0.225
2021-08-19 13:51:38.868,0.165,-0.245
2021-08-19 13:51:38.872,0.18,-0.245
2021-08-19 13:51:38.876,0.175,-0.25
2021-08-19 13:51:38.880,0.135,-0.24
2021-08-19 13:51:38.884,0.12,-0.26
2021-08-19 13:51:38.888,0.125,-0.295
2021-08-19 13:51:38.892,0.145,-0.28
2021-08-19 13:51:38.896,0.15,-0.24
2021-08-19 13:51:38.900,0.175,-0.225
2021-08-19 13:51:38.904,0.185,-0.24
2021-08-19 13:51:38.908,0.2,-0.25
2021-08-19 13:51:38.912,0.18,-0.25
2021-08-19 13:51:38.916,0.16,-0.27
2021-08-19 13:51:38.920,0.17,-0.255
2021-08-19 13:51:38.924,0.185,-0.275
2021-08-19 13:51:38.928,0.17,-0.26
2021-08-19 13:51:38.932,0.17,-0.24
2021-08-19 13:51:38.936,0.175,-0.22
2021-08-19 13:51:38.940,0.185,-0.205
2021-08-19 13:51:38.944,0.205,-0.215
2021-08-19 13:51:38.948,0.22,-0.255
2021-08-19 13:51:38.952,0.19,-0.235
2021-08-19 13:51:38.956,0.19,-0.245
2021-08-19 13:51:38.960,0.18,-0.275
2021-08-19 13:51:38.964,0.17,-0.3
2021-08-19 13:51:38.968,0.16,-0.34
2021-08-19 13:51:38.972,0.195,-0.3
2021-08-19 13:51:38.976,0.18,-0.26
2021-08-19 13:51:38.980,0.2,-0.25
2021-08-19 13:51:38.984,0.19,-0.265
2021-08-19 13:51:38.988,0.21,-0.295
2021-08-19 13:51:38.992,0.195,-0.285
2021-08-19 13:51:38.996,0.22,-0.245
2021-08-19 13:51:39.000,0.2,-0.24
2021-08-19 13:51:39.004,0.2,-0.225
2021-08-19 13:51:39.008,0.205,-0.195
2021-08-19 13:51:39.012,0.22,-0.175
2021-08-19 13:51:39.016,0.23,-0.145
2021-08-19 13:51:39.020,0.25,-0.15
2021-08-19 13:51:39.024,0.26,-0.15
2021-08-19 13:51:39.028,0.25,-0.17
2021-08-19 13:51:39.032,0.24,-0.12
2021-08-19 13:51:39.036,0.255,-0.09
2021-08-19 13:51:39.040,0.245,-0.045
2021-08-19 13:51:39.044,0.255,-0.04
2021-08-19 13:51:39.048,0.255,-0.04
2021-08-19 13:51:39.052,0.27,-0.025
2021-08-19 13:51:39.056,0.25,0.01
2021-08-19 13:51:39.060,0.285,-0.02
2021-08-19 13:51:39.064,0.28,-0.005
2021-08-19 13:51:39.068,0.285,0.005
2021-08-19 13:51:39.072,0.315,-0.04
2021-08-19 13:51:39.076,0.26,-0.05
2021-08-19 13:51:39.080,0.24,-0.06
2021-08-19 13:51:39.084,0.195,-0.08
2021-08-19 13:51:39.088,0.16,-0.08
2021-08-19 13:51:39.092,0.175,-0.135
2021-08-19 13:51:39.096,0.19,-0.105
2021-08-19 13:51:39.100,0.205,-0.08
2021-08-19 13:51:39.104,0.19,-0.095
2021-08-19 13:51:39.108,0.21,-0.125
2021-08-19 13:51:39.112,0.225,-0.095
2021-08-19 13:51:39.116,0.225,-0.11
2021-08-19 13:51:39.120,0.185,-0.11
2021-08-19 13:51:39.124,0.175,-0.13
2021-08-19 13:51:39.128,0.19,-0.16
2021-08-19 13:51:39.132,0.22,-0.19
2021-08-19 13:51:39.136,0.205,-0.21
2021-08-19 13:51:39.140,0.205,-0.21
2021-08-19 13:51:39.144,0.205,-0.215
2021-08-19 13:51:39.148,0.2,-0.235
2021-08-19 13:51:39.152,0.225,-0.19
2021-08-19 13:51:39.156,0.215,-0.21
2021-08-19 13:51:39.160,0.21,-0.25
2021-08-19 13:51:39.164,0.165,-0.29
2021-08-19 13:51:39.168,0.175,-0.29
2021-08-19 13:51:39.172,0.175,-0.275
2021-08-19 13:51:39.176,0.19,-0.27
2021-08-19 13:51:39.180,0.225,-0.26
2021-08-19 13:51:39.184,0.2,-0.255
2021-08-19 13:51:39.188,0.2,-0.275
2021-08-19 13:51:39.192,0.19,-0.295
2021-08-19 13:51:39.196,0.205,-0.305
2021-08-19 13:51:39.200,0.215,-0.325
2021-08-19 13:51:39.204,0.185,-0.355
2021-08-19 13:51:39.208,0.145,-0.385
2021-08-19 13:51:39.212,0.15,-0.375
2021-08-19 13:51:39.216,0.115,-0.345
2021-08-19 13:51:39.220,0.125,-0.305
2021-08-19 13:51:39.224,0.13,-0.315
2021-08-19 13:51:39.228,0.15,-0.34
2021-08-19 13:51:39.232,0.165,-0.33
2021-08-19 13:51:39.236,0.145,-0.355
2021-08-19 13:51:39.240,0.14,-0.37
2021-08-19 13:51:39.244,0.105,-0.415
2021-08-19 13:51:39.248,0.105,-0.42
2021-08-19 13:51:39.252,0.085,-0.4
2021-08-19 13:51:39.256,0.115,-0.385
2021-08-19 13:51:39.260,0.13,-0.37
2021-08-19 13:51:39.264,0.125,-0.365
2021-08-19 13:51:39.268,0.125,-0.37
2021-08-19 13:51:39.272,0.095,-0.35
2021-08-19 13:51:39.276,0.11,-0.365
2021-08-19 13:51:39.280,0.125,-0.41
2021-08-19 13:51:39.284,0.105,-0.41
2021-08-19 13:51:39.288,0.11,-0.39
2021-08-19 13:51:39.292,0.115,-0.375
2021-08-19 13:51:39.296,0.095,-0.35
2021-08-19 13:51:39.300,0.135,-0.345
2021-08-19 13:51:39.304,0.145,-0.345
2021-08-19 13:51:39.308,0.185,-0.325
2021-08-19 13:51:39.312,0.27,-0.345
2021-08-19 13:51:39.316,0.405,-0.295
2021-08-19 13:51:39.320,0.51,-0.2
2021-08-19 13:51:39.324,0.585,-0.02
2021-08-19 13:51:39.328,0.8,0.245
2021-08-19 13:51:39.332,0.895,0.48
2021-08-19 13:51:39.336,0.67,0.6
2021-08-19 13:51:39.340,0.095,0.455
2021-08-19 13:51:39.344,-0.62,0.215
2021-08-19 13:51:39.348,-1.145,0.0
2021-08-19 13:51:39.352,-1.41,-0.065
2021-08-19 13:51:39.356,-1.535,0.035
2021-08-19 13:51:39.360,-1.36,0.14
2021-08-19 13:51:39.364,-0.885,0.075
2021-08-19 13:51:39.368,-0.49,-0.005
2021-08-19 13:51:39.372,-0.215,-0.12
2021-08-19 13:51:39.376,0.0,-0.22
2021-08-19 13:51:39.380,0.08,-0.305
2021-08-19 13:51:39.384,0.155,-0.355
2021-08-19 13:51:39.388,0.165,-0.375
2021-08-19 13:51:39.392,0.19,-0.385
2021-08-19 13:51:39.396,0.205,-0.365
2021-08-19 13:51:39.400,0.185,-0.35
2021-08-19 13:51:39.404,0.165,-0.35
2021-08-19 13:51:39.408,0.175,-0.36
2021-08-19 13:51:39.412,0.18,-0.37
2021-08-19 13:51:39.416,0.18,-0.345
2021-08-19 13:51:39.420,0.205,-0.345
2021-08-19 13:51:39.424,0.235,-0.35
2021-08-19 13:51:39.428,0.23,-0.385
2021-08-19 13:51:39.432,0.2,-0.4
2021-08-19 13:51:39.436,0.23,-0.43
2021-08-19 13:51:39.440,0.205,-0.41
2021-08-19 13:51:39.444,0.19,-0.42
2021-08-19 13:51:39.448,0.195,-0.405
2021-08-19 13:51:39.452,0.21,-0.405
2021-08-19 13:51:39.456,0.24,-0.38
2021-08-19 13:51:39.460,0.255,-0.36
2021-08-19 13:51:39.464,0.27,-0.405
2021-08-19 13:51:39.468,0.235,-0.435
2021-08-19 13:51:39.472,0.205,-0.41
2021-08-19 13:51:39.476,0.24,-0.405
2021-08-19 13:51:39.480,0.23,-0.435
2021-08-19 13:51:39.484,0.18,-0.4
2021-08-19 13:51:39.488,0.195,-0.4
2021-08-19 13:51:39.492,0.18,-0.41
2021-08-19 13:51:39.496,0.185,-0.43
2021-08-19 13:51:39.500,0.2,-0.42
2021-08-19 13:51:39.504,0.245,-0.43
2021-08-19 13:51:39.508,0.25,-0.41
2021-08-19 13:51:39.512,0.24,-0.415
2021-08-19 13:51:39.516,0.205,-0.4
2021-08-19 13:51:39.520,0.22,-0.41
2021-08-19 13:51:39.524,0.22,-0.4
2021-08-19 13:51:39.528,0.205,-0.405
2021-08-19 13:51:39.532,0.2,-0.4
2021-08-19 13:51:39.536,0.195,-0.415
2021-08-19 13:51:39.540,0.21,-0.415
2021-08-19 13:51:39.544,0.225,-0.425
2021-08-19 13:51:39.548,0.215,-0.435
2021-08-19 13:51:39.552,0.205,-0.455
2021-08-19 13:51:39.556,0.21,-0.43
2021-08-19 13:51:39.560,0.23,-0.43
2021-08-19 13:51:39.564,0.195,-0.435
2021-08-19 13:51:39.568,0.185,-0.44
2021-08-19 13:51:39.572,0.175,-0.42
2021-08-19 13:51:39.576,0.175,-0.41
2021-08-19 13:51:39.580,0.185,-0.395
2021-08-19 13:51:39.584,0.18,-0.385
2021-08-19 13:51:39.588,0.165,-0.4
2021-08-19 13:51:39.592,0.185,-0.41
2021-08-19 13:51:39.596,0.2,-0.41
2021-08-19 13:51:39.600,0.19,-0.405
2021-08-19 13:51:39.604,0.145,-0.42
2021-08-19 13:51:39.608,0.15,-0.385
2021-08-19 13:51:39.612,0.135,-0.35
2021-08-19 13:51:39.616,0.16,-0.3
2021-08-19 13:51:39.620,0.18,-0.305
2021-08-19 13:51:39.624,0.22,-0.305
2021-08-19 13:51:39.628,0.205,-0.28
2021-08-19 13:51:39.632,0.195,-0.3
2021-08-19 13:51:39.636,0.225,-0.33
2021-08-19 13:51:39.640,0.21,-0.285
2021-08-19 13:51:39.644,0.225,-0.3
2021-08-19 13:51:39.648,0.225,-0.305
2021-08-19 13:51:39.652,0.225,-0.3
2021-08-19 13:51:39.656,0.245,-0.245
2021-08-19 13:51:39.660,0.275,-0.275
2021-08-19 13:51:39.664,0.305,-0.305
2021-08-19 13:51:39.668,0.335,-0.32
2021-08-19 13:51:39.672,0.325,-0.335
2021-08-19 13:51:39.676,0.31,-0.35
2021-08-19 13:51:39.680,0.27,-0.355
2021-08-19 13:51:39.684,0.26,-0.335
2021-08-19 13:51:39.688,0.25,-0.33
2021-08-19 13:51:39.692,0.275,-0.315
2021-08-19 13:51:39.696,0.265,-0.31
2021-08-19 13:51:39.700,0.26,-0.315
2021-08-19 13:51:39.704,0.265,-0.31
2021-08-19 13:51:39.708,0.29,-0.315
2021-08-19 13:51:39.712,0.27,-0.325
2021-08-19 13:51:39.716,0.275,-0.355
2021-08-19 13:51:39.720,0.27,-0.37
2021-08-19 13:51:39.724,0.24,-0.355
2021-08-19 13:51:39.728,0.23,-0.34
2021-08-19 13:51:39.732,0.25,-0.355
2021-08-19 13:51:39.736,0.21,-0.345
2021-08-19 13:51:39.740,0.215,-0.305
2021-08-19 13:51:39.744,0.245,-0.35
2021-08-19 13:51:39.748,0.225,-0.31
2021-08-19 13:51:39.752,0.22,-0.33
2021-08-19 13:51:39.756,0.2,-0.29
2021-08-19 13:51:39.760,0.2,-0.335
2021-08-19 13:51:39.764,0.195,-0.35
2021-08-19 13:51:39.768,0.185,-0.345
2021-08-19 13:51:39.772,0.175,-0.395
2021-08-19 13:51:39.776,0.185,-0.395
2021-08-19 13:51:39.780,0.215,-0.35
2021-08-19 13:51:39.784,0.195,-0.325
2021-08-19 13:51:39.788,0.19,-0.315
2021-08-19 13:51:39.792,0.165,-0.33
2021-08-19 13:51:39.796,0.165,-0.365
2021-08-19 13:51:39.800,0.145,-0.355
2021-08-19 13:51:39.804,0.145,-0.36
2021-08-19 13:51:39.808,0.135,-0.38
2021-08-19 13:51:39.812,0.125,-0.355
2021-08-19 13:51:39.816,0.155,-0.355
2021-08-19 13:51:39.820,0.16,-0.35
2021-08-19 13:51:39.824,0.185,-0.34
2021-08-19 13:51:39.828,0.17,-0.375
2021-08-19 13:51:39.832,0.18,-0.375
2021-08-19 13:51:39.836,0.15,-0.345
2021-08-19 13:51:39.840,0.14,-0.33
2021-08-19 13:51:39.844,0.135,-0.38
2021-08-19 13:51:39.848,0.135,-0.4
2021-08-19 13:51:39.852,0.15,-0.355
2021-08-19 13:51:39.856,0.14,-0.345
2021-08-19 13:51:39.860,0.175,-0.345
2021-08-19 13:51:39.864,0.175,-0.35
2021-08-19 13:51:39.868,0.215,-0.295
2021-08-19 13:51:39.872,0.175,-0.325
2021-08-19 13:51:39.876,0.14,-0.35
2021-08-19 13:51:39.880,0.135,-0.365
2021-08-19 13:51:39.884,0.135,-0.37
2021-08-19 13:51:39.888,0.145,-0.38
2021-08-19 13:51:39.892,0.165,-0.375
2021-08-19 13:51:39.896,0.155,-0.36
2021-08-19 13:51:39.900,0.165,-0.35
2021-08-19 13:51:39.904,0.195,-0.38
2021-08-19 13:51:39.908,0.235,-0.375
2021-08-19 13:51:39.912,0.22,-0.34
2021-08-19 13:51:39.916,0.175,-0.36
2021-08-19 13:51:39.920,0.145,-0.385
2021-08-19 13:51:39.924,0.14,-0.38
2021-08-19 13:51:39.928,0.15,-0.35
2021-08-19 13:51:39.932,0.135,-0.365
2021-08-19 13:51:39.936,0.145,-0.365
2021-08-19 13:51:39.940,0.185,-0.385
2021-08-19 13:51:39.944,0.2,-0.37
2021-08-19 13:51:39.948,0.185,-0.41
2021-08-19 13:51:39.952,0.165,-0.39
2021-08-19 13:51:39.956,0.165,-0.385
2021-08-19 13:51:39.960,0.14,-0.37
2021-08-19 13:51:39.964,0.15,-0.39
2021-08-19 13:51:39.968,0.125,-0.385
2021-08-19 13:51:39.972,0.14,-0.365
2021-08-19 13:51:39.976,0.155,-0.365
2021-08-19 13:51:39.980,0.175,-0.365
2021-08-19 13:51:39.984,0.165,-0.38
2021-08-19 13:51:39.988,0.16,-0.43
2021-08-19 13:51:39.992,0.145,-0.4
2021-08-19 13:51:39.996,0.155,-0.38
2021-08-19 13:51:40.000,0.14,-0.355
2021-08-19 13:51:40.004,0.12,-0.365
2021-08-19 13:51:40.008,0.15,-0.37
2021-08-19 13:51:40.012,0.14,-0.38
2021-08-19 13:51:40.016,0.145,-0.385
2021-08-19 13:51:40.020,0.165,-0.36
2021-08-19 13:51:40.024,0.15,-0.33
2021-08-19 13:51:40.028,0.165,-0.355
2021-08-19 13:51:40.032,0.17,-0.39
2021-08-19 13:51:40.036,0.14,-0.365
2021-08-19 13:51:40.040,0.13,-0.35
2021-08-19 13:51:40.044,0.11,-0.35
2021-08-19 13:51:40.048,0.145,-0.375
2021-08-19 13:51:40.052,0.14,-0.4
2021-08-19 13:51:40.056,0.13,-0.385
2021-08-19 13:51:40.060,0.145,-0.375
2021-08-19 13:51:40.064,0.175,-0.415
2021-08-19 13:51:40.068,0.185,-0.44
2021-08-19 13:51:40.072,0.135,-0.4
2021-08-19 13:51:40.076,0.135,-0.38
2021-08-19 13:51:40.080,0.105,-0.39
2021-08-19 13:51:40.084,0.125,-0.4
2021-08-19 13:51:40.088,0.11,-0.4
2021-08-19 13:51:40.092,0.125,-0.405
2021-08-19 13:51:40.096,0.125,-0.4
2021-08-19 13:51:40.100,0.135,-0.41
2021-08-19 13:51:40.104,0.15,-0.4
2021-08-19 13:51:40.108,0.15,-0.335
2021-08-19 13:51:40.112,0.15,-0.36
2021-08-19 13:51:40.116,0.15,-0.395
2021-08-19 13:51:40.120,0.125,-0.405
2021-08-19 13:51:40.124,0.125,-0.38
2021-08-19 13:51:40.128,0.13,-0.4
2021-08-19 13:51:40.132,0.13,-0.405
2021-08-19 13:51:40.136,0.15,-0.375
2021-08-19 13:51:40.140,0.155,-0.41
2021-08-19 13:51:40.144,0.16,-0.4
2021-08-19 13:51:40.148,0.17,-0.39
2021-08-19 13:51:40.152,0.145,-0.4
2021-08-19 13:51:40.156,0.15,-0.43
2021-08-19 13:51:40.160,0.135,-0.465
2021-08-19 13:51:40.164,0.11,-0.445
2021-08-19 13:51:40.168,0.12,-0.43
2021-08-19 13:51:40.172,0.11,-0.39
2021-08-19 13:51:40.176,0.13,-0.375
2021-08-19 13:51:40.180,0.165,-0.375
2021-08-19 13:51:40.184,0.17,-0.395
2021-08-19 13:51:40.188,0.165,-0.39
2021-08-19 13:51:40.192,0.17,-0.43
2021-08-19 13:51:40.196,0.155,-0.44
2021-08-19 13:51:40.200,0.145,-0.445
2021-08-19 13:51:40.204,0.15,-0.42
2021-08-19 13:51:40.208,0.14,-0.4
2021-08-19 13:51:40.212,0.115,-0.42
2021-08-19 13:51:40.216,0.145,-0.4
2021-08-19 13:51:40.220,0.14,-0.405
2021-08-19 13:51:40.224,0.155,-0.375
2021-08-19 13:51:40.228,0.135,-0.38
2021-08-19 13:51:40.232,0.14,-0.415
2021-08-19 13:51:40.236,0.165,-0.415
2021-08-19 13:51:40.240,0.125,-0.39
2021-08-19 13:51:40.244,0.125,-0.38
2021-08-19 13:51:40.248,0.14,-0.39
2021-08-19 13:51:40.252,0.12,-0.405
2021-08-19 13:51:40.256,0.135,-0.375
2021-08-19 13:51:40.260,0.145,-0.375
2021-08-19 13:51:40.264,0.155,-0.44
2021-08-19 13:51:40.268,0.18,-0.435
2021-08-19 13:51:40.272,0.165,-0.45
2021-08-19 13:51:40.276,0.165,-0.47
2021-08-19 13:51:40.280,0.125,-0.445
2021-08-19 13:51:40.284,0.125,-0.425
2021-08-19 13:51:40.288,0.125,-0.435
2021-08-19 13:51:40.292,0.145,-0.415
2021-08-19 13:51:40.296,0.155,-0.385
2021-08-19 13:51:40.300,0.165,-0.375
2021-08-19 13:51:40.304,0.18,-0.38
2021-08-19 13:51:40.308,0.18,-0.36
2021-08-19 13:51:40.312,0.175,-0.39
2021-08-19 13:51:40.316,0.17,-0.41
2021-08-19 13:51:40.320,0.16,-0.445
2021-08-19 13:51:40.324,0.135,-0.455
2021-08-19 13:51:40.328,0.145,-0.435
2021-08-19 13:51:40.332,0.135,-0.42
2021-08-19 13:51:40.336,0.155,-0.43
2021-08-19 13:51:40.340,0.165,-0.405
2021-08-19 13:51:40.344,0.165,-0.39
2021-08-19 13:51:40.348,0.165,-0.4
2021-08-19 13:51:40.352,0.15,-0.41
2021-08-19 13:51:40.356,0.145,-0.395
2021-08-19 13:51:40.360,0.135,-0.425
2021-08-19 13:51:40.364,0.14,-0.42
2021-08-19 13:51:40.368,0.13,-0.445
2021-08-19 13:51:40.372,0.16,-0.415
2021-08-19 13:51:40.376,0.135,-0.385
2021-08-19 13:51:40.380,0.155,-0.385
2021-08-19 13:51:40.384,0.18,-0.4
2021-08-19 13:51:40.388,0.215,-0.44
2021-08-19 13:51:40.392,0.2,-0.46
2021-08-19 13:51:40.396,0.18,-0.42
2021-08-19 13:51:40.400,0.18,-0.42
2021-08-19 13:51:40.404,0.145,-0.41
2021-08-19 13:51:40.408,0.18,-0.395
2021-08-19 13:51:40.412,0.17,-0.365
2021-08-19 13:51:40.416,0.15,-0.39
2021-08-19 13:51:40.420,0.19,-0.38
2021-08-19 13:51:40.424,0.2,-0.39
2021-08-19 13:51:40.428,0.18,-0.425
2021-08-19 13:51:40.432,0.19,-0.435
2021-08-19 13:51:40.436,0.18,-0.425
2021-08-19 13:51:40.440,0.17,-0.465
2021-08-19 13:51:40.444,0.145,-0.44
2021-08-19 13:51:40.448,0.16,-0.41
2021-08-19 13:51:40.452,0.16,-0.415
2021-08-19 13:51:40.456,0.15,-0.415
2021-08-19 13:51:40.460,0.18,-0.4
2021-08-19 13:51:40.464,0.175,-0.38
2021-08-19 13:51:40.468,0.185,-0.405
2021-08-19 13:51:40.472,0.19,-0.43
2021-08-19 13:51:40.476,0.155,-0.44
2021-08-19 13:51:40.480,0.15,-0.43
2021-08-19 13:51:40.484,0.145,-0.39
2021-08-19 13:51:40.488,0.165,-0.36
2021-08-19 13:51:40.492,0.14,-0.38
2021-08-19 13:51:40.496,0.155,-0.395
2021-08-19 13:51:40.500,0.155,-0.395
2021-08-19 13:51:40.504,0.185,-0.39
2021-08-19 13:51:40.508,0.195,-0.39
2021-08-19 13:51:40.512,0.195,-0.405
2021-08-19 13:51:40.516,0.2,-0.43
2021-08-19 13:51:40.520,0.21,-0.415
2021-08-19 13:51:40.524,0.18,-0.425
2021-08-19 13:51:40.528,0.16,-0.455
2021-08-19 13:51:40.532,0.155,-0.425
2021-08-19 13:51:40.536,0.155,-0.38
2021-08-19 13:51:40.540,0.19,-0.33
2021-08-19 13:51:40.544,0.215,-0.305
2021-08-19 13:51:40.548,0.25,-0.3
2021-08-19 13:51:40.552,0.29,-0.35
2021-08-19 13:51:40.556,0.29,-0.325
2021-08-19 13:51:40.560,0.28,-0.37
2021-08-19 13:51:40.564,0.26,-0.345
2021-08-19 13:51:40.568,0.24,-0.325
2021-08-19 13:51:40.572,0.275,-0.26
2021-08-19 13:51:40.576,0.265,-0.24
2021-08-19 13:51:40.580,0.28,-0.225
2021-08-19 13:51:40.584,0.31,-0.21
2021-08-19 13:51:40.588,0.305,-0.17
2021-08-19 13:51:40.592,0.31,-0.195
2021-08-19 13:51:40.596,0.31,-0.22
2021-08-19 13:51:40.600,0.28,-0.26
2021-08-19 13:51:40.604,0.255,-0.31
2021-08-19 13:51:40.608,0.2,-0.32
2021-08-19 13:51:40.612,0.18,-0.295
2021-08-19 13:51:40.616,0.175,-0.285
2021-08-19 13:51:40.620,0.2,-0.31
2021-08-19 13:51:40.624,0.21,-0.35
2021-08-19 13:51:40.628,0.245,-0.36
2021-08-19 13:51:40.632,0.265,-0.37
2021-08-19 13:51:40.636,0.265,-0.41
2021-08-19 13:51:40.640,0.245,-0.395
2021-08-19 13:51:40.644,0.24,-0.385
2021-08-19 13:51:40.648,0.245,-0.42
2021-08-19 13:51:40.652,0.22,-0.44
2021-08-19 13:51:40.656,0.22,-0.42
2021-08-19 13:51:40.660,0.23,-0.405
2021-08-19 13:51:40.664,0.245,-0.395
2021-08-19 13:51:40.668,0.225,-0.415
2021-08-19 13:51:40.672,0.23,-0.415
2021-08-19 13:51:40.676,0.25,-0.41
2021-08-19 13:51:40.680,0.23,-0.38
2021-08-19 13:51:40.684,0.23,-0.37
2021-08-19 13:51:40.688,0.225,-0.395
2021-08-19 13:51:40.692,0.215,-0.425
2021-08-19 13:51:40.696,0.195,-0.425
2021-08-19 13:51:40.700,0.235,-0.43
2021-08-19 13:51:40.704,0.25,-0.42
2021-08-19 13:51:40.708,0.29,-0.39
2021-08-19 13:51:40.712,0.42,-0.37
2021-08-19 13:51:40.716,0.5,-0.32
2021-08-19 13:51:40.720,0.59,-0.23
2021-08-19 13:51:40.724,0.67,-0.11
2021-08-19 13:51:40.728,0.81,0.095
2021-08-19 13:51:40.732,0.825,0.31
2021-08-19 13:51:40.736,0.585,0.38
2021-08-19 13:51:40.740,0.205,0.29
2021-08-19 13:51:40.744,-0.27,0.14
2021-08-19 13:51:40.748,-0.72,-0.035
2021-08-19 13:51:40.752,-0.93,-0.18
2021-08-19 13:51:40.756,-1.06,-0.155
2021-08-19 13:51:40.760,-1.065,-0.055
