Time,ECG1,ECG2
2021-08-19 22:09:24.676,-0.09,0.135
2021-08-19 22:09:24.680,-0.08,0.125
2021-08-19 22:09:24.684,-0.065,0.14
2021-08-19 22:09:24.688,-0.035,0.135
2021-08-19 22:09:24.692,-0.01,0.125
2021-08-19 22:09:24.696,0.005,0.11
2021-08-19 22:09:24.700,0.01,0.115
2021-08-19 22:09:24.704,0.015,0.13
2021-08-19 22:09:24.708,0.03,0.095
2021-08-19 22:09:24.712,0.02,0.11
2021-08-19 22:09:24.716,0.025,0.11
2021-08-19 22:09:24.720,0.025,0.105
2021-08-19 22:09:24.724,0.01,0.105
2021-08-19 22:09:24.728,0.0,0.105
2021-08-19 22:09:24.732,-0.02,0.115
2021-08-19 22:09:24.736,-0.03,0.1
2021-08-19 22:09:24.740,-0.03,0.095
2021-08-19 22:09:24.744,-0.055,0.09
2021-08-19 22:09:24.748,-0.065,0.1
2021-08-19 22:09:24.752,-0.05,0.1
2021-08-19 22:09:24.756,-0.065,0.105
2021-08-19 22:09:24.760,-0.06,0.095
2021-08-19 22:09:24.764,-0.075,0.09
2021-08-19 22:09:24.768,-0.07,0.1
2021-08-19 22:09:24.772,-0.08,0.095
2021-08-19 22:09:24.776,-0.1,0.085
2021-08-19 22:09:24.780,-0.1,0.075
2021-08-19 22:09:24.784,-0.095,0.07
2021-08-19 22:09:24.788,-0.1,0.05
2021-08-19 22:09:24.792,-0.12,0.045
2021-08-19 22:09:24.796,-0.11,0.045
2021-08-19 22:09:24.800,-0.12,0.055
2021-08-19 22:09:24.804,-0.11,0.045
2021-08-19 22:09:24.808,-0.125,0.04
2021-08-19 22:09:24.812,-0.125,0.03
2021-08-19 22:09:24.816,-0.13,0.04
2021-08-19 22:09:24.820,-0.135,0.03
2021-08-19 22:09:24.824,-0.12,0.035
2021-08-19 22:09:24.828,-0.115,0.04
2021-08-19 22:09:24.832,-0.11,0.05
2021-08-19 22:09:24.836,-0.11,0.05
2021-08-19 22:09:24.840,-0.11,0.06
2021-08-19 22:09:24.844,-0.115,0.035
2021-08-19 22:09:24.848,-0.12,0.045
2021-08-19 22:09:24.852,-0.115,0.05
2021-08-19 22:09:24.856,-0.11,0.055
2021-08-19 22:09:24.860,-0.11,0.05
2021-08-19 22:09:24.864,-0.095,0.055
2021-08-19 22:09:24.868,-0.105,0.035
2021-08-19 22:09:24.872,-0.095,0.06
2021-08-19 22:09:24.876,-0.11,0.055
2021-08-19 22:09:24.880,-0.1,0.055
2021-08-19 22:09:24.884,-0.09,0.06
2021-08-19 22:09:24.888,-0.09,0.065
2021-08-19 22:09:24.892,-0.105,0.06
2021-08-19 22:09:24.896,-0.085,0.06
2021-08-19 22:09:24.900,-0.095,0.06
2021-08-19 22:09:24.904,-0.075,0.08
2021-08-19 22:09:24.908,-0.07,0.065
2021-08-19 22:09:24.912,-0.085,0.065
2021-08-19 22:09:24.916,-0.08,0.075
2021-08-19 22:09:24.920,-0.1,0.065
2021-08-19 22:09:24.924,-0.095,0.06
2021-08-19 22:09:24.928,-0.02,0.08
2021-08-19 22:09:24.932,0.105,0.09
2021-08-19 22:09:24.936,0.295,0.1
2021-08-19 22:09:24.940,0.46,0.08
2021-08-19 22:09:24.944,0.615,0.055
2021-08-19 22:09:24.948,0.73,0.0
2021-08-19 22:09:24.952,0.725,-0.065
2021-08-19 22:09:24.956,0.545,-0.165
2021-08-19 22:09:24.960,0.19,-0.255
2021-08-19 22:09:24.964,-0.2,-0.335
2021-08-19 22:09:24.968,-0.435,-0.395
2021-08-19 22:09:24.972,-0.455,-0.39
2021-08-19 22:09:24.976,-0.385,-0.375
2021-08-19 22:09:24.980,-0.285,-0.305
2021-08-19 22:09:24.984,-0.165,-0.22
2021-08-19 22:09:24.988,-0.11,-0.14
2021-08-19 22:09:24.992,-0.105,-0.04
2021-08-19 22:09:24.996,-0.1,0.045
2021-08-19 22:09:25.000,-0.115,0.105
2021-08-19 22:09:25.004,-0.105,0.11
2021-08-19 22:09:25.008,-0.12,0.125
2021-08-19 22:09:25.012,-0.13,0.115
2021-08-19 22:09:25.016,-0.13,0.13
2021-08-19 22:09:25.020,-0.13,0.11
2021-08-19 22:09:25.024,-0.135,0.125
2021-08-19 22:09:25.028,-0.13,0.115
2021-08-19 22:09:25.032,-0.145,0.115
2021-08-19 22:09:25.036,-0.145,0.09
2021-08-19 22:09:25.040,-0.14,0.1
2021-08-19 22:09:25.044,-0.145,0.115
2021-08-19 22:09:25.048,-0.145,0.115
2021-08-19 22:09:25.052,-0.17,0.11
2021-08-19 22:09:25.056,-0.175,0.115
2021-08-19 22:09:25.060,-0.175,0.095
2021-08-19 22:09:25.064,-0.16,0.11
2021-08-19 22:09:25.068,-0.18,0.095
2021-08-19 22:09:25.072,-0.19,0.105
2021-08-19 22:09:25.076,-0.175,0.11
2021-08-19 22:09:25.080,-0.2,0.1
2021-08-19 22:09:25.084,-0.195,0.09
2021-08-19 22:09:25.088,-0.195,0.1
2021-08-19 22:09:25.092,-0.195,0.1
2021-08-19 22:09:25.096,-0.19,0.11
2021-08-19 22:09:25.100,-0.2,0.11
2021-08-19 22:09:25.104,-0.205,0.105
2021-08-19 22:09:25.108,-0.21,0.105
2021-08-19 22:09:25.112,-0.205,0.11
2021-08-19 22:09:25.116,-0.205,0.12
2021-08-19 22:09:25.120,-0.21,0.1
2021-08-19 22:09:25.124,-0.225,0.1
2021-08-19 22:09:25.128,-0.2,0.105
2021-08-19 22:09:25.132,-0.195,0.115
2021-08-19 22:09:25.136,-0.2,0.12
2021-08-19 22:09:25.140,-0.19,0.105
2021-08-19 22:09:25.144,-0.2,0.12
2021-08-19 22:09:25.148,-0.19,0.11
2021-08-19 22:09:25.152,-0.185,0.11
2021-08-19 22:09:25.156,-0.195,0.11
2021-08-19 22:09:25.160,-0.175,0.13
2021-08-19 22:09:25.164,-0.185,0.125
2021-08-19 22:09:25.168,-0.175,0.14
2021-08-19 22:09:25.172,-0.17,0.14
2021-08-19 22:09:25.176,-0.17,0.13
2021-08-19 22:09:25.180,-0.18,0.13
2021-08-19 22:09:25.184,-0.175,0.145
2021-08-19 22:09:25.188,-0.16,0.135
2021-08-19 22:09:25.192,-0.145,0.145
2021-08-19 22:09:25.196,-0.155,0.15
2021-08-19 22:09:25.200,-0.14,0.145
2021-08-19 22:09:25.204,-0.125,0.135
2021-08-19 22:09:25.208,-0.13,0.125
2021-08-19 22:09:25.212,-0.115,0.14
2021-08-19 22:09:25.216,-0.105,0.135
2021-08-19 22:09:25.220,-0.095,0.12
2021-08-19 22:09:25.224,-0.075,0.125
2021-08-19 22:09:25.228,-0.05,0.115
2021-08-19 22:09:25.232,-0.045,0.12
2021-08-19 22:09:25.236,-0.03,0.115
2021-08-19 22:09:25.240,-0.015,0.115
2021-08-19 22:09:25.244,-0.025,0.105
2021-08-19 22:09:25.248,-0.01,0.105
2021-08-19 22:09:25.252,0.0,0.1
2021-08-19 22:09:25.256,0.0,0.105
2021-08-19 22:09:25.260,0.0,0.1
2021-08-19 22:09:25.264,0.0,0.1
2021-08-19 22:09:25.268,-0.02,0.09
2021-08-19 22:09:25.272,-0.03,0.095
2021-08-19 22:09:25.276,-0.035,0.085
2021-08-19 22:09:25.280,-0.035,0.085
2021-08-19 22:09:25.284,-0.065,0.075
2021-08-19 22:09:25.288,-0.055,0.08
2021-08-19 22:09:25.292,-0.075,0.095
2021-08-19 22:09:25.296,-0.085,0.065
2021-08-19 22:09:25.300,-0.09,0.06
2021-08-19 22:09:25.304,-0.095,0.075
2021-08-19 22:09:25.308,-0.105,0.07
2021-08-19 22:09:25.312,-0.095,0.07
2021-08-19 22:09:25.316,-0.105,0.055
2021-08-19 22:09:25.320,-0.095,0.075
2021-08-19 22:09:25.324,-0.09,0.055
2021-08-19 22:09:25.328,-0.105,0.07
2021-08-19 22:09:25.332,-0.11,0.07
2021-08-19 22:09:25.336,-0.105,0.075
2021-08-19 22:09:25.340,-0.105,0.07
2021-08-19 22:09:25.344,-0.085,0.07
2021-08-19 22:09:25.348,-0.11,0.065
2021-08-19 22:09:25.352,-0.105,0.07
2021-08-19 22:09:25.356,-0.06,0.055
2021-08-19 22:09:25.360,0.015,0.09
2021-08-19 22:09:25.364,0.155,0.09
2021-08-19 22:09:25.368,0.31,0.085
2021-08-19 22:09:25.372,0.4,0.085
2021-08-19 22:09:25.376,0.51,0.02
2021-08-19 22:09:25.380,0.595,-0.035
2021-08-19 22:09:25.384,0.53,-0.105
2021-08-19 22:09:25.388,0.3,-0.18
2021-08-19 22:09:25.392,-0.065,-0.275
2021-08-19 22:09:25.396,-0.44,-0.355
2021-08-19 22:09:25.400,-0.585,-0.4
2021-08-19 22:09:25.404,-0.55,-0.39
2021-08-19 22:09:25.408,-0.45,-0.365
2021-08-19 22:09:25.412,-0.33,-0.28
2021-08-19 22:09:25.416,-0.245,-0.185
2021-08-19 22:09:25.420,-0.205,-0.09
2021-08-19 22:09:25.424,-0.2,-0.02
2021-08-19 22:09:25.428,-0.225,0.035
2021-08-19 22:09:25.432,-0.23,0.085
2021-08-19 22:09:25.436,-0.235,0.085
2021-08-19 22:09:25.440,-0.235,0.08
2021-08-19 22:09:25.444,-0.225,0.065
2021-08-19 22:09:25.448,-0.235,0.09
2021-08-19 22:09:25.452,-0.24,0.07
2021-08-19 22:09:25.456,-0.235,0.075
2021-08-19 22:09:25.460,-0.255,0.075
2021-08-19 22:09:25.464,-0.245,0.07
2021-08-19 22:09:25.468,-0.255,0.065
2021-08-19 22:09:25.472,-0.24,0.065
2021-08-19 22:09:25.476,-0.25,0.09
2021-08-19 22:09:25.480,-0.255,0.085
2021-08-19 22:09:25.484,-0.25,0.095
2021-08-19 22:09:25.488,-0.245,0.075
2021-08-19 22:09:25.492,-0.25,0.085
2021-08-19 22:09:25.496,-0.245,0.09
2021-08-19 22:09:25.500,-0.24,0.07
2021-08-19 22:09:25.504,-0.23,0.085
2021-08-19 22:09:25.508,-0.245,0.075
2021-08-19 22:09:25.512,-0.24,0.085
2021-08-19 22:09:25.516,-0.225,0.105
2021-08-19 22:09:25.520,-0.225,0.11
2021-08-19 22:09:25.524,-0.225,0.12
2021-08-19 22:09:25.528,-0.225,0.115
2021-08-19 22:09:25.532,-0.235,0.13
2021-08-19 22:09:25.536,-0.23,0.13
2021-08-19 22:09:25.540,-0.245,0.125
2021-08-19 22:09:25.544,-0.235,0.13
2021-08-19 22:09:25.548,-0.24,0.145
2021-08-19 22:09:25.552,-0.24,0.135
2021-08-19 22:09:25.556,-0.24,0.14
2021-08-19 22:09:25.560,-0.25,0.14
2021-08-19 22:09:25.564,-0.25,0.155
2021-08-19 22:09:25.568,-0.26,0.15
2021-08-19 22:09:25.572,-0.265,0.17
2021-08-19 22:09:25.576,-0.255,0.155
2021-08-19 22:09:25.580,-0.24,0.16
2021-08-19 22:09:25.584,-0.24,0.165
2021-08-19 22:09:25.588,-0.25,0.17
2021-08-19 22:09:25.592,-0.23,0.165
2021-08-19 22:09:25.596,-0.25,0.165
2021-08-19 22:09:25.600,-0.255,0.18
2021-08-19 22:09:25.604,-0.235,0.175
2021-08-19 22:09:25.608,-0.245,0.15
2021-08-19 22:09:25.612,-0.23,0.16
2021-08-19 22:09:25.616,-0.21,0.14
2021-08-19 22:09:25.620,-0.19,0.145
2021-08-19 22:09:25.624,-0.19,0.13
2021-08-19 22:09:25.628,-0.17,0.13
2021-08-19 22:09:25.632,-0.15,0.125
2021-08-19 22:09:25.636,-0.15,0.12
2021-08-19 22:09:25.640,-0.13,0.115
2021-08-19 22:09:25.644,-0.12,0.11
2021-08-19 22:09:25.648,-0.105,0.11
2021-08-19 22:09:25.652,-0.115,0.11
2021-08-19 22:09:25.656,-0.075,0.1
2021-08-19 22:09:25.660,-0.085,0.095
2021-08-19 22:09:25.664,-0.075,0.08
2021-08-19 22:09:25.668,-0.075,0.085
2021-08-19 22:09:25.672,-0.07,0.08
2021-08-19 22:09:25.676,-0.075,0.085
2021-08-19 22:09:25.680,-0.08,0.065
2021-08-19 22:09:25.684,-0.075,0.075
2021-08-19 22:09:25.688,-0.07,0.065
2021-08-19 22:09:25.692,-0.075,0.07
2021-08-19 22:09:25.696,-0.075,0.075
2021-08-19 22:09:25.700,-0.075,0.065
2021-08-19 22:09:25.704,-0.065,0.065
2021-08-19 22:09:25.708,-0.1,0.065
2021-08-19 22:09:25.712,-0.1,0.08
2021-08-19 22:09:25.716,-0.085,0.07
2021-08-19 22:09:25.720,-0.09,0.06
2021-08-19 22:09:25.724,-0.1,0.065
2021-08-19 22:09:25.728,-0.085,0.065
2021-08-19 22:09:25.732,-0.095,0.07
2021-08-19 22:09:25.736,-0.095,0.06
2021-08-19 22:09:25.740,-0.08,0.07
2021-08-19 22:09:25.744,-0.085,0.07
2021-08-19 22:09:25.748,-0.075,0.065
2021-08-19 22:09:25.752,-0.085,0.065
2021-08-19 22:09:25.756,-0.085,0.08
2021-08-19 22:09:25.760,-0.07,0.075
2021-08-19 22:09:25.764,-0.05,0.085
2021-08-19 22:09:25.768,-0.06,0.1
2021-08-19 22:09:25.772,-0.07,0.105
2021-08-19 22:09:25.776,-0.055,0.085
2021-08-19 22:09:25.780,-0.055,0.1
2021-08-19 22:09:25.784,-0.05,0.11
2021-08-19 22:09:25.788,-0.045,0.1
2021-08-19 22:09:25.792,-0.04,0.11
2021-08-19 22:09:25.796,-0.045,0.095
2021-08-19 22:09:25.800,-0.04,0.12
2021-08-19 22:09:25.804,-0.065,0.11
2021-08-19 22:09:25.808,-0.04,0.12
2021-08-19 22:09:25.812,-0.04,0.13
2021-08-19 22:09:25.816,-0.03,0.12
2021-08-19 22:09:25.820,-0.04,0.125
2021-08-19 22:09:25.824,-0.035,0.115
2021-08-19 22:09:25.828,-0.045,0.12
2021-08-19 22:09:25.832,-0.03,0.12
2021-08-19 22:09:25.836,-0.04,0.105
2021-08-19 22:09:25.840,-0.05,0.115
2021-08-19 22:09:25.844,-0.035,0.12
2021-08-19 22:09:25.848,-0.045,0.115
2021-08-19 22:09:25.852,-0.065,0.11
2021-08-19 22:09:25.856,-0.05,0.12
2021-08-19 22:09:25.860,-0.07,0.13
2021-08-19 22:09:25.864,-0.06,0.105
2021-08-19 22:09:25.868,-0.07,0.105
2021-08-19 22:09:25.872,-0.07,0.13
2021-08-19 22:09:25.876,-0.07,0.125
2021-08-19 22:09:25.880,-0.075,0.12
2021-08-19 22:09:25.884,-0.065,0.12
2021-08-19 22:09:25.888,-0.075,0.115
2021-08-19 22:09:25.892,-0.085,0.12
2021-08-19 22:09:25.896,-0.08,0.105
2021-08-19 22:09:25.900,-0.075,0.115
2021-08-19 22:09:25.904,-0.09,0.115
2021-08-19 22:09:25.908,-0.09,0.115
2021-08-19 22:09:25.912,-0.09,0.105
2021-08-19 22:09:25.916,-0.09,0.11
2021-08-19 22:09:25.920,-0.1,0.1
2021-08-19 22:09:25.924,-0.115,0.11
2021-08-19 22:09:25.928,-0.11,0.105
2021-08-19 22:09:25.932,-0.11,0.085
2021-08-19 22:09:25.936,-0.12,0.1
2021-08-19 22:09:25.940,-0.12,0.105
2021-08-19 22:09:25.944,-0.115,0.09
2021-08-19 22:09:25.948,-0.09,0.09
2021-08-19 22:09:25.952,-0.125,0.095
2021-08-19 22:09:25.956,-0.105,0.095
2021-08-19 22:09:25.960,-0.11,0.085
2021-08-19 22:09:25.964,-0.105,0.085
2021-08-19 22:09:25.968,-0.13,0.09
2021-08-19 22:09:25.972,-0.115,0.085
2021-08-19 22:09:25.976,-0.12,0.09
2021-08-19 22:09:25.980,-0.11,0.09
2021-08-19 22:09:25.984,-0.11,0.075
2021-08-19 22:09:25.988,-0.115,0.09
2021-08-19 22:09:25.992,-0.115,0.075
2021-08-19 22:09:25.996,-0.105,0.085
2021-08-19 22:09:26.000,-0.105,0.095
2021-08-19 22:09:26.004,-0.105,0.095
2021-08-19 22:09:26.008,-0.105,0.095
2021-08-19 22:09:26.012,-0.095,0.095
2021-08-19 22:09:26.016,-0.095,0.09
2021-08-19 22:09:26.020,-0.095,0.09
2021-08-19 22:09:26.024,-0.1,0.095
2021-08-19 22:09:26.028,-0.08,0.095
2021-08-19 22:09:26.032,-0.085,0.1
2021-08-19 22:09:26.036,-0.08,0.11
2021-08-19 22:09:26.040,-0.08,0.11
2021-08-19 22:09:26.044,-0.085,0.105
2021-08-19 22:09:26.048,-0.075,0.105
2021-08-19 22:09:26.052,-0.075,0.095
2021-08-19 22:09:26.056,-0.085,0.095
2021-08-19 22:09:26.060,-0.07,0.11
2021-08-19 22:09:26.064,-0.08,0.12
2021-08-19 22:09:26.068,-0.065,0.12
2021-08-19 22:09:26.072,-0.08,0.11
2021-08-19 22:09:26.076,-0.075,0.105
2021-08-19 22:09:26.080,-0.085,0.11
2021-08-19 22:09:26.084,-0.075,0.105
2021-08-19 22:09:26.088,-0.09,0.1
2021-08-19 22:09:26.092,-0.09,0.115
2021-08-19 22:09:26.096,-0.095,0.105
2021-08-19 22:09:26.100,-0.085,0.105
2021-08-19 22:09:26.104,-0.04,0.12
2021-08-19 22:09:26.108,0.04,0.13
2021-08-19 22:09:26.112,0.2,0.145
2021-08-19 22:09:26.116,0.375,0.13
2021-08-19 22:09:26.120,0.525,0.12
2021-08-19 22:09:26.124,0.665,0.1
2021-08-19 22:09:26.128,0.75,0.055
2021-08-19 22:09:26.132,0.72,-0.025
2021-08-19 22:09:26.136,0.495,-0.13
2021-08-19 22:09:26.140,0.125,-0.23
2021-08-19 22:09:26.144,-0.25,-0.31
2021-08-19 22:09:26.148,-0.45,-0.37
2021-08-19 22:09:26.152,-0.515,-0.395
2021-08-19 22:09:26.156,-0.485,-0.365
2021-08-19 22:09:26.160,-0.42,-0.3
2021-08-19 22:09:26.164,-0.335,-0.23
2021-08-19 22:09:26.168,-0.25,-0.145
2021-08-19 22:09:26.172,-0.2,-0.065
2021-08-19 22:09:26.176,-0.17,0.01
2021-08-19 22:09:26.180,-0.16,0.07
2021-08-19 22:09:26.184,-0.16,0.105
2021-08-19 22:09:26.188,-0.175,0.125
2021-08-19 22:09:26.192,-0.19,0.13
2021-08-19 22:09:26.196,-0.185,0.13
2021-08-19 22:09:26.200,-0.19,0.145
2021-08-19 22:09:26.204,-0.19,0.13
2021-08-19 22:09:26.208,-0.195,0.115
2021-08-19 22:09:26.212,-0.195,0.12
2021-08-19 22:09:26.216,-0.19,0.12
2021-08-19 22:09:26.220,-0.205,0.115
2021-08-19 22:09:26.224,-0.185,0.12
2021-08-19 22:09:26.228,-0.19,0.105
2021-08-19 22:09:26.232,-0.2,0.115
2021-08-19 22:09:26.236,-0.2,0.115
2021-08-19 22:09:26.240,-0.19,0.115
2021-08-19 22:09:26.244,-0.19,0.125
2021-08-19 22:09:26.248,-0.195,0.12
2021-08-19 22:09:26.252,-0.195,0.11
2021-08-19 22:09:26.256,-0.2,0.11
2021-08-19 22:09:26.260,-0.22,0.11
2021-08-19 22:09:26.264,-0.215,0.115
2021-08-19 22:09:26.268,-0.21,0.12
2021-08-19 22:09:26.272,-0.21,0.115
2021-08-19 22:09:26.276,-0.205,0.11
2021-08-19 22:09:26.280,-0.195,0.125
2021-08-19 22:09:26.284,-0.195,0.11
2021-08-19 22:09:26.288,-0.195,0.135
2021-08-19 22:09:26.292,-0.205,0.135
2021-08-19 22:09:26.296,-0.19,0.15
2021-08-19 22:09:26.300,-0.175,0.16
2021-08-19 22:09:26.304,-0.2,0.16
2021-08-19 22:09:26.308,-0.19,0.165
2021-08-19 22:09:26.312,-0.19,0.16
2021-08-19 22:09:26.316,-0.19,0.175
2021-08-19 22:09:26.320,-0.195,0.175
2021-08-19 22:09:26.324,-0.19,0.17
2021-08-19 22:09:26.328,-0.19,0.165
2021-08-19 22:09:26.332,-0.185,0.165
2021-08-19 22:09:26.336,-0.185,0.16
2021-08-19 22:09:26.340,-0.19,0.18
2021-08-19 22:09:26.344,-0.19,0.18
2021-08-19 22:09:26.348,-0.18,0.185
2021-08-19 22:09:26.352,-0.175,0.18
2021-08-19 22:09:26.356,-0.17,0.175
2021-08-19 22:09:26.360,-0.175,0.18
2021-08-19 22:09:26.364,-0.16,0.165
2021-08-19 22:09:26.368,-0.18,0.165
2021-08-19 22:09:26.372,-0.175,0.16
2021-08-19 22:09:26.376,-0.165,0.16
2021-08-19 22:09:26.380,-0.155,0.155
2021-08-19 22:09:26.384,-0.16,0.17
2021-08-19 22:09:26.388,-0.155,0.185
2021-08-19 22:09:26.392,-0.15,0.175
2021-08-19 22:09:26.396,-0.135,0.155
2021-08-19 22:09:26.400,-0.125,0.16
2021-08-19 22:09:26.404,-0.125,0.145
2021-08-19 22:09:26.408,-0.11,0.14
2021-08-19 22:09:26.412,-0.09,0.13
2021-08-19 22:09:26.416,-0.085,0.125
2021-08-19 22:09:26.420,-0.08,0.135
2021-08-19 22:09:26.424,-0.075,0.115
2021-08-19 22:09:26.428,-0.06,0.125
2021-08-19 22:09:26.432,-0.065,0.125
2021-08-19 22:09:26.436,-0.06,0.12
2021-08-19 22:09:26.440,-0.045,0.1
2021-08-19 22:09:26.444,-0.045,0.1
2021-08-19 22:09:26.448,-0.04,0.105
2021-08-19 22:09:26.452,-0.035,0.115
2021-08-19 22:09:26.456,-0.04,0.105
2021-08-19 22:09:26.460,-0.035,0.085
2021-08-19 22:09:26.464,-0.025,0.09
2021-08-19 22:09:26.468,-0.055,0.105
2021-08-19 22:09:26.472,-0.065,0.105
2021-08-19 22:09:26.476,-0.055,0.1
2021-08-19 22:09:26.480,-0.055,0.09
2021-08-19 22:09:26.484,-0.065,0.09
2021-08-19 22:09:26.488,-0.06,0.1
2021-08-19 22:09:26.492,-0.06,0.095
2021-08-19 22:09:26.496,-0.065,0.085
2021-08-19 22:09:26.500,-0.08,0.09
2021-08-19 22:09:26.504,-0.075,0.09
2021-08-19 22:09:26.508,-0.08,0.09
2021-08-19 22:09:26.512,-0.085,0.095
2021-08-19 22:09:26.516,-0.09,0.08
2021-08-19 22:09:26.520,-0.09,0.075
2021-08-19 22:09:26.524,-0.085,0.085
2021-08-19 22:09:26.528,-0.08,0.08
2021-08-19 22:09:26.532,-0.075,0.08
2021-08-19 22:09:26.536,-0.08,0.09
2021-08-19 22:09:26.540,-0.065,0.095
2021-08-19 22:09:26.544,-0.07,0.105
2021-08-19 22:09:26.548,-0.07,0.09
2021-08-19 22:09:26.552,-0.07,0.105
2021-08-19 22:09:26.556,-0.07,0.1
2021-08-19 22:09:26.560,-0.07,0.095
2021-08-19 22:09:26.564,-0.06,0.095
2021-08-19 22:09:26.568,-0.055,0.105
2021-08-19 22:09:26.572,-0.065,0.115
2021-08-19 22:09:26.576,-0.055,0.11
2021-08-19 22:09:26.580,-0.055,0.125
2021-08-19 22:09:26.584,-0.045,0.12
2021-08-19 22:09:26.588,-0.055,0.125
2021-08-19 22:09:26.592,-0.075,0.135
2021-08-19 22:09:26.596,-0.04,0.15
2021-08-19 22:09:26.600,0.005,0.14
2021-08-19 22:09:26.604,0.17,0.16
2021-08-19 22:09:26.608,0.35,0.18
2021-08-19 22:09:26.612,0.52,0.15
2021-08-19 22:09:26.616,0.655,0.12
2021-08-19 22:09:26.620,0.735,0.075
2021-08-19 22:09:26.624,0.635,0.025
2021-08-19 22:09:26.628,0.34,-0.1
2021-08-19 22:09:26.632,-0.105,-0.215
2021-08-19 22:09:26.636,-0.48,-0.295
2021-08-19 22:09:26.640,-0.595,-0.365
2021-08-19 22:09:26.644,-0.53,-0.38
2021-08-19 22:09:26.648,-0.415,-0.34
2021-08-19 22:09:26.652,-0.29,-0.26
2021-08-19 22:09:26.656,-0.195,-0.16
2021-08-19 22:09:26.660,-0.15,-0.055
2021-08-19 22:09:26.664,-0.145,0.03
2021-08-19 22:09:26.668,-0.18,0.095
2021-08-19 22:09:26.672,-0.195,0.155
2021-08-19 22:09:26.676,-0.17,0.19
2021-08-19 22:09:26.680,-0.17,0.165
2021-08-19 22:09:26.684,-0.175,0.17
2021-08-19 22:09:26.688,-0.165,0.155
2021-08-19 22:09:26.692,-0.17,0.155
2021-08-19 22:09:26.696,-0.175,0.15
2021-08-19 22:09:26.700,-0.175,0.14
2021-08-19 22:09:26.704,-0.18,0.145
2021-08-19 22:09:26.708,-0.17,0.155
2021-08-19 22:09:26.712,-0.175,0.145
2021-08-19 22:09:26.716,-0.17,0.135
2021-08-19 22:09:26.720,-0.175,0.14
2021-08-19 22:09:26.724,-0.18,0.14
2021-08-19 22:09:26.728,-0.165,0.135
2021-08-19 22:09:26.732,-0.19,0.145
2021-08-19 22:09:26.736,-0.175,0.145
2021-08-19 22:09:26.740,-0.16,0.145
2021-08-19 22:09:26.744,-0.165,0.14
2021-08-19 22:09:26.748,-0.16,0.145
2021-08-19 22:09:26.752,-0.16,0.165
2021-08-19 22:09:26.756,-0.165,0.15
2021-08-19 22:09:26.760,-0.15,0.165
2021-08-19 22:09:26.764,-0.16,0.165
2021-08-19 22:09:26.768,-0.15,0.17
2021-08-19 22:09:26.772,-0.155,0.165
2021-08-19 22:09:26.776,-0.17,0.16
2021-08-19 22:09:26.780,-0.165,0.17
2021-08-19 22:09:26.784,-0.16,0.185
2021-08-19 22:09:26.788,-0.17,0.165
2021-08-19 22:09:26.792,-0.17,0.185
2021-08-19 22:09:26.796,-0.16,0.185
2021-08-19 22:09:26.800,-0.155,0.195
2021-08-19 22:09:26.804,-0.165,0.195
2021-08-19 22:09:26.808,-0.17,0.2
2021-08-19 22:09:26.812,-0.155,0.205
2021-08-19 22:09:26.816,-0.15,0.215
2021-08-19 22:09:26.820,-0.16,0.215
2021-08-19 22:09:26.824,-0.13,0.215
2021-08-19 22:09:26.828,-0.15,0.22
2021-08-19 22:09:26.832,-0.125,0.215
2021-08-19 22:09:26.836,-0.14,0.23
2021-08-19 22:09:26.840,-0.12,0.215
2021-08-19 22:09:26.844,-0.1,0.215
2021-08-19 22:09:26.848,-0.11,0.2
2021-08-19 22:09:26.852,-0.085,0.22
2021-08-19 22:09:26.856,-0.08,0.195
2021-08-19 22:09:26.860,-0.08,0.215
2021-08-19 22:09:26.864,-0.075,0.195
2021-08-19 22:09:26.868,-0.075,0.195
2021-08-19 22:09:26.872,-0.06,0.19
2021-08-19 22:09:26.876,-0.06,0.17
2021-08-19 22:09:26.880,-0.045,0.17
2021-08-19 22:09:26.884,-0.04,0.16
2021-08-19 22:09:26.888,-0.03,0.16
2021-08-19 22:09:26.892,-0.03,0.165
2021-08-19 22:09:26.896,-0.025,0.165
2021-08-19 22:09:26.900,-0.01,0.17
2021-08-19 22:09:26.904,0.0,0.165
2021-08-19 22:09:26.908,-0.005,0.155
2021-08-19 22:09:26.912,-0.005,0.16
2021-08-19 22:09:26.916,-0.02,0.17
2021-08-19 22:09:26.920,-0.01,0.16
2021-08-19 22:09:26.924,-0.015,0.16
2021-08-19 22:09:26.928,-0.025,0.13
2021-08-19 22:09:26.932,-0.025,0.14
2021-08-19 22:09:26.936,-0.02,0.14
2021-08-19 22:09:26.940,-0.02,0.13
2021-08-19 22:09:26.944,-0.03,0.13
2021-08-19 22:09:26.948,-0.045,0.125
2021-08-19 22:09:26.952,-0.04,0.12
2021-08-19 22:09:26.956,-0.035,0.125
2021-08-19 22:09:26.960,-0.03,0.12
2021-08-19 22:09:26.964,-0.035,0.12
2021-08-19 22:09:26.968,-0.045,0.135
2021-08-19 22:09:26.972,-0.045,0.125
2021-08-19 22:09:26.976,-0.06,0.115
2021-08-19 22:09:26.980,-0.04,0.135
2021-08-19 22:09:26.984,-0.05,0.13
2021-08-19 22:09:26.988,-0.055,0.13
2021-08-19 22:09:26.992,-0.04,0.13
2021-08-19 22:09:26.996,-0.045,0.135
2021-08-19 22:09:27.000,-0.045,0.14
2021-08-19 22:09:27.004,-0.035,0.13
2021-08-19 22:09:27.008,-0.035,0.14
2021-08-19 22:09:27.012,-0.045,0.145
2021-08-19 22:09:27.016,-0.04,0.14
2021-08-19 22:09:27.020,-0.02,0.13
2021-08-19 22:09:27.024,-0.045,0.135
2021-08-19 22:09:27.028,-0.03,0.15
2021-08-19 22:09:27.032,-0.04,0.135
2021-08-19 22:09:27.036,-0.03,0.15
2021-08-19 22:09:27.040,-0.05,0.135
2021-08-19 22:09:27.044,-0.045,0.135
2021-08-19 22:09:27.048,-0.04,0.14
2021-08-19 22:09:27.052,-0.045,0.155
2021-08-19 22:09:27.056,-0.04,0.135
2021-08-19 22:09:27.060,-0.05,0.14
2021-08-19 22:09:27.064,-0.04,0.135
2021-08-19 22:09:27.068,-0.065,0.14
2021-08-19 22:09:27.072,-0.075,0.14
2021-08-19 22:09:27.076,-0.09,0.14
2021-08-19 22:09:27.080,-0.07,0.135
2021-08-19 22:09:27.084,-0.09,0.145
2021-08-19 22:09:27.088,-0.075,0.145
2021-08-19 22:09:27.092,-0.075,0.14
2021-08-19 22:09:27.096,-0.075,0.135
2021-08-19 22:09:27.100,-0.09,0.14
2021-08-19 22:09:27.104,-0.075,0.115
2021-08-19 22:09:27.108,-0.07,0.135
2021-08-19 22:09:27.112,-0.08,0.14
2021-08-19 22:09:27.116,-0.1,0.16
2021-08-19 22:09:27.120,-0.075,0.13
2021-08-19 22:09:27.124,-0.065,0.14
2021-08-19 22:09:27.128,-0.07,0.135
2021-08-19 22:09:27.132,-0.07,0.125
2021-08-19 22:09:27.136,-0.06,0.125
2021-08-19 22:09:27.140,-0.08,0.125
2021-08-19 22:09:27.144,-0.075,0.14
2021-08-19 22:09:27.148,-0.07,0.115
2021-08-19 22:09:27.152,-0.08,0.13
2021-08-19 22:09:27.156,-0.08,0.12
2021-08-19 22:09:27.160,-0.07,0.125
2021-08-19 22:09:27.164,-0.085,0.14
2021-08-19 22:09:27.168,-0.06,0.12
2021-08-19 22:09:27.172,-0.08,0.12
2021-08-19 22:09:27.176,-0.085,0.12
2021-08-19 22:09:27.180,-0.09,0.13
2021-08-19 22:09:27.184,-0.08,0.12
2021-08-19 22:09:27.188,-0.075,0.14
2021-08-19 22:09:27.192,-0.08,0.12
2021-08-19 22:09:27.196,-0.095,0.125
2021-08-19 22:09:27.200,-0.08,0.14
2021-08-19 22:09:27.204,-0.095,0.125
2021-08-19 22:09:27.208,-0.11,0.115
2021-08-19 22:09:27.212,-0.1,0.125
2021-08-19 22:09:27.216,-0.105,0.105
2021-08-19 22:09:27.220,-0.105,0.12
2021-08-19 22:09:27.224,-0.1,0.13
2021-08-19 22:09:27.228,-0.09,0.13
2021-08-19 22:09:27.232,-0.075,0.115
2021-08-19 22:09:27.236,-0.07,0.11
2021-08-19 22:09:27.240,-0.095,0.115
2021-08-19 22:09:27.244,-0.09,0.12
2021-08-19 22:09:27.248,-0.095,0.105
2021-08-19 22:09:27.252,-0.095,0.105
2021-08-19 22:09:27.256,-0.105,0.11
2021-08-19 22:09:27.260,-0.095,0.11
2021-08-19 22:09:27.264,-0.09,0.085
2021-08-19 22:09:27.268,-0.095,0.095
2021-08-19 22:09:27.272,-0.095,0.1
2021-08-19 22:09:27.276,-0.09,0.105
2021-08-19 22:09:27.280,-0.09,0.1
2021-08-19 22:09:27.284,-0.09,0.085
2021-08-19 22:09:27.288,-0.115,0.1
2021-08-19 22:09:27.292,-0.11,0.08
2021-08-19 22:09:27.296,-0.08,0.085
2021-08-19 22:09:27.300,-0.1,0.1
2021-08-19 22:09:27.304,-0.11,0.09
2021-08-19 22:09:27.308,-0.105,0.095
2021-08-19 22:09:27.312,-0.105,0.095
2021-08-19 22:09:27.316,-0.105,0.1
2021-08-19 22:09:27.320,-0.115,0.09
2021-08-19 22:09:27.324,-0.085,0.09
2021-08-19 22:09:27.328,-0.1,0.075
2021-08-19 22:09:27.332,-0.12,0.085
2021-08-19 22:09:27.336,-0.12,0.1
2021-08-19 22:09:27.340,-0.135,0.085
2021-08-19 22:09:27.344,-0.13,0.09
2021-08-19 22:09:27.348,-0.14,0.1
2021-08-19 22:09:27.352,-0.145,0.095
2021-08-19 22:09:27.356,-0.135,0.085
2021-08-19 22:09:27.360,-0.11,0.09
2021-08-19 22:09:27.364,-0.12,0.095
2021-08-19 22:09:27.368,-0.135,0.09
2021-08-19 22:09:27.372,-0.13,0.105
2021-08-19 22:09:27.376,-0.135,0.1
2021-08-19 22:09:27.380,-0.125,0.1
2021-08-19 22:09:27.384,-0.12,0.095
2021-08-19 22:09:27.388,-0.105,0.105
2021-08-19 22:09:27.392,-0.095,0.115
2021-08-19 22:09:27.396,-0.08,0.11
2021-08-19 22:09:27.400,-0.09,0.095
2021-08-19 22:09:27.404,-0.1,0.105
2021-08-19 22:09:27.408,-0.1,0.12
2021-08-19 22:09:27.412,-0.085,0.125
2021-08-19 22:09:27.416,-0.1,0.115
2021-08-19 22:09:27.420,-0.09,0.12
2021-08-19 22:09:27.424,-0.09,0.13
2021-08-19 22:09:27.428,-0.095,0.125
2021-08-19 22:09:27.432,-0.085,0.11
2021-08-19 22:09:27.436,-0.09,0.115
2021-08-19 22:09:27.440,-0.1,0.125
2021-08-19 22:09:27.444,-0.075,0.11
2021-08-19 22:09:27.448,-0.07,0.125
2021-08-19 22:09:27.452,-0.015,0.125
2021-08-19 22:09:27.456,0.075,0.135
2021-08-19 22:09:27.460,0.215,0.16
2021-08-19 22:09:27.464,0.35,0.15
2021-08-19 22:09:27.468,0.495,0.125
2021-08-19 22:09:27.472,0.6,0.085
2021-08-19 22:09:27.476,0.65,0.045
2021-08-19 22:09:27.480,0.53,-0.035
2021-08-19 22:09:27.484,0.225,-0.11
2021-08-19 22:09:27.488,-0.155,-0.18
2021-08-19 22:09:27.492,-0.455,-0.24
2021-08-19 22:09:27.496,-0.575,-0.28
2021-08-19 22:09:27.500,-0.58,-0.3
2021-08-19 22:09:27.504,-0.52,-0.255
2021-08-19 22:09:27.508,-0.42,-0.17
2021-08-19 22:09:27.512,-0.32,-0.09
2021-08-19 22:09:27.516,-0.235,-0.015
2021-08-19 22:09:27.520,-0.2,0.04
2021-08-19 22:09:27.524,-0.175,0.075
2021-08-19 22:09:27.528,-0.19,0.11
2021-08-19 22:09:27.532,-0.19,0.125
2021-08-19 22:09:27.536,-0.19,0.125
2021-08-19 22:09:27.540,-0.205,0.13
2021-08-19 22:09:27.544,-0.2,0.135
2021-08-19 22:09:27.548,-0.195,0.12
2021-08-19 22:09:27.552,-0.185,0.12
2021-08-19 22:09:27.556,-0.195,0.115
2021-08-19 22:09:27.560,-0.2,0.11
2021-08-19 22:09:27.564,-0.215,0.11
2021-08-19 22:09:27.568,-0.21,0.12
2021-08-19 22:09:27.572,-0.21,0.12
2021-08-19 22:09:27.576,-0.215,0.12
2021-08-19 22:09:27.580,-0.225,0.13
2021-08-19 22:09:27.584,-0.225,0.12
2021-08-19 22:09:27.588,-0.24,0.12
2021-08-19 22:09:27.592,-0.235,0.12
2021-08-19 22:09:27.596,-0.23,0.135
2021-08-19 22:09:27.600,-0.24,0.13
2021-08-19 22:09:27.604,-0.24,0.135
2021-08-19 22:09:27.608,-0.25,0.125
2021-08-19 22:09:27.612,-0.25,0.135
2021-08-19 22:09:27.616,-0.26,0.135
2021-08-19 22:09:27.620,-0.26,0.13
2021-08-19 22:09:27.624,-0.265,0.13
2021-08-19 22:09:27.628,-0.27,0.145
2021-08-19 22:09:27.632,-0.265,0.135
2021-08-19 22:09:27.636,-0.265,0.135
2021-08-19 22:09:27.640,-0.245,0.135
2021-08-19 22:09:27.644,-0.245,0.145
2021-08-19 22:09:27.648,-0.25,0.155
2021-08-19 22:09:27.652,-0.245,0.155
2021-08-19 22:09:27.656,-0.24,0.155
2021-08-19 22:09:27.660,-0.235,0.17
2021-08-19 22:09:27.664,-0.23,0.175
2021-08-19 22:09:27.668,-0.22,0.18
2021-08-19 22:09:27.672,-0.215,0.185
2021-08-19 22:09:27.676,-0.23,0.175
2021-08-19 22:09:27.680,-0.215,0.185
2021-08-19 22:09:27.684,-0.22,0.185
2021-08-19 22:09:27.688,-0.215,0.205
2021-08-19 22:09:27.692,-0.215,0.18
2021-08-19 22:09:27.696,-0.195,0.185
2021-08-19 22:09:27.700,-0.19,0.195
2021-08-19 22:09:27.704,-0.19,0.2
2021-08-19 22:09:27.708,-0.19,0.195
2021-08-19 22:09:27.712,-0.195,0.185
2021-08-19 22:09:27.716,-0.195,0.2
2021-08-19 22:09:27.720,-0.21,0.19
2021-08-19 22:09:27.724,-0.18,0.185
2021-08-19 22:09:27.728,-0.195,0.185
2021-08-19 22:09:27.732,-0.19,0.195
2021-08-19 22:09:27.736,-0.19,0.175
2021-08-19 22:09:27.740,-0.18,0.18
2021-08-19 22:09:27.744,-0.17,0.17
2021-08-19 22:09:27.748,-0.165,0.175
2021-08-19 22:09:27.752,-0.16,0.16
2021-08-19 22:09:27.756,-0.15,0.155
2021-08-19 22:09:27.760,-0.14,0.165
2021-08-19 22:09:27.764,-0.125,0.16
2021-08-19 22:09:27.768,-0.115,0.155
2021-08-19 22:09:27.772,-0.11,0.15
2021-08-19 22:09:27.776,-0.115,0.15
2021-08-19 22:09:27.780,-0.11,0.14
2021-08-19 22:09:27.784,-0.09,0.16
2021-08-19 22:09:27.788,-0.08,0.145
2021-08-19 22:09:27.792,-0.085,0.145
2021-08-19 22:09:27.796,-0.085,0.14
2021-08-19 22:09:27.800,-0.065,0.145
2021-08-19 22:09:27.804,-0.05,0.13
2021-08-19 22:09:27.808,-0.06,0.14
2021-08-19 22:09:27.812,-0.06,0.12
2021-08-19 22:09:27.816,-0.06,0.135
2021-08-19 22:09:27.820,-0.05,0.145
2021-08-19 22:09:27.824,-0.055,0.145
2021-08-19 22:09:27.828,-0.07,0.145
2021-08-19 22:09:27.832,-0.06,0.135
2021-08-19 22:09:27.836,-0.07,0.135
2021-08-19 22:09:27.840,-0.065,0.13
2021-08-19 22:09:27.844,-0.08,0.14
2021-08-19 22:09:27.848,-0.075,0.14
2021-08-19 22:09:27.852,-0.07,0.145
2021-08-19 22:09:27.856,-0.08,0.14
2021-08-19 22:09:27.860,-0.08,0.15
2021-08-19 22:09:27.864,-0.09,0.14
2021-08-19 22:09:27.868,-0.08,0.14
2021-08-19 22:09:27.872,-0.08,0.14
2021-08-19 22:09:27.876,-0.08,0.155
2021-08-19 22:09:27.880,-0.08,0.135
2021-08-19 22:09:27.884,-0.075,0.145
2021-08-19 22:09:27.888,-0.085,0.145
2021-08-19 22:09:27.892,-0.07,0.16
2021-08-19 22:09:27.896,-0.085,0.15
2021-08-19 22:09:27.900,-0.075,0.145
2021-08-19 22:09:27.904,-0.055,0.16
2021-08-19 22:09:27.908,-0.06,0.15
2021-08-19 22:09:27.912,-0.04,0.15
2021-08-19 22:09:27.916,-0.04,0.18
2021-08-19 22:09:27.920,-0.055,0.185
2021-08-19 22:09:27.924,-0.045,0.18
2021-08-19 22:09:27.928,-0.045,0.165
2021-08-19 22:09:27.932,-0.045,0.175
2021-08-19 22:09:27.936,-0.05,0.175
2021-08-19 22:09:27.940,-0.025,0.18
2021-08-19 22:09:27.944,-0.055,0.185
2021-08-19 22:09:27.948,-0.045,0.175
2021-08-19 22:09:27.952,-0.025,0.18
2021-08-19 22:09:27.956,-0.015,0.185
2021-08-19 22:09:27.960,-0.04,0.18
2021-08-19 22:09:27.964,-0.02,0.185
2021-08-19 22:09:27.968,-0.02,0.18
2021-08-19 22:09:27.972,-0.015,0.195
2021-08-19 22:09:27.976,-0.015,0.19
2021-08-19 22:09:27.980,-0.03,0.18
2021-08-19 22:09:27.984,-0.015,0.195
2021-08-19 22:09:27.988,-0.04,0.19
2021-08-19 22:09:27.992,-0.02,0.18
2021-08-19 22:09:27.996,-0.035,0.165
2021-08-19 22:09:28.000,-0.035,0.18
2021-08-19 22:09:28.004,-0.06,0.185
2021-08-19 22:09:28.008,-0.045,0.175
2021-08-19 22:09:28.012,-0.065,0.17
2021-08-19 22:09:28.016,-0.055,0.17
2021-08-19 22:09:28.020,-0.07,0.165
2021-08-19 22:09:28.024,-0.055,0.165
2021-08-19 22:09:28.028,-0.06,0.16
2021-08-19 22:09:28.032,-0.055,0.165
2021-08-19 22:09:28.036,-0.075,0.16
2021-08-19 22:09:28.040,-0.07,0.155
2021-08-19 22:09:28.044,-0.07,0.165
2021-08-19 22:09:28.048,-0.075,0.155
2021-08-19 22:09:28.052,-0.08,0.155
2021-08-19 22:09:28.056,-0.08,0.145
2021-08-19 22:09:28.060,-0.07,0.145
2021-08-19 22:09:28.064,-0.085,0.145
2021-08-19 22:09:28.068,-0.08,0.14
2021-08-19 22:09:28.072,-0.08,0.15
2021-08-19 22:09:28.076,-0.075,0.14
2021-08-19 22:09:28.080,-0.045,0.15
2021-08-19 22:09:28.084,0.005,0.16
2021-08-19 22:09:28.088,0.13,0.16
2021-08-19 22:09:28.092,0.31,0.18
2021-08-19 22:09:28.096,0.47,0.17
2021-08-19 22:09:28.100,0.61,0.15
2021-08-19 22:09:28.104,0.74,0.1
2021-08-19 22:09:28.108,0.765,0.03
2021-08-19 22:09:28.112,0.62,-0.065
2021-08-19 22:09:28.116,0.3,-0.17
2021-08-19 22:09:28.120,-0.12,-0.265
2021-08-19 22:09:28.124,-0.45,-0.32
2021-08-19 22:09:28.128,-0.535,-0.37
2021-08-19 22:09:28.132,-0.5,-0.345
2021-08-19 22:09:28.136,-0.43,-0.305
2021-08-19 22:09:28.140,-0.345,-0.235
2021-08-19 22:09:28.144,-0.25,-0.115
2021-08-19 22:09:28.148,-0.205,-0.025
2021-08-19 22:09:28.152,-0.17,0.05
2021-08-19 22:09:28.156,-0.195,0.11
2021-08-19 22:09:28.160,-0.185,0.16
2021-08-19 22:09:28.164,-0.19,0.195
2021-08-19 22:09:28.168,-0.175,0.21
2021-08-19 22:09:28.172,-0.17,0.195
2021-08-19 22:09:28.176,-0.185,0.2
2021-08-19 22:09:28.180,-0.155,0.19
2021-08-19 22:09:28.184,-0.17,0.205
2021-08-19 22:09:28.188,-0.165,0.205
2021-08-19 22:09:28.192,-0.175,0.19
2021-08-19 22:09:28.196,-0.165,0.19
2021-08-19 22:09:28.200,-0.165,0.195
2021-08-19 22:09:28.204,-0.185,0.19
2021-08-19 22:09:28.208,-0.175,0.19
2021-08-19 22:09:28.212,-0.165,0.195
2021-08-19 22:09:28.216,-0.16,0.19
2021-08-19 22:09:28.220,-0.165,0.2
2021-08-19 22:09:28.224,-0.165,0.2
2021-08-19 22:09:28.228,-0.15,0.2
2021-08-19 22:09:28.232,-0.15,0.2
2021-08-19 22:09:28.236,-0.165,0.19
2021-08-19 22:09:28.240,-0.15,0.205
2021-08-19 22:09:28.244,-0.17,0.205
2021-08-19 22:09:28.248,-0.155,0.215
2021-08-19 22:09:28.252,-0.16,0.215
2021-08-19 22:09:28.256,-0.15,0.21
2021-08-19 22:09:28.260,-0.16,0.2
2021-08-19 22:09:28.264,-0.155,0.205
2021-08-19 22:09:28.268,-0.17,0.205
2021-08-19 22:09:28.272,-0.175,0.215
2021-08-19 22:09:28.276,-0.17,0.21
2021-08-19 22:09:28.280,-0.17,0.21
2021-08-19 22:09:28.284,-0.17,0.215
2021-08-19 22:09:28.288,-0.18,0.22
2021-08-19 22:09:28.292,-0.18,0.22
2021-08-19 22:09:28.296,-0.17,0.235
2021-08-19 22:09:28.300,-0.17,0.24
2021-08-19 22:09:28.304,-0.175,0.225
2021-08-19 22:09:28.308,-0.185,0.245
2021-08-19 22:09:28.312,-0.175,0.255
2021-08-19 22:09:28.316,-0.165,0.25
2021-08-19 22:09:28.320,-0.175,0.25
2021-08-19 22:09:28.324,-0.15,0.265
2021-08-19 22:09:28.328,-0.16,0.255
2021-08-19 22:09:28.332,-0.155,0.26
2021-08-19 22:09:28.336,-0.15,0.25
2021-08-19 22:09:28.340,-0.14,0.25
2021-08-19 22:09:28.344,-0.13,0.245
2021-08-19 22:09:28.348,-0.135,0.24
2021-08-19 22:09:28.352,-0.13,0.225
2021-08-19 22:09:28.356,-0.12,0.22
2021-08-19 22:09:28.360,-0.135,0.215
2021-08-19 22:09:28.364,-0.105,0.21
2021-08-19 22:09:28.368,-0.105,0.205
2021-08-19 22:09:28.372,-0.09,0.205
2021-08-19 22:09:28.376,-0.095,0.185
2021-08-19 22:09:28.380,-0.08,0.185
2021-08-19 22:09:28.384,-0.075,0.19
2021-08-19 22:09:28.388,-0.08,0.19
2021-08-19 22:09:28.392,-0.08,0.16
2021-08-19 22:09:28.396,-0.075,0.18
2021-08-19 22:09:28.400,-0.07,0.16
2021-08-19 22:09:28.404,-0.075,0.145
2021-08-19 22:09:28.408,-0.07,0.155
2021-08-19 22:09:28.412,-0.08,0.145
2021-08-19 22:09:28.416,-0.07,0.14
2021-08-19 22:09:28.420,-0.085,0.15
2021-08-19 22:09:28.424,-0.08,0.135
2021-08-19 22:09:28.428,-0.085,0.15
2021-08-19 22:09:28.432,-0.085,0.13
2021-08-19 22:09:28.436,-0.08,0.135
2021-08-19 22:09:28.440,-0.08,0.13
2021-08-19 22:09:28.444,-0.09,0.135
2021-08-19 22:09:28.448,-0.105,0.135
2021-08-19 22:09:28.452,-0.1,0.135
2021-08-19 22:09:28.456,-0.085,0.13
2021-08-19 22:09:28.460,-0.1,0.135
2021-08-19 22:09:28.464,-0.09,0.13
2021-08-19 22:09:28.468,-0.09,0.13
2021-08-19 22:09:28.472,-0.1,0.14
2021-08-19 22:09:28.476,-0.1,0.145
2021-08-19 22:09:28.480,-0.085,0.15
2021-08-19 22:09:28.484,-0.08,0.15
2021-08-19 22:09:28.488,-0.08,0.135
2021-08-19 22:09:28.492,-0.09,0.145
2021-08-19 22:09:28.496,-0.085,0.145
2021-08-19 22:09:28.500,-0.095,0.155
2021-08-19 22:09:28.504,-0.08,0.16
2021-08-19 22:09:28.508,-0.085,0.145
2021-08-19 22:09:28.512,-0.08,0.165
2021-08-19 22:09:28.516,-0.08,0.15
2021-08-19 22:09:28.520,-0.07,0.165
2021-08-19 22:09:28.524,-0.075,0.16
2021-08-19 22:09:28.528,-0.075,0.16
2021-08-19 22:09:28.532,-0.085,0.155
2021-08-19 22:09:28.536,-0.08,0.155
2021-08-19 22:09:28.540,-0.08,0.16
2021-08-19 22:09:28.544,-0.08,0.165
2021-08-19 22:09:28.548,-0.065,0.165
2021-08-19 22:09:28.552,-0.065,0.155
2021-08-19 22:09:28.556,-0.07,0.16
2021-08-19 22:09:28.560,-0.07,0.15
2021-08-19 22:09:28.564,-0.07,0.16
2021-08-19 22:09:28.568,-0.085,0.175
2021-08-19 22:09:28.572,-0.08,0.16
2021-08-19 22:09:28.576,-0.08,0.155
2021-08-19 22:09:28.580,-0.065,0.16
2021-08-19 22:09:28.584,-0.08,0.15
2021-08-19 22:09:28.588,-0.075,0.155
2021-08-19 22:09:28.592,-0.08,0.145
2021-08-19 22:09:28.596,-0.075,0.17
2021-08-19 22:09:28.600,-0.07,0.17
2021-08-19 22:09:28.604,-0.08,0.16
2021-08-19 22:09:28.608,-0.065,0.165
2021-08-19 22:09:28.612,-0.06,0.175
2021-08-19 22:09:28.616,-0.075,0.165
2021-08-19 22:09:28.620,-0.075,0.165
2021-08-19 22:09:28.624,-0.085,0.17
2021-08-19 22:09:28.628,-0.08,0.16
2021-08-19 22:09:28.632,-0.075,0.165
2021-08-19 22:09:28.636,-0.085,0.155
2021-08-19 22:09:28.640,-0.09,0.155
2021-08-19 22:09:28.644,-0.08,0.165
2021-08-19 22:09:28.648,-0.1,0.145
2021-08-19 22:09:28.652,-0.09,0.135
2021-08-19 22:09:28.656,-0.095,0.135
2021-08-19 22:09:28.660,-0.095,0.145
2021-08-19 22:09:28.664,-0.095,0.13
2021-08-19 22:09:28.668,-0.1,0.13
2021-08-19 22:09:28.672,-0.09,0.13
2021-08-19 22:09:28.676,-0.105,0.12
2021-08-19 22:09:28.680,-0.11,0.1
2021-08-19 22:09:28.684,-0.1,0.12
2021-08-19 22:09:28.688,-0.105,0.125
2021-08-19 22:09:28.692,-0.105,0.115
2021-08-19 22:09:28.696,-0.105,0.11
2021-08-19 22:09:28.700,-0.11,0.115
2021-08-19 22:09:28.704,-0.105,0.11
2021-08-19 22:09:28.708,-0.1,0.12
2021-08-19 22:09:28.712,-0.095,0.14
2021-08-19 22:09:28.716,-0.095,0.13
2021-08-19 22:09:28.720,-0.105,0.13
2021-08-19 22:09:28.724,-0.095,0.135
2021-08-19 22:09:28.728,-0.095,0.125
2021-08-19 22:09:28.732,-0.075,0.13
2021-08-19 22:09:28.736,-0.08,0.14
2021-08-19 22:09:28.740,-0.075,0.14
2021-08-19 22:09:28.744,-0.075,0.12
2021-08-19 22:09:28.748,-0.08,0.13
2021-08-19 22:09:28.752,-0.085,0.135
2021-08-19 22:09:28.756,-0.07,0.135
2021-08-19 22:09:28.760,-0.07,0.135
2021-08-19 22:09:28.764,-0.07,0.135
2021-08-19 22:09:28.768,-0.065,0.13
2021-08-19 22:09:28.772,-0.07,0.135
2021-08-19 22:09:28.776,-0.075,0.13
2021-08-19 22:09:28.780,-0.06,0.16
2021-08-19 22:09:28.784,-0.07,0.13
2021-08-19 22:09:28.788,-0.06,0.14
2021-08-19 22:09:28.792,-0.065,0.155
2021-08-19 22:09:28.796,-0.07,0.155
2021-08-19 22:09:28.800,-0.08,0.16
2021-08-19 22:09:28.804,-0.075,0.16
2021-08-19 22:09:28.808,-0.085,0.145
2021-08-19 22:09:28.812,-0.075,0.145
2021-08-19 22:09:28.816,-0.085,0.13
2021-08-19 22:09:28.820,-0.08,0.145
2021-08-19 22:09:28.824,-0.08,0.14
2021-08-19 22:09:28.828,-0.03,0.165
2021-08-19 22:09:28.832,0.045,0.17
2021-08-19 22:09:28.836,0.21,0.18
2021-08-19 22:09:28.840,0.38,0.175
2021-08-19 22:09:28.844,0.52,0.165
2021-08-19 22:09:28.848,0.63,0.125
2021-08-19 22:09:28.852,0.725,0.08
2021-08-19 22:09:28.856,0.665,-0.005
2021-08-19 22:09:28.860,0.4,-0.115
2021-08-19 22:09:28.864,0.005,-0.205
2021-08-19 22:09:28.868,-0.315,-0.29
2021-08-19 22:09:28.872,-0.495,-0.33
2021-08-19 22:09:28.876,-0.5,-0.35
2021-08-19 22:09:28.880,-0.47,-0.3
2021-08-19 22:09:28.884,-0.38,-0.26
2021-08-19 22:09:28.888,-0.27,-0.155
2021-08-19 22:09:28.892,-0.175,-0.075
2021-08-19 22:09:28.896,-0.135,0.0
2021-08-19 22:09:28.900,-0.12,0.09
2021-08-19 22:09:28.904,-0.115,0.16
2021-08-19 22:09:28.908,-0.13,0.17
2021-08-19 22:09:28.912,-0.135,0.19
2021-08-19 22:09:28.916,-0.145,0.225
2021-08-19 22:09:28.920,-0.135,0.225
2021-08-19 22:09:28.924,-0.125,0.2
2021-08-19 22:09:28.928,-0.15,0.195
2021-08-19 22:09:28.932,-0.15,0.18
2021-08-19 22:09:28.936,-0.135,0.175
2021-08-19 22:09:28.940,-0.14,0.175
2021-08-19 22:09:28.944,-0.135,0.185
2021-08-19 22:09:28.948,-0.15,0.175
2021-08-19 22:09:28.952,-0.17,0.19
2021-08-19 22:09:28.956,-0.16,0.175
2021-08-19 22:09:28.960,-0.155,0.185
2021-08-19 22:09:28.964,-0.15,0.18
2021-08-19 22:09:28.968,-0.16,0.175
2021-08-19 22:09:28.972,-0.16,0.17
2021-08-19 22:09:28.976,-0.16,0.165
2021-08-19 22:09:28.980,-0.17,0.17
2021-08-19 22:09:28.984,-0.155,0.17
2021-08-19 22:09:28.988,-0.17,0.18
2021-08-19 22:09:28.992,-0.15,0.17
2021-08-19 22:09:28.996,-0.165,0.17
2021-08-19 22:09:29.000,-0.155,0.185
2021-08-19 22:09:29.004,-0.16,0.19
2021-08-19 22:09:29.008,-0.145,0.19
2021-08-19 22:09:29.012,-0.155,0.2
2021-08-19 22:09:29.016,-0.16,0.195
2021-08-19 22:09:29.020,-0.16,0.185
2021-08-19 22:09:29.024,-0.16,0.2
2021-08-19 22:09:29.028,-0.145,0.19
2021-08-19 22:09:29.032,-0.145,0.19
2021-08-19 22:09:29.036,-0.14,0.205
2021-08-19 22:09:29.040,-0.125,0.2
2021-08-19 22:09:29.044,-0.13,0.205
2021-08-19 22:09:29.048,-0.11,0.205
2021-08-19 22:09:29.052,-0.12,0.225
2021-08-19 22:09:29.056,-0.13,0.23
2021-08-19 22:09:29.060,-0.11,0.22
2021-08-19 22:09:29.064,-0.11,0.235
2021-08-19 22:09:29.068,-0.095,0.23
2021-08-19 22:09:29.072,-0.1,0.225
2021-08-19 22:09:29.076,-0.095,0.24
2021-08-19 22:09:29.080,-0.085,0.24
2021-08-19 22:09:29.084,-0.08,0.23
2021-08-19 22:09:29.088,-0.08,0.225
2021-08-19 22:09:29.092,-0.08,0.215
2021-08-19 22:09:29.096,-0.08,0.23
2021-08-19 22:09:29.100,-0.07,0.215
2021-08-19 22:09:29.104,-0.075,0.225
2021-08-19 22:09:29.108,-0.06,0.215
2021-08-19 22:09:29.112,-0.06,0.205
2021-08-19 22:09:29.116,-0.07,0.2
2021-08-19 22:09:29.120,-0.055,0.205
2021-08-19 22:09:29.124,-0.03,0.185
2021-08-19 22:09:29.128,-0.035,0.195
2021-08-19 22:09:29.132,-0.02,0.2
2021-08-19 22:09:29.136,-0.01,0.18
2021-08-19 22:09:29.140,-0.01,0.17
2021-08-19 22:09:29.144,0.0,0.18
2021-08-19 22:09:29.148,0.0,0.165
2021-08-19 22:09:29.152,0.0,0.16
2021-08-19 22:09:29.156,0.0,0.155
2021-08-19 22:09:29.160,-0.005,0.16
2021-08-19 22:09:29.164,0.0,0.15
2021-08-19 22:09:29.168,0.0,0.16
2021-08-19 22:09:29.172,0.0,0.155
2021-08-19 22:09:29.176,0.01,0.15
2021-08-19 22:09:29.180,-0.005,0.14
2021-08-19 22:09:29.184,0.0,0.15
2021-08-19 22:09:29.188,-0.01,0.14
2021-08-19 22:09:29.192,-0.025,0.145
2021-08-19 22:09:29.196,0.0,0.145
2021-08-19 22:09:29.200,-0.01,0.125
2021-08-19 22:09:29.204,-0.03,0.135
2021-08-19 22:09:29.208,-0.04,0.13
2021-08-19 22:09:29.212,-0.035,0.125
2021-08-19 22:09:29.216,-0.02,0.135
2021-08-19 22:09:29.220,-0.035,0.125
2021-08-19 22:09:29.224,-0.04,0.13
2021-08-19 22:09:29.228,-0.05,0.12
2021-08-19 22:09:29.232,-0.05,0.13
2021-08-19 22:09:29.236,-0.03,0.14
2021-08-19 22:09:29.240,-0.055,0.135
2021-08-19 22:09:29.244,-0.045,0.125
2021-08-19 22:09:29.248,-0.05,0.115
2021-08-19 22:09:29.252,-0.045,0.12
2021-08-19 22:09:29.256,-0.045,0.13
2021-08-19 22:09:29.260,-0.035,0.125
2021-08-19 22:09:29.264,-0.015,0.125
2021-08-19 22:09:29.268,-0.01,0.115
2021-08-19 22:09:29.272,-0.015,0.13
2021-08-19 22:09:29.276,-0.025,0.14
2021-08-19 22:09:29.280,-0.035,0.135
2021-08-19 22:09:29.284,-0.01,0.13
2021-08-19 22:09:29.288,-0.02,0.145
2021-08-19 22:09:29.292,-0.015,0.14
2021-08-19 22:09:29.296,-0.005,0.125
2021-08-19 22:09:29.300,-0.01,0.14
2021-08-19 22:09:29.304,-0.015,0.135
2021-08-19 22:09:29.308,-0.015,0.14
2021-08-19 22:09:29.312,-0.005,0.145
2021-08-19 22:09:29.316,-0.01,0.14
2021-08-19 22:09:29.320,-0.02,0.155
2021-08-19 22:09:29.324,-0.01,0.14
2021-08-19 22:09:29.328,-0.015,0.14
2021-08-19 22:09:29.332,-0.015,0.145
2021-08-19 22:09:29.336,-0.02,0.15
2021-08-19 22:09:29.340,-0.02,0.145
2021-08-19 22:09:29.344,-0.02,0.135
2021-08-19 22:09:29.348,-0.025,0.13
2021-08-19 22:09:29.352,-0.02,0.12
2021-08-19 22:09:29.356,-0.03,0.125
2021-08-19 22:09:29.360,-0.04,0.125
2021-08-19 22:09:29.364,-0.03,0.12
2021-08-19 22:09:29.368,-0.04,0.13
2021-08-19 22:09:29.372,-0.04,0.135
2021-08-19 22:09:29.376,-0.03,0.13
2021-08-19 22:09:29.380,-0.045,0.12
2021-08-19 22:09:29.384,-0.055,0.12
2021-08-19 22:09:29.388,-0.05,0.115
2021-08-19 22:09:29.392,-0.065,0.125
2021-08-19 22:09:29.396,-0.06,0.115
2021-08-19 22:09:29.400,-0.065,0.11
2021-08-19 22:09:29.404,-0.07,0.12
2021-08-19 22:09:29.408,-0.06,0.105
2021-08-19 22:09:29.412,-0.05,0.105
2021-08-19 22:09:29.416,-0.07,0.11
2021-08-19 22:09:29.420,-0.07,0.11
2021-08-19 22:09:29.424,-0.075,0.1
2021-08-19 22:09:29.428,-0.055,0.12
2021-08-19 22:09:29.432,-0.08,0.12
2021-08-19 22:09:29.436,-0.07,0.105
2021-08-19 22:09:29.440,-0.085,0.11
2021-08-19 22:09:29.444,-0.085,0.115
2021-08-19 22:09:29.448,-0.065,0.115
2021-08-19 22:09:29.452,-0.085,0.115
2021-08-19 22:09:29.456,-0.08,0.11
2021-08-19 22:09:29.460,-0.075,0.105
2021-08-19 22:09:29.464,-0.075,0.11
2021-08-19 22:09:29.468,-0.075,0.11
2021-08-19 22:09:29.472,-0.085,0.1
2021-08-19 22:09:29.476,-0.08,0.105
2021-08-19 22:09:29.480,-0.07,0.1
2021-08-19 22:09:29.484,-0.085,0.095
2021-08-19 22:09:29.488,-0.075,0.095
2021-08-19 22:09:29.492,-0.035,0.105
2021-08-19 22:09:29.496,0.05,0.125
2021-08-19 22:09:29.500,0.165,0.135
2021-08-19 22:09:29.504,0.325,0.135
2021-08-19 22:09:29.508,0.475,0.135
2021-08-19 22:09:29.512,0.605,0.12
2021-08-19 22:09:29.516,0.665,0.075
2021-08-19 22:09:29.520,0.645,0.045
2021-08-19 22:09:29.524,0.455,-0.045
2021-08-19 22:09:29.528,0.09,-0.14
2021-08-19 22:09:29.532,-0.295,-0.22
2021-08-19 22:09:29.536,-0.555,-0.285
2021-08-19 22:09:29.540,-0.61,-0.335
2021-08-19 22:09:29.544,-0.54,-0.32
2021-08-19 22:09:29.548,-0.465,-0.295
2021-08-19 22:09:29.552,-0.36,-0.195
2021-08-19 22:09:29.556,-0.245,-0.1
2021-08-19 22:09:29.560,-0.165,-0.015
2021-08-19 22:09:29.564,-0.13,0.04
2021-08-19 22:09:29.568,-0.105,0.095
2021-08-19 22:09:29.572,-0.13,0.115
2021-08-19 22:09:29.576,-0.12,0.15
2021-08-19 22:09:29.580,-0.135,0.15
2021-08-19 22:09:29.584,-0.13,0.175
2021-08-19 22:09:29.588,-0.12,0.155
2021-08-19 22:09:29.592,-0.115,0.15
2021-08-19 22:09:29.596,-0.14,0.14
2021-08-19 22:09:29.600,-0.135,0.16
2021-08-19 22:09:29.604,-0.145,0.15
2021-08-19 22:09:29.608,-0.13,0.145
2021-08-19 22:09:29.612,-0.15,0.125
2021-08-19 22:09:29.616,-0.155,0.14
2021-08-19 22:09:29.620,-0.15,0.14
2021-08-19 22:09:29.624,-0.16,0.145
2021-08-19 22:09:29.628,-0.155,0.13
2021-08-19 22:09:29.632,-0.145,0.13
2021-08-19 22:09:29.636,-0.165,0.145
2021-08-19 22:09:29.640,-0.15,0.145
2021-08-19 22:09:29.644,-0.14,0.145
2021-08-19 22:09:29.648,-0.145,0.135
2021-08-19 22:09:29.652,-0.145,0.13
2021-08-19 22:09:29.656,-0.15,0.145
2021-08-19 22:09:29.660,-0.165,0.135
2021-08-19 22:09:29.664,-0.155,0.14
2021-08-19 22:09:29.668,-0.155,0.14
2021-08-19 22:09:29.672,-0.16,0.13
2021-08-19 22:09:29.676,-0.16,0.15
2021-08-19 22:09:29.680,-0.16,0.16
2021-08-19 22:09:29.684,-0.175,0.145
2021-08-19 22:09:29.688,-0.155,0.155
2021-08-19 22:09:29.692,-0.155,0.14
2021-08-19 22:09:29.696,-0.155,0.145
2021-08-19 22:09:29.700,-0.155,0.15
2021-08-19 22:09:29.704,-0.145,0.165
2021-08-19 22:09:29.708,-0.16,0.17
2021-08-19 22:09:29.712,-0.155,0.175
2021-08-19 22:09:29.716,-0.16,0.165
2021-08-19 22:09:29.720,-0.155,0.175
2021-08-19 22:09:29.724,-0.155,0.17
2021-08-19 22:09:29.728,-0.15,0.18
2021-08-19 22:09:29.732,-0.15,0.17
2021-08-19 22:09:29.736,-0.145,0.18
2021-08-19 22:09:29.740,-0.145,0.175
2021-08-19 22:09:29.744,-0.13,0.185
2021-08-19 22:09:29.748,-0.145,0.19
2021-08-19 22:09:29.752,-0.135,0.185
2021-08-19 22:09:29.756,-0.12,0.17
2021-08-19 22:09:29.760,-0.115,0.17
2021-08-19 22:09:29.764,-0.1,0.16
2021-08-19 22:09:29.768,-0.11,0.17
2021-08-19 22:09:29.772,-0.105,0.19
2021-08-19 22:09:29.776,-0.09,0.165
2021-08-19 22:09:29.780,-0.08,0.165
2021-08-19 22:09:29.784,-0.075,0.17
2021-08-19 22:09:29.788,-0.065,0.165
2021-08-19 22:09:29.792,-0.04,0.16
2021-08-19 22:09:29.796,-0.045,0.16
2021-08-19 22:09:29.800,-0.035,0.165
2021-08-19 22:09:29.804,-0.015,0.155
2021-08-19 22:09:29.808,-0.015,0.15
2021-08-19 22:09:29.812,0.0,0.15
2021-08-19 22:09:29.816,0.0,0.165
2021-08-19 22:09:29.820,-0.005,0.16
2021-08-19 22:09:29.824,-0.005,0.135
2021-08-19 22:09:29.828,-0.02,0.15
2021-08-19 22:09:29.832,-0.005,0.14
2021-08-19 22:09:29.836,-0.015,0.13
2021-08-19 22:09:29.840,-0.01,0.13
2021-08-19 22:09:29.844,-0.01,0.12
2021-08-19 22:09:29.848,-0.015,0.12
2021-08-19 22:09:29.852,-0.01,0.12
2021-08-19 22:09:29.856,-0.03,0.115
2021-08-19 22:09:29.860,-0.035,0.125
2021-08-19 22:09:29.864,-0.045,0.115
2021-08-19 22:09:29.868,-0.04,0.105
2021-08-19 22:09:29.872,-0.04,0.105
2021-08-19 22:09:29.876,-0.05,0.105
2021-08-19 22:09:29.880,-0.045,0.105
2021-08-19 22:09:29.884,-0.045,0.105
2021-08-19 22:09:29.888,-0.045,0.105
2021-08-19 22:09:29.892,-0.055,0.11
2021-08-19 22:09:29.896,-0.045,0.11
2021-08-19 22:09:29.900,-0.055,0.11
2021-08-19 22:09:29.904,-0.05,0.1
2021-08-19 22:09:29.908,-0.04,0.125
2021-08-19 22:09:29.912,-0.04,0.105
2021-08-19 22:09:29.916,-0.05,0.105
2021-08-19 22:09:29.920,-0.04,0.095
2021-08-19 22:09:29.924,-0.055,0.115
2021-08-19 22:09:29.928,-0.04,0.11
2021-08-19 22:09:29.932,-0.035,0.115
2021-08-19 22:09:29.936,-0.055,0.115
2021-08-19 22:09:29.940,-0.05,0.135
2021-08-19 22:09:29.944,-0.045,0.12
2021-08-19 22:09:29.948,-0.05,0.14
2021-08-19 22:09:29.952,-0.025,0.115
2021-08-19 22:09:29.956,-0.045,0.125
2021-08-19 22:09:29.960,-0.04,0.12
2021-08-19 22:09:29.964,-0.045,0.125
2021-08-19 22:09:29.968,-0.055,0.125
2021-08-19 22:09:29.972,-0.045,0.12
2021-08-19 22:09:29.976,-0.04,0.12
2021-08-19 22:09:29.980,-0.05,0.115
2021-08-19 22:09:29.984,-0.05,0.12
2021-08-19 22:09:29.988,-0.055,0.115
2021-08-19 22:09:29.992,-0.065,0.11
2021-08-19 22:09:29.996,-0.07,0.135
2021-08-19 22:09:30.000,-0.07,0.12
2021-08-19 22:09:30.004,-0.06,0.12
2021-08-19 22:09:30.008,-0.075,0.115
2021-08-19 22:09:30.012,-0.08,0.095
2021-08-19 22:09:30.016,-0.07,0.11
2021-08-19 22:09:30.020,-0.08,0.11
2021-08-19 22:09:30.024,-0.085,0.11
2021-08-19 22:09:30.028,-0.085,0.105
2021-08-19 22:09:30.032,-0.07,0.115
2021-08-19 22:09:30.036,-0.08,0.11
2021-08-19 22:09:30.040,-0.065,0.12
2021-08-19 22:09:30.044,-0.095,0.11
2021-08-19 22:09:30.048,-0.095,0.115
2021-08-19 22:09:30.052,-0.09,0.12
2021-08-19 22:09:30.056,-0.095,0.115
2021-08-19 22:09:30.060,-0.11,0.105
2021-08-19 22:09:30.064,-0.095,0.115
2021-08-19 22:09:30.068,-0.08,0.12
2021-08-19 22:09:30.072,-0.085,0.12
2021-08-19 22:09:30.076,-0.08,0.125
2021-08-19 22:09:30.080,-0.08,0.105
2021-08-19 22:09:30.084,-0.07,0.11
2021-08-19 22:09:30.088,-0.08,0.115
2021-08-19 22:09:30.092,-0.075,0.115
2021-08-19 22:09:30.096,-0.07,0.12
2021-08-19 22:09:30.100,-0.08,0.11
2021-08-19 22:09:30.104,-0.065,0.12
2021-08-19 22:09:30.108,-0.075,0.12
2021-08-19 22:09:30.112,-0.08,0.125
2021-08-19 22:09:30.116,-0.075,0.115
2021-08-19 22:09:30.120,-0.08,0.13
2021-08-19 22:09:30.124,-0.075,0.11
2021-08-19 22:09:30.128,-0.08,0.115
2021-08-19 22:09:30.132,-0.075,0.115
2021-08-19 22:09:30.136,-0.095,0.105
2021-08-19 22:09:30.140,-0.095,0.105
2021-08-19 22:09:30.144,-0.09,0.1
2021-08-19 22:09:30.148,-0.08,0.11
2021-08-19 22:09:30.152,-0.08,0.115
2021-08-19 22:09:30.156,-0.07,0.105
2021-08-19 22:09:30.160,-0.065,0.11
2021-08-19 22:09:30.164,-0.075,0.105
2021-08-19 22:09:30.168,-0.095,0.11
2021-08-19 22:09:30.172,-0.09,0.11
2021-08-19 22:09:30.176,-0.085,0.11
2021-08-19 22:09:30.180,-0.06,0.1
2021-08-19 22:09:30.184,-0.075,0.11
2021-08-19 22:09:30.188,-0.065,0.1
2021-08-19 22:09:30.192,-0.07,0.09
2021-08-19 22:09:30.196,-0.045,0.1
2021-08-19 22:09:30.200,-0.06,0.1
2021-08-19 22:09:30.204,-0.06,0.1
2021-08-19 22:09:30.208,-0.07,0.08
2021-08-19 22:09:30.212,-0.08,0.1
2021-08-19 22:09:30.216,-0.095,0.095
2021-08-19 22:09:30.220,-0.085,0.085
2021-08-19 22:09:30.224,-0.095,0.09
2021-08-19 22:09:30.228,-0.08,0.08
2021-08-19 22:09:30.232,-0.1,0.07
2021-08-19 22:09:30.236,-0.085,0.09
2021-08-19 22:09:30.240,-0.11,0.075
2021-08-19 22:09:30.244,-0.1,0.095
2021-08-19 22:09:30.248,-0.1,0.1
2021-08-19 22:09:30.252,-0.115,0.095
2021-08-19 22:09:30.256,-0.12,0.08
2021-08-19 22:09:30.260,-0.105,0.085
2021-08-19 22:09:30.264,-0.125,0.085
2021-08-19 22:09:30.268,-0.095,0.09
2021-08-19 22:09:30.272,-0.1,0.09
2021-08-19 22:09:30.276,-0.125,0.095
2021-08-19 22:09:30.280,-0.13,0.085
2021-08-19 22:09:30.284,-0.13,0.095
2021-08-19 22:09:30.288,-0.12,0.085
2021-08-19 22:09:30.292,-0.1,0.08
2021-08-19 22:09:30.296,-0.115,0.085
2021-08-19 22:09:30.300,-0.12,0.085
2021-08-19 22:09:30.304,-0.12,0.085
2021-08-19 22:09:30.308,-0.125,0.075
2021-08-19 22:09:30.312,-0.13,0.08
2021-08-19 22:09:30.316,-0.12,0.075
2021-08-19 22:09:30.320,-0.135,0.075
2021-08-19 22:09:30.324,-0.135,0.085
2021-08-19 22:09:30.328,-0.13,0.085
2021-08-19 22:09:30.332,-0.14,0.075
2021-08-19 22:09:30.336,-0.14,0.09
2021-08-19 22:09:30.340,-0.125,0.085
2021-08-19 22:09:30.344,-0.13,0.075
2021-08-19 22:09:30.348,-0.12,0.085
2021-08-19 22:09:30.352,-0.125,0.08
2021-08-19 22:09:30.356,-0.115,0.075
2021-08-19 22:09:30.360,-0.11,0.085
2021-08-19 22:09:30.364,-0.12,0.075
2021-08-19 22:09:30.368,-0.12,0.075
2021-08-19 22:09:30.372,-0.115,0.095
2021-08-19 22:09:30.376,-0.12,0.09
2021-08-19 22:09:30.380,-0.115,0.1
2021-08-19 22:09:30.384,-0.1,0.09
2021-08-19 22:09:30.388,-0.105,0.09
2021-08-19 22:09:30.392,-0.1,0.09
2021-08-19 22:09:30.396,-0.11,0.085
2021-08-19 22:09:30.400,-0.105,0.08
2021-08-19 22:09:30.404,-0.12,0.085
2021-08-19 22:09:30.408,-0.115,0.08
2021-08-19 22:09:30.412,-0.085,0.095
2021-08-19 22:09:30.416,-0.005,0.11
2021-08-19 22:09:30.420,0.115,0.13
2021-08-19 22:09:30.424,0.28,0.13
2021-08-19 22:09:30.428,0.445,0.11
2021-08-19 22:09:30.432,0.61,0.075
2021-08-19 22:09:30.436,0.73,0.055
2021-08-19 22:09:30.440,0.725,-0.02
2021-08-19 22:09:30.444,0.54,-0.095
2021-08-19 22:09:30.448,0.2,-0.18
2021-08-19 22:09:30.452,-0.175,-0.255
2021-08-19 22:09:30.456,-0.44,-0.305
2021-08-19 22:09:30.460,-0.54,-0.34
2021-08-19 22:09:30.464,-0.53,-0.335
2021-08-19 22:09:30.468,-0.465,-0.275
2021-08-19 22:09:30.472,-0.345,-0.2
2021-08-19 22:09:30.476,-0.26,-0.13
2021-08-19 22:09:30.480,-0.235,-0.035
2021-08-19 22:09:30.484,-0.18,0.01
2021-08-19 22:09:30.488,-0.18,0.075
2021-08-19 22:09:30.492,-0.18,0.1
2021-08-19 22:09:30.496,-0.205,0.12
2021-08-19 22:09:30.500,-0.21,0.135
2021-08-19 22:09:30.504,-0.2,0.125
2021-08-19 22:09:30.508,-0.2,0.115
2021-08-19 22:09:30.512,-0.21,0.115
2021-08-19 22:09:30.516,-0.2,0.11
2021-08-19 22:09:30.520,-0.21,0.105
2021-08-19 22:09:30.524,-0.195,0.105
2021-08-19 22:09:30.528,-0.2,0.11
2021-08-19 22:09:30.532,-0.225,0.115
2021-08-19 22:09:30.536,-0.225,0.115
2021-08-19 22:09:30.540,-0.215,0.11
2021-08-19 22:09:30.544,-0.205,0.125
2021-08-19 22:09:30.548,-0.19,0.12
2021-08-19 22:09:30.552,-0.22,0.135
2021-08-19 22:09:30.556,-0.22,0.105
2021-08-19 22:09:30.560,-0.24,0.12
2021-08-19 22:09:30.564,-0.245,0.115
2021-08-19 22:09:30.568,-0.24,0.115
2021-08-19 22:09:30.572,-0.24,0.11
2021-08-19 22:09:30.576,-0.24,0.105
2021-08-19 22:09:30.580,-0.25,0.1
2021-08-19 22:09:30.584,-0.24,0.09
2021-08-19 22:09:30.588,-0.24,0.095
2021-08-19 22:09:30.592,-0.255,0.1
2021-08-19 22:09:30.596,-0.25,0.1
2021-08-19 22:09:30.600,-0.26,0.115
2021-08-19 22:09:30.604,-0.26,0.115
2021-08-19 22:09:30.608,-0.245,0.125
2021-08-19 22:09:30.612,-0.24,0.12
2021-08-19 22:09:30.616,-0.26,0.125
2021-08-19 22:09:30.620,-0.25,0.135
2021-08-19 22:09:30.624,-0.23,0.14
2021-08-19 22:09:30.628,-0.24,0.14
2021-08-19 22:09:30.632,-0.23,0.14
2021-08-19 22:09:30.636,-0.23,0.15
2021-08-19 22:09:30.640,-0.22,0.14
2021-08-19 22:09:30.644,-0.225,0.14
2021-08-19 22:09:30.648,-0.225,0.15
2021-08-19 22:09:30.652,-0.205,0.16
2021-08-19 22:09:30.656,-0.215,0.16
2021-08-19 22:09:30.660,-0.2,0.175
2021-08-19 22:09:30.664,-0.195,0.17
2021-08-19 22:09:30.668,-0.2,0.17
2021-08-19 22:09:30.672,-0.19,0.175
2021-08-19 22:09:30.676,-0.19,0.155
2021-08-19 22:09:30.680,-0.185,0.155
2021-08-19 22:09:30.684,-0.16,0.16
2021-08-19 22:09:30.688,-0.175,0.16
2021-08-19 22:09:30.692,-0.155,0.16
2021-08-19 22:09:30.696,-0.16,0.16
2021-08-19 22:09:30.700,-0.155,0.165
2021-08-19 22:09:30.704,-0.145,0.155
2021-08-19 22:09:30.708,-0.135,0.155
2021-08-19 22:09:30.712,-0.125,0.15
2021-08-19 22:09:30.716,-0.115,0.145
2021-08-19 22:09:30.720,-0.11,0.145
2021-08-19 22:09:30.724,-0.1,0.15
2021-08-19 22:09:30.728,-0.095,0.14
2021-08-19 22:09:30.732,-0.09,0.13
2021-08-19 22:09:30.736,-0.095,0.135
2021-08-19 22:09:30.740,-0.085,0.115
2021-08-19 22:09:30.744,-0.065,0.115
2021-08-19 22:09:30.748,-0.07,0.115
2021-08-19 22:09:30.752,-0.06,0.135
2021-08-19 22:09:30.756,-0.045,0.13
2021-08-19 22:09:30.760,-0.04,0.105
2021-08-19 22:09:30.764,-0.07,0.115
2021-08-19 22:09:30.768,-0.065,0.115
2021-08-19 22:09:30.772,-0.055,0.115
2021-08-19 22:09:30.776,-0.06,0.11
2021-08-19 22:09:30.780,-0.075,0.105
2021-08-19 22:09:30.784,-0.075,0.11
2021-08-19 22:09:30.788,-0.075,0.115
2021-08-19 22:09:30.792,-0.08,0.095
2021-08-19 22:09:30.796,-0.09,0.095
2021-08-19 22:09:30.800,-0.08,0.095
2021-08-19 22:09:30.804,-0.095,0.1
2021-08-19 22:09:30.808,-0.08,0.08
2021-08-19 22:09:30.812,-0.095,0.095
2021-08-19 22:09:30.816,-0.095,0.11
2021-08-19 22:09:30.820,-0.1,0.11
2021-08-19 22:09:30.824,-0.1,0.1
2021-08-19 22:09:30.828,-0.08,0.095
2021-08-19 22:09:30.832,-0.085,0.11
2021-08-19 22:09:30.836,-0.095,0.105
2021-08-19 22:09:30.840,-0.09,0.11
2021-08-19 22:09:30.844,-0.085,0.125
2021-08-19 22:09:30.848,-0.07,0.12
2021-08-19 22:09:30.852,-0.08,0.125
2021-08-19 22:09:30.856,-0.055,0.125
2021-08-19 22:09:30.860,-0.055,0.13
2021-08-19 22:09:30.864,-0.045,0.135
2021-08-19 22:09:30.868,-0.065,0.15
2021-08-19 22:09:30.872,-0.035,0.135
2021-08-19 22:09:30.876,-0.055,0.15
2021-08-19 22:09:30.880,-0.04,0.155
2021-08-19 22:09:30.884,-0.05,0.15
2021-08-19 22:09:30.888,-0.045,0.14
2021-08-19 22:09:30.892,-0.035,0.15
2021-08-19 22:09:30.896,-0.03,0.16
2021-08-19 22:09:30.900,-0.035,0.14
2021-08-19 22:09:30.904,-0.04,0.145
2021-08-19 22:09:30.908,-0.02,0.135
2021-08-19 22:09:30.912,-0.015,0.15
2021-08-19 22:09:30.916,-0.03,0.15
2021-08-19 22:09:30.920,-0.01,0.125
2021-08-19 22:09:30.924,-0.01,0.14
2021-08-19 22:09:30.928,-0.005,0.13
2021-08-19 22:09:30.932,-0.025,0.13
2021-08-19 22:09:30.936,-0.035,0.13
2021-08-19 22:09:30.940,-0.03,0.14
2021-08-19 22:09:30.944,0.04,0.14
2021-08-19 22:09:30.948,0.16,0.15
2021-08-19 22:09:30.952,0.35,0.17
2021-08-19 22:09:30.956,0.505,0.135
2021-08-19 22:09:30.960,0.655,0.12
2021-08-19 22:09:30.964,0.78,0.095
2021-08-19 22:09:30.968,0.845,0.025
2021-08-19 22:09:30.972,0.7,-0.06
2021-08-19 22:09:30.976,0.375,-0.185
2021-08-19 22:09:30.980,-0.08,-0.285
2021-08-19 22:09:30.984,-0.395,-0.36
2021-08-19 22:09:30.988,-0.485,-0.4
2021-08-19 22:09:30.992,-0.43,-0.385
2021-08-19 22:09:30.996,-0.35,-0.345
2021-08-19 22:09:31.000,-0.245,-0.26
2021-08-19 22:09:31.004,-0.17,-0.17
2021-08-19 22:09:31.008,-0.145,-0.06
2021-08-19 22:09:31.012,-0.14,0.015
2021-08-19 22:09:31.016,-0.155,0.11
2021-08-19 22:09:31.020,-0.16,0.155
2021-08-19 22:09:31.024,-0.165,0.175
2021-08-19 22:09:31.028,-0.155,0.155
2021-08-19 22:09:31.032,-0.15,0.155
2021-08-19 22:09:31.036,-0.16,0.14
2021-08-19 22:09:31.040,-0.165,0.14
2021-08-19 22:09:31.044,-0.175,0.14
2021-08-19 22:09:31.048,-0.175,0.13
2021-08-19 22:09:31.052,-0.175,0.125
2021-08-19 22:09:31.056,-0.185,0.125
2021-08-19 22:09:31.060,-0.185,0.125
2021-08-19 22:09:31.064,-0.18,0.12
2021-08-19 22:09:31.068,-0.19,0.135
2021-08-19 22:09:31.072,-0.18,0.135
2021-08-19 22:09:31.076,-0.185,0.14
2021-08-19 22:09:31.080,-0.18,0.155
2021-08-19 22:09:31.084,-0.19,0.13
2021-08-19 22:09:31.088,-0.2,0.13
2021-08-19 22:09:31.092,-0.185,0.15
2021-08-19 22:09:31.096,-0.195,0.14
2021-08-19 22:09:31.100,-0.2,0.16
2021-08-19 22:09:31.104,-0.205,0.15
2021-08-19 22:09:31.108,-0.195,0.155
2021-08-19 22:09:31.112,-0.185,0.135
2021-08-19 22:09:31.116,-0.18,0.145
2021-08-19 22:09:31.120,-0.19,0.155
2021-08-19 22:09:31.124,-0.17,0.155
2021-08-19 22:09:31.128,-0.17,0.15
2021-08-19 22:09:31.132,-0.175,0.165
2021-08-19 22:09:31.136,-0.175,0.175
2021-08-19 22:09:31.140,-0.175,0.185
2021-08-19 22:09:31.144,-0.165,0.185
2021-08-19 22:09:31.148,-0.175,0.195
2021-08-19 22:09:31.152,-0.16,0.2
2021-08-19 22:09:31.156,-0.145,0.21
2021-08-19 22:09:31.160,-0.145,0.215
2021-08-19 22:09:31.164,-0.13,0.215
2021-08-19 22:09:31.168,-0.115,0.215
2021-08-19 22:09:31.172,-0.115,0.21
2021-08-19 22:09:31.176,-0.1,0.22
2021-08-19 22:09:31.180,-0.1,0.22
2021-08-19 22:09:31.184,-0.1,0.23
2021-08-19 22:09:31.188,-0.1,0.245
2021-08-19 22:09:31.192,-0.085,0.23
2021-08-19 22:09:31.196,-0.08,0.235
2021-08-19 22:09:31.200,-0.085,0.23
2021-08-19 22:09:31.204,-0.075,0.215
2021-08-19 22:09:31.208,-0.07,0.215
2021-08-19 22:09:31.212,-0.045,0.215
2021-08-19 22:09:31.216,-0.04,0.2
2021-08-19 22:09:31.220,-0.04,0.2
2021-08-19 22:09:31.224,-0.02,0.2
2021-08-19 22:09:31.228,-0.025,0.17
2021-08-19 22:09:31.232,-0.015,0.16
2021-08-19 22:09:31.236,-0.03,0.155
2021-08-19 22:09:31.240,-0.025,0.155
2021-08-19 22:09:31.244,-0.01,0.165
2021-08-19 22:09:31.248,-0.02,0.135
2021-08-19 22:09:31.252,-0.02,0.135
2021-08-19 22:09:31.256,-0.01,0.14
2021-08-19 22:09:31.260,-0.015,0.13
2021-08-19 22:09:31.264,-0.02,0.13
2021-08-19 22:09:31.268,-0.025,0.135
2021-08-19 22:09:31.272,-0.02,0.115
2021-08-19 22:09:31.276,-0.035,0.115
2021-08-19 22:09:31.280,-0.03,0.115
2021-08-19 22:09:31.284,-0.035,0.105
2021-08-19 22:09:31.288,-0.04,0.1
2021-08-19 22:09:31.292,-0.045,0.1
2021-08-19 22:09:31.296,-0.07,0.12
2021-08-19 22:09:31.300,-0.07,0.125
2021-08-19 22:09:31.304,-0.065,0.105
2021-08-19 22:09:31.308,-0.07,0.105
2021-08-19 22:09:31.312,-0.08,0.11
2021-08-19 22:09:31.316,-0.085,0.095
2021-08-19 22:09:31.320,-0.07,0.085
2021-08-19 22:09:31.324,-0.085,0.1
2021-08-19 22:09:31.328,-0.095,0.1
2021-08-19 22:09:31.332,-0.11,0.105
2021-08-19 22:09:31.336,-0.095,0.095
2021-08-19 22:09:31.340,-0.1,0.095
2021-08-19 22:09:31.344,-0.08,0.095
2021-08-19 22:09:31.348,-0.1,0.1
2021-08-19 22:09:31.352,-0.1,0.085
2021-08-19 22:09:31.356,-0.095,0.1
2021-08-19 22:09:31.360,-0.09,0.09
2021-08-19 22:09:31.364,-0.1,0.1
2021-08-19 22:09:31.368,-0.09,0.1
2021-08-19 22:09:31.372,-0.085,0.105
2021-08-19 22:09:31.376,-0.09,0.085
2021-08-19 22:09:31.380,-0.095,0.085
2021-08-19 22:09:31.384,-0.095,0.095
2021-08-19 22:09:31.388,-0.09,0.095
2021-08-19 22:09:31.392,-0.08,0.1
2021-08-19 22:09:31.396,-0.08,0.1
2021-08-19 22:09:31.400,-0.08,0.1
2021-08-19 22:09:31.404,-0.08,0.095
2021-08-19 22:09:31.408,-0.085,0.11
2021-08-19 22:09:31.412,-0.085,0.11
2021-08-19 22:09:31.416,-0.07,0.12
2021-08-19 22:09:31.420,-0.08,0.115
2021-08-19 22:09:31.424,-0.075,0.12
2021-08-19 22:09:31.428,-0.095,0.095
2021-08-19 22:09:31.432,-0.08,0.1
2021-08-19 22:09:31.436,-0.08,0.105
2021-08-19 22:09:31.440,-0.085,0.1
2021-08-19 22:09:31.444,-0.08,0.12
2021-08-19 22:09:31.448,-0.08,0.115
2021-08-19 22:09:31.452,-0.075,0.1
2021-08-19 22:09:31.456,-0.08,0.11
2021-08-19 22:09:31.460,-0.075,0.115
2021-08-19 22:09:31.464,-0.075,0.11
2021-08-19 22:09:31.468,-0.065,0.11
2021-08-19 22:09:31.472,-0.08,0.11
2021-08-19 22:09:31.476,-0.08,0.11
2021-08-19 22:09:31.480,-0.075,0.115
2021-08-19 22:09:31.484,-0.08,0.105
2021-08-19 22:09:31.488,-0.09,0.11
2021-08-19 22:09:31.492,-0.08,0.09
2021-08-19 22:09:31.496,-0.085,0.115
2021-08-19 22:09:31.500,-0.075,0.11
2021-08-19 22:09:31.504,-0.09,0.105
2021-08-19 22:09:31.508,-0.085,0.095
2021-08-19 22:09:31.512,-0.09,0.095
2021-08-19 22:09:31.516,-0.09,0.11
2021-08-19 22:09:31.520,-0.085,0.095
2021-08-19 22:09:31.524,-0.09,0.095
2021-08-19 22:09:31.528,-0.1,0.105
2021-08-19 22:09:31.532,-0.09,0.105
2021-08-19 22:09:31.536,-0.11,0.095
2021-08-19 22:09:31.540,-0.095,0.1
2021-08-19 22:09:31.544,-0.09,0.105
2021-08-19 22:09:31.548,-0.095,0.11
2021-08-19 22:09:31.552,-0.1,0.1
2021-08-19 22:09:31.556,-0.09,0.095
2021-08-19 22:09:31.560,-0.11,0.1
2021-08-19 22:09:31.564,-0.095,0.09
2021-08-19 22:09:31.568,-0.105,0.1
2021-08-19 22:09:31.572,-0.1,0.08
2021-08-19 22:09:31.576,-0.1,0.085
2021-08-19 22:09:31.580,-0.095,0.09
2021-08-19 22:09:31.584,-0.11,0.09
2021-08-19 22:09:31.588,-0.11,0.085
2021-08-19 22:09:31.592,-0.1,0.09
2021-08-19 22:09:31.596,-0.115,0.09
2021-08-19 22:09:31.600,-0.115,0.09
2021-08-19 22:09:31.604,-0.115,0.08
2021-08-19 22:09:31.608,-0.12,0.085
2021-08-19 22:09:31.612,-0.11,0.08
2021-08-19 22:09:31.616,-0.115,0.065
2021-08-19 22:09:31.620,-0.125,0.085
2021-08-19 22:09:31.624,-0.135,0.08
2021-08-19 22:09:31.628,-0.14,0.08
2021-08-19 22:09:31.632,-0.15,0.065
2021-08-19 22:09:31.636,-0.15,0.08
2021-08-19 22:09:31.640,-0.135,0.075
2021-08-19 22:09:31.644,-0.12,0.07
2021-08-19 22:09:31.648,-0.12,0.07
2021-08-19 22:09:31.652,-0.125,0.08
2021-08-19 22:09:31.656,-0.135,0.07
2021-08-19 22:09:31.660,-0.125,0.08
2021-08-19 22:09:31.664,-0.125,0.075
2021-08-19 22:09:31.668,-0.125,0.085
2021-08-19 22:09:31.672,-0.12,0.075
2021-08-19 22:09:31.676,-0.14,0.08
2021-08-19 22:09:31.680,-0.125,0.08
2021-08-19 22:09:31.684,-0.115,0.085
2021-08-19 22:09:31.688,-0.12,0.08
2021-08-19 22:09:31.692,-0.1,0.065
2021-08-19 22:09:31.696,-0.12,0.065
2021-08-19 22:09:31.700,-0.1,0.07
2021-08-19 22:09:31.704,-0.11,0.08
2021-08-19 22:09:31.708,-0.095,0.075
2021-08-19 22:09:31.712,-0.095,0.07
2021-08-19 22:09:31.716,-0.08,0.08
2021-08-19 22:09:31.720,-0.1,0.085
2021-08-19 22:09:31.724,-0.09,0.085
2021-08-19 22:09:31.728,-0.095,0.09
2021-08-19 22:09:31.732,-0.09,0.08
2021-08-19 22:09:31.736,-0.105,0.09
2021-08-19 22:09:31.740,-0.095,0.09
2021-08-19 22:09:31.744,-0.07,0.08
2021-08-19 22:09:31.748,-0.005,0.105
2021-08-19 22:09:31.752,0.13,0.125
2021-08-19 22:09:31.756,0.305,0.13
2021-08-19 22:09:31.760,0.475,0.105
2021-08-19 22:09:31.764,0.605,0.07
2021-08-19 22:09:31.768,0.7,0.05
2021-08-19 22:09:31.772,0.69,-0.04
2021-08-19 22:09:31.776,0.465,-0.14
2021-08-19 22:09:31.780,0.105,-0.25
2021-08-19 22:09:31.784,-0.26,-0.315
2021-08-19 22:09:31.788,-0.47,-0.385
2021-08-19 22:09:31.792,-0.51,-0.415
2021-08-19 22:09:31.796,-0.475,-0.39
2021-08-19 22:09:31.800,-0.4,-0.31
2021-08-19 22:09:31.804,-0.315,-0.225
2021-08-19 22:09:31.808,-0.22,-0.16
2021-08-19 22:09:31.812,-0.17,-0.055
2021-08-19 22:09:31.816,-0.155,0.01
2021-08-19 22:09:31.820,-0.15,0.07
2021-08-19 22:09:31.824,-0.15,0.105
2021-08-19 22:09:31.828,-0.155,0.12
2021-08-19 22:09:31.832,-0.175,0.13
2021-08-19 22:09:31.836,-0.175,0.135
2021-08-19 22:09:31.840,-0.185,0.14
2021-08-19 22:09:31.844,-0.175,0.13
2021-08-19 22:09:31.848,-0.19,0.12
2021-08-19 22:09:31.852,-0.17,0.12
2021-08-19 22:09:31.856,-0.185,0.11
2021-08-19 22:09:31.860,-0.185,0.095
2021-08-19 22:09:31.864,-0.185,0.105
2021-08-19 22:09:31.868,-0.18,0.11
2021-08-19 22:09:31.872,-0.205,0.11
2021-08-19 22:09:31.876,-0.19,0.1
2021-08-19 22:09:31.880,-0.2,0.11
2021-08-19 22:09:31.884,-0.2,0.09
2021-08-19 22:09:31.888,-0.2,0.095
2021-08-19 22:09:31.892,-0.205,0.09
2021-08-19 22:09:31.896,-0.205,0.095
2021-08-19 22:09:31.900,-0.225,0.095
2021-08-19 22:09:31.904,-0.205,0.12
2021-08-19 22:09:31.908,-0.19,0.1
2021-08-19 22:09:31.912,-0.2,0.11
2021-08-19 22:09:31.916,-0.195,0.1
2021-08-19 22:09:31.920,-0.21,0.11
2021-08-19 22:09:31.924,-0.205,0.11
2021-08-19 22:09:31.928,-0.2,0.105
2021-08-19 22:09:31.932,-0.21,0.125
2021-08-19 22:09:31.936,-0.2,0.11
2021-08-19 22:09:31.940,-0.2,0.11
2021-08-19 22:09:31.944,-0.205,0.12
2021-08-19 22:09:31.948,-0.19,0.13
2021-08-19 22:09:31.952,-0.19,0.125
2021-08-19 22:09:31.956,-0.19,0.12
2021-08-19 22:09:31.960,-0.17,0.14
2021-08-19 22:09:31.964,-0.18,0.13
2021-08-19 22:09:31.968,-0.175,0.125
2021-08-19 22:09:31.972,-0.17,0.13
2021-08-19 22:09:31.976,-0.155,0.15
2021-08-19 22:09:31.980,-0.165,0.145
2021-08-19 22:09:31.984,-0.16,0.145
2021-08-19 22:09:31.988,-0.15,0.15
2021-08-19 22:09:31.992,-0.16,0.155
2021-08-19 22:09:31.996,-0.135,0.14
2021-08-19 22:09:32.000,-0.13,0.16
2021-08-19 22:09:32.004,-0.13,0.17
2021-08-19 22:09:32.008,-0.135,0.155
2021-08-19 22:09:32.012,-0.14,0.16
2021-08-19 22:09:32.016,-0.12,0.165
2021-08-19 22:09:32.020,-0.11,0.155
2021-08-19 22:09:32.024,-0.11,0.155
2021-08-19 22:09:32.028,-0.11,0.145
2021-08-19 22:09:32.032,-0.095,0.145
2021-08-19 22:09:32.036,-0.095,0.14
2021-08-19 22:09:32.040,-0.09,0.14
2021-08-19 22:09:32.044,-0.08,0.135
2021-08-19 22:09:32.048,-0.07,0.135
2021-08-19 22:09:32.052,-0.065,0.115
2021-08-19 22:09:32.056,-0.055,0.13
2021-08-19 22:09:32.060,-0.05,0.115
2021-08-19 22:09:32.064,-0.04,0.13
2021-08-19 22:09:32.068,-0.025,0.12
2021-08-19 22:09:32.072,-0.03,0.105
2021-08-19 22:09:32.076,-0.025,0.09
2021-08-19 22:09:32.080,-0.035,0.115
2021-08-19 22:09:32.084,-0.015,0.095
2021-08-19 22:09:32.088,-0.02,0.095
2021-08-19 22:09:32.092,-0.03,0.09
2021-08-19 22:09:32.096,-0.015,0.075
2021-08-19 22:09:32.100,-0.02,0.09
2021-08-19 22:09:32.104,-0.03,0.08
2021-08-19 22:09:32.108,-0.035,0.08
2021-08-19 22:09:32.112,-0.05,0.08
2021-08-19 22:09:32.116,-0.05,0.09
2021-08-19 22:09:32.120,-0.065,0.09
2021-08-19 22:09:32.124,-0.05,0.07
2021-08-19 22:09:32.128,-0.065,0.07
2021-08-19 22:09:32.132,-0.065,0.07
2021-08-19 22:09:32.136,-0.08,0.065
2021-08-19 22:09:32.140,-0.09,0.06
2021-08-19 22:09:32.144,-0.085,0.06
2021-08-19 22:09:32.148,-0.085,0.06
2021-08-19 22:09:32.152,-0.09,0.065
2021-08-19 22:09:32.156,-0.085,0.07
2021-08-19 22:09:32.160,-0.09,0.05
2021-08-19 22:09:32.164,-0.095,0.06
2021-08-19 22:09:32.168,-0.085,0.075
2021-08-19 22:09:32.172,-0.09,0.06
2021-08-19 22:09:32.176,-0.09,0.075
2021-08-19 22:09:32.180,-0.06,0.07
2021-08-19 22:09:32.184,-0.04,0.075
2021-08-19 22:09:32.188,-0.01,0.075
2021-08-19 22:09:32.192,0.06,0.08
2021-08-19 22:09:32.196,0.145,0.115
2021-08-19 22:09:32.200,0.235,0.11
2021-08-19 22:09:32.204,0.295,0.11
2021-08-19 22:09:32.208,0.32,0.09
2021-08-19 22:09:32.212,0.28,0.085
2021-08-19 22:09:32.216,0.07,0.055
2021-08-19 22:09:32.220,-0.28,0.025
2021-08-19 22:09:32.224,-0.6,-0.04
2021-08-19 22:09:32.228,-0.715,-0.095
2021-08-19 22:09:32.232,-0.695,-0.09
2021-08-19 22:09:32.236,-0.59,-0.045
2021-08-19 22:09:32.240,-0.47,0.04
2021-08-19 22:09:32.244,-0.39,0.12
2021-08-19 22:09:32.248,-0.325,0.195
2021-08-19 22:09:32.252,-0.3,0.25
2021-08-19 22:09:32.256,-0.295,0.305
2021-08-19 22:09:32.260,-0.325,0.38
2021-08-19 22:09:32.264,-0.335,0.43
2021-08-19 22:09:32.268,-0.33,0.44
2021-08-19 22:09:32.272,-0.295,0.43
2021-08-19 22:09:32.276,-0.265,0.39
2021-08-19 22:09:32.280,-0.25,0.35
2021-08-19 22:09:32.284,-0.2,0.325
2021-08-19 22:09:32.288,-0.18,0.285
2021-08-19 22:09:32.292,-0.14,0.23
2021-08-19 22:09:32.296,-0.12,0.185
2021-08-19 22:09:32.300,-0.135,0.11
2021-08-19 22:09:32.304,-0.11,0.08
2021-08-19 22:09:32.308,-0.115,0.07
2021-08-19 22:09:32.312,-0.1,0.025
2021-08-19 22:09:32.316,-0.125,0.015
2021-08-19 22:09:32.320,-0.12,0.01
2021-08-19 22:09:32.324,-0.11,0.0
2021-08-19 22:09:32.328,-0.11,0.0
2021-08-19 22:09:32.332,-0.13,0.0
2021-08-19 22:09:32.336,-0.125,0.01
2021-08-19 22:09:32.340,-0.13,0.005
2021-08-19 22:09:32.344,-0.125,0.0
2021-08-19 22:09:32.348,-0.13,0.005
2021-08-19 22:09:32.352,-0.12,0.015
2021-08-19 22:09:32.356,-0.125,0.01
2021-08-19 22:09:32.360,-0.115,0.01
2021-08-19 22:09:32.364,-0.1,0.01
2021-08-19 22:09:32.368,-0.11,0.01
2021-08-19 22:09:32.372,-0.11,0.015
2021-08-19 22:09:32.376,-0.1,0.005
2021-08-19 22:09:32.380,-0.095,0.015
2021-08-19 22:09:32.384,-0.095,0.005
2021-08-19 22:09:32.388,-0.09,0.005
2021-08-19 22:09:32.392,-0.07,-0.005
2021-08-19 22:09:32.396,-0.08,-0.005
2021-08-19 22:09:32.400,-0.065,-0.01
2021-08-19 22:09:32.404,-0.065,0.0
2021-08-19 22:09:32.408,-0.05,-0.01
2021-08-19 22:09:32.412,-0.045,-0.02
2021-08-19 22:09:32.416,-0.055,-0.03
2021-08-19 22:09:32.420,-0.055,-0.025
2021-08-19 22:09:32.424,-0.03,-0.04
2021-08-19 22:09:32.428,-0.03,-0.05
2021-08-19 22:09:32.432,-0.035,-0.06
2021-08-19 22:09:32.436,-0.015,-0.075
2021-08-19 22:09:32.440,-0.02,-0.055
2021-08-19 22:09:32.444,-0.025,-0.055
2021-08-19 22:09:32.448,0.0,-0.055
2021-08-19 22:09:32.452,0.0,-0.07
2021-08-19 22:09:32.456,0.01,-0.07
2021-08-19 22:09:32.460,0.005,-0.07
2021-08-19 22:09:32.464,0.0,-0.06
2021-08-19 22:09:32.468,0.01,-0.065
2021-08-19 22:09:32.472,0.01,-0.06
2021-08-19 22:09:32.476,0.005,-0.05
2021-08-19 22:09:32.480,0.015,-0.065
2021-08-19 22:09:32.484,0.0,-0.055
2021-08-19 22:09:32.488,0.005,-0.065
2021-08-19 22:09:32.492,0.015,-0.05
2021-08-19 22:09:32.496,0.005,-0.05
2021-08-19 22:09:32.500,0.01,-0.055
2021-08-19 22:09:32.504,0.005,-0.045
2021-08-19 22:09:32.508,0.005,-0.05
2021-08-19 22:09:32.512,0.0,-0.03
2021-08-19 22:09:32.516,-0.005,-0.02
2021-08-19 22:09:32.520,-0.02,-0.015
2021-08-19 22:09:32.524,-0.02,-0.01
2021-08-19 22:09:32.528,-0.02,0.0
2021-08-19 22:09:32.532,-0.02,0.005
2021-08-19 22:09:32.536,-0.01,-0.01
2021-08-19 22:09:32.540,-0.03,0.02
2021-08-19 22:09:32.544,-0.025,0.02
2021-08-19 22:09:32.548,-0.035,0.025
2021-08-19 22:09:32.552,-0.03,0.045
2021-08-19 22:09:32.556,-0.035,0.035
2021-08-19 22:09:32.560,-0.03,0.04
2021-08-19 22:09:32.564,-0.04,0.025
2021-08-19 22:09:32.568,-0.05,0.045
2021-08-19 22:09:32.572,-0.045,0.045
2021-08-19 22:09:32.576,-0.04,0.04
2021-08-19 22:09:32.580,-0.05,0.045
2021-08-19 22:09:32.584,-0.055,0.06
2021-08-19 22:09:32.588,-0.045,0.065
2021-08-19 22:09:32.592,-0.03,0.055
2021-08-19 22:09:32.596,-0.035,0.055
2021-08-19 22:09:32.600,-0.05,0.055
2021-08-19 22:09:32.604,-0.055,0.05
2021-08-19 22:09:32.608,-0.06,0.06
2021-08-19 22:09:32.612,-0.04,0.05
2021-08-19 22:09:32.616,-0.035,0.07
2021-08-19 22:09:32.620,-0.045,0.065
2021-08-19 22:09:32.624,-0.06,0.055
2021-08-19 22:09:32.628,-0.05,0.065
2021-08-19 22:09:32.632,-0.05,0.08
2021-08-19 22:09:32.636,-0.045,0.08
2021-08-19 22:09:32.640,-0.075,0.06
2021-08-19 22:09:32.644,-0.075,0.08
2021-08-19 22:09:32.648,-0.075,0.07
2021-08-19 22:09:32.652,-0.095,0.06
2021-08-19 22:09:32.656,-0.105,0.05
2021-08-19 22:09:32.660,-0.095,0.05
2021-08-19 22:09:32.664,-0.09,0.045
2021-08-19 22:09:32.668,-0.1,0.06
2021-08-19 22:09:32.672,-0.095,0.05
2021-08-19 22:09:32.676,-0.095,0.07
2021-08-19 22:09:32.680,-0.095,0.065
2021-08-19 22:09:32.684,-0.12,0.08
2021-08-19 22:09:32.688,-0.115,0.045
2021-08-19 22:09:32.692,-0.12,0.05
2021-08-19 22:09:32.696,-0.12,0.06
2021-08-19 22:09:32.700,-0.13,0.05
2021-08-19 22:09:32.704,-0.135,0.055
2021-08-19 22:09:32.708,-0.145,0.055
2021-08-19 22:09:32.712,-0.14,0.05
2021-08-19 22:09:32.716,-0.14,0.05
2021-08-19 22:09:32.720,-0.16,0.06
2021-08-19 22:09:32.724,-0.155,0.06
2021-08-19 22:09:32.728,-0.15,0.045
2021-08-19 22:09:32.732,-0.155,0.04
2021-08-19 22:09:32.736,-0.16,0.055
2021-08-19 22:09:32.740,-0.155,0.045
2021-08-19 22:09:32.744,-0.15,0.045
2021-08-19 22:09:32.748,-0.15,0.045
2021-08-19 22:09:32.752,-0.14,0.03
2021-08-19 22:09:32.756,-0.15,0.05
2021-08-19 22:09:32.760,-0.165,0.035
2021-08-19 22:09:32.764,-0.16,0.035
2021-08-19 22:09:32.768,-0.15,0.045
2021-08-19 22:09:32.772,-0.165,0.04
2021-08-19 22:09:32.776,-0.16,0.05
2021-08-19 22:09:32.780,-0.155,0.055
2021-08-19 22:09:32.784,-0.15,0.035
2021-08-19 22:09:32.788,-0.15,0.05
2021-08-19 22:09:32.792,-0.135,0.05
2021-08-19 22:09:32.796,-0.14,0.05
2021-08-19 22:09:32.800,-0.135,0.045
2021-08-19 22:09:32.804,-0.14,0.05
2021-08-19 22:09:32.808,-0.135,0.045
2021-08-19 22:09:32.812,-0.15,0.06
2021-08-19 22:09:32.816,-0.155,0.05
2021-08-19 22:09:32.820,-0.155,0.06
2021-08-19 22:09:32.824,-0.145,0.06
2021-08-19 22:09:32.828,-0.14,0.045
2021-08-19 22:09:32.832,-0.13,0.05
2021-08-19 22:09:32.836,-0.145,0.055
2021-08-19 22:09:32.840,-0.14,0.05
2021-08-19 22:09:32.844,-0.145,0.065
2021-08-19 22:09:32.848,-0.15,0.07
2021-08-19 22:09:32.852,-0.145,0.075
2021-08-19 22:09:32.856,-0.145,0.075
2021-08-19 22:09:32.860,-0.15,0.07
2021-08-19 22:09:32.864,-0.145,0.07
2021-08-19 22:09:32.868,-0.15,0.065
2021-08-19 22:09:32.872,-0.145,0.075
2021-08-19 22:09:32.876,-0.155,0.08
2021-08-19 22:09:32.880,-0.145,0.08
2021-08-19 22:09:32.884,-0.14,0.065
2021-08-19 22:09:32.888,-0.14,0.065
2021-08-19 22:09:32.892,-0.14,0.07
2021-08-19 22:09:32.896,-0.15,0.055
2021-08-19 22:09:32.900,-0.14,0.065
2021-08-19 22:09:32.904,-0.145,0.07
2021-08-19 22:09:32.908,-0.155,0.06
2021-08-19 22:09:32.912,-0.155,0.06
2021-08-19 22:09:32.916,-0.135,0.06
2021-08-19 22:09:32.920,-0.145,0.06
2021-08-19 22:09:32.924,-0.145,0.06
2021-08-19 22:09:32.928,-0.145,0.055
2021-08-19 22:09:32.932,-0.12,0.055
2021-08-19 22:09:32.936,-0.135,0.045
2021-08-19 22:09:32.940,-0.13,0.06
2021-08-19 22:09:32.944,-0.115,0.05
2021-08-19 22:09:32.948,-0.125,0.055
2021-08-19 22:09:32.952,-0.135,0.065
2021-08-19 22:09:32.956,-0.135,0.07
2021-08-19 22:09:32.960,-0.115,0.07
2021-08-19 22:09:32.964,-0.095,0.08
2021-08-19 22:09:32.968,-0.015,0.1
2021-08-19 22:09:32.972,0.13,0.115
2021-08-19 22:09:32.976,0.285,0.11
2021-08-19 22:09:32.980,0.45,0.09
2021-08-19 22:09:32.984,0.6,0.075
2021-08-19 22:09:32.988,0.715,0.035
2021-08-19 22:09:32.992,0.72,-0.04
2021-08-19 22:09:32.996,0.53,-0.12
2021-08-19 22:09:33.000,0.175,-0.21
2021-08-19 22:09:33.004,-0.18,-0.28
2021-08-19 22:09:33.008,-0.46,-0.33
2021-08-19 22:09:33.012,-0.54,-0.355
2021-08-19 22:09:33.016,-0.545,-0.35
2021-08-19 22:09:33.020,-0.5,-0.31
2021-08-19 22:09:33.024,-0.41,-0.245
2021-08-19 22:09:33.028,-0.315,-0.165
2021-08-19 22:09:33.032,-0.25,-0.105
2021-08-19 22:09:33.036,-0.235,-0.035
2021-08-19 22:09:33.040,-0.23,0.03
2021-08-19 22:09:33.044,-0.22,0.05
2021-08-19 22:09:33.048,-0.21,0.08
2021-08-19 22:09:33.052,-0.22,0.08
2021-08-19 22:09:33.056,-0.22,0.09
2021-08-19 22:09:33.060,-0.22,0.085
2021-08-19 22:09:33.064,-0.23,0.085
2021-08-19 22:09:33.068,-0.225,0.1
2021-08-19 22:09:33.072,-0.22,0.11
2021-08-19 22:09:33.076,-0.21,0.095
2021-08-19 22:09:33.080,-0.22,0.095
2021-08-19 22:09:33.084,-0.2,0.09
2021-08-19 22:09:33.088,-0.22,0.1
2021-08-19 22:09:33.092,-0.22,0.105
2021-08-19 22:09:33.096,-0.21,0.1
2021-08-19 22:09:33.100,-0.21,0.095
2021-08-19 22:09:33.104,-0.235,0.095
2021-08-19 22:09:33.108,-0.225,0.095
2021-08-19 22:09:33.112,-0.23,0.095
2021-08-19 22:09:33.116,-0.22,0.1
2021-08-19 22:09:33.120,-0.215,0.095
2021-08-19 22:09:33.124,-0.23,0.1
2021-08-19 22:09:33.128,-0.215,0.09
2021-08-19 22:09:33.132,-0.22,0.1
2021-08-19 22:09:33.136,-0.22,0.1
2021-08-19 22:09:33.140,-0.245,0.095
2021-08-19 22:09:33.144,-0.225,0.075
2021-08-19 22:09:33.148,-0.235,0.095
2021-08-19 22:09:33.152,-0.245,0.105
2021-08-19 22:09:33.156,-0.24,0.09
2021-08-19 22:09:33.160,-0.24,0.105
2021-08-19 22:09:33.164,-0.25,0.11
2021-08-19 22:09:33.168,-0.25,0.115
2021-08-19 22:09:33.172,-0.26,0.13
2021-08-19 22:09:33.176,-0.25,0.11
2021-08-19 22:09:33.180,-0.245,0.115
2021-08-19 22:09:33.184,-0.245,0.125
2021-08-19 22:09:33.188,-0.235,0.13
2021-08-19 22:09:33.192,-0.23,0.12
2021-08-19 22:09:33.196,-0.22,0.12
2021-08-19 22:09:33.200,-0.22,0.125
2021-08-19 22:09:33.204,-0.24,0.13
2021-08-19 22:09:33.208,-0.22,0.12
2021-08-19 22:09:33.212,-0.22,0.12
2021-08-19 22:09:33.216,-0.22,0.13
2021-08-19 22:09:33.220,-0.22,0.12
2021-08-19 22:09:33.224,-0.215,0.135
2021-08-19 22:09:33.228,-0.205,0.125
2021-08-19 22:09:33.232,-0.2,0.12
2021-08-19 22:09:33.236,-0.195,0.11
2021-08-19 22:09:33.240,-0.185,0.105
2021-08-19 22:09:33.244,-0.175,0.115
2021-08-19 22:09:33.248,-0.15,0.115
2021-08-19 22:09:33.252,-0.16,0.105
2021-08-19 22:09:33.256,-0.16,0.085
2021-08-19 22:09:33.260,-0.155,0.09
2021-08-19 22:09:33.264,-0.15,0.09
2021-08-19 22:09:33.268,-0.14,0.095
2021-08-19 22:09:33.272,-0.115,0.09
2021-08-19 22:09:33.276,-0.1,0.09
2021-08-19 22:09:33.280,-0.095,0.095
2021-08-19 22:09:33.284,-0.09,0.085
2021-08-19 22:09:33.288,-0.095,0.08
2021-08-19 22:09:33.292,-0.09,0.075
2021-08-19 22:09:33.296,-0.075,0.07
2021-08-19 22:09:33.300,-0.085,0.065
2021-08-19 22:09:33.304,-0.07,0.075
2021-08-19 22:09:33.308,-0.055,0.065
2021-08-19 22:09:33.312,-0.07,0.07
2021-08-19 22:09:33.316,-0.055,0.06
2021-08-19 22:09:33.320,-0.045,0.06
2021-08-19 22:09:33.324,-0.03,0.045
2021-08-19 22:09:33.328,-0.04,0.06
2021-08-19 22:09:33.332,-0.025,0.04
2021-08-19 22:09:33.336,-0.045,0.04
2021-08-19 22:09:33.340,-0.05,0.03
2021-08-19 22:09:33.344,-0.035,0.035
2021-08-19 22:09:33.348,-0.045,0.05
2021-08-19 22:09:33.352,-0.055,0.05
2021-08-19 22:09:33.356,-0.05,0.05
2021-08-19 22:09:33.360,-0.045,0.06
2021-08-19 22:09:33.364,-0.055,0.035
2021-08-19 22:09:33.368,-0.07,0.055
2021-08-19 22:09:33.372,-0.075,0.045
2021-08-19 22:09:33.376,-0.075,0.04
2021-08-19 22:09:33.380,-0.065,0.04
2021-08-19 22:09:33.384,-0.075,0.05
2021-08-19 22:09:33.388,-0.09,0.035
2021-08-19 22:09:33.392,-0.11,0.045
2021-08-19 22:09:33.396,-0.095,0.035
2021-08-19 22:09:33.400,-0.09,0.045
2021-08-19 22:09:33.404,-0.1,0.05
2021-08-19 22:09:33.408,-0.09,0.05
2021-08-19 22:09:33.412,-0.085,0.05
2021-08-19 22:09:33.416,-0.1,0.06
2021-08-19 22:09:33.420,-0.09,0.055
2021-08-19 22:09:33.424,-0.08,0.05
2021-08-19 22:09:33.428,-0.09,0.055
2021-08-19 22:09:33.432,-0.095,0.055
2021-08-19 22:09:33.436,-0.09,0.05
2021-08-19 22:09:33.440,-0.08,0.055
2021-08-19 22:09:33.444,-0.08,0.05
2021-08-19 22:09:33.448,-0.07,0.055
2021-08-19 22:09:33.452,-0.06,0.05
2021-08-19 22:09:33.456,-0.07,0.07
2021-08-19 22:09:33.460,-0.055,0.065
2021-08-19 22:09:33.464,-0.06,0.07
2021-08-19 22:09:33.468,-0.065,0.065
2021-08-19 22:09:33.472,-0.07,0.06
2021-08-19 22:09:33.476,-0.08,0.055
2021-08-19 22:09:33.480,-0.1,0.06
2021-08-19 22:09:33.484,-0.06,0.06
2021-08-19 22:09:33.488,0.005,0.06
2021-08-19 22:09:33.492,0.12,0.055
2021-08-19 22:09:33.496,0.31,0.085
2021-08-19 22:09:33.500,0.47,0.06
2021-08-19 22:09:33.504,0.61,0.035
2021-08-19 22:09:33.508,0.73,-0.005
2021-08-19 22:09:33.512,0.8,-0.065
2021-08-19 22:09:33.516,0.695,-0.185
2021-08-19 22:09:33.520,0.43,-0.3
2021-08-19 22:09:33.524,-0.015,-0.405
2021-08-19 22:09:33.528,-0.4,-0.48
2021-08-19 22:09:33.532,-0.515,-0.495
2021-08-19 22:09:33.536,-0.48,-0.49
2021-08-19 22:09:33.540,-0.405,-0.45
2021-08-19 22:09:33.544,-0.325,-0.375
2021-08-19 22:09:33.548,-0.255,-0.285
2021-08-19 22:09:33.552,-0.215,-0.17
2021-08-19 22:09:33.556,-0.215,-0.075
2021-08-19 22:09:33.560,-0.21,0.02
2021-08-19 22:09:33.564,-0.225,0.075
2021-08-19 22:09:33.568,-0.23,0.095
2021-08-19 22:09:33.572,-0.23,0.075
2021-08-19 22:09:33.576,-0.23,0.085
2021-08-19 22:09:33.580,-0.24,0.075
2021-08-19 22:09:33.584,-0.23,0.065
2021-08-19 22:09:33.588,-0.23,0.06
2021-08-19 22:09:33.592,-0.23,0.065
2021-08-19 22:09:33.596,-0.21,0.055
2021-08-19 22:09:33.600,-0.205,0.055
2021-08-19 22:09:33.604,-0.2,0.055
2021-08-19 22:09:33.608,-0.215,0.055
2021-08-19 22:09:33.612,-0.22,0.05
2021-08-19 22:09:33.616,-0.205,0.07
2021-08-19 22:09:33.620,-0.195,0.06
2021-08-19 22:09:33.624,-0.21,0.075
2021-08-19 22:09:33.628,-0.205,0.07
2021-08-19 22:09:33.632,-0.205,0.055
2021-08-19 22:09:33.636,-0.185,0.08
2021-08-19 22:09:33.640,-0.185,0.065
2021-08-19 22:09:33.644,-0.185,0.06
2021-08-19 22:09:33.648,-0.18,0.075
2021-08-19 22:09:33.652,-0.18,0.07
2021-08-19 22:09:33.656,-0.185,0.085
2021-08-19 22:09:33.660,-0.195,0.095
2021-08-19 22:09:33.664,-0.2,0.105
2021-08-19 22:09:33.668,-0.205,0.11
2021-08-19 22:09:33.672,-0.19,0.11
2021-08-19 22:09:33.676,-0.185,0.12
2021-08-19 22:09:33.680,-0.19,0.115
2021-08-19 22:09:33.684,-0.19,0.12
2021-08-19 22:09:33.688,-0.185,0.145
2021-08-19 22:09:33.692,-0.195,0.15
2021-08-19 22:09:33.696,-0.18,0.135
2021-08-19 22:09:33.700,-0.18,0.145
2021-08-19 22:09:33.704,-0.18,0.145
2021-08-19 22:09:33.708,-0.18,0.135
2021-08-19 22:09:33.712,-0.18,0.15
2021-08-19 22:09:33.716,-0.17,0.165
2021-08-19 22:09:33.720,-0.17,0.15
2021-08-19 22:09:33.724,-0.17,0.15
2021-08-19 22:09:33.728,-0.175,0.16
2021-08-19 22:09:33.732,-0.17,0.155
2021-08-19 22:09:33.736,-0.15,0.145
2021-08-19 22:09:33.740,-0.145,0.135
2021-08-19 22:09:33.744,-0.135,0.145
2021-08-19 22:09:33.748,-0.14,0.13
2021-08-19 22:09:33.752,-0.135,0.13
2021-08-19 22:09:33.756,-0.13,0.125
2021-08-19 22:09:33.760,-0.11,0.115
2021-08-19 22:09:33.764,-0.1,0.095
2021-08-19 22:09:33.768,-0.095,0.11
2021-08-19 22:09:33.772,-0.105,0.1
2021-08-19 22:09:33.776,-0.09,0.105
2021-08-19 22:09:33.780,-0.08,0.09
2021-08-19 22:09:33.784,-0.08,0.095
2021-08-19 22:09:33.788,-0.075,0.085
2021-08-19 22:09:33.792,-0.08,0.08
2021-08-19 22:09:33.796,-0.08,0.09
2021-08-19 22:09:33.800,-0.065,0.08
2021-08-19 22:09:33.804,-0.085,0.075
2021-08-19 22:09:33.808,-0.09,0.08
2021-08-19 22:09:33.812,-0.09,0.055
2021-08-19 22:09:33.816,-0.08,0.055
2021-08-19 22:09:33.820,-0.105,0.055
2021-08-19 22:09:33.824,-0.085,0.045
2021-08-19 22:09:33.828,-0.11,0.055
2021-08-19 22:09:33.832,-0.11,0.045
2021-08-19 22:09:33.836,-0.105,0.05
2021-08-19 22:09:33.840,-0.105,0.045
2021-08-19 22:09:33.844,-0.11,0.045
2021-08-19 22:09:33.848,-0.095,0.035
2021-08-19 22:09:33.852,-0.105,0.035
2021-08-19 22:09:33.856,-0.09,0.05
2021-08-19 22:09:33.860,-0.1,0.035
2021-08-19 22:09:33.864,-0.095,0.045
2021-08-19 22:09:33.868,-0.08,0.05
2021-08-19 22:09:33.872,-0.095,0.05
2021-08-19 22:09:33.876,-0.095,0.05
2021-08-19 22:09:33.880,-0.075,0.035
2021-08-19 22:09:33.884,-0.095,0.035
2021-08-19 22:09:33.888,-0.075,0.06
2021-08-19 22:09:33.892,-0.08,0.075
2021-08-19 22:09:33.896,-0.06,0.07
2021-08-19 22:09:33.900,-0.07,0.06
2021-08-19 22:09:33.904,-0.065,0.075
2021-08-19 22:09:33.908,-0.075,0.06
2021-08-19 22:09:33.912,-0.06,0.055
2021-08-19 22:09:33.916,-0.05,0.065
2021-08-19 22:09:33.920,-0.045,0.06
2021-08-19 22:09:33.924,-0.055,0.06
2021-08-19 22:09:33.928,-0.04,0.07
2021-08-19 22:09:33.932,-0.035,0.06
2021-08-19 22:09:33.936,-0.04,0.06
2021-08-19 22:09:33.940,-0.045,0.065
2021-08-19 22:09:33.944,-0.065,0.08
2021-08-19 22:09:33.948,-0.085,0.08
2021-08-19 22:09:33.952,-0.045,0.095
2021-08-19 22:09:33.956,0.035,0.09
2021-08-19 22:09:33.960,0.175,0.105
2021-08-19 22:09:33.964,0.36,0.095
2021-08-19 22:09:33.968,0.52,0.06
2021-08-19 22:09:33.972,0.635,0.03
2021-08-19 22:09:33.976,0.705,-0.04
2021-08-19 22:09:33.980,0.62,-0.135
2021-08-19 22:09:33.984,0.335,-0.235
2021-08-19 22:09:33.988,-0.06,-0.34
2021-08-19 22:09:33.992,-0.41,-0.41
2021-08-19 22:09:33.996,-0.53,-0.46
2021-08-19 22:09:34.000,-0.505,-0.46
2021-08-19 22:09:34.004,-0.42,-0.42
2021-08-19 22:09:34.008,-0.315,-0.34
2021-08-19 22:09:34.012,-0.21,-0.27
2021-08-19 22:09:34.016,-0.18,-0.16
2021-08-19 22:09:34.020,-0.16,-0.06
2021-08-19 22:09:34.024,-0.17,0.02
2021-08-19 22:09:34.028,-0.165,0.08
2021-08-19 22:09:34.032,-0.18,0.11
2021-08-19 22:09:34.036,-0.19,0.1
2021-08-19 22:09:34.040,-0.2,0.105
2021-08-19 22:09:34.044,-0.195,0.11
2021-08-19 22:09:34.048,-0.19,0.095
2021-08-19 22:09:34.052,-0.19,0.1
2021-08-19 22:09:34.056,-0.195,0.085
2021-08-19 22:09:34.060,-0.2,0.085
2021-08-19 22:09:34.064,-0.21,0.08
2021-08-19 22:09:34.068,-0.215,0.08
2021-08-19 22:09:34.072,-0.24,0.09
2021-08-19 22:09:34.076,-0.23,0.085
2021-08-19 22:09:34.080,-0.23,0.1
2021-08-19 22:09:34.084,-0.235,0.09
2021-08-19 22:09:34.088,-0.24,0.08
2021-08-19 22:09:34.092,-0.24,0.065
2021-08-19 22:09:34.096,-0.255,0.075
2021-08-19 22:09:34.100,-0.255,0.09
2021-08-19 22:09:34.104,-0.245,0.09
2021-08-19 22:09:34.108,-0.26,0.075
2021-08-19 22:09:34.112,-0.255,0.095
2021-08-19 22:09:34.116,-0.24,0.09
2021-08-19 22:09:34.120,-0.25,0.08
2021-08-19 22:09:34.124,-0.245,0.09
2021-08-19 22:09:34.128,-0.26,0.075
2021-08-19 22:09:34.132,-0.26,0.09
2021-08-19 22:09:34.136,-0.245,0.08
2021-08-19 22:09:34.140,-0.24,0.09
2021-08-19 22:09:34.144,-0.235,0.09
2021-08-19 22:09:34.148,-0.22,0.095
2021-08-19 22:09:34.152,-0.22,0.11
2021-08-19 22:09:34.156,-0.21,0.13
2021-08-19 22:09:34.160,-0.22,0.13
2021-08-19 22:09:34.164,-0.225,0.14
2021-08-19 22:09:34.168,-0.225,0.135
2021-08-19 22:09:34.172,-0.19,0.14
2021-08-19 22:09:34.176,-0.18,0.13
2021-08-19 22:09:34.180,-0.19,0.15
2021-08-19 22:09:34.184,-0.18,0.16
2021-08-19 22:09:34.188,-0.15,0.145
2021-08-19 22:09:34.192,-0.145,0.145
2021-08-19 22:09:34.196,-0.14,0.16
2021-08-19 22:09:34.200,-0.135,0.125
2021-08-19 22:09:34.204,-0.115,0.135
2021-08-19 22:09:34.208,-0.115,0.135
2021-08-19 22:09:34.212,-0.11,0.13
2021-08-19 22:09:34.216,-0.095,0.11
2021-08-19 22:09:34.220,-0.08,0.115
2021-08-19 22:09:34.224,-0.075,0.11
2021-08-19 22:09:34.228,-0.07,0.115
2021-08-19 22:09:34.232,-0.035,0.105
2021-08-19 22:09:34.236,-0.025,0.095
2021-08-19 22:09:34.240,-0.02,0.09
2021-08-19 22:09:34.244,-0.005,0.08
2021-08-19 22:09:34.248,0.0,0.075
2021-08-19 22:09:34.252,0.005,0.085
2021-08-19 22:09:34.256,0.0,0.075
2021-08-19 22:09:34.260,-0.005,0.075
2021-08-19 22:09:34.264,-0.005,0.07
2021-08-19 22:09:34.268,-0.025,0.06
2021-08-19 22:09:34.272,-0.005,0.05
2021-08-19 22:09:34.276,-0.01,0.05
2021-08-19 22:09:34.280,-0.015,0.06
2021-08-19 22:09:34.284,-0.035,0.05
2021-08-19 22:09:34.288,-0.04,0.055
2021-08-19 22:09:34.292,-0.045,0.05
2021-08-19 22:09:34.296,-0.055,0.055
2021-08-19 22:09:34.300,-0.045,0.06
2021-08-19 22:09:34.304,-0.05,0.04
2021-08-19 22:09:34.308,-0.045,0.04
2021-08-19 22:09:34.312,-0.045,0.045
2021-08-19 22:09:34.316,-0.035,0.03
2021-08-19 22:09:34.320,-0.055,0.025
2021-08-19 22:09:34.324,-0.06,0.045
2021-08-19 22:09:34.328,-0.045,0.035
2021-08-19 22:09:34.332,-0.015,0.025
2021-08-19 22:09:34.336,0.035,0.04
2021-08-19 22:09:34.340,0.115,0.06
2021-08-19 22:09:34.344,0.22,0.075
2021-08-19 22:09:34.348,0.365,0.08
2021-08-19 22:09:34.352,0.48,0.07
2021-08-19 22:09:34.356,0.56,0.025
2021-08-19 22:09:34.360,0.5,-0.005
2021-08-19 22:09:34.364,0.27,-0.04
2021-08-19 22:09:34.368,-0.15,-0.125
2021-08-19 22:09:34.372,-0.56,-0.245
2021-08-19 22:09:34.376,-0.72,-0.345
2021-08-19 22:09:34.380,-0.695,-0.4
2021-08-19 22:09:34.384,-0.6,-0.39
2021-08-19 22:09:34.388,-0.495,-0.365
2021-08-19 22:09:34.392,-0.355,-0.25
2021-08-19 22:09:34.396,-0.26,-0.14
2021-08-19 22:09:34.400,-0.22,-0.055
2021-08-19 22:09:34.404,-0.205,0.025
2021-08-19 22:09:34.408,-0.205,0.05
2021-08-19 22:09:34.412,-0.19,0.055
2021-08-19 22:09:34.416,-0.215,0.045
2021-08-19 22:09:34.420,-0.225,0.06
2021-08-19 22:09:34.424,-0.215,0.05
2021-08-19 22:09:34.428,-0.215,0.055
2021-08-19 22:09:34.432,-0.23,0.045
2021-08-19 22:09:34.436,-0.21,0.05
2021-08-19 22:09:34.440,-0.23,0.03
2021-08-19 22:09:34.444,-0.22,0.035
2021-08-19 22:09:34.448,-0.21,0.045
2021-08-19 22:09:34.452,-0.215,0.03
2021-08-19 22:09:34.456,-0.22,0.04
2021-08-19 22:09:34.460,-0.205,0.05
2021-08-19 22:09:34.464,-0.225,0.045
2021-08-19 22:09:34.468,-0.205,0.06
2021-08-19 22:09:34.472,-0.215,0.05
2021-08-19 22:09:34.476,-0.2,0.06
2021-08-19 22:09:34.480,-0.2,0.065
2021-08-19 22:09:34.484,-0.2,0.065
2021-08-19 22:09:34.488,-0.22,0.055
2021-08-19 22:09:34.492,-0.205,0.055
2021-08-19 22:09:34.496,-0.195,0.075
2021-08-19 22:09:34.500,-0.205,0.065
2021-08-19 22:09:34.504,-0.205,0.085
2021-08-19 22:09:34.508,-0.21,0.07
2021-08-19 22:09:34.512,-0.205,0.075
2021-08-19 22:09:34.516,-0.19,0.075
2021-08-19 22:09:34.520,-0.2,0.09
2021-08-19 22:09:34.524,-0.18,0.085
2021-08-19 22:09:34.528,-0.175,0.09
2021-08-19 22:09:34.532,-0.165,0.095
2021-08-19 22:09:34.536,-0.17,0.085
2021-08-19 22:09:34.540,-0.165,0.095
2021-08-19 22:09:34.544,-0.16,0.075
2021-08-19 22:09:34.548,-0.155,0.09
2021-08-19 22:09:34.552,-0.15,0.075
2021-08-19 22:09:34.556,-0.135,0.07
2021-08-19 22:09:34.560,-0.12,0.07
2021-08-19 22:09:34.564,-0.125,0.07
2021-08-19 22:09:34.568,-0.11,0.06
2021-08-19 22:09:34.572,-0.105,0.065
2021-08-19 22:09:34.576,-0.09,0.06
2021-08-19 22:09:34.580,-0.07,0.07
2021-08-19 22:09:34.584,-0.07,0.05
2021-08-19 22:09:34.588,-0.06,0.045
2021-08-19 22:09:34.592,-0.075,0.04
2021-08-19 22:09:34.596,-0.055,0.045
2021-08-19 22:09:34.600,-0.055,0.045
2021-08-19 22:09:34.604,-0.035,0.05
2021-08-19 22:09:34.608,-0.02,0.04
2021-08-19 22:09:34.612,-0.02,0.03
2021-08-19 22:09:34.616,-0.025,0.035
2021-08-19 22:09:34.620,-0.015,0.05
2021-08-19 22:09:34.624,-0.01,0.04
2021-08-19 22:09:34.628,-0.025,0.045
2021-08-19 22:09:34.632,-0.03,0.045
2021-08-19 22:09:34.636,-0.03,0.05
2021-08-19 22:09:34.640,-0.04,0.04
2021-08-19 22:09:34.644,-0.045,0.04
2021-08-19 22:09:34.648,-0.05,0.045
2021-08-19 22:09:34.652,-0.065,0.04
2021-08-19 22:09:34.656,-0.06,0.025
2021-08-19 22:09:34.660,-0.055,0.035
2021-08-19 22:09:34.664,-0.07,0.04
2021-08-19 22:09:34.668,-0.085,0.035
2021-08-19 22:09:34.672,-0.085,0.05
2021-08-19 22:09:34.676,-0.075,0.03
2021-08-19 22:09:34.680,-0.105,0.03
2021-08-19 22:09:34.684,-0.105,0.03
2021-08-19 22:09:34.688,-0.09,0.035
2021-08-19 22:09:34.692,-0.085,0.035
2021-08-19 22:09:34.696,-0.095,0.035
2021-08-19 22:09:34.700,-0.09,0.045
2021-08-19 22:09:34.704,-0.1,0.05
2021-08-19 22:09:34.708,-0.08,0.05
2021-08-19 22:09:34.712,-0.095,0.06
2021-08-19 22:09:34.716,-0.1,0.06
2021-08-19 22:09:34.720,-0.09,0.06
2021-08-19 22:09:34.724,-0.075,0.045
2021-08-19 22:09:34.728,-0.085,0.045
2021-08-19 22:09:34.732,-0.09,0.055
2021-08-19 22:09:34.736,-0.07,0.055
2021-08-19 22:09:34.740,-0.08,0.075
2021-08-19 22:09:34.744,-0.09,0.055
2021-08-19 22:09:34.748,-0.095,0.055
2021-08-19 22:09:34.752,-0.09,0.05
2021-08-19 22:09:34.756,-0.08,0.06
2021-08-19 22:09:34.760,-0.085,0.07
2021-08-19 22:09:34.764,-0.08,0.06
2021-08-19 22:09:34.768,-0.085,0.06
2021-08-19 22:09:34.772,-0.09,0.045
2021-08-19 22:09:34.776,-0.1,0.05
2021-08-19 22:09:34.780,-0.105,0.035
2021-08-19 22:09:34.784,-0.11,0.05
2021-08-19 22:09:34.788,-0.11,0.045
2021-08-19 22:09:34.792,-0.1,0.055
2021-08-19 22:09:34.796,-0.09,0.035
2021-08-19 22:09:34.800,-0.115,0.055
2021-08-19 22:09:34.804,-0.12,0.06
2021-08-19 22:09:34.808,-0.125,0.06
2021-08-19 22:09:34.812,-0.1,0.05
2021-08-19 22:09:34.816,-0.115,0.065
2021-08-19 22:09:34.820,-0.115,0.04
2021-08-19 22:09:34.824,-0.105,0.05
2021-08-19 22:09:34.828,-0.115,0.05
2021-08-19 22:09:34.832,-0.125,0.045
2021-08-19 22:09:34.836,-0.105,0.045
2021-08-19 22:09:34.840,-0.11,0.05
2021-08-19 22:09:34.844,-0.125,0.05
2021-08-19 22:09:34.848,-0.115,0.035
2021-08-19 22:09:34.852,-0.115,0.055
2021-08-19 22:09:34.856,-0.11,0.035
2021-08-19 22:09:34.860,-0.12,0.03
2021-08-19 22:09:34.864,-0.115,0.035
2021-08-19 22:09:34.868,-0.115,0.045
2021-08-19 22:09:34.872,-0.115,0.045
2021-08-19 22:09:34.876,-0.135,0.04
2021-08-19 22:09:34.880,-0.12,0.04
2021-08-19 22:09:34.884,-0.115,0.045
2021-08-19 22:09:34.888,-0.12,0.045
2021-08-19 22:09:34.892,-0.125,0.04
2021-08-19 22:09:34.896,-0.14,0.045
2021-08-19 22:09:34.900,-0.135,0.04
2021-08-19 22:09:34.904,-0.145,0.035
2021-08-19 22:09:34.908,-0.145,0.04
2021-08-19 22:09:34.912,-0.145,0.045
2021-08-19 22:09:34.916,-0.155,0.03
2021-08-19 22:09:34.920,-0.155,0.04
2021-08-19 22:09:34.924,-0.135,0.04
2021-08-19 22:09:34.928,-0.155,0.04
2021-08-19 22:09:34.932,-0.145,0.04
2021-08-19 22:09:34.936,-0.14,0.035
2021-08-19 22:09:34.940,-0.16,0.045
2021-08-19 22:09:34.944,-0.155,0.05
2021-08-19 22:09:34.948,-0.17,0.03
2021-08-19 22:09:34.952,-0.145,0.035
2021-08-19 22:09:34.956,-0.14,0.035
2021-08-19 22:09:34.960,-0.145,0.035
2021-08-19 22:09:34.964,-0.14,0.04
2021-08-19 22:09:34.968,-0.145,0.045
2021-08-19 22:09:34.972,-0.14,0.045
2021-08-19 22:09:34.976,-0.135,0.045
2021-08-19 22:09:34.980,-0.145,0.05
2021-08-19 22:09:34.984,-0.12,0.045
2021-08-19 22:09:34.988,-0.13,0.05
2021-08-19 22:09:34.992,-0.135,0.05
2021-08-19 22:09:34.996,-0.135,0.04
2021-08-19 22:09:35.000,-0.14,0.045
2021-08-19 22:09:35.004,-0.13,0.04
2021-08-19 22:09:35.008,-0.145,0.04
2021-08-19 22:09:35.012,-0.15,0.045
2021-08-19 22:09:35.016,-0.14,0.04
2021-08-19 22:09:35.020,-0.13,0.04
2021-08-19 22:09:35.024,-0.14,0.025
2021-08-19 22:09:35.028,-0.15,0.02
2021-08-19 22:09:35.032,-0.135,0.04
2021-08-19 22:09:35.036,-0.125,0.05
2021-08-19 22:09:35.040,-0.11,0.035
2021-08-19 22:09:35.044,-0.135,0.04
2021-08-19 22:09:35.048,-0.125,0.03
2021-08-19 22:09:35.052,-0.145,0.03
2021-08-19 22:09:35.056,-0.135,0.045
2021-08-19 22:09:35.060,-0.13,0.045
2021-08-19 22:09:35.064,-0.135,0.035
2021-08-19 22:09:35.068,-0.135,0.055
2021-08-19 22:09:35.072,-0.125,0.03
2021-08-19 22:09:35.076,-0.145,0.035
2021-08-19 22:09:35.080,-0.13,0.035
2021-08-19 22:09:35.084,-0.13,0.035
2021-08-19 22:09:35.088,-0.135,0.04
2021-08-19 22:09:35.092,-0.135,0.03
2021-08-19 22:09:35.096,-0.125,0.04
2021-08-19 22:09:35.100,-0.13,0.04
2021-08-19 22:09:35.104,-0.15,0.04
2021-08-19 22:09:35.108,-0.145,0.05
2021-08-19 22:09:35.112,-0.14,0.04
2021-08-19 22:09:35.116,-0.145,0.035
2021-08-19 22:09:35.120,-0.12,0.045
2021-08-19 22:09:35.124,-0.125,0.035
2021-08-19 22:09:35.128,-0.13,0.045
2021-08-19 22:09:35.132,-0.14,0.05
2021-08-19 22:09:35.136,-0.15,0.035
2021-08-19 22:09:35.140,-0.14,0.05
2021-08-19 22:09:35.144,-0.145,0.04
2021-08-19 22:09:35.148,-0.155,0.045
2021-08-19 22:09:35.152,-0.145,0.04
2021-08-19 22:09:35.156,-0.15,0.025
2021-08-19 22:09:35.160,-0.14,0.045
2021-08-19 22:09:35.164,-0.145,0.05
2021-08-19 22:09:35.168,-0.15,0.05
2021-08-19 22:09:35.172,-0.16,0.035
2021-08-19 22:09:35.176,-0.155,0.035
2021-08-19 22:09:35.180,-0.17,0.025
2021-08-19 22:09:35.184,-0.165,0.025
2021-08-19 22:09:35.188,-0.185,0.02
2021-08-19 22:09:35.192,-0.175,0.035
2021-08-19 22:09:35.196,-0.2,0.045
2021-08-19 22:09:35.200,-0.195,0.045
2021-08-19 22:09:35.204,-0.195,0.03
2021-08-19 22:09:35.208,-0.18,0.035
2021-08-19 22:09:35.212,-0.175,0.045
2021-08-19 22:09:35.216,-0.18,0.04
2021-08-19 22:09:35.220,-0.205,0.035
2021-08-19 22:09:35.224,-0.195,0.02
2021-08-19 22:09:35.228,-0.18,0.015
2021-08-19 22:09:35.232,-0.18,0.02
2021-08-19 22:09:35.236,-0.16,0.02
2021-08-19 22:09:35.240,-0.16,0.025
2021-08-19 22:09:35.244,-0.16,0.01
2021-08-19 22:09:35.248,-0.16,0.04
2021-08-19 22:09:35.252,-0.165,0.04
2021-08-19 22:09:35.256,-0.135,0.04
2021-08-19 22:09:35.260,-0.15,0.03
2021-08-19 22:09:35.264,-0.13,0.025
2021-08-19 22:09:35.268,-0.1,0.025
2021-08-19 22:09:35.272,-0.025,0.045
2021-08-19 22:09:35.276,0.105,0.05
2021-08-19 22:09:35.280,0.27,0.07
2021-08-19 22:09:35.284,0.41,0.045
2021-08-19 22:09:35.288,0.53,0.025
2021-08-19 22:09:35.292,0.6,-0.02
2021-08-19 22:09:35.296,0.515,-0.08
2021-08-19 22:09:35.300,0.26,-0.145
2021-08-19 22:09:35.304,-0.12,-0.195
2021-08-19 22:09:35.308,-0.45,-0.25
2021-08-19 22:09:35.312,-0.6,-0.295
2021-08-19 22:09:35.316,-0.62,-0.32
2021-08-19 22:09:35.320,-0.575,-0.31
2021-08-19 22:09:35.324,-0.505,-0.24
2021-08-19 22:09:35.328,-0.395,-0.175
2021-08-19 22:09:35.332,-0.31,-0.095
2021-08-19 22:09:35.336,-0.26,-0.05
2021-08-19 22:09:35.340,-0.225,0.005
2021-08-19 22:09:35.344,-0.235,0.025
2021-08-19 22:09:35.348,-0.22,0.035
2021-08-19 22:09:35.352,-0.225,0.03
2021-08-19 22:09:35.356,-0.255,0.03
2021-08-19 22:09:35.360,-0.245,0.03
2021-08-19 22:09:35.364,-0.245,0.045
2021-08-19 22:09:35.368,-0.26,0.035
2021-08-19 22:09:35.372,-0.255,0.04
2021-08-19 22:09:35.376,-0.25,0.045
2021-08-19 22:09:35.380,-0.26,0.035
2021-08-19 22:09:35.384,-0.275,0.035
2021-08-19 22:09:35.388,-0.27,0.025
2021-08-19 22:09:35.392,-0.275,0.025
2021-08-19 22:09:35.396,-0.28,0.03
2021-08-19 22:09:35.400,-0.29,0.025
2021-08-19 22:09:35.404,-0.28,0.025
2021-08-19 22:09:35.408,-0.28,0.02
2021-08-19 22:09:35.412,-0.3,0.03
2021-08-19 22:09:35.416,-0.3,0.025
2021-08-19 22:09:35.420,-0.315,0.04
2021-08-19 22:09:35.424,-0.315,0.025
2021-08-19 22:09:35.428,-0.315,0.04
2021-08-19 22:09:35.432,-0.325,0.045
2021-08-19 22:09:35.436,-0.32,0.045
2021-08-19 22:09:35.440,-0.32,0.035
2021-08-19 22:09:35.444,-0.33,0.05
2021-08-19 22:09:35.448,-0.325,0.04
2021-08-19 22:09:35.452,-0.345,0.045
2021-08-19 22:09:35.456,-0.34,0.04
2021-08-19 22:09:35.460,-0.34,0.05
2021-08-19 22:09:35.464,-0.335,0.055
2021-08-19 22:09:35.468,-0.35,0.06
2021-08-19 22:09:35.472,-0.355,0.06
2021-08-19 22:09:35.476,-0.345,0.045
2021-08-19 22:09:35.480,-0.35,0.055
2021-08-19 22:09:35.484,-0.36,0.06
2021-08-19 22:09:35.488,-0.345,0.055
2021-08-19 22:09:35.492,-0.34,0.065
2021-08-19 22:09:35.496,-0.34,0.045
2021-08-19 22:09:35.500,-0.335,0.055
2021-08-19 22:09:35.504,-0.315,0.05
2021-08-19 22:09:35.508,-0.33,0.07
2021-08-19 22:09:35.512,-0.325,0.065
2021-08-19 22:09:35.516,-0.315,0.085
2021-08-19 22:09:35.520,-0.305,0.075
2021-08-19 22:09:35.524,-0.295,0.075
2021-08-19 22:09:35.528,-0.27,0.065
2021-08-19 22:09:35.532,-0.28,0.07
2021-08-19 22:09:35.536,-0.285,0.05
2021-08-19 22:09:35.540,-0.275,0.07
2021-08-19 22:09:35.544,-0.26,0.06
2021-08-19 22:09:35.548,-0.26,0.06
2021-08-19 22:09:35.552,-0.25,0.06
2021-08-19 22:09:35.556,-0.23,0.045
2021-08-19 22:09:35.560,-0.225,0.05
2021-08-19 22:09:35.564,-0.2,0.05
2021-08-19 22:09:35.568,-0.19,0.045
2021-08-19 22:09:35.572,-0.175,0.05
2021-08-19 22:09:35.576,-0.165,0.055
2021-08-19 22:09:35.580,-0.155,0.05
2021-08-19 22:09:35.584,-0.155,0.05
2021-08-19 22:09:35.588,-0.14,0.035
2021-08-19 22:09:35.592,-0.12,0.045
2021-08-19 22:09:35.596,-0.125,0.055
2021-08-19 22:09:35.600,-0.12,0.035
2021-08-19 22:09:35.604,-0.105,0.045
2021-08-19 22:09:35.608,-0.1,0.03
2021-08-19 22:09:35.612,-0.105,0.045
2021-08-19 22:09:35.616,-0.09,0.035
2021-08-19 22:09:35.620,-0.09,0.03
2021-08-19 22:09:35.624,-0.1,0.03
2021-08-19 22:09:35.628,-0.08,0.02
2021-08-19 22:09:35.632,-0.085,0.035
2021-08-19 22:09:35.636,-0.095,0.035
2021-08-19 22:09:35.640,-0.095,0.035
2021-08-19 22:09:35.644,-0.105,0.03
2021-08-19 22:09:35.648,-0.105,0.03
2021-08-19 22:09:35.652,-0.105,0.02
2021-08-19 22:09:35.656,-0.095,0.03
2021-08-19 22:09:35.660,-0.105,0.025
2021-08-19 22:09:35.664,-0.105,0.02
2021-08-19 22:09:35.668,-0.105,0.03
2021-08-19 22:09:35.672,-0.115,0.04
2021-08-19 22:09:35.676,-0.13,0.035
2021-08-19 22:09:35.680,-0.135,0.03
2021-08-19 22:09:35.684,-0.14,0.035
2021-08-19 22:09:35.688,-0.14,0.035
2021-08-19 22:09:35.692,-0.15,0.04
2021-08-19 22:09:35.696,-0.16,0.03
2021-08-19 22:09:35.700,-0.155,0.02
2021-08-19 22:09:35.704,-0.155,0.025
2021-08-19 22:09:35.708,-0.16,0.02
2021-08-19 22:09:35.712,-0.17,0.035
2021-08-19 22:09:35.716,-0.15,0.03
2021-08-19 22:09:35.720,-0.155,0.035
2021-08-19 22:09:35.724,-0.165,0.035
2021-08-19 22:09:35.728,-0.15,0.03
2021-08-19 22:09:35.732,-0.17,0.04
2021-08-19 22:09:35.736,-0.17,0.04
2021-08-19 22:09:35.740,-0.16,0.035
2021-08-19 22:09:35.744,-0.16,0.035
2021-08-19 22:09:35.748,-0.17,0.04
2021-08-19 22:09:35.752,-0.18,0.035
2021-08-19 22:09:35.756,-0.17,0.04
2021-08-19 22:09:35.760,-0.155,0.045
2021-08-19 22:09:35.764,-0.16,0.035
2021-08-19 22:09:35.768,-0.165,0.035
2021-08-19 22:09:35.772,-0.16,0.045
2021-08-19 22:09:35.776,-0.16,0.05
2021-08-19 22:09:35.780,-0.16,0.045
2021-08-19 22:09:35.784,-0.15,0.06
2021-08-19 22:09:35.788,-0.14,0.05
2021-08-19 22:09:35.792,-0.16,0.05
2021-08-19 22:09:35.796,-0.16,0.055
2021-08-19 22:09:35.800,-0.165,0.06
2021-08-19 22:09:35.804,-0.165,0.045
2021-08-19 22:09:35.808,-0.165,0.05
2021-08-19 22:09:35.812,-0.165,0.055
2021-08-19 22:09:35.816,-0.175,0.045
2021-08-19 22:09:35.820,-0.155,0.055
2021-08-19 22:09:35.824,-0.165,0.07
2021-08-19 22:09:35.828,-0.16,0.06
2021-08-19 22:09:35.832,-0.16,0.055
2021-08-19 22:09:35.836,-0.16,0.06
2021-08-19 22:09:35.840,-0.165,0.065
2021-08-19 22:09:35.844,-0.16,0.055
2021-08-19 22:09:35.848,-0.155,0.055
2021-08-19 22:09:35.852,-0.16,0.07
2021-08-19 22:09:35.856,-0.155,0.05
2021-08-19 22:09:35.860,-0.155,0.065
2021-08-19 22:09:35.864,-0.16,0.06
2021-08-19 22:09:35.868,-0.16,0.06
2021-08-19 22:09:35.872,-0.17,0.06
2021-08-19 22:09:35.876,-0.15,0.06
2021-08-19 22:09:35.880,-0.16,0.06
2021-08-19 22:09:35.884,-0.16,0.075
2021-08-19 22:09:35.888,-0.18,0.065
2021-08-19 22:09:35.892,-0.165,0.055
2021-08-19 22:09:35.896,-0.175,0.07
2021-08-19 22:09:35.900,-0.165,0.075
2021-08-19 22:09:35.904,-0.18,0.07
2021-08-19 22:09:35.908,-0.16,0.07
2021-08-19 22:09:35.912,-0.17,0.055
2021-08-19 22:09:35.916,-0.17,0.07
2021-08-19 22:09:35.920,-0.155,0.06
2021-08-19 22:09:35.924,-0.155,0.065
2021-08-19 22:09:35.928,-0.165,0.055
2021-08-19 22:09:35.932,-0.16,0.065
2021-08-19 22:09:35.936,-0.165,0.065
2021-08-19 22:09:35.940,-0.16,0.065
2021-08-19 22:09:35.944,-0.165,0.065
2021-08-19 22:09:35.948,-0.155,0.065
2021-08-19 22:09:35.952,-0.16,0.07
2021-08-19 22:09:35.956,-0.155,0.065
2021-08-19 22:09:35.960,-0.18,0.065
2021-08-19 22:09:35.964,-0.18,0.07
2021-08-19 22:09:35.968,-0.175,0.06
2021-08-19 22:09:35.972,-0.18,0.055
2021-08-19 22:09:35.976,-0.18,0.065
2021-08-19 22:09:35.980,-0.18,0.045
2021-08-19 22:09:35.984,-0.18,0.075
2021-08-19 22:09:35.988,-0.155,0.055
2021-08-19 22:09:35.992,-0.19,0.05
2021-08-19 22:09:35.996,-0.195,0.05
2021-08-19 22:09:36.000,-0.19,0.06
2021-08-19 22:09:36.004,-0.195,0.065
2021-08-19 22:09:36.008,-0.175,0.07
2021-08-19 22:09:36.012,-0.195,0.055
2021-08-19 22:09:36.016,-0.2,0.05
2021-08-19 22:09:36.020,-0.205,0.05
2021-08-19 22:09:36.024,-0.2,0.045
2021-08-19 22:09:36.028,-0.2,0.055
2021-08-19 22:09:36.032,-0.18,0.05
2021-08-19 22:09:36.036,-0.19,0.04
2021-08-19 22:09:36.040,-0.21,0.035
2021-08-19 22:09:36.044,-0.195,0.035
2021-08-19 22:09:36.048,-0.18,0.045
2021-08-19 22:09:36.052,-0.2,0.055
2021-08-19 22:09:36.056,-0.185,0.055
2021-08-19 22:09:36.060,-0.185,0.03
2021-08-19 22:09:36.064,-0.185,0.055
2021-08-19 22:09:36.068,-0.19,0.035
2021-08-19 22:09:36.072,-0.195,0.035
2021-08-19 22:09:36.076,-0.195,0.035
2021-08-19 22:09:36.080,-0.2,0.025
2021-08-19 22:09:36.084,-0.16,0.03
2021-08-19 22:09:36.088,-0.065,0.055
2021-08-19 22:09:36.092,0.08,0.06
2021-08-19 22:09:36.096,0.245,0.055
2021-08-19 22:09:36.100,0.42,0.045
2021-08-19 22:09:36.104,0.55,0.015
2021-08-19 22:09:36.108,0.655,-0.015
2021-08-19 22:09:36.112,0.635,-0.095
2021-08-19 22:09:36.116,0.43,-0.18
2021-08-19 22:09:36.120,0.075,-0.28
2021-08-19 22:09:36.124,-0.305,-0.34
2021-08-19 22:09:36.128,-0.555,-0.41
2021-08-19 22:09:36.132,-0.605,-0.45
2021-08-19 22:09:36.136,-0.575,-0.42
2021-08-19 22:09:36.140,-0.515,-0.39
2021-08-19 22:09:36.144,-0.405,-0.32
2021-08-19 22:09:36.148,-0.305,-0.21
2021-08-19 22:09:36.152,-0.265,-0.13
2021-08-19 22:09:36.156,-0.26,-0.04
2021-08-19 22:09:36.160,-0.24,0.02
2021-08-19 22:09:36.164,-0.24,0.06
2021-08-19 22:09:36.168,-0.26,0.08
2021-08-19 22:09:36.172,-0.255,0.085
2021-08-19 22:09:36.176,-0.245,0.075
2021-08-19 22:09:36.180,-0.24,0.07
2021-08-19 22:09:36.184,-0.255,0.07
2021-08-19 22:09:36.188,-0.27,0.055
2021-08-19 22:09:36.192,-0.265,0.075
2021-08-19 22:09:36.196,-0.275,0.075
2021-08-19 22:09:36.200,-0.275,0.06
2021-08-19 22:09:36.204,-0.275,0.07
2021-08-19 22:09:36.208,-0.285,0.06
2021-08-19 22:09:36.212,-0.28,0.06
2021-08-19 22:09:36.216,-0.28,0.075
2021-08-19 22:09:36.220,-0.29,0.07
2021-08-19 22:09:36.224,-0.265,0.075
2021-08-19 22:09:36.228,-0.28,0.065
2021-08-19 22:09:36.232,-0.295,0.06
2021-08-19 22:09:36.236,-0.31,0.065
2021-08-19 22:09:36.240,-0.305,0.065
2021-08-19 22:09:36.244,-0.305,0.06
2021-08-19 22:09:36.248,-0.32,0.085
2021-08-19 22:09:36.252,-0.32,0.095
2021-08-19 22:09:36.256,-0.33,0.1
2021-08-19 22:09:36.260,-0.32,0.085
2021-08-19 22:09:36.264,-0.335,0.095
2021-08-19 22:09:36.268,-0.32,0.075
2021-08-19 22:09:36.272,-0.34,0.08
2021-08-19 22:09:36.276,-0.32,0.085
2021-08-19 22:09:36.280,-0.32,0.095
2021-08-19 22:09:36.284,-0.32,0.1
2021-08-19 22:09:36.288,-0.335,0.115
2021-08-19 22:09:36.292,-0.34,0.105
2021-08-19 22:09:36.296,-0.33,0.09
2021-08-19 22:09:36.300,-0.335,0.11
2021-08-19 22:09:36.304,-0.33,0.12
2021-08-19 22:09:36.308,-0.315,0.115
2021-08-19 22:09:36.312,-0.315,0.125
2021-08-19 22:09:36.316,-0.3,0.14
2021-08-19 22:09:36.320,-0.305,0.135
2021-08-19 22:09:36.324,-0.305,0.145
2021-08-19 22:09:36.328,-0.295,0.15
2021-08-19 22:09:36.332,-0.285,0.135
2021-08-19 22:09:36.336,-0.275,0.14
2021-08-19 22:09:36.340,-0.26,0.145
2021-08-19 22:09:36.344,-0.26,0.14
2021-08-19 22:09:36.348,-0.255,0.13
2021-08-19 22:09:36.352,-0.245,0.12
2021-08-19 22:09:36.356,-0.24,0.13
2021-08-19 22:09:36.360,-0.235,0.125
2021-08-19 22:09:36.364,-0.23,0.13
2021-08-19 22:09:36.368,-0.225,0.11
2021-08-19 22:09:36.372,-0.21,0.105
2021-08-19 22:09:36.376,-0.19,0.11
2021-08-19 22:09:36.380,-0.18,0.105
2021-08-19 22:09:36.384,-0.16,0.11
2021-08-19 22:09:36.388,-0.15,0.095
2021-08-19 22:09:36.392,-0.16,0.085
2021-08-19 22:09:36.396,-0.14,0.08
2021-08-19 22:09:36.400,-0.145,0.075
2021-08-19 22:09:36.404,-0.145,0.075
2021-08-19 22:09:36.408,-0.105,0.065
2021-08-19 22:09:36.412,-0.11,0.065
2021-08-19 22:09:36.416,-0.11,0.065
2021-08-19 22:09:36.420,-0.105,0.06
2021-08-19 22:09:36.424,-0.09,0.055
2021-08-19 22:09:36.428,-0.115,0.055
2021-08-19 22:09:36.432,-0.115,0.05
2021-08-19 22:09:36.436,-0.135,0.04
2021-08-19 22:09:36.440,-0.115,0.03
2021-08-19 22:09:36.444,-0.13,0.035
2021-08-19 22:09:36.448,-0.14,0.035
2021-08-19 22:09:36.452,-0.13,0.035
2021-08-19 22:09:36.456,-0.145,0.03
2021-08-19 22:09:36.460,-0.145,0.03
2021-08-19 22:09:36.464,-0.15,0.03
2021-08-19 22:09:36.468,-0.155,0.035
2021-08-19 22:09:36.472,-0.16,0.05
2021-08-19 22:09:36.476,-0.15,0.035
2021-08-19 22:09:36.480,-0.15,0.03
2021-08-19 22:09:36.484,-0.165,0.025
2021-08-19 22:09:36.488,-0.15,0.04
2021-08-19 22:09:36.492,-0.165,0.035
2021-08-19 22:09:36.496,-0.17,0.04
2021-08-19 22:09:36.500,-0.17,0.04
2021-08-19 22:09:36.504,-0.18,0.035
2021-08-19 22:09:36.508,-0.17,0.04
2021-08-19 22:09:36.512,-0.18,0.035
2021-08-19 22:09:36.516,-0.18,0.045
2021-08-19 22:09:36.520,-0.185,0.065
2021-08-19 22:09:36.524,-0.18,0.035
2021-08-19 22:09:36.528,-0.185,0.055
2021-08-19 22:09:36.532,-0.18,0.06
2021-08-19 22:09:36.536,-0.2,0.065
2021-08-19 22:09:36.540,-0.2,0.055
2021-08-19 22:09:36.544,-0.21,0.055
2021-08-19 22:09:36.548,-0.195,0.065
2021-08-19 22:09:36.552,-0.19,0.055
2021-08-19 22:09:36.556,-0.185,0.045
2021-08-19 22:09:36.560,-0.2,0.04
2021-08-19 22:09:36.564,-0.195,0.05
2021-08-19 22:09:36.568,-0.195,0.055
2021-08-19 22:09:36.572,-0.19,0.05
2021-08-19 22:09:36.576,-0.195,0.065
2021-08-19 22:09:36.580,-0.19,0.07
2021-08-19 22:09:36.584,-0.18,0.055
2021-08-19 22:09:36.588,-0.185,0.065
2021-08-19 22:09:36.592,-0.185,0.065
2021-08-19 22:09:36.596,-0.185,0.06
2021-08-19 22:09:36.600,-0.18,0.06
2021-08-19 22:09:36.604,-0.195,0.06
2021-08-19 22:09:36.608,-0.18,0.065
2021-08-19 22:09:36.612,-0.19,0.055
2021-08-19 22:09:36.616,-0.18,0.055
2021-08-19 22:09:36.620,-0.195,0.05
2021-08-19 22:09:36.624,-0.185,0.05
2021-08-19 22:09:36.628,-0.195,0.045
2021-08-19 22:09:36.632,-0.195,0.06
2021-08-19 22:09:36.636,-0.18,0.055
2021-08-19 22:09:36.640,-0.19,0.065
2021-08-19 22:09:36.644,-0.19,0.045
2021-08-19 22:09:36.648,-0.19,0.045
2021-08-19 22:09:36.652,-0.19,0.045
2021-08-19 22:09:36.656,-0.17,0.045
2021-08-19 22:09:36.660,-0.18,0.045
2021-08-19 22:09:36.664,-0.185,0.045
2021-08-19 22:09:36.668,-0.18,0.05
2021-08-19 22:09:36.672,-0.175,0.045
2021-08-19 22:09:36.676,-0.185,0.05
2021-08-19 22:09:36.680,-0.175,0.06
2021-08-19 22:09:36.684,-0.185,0.055
2021-08-19 22:09:36.688,-0.175,0.05
2021-08-19 22:09:36.692,-0.18,0.055
2021-08-19 22:09:36.696,-0.16,0.045
2021-08-19 22:09:36.700,-0.17,0.05
2021-08-19 22:09:36.704,-0.17,0.05
2021-08-19 22:09:36.708,-0.165,0.06
2021-08-19 22:09:36.712,-0.165,0.05
2021-08-19 22:09:36.716,-0.175,0.055
2021-08-19 22:09:36.720,-0.17,0.06
2021-08-19 22:09:36.724,-0.17,0.055
2021-08-19 22:09:36.728,-0.165,0.05
2021-08-19 22:09:36.732,-0.175,0.07
2021-08-19 22:09:36.736,-0.165,0.055
2021-08-19 22:09:36.740,-0.165,0.065
2021-08-19 22:09:36.744,-0.165,0.065
2021-08-19 22:09:36.748,-0.18,0.065
2021-08-19 22:09:36.752,-0.17,0.055
2021-08-19 22:09:36.756,-0.185,0.055
2021-08-19 22:09:36.760,-0.19,0.05
2021-08-19 22:09:36.764,-0.185,0.065
2021-08-19 22:09:36.768,-0.195,0.065
2021-08-19 22:09:36.772,-0.2,0.06
2021-08-19 22:09:36.776,-0.2,0.055
2021-08-19 22:09:36.780,-0.21,0.055
2021-08-19 22:09:36.784,-0.17,0.055
2021-08-19 22:09:36.788,-0.08,0.06
2021-08-19 22:09:36.792,0.035,0.08
2021-08-19 22:09:36.796,0.19,0.075
2021-08-19 22:09:36.800,0.345,0.065
2021-08-19 22:09:36.804,0.46,0.02
2021-08-19 22:09:36.808,0.565,-0.02
2021-08-19 22:09:36.812,0.555,-0.08
2021-08-19 22:09:36.816,0.36,-0.17
2021-08-19 22:09:36.820,0.015,-0.285
2021-08-19 22:09:36.824,-0.385,-0.37
2021-08-19 22:09:36.828,-0.64,-0.435
2021-08-19 22:09:36.832,-0.705,-0.46
2021-08-19 22:09:36.836,-0.66,-0.455
2021-08-19 22:09:36.840,-0.565,-0.405
2021-08-19 22:09:36.844,-0.44,-0.315
2021-08-19 22:09:36.848,-0.36,-0.21
2021-08-19 22:09:36.852,-0.3,-0.115
2021-08-19 22:09:36.856,-0.285,-0.035
2021-08-19 22:09:36.860,-0.275,0.035
2021-08-19 22:09:36.864,-0.275,0.08
2021-08-19 22:09:36.868,-0.275,0.105
2021-08-19 22:09:36.872,-0.305,0.11
2021-08-19 22:09:36.876,-0.285,0.11
2021-08-19 22:09:36.880,-0.285,0.1
2021-08-19 22:09:36.884,-0.3,0.115
2021-08-19 22:09:36.888,-0.27,0.1
2021-08-19 22:09:36.892,-0.28,0.085
2021-08-19 22:09:36.896,-0.28,0.08
2021-08-19 22:09:36.900,-0.28,0.085
2021-08-19 22:09:36.904,-0.28,0.095
2021-08-19 22:09:36.908,-0.285,0.095
2021-08-19 22:09:36.912,-0.27,0.095
2021-08-19 22:09:36.916,-0.29,0.11
2021-08-19 22:09:36.920,-0.29,0.1
2021-08-19 22:09:36.924,-0.3,0.095
2021-08-19 22:09:36.928,-0.29,0.1
2021-08-19 22:09:36.932,-0.3,0.115
2021-08-19 22:09:36.936,-0.29,0.1
2021-08-19 22:09:36.940,-0.28,0.1
2021-08-19 22:09:36.944,-0.295,0.11
2021-08-19 22:09:36.948,-0.285,0.1
2021-08-19 22:09:36.952,-0.29,0.105
2021-08-19 22:09:36.956,-0.29,0.115
2021-08-19 22:09:36.960,-0.285,0.115
2021-08-19 22:09:36.964,-0.285,0.105
2021-08-19 22:09:36.968,-0.285,0.12
2021-08-19 22:09:36.972,-0.285,0.135
2021-08-19 22:09:36.976,-0.28,0.125
2021-08-19 22:09:36.980,-0.265,0.135
2021-08-19 22:09:36.984,-0.265,0.155
2021-08-19 22:09:36.988,-0.26,0.145
2021-08-19 22:09:36.992,-0.255,0.14
2021-08-19 22:09:36.996,-0.255,0.16
2021-08-19 22:09:37.000,-0.24,0.14
2021-08-19 22:09:37.004,-0.245,0.175
2021-08-19 22:09:37.008,-0.23,0.16
2021-08-19 22:09:37.012,-0.215,0.175
2021-08-19 22:09:37.016,-0.21,0.165
2021-08-19 22:09:37.020,-0.21,0.18
2021-08-19 22:09:37.024,-0.21,0.175
2021-08-19 22:09:37.028,-0.2,0.19
2021-08-19 22:09:37.032,-0.205,0.18
2021-08-19 22:09:37.036,-0.205,0.19
2021-08-19 22:09:37.040,-0.185,0.18
2021-08-19 22:09:37.044,-0.175,0.185
2021-08-19 22:09:37.048,-0.18,0.18
2021-08-19 22:09:37.052,-0.17,0.175
2021-08-19 22:09:37.056,-0.165,0.16
2021-08-19 22:09:37.060,-0.17,0.17
2021-08-19 22:09:37.064,-0.14,0.155
2021-08-19 22:09:37.068,-0.13,0.165
2021-08-19 22:09:37.072,-0.12,0.165
2021-08-19 22:09:37.076,-0.13,0.145
2021-08-19 22:09:37.080,-0.115,0.145
2021-08-19 22:09:37.084,-0.105,0.14
2021-08-19 22:09:37.088,-0.105,0.13
2021-08-19 22:09:37.092,-0.105,0.115
2021-08-19 22:09:37.096,-0.095,0.11
2021-08-19 22:09:37.100,-0.085,0.11
2021-08-19 22:09:37.104,-0.085,0.115
2021-08-19 22:09:37.108,-0.095,0.095
2021-08-19 22:09:37.112,-0.075,0.09
2021-08-19 22:09:37.116,-0.075,0.095
2021-08-19 22:09:37.120,-0.09,0.095
2021-08-19 22:09:37.124,-0.11,0.085
2021-08-19 22:09:37.128,-0.1,0.085
2021-08-19 22:09:37.132,-0.1,0.08
2021-08-19 22:09:37.136,-0.12,0.08
2021-08-19 22:09:37.140,-0.125,0.08
2021-08-19 22:09:37.144,-0.13,0.08
2021-08-19 22:09:37.148,-0.12,0.09
2021-08-19 22:09:37.152,-0.15,0.08
2021-08-19 22:09:37.156,-0.15,0.08
2021-08-19 22:09:37.160,-0.15,0.085
2021-08-19 22:09:37.164,-0.16,0.08
2021-08-19 22:09:37.168,-0.16,0.075
2021-08-19 22:09:37.172,-0.16,0.055
2021-08-19 22:09:37.176,-0.155,0.08
2021-08-19 22:09:37.180,-0.155,0.055
2021-08-19 22:09:37.184,-0.155,0.05
2021-08-19 22:09:37.188,-0.145,0.04
2021-08-19 22:09:37.192,-0.16,0.06
2021-08-19 22:09:37.196,-0.165,0.035
2021-08-19 22:09:37.200,-0.175,0.045
2021-08-19 22:09:37.204,-0.16,0.04
2021-08-19 22:09:37.208,-0.165,0.045
2021-08-19 22:09:37.212,-0.16,0.05
2021-08-19 22:09:37.216,-0.17,0.04
2021-08-19 22:09:37.220,-0.17,0.065
2021-08-19 22:09:37.224,-0.16,0.06
2021-08-19 22:09:37.228,-0.15,0.065
2021-08-19 22:09:37.232,-0.145,0.06
2021-08-19 22:09:37.236,-0.15,0.065
2021-08-19 22:09:37.240,-0.16,0.06
2021-08-19 22:09:37.244,-0.145,0.06
2021-08-19 22:09:37.248,-0.16,0.075
2021-08-19 22:09:37.252,-0.15,0.08
2021-08-19 22:09:37.256,-0.15,0.075
2021-08-19 22:09:37.260,-0.145,0.075
2021-08-19 22:09:37.264,-0.15,0.075
2021-08-19 22:09:37.268,-0.15,0.085
2021-08-19 22:09:37.272,-0.14,0.07
2021-08-19 22:09:37.276,-0.13,0.075
2021-08-19 22:09:37.280,-0.135,0.08
2021-08-19 22:09:37.284,-0.14,0.09
2021-08-19 22:09:37.288,-0.16,0.08
2021-08-19 22:09:37.292,-0.145,0.075
2021-08-19 22:09:37.296,-0.155,0.08
2021-08-19 22:09:37.300,-0.155,0.09
2021-08-19 22:09:37.304,-0.16,0.075
2021-08-19 22:09:37.308,-0.155,0.065
2021-08-19 22:09:37.312,-0.155,0.08
2021-08-19 22:09:37.316,-0.155,0.065
2021-08-19 22:09:37.320,-0.175,0.075
2021-08-19 22:09:37.324,-0.17,0.08
2021-08-19 22:09:37.328,-0.17,0.075
2021-08-19 22:09:37.332,-0.175,0.08
2021-08-19 22:09:37.336,-0.185,0.075
2021-08-19 22:09:37.340,-0.18,0.07
2021-08-19 22:09:37.344,-0.18,0.07
2021-08-19 22:09:37.348,-0.2,0.08
2021-08-19 22:09:37.352,-0.21,0.09
2021-08-19 22:09:37.356,-0.19,0.07
2021-08-19 22:09:37.360,-0.195,0.055
2021-08-19 22:09:37.364,-0.21,0.06
2021-08-19 22:09:37.368,-0.215,0.06
2021-08-19 22:09:37.372,-0.195,0.055
2021-08-19 22:09:37.376,-0.195,0.055
2021-08-19 22:09:37.380,-0.195,0.06
2021-08-19 22:09:37.384,-0.195,0.05
2021-08-19 22:09:37.388,-0.18,0.055
2021-08-19 22:09:37.392,-0.185,0.05
2021-08-19 22:09:37.396,-0.19,0.06
2021-08-19 22:09:37.400,-0.19,0.06
2021-08-19 22:09:37.404,-0.19,0.045
2021-08-19 22:09:37.408,-0.18,0.04
2021-08-19 22:09:37.412,-0.185,0.035
2021-08-19 22:09:37.416,-0.18,0.045
2021-08-19 22:09:37.420,-0.19,0.045
2021-08-19 22:09:37.424,-0.185,0.04
2021-08-19 22:09:37.428,-0.145,0.05
2021-08-19 22:09:37.432,-0.09,0.05
2021-08-19 22:09:37.436,0.025,0.065
2021-08-19 22:09:37.440,0.18,0.09
2021-08-19 22:09:37.444,0.34,0.065
2021-08-19 22:09:37.448,0.46,0.035
2021-08-19 22:09:37.452,0.53,0.01
2021-08-19 22:09:37.456,0.53,-0.05
2021-08-19 22:09:37.460,0.345,-0.14
2021-08-19 22:09:37.464,0.015,-0.235
2021-08-19 22:09:37.468,-0.36,-0.32
2021-08-19 22:09:37.472,-0.645,-0.375
2021-08-19 22:09:37.476,-0.73,-0.44
2021-08-19 22:09:37.480,-0.68,-0.43
2021-08-19 22:09:37.484,-0.615,-0.375
2021-08-19 22:09:37.488,-0.535,-0.28
2021-08-19 22:09:37.492,-0.43,-0.205
2021-08-19 22:09:37.496,-0.335,-0.105
2021-08-19 22:09:37.500,-0.29,-0.035
2021-08-19 22:09:37.504,-0.29,0.015
2021-08-19 22:09:37.508,-0.275,0.055
2021-08-19 22:09:37.512,-0.28,0.055
2021-08-19 22:09:37.516,-0.295,0.06
2021-08-19 22:09:37.520,-0.285,0.07
2021-08-19 22:09:37.524,-0.275,0.08
2021-08-19 22:09:37.528,-0.28,0.08
2021-08-19 22:09:37.532,-0.3,0.08
2021-08-19 22:09:37.536,-0.28,0.07
2021-08-19 22:09:37.540,-0.285,0.07
2021-08-19 22:09:37.544,-0.28,0.08
2021-08-19 22:09:37.548,-0.28,0.075
2021-08-19 22:09:37.552,-0.285,0.08
2021-08-19 22:09:37.556,-0.28,0.065
2021-08-19 22:09:37.560,-0.285,0.075
2021-08-19 22:09:37.564,-0.285,0.075
2021-08-19 22:09:37.568,-0.285,0.06
2021-08-19 22:09:37.572,-0.29,0.065
2021-08-19 22:09:37.576,-0.3,0.07
2021-08-19 22:09:37.580,-0.3,0.05
2021-08-19 22:09:37.584,-0.295,0.05
2021-08-19 22:09:37.588,-0.295,0.045
2021-08-19 22:09:37.592,-0.305,0.055
2021-08-19 22:09:37.596,-0.305,0.045
2021-08-19 22:09:37.600,-0.32,0.075
2021-08-19 22:09:37.604,-0.3,0.055
2021-08-19 22:09:37.608,-0.315,0.07
2021-08-19 22:09:37.612,-0.315,0.07
2021-08-19 22:09:37.616,-0.315,0.085
2021-08-19 22:09:37.620,-0.31,0.085
2021-08-19 22:09:37.624,-0.315,0.085
2021-08-19 22:09:37.628,-0.31,0.085
2021-08-19 22:09:37.632,-0.31,0.09
2021-08-19 22:09:37.636,-0.31,0.09
2021-08-19 22:09:37.640,-0.3,0.095
2021-08-19 22:09:37.644,-0.285,0.085
2021-08-19 22:09:37.648,-0.295,0.095
2021-08-19 22:09:37.652,-0.29,0.1
2021-08-19 22:09:37.656,-0.3,0.11
2021-08-19 22:09:37.660,-0.265,0.11
2021-08-19 22:09:37.664,-0.26,0.125
2021-08-19 22:09:37.668,-0.255,0.115
2021-08-19 22:09:37.672,-0.24,0.125
2021-08-19 22:09:37.676,-0.235,0.12
2021-08-19 22:09:37.680,-0.235,0.12
2021-08-19 22:09:37.684,-0.23,0.11
2021-08-19 22:09:37.688,-0.235,0.12
