Time,ECG1,ECG2
2021-08-19 06:21:38.424,0.565,-0.735
2021-08-19 06:21:38.428,0.515,-0.765
2021-08-19 06:21:38.432,0.425,-0.75
2021-08-19 06:21:38.436,0.355,-0.735
2021-08-19 06:21:38.440,0.335,-0.7
2021-08-19 06:21:38.444,0.365,-0.68
2021-08-19 06:21:38.448,0.37,-0.655
2021-08-19 06:21:38.452,0.395,-0.645
2021-08-19 06:21:38.456,0.41,-0.645
2021-08-19 06:21:38.460,0.41,-0.655
2021-08-19 06:21:38.464,0.425,-0.67
2021-08-19 06:21:38.468,0.43,-0.65
2021-08-19 06:21:38.472,0.45,-0.645
2021-08-19 06:21:38.476,0.475,-0.66
2021-08-19 06:21:38.480,0.465,-0.66
2021-08-19 06:21:38.484,0.46,-0.645
2021-08-19 06:21:38.488,0.465,-0.64
2021-08-19 06:21:38.492,0.465,-0.655
2021-08-19 06:21:38.496,0.515,-0.68
2021-08-19 06:21:38.500,0.5,-0.71
2021-08-19 06:21:38.504,0.5,-0.7
2021-08-19 06:21:38.508,0.465,-0.69
2021-08-19 06:21:38.512,0.475,-0.72
2021-08-19 06:21:38.516,0.505,-0.72
2021-08-19 06:21:38.520,0.495,-0.72
2021-08-19 06:21:38.524,0.505,-0.74
2021-08-19 06:21:38.528,0.515,-0.75
2021-08-19 06:21:38.532,0.5,-0.77
2021-08-19 06:21:38.536,0.515,-0.785
2021-08-19 06:21:38.540,0.535,-0.75
2021-08-19 06:21:38.544,0.485,-0.73
2021-08-19 06:21:38.548,0.495,-0.71
2021-08-19 06:21:38.552,0.495,-0.71
2021-08-19 06:21:38.556,0.505,-0.735
2021-08-19 06:21:38.560,0.5,-0.705
2021-08-19 06:21:38.564,0.535,-0.655
2021-08-19 06:21:38.568,0.55,-0.615
2021-08-19 06:21:38.572,0.56,-0.61
2021-08-19 06:21:38.576,0.605,-0.625
2021-08-19 06:21:38.580,0.615,-0.625
2021-08-19 06:21:38.584,0.625,-0.63
2021-08-19 06:21:38.588,0.63,-0.6
2021-08-19 06:21:38.592,0.61,-0.56
2021-08-19 06:21:38.596,0.595,-0.55
2021-08-19 06:21:38.600,0.605,-0.545
2021-08-19 06:21:38.604,0.6,-0.545
2021-08-19 06:21:38.608,0.62,-0.56
2021-08-19 06:21:38.612,0.635,-0.555
2021-08-19 06:21:38.616,0.65,-0.565
2021-08-19 06:21:38.620,0.65,-0.585
2021-08-19 06:21:38.624,0.66,-0.57
2021-08-19 06:21:38.628,0.665,-0.55
2021-08-19 06:21:38.632,0.65,-0.51
2021-08-19 06:21:38.636,0.665,-0.48
2021-08-19 06:21:38.640,0.675,-0.385
2021-08-19 06:21:38.644,0.69,-0.185
2021-08-19 06:21:38.648,0.7,0.195
2021-08-19 06:21:38.652,0.755,0.675
2021-08-19 06:21:38.656,0.775,1.125
2021-08-19 06:21:38.660,0.81,1.435
2021-08-19 06:21:38.664,0.755,1.49
2021-08-19 06:21:38.668,0.715,1.32
2021-08-19 06:21:38.672,0.655,1.005
2021-08-19 06:21:38.676,0.655,0.505
2021-08-19 06:21:38.680,0.645,-0.16
2021-08-19 06:21:38.684,0.57,-0.86
2021-08-19 06:21:38.688,0.495,-1.275
2021-08-19 06:21:38.692,0.38,-1.38
2021-08-19 06:21:38.696,0.215,-1.335
2021-08-19 06:21:38.700,0.05,-1.325
2021-08-19 06:21:38.704,-0.075,-1.355
2021-08-19 06:21:38.708,-0.12,-1.37
2021-08-19 06:21:38.712,0.005,-1.355
2021-08-19 06:21:38.716,0.16,-1.28
2021-08-19 06:21:38.720,0.305,-1.22
2021-08-19 06:21:38.724,0.315,-1.165
2021-08-19 06:21:38.728,0.32,-1.135
2021-08-19 06:21:38.732,0.345,-1.125
2021-08-19 06:21:38.736,0.375,-1.06
2021-08-19 06:21:38.740,0.375,-1.025
2021-08-19 06:21:38.744,0.39,-0.995
2021-08-19 06:21:38.748,0.44,-1.01
2021-08-19 06:21:38.752,0.47,-1.045
2021-08-19 06:21:38.756,0.56,-1.07
2021-08-19 06:21:38.760,0.62,-1.08
2021-08-19 06:21:38.764,0.58,-1.035
2021-08-19 06:21:38.768,0.535,-0.98
2021-08-19 06:21:38.772,0.525,-0.96
2021-08-19 06:21:38.776,0.535,-0.985
2021-08-19 06:21:38.780,0.59,-0.98
2021-08-19 06:21:38.784,0.675,-0.995
2021-08-19 06:21:38.788,0.67,-0.99
2021-08-19 06:21:38.792,0.625,-0.995
2021-08-19 06:21:38.796,0.57,-0.985
2021-08-19 06:21:38.800,0.58,-0.98
2021-08-19 06:21:38.804,0.575,-0.955
2021-08-19 06:21:38.808,0.575,-0.945
2021-08-19 06:21:38.812,0.61,-0.94
2021-08-19 06:21:38.816,0.61,-0.915
2021-08-19 06:21:38.820,0.605,-0.925
2021-08-19 06:21:38.824,0.62,-0.935
2021-08-19 06:21:38.828,0.635,-0.955
2021-08-19 06:21:38.832,0.645,-0.97
2021-08-19 06:21:38.836,0.66,-0.965
2021-08-19 06:21:38.840,0.715,-0.975
2021-08-19 06:21:38.844,0.705,-0.97
2021-08-19 06:21:38.848,0.705,-0.99
2021-08-19 06:21:38.852,0.705,-1.02
2021-08-19 06:21:38.856,0.71,-1.03
2021-08-19 06:21:38.860,0.705,-1.055
2021-08-19 06:21:38.864,0.71,-1.075
2021-08-19 06:21:38.868,0.71,-1.085
2021-08-19 06:21:38.872,0.71,-1.095
2021-08-19 06:21:38.876,0.665,-1.085
2021-08-19 06:21:38.880,0.605,-1.075
2021-08-19 06:21:38.884,0.585,-1.075
2021-08-19 06:21:38.888,0.565,-1.105
2021-08-19 06:21:38.892,0.6,-1.13
2021-08-19 06:21:38.896,0.64,-1.145
2021-08-19 06:21:38.900,0.625,-1.14
2021-08-19 06:21:38.904,0.59,-1.145
2021-08-19 06:21:38.908,0.55,-1.13
2021-08-19 06:21:38.912,0.535,-1.155
2021-08-19 06:21:38.916,0.555,-1.15
2021-08-19 06:21:38.920,0.545,-1.13
2021-08-19 06:21:38.924,0.51,-1.13
2021-08-19 06:21:38.928,0.48,-1.07
2021-08-19 06:21:38.932,0.455,-1.015
2021-08-19 06:21:38.936,0.45,-1.01
2021-08-19 06:21:38.940,0.5,-1.01
2021-08-19 06:21:38.944,0.515,-1.01
2021-08-19 06:21:38.948,0.56,-1.01
2021-08-19 06:21:38.952,0.59,-1.0
2021-08-19 06:21:38.956,0.635,-1.0
2021-08-19 06:21:38.960,0.64,-0.95
2021-08-19 06:21:38.964,0.685,-0.93
2021-08-19 06:21:38.968,0.665,-0.89
2021-08-19 06:21:38.972,0.67,-0.85
2021-08-19 06:21:38.976,0.685,-0.845
2021-08-19 06:21:38.980,0.655,-0.825
2021-08-19 06:21:38.984,0.7,-0.835
2021-08-19 06:21:38.988,0.71,-0.825
2021-08-19 06:21:38.992,0.705,-0.835
2021-08-19 06:21:38.996,0.715,-0.84
2021-08-19 06:21:39.000,0.73,-0.82
2021-08-19 06:21:39.004,0.73,-0.795
2021-08-19 06:21:39.008,0.735,-0.78
2021-08-19 06:21:39.012,0.725,-0.73
2021-08-19 06:21:39.016,0.73,-0.705
2021-08-19 06:21:39.020,0.75,-0.64
2021-08-19 06:21:39.024,0.815,-0.56
2021-08-19 06:21:39.028,0.825,-0.39
2021-08-19 06:21:39.032,0.79,-0.115
2021-08-19 06:21:39.036,0.74,0.27
2021-08-19 06:21:39.040,0.755,0.675
2021-08-19 06:21:39.044,0.805,1.03
2021-08-19 06:21:39.048,0.875,1.26
2021-08-19 06:21:39.052,0.885,1.395
2021-08-19 06:21:39.056,0.89,1.325
2021-08-19 06:21:39.060,0.86,0.965
2021-08-19 06:21:39.064,0.83,0.375
2021-08-19 06:21:39.068,0.72,-0.32
2021-08-19 06:21:39.072,0.52,-0.865
2021-08-19 06:21:39.076,0.27,-1.095
2021-08-19 06:21:39.080,0.075,-1.115
2021-08-19 06:21:39.084,-0.05,-1.185
2021-08-19 06:21:39.088,-0.12,-1.275
2021-08-19 06:21:39.092,-0.145,-1.385
2021-08-19 06:21:39.096,-0.095,-1.44
2021-08-19 06:21:39.100,0.095,-1.455
2021-08-19 06:21:39.104,0.305,-1.405
2021-08-19 06:21:39.108,0.42,-1.315
2021-08-19 06:21:39.112,0.46,-1.22
2021-08-19 06:21:39.116,0.47,-1.165
2021-08-19 06:21:39.120,0.455,-1.165
2021-08-19 06:21:39.124,0.465,-1.17
2021-08-19 06:21:39.128,0.52,-1.165
2021-08-19 06:21:39.132,0.57,-1.15
2021-08-19 06:21:39.136,0.625,-1.135
2021-08-19 06:21:39.140,0.685,-1.11
2021-08-19 06:21:39.144,0.7,-1.08
2021-08-19 06:21:39.148,0.73,-1.055
2021-08-19 06:21:39.152,0.715,-1.03
2021-08-19 06:21:39.156,0.72,-1.06
2021-08-19 06:21:39.160,0.725,-1.13
2021-08-19 06:21:39.164,0.755,-1.16
2021-08-19 06:21:39.168,0.785,-1.165
2021-08-19 06:21:39.172,0.815,-1.18
2021-08-19 06:21:39.176,0.855,-1.175
2021-08-19 06:21:39.180,0.875,-1.15
2021-08-19 06:21:39.184,0.85,-1.175
2021-08-19 06:21:39.188,0.83,-1.175
2021-08-19 06:21:39.192,0.83,-1.155
2021-08-19 06:21:39.196,0.86,-1.155
2021-08-19 06:21:39.200,0.86,-1.15
2021-08-19 06:21:39.204,0.87,-1.15
2021-08-19 06:21:39.208,0.85,-1.165
2021-08-19 06:21:39.212,0.835,-1.19
2021-08-19 06:21:39.216,0.85,-1.15
2021-08-19 06:21:39.220,0.88,-1.13
2021-08-19 06:21:39.224,0.86,-1.09
2021-08-19 06:21:39.228,0.845,-1.1
2021-08-19 06:21:39.232,0.86,-1.09
2021-08-19 06:21:39.236,0.89,-1.08
2021-08-19 06:21:39.240,0.915,-1.1
2021-08-19 06:21:39.244,0.935,-1.13
2021-08-19 06:21:39.248,0.95,-1.15
2021-08-19 06:21:39.252,0.945,-1.145
2021-08-19 06:21:39.256,0.94,-1.155
2021-08-19 06:21:39.260,0.935,-1.185
2021-08-19 06:21:39.264,0.895,-1.22
2021-08-19 06:21:39.268,0.87,-1.24
2021-08-19 06:21:39.272,0.865,-1.25
2021-08-19 06:21:39.276,0.85,-1.27
2021-08-19 06:21:39.280,0.84,-1.285
2021-08-19 06:21:39.284,0.82,-1.34
2021-08-19 06:21:39.288,0.82,-1.35
2021-08-19 06:21:39.292,0.79,-1.345
2021-08-19 06:21:39.296,0.795,-1.365
2021-08-19 06:21:39.300,0.775,-1.325
2021-08-19 06:21:39.304,0.775,-1.295
2021-08-19 06:21:39.308,0.76,-1.275
2021-08-19 06:21:39.312,0.775,-1.28
2021-08-19 06:21:39.316,0.77,-1.25
2021-08-19 06:21:39.320,0.8,-1.23
2021-08-19 06:21:39.324,0.82,-1.2
2021-08-19 06:21:39.328,0.805,-1.21
2021-08-19 06:21:39.332,0.8,-1.18
2021-08-19 06:21:39.336,0.815,-1.15
2021-08-19 06:21:39.340,0.835,-1.125
2021-08-19 06:21:39.344,0.835,-1.12
2021-08-19 06:21:39.348,0.86,-1.09
2021-08-19 06:21:39.352,0.835,-1.1
2021-08-19 06:21:39.356,0.84,-1.065
2021-08-19 06:21:39.360,0.835,-1.01
2021-08-19 06:21:39.364,0.85,-0.99
2021-08-19 06:21:39.368,0.87,-0.98
2021-08-19 06:21:39.372,0.885,-0.97
2021-08-19 06:21:39.376,0.88,-0.99
2021-08-19 06:21:39.380,0.885,-0.97
2021-08-19 06:21:39.384,0.905,-0.975
2021-08-19 06:21:39.388,0.925,-0.96
2021-08-19 06:21:39.392,0.935,-0.98
2021-08-19 06:21:39.396,0.94,-1.01
2021-08-19 06:21:39.400,0.95,-1.08
2021-08-19 06:21:39.404,0.95,-1.175
2021-08-19 06:21:39.408,0.955,-1.245
2021-08-19 06:21:39.412,0.945,-1.34
2021-08-19 06:21:39.416,0.92,-1.375
2021-08-19 06:21:39.420,0.92,-1.4
2021-08-19 06:21:39.424,0.95,-1.435
2021-08-19 06:21:39.428,0.94,-1.465
2021-08-19 06:21:39.432,0.935,-1.495
2021-08-19 06:21:39.436,0.93,-1.53
2021-08-19 06:21:39.440,0.96,-1.55
2021-08-19 06:21:39.444,0.985,-1.58
2021-08-19 06:21:39.448,0.975,-1.595
2021-08-19 06:21:39.452,1.025,-1.6
2021-08-19 06:21:39.456,1.045,-1.625
2021-08-19 06:21:39.460,1.015,-1.645
2021-08-19 06:21:39.464,1.04,-1.67
2021-08-19 06:21:39.468,1.02,-1.705
2021-08-19 06:21:39.472,1.02,-1.71
2021-08-19 06:21:39.476,0.985,-1.71
2021-08-19 06:21:39.480,0.945,-1.73
2021-08-19 06:21:39.484,0.91,-1.755
2021-08-19 06:21:39.488,0.915,-1.775
2021-08-19 06:21:39.492,0.875,-1.795
2021-08-19 06:21:39.496,0.895,-1.785
2021-08-19 06:21:39.500,0.85,-1.79
2021-08-19 06:21:39.504,0.85,-1.81
2021-08-19 06:21:39.508,0.835,-1.815
2021-08-19 06:21:39.512,0.845,-1.825
2021-08-19 06:21:39.516,0.855,-1.825
2021-08-19 06:21:39.520,0.84,-1.825
2021-08-19 06:21:39.524,0.825,-1.835
2021-08-19 06:21:39.528,0.85,-1.835
2021-08-19 06:21:39.532,0.835,-1.815
2021-08-19 06:21:39.536,0.85,-1.81
2021-08-19 06:21:39.540,0.845,-1.8
2021-08-19 06:21:39.544,0.85,-1.79
2021-08-19 06:21:39.548,0.83,-1.81
2021-08-19 06:21:39.552,0.835,-1.785
2021-08-19 06:21:39.556,0.845,-1.78
2021-08-19 06:21:39.560,0.855,-1.75
2021-08-19 06:21:39.564,0.87,-1.725
2021-08-19 06:21:39.568,0.87,-1.7
2021-08-19 06:21:39.572,0.845,-1.665
2021-08-19 06:21:39.576,0.87,-1.675
2021-08-19 06:21:39.580,0.89,-1.67
2021-08-19 06:21:39.584,0.91,-1.675
2021-08-19 06:21:39.588,0.885,-1.655
2021-08-19 06:21:39.592,0.94,-1.63
2021-08-19 06:21:39.596,0.94,-1.62
2021-08-19 06:21:39.600,0.93,-1.62
2021-08-19 06:21:39.604,0.935,-1.635
2021-08-19 06:21:39.608,0.93,-1.625
2021-08-19 06:21:39.612,0.945,-1.615
2021-08-19 06:21:39.616,0.925,-1.635
2021-08-19 06:21:39.620,0.955,-1.645
2021-08-19 06:21:39.624,0.965,-1.655
2021-08-19 06:21:39.628,0.945,-1.655
2021-08-19 06:21:39.632,0.925,-1.65
2021-08-19 06:21:39.636,0.94,-1.64
2021-08-19 06:21:39.640,0.92,-1.615
2021-08-19 06:21:39.644,0.93,-1.615
2021-08-19 06:21:39.648,0.945,-1.615
2021-08-19 06:21:39.652,0.975,-1.63
2021-08-19 06:21:39.656,0.98,-1.61
2021-08-19 06:21:39.660,1.01,-1.62
2021-08-19 06:21:39.664,1.015,-1.61
2021-08-19 06:21:39.668,1.035,-1.665
2021-08-19 06:21:39.672,1.04,-1.675
2021-08-19 06:21:39.676,1.005,-1.695
2021-08-19 06:21:39.680,0.995,-1.735
2021-08-19 06:21:39.684,0.955,-1.76
2021-08-19 06:21:39.688,0.92,-1.765
2021-08-19 06:21:39.692,0.895,-1.77
2021-08-19 06:21:39.696,0.875,-1.76
2021-08-19 06:21:39.700,0.855,-1.76
2021-08-19 06:21:39.704,0.82,-1.75
2021-08-19 06:21:39.708,0.83,-1.775
2021-08-19 06:21:39.712,0.805,-1.755
2021-08-19 06:21:39.716,0.805,-1.77
2021-08-19 06:21:39.720,0.795,-1.785
2021-08-19 06:21:39.724,0.8,-1.805
2021-08-19 06:21:39.728,0.825,-1.79
2021-08-19 06:21:39.732,0.805,-1.755
2021-08-19 06:21:39.736,0.82,-1.725
2021-08-19 06:21:39.740,0.805,-1.725
2021-08-19 06:21:39.744,0.815,-1.74
2021-08-19 06:21:39.748,0.84,-1.725
2021-08-19 06:21:39.752,0.825,-1.735
2021-08-19 06:21:39.756,0.825,-1.705
2021-08-19 06:21:39.760,0.845,-1.69
2021-08-19 06:21:39.764,0.86,-1.655
2021-08-19 06:21:39.768,0.88,-1.625
2021-08-19 06:21:39.772,0.87,-1.63
2021-08-19 06:21:39.776,0.865,-1.61
2021-08-19 06:21:39.780,0.875,-1.575
2021-08-19 06:21:39.784,0.88,-1.55
2021-08-19 06:21:39.788,0.895,-1.53
2021-08-19 06:21:39.792,0.905,-1.545
2021-08-19 06:21:39.796,0.935,-1.54
2021-08-19 06:21:39.800,0.94,-1.55
2021-08-19 06:21:39.804,0.935,-1.515
2021-08-19 06:21:39.808,0.94,-1.515
2021-08-19 06:21:39.812,0.92,-1.5
2021-08-19 06:21:39.816,0.945,-1.5
2021-08-19 06:21:39.820,0.935,-1.46
2021-08-19 06:21:39.824,0.9,-1.385
2021-08-19 06:21:39.828,0.925,-1.27
2021-08-19 06:21:39.832,0.925,-1.09
2021-08-19 06:21:39.836,0.925,-0.775
2021-08-19 06:21:39.840,0.885,-0.38
2021-08-19 06:21:39.844,0.905,0.065
2021-08-19 06:21:39.848,0.96,0.39
2021-08-19 06:21:39.852,0.95,0.59
2021-08-19 06:21:39.856,0.935,0.65
2021-08-19 06:21:39.860,0.94,0.535
2021-08-19 06:21:39.864,0.94,0.185
2021-08-19 06:21:39.868,0.965,-0.39
2021-08-19 06:21:39.872,0.935,-1.12
2021-08-19 06:21:39.876,0.79,-1.67
2021-08-19 06:21:39.880,0.585,-1.845
2021-08-19 06:21:39.884,0.35,-1.785
2021-08-19 06:21:39.888,0.155,-1.77
2021-08-19 06:21:39.892,0.055,-1.885
2021-08-19 06:21:39.896,0.02,-1.965
2021-08-19 06:21:39.908,0.57,-1.93
2021-08-19 06:21:39.912,0.645,-1.845
2021-08-19 06:21:39.916,0.67,-1.77
2021-08-19 06:21:39.920,0.655,-1.71
2021-08-19 06:21:39.924,0.63,-1.705
2021-08-19 06:21:39.928,0.64,-1.705
2021-08-19 06:21:39.932,0.67,-1.72
2021-08-19 06:21:39.936,0.695,-1.7
2021-08-19 06:21:39.940,0.75,-1.71
2021-08-19 06:21:39.944,0.78,-1.73
2021-08-19 06:21:39.948,0.83,-1.7
2021-08-19 06:21:39.952,0.86,-1.695
2021-08-19 06:21:39.956,0.86,-1.71
2021-08-19 06:21:39.960,0.84,-1.715
2021-08-19 06:21:39.964,0.86,-1.68
2021-08-19 06:21:39.968,0.875,-1.695
2021-08-19 06:21:39.972,0.865,-1.68
2021-08-19 06:21:39.976,0.895,-1.64
2021-08-19 06:21:39.980,0.88,-1.635
2021-08-19 06:21:39.984,0.9,-1.59
2021-08-19 06:21:39.988,0.88,-1.575
2021-08-19 06:21:39.992,0.91,-1.565
2021-08-19 06:21:39.996,0.935,-1.56
2021-08-19 06:21:40.000,0.945,-1.545
2021-08-19 06:21:40.004,0.94,-1.535
2021-08-19 06:21:40.008,0.965,-1.53
2021-08-19 06:21:40.012,0.97,-1.54
2021-08-19 06:21:40.016,1.005,-1.535
2021-08-19 06:21:40.020,1.0,-1.565
2021-08-19 06:21:40.024,0.965,-1.565
2021-08-19 06:21:40.028,0.965,-1.58
2021-08-19 06:21:40.032,0.955,-1.59
2021-08-19 06:21:40.036,0.965,-1.585
2021-08-19 06:21:40.040,0.95,-1.6
2021-08-19 06:21:40.044,0.94,-1.625
2021-08-19 06:21:40.048,0.955,-1.605
2021-08-19 06:21:40.052,0.92,-1.605
2021-08-19 06:21:40.056,0.93,-1.575
2021-08-19 06:21:40.060,0.95,-1.57
2021-08-19 06:21:40.064,0.94,-1.57
2021-08-19 06:21:40.068,0.93,-1.55
2021-08-19 06:21:40.072,0.94,-1.545
2021-08-19 06:21:40.076,0.945,-1.55
2021-08-19 06:21:40.080,0.95,-1.58
2021-08-19 06:21:40.084,0.905,-1.57
2021-08-19 06:21:40.088,0.895,-1.545
2021-08-19 06:21:40.092,0.875,-1.565
2021-08-19 06:21:40.096,0.875,-1.585
2021-08-19 06:21:40.100,0.84,-1.585
2021-08-19 06:21:40.104,0.835,-1.61
2021-08-19 06:21:40.108,0.835,-1.605
2021-08-19 06:21:40.112,0.82,-1.625
2021-08-19 06:21:40.116,0.835,-1.615
2021-08-19 06:21:40.120,0.825,-1.62
2021-08-19 06:21:40.124,0.79,-1.62
2021-08-19 06:21:40.128,0.79,-1.595
2021-08-19 06:21:40.132,0.8,-1.56
2021-08-19 06:21:40.136,0.81,-1.555
2021-08-19 06:21:40.140,0.805,-1.53
2021-08-19 06:21:40.144,0.795,-1.495
2021-08-19 06:21:40.148,0.775,-1.47
2021-08-19 06:21:40.152,0.795,-1.45
2021-08-19 06:21:40.156,0.795,-1.425
2021-08-19 06:21:40.160,0.795,-1.39
2021-08-19 06:21:40.164,0.795,-1.36
2021-08-19 06:21:40.168,0.805,-1.33
2021-08-19 06:21:40.172,0.82,-1.3
2021-08-19 06:21:40.176,0.815,-1.26
2021-08-19 06:21:40.180,0.82,-1.22
2021-08-19 06:21:40.184,0.835,-1.19
2021-08-19 06:21:40.188,0.835,-1.165
2021-08-19 06:21:40.192,0.835,-1.15
2021-08-19 06:21:40.196,0.84,-1.095
2021-08-19 06:21:40.200,0.85,-1.085
2021-08-19 06:21:40.204,0.865,-1.07
2021-08-19 06:21:40.208,0.895,-1.04
2021-08-19 06:21:40.212,0.905,-1.01
2021-08-19 06:21:40.216,0.915,-1.0
2021-08-19 06:21:40.220,0.93,-1.005
2021-08-19 06:21:40.224,0.935,-1.005
2021-08-19 06:21:40.228,0.93,-1.035
2021-08-19 06:21:40.232,0.94,-1.055
2021-08-19 06:21:40.236,0.94,-1.065
2021-08-19 06:21:40.240,0.975,-1.055
2021-08-19 06:21:40.244,0.945,-1.08
2021-08-19 06:21:40.248,0.92,-1.08
2021-08-19 06:21:40.252,0.92,-1.08
2021-08-19 06:21:40.256,0.92,-1.065
2021-08-19 06:21:40.260,0.93,-1.03
2021-08-19 06:21:40.264,0.92,-1.03
2021-08-19 06:21:40.268,0.955,-1.03
2021-08-19 06:21:40.272,0.965,-1.045
2021-08-19 06:21:40.276,0.945,-1.05
2021-08-19 06:21:40.280,0.965,-1.04
2021-08-19 06:21:40.284,0.97,-1.03
2021-08-19 06:21:40.288,0.935,-1.03
2021-08-19 06:21:40.292,0.91,-1.065
2021-08-19 06:21:40.296,0.875,-1.085
2021-08-19 06:21:40.300,0.86,-1.095
2021-08-19 06:21:40.304,0.84,-1.14
2021-08-19 06:21:40.308,0.825,-1.155
2021-08-19 06:21:40.312,0.805,-1.165
2021-08-19 06:21:40.316,0.8,-1.185
2021-08-19 06:21:40.320,0.795,-1.21
2021-08-19 06:21:40.324,0.79,-1.22
2021-08-19 06:21:40.328,0.775,-1.215
2021-08-19 06:21:40.332,0.785,-1.195
2021-08-19 06:21:40.336,0.79,-1.22
2021-08-19 06:21:40.340,0.76,-1.21
2021-08-19 06:21:40.344,0.77,-1.205
2021-08-19 06:21:40.348,0.75,-1.225
2021-08-19 06:21:40.352,0.74,-1.22
2021-08-19 06:21:40.356,0.73,-1.225
2021-08-19 06:21:40.360,0.74,-1.19
2021-08-19 06:21:40.364,0.755,-1.195
2021-08-19 06:21:40.368,0.745,-1.2
2021-08-19 06:21:40.372,0.75,-1.18
2021-08-19 06:21:40.376,0.76,-1.175
2021-08-19 06:21:40.380,0.765,-1.17
2021-08-19 06:21:40.384,0.765,-1.14
2021-08-19 06:21:40.388,0.745,-1.13
2021-08-19 06:21:40.392,0.755,-1.12
2021-08-19 06:21:40.396,0.75,-1.1
2021-08-19 06:21:40.400,0.755,-1.09
2021-08-19 06:21:40.404,0.765,-1.08
2021-08-19 06:21:40.408,0.775,-1.06
2021-08-19 06:21:40.412,0.8,-1.06
2021-08-19 06:21:40.416,0.815,-1.045
2021-08-19 06:21:40.420,0.825,-1.045
2021-08-19 06:21:40.424,0.8,-1.04
2021-08-19 06:21:40.428,0.79,-1.04
2021-08-19 06:21:40.432,0.795,-1.055
2021-08-19 06:21:40.436,0.805,-1.075
2021-08-19 06:21:40.440,0.81,-1.095
2021-08-19 06:21:40.444,0.795,-1.09
2021-08-19 06:21:40.448,0.785,-1.09
2021-08-19 06:21:40.452,0.79,-1.1
2021-08-19 06:21:40.456,0.795,-1.1
2021-08-19 06:21:40.460,0.78,-1.08
2021-08-19 06:21:40.464,0.795,-1.08
2021-08-19 06:21:40.468,0.775,-1.06
2021-08-19 06:21:40.472,0.76,-1.025
2021-08-19 06:21:40.476,0.775,-1.005
2021-08-19 06:21:40.480,0.795,-1.015
2021-08-19 06:21:40.484,0.79,-1.005
2021-08-19 06:21:40.488,0.815,-1.015
2021-08-19 06:21:40.492,0.85,-0.99
2021-08-19 06:21:40.496,0.865,-1.01
2021-08-19 06:21:40.500,0.89,-1.0
2021-08-19 06:21:40.504,0.885,-1.02
2021-08-19 06:21:40.508,0.85,-1.045
2021-08-19 06:21:40.512,0.8,-1.04
2021-08-19 06:21:40.516,0.8,-1.06
2021-08-19 06:21:40.520,0.755,-1.08
2021-08-19 06:21:40.524,0.74,-1.085
2021-08-19 06:21:40.528,0.71,-1.1
2021-08-19 06:21:40.532,0.72,-1.125
2021-08-19 06:21:40.536,0.72,-1.14
2021-08-19 06:21:40.540,0.72,-1.155
2021-08-19 06:21:40.544,0.7,-1.14
2021-08-19 06:21:40.548,0.69,-1.155
2021-08-19 06:21:40.552,0.685,-1.15
2021-08-19 06:21:40.556,0.695,-1.155
2021-08-19 06:21:40.560,0.695,-1.14
2021-08-19 06:21:40.564,0.705,-1.135
2021-08-19 06:21:40.568,0.69,-1.14
2021-08-19 06:21:40.572,0.665,-1.13
2021-08-19 06:21:40.576,0.685,-1.12
2021-08-19 06:21:40.580,0.675,-1.1
2021-08-19 06:21:40.584,0.665,-1.08
2021-08-19 06:21:40.588,0.66,-1.08
2021-08-19 06:21:40.592,0.675,-1.065
2021-08-19 06:21:40.596,0.66,-1.0
2021-08-19 06:21:40.600,0.68,-0.955
2021-08-19 06:21:40.604,0.715,-0.85
2021-08-19 06:21:40.608,0.705,-0.785
2021-08-19 06:21:40.612,0.705,-0.635
2021-08-19 06:21:40.616,0.705,-0.375
2021-08-19 06:21:40.620,0.725,-0.005
2021-08-19 06:21:40.624,0.75,0.355
2021-08-19 06:21:40.628,0.77,0.61
2021-08-19 06:21:40.632,0.78,0.76
2021-08-19 06:21:40.636,0.755,0.8
2021-08-19 06:21:40.640,0.735,0.66
2021-08-19 06:21:40.644,0.74,0.415
2021-08-19 06:21:40.648,0.725,-0.055
2021-08-19 06:21:40.652,0.67,-0.68
2021-08-19 06:21:40.656,0.55,-1.185
2021-08-19 06:21:40.660,0.325,-1.36
2021-08-19 06:21:40.664,0.055,-1.28
2021-08-19 06:21:40.668,-0.13,-1.225
2021-08-19 06:21:40.672,-0.28,-1.32
2021-08-19 06:21:40.676,-0.3,-1.41
2021-08-19 06:21:40.680,-0.195,-1.465
2021-08-19 06:21:40.684,0.055,-1.44
2021-08-19 06:21:40.688,0.355,-1.38
2021-08-19 06:21:40.692,0.51,-1.265
2021-08-19 06:21:40.696,0.56,-1.17
2021-08-19 06:21:40.700,0.55,-1.09
2021-08-19 06:21:40.704,0.575,-1.055
2021-08-19 06:21:40.708,0.6,-1.03
2021-08-19 06:21:40.712,0.645,-1.02
2021-08-19 06:21:40.716,0.66,-1.01
2021-08-19 06:21:40.720,0.69,-1.025
2021-08-19 06:21:40.724,0.72,-1.03
2021-08-19 06:21:40.728,0.71,-1.05
2021-08-19 06:21:40.732,0.695,-1.055
2021-08-19 06:21:40.736,0.715,-1.065
2021-08-19 06:21:40.740,0.705,-1.085
2021-08-19 06:21:40.744,0.69,-1.095
2021-08-19 06:21:40.748,0.675,-1.1
2021-08-19 06:21:40.752,0.695,-1.125
2021-08-19 06:21:40.756,0.69,-1.105
2021-08-19 06:21:40.760,0.67,-1.09
2021-08-19 06:21:40.764,0.67,-1.085
2021-08-19 06:21:40.768,0.675,-1.065
2021-08-19 06:21:40.772,0.69,-1.075
2021-08-19 06:21:40.776,0.67,-1.045
2021-08-19 06:21:40.780,0.67,-1.07
2021-08-19 06:21:40.784,0.68,-1.075
2021-08-19 06:21:40.788,0.69,-1.09
2021-08-19 06:21:40.792,0.7,-1.09
2021-08-19 06:21:40.796,0.7,-1.065
2021-08-19 06:21:40.800,0.705,-1.06
2021-08-19 06:21:40.804,0.7,-1.07
2021-08-19 06:21:40.808,0.705,-1.025
2021-08-19 06:21:40.812,0.705,-1.01
2021-08-19 06:21:40.816,0.705,-1.0
2021-08-19 06:21:40.820,0.71,-0.995
2021-08-19 06:21:40.824,0.705,-1.015
2021-08-19 06:21:40.828,0.72,-1.025
2021-08-19 06:21:40.832,0.73,-1.035
2021-08-19 06:21:40.836,0.715,-1.03
2021-08-19 06:21:40.840,0.725,-1.03
2021-08-19 06:21:40.844,0.745,-1.04
2021-08-19 06:21:40.848,0.725,-1.055
2021-08-19 06:21:40.852,0.735,-1.055
2021-08-19 06:21:40.856,0.72,-1.065
2021-08-19 06:21:40.860,0.74,-1.08
2021-08-19 06:21:40.864,0.73,-1.08
2021-08-19 06:21:40.868,0.725,-1.115
2021-08-19 06:21:40.872,0.705,-1.105
2021-08-19 06:21:40.876,0.72,-1.135
2021-08-19 06:21:40.880,0.705,-1.125
2021-08-19 06:21:40.884,0.675,-1.115
2021-08-19 06:21:40.888,0.67,-1.09
2021-08-19 06:21:40.892,0.66,-1.09
2021-08-19 06:21:40.896,0.645,-1.075
2021-08-19 06:21:40.900,0.65,-1.045
2021-08-19 06:21:40.904,0.65,-1.055
2021-08-19 06:21:40.908,0.68,-1.065
2021-08-19 06:21:40.912,0.685,-1.035
2021-08-19 06:21:40.916,0.695,-1.035
2021-08-19 06:21:40.920,0.71,-1.005
2021-08-19 06:21:40.924,0.72,-1.0
2021-08-19 06:21:40.928,0.69,-0.965
2021-08-19 06:21:40.932,0.67,-0.96
2021-08-19 06:21:40.936,0.68,-0.945
2021-08-19 06:21:40.940,0.67,-0.94
2021-08-19 06:21:40.944,0.645,-0.935
2021-08-19 06:21:40.948,0.595,-0.91
2021-08-19 06:21:40.952,0.6,-0.91
2021-08-19 06:21:40.956,0.565,-0.865
2021-08-19 06:21:40.960,0.55,-0.86
2021-08-19 06:21:40.964,0.545,-0.815
2021-08-19 06:21:40.968,0.52,-0.81
2021-08-19 06:21:40.972,0.53,-0.815
2021-08-19 06:21:40.976,0.53,-0.835
2021-08-19 06:21:40.980,0.55,-0.85
2021-08-19 06:21:40.984,0.56,-0.835
2021-08-19 06:21:40.988,0.545,-0.81
2021-08-19 06:21:40.992,0.56,-0.77
2021-08-19 06:21:40.996,0.565,-0.73
2021-08-19 06:21:41.000,0.565,-0.72
2021-08-19 06:21:41.004,0.555,-0.715
2021-08-19 06:21:41.008,0.565,-0.69
2021-08-19 06:21:41.012,0.585,-0.68
2021-08-19 06:21:41.016,0.625,-0.68
2021-08-19 06:21:41.020,0.63,-0.65
2021-08-19 06:21:41.024,0.655,-0.645
2021-08-19 06:21:41.028,0.695,-0.66
2021-08-19 06:21:41.032,0.645,-0.66
2021-08-19 06:21:41.036,0.655,-0.66
2021-08-19 06:21:41.040,0.66,-0.635
2021-08-19 06:21:41.044,0.695,-0.615
2021-08-19 06:21:41.048,0.7,-0.59
2021-08-19 06:21:41.052,0.695,-0.58
2021-08-19 06:21:41.056,0.7,-0.58
2021-08-19 06:21:41.060,0.72,-0.57
2021-08-19 06:21:41.064,0.725,-0.57
2021-08-19 06:21:41.068,0.765,-0.57
2021-08-19 06:21:41.072,0.745,-0.57
2021-08-19 06:21:41.076,0.7,-0.535
2021-08-19 06:21:41.080,0.685,-0.485
2021-08-19 06:21:41.084,0.675,-0.45
2021-08-19 06:21:41.088,0.69,-0.27
2021-08-19 06:21:41.092,0.69,0.04
2021-08-19 06:21:41.096,0.685,0.39
2021-08-19 06:21:41.100,0.65,0.65
2021-08-19 06:21:41.104,0.685,0.815
2021-08-19 06:21:41.108,0.71,0.735
2021-08-19 06:21:41.112,0.69,0.515
2021-08-19 06:21:41.116,0.7,0.14
2021-08-19 06:21:41.120,0.685,-0.255
2021-08-19 06:21:41.124,0.665,-0.68
2021-08-19 06:21:41.128,0.675,-1.105
2021-08-19 06:21:41.132,0.645,-1.33
2021-08-19 06:21:41.136,0.595,-1.32
2021-08-19 06:21:41.140,0.48,-1.195
2021-08-19 06:21:41.144,0.395,-1.21
2021-08-19 06:21:41.148,0.385,-1.32
2021-08-19 06:21:41.152,0.415,-1.43
2021-08-19 06:21:41.156,0.57,-1.485
2021-08-19 06:21:41.160,0.85,-1.49
2021-08-19 06:21:41.164,1.155,-1.405
2021-08-19 06:21:41.168,1.295,-1.295
2021-08-19 06:21:41.172,1.26,-1.145
2021-08-19 06:21:41.176,1.16,-1.02
2021-08-19 06:21:41.180,1.125,-0.965
2021-08-19 06:21:41.184,1.125,-0.92
2021-08-19 06:21:41.188,1.145,-0.91
2021-08-19 06:21:41.192,1.175,-0.91
2021-08-19 06:21:41.196,1.24,-0.86
2021-08-19 06:21:41.200,1.27,-0.82
2021-08-19 06:21:41.204,1.29,-0.775
2021-08-19 06:21:41.208,1.29,-0.755
2021-08-19 06:21:41.212,1.255,-0.67
2021-08-19 06:21:41.216,1.23,-0.65
2021-08-19 06:21:41.220,1.235,-0.565
2021-08-19 06:21:41.224,1.195,-0.545
2021-08-19 06:21:41.228,1.08,-0.525
2021-08-19 06:21:41.232,0.935,-0.5
2021-08-19 06:21:41.236,0.755,-0.48
2021-08-19 06:21:41.240,0.6,-0.465
2021-08-19 06:21:41.244,0.475,-0.465
2021-08-19 06:21:41.248,0.41,-0.5
2021-08-19 06:21:41.252,0.41,-0.48
2021-08-19 06:21:41.256,0.375,-0.5
2021-08-19 06:21:41.260,0.41,-0.495
2021-08-19 06:21:41.264,0.4,-0.475
2021-08-19 06:21:41.268,0.39,-0.48
2021-08-19 06:21:41.272,0.375,-0.47
2021-08-19 06:21:41.276,0.375,-0.485
2021-08-19 06:21:41.280,0.33,-0.49
2021-08-19 06:21:41.284,0.32,-0.505
2021-08-19 06:21:41.288,0.3,-0.53
2021-08-19 06:21:41.292,0.315,-0.545
2021-08-19 06:21:41.296,0.315,-0.535
2021-08-19 06:21:41.300,0.31,-0.555
2021-08-19 06:21:41.304,0.31,-0.56
2021-08-19 06:21:41.308,0.3,-0.565
2021-08-19 06:21:41.312,0.285,-0.565
2021-08-19 06:21:41.316,0.245,-0.585
2021-08-19 06:21:41.320,0.24,-0.595
2021-08-19 06:21:41.324,0.225,-0.58
2021-08-19 06:21:41.328,0.22,-0.53
2021-08-19 06:21:41.332,0.22,-0.52
2021-08-19 06:21:41.336,0.23,-0.45
2021-08-19 06:21:41.340,0.2,-0.42
2021-08-19 06:21:41.344,0.21,-0.4
2021-08-19 06:21:41.348,0.23,-0.415
2021-08-19 06:21:41.352,0.2,-0.4
2021-08-19 06:21:41.356,0.16,-0.395
2021-08-19 06:21:41.360,0.135,-0.385
2021-08-19 06:21:41.364,0.115,-0.4
2021-08-19 06:21:41.368,0.13,-0.405
2021-08-19 06:21:41.372,0.13,-0.405
2021-08-19 06:21:41.376,0.125,-0.38
2021-08-19 06:21:41.380,0.125,-0.38
2021-08-19 06:21:41.384,0.12,-0.37
2021-08-19 06:21:41.388,0.14,-0.36
2021-08-19 06:21:41.392,0.09,-0.335
2021-08-19 06:21:41.396,0.12,-0.335
2021-08-19 06:21:41.400,0.095,-0.29
2021-08-19 06:21:41.404,0.125,-0.27
2021-08-19 06:21:41.408,0.09,-0.265
2021-08-19 06:21:41.412,0.07,-0.26
2021-08-19 06:21:41.416,0.07,-0.25
2021-08-19 06:21:41.420,0.035,-0.24
2021-08-19 06:21:41.424,0.04,-0.23
2021-08-19 06:21:41.428,0.04,-0.21
2021-08-19 06:21:41.432,0.06,-0.2
2021-08-19 06:21:41.436,0.085,-0.205
2021-08-19 06:21:41.440,0.09,-0.25
2021-08-19 06:21:41.444,0.075,-0.285
2021-08-19 06:21:41.448,0.08,-0.29
2021-08-19 06:21:41.452,0.075,-0.245
2021-08-19 06:21:41.456,0.1,-0.23
2021-08-19 06:21:41.460,0.115,-0.23
2021-08-19 06:21:41.464,0.125,-0.22
2021-08-19 06:21:41.468,0.135,-0.22
2021-08-19 06:21:41.472,0.165,-0.205
2021-08-19 06:21:41.476,0.195,-0.205
2021-08-19 06:21:41.480,0.2,-0.21
2021-08-19 06:21:41.484,0.24,-0.23
2021-08-19 06:21:41.488,0.28,-0.215
2021-08-19 06:21:41.492,0.3,-0.23
2021-08-19 06:21:41.496,0.325,-0.25
2021-08-19 06:21:41.500,0.35,-0.235
2021-08-19 06:21:41.504,0.36,-0.255
2021-08-19 06:21:41.508,0.365,-0.275
2021-08-19 06:21:41.512,0.39,-0.305
2021-08-19 06:21:41.516,0.405,-0.35
2021-08-19 06:21:41.520,0.425,-0.395
2021-08-19 06:21:41.524,0.395,-0.405
2021-08-19 06:21:41.528,0.43,-0.395
2021-08-19 06:21:41.532,0.425,-0.385
2021-08-19 06:21:41.536,0.44,-0.35
2021-08-19 06:21:41.540,0.42,-0.36
2021-08-19 06:21:41.544,0.44,-0.32
2021-08-19 06:21:41.548,0.43,-0.31
2021-08-19 06:21:41.552,0.44,-0.31
2021-08-19 06:21:41.556,0.465,-0.315
2021-08-19 06:21:41.560,0.465,-0.285
2021-08-19 06:21:41.564,0.515,-0.275
2021-08-19 06:21:41.568,0.555,-0.3
2021-08-19 06:21:41.572,0.565,-0.315
2021-08-19 06:21:41.576,0.535,-0.31
2021-08-19 06:21:41.580,0.54,-0.31
2021-08-19 06:21:41.584,0.53,-0.32
2021-08-19 06:21:41.588,0.5,-0.335
2021-08-19 06:21:41.592,0.46,-0.325
2021-08-19 06:21:41.596,0.44,-0.33
2021-08-19 06:21:41.600,0.41,-0.345
2021-08-19 06:21:41.604,0.4,-0.37
2021-08-19 06:21:41.608,0.41,-0.395
2021-08-19 06:21:41.612,0.41,-0.405
2021-08-19 06:21:41.616,0.4,-0.41
2021-08-19 06:21:41.620,0.4,-0.435
2021-08-19 06:21:41.624,0.42,-0.455
2021-08-19 06:21:41.628,0.39,-0.48
2021-08-19 06:21:41.632,0.385,-0.495
2021-08-19 06:21:41.636,0.385,-0.505
2021-08-19 06:21:41.640,0.375,-0.49
2021-08-19 06:21:41.644,0.385,-0.47
2021-08-19 06:21:41.648,0.37,-0.43
2021-08-19 06:21:41.652,0.36,-0.46
2021-08-19 06:21:41.656,0.355,-0.465
2021-08-19 06:21:41.660,0.335,-0.46
2021-08-19 06:21:41.664,0.335,-0.44
2021-08-19 06:21:41.668,0.345,-0.42
2021-08-19 06:21:41.672,0.34,-0.39
2021-08-19 06:21:41.676,0.36,-0.325
2021-08-19 06:21:41.680,0.36,-0.26
2021-08-19 06:21:41.684,0.355,-0.165
2021-08-19 06:21:41.688,0.355,0.035
2021-08-19 06:21:41.692,0.36,0.345
2021-08-19 06:21:41.696,0.395,0.75
2021-08-19 06:21:41.700,0.4,1.105
2021-08-19 06:21:41.704,0.415,1.355
2021-08-19 06:21:41.708,0.415,1.51
2021-08-19 06:21:41.712,0.38,1.515
2021-08-19 06:21:41.716,0.375,1.395
2021-08-19 06:21:41.720,0.36,1.045
2021-08-19 06:21:41.724,0.345,0.505
2021-08-19 06:21:41.728,0.25,-0.075
2021-08-19 06:21:41.732,0.025,-0.395
2021-08-19 06:21:41.736,-0.3,-0.355
2021-08-19 06:21:41.740,-0.585,-0.285
2021-08-19 06:21:41.744,-0.76,-0.395
2021-08-19 06:21:41.748,-0.85,-0.58
2021-08-19 06:21:41.752,-0.855,-0.745
2021-08-19 06:21:41.756,-0.665,-0.825
2021-08-19 06:21:41.760,-0.36,-0.84
2021-08-19 06:21:41.764,-0.025,-0.8
2021-08-19 06:21:41.768,0.135,-0.655
2021-08-19 06:21:41.772,0.175,-0.525
2021-08-19 06:21:41.776,0.185,-0.45
2021-08-19 06:21:41.780,0.185,-0.42
2021-08-19 06:21:41.784,0.215,-0.42
2021-08-19 06:21:41.788,0.255,-0.41
2021-08-19 06:21:41.792,0.335,-0.435
2021-08-19 06:21:41.796,0.425,-0.425
2021-08-19 06:21:41.800,0.48,-0.425
2021-08-19 06:21:41.804,0.55,-0.435
2021-08-19 06:21:41.808,0.57,-0.42
2021-08-19 06:21:41.812,0.57,-0.45
2021-08-19 06:21:41.816,0.555,-0.48
2021-08-19 06:21:41.820,0.56,-0.49
2021-08-19 06:21:41.824,0.505,-0.5
2021-08-19 06:21:41.828,0.46,-0.495
2021-08-19 06:21:41.832,0.43,-0.52
2021-08-19 06:21:41.836,0.43,-0.52
2021-08-19 06:21:41.840,0.41,-0.535
2021-08-19 06:21:41.844,0.425,-0.55
2021-08-19 06:21:41.848,0.425,-0.555
2021-08-19 06:21:41.852,0.425,-0.56
2021-08-19 06:21:41.856,0.41,-0.575
2021-08-19 06:21:41.860,0.415,-0.555
2021-08-19 06:21:41.864,0.4,-0.565
2021-08-19 06:21:41.868,0.405,-0.575
2021-08-19 06:21:41.872,0.395,-0.565
2021-08-19 06:21:41.876,0.395,-0.56
2021-08-19 06:21:41.880,0.4,-0.575
2021-08-19 06:21:41.884,0.385,-0.575
2021-08-19 06:21:41.888,0.415,-0.61
2021-08-19 06:21:41.892,0.42,-0.625
2021-08-19 06:21:41.896,0.415,-0.615
2021-08-19 06:21:41.900,0.42,-0.6
2021-08-19 06:21:41.904,0.415,-0.6
2021-08-19 06:21:41.908,0.405,-0.585
2021-08-19 06:21:41.912,0.43,-0.595
2021-08-19 06:21:41.916,0.41,-0.595
2021-08-19 06:21:41.920,0.415,-0.595
2021-08-19 06:21:41.924,0.42,-0.585
2021-08-19 06:21:41.928,0.425,-0.57
2021-08-19 06:21:41.932,0.44,-0.56
2021-08-19 06:21:41.936,0.46,-0.54
2021-08-19 06:21:41.940,0.45,-0.55
2021-08-19 06:21:41.944,0.465,-0.53
2021-08-19 06:21:41.948,0.465,-0.52
2021-08-19 06:21:41.952,0.475,-0.525
2021-08-19 06:21:41.956,0.475,-0.505
2021-08-19 06:21:41.960,0.465,-0.485
2021-08-19 06:21:41.964,0.48,-0.455
2021-08-19 06:21:41.968,0.48,-0.44
2021-08-19 06:21:41.972,0.485,-0.47
2021-08-19 06:21:41.976,0.47,-0.47
2021-08-19 06:21:41.980,0.46,-0.48
2021-08-19 06:21:41.984,0.45,-0.445
2021-08-19 06:21:41.988,0.45,-0.415
2021-08-19 06:21:41.992,0.44,-0.37
2021-08-19 06:21:41.996,0.475,-0.325
2021-08-19 06:21:42.000,0.445,-0.3
2021-08-19 06:21:42.004,0.445,-0.27
2021-08-19 06:21:42.008,0.425,-0.225
2021-08-19 06:21:42.012,0.445,-0.21
2021-08-19 06:21:42.016,0.45,-0.205
2021-08-19 06:21:42.020,0.475,-0.19
2021-08-19 06:21:42.024,0.515,-0.18
2021-08-19 06:21:42.028,0.51,-0.165
2021-08-19 06:21:42.032,0.515,-0.175
2021-08-19 06:21:42.036,0.515,-0.18
2021-08-19 06:21:42.040,0.52,-0.17
2021-08-19 06:21:42.044,0.5,-0.175
2021-08-19 06:21:42.048,0.475,-0.175
2021-08-19 06:21:42.052,0.46,-0.195
2021-08-19 06:21:42.056,0.445,-0.2
2021-08-19 06:21:42.060,0.4,-0.22
2021-08-19 06:21:42.064,0.35,-0.235
2021-08-19 06:21:42.068,0.335,-0.235
2021-08-19 06:21:42.072,0.325,-0.22
2021-08-19 06:21:42.076,0.295,-0.23
2021-08-19 06:21:42.080,0.3,-0.24
2021-08-19 06:21:42.084,0.29,-0.245
2021-08-19 06:21:42.088,0.28,-0.245
2021-08-19 06:21:42.092,0.275,-0.26
2021-08-19 06:21:42.096,0.28,-0.255
2021-08-19 06:21:42.100,0.27,-0.275
2021-08-19 06:21:42.104,0.28,-0.275
2021-08-19 06:21:42.108,0.265,-0.28
2021-08-19 06:21:42.112,0.29,-0.27
2021-08-19 06:21:42.116,0.275,-0.26
2021-08-19 06:21:42.120,0.285,-0.26
2021-08-19 06:21:42.124,0.295,-0.265
2021-08-19 06:21:42.128,0.28,-0.25
2021-08-19 06:21:42.132,0.315,-0.255
2021-08-19 06:21:42.136,0.315,-0.23
2021-08-19 06:21:42.140,0.325,-0.215
2021-08-19 06:21:42.144,0.31,-0.21
2021-08-19 06:21:42.148,0.32,-0.205
2021-08-19 06:21:42.152,0.305,-0.19
2021-08-19 06:21:42.156,0.315,-0.21
2021-08-19 06:21:42.160,0.34,-0.185
2021-08-19 06:21:42.164,0.34,-0.175
2021-08-19 06:21:42.168,0.365,-0.175
2021-08-19 06:21:42.172,0.365,-0.18
2021-08-19 06:21:42.176,0.36,-0.19
2021-08-19 06:21:42.180,0.335,-0.175
2021-08-19 06:21:42.184,0.33,-0.18
2021-08-19 06:21:42.188,0.32,-0.195
2021-08-19 06:21:42.192,0.335,-0.2
2021-08-19 06:21:42.196,0.315,-0.19
2021-08-19 06:21:42.200,0.31,-0.2
2021-08-19 06:21:42.204,0.295,-0.195
2021-08-19 06:21:42.208,0.305,-0.15
2021-08-19 06:21:42.212,0.3,-0.14
2021-08-19 06:21:42.216,0.31,-0.11
2021-08-19 06:21:42.220,0.3,-0.08
2021-08-19 06:21:42.224,0.265,-0.05
2021-08-19 06:21:42.228,0.28,0.01
2021-08-19 06:21:42.232,0.295,0.07
2021-08-19 06:21:42.236,0.3,0.12
2021-08-19 06:21:42.240,0.315,0.235
2021-08-19 06:21:42.244,0.35,0.44
2021-08-19 06:21:42.248,0.385,0.765
2021-08-19 06:21:42.252,0.42,1.085
2021-08-19 06:21:42.256,0.47,1.32
2021-08-19 06:21:42.260,0.485,1.445
2021-08-19 06:21:42.264,0.45,1.465
2021-08-19 06:21:42.268,0.385,1.35
2021-08-19 06:21:42.272,0.37,1.105
2021-08-19 06:21:42.276,0.335,0.685
2021-08-19 06:21:42.280,0.245,0.17
2021-08-19 06:21:42.284,0.075,-0.26
2021-08-19 06:21:42.288,-0.175,-0.4
2021-08-19 06:21:42.292,-0.47,-0.325
2021-08-19 06:21:42.296,-0.715,-0.345
2021-08-19 06:21:42.300,-0.86,-0.475
2021-08-19 06:21:42.304,-0.91,-0.61
2021-08-19 06:21:42.308,-0.765,-0.695
2021-08-19 06:21:42.312,-0.46,-0.7
2021-08-19 06:21:42.316,-0.195,-0.665
2021-08-19 06:21:42.320,-0.03,-0.585
2021-08-19 06:21:42.324,0.0,-0.48
2021-08-19 06:21:42.328,0.01,-0.43
2021-08-19 06:21:42.332,-0.005,-0.415
2021-08-19 06:21:42.336,0.0,-0.395
2021-08-19 06:21:42.340,0.04,-0.395
2021-08-19 06:21:42.344,0.075,-0.365
2021-08-19 06:21:42.348,0.135,-0.335
2021-08-19 06:21:42.352,0.175,-0.355
2021-08-19 06:21:42.356,0.19,-0.35
2021-08-19 06:21:42.360,0.205,-0.335
2021-08-19 06:21:42.364,0.25,-0.325
2021-08-19 06:21:42.368,0.285,-0.305
2021-08-19 06:21:42.372,0.27,-0.305
2021-08-19 06:21:42.376,0.29,-0.3
2021-08-19 06:21:42.380,0.325,-0.29
2021-08-19 06:21:42.384,0.325,-0.3
2021-08-19 06:21:42.388,0.315,-0.305
2021-08-19 06:21:42.392,0.33,-0.305
2021-08-19 06:21:42.396,0.305,-0.29
2021-08-19 06:21:42.400,0.285,-0.28
2021-08-19 06:21:42.404,0.29,-0.295
2021-08-19 06:21:42.408,0.27,-0.28
2021-08-19 06:21:42.412,0.29,-0.305
2021-08-19 06:21:42.416,0.295,-0.315
2021-08-19 06:21:42.420,0.29,-0.305
2021-08-19 06:21:42.424,0.315,-0.295
2021-08-19 06:21:42.428,0.31,-0.28
2021-08-19 06:21:42.432,0.305,-0.285
2021-08-19 06:21:42.436,0.3,-0.26
2021-08-19 06:21:42.440,0.295,-0.24
2021-08-19 06:21:42.444,0.28,-0.245
2021-08-19 06:21:42.448,0.3,-0.22
2021-08-19 06:21:42.452,0.295,-0.225
2021-08-19 06:21:42.456,0.28,-0.205
2021-08-19 06:21:42.460,0.3,-0.22
2021-08-19 06:21:42.464,0.335,-0.235
2021-08-19 06:21:42.468,0.365,-0.25
2021-08-19 06:21:42.472,0.365,-0.24
2021-08-19 06:21:42.476,0.395,-0.26
2021-08-19 06:21:42.480,0.39,-0.275
2021-08-19 06:21:42.484,0.38,-0.29
2021-08-19 06:21:42.488,0.37,-0.32
2021-08-19 06:21:42.492,0.37,-0.33
2021-08-19 06:21:42.496,0.335,-0.36
2021-08-19 06:21:42.500,0.295,-0.355
2021-08-19 06:21:42.504,0.245,-0.365
2021-08-19 06:21:42.508,0.24,-0.355
2021-08-19 06:21:42.512,0.2,-0.355
2021-08-19 06:21:42.516,0.185,-0.355
2021-08-19 06:21:42.520,0.155,-0.34
2021-08-19 06:21:42.524,0.15,-0.315
2021-08-19 06:21:42.528,0.135,-0.255
2021-08-19 06:21:42.532,0.135,-0.265
2021-08-19 06:21:42.536,0.115,-0.24
2021-08-19 06:21:42.540,0.115,-0.225
2021-08-19 06:21:42.544,0.1,-0.19
2021-08-19 06:21:42.548,0.125,-0.185
2021-08-19 06:21:42.552,0.115,-0.15
2021-08-19 06:21:42.556,0.11,-0.135
2021-08-19 06:21:42.560,0.11,-0.095
2021-08-19 06:21:42.564,0.115,-0.07
2021-08-19 06:21:42.568,0.12,-0.045
2021-08-19 06:21:42.572,0.125,0.0
2021-08-19 06:21:42.576,0.145,0.005
2021-08-19 06:21:42.580,0.145,0.0
2021-08-19 06:21:42.584,0.15,0.005
2021-08-19 06:21:42.588,0.18,0.03
2021-08-19 06:21:42.592,0.19,0.025
2021-08-19 06:21:42.596,0.225,0.015
2021-08-19 06:21:42.600,0.26,0.02
2021-08-19 06:21:42.604,0.255,0.0
2021-08-19 06:21:42.608,0.26,0.015
2021-08-19 06:21:42.612,0.25,0.0
2021-08-19 06:21:42.616,0.25,-0.005
2021-08-19 06:21:42.620,0.24,-0.005
2021-08-19 06:21:42.624,0.235,-0.015
2021-08-19 06:21:42.628,0.235,-0.02
2021-08-19 06:21:42.632,0.25,-0.04
2021-08-19 06:21:42.636,0.24,-0.035
2021-08-19 06:21:42.640,0.24,-0.015
2021-08-19 06:21:42.644,0.23,-0.005
2021-08-19 06:21:42.648,0.26,-0.015
2021-08-19 06:21:42.652,0.24,0.015
2021-08-19 06:21:42.656,0.245,0.025
2021-08-19 06:21:42.660,0.225,0.045
2021-08-19 06:21:42.664,0.22,0.065
2021-08-19 06:21:42.668,0.24,0.105
2021-08-19 06:21:42.672,0.24,0.085
2021-08-19 06:21:42.676,0.275,0.1
2021-08-19 06:21:42.680,0.315,0.08
2021-08-19 06:21:42.684,0.335,0.075
2021-08-19 06:21:42.688,0.34,0.075
2021-08-19 06:21:42.692,0.34,0.075
2021-08-19 06:21:42.696,0.35,0.06
2021-08-19 06:21:42.700,0.35,0.06
2021-08-19 06:21:42.704,0.335,0.03
2021-08-19 06:21:42.708,0.34,0.01
2021-08-19 06:21:42.712,0.315,-0.005
2021-08-19 06:21:42.716,0.265,-0.02
2021-08-19 06:21:42.720,0.245,-0.04
2021-08-19 06:21:42.724,0.21,-0.05
2021-08-19 06:21:42.728,0.21,-0.045
2021-08-19 06:21:42.732,0.18,-0.045
2021-08-19 06:21:42.736,0.17,-0.07
2021-08-19 06:21:42.740,0.16,-0.07
2021-08-19 06:21:42.744,0.16,-0.075
2021-08-19 06:21:42.748,0.15,-0.085
2021-08-19 06:21:42.752,0.14,-0.08
2021-08-19 06:21:42.756,0.15,-0.08
2021-08-19 06:21:42.760,0.14,-0.085
2021-08-19 06:21:42.764,0.135,-0.085
2021-08-19 06:21:42.768,0.145,-0.08
2021-08-19 06:21:42.772,0.15,-0.08
2021-08-19 06:21:42.776,0.15,-0.075
2021-08-19 06:21:42.780,0.175,-0.075
2021-08-19 06:21:42.784,0.185,-0.04
2021-08-19 06:21:42.788,0.165,-0.015
2021-08-19 06:21:42.792,0.19,0.005
2021-08-19 06:21:42.796,0.2,0.0
2021-08-19 06:21:42.800,0.185,0.02
2021-08-19 06:21:42.804,0.195,0.025
2021-08-19 06:21:42.808,0.2,0.03
2021-08-19 06:21:42.812,0.205,0.04
2021-08-19 06:21:42.816,0.235,0.045
2021-08-19 06:21:42.820,0.26,0.03
2021-08-19 06:21:42.824,0.25,0.025
2021-08-19 06:21:42.828,0.275,0.02
2021-08-19 06:21:42.832,0.26,0.035
2021-08-19 06:21:42.836,0.25,0.04
2021-08-19 06:21:42.840,0.245,0.03
2021-08-19 06:21:42.844,0.245,0.03
2021-08-19 06:21:42.848,0.235,0.025
2021-08-19 06:21:42.852,0.24,0.02
2021-08-19 06:21:42.856,0.255,0.03
2021-08-19 06:21:42.860,0.245,0.04
2021-08-19 06:21:42.864,0.225,0.045
2021-08-19 06:21:42.868,0.215,0.05
2021-08-19 06:21:42.872,0.22,0.05
2021-08-19 06:21:42.876,0.22,0.04
2021-08-19 06:21:42.880,0.23,0.035
2021-08-19 06:21:42.884,0.21,0.065
2021-08-19 06:21:42.888,0.26,0.06
2021-08-19 06:21:42.892,0.275,0.09
2021-08-19 06:21:42.896,0.31,0.09
2021-08-19 06:21:42.900,0.33,0.085
2021-08-19 06:21:42.904,0.335,0.095
2021-08-19 06:21:42.908,0.37,0.085
2021-08-19 06:21:42.912,0.335,0.08
2021-08-19 06:21:42.916,0.33,0.08
2021-08-19 06:21:42.920,0.3,0.055
2021-08-19 06:21:42.924,0.285,0.05
2021-08-19 06:21:42.928,0.245,0.025
2021-08-19 06:21:42.932,0.225,0.02
2021-08-19 06:21:42.936,0.215,0.025
2021-08-19 06:21:42.940,0.195,0.0
2021-08-19 06:21:42.944,0.2,0.0
2021-08-19 06:21:42.948,0.17,0.005
2021-08-19 06:21:42.952,0.15,-0.005
2021-08-19 06:21:42.956,0.155,-0.005
2021-08-19 06:21:42.960,0.155,-0.01
2021-08-19 06:21:42.964,0.155,-0.01
2021-08-19 06:21:42.968,0.16,-0.02
2021-08-19 06:21:42.972,0.145,0.005
2021-08-19 06:21:42.976,0.14,-0.015
2021-08-19 06:21:42.980,0.155,-0.025
2021-08-19 06:21:42.984,0.155,-0.01
2021-08-19 06:21:42.988,0.16,-0.025
2021-08-19 06:21:42.992,0.15,-0.005
2021-08-19 06:21:42.996,0.145,0.0
2021-08-19 06:21:43.000,0.16,0.015
2021-08-19 06:21:43.004,0.155,0.03
2021-08-19 06:21:43.008,0.17,0.035
2021-08-19 06:21:43.012,0.16,0.035
2021-08-19 06:21:43.016,0.155,0.06
2021-08-19 06:21:43.020,0.15,0.075
2021-08-19 06:21:43.024,0.185,0.075
2021-08-19 06:21:43.028,0.175,0.08
2021-08-19 06:21:43.032,0.205,0.09
2021-08-19 06:21:43.036,0.18,0.09
2021-08-19 06:21:43.040,0.21,0.09
2021-08-19 06:21:43.044,0.215,0.105
2021-08-19 06:21:43.048,0.235,0.1
2021-08-19 06:21:43.052,0.225,0.1
2021-08-19 06:21:43.056,0.225,0.105
2021-08-19 06:21:43.060,0.225,0.105
2021-08-19 06:21:43.064,0.205,0.11
2021-08-19 06:21:43.068,0.205,0.095
2021-08-19 06:21:43.072,0.205,0.1
2021-08-19 06:21:43.076,0.2,0.105
2021-08-19 06:21:43.080,0.19,0.1
2021-08-19 06:21:43.084,0.175,0.14
2021-08-19 06:21:43.088,0.195,0.175
2021-08-19 06:21:43.092,0.185,0.175
2021-08-19 06:21:43.096,0.175,0.195
2021-08-19 06:21:43.100,0.185,0.21
2021-08-19 06:21:43.104,0.205,0.2
2021-08-19 06:21:43.108,0.195,0.21
2021-08-19 06:21:43.112,0.245,0.19
2021-08-19 06:21:43.116,0.275,0.19
2021-08-19 06:21:43.120,0.295,0.2
2021-08-19 06:21:43.124,0.33,0.2
2021-08-19 06:21:43.128,0.335,0.235
2021-08-19 06:21:43.132,0.34,0.2
2021-08-19 06:21:43.136,0.32,0.18
2021-08-19 06:21:43.140,0.305,0.165
2021-08-19 06:21:43.144,0.3,0.14
2021-08-19 06:21:43.148,0.265,0.13
2021-08-19 06:21:43.152,0.205,0.115
2021-08-19 06:21:43.156,0.19,0.12
2021-08-19 06:21:43.160,0.16,0.095
2021-08-19 06:21:43.164,0.14,0.09
2021-08-19 06:21:43.168,0.15,0.09
2021-08-19 06:21:43.172,0.135,0.075
2021-08-19 06:21:43.176,0.13,0.065
2021-08-19 06:21:43.180,0.125,0.065
2021-08-19 06:21:43.184,0.12,0.06
2021-08-19 06:21:43.188,0.12,0.05
2021-08-19 06:21:43.192,0.12,0.03
2021-08-19 06:21:43.196,0.135,0.055
2021-08-19 06:21:43.200,0.105,0.035
2021-08-19 06:21:43.204,0.105,0.06
2021-08-19 06:21:43.208,0.13,0.01
2021-08-19 06:21:43.212,0.115,0.025
2021-08-19 06:21:43.216,0.12,0.01
2021-08-19 06:21:43.220,0.145,0.02
2021-08-19 06:21:43.224,0.115,0.035
2021-08-19 06:21:43.228,0.11,0.03
2021-08-19 06:21:43.232,0.135,0.025
2021-08-19 06:21:43.236,0.135,0.05
2021-08-19 06:21:43.240,0.15,0.05
2021-08-19 06:21:43.244,0.18,0.07
2021-08-19 06:21:43.248,0.16,0.07
2021-08-19 06:21:43.252,0.175,0.095
2021-08-19 06:21:43.256,0.185,0.115
2021-08-19 06:21:43.260,0.185,0.13
2021-08-19 06:21:43.264,0.185,0.12
2021-08-19 06:21:43.268,0.195,0.125
2021-08-19 06:21:43.272,0.22,0.12
2021-08-19 06:21:43.276,0.205,0.12
2021-08-19 06:21:43.280,0.18,0.13
2021-08-19 06:21:43.284,0.175,0.125
2021-08-19 06:21:43.288,0.2,0.125
2021-08-19 06:21:43.292,0.185,0.115
2021-08-19 06:21:43.296,0.175,0.105
2021-08-19 06:21:43.300,0.17,0.125
2021-08-19 06:21:43.304,0.18,0.14
2021-08-19 06:21:43.308,0.19,0.145
2021-08-19 06:21:43.312,0.185,0.175
2021-08-19 06:21:43.316,0.165,0.19
2021-08-19 06:21:43.320,0.17,0.2
2021-08-19 06:21:43.324,0.16,0.205
2021-08-19 06:21:43.328,0.155,0.21
2021-08-19 06:21:43.332,0.195,0.215
2021-08-19 06:21:43.336,0.225,0.23
2021-08-19 06:21:43.340,0.26,0.24
2021-08-19 06:21:43.344,0.295,0.255
2021-08-19 06:21:43.348,0.29,0.255
2021-08-19 06:21:43.352,0.32,0.25
2021-08-19 06:21:43.356,0.31,0.25
2021-08-19 06:21:43.360,0.295,0.22
2021-08-19 06:21:43.364,0.295,0.185
2021-08-19 06:21:43.368,0.265,0.185
2021-08-19 06:21:43.372,0.225,0.145
2021-08-19 06:21:43.376,0.195,0.135
2021-08-19 06:21:43.380,0.175,0.12
2021-08-19 06:21:43.384,0.13,0.095
2021-08-19 06:21:43.388,0.12,0.1
2021-08-19 06:21:43.392,0.1,0.1
2021-08-19 06:21:43.396,0.12,0.06
2021-08-19 06:21:43.400,0.115,0.075
2021-08-19 06:21:43.404,0.1,0.08
2021-08-19 06:21:43.408,0.08,0.07
2021-08-19 06:21:43.412,0.1,0.065
2021-08-19 06:21:43.416,0.09,0.065
2021-08-19 06:21:43.420,0.105,0.09
2021-08-19 06:21:43.424,0.085,0.06
2021-08-19 06:21:43.428,0.075,0.07
2021-08-19 06:21:43.432,0.095,0.065
2021-08-19 06:21:43.436,0.06,0.075
2021-08-19 06:21:43.440,0.095,0.07
2021-08-19 06:21:43.444,0.1,0.075
2021-08-19 06:21:43.448,0.09,0.075
2021-08-19 06:21:43.452,0.1,0.1
2021-08-19 06:21:43.456,0.095,0.15
2021-08-19 06:21:43.460,0.095,0.205
2021-08-19 06:21:43.464,0.105,0.26
2021-08-19 06:21:43.468,0.125,0.36
2021-08-19 06:21:43.472,0.13,0.545
2021-08-19 06:21:43.476,0.145,0.865
2021-08-19 06:21:43.480,0.165,1.21
2021-08-19 06:21:43.484,0.195,1.475
2021-08-19 06:21:43.488,0.19,1.655
2021-08-19 06:21:43.492,0.16,1.745
2021-08-19 06:21:43.496,0.115,1.72
2021-08-19 06:21:43.500,0.09,1.55
2021-08-19 06:21:43.504,0.08,1.165
2021-08-19 06:21:43.508,0.015,0.61
2021-08-19 06:21:43.512,-0.115,0.105
2021-08-19 06:21:43.516,-0.385,-0.045
2021-08-19 06:21:43.520,-0.67,0.08
2021-08-19 06:21:43.524,-0.95,0.155
2021-08-19 06:21:43.528,-1.055,0.025
2021-08-19 06:21:43.532,-1.12,-0.15
2021-08-19 06:21:43.536,-1.01,-0.24
2021-08-19 06:21:43.540,-0.72,-0.295
2021-08-19 06:21:43.544,-0.38,-0.315
2021-08-19 06:21:43.548,-0.135,-0.25
2021-08-19 06:21:43.552,-0.04,-0.135
2021-08-19 06:21:43.556,-0.02,-0.05
2021-08-19 06:21:43.560,0.005,-0.005
2021-08-19 06:21:43.564,0.055,0.025
2021-08-19 06:21:43.568,0.085,0.03
2021-08-19 06:21:43.572,0.135,0.035
2021-08-19 06:21:43.576,0.19,0.03
2021-08-19 06:21:43.580,0.245,0.02
2021-08-19 06:21:43.584,0.305,0.025
2021-08-19 06:21:43.588,0.3,0.02
2021-08-19 06:21:43.592,0.31,0.005
2021-08-19 06:21:43.596,0.26,0.0
2021-08-19 06:21:43.600,0.245,-0.02
2021-08-19 06:21:43.604,0.225,-0.03
2021-08-19 06:21:43.608,0.225,-0.04
2021-08-19 06:21:43.612,0.21,-0.075
2021-08-19 06:21:43.616,0.2,-0.06
2021-08-19 06:21:43.620,0.22,-0.05
2021-08-19 06:21:43.624,0.2,-0.085
2021-08-19 06:21:43.628,0.2,-0.07
2021-08-19 06:21:43.632,0.175,-0.095
2021-08-19 06:21:43.636,0.185,-0.11
2021-08-19 06:21:43.640,0.19,-0.115
2021-08-19 06:21:43.644,0.185,-0.11
2021-08-19 06:21:43.648,0.175,-0.1
2021-08-19 06:21:43.652,0.185,-0.115
2021-08-19 06:21:43.656,0.195,-0.105
2021-08-19 06:21:43.660,0.18,-0.1
2021-08-19 06:21:43.664,0.195,-0.105
2021-08-19 06:21:43.668,0.19,-0.105
2021-08-19 06:21:43.672,0.18,-0.09
2021-08-19 06:21:43.676,0.21,-0.095
2021-08-19 06:21:43.680,0.215,-0.1
2021-08-19 06:21:43.684,0.21,-0.085
2021-08-19 06:21:43.688,0.23,-0.08
2021-08-19 06:21:43.692,0.235,-0.09
2021-08-19 06:21:43.696,0.24,-0.1
2021-08-19 06:21:43.700,0.275,-0.1
2021-08-19 06:21:43.704,0.26,-0.08
2021-08-19 06:21:43.708,0.25,-0.085
2021-08-19 06:21:43.712,0.245,-0.1
2021-08-19 06:21:43.716,0.235,-0.085
2021-08-19 06:21:43.720,0.22,-0.07
2021-08-19 06:21:43.724,0.21,-0.11
2021-08-19 06:21:43.728,0.22,-0.105
2021-08-19 06:21:43.732,0.195,-0.09
2021-08-19 06:21:43.736,0.205,-0.08
2021-08-19 06:21:43.740,0.21,-0.08
2021-08-19 06:21:43.744,0.2,-0.06
2021-08-19 06:21:43.748,0.19,-0.06
2021-08-19 06:21:43.752,0.19,-0.04
2021-08-19 06:21:43.756,0.21,-0.025
2021-08-19 06:21:43.760,0.215,-0.015
2021-08-19 06:21:43.764,0.215,0.025
2021-08-19 06:21:43.768,0.22,0.015
2021-08-19 06:21:43.772,0.23,0.03
2021-08-19 06:21:43.776,0.235,0.035
2021-08-19 06:21:43.780,0.26,0.045
2021-08-19 06:21:43.784,0.27,0.04
2021-08-19 06:21:43.788,0.29,0.085
2021-08-19 06:21:43.792,0.27,0.06
2021-08-19 06:21:43.796,0.28,0.07
2021-08-19 06:21:43.800,0.29,0.07
2021-08-19 06:21:43.804,0.27,0.08
2021-08-19 06:21:43.808,0.24,0.045
2021-08-19 06:21:43.812,0.205,0.06
2021-08-19 06:21:43.816,0.175,0.065
2021-08-19 06:21:43.820,0.15,0.085
2021-08-19 06:21:43.824,0.105,0.07
2021-08-19 06:21:43.828,0.085,0.1
2021-08-19 06:21:43.832,0.085,0.125
2021-08-19 06:21:43.836,0.07,0.125
2021-08-19 06:21:43.840,0.075,0.135
2021-08-19 06:21:43.844,0.06,0.155
2021-08-19 06:21:43.848,0.035,0.155
2021-08-19 06:21:43.852,0.06,0.16
2021-08-19 06:21:43.856,0.07,0.165
2021-08-19 06:21:43.860,0.075,0.185
2021-08-19 06:21:43.864,0.07,0.205
2021-08-19 06:21:43.868,0.075,0.2
2021-08-19 06:21:43.872,0.095,0.195
2021-08-19 06:21:43.876,0.085,0.205
2021-08-19 06:21:43.880,0.09,0.18
2021-08-19 06:21:43.884,0.08,0.18
2021-08-19 06:21:43.888,0.09,0.19
2021-08-19 06:21:43.892,0.11,0.165
2021-08-19 06:21:43.896,0.11,0.16
2021-08-19 06:21:43.900,0.105,0.15
2021-08-19 06:21:43.904,0.095,0.18
2021-08-19 06:21:43.908,0.125,0.185
2021-08-19 06:21:43.912,0.125,0.205
2021-08-19 06:21:43.916,0.145,0.235
2021-08-19 06:21:43.920,0.16,0.25
2021-08-19 06:21:43.924,0.185,0.275
2021-08-19 06:21:43.928,0.155,0.3
2021-08-19 06:21:43.932,0.18,0.33
2021-08-19 06:21:43.936,0.205,0.345
2021-08-19 06:21:43.940,0.225,0.345
2021-08-19 06:21:43.944,0.25,0.35
2021-08-19 06:21:43.948,0.26,0.345
2021-08-19 06:21:43.952,0.235,0.33
2021-08-19 06:21:43.956,0.245,0.33
2021-08-19 06:21:43.960,0.24,0.325
2021-08-19 06:21:43.964,0.245,0.325
2021-08-19 06:21:43.968,0.245,0.335
2021-08-19 06:21:43.972,0.23,0.325
2021-08-19 06:21:43.976,0.23,0.335
2021-08-19 06:21:43.980,0.23,0.33
2021-08-19 06:21:43.984,0.23,0.34
2021-08-19 06:21:43.988,0.205,0.355
2021-08-19 06:21:43.992,0.26,0.355
2021-08-19 06:21:43.996,0.24,0.335
2021-08-19 06:21:44.000,0.265,0.34
2021-08-19 06:21:44.004,0.285,0.345
2021-08-19 06:21:44.008,0.335,0.315
2021-08-19 06:21:44.012,0.37,0.315
2021-08-19 06:21:44.016,0.35,0.335
2021-08-19 06:21:44.020,0.37,0.33
2021-08-19 06:21:44.024,0.38,0.32
2021-08-19 06:21:44.028,0.33,0.31
2021-08-19 06:21:44.032,0.29,0.28
2021-08-19 06:21:44.036,0.24,0.255
2021-08-19 06:21:44.040,0.225,0.245
2021-08-19 06:21:44.044,0.21,0.22
2021-08-19 06:21:44.048,0.21,0.195
2021-08-19 06:21:44.052,0.195,0.17
2021-08-19 06:21:44.056,0.18,0.175
2021-08-19 06:21:44.060,0.19,0.155
2021-08-19 06:21:44.064,0.175,0.135
2021-08-19 06:21:44.068,0.17,0.155
2021-08-19 06:21:44.072,0.18,0.135
2021-08-19 06:21:44.076,0.17,0.12
2021-08-19 06:21:44.080,0.175,0.14
2021-08-19 06:21:44.084,0.145,0.11
2021-08-19 06:21:44.088,0.165,0.115
2021-08-19 06:21:44.092,0.155,0.085
2021-08-19 06:21:44.096,0.15,0.075
2021-08-19 06:21:44.100,0.155,0.05
2021-08-19 06:21:44.104,0.145,0.03
2021-08-19 06:21:44.108,0.155,0.005
2021-08-19 06:21:44.112,0.15,0.0
2021-08-19 06:21:44.116,0.14,-0.02
2021-08-19 06:21:44.120,0.15,-0.045
2021-08-19 06:21:44.124,0.14,-0.035
2021-08-19 06:21:44.128,0.16,-0.04
2021-08-19 06:21:44.132,0.11,-0.045
2021-08-19 06:21:44.136,0.105,-0.05
2021-08-19 06:21:44.140,0.11,-0.04
2021-08-19 06:21:44.144,0.1,-0.04
2021-08-19 06:21:44.148,0.11,0.0
2021-08-19 06:21:44.152,0.13,0.04
2021-08-19 06:21:44.156,0.12,0.09
2021-08-19 06:21:44.160,0.11,0.12
2021-08-19 06:21:44.164,0.13,0.155
2021-08-19 06:21:44.168,0.125,0.175
2021-08-19 06:21:44.172,0.135,0.195
2021-08-19 06:21:44.176,0.165,0.225
2021-08-19 06:21:44.180,0.155,0.255
2021-08-19 06:21:44.184,0.175,0.315
2021-08-19 06:21:44.188,0.19,0.365
2021-08-19 06:21:44.192,0.205,0.495
2021-08-19 06:21:44.196,0.21,0.74
2021-08-19 06:21:44.200,0.21,1.09
2021-08-19 06:21:44.204,0.225,1.42
2021-08-19 06:21:44.208,0.265,1.625
2021-08-19 06:21:44.212,0.245,1.665
2021-08-19 06:21:44.216,0.22,1.595
2021-08-19 06:21:44.220,0.185,1.395
2021-08-19 06:21:44.224,0.205,1.05
2021-08-19 06:21:44.228,0.17,0.54
2021-08-19 06:21:44.232,0.06,0.075
2021-08-19 06:21:44.236,-0.085,-0.04
2021-08-19 06:21:44.240,-0.355,0.16
2021-08-19 06:21:44.244,-0.66,0.39
2021-08-19 06:21:44.248,-0.89,0.34
2021-08-19 06:21:44.252,-0.98,0.14
2021-08-19 06:21:44.256,-0.96,-0.095
2021-08-19 06:21:44.260,-0.75,-0.23
2021-08-19 06:21:44.264,-0.38,-0.265
2021-08-19 06:21:44.268,-0.06,-0.22
2021-08-19 06:21:44.272,0.07,-0.135
2021-08-19 06:21:44.276,0.06,-0.02
2021-08-19 06:21:44.280,0.025,0.035
2021-08-19 06:21:44.284,0.015,0.035
2021-08-19 06:21:44.288,0.0,0.03
2021-08-19 06:21:44.292,0.015,0.015
2021-08-19 06:21:44.296,0.035,0.02
2021-08-19 06:21:44.300,0.1,0.035
2021-08-19 06:21:44.304,0.165,0.035
2021-08-19 06:21:44.308,0.195,-0.01
2021-08-19 06:21:44.312,0.23,-0.02
2021-08-19 06:21:44.316,0.22,-0.025
2021-08-19 06:21:44.320,0.215,-0.025
2021-08-19 06:21:44.324,0.205,-0.03
2021-08-19 06:21:44.328,0.205,-0.08
2021-08-19 06:21:44.332,0.24,-0.085
2021-08-19 06:21:44.336,0.235,-0.11
2021-08-19 06:21:44.340,0.23,-0.15
2021-08-19 06:21:44.344,0.215,-0.13
2021-08-19 06:21:44.348,0.235,-0.145
2021-08-19 06:21:44.352,0.215,-0.13
2021-08-19 06:21:44.356,0.21,-0.145
2021-08-19 06:21:44.360,0.205,-0.115
2021-08-19 06:21:44.364,0.205,-0.105
2021-08-19 06:21:44.368,0.185,-0.095
2021-08-19 06:21:44.372,0.185,-0.09
2021-08-19 06:21:44.376,0.17,-0.05
2021-08-19 06:21:44.380,0.18,-0.02
2021-08-19 06:21:44.384,0.185,-0.015
2021-08-19 06:21:44.388,0.19,0.0
2021-08-19 06:21:44.392,0.2,0.0
2021-08-19 06:21:44.396,0.175,0.0
2021-08-19 06:21:44.400,0.175,0.0
2021-08-19 06:21:44.404,0.22,0.0
2021-08-19 06:21:44.408,0.22,-0.02
2021-08-19 06:21:44.412,0.225,-0.02
2021-08-19 06:21:44.416,0.25,-0.03
2021-08-19 06:21:44.420,0.275,-0.035
2021-08-19 06:21:44.424,0.29,-0.05
2021-08-19 06:21:44.428,0.27,-0.045
2021-08-19 06:21:44.432,0.28,-0.035
2021-08-19 06:21:44.436,0.27,-0.03
2021-08-19 06:21:44.440,0.25,-0.01
2021-08-19 06:21:44.444,0.26,0.0
2021-08-19 06:21:44.448,0.26,0.005
2021-08-19 06:21:44.452,0.275,0.01
2021-08-19 06:21:44.456,0.295,0.01
2021-08-19 06:21:44.460,0.31,0.015
2021-08-19 06:21:44.464,0.32,0.03
2021-08-19 06:21:44.468,0.365,0.03
2021-08-19 06:21:44.472,0.375,0.06
2021-08-19 06:21:44.476,0.375,0.065
2021-08-19 06:21:44.480,0.385,0.05
2021-08-19 06:21:44.484,0.34,0.06
2021-08-19 06:21:44.488,0.315,0.04
2021-08-19 06:21:44.492,0.28,0.045
2021-08-19 06:21:44.496,0.265,0.065
2021-08-19 06:21:44.500,0.225,0.055
2021-08-19 06:21:44.504,0.225,0.065
2021-08-19 06:21:44.508,0.19,0.07
2021-08-19 06:21:44.512,0.18,0.05
2021-08-19 06:21:44.516,0.165,0.07
2021-08-19 06:21:44.520,0.18,0.085
2021-08-19 06:21:44.524,0.15,0.1
2021-08-19 06:21:44.528,0.155,0.1
2021-08-19 06:21:44.532,0.15,0.105
2021-08-19 06:21:44.536,0.155,0.075
2021-08-19 06:21:44.540,0.14,0.06
2021-08-19 06:21:44.544,0.15,0.025
2021-08-19 06:21:44.548,0.155,0.0
2021-08-19 06:21:44.552,0.155,-0.025
2021-08-19 06:21:44.556,0.155,-0.02
2021-08-19 06:21:44.560,0.17,-0.045
2021-08-19 06:21:44.564,0.155,-0.045
2021-08-19 06:21:44.568,0.15,-0.065
2021-08-19 06:21:44.572,0.155,-0.045
2021-08-19 06:21:44.576,0.145,-0.06
2021-08-19 06:21:44.580,0.15,-0.04
2021-08-19 06:21:44.584,0.125,-0.04
2021-08-19 06:21:44.588,0.155,-0.02
2021-08-19 06:21:44.592,0.145,0.015
2021-08-19 06:21:44.596,0.15,0.04
2021-08-19 06:21:44.600,0.155,0.07
2021-08-19 06:21:44.604,0.155,0.1
2021-08-19 06:21:44.608,0.17,0.105
2021-08-19 06:21:44.612,0.165,0.14
2021-08-19 06:21:44.616,0.17,0.14
2021-08-19 06:21:44.620,0.19,0.15
2021-08-19 06:21:44.624,0.215,0.145
2021-08-19 06:21:44.628,0.2,0.15
2021-08-19 06:21:44.632,0.215,0.145
2021-08-19 06:21:44.636,0.24,0.155
2021-08-19 06:21:44.640,0.24,0.155
2021-08-19 06:21:44.644,0.265,0.13
2021-08-19 06:21:44.648,0.265,0.145
2021-08-19 06:21:44.652,0.24,0.145
2021-08-19 06:21:44.656,0.27,0.19
2021-08-19 06:21:44.660,0.285,0.22
2021-08-19 06:21:44.664,0.27,0.21
2021-08-19 06:21:44.668,0.29,0.25
2021-08-19 06:21:44.672,0.29,0.285
2021-08-19 06:21:44.676,0.31,0.29
2021-08-19 06:21:44.680,0.32,0.28
2021-08-19 06:21:44.684,0.305,0.265
2021-08-19 06:21:44.688,0.31,0.265
2021-08-19 06:21:44.692,0.295,0.25
2021-08-19 06:21:44.696,0.295,0.245
2021-08-19 06:21:44.700,0.275,0.245
2021-08-19 06:21:44.704,0.255,0.225
2021-08-19 06:21:44.708,0.215,0.195
2021-08-19 06:21:44.712,0.21,0.18
2021-08-19 06:21:44.716,0.2,0.195
2021-08-19 06:21:44.720,0.19,0.185
2021-08-19 06:21:44.724,0.215,0.16
2021-08-19 06:21:44.728,0.19,0.155
2021-08-19 06:21:44.732,0.185,0.15
2021-08-19 06:21:44.736,0.205,0.165
2021-08-19 06:21:44.740,0.14,0.17
2021-08-19 06:21:44.744,0.195,0.215
2021-08-19 06:21:44.748,0.2,0.235
2021-08-19 06:21:44.752,0.165,0.26
2021-08-19 06:21:44.756,0.2,0.335
2021-08-19 06:21:44.760,0.175,0.53
2021-08-19 06:21:44.764,0.165,0.85
2021-08-19 06:21:44.768,0.18,1.19
2021-08-19 06:21:44.772,0.195,1.375
2021-08-19 06:21:44.776,0.215,1.425
2021-08-19 06:21:44.780,0.175,1.4
2021-08-19 06:21:44.784,0.135,1.225
2021-08-19 06:21:44.788,0.095,0.915
2021-08-19 06:21:44.792,0.085,0.445
2021-08-19 06:21:44.796,0.015,0.005
2021-08-19 06:21:44.800,-0.16,-0.18
2021-08-19 06:21:44.804,-0.455,-0.04
2021-08-19 06:21:44.808,-0.765,0.155
2021-08-19 06:21:44.812,-1.02,0.135
2021-08-19 06:21:44.816,-1.205,-0.08
2021-08-19 06:21:44.820,-1.2,-0.27
2021-08-19 06:21:44.824,-1.02,-0.38
2021-08-19 06:21:44.828,-0.67,-0.43
2021-08-19 06:21:44.832,-0.295,-0.37
2021-08-19 06:21:44.836,-0.07,-0.25
2021-08-19 06:21:44.840,-0.005,-0.12
2021-08-19 06:21:44.844,0.0,-0.085
2021-08-19 06:21:44.848,-0.02,-0.035
2021-08-19 06:21:44.852,-0.015,-0.04
2021-08-19 06:21:44.856,0.02,-0.025
2021-08-19 06:21:44.860,0.07,-0.035
2021-08-19 06:21:44.864,0.11,-0.005
2021-08-19 06:21:44.868,0.19,-0.025
2021-08-19 06:21:44.872,0.25,-0.01
2021-08-19 06:21:44.876,0.275,0.0
2021-08-19 06:21:44.880,0.29,0.005
2021-08-19 06:21:44.884,0.315,0.035
2021-08-19 06:21:44.888,0.335,0.06
2021-08-19 06:21:44.892,0.355,0.09
2021-08-19 06:21:44.896,0.375,0.1
2021-08-19 06:21:44.900,0.375,0.125
2021-08-19 06:21:44.904,0.375,0.14
2021-08-19 06:21:44.908,0.39,0.125
2021-08-19 06:21:44.912,0.365,0.135
2021-08-19 06:21:44.916,0.365,0.125
2021-08-19 06:21:44.920,0.315,0.12
2021-08-19 06:21:44.924,0.315,0.1
2021-08-19 06:21:44.928,0.3,0.085
2021-08-19 06:21:44.932,0.31,0.075
2021-08-19 06:21:44.936,0.315,0.065
2021-08-19 06:21:44.940,0.305,0.04
2021-08-19 06:21:44.944,0.305,0.015
2021-08-19 06:21:44.948,0.305,0.015
2021-08-19 06:21:44.952,0.285,0.0
2021-08-19 06:21:44.956,0.3,-0.035
2021-08-19 06:21:44.960,0.285,-0.055
2021-08-19 06:21:44.964,0.305,-0.04
2021-08-19 06:21:44.968,0.285,-0.055
2021-08-19 06:21:44.972,0.275,-0.08
2021-08-19 06:21:44.976,0.255,-0.09
2021-08-19 06:21:44.980,0.285,-0.075
2021-08-19 06:21:44.984,0.27,-0.09
2021-08-19 06:21:44.988,0.275,-0.09
2021-08-19 06:21:44.992,0.3,-0.12
2021-08-19 06:21:44.996,0.28,-0.135
2021-08-19 06:21:45.000,0.3,-0.16
2021-08-19 06:21:45.004,0.295,-0.16
2021-08-19 06:21:45.008,0.27,-0.2
2021-08-19 06:21:45.012,0.27,-0.225
2021-08-19 06:21:45.016,0.26,-0.21
2021-08-19 06:21:45.020,0.27,-0.23
2021-08-19 06:21:45.024,0.265,-0.215
2021-08-19 06:21:45.028,0.24,-0.22
2021-08-19 06:21:45.032,0.25,-0.21
2021-08-19 06:21:45.036,0.235,-0.18
2021-08-19 06:21:45.040,0.235,-0.155
2021-08-19 06:21:45.044,0.235,-0.11
2021-08-19 06:21:45.048,0.23,-0.055
2021-08-19 06:21:45.052,0.225,0.0
2021-08-19 06:21:45.056,0.22,0.055
2021-08-19 06:21:45.060,0.22,0.105
2021-08-19 06:21:45.064,0.21,0.15
2021-08-19 06:21:45.068,0.23,0.18
2021-08-19 06:21:45.072,0.24,0.2
2021-08-19 06:21:45.076,0.235,0.21
2021-08-19 06:21:45.080,0.245,0.23
2021-08-19 06:21:45.084,0.265,0.245
2021-08-19 06:21:45.088,0.285,0.255
2021-08-19 06:21:45.092,0.295,0.255
2021-08-19 06:21:45.096,0.265,0.265
2021-08-19 06:21:45.100,0.29,0.265
2021-08-19 06:21:45.104,0.28,0.28
2021-08-19 06:21:45.108,0.3,0.29
2021-08-19 06:21:45.112,0.3,0.31
2021-08-19 06:21:45.116,0.3,0.315
2021-08-19 06:21:45.120,0.315,0.32
2021-08-19 06:21:45.124,0.315,0.35
2021-08-19 06:21:45.128,0.3,0.34
2021-08-19 06:21:45.132,0.31,0.325
2021-08-19 06:21:45.136,0.295,0.31
2021-08-19 06:21:45.140,0.28,0.3
2021-08-19 06:21:45.144,0.29,0.295
2021-08-19 06:21:45.148,0.255,0.29
2021-08-19 06:21:45.152,0.22,0.285
2021-08-19 06:21:45.156,0.22,0.255
2021-08-19 06:21:45.160,0.195,0.26
2021-08-19 06:21:45.164,0.195,0.23
2021-08-19 06:21:45.168,0.205,0.21
2021-08-19 06:21:45.172,0.18,0.205
2021-08-19 06:21:45.176,0.19,0.18
2021-08-19 06:21:45.180,0.21,0.17
2021-08-19 06:21:45.184,0.23,0.165
2021-08-19 06:21:45.188,0.225,0.155
2021-08-19 06:21:45.192,0.205,0.12
2021-08-19 06:21:45.196,0.2,0.125
2021-08-19 06:21:45.200,0.225,0.11
2021-08-19 06:21:45.204,0.21,0.125
2021-08-19 06:21:45.208,0.225,0.12
2021-08-19 06:21:45.212,0.215,0.115
2021-08-19 06:21:45.216,0.205,0.105
2021-08-19 06:21:45.220,0.185,0.085
2021-08-19 06:21:45.224,0.195,0.085
2021-08-19 06:21:45.228,0.165,0.06
2021-08-19 06:21:45.232,0.185,0.025
2021-08-19 06:21:45.236,0.215,0.01
2021-08-19 06:21:45.240,0.18,-0.035
2021-08-19 06:21:45.244,0.19,-0.05
2021-08-19 06:21:45.248,0.185,-0.09
2021-08-19 06:21:45.252,0.19,-0.08
2021-08-19 06:21:45.256,0.2,-0.1
2021-08-19 06:21:45.260,0.165,-0.095
2021-08-19 06:21:45.264,0.14,-0.07
2021-08-19 06:21:45.268,0.14,-0.09
2021-08-19 06:21:45.272,0.145,-0.065
2021-08-19 06:21:45.276,0.135,-0.035
2021-08-19 06:21:45.280,0.155,0.0
2021-08-19 06:21:45.284,0.14,0.005
2021-08-19 06:21:45.288,0.145,0.03
2021-08-19 06:21:45.292,0.135,0.07
2021-08-19 06:21:45.296,0.155,0.125
2021-08-19 06:21:45.300,0.155,0.125
2021-08-19 06:21:45.304,0.155,0.155
2021-08-19 06:21:45.308,0.165,0.18
2021-08-19 06:21:45.312,0.145,0.175
2021-08-19 06:21:45.316,0.17,0.185
2021-08-19 06:21:45.320,0.205,0.175
2021-08-19 06:21:45.324,0.205,0.14
2021-08-19 06:21:45.328,0.21,0.15
2021-08-19 06:21:45.332,0.23,0.165
2021-08-19 06:21:45.336,0.23,0.16
2021-08-19 06:21:45.340,0.255,0.17
2021-08-19 06:21:45.344,0.22,0.19
2021-08-19 06:21:45.348,0.235,0.24
2021-08-19 06:21:45.352,0.26,0.28
2021-08-19 06:21:45.356,0.255,0.31
2021-08-19 06:21:45.360,0.275,0.285
2021-08-19 06:21:45.364,0.285,0.27
2021-08-19 06:21:45.368,0.29,0.25
2021-08-19 06:21:45.372,0.255,0.245
2021-08-19 06:21:45.376,0.25,0.24
2021-08-19 06:21:45.380,0.27,0.22
2021-08-19 06:21:45.384,0.215,0.2
2021-08-19 06:21:45.388,0.185,0.17
2021-08-19 06:21:45.392,0.18,0.125
2021-08-19 06:21:45.396,0.19,0.11
2021-08-19 06:21:45.400,0.18,0.105
2021-08-19 06:21:45.404,0.175,0.065
2021-08-19 06:21:45.408,0.175,0.08
2021-08-19 06:21:45.412,0.16,0.095
2021-08-19 06:21:45.416,0.135,0.065
2021-08-19 06:21:45.420,0.155,0.07
2021-08-19 06:21:45.424,0.145,0.045
2021-08-19 06:21:45.428,0.13,0.045
2021-08-19 06:21:45.432,0.135,0.065
2021-08-19 06:21:45.436,0.135,0.075
2021-08-19 06:21:45.440,0.14,0.13
2021-08-19 06:21:45.444,0.155,0.19
2021-08-19 06:21:45.448,0.15,0.24
2021-08-19 06:21:45.452,0.14,0.315
2021-08-19 06:21:45.456,0.13,0.51
2021-08-19 06:21:45.460,0.125,0.795
2021-08-19 06:21:45.464,0.135,1.1
2021-08-19 06:21:45.468,0.175,1.26
2021-08-19 06:21:45.472,0.15,1.29
2021-08-19 06:21:45.476,0.155,1.245
2021-08-19 06:21:45.480,0.14,1.1
2021-08-19 06:21:45.484,0.105,0.825
2021-08-19 06:21:45.488,0.04,0.38
2021-08-19 06:21:45.492,-0.03,-0.105
2021-08-19 06:21:45.496,-0.2,-0.38
2021-08-19 06:21:45.500,-0.5,-0.315
2021-08-19 06:21:45.504,-0.815,-0.05
2021-08-19 06:21:45.508,-1.095,0.07
2021-08-19 06:21:45.512,-1.28,-0.06
2021-08-19 06:21:45.516,-1.345,-0.275
2021-08-19 06:21:45.520,-1.23,-0.405
2021-08-19 06:21:45.524,-0.95,-0.47
2021-08-19 06:21:45.528,-0.57,-0.465
2021-08-19 06:21:45.532,-0.215,-0.37
2021-08-19 06:21:45.536,-0.075,-0.245
2021-08-19 06:21:45.540,-0.04,-0.13
2021-08-19 06:21:45.544,-0.055,-0.04
2021-08-19 06:21:45.548,-0.055,-0.03
2021-08-19 06:21:45.552,-0.045,-0.02
2021-08-19 06:21:45.556,-0.015,-0.025
2021-08-19 06:21:45.560,0.045,-0.035
2021-08-19 06:21:45.564,0.11,-0.03
2021-08-19 06:21:45.568,0.17,-0.015
2021-08-19 06:21:45.572,0.25,-0.02
2021-08-19 06:21:45.576,0.28,-0.005
2021-08-19 06:21:45.580,0.315,0.025
2021-08-19 06:21:45.584,0.3,0.015
2021-08-19 06:21:45.588,0.345,0.045
2021-08-19 06:21:45.592,0.35,0.06
2021-08-19 06:21:45.596,0.355,0.08
2021-08-19 06:21:45.600,0.355,0.09
2021-08-19 06:21:45.604,0.335,0.085
2021-08-19 06:21:45.608,0.34,0.09
2021-08-19 06:21:45.612,0.345,0.065
2021-08-19 06:21:45.616,0.315,0.055
2021-08-19 06:21:45.620,0.305,0.055
2021-08-19 06:21:45.624,0.3,0.025
2021-08-19 06:21:45.628,0.315,0.0
2021-08-19 06:21:45.632,0.29,-0.02
2021-08-19 06:21:45.636,0.29,-0.045
2021-08-19 06:21:45.640,0.28,-0.05
2021-08-19 06:21:45.644,0.295,-0.08
2021-08-19 06:21:45.648,0.285,-0.085
2021-08-19 06:21:45.652,0.295,-0.11
2021-08-19 06:21:45.656,0.295,-0.11
2021-08-19 06:21:45.660,0.295,-0.105
2021-08-19 06:21:45.664,0.265,-0.135
2021-08-19 06:21:45.668,0.275,-0.14
2021-08-19 06:21:45.672,0.28,-0.145
2021-08-19 06:21:45.676,0.27,-0.13
2021-08-19 06:21:45.680,0.275,-0.145
2021-08-19 06:21:45.684,0.275,-0.16
2021-08-19 06:21:45.688,0.245,-0.195
2021-08-19 06:21:45.692,0.275,-0.215
2021-08-19 06:21:45.696,0.24,-0.215
2021-08-19 06:21:45.700,0.255,-0.245
2021-08-19 06:21:45.704,0.245,-0.285
2021-08-19 06:21:45.708,0.265,-0.305
2021-08-19 06:21:45.712,0.255,-0.325
2021-08-19 06:21:45.716,0.235,-0.335
2021-08-19 06:21:45.720,0.24,-0.325
2021-08-19 06:21:45.724,0.23,-0.335
2021-08-19 06:21:45.728,0.235,-0.315
2021-08-19 06:21:45.732,0.195,-0.29
2021-08-19 06:21:45.736,0.2,-0.285
2021-08-19 06:21:45.740,0.195,-0.275
2021-08-19 06:21:45.744,0.205,-0.245
2021-08-19 06:21:45.748,0.18,-0.205
2021-08-19 06:21:45.752,0.18,-0.165
2021-08-19 06:21:45.756,0.185,-0.1
2021-08-19 06:21:45.760,0.185,-0.075
2021-08-19 06:21:45.764,0.19,-0.04
2021-08-19 06:21:45.768,0.17,0.01
2021-08-19 06:21:45.772,0.185,0.05
2021-08-19 06:21:45.776,0.185,0.065
2021-08-19 06:21:45.780,0.22,0.11
2021-08-19 06:21:45.784,0.23,0.11
2021-08-19 06:21:45.788,0.22,0.15
2021-08-19 06:21:45.792,0.26,0.19
2021-08-19 06:21:45.796,0.26,0.205
2021-08-19 06:21:45.800,0.265,0.215
2021-08-19 06:21:45.804,0.28,0.225
2021-08-19 06:21:45.808,0.275,0.25
2021-08-19 06:21:45.812,0.29,0.26
2021-08-19 06:21:45.816,0.305,0.285
2021-08-19 06:21:45.820,0.295,0.31
2021-08-19 06:21:45.824,0.345,0.315
2021-08-19 06:21:45.828,0.31,0.335
2021-08-19 06:21:45.832,0.335,0.335
2021-08-19 06:21:45.836,0.315,0.35
2021-08-19 06:21:45.840,0.31,0.345
2021-08-19 06:21:45.844,0.31,0.325
2021-08-19 06:21:45.848,0.31,0.31
2021-08-19 06:21:45.852,0.285,0.3
2021-08-19 06:21:45.856,0.295,0.29
2021-08-19 06:21:45.860,0.275,0.27
2021-08-19 06:21:45.864,0.275,0.235
2021-08-19 06:21:45.868,0.25,0.22
2021-08-19 06:21:45.872,0.245,0.195
2021-08-19 06:21:45.876,0.235,0.185
2021-08-19 06:21:45.880,0.25,0.155
2021-08-19 06:21:45.884,0.245,0.16
2021-08-19 06:21:45.888,0.25,0.14
2021-08-19 06:21:45.892,0.25,0.11
2021-08-19 06:21:45.896,0.24,0.115
2021-08-19 06:21:45.900,0.25,0.11
2021-08-19 06:21:45.904,0.235,0.095
2021-08-19 06:21:45.908,0.235,0.095
2021-08-19 06:21:45.912,0.24,0.095
2021-08-19 06:21:45.916,0.22,0.07
2021-08-19 06:21:45.920,0.23,0.045
2021-08-19 06:21:45.924,0.23,0.005
2021-08-19 06:21:45.928,0.225,-0.005
2021-08-19 06:21:45.932,0.255,-0.02
2021-08-19 06:21:45.936,0.245,-0.04
2021-08-19 06:21:45.940,0.255,-0.07
2021-08-19 06:21:45.944,0.24,-0.095
2021-08-19 06:21:45.948,0.23,-0.12
2021-08-19 06:21:45.952,0.23,-0.13
2021-08-19 06:21:45.956,0.215,-0.135
2021-08-19 06:21:45.960,0.22,-0.15
2021-08-19 06:21:45.964,0.19,-0.145
2021-08-19 06:21:45.968,0.205,-0.145
2021-08-19 06:21:45.972,0.185,-0.145
2021-08-19 06:21:45.976,0.195,-0.125
2021-08-19 06:21:45.980,0.185,-0.095
2021-08-19 06:21:45.984,0.19,-0.09
2021-08-19 06:21:45.988,0.165,-0.05
2021-08-19 06:21:45.992,0.17,-0.03
2021-08-19 06:21:45.996,0.165,-0.005
2021-08-19 06:21:46.000,0.18,-0.005
2021-08-19 06:21:46.004,0.16,0.01
2021-08-19 06:21:46.008,0.2,0.045
2021-08-19 06:21:46.012,0.195,0.05
2021-08-19 06:21:46.016,0.195,0.03
2021-08-19 06:21:46.020,0.215,0.035
2021-08-19 06:21:46.024,0.23,0.04
2021-08-19 06:21:46.028,0.24,0.04
2021-08-19 06:21:46.032,0.255,0.075
2021-08-19 06:21:46.036,0.265,0.085
2021-08-19 06:21:46.040,0.265,0.115
2021-08-19 06:21:46.044,0.27,0.13
2021-08-19 06:21:46.048,0.3,0.155
2021-08-19 06:21:46.052,0.33,0.21
2021-08-19 06:21:46.056,0.355,0.2
2021-08-19 06:21:46.060,0.355,0.19
2021-08-19 06:21:46.064,0.335,0.19
2021-08-19 06:21:46.068,0.315,0.21
2021-08-19 06:21:46.072,0.285,0.22
2021-08-19 06:21:46.076,0.255,0.215
2021-08-19 06:21:46.080,0.235,0.2
2021-08-19 06:21:46.084,0.21,0.19
2021-08-19 06:21:46.088,0.18,0.205
2021-08-19 06:21:46.092,0.18,0.19
2021-08-19 06:21:46.096,0.225,0.18
2021-08-19 06:21:46.100,0.255,0.17
2021-08-19 06:21:46.104,0.24,0.135
2021-08-19 06:21:46.108,0.26,0.125
2021-08-19 06:21:46.112,0.26,0.135
2021-08-19 06:21:46.116,0.27,0.12
2021-08-19 06:21:46.120,0.29,0.11
2021-08-19 06:21:46.124,0.27,0.085
2021-08-19 06:21:46.128,0.255,0.095
2021-08-19 06:21:46.132,0.245,0.085
2021-08-19 06:21:46.136,0.24,0.085
2021-08-19 06:21:46.140,0.265,0.095
2021-08-19 06:21:46.144,0.235,0.09
2021-08-19 06:21:46.148,0.24,0.08
2021-08-19 06:21:46.152,0.265,0.09
2021-08-19 06:21:46.156,0.26,0.07
2021-08-19 06:21:46.160,0.26,0.035
2021-08-19 06:21:46.164,0.255,0.02
2021-08-19 06:21:46.168,0.26,-0.01
2021-08-19 06:21:46.172,0.275,-0.03
2021-08-19 06:21:46.176,0.27,-0.055
2021-08-19 06:21:46.180,0.265,-0.085
2021-08-19 06:21:46.184,0.255,-0.11
2021-08-19 06:21:46.188,0.24,-0.135
2021-08-19 06:21:46.192,0.25,-0.145
2021-08-19 06:21:46.196,0.25,-0.15
2021-08-19 06:21:46.200,0.225,-0.13
2021-08-19 06:21:46.204,0.205,-0.145
2021-08-19 06:21:46.208,0.21,-0.115
2021-08-19 06:21:46.212,0.2,-0.095
2021-08-19 06:21:46.216,0.21,-0.055
2021-08-19 06:21:46.220,0.215,-0.03
2021-08-19 06:21:46.224,0.21,-0.01
2021-08-19 06:21:46.228,0.185,0.03
2021-08-19 06:21:46.232,0.195,0.03
2021-08-19 06:21:46.236,0.205,0.08
2021-08-19 06:21:46.240,0.195,0.07
2021-08-19 06:21:46.244,0.21,0.08
2021-08-19 06:21:46.248,0.22,0.075
2021-08-19 06:21:46.252,0.235,0.065
2021-08-19 06:21:46.256,0.235,0.06
2021-08-19 06:21:46.260,0.27,0.04
2021-08-19 06:21:46.264,0.27,0.06
2021-08-19 06:21:46.268,0.265,0.045
2021-08-19 06:21:46.272,0.265,0.045
2021-08-19 06:21:46.276,0.275,0.05
2021-08-19 06:21:46.280,0.285,0.07
2021-08-19 06:21:46.284,0.305,0.115
2021-08-19 06:21:46.288,0.31,0.105
2021-08-19 06:21:46.292,0.32,0.12
2021-08-19 06:21:46.296,0.345,0.135
2021-08-19 06:21:46.300,0.325,0.16
2021-08-19 06:21:46.304,0.32,0.18
2021-08-19 06:21:46.308,0.29,0.17
2021-08-19 06:21:46.312,0.23,0.165
2021-08-19 06:21:46.316,0.185,0.15
2021-08-19 06:21:46.320,0.17,0.135
2021-08-19 06:21:46.324,0.15,0.145
2021-08-19 06:21:46.328,0.16,0.17
2021-08-19 06:21:46.332,0.195,0.22
2021-08-19 06:21:46.336,0.205,0.265
2021-08-19 06:21:46.340,0.205,0.34
2021-08-19 06:21:46.344,0.225,0.495
2021-08-19 06:21:46.348,0.22,0.76
2021-08-19 06:21:46.352,0.225,1.03
2021-08-19 06:21:46.356,0.235,1.2
2021-08-19 06:21:46.360,0.26,1.225
2021-08-19 06:21:46.364,0.235,1.175
2021-08-19 06:21:46.368,0.2,1.005
2021-08-19 06:21:46.372,0.165,0.735
2021-08-19 06:21:46.376,0.125,0.36
2021-08-19 06:21:46.380,0.07,-0.1
2021-08-19 06:21:46.384,-0.06,-0.405
2021-08-19 06:21:46.388,-0.33,-0.37
2021-08-19 06:21:46.392,-0.64,-0.125
2021-08-19 06:21:46.396,-0.895,0.025
2021-08-19 06:21:46.400,-1.07,-0.1
2021-08-19 06:21:46.404,-1.15,-0.37
2021-08-19 06:21:46.408,-1.09,-0.57
2021-08-19 06:21:46.412,-0.82,-0.675
2021-08-19 06:21:46.416,-0.425,-0.725
2021-08-19 06:21:46.420,-0.125,-0.665
2021-08-19 06:21:46.424,0.01,-0.57
2021-08-19 06:21:46.428,0.015,-0.495
2021-08-19 06:21:46.432,-0.005,-0.44
2021-08-19 06:21:46.436,-0.015,-0.41
2021-08-19 06:21:46.440,-0.025,-0.38
2021-08-19 06:21:46.444,0.0,-0.37
2021-08-19 06:21:46.448,0.015,-0.34
2021-08-19 06:21:46.452,0.085,-0.29
2021-08-19 06:21:46.456,0.135,-0.27
2021-08-19 06:21:46.460,0.18,-0.205
2021-08-19 06:21:46.464,0.21,-0.17
2021-08-19 06:21:46.468,0.22,-0.145
2021-08-19 06:21:46.472,0.255,-0.155
2021-08-19 06:21:46.476,0.26,-0.125
2021-08-19 06:21:46.480,0.285,-0.13
2021-08-19 06:21:46.484,0.295,-0.14
2021-08-19 06:21:46.488,0.31,-0.12
2021-08-19 06:21:46.492,0.32,-0.11
2021-08-19 06:21:46.496,0.335,-0.11
2021-08-19 06:21:46.500,0.355,-0.1
2021-08-19 06:21:46.504,0.35,-0.105
2021-08-19 06:21:46.508,0.365,-0.08
2021-08-19 06:21:46.512,0.365,-0.085
2021-08-19 06:21:46.516,0.39,-0.06
2021-08-19 06:21:46.520,0.405,-0.03
2021-08-19 06:21:46.524,0.4,-0.06
2021-08-19 06:21:46.528,0.42,-0.015
2021-08-19 06:21:46.532,0.425,-0.04
2021-08-19 06:21:46.536,0.42,-0.01
2021-08-19 06:21:46.540,0.425,-0.02
2021-08-19 06:21:46.544,0.425,-0.005
2021-08-19 06:21:46.548,0.41,-0.045
2021-08-19 06:21:46.552,0.395,-0.065
2021-08-19 06:21:46.556,0.385,-0.075
2021-08-19 06:21:46.560,0.38,-0.08
2021-08-19 06:21:46.564,0.35,-0.1
2021-08-19 06:21:46.568,0.31,-0.12
2021-08-19 06:21:46.572,0.325,-0.14
2021-08-19 06:21:46.576,0.31,-0.175
2021-08-19 06:21:46.580,0.31,-0.18
2021-08-19 06:21:46.584,0.295,-0.21
2021-08-19 06:21:46.588,0.285,-0.225
2021-08-19 06:21:46.592,0.28,-0.245
2021-08-19 06:21:46.596,0.28,-0.29
2021-08-19 06:21:46.600,0.29,-0.29
2021-08-19 06:21:46.604,0.3,-0.3
2021-08-19 06:21:46.608,0.29,-0.31
2021-08-19 06:21:46.612,0.275,-0.3
2021-08-19 06:21:46.616,0.285,-0.31
2021-08-19 06:21:46.620,0.28,-0.31
2021-08-19 06:21:46.624,0.255,-0.285
2021-08-19 06:21:46.628,0.265,-0.31
2021-08-19 06:21:46.632,0.26,-0.32
2021-08-19 06:21:46.636,0.26,-0.34
2021-08-19 06:21:46.640,0.26,-0.38
2021-08-19 06:21:46.644,0.25,-0.395
2021-08-19 06:21:46.648,0.28,-0.41
2021-08-19 06:21:46.652,0.28,-0.41
2021-08-19 06:21:46.656,0.265,-0.41
2021-08-19 06:21:46.660,0.245,-0.41
2021-08-19 06:21:46.664,0.23,-0.395
2021-08-19 06:21:46.668,0.22,-0.37
2021-08-19 06:21:46.672,0.21,-0.335
2021-08-19 06:21:46.676,0.185,-0.3
2021-08-19 06:21:46.680,0.21,-0.28
2021-08-19 06:21:46.684,0.195,-0.225
2021-08-19 06:21:46.688,0.18,-0.175
2021-08-19 06:21:46.692,0.2,-0.12
2021-08-19 06:21:46.696,0.205,-0.065
2021-08-19 06:21:46.700,0.185,-0.03
2021-08-19 06:21:46.704,0.205,-0.005
2021-08-19 06:21:46.708,0.19,0.035
2021-08-19 06:21:46.712,0.2,0.045
2021-08-19 06:21:46.716,0.22,0.07
2021-08-19 06:21:46.720,0.245,0.09
2021-08-19 06:21:46.724,0.27,0.09
2021-08-19 06:21:46.728,0.305,0.1
2021-08-19 06:21:46.732,0.285,0.095
2021-08-19 06:21:46.736,0.315,0.1
2021-08-19 06:21:46.740,0.34,0.095
2021-08-19 06:21:46.744,0.335,0.105
2021-08-19 06:21:46.748,0.325,0.14
2021-08-19 06:21:46.752,0.375,0.145
2021-08-19 06:21:46.756,0.375,0.15
2021-08-19 06:21:46.760,0.38,0.15
2021-08-19 06:21:46.764,0.395,0.155
2021-08-19 06:21:46.768,0.39,0.155
2021-08-19 06:21:46.772,0.41,0.175
2021-08-19 06:21:46.776,0.39,0.15
2021-08-19 06:21:46.780,0.38,0.13
2021-08-19 06:21:46.784,0.365,0.11
2021-08-19 06:21:46.788,0.35,0.105
2021-08-19 06:21:46.792,0.315,0.08
2021-08-19 06:21:46.796,0.325,0.055
2021-08-19 06:21:46.800,0.31,0.03
2021-08-19 06:21:46.804,0.32,0.02
2021-08-19 06:21:46.808,0.295,-0.01
2021-08-19 06:21:46.812,0.29,-0.015
2021-08-19 06:21:46.816,0.295,-0.02
2021-08-19 06:21:46.820,0.295,-0.03
2021-08-19 06:21:46.824,0.305,-0.045
2021-08-19 06:21:46.828,0.295,-0.075
2021-08-19 06:21:46.832,0.295,-0.075
2021-08-19 06:21:46.836,0.3,-0.065
2021-08-19 06:21:46.840,0.305,-0.075
2021-08-19 06:21:46.844,0.305,-0.09
2021-08-19 06:21:46.848,0.295,-0.07
2021-08-19 06:21:46.852,0.295,-0.11
2021-08-19 06:21:46.856,0.27,-0.12
2021-08-19 06:21:46.860,0.285,-0.155
2021-08-19 06:21:46.864,0.285,-0.165
2021-08-19 06:21:46.868,0.29,-0.19
2021-08-19 06:21:46.872,0.275,-0.22
2021-08-19 06:21:46.876,0.295,-0.24
2021-08-19 06:21:46.880,0.3,-0.27
2021-08-19 06:21:46.884,0.27,-0.27
2021-08-19 06:21:46.888,0.29,-0.29
2021-08-19 06:21:46.892,0.285,-0.285
2021-08-19 06:21:46.896,0.28,-0.285
2021-08-19 06:21:46.900,0.25,-0.255
2021-08-19 06:21:46.904,0.27,-0.23
2021-08-19 06:21:46.908,0.25,-0.23
2021-08-19 06:21:46.912,0.24,-0.19
2021-08-19 06:21:46.916,0.25,-0.15
2021-08-19 06:21:46.920,0.24,-0.14
2021-08-19 06:21:46.924,0.235,-0.125
2021-08-19 06:21:46.928,0.24,-0.095
2021-08-19 06:21:46.932,0.25,-0.065
2021-08-19 06:21:46.936,0.26,-0.055
2021-08-19 06:21:46.940,0.27,-0.025
2021-08-19 06:21:46.944,0.27,-0.045
2021-08-19 06:21:46.948,0.295,-0.015
2021-08-19 06:21:46.952,0.305,-0.03
2021-08-19 06:21:46.956,0.32,-0.03
2021-08-19 06:21:46.960,0.335,-0.02
2021-08-19 06:21:46.964,0.335,-0.05
2021-08-19 06:21:46.968,0.36,-0.035
2021-08-19 06:21:46.972,0.37,-0.025
2021-08-19 06:21:46.976,0.37,0.03
2021-08-19 06:21:46.980,0.375,0.055
2021-08-19 06:21:46.984,0.375,0.075
2021-08-19 06:21:46.988,0.375,0.1
2021-08-19 06:21:46.992,0.385,0.11
2021-08-19 06:21:46.996,0.405,0.16
2021-08-19 06:21:47.000,0.395,0.13
2021-08-19 06:21:47.004,0.415,0.115
2021-08-19 06:21:47.008,0.37,0.11
2021-08-19 06:21:47.012,0.37,0.095
2021-08-19 06:21:47.016,0.345,0.075
2021-08-19 06:21:47.020,0.31,0.08
2021-08-19 06:21:47.024,0.31,0.03
2021-08-19 06:21:47.028,0.315,0.01
2021-08-19 06:21:47.032,0.31,-0.005
2021-08-19 06:21:47.036,0.315,-0.005
2021-08-19 06:21:47.040,0.295,-0.045
2021-08-19 06:21:47.044,0.315,-0.025
2021-08-19 06:21:47.048,0.31,-0.065
2021-08-19 06:21:47.052,0.29,-0.07
2021-08-19 06:21:47.056,0.29,-0.075
2021-08-19 06:21:47.060,0.295,-0.075
2021-08-19 06:21:47.064,0.28,-0.1
2021-08-19 06:21:47.068,0.28,-0.095
2021-08-19 06:21:47.072,0.295,-0.1
2021-08-19 06:21:47.076,0.28,-0.11
2021-08-19 06:21:47.080,0.27,-0.135
2021-08-19 06:21:47.084,0.27,-0.16
2021-08-19 06:21:47.088,0.28,-0.19
2021-08-19 06:21:47.092,0.295,-0.23
2021-08-19 06:21:47.096,0.31,-0.265
2021-08-19 06:21:47.100,0.295,-0.265
2021-08-19 06:21:47.104,0.29,-0.3
2021-08-19 06:21:47.108,0.275,-0.31
2021-08-19 06:21:47.112,0.27,-0.315
2021-08-19 06:21:47.116,0.26,-0.305
2021-08-19 06:21:47.120,0.24,-0.31
2021-08-19 06:21:47.124,0.245,-0.28
2021-08-19 06:21:47.128,0.245,-0.245
2021-08-19 06:21:47.132,0.255,-0.195
2021-08-19 06:21:47.136,0.23,-0.175
2021-08-19 06:21:47.140,0.23,-0.17
2021-08-19 06:21:47.144,0.22,-0.12
2021-08-19 06:21:47.148,0.235,-0.1
2021-08-19 06:21:47.152,0.245,-0.08
2021-08-19 06:21:47.156,0.255,-0.065
2021-08-19 06:21:47.160,0.255,-0.1
2021-08-19 06:21:47.164,0.28,-0.075
2021-08-19 06:21:47.168,0.275,-0.065
2021-08-19 06:21:47.172,0.295,-0.055
2021-08-19 06:21:47.176,0.305,-0.09
2021-08-19 06:21:47.180,0.32,-0.08
2021-08-19 06:21:47.184,0.315,-0.11
2021-08-19 06:21:47.188,0.33,-0.105
2021-08-19 06:21:47.192,0.31,-0.11
2021-08-19 06:21:47.196,0.31,-0.105
2021-08-19 06:21:47.200,0.32,-0.055
2021-08-19 06:21:47.204,0.33,-0.025
2021-08-19 06:21:47.208,0.35,0.01
2021-08-19 06:21:47.212,0.37,0.035
2021-08-19 06:21:47.216,0.375,0.07
2021-08-19 06:21:47.220,0.39,0.08
2021-08-19 06:21:47.224,0.38,0.1
2021-08-19 06:21:47.228,0.4,0.14
2021-08-19 06:21:47.232,0.38,0.2
2021-08-19 06:21:47.236,0.345,0.235
2021-08-19 06:21:47.240,0.31,0.305
2021-08-19 06:21:47.244,0.315,0.49
2021-08-19 06:21:47.248,0.315,0.735
2021-08-19 06:21:47.252,0.325,0.965
2021-08-19 06:21:47.256,0.34,1.09
2021-08-19 06:21:47.260,0.335,1.05
2021-08-19 06:21:47.264,0.315,0.925
2021-08-19 06:21:47.268,0.26,0.675
2021-08-19 06:21:47.272,0.24,0.36
2021-08-19 06:21:47.276,0.185,-0.09
2021-08-19 06:21:47.280,0.1,-0.46
2021-08-19 06:21:47.284,-0.075,-0.53
2021-08-19 06:21:47.288,-0.36,-0.28
2021-08-19 06:21:47.292,-0.655,-0.06
2021-08-19 06:21:47.296,-0.9,-0.12
2021-08-19 06:21:47.300,-1.02,-0.37
2021-08-19 06:21:47.304,-1.02,-0.565
2021-08-19 06:21:47.308,-0.81,-0.7
2021-08-19 06:21:47.312,-0.42,-0.74
2021-08-19 06:21:47.316,-0.095,-0.685
2021-08-19 06:21:47.320,0.1,-0.59
2021-08-19 06:21:47.324,0.1,-0.53
2021-08-19 06:21:47.328,0.105,-0.48
2021-08-19 06:21:47.332,0.06,-0.46
2021-08-19 06:21:47.336,0.055,-0.48
2021-08-19 06:21:47.340,0.07,-0.475
2021-08-19 06:21:47.344,0.105,-0.455
2021-08-19 06:21:47.348,0.2,-0.445
2021-08-19 06:21:47.352,0.225,-0.39
2021-08-19 06:21:47.356,0.27,-0.37
2021-08-19 06:21:47.360,0.275,-0.34
2021-08-19 06:21:47.364,0.29,-0.305
2021-08-19 06:21:47.368,0.31,-0.265
2021-08-19 06:21:47.372,0.28,-0.265
2021-08-19 06:21:47.376,0.305,-0.215
2021-08-19 06:21:47.380,0.335,-0.21
2021-08-19 06:21:47.384,0.33,-0.23
2021-08-19 06:21:47.388,0.35,-0.23
2021-08-19 06:21:47.392,0.345,-0.21
2021-08-19 06:21:47.396,0.39,-0.205
2021-08-19 06:21:47.400,0.41,-0.21
2021-08-19 06:21:47.404,0.41,-0.215
2021-08-19 06:21:47.408,0.405,-0.205
2021-08-19 06:21:47.412,0.42,-0.215
2021-08-19 06:21:47.416,0.45,-0.2
2021-08-19 06:21:47.420,0.45,-0.185
2021-08-19 06:21:47.424,0.47,-0.165
2021-08-19 06:21:47.428,0.455,-0.14
2021-08-19 06:21:47.432,0.465,-0.14
2021-08-19 06:21:47.436,0.455,-0.15
2021-08-19 06:21:47.440,0.48,-0.12
2021-08-19 06:21:47.444,0.475,-0.115
2021-08-19 06:21:47.448,0.45,-0.115
2021-08-19 06:21:47.452,0.45,-0.14
2021-08-19 06:21:47.456,0.435,-0.145
2021-08-19 06:21:47.460,0.43,-0.16
2021-08-19 06:21:47.464,0.395,-0.165
2021-08-19 06:21:47.468,0.38,-0.18
2021-08-19 06:21:47.472,0.37,-0.21
2021-08-19 06:21:47.476,0.365,-0.22
2021-08-19 06:21:47.480,0.34,-0.24
2021-08-19 06:21:47.484,0.325,-0.26
2021-08-19 06:21:47.488,0.33,-0.255
2021-08-19 06:21:47.492,0.34,-0.29
2021-08-19 06:21:47.496,0.33,-0.29
2021-08-19 06:21:47.500,0.33,-0.32
2021-08-19 06:21:47.504,0.315,-0.305
2021-08-19 06:21:47.508,0.295,-0.32
2021-08-19 06:21:47.512,0.31,-0.325
2021-08-19 06:21:47.516,0.305,-0.33
2021-08-19 06:21:47.520,0.305,-0.305
2021-08-19 06:21:47.524,0.3,-0.31
2021-08-19 06:21:47.528,0.305,-0.32
2021-08-19 06:21:47.532,0.29,-0.34
2021-08-19 06:21:47.536,0.285,-0.335
2021-08-19 06:21:47.540,0.305,-0.375
2021-08-19 06:21:47.544,0.27,-0.37
2021-08-19 06:21:47.548,0.305,-0.37
2021-08-19 06:21:47.552,0.29,-0.37
2021-08-19 06:21:47.556,0.27,-0.37
2021-08-19 06:21:47.560,0.26,-0.35
2021-08-19 06:21:47.564,0.255,-0.32
2021-08-19 06:21:47.568,0.24,-0.3
2021-08-19 06:21:47.572,0.24,-0.255
2021-08-19 06:21:47.576,0.225,-0.235
2021-08-19 06:21:47.580,0.225,-0.18
2021-08-19 06:21:47.584,0.225,-0.165
2021-08-19 06:21:47.588,0.21,-0.125
2021-08-19 06:21:47.592,0.23,-0.065
2021-08-19 06:21:47.596,0.22,-0.055
2021-08-19 06:21:47.600,0.225,0.0
2021-08-19 06:21:47.604,0.245,0.02
2021-08-19 06:21:47.608,0.24,0.035
2021-08-19 06:21:47.612,0.26,0.045
2021-08-19 06:21:47.616,0.275,0.02
2021-08-19 06:21:47.620,0.28,0.02
2021-08-19 06:21:47.624,0.29,-0.01
2021-08-19 06:21:47.628,0.34,-0.005
2021-08-19 06:21:47.632,0.32,-0.005
2021-08-19 06:21:47.636,0.335,-0.01
2021-08-19 06:21:47.640,0.36,0.01
2021-08-19 06:21:47.644,0.345,0.01
2021-08-19 06:21:47.648,0.35,0.025
2021-08-19 06:21:47.652,0.365,0.035
2021-08-19 06:21:47.656,0.385,0.02
2021-08-19 06:21:47.660,0.4,0.045
2021-08-19 06:21:47.664,0.41,0.065
2021-08-19 06:21:47.668,0.395,0.07
2021-08-19 06:21:47.672,0.41,0.045
2021-08-19 06:21:47.676,0.375,0.045
2021-08-19 06:21:47.680,0.37,0.02
2021-08-19 06:21:47.684,0.365,0.015
2021-08-19 06:21:47.688,0.33,-0.015
2021-08-19 06:21:47.692,0.315,-0.005
2021-08-19 06:21:47.696,0.32,-0.025
2021-08-19 06:21:47.700,0.315,-0.04
2021-08-19 06:21:47.704,0.29,-0.03
2021-08-19 06:21:47.708,0.29,-0.04
2021-08-19 06:21:47.712,0.305,-0.005
2021-08-19 06:21:47.716,0.3,0.05
2021-08-19 06:21:47.720,0.31,0.095
2021-08-19 06:21:47.724,0.315,0.19
2021-08-19 06:21:47.728,0.305,0.33
2021-08-19 06:21:47.732,0.31,0.505
2021-08-19 06:21:47.736,0.335,0.585
2021-08-19 06:21:47.740,0.355,0.535
2021-08-19 06:21:47.744,0.36,0.345
2021-08-19 06:21:47.748,0.295,0.04
2021-08-19 06:21:47.752,0.24,-0.295
2021-08-19 06:21:47.756,0.195,-0.64
2021-08-19 06:21:47.760,0.175,-0.98
2021-08-19 06:21:47.764,0.14,-1.21
2021-08-19 06:21:47.768,0.06,-1.215
2021-08-19 06:21:47.772,-0.035,-0.985
2021-08-19 06:21:47.776,-0.115,-0.865
2021-08-19 06:21:47.780,-0.13,-0.975
2021-08-19 06:21:47.784,-0.1,-1.185
2021-08-19 06:21:47.788,-0.005,-1.33
2021-08-19 06:21:47.792,0.215,-1.36
2021-08-19 06:21:47.796,0.58,-1.32
2021-08-19 06:21:47.800,0.885,-1.185
2021-08-19 06:21:47.804,0.975,-0.98
2021-08-19 06:21:47.808,0.925,-0.815
2021-08-19 06:21:47.812,0.85,-0.675
2021-08-19 06:21:47.816,0.79,-0.57
2021-08-19 06:21:47.820,0.81,-0.49
2021-08-19 06:21:47.824,0.83,-0.43
2021-08-19 06:21:47.828,0.905,-0.375
2021-08-19 06:21:47.832,0.975,-0.32
2021-08-19 06:21:47.836,1.06,-0.305
2021-08-19 06:21:47.840,1.105,-0.265
2021-08-19 06:21:47.844,1.1,-0.2
2021-08-19 06:21:47.848,1.09,-0.13
2021-08-19 06:21:47.852,1.05,-0.065
2021-08-19 06:21:47.856,0.985,-0.09
2021-08-19 06:21:47.860,0.87,-0.095
2021-08-19 06:21:47.864,0.725,-0.075
2021-08-19 06:21:47.868,0.535,-0.04
2021-08-19 06:21:47.872,0.405,0.0
2021-08-19 06:21:47.876,0.33,0.02
2021-08-19 06:21:47.880,0.29,0.04
2021-08-19 06:21:47.884,0.275,0.065
2021-08-19 06:21:47.888,0.275,0.075
2021-08-19 06:21:47.892,0.27,0.075
2021-08-19 06:21:47.896,0.25,0.085
2021-08-19 06:21:47.900,0.235,0.075
2021-08-19 06:21:47.904,0.2,0.085
2021-08-19 06:21:47.908,0.16,0.075
2021-08-19 06:21:47.912,0.15,0.06
2021-08-19 06:21:47.916,0.125,0.06
2021-08-19 06:21:47.920,0.125,0.04
2021-08-19 06:21:47.924,0.125,0.035
2021-08-19 06:21:47.928,0.125,0.0
2021-08-19 06:21:47.932,0.115,0.01
2021-08-19 06:21:47.936,0.09,-0.005
2021-08-19 06:21:47.940,0.075,0.0
2021-08-19 06:21:47.944,0.08,-0.02
2021-08-19 06:21:47.948,0.065,-0.01
2021-08-19 06:21:47.952,0.07,-0.02
2021-08-19 06:21:47.956,0.075,-0.025
2021-08-19 06:21:47.960,0.065,-0.01
2021-08-19 06:21:47.964,0.07,-0.02
2021-08-19 06:21:47.968,0.03,-0.01
2021-08-19 06:21:47.972,0.035,-0.015
2021-08-19 06:21:47.976,0.04,0.0
2021-08-19 06:21:47.980,0.01,-0.03
2021-08-19 06:21:47.984,0.035,-0.05
2021-08-19 06:21:47.988,0.02,-0.06
2021-08-19 06:21:47.992,0.01,-0.1
2021-08-19 06:21:47.996,0.02,-0.115
2021-08-19 06:21:48.000,0.025,-0.12
2021-08-19 06:21:48.004,0.005,-0.125
2021-08-19 06:21:48.008,0.01,-0.115
2021-08-19 06:21:48.012,-0.01,-0.095
2021-08-19 06:21:48.016,-0.01,-0.06
2021-08-19 06:21:48.020,-0.025,-0.03
2021-08-19 06:21:48.024,-0.025,-0.005
2021-08-19 06:21:48.028,-0.035,0.005
2021-08-19 06:21:48.032,-0.05,0.07
2021-08-19 06:21:48.036,-0.055,0.095
2021-08-19 06:21:48.040,-0.055,0.13
2021-08-19 06:21:48.044,-0.055,0.13
2021-08-19 06:21:48.048,-0.06,0.175
2021-08-19 06:21:48.052,-0.04,0.185
2021-08-19 06:21:48.056,-0.04,0.205
2021-08-19 06:21:48.060,-0.03,0.205
2021-08-19 06:21:48.064,-0.035,0.19
2021-08-19 06:21:48.068,-0.035,0.185
2021-08-19 06:21:48.072,-0.025,0.175
2021-08-19 06:21:48.076,-0.015,0.135
2021-08-19 06:21:48.080,0.005,0.13
2021-08-19 06:21:48.084,0.03,0.1
2021-08-19 06:21:48.088,0.025,0.11
2021-08-19 06:21:48.092,0.06,0.105
2021-08-19 06:21:48.096,0.04,0.115
2021-08-19 06:21:48.100,0.095,0.135
2021-08-19 06:21:48.104,0.125,0.135
2021-08-19 06:21:48.108,0.16,0.14
2021-08-19 06:21:48.112,0.185,0.165
2021-08-19 06:21:48.116,0.195,0.16
2021-08-19 06:21:48.120,0.23,0.16
2021-08-19 06:21:48.124,0.23,0.165
2021-08-19 06:21:48.128,0.25,0.115
2021-08-19 06:21:48.132,0.245,0.1
2021-08-19 06:21:48.136,0.24,0.09
2021-08-19 06:21:48.140,0.2,0.1
2021-08-19 06:21:48.144,0.205,0.1
2021-08-19 06:21:48.148,0.24,0.135
2021-08-19 06:21:48.152,0.245,0.2
2021-08-19 06:21:48.156,0.26,0.21
2021-08-19 06:21:48.160,0.27,0.345
2021-08-19 06:21:48.164,0.27,0.57
2021-08-19 06:21:48.168,0.295,0.75
2021-08-19 06:21:48.172,0.315,0.82
2021-08-19 06:21:48.176,0.345,0.77
2021-08-19 06:21:48.180,0.35,0.63
2021-08-19 06:21:48.184,0.315,0.32
2021-08-19 06:21:48.188,0.285,-0.02
2021-08-19 06:21:48.192,0.26,-0.375
2021-08-19 06:21:48.196,0.23,-0.775
2021-08-19 06:21:48.200,0.19,-1.025
2021-08-19 06:21:48.204,0.1,-1.005
2021-08-19 06:21:48.208,0.045,-0.84
2021-08-19 06:21:48.212,-0.03,-0.76
2021-08-19 06:21:48.216,-0.02,-0.9
2021-08-19 06:21:48.220,0.02,-1.135
2021-08-19 06:21:48.224,0.13,-1.27
2021-08-19 06:21:48.228,0.405,-1.34
2021-08-19 06:21:48.232,0.755,-1.305
2021-08-19 06:21:48.236,1.065,-1.18
2021-08-19 06:21:48.240,1.125,-0.995
2021-08-19 06:21:48.244,1.035,-0.85
2021-08-19 06:21:48.248,0.92,-0.775
2021-08-19 06:21:48.252,0.84,-0.735
2021-08-19 06:21:48.256,0.81,-0.66
2021-08-19 06:21:48.260,0.835,-0.605
2021-08-19 06:21:48.264,0.86,-0.525
2021-08-19 06:21:48.268,0.92,-0.475
2021-08-19 06:21:48.272,0.985,-0.425
2021-08-19 06:21:48.276,1.025,-0.36
2021-08-19 06:21:48.280,1.045,-0.265
2021-08-19 06:21:48.284,1.02,-0.16
2021-08-19 06:21:48.288,0.98,-0.09
2021-08-19 06:21:48.292,0.93,-0.08
2021-08-19 06:21:48.296,0.83,-0.07
2021-08-19 06:21:48.300,0.695,-0.08
2021-08-19 06:21:48.304,0.54,-0.07
2021-08-19 06:21:48.308,0.43,-0.08
2021-08-19 06:21:48.312,0.305,-0.08
2021-08-19 06:21:48.316,0.245,-0.065
2021-08-19 06:21:48.320,0.24,-0.03
2021-08-19 06:21:48.324,0.225,-0.005
2021-08-19 06:21:48.328,0.215,0.005
2021-08-19 06:21:48.332,0.23,0.02
2021-08-19 06:21:48.336,0.225,0.03
2021-08-19 06:21:48.340,0.225,0.015
2021-08-19 06:21:48.344,0.21,0.005
2021-08-19 06:21:48.348,0.2,0.025
2021-08-19 06:21:48.352,0.15,0.03
2021-08-19 06:21:48.356,0.125,0.015
2021-08-19 06:21:48.360,0.08,0.015
2021-08-19 06:21:48.364,0.05,0.005
2021-08-19 06:21:48.368,0.035,0.005
2021-08-19 06:21:48.372,0.015,-0.005
2021-08-19 06:21:48.376,0.02,-0.02
2021-08-19 06:21:48.380,0.035,-0.035
2021-08-19 06:21:48.384,0.025,-0.055
2021-08-19 06:21:48.388,0.035,-0.075
2021-08-19 06:21:48.392,0.03,-0.09
2021-08-19 06:21:48.396,0.0,-0.115
2021-08-19 06:21:48.400,0.02,-0.105
2021-08-19 06:21:48.404,0.015,-0.11
2021-08-19 06:21:48.408,-0.01,-0.11
2021-08-19 06:21:48.412,0.0,-0.12
2021-08-19 06:21:48.416,-0.01,-0.13
2021-08-19 06:21:48.420,-0.025,-0.115
2021-08-19 06:21:48.424,-0.02,-0.11
2021-08-19 06:21:48.428,-0.04,-0.105
2021-08-19 06:21:48.432,-0.035,-0.095
2021-08-19 06:21:48.436,-0.03,-0.105
2021-08-19 06:21:48.440,-0.02,-0.115
2021-08-19 06:21:48.444,-0.03,-0.095
2021-08-19 06:21:48.448,-0.045,-0.085
2021-08-19 06:21:48.452,-0.04,-0.1
2021-08-19 06:21:48.456,-0.045,-0.11
2021-08-19 06:21:48.460,-0.055,-0.135
2021-08-19 06:21:48.464,-0.065,-0.145
2021-08-19 06:21:48.468,-0.055,-0.125
2021-08-19 06:21:48.472,-0.065,-0.145
2021-08-19 06:21:48.476,-0.115,-0.105
2021-08-19 06:21:48.480,-0.12,-0.08
2021-08-19 06:21:48.484,-0.115,-0.08
2021-08-19 06:21:48.488,-0.12,-0.045
2021-08-19 06:21:48.492,-0.1,0.005
2021-08-19 06:21:48.496,-0.11,0.01
2021-08-19 06:21:48.500,-0.12,0.035
2021-08-19 06:21:48.504,-0.095,0.04
2021-08-19 06:21:48.508,-0.1,0.08
2021-08-19 06:21:48.512,-0.085,0.1
2021-08-19 06:21:48.516,-0.055,0.13
2021-08-19 06:21:48.520,-0.075,0.155
2021-08-19 06:21:48.524,-0.05,0.14
2021-08-19 06:21:48.528,-0.005,0.13
2021-08-19 06:21:48.532,0.03,0.1
2021-08-19 06:21:48.536,0.05,0.06
2021-08-19 06:21:48.540,0.095,0.07
2021-08-19 06:21:48.544,0.14,0.065
2021-08-19 06:21:48.548,0.165,0.05
2021-08-19 06:21:48.552,0.165,0.05
2021-08-19 06:21:48.556,0.195,0.06
2021-08-19 06:21:48.560,0.225,0.05
2021-08-19 06:21:48.564,0.265,0.055
2021-08-19 06:21:48.568,0.285,0.065
2021-08-19 06:21:48.572,0.315,0.055
2021-08-19 06:21:48.576,0.335,0.065
2021-08-19 06:21:48.580,0.32,0.085
2021-08-19 06:21:48.584,0.32,0.06
2021-08-19 06:21:48.588,0.31,0.05
2021-08-19 06:21:48.592,0.27,0.025
2021-08-19 06:21:48.596,0.26,0.02
2021-08-19 06:21:48.600,0.25,0.045
2021-08-19 06:21:48.604,0.235,0.065
2021-08-19 06:21:48.608,0.265,0.13
2021-08-19 06:21:48.612,0.275,0.165
2021-08-19 06:21:48.616,0.275,0.25
2021-08-19 06:21:48.620,0.285,0.46
2021-08-19 06:21:48.624,0.29,0.775
2021-08-19 06:21:48.628,0.295,1.085
2021-08-19 06:21:48.632,0.315,1.31
2021-08-19 06:21:48.636,0.33,1.34
2021-08-19 06:21:48.640,0.315,1.195
2021-08-19 06:21:48.644,0.3,0.94
2021-08-19 06:21:48.648,0.315,0.595
2021-08-19 06:21:48.652,0.32,0.17
2021-08-19 06:21:48.656,0.255,-0.295
2021-08-19 06:21:48.660,0.15,-0.505
2021-08-19 06:21:48.664,-0.085,-0.37
2021-08-19 06:21:48.668,-0.385,-0.09
2021-08-19 06:21:48.672,-0.63,-0.02
2021-08-19 06:21:48.676,-0.835,-0.245
2021-08-19 06:21:48.680,-0.91,-0.525
2021-08-19 06:21:48.684,-0.83,-0.71
2021-08-19 06:21:48.688,-0.58,-0.83
2021-08-19 06:21:48.692,-0.23,-0.845
2021-08-19 06:21:48.696,0.03,-0.785
2021-08-19 06:21:48.700,0.11,-0.665
2021-08-19 06:21:48.704,0.095,-0.585
2021-08-19 06:21:48.708,0.075,-0.555
2021-08-19 06:21:48.712,0.04,-0.525
2021-08-19 06:21:48.716,0.06,-0.515
2021-08-19 06:21:48.720,0.07,-0.485
2021-08-19 06:21:48.724,0.135,-0.445
2021-08-19 06:21:48.728,0.185,-0.435
2021-08-19 06:21:48.732,0.21,-0.39
2021-08-19 06:21:48.736,0.26,-0.38
2021-08-19 06:21:48.740,0.28,-0.355
2021-08-19 06:21:48.744,0.285,-0.315
2021-08-19 06:21:48.748,0.285,-0.285
2021-08-19 06:21:48.752,0.31,-0.265
2021-08-19 06:21:48.756,0.315,-0.265
2021-08-19 06:21:48.760,0.315,-0.235
2021-08-19 06:21:48.764,0.35,-0.265
2021-08-19 06:21:48.768,0.355,-0.25
2021-08-19 06:21:48.772,0.39,-0.235
2021-08-19 06:21:48.776,0.405,-0.235
2021-08-19 06:21:48.780,0.43,-0.225
2021-08-19 06:21:48.784,0.425,-0.18
2021-08-19 06:21:48.788,0.45,-0.165
2021-08-19 06:21:48.792,0.48,-0.14
2021-08-19 06:21:48.796,0.47,-0.105
2021-08-19 06:21:48.800,0.495,-0.11
2021-08-19 06:21:48.804,0.5,-0.08
2021-08-19 06:21:48.808,0.475,-0.07
2021-08-19 06:21:48.812,0.435,-0.085
2021-08-19 06:21:48.816,0.45,-0.085
2021-08-19 06:21:48.820,0.425,-0.105
2021-08-19 06:21:48.824,0.42,-0.125
2021-08-19 06:21:48.828,0.4,-0.12
2021-08-19 06:21:48.832,0.39,-0.135
2021-08-19 06:21:48.836,0.4,-0.15
2021-08-19 06:21:48.840,0.4,-0.17
2021-08-19 06:21:48.844,0.405,-0.2
2021-08-19 06:21:48.848,0.405,-0.185
2021-08-19 06:21:48.852,0.425,-0.195
2021-08-19 06:21:48.856,0.41,-0.225
2021-08-19 06:21:48.860,0.425,-0.25
2021-08-19 06:21:48.864,0.415,-0.24
2021-08-19 06:21:48.868,0.415,-0.255
2021-08-19 06:21:48.872,0.41,-0.28
2021-08-19 06:21:48.876,0.415,-0.26
2021-08-19 06:21:48.880,0.405,-0.26
2021-08-19 06:21:48.884,0.405,-0.23
2021-08-19 06:21:48.888,0.41,-0.22
2021-08-19 06:21:48.892,0.425,-0.215
2021-08-19 06:21:48.896,0.42,-0.22
2021-08-19 06:21:48.900,0.395,-0.225
2021-08-19 06:21:48.904,0.385,-0.245
2021-08-19 06:21:48.908,0.37,-0.22
2021-08-19 06:21:48.912,0.4,-0.25
2021-08-19 06:21:48.916,0.39,-0.27
2021-08-19 06:21:48.920,0.405,-0.235
2021-08-19 06:21:48.924,0.39,-0.25
2021-08-19 06:21:48.928,0.37,-0.265
2021-08-19 06:21:48.932,0.365,-0.24
2021-08-19 06:21:48.936,0.355,-0.25
2021-08-19 06:21:48.940,0.33,-0.235
2021-08-19 06:21:48.944,0.33,-0.215
2021-08-19 06:21:48.948,0.32,-0.175
2021-08-19 06:21:48.952,0.325,-0.16
2021-08-19 06:21:48.956,0.32,-0.145
2021-08-19 06:21:48.960,0.31,-0.14
2021-08-19 06:21:48.964,0.31,-0.105
2021-08-19 06:21:48.968,0.29,-0.08
2021-08-19 06:21:48.972,0.295,-0.065
2021-08-19 06:21:48.976,0.305,-0.055
2021-08-19 06:21:48.980,0.305,-0.04
2021-08-19 06:21:48.984,0.31,-0.06
2021-08-19 06:21:48.988,0.305,-0.035
2021-08-19 06:21:48.992,0.31,-0.06
2021-08-19 06:21:48.996,0.335,-0.06
2021-08-19 06:21:49.000,0.325,-0.07
2021-08-19 06:21:49.004,0.355,-0.085
2021-08-19 06:21:49.008,0.37,-0.08
2021-08-19 06:21:49.012,0.39,-0.075
2021-08-19 06:21:49.016,0.385,-0.06
2021-08-19 06:21:49.020,0.39,-0.05
2021-08-19 06:21:49.024,0.405,-0.01
2021-08-19 06:21:49.028,0.395,0.0
2021-08-19 06:21:49.032,0.38,0.02
2021-08-19 06:21:49.036,0.36,0.03
2021-08-19 06:21:49.040,0.325,0.03
2021-08-19 06:21:49.044,0.29,0.015
2021-08-19 06:21:49.048,0.275,0.01
2021-08-19 06:21:49.052,0.25,-0.01
2021-08-19 06:21:49.056,0.255,-0.01
2021-08-19 06:21:49.060,0.27,0.005
2021-08-19 06:21:49.064,0.29,0.025
2021-08-19 06:21:49.068,0.31,0.09
2021-08-19 06:21:49.072,0.3,0.17
2021-08-19 06:21:49.076,0.3,0.25
2021-08-19 06:21:49.080,0.295,0.435
2021-08-19 06:21:49.084,0.285,0.745
2021-08-19 06:21:49.088,0.32,1.06
2021-08-19 06:21:49.092,0.325,1.245
2021-08-19 06:21:49.096,0.35,1.225
2021-08-19 06:21:49.100,0.34,1.045
2021-08-19 06:21:49.104,0.295,0.785
2021-08-19 06:21:49.108,0.285,0.435
2021-08-19 06:21:49.112,0.23,-0.01
2021-08-19 06:21:49.116,0.22,-0.45
2021-08-19 06:21:49.120,0.07,-0.63
2021-08-19 06:21:49.124,-0.17,-0.46
2021-08-19 06:21:49.128,-0.455,-0.16
2021-08-19 06:21:49.132,-0.74,-0.06
2021-08-19 06:21:49.136,-0.92,-0.255
2021-08-19 06:21:49.140,-1.02,-0.52
2021-08-19 06:21:49.144,-0.945,-0.68
2021-08-19 06:21:49.148,-0.66,-0.805
2021-08-19 06:21:49.152,-0.305,-0.795
2021-08-19 06:21:49.156,-0.02,-0.745
2021-08-19 06:21:49.160,0.08,-0.625
2021-08-19 06:21:49.164,0.09,-0.54
2021-08-19 06:21:49.168,0.05,-0.49
2021-08-19 06:21:49.172,0.035,-0.44
2021-08-19 06:21:49.176,0.05,-0.415
2021-08-19 06:21:49.180,0.075,-0.385
2021-08-19 06:21:49.184,0.12,-0.375
2021-08-19 06:21:49.188,0.175,-0.34
2021-08-19 06:21:49.192,0.235,-0.305
2021-08-19 06:21:49.196,0.24,-0.275
2021-08-19 06:21:49.200,0.285,-0.245
2021-08-19 06:21:49.204,0.3,-0.22
2021-08-19 06:21:49.208,0.305,-0.225
2021-08-19 06:21:49.212,0.325,-0.22
2021-08-19 06:21:49.216,0.335,-0.22
2021-08-19 06:21:49.220,0.365,-0.22
2021-08-19 06:21:49.224,0.37,-0.205
2021-08-19 06:21:49.228,0.395,-0.2
2021-08-19 06:21:49.232,0.41,-0.18
2021-08-19 06:21:49.236,0.42,-0.16
2021-08-19 06:21:49.240,0.445,-0.145
2021-08-19 06:21:49.244,0.445,-0.12
2021-08-19 06:21:49.248,0.47,-0.11
2021-08-19 06:21:49.252,0.46,-0.11
2021-08-19 06:21:49.256,0.46,-0.08
2021-08-19 06:21:49.260,0.46,-0.065
2021-08-19 06:21:49.264,0.455,-0.075
2021-08-19 06:21:49.268,0.425,-0.09
2021-08-19 06:21:49.272,0.405,-0.09
2021-08-19 06:21:49.276,0.38,-0.1
2021-08-19 06:21:49.280,0.35,-0.11
2021-08-19 06:21:49.284,0.345,-0.11
2021-08-19 06:21:49.288,0.335,-0.125
2021-08-19 06:21:49.292,0.365,-0.125
2021-08-19 06:21:49.296,0.355,-0.14
2021-08-19 06:21:49.300,0.37,-0.15
2021-08-19 06:21:49.304,0.36,-0.16
2021-08-19 06:21:49.308,0.37,-0.185
2021-08-19 06:21:49.312,0.37,-0.215
2021-08-19 06:21:49.316,0.38,-0.225
2021-08-19 06:21:49.320,0.365,-0.24
2021-08-19 06:21:49.324,0.375,-0.25
2021-08-19 06:21:49.328,0.365,-0.25
2021-08-19 06:21:49.332,0.36,-0.23
2021-08-19 06:21:49.336,0.35,-0.235
2021-08-19 06:21:49.340,0.35,-0.235
2021-08-19 06:21:49.344,0.35,-0.205
2021-08-19 06:21:49.348,0.33,-0.2
2021-08-19 06:21:49.352,0.345,-0.19
2021-08-19 06:21:49.356,0.35,-0.195
2021-08-19 06:21:49.360,0.355,-0.21
2021-08-19 06:21:49.364,0.33,-0.2
2021-08-19 06:21:49.368,0.33,-0.205
2021-08-19 06:21:49.372,0.315,-0.225
2021-08-19 06:21:49.376,0.33,-0.22
2021-08-19 06:21:49.380,0.315,-0.255
2021-08-19 06:21:49.384,0.33,-0.25
2021-08-19 06:21:49.388,0.315,-0.265
2021-08-19 06:21:49.392,0.315,-0.245
2021-08-19 06:21:49.396,0.295,-0.225
2021-08-19 06:21:49.400,0.27,-0.225
2021-08-19 06:21:49.404,0.265,-0.205
2021-08-19 06:21:49.408,0.27,-0.19
2021-08-19 06:21:49.412,0.235,-0.205
2021-08-19 06:21:49.416,0.25,-0.16
2021-08-19 06:21:49.420,0.26,-0.125
2021-08-19 06:21:49.424,0.245,-0.115
2021-08-19 06:21:49.428,0.25,-0.09
2021-08-19 06:21:49.432,0.23,-0.07
2021-08-19 06:21:49.436,0.235,-0.045
2021-08-19 06:21:49.440,0.26,-0.055
2021-08-19 06:21:49.444,0.255,-0.035
2021-08-19 06:21:49.448,0.27,-0.055
2021-08-19 06:21:49.452,0.275,-0.06
2021-08-19 06:21:49.456,0.27,-0.06
2021-08-19 06:21:49.460,0.29,-0.045
2021-08-19 06:21:49.464,0.305,-0.055
2021-08-19 06:21:49.468,0.3,-0.045
2021-08-19 06:21:49.472,0.285,-0.015
2021-08-19 06:21:49.476,0.29,0.02
2021-08-19 06:21:49.480,0.3,0.04
2021-08-19 06:21:49.484,0.33,0.035
2021-08-19 06:21:49.488,0.33,0.03
2021-08-19 06:21:49.492,0.335,0.035
2021-08-19 06:21:49.496,0.34,0.05
2021-08-19 06:21:49.500,0.355,0.03
2021-08-19 06:21:49.504,0.325,0.02
2021-08-19 06:21:49.508,0.325,-0.005
2021-08-19 06:21:49.512,0.295,-0.01
2021-08-19 06:21:49.516,0.285,-0.025
2021-08-19 06:21:49.520,0.255,-0.04
2021-08-19 06:21:49.524,0.24,-0.055
2021-08-19 06:21:49.528,0.23,-0.07
2021-08-19 06:21:49.532,0.205,-0.085
2021-08-19 06:21:49.536,0.255,-0.1
2021-08-19 06:21:49.540,0.235,-0.085
2021-08-19 06:21:49.544,0.205,-0.09
2021-08-19 06:21:49.548,0.23,-0.025
2021-08-19 06:21:49.552,0.225,0.0
2021-08-19 06:21:49.556,0.205,0.065
2021-08-19 06:21:49.560,0.215,0.175
2021-08-19 06:21:49.564,0.21,0.39
2021-08-19 06:21:49.568,0.225,0.71
2021-08-19 06:21:49.572,0.225,1.045
2021-08-19 06:21:49.576,0.235,1.175
2021-08-19 06:21:49.580,0.25,1.12
2021-08-19 06:21:49.584,0.275,0.92
2021-08-19 06:21:49.588,0.22,0.665
2021-08-19 06:21:49.592,0.19,0.32
2021-08-19 06:21:49.596,0.165,-0.14
2021-08-19 06:21:49.600,0.11,-0.58
2021-08-19 06:21:49.604,-0.045,-0.77
2021-08-19 06:21:49.608,-0.285,-0.595
2021-08-19 06:21:49.612,-0.615,-0.255
2021-08-19 06:21:49.616,-0.895,-0.15
2021-08-19 06:21:49.620,-1.1,-0.31
2021-08-19 06:21:49.624,-1.22,-0.555
2021-08-19 06:21:49.628,-1.13,-0.73
2021-08-19 06:21:49.632,-0.89,-0.845
2021-08-19 06:21:49.636,-0.48,-0.845
2021-08-19 06:21:49.640,-0.155,-0.74
2021-08-19 06:21:49.644,-0.02,-0.615
2021-08-19 06:21:49.648,-0.015,-0.48
2021-08-19 06:21:49.652,-0.01,-0.42
2021-08-19 06:21:49.656,-0.05,-0.385
2021-08-19 06:21:49.660,-0.04,-0.36
2021-08-19 06:21:49.664,-0.02,-0.32
2021-08-19 06:21:49.668,0.035,-0.315
2021-08-19 06:21:49.672,0.115,-0.31
2021-08-19 06:21:49.676,0.195,-0.28
2021-08-19 06:21:49.680,0.25,-0.29
2021-08-19 06:21:49.684,0.275,-0.295
2021-08-19 06:21:49.688,0.3,-0.305
2021-08-19 06:21:49.692,0.3,-0.3
2021-08-19 06:21:49.696,0.335,-0.31
2021-08-19 06:21:49.700,0.34,-0.32
2021-08-19 06:21:49.704,0.35,-0.27
2021-08-19 06:21:49.708,0.36,-0.28
2021-08-19 06:21:49.712,0.38,-0.24
2021-08-19 06:21:49.716,0.365,-0.23
2021-08-19 06:21:49.720,0.38,-0.21
2021-08-19 06:21:49.724,0.38,-0.17
2021-08-19 06:21:49.728,0.375,-0.175
2021-08-19 06:21:49.732,0.38,-0.175
2021-08-19 06:21:49.736,0.395,-0.185
2021-08-19 06:21:49.740,0.375,-0.18
2021-08-19 06:21:49.744,0.36,-0.2
2021-08-19 06:21:49.748,0.33,-0.225
2021-08-19 06:21:49.752,0.34,-0.215
2021-08-19 06:21:49.756,0.325,-0.245
2021-08-19 06:21:49.760,0.33,-0.26
2021-08-19 06:21:49.764,0.315,-0.3
2021-08-19 06:21:49.768,0.305,-0.305
2021-08-19 06:21:49.772,0.325,-0.32
2021-08-19 06:21:49.776,0.3,-0.34
2021-08-19 06:21:49.780,0.3,-0.335
2021-08-19 06:21:49.784,0.31,-0.34
2021-08-19 06:21:49.788,0.32,-0.36
2021-08-19 06:21:49.792,0.32,-0.36
2021-08-19 06:21:49.796,0.285,-0.35
2021-08-19 06:21:49.800,0.28,-0.345
2021-08-19 06:21:49.804,0.275,-0.345
2021-08-19 06:21:49.808,0.305,-0.365
2021-08-19 06:21:49.812,0.295,-0.36
2021-08-19 06:21:49.816,0.295,-0.38
2021-08-19 06:21:49.820,0.275,-0.39
2021-08-19 06:21:49.824,0.3,-0.415
2021-08-19 06:21:49.828,0.285,-0.42
2021-08-19 06:21:49.832,0.31,-0.45
2021-08-19 06:21:49.836,0.275,-0.455
2021-08-19 06:21:49.840,0.295,-0.455
2021-08-19 06:21:49.844,0.295,-0.435
2021-08-19 06:21:49.848,0.275,-0.42
2021-08-19 06:21:49.852,0.26,-0.405
2021-08-19 06:21:49.856,0.275,-0.355
2021-08-19 06:21:49.860,0.27,-0.335
2021-08-19 06:21:49.864,0.255,-0.28
2021-08-19 06:21:49.868,0.275,-0.25
2021-08-19 06:21:49.872,0.255,-0.205
2021-08-19 06:21:49.876,0.245,-0.16
2021-08-19 06:21:49.880,0.24,-0.155
2021-08-19 06:21:49.884,0.255,-0.1
2021-08-19 06:21:49.888,0.24,-0.055
2021-08-19 06:21:49.892,0.265,-0.035
2021-08-19 06:21:49.896,0.245,-0.05
2021-08-19 06:21:49.900,0.28,-0.025
2021-08-19 06:21:49.904,0.29,-0.025
2021-08-19 06:21:49.908,0.265,-0.03
2021-08-19 06:21:49.912,0.29,-0.02
2021-08-19 06:21:49.916,0.325,-0.01
2021-08-19 06:21:49.920,0.315,-0.03
2021-08-19 06:21:49.924,0.33,-0.035
2021-08-19 06:21:49.928,0.325,-0.025
2021-08-19 06:21:49.932,0.32,-0.035
2021-08-19 06:21:49.936,0.32,0.0
2021-08-19 06:21:49.940,0.345,0.03
2021-08-19 06:21:49.944,0.36,0.065
2021-08-19 06:21:49.948,0.355,0.075
2021-08-19 06:21:49.952,0.36,0.06
2021-08-19 06:21:49.956,0.365,0.075
2021-08-19 06:21:49.960,0.365,0.055
2021-08-19 06:21:49.964,0.375,0.065
2021-08-19 06:21:49.968,0.35,0.03
2021-08-19 06:21:49.972,0.355,0.015
2021-08-19 06:21:49.976,0.31,-0.01
2021-08-19 06:21:49.980,0.3,-0.02
2021-08-19 06:21:49.984,0.295,-0.02
2021-08-19 06:21:49.988,0.27,-0.055
2021-08-19 06:21:49.992,0.265,-0.075
2021-08-19 06:21:49.996,0.255,-0.09
2021-08-19 06:21:50.000,0.255,-0.105
2021-08-19 06:21:50.004,0.25,-0.1
2021-08-19 06:21:50.008,0.265,-0.115
2021-08-19 06:21:50.012,0.255,-0.14
2021-08-19 06:21:50.016,0.245,-0.15
2021-08-19 06:21:50.020,0.235,-0.15
2021-08-19 06:21:50.024,0.255,-0.155
2021-08-19 06:21:50.028,0.245,-0.13
2021-08-19 06:21:50.032,0.24,-0.15
2021-08-19 06:21:50.036,0.24,-0.17
2021-08-19 06:21:50.040,0.23,-0.175
2021-08-19 06:21:50.044,0.225,-0.205
2021-08-19 06:21:50.048,0.215,-0.21
2021-08-19 06:21:50.052,0.225,-0.26
2021-08-19 06:21:50.056,0.235,-0.3
2021-08-19 06:21:50.060,0.23,-0.315
2021-08-19 06:21:50.064,0.23,-0.335
2021-08-19 06:21:50.068,0.225,-0.37
2021-08-19 06:21:50.072,0.215,-0.37
2021-08-19 06:21:50.076,0.195,-0.37
2021-08-19 06:21:50.080,0.205,-0.37
2021-08-19 06:21:50.084,0.195,-0.36
2021-08-19 06:21:50.088,0.185,-0.34
2021-08-19 06:21:50.092,0.19,-0.325
2021-08-19 06:21:50.096,0.165,-0.29
2021-08-19 06:21:50.100,0.165,-0.27
2021-08-19 06:21:50.104,0.17,-0.24
2021-08-19 06:21:50.108,0.165,-0.23
2021-08-19 06:21:50.112,0.155,-0.185
2021-08-19 06:21:50.116,0.165,-0.165
2021-08-19 06:21:50.120,0.185,-0.16
2021-08-19 06:21:50.124,0.185,-0.135
2021-08-19 06:21:50.128,0.19,-0.155
2021-08-19 06:21:50.132,0.18,-0.14
2021-08-19 06:21:50.136,0.215,-0.15
2021-08-19 06:21:50.140,0.23,-0.13
2021-08-19 06:21:50.144,0.255,-0.155
2021-08-19 06:21:50.148,0.245,-0.165
2021-08-19 06:21:50.152,0.245,-0.18
2021-08-19 06:21:50.156,0.255,-0.17
2021-08-19 06:21:50.160,0.25,-0.18
2021-08-19 06:21:50.164,0.26,-0.17
2021-08-19 06:21:50.168,0.275,-0.13
2021-08-19 06:21:50.172,0.265,-0.11
2021-08-19 06:21:50.176,0.285,-0.075
2021-08-19 06:21:50.180,0.27,-0.06
2021-08-19 06:21:50.184,0.285,-0.045
2021-08-19 06:21:50.188,0.28,-0.02
2021-08-19 06:21:50.192,0.3,-0.005
2021-08-19 06:21:50.196,0.285,-0.01
2021-08-19 06:21:50.200,0.285,-0.035
2021-08-19 06:21:50.204,0.255,-0.03
2021-08-19 06:21:50.208,0.235,-0.04
2021-08-19 06:21:50.212,0.215,-0.065
2021-08-19 06:21:50.216,0.22,-0.08
2021-08-19 06:21:50.220,0.21,-0.09
2021-08-19 06:21:50.224,0.2,-0.11
2021-08-19 06:21:50.228,0.23,-0.135
2021-08-19 06:21:50.232,0.21,-0.145
2021-08-19 06:21:50.236,0.22,-0.15
2021-08-19 06:21:50.240,0.195,-0.165
2021-08-19 06:21:50.244,0.22,-0.175
2021-08-19 06:21:50.248,0.21,-0.18
2021-08-19 06:21:50.252,0.2,-0.17
2021-08-19 06:21:50.256,0.205,-0.165
2021-08-19 06:21:50.260,0.2,-0.18
2021-08-19 06:21:50.264,0.2,-0.16
2021-08-19 06:21:50.268,0.195,-0.17
2021-08-19 06:21:50.272,0.195,-0.155
2021-08-19 06:21:50.276,0.18,-0.12
2021-08-19 06:21:50.280,0.195,-0.08
2021-08-19 06:21:50.284,0.19,-0.04
2021-08-19 06:21:50.288,0.195,0.055
2021-08-19 06:21:50.292,0.18,0.29
2021-08-19 06:21:50.296,0.18,0.565
2021-08-19 06:21:50.300,0.225,0.78
2021-08-19 06:21:50.304,0.22,0.81
2021-08-19 06:21:50.308,0.22,0.725
2021-08-19 06:21:50.312,0.135,0.565
2021-08-19 06:21:50.316,0.1,0.28
2021-08-19 06:21:50.320,0.055,-0.035
2021-08-19 06:21:50.324,0.01,-0.435
2021-08-19 06:21:50.328,-0.08,-0.75
2021-08-19 06:21:50.332,-0.315,-0.71
2021-08-19 06:21:50.336,-0.635,-0.395
2021-08-19 06:21:50.340,-0.935,-0.11
2021-08-19 06:21:50.344,-1.165,-0.12
2021-08-19 06:21:50.348,-1.285,-0.325
2021-08-19 06:21:50.352,-1.25,-0.525
2021-08-19 06:21:50.356,-1.04,-0.655
2021-08-19 06:21:50.360,-0.67,-0.695
2021-08-19 06:21:50.364,-0.29,-0.675
2021-08-19 06:21:50.368,-0.05,-0.59
2021-08-19 06:21:50.372,0.03,-0.44
2021-08-19 06:21:50.376,0.02,-0.365
2021-08-19 06:21:50.380,0.01,-0.305
2021-08-19 06:21:50.384,0.0,-0.26
2021-08-19 06:21:50.388,0.0,-0.27
2021-08-19 06:21:50.392,0.05,-0.27
2021-08-19 06:21:50.396,0.105,-0.255
2021-08-19 06:21:50.400,0.175,-0.24
2021-08-19 06:21:50.404,0.245,-0.21
2021-08-19 06:21:50.408,0.295,-0.21
2021-08-19 06:21:50.412,0.33,-0.17
2021-08-19 06:21:50.416,0.325,-0.145
2021-08-19 06:21:50.420,0.35,-0.15
2021-08-19 06:21:50.424,0.35,-0.145
2021-08-19 06:21:50.428,0.34,-0.15
2021-08-19 06:21:50.432,0.345,-0.165
2021-08-19 06:21:50.436,0.335,-0.185
2021-08-19 06:21:50.440,0.33,-0.2
2021-08-19 06:21:50.444,0.325,-0.2
2021-08-19 06:21:50.448,0.33,-0.23
2021-08-19 06:21:50.452,0.3,-0.23
2021-08-19 06:21:50.456,0.285,-0.26
2021-08-19 06:21:50.460,0.27,-0.28
2021-08-19 06:21:50.464,0.275,-0.29
2021-08-19 06:21:50.468,0.26,-0.33
2021-08-19 06:21:50.472,0.295,-0.33
2021-08-19 06:21:50.476,0.265,-0.345
2021-08-19 06:21:50.480,0.27,-0.35
2021-08-19 06:21:50.484,0.255,-0.365
2021-08-19 06:21:50.488,0.25,-0.38
2021-08-19 06:21:50.492,0.245,-0.375
2021-08-19 06:21:50.496,0.25,-0.37
2021-08-19 06:21:50.500,0.225,-0.355
2021-08-19 06:21:50.504,0.225,-0.375
2021-08-19 06:21:50.508,0.225,-0.405
2021-08-19 06:21:50.512,0.22,-0.41
2021-08-19 06:21:50.516,0.225,-0.43
2021-08-19 06:21:50.520,0.25,-0.44
2021-08-19 06:21:50.524,0.245,-0.48
2021-08-19 06:21:50.528,0.225,-0.495
2021-08-19 06:21:50.532,0.225,-0.52
2021-08-19 06:21:50.536,0.24,-0.535
2021-08-19 06:21:50.540,0.22,-0.535
2021-08-19 06:21:50.544,0.21,-0.52
2021-08-19 06:21:50.548,0.2,-0.51
2021-08-19 06:21:50.552,0.2,-0.495
2021-08-19 06:21:50.556,0.18,-0.485
2021-08-19 06:21:50.560,0.19,-0.48
2021-08-19 06:21:50.564,0.185,-0.46
2021-08-19 06:21:50.568,0.19,-0.425
2021-08-19 06:21:50.572,0.205,-0.38
2021-08-19 06:21:50.576,0.195,-0.345
2021-08-19 06:21:50.580,0.18,-0.315
2021-08-19 06:21:50.584,0.185,-0.27
2021-08-19 06:21:50.588,0.175,-0.24
2021-08-19 06:21:50.592,0.195,-0.22
2021-08-19 06:21:50.596,0.18,-0.2
2021-08-19 06:21:50.600,0.195,-0.17
2021-08-19 06:21:50.604,0.2,-0.13
2021-08-19 06:21:50.608,0.205,-0.115
2021-08-19 06:21:50.612,0.235,-0.1
2021-08-19 06:21:50.616,0.255,-0.06
2021-08-19 06:21:50.620,0.27,-0.045
2021-08-19 06:21:50.624,0.265,0.005
2021-08-19 06:21:50.628,0.29,0.02
2021-08-19 06:21:50.632,0.28,0.05
2021-08-19 06:21:50.636,0.305,0.095
2021-08-19 06:21:50.640,0.31,0.13
2021-08-19 06:21:50.644,0.33,0.14
2021-08-19 06:21:50.648,0.32,0.15
2021-08-19 06:21:50.652,0.33,0.155
2021-08-19 06:21:50.656,0.325,0.165
2021-08-19 06:21:50.660,0.31,0.145
2021-08-19 06:21:50.664,0.295,0.145
2021-08-19 06:21:50.668,0.25,0.125
2021-08-19 06:21:50.672,0.28,0.1
2021-08-19 06:21:50.676,0.295,0.085
2021-08-19 06:21:50.680,0.285,0.07
2021-08-19 06:21:50.684,0.27,0.07
2021-08-19 06:21:50.688,0.25,0.03
2021-08-19 06:21:50.692,0.24,0.005
2021-08-19 06:21:50.696,0.245,-0.02
2021-08-19 06:21:50.700,0.255,-0.04
2021-08-19 06:21:50.704,0.265,-0.05
2021-08-19 06:21:50.708,0.26,-0.09
2021-08-19 06:21:50.712,0.255,-0.1
2021-08-19 06:21:50.716,0.25,-0.115
2021-08-19 06:21:50.720,0.25,-0.12
2021-08-19 06:21:50.724,0.255,-0.145
2021-08-19 06:21:50.728,0.27,-0.13
2021-08-19 06:21:50.732,0.255,-0.145
2021-08-19 06:21:50.736,0.245,-0.16
2021-08-19 06:21:50.740,0.245,-0.18
2021-08-19 06:21:50.744,0.235,-0.205
2021-08-19 06:21:50.748,0.255,-0.215
2021-08-19 06:21:50.752,0.25,-0.24
2021-08-19 06:21:50.756,0.225,-0.295
2021-08-19 06:21:50.760,0.235,-0.32
2021-08-19 06:21:50.764,0.23,-0.34
2021-08-19 06:21:50.768,0.235,-0.355
2021-08-19 06:21:50.772,0.225,-0.36
2021-08-19 06:21:50.776,0.225,-0.36
2021-08-19 06:21:50.780,0.21,-0.38
2021-08-19 06:21:50.784,0.2,-0.365
2021-08-19 06:21:50.788,0.195,-0.365
2021-08-19 06:21:50.792,0.185,-0.355
2021-08-19 06:21:50.796,0.18,-0.34
2021-08-19 06:21:50.800,0.15,-0.315
2021-08-19 06:21:50.804,0.17,-0.305
2021-08-19 06:21:50.808,0.17,-0.275
2021-08-19 06:21:50.812,0.175,-0.24
2021-08-19 06:21:50.816,0.18,-0.2
2021-08-19 06:21:50.820,0.19,-0.165
2021-08-19 06:21:50.824,0.175,-0.13
2021-08-19 06:21:50.828,0.195,-0.12
2021-08-19 06:21:50.832,0.18,-0.105
2021-08-19 06:21:50.836,0.18,-0.105
2021-08-19 06:21:50.840,0.175,-0.105
2021-08-19 06:21:50.844,0.23,-0.125
2021-08-19 06:21:50.848,0.205,-0.115
2021-08-19 06:21:50.852,0.255,-0.12
2021-08-19 06:21:50.856,0.245,-0.11
2021-08-19 06:21:50.860,0.26,-0.105
2021-08-19 06:21:50.864,0.29,-0.055
2021-08-19 06:21:50.868,0.29,-0.025
2021-08-19 06:21:50.872,0.29,-0.005
2021-08-19 06:21:50.876,0.3,-0.01
2021-08-19 06:21:50.880,0.305,0.025
2021-08-19 06:21:50.884,0.295,0.015
2021-08-19 06:21:50.888,0.295,-0.005
2021-08-19 06:21:50.892,0.265,-0.01
2021-08-19 06:21:50.896,0.25,-0.02
2021-08-19 06:21:50.900,0.215,-0.025
2021-08-19 06:21:50.904,0.21,-0.03
2021-08-19 06:21:50.908,0.195,-0.025
2021-08-19 06:21:50.912,0.215,-0.03
2021-08-19 06:21:50.916,0.24,0.0
2021-08-19 06:21:50.920,0.235,0.02
2021-08-19 06:21:50.924,0.215,0.07
2021-08-19 06:21:50.928,0.215,0.235
2021-08-19 06:21:50.932,0.23,0.49
2021-08-19 06:21:50.936,0.23,0.765
2021-08-19 06:21:50.940,0.245,0.925
2021-08-19 06:21:50.944,0.245,0.915
2021-08-19 06:21:50.948,0.215,0.82
2021-08-19 06:21:50.952,0.18,0.625
2021-08-19 06:21:50.956,0.155,0.35
2021-08-19 06:21:50.960,0.13,-0.03
2021-08-19 06:21:50.964,0.07,-0.425
2021-08-19 06:21:50.968,-0.035,-0.655
2021-08-19 06:21:50.972,-0.26,-0.52
2021-08-19 06:21:50.976,-0.57,-0.23
2021-08-19 06:21:50.980,-0.88,-0.12
2021-08-19 06:21:50.984,-1.07,-0.325
2021-08-19 06:21:50.988,-1.16,-0.6
2021-08-19 06:21:50.992,-1.075,-0.775
2021-08-19 06:21:50.996,-0.815,-0.86
2021-08-19 06:21:51.000,-0.415,-0.895
2021-08-19 06:21:51.004,-0.12,-0.83
2021-08-19 06:21:51.008,0.0,-0.705
2021-08-19 06:21:51.012,-0.015,-0.63
2021-08-19 06:21:51.016,-0.01,-0.535
2021-08-19 06:21:51.020,-0.035,-0.52
2021-08-19 06:21:51.024,0.0,-0.505
2021-08-19 06:21:51.028,0.01,-0.485
2021-08-19 06:21:51.032,0.04,-0.455
2021-08-19 06:21:51.036,0.09,-0.43
2021-08-19 06:21:51.040,0.145,-0.395
2021-08-19 06:21:51.044,0.195,-0.355
2021-08-19 06:21:51.048,0.24,-0.335
2021-08-19 06:21:51.052,0.23,-0.315
2021-08-19 06:21:51.056,0.205,-0.315
2021-08-19 06:21:51.060,0.25,-0.3
2021-08-19 06:21:51.064,0.245,-0.31
2021-08-19 06:21:51.068,0.285,-0.285
2021-08-19 06:21:51.072,0.29,-0.28
2021-08-19 06:21:51.076,0.305,-0.27
2021-08-19 06:21:51.080,0.315,-0.28
2021-08-19 06:21:51.084,0.305,-0.295
2021-08-19 06:21:51.088,0.345,-0.31
2021-08-19 06:21:51.092,0.34,-0.275
2021-08-19 06:21:51.096,0.345,-0.255
2021-08-19 06:21:51.100,0.315,-0.24
2021-08-19 06:21:51.104,0.35,-0.22
2021-08-19 06:21:51.108,0.355,-0.155
2021-08-19 06:21:51.112,0.365,-0.14
2021-08-19 06:21:51.116,0.355,-0.125
2021-08-19 06:21:51.120,0.355,-0.14
2021-08-19 06:21:51.124,0.355,-0.155
2021-08-19 06:21:51.128,0.37,-0.16
2021-08-19 06:21:51.132,0.38,-0.175
2021-08-19 06:21:51.136,0.4,-0.19
2021-08-19 06:21:51.140,0.395,-0.205
2021-08-19 06:21:51.144,0.38,-0.225
2021-08-19 06:21:51.148,0.335,-0.235
2021-08-19 06:21:51.152,0.32,-0.23
2021-08-19 06:21:51.156,0.305,-0.26
2021-08-19 06:21:51.160,0.285,-0.27
2021-08-19 06:21:51.164,0.275,-0.295
2021-08-19 06:21:51.168,0.265,-0.315
2021-08-19 06:21:51.172,0.25,-0.295
2021-08-19 06:21:51.176,0.255,-0.305
2021-08-19 06:21:51.180,0.28,-0.31
2021-08-19 06:21:51.184,0.27,-0.31
2021-08-19 06:21:51.188,0.265,-0.31
2021-08-19 06:21:51.192,0.245,-0.305
2021-08-19 06:21:51.196,0.25,-0.32
2021-08-19 06:21:51.200,0.25,-0.32
2021-08-19 06:21:51.204,0.235,-0.34
2021-08-19 06:21:51.208,0.24,-0.35
2021-08-19 06:21:51.212,0.24,-0.355
2021-08-19 06:21:51.216,0.24,-0.37
2021-08-19 06:21:51.220,0.255,-0.37
2021-08-19 06:21:51.224,0.235,-0.355
2021-08-19 06:21:51.228,0.235,-0.375
2021-08-19 06:21:51.232,0.21,-0.33
2021-08-19 06:21:51.236,0.215,-0.29
2021-08-19 06:21:51.240,0.19,-0.265
2021-08-19 06:21:51.244,0.18,-0.255
2021-08-19 06:21:51.248,0.195,-0.23
2021-08-19 06:21:51.252,0.2,-0.205
2021-08-19 06:21:51.256,0.195,-0.16
2021-08-19 06:21:51.260,0.205,-0.115
2021-08-19 06:21:51.264,0.195,-0.065
2021-08-19 06:21:51.268,0.18,-0.075
2021-08-19 06:21:51.272,0.18,-0.065
2021-08-19 06:21:51.276,0.195,-0.055
2021-08-19 06:21:51.280,0.195,-0.04
2021-08-19 06:21:51.284,0.185,-0.065
2021-08-19 06:21:51.288,0.215,-0.065
2021-08-19 06:21:51.292,0.245,-0.06
2021-08-19 06:21:51.296,0.245,-0.055
2021-08-19 06:21:51.300,0.255,-0.05
2021-08-19 06:21:51.304,0.255,-0.065
2021-08-19 06:21:51.308,0.27,-0.08
2021-08-19 06:21:51.312,0.28,-0.08
2021-08-19 06:21:51.316,0.275,-0.07
2021-08-19 06:21:51.320,0.28,-0.06
2021-08-19 06:21:51.324,0.305,-0.035
2021-08-19 06:21:51.328,0.29,-0.01
2021-08-19 06:21:51.332,0.285,-0.01
2021-08-19 06:21:51.336,0.29,-0.005
2021-08-19 06:21:51.340,0.285,0.015
2021-08-19 06:21:51.344,0.295,-0.005
2021-08-19 06:21:51.348,0.3,-0.01
2021-08-19 06:21:51.352,0.305,-0.01
2021-08-19 06:21:51.356,0.295,-0.035
2021-08-19 06:21:51.360,0.3,-0.06
2021-08-19 06:21:51.364,0.28,-0.065
2021-08-19 06:21:51.368,0.255,-0.095
2021-08-19 06:21:51.372,0.24,-0.11
2021-08-19 06:21:51.376,0.21,-0.135
2021-08-19 06:21:51.380,0.195,-0.16
2021-08-19 06:21:51.384,0.205,-0.16
2021-08-19 06:21:51.388,0.195,-0.17
2021-08-19 06:21:51.392,0.19,-0.205
2021-08-19 06:21:51.396,0.18,-0.205
2021-08-19 06:21:51.400,0.17,-0.215
2021-08-19 06:21:51.404,0.19,-0.215
2021-08-19 06:21:51.408,0.18,-0.235
2021-08-19 06:21:51.412,0.145,-0.245
2021-08-19 06:21:51.416,0.155,-0.245
2021-08-19 06:21:51.420,0.18,-0.235
2021-08-19 06:21:51.424,0.165,-0.285
2021-08-19 06:21:51.428,0.17,-0.3
2021-08-19 06:21:51.432,0.155,-0.32
2021-08-19 06:21:51.436,0.175,-0.35
2021-08-19 06:21:51.440,0.145,-0.385
2021-08-19 06:21:51.444,0.16,-0.385
2021-08-19 06:21:51.448,0.155,-0.4
2021-08-19 06:21:51.452,0.15,-0.43
2021-08-19 06:21:51.456,0.12,-0.43
2021-08-19 06:21:51.460,0.125,-0.42
2021-08-19 06:21:51.464,0.12,-0.42
2021-08-19 06:21:51.468,0.125,-0.405
2021-08-19 06:21:51.472,0.13,-0.36
2021-08-19 06:21:51.476,0.12,-0.34
2021-08-19 06:21:51.480,0.12,-0.3
2021-08-19 06:21:51.484,0.1,-0.29
2021-08-19 06:21:51.488,0.11,-0.245
2021-08-19 06:21:51.492,0.12,-0.215
2021-08-19 06:21:51.496,0.095,-0.21
2021-08-19 06:21:51.500,0.105,-0.2
2021-08-19 06:21:51.504,0.12,-0.2
2021-08-19 06:21:51.508,0.145,-0.2
2021-08-19 06:21:51.512,0.14,-0.205
2021-08-19 06:21:51.516,0.19,-0.2
2021-08-19 06:21:51.520,0.19,-0.215
2021-08-19 06:21:51.524,0.2,-0.21
2021-08-19 06:21:51.528,0.21,-0.21
2021-08-19 06:21:51.532,0.22,-0.23
