Time,ECG1,ECG2
2021-08-19 23:56:33.000,-0.545,-0.36
2021-08-19 23:56:33.004,-0.585,-0.35
2021-08-19 23:56:33.008,-0.575,-0.37
2021-08-19 23:56:33.012,-0.56,-0.36
2021-08-19 23:56:33.016,-0.525,-0.375
2021-08-19 23:56:33.020,-0.5,-0.38
2021-08-19 23:56:33.024,-0.47,-0.415
2021-08-19 23:56:33.028,-0.475,-0.4
2021-08-19 23:56:33.032,-0.47,-0.41
2021-08-19 23:56:33.036,-0.44,-0.405
2021-08-19 23:56:33.040,-0.44,-0.41
2021-08-19 23:56:33.044,-0.435,-0.4
2021-08-19 23:56:33.048,-0.42,-0.4
2021-08-19 23:56:33.052,-0.405,-0.395
2021-08-19 23:56:33.056,-0.395,-0.4
2021-08-19 23:56:33.060,-0.36,-0.4
2021-08-19 23:56:33.064,-0.33,-0.39
2021-08-19 23:56:33.068,-0.345,-0.385
2021-08-19 23:56:33.072,-0.365,-0.385
2021-08-19 23:56:33.076,-0.33,-0.375
2021-08-19 23:56:33.080,-0.345,-0.405
2021-08-19 23:56:33.084,-0.34,-0.385
2021-08-19 23:56:33.088,-0.335,-0.36
2021-08-19 23:56:33.092,-0.34,-0.365
2021-08-19 23:56:33.096,-0.31,-0.375
2021-08-19 23:56:33.100,-0.325,-0.37
2021-08-19 23:56:33.104,-0.31,-0.39
2021-08-19 23:56:33.108,-0.32,-0.365
2021-08-19 23:56:33.112,-0.315,-0.38
2021-08-19 23:56:33.116,-0.305,-0.37
2021-08-19 23:56:33.120,-0.305,-0.39
2021-08-19 23:56:33.124,-0.245,-0.385
2021-08-19 23:56:33.128,-0.21,-0.345
2021-08-19 23:56:33.132,-0.215,-0.365
2021-08-19 23:56:33.136,-0.19,-0.345
2021-08-19 23:56:33.140,-0.17,-0.33
2021-08-19 23:56:33.144,-0.115,-0.305
2021-08-19 23:56:33.148,-0.045,-0.295
2021-08-19 23:56:33.152,0.025,-0.29
2021-08-19 23:56:33.156,0.125,-0.27
2021-08-19 23:56:33.160,0.215,-0.28
2021-08-19 23:56:33.164,0.29,-0.27
2021-08-19 23:56:33.168,0.32,-0.285
2021-08-19 23:56:33.172,0.295,-0.3
2021-08-19 23:56:33.176,0.32,-0.265
2021-08-19 23:56:33.180,0.26,-0.22
2021-08-19 23:56:33.184,0.16,-0.21
2021-08-19 23:56:33.188,0.2,-0.24
2021-08-19 23:56:33.192,0.4,-0.375
2021-08-19 23:56:33.196,0.665,-0.6
2021-08-19 23:56:33.200,0.93,-0.91
2021-08-19 23:56:33.204,1.065,-1.125
2021-08-19 23:56:33.208,0.965,-1.17
2021-08-19 23:56:33.212,0.58,-0.975
2021-08-19 23:56:33.216,0.195,-0.665
2021-08-19 23:56:33.220,-0.045,-0.39
2021-08-19 23:56:33.224,-0.18,-0.275
2021-08-19 23:56:33.228,-0.245,-0.185
2021-08-19 23:56:33.232,-0.29,-0.16
2021-08-19 23:56:33.236,-0.325,-0.19
2021-08-19 23:56:33.240,-0.375,-0.22
2021-08-19 23:56:33.244,-0.415,-0.25
2021-08-19 23:56:33.248,-0.43,-0.27
2021-08-19 23:56:33.252,-0.46,-0.29
2021-08-19 23:56:33.256,-0.46,-0.32
2021-08-19 23:56:33.260,-0.48,-0.33
2021-08-19 23:56:33.264,-0.495,-0.35
2021-08-19 23:56:33.268,-0.515,-0.34
2021-08-19 23:56:33.272,-0.52,-0.36
2021-08-19 23:56:33.276,-0.545,-0.34
2021-08-19 23:56:33.280,-0.52,-0.35
2021-08-19 23:56:33.284,-0.53,-0.335
2021-08-19 23:56:33.288,-0.53,-0.32
2021-08-19 23:56:33.292,-0.525,-0.31
2021-08-19 23:56:33.296,-0.525,-0.295
2021-08-19 23:56:33.300,-0.52,-0.3
2021-08-19 23:56:33.304,-0.525,-0.3
2021-08-19 23:56:33.308,-0.535,-0.29
2021-08-19 23:56:33.312,-0.54,-0.275
2021-08-19 23:56:33.316,-0.53,-0.29
2021-08-19 23:56:33.320,-0.5,-0.295
2021-08-19 23:56:33.324,-0.495,-0.27
2021-08-19 23:56:33.328,-0.505,-0.285
2021-08-19 23:56:33.332,-0.49,-0.27
2021-08-19 23:56:33.336,-0.48,-0.245
2021-08-19 23:56:33.340,-0.46,-0.245
2021-08-19 23:56:33.344,-0.47,-0.225
2021-08-19 23:56:33.348,-0.46,-0.225
2021-08-19 23:56:33.352,-0.44,-0.18
2021-08-19 23:56:33.356,-0.415,-0.19
2021-08-19 23:56:33.360,-0.395,-0.16
2021-08-19 23:56:33.364,-0.385,-0.165
2021-08-19 23:56:33.368,-0.395,-0.16
2021-08-19 23:56:33.372,-0.41,-0.125
2021-08-19 23:56:33.376,-0.41,-0.115
2021-08-19 23:56:33.380,-0.415,-0.145
2021-08-19 23:56:33.384,-0.455,-0.09
2021-08-19 23:56:33.388,-0.46,-0.085
2021-08-19 23:56:33.392,-0.48,-0.085
2021-08-19 23:56:33.396,-0.51,-0.05
2021-08-19 23:56:33.400,-0.51,-0.07
2021-08-19 23:56:33.404,-0.515,-0.055
2021-08-19 23:56:33.408,-0.5,-0.065
2021-08-19 23:56:33.412,-0.48,-0.05
2021-08-19 23:56:33.416,-0.475,-0.055
2021-08-19 23:56:33.420,-0.455,-0.065
2021-08-19 23:56:33.424,-0.43,-0.08
2021-08-19 23:56:33.428,-0.405,-0.09
2021-08-19 23:56:33.432,-0.4,-0.105
2021-08-19 23:56:33.436,-0.385,-0.09
2021-08-19 23:56:33.440,-0.385,-0.12
2021-08-19 23:56:33.444,-0.375,-0.14
2021-08-19 23:56:33.448,-0.365,-0.16
2021-08-19 23:56:33.452,-0.36,-0.15
2021-08-19 23:56:33.456,-0.36,-0.17
2021-08-19 23:56:33.460,-0.35,-0.185
2021-08-19 23:56:33.464,-0.345,-0.195
2021-08-19 23:56:33.468,-0.32,-0.195
2021-08-19 23:56:33.472,-0.33,-0.195
2021-08-19 23:56:33.476,-0.34,-0.19
2021-08-19 23:56:33.480,-0.335,-0.185
2021-08-19 23:56:33.484,-0.345,-0.17
2021-08-19 23:56:33.488,-0.33,-0.175
2021-08-19 23:56:33.492,-0.335,-0.175
2021-08-19 23:56:33.496,-0.32,-0.175
2021-08-19 23:56:33.500,-0.32,-0.16
2021-08-19 23:56:33.504,-0.315,-0.16
2021-08-19 23:56:33.508,-0.305,-0.16
2021-08-19 23:56:33.512,-0.31,-0.14
2021-08-19 23:56:33.516,-0.3,-0.09
2021-08-19 23:56:33.520,-0.32,-0.1
2021-08-19 23:56:33.524,-0.295,-0.125
2021-08-19 23:56:33.528,-0.295,-0.1
2021-08-19 23:56:33.532,-0.285,-0.105
2021-08-19 23:56:33.536,-0.27,-0.1
2021-08-19 23:56:33.540,-0.28,-0.075
2021-08-19 23:56:33.544,-0.275,-0.07
2021-08-19 23:56:33.548,-0.275,-0.09
2021-08-19 23:56:33.552,-0.275,-0.05
2021-08-19 23:56:33.556,-0.26,-0.035
2021-08-19 23:56:33.560,-0.24,-0.05
2021-08-19 23:56:33.564,-0.23,-0.02
2021-08-19 23:56:33.568,-0.21,-0.04
2021-08-19 23:56:33.572,-0.225,-0.025
2021-08-19 23:56:33.576,-0.255,0.005
2021-08-19 23:56:33.580,-0.28,0.0
2021-08-19 23:56:33.584,-0.3,0.01
2021-08-19 23:56:33.588,-0.32,0.0
2021-08-19 23:56:33.592,-0.35,0.005
2021-08-19 23:56:33.596,-0.38,0.025
2021-08-19 23:56:33.600,-0.365,0.035
2021-08-19 23:56:33.604,-0.355,0.05
2021-08-19 23:56:33.608,-0.37,0.055
2021-08-19 23:56:33.612,-0.35,0.035
2021-08-19 23:56:33.616,-0.36,0.03
2021-08-19 23:56:33.620,-0.35,0.06
2021-08-19 23:56:33.624,-0.3,0.05
2021-08-19 23:56:33.628,-0.31,0.05
2021-08-19 23:56:33.632,-0.3,0.02
2021-08-19 23:56:33.636,-0.295,0.03
2021-08-19 23:56:33.640,-0.285,0.03
2021-08-19 23:56:33.644,-0.305,0.02
2021-08-19 23:56:33.648,-0.29,0.01
2021-08-19 23:56:33.652,-0.305,-0.035
2021-08-19 23:56:33.656,-0.31,-0.025
2021-08-19 23:56:33.660,-0.32,-0.03
2021-08-19 23:56:33.664,-0.34,-0.05
2021-08-19 23:56:33.668,-0.35,-0.065
2021-08-19 23:56:33.672,-0.34,-0.055
2021-08-19 23:56:33.676,-0.35,-0.075
2021-08-19 23:56:33.680,-0.345,-0.115
2021-08-19 23:56:33.684,-0.365,-0.09
2021-08-19 23:56:33.688,-0.35,-0.105
2021-08-19 23:56:33.692,-0.365,-0.08
2021-08-19 23:56:33.696,-0.355,-0.08
2021-08-19 23:56:33.700,-0.35,-0.09
2021-08-19 23:56:33.704,-0.365,-0.09
2021-08-19 23:56:33.708,-0.35,-0.12
2021-08-19 23:56:33.712,-0.34,-0.09
2021-08-19 23:56:33.716,-0.335,-0.095
2021-08-19 23:56:33.720,-0.34,-0.08
2021-08-19 23:56:33.724,-0.34,-0.08
2021-08-19 23:56:33.728,-0.36,-0.09
2021-08-19 23:56:33.732,-0.35,-0.075
2021-08-19 23:56:33.736,-0.35,-0.08
2021-08-19 23:56:33.740,-0.355,-0.06
2021-08-19 23:56:33.744,-0.35,-0.07
2021-08-19 23:56:33.748,-0.36,-0.055
2021-08-19 23:56:33.752,-0.35,-0.08
2021-08-19 23:56:33.756,-0.33,-0.075
2021-08-19 23:56:33.760,-0.32,-0.05
2021-08-19 23:56:33.764,-0.255,-0.06
2021-08-19 23:56:33.768,-0.22,-0.09
2021-08-19 23:56:33.772,-0.14,-0.09
2021-08-19 23:56:33.776,-0.035,-0.085
2021-08-19 23:56:33.780,0.035,-0.1
2021-08-19 23:56:33.784,0.095,-0.125
2021-08-19 23:56:33.788,0.145,-0.17
2021-08-19 23:56:33.792,0.205,-0.135
2021-08-19 23:56:33.796,0.195,-0.085
2021-08-19 23:56:33.800,0.18,-0.095
2021-08-19 23:56:33.804,0.22,-0.125
2021-08-19 23:56:33.808,0.435,-0.24
2021-08-19 23:56:33.812,0.74,-0.46
2021-08-19 23:56:33.816,1.045,-0.72
2021-08-19 23:56:33.820,1.22,-0.935
2021-08-19 23:56:33.824,1.11,-0.965
2021-08-19 23:56:33.828,0.755,-0.78
2021-08-19 23:56:33.832,0.285,-0.42
2021-08-19 23:56:33.836,-0.07,-0.08
2021-08-19 23:56:33.840,-0.23,0.145
2021-08-19 23:56:33.844,-0.3,0.25
2021-08-19 23:56:33.848,-0.325,0.285
2021-08-19 23:56:33.852,-0.335,0.3
2021-08-19 23:56:33.856,-0.35,0.28
2021-08-19 23:56:33.860,-0.375,0.245
2021-08-19 23:56:33.864,-0.39,0.22
2021-08-19 23:56:33.868,-0.41,0.205
2021-08-19 23:56:33.872,-0.445,0.185
2021-08-19 23:56:33.876,-0.46,0.14
2021-08-19 23:56:33.880,-0.455,0.1
2021-08-19 23:56:33.884,-0.46,0.09
2021-08-19 23:56:33.888,-0.47,0.095
2021-08-19 23:56:33.892,-0.47,0.08
2021-08-19 23:56:33.896,-0.465,0.08
2021-08-19 23:56:33.900,-0.47,0.065
2021-08-19 23:56:33.904,-0.48,0.055
2021-08-19 23:56:33.908,-0.48,0.06
2021-08-19 23:56:33.912,-0.495,0.06
2021-08-19 23:56:33.916,-0.49,0.08
2021-08-19 23:56:33.920,-0.48,0.06
2021-08-19 23:56:33.924,-0.48,0.065
2021-08-19 23:56:33.928,-0.48,0.06
2021-08-19 23:56:33.932,-0.47,0.055
2021-08-19 23:56:33.936,-0.505,0.055
2021-08-19 23:56:33.940,-0.49,0.055
2021-08-19 23:56:33.944,-0.505,0.05
2021-08-19 23:56:33.948,-0.505,0.04
2021-08-19 23:56:33.952,-0.5,0.075
2021-08-19 23:56:33.956,-0.53,0.07
2021-08-19 23:56:33.960,-0.52,0.08
2021-08-19 23:56:33.964,-0.53,0.07
2021-08-19 23:56:33.968,-0.545,0.075
2021-08-19 23:56:33.972,-0.53,0.06
2021-08-19 23:56:33.976,-0.56,0.04
2021-08-19 23:56:33.980,-0.56,0.04
2021-08-19 23:56:33.984,-0.55,0.07
2021-08-19 23:56:33.988,-0.54,0.05
2021-08-19 23:56:33.992,-0.535,0.065
2021-08-19 23:56:33.996,-0.54,0.06
2021-08-19 23:56:34.000,-0.51,0.055
2021-08-19 23:56:34.004,-0.505,0.05
2021-08-19 23:56:34.008,-0.5,0.06
2021-08-19 23:56:34.012,-0.515,0.04
2021-08-19 23:56:34.016,-0.485,0.07
2021-08-19 23:56:34.020,-0.49,0.065
2021-08-19 23:56:34.024,-0.455,0.08
2021-08-19 23:56:34.028,-0.435,0.06
2021-08-19 23:56:34.032,-0.4,0.085
2021-08-19 23:56:34.036,-0.365,0.125
2021-08-19 23:56:34.040,-0.33,0.115
2021-08-19 23:56:34.044,-0.285,0.16
2021-08-19 23:56:34.048,-0.28,0.16
2021-08-19 23:56:34.052,-0.265,0.155
2021-08-19 23:56:34.056,-0.29,0.175
2021-08-19 23:56:34.060,-0.31,0.175
2021-08-19 23:56:34.064,-0.33,0.175
2021-08-19 23:56:34.068,-0.32,0.16
2021-08-19 23:56:34.072,-0.305,0.12
2021-08-19 23:56:34.076,-0.285,0.13
2021-08-19 23:56:34.080,-0.285,0.12
2021-08-19 23:56:34.084,-0.3,0.1
2021-08-19 23:56:34.088,-0.29,0.08
2021-08-19 23:56:34.092,-0.31,0.105
2021-08-19 23:56:34.096,-0.305,0.115
2021-08-19 23:56:34.100,-0.285,0.105
2021-08-19 23:56:34.104,-0.28,0.09
2021-08-19 23:56:34.108,-0.275,0.08
2021-08-19 23:56:34.112,-0.26,0.075
2021-08-19 23:56:34.116,-0.27,0.065
2021-08-19 23:56:34.120,-0.265,0.05
2021-08-19 23:56:34.124,-0.26,0.08
2021-08-19 23:56:34.128,-0.24,0.07
2021-08-19 23:56:34.132,-0.245,0.085
2021-08-19 23:56:34.136,-0.265,0.085
2021-08-19 23:56:34.140,-0.25,0.08
2021-08-19 23:56:34.144,-0.245,0.09
2021-08-19 23:56:34.148,-0.23,0.095
2021-08-19 23:56:34.152,-0.23,0.095
2021-08-19 23:56:34.156,-0.255,0.1
2021-08-19 23:56:34.160,-0.255,0.1
2021-08-19 23:56:34.164,-0.245,0.1
2021-08-19 23:56:34.168,-0.245,0.095
2021-08-19 23:56:34.172,-0.275,0.1
2021-08-19 23:56:34.176,-0.26,0.095
2021-08-19 23:56:34.180,-0.28,0.105
2021-08-19 23:56:34.184,-0.28,0.12
2021-08-19 23:56:34.188,-0.27,0.09
2021-08-19 23:56:34.192,-0.225,0.105
2021-08-19 23:56:34.196,-0.2,0.08
2021-08-19 23:56:34.200,-0.145,0.085
2021-08-19 23:56:34.204,-0.06,0.1
2021-08-19 23:56:34.208,-0.01,0.1
2021-08-19 23:56:34.212,0.055,0.07
2021-08-19 23:56:34.216,0.055,0.03
2021-08-19 23:56:34.220,0.055,0.01
2021-08-19 23:56:34.224,0.035,0.035
2021-08-19 23:56:34.228,0.005,0.06
2021-08-19 23:56:34.232,-0.035,0.05
2021-08-19 23:56:34.236,0.07,0.015
2021-08-19 23:56:34.240,0.36,-0.08
2021-08-19 23:56:34.244,0.72,-0.32
2021-08-19 23:56:34.248,1.04,-0.63
2021-08-19 23:56:34.252,1.195,-0.85
2021-08-19 23:56:34.256,1.175,-0.83
2021-08-19 23:56:34.260,0.9,-0.6
2021-08-19 23:56:34.264,0.5,-0.22
2021-08-19 23:56:34.268,0.175,0.135
2021-08-19 23:56:34.272,0.0,0.305
2021-08-19 23:56:34.276,-0.12,0.395
2021-08-19 23:56:34.280,-0.22,0.405
2021-08-19 23:56:34.284,-0.3,0.39
2021-08-19 23:56:34.288,-0.355,0.365
2021-08-19 23:56:34.292,-0.38,0.34
2021-08-19 23:56:34.296,-0.38,0.33
2021-08-19 23:56:34.300,-0.41,0.32
2021-08-19 23:56:34.304,-0.405,0.31
2021-08-19 23:56:34.308,-0.415,0.28
2021-08-19 23:56:34.312,-0.43,0.24
2021-08-19 23:56:34.316,-0.425,0.205
2021-08-19 23:56:34.320,-0.445,0.195
2021-08-19 23:56:34.324,-0.45,0.16
2021-08-19 23:56:34.328,-0.47,0.14
2021-08-19 23:56:34.332,-0.47,0.105
2021-08-19 23:56:34.336,-0.475,0.085
2021-08-19 23:56:34.340,-0.485,0.095
2021-08-19 23:56:34.344,-0.48,0.1
2021-08-19 23:56:34.348,-0.49,0.095
2021-08-19 23:56:34.352,-0.485,0.07
2021-08-19 23:56:34.356,-0.49,0.065
2021-08-19 23:56:34.360,-0.475,0.055
2021-08-19 23:56:34.364,-0.49,0.065
2021-08-19 23:56:34.368,-0.495,0.08
2021-08-19 23:56:34.372,-0.48,0.06
2021-08-19 23:56:34.376,-0.49,0.07
2021-08-19 23:56:34.380,-0.465,0.055
2021-08-19 23:56:34.384,-0.485,0.05
2021-08-19 23:56:34.388,-0.485,0.05
2021-08-19 23:56:34.392,-0.49,0.04
2021-08-19 23:56:34.396,-0.475,0.04
2021-08-19 23:56:34.400,-0.51,0.05
2021-08-19 23:56:34.404,-0.52,0.04
2021-08-19 23:56:34.408,-0.54,0.035
2021-08-19 23:56:34.412,-0.55,0.03
2021-08-19 23:56:34.416,-0.52,0.03
2021-08-19 23:56:34.420,-0.52,0.005
2021-08-19 23:56:34.424,-0.5,0.015
2021-08-19 23:56:34.428,-0.48,0.005
2021-08-19 23:56:34.432,-0.48,-0.005
2021-08-19 23:56:34.436,-0.46,-0.015
2021-08-19 23:56:34.440,-0.47,0.01
2021-08-19 23:56:34.444,-0.445,0.01
2021-08-19 23:56:34.448,-0.43,0.01
2021-08-19 23:56:34.452,-0.425,0.025
2021-08-19 23:56:34.456,-0.38,0.045
2021-08-19 23:56:34.460,-0.365,0.04
2021-08-19 23:56:34.464,-0.335,0.045
2021-08-19 23:56:34.468,-0.31,0.05
2021-08-19 23:56:34.472,-0.28,0.065
2021-08-19 23:56:34.476,-0.27,0.07
2021-08-19 23:56:34.480,-0.25,0.09
2021-08-19 23:56:34.484,-0.25,0.085
2021-08-19 23:56:34.488,-0.235,0.08
2021-08-19 23:56:34.492,-0.24,0.105
2021-08-19 23:56:34.496,-0.27,0.13
2021-08-19 23:56:34.500,-0.285,0.095
2021-08-19 23:56:34.504,-0.31,0.095
2021-08-19 23:56:34.508,-0.325,0.08
2021-08-19 23:56:34.512,-0.3,0.09
2021-08-19 23:56:34.516,-0.295,0.075
2021-08-19 23:56:34.520,-0.295,0.1
2021-08-19 23:56:34.524,-0.26,0.08
2021-08-19 23:56:34.528,-0.23,0.09
2021-08-19 23:56:34.532,-0.23,0.07
2021-08-19 23:56:34.536,-0.24,0.035
2021-08-19 23:56:34.540,-0.265,0.03
2021-08-19 23:56:34.544,-0.26,0.005
2021-08-19 23:56:34.548,-0.27,0.0
2021-08-19 23:56:34.552,-0.265,-0.01
2021-08-19 23:56:34.556,-0.26,-0.02
2021-08-19 23:56:34.560,-0.275,-0.035
2021-08-19 23:56:34.564,-0.29,-0.045
2021-08-19 23:56:34.568,-0.27,-0.055
2021-08-19 23:56:34.572,-0.28,-0.07
2021-08-19 23:56:34.576,-0.28,-0.075
2021-08-19 23:56:34.580,-0.265,-0.065
2021-08-19 23:56:34.584,-0.285,-0.08
2021-08-19 23:56:34.588,-0.28,-0.095
2021-08-19 23:56:34.592,-0.26,-0.095
2021-08-19 23:56:34.596,-0.26,-0.075
2021-08-19 23:56:34.600,-0.28,-0.08
2021-08-19 23:56:34.604,-0.29,-0.095
2021-08-19 23:56:34.608,-0.3,-0.11
2021-08-19 23:56:34.612,-0.305,-0.105
2021-08-19 23:56:34.616,-0.285,-0.11
2021-08-19 23:56:34.620,-0.275,-0.12
2021-08-19 23:56:34.624,-0.305,-0.12
2021-08-19 23:56:34.628,-0.29,-0.15
2021-08-19 23:56:34.632,-0.285,-0.15
2021-08-19 23:56:34.636,-0.28,-0.15
2021-08-19 23:56:34.640,-0.265,-0.16
2021-08-19 23:56:34.644,-0.255,-0.155
2021-08-19 23:56:34.648,-0.245,-0.13
2021-08-19 23:56:34.652,-0.23,-0.165
2021-08-19 23:56:34.656,-0.205,-0.14
2021-08-19 23:56:34.660,-0.205,-0.125
2021-08-19 23:56:34.664,-0.185,-0.105
2021-08-19 23:56:34.668,-0.18,-0.1
2021-08-19 23:56:34.672,-0.165,-0.09
2021-08-19 23:56:34.676,-0.17,-0.095
2021-08-19 23:56:34.680,-0.13,-0.065
2021-08-19 23:56:34.684,-0.145,-0.055
2021-08-19 23:56:34.688,-0.135,-0.045
2021-08-19 23:56:34.692,-0.12,-0.045
2021-08-19 23:56:34.696,-0.11,-0.03
2021-08-19 23:56:34.700,-0.12,-0.01
2021-08-19 23:56:34.704,-0.12,-0.005
2021-08-19 23:56:34.708,-0.145,0.0
2021-08-19 23:56:34.712,-0.17,0.0
2021-08-19 23:56:34.716,-0.22,-0.01
2021-08-19 23:56:34.720,-0.255,-0.03
2021-08-19 23:56:34.724,-0.265,-0.03
2021-08-19 23:56:34.728,-0.255,-0.025
2021-08-19 23:56:34.732,-0.24,-0.01
2021-08-19 23:56:34.736,-0.23,-0.015
2021-08-19 23:56:34.740,-0.22,-0.005
2021-08-19 23:56:34.744,-0.205,-0.035
2021-08-19 23:56:34.748,-0.2,-0.03
2021-08-19 23:56:34.752,-0.185,-0.07
2021-08-19 23:56:34.756,-0.21,-0.07
2021-08-19 23:56:34.760,-0.2,-0.1
2021-08-19 23:56:34.764,-0.225,-0.13
2021-08-19 23:56:34.768,-0.225,-0.155
2021-08-19 23:56:34.772,-0.235,-0.165
2021-08-19 23:56:34.776,-0.23,-0.165
2021-08-19 23:56:34.780,-0.22,-0.19
2021-08-19 23:56:34.784,-0.25,-0.175
2021-08-19 23:56:34.788,-0.225,-0.21
2021-08-19 23:56:34.792,-0.215,-0.21
2021-08-19 23:56:34.796,-0.205,-0.19
2021-08-19 23:56:34.800,-0.25,-0.2
2021-08-19 23:56:34.804,-0.245,-0.21
2021-08-19 23:56:34.808,-0.24,-0.23
2021-08-19 23:56:34.812,-0.23,-0.21
2021-08-19 23:56:34.816,-0.225,-0.2
2021-08-19 23:56:34.820,-0.245,-0.205
2021-08-19 23:56:34.824,-0.245,-0.21
2021-08-19 23:56:34.828,-0.24,-0.19
2021-08-19 23:56:34.832,-0.25,-0.19
2021-08-19 23:56:34.836,-0.275,-0.2
2021-08-19 23:56:34.840,-0.285,-0.205
2021-08-19 23:56:34.844,-0.28,-0.225
2021-08-19 23:56:34.848,-0.275,-0.22
2021-08-19 23:56:34.852,-0.25,-0.205
2021-08-19 23:56:34.856,-0.245,-0.235
2021-08-19 23:56:34.860,-0.23,-0.23
2021-08-19 23:56:34.864,-0.24,-0.23
2021-08-19 23:56:34.868,-0.225,-0.22
2021-08-19 23:56:34.872,-0.225,-0.21
2021-08-19 23:56:34.876,-0.21,-0.2
2021-08-19 23:56:34.880,-0.205,-0.19
2021-08-19 23:56:34.884,-0.19,-0.18
2021-08-19 23:56:34.888,-0.165,-0.17
2021-08-19 23:56:34.892,-0.15,-0.16
2021-08-19 23:56:34.896,-0.14,-0.14
2021-08-19 23:56:34.900,-0.115,-0.125
2021-08-19 23:56:34.904,-0.08,-0.13
2021-08-19 23:56:34.908,-0.08,-0.13
2021-08-19 23:56:34.912,-0.09,-0.1
2021-08-19 23:56:34.916,-0.1,-0.105
2021-08-19 23:56:34.920,-0.1,-0.09
2021-08-19 23:56:34.924,-0.13,-0.08
2021-08-19 23:56:34.928,-0.205,-0.095
2021-08-19 23:56:34.932,-0.215,-0.115
2021-08-19 23:56:34.936,-0.25,-0.09
2021-08-19 23:56:34.940,-0.245,-0.08
2021-08-19 23:56:34.944,-0.23,-0.07
2021-08-19 23:56:34.948,-0.225,-0.07
2021-08-19 23:56:34.952,-0.21,-0.1
2021-08-19 23:56:34.956,-0.205,-0.1
2021-08-19 23:56:34.960,-0.2,-0.1
2021-08-19 23:56:34.964,-0.17,-0.08
2021-08-19 23:56:34.968,-0.165,-0.09
2021-08-19 23:56:34.972,-0.19,-0.11
2021-08-19 23:56:34.976,-0.22,-0.13
2021-08-19 23:56:34.980,-0.22,-0.15
2021-08-19 23:56:34.984,-0.225,-0.17
2021-08-19 23:56:34.988,-0.225,-0.165
2021-08-19 23:56:34.992,-0.22,-0.17
2021-08-19 23:56:34.996,-0.235,-0.18
2021-08-19 23:56:35.000,-0.24,-0.2
2021-08-19 23:56:35.004,-0.245,-0.2
2021-08-19 23:56:35.008,-0.245,-0.185
2021-08-19 23:56:35.012,-0.245,-0.21
2021-08-19 23:56:35.016,-0.24,-0.23
2021-08-19 23:56:35.020,-0.235,-0.23
2021-08-19 23:56:35.024,-0.24,-0.22
2021-08-19 23:56:35.028,-0.23,-0.22
2021-08-19 23:56:35.032,-0.245,-0.2
2021-08-19 23:56:35.036,-0.24,-0.22
2021-08-19 23:56:35.040,-0.23,-0.22
2021-08-19 23:56:35.044,-0.24,-0.23
2021-08-19 23:56:35.048,-0.215,-0.225
2021-08-19 23:56:35.052,-0.215,-0.205
2021-08-19 23:56:35.056,-0.21,-0.195
2021-08-19 23:56:35.060,-0.19,-0.21
2021-08-19 23:56:35.064,-0.185,-0.22
2021-08-19 23:56:35.068,-0.18,-0.205
2021-08-19 23:56:35.072,-0.175,-0.18
2021-08-19 23:56:35.076,-0.13,-0.18
2021-08-19 23:56:35.080,-0.06,-0.18
2021-08-19 23:56:35.084,0.035,-0.185
2021-08-19 23:56:35.088,0.15,-0.195
2021-08-19 23:56:35.092,0.245,-0.2
2021-08-19 23:56:35.096,0.34,-0.195
2021-08-19 23:56:35.100,0.385,-0.21
2021-08-19 23:56:35.104,0.465,-0.17
2021-08-19 23:56:35.108,0.48,-0.14
2021-08-19 23:56:35.112,0.455,-0.16
2021-08-19 23:56:35.116,0.455,-0.185
2021-08-19 23:56:35.120,0.59,-0.29
2021-08-19 23:56:35.124,0.8,-0.49
2021-08-19 23:56:35.128,1.08,-0.7
2021-08-19 23:56:35.132,1.29,-0.91
2021-08-19 23:56:35.136,1.3,-1.01
2021-08-19 23:56:35.140,1.03,-0.88
2021-08-19 23:56:35.144,0.535,-0.575
2021-08-19 23:56:35.148,0.15,-0.255
2021-08-19 23:56:35.152,-0.06,-0.06
2021-08-19 23:56:35.156,-0.12,0.045
2021-08-19 23:56:35.160,-0.2,0.125
2021-08-19 23:56:35.164,-0.235,0.15
2021-08-19 23:56:35.168,-0.28,0.21
2021-08-19 23:56:35.172,-0.31,0.19
2021-08-19 23:56:35.176,-0.345,0.185
2021-08-19 23:56:35.180,-0.35,0.155
2021-08-19 23:56:35.184,-0.385,0.125
2021-08-19 23:56:35.188,-0.37,0.075
2021-08-19 23:56:35.192,-0.4,0.07
2021-08-19 23:56:35.196,-0.415,0.055
2021-08-19 23:56:35.200,-0.425,0.05
2021-08-19 23:56:35.204,-0.43,0.06
2021-08-19 23:56:35.208,-0.445,0.075
2021-08-19 23:56:35.212,-0.46,0.065
2021-08-19 23:56:35.216,-0.48,0.065
2021-08-19 23:56:35.220,-0.475,0.08
2021-08-19 23:56:35.224,-0.47,0.07
2021-08-19 23:56:35.228,-0.46,0.07
2021-08-19 23:56:35.232,-0.47,0.07
2021-08-19 23:56:35.236,-0.48,0.05
2021-08-19 23:56:35.240,-0.5,0.055
2021-08-19 23:56:35.244,-0.47,0.06
2021-08-19 23:56:35.248,-0.48,0.065
2021-08-19 23:56:35.252,-0.49,0.07
2021-08-19 23:56:35.256,-0.47,0.07
2021-08-19 23:56:35.260,-0.495,0.09
2021-08-19 23:56:35.264,-0.47,0.08
2021-08-19 23:56:35.268,-0.465,0.095
2021-08-19 23:56:35.272,-0.47,0.085
2021-08-19 23:56:35.276,-0.49,0.09
2021-08-19 23:56:35.280,-0.48,0.105
2021-08-19 23:56:35.284,-0.49,0.1
2021-08-19 23:56:35.288,-0.485,0.115
2021-08-19 23:56:35.292,-0.48,0.15
2021-08-19 23:56:35.296,-0.46,0.15
2021-08-19 23:56:35.300,-0.46,0.155
2021-08-19 23:56:35.304,-0.445,0.17
2021-08-19 23:56:35.308,-0.435,0.17
2021-08-19 23:56:35.312,-0.44,0.185
2021-08-19 23:56:35.316,-0.4,0.2
2021-08-19 23:56:35.320,-0.4,0.215
2021-08-19 23:56:35.324,-0.4,0.22
2021-08-19 23:56:35.328,-0.385,0.235
2021-08-19 23:56:35.332,-0.385,0.24
2021-08-19 23:56:35.336,-0.39,0.225
2021-08-19 23:56:35.340,-0.395,0.24
2021-08-19 23:56:35.344,-0.43,0.255
2021-08-19 23:56:35.348,-0.445,0.275
2021-08-19 23:56:35.352,-0.465,0.28
2021-08-19 23:56:35.356,-0.46,0.275
2021-08-19 23:56:35.360,-0.47,0.295
2021-08-19 23:56:35.364,-0.465,0.27
2021-08-19 23:56:35.368,-0.48,0.27
2021-08-19 23:56:35.372,-0.465,0.28
2021-08-19 23:56:35.376,-0.46,0.26
2021-08-19 23:56:35.380,-0.43,0.25
2021-08-19 23:56:35.384,-0.4,0.22
2021-08-19 23:56:35.388,-0.39,0.2
2021-08-19 23:56:35.392,-0.375,0.19
2021-08-19 23:56:35.396,-0.36,0.185
2021-08-19 23:56:35.400,-0.34,0.16
2021-08-19 23:56:35.404,-0.355,0.155
2021-08-19 23:56:35.408,-0.345,0.14
2021-08-19 23:56:35.412,-0.35,0.12
2021-08-19 23:56:35.416,-0.34,0.135
2021-08-19 23:56:35.420,-0.34,0.11
2021-08-19 23:56:35.424,-0.34,0.095
2021-08-19 23:56:35.428,-0.31,0.1
2021-08-19 23:56:35.432,-0.305,0.13
2021-08-19 23:56:35.436,-0.275,0.12
2021-08-19 23:56:35.440,-0.26,0.12
2021-08-19 23:56:35.444,-0.25,0.105
2021-08-19 23:56:35.448,-0.245,0.125
2021-08-19 23:56:35.452,-0.255,0.125
2021-08-19 23:56:35.456,-0.27,0.125
2021-08-19 23:56:35.460,-0.255,0.125
2021-08-19 23:56:35.464,-0.24,0.115
2021-08-19 23:56:35.468,-0.23,0.145
2021-08-19 23:56:35.472,-0.225,0.135
2021-08-19 23:56:35.476,-0.21,0.14
2021-08-19 23:56:35.480,-0.19,0.135
2021-08-19 23:56:35.484,-0.225,0.135
2021-08-19 23:56:35.488,-0.225,0.14
2021-08-19 23:56:35.492,-0.215,0.145
2021-08-19 23:56:35.496,-0.22,0.155
2021-08-19 23:56:35.500,-0.195,0.17
2021-08-19 23:56:35.504,-0.185,0.17
2021-08-19 23:56:35.508,-0.17,0.17
2021-08-19 23:56:35.512,-0.145,0.2
2021-08-19 23:56:35.516,-0.15,0.21
2021-08-19 23:56:35.520,-0.145,0.215
2021-08-19 23:56:35.524,-0.16,0.205
2021-08-19 23:56:35.528,-0.16,0.2
2021-08-19 23:56:35.532,-0.17,0.215
2021-08-19 23:56:35.536,-0.15,0.205
2021-08-19 23:56:35.540,-0.155,0.2
2021-08-19 23:56:35.544,-0.155,0.205
2021-08-19 23:56:35.548,-0.17,0.21
2021-08-19 23:56:35.552,-0.18,0.23
2021-08-19 23:56:35.556,-0.16,0.2
2021-08-19 23:56:35.560,-0.115,0.21
2021-08-19 23:56:35.564,-0.045,0.225
2021-08-19 23:56:35.568,0.03,0.22
2021-08-19 23:56:35.572,0.085,0.21
2021-08-19 23:56:35.576,0.12,0.165
2021-08-19 23:56:35.580,0.125,0.105
2021-08-19 23:56:35.584,0.13,0.13
2021-08-19 23:56:35.588,0.095,0.13
2021-08-19 23:56:35.592,0.075,0.06
2021-08-19 23:56:35.596,0.17,-0.045
2021-08-19 23:56:35.600,0.415,-0.205
2021-08-19 23:56:35.604,0.78,-0.47
2021-08-19 23:56:35.608,1.065,-0.8
2021-08-19 23:56:35.612,1.22,-1.005
2021-08-19 23:56:35.616,1.15,-0.97
2021-08-19 23:56:35.620,0.78,-0.725
2021-08-19 23:56:35.624,0.305,-0.345
2021-08-19 23:56:35.628,-0.015,-0.01
2021-08-19 23:56:35.632,-0.19,0.13
2021-08-19 23:56:35.636,-0.285,0.23
2021-08-19 23:56:35.640,-0.32,0.265
2021-08-19 23:56:35.644,-0.355,0.255
2021-08-19 23:56:35.648,-0.39,0.27
2021-08-19 23:56:35.652,-0.395,0.255
2021-08-19 23:56:35.656,-0.4,0.24
2021-08-19 23:56:35.660,-0.44,0.23
2021-08-19 23:56:35.664,-0.465,0.19
2021-08-19 23:56:35.668,-0.465,0.175
2021-08-19 23:56:35.672,-0.465,0.185
2021-08-19 23:56:35.676,-0.49,0.175
2021-08-19 23:56:35.680,-0.475,0.17
2021-08-19 23:56:35.684,-0.465,0.165
2021-08-19 23:56:35.688,-0.45,0.15
2021-08-19 23:56:35.692,-0.45,0.16
2021-08-19 23:56:35.696,-0.425,0.16
2021-08-19 23:56:35.700,-0.425,0.195
2021-08-19 23:56:35.704,-0.425,0.17
2021-08-19 23:56:35.708,-0.43,0.185
2021-08-19 23:56:35.712,-0.45,0.2
2021-08-19 23:56:35.716,-0.43,0.2
2021-08-19 23:56:35.720,-0.415,0.225
2021-08-19 23:56:35.724,-0.415,0.21
2021-08-19 23:56:35.728,-0.38,0.225
2021-08-19 23:56:35.732,-0.38,0.215
2021-08-19 23:56:35.736,-0.37,0.235
2021-08-19 23:56:35.740,-0.375,0.245
2021-08-19 23:56:35.744,-0.405,0.23
2021-08-19 23:56:35.748,-0.405,0.225
2021-08-19 23:56:35.752,-0.41,0.245
2021-08-19 23:56:35.756,-0.42,0.26
2021-08-19 23:56:35.760,-0.425,0.27
2021-08-19 23:56:35.764,-0.46,0.26
2021-08-19 23:56:35.768,-0.48,0.275
2021-08-19 23:56:35.772,-0.49,0.265
2021-08-19 23:56:35.776,-0.495,0.24
2021-08-19 23:56:35.780,-0.49,0.23
2021-08-19 23:56:35.784,-0.51,0.255
2021-08-19 23:56:35.788,-0.48,0.245
2021-08-19 23:56:35.792,-0.49,0.225
2021-08-19 23:56:35.796,-0.48,0.225
2021-08-19 23:56:35.800,-0.46,0.195
2021-08-19 23:56:35.804,-0.445,0.215
2021-08-19 23:56:35.808,-0.445,0.195
2021-08-19 23:56:35.812,-0.425,0.16
2021-08-19 23:56:35.816,-0.39,0.16
2021-08-19 23:56:35.820,-0.365,0.145
2021-08-19 23:56:35.824,-0.37,0.145
2021-08-19 23:56:35.828,-0.35,0.135
2021-08-19 23:56:35.832,-0.345,0.13
2021-08-19 23:56:35.836,-0.35,0.115
2021-08-19 23:56:35.840,-0.32,0.12
2021-08-19 23:56:35.844,-0.315,0.105
2021-08-19 23:56:35.848,-0.305,0.105
2021-08-19 23:56:35.852,-0.31,0.075
2021-08-19 23:56:35.856,-0.29,0.12
2021-08-19 23:56:35.860,-0.28,0.085
2021-08-19 23:56:35.864,-0.265,0.085
2021-08-19 23:56:35.868,-0.24,0.075
2021-08-19 23:56:35.872,-0.225,0.065
2021-08-19 23:56:35.876,-0.24,0.065
2021-08-19 23:56:35.880,-0.23,0.055
2021-08-19 23:56:35.884,-0.24,0.07
2021-08-19 23:56:35.888,-0.23,0.08
2021-08-19 23:56:35.892,-0.225,0.085
2021-08-19 23:56:35.896,-0.22,0.075
2021-08-19 23:56:35.900,-0.215,0.1
2021-08-19 23:56:35.904,-0.19,0.075
2021-08-19 23:56:35.908,-0.2,0.075
2021-08-19 23:56:35.912,-0.19,0.105
2021-08-19 23:56:35.916,-0.175,0.1
2021-08-19 23:56:35.920,-0.18,0.14
2021-08-19 23:56:35.924,-0.18,0.125
2021-08-19 23:56:35.928,-0.17,0.165
2021-08-19 23:56:35.932,-0.13,0.155
2021-08-19 23:56:35.936,-0.135,0.15
2021-08-19 23:56:35.940,-0.145,0.155
2021-08-19 23:56:35.944,-0.145,0.155
2021-08-19 23:56:35.948,-0.13,0.185
2021-08-19 23:56:35.952,-0.12,0.17
2021-08-19 23:56:35.956,-0.115,0.19
2021-08-19 23:56:35.960,-0.115,0.2
2021-08-19 23:56:35.964,-0.14,0.19
2021-08-19 23:56:35.968,-0.13,0.225
2021-08-19 23:56:35.972,-0.125,0.21
2021-08-19 23:56:35.976,-0.145,0.195
2021-08-19 23:56:35.980,-0.165,0.225
2021-08-19 23:56:35.984,-0.135,0.19
2021-08-19 23:56:35.988,-0.105,0.225
2021-08-19 23:56:35.992,-0.02,0.22
2021-08-19 23:56:35.996,0.025,0.205
2021-08-19 23:56:36.000,0.085,0.185
2021-08-19 23:56:36.004,0.105,0.105
2021-08-19 23:56:36.008,0.09,0.08
2021-08-19 23:56:36.012,0.11,0.09
2021-08-19 23:56:36.016,0.07,0.09
2021-08-19 23:56:36.020,0.06,0.01
2021-08-19 23:56:36.024,0.125,-0.055
2021-08-19 23:56:36.028,0.395,-0.21
2021-08-19 23:56:36.032,0.725,-0.485
2021-08-19 23:56:36.036,1.025,-0.79
2021-08-19 23:56:36.040,1.17,-0.975
2021-08-19 23:56:36.044,1.115,-0.985
2021-08-19 23:56:36.048,0.795,-0.73
2021-08-19 23:56:36.052,0.345,-0.36
2021-08-19 23:56:36.056,0.035,-0.03
2021-08-19 23:56:36.060,-0.13,0.16
2021-08-19 23:56:36.064,-0.23,0.26
2021-08-19 23:56:36.068,-0.275,0.24
2021-08-19 23:56:36.072,-0.305,0.26
2021-08-19 23:56:36.076,-0.315,0.235
2021-08-19 23:56:36.080,-0.33,0.245
2021-08-19 23:56:36.084,-0.325,0.245
2021-08-19 23:56:36.088,-0.35,0.2
2021-08-19 23:56:36.092,-0.365,0.185
2021-08-19 23:56:36.096,-0.38,0.175
2021-08-19 23:56:36.100,-0.36,0.155
2021-08-19 23:56:36.104,-0.375,0.165
2021-08-19 23:56:36.108,-0.375,0.16
2021-08-19 23:56:36.112,-0.355,0.125
2021-08-19 23:56:36.116,-0.36,0.13
2021-08-19 23:56:36.120,-0.33,0.14
2021-08-19 23:56:36.124,-0.335,0.135
2021-08-19 23:56:36.128,-0.345,0.14
2021-08-19 23:56:36.132,-0.355,0.155
2021-08-19 23:56:36.136,-0.34,0.155
2021-08-19 23:56:36.140,-0.34,0.175
2021-08-19 23:56:36.144,-0.315,0.155
2021-08-19 23:56:36.148,-0.315,0.145
2021-08-19 23:56:36.152,-0.32,0.16
2021-08-19 23:56:36.156,-0.34,0.18
2021-08-19 23:56:36.160,-0.32,0.155
2021-08-19 23:56:36.164,-0.31,0.185
2021-08-19 23:56:36.168,-0.315,0.185
2021-08-19 23:56:36.172,-0.315,0.195
2021-08-19 23:56:36.176,-0.335,0.185
2021-08-19 23:56:36.180,-0.345,0.185
2021-08-19 23:56:36.184,-0.365,0.215
2021-08-19 23:56:36.188,-0.375,0.215
2021-08-19 23:56:36.192,-0.4,0.21
2021-08-19 23:56:36.196,-0.4,0.205
2021-08-19 23:56:36.200,-0.4,0.21
2021-08-19 23:56:36.204,-0.405,0.22
2021-08-19 23:56:36.208,-0.395,0.22
2021-08-19 23:56:36.212,-0.395,0.225
2021-08-19 23:56:36.216,-0.37,0.205
2021-08-19 23:56:36.220,-0.38,0.185
2021-08-19 23:56:36.224,-0.38,0.175
2021-08-19 23:56:36.228,-0.345,0.155
2021-08-19 23:56:36.232,-0.345,0.13
2021-08-19 23:56:36.236,-0.315,0.1
2021-08-19 23:56:36.240,-0.305,0.1
2021-08-19 23:56:36.244,-0.295,0.095
2021-08-19 23:56:36.248,-0.285,0.07
2021-08-19 23:56:36.252,-0.28,0.06
2021-08-19 23:56:36.256,-0.25,0.04
2021-08-19 23:56:36.260,-0.225,0.04
2021-08-19 23:56:36.264,-0.2,0.03
2021-08-19 23:56:36.268,-0.2,0.04
2021-08-19 23:56:36.272,-0.21,0.02
2021-08-19 23:56:36.276,-0.23,0.005
2021-08-19 23:56:36.280,-0.21,0.02
2021-08-19 23:56:36.284,-0.21,0.01
2021-08-19 23:56:36.288,-0.21,0.0
2021-08-19 23:56:36.292,-0.16,0.005
2021-08-19 23:56:36.296,-0.155,0.01
2021-08-19 23:56:36.300,-0.18,0.015
2021-08-19 23:56:36.304,-0.205,0.02
2021-08-19 23:56:36.308,-0.21,0.02
2021-08-19 23:56:36.312,-0.225,0.01
2021-08-19 23:56:36.316,-0.235,0.02
2021-08-19 23:56:36.320,-0.22,0.04
2021-08-19 23:56:36.324,-0.225,0.005
2021-08-19 23:56:36.328,-0.22,-0.005
2021-08-19 23:56:36.332,-0.215,-0.005
2021-08-19 23:56:36.336,-0.215,0.03
2021-08-19 23:56:36.340,-0.19,0.03
2021-08-19 23:56:36.344,-0.2,0.025
2021-08-19 23:56:36.348,-0.235,0.015
2021-08-19 23:56:36.352,-0.205,0.005
2021-08-19 23:56:36.356,-0.18,0.005
2021-08-19 23:56:36.360,-0.185,0.025
2021-08-19 23:56:36.364,-0.16,0.03
2021-08-19 23:56:36.368,-0.16,0.035
2021-08-19 23:56:36.372,-0.145,0.035
2021-08-19 23:56:36.376,-0.15,0.05
2021-08-19 23:56:36.380,-0.145,0.055
2021-08-19 23:56:36.384,-0.145,0.055
2021-08-19 23:56:36.388,-0.14,0.065
2021-08-19 23:56:36.392,-0.135,0.085
2021-08-19 23:56:36.396,-0.15,0.09
2021-08-19 23:56:36.400,-0.175,0.085
2021-08-19 23:56:36.404,-0.18,0.075
2021-08-19 23:56:36.408,-0.215,0.07
2021-08-19 23:56:36.412,-0.22,0.07
2021-08-19 23:56:36.416,-0.24,0.105
2021-08-19 23:56:36.420,-0.225,0.09
2021-08-19 23:56:36.424,-0.24,0.08
2021-08-19 23:56:36.428,-0.25,0.09
2021-08-19 23:56:36.432,-0.245,0.095
2021-08-19 23:56:36.436,-0.23,0.06
2021-08-19 23:56:36.440,-0.22,0.045
2021-08-19 23:56:36.444,-0.18,0.04
2021-08-19 23:56:36.448,-0.18,0.015
2021-08-19 23:56:36.452,-0.175,0.0
2021-08-19 23:56:36.456,-0.2,-0.035
2021-08-19 23:56:36.460,-0.175,-0.045
2021-08-19 23:56:36.464,-0.17,-0.035
2021-08-19 23:56:36.468,-0.155,-0.03
2021-08-19 23:56:36.472,-0.125,-0.04
2021-08-19 23:56:36.476,-0.14,-0.08
2021-08-19 23:56:36.480,-0.15,-0.075
2021-08-19 23:56:36.484,-0.12,-0.105
2021-08-19 23:56:36.488,-0.14,-0.1
2021-08-19 23:56:36.492,-0.135,-0.095
2021-08-19 23:56:36.496,-0.14,-0.1
2021-08-19 23:56:36.500,-0.165,-0.115
2021-08-19 23:56:36.504,-0.145,-0.13
2021-08-19 23:56:36.508,-0.145,-0.115
2021-08-19 23:56:36.512,-0.135,-0.12
2021-08-19 23:56:36.516,-0.15,-0.105
2021-08-19 23:56:36.520,-0.125,-0.115
2021-08-19 23:56:36.524,-0.11,-0.145
2021-08-19 23:56:36.528,-0.14,-0.15
2021-08-19 23:56:36.532,-0.145,-0.15
2021-08-19 23:56:36.536,-0.155,-0.15
2021-08-19 23:56:36.540,-0.165,-0.17
2021-08-19 23:56:36.544,-0.175,-0.18
2021-08-19 23:56:36.548,-0.155,-0.18
2021-08-19 23:56:36.552,-0.17,-0.18
2021-08-19 23:56:36.556,-0.17,-0.185
2021-08-19 23:56:36.560,-0.16,-0.205
2021-08-19 23:56:36.564,-0.2,-0.2
2021-08-19 23:56:36.568,-0.195,-0.19
2021-08-19 23:56:36.572,-0.175,-0.205
2021-08-19 23:56:36.576,-0.16,-0.2
2021-08-19 23:56:36.580,-0.145,-0.235
2021-08-19 23:56:36.584,-0.125,-0.21
2021-08-19 23:56:36.588,-0.12,-0.205
2021-08-19 23:56:36.592,-0.13,-0.175
2021-08-19 23:56:36.596,-0.1,-0.17
2021-08-19 23:56:36.600,-0.105,-0.17
2021-08-19 23:56:36.604,-0.11,-0.165
2021-08-19 23:56:36.608,-0.135,-0.165
2021-08-19 23:56:36.612,-0.12,-0.145
2021-08-19 23:56:36.616,-0.13,-0.15
2021-08-19 23:56:36.620,-0.14,-0.145
2021-08-19 23:56:36.624,-0.175,-0.145
2021-08-19 23:56:36.628,-0.18,-0.16
2021-08-19 23:56:36.632,-0.175,-0.14
2021-08-19 23:56:36.636,-0.185,-0.125
2021-08-19 23:56:36.640,-0.2,-0.115
2021-08-19 23:56:36.644,-0.21,-0.12
2021-08-19 23:56:36.648,-0.2,-0.14
2021-08-19 23:56:36.652,-0.19,-0.155
2021-08-19 23:56:36.656,-0.205,-0.15
2021-08-19 23:56:36.660,-0.195,-0.145
2021-08-19 23:56:36.664,-0.16,-0.175
2021-08-19 23:56:36.668,-0.16,-0.18
2021-08-19 23:56:36.672,-0.185,-0.21
2021-08-19 23:56:36.676,-0.17,-0.22
2021-08-19 23:56:36.680,-0.16,-0.21
2021-08-19 23:56:36.684,-0.17,-0.235
2021-08-19 23:56:36.688,-0.175,-0.24
2021-08-19 23:56:36.692,-0.165,-0.265
2021-08-19 23:56:36.696,-0.16,-0.265
2021-08-19 23:56:36.700,-0.17,-0.26
2021-08-19 23:56:36.704,-0.165,-0.265
2021-08-19 23:56:36.708,-0.2,-0.245
2021-08-19 23:56:36.712,-0.195,-0.25
2021-08-19 23:56:36.716,-0.2,-0.255
2021-08-19 23:56:36.720,-0.15,-0.255
2021-08-19 23:56:36.724,-0.16,-0.28
2021-08-19 23:56:36.728,-0.165,-0.29
2021-08-19 23:56:36.732,-0.145,-0.285
2021-08-19 23:56:36.736,-0.165,-0.285
2021-08-19 23:56:36.740,-0.14,-0.29
2021-08-19 23:56:36.744,-0.145,-0.28
2021-08-19 23:56:36.748,-0.155,-0.26
2021-08-19 23:56:36.752,-0.13,-0.3
2021-08-19 23:56:36.756,-0.115,-0.285
2021-08-19 23:56:36.760,-0.12,-0.27
2021-08-19 23:56:36.764,-0.09,-0.31
2021-08-19 23:56:36.768,-0.015,-0.335
2021-08-19 23:56:36.772,0.07,-0.315
2021-08-19 23:56:36.776,0.185,-0.345
2021-08-19 23:56:36.780,0.25,-0.385
2021-08-19 23:56:36.784,0.29,-0.42
2021-08-19 23:56:36.788,0.325,-0.43
2021-08-19 23:56:36.792,0.38,-0.36
2021-08-19 23:56:36.796,0.345,-0.39
2021-08-19 23:56:36.800,0.31,-0.405
2021-08-19 23:56:36.804,0.395,-0.45
2021-08-19 23:56:36.808,0.58,-0.6
2021-08-19 23:56:36.812,0.875,-0.855
2021-08-19 23:56:36.816,1.12,-1.105
2021-08-19 23:56:36.820,1.22,-1.24
2021-08-19 23:56:36.824,1.035,-1.215
2021-08-19 23:56:36.828,0.65,-0.975
2021-08-19 23:56:36.832,0.245,-0.635
2021-08-19 23:56:36.836,0.075,-0.41
2021-08-19 23:56:36.840,0.0,-0.29
2021-08-19 23:56:36.844,-0.075,-0.2
2021-08-19 23:56:36.848,-0.16,-0.14
2021-08-19 23:56:36.852,-0.23,-0.11
2021-08-19 23:56:36.856,-0.315,-0.12
2021-08-19 23:56:36.860,-0.34,-0.13
2021-08-19 23:56:36.864,-0.355,-0.155
2021-08-19 23:56:36.868,-0.365,-0.145
2021-08-19 23:56:36.872,-0.38,-0.155
2021-08-19 23:56:36.876,-0.39,-0.195
2021-08-19 23:56:36.880,-0.42,-0.22
2021-08-19 23:56:36.884,-0.42,-0.195
2021-08-19 23:56:36.888,-0.395,-0.21
2021-08-19 23:56:36.892,-0.36,-0.2
2021-08-19 23:56:36.896,-0.36,-0.21
2021-08-19 23:56:36.900,-0.365,-0.255
2021-08-19 23:56:36.904,-0.395,-0.255
2021-08-19 23:56:36.908,-0.4,-0.275
2021-08-19 23:56:36.912,-0.42,-0.305
2021-08-19 23:56:36.916,-0.38,-0.31
2021-08-19 23:56:36.920,-0.4,-0.32
2021-08-19 23:56:36.924,-0.4,-0.32
2021-08-19 23:56:36.928,-0.415,-0.32
2021-08-19 23:56:36.932,-0.43,-0.34
2021-08-19 23:56:36.936,-0.42,-0.32
2021-08-19 23:56:36.940,-0.385,-0.33
2021-08-19 23:56:36.944,-0.37,-0.33
2021-08-19 23:56:36.948,-0.4,-0.33
2021-08-19 23:56:36.952,-0.39,-0.32
2021-08-19 23:56:36.956,-0.355,-0.32
2021-08-19 23:56:36.960,-0.37,-0.32
2021-08-19 23:56:36.964,-0.375,-0.32
2021-08-19 23:56:36.968,-0.4,-0.32
2021-08-19 23:56:36.972,-0.4,-0.34
2021-08-19 23:56:36.976,-0.425,-0.36
2021-08-19 23:56:36.980,-0.415,-0.34
2021-08-19 23:56:36.984,-0.38,-0.355
2021-08-19 23:56:36.988,-0.42,-0.335
2021-08-19 23:56:36.992,-0.435,-0.35
2021-08-19 23:56:36.996,-0.4,-0.35
2021-08-19 23:56:37.000,-0.425,-0.335
2021-08-19 23:56:37.004,-0.44,-0.335
2021-08-19 23:56:37.008,-0.425,-0.345
2021-08-19 23:56:37.012,-0.425,-0.39
2021-08-19 23:56:37.016,-0.435,-0.375
2021-08-19 23:56:37.020,-0.435,-0.395
2021-08-19 23:56:37.024,-0.45,-0.385
2021-08-19 23:56:37.028,-0.43,-0.395
2021-08-19 23:56:37.032,-0.42,-0.375
2021-08-19 23:56:37.036,-0.425,-0.39
2021-08-19 23:56:37.040,-0.43,-0.38
2021-08-19 23:56:37.044,-0.415,-0.405
2021-08-19 23:56:37.048,-0.405,-0.42
2021-08-19 23:56:37.052,-0.39,-0.42
2021-08-19 23:56:37.056,-0.355,-0.41
2021-08-19 23:56:37.060,-0.295,-0.42
2021-08-19 23:56:37.064,-0.305,-0.42
2021-08-19 23:56:37.068,-0.295,-0.375
2021-08-19 23:56:37.072,-0.275,-0.365
2021-08-19 23:56:37.076,-0.25,-0.36
2021-08-19 23:56:37.080,-0.255,-0.355
2021-08-19 23:56:37.084,-0.265,-0.36
2021-08-19 23:56:37.088,-0.245,-0.345
2021-08-19 23:56:37.092,-0.28,-0.33
2021-08-19 23:56:37.096,-0.295,-0.345
2021-08-19 23:56:37.100,-0.305,-0.34
2021-08-19 23:56:37.104,-0.3,-0.345
2021-08-19 23:56:37.108,-0.3,-0.35
2021-08-19 23:56:37.112,-0.29,-0.35
2021-08-19 23:56:37.116,-0.24,-0.35
2021-08-19 23:56:37.120,-0.225,-0.355
2021-08-19 23:56:37.124,-0.2,-0.365
2021-08-19 23:56:37.128,-0.175,-0.355
2021-08-19 23:56:37.132,-0.18,-0.37
2021-08-19 23:56:37.136,-0.185,-0.375
2021-08-19 23:56:37.140,-0.205,-0.38
2021-08-19 23:56:37.144,-0.175,-0.385
2021-08-19 23:56:37.148,-0.18,-0.37
2021-08-19 23:56:37.152,-0.175,-0.385
2021-08-19 23:56:37.156,-0.175,-0.355
2021-08-19 23:56:37.160,-0.165,-0.345
2021-08-19 23:56:37.164,-0.175,-0.365
2021-08-19 23:56:37.168,-0.18,-0.345
2021-08-19 23:56:37.172,-0.165,-0.375
2021-08-19 23:56:37.176,-0.145,-0.375
2021-08-19 23:56:37.180,-0.16,-0.39
2021-08-19 23:56:37.184,-0.16,-0.38
2021-08-19 23:56:37.188,-0.14,-0.41
2021-08-19 23:56:37.192,-0.15,-0.395
2021-08-19 23:56:37.196,-0.125,-0.365
2021-08-19 23:56:37.200,-0.16,-0.38
2021-08-19 23:56:37.204,-0.17,-0.37
2021-08-19 23:56:37.208,-0.165,-0.365
2021-08-19 23:56:37.212,-0.16,-0.355
2021-08-19 23:56:37.216,-0.18,-0.32
2021-08-19 23:56:37.220,-0.185,-0.315
2021-08-19 23:56:37.224,-0.185,-0.325
2021-08-19 23:56:37.228,-0.16,-0.35
2021-08-19 23:56:37.232,-0.155,-0.385
2021-08-19 23:56:37.236,-0.17,-0.365
2021-08-19 23:56:37.240,-0.17,-0.38
2021-08-19 23:56:37.244,-0.14,-0.365
2021-08-19 23:56:37.248,-0.115,-0.365
2021-08-19 23:56:37.252,-0.045,-0.355
2021-08-19 23:56:37.256,0.04,-0.33
2021-08-19 23:56:37.260,0.115,-0.33
2021-08-19 23:56:37.264,0.195,-0.35
2021-08-19 23:56:37.268,0.27,-0.37
2021-08-19 23:56:37.272,0.34,-0.38
2021-08-19 23:56:37.276,0.41,-0.375
2021-08-19 23:56:37.280,0.445,-0.315
2021-08-19 23:56:37.284,0.445,-0.34
2021-08-19 23:56:37.288,0.455,-0.335
2021-08-19 23:56:37.292,0.58,-0.41
2021-08-19 23:56:37.296,0.865,-0.565
2021-08-19 23:56:37.300,1.145,-0.77
2021-08-19 23:56:37.304,1.335,-0.995
2021-08-19 23:56:37.308,1.305,-1.095
2021-08-19 23:56:37.312,0.99,-0.99
2021-08-19 23:56:37.316,0.53,-0.685
2021-08-19 23:56:37.320,0.195,-0.39
2021-08-19 23:56:37.324,0.0,-0.215
2021-08-19 23:56:37.328,-0.1,-0.11
2021-08-19 23:56:37.332,-0.12,-0.005
2021-08-19 23:56:37.336,-0.185,0.02
2021-08-19 23:56:37.340,-0.21,0.005
2021-08-19 23:56:37.344,-0.25,0.0
2021-08-19 23:56:37.348,-0.29,-0.03
2021-08-19 23:56:37.352,-0.29,-0.12
2021-08-19 23:56:37.356,-0.3,-0.22
2021-08-19 23:56:37.360,-0.27,-0.29
2021-08-19 23:56:37.364,-0.27,-0.4
2021-08-19 23:56:37.368,-0.255,-0.485
2021-08-19 23:56:37.372,-0.275,-0.575
2021-08-19 23:56:37.376,-0.27,-0.64
2021-08-19 23:56:37.380,-0.27,-0.72
2021-08-19 23:56:37.384,-0.265,-0.765
2021-08-19 23:56:37.388,-0.255,-0.835
2021-08-19 23:56:37.392,-0.265,-0.91
2021-08-19 23:56:37.396,-0.25,-0.97
2021-08-19 23:56:37.400,-0.26,-1.005
2021-08-19 23:56:37.404,-0.295,-1.015
2021-08-19 23:56:37.408,-0.32,-0.975
2021-08-19 23:56:37.412,-0.34,-0.935
2021-08-19 23:56:37.416,-0.32,-0.79
2021-08-19 23:56:37.420,-0.34,-0.675
2021-08-19 23:56:37.424,-0.33,-0.61
2021-08-19 23:56:37.428,-0.33,-0.635
2021-08-19 23:56:37.432,-0.345,-0.68
2021-08-19 23:56:37.436,-0.365,-0.685
2021-08-19 23:56:37.440,-0.365,-0.725
2021-08-19 23:56:37.444,-0.37,-0.725
2021-08-19 23:56:37.448,-0.36,-0.705
2021-08-19 23:56:37.452,-0.36,-0.66
2021-08-19 23:56:37.456,-0.38,-0.64
2021-08-19 23:56:37.460,-0.395,-0.675
2021-08-19 23:56:37.464,-0.37,-0.68
2021-08-19 23:56:37.468,-0.36,-0.65
2021-08-19 23:56:37.472,-0.36,-0.665
2021-08-19 23:56:37.476,-0.37,-0.66
2021-08-19 23:56:37.480,-0.38,-0.65
2021-08-19 23:56:37.484,-0.385,-0.655
2021-08-19 23:56:37.488,-0.335,-0.625
2021-08-19 23:56:37.492,-0.34,-0.625
2021-08-19 23:56:37.496,-0.325,-0.61
2021-08-19 23:56:37.500,-0.31,-0.625
2021-08-19 23:56:37.504,-0.325,-0.6
2021-08-19 23:56:37.508,-0.32,-0.595
2021-08-19 23:56:37.512,-0.32,-0.61
2021-08-19 23:56:37.516,-0.305,-0.62
2021-08-19 23:56:37.520,-0.3,-0.635
2021-08-19 23:56:37.524,-0.3,-0.635
2021-08-19 23:56:37.528,-0.265,-0.635
2021-08-19 23:56:37.532,-0.275,-0.655
2021-08-19 23:56:37.536,-0.25,-0.645
2021-08-19 23:56:37.540,-0.23,-0.64
2021-08-19 23:56:37.544,-0.255,-0.645
2021-08-19 23:56:37.548,-0.26,-0.635
2021-08-19 23:56:37.552,-0.26,-0.655
2021-08-19 23:56:37.556,-0.255,-0.64
2021-08-19 23:56:37.560,-0.265,-0.635
2021-08-19 23:56:37.564,-0.275,-0.675
2021-08-19 23:56:37.568,-0.285,-0.675
2021-08-19 23:56:37.572,-0.31,-0.685
2021-08-19 23:56:37.576,-0.32,-0.685
2021-08-19 23:56:37.580,-0.34,-0.7
2021-08-19 23:56:37.584,-0.335,-0.735
2021-08-19 23:56:37.588,-0.34,-0.77
2021-08-19 23:56:37.592,-0.34,-0.75
2021-08-19 23:56:37.596,-0.31,-0.775
2021-08-19 23:56:37.600,-0.255,-0.78
2021-08-19 23:56:37.604,-0.215,-0.77
2021-08-19 23:56:37.608,-0.16,-0.78
2021-08-19 23:56:37.612,-0.125,-0.76
2021-08-19 23:56:37.616,-0.08,-0.74
2021-08-19 23:56:37.620,-0.05,-0.695
2021-08-19 23:56:37.624,-0.02,-0.66
2021-08-19 23:56:37.628,0.005,-0.635
2021-08-19 23:56:37.632,0.0,-0.615
2021-08-19 23:56:37.636,-0.015,-0.575
2021-08-19 23:56:37.640,-0.045,-0.56
2021-08-19 23:56:37.644,-0.055,-0.545
2021-08-19 23:56:37.648,-0.06,-0.535
2021-08-19 23:56:37.652,-0.06,-0.515
2021-08-19 23:56:37.656,-0.065,-0.505
2021-08-19 23:56:37.660,-0.07,-0.5
2021-08-19 23:56:37.664,-0.07,-0.475
2021-08-19 23:56:37.668,-0.08,-0.485
2021-08-19 23:56:37.672,-0.065,-0.515
2021-08-19 23:56:37.676,-0.06,-0.525
2021-08-19 23:56:37.680,-0.05,-0.51
2021-08-19 23:56:37.684,-0.08,-0.505
2021-08-19 23:56:37.688,-0.06,-0.49
2021-08-19 23:56:37.692,-0.05,-0.46
2021-08-19 23:56:37.696,-0.065,-0.47
2021-08-19 23:56:37.700,-0.06,-0.47
2021-08-19 23:56:37.704,-0.08,-0.505
2021-08-19 23:56:37.708,-0.045,-0.5
2021-08-19 23:56:37.712,-0.045,-0.495
2021-08-19 23:56:37.716,-0.045,-0.49
2021-08-19 23:56:37.720,-0.045,-0.505
2021-08-19 23:56:37.724,-0.065,-0.485
2021-08-19 23:56:37.728,-0.055,-0.475
2021-08-19 23:56:37.732,-0.07,-0.47
2021-08-19 23:56:37.736,-0.07,-0.5
2021-08-19 23:56:37.740,-0.085,-0.485
2021-08-19 23:56:37.744,-0.075,-0.48
2021-08-19 23:56:37.748,-0.075,-0.5
2021-08-19 23:56:37.752,-0.09,-0.495
2021-08-19 23:56:37.756,-0.105,-0.485
2021-08-19 23:56:37.760,-0.11,-0.51
2021-08-19 23:56:37.764,-0.1,-0.505
2021-08-19 23:56:37.768,-0.1,-0.5
2021-08-19 23:56:37.772,-0.115,-0.51
2021-08-19 23:56:37.776,-0.11,-0.505
2021-08-19 23:56:37.780,-0.095,-0.505
2021-08-19 23:56:37.784,-0.1,-0.48
2021-08-19 23:56:37.788,-0.105,-0.5
2021-08-19 23:56:37.792,-0.1,-0.48
2021-08-19 23:56:37.796,-0.11,-0.475
2021-08-19 23:56:37.800,-0.115,-0.47
2021-08-19 23:56:37.804,-0.105,-0.475
2021-08-19 23:56:37.808,-0.1,-0.45
2021-08-19 23:56:37.812,-0.115,-0.46
2021-08-19 23:56:37.816,-0.11,-0.46
2021-08-19 23:56:37.820,-0.115,-0.47
2021-08-19 23:56:37.824,-0.13,-0.45
2021-08-19 23:56:37.828,-0.15,-0.46
2021-08-19 23:56:37.832,-0.185,-0.465
2021-08-19 23:56:37.836,-0.205,-0.445
2021-08-19 23:56:37.840,-0.21,-0.455
2021-08-19 23:56:37.844,-0.24,-0.455
2021-08-19 23:56:37.848,-0.225,-0.47
2021-08-19 23:56:37.852,-0.265,-0.48
2021-08-19 23:56:37.856,-0.265,-0.48
2021-08-19 23:56:37.860,-0.3,-0.51
2021-08-19 23:56:37.864,-0.305,-0.49
2021-08-19 23:56:37.868,-0.32,-0.52
2021-08-19 23:56:37.872,-0.32,-0.51
2021-08-19 23:56:37.876,-0.305,-0.52
2021-08-19 23:56:37.880,-0.27,-0.525
2021-08-19 23:56:37.884,-0.23,-0.525
2021-08-19 23:56:37.888,-0.18,-0.535
2021-08-19 23:56:37.892,-0.14,-0.485
2021-08-19 23:56:37.896,-0.06,-0.485
2021-08-19 23:56:37.900,0.0,-0.445
2021-08-19 23:56:37.904,0.04,-0.445
2021-08-19 23:56:37.908,0.035,-0.435
2021-08-19 23:56:37.912,0.015,-0.445
2021-08-19 23:56:37.916,-0.005,-0.48
2021-08-19 23:56:37.920,0.01,-0.49
2021-08-19 23:56:37.924,0.01,-0.495
2021-08-19 23:56:37.928,0.01,-0.485
2021-08-19 23:56:37.932,0.03,-0.45
2021-08-19 23:56:37.936,0.065,-0.475
2021-08-19 23:56:37.940,0.14,-0.47
2021-08-19 23:56:37.944,0.21,-0.47
2021-08-19 23:56:37.948,0.3,-0.49
2021-08-19 23:56:37.952,0.35,-0.52
2021-08-19 23:56:37.956,0.4,-0.57
2021-08-19 23:56:37.960,0.44,-0.57
2021-08-19 23:56:37.964,0.45,-0.56
2021-08-19 23:56:37.968,0.435,-0.57
2021-08-19 23:56:37.972,0.4,-0.635
2021-08-19 23:56:37.976,0.44,-0.735
2021-08-19 23:56:37.980,0.615,-0.885
2021-08-19 23:56:37.984,0.89,-1.125
2021-08-19 23:56:37.988,1.19,-1.39
2021-08-19 23:56:37.992,1.365,-1.61
2021-08-19 23:56:37.996,1.325,-1.655
2021-08-19 23:56:38.000,0.975,-1.42
2021-08-19 23:56:38.004,0.5,-1.065
2021-08-19 23:56:38.008,0.145,-0.765
2021-08-19 23:56:38.012,-0.015,-0.57
2021-08-19 23:56:38.016,-0.095,-0.465
2021-08-19 23:56:38.020,-0.135,-0.37
2021-08-19 23:56:38.024,-0.17,-0.395
2021-08-19 23:56:38.028,-0.19,-0.385
2021-08-19 23:56:38.032,-0.2,-0.38
2021-08-19 23:56:38.036,-0.2,-0.395
2021-08-19 23:56:38.040,-0.215,-0.41
2021-08-19 23:56:38.044,-0.225,-0.435
2021-08-19 23:56:38.048,-0.23,-0.44
2021-08-19 23:56:38.052,-0.24,-0.44
2021-08-19 23:56:38.056,-0.245,-0.46
2021-08-19 23:56:38.060,-0.24,-0.435
2021-08-19 23:56:38.064,-0.255,-0.435
2021-08-19 23:56:38.068,-0.26,-0.455
2021-08-19 23:56:38.072,-0.25,-0.42
2021-08-19 23:56:38.076,-0.245,-0.465
2021-08-19 23:56:38.080,-0.265,-0.43
2021-08-19 23:56:38.084,-0.265,-0.425
2021-08-19 23:56:38.088,-0.295,-0.415
2021-08-19 23:56:38.092,-0.27,-0.45
2021-08-19 23:56:38.096,-0.29,-0.43
2021-08-19 23:56:38.100,-0.295,-0.425
2021-08-19 23:56:38.104,-0.275,-0.435
2021-08-19 23:56:38.108,-0.3,-0.455
2021-08-19 23:56:38.112,-0.315,-0.445
2021-08-19 23:56:38.116,-0.32,-0.445
2021-08-19 23:56:38.120,-0.345,-0.435
2021-08-19 23:56:38.124,-0.35,-0.445
2021-08-19 23:56:38.128,-0.385,-0.46
2021-08-19 23:56:38.132,-0.38,-0.46
2021-08-19 23:56:38.136,-0.4,-0.48
2021-08-19 23:56:38.140,-0.45,-0.475
2021-08-19 23:56:38.144,-0.47,-0.49
2021-08-19 23:56:38.148,-0.465,-0.48
2021-08-19 23:56:38.152,-0.485,-0.505
2021-08-19 23:56:38.156,-0.46,-0.525
2021-08-19 23:56:38.160,-0.45,-0.535
2021-08-19 23:56:38.164,-0.425,-0.545
2021-08-19 23:56:38.168,-0.39,-0.535
2021-08-19 23:56:38.172,-0.37,-0.535
2021-08-19 23:56:38.176,-0.355,-0.535
2021-08-19 23:56:38.180,-0.295,-0.52
2021-08-19 23:56:38.184,-0.23,-0.495
2021-08-19 23:56:38.188,-0.22,-0.5
2021-08-19 23:56:38.192,-0.185,-0.5
2021-08-19 23:56:38.196,-0.2,-0.48
2021-08-19 23:56:38.200,-0.225,-0.49
2021-08-19 23:56:38.204,-0.22,-0.505
2021-08-19 23:56:38.208,-0.22,-0.515
2021-08-19 23:56:38.212,-0.21,-0.535
2021-08-19 23:56:38.216,-0.215,-0.495
2021-08-19 23:56:38.220,-0.22,-0.52
2021-08-19 23:56:38.224,-0.22,-0.505
2021-08-19 23:56:38.228,-0.205,-0.535
2021-08-19 23:56:38.232,-0.205,-0.52
2021-08-19 23:56:38.236,-0.2,-0.51
2021-08-19 23:56:38.240,-0.19,-0.53
2021-08-19 23:56:38.244,-0.17,-0.545
2021-08-19 23:56:38.248,-0.16,-0.545
2021-08-19 23:56:38.252,-0.155,-0.565
2021-08-19 23:56:38.256,-0.125,-0.575
2021-08-19 23:56:38.260,-0.11,-0.56
2021-08-19 23:56:38.264,-0.115,-0.55
2021-08-19 23:56:38.268,-0.105,-0.57
2021-08-19 23:56:38.272,-0.11,-0.575
2021-08-19 23:56:38.276,-0.065,-0.57
2021-08-19 23:56:38.280,-0.07,-0.54
2021-08-19 23:56:38.284,-0.08,-0.565
2021-08-19 23:56:38.288,-0.07,-0.53
2021-08-19 23:56:38.292,-0.065,-0.575
2021-08-19 23:56:38.296,-0.055,-0.59
2021-08-19 23:56:38.300,-0.04,-0.565
2021-08-19 23:56:38.304,-0.08,-0.55
2021-08-19 23:56:38.308,-0.075,-0.555
2021-08-19 23:56:38.312,-0.08,-0.57
2021-08-19 23:56:38.316,-0.085,-0.58
2021-08-19 23:56:38.320,-0.09,-0.595
2021-08-19 23:56:38.324,-0.08,-0.61
2021-08-19 23:56:38.328,-0.08,-0.64
2021-08-19 23:56:38.332,-0.08,-0.695
2021-08-19 23:56:38.336,-0.085,-0.755
2021-08-19 23:56:38.340,-0.105,-0.78
2021-08-19 23:56:38.344,-0.07,-0.8
2021-08-19 23:56:38.348,-0.02,-0.82
2021-08-19 23:56:38.352,0.015,-0.865
2021-08-19 23:56:38.356,0.075,-0.905
2021-08-19 23:56:38.360,0.135,-0.955
2021-08-19 23:56:38.364,0.165,-1.02
2021-08-19 23:56:38.368,0.16,-1.085
2021-08-19 23:56:38.372,0.115,-1.155
2021-08-19 23:56:38.376,0.055,-1.2
2021-08-19 23:56:38.380,-0.025,-1.27
2021-08-19 23:56:38.384,-0.03,-1.36
2021-08-19 23:56:38.388,0.18,-1.485
2021-08-19 23:56:38.392,0.5,-1.715
2021-08-19 23:56:38.416,0.115,-1.76
2021-08-19 23:56:38.420,-0.14,-1.53
2021-08-19 23:56:38.424,-0.24,-1.445
2021-08-19 23:56:38.428,-0.285,-1.465
2021-08-19 23:56:38.432,-0.34,-1.505
2021-08-19 23:56:38.436,-0.34,-1.54
2021-08-19 23:56:38.440,-0.35,-1.58
2021-08-19 23:56:38.444,-0.355,-1.635
2021-08-19 23:56:38.448,-0.34,-1.705
2021-08-19 23:56:38.452,-0.3,-1.75
2021-08-19 23:56:38.456,-0.24,-1.81
2021-08-19 23:56:38.460,-0.18,-1.855
2021-08-19 23:56:38.464,-0.165,-1.885
2021-08-19 23:56:38.468,-0.165,-1.91
2021-08-19 23:56:38.472,-0.17,-1.9
2021-08-19 23:56:38.476,-0.175,-1.935
2021-08-19 23:56:38.480,-0.2,-1.935
2021-08-19 23:56:38.484,-0.205,-1.97
2021-08-19 23:56:38.488,-0.205,-1.915
2021-08-19 23:56:38.492,-0.245,-1.875
2021-08-19 23:56:38.496,-0.24,-1.805
2021-08-19 23:56:38.500,-0.25,-1.75
2021-08-19 23:56:38.504,-0.27,-1.695
2021-08-19 23:56:38.508,-0.26,-1.7
2021-08-19 23:56:38.512,-0.27,-1.7
2021-08-19 23:56:38.516,-0.275,-1.68
2021-08-19 23:56:38.520,-0.28,-1.69
2021-08-19 23:56:38.524,-0.29,-1.695
2021-08-19 23:56:38.528,-0.32,-1.715
2021-08-19 23:56:38.532,-0.31,-1.705
2021-08-19 23:56:38.536,-0.315,-1.7
2021-08-19 23:56:38.540,-0.345,-1.705
2021-08-19 23:56:38.544,-0.315,-1.695
2021-08-19 23:56:38.548,-0.3,-1.705
2021-08-19 23:56:38.552,-0.285,-1.68
2021-08-19 23:56:38.556,-0.3,-1.695
2021-08-19 23:56:38.560,-0.295,-1.69
2021-08-19 23:56:38.564,-0.305,-1.69
2021-08-19 23:56:38.568,-0.325,-1.705
2021-08-19 23:56:38.572,-0.32,-1.715
2021-08-19 23:56:38.576,-0.32,-1.68
2021-08-19 23:56:38.580,-0.32,-1.695
2021-08-19 23:56:38.584,-0.32,-1.68
2021-08-19 23:56:38.588,-0.33,-1.66
2021-08-19 23:56:38.592,-0.32,-1.64
2021-08-19 23:56:38.596,-0.31,-1.595
2021-08-19 23:56:38.600,-0.3,-1.585
2021-08-19 23:56:38.604,-0.29,-1.575
2021-08-19 23:56:38.608,-0.285,-1.57
2021-08-19 23:56:38.612,-0.295,-1.535
2021-08-19 23:56:38.616,-0.25,-1.505
2021-08-19 23:56:38.620,-0.25,-1.51
2021-08-19 23:56:38.624,-0.255,-1.535
2021-08-19 23:56:38.628,-0.27,-1.505
2021-08-19 23:56:38.632,-0.27,-1.485
2021-08-19 23:56:38.636,-0.245,-1.49
2021-08-19 23:56:38.640,-0.225,-1.48
2021-08-19 23:56:38.644,-0.23,-1.465
2021-08-19 23:56:38.648,-0.19,-1.445
2021-08-19 23:56:38.652,-0.195,-1.425
2021-08-19 23:56:38.656,-0.185,-1.41
2021-08-19 23:56:38.660,-0.19,-1.41
2021-08-19 23:56:38.664,-0.19,-1.395
2021-08-19 23:56:38.668,-0.19,-1.39
2021-08-19 23:56:38.672,-0.185,-1.37
2021-08-19 23:56:38.676,-0.19,-1.345
2021-08-19 23:56:38.680,-0.18,-1.32
2021-08-19 23:56:38.684,-0.165,-1.315
2021-08-19 23:56:38.688,-0.16,-1.295
2021-08-19 23:56:38.692,-0.16,-1.3
2021-08-19 23:56:38.696,-0.14,-1.28
2021-08-19 23:56:38.700,-0.155,-1.295
2021-08-19 23:56:38.704,-0.15,-1.275
2021-08-19 23:56:38.708,-0.15,-1.25
2021-08-19 23:56:38.712,-0.145,-1.235
2021-08-19 23:56:38.716,-0.135,-1.21
2021-08-19 23:56:38.720,-0.14,-1.21
2021-08-19 23:56:38.724,-0.155,-1.215
2021-08-19 23:56:38.728,-0.175,-1.195
2021-08-19 23:56:38.732,-0.165,-1.19
2021-08-19 23:56:38.736,-0.165,-1.17
2021-08-19 23:56:38.740,-0.19,-1.18
2021-08-19 23:56:38.744,-0.175,-1.185
2021-08-19 23:56:38.748,-0.185,-1.175
2021-08-19 23:56:38.752,-0.175,-1.165
2021-08-19 23:56:38.756,-0.165,-1.15
2021-08-19 23:56:38.760,-0.145,-1.155
2021-08-19 23:56:38.764,-0.095,-1.15
2021-08-19 23:56:38.768,-0.04,-1.145
2021-08-19 23:56:38.772,0.025,-1.14
2021-08-19 23:56:38.776,0.125,-1.15
2021-08-19 23:56:38.780,0.17,-1.145
2021-08-19 23:56:38.784,0.21,-1.18
2021-08-19 23:56:38.788,0.255,-1.175
2021-08-19 23:56:38.792,0.255,-1.13
2021-08-19 23:56:38.796,0.235,-1.075
2021-08-19 23:56:38.800,0.225,-1.085
2021-08-19 23:56:38.804,0.335,-1.12
2021-08-19 23:56:38.808,0.585,-1.21
2021-08-19 23:56:38.812,0.87,-1.455
2021-08-19 23:56:38.816,1.12,-1.69
2021-08-19 23:56:38.820,1.205,-1.915
2021-08-19 23:56:38.824,1.035,-1.96
2021-08-19 23:56:38.828,0.66,-1.77
2021-08-19 23:56:38.832,0.26,-1.435
2021-08-19 23:56:38.836,0.035,-1.17
2021-08-19 23:56:38.840,-0.08,-1.05
2021-08-19 23:56:38.844,-0.15,-0.965
2021-08-19 23:56:38.848,-0.2,-0.92
2021-08-19 23:56:38.852,-0.24,-0.93
2021-08-19 23:56:38.856,-0.305,-0.925
2021-08-19 23:56:38.860,-0.32,-0.935
2021-08-19 23:56:38.864,-0.335,-0.94
2021-08-19 23:56:38.868,-0.34,-0.98
2021-08-19 23:56:38.872,-0.345,-1.015
2021-08-19 23:56:38.876,-0.345,-0.995
2021-08-19 23:56:38.880,-0.34,-1.01
2021-08-19 23:56:38.884,-0.35,-1.01
2021-08-19 23:56:38.888,-0.34,-1.01
2021-08-19 23:56:38.892,-0.35,-0.985
2021-08-19 23:56:38.896,-0.34,-1.005
2021-08-19 23:56:38.900,-0.37,-1.005
2021-08-19 23:56:38.904,-0.395,-0.985
2021-08-19 23:56:38.908,-0.38,-0.99
2021-08-19 23:56:38.912,-0.37,-0.98
2021-08-19 23:56:38.916,-0.345,-0.955
2021-08-19 23:56:38.920,-0.32,-0.97
2021-08-19 23:56:38.924,-0.335,-0.965
2021-08-19 23:56:38.928,-0.345,-0.995
2021-08-19 23:56:38.932,-0.395,-0.97
2021-08-19 23:56:38.936,-0.385,-0.96
2021-08-19 23:56:38.940,-0.375,-0.975
2021-08-19 23:56:38.944,-0.37,-0.945
2021-08-19 23:56:38.948,-0.375,-0.94
2021-08-19 23:56:38.952,-0.375,-0.94
2021-08-19 23:56:38.956,-0.37,-0.955
2021-08-19 23:56:38.960,-0.375,-0.92
2021-08-19 23:56:38.964,-0.395,-0.915
2021-08-19 23:56:38.968,-0.395,-0.915
2021-08-19 23:56:38.972,-0.39,-0.935
2021-08-19 23:56:38.976,-0.4,-0.95
2021-08-19 23:56:38.980,-0.385,-0.945
2021-08-19 23:56:38.984,-0.38,-0.945
2021-08-19 23:56:38.988,-0.39,-0.925
2021-08-19 23:56:38.992,-0.39,-0.93
2021-08-19 23:56:38.996,-0.385,-0.935
2021-08-19 23:56:39.000,-0.385,-0.93
2021-08-19 23:56:39.004,-0.385,-0.93
2021-08-19 23:56:39.008,-0.375,-0.92
2021-08-19 23:56:39.012,-0.385,-0.905
2021-08-19 23:56:39.016,-0.38,-0.9
2021-08-19 23:56:39.020,-0.375,-0.895
2021-08-19 23:56:39.024,-0.36,-0.89
2021-08-19 23:56:39.028,-0.32,-0.9
2021-08-19 23:56:39.032,-0.29,-0.895
2021-08-19 23:56:39.036,-0.27,-0.89
2021-08-19 23:56:39.040,-0.27,-0.89
2021-08-19 23:56:39.044,-0.305,-0.89
2021-08-19 23:56:39.048,-0.28,-0.885
2021-08-19 23:56:39.052,-0.265,-0.9
2021-08-19 23:56:39.056,-0.26,-0.915
2021-08-19 23:56:39.060,-0.235,-0.93
2021-08-19 23:56:39.064,-0.215,-0.9
2021-08-19 23:56:39.068,-0.205,-0.895
2021-08-19 23:56:39.072,-0.19,-0.91
2021-08-19 23:56:39.076,-0.205,-0.91
2021-08-19 23:56:39.080,-0.2,-0.88
2021-08-19 23:56:39.084,-0.19,-0.88
2021-08-19 23:56:39.088,-0.18,-0.925
2021-08-19 23:56:39.092,-0.175,-0.895
2021-08-19 23:56:39.096,-0.165,-0.91
2021-08-19 23:56:39.100,-0.16,-0.905
2021-08-19 23:56:39.104,-0.165,-0.91
2021-08-19 23:56:39.108,-0.15,-0.89
2021-08-19 23:56:39.112,-0.165,-0.865
2021-08-19 23:56:39.116,-0.185,-0.865
2021-08-19 23:56:39.120,-0.195,-0.86
2021-08-19 23:56:39.124,-0.195,-0.86
2021-08-19 23:56:39.128,-0.15,-0.865
2021-08-19 23:56:39.132,-0.135,-0.845
2021-08-19 23:56:39.136,-0.135,-0.86
2021-08-19 23:56:39.140,-0.145,-0.885
2021-08-19 23:56:39.144,-0.18,-0.87
2021-08-19 23:56:39.148,-0.165,-0.87
2021-08-19 23:56:39.152,-0.18,-0.86
2021-08-19 23:56:39.156,-0.145,-0.855
2021-08-19 23:56:39.160,-0.14,-0.855
2021-08-19 23:56:39.164,-0.155,-0.825
2021-08-19 23:56:39.168,-0.155,-0.85
2021-08-19 23:56:39.172,-0.175,-0.865
2021-08-19 23:56:39.176,-0.19,-0.835
2021-08-19 23:56:39.180,-0.185,-0.83
