Time,ECG1,ECG2
2021-08-01 00:41:15.500,-0.095,-0.3
2021-08-01 00:41:15.504,-0.075,-0.3
2021-08-01 00:41:15.508,-0.08,-0.325
2021-08-01 00:41:15.512,-0.085,-0.32
2021-08-01 00:41:15.516,-0.08,-0.31
2021-08-01 00:41:15.520,-0.06,-0.315
2021-08-01 00:41:15.524,-0.08,-0.315
2021-08-01 00:41:15.528,-0.065,-0.31
2021-08-01 00:41:15.532,-0.06,-0.29
2021-08-01 00:41:15.536,-0.045,-0.3
2021-08-01 00:41:15.540,-0.07,-0.305
2021-08-01 00:41:15.544,-0.07,-0.31
2021-08-01 00:41:15.548,-0.065,-0.305
2021-08-01 00:41:15.552,-0.055,-0.3
2021-08-01 00:41:15.556,-0.075,-0.32
2021-08-01 00:41:15.560,-0.065,-0.31
2021-08-01 00:41:15.564,-0.075,-0.31
2021-08-01 00:41:15.568,-0.06,-0.315
2021-08-01 00:41:15.572,-0.065,-0.31
2021-08-01 00:41:15.576,-0.08,-0.32
2021-08-01 00:41:15.580,-0.065,-0.315
2021-08-01 00:41:15.584,-0.075,-0.305
2021-08-01 00:41:15.588,-0.075,-0.31
2021-08-01 00:41:15.592,-0.08,-0.32
2021-08-01 00:41:15.596,-0.07,-0.33
2021-08-01 00:41:15.600,-0.07,-0.32
2021-08-01 00:41:15.604,-0.07,-0.335
2021-08-01 00:41:15.608,-0.065,-0.345
2021-08-01 00:41:15.612,-0.07,-0.335
2021-08-01 00:41:15.616,-0.065,-0.31
2021-08-01 00:41:15.620,-0.045,-0.31
2021-08-01 00:41:15.624,-0.065,-0.33
2021-08-01 00:41:15.628,-0.085,-0.335
2021-08-01 00:41:15.632,-0.07,-0.33
2021-08-01 00:41:15.636,-0.065,-0.31
2021-08-01 00:41:15.640,-0.06,-0.32
2021-08-01 00:41:15.644,-0.08,-0.31
2021-08-01 00:41:15.648,-0.09,-0.31
2021-08-01 00:41:15.652,-0.08,-0.32
2021-08-01 00:41:15.656,-0.07,-0.33
2021-08-01 00:41:15.660,-0.055,-0.33
2021-08-01 00:41:15.664,-0.075,-0.32
2021-08-01 00:41:15.668,-0.08,-0.335
2021-08-01 00:41:15.672,-0.08,-0.32
2021-08-01 00:41:15.676,-0.08,-0.31
2021-08-01 00:41:15.680,-0.065,-0.275
2021-08-01 00:41:15.684,-0.07,-0.215
2021-08-01 00:41:15.688,-0.06,-0.19
2021-08-01 00:41:15.692,-0.055,-0.12
2021-08-01 00:41:15.696,-0.025,-0.035
2021-08-01 00:41:15.700,0.035,-0.045
2021-08-01 00:41:15.704,0.05,-0.195
2021-08-01 00:41:15.708,0.01,-0.215
2021-08-01 00:41:15.712,-0.01,0.015
2021-08-01 00:41:15.716,-0.11,0.365
2021-08-01 00:41:15.720,-0.18,0.38
2021-08-01 00:41:15.724,-0.25,-0.205
2021-08-01 00:41:15.728,-0.28,-1.025
2021-08-01 00:41:15.732,-0.27,-1.425
2021-08-01 00:41:15.736,-0.165,-1.28
2021-08-01 00:41:15.740,-0.1,-1.165
2021-08-01 00:41:15.744,-0.095,-1.235
2021-08-01 00:41:15.748,-0.16,-1.155
2021-08-01 00:41:15.752,-0.225,-0.865
2021-08-01 00:41:15.756,-0.265,-0.645
2021-08-01 00:41:15.760,-0.29,-0.5
2021-08-01 00:41:15.764,-0.37,-0.41
2021-08-01 00:41:15.768,-0.405,-0.4
2021-08-01 00:41:15.772,-0.245,-0.415
2021-08-01 00:41:15.776,-0.12,-0.43
2021-08-01 00:41:15.780,-0.045,-0.4
2021-08-01 00:41:15.784,-0.02,-0.38
2021-08-01 00:41:15.788,-0.045,-0.39
2021-08-01 00:41:15.792,-0.02,-0.4
2021-08-01 00:41:15.796,-0.03,-0.4
2021-08-01 00:41:15.800,-0.015,-0.375
2021-08-01 00:41:15.804,-0.01,-0.37
2021-08-01 00:41:15.808,-0.015,-0.37
2021-08-01 00:41:15.812,-0.02,-0.38
2021-08-01 00:41:15.816,0.0,-0.35
2021-08-01 00:41:15.820,-0.01,-0.34
2021-08-01 00:41:15.824,0.03,-0.35
2021-08-01 00:41:15.828,0.0,-0.34
2021-08-01 00:41:15.832,0.02,-0.32
2021-08-01 00:41:15.836,0.0,-0.305
2021-08-01 00:41:15.840,0.0,-0.315
2021-08-01 00:41:15.844,0.01,-0.32
2021-08-01 00:41:15.848,0.03,-0.315
2021-08-01 00:41:15.852,0.02,-0.295
2021-08-01 00:41:15.856,0.04,-0.3
2021-08-01 00:41:15.860,0.03,-0.285
2021-08-01 00:41:15.864,0.02,-0.28
2021-08-01 00:41:15.868,0.035,-0.28
2021-08-01 00:41:15.872,0.045,-0.265
2021-08-01 00:41:15.876,0.03,-0.28
2021-08-01 00:41:15.880,0.03,-0.245
2021-08-01 00:41:15.884,0.03,-0.245
2021-08-01 00:41:15.888,0.015,-0.24
2021-08-01 00:41:15.892,0.025,-0.24
2021-08-01 00:41:15.896,0.02,-0.235
2021-08-01 00:41:15.900,0.03,-0.2
2021-08-01 00:41:15.904,0.06,-0.22
2021-08-01 00:41:15.908,0.02,-0.22
2021-08-01 00:41:15.912,0.02,-0.235
2021-08-01 00:41:15.916,0.03,-0.225
2021-08-01 00:41:15.920,0.025,-0.215
2021-08-01 00:41:15.924,0.005,-0.255
2021-08-01 00:41:15.928,0.015,-0.265
2021-08-01 00:41:15.932,0.01,-0.235
2021-08-01 00:41:15.936,0.0,-0.22
2021-08-01 00:41:15.940,-0.02,-0.215
2021-08-01 00:41:15.944,-0.055,-0.205
2021-08-01 00:41:15.948,-0.05,-0.135
2021-08-01 00:41:15.952,-0.065,-0.105
2021-08-01 00:41:15.956,-0.095,-0.045
2021-08-01 00:41:15.960,-0.1,0.01
2021-08-01 00:41:15.964,-0.055,0.065
2021-08-01 00:41:15.968,-0.055,0.105
2021-08-01 00:41:15.972,-0.02,0.11
2021-08-01 00:41:15.976,-0.005,0.125
2021-08-01 00:41:15.980,-0.005,0.13
2021-08-01 00:41:15.984,-0.04,0.15
2021-08-01 00:41:15.988,-0.04,0.125
2021-08-01 00:41:15.992,-0.015,0.105
2021-08-01 00:41:15.996,-0.01,0.075
2021-08-01 00:41:16.000,-0.015,0.055
2021-08-01 00:41:16.004,0.01,0.02
2021-08-01 00:41:16.008,0.0,-0.02
2021-08-01 00:41:16.012,0.02,-0.07
2021-08-01 00:41:16.016,0.045,-0.065
2021-08-01 00:41:16.020,0.075,-0.11
2021-08-01 00:41:16.024,0.06,-0.14
2021-08-01 00:41:16.028,0.08,-0.175
2021-08-01 00:41:16.032,0.085,-0.185
2021-08-01 00:41:16.036,0.095,-0.215
2021-08-01 00:41:16.040,0.09,-0.22
2021-08-01 00:41:16.044,0.065,-0.25
2021-08-01 00:41:16.048,0.07,-0.245
2021-08-01 00:41:16.052,0.085,-0.25
2021-08-01 00:41:16.056,0.08,-0.28
2021-08-01 00:41:16.060,0.075,-0.29
2021-08-01 00:41:16.064,0.07,-0.275
2021-08-01 00:41:16.068,0.1,-0.265
2021-08-01 00:41:16.072,0.075,-0.275
2021-08-01 00:41:16.076,0.08,-0.305
2021-08-01 00:41:16.080,0.105,-0.295
2021-08-01 00:41:16.084,0.075,-0.29
2021-08-01 00:41:16.088,0.085,-0.29
2021-08-01 00:41:16.092,0.065,-0.295
2021-08-01 00:41:16.096,0.085,-0.31
2021-08-01 00:41:16.100,0.095,-0.285
2021-08-01 00:41:16.104,0.085,-0.29
2021-08-01 00:41:16.108,0.075,-0.315
2021-08-01 00:41:16.112,0.095,-0.305
2021-08-01 00:41:16.116,0.095,-0.275
2021-08-01 00:41:16.120,0.105,-0.28
2021-08-01 00:41:16.124,0.105,-0.285
2021-08-01 00:41:16.128,0.09,-0.315
2021-08-01 00:41:16.132,0.105,-0.295
2021-08-01 00:41:16.136,0.11,-0.3
2021-08-01 00:41:16.140,0.105,-0.295
2021-08-01 00:41:16.144,0.11,-0.32
2021-08-01 00:41:16.148,0.105,-0.315
2021-08-01 00:41:16.152,0.11,-0.3
2021-08-01 00:41:16.156,0.11,-0.305
2021-08-01 00:41:16.160,0.095,-0.33
2021-08-01 00:41:16.164,0.115,-0.315
2021-08-01 00:41:16.168,0.105,-0.31
2021-08-01 00:41:16.172,0.095,-0.325
2021-08-01 00:41:16.176,0.09,-0.33
2021-08-01 00:41:16.180,0.065,-0.315
2021-08-01 00:41:16.184,0.09,-0.29
2021-08-01 00:41:16.188,0.09,-0.31
2021-08-01 00:41:16.192,0.075,-0.305
2021-08-01 00:41:16.196,0.105,-0.325
2021-08-01 00:41:16.200,0.105,-0.3
2021-08-01 00:41:16.204,0.09,-0.29
2021-08-01 00:41:16.208,0.11,-0.285
2021-08-01 00:41:16.212,0.08,-0.315
2021-08-01 00:41:16.216,0.095,-0.31
2021-08-01 00:41:16.220,0.095,-0.3
2021-08-01 00:41:16.224,0.075,-0.31
2021-08-01 00:41:16.228,0.08,-0.295
2021-08-01 00:41:16.232,0.055,-0.305
2021-08-01 00:41:16.236,0.06,-0.29
2021-08-01 00:41:16.240,0.085,-0.29
2021-08-01 00:41:16.244,0.09,-0.305
2021-08-01 00:41:16.248,0.07,-0.29
2021-08-01 00:41:16.252,0.09,-0.305
2021-08-01 00:41:16.256,0.06,-0.315
2021-08-01 00:41:16.260,0.06,-0.295
2021-08-01 00:41:16.264,0.05,-0.305
2021-08-01 00:41:16.268,0.04,-0.31
2021-08-01 00:41:16.272,0.065,-0.3
2021-08-01 00:41:16.276,0.065,-0.3
2021-08-01 00:41:16.280,0.05,-0.295
2021-08-01 00:41:16.284,0.045,-0.3
2021-08-01 00:41:16.288,0.06,-0.305
2021-08-01 00:41:16.292,0.04,-0.31
2021-08-01 00:41:16.296,0.04,-0.31
2021-08-01 00:41:16.300,0.045,-0.315
2021-08-01 00:41:16.304,0.025,-0.305
2021-08-01 00:41:16.308,0.03,-0.315
2021-08-01 00:41:16.312,0.04,-0.305
2021-08-01 00:41:16.316,0.05,-0.335
2021-08-01 00:41:16.320,0.055,-0.33
2021-08-01 00:41:16.324,0.035,-0.305
2021-08-01 00:41:16.328,0.045,-0.32
2021-08-01 00:41:16.332,0.04,-0.33
2021-08-01 00:41:16.336,0.045,-0.32
2021-08-01 00:41:16.340,0.04,-0.32
2021-08-01 00:41:16.344,0.03,-0.315
2021-08-01 00:41:16.348,0.025,-0.315
2021-08-01 00:41:16.352,0.03,-0.32
2021-08-01 00:41:16.356,0.03,-0.305
2021-08-01 00:41:16.360,0.025,-0.315
2021-08-01 00:41:16.364,0.01,-0.335
2021-08-01 00:41:16.368,0.005,-0.34
2021-08-01 00:41:16.372,0.02,-0.33
2021-08-01 00:41:16.376,0.02,-0.335
2021-08-01 00:41:16.380,0.0,-0.32
2021-08-01 00:41:16.384,0.0,-0.35
2021-08-01 00:41:16.388,-0.01,-0.33
2021-08-01 00:41:16.392,0.0,-0.35
2021-08-01 00:41:16.396,0.0,-0.36
2021-08-01 00:41:16.400,0.0,-0.35
2021-08-01 00:41:16.404,-0.02,-0.33
2021-08-01 00:41:16.408,0.0,-0.34
2021-08-01 00:41:16.412,0.005,-0.35
2021-08-01 00:41:16.416,-0.005,-0.355
2021-08-01 00:41:16.420,0.005,-0.355
2021-08-01 00:41:16.424,-0.005,-0.36
2021-08-01 00:41:16.428,0.0,-0.345
2021-08-01 00:41:16.432,-0.025,-0.355
2021-08-01 00:41:16.436,0.0,-0.345
2021-08-01 00:41:16.440,0.0,-0.335
2021-08-01 00:41:16.444,0.005,-0.34
2021-08-01 00:41:16.448,0.005,-0.355
2021-08-01 00:41:16.452,-0.015,-0.355
2021-08-01 00:41:16.456,-0.02,-0.345
2021-08-01 00:41:16.460,0.0,-0.36
2021-08-01 00:41:16.464,0.005,-0.365
2021-08-01 00:41:16.468,-0.01,-0.34
2021-08-01 00:41:16.472,-0.01,-0.35
2021-08-01 00:41:16.476,0.0,-0.36
2021-08-01 00:41:16.480,-0.02,-0.375
2021-08-01 00:41:16.484,-0.005,-0.36
2021-08-01 00:41:16.488,-0.02,-0.36
2021-08-01 00:41:16.492,-0.02,-0.36
2021-08-01 00:41:16.496,-0.01,-0.36
2021-08-01 00:41:16.500,0.005,-0.37
2021-08-01 00:41:16.504,-0.035,-0.335
2021-08-01 00:41:16.508,0.0,-0.365
2021-08-01 00:41:16.512,-0.025,-0.37
2021-08-01 00:41:16.516,-0.035,-0.36
2021-08-01 00:41:16.520,-0.01,-0.35
2021-08-01 00:41:16.524,-0.01,-0.355
2021-08-01 00:41:16.528,-0.01,-0.38
2021-08-01 00:41:16.532,0.01,-0.37
2021-08-01 00:41:16.536,-0.01,-0.375
2021-08-01 00:41:16.540,0.0,-0.355
2021-08-01 00:41:16.544,0.015,-0.36
2021-08-01 00:41:16.548,0.025,-0.36
2021-08-01 00:41:16.552,-0.005,-0.34
2021-08-01 00:41:16.556,0.01,-0.36
2021-08-01 00:41:16.560,0.0,-0.35
2021-08-01 00:41:16.564,-0.01,-0.36
2021-08-01 00:41:16.568,0.01,-0.365
2021-08-01 00:41:16.572,0.0,-0.36
2021-08-01 00:41:16.576,-0.005,-0.34
2021-08-01 00:41:16.580,-0.005,-0.35
2021-08-01 00:41:16.584,-0.01,-0.365
2021-08-01 00:41:16.588,0.01,-0.35
2021-08-01 00:41:16.592,0.0,-0.355
2021-08-01 00:41:16.596,0.0,-0.365
2021-08-01 00:41:16.600,0.005,-0.35
2021-08-01 00:41:16.604,0.01,-0.34
2021-08-01 00:41:16.608,0.02,-0.35
2021-08-01 00:41:16.612,0.0,-0.36
2021-08-01 00:41:16.616,-0.005,-0.365
2021-08-01 00:41:16.620,-0.015,-0.355
2021-08-01 00:41:16.624,0.02,-0.35
2021-08-01 00:41:16.628,-0.02,-0.345
2021-08-01 00:41:16.632,-0.005,-0.355
2021-08-01 00:41:16.636,-0.005,-0.355
2021-08-01 00:41:16.640,-0.005,-0.375
2021-08-01 00:41:16.644,-0.01,-0.355
2021-08-01 00:41:16.648,0.005,-0.34
2021-08-01 00:41:16.652,0.0,-0.345
2021-08-01 00:41:16.656,0.015,-0.34
2021-08-01 00:41:16.660,0.025,-0.34
2021-08-01 00:41:16.664,0.015,-0.365
2021-08-01 00:41:16.668,0.005,-0.375
2021-08-01 00:41:16.672,0.0,-0.355
2021-08-01 00:41:16.676,0.01,-0.34
2021-08-01 00:41:16.680,-0.005,-0.35
2021-08-01 00:41:16.684,0.0,-0.34
2021-08-01 00:41:16.688,0.015,-0.33
2021-08-01 00:41:16.692,-0.015,-0.335
2021-08-01 00:41:16.696,0.0,-0.355
2021-08-01 00:41:16.700,0.0,-0.35
2021-08-01 00:41:16.704,0.005,-0.335
2021-08-01 00:41:16.708,0.015,-0.34
2021-08-01 00:41:16.712,0.0,-0.34
2021-08-01 00:41:16.716,0.0,-0.335
2021-08-01 00:41:16.720,0.005,-0.325
2021-08-01 00:41:16.724,0.005,-0.33
2021-08-01 00:41:16.728,0.015,-0.295
2021-08-01 00:41:16.732,0.02,-0.215
2021-08-01 00:41:16.736,0.035,-0.175
2021-08-01 00:41:16.740,0.04,-0.1
2021-08-01 00:41:16.744,0.09,-0.045
2021-08-01 00:41:16.748,0.09,-0.1
2021-08-01 00:41:16.752,0.115,-0.235
2021-08-01 00:41:16.756,0.12,-0.2
2021-08-01 00:41:16.760,0.06,0.05
2021-08-01 00:41:16.764,-0.03,0.32
2021-08-01 00:41:16.768,-0.095,0.175
2021-08-01 00:41:16.772,-0.165,-0.56
2021-08-01 00:41:16.776,-0.19,-1.365
2021-08-01 00:41:16.780,-0.16,-1.62
2021-08-01 00:41:16.784,-0.065,-1.37
2021-08-01 00:41:16.788,0.045,-1.17
2021-08-01 00:41:16.792,0.045,-1.215
2021-08-01 00:41:16.796,-0.01,-1.14
2021-08-01 00:41:16.800,-0.1,-0.87
2021-08-01 00:41:16.804,-0.19,-0.615
2021-08-01 00:41:16.808,-0.21,-0.46
2021-08-01 00:41:16.812,-0.28,-0.405
2021-08-01 00:41:16.816,-0.315,-0.405
2021-08-01 00:41:16.820,-0.18,-0.4
2021-08-01 00:41:16.824,-0.035,-0.385
2021-08-01 00:41:16.828,0.03,-0.395
2021-08-01 00:41:16.832,0.055,-0.38
2021-08-01 00:41:16.836,0.045,-0.365
2021-08-01 00:41:16.840,0.07,-0.37
2021-08-01 00:41:16.844,0.055,-0.36
2021-08-01 00:41:16.848,0.06,-0.365
2021-08-01 00:41:16.852,0.065,-0.365
2021-08-01 00:41:16.856,0.05,-0.36
2021-08-01 00:41:16.860,0.065,-0.35
2021-08-01 00:41:16.864,0.08,-0.36
2021-08-01 00:41:16.868,0.09,-0.355
2021-08-01 00:41:16.872,0.055,-0.31
2021-08-01 00:41:16.876,0.075,-0.32
2021-08-01 00:41:16.880,0.095,-0.315
2021-08-01 00:41:16.884,0.095,-0.315
2021-08-01 00:41:16.888,0.095,-0.285
2021-08-01 00:41:16.892,0.095,-0.305
2021-08-01 00:41:16.896,0.1,-0.305
2021-08-01 00:41:16.900,0.135,-0.295
2021-08-01 00:41:16.904,0.135,-0.25
2021-08-01 00:41:16.908,0.115,-0.265
2021-08-01 00:41:16.912,0.13,-0.275
2021-08-01 00:41:16.916,0.14,-0.27
2021-08-01 00:41:16.920,0.16,-0.255
2021-08-01 00:41:16.924,0.15,-0.255
2021-08-01 00:41:16.928,0.135,-0.25
2021-08-01 00:41:16.932,0.13,-0.225
2021-08-01 00:41:16.936,0.125,-0.205
2021-08-01 00:41:16.940,0.14,-0.205
2021-08-01 00:41:16.944,0.14,-0.21
2021-08-01 00:41:16.948,0.16,-0.195
2021-08-01 00:41:16.952,0.14,-0.145
2021-08-01 00:41:16.956,0.135,-0.16
2021-08-01 00:41:16.960,0.115,-0.16
2021-08-01 00:41:16.964,0.135,-0.135
2021-08-01 00:41:16.968,0.165,-0.09
2021-08-01 00:41:16.972,0.17,-0.08
2021-08-01 00:41:16.976,0.155,-0.07
2021-08-01 00:41:16.980,0.155,-0.04
2021-08-01 00:41:16.984,0.145,-0.005
2021-08-01 00:41:16.988,0.135,0.02
2021-08-01 00:41:16.992,0.13,0.035
2021-08-01 00:41:16.996,0.11,0.065
2021-08-01 00:41:17.000,0.135,0.12
2021-08-01 00:41:17.004,0.15,0.12
2021-08-01 00:41:17.008,0.12,0.145
2021-08-01 00:41:17.012,0.13,0.16
2021-08-01 00:41:17.016,0.11,0.195
2021-08-01 00:41:17.020,0.105,0.175
2021-08-01 00:41:17.024,0.09,0.17
2021-08-01 00:41:17.028,0.115,0.175
2021-08-01 00:41:17.032,0.085,0.135
2021-08-01 00:41:17.036,0.085,0.115
2021-08-01 00:41:17.040,0.095,0.07
2021-08-01 00:41:17.044,0.095,0.05
2021-08-01 00:41:17.048,0.11,0.015
2021-08-01 00:41:17.052,0.12,-0.015
2021-08-01 00:41:17.056,0.145,-0.06
2021-08-01 00:41:17.060,0.15,-0.075
2021-08-01 00:41:17.064,0.15,-0.115
2021-08-01 00:41:17.068,0.135,-0.135
2021-08-01 00:41:17.072,0.14,-0.17
2021-08-01 00:41:17.076,0.15,-0.22
2021-08-01 00:41:17.080,0.135,-0.22
2021-08-01 00:41:17.084,0.14,-0.24
2021-08-01 00:41:17.088,0.13,-0.245
2021-08-01 00:41:17.092,0.105,-0.27
2021-08-01 00:41:17.096,0.12,-0.255
2021-08-01 00:41:17.100,0.095,-0.27
2021-08-01 00:41:17.104,0.13,-0.275
2021-08-01 00:41:17.108,0.12,-0.305
2021-08-01 00:41:17.112,0.125,-0.305
2021-08-01 00:41:17.116,0.125,-0.295
2021-08-01 00:41:17.120,0.125,-0.315
2021-08-01 00:41:17.124,0.11,-0.325
2021-08-01 00:41:17.128,0.12,-0.32
2021-08-01 00:41:17.132,0.095,-0.315
2021-08-01 00:41:17.136,0.135,-0.34
2021-08-01 00:41:17.140,0.115,-0.35
2021-08-01 00:41:17.144,0.13,-0.33
2021-08-01 00:41:17.148,0.12,-0.345
2021-08-01 00:41:17.152,0.145,-0.345
2021-08-01 00:41:17.156,0.125,-0.36
2021-08-01 00:41:17.160,0.125,-0.37
2021-08-01 00:41:17.164,0.12,-0.365
2021-08-01 00:41:17.168,0.095,-0.365
2021-08-01 00:41:17.172,0.13,-0.39
2021-08-01 00:41:17.176,0.13,-0.38
2021-08-01 00:41:17.180,0.13,-0.365
2021-08-01 00:41:17.184,0.125,-0.375
2021-08-01 00:41:17.188,0.12,-0.385
2021-08-01 00:41:17.192,0.095,-0.375
2021-08-01 00:41:17.196,0.12,-0.385
2021-08-01 00:41:17.200,0.11,-0.39
2021-08-01 00:41:17.204,0.105,-0.39
2021-08-01 00:41:17.208,0.12,-0.405
2021-08-01 00:41:17.212,0.13,-0.395
2021-08-01 00:41:17.216,0.12,-0.385
2021-08-01 00:41:17.220,0.105,-0.395
2021-08-01 00:41:17.224,0.105,-0.395
2021-08-01 00:41:17.228,0.065,-0.37
2021-08-01 00:41:17.232,0.095,-0.38
2021-08-01 00:41:17.236,0.095,-0.375
2021-08-01 00:41:17.240,0.095,-0.385
2021-08-01 00:41:17.244,0.09,-0.37
2021-08-01 00:41:17.248,0.09,-0.35
2021-08-01 00:41:17.252,0.09,-0.375
2021-08-01 00:41:17.256,0.12,-0.37
2021-08-01 00:41:17.260,0.065,-0.36
2021-08-01 00:41:17.264,0.085,-0.35
2021-08-01 00:41:17.268,0.07,-0.36
2021-08-01 00:41:17.272,0.105,-0.35
2021-08-01 00:41:17.276,0.075,-0.35
2021-08-01 00:41:17.280,0.1,-0.35
2021-08-01 00:41:17.284,0.11,-0.355
2021-08-01 00:41:17.288,0.12,-0.36
2021-08-01 00:41:17.292,0.1,-0.36
2021-08-01 00:41:17.296,0.095,-0.355
2021-08-01 00:41:17.300,0.095,-0.365
2021-08-01 00:41:17.304,0.075,-0.365
2021-08-01 00:41:17.308,0.06,-0.375
2021-08-01 00:41:17.312,0.09,-0.36
2021-08-01 00:41:17.316,0.07,-0.37
2021-08-01 00:41:17.320,0.06,-0.36
2021-08-01 00:41:17.324,0.1,-0.375
2021-08-01 00:41:17.328,0.105,-0.385
2021-08-01 00:41:17.332,0.09,-0.37
2021-08-01 00:41:17.336,0.08,-0.375
2021-08-01 00:41:17.340,0.075,-0.37
2021-08-01 00:41:17.344,0.095,-0.36
2021-08-01 00:41:17.348,0.085,-0.35
2021-08-01 00:41:17.352,0.095,-0.37
2021-08-01 00:41:17.356,0.065,-0.36
2021-08-01 00:41:17.360,0.07,-0.355
2021-08-01 00:41:17.364,0.075,-0.365
2021-08-01 00:41:17.368,0.085,-0.37
2021-08-01 00:41:17.372,0.085,-0.36
2021-08-01 00:41:17.376,0.075,-0.37
2021-08-01 00:41:17.380,0.075,-0.35
2021-08-01 00:41:17.384,0.085,-0.37
2021-08-01 00:41:17.388,0.085,-0.375
2021-08-01 00:41:17.392,0.08,-0.355
2021-08-01 00:41:17.396,0.095,-0.345
2021-08-01 00:41:17.400,0.07,-0.375
2021-08-01 00:41:17.404,0.06,-0.385
2021-08-01 00:41:17.408,0.065,-0.37
2021-08-01 00:41:17.412,0.055,-0.375
2021-08-01 00:41:17.416,0.085,-0.375
2021-08-01 00:41:17.420,0.05,-0.38
2021-08-01 00:41:17.424,0.085,-0.365
2021-08-01 00:41:17.428,0.07,-0.365
2021-08-01 00:41:17.432,0.07,-0.395
2021-08-01 00:41:17.436,0.055,-0.385
2021-08-01 00:41:17.440,0.07,-0.365
2021-08-01 00:41:17.444,0.075,-0.365
2021-08-01 00:41:17.448,0.04,-0.38
2021-08-01 00:41:17.452,0.06,-0.375
2021-08-01 00:41:17.456,0.08,-0.37
2021-08-01 00:41:17.460,0.07,-0.38
2021-08-01 00:41:17.464,0.075,-0.375
2021-08-01 00:41:17.468,0.075,-0.39
2021-08-01 00:41:17.472,0.075,-0.375
2021-08-01 00:41:17.476,0.08,-0.38
2021-08-01 00:41:17.480,0.08,-0.385
2021-08-01 00:41:17.484,0.065,-0.38
2021-08-01 00:41:17.488,0.085,-0.365
2021-08-01 00:41:17.492,0.08,-0.405
2021-08-01 00:41:17.496,0.075,-0.365
2021-08-01 00:41:17.500,0.08,-0.385
2021-08-01 00:41:17.504,0.095,-0.375
2021-08-01 00:41:17.508,0.09,-0.36
2021-08-01 00:41:17.512,0.095,-0.38
2021-08-01 00:41:17.516,0.08,-0.38
2021-08-01 00:41:17.520,0.09,-0.365
2021-08-01 00:41:17.524,0.1,-0.375
2021-08-01 00:41:17.528,0.095,-0.375
2021-08-01 00:41:17.532,0.085,-0.36
2021-08-01 00:41:17.536,0.1,-0.35
2021-08-01 00:41:17.540,0.095,-0.375
2021-08-01 00:41:17.544,0.075,-0.36
2021-08-01 00:41:17.548,0.09,-0.35
2021-08-01 00:41:17.552,0.12,-0.37
2021-08-01 00:41:17.556,0.115,-0.36
2021-08-01 00:41:17.560,0.12,-0.36
2021-08-01 00:41:17.564,0.11,-0.37
2021-08-01 00:41:17.568,0.125,-0.365
2021-08-01 00:41:17.572,0.11,-0.355
2021-08-01 00:41:17.576,0.105,-0.34
2021-08-01 00:41:17.580,0.1,-0.335
2021-08-01 00:41:17.584,0.115,-0.315
2021-08-01 00:41:17.588,0.13,-0.3
2021-08-01 00:41:17.592,0.14,-0.27
2021-08-01 00:41:17.596,0.15,-0.255
2021-08-01 00:41:17.600,0.17,-0.23
2021-08-01 00:41:17.604,0.21,-0.2
2021-08-01 00:41:17.608,0.225,-0.195
2021-08-01 00:41:17.612,0.255,-0.2
2021-08-01 00:41:17.616,0.275,-0.21
2021-08-01 00:41:17.620,0.295,-0.215
2021-08-01 00:41:17.624,0.285,-0.235
2021-08-01 00:41:17.628,0.305,-0.265
2021-08-01 00:41:17.632,0.275,-0.285
2021-08-01 00:41:17.636,0.215,-0.295
2021-08-01 00:41:17.640,0.185,-0.33
2021-08-01 00:41:17.644,0.13,-0.355
2021-08-01 00:41:17.648,0.095,-0.395
2021-08-01 00:41:17.652,0.095,-0.395
2021-08-01 00:41:17.656,0.09,-0.395
2021-08-01 00:41:17.660,0.03,-0.385
2021-08-01 00:41:17.664,0.035,-0.42
2021-08-01 00:41:17.668,0.045,-0.45
2021-08-01 00:41:17.672,0.045,-0.46
2021-08-01 00:41:17.676,0.08,-0.46
2021-08-01 00:41:17.680,0.085,-0.47
2021-08-01 00:41:17.684,0.08,-0.46
2021-08-01 00:41:17.688,0.09,-0.465
2021-08-01 00:41:17.692,0.06,-0.48
2021-08-01 00:41:17.696,0.05,-0.465
2021-08-01 00:41:17.700,0.06,-0.455
2021-08-01 00:41:17.704,0.07,-0.46
2021-08-01 00:41:17.708,0.065,-0.455
2021-08-01 00:41:17.712,0.095,-0.45
2021-08-01 00:41:17.716,0.09,-0.435
2021-08-01 00:41:17.720,0.075,-0.435
2021-08-01 00:41:17.724,0.065,-0.425
2021-08-01 00:41:17.728,0.07,-0.42
2021-08-01 00:41:17.732,0.07,-0.43
2021-08-01 00:41:17.736,0.075,-0.415
2021-08-01 00:41:17.740,0.1,-0.42
2021-08-01 00:41:17.744,0.09,-0.41
2021-08-01 00:41:17.748,0.09,-0.405
2021-08-01 00:41:17.752,0.075,-0.39
2021-08-01 00:41:17.756,0.105,-0.36
2021-08-01 00:41:17.760,0.1,-0.31
2021-08-01 00:41:17.764,0.11,-0.195
2021-08-01 00:41:17.768,0.13,-0.05
2021-08-01 00:41:17.772,0.185,0.16
2021-08-01 00:41:17.776,0.24,0.505
2021-08-01 00:41:17.780,0.205,0.76
2021-08-01 00:41:17.784,0.015,0.9
2021-08-01 00:41:17.788,-0.365,1.025
2021-08-01 00:41:17.792,-0.95,1.285
2021-08-01 00:41:17.796,-1.625,1.6
2021-08-01 00:41:17.832,-2.0,1.605
2021-08-01 00:41:17.836,-1.8,0.82
2021-08-01 00:41:17.840,-1.64,0.135
2021-08-01 00:41:17.844,-1.47,-0.19
2021-08-01 00:41:17.848,-1.305,-0.245
2021-08-01 00:41:17.852,-1.1,-0.3
2021-08-01 00:41:17.856,-0.845,-0.395
2021-08-01 00:41:17.860,-0.485,-0.475
2021-08-01 00:41:17.864,-0.11,-0.485
2021-08-01 00:41:17.868,0.17,-0.495
2021-08-01 00:41:17.872,0.34,-0.52
2021-08-01 00:41:17.876,0.415,-0.525
2021-08-01 00:41:17.880,0.445,-0.525
2021-08-01 00:41:17.884,0.52,-0.52
2021-08-01 00:41:17.888,0.54,-0.545
2021-08-01 00:41:17.892,0.57,-0.54
2021-08-01 00:41:17.896,0.59,-0.525
2021-08-01 00:41:17.900,0.595,-0.535
2021-08-01 00:41:17.904,0.6,-0.54
2021-08-01 00:41:17.908,0.645,-0.515
2021-08-01 00:41:17.912,0.64,-0.525
2021-08-01 00:41:17.916,0.675,-0.545
2021-08-01 00:41:17.920,0.66,-0.53
2021-08-01 00:41:17.924,0.66,-0.525
2021-08-01 00:41:17.928,0.675,-0.535
2021-08-01 00:41:17.932,0.705,-0.52
2021-08-01 00:41:17.936,0.695,-0.5
2021-08-01 00:41:17.940,0.7,-0.535
2021-08-01 00:41:17.944,0.705,-0.53
2021-08-01 00:41:17.948,0.73,-0.53
2021-08-01 00:41:17.952,0.735,-0.525
2021-08-01 00:41:17.956,0.75,-0.53
2021-08-01 00:41:17.960,0.77,-0.53
2021-08-01 00:41:17.964,0.775,-0.51
2021-08-01 00:41:17.968,0.785,-0.54
2021-08-01 00:41:17.972,0.805,-0.56
2021-08-01 00:41:17.976,0.805,-0.58
2021-08-01 00:41:17.980,0.82,-0.58
2021-08-01 00:41:17.984,0.825,-0.58
2021-08-01 00:41:17.988,0.865,-0.6
2021-08-01 00:41:17.992,0.9,-0.635
2021-08-01 00:41:17.996,0.9,-0.64
2021-08-01 00:41:18.000,0.92,-0.64
2021-08-01 00:41:18.004,0.94,-0.65
2021-08-01 00:41:18.008,0.975,-0.66
2021-08-01 00:41:18.012,0.995,-0.685
2021-08-01 00:41:18.016,1.01,-0.695
2021-08-01 00:41:18.020,1.025,-0.715
2021-08-01 00:41:18.024,1.05,-0.72
2021-08-01 00:41:18.028,1.055,-0.725
2021-08-01 00:41:18.032,1.04,-0.735
2021-08-01 00:41:18.036,1.04,-0.725
2021-08-01 00:41:18.040,1.04,-0.695
2021-08-01 00:41:18.044,1.02,-0.66
2021-08-01 00:41:18.048,0.985,-0.675
2021-08-01 00:41:18.052,0.95,-0.64
2021-08-01 00:41:18.056,0.96,-0.595
2021-08-01 00:41:18.060,0.915,-0.545
2021-08-01 00:41:18.064,0.865,-0.495
2021-08-01 00:41:18.068,0.82,-0.455
2021-08-01 00:41:18.072,0.775,-0.42
2021-08-01 00:41:18.076,0.715,-0.38
2021-08-01 00:41:18.080,0.65,-0.355
2021-08-01 00:41:18.084,0.6,-0.3
2021-08-01 00:41:18.088,0.56,-0.265
2021-08-01 00:41:18.092,0.52,-0.24
2021-08-01 00:41:18.096,0.485,-0.24
2021-08-01 00:41:18.100,0.44,-0.225
2021-08-01 00:41:18.104,0.4,-0.225
2021-08-01 00:41:18.108,0.385,-0.22
2021-08-01 00:41:18.112,0.345,-0.22
2021-08-01 00:41:18.116,0.33,-0.215
2021-08-01 00:41:18.120,0.305,-0.215
2021-08-01 00:41:18.124,0.33,-0.2
2021-08-01 00:41:18.128,0.265,-0.205
2021-08-01 00:41:18.132,0.305,-0.21
2021-08-01 00:41:18.136,0.3,-0.205
2021-08-01 00:41:18.140,0.285,-0.205
2021-08-01 00:41:18.144,0.305,-0.215
2021-08-01 00:41:18.148,0.3,-0.2
2021-08-01 00:41:18.152,0.285,-0.22
2021-08-01 00:41:18.156,0.295,-0.2
2021-08-01 00:41:18.160,0.295,-0.2
2021-08-01 00:41:18.164,0.28,-0.21
2021-08-01 00:41:18.168,0.31,-0.2
2021-08-01 00:41:18.172,0.29,-0.205
2021-08-01 00:41:18.176,0.28,-0.22
2021-08-01 00:41:18.180,0.28,-0.225
2021-08-01 00:41:18.184,0.29,-0.23
2021-08-01 00:41:18.188,0.3,-0.215
2021-08-01 00:41:18.192,0.275,-0.235
2021-08-01 00:41:18.196,0.285,-0.245
2021-08-01 00:41:18.200,0.3,-0.245
2021-08-01 00:41:18.204,0.29,-0.26
2021-08-01 00:41:18.208,0.295,-0.265
2021-08-01 00:41:18.212,0.295,-0.29
2021-08-01 00:41:18.216,0.305,-0.28
2021-08-01 00:41:18.220,0.305,-0.29
2021-08-01 00:41:18.224,0.315,-0.29
2021-08-01 00:41:18.228,0.32,-0.325
2021-08-01 00:41:18.232,0.31,-0.31
2021-08-01 00:41:18.236,0.33,-0.3
2021-08-01 00:41:18.240,0.3,-0.3
2021-08-01 00:41:18.244,0.295,-0.32
2021-08-01 00:41:18.248,0.305,-0.305
2021-08-01 00:41:18.252,0.31,-0.34
2021-08-01 00:41:18.256,0.305,-0.35
2021-08-01 00:41:18.260,0.295,-0.345
2021-08-01 00:41:18.264,0.295,-0.335
2021-08-01 00:41:18.268,0.32,-0.345
2021-08-01 00:41:18.272,0.315,-0.325
2021-08-01 00:41:18.276,0.295,-0.345
2021-08-01 00:41:18.280,0.31,-0.325
2021-08-01 00:41:18.284,0.315,-0.34
2021-08-01 00:41:18.288,0.295,-0.355
2021-08-01 00:41:18.292,0.295,-0.345
2021-08-01 00:41:18.296,0.295,-0.33
2021-08-01 00:41:18.300,0.275,-0.33
2021-08-01 00:41:18.304,0.29,-0.33
2021-08-01 00:41:18.308,0.3,-0.335
2021-08-01 00:41:18.312,0.29,-0.35
2021-08-01 00:41:18.316,0.295,-0.305
2021-08-01 00:41:18.320,0.28,-0.305
2021-08-01 00:41:18.324,0.275,-0.305
2021-08-01 00:41:18.328,0.27,-0.32
2021-08-01 00:41:18.332,0.26,-0.315
2021-08-01 00:41:18.336,0.265,-0.325
2021-08-01 00:41:18.340,0.285,-0.295
2021-08-01 00:41:18.344,0.275,-0.32
2021-08-01 00:41:18.348,0.265,-0.305
2021-08-01 00:41:18.352,0.25,-0.31
2021-08-01 00:41:18.356,0.26,-0.32
2021-08-01 00:41:18.360,0.25,-0.315
2021-08-01 00:41:18.364,0.255,-0.315
2021-08-01 00:41:18.368,0.245,-0.28
2021-08-01 00:41:18.372,0.24,-0.28
2021-08-01 00:41:18.376,0.235,-0.3
2021-08-01 00:41:18.380,0.24,-0.3
2021-08-01 00:41:18.384,0.255,-0.305
2021-08-01 00:41:18.388,0.245,-0.3
2021-08-01 00:41:18.392,0.24,-0.32
2021-08-01 00:41:18.396,0.245,-0.295
2021-08-01 00:41:18.400,0.23,-0.305
2021-08-01 00:41:18.404,0.205,-0.285
2021-08-01 00:41:18.408,0.235,-0.32
2021-08-01 00:41:18.412,0.245,-0.31
2021-08-01 00:41:18.416,0.235,-0.31
2021-08-01 00:41:18.420,0.22,-0.3
2021-08-01 00:41:18.424,0.25,-0.31
2021-08-01 00:41:18.428,0.23,-0.28
2021-08-01 00:41:18.432,0.215,-0.28
2021-08-01 00:41:18.436,0.22,-0.3
2021-08-01 00:41:18.440,0.21,-0.315
2021-08-01 00:41:18.444,0.22,-0.305
2021-08-01 00:41:18.448,0.21,-0.31
2021-08-01 00:41:18.452,0.225,-0.315
2021-08-01 00:41:18.456,0.215,-0.31
2021-08-01 00:41:18.460,0.24,-0.31
2021-08-01 00:41:18.464,0.235,-0.3
2021-08-01 00:41:18.468,0.205,-0.285
2021-08-01 00:41:18.472,0.27,-0.295
2021-08-01 00:41:18.476,0.23,-0.315
2021-08-01 00:41:18.480,0.24,-0.31
2021-08-01 00:41:18.484,0.215,-0.305
2021-08-01 00:41:18.488,0.225,-0.31
2021-08-01 00:41:18.492,0.25,-0.31
2021-08-01 00:41:18.496,0.24,-0.32
2021-08-01 00:41:18.500,0.21,-0.33
2021-08-01 00:41:18.504,0.245,-0.325
2021-08-01 00:41:18.508,0.23,-0.3
2021-08-01 00:41:18.512,0.25,-0.305
2021-08-01 00:41:18.516,0.235,-0.32
2021-08-01 00:41:18.520,0.245,-0.32
2021-08-01 00:41:18.524,0.25,-0.3
2021-08-01 00:41:18.528,0.25,-0.315
2021-08-01 00:41:18.532,0.255,-0.31
2021-08-01 00:41:18.536,0.25,-0.315
2021-08-01 00:41:18.540,0.26,-0.32
2021-08-01 00:41:18.544,0.25,-0.295
2021-08-01 00:41:18.548,0.25,-0.305
2021-08-01 00:41:18.552,0.24,-0.33
2021-08-01 00:41:18.556,0.255,-0.32
2021-08-01 00:41:18.560,0.22,-0.31
2021-08-01 00:41:18.564,0.245,-0.335
2021-08-01 00:41:18.568,0.25,-0.32
2021-08-01 00:41:18.572,0.27,-0.295
2021-08-01 00:41:18.576,0.25,-0.31
2021-08-01 00:41:18.580,0.225,-0.31
2021-08-01 00:41:18.584,0.24,-0.33
2021-08-01 00:41:18.588,0.24,-0.31
2021-08-01 00:41:18.592,0.24,-0.275
2021-08-01 00:41:18.596,0.235,-0.275
2021-08-01 00:41:18.600,0.235,-0.305
2021-08-01 00:41:18.604,0.25,-0.29
2021-08-01 00:41:18.608,0.24,-0.295
2021-08-01 00:41:18.612,0.235,-0.305
2021-08-01 00:41:18.616,0.25,-0.305
2021-08-01 00:41:18.620,0.29,-0.295
2021-08-01 00:41:18.624,0.26,-0.27
2021-08-01 00:41:18.628,0.245,-0.285
2021-08-01 00:41:18.632,0.26,-0.29
2021-08-01 00:41:18.636,0.24,-0.295
2021-08-01 00:41:18.640,0.23,-0.285
2021-08-01 00:41:18.644,0.25,-0.305
2021-08-01 00:41:18.648,0.26,-0.315
2021-08-01 00:41:18.652,0.255,-0.305
2021-08-01 00:41:18.656,0.245,-0.3
2021-08-01 00:41:18.660,0.245,-0.295
2021-08-01 00:41:18.664,0.225,-0.28
2021-08-01 00:41:18.668,0.255,-0.3
2021-08-01 00:41:18.672,0.245,-0.27
2021-08-01 00:41:18.676,0.23,-0.285
2021-08-01 00:41:18.680,0.235,-0.31
2021-08-01 00:41:18.684,0.245,-0.29
2021-08-01 00:41:18.688,0.265,-0.28
2021-08-01 00:41:18.692,0.25,-0.3
2021-08-01 00:41:18.696,0.26,-0.305
2021-08-01 00:41:18.700,0.285,-0.295
2021-08-01 00:41:18.704,0.265,-0.295
2021-08-01 00:41:18.708,0.245,-0.275
2021-08-01 00:41:18.712,0.255,-0.32
2021-08-01 00:41:18.716,0.245,-0.295
2021-08-01 00:41:18.720,0.255,-0.29
2021-08-01 00:41:18.724,0.275,-0.265
2021-08-01 00:41:18.728,0.23,-0.27
2021-08-01 00:41:18.732,0.245,-0.275
2021-08-01 00:41:18.736,0.225,-0.265
2021-08-01 00:41:18.740,0.235,-0.255
2021-08-01 00:41:18.744,0.23,-0.28
2021-08-01 00:41:18.748,0.24,-0.29
2021-08-01 00:41:18.752,0.245,-0.275
2021-08-01 00:41:18.756,0.235,-0.29
2021-08-01 00:41:18.760,0.26,-0.28
2021-08-01 00:41:18.764,0.26,-0.285
2021-08-01 00:41:18.768,0.235,-0.255
2021-08-01 00:41:18.772,0.245,-0.275
2021-08-01 00:41:18.776,0.235,-0.305
2021-08-01 00:41:18.780,0.255,-0.29
2021-08-01 00:41:18.784,0.27,-0.3
2021-08-01 00:41:18.788,0.225,-0.28
2021-08-01 00:41:18.792,0.225,-0.285
2021-08-01 00:41:18.796,0.25,-0.285
2021-08-01 00:41:18.800,0.245,-0.265
2021-08-01 00:41:18.804,0.225,-0.27
2021-08-01 00:41:18.808,0.245,-0.285
2021-08-01 00:41:18.812,0.23,-0.285
2021-08-01 00:41:18.816,0.235,-0.285
2021-08-01 00:41:18.820,0.24,-0.27
2021-08-01 00:41:18.824,0.255,-0.29
2021-08-01 00:41:18.828,0.24,-0.295
2021-08-01 00:41:18.832,0.25,-0.295
2021-08-01 00:41:18.836,0.23,-0.295
2021-08-01 00:41:18.840,0.225,-0.3
2021-08-01 00:41:18.844,0.235,-0.305
2021-08-01 00:41:18.848,0.25,-0.28
2021-08-01 00:41:18.852,0.245,-0.275
2021-08-01 00:41:18.856,0.23,-0.29
2021-08-01 00:41:18.860,0.24,-0.275
2021-08-01 00:41:18.864,0.24,-0.27
2021-08-01 00:41:18.868,0.23,-0.28
2021-08-01 00:41:18.872,0.235,-0.315
2021-08-01 00:41:18.876,0.25,-0.29
2021-08-01 00:41:18.880,0.245,-0.26
2021-08-01 00:41:18.884,0.255,-0.27
2021-08-01 00:41:18.888,0.255,-0.28
2021-08-01 00:41:18.892,0.235,-0.29
2021-08-01 00:41:18.896,0.235,-0.275
2021-08-01 00:41:18.900,0.24,-0.27
2021-08-01 00:41:18.904,0.255,-0.28
2021-08-01 00:41:18.908,0.255,-0.28
2021-08-01 00:41:18.912,0.26,-0.265
2021-08-01 00:41:18.916,0.265,-0.27
2021-08-01 00:41:18.920,0.265,-0.285
2021-08-01 00:41:18.924,0.255,-0.28
2021-08-01 00:41:18.928,0.275,-0.255
2021-08-01 00:41:18.932,0.26,-0.26
2021-08-01 00:41:18.936,0.25,-0.28
2021-08-01 00:41:18.940,0.24,-0.27
2021-08-01 00:41:18.944,0.275,-0.285
2021-08-01 00:41:18.948,0.26,-0.27
2021-08-01 00:41:18.952,0.27,-0.27
2021-08-01 00:41:18.956,0.27,-0.275
2021-08-01 00:41:18.960,0.27,-0.255
2021-08-01 00:41:18.964,0.285,-0.275
2021-08-01 00:41:18.968,0.26,-0.275
2021-08-01 00:41:18.972,0.27,-0.275
2021-08-01 00:41:18.976,0.275,-0.26
2021-08-01 00:41:18.980,0.265,-0.245
2021-08-01 00:41:18.984,0.28,-0.265
2021-08-01 00:41:18.988,0.275,-0.265
2021-08-01 00:41:18.992,0.3,-0.25
2021-08-01 00:41:18.996,0.255,-0.23
2021-08-01 00:41:19.000,0.265,-0.195
2021-08-01 00:41:19.004,0.29,-0.16
2021-08-01 00:41:19.008,0.275,-0.085
2021-08-01 00:41:19.012,0.295,0.0
2021-08-01 00:41:19.016,0.37,-0.005
2021-08-01 00:41:19.020,0.385,-0.135
2021-08-01 00:41:19.024,0.41,-0.125
2021-08-01 00:41:19.028,0.325,0.11
2021-08-01 00:41:19.032,0.265,0.455
2021-08-01 00:41:19.036,0.175,0.485
2021-08-01 00:41:19.040,0.09,-0.165
2021-08-01 00:41:19.044,0.05,-1.01
2021-08-01 00:41:19.048,0.105,-1.355
2021-08-01 00:41:19.052,0.135,-1.145
2021-08-01 00:41:19.056,0.17,-1.09
2021-08-01 00:41:19.060,0.215,-1.2
2021-08-01 00:41:19.064,0.24,-1.075
2021-08-01 00:41:19.068,0.2,-0.805
2021-08-01 00:41:19.072,0.19,-0.555
2021-08-01 00:41:19.076,0.14,-0.4
2021-08-01 00:41:19.080,-0.01,-0.355
2021-08-01 00:41:19.084,-0.035,-0.355
2021-08-01 00:41:19.088,0.115,-0.34
2021-08-01 00:41:19.092,0.225,-0.36
2021-08-01 00:41:19.096,0.27,-0.34
2021-08-01 00:41:19.100,0.28,-0.345
2021-08-01 00:41:19.104,0.28,-0.325
2021-08-01 00:41:19.108,0.28,-0.305
2021-08-01 00:41:19.112,0.28,-0.33
2021-08-01 00:41:19.116,0.3,-0.32
2021-08-01 00:41:19.120,0.28,-0.29
2021-08-01 00:41:19.124,0.27,-0.29
2021-08-01 00:41:19.128,0.3,-0.3
2021-08-01 00:41:19.132,0.315,-0.33
2021-08-01 00:41:19.136,0.325,-0.3
2021-08-01 00:41:19.140,0.305,-0.3
2021-08-01 00:41:19.144,0.29,-0.28
2021-08-01 00:41:19.148,0.3,-0.27
2021-08-01 00:41:19.152,0.31,-0.26
2021-08-01 00:41:19.156,0.285,-0.265
2021-08-01 00:41:19.160,0.3,-0.25
2021-08-01 00:41:19.164,0.325,-0.26
2021-08-01 00:41:19.168,0.335,-0.24
2021-08-01 00:41:19.172,0.295,-0.22
2021-08-01 00:41:19.176,0.295,-0.235
2021-08-01 00:41:19.180,0.315,-0.21
2021-08-01 00:41:19.184,0.305,-0.215
2021-08-01 00:41:19.188,0.3,-0.19
2021-08-01 00:41:19.192,0.275,-0.205
2021-08-01 00:41:19.196,0.295,-0.225
2021-08-01 00:41:19.200,0.305,-0.205
2021-08-01 00:41:19.204,0.295,-0.205
2021-08-01 00:41:19.208,0.29,-0.21
2021-08-01 00:41:19.212,0.315,-0.225
2021-08-01 00:41:19.216,0.29,-0.24
2021-08-01 00:41:19.220,0.27,-0.235
2021-08-01 00:41:19.224,0.26,-0.285
2021-08-01 00:41:19.228,0.26,-0.28
2021-08-01 00:41:19.232,0.25,-0.29
2021-08-01 00:41:19.236,0.205,-0.26
2021-08-01 00:41:19.240,0.195,-0.275
2021-08-01 00:41:19.244,0.17,-0.265
2021-08-01 00:41:19.248,0.165,-0.205
2021-08-01 00:41:19.252,0.145,-0.12
2021-08-01 00:41:19.256,0.145,-0.045
2021-08-01 00:41:19.260,0.14,0.0
2021-08-01 00:41:19.264,0.175,0.025
2021-08-01 00:41:19.268,0.225,0.075
2021-08-01 00:41:19.272,0.24,0.095
2021-08-01 00:41:19.276,0.215,0.125
2021-08-01 00:41:19.280,0.19,0.155
2021-08-01 00:41:19.284,0.19,0.195
2021-08-01 00:41:19.288,0.18,0.205
2021-08-01 00:41:19.292,0.185,0.2
2021-08-01 00:41:19.296,0.175,0.19
2021-08-01 00:41:19.300,0.195,0.175
2021-08-01 00:41:19.304,0.185,0.16
2021-08-01 00:41:19.308,0.22,0.135
2021-08-01 00:41:19.312,0.21,0.125
2021-08-01 00:41:19.316,0.245,0.075
2021-08-01 00:41:19.320,0.245,0.05
2021-08-01 00:41:19.324,0.275,0.0
2021-08-01 00:41:19.328,0.28,-0.01
2021-08-01 00:41:19.332,0.3,-0.035
2021-08-01 00:41:19.336,0.325,-0.085
2021-08-01 00:41:19.340,0.33,-0.095
2021-08-01 00:41:19.344,0.35,-0.105
2021-08-01 00:41:19.348,0.34,-0.13
2021-08-01 00:41:19.352,0.33,-0.14
2021-08-01 00:41:19.356,0.32,-0.13
2021-08-01 00:41:19.360,0.325,-0.15
2021-08-01 00:41:19.364,0.335,-0.17
2021-08-01 00:41:19.368,0.335,-0.16
2021-08-01 00:41:19.372,0.325,-0.17
2021-08-01 00:41:19.376,0.33,-0.165
2021-08-01 00:41:19.380,0.345,-0.175
2021-08-01 00:41:19.384,0.315,-0.165
2021-08-01 00:41:19.388,0.33,-0.18
2021-08-01 00:41:19.392,0.34,-0.195
2021-08-01 00:41:19.396,0.34,-0.195
2021-08-01 00:41:19.400,0.325,-0.175
2021-08-01 00:41:19.404,0.33,-0.18
2021-08-01 00:41:19.408,0.355,-0.17
2021-08-01 00:41:19.412,0.37,-0.175
2021-08-01 00:41:19.416,0.35,-0.185
2021-08-01 00:41:19.420,0.35,-0.2
2021-08-01 00:41:19.424,0.35,-0.21
2021-08-01 00:41:19.428,0.365,-0.185
2021-08-01 00:41:19.432,0.345,-0.18
2021-08-01 00:41:19.436,0.365,-0.21
2021-08-01 00:41:19.440,0.36,-0.22
2021-08-01 00:41:19.444,0.365,-0.205
2021-08-01 00:41:19.448,0.36,-0.21
2021-08-01 00:41:19.452,0.35,-0.23
2021-08-01 00:41:19.456,0.355,-0.24
2021-08-01 00:41:19.460,0.37,-0.235
2021-08-01 00:41:19.464,0.36,-0.23
2021-08-01 00:41:19.468,0.32,-0.245
2021-08-01 00:41:19.472,0.35,-0.235
2021-08-01 00:41:19.476,0.335,-0.235
2021-08-01 00:41:19.480,0.37,-0.22
2021-08-01 00:41:19.484,0.345,-0.22
2021-08-01 00:41:19.488,0.32,-0.24
2021-08-01 00:41:19.492,0.33,-0.265
2021-08-01 00:41:19.496,0.34,-0.225
2021-08-01 00:41:19.500,0.325,-0.225
2021-08-01 00:41:19.504,0.295,-0.26
2021-08-01 00:41:19.508,0.325,-0.22
2021-08-01 00:41:19.512,0.33,-0.215
2021-08-01 00:41:19.516,0.325,-0.215
2021-08-01 00:41:19.520,0.325,-0.24
2021-08-01 00:41:19.524,0.33,-0.23
2021-08-01 00:41:19.528,0.31,-0.21
2021-08-01 00:41:19.532,0.305,-0.22
2021-08-01 00:41:19.536,0.29,-0.225
2021-08-01 00:41:19.540,0.32,-0.235
2021-08-01 00:41:19.544,0.295,-0.23
2021-08-01 00:41:19.548,0.31,-0.215
2021-08-01 00:41:19.552,0.28,-0.235
2021-08-01 00:41:19.556,0.3,-0.24
2021-08-01 00:41:19.560,0.32,-0.22
2021-08-01 00:41:19.564,0.305,-0.225
2021-08-01 00:41:19.568,0.295,-0.235
2021-08-01 00:41:19.572,0.305,-0.24
2021-08-01 00:41:19.576,0.28,-0.23
2021-08-01 00:41:19.580,0.285,-0.23
2021-08-01 00:41:19.584,0.29,-0.23
2021-08-01 00:41:19.588,0.275,-0.26
2021-08-01 00:41:19.592,0.27,-0.22
2021-08-01 00:41:19.596,0.275,-0.22
2021-08-01 00:41:19.600,0.27,-0.23
2021-08-01 00:41:19.604,0.275,-0.24
2021-08-01 00:41:19.608,0.285,-0.23
2021-08-01 00:41:19.612,0.26,-0.24
2021-08-01 00:41:19.616,0.27,-0.225
2021-08-01 00:41:19.620,0.26,-0.23
2021-08-01 00:41:19.624,0.26,-0.24
2021-08-01 00:41:19.628,0.27,-0.215
2021-08-01 00:41:19.632,0.27,-0.235
2021-08-01 00:41:19.636,0.26,-0.24
2021-08-01 00:41:19.640,0.255,-0.24
2021-08-01 00:41:19.644,0.24,-0.215
2021-08-01 00:41:19.648,0.25,-0.245
2021-08-01 00:41:19.652,0.22,-0.245
2021-08-01 00:41:19.656,0.225,-0.25
2021-08-01 00:41:19.660,0.245,-0.235
2021-08-01 00:41:19.664,0.26,-0.235
2021-08-01 00:41:19.668,0.245,-0.27
2021-08-01 00:41:19.672,0.255,-0.25
2021-08-01 00:41:19.676,0.245,-0.23
2021-08-01 00:41:19.680,0.24,-0.23
2021-08-01 00:41:19.684,0.25,-0.255
2021-08-01 00:41:19.688,0.24,-0.245
2021-08-01 00:41:19.692,0.235,-0.235
2021-08-01 00:41:19.696,0.26,-0.24
2021-08-01 00:41:19.700,0.235,-0.25
2021-08-01 00:41:19.704,0.26,-0.245
2021-08-01 00:41:19.708,0.24,-0.22
2021-08-01 00:41:19.712,0.24,-0.22
2021-08-01 00:41:19.716,0.235,-0.215
2021-08-01 00:41:19.720,0.225,-0.245
2021-08-01 00:41:19.724,0.225,-0.22
2021-08-01 00:41:19.728,0.215,-0.2
2021-08-01 00:41:19.732,0.215,-0.235
2021-08-01 00:41:19.736,0.235,-0.26
2021-08-01 00:41:19.740,0.22,-0.23
2021-08-01 00:41:19.744,0.225,-0.21
2021-08-01 00:41:19.748,0.21,-0.23
2021-08-01 00:41:19.752,0.215,-0.23
2021-08-01 00:41:19.756,0.225,-0.22
2021-08-01 00:41:19.760,0.21,-0.22
2021-08-01 00:41:19.764,0.225,-0.235
2021-08-01 00:41:19.768,0.22,-0.245
2021-08-01 00:41:19.772,0.205,-0.24
2021-08-01 00:41:19.776,0.22,-0.235
2021-08-01 00:41:19.780,0.22,-0.215
2021-08-01 00:41:19.784,0.205,-0.225
2021-08-01 00:41:19.788,0.22,-0.22
2021-08-01 00:41:19.792,0.22,-0.235
2021-08-01 00:41:19.796,0.22,-0.215
2021-08-01 00:41:19.800,0.235,-0.24
2021-08-01 00:41:19.804,0.21,-0.245
2021-08-01 00:41:19.808,0.2,-0.21
2021-08-01 00:41:19.812,0.215,-0.24
2021-08-01 00:41:19.816,0.215,-0.23
2021-08-01 00:41:19.820,0.22,-0.225
2021-08-01 00:41:19.824,0.22,-0.205
2021-08-01 00:41:19.828,0.21,-0.2
2021-08-01 00:41:19.832,0.22,-0.235
2021-08-01 00:41:19.836,0.215,-0.22
2021-08-01 00:41:19.840,0.23,-0.205
2021-08-01 00:41:19.844,0.215,-0.215
2021-08-01 00:41:19.848,0.235,-0.24
2021-08-01 00:41:19.852,0.245,-0.235
2021-08-01 00:41:19.856,0.24,-0.215
2021-08-01 00:41:19.860,0.23,-0.22
2021-08-01 00:41:19.864,0.24,-0.22
2021-08-01 00:41:19.868,0.245,-0.225
2021-08-01 00:41:19.872,0.245,-0.215
2021-08-01 00:41:19.876,0.25,-0.19
2021-08-01 00:41:19.880,0.24,-0.19
2021-08-01 00:41:19.884,0.235,-0.21
2021-08-01 00:41:19.888,0.235,-0.215
2021-08-01 00:41:19.892,0.24,-0.18
2021-08-01 00:41:19.896,0.25,-0.185
2021-08-01 00:41:19.900,0.245,-0.2
2021-08-01 00:41:19.904,0.265,-0.2
2021-08-01 00:41:19.908,0.25,-0.18
2021-08-01 00:41:19.912,0.275,-0.185
2021-08-01 00:41:19.916,0.245,-0.19
2021-08-01 00:41:19.920,0.255,-0.19
2021-08-01 00:41:19.924,0.285,-0.165
2021-08-01 00:41:19.928,0.25,-0.165
2021-08-01 00:41:19.932,0.235,-0.19
2021-08-01 00:41:19.936,0.25,-0.17
2021-08-01 00:41:19.940,0.26,-0.16
2021-08-01 00:41:19.944,0.265,-0.16
2021-08-01 00:41:19.948,0.255,-0.19
2021-08-01 00:41:19.952,0.26,-0.16
2021-08-01 00:41:19.956,0.275,-0.155
2021-08-01 00:41:19.960,0.24,-0.16
2021-08-01 00:41:19.964,0.255,-0.195
2021-08-01 00:41:19.968,0.275,-0.18
2021-08-01 00:41:19.972,0.275,-0.14
2021-08-01 00:41:19.976,0.27,-0.15
2021-08-01 00:41:19.980,0.255,-0.145
2021-08-01 00:41:19.984,0.265,-0.165
2021-08-01 00:41:19.988,0.28,-0.155
2021-08-01 00:41:19.992,0.26,-0.13
2021-08-01 00:41:19.996,0.275,-0.15
2021-08-01 00:41:20.000,0.255,-0.15
2021-08-01 00:41:20.004,0.285,-0.16
2021-08-01 00:41:20.008,0.285,-0.125
2021-08-01 00:41:20.012,0.27,-0.14
2021-08-01 00:41:20.016,0.285,-0.15
2021-08-01 00:41:20.020,0.275,-0.145
2021-08-01 00:41:20.024,0.29,-0.11
2021-08-01 00:41:20.028,0.255,-0.14
2021-08-01 00:41:20.032,0.27,-0.155
2021-08-01 00:41:20.036,0.255,-0.15
2021-08-01 00:41:20.040,0.295,-0.15
2021-08-01 00:41:20.044,0.275,-0.12
2021-08-01 00:41:20.048,0.27,-0.14
2021-08-01 00:41:20.052,0.29,-0.125
2021-08-01 00:41:20.056,0.255,-0.105
2021-08-01 00:41:20.060,0.295,-0.1
2021-08-01 00:41:20.064,0.275,-0.12
2021-08-01 00:41:20.068,0.29,-0.135
2021-08-01 00:41:20.072,0.285,-0.13
2021-08-01 00:41:20.076,0.275,-0.11
2021-08-01 00:41:20.080,0.28,-0.135
2021-08-01 00:41:20.084,0.29,-0.12
2021-08-01 00:41:20.088,0.26,-0.11
2021-08-01 00:41:20.092,0.26,-0.115
2021-08-01 00:41:20.096,0.275,-0.13
2021-08-01 00:41:20.100,0.29,-0.12
2021-08-01 00:41:20.104,0.27,-0.12
2021-08-01 00:41:20.108,0.285,-0.105
2021-08-01 00:41:20.112,0.29,-0.13
2021-08-01 00:41:20.116,0.3,-0.14
2021-08-01 00:41:20.120,0.285,-0.13
2021-08-01 00:41:20.124,0.275,-0.105
2021-08-01 00:41:20.128,0.28,-0.095
2021-08-01 00:41:20.132,0.275,-0.135
2021-08-01 00:41:20.136,0.285,-0.125
2021-08-01 00:41:20.140,0.285,-0.095
2021-08-01 00:41:20.144,0.265,-0.105
2021-08-01 00:41:20.148,0.305,-0.11
2021-08-01 00:41:20.152,0.3,-0.12
2021-08-01 00:41:20.156,0.295,-0.11
2021-08-01 00:41:20.160,0.29,-0.11
2021-08-01 00:41:20.164,0.285,-0.13
2021-08-01 00:41:20.168,0.295,-0.12
2021-08-01 00:41:20.172,0.29,-0.1
2021-08-01 00:41:20.176,0.275,-0.08
2021-08-01 00:41:20.180,0.27,-0.085
2021-08-01 00:41:20.184,0.3,-0.095
2021-08-01 00:41:20.188,0.31,-0.045
2021-08-01 00:41:20.192,0.3,0.03
2021-08-01 00:41:20.196,0.28,0.08
2021-08-01 00:41:20.200,0.29,0.135
2021-08-01 00:41:20.204,0.34,0.215
2021-08-01 00:41:20.208,0.39,0.14
2021-08-01 00:41:20.212,0.37,0.01
2021-08-01 00:41:20.216,0.355,0.085
2021-08-01 00:41:20.220,0.295,0.385
2021-08-01 00:41:20.224,0.235,0.655
2021-08-01 00:41:20.228,0.14,0.44
2021-08-01 00:41:20.232,0.095,-0.295
2021-08-01 00:41:20.236,0.075,-1.005
2021-08-01 00:41:20.240,0.125,-1.165
2021-08-01 00:41:20.244,0.215,-0.955
2021-08-01 00:41:20.248,0.265,-0.89
2021-08-01 00:41:20.252,0.235,-0.9
2021-08-01 00:41:20.256,0.14,-0.745
2021-08-01 00:41:20.260,0.05,-0.48
2021-08-01 00:41:20.264,0.015,-0.28
2021-08-01 00:41:20.268,0.0,-0.2
2021-08-01 00:41:20.272,-0.03,-0.155
2021-08-01 00:41:20.276,-0.005,-0.125
2021-08-01 00:41:20.280,0.15,-0.14
2021-08-01 00:41:20.284,0.265,-0.135
2021-08-01 00:41:20.288,0.295,-0.125
2021-08-01 00:41:20.292,0.31,-0.105
2021-08-01 00:41:20.296,0.31,-0.1
2021-08-01 00:41:20.300,0.295,-0.13
2021-08-01 00:41:20.304,0.315,-0.115
2021-08-01 00:41:20.308,0.32,-0.105
2021-08-01 00:41:20.312,0.315,-0.11
2021-08-01 00:41:20.316,0.31,-0.105
2021-08-01 00:41:20.320,0.325,-0.105
2021-08-01 00:41:20.324,0.315,-0.08
2021-08-01 00:41:20.328,0.32,-0.075
2021-08-01 00:41:20.332,0.3,-0.085
2021-08-01 00:41:20.336,0.3,-0.095
2021-08-01 00:41:20.340,0.335,-0.06
2021-08-01 00:41:20.344,0.31,-0.08
2021-08-01 00:41:20.348,0.32,-0.075
2021-08-01 00:41:20.352,0.305,-0.06
2021-08-01 00:41:20.356,0.315,-0.055
2021-08-01 00:41:20.360,0.32,-0.035
2021-08-01 00:41:20.364,0.33,-0.035
2021-08-01 00:41:20.368,0.325,-0.035
2021-08-01 00:41:20.372,0.335,-0.015
2021-08-01 00:41:20.376,0.305,0.0
2021-08-01 00:41:20.380,0.325,-0.01
2021-08-01 00:41:20.384,0.315,-0.03
2021-08-01 00:41:20.388,0.325,0.01
2021-08-01 00:41:20.392,0.335,0.01
2021-08-01 00:41:20.396,0.32,0.015
2021-08-01 00:41:20.400,0.32,0.0
2021-08-01 00:41:20.404,0.305,0.01
2021-08-01 00:41:20.408,0.34,0.045
2021-08-01 00:41:20.412,0.31,0.02
2021-08-01 00:41:20.416,0.315,0.005
2021-08-01 00:41:20.420,0.31,0.0
2021-08-01 00:41:20.424,0.32,0.005
2021-08-01 00:41:20.428,0.3,0.01
2021-08-01 00:41:20.432,0.295,-0.005
2021-08-01 00:41:20.436,0.3,0.01
2021-08-01 00:41:20.440,0.285,0.015
2021-08-01 00:41:20.444,0.25,0.005
2021-08-01 00:41:20.448,0.24,0.005
2021-08-01 00:41:20.452,0.225,0.025
2021-08-01 00:41:20.456,0.215,0.03
2021-08-01 00:41:20.460,0.18,0.09
2021-08-01 00:41:20.464,0.125,0.135
2021-08-01 00:41:20.468,0.125,0.205
2021-08-01 00:41:20.472,0.155,0.28
2021-08-01 00:41:20.476,0.155,0.34
2021-08-01 00:41:20.480,0.195,0.365
2021-08-01 00:41:20.484,0.235,0.385
2021-08-01 00:41:20.488,0.225,0.39
2021-08-01 00:41:20.492,0.185,0.395
2021-08-01 00:41:20.496,0.16,0.365
2021-08-01 00:41:20.500,0.21,0.34
2021-08-01 00:41:20.504,0.21,0.345
2021-08-01 00:41:20.508,0.25,0.355
2021-08-01 00:41:20.512,0.235,0.285
2021-08-01 00:41:20.516,0.27,0.245
2021-08-01 00:41:20.520,0.295,0.205
2021-08-01 00:41:20.524,0.29,0.195
2021-08-01 00:41:20.528,0.275,0.175
2021-08-01 00:41:20.532,0.29,0.135
2021-08-01 00:41:20.536,0.335,0.085
2021-08-01 00:41:20.540,0.31,0.095
2021-08-01 00:41:20.544,0.305,0.065
2021-08-01 00:41:20.548,0.29,0.04
2021-08-01 00:41:20.552,0.305,0.03
2021-08-01 00:41:20.556,0.29,0.04
2021-08-01 00:41:20.560,0.295,0.025
2021-08-01 00:41:20.564,0.28,0.015
2021-08-01 00:41:20.568,0.275,0.005
2021-08-01 00:41:20.572,0.27,0.02
2021-08-01 00:41:20.576,0.28,0.03
2021-08-01 00:41:20.580,0.265,0.005
2021-08-01 00:41:20.584,0.275,0.0
2021-08-01 00:41:20.588,0.29,0.015
2021-08-01 00:41:20.592,0.28,0.005
2021-08-01 00:41:20.596,0.29,0.015
2021-08-01 00:41:20.600,0.295,0.005
2021-08-01 00:41:20.604,0.27,0.02
2021-08-01 00:41:20.608,0.31,0.035
2021-08-01 00:41:20.612,0.265,0.02
2021-08-01 00:41:20.616,0.255,0.0
2021-08-01 00:41:20.620,0.295,0.015
2021-08-01 00:41:20.624,0.3,0.02
2021-08-01 00:41:20.628,0.305,0.045
2021-08-01 00:41:20.632,0.315,0.015
2021-08-01 00:41:20.636,0.28,0.0
2021-08-01 00:41:20.640,0.29,0.015
2021-08-01 00:41:20.644,0.3,0.03
2021-08-01 00:41:20.648,0.285,0.01
2021-08-01 00:41:20.652,0.285,-0.02
2021-08-01 00:41:20.656,0.28,0.0
2021-08-01 00:41:20.660,0.275,0.01
2021-08-01 00:41:20.664,0.27,0.01
2021-08-01 00:41:20.668,0.275,-0.03
2021-08-01 00:41:20.672,0.29,-0.03
2021-08-01 00:41:20.676,0.29,-0.01
2021-08-01 00:41:20.680,0.28,-0.01
2021-08-01 00:41:20.684,0.285,-0.035
2021-08-01 00:41:20.688,0.315,-0.015
2021-08-01 00:41:20.692,0.31,-0.02
2021-08-01 00:41:20.696,0.3,-0.02
2021-08-01 00:41:20.700,0.305,-0.01
2021-08-01 00:41:20.704,0.285,-0.015
2021-08-01 00:41:20.708,0.28,-0.005
2021-08-01 00:41:20.712,0.3,-0.01
2021-08-01 00:41:20.716,0.26,-0.025
2021-08-01 00:41:20.720,0.275,-0.02
2021-08-01 00:41:20.724,0.26,-0.015
2021-08-01 00:41:20.728,0.265,-0.005
2021-08-01 00:41:20.732,0.255,-0.02
2021-08-01 00:41:20.736,0.255,-0.015
2021-08-01 00:41:20.740,0.265,0.0
2021-08-01 00:41:20.744,0.28,-0.005
2021-08-01 00:41:20.748,0.26,0.0
2021-08-01 00:41:20.752,0.265,-0.015
2021-08-01 00:41:20.756,0.245,-0.035
2021-08-01 00:41:20.760,0.24,-0.02
2021-08-01 00:41:20.764,0.23,-0.01
2021-08-01 00:41:20.768,0.235,-0.035
2021-08-01 00:41:20.772,0.235,-0.025
2021-08-01 00:41:20.776,0.23,-0.01
2021-08-01 00:41:20.780,0.23,0.0
2021-08-01 00:41:20.784,0.205,-0.02
2021-08-01 00:41:20.788,0.21,-0.005
2021-08-01 00:41:20.792,0.225,0.0
2021-08-01 00:41:20.796,0.205,-0.005
2021-08-01 00:41:20.800,0.2,-0.01
2021-08-01 00:41:20.804,0.185,-0.02
2021-08-01 00:41:20.808,0.2,-0.005
2021-08-01 00:41:20.812,0.2,-0.005
2021-08-01 00:41:20.816,0.205,-0.015
2021-08-01 00:41:20.820,0.175,-0.025
2021-08-01 00:41:20.824,0.18,-0.025
2021-08-01 00:41:20.828,0.18,-0.005
2021-08-01 00:41:20.832,0.185,-0.025
2021-08-01 00:41:20.836,0.175,-0.045
2021-08-01 00:41:20.840,0.175,-0.02
2021-08-01 00:41:20.844,0.21,0.005
2021-08-01 00:41:20.848,0.18,-0.01
2021-08-01 00:41:20.852,0.185,-0.015
2021-08-01 00:41:20.856,0.165,-0.02
2021-08-01 00:41:20.860,0.155,0.005
2021-08-01 00:41:20.864,0.17,-0.015
2021-08-01 00:41:20.868,0.155,-0.025
2021-08-01 00:41:20.872,0.15,-0.04
2021-08-01 00:41:20.876,0.15,-0.02
2021-08-01 00:41:20.880,0.15,0.01
2021-08-01 00:41:20.884,0.155,-0.005
2021-08-01 00:41:20.888,0.14,-0.03
2021-08-01 00:41:20.892,0.17,-0.02
2021-08-01 00:41:20.896,0.165,0.0
2021-08-01 00:41:20.900,0.155,-0.015
2021-08-01 00:41:20.904,0.13,-0.005
2021-08-01 00:41:20.908,0.145,0.005
2021-08-01 00:41:20.912,0.165,-0.005
2021-08-01 00:41:20.916,0.155,-0.005
2021-08-01 00:41:20.920,0.13,-0.025
2021-08-01 00:41:20.924,0.12,-0.03
2021-08-01 00:41:20.928,0.13,-0.01
2021-08-01 00:41:20.932,0.135,-0.02
2021-08-01 00:41:20.936,0.115,0.0
2021-08-01 00:41:20.940,0.13,0.005
2021-08-01 00:41:20.944,0.125,-0.005
2021-08-01 00:41:20.948,0.125,-0.005
2021-08-01 00:41:20.952,0.11,-0.005
2021-08-01 00:41:20.956,0.12,-0.01
2021-08-01 00:41:20.960,0.14,0.0
2021-08-01 00:41:20.964,0.115,0.01
2021-08-01 00:41:20.968,0.105,0.0
2021-08-01 00:41:20.972,0.11,0.0
2021-08-01 00:41:20.976,0.1,0.04
2021-08-01 00:41:20.980,0.135,0.015
2021-08-01 00:41:20.984,0.12,-0.005
2021-08-01 00:41:20.988,0.11,0.01
2021-08-01 00:41:20.992,0.115,0.03
2021-08-01 00:41:20.996,0.105,0.01
2021-08-01 00:41:21.000,0.09,-0.01
2021-08-01 00:41:21.004,0.105,-0.015
2021-08-01 00:41:21.008,0.11,0.005
2021-08-01 00:41:21.012,0.1,0.01
2021-08-01 00:41:21.016,0.08,-0.01
2021-08-01 00:41:21.020,0.075,-0.005
2021-08-01 00:41:21.024,0.085,0.005
2021-08-01 00:41:21.028,0.08,0.03
2021-08-01 00:41:21.032,0.075,0.005
2021-08-01 00:41:21.036,0.07,0.0
2021-08-01 00:41:21.040,0.065,0.015
2021-08-01 00:41:21.044,0.065,0.015
2021-08-01 00:41:21.048,0.055,-0.005
2021-08-01 00:41:21.052,0.055,0.0
2021-08-01 00:41:21.056,0.05,0.015
2021-08-01 00:41:21.060,0.07,0.03
2021-08-01 00:41:21.064,0.04,0.0
2021-08-01 00:41:21.068,0.05,-0.01
2021-08-01 00:41:21.072,0.045,-0.01
2021-08-01 00:41:21.076,0.04,0.01
2021-08-01 00:41:21.080,0.03,0.01
2021-08-01 00:41:21.084,0.035,0.0
2021-08-01 00:41:21.088,0.035,0.02
2021-08-01 00:41:21.092,0.005,0.015
2021-08-01 00:41:21.096,0.015,0.01
2021-08-01 00:41:21.100,-0.01,-0.005
2021-08-01 00:41:21.104,-0.01,-0.005
2021-08-01 00:41:21.108,-0.005,0.025
2021-08-01 00:41:21.112,-0.025,0.03
2021-08-01 00:41:21.116,0.005,0.015
2021-08-01 00:41:21.120,-0.005,0.01
2021-08-01 00:41:21.124,-0.025,0.02
2021-08-01 00:41:21.128,-0.04,0.03
2021-08-01 00:41:21.132,-0.03,0.0
2021-08-01 00:41:21.136,-0.045,0.015
2021-08-01 00:41:21.140,-0.05,0.005
2021-08-01 00:41:21.144,-0.06,0.015
2021-08-01 00:41:21.148,-0.035,-0.01
2021-08-01 00:41:21.152,-0.05,0.03
2021-08-01 00:41:21.156,-0.06,0.045
2021-08-01 00:41:21.160,-0.075,0.02
2021-08-01 00:41:21.164,-0.06,-0.005
2021-08-01 00:41:21.168,-0.07,0.0
2021-08-01 00:41:21.172,-0.07,0.015
2021-08-01 00:41:21.176,-0.06,0.025
2021-08-01 00:41:21.180,-0.08,0.0
2021-08-01 00:41:21.184,-0.075,0.0
2021-08-01 00:41:21.188,-0.08,0.005
2021-08-01 00:41:21.192,-0.07,0.035
2021-08-01 00:41:21.196,-0.075,0.0
2021-08-01 00:41:21.200,-0.1,0.01
2021-08-01 00:41:21.204,-0.1,0.03
2021-08-01 00:41:21.208,-0.11,0.025
2021-08-01 00:41:21.212,-0.11,0.0
2021-08-01 00:41:21.216,-0.135,-0.005
2021-08-01 00:41:21.220,-0.11,0.02
2021-08-01 00:41:21.224,-0.13,0.02
2021-08-01 00:41:21.228,-0.13,0.0
2021-08-01 00:41:21.232,-0.14,0.0
2021-08-01 00:41:21.236,-0.105,0.01
2021-08-01 00:41:21.240,-0.115,0.01
2021-08-01 00:41:21.244,-0.115,0.005
2021-08-01 00:41:21.248,-0.15,0.0
2021-08-01 00:41:21.252,-0.16,-0.005
2021-08-01 00:41:21.256,-0.125,0.02
2021-08-01 00:41:21.260,-0.135,-0.015
2021-08-01 00:41:21.264,-0.165,-0.01
2021-08-01 00:41:21.268,-0.145,0.005
2021-08-01 00:41:21.272,-0.16,0.01
2021-08-01 00:41:21.276,-0.195,0.01
2021-08-01 00:41:21.280,-0.175,0.0
2021-08-01 00:41:21.284,-0.17,0.005
2021-08-01 00:41:21.288,-0.17,0.015
2021-08-01 00:41:21.292,-0.16,-0.02
2021-08-01 00:41:21.296,-0.17,-0.03
2021-08-01 00:41:21.300,-0.15,-0.015
2021-08-01 00:41:21.304,-0.155,0.0
2021-08-01 00:41:21.308,-0.18,0.0
2021-08-01 00:41:21.312,-0.185,-0.005
2021-08-01 00:41:21.316,-0.18,0.0
2021-08-01 00:41:21.320,-0.155,0.015
2021-08-01 00:41:21.324,-0.17,0.01
2021-08-01 00:41:21.328,-0.18,-0.015
2021-08-01 00:41:21.332,-0.175,-0.005
2021-08-01 00:41:21.336,-0.18,-0.005
2021-08-01 00:41:21.340,-0.21,0.0
2021-08-01 00:41:21.344,-0.195,-0.025
2021-08-01 00:41:21.348,-0.175,0.005
2021-08-01 00:41:21.352,-0.18,0.02
2021-08-01 00:41:21.356,-0.16,0.01
2021-08-01 00:41:21.360,-0.19,-0.01
2021-08-01 00:41:21.364,-0.195,-0.025
2021-08-01 00:41:21.368,-0.17,0.01
2021-08-01 00:41:21.372,-0.19,0.035
2021-08-01 00:41:21.376,-0.21,0.0
2021-08-01 00:41:21.380,-0.175,-0.005
2021-08-01 00:41:21.384,-0.2,0.0
2021-08-01 00:41:21.388,-0.19,-0.01
2021-08-01 00:41:21.392,-0.185,-0.015
2021-08-01 00:41:21.396,-0.21,-0.02
2021-08-01 00:41:21.400,-0.195,0.0
2021-08-01 00:41:21.404,-0.19,0.01
2021-08-01 00:41:21.408,-0.185,-0.015
2021-08-01 00:41:21.412,-0.18,-0.02
2021-08-01 00:41:21.416,-0.18,-0.01
2021-08-01 00:41:21.420,-0.21,0.015
2021-08-01 00:41:21.424,-0.215,-0.03
2021-08-01 00:41:21.428,-0.21,-0.035
2021-08-01 00:41:21.432,-0.2,-0.02
2021-08-01 00:41:21.436,-0.22,-0.005
2021-08-01 00:41:21.440,-0.215,-0.025
2021-08-01 00:41:21.444,-0.2,-0.045
2021-08-01 00:41:21.448,-0.19,-0.04
2021-08-01 00:41:21.452,-0.205,-0.035
2021-08-01 00:41:21.456,-0.23,-0.04
2021-08-01 00:41:21.460,-0.215,-0.03
2021-08-01 00:41:21.464,-0.21,-0.015
2021-08-01 00:41:21.468,-0.225,-0.01
2021-08-01 00:41:21.472,-0.215,-0.03
2021-08-01 00:41:21.476,-0.235,-0.025
2021-08-01 00:41:21.480,-0.225,-0.01
2021-08-01 00:41:21.484,-0.245,-0.015
2021-08-01 00:41:21.488,-0.25,-0.01
2021-08-01 00:41:21.492,-0.255,-0.005
2021-08-01 00:41:21.496,-0.24,0.0
2021-08-01 00:41:21.500,-0.235,0.025
2021-08-01 00:41:21.504,-0.25,0.065
2021-08-01 00:41:21.508,-0.255,0.11
2021-08-01 00:41:21.512,-0.225,0.175
2021-08-01 00:41:21.516,-0.195,0.265
2021-08-01 00:41:21.520,-0.18,0.25
2021-08-01 00:41:21.524,-0.15,0.11
2021-08-01 00:41:21.528,-0.16,0.06
2021-08-01 00:41:21.532,-0.23,0.31
2021-08-01 00:41:21.536,-0.325,0.615
2021-08-01 00:41:21.540,-0.445,0.565
2021-08-01 00:41:21.544,-0.505,-0.13
2021-08-01 00:41:21.548,-0.56,-0.995
2021-08-01 00:41:21.552,-0.57,-1.3
2021-08-01 00:41:21.556,-0.53,-1.045
2021-08-01 00:41:21.560,-0.43,-0.84
2021-08-01 00:41:21.564,-0.33,-0.945
2021-08-01 00:41:21.568,-0.28,-0.925
2021-08-01 00:41:21.572,-0.205,-0.71
2021-08-01 00:41:21.576,-0.24,-0.445
2021-08-01 00:41:21.580,-0.325,-0.24
2021-08-01 00:41:21.584,-0.46,-0.13
2021-08-01 00:41:21.588,-0.575,-0.11
2021-08-01 00:41:21.592,-0.48,-0.1
2021-08-01 00:41:21.596,-0.315,-0.08
2021-08-01 00:41:21.600,-0.27,-0.075
2021-08-01 00:41:21.604,-0.22,-0.075
2021-08-01 00:41:21.608,-0.25,-0.075
2021-08-01 00:41:21.612,-0.235,-0.055
2021-08-01 00:41:21.616,-0.25,-0.055
2021-08-01 00:41:21.620,-0.24,-0.06
2021-08-01 00:41:21.624,-0.225,-0.075
2021-08-01 00:41:21.628,-0.255,-0.05
2021-08-01 00:41:21.632,-0.25,-0.06
2021-08-01 00:41:21.636,-0.23,-0.05
2021-08-01 00:41:21.640,-0.25,-0.045
2021-08-01 00:41:21.644,-0.215,-0.035
2021-08-01 00:41:21.648,-0.22,-0.035
2021-08-01 00:41:21.652,-0.22,-0.04
2021-08-01 00:41:21.656,-0.225,-0.02
2021-08-01 00:41:21.660,-0.2,-0.005
2021-08-01 00:41:21.664,-0.215,0.0
2021-08-01 00:41:21.668,-0.225,-0.015
2021-08-01 00:41:21.672,-0.21,-0.015
2021-08-01 00:41:21.676,-0.23,0.005
2021-08-01 00:41:21.680,-0.22,0.025
2021-08-01 00:41:21.684,-0.21,0.03
2021-08-01 00:41:21.688,-0.205,0.025
2021-08-01 00:41:21.692,-0.195,0.04
2021-08-01 00:41:21.696,-0.19,0.045
2021-08-01 00:41:21.700,-0.22,0.045
2021-08-01 00:41:21.704,-0.215,0.05
2021-08-01 00:41:21.708,-0.225,0.07
2021-08-01 00:41:21.712,-0.215,0.045
2021-08-01 00:41:21.716,-0.215,0.0
2021-08-01 00:41:21.720,-0.21,-0.01
2021-08-01 00:41:21.724,-0.22,-0.03
2021-08-01 00:41:21.728,-0.245,-0.015
2021-08-01 00:41:21.732,-0.27,-0.035
2021-08-01 00:41:21.736,-0.29,-0.055
2021-08-01 00:41:21.740,-0.31,-0.045
2021-08-01 00:41:21.744,-0.315,-0.005
2021-08-01 00:41:21.748,-0.335,0.035
2021-08-01 00:41:21.752,-0.37,0.09
2021-08-01 00:41:21.756,-0.37,0.19
2021-08-01 00:41:21.760,-0.365,0.26
2021-08-01 00:41:21.764,-0.35,0.255
2021-08-01 00:41:21.768,-0.275,0.275
2021-08-01 00:41:21.772,-0.22,0.33
2021-08-01 00:41:21.776,-0.27,0.375
2021-08-01 00:41:21.780,-0.305,0.39
2021-08-01 00:41:21.784,-0.295,0.415
2021-08-01 00:41:21.788,-0.295,0.45
2021-08-01 00:41:21.792,-0.315,0.47
2021-08-01 00:41:21.796,-0.3,0.47
2021-08-01 00:41:21.800,-0.305,0.435
2021-08-01 00:41:21.804,-0.295,0.455
2021-08-01 00:41:21.808,-0.315,0.43
2021-08-01 00:41:21.812,-0.295,0.4
2021-08-01 00:41:21.816,-0.285,0.36
2021-08-01 00:41:21.820,-0.28,0.34
2021-08-01 00:41:21.824,-0.26,0.315
2021-08-01 00:41:21.828,-0.255,0.27
2021-08-01 00:41:21.832,-0.26,0.245
2021-08-01 00:41:21.836,-0.23,0.2
2021-08-01 00:41:21.840,-0.2,0.19
2021-08-01 00:41:21.844,-0.225,0.17
2021-08-01 00:41:21.848,-0.21,0.145
2021-08-01 00:41:21.852,-0.2,0.115
2021-08-01 00:41:21.856,-0.18,0.11
2021-08-01 00:41:21.860,-0.205,0.12
2021-08-01 00:41:21.864,-0.215,0.095
2021-08-01 00:41:21.868,-0.185,0.07
2021-08-01 00:41:21.872,-0.2,0.085
2021-08-01 00:41:21.876,-0.17,0.09
2021-08-01 00:41:21.880,-0.19,0.06
2021-08-01 00:41:21.884,-0.17,0.06
2021-08-01 00:41:21.888,-0.16,0.06
2021-08-01 00:41:21.892,-0.16,0.085
2021-08-01 00:41:21.896,-0.175,0.055
2021-08-01 00:41:21.900,-0.17,0.055
2021-08-01 00:41:21.904,-0.155,0.075
2021-08-01 00:41:21.908,-0.16,0.05
2021-08-01 00:41:21.912,-0.135,0.055
2021-08-01 00:41:21.916,-0.12,0.06
2021-08-01 00:41:21.920,-0.12,0.05
2021-08-01 00:41:21.924,-0.135,0.07
2021-08-01 00:41:21.928,-0.16,0.04
2021-08-01 00:41:21.932,-0.155,0.015
2021-08-01 00:41:21.936,-0.14,0.065
2021-08-01 00:41:21.940,-0.14,0.06
2021-08-01 00:41:21.944,-0.12,0.045
2021-08-01 00:41:21.948,-0.12,0.035
2021-08-01 00:41:21.952,-0.115,0.02
2021-08-01 00:41:21.956,-0.105,0.045
2021-08-01 00:41:21.960,-0.125,0.02
2021-08-01 00:41:21.964,-0.14,0.005
2021-08-01 00:41:21.968,-0.115,0.015
2021-08-01 00:41:21.972,-0.13,0.01
2021-08-01 00:41:21.976,-0.115,0.0
2021-08-01 00:41:21.980,-0.12,-0.025
2021-08-01 00:41:21.984,-0.14,-0.005
2021-08-01 00:41:21.988,-0.115,0.005
2021-08-01 00:41:21.992,-0.1,-0.01
2021-08-01 00:41:21.996,-0.115,-0.02
2021-08-01 00:41:22.000,-0.12,-0.02
2021-08-01 00:41:22.004,-0.12,0.0
2021-08-01 00:41:22.008,-0.11,-0.005
2021-08-01 00:41:22.012,-0.13,-0.025
2021-08-01 00:41:22.016,-0.135,-0.005
2021-08-01 00:41:22.020,-0.125,-0.015
2021-08-01 00:41:22.024,-0.145,-0.03
2021-08-01 00:41:22.028,-0.125,-0.03
2021-08-01 00:41:22.032,-0.11,-0.025
2021-08-01 00:41:22.036,-0.145,0.0
2021-08-01 00:41:22.040,-0.135,-0.045
2021-08-01 00:41:22.044,-0.135,-0.03
2021-08-01 00:41:22.048,-0.135,-0.03
2021-08-01 00:41:22.052,-0.15,-0.005
2021-08-01 00:41:22.056,-0.14,-0.01
2021-08-01 00:41:22.060,-0.13,-0.03
2021-08-01 00:41:22.064,-0.17,-0.025
2021-08-01 00:41:22.068,-0.165,0.0
2021-08-01 00:41:22.072,-0.16,-0.015
2021-08-01 00:41:22.076,-0.135,-0.03
2021-08-01 00:41:22.080,-0.135,-0.01
2021-08-01 00:41:22.084,-0.145,0.005
2021-08-01 00:41:22.088,-0.16,-0.025
2021-08-01 00:41:22.092,-0.17,-0.02
2021-08-01 00:41:22.096,-0.125,-0.025
2021-08-01 00:41:22.100,-0.16,0.0
2021-08-01 00:41:22.104,-0.16,-0.01
2021-08-01 00:41:22.108,-0.17,-0.02
2021-08-01 00:41:22.112,-0.15,-0.02
2021-08-01 00:41:22.116,-0.15,-0.015
2021-08-01 00:41:22.120,-0.16,-0.025
2021-08-01 00:41:22.124,-0.14,-0.025
2021-08-01 00:41:22.128,-0.155,-0.015
2021-08-01 00:41:22.132,-0.18,-0.005
2021-08-01 00:41:22.136,-0.16,-0.01
2021-08-01 00:41:22.140,-0.16,0.0
2021-08-01 00:41:22.144,-0.16,0.03
2021-08-01 00:41:22.148,-0.16,0.0
2021-08-01 00:41:22.152,-0.16,-0.005
2021-08-01 00:41:22.156,-0.14,-0.02
2021-08-01 00:41:22.160,-0.14,0.0
2021-08-01 00:41:22.164,-0.185,-0.005
2021-08-01 00:41:22.168,-0.175,0.0
2021-08-01 00:41:22.172,-0.155,-0.015
2021-08-01 00:41:22.176,-0.16,-0.015
2021-08-01 00:41:22.180,-0.15,0.0
2021-08-01 00:41:22.184,-0.155,-0.005
2021-08-01 00:41:22.188,-0.17,-0.01
2021-08-01 00:41:22.192,-0.155,-0.02
2021-08-01 00:41:22.196,-0.165,-0.01
2021-08-01 00:41:22.200,-0.16,-0.015
2021-08-01 00:41:22.204,-0.16,-0.005
2021-08-01 00:41:22.208,-0.175,-0.02
2021-08-01 00:41:22.212,-0.175,-0.015
2021-08-01 00:41:22.216,-0.135,-0.035
2021-08-01 00:41:22.220,-0.16,-0.03
2021-08-01 00:41:22.224,-0.16,-0.02
2021-08-01 00:41:22.228,-0.14,-0.01
2021-08-01 00:41:22.232,-0.18,-0.005
2021-08-01 00:41:22.236,-0.165,-0.01
2021-08-01 00:41:22.240,-0.185,-0.02
2021-08-01 00:41:22.244,-0.185,-0.01
2021-08-01 00:41:22.248,-0.16,0.0
2021-08-01 00:41:22.252,-0.19,-0.015
2021-08-01 00:41:22.256,-0.16,-0.035
2021-08-01 00:41:22.260,-0.15,-0.01
2021-08-01 00:41:22.264,-0.145,-0.01
2021-08-01 00:41:22.268,-0.14,-0.005
2021-08-01 00:41:22.272,-0.175,-0.015
2021-08-01 00:41:22.276,-0.18,-0.01
2021-08-01 00:41:22.280,-0.19,0.0
2021-08-01 00:41:22.284,-0.18,-0.02
2021-08-01 00:41:22.288,-0.16,-0.03
2021-08-01 00:41:22.292,-0.16,0.0
2021-08-01 00:41:22.296,-0.155,0.005
2021-08-01 00:41:22.300,-0.14,-0.01
2021-08-01 00:41:22.304,-0.165,-0.005
2021-08-01 00:41:22.308,-0.18,0.0
2021-08-01 00:41:22.312,-0.16,0.01
2021-08-01 00:41:22.316,-0.16,0.0
2021-08-01 00:41:22.320,-0.155,-0.015
2021-08-01 00:41:22.324,-0.16,0.01
2021-08-01 00:41:22.328,-0.165,0.03
2021-08-01 00:41:22.332,-0.16,0.01
2021-08-01 00:41:22.336,-0.175,0.0
2021-08-01 00:41:22.340,-0.155,0.01
2021-08-01 00:41:22.344,-0.16,0.005
2021-08-01 00:41:22.348,-0.18,0.0
2021-08-01 00:41:22.352,-0.15,0.0
2021-08-01 00:41:22.356,-0.15,0.02
2021-08-01 00:41:22.360,-0.16,0.02
2021-08-01 00:41:22.364,-0.17,0.01
2021-08-01 00:41:22.368,-0.15,0.0
2021-08-01 00:41:22.372,-0.17,0.015
2021-08-01 00:41:22.376,-0.155,0.045
2021-08-01 00:41:22.380,-0.165,0.03
2021-08-01 00:41:22.384,-0.16,-0.005
2021-08-01 00:41:22.388,-0.15,0.01
2021-08-01 00:41:22.392,-0.145,0.01
2021-08-01 00:41:22.396,-0.135,0.0
2021-08-01 00:41:22.400,-0.145,0.0
2021-08-01 00:41:22.404,-0.15,0.01
2021-08-01 00:41:22.408,-0.125,0.025
2021-08-01 00:41:22.412,-0.155,0.0
2021-08-01 00:41:22.416,-0.14,-0.005
2021-08-01 00:41:22.420,-0.13,0.005
2021-08-01 00:41:22.424,-0.145,-0.02
2021-08-01 00:41:22.428,-0.155,-0.01
2021-08-01 00:41:22.432,-0.14,-0.025
2021-08-01 00:41:22.436,-0.14,0.01
2021-08-01 00:41:22.440,-0.145,0.01
2021-08-01 00:41:22.444,-0.16,0.005
2021-08-01 00:41:22.448,-0.135,-0.025
2021-08-01 00:41:22.452,-0.11,0.0
2021-08-01 00:41:22.456,-0.115,0.0
2021-08-01 00:41:22.460,-0.14,-0.005
2021-08-01 00:41:22.464,-0.13,-0.02
2021-08-01 00:41:22.468,-0.12,-0.02
2021-08-01 00:41:22.472,-0.14,0.0
2021-08-01 00:41:22.476,-0.16,-0.01
2021-08-01 00:41:22.480,-0.135,-0.01
2021-08-01 00:41:22.484,-0.14,0.0
2021-08-01 00:41:22.488,-0.13,0.0
2021-08-01 00:41:22.492,-0.145,-0.005
2021-08-01 00:41:22.496,-0.15,-0.04
2021-08-01 00:41:22.500,-0.15,-0.025
2021-08-01 00:41:22.504,-0.16,-0.01
2021-08-01 00:41:22.508,-0.17,-0.02
2021-08-01 00:41:22.512,-0.145,-0.025
2021-08-01 00:41:22.516,-0.16,0.0
2021-08-01 00:41:22.520,-0.15,-0.02
2021-08-01 00:41:22.524,-0.14,-0.02
2021-08-01 00:41:22.528,-0.135,-0.02
2021-08-01 00:41:22.532,-0.145,-0.015
2021-08-01 00:41:22.536,-0.16,-0.02
2021-08-01 00:41:22.540,-0.14,-0.04
2021-08-01 00:41:22.544,-0.15,-0.02
2021-08-01 00:41:22.548,-0.13,-0.02
2021-08-01 00:41:22.552,-0.17,-0.015
2021-08-01 00:41:22.556,-0.155,-0.025
2021-08-01 00:41:22.560,-0.14,-0.03
2021-08-01 00:41:22.564,-0.16,-0.025
2021-08-01 00:41:22.568,-0.16,-0.04
2021-08-01 00:41:22.572,-0.15,-0.03
2021-08-01 00:41:22.576,-0.135,-0.015
2021-08-01 00:41:22.580,-0.175,-0.005
2021-08-01 00:41:22.584,-0.145,-0.02
2021-08-01 00:41:22.588,-0.15,-0.055
2021-08-01 00:41:22.592,-0.145,-0.055
2021-08-01 00:41:22.596,-0.15,-0.04
2021-08-01 00:41:22.600,-0.145,-0.045
2021-08-01 00:41:22.604,-0.135,-0.045
2021-08-01 00:41:22.608,-0.15,-0.055
2021-08-01 00:41:22.612,-0.15,-0.03
2021-08-01 00:41:22.616,-0.16,-0.01
2021-08-01 00:41:22.620,-0.13,-0.04
2021-08-01 00:41:22.624,-0.125,-0.035
2021-08-01 00:41:22.628,-0.11,0.0
2021-08-01 00:41:22.632,-0.135,-0.025
2021-08-01 00:41:22.636,-0.125,-0.04
2021-08-01 00:41:22.640,-0.125,-0.02
2021-08-01 00:41:22.644,-0.145,-0.015
2021-08-01 00:41:22.648,-0.155,0.01
2021-08-01 00:41:22.652,-0.16,-0.015
2021-08-01 00:41:22.656,-0.13,-0.015
2021-08-01 00:41:22.660,-0.135,-0.01
2021-08-01 00:41:22.664,-0.14,-0.025
2021-08-01 00:41:22.668,-0.13,-0.025
2021-08-01 00:41:22.672,-0.16,-0.03
2021-08-01 00:41:22.676,-0.14,-0.015
2021-08-01 00:41:22.680,-0.135,-0.01
2021-08-01 00:41:22.684,-0.165,-0.025
2021-08-01 00:41:22.688,-0.15,-0.035
2021-08-01 00:41:22.692,-0.145,-0.005
2021-08-01 00:41:22.696,-0.155,0.0
2021-08-01 00:41:22.700,-0.155,-0.01
2021-08-01 00:41:22.704,-0.135,-0.04
2021-08-01 00:41:22.708,-0.14,-0.02
2021-08-01 00:41:22.712,-0.15,-0.02
2021-08-01 00:41:22.716,-0.145,-0.04
2021-08-01 00:41:22.720,-0.16,-0.035
2021-08-01 00:41:22.724,-0.165,-0.025
2021-08-01 00:41:22.728,-0.155,-0.01
2021-08-01 00:41:22.732,-0.14,-0.03
2021-08-01 00:41:22.736,-0.14,-0.025
2021-08-01 00:41:22.740,-0.14,-0.02
2021-08-01 00:41:22.744,-0.12,-0.02
2021-08-01 00:41:22.748,-0.16,-0.03
2021-08-01 00:41:22.752,-0.155,-0.025
2021-08-01 00:41:22.756,-0.155,-0.005
2021-08-01 00:41:22.760,-0.165,0.0
2021-08-01 00:41:22.764,-0.17,-0.04
2021-08-01 00:41:22.768,-0.19,-0.025
2021-08-01 00:41:22.772,-0.165,0.0
2021-08-01 00:41:22.776,-0.145,-0.005
2021-08-01 00:41:22.780,-0.135,-0.01
2021-08-01 00:41:22.784,-0.16,-0.025
2021-08-01 00:41:22.788,-0.145,0.015
2021-08-01 00:41:22.792,-0.14,0.005
2021-08-01 00:41:22.796,-0.13,-0.025
2021-08-01 00:41:22.800,-0.16,-0.025
2021-08-01 00:41:22.804,-0.14,0.0
2021-08-01 00:41:22.808,-0.14,0.025
2021-08-01 00:41:22.812,-0.135,0.0
2021-08-01 00:41:22.816,-0.145,0.02
2021-08-01 00:41:22.820,-0.14,0.03
2021-08-01 00:41:22.824,-0.17,0.05
2021-08-01 00:41:22.828,-0.145,0.05
2021-08-01 00:41:22.832,-0.15,0.05
2021-08-01 00:41:22.836,-0.145,0.09
2021-08-01 00:41:22.840,-0.105,0.105
2021-08-01 00:41:22.844,-0.125,0.12
2021-08-01 00:41:22.848,-0.135,0.17
2021-08-01 00:41:22.852,-0.13,0.205
2021-08-01 00:41:22.856,-0.115,0.295
2021-08-01 00:41:22.860,-0.06,0.35
2021-08-01 00:41:22.864,-0.035,0.295
2021-08-01 00:41:22.868,-0.03,0.195
2021-08-01 00:41:22.872,-0.05,0.315
2021-08-01 00:41:22.876,-0.13,0.6
2021-08-01 00:41:22.880,-0.225,0.945
2021-08-01 00:41:22.884,-0.3,0.82
2021-08-01 00:41:22.888,-0.345,0.08
2021-08-01 00:41:22.892,-0.35,-0.66
2021-08-01 00:41:22.896,-0.28,-0.85
2021-08-01 00:41:22.900,-0.175,-0.655
2021-08-01 00:41:22.904,-0.15,-0.66
2021-08-01 00:41:22.908,-0.21,-0.795
2021-08-01 00:41:22.912,-0.245,-0.655
2021-08-01 00:41:22.916,-0.29,-0.37
2021-08-01 00:41:22.920,-0.3,-0.125
2021-08-01 00:41:22.924,-0.37,-0.025
2021-08-01 00:41:22.928,-0.435,-0.035
2021-08-01 00:41:22.932,-0.34,-0.03
2021-08-01 00:41:22.936,-0.175,-0.01
2021-08-01 00:41:22.940,-0.1,-0.005
2021-08-01 00:41:22.944,-0.085,-0.025
2021-08-01 00:41:22.948,-0.06,-0.04
2021-08-01 00:41:22.952,-0.08,-0.015
2021-08-01 00:41:22.956,-0.08,-0.025
2021-08-01 00:41:22.960,-0.08,-0.005
2021-08-01 00:41:22.964,-0.09,0.105
2021-08-01 00:41:22.968,-0.105,0.51
2021-08-01 00:41:22.972,-0.105,0.485
2021-08-01 00:41:22.976,-0.095,0.215
2021-08-01 00:41:22.980,-0.06,0.03
2021-08-01 00:41:22.984,-0.06,-0.055
2021-08-01 00:41:22.988,-0.075,-0.14
2021-08-01 00:41:22.992,-0.065,-0.225
2021-08-01 00:41:22.996,-0.065,-0.295
2021-08-01 00:41:23.000,-0.06,-0.32
2021-08-01 00:41:23.004,-0.05,-0.39
2021-08-01 00:41:23.008,-0.05,-0.425
2021-08-01 00:41:23.012,-0.04,-0.46
2021-08-01 00:41:23.016,-0.05,-0.485
2021-08-01 00:41:23.020,-0.06,-0.52
2021-08-01 00:41:23.024,-0.065,-0.575
2021-08-01 00:41:23.028,-0.08,-0.605
2021-08-01 00:41:23.032,-0.05,-0.6
2021-08-01 00:41:23.036,-0.06,-0.65
2021-08-01 00:41:23.040,-0.08,-0.7
2021-08-01 00:41:23.044,-0.1,-0.735
2021-08-01 00:41:23.048,-0.1,-0.74
2021-08-01 00:41:23.052,-0.105,-0.815
2021-08-01 00:41:23.056,-0.135,-0.84
2021-08-01 00:41:23.060,-0.13,-0.895
2021-08-01 00:41:23.064,-0.155,-0.895
2021-08-01 00:41:23.068,-0.16,-0.89
2021-08-01 00:41:23.072,-0.185,-0.91
2021-08-01 00:41:23.076,-0.22,-0.905
2021-08-01 00:41:23.080,-0.21,-0.86
2021-08-01 00:41:23.084,-0.23,-0.805
2021-08-01 00:41:23.088,-0.22,-0.755
2021-08-01 00:41:23.092,-0.17,-0.77
2021-08-01 00:41:23.096,-0.13,-0.75
2021-08-01 00:41:23.100,-0.12,-0.71
2021-08-01 00:41:23.104,-0.175,-0.715
2021-08-01 00:41:23.108,-0.16,-0.74
2021-08-01 00:41:23.112,-0.135,-0.715
2021-08-01 00:41:23.116,-0.16,-0.645
2021-08-01 00:41:23.120,-0.16,-0.645
2021-08-01 00:41:23.124,-0.18,-0.635
2021-08-01 00:41:23.128,-0.165,-0.58
2021-08-01 00:41:23.132,-0.18,-0.565
2021-08-01 00:41:23.136,-0.19,-0.57
2021-08-01 00:41:23.140,-0.21,-0.545
2021-08-01 00:41:23.144,-0.2,-0.545
2021-08-01 00:41:23.148,-0.2,-0.545
2021-08-01 00:41:23.152,-0.22,-0.58
2021-08-01 00:41:23.156,-0.21,-0.62
2021-08-01 00:41:23.160,-0.18,-0.63
2021-08-01 00:41:23.164,-0.16,-0.64
2021-08-01 00:41:23.168,-0.165,-0.695
2021-08-01 00:41:23.172,-0.135,-0.735
2021-08-01 00:41:23.176,-0.14,-0.795
2021-08-01 00:41:23.180,-0.13,-0.82
2021-08-01 00:41:23.184,-0.12,-0.83
2021-08-01 00:41:23.188,-0.135,-0.88
2021-08-01 00:41:23.192,-0.12,-0.92
2021-08-01 00:41:23.196,-0.12,-0.93
2021-08-01 00:41:23.200,-0.135,-0.94
2021-08-01 00:41:23.204,-0.155,-0.96
2021-08-01 00:41:23.208,-0.155,-0.985
2021-08-01 00:41:23.212,-0.135,-0.96
2021-08-01 00:41:23.216,-0.11,-0.975
2021-08-01 00:41:23.220,-0.135,-1.01
2021-08-01 00:41:23.224,-0.13,-1.025
2021-08-01 00:41:23.228,-0.11,-1.02
2021-08-01 00:41:23.232,-0.12,-1.015
2021-08-01 00:41:23.236,-0.095,-1.025
2021-08-01 00:41:23.240,-0.13,-1.03
2021-08-01 00:41:23.244,-0.12,-1.04
2021-08-01 00:41:23.248,-0.145,-1.03
2021-08-01 00:41:23.252,-0.09,-1.06
2021-08-01 00:41:23.256,-0.095,-1.065
2021-08-01 00:41:23.260,-0.105,-1.045
2021-08-01 00:41:23.264,-0.09,-1.055
2021-08-01 00:41:23.268,-0.08,-1.08
2021-08-01 00:41:23.272,-0.1,-1.085
2021-08-01 00:41:23.276,-0.105,-1.085
2021-08-01 00:41:23.280,-0.095,-1.075
2021-08-01 00:41:23.284,-0.11,-1.08
2021-08-01 00:41:23.288,-0.12,-1.1
2021-08-01 00:41:23.292,-0.12,-1.09
2021-08-01 00:41:23.296,-0.1,-1.095
2021-08-01 00:41:23.300,-0.115,-1.105
2021-08-01 00:41:23.304,-0.115,-1.14
2021-08-01 00:41:23.308,-0.1,-1.15
2021-08-01 00:41:23.312,-0.1,-1.12
2021-08-01 00:41:23.316,-0.11,-1.165
2021-08-01 00:41:23.320,-0.115,-1.175
2021-08-01 00:41:23.324,-0.095,-1.175
2021-08-01 00:41:23.328,-0.1,-1.18
2021-08-01 00:41:23.332,-0.11,-1.16
2021-08-01 00:41:23.336,-0.115,-1.195
2021-08-01 00:41:23.340,-0.1,-1.185
2021-08-01 00:41:23.344,-0.115,-1.185
2021-08-01 00:41:23.348,-0.105,-1.195
2021-08-01 00:41:23.352,-0.115,-1.2
2021-08-01 00:41:23.356,-0.11,-1.225
2021-08-01 00:41:23.360,-0.1,-1.215
2021-08-01 00:41:23.364,-0.1,-1.215
2021-08-01 00:41:23.368,-0.115,-1.21
2021-08-01 00:41:23.372,-0.11,-1.21
2021-08-01 00:41:23.376,-0.125,-1.21
2021-08-01 00:41:23.380,-0.13,-1.2
2021-08-01 00:41:23.384,-0.15,-1.235
2021-08-01 00:41:23.388,-0.15,-1.24
2021-08-01 00:41:23.392,-0.135,-1.22
2021-08-01 00:41:23.396,-0.13,-1.225
2021-08-01 00:41:23.400,-0.12,-1.225
2021-08-01 00:41:23.404,-0.13,-1.255
2021-08-01 00:41:23.408,-0.135,-1.23
2021-08-01 00:41:23.412,-0.165,-1.245
2021-08-01 00:41:23.416,-0.145,-1.25
2021-08-01 00:41:23.420,-0.14,-1.235
2021-08-01 00:41:23.424,-0.15,-1.25
2021-08-01 00:41:23.428,-0.15,-1.23
2021-08-01 00:41:23.432,-0.16,-1.245
2021-08-01 00:41:23.436,-0.185,-1.265
2021-08-01 00:41:23.440,-0.18,-1.26
2021-08-01 00:41:23.444,-0.175,-1.25
2021-08-01 00:41:23.448,-0.165,-1.265
2021-08-01 00:41:23.452,-0.195,-1.265
2021-08-01 00:41:23.456,-0.175,-1.275
2021-08-01 00:41:23.460,-0.195,-1.245
2021-08-01 00:41:23.464,-0.225,-1.24
2021-08-01 00:41:23.468,-0.215,-1.27
2021-08-01 00:41:23.472,-0.19,-1.26
2021-08-01 00:41:23.476,-0.225,-1.26
2021-08-01 00:41:23.480,-0.225,-1.265
2021-08-01 00:41:23.484,-0.23,-1.29
2021-08-01 00:41:23.488,-0.235,-1.28
2021-08-01 00:41:23.492,-0.215,-1.27
2021-08-01 00:41:23.496,-0.25,-1.26
2021-08-01 00:41:23.500,-0.27,-1.305
2021-08-01 00:41:23.504,-0.245,-1.28
2021-08-01 00:41:23.508,-0.245,-1.28
2021-08-01 00:41:23.512,-0.255,-1.27
2021-08-01 00:41:23.516,-0.23,-1.29
2021-08-01 00:41:23.520,-0.24,-1.295
2021-08-01 00:41:23.524,-0.255,-1.28
2021-08-01 00:41:23.528,-0.26,-1.295
2021-08-01 00:41:23.532,-0.245,-1.315
2021-08-01 00:41:23.536,-0.24,-1.295
2021-08-01 00:41:23.540,-0.255,-1.285
2021-08-01 00:41:23.544,-0.24,-1.29
2021-08-01 00:41:23.548,-0.26,-1.28
2021-08-01 00:41:23.552,-0.3,-1.31
2021-08-01 00:41:23.556,-0.275,-1.31
2021-08-01 00:41:23.560,-0.27,-1.275
2021-08-01 00:41:23.564,-0.27,-1.29
2021-08-01 00:41:23.568,-0.275,-1.305
2021-08-01 00:41:23.572,-0.255,-1.3
2021-08-01 00:41:23.576,-0.275,-1.295
2021-08-01 00:41:23.580,-0.3,-1.305
2021-08-01 00:41:23.584,-0.305,-1.305
2021-08-01 00:41:23.588,-0.275,-1.29
2021-08-01 00:41:23.592,-0.285,-1.29
2021-08-01 00:41:23.596,-0.275,-1.295
2021-08-01 00:41:23.600,-0.28,-1.305
2021-08-01 00:41:23.604,-0.28,-1.285
2021-08-01 00:41:23.608,-0.3,-1.3
2021-08-01 00:41:23.612,-0.29,-1.295
2021-08-01 00:41:23.616,-0.3,-1.29
2021-08-01 00:41:23.620,-0.275,-1.265
2021-08-01 00:41:23.624,-0.28,-1.29
2021-08-01 00:41:23.628,-0.28,-1.29
2021-08-01 00:41:23.632,-0.275,-1.285
2021-08-01 00:41:23.636,-0.29,-1.29
2021-08-01 00:41:23.640,-0.26,-1.31
2021-08-01 00:41:23.644,-0.29,-1.305
2021-08-01 00:41:23.648,-0.27,-1.3
2021-08-01 00:41:23.652,-0.275,-1.3
2021-08-01 00:41:23.656,-0.265,-1.3
2021-08-01 00:41:23.660,-0.29,-1.305
2021-08-01 00:41:23.664,-0.29,-1.31
2021-08-01 00:41:23.668,-0.29,-1.305
2021-08-01 00:41:23.672,-0.27,-1.295
2021-08-01 00:41:23.676,-0.265,-1.3
2021-08-01 00:41:23.680,-0.285,-1.33
2021-08-01 00:41:23.684,-0.275,-1.295
2021-08-01 00:41:23.688,-0.275,-1.31
2021-08-01 00:41:23.692,-0.275,-1.29
2021-08-01 00:41:23.696,-0.27,-1.305
2021-08-01 00:41:23.700,-0.26,-1.315
2021-08-01 00:41:23.704,-0.29,-1.31
2021-08-01 00:41:23.708,-0.275,-1.315
2021-08-01 00:41:23.712,-0.285,-1.305
2021-08-01 00:41:23.716,-0.275,-1.315
2021-08-01 00:41:23.720,-0.26,-1.305
2021-08-01 00:41:23.724,-0.265,-1.275
2021-08-01 00:41:23.728,-0.265,-1.305
2021-08-01 00:41:23.732,-0.265,-1.315
2021-08-01 00:41:23.736,-0.265,-1.295
2021-08-01 00:41:23.740,-0.275,-1.305
2021-08-01 00:41:23.744,-0.265,-1.29
2021-08-01 00:41:23.748,-0.28,-1.295
2021-08-01 00:41:23.752,-0.285,-1.295
2021-08-01 00:41:23.756,-0.265,-1.28
2021-08-01 00:41:23.760,-0.27,-1.285
2021-08-01 00:41:23.764,-0.28,-1.295
2021-08-01 00:41:23.768,-0.285,-1.275
2021-08-01 00:41:23.772,-0.275,-1.24
2021-08-01 00:41:23.776,-0.255,-1.225
2021-08-01 00:41:23.780,-0.265,-1.2
2021-08-01 00:41:23.784,-0.24,-1.19
2021-08-01 00:41:23.788,-0.22,-1.185
2021-08-01 00:41:23.792,-0.21,-1.165
2021-08-01 00:41:23.796,-0.195,-1.2
2021-08-01 00:41:23.800,-0.175,-1.205
2021-08-01 00:41:23.804,-0.16,-1.215
2021-08-01 00:41:23.808,-0.18,-1.22
2021-08-01 00:41:23.812,-0.2,-1.21
2021-08-01 00:41:23.816,-0.185,-1.18
2021-08-01 00:41:23.820,-0.205,-1.185
2021-08-01 00:41:23.824,-0.185,-1.185
2021-08-01 00:41:23.828,-0.175,-1.215
2021-08-01 00:41:23.832,-0.185,-1.25
2021-08-01 00:41:23.836,-0.145,-1.235
2021-08-01 00:41:23.840,-0.125,-1.235
2021-08-01 00:41:23.844,-0.15,-1.225
2021-08-01 00:41:23.848,-0.125,-1.25
2021-08-01 00:41:23.852,-0.08,-1.275
2021-08-01 00:41:23.856,-0.02,-1.3
2021-08-01 00:41:23.860,-0.07,-1.315
2021-08-01 00:41:23.864,-0.1,-1.32
2021-08-01 00:41:23.868,-0.14,-1.355
2021-08-01 00:41:23.872,-0.18,-1.375
2021-08-01 00:41:23.876,-0.22,-1.37
2021-08-01 00:41:23.880,-0.26,-1.37
2021-08-01 00:41:23.884,-0.28,-1.385
2021-08-01 00:41:23.888,-0.255,-1.37
2021-08-01 00:41:23.892,-0.305,-1.38
2021-08-01 00:41:23.896,-0.295,-1.39
2021-08-01 00:41:23.900,-0.31,-1.38
2021-08-01 00:41:23.904,-0.295,-1.38
2021-08-01 00:41:23.908,-0.28,-1.37
2021-08-01 00:41:23.912,-0.3,-1.385
2021-08-01 00:41:23.916,-0.305,-1.385
2021-08-01 00:41:23.920,-0.325,-1.385
2021-08-01 00:41:23.924,-0.28,-1.36
2021-08-01 00:41:23.928,-0.31,-1.37
2021-08-01 00:41:23.932,-0.295,-1.36
2021-08-01 00:41:23.936,-0.31,-1.345
2021-08-01 00:41:23.940,-0.295,-1.34
2021-08-01 00:41:23.944,-0.275,-1.355
2021-08-01 00:41:23.948,-0.29,-1.34
2021-08-01 00:41:23.952,-0.275,-1.315
2021-08-01 00:41:23.956,-0.265,-1.245
2021-08-01 00:41:23.960,-0.29,-1.185
2021-08-01 00:41:23.964,-0.265,-1.05
2021-08-01 00:41:23.968,-0.23,-0.885
2021-08-01 00:41:23.972,-0.135,-0.53
2021-08-01 00:41:23.976,-0.165,-0.265
2021-08-01 00:41:23.980,-0.335,-0.04
2021-08-01 00:41:23.984,-0.64,0.095
2021-08-01 00:41:23.988,-1.16,0.295
2021-08-01 00:41:23.992,-1.82,0.55
2021-08-01 00:41:24.040,-1.97,0.505
2021-08-01 00:41:24.044,-1.79,0.32
2021-08-01 00:41:24.048,-1.65,-0.16
2021-08-01 00:41:24.052,-1.525,-0.73
2021-08-01 00:41:24.056,-1.435,-1.165
2021-08-01 00:41:24.060,-1.32,-1.5
2021-08-01 00:41:24.064,-1.175,-1.655
2021-08-01 00:41:24.068,-0.995,-1.665
2021-08-01 00:41:24.072,-0.81,-1.63
2021-08-01 00:41:24.076,-0.59,-1.605
2021-08-01 00:41:24.080,-0.4,-1.565
2021-08-01 00:41:24.084,-0.22,-1.565
2021-08-01 00:41:24.088,-0.015,-1.55
2021-08-01 00:41:24.092,0.1,-1.56
2021-08-01 00:41:24.096,0.205,-1.56
2021-08-01 00:41:24.100,0.26,-1.555
2021-08-01 00:41:24.104,0.31,-1.56
2021-08-01 00:41:24.108,0.32,-1.565
2021-08-01 00:41:24.112,0.32,-1.565
2021-08-01 00:41:24.116,0.345,-1.555
2021-08-01 00:41:24.120,0.375,-1.57
2021-08-01 00:41:24.124,0.405,-1.575
2021-08-01 00:41:24.128,0.43,-1.58
2021-08-01 00:41:24.132,0.42,-1.575
2021-08-01 00:41:24.136,0.425,-1.585
2021-08-01 00:41:24.140,0.43,-1.59
2021-08-01 00:41:24.144,0.46,-1.585
2021-08-01 00:41:24.148,0.48,-1.57
2021-08-01 00:41:24.152,0.475,-1.585
2021-08-01 00:41:24.156,0.505,-1.6
2021-08-01 00:41:24.160,0.5,-1.565
2021-08-01 00:41:24.164,0.5,-1.58
2021-08-01 00:41:24.168,0.525,-1.585
2021-08-01 00:41:24.172,0.545,-1.57
2021-08-01 00:41:24.176,0.55,-1.585
2021-08-01 00:41:24.180,0.555,-1.575
2021-08-01 00:41:24.184,0.59,-1.58
2021-08-01 00:41:24.188,0.62,-1.565
2021-08-01 00:41:24.192,0.635,-1.605
2021-08-01 00:41:24.196,0.66,-1.61
2021-08-01 00:41:24.200,0.67,-1.625
2021-08-01 00:41:24.204,0.715,-1.625
2021-08-01 00:41:24.208,0.72,-1.64
2021-08-01 00:41:24.212,0.715,-1.66
2021-08-01 00:41:24.216,0.785,-1.68
2021-08-01 00:41:24.220,0.805,-1.69
2021-08-01 00:41:24.224,0.83,-1.705
2021-08-01 00:41:24.228,0.83,-1.735
2021-08-01 00:41:24.232,0.885,-1.73
2021-08-01 00:41:24.236,0.875,-1.745
2021-08-01 00:41:24.240,0.88,-1.725
2021-08-01 00:41:24.244,0.87,-1.745
2021-08-01 00:41:24.248,0.885,-1.745
2021-08-01 00:41:24.252,0.915,-1.745
2021-08-01 00:41:24.256,0.9,-1.725
2021-08-01 00:41:24.260,0.89,-1.695
2021-08-01 00:41:24.264,0.86,-1.66
2021-08-01 00:41:24.268,0.82,-1.635
2021-08-01 00:41:24.272,0.8,-1.61
2021-08-01 00:41:24.276,0.78,-1.565
2021-08-01 00:41:24.280,0.735,-1.52
2021-08-01 00:41:24.284,0.69,-1.47
2021-08-01 00:41:24.288,0.63,-1.43
2021-08-01 00:41:24.292,0.595,-1.38
2021-08-01 00:41:24.296,0.55,-1.35
2021-08-01 00:41:24.300,0.49,-1.32
2021-08-01 00:41:24.304,0.435,-1.29
2021-08-01 00:41:24.308,0.385,-1.265
2021-08-01 00:41:24.312,0.325,-1.24
2021-08-01 00:41:24.316,0.295,-1.23
2021-08-01 00:41:24.320,0.23,-1.23
2021-08-01 00:41:24.324,0.155,-1.225
2021-08-01 00:41:24.328,0.12,-1.2
2021-08-01 00:41:24.332,0.075,-1.195
2021-08-01 00:41:24.336,0.06,-1.19
2021-08-01 00:41:24.340,0.0,-1.21
2021-08-01 00:41:24.344,0.0,-1.21
2021-08-01 00:41:24.348,-0.01,-1.22
2021-08-01 00:41:24.352,-0.01,-1.215
2021-08-01 00:41:24.356,-0.045,-1.21
2021-08-01 00:41:24.360,-0.07,-1.215
2021-08-01 00:41:24.364,-0.06,-1.215
2021-08-01 00:41:24.368,-0.065,-1.2
2021-08-01 00:41:24.372,-0.08,-1.225
2021-08-01 00:41:24.376,-0.075,-1.21
2021-08-01 00:41:24.380,-0.075,-1.225
2021-08-01 00:41:24.384,-0.085,-1.21
2021-08-01 00:41:24.388,-0.07,-1.24
2021-08-01 00:41:24.392,-0.075,-1.22
2021-08-01 00:41:24.396,-0.07,-1.235
2021-08-01 00:41:24.400,-0.065,-1.245
2021-08-01 00:41:24.404,-0.055,-1.235
2021-08-01 00:41:24.408,-0.08,-1.235
2021-08-01 00:41:24.412,-0.09,-1.23
2021-08-01 00:41:24.416,-0.07,-1.23
2021-08-01 00:41:24.420,-0.075,-1.225
2021-08-01 00:41:24.424,-0.065,-1.25
2021-08-01 00:41:24.428,-0.06,-1.24
2021-08-01 00:41:24.432,-0.07,-1.27
2021-08-01 00:41:24.436,-0.085,-1.275
2021-08-01 00:41:24.440,-0.09,-1.255
2021-08-01 00:41:24.444,-0.075,-1.245
2021-08-01 00:41:24.448,-0.065,-1.235
2021-08-01 00:41:24.452,-0.06,-1.255
2021-08-01 00:41:24.456,-0.065,-1.245
2021-08-01 00:41:24.460,-0.04,-1.26
2021-08-01 00:41:24.464,-0.065,-1.27
2021-08-01 00:41:24.468,-0.035,-1.275
2021-08-01 00:41:24.472,-0.07,-1.265
2021-08-01 00:41:24.476,-0.07,-1.295
2021-08-01 00:41:24.480,-0.065,-1.275
2021-08-01 00:41:24.484,-0.08,-1.28
2021-08-01 00:41:24.488,-0.045,-1.305
2021-08-01 00:41:24.492,-0.07,-1.28
2021-08-01 00:41:24.496,-0.085,-1.28
2021-08-01 00:41:24.500,-0.085,-1.275
2021-08-01 00:41:24.504,-0.095,-1.285
2021-08-01 00:41:24.508,-0.085,-1.28
2021-08-01 00:41:24.512,-0.07,-1.28
2021-08-01 00:41:24.516,-0.06,-1.29
2021-08-01 00:41:24.520,-0.09,-1.285
2021-08-01 00:41:24.524,-0.095,-1.26
2021-08-01 00:41:24.528,-0.075,-1.29
2021-08-01 00:41:24.532,-0.07,-1.285
2021-08-01 00:41:24.536,-0.085,-1.28
2021-08-01 00:41:24.540,-0.1,-1.27
2021-08-01 00:41:24.544,-0.1,-1.28
2021-08-01 00:41:24.548,-0.1,-1.28
2021-08-01 00:41:24.552,-0.095,-1.27
2021-08-01 00:41:24.556,-0.105,-1.265
2021-08-01 00:41:24.560,-0.11,-1.3
2021-08-01 00:41:24.564,-0.11,-1.29
2021-08-01 00:41:24.568,-0.1,-1.295
2021-08-01 00:41:24.572,-0.105,-1.255
2021-08-01 00:41:24.576,-0.125,-1.275
2021-08-01 00:41:24.580,-0.09,-1.28
2021-08-01 00:41:24.584,-0.075,-1.275
2021-08-01 00:41:24.588,-0.09,-1.255
2021-08-01 00:41:24.592,-0.105,-1.26
2021-08-01 00:41:24.596,-0.095,-1.245
2021-08-01 00:41:24.600,-0.1,-1.26
2021-08-01 00:41:24.604,-0.125,-1.255
2021-08-01 00:41:24.608,-0.115,-1.245
2021-08-01 00:41:24.612,-0.11,-1.255
2021-08-01 00:41:24.616,-0.13,-1.235
2021-08-01 00:41:24.620,-0.115,-1.225
2021-08-01 00:41:24.624,-0.1,-1.21
2021-08-01 00:41:24.628,-0.1,-1.24
2021-08-01 00:41:24.632,-0.075,-1.24
2021-08-01 00:41:24.636,-0.115,-1.215
2021-08-01 00:41:24.640,-0.125,-1.215
2021-08-01 00:41:24.644,-0.11,-1.22
2021-08-01 00:41:24.648,-0.11,-1.225
2021-08-01 00:41:24.652,-0.115,-1.2
2021-08-01 00:41:24.656,-0.13,-1.22
2021-08-01 00:41:24.660,-0.11,-1.2
2021-08-01 00:41:24.664,-0.115,-1.21
2021-08-01 00:41:24.668,-0.1,-1.21
2021-08-01 00:41:24.672,-0.095,-1.205
2021-08-01 00:41:24.676,-0.095,-1.215
2021-08-01 00:41:24.680,-0.1,-1.215
2021-08-01 00:41:24.684,-0.135,-1.215
2021-08-01 00:41:24.688,-0.14,-1.205
2021-08-01 00:41:24.692,-0.13,-1.22
2021-08-01 00:41:24.696,-0.135,-1.225
2021-08-01 00:41:24.700,-0.12,-1.2
2021-08-01 00:41:24.704,-0.105,-1.18
2021-08-01 00:41:24.708,-0.115,-1.205
2021-08-01 00:41:24.712,-0.125,-1.185
2021-08-01 00:41:24.716,-0.125,-1.205
2021-08-01 00:41:24.720,-0.11,-1.205
2021-08-01 00:41:24.724,-0.115,-1.205
2021-08-01 00:41:24.728,-0.1,-1.195
2021-08-01 00:41:24.732,-0.09,-1.19
2021-08-01 00:41:24.736,-0.12,-1.21
2021-08-01 00:41:24.740,-0.13,-1.19
2021-08-01 00:41:24.744,-0.13,-1.185
2021-08-01 00:41:24.748,-0.115,-1.21
2021-08-01 00:41:24.752,-0.095,-1.195
2021-08-01 00:41:24.756,-0.1,-1.185
2021-08-01 00:41:24.760,-0.11,-1.17
2021-08-01 00:41:24.764,-0.12,-1.2
2021-08-01 00:41:24.768,-0.095,-1.185
2021-08-01 00:41:24.772,-0.105,-1.175
2021-08-01 00:41:24.776,-0.13,-1.18
2021-08-01 00:41:24.780,-0.115,-1.18
2021-08-01 00:41:24.784,-0.11,-1.18
2021-08-01 00:41:24.788,-0.1,-1.165
2021-08-01 00:41:24.792,-0.13,-1.18
2021-08-01 00:41:24.796,-0.095,-1.195
2021-08-01 00:41:24.800,-0.095,-1.18
2021-08-01 00:41:24.804,-0.1,-1.17
2021-08-01 00:41:24.808,-0.11,-1.17
2021-08-01 00:41:24.812,-0.1,-1.16
2021-08-01 00:41:24.816,-0.1,-1.175
2021-08-01 00:41:24.820,-0.125,-1.17
2021-08-01 00:41:24.824,-0.105,-1.18
2021-08-01 00:41:24.828,-0.095,-1.175
2021-08-01 00:41:24.832,-0.1,-1.17
2021-08-01 00:41:24.836,-0.105,-1.145
2021-08-01 00:41:24.840,-0.09,-1.155
2021-08-01 00:41:24.844,-0.1,-1.175
2021-08-01 00:41:24.848,-0.13,-1.16
2021-08-01 00:41:24.852,-0.11,-1.16
2021-08-01 00:41:24.856,-0.1,-1.17
2021-08-01 00:41:24.860,-0.085,-1.165
2021-08-01 00:41:24.864,-0.105,-1.165
2021-08-01 00:41:24.868,-0.085,-1.16
2021-08-01 00:41:24.872,-0.07,-1.145
2021-08-01 00:41:24.876,-0.11,-1.16
2021-08-01 00:41:24.880,-0.07,-1.18
2021-08-01 00:41:24.884,-0.07,-1.17
2021-08-01 00:41:24.888,-0.07,-1.155
2021-08-01 00:41:24.892,-0.07,-1.17
2021-08-01 00:41:24.896,-0.07,-1.19
2021-08-01 00:41:24.900,-0.06,-1.155
2021-08-01 00:41:24.904,-0.075,-1.155
2021-08-01 00:41:24.908,-0.08,-1.125
2021-08-01 00:41:24.912,-0.07,-1.16
2021-08-01 00:41:24.916,-0.07,-1.16
2021-08-01 00:41:24.920,-0.07,-1.12
2021-08-01 00:41:24.924,-0.07,-1.135
2021-08-01 00:41:24.928,-0.05,-1.14
2021-08-01 00:41:24.932,-0.055,-1.135
2021-08-01 00:41:24.936,-0.07,-1.11
2021-08-01 00:41:24.940,-0.07,-1.115
2021-08-01 00:41:24.944,-0.055,-1.13
2021-08-01 00:41:24.948,-0.075,-1.145
2021-08-01 00:41:24.952,-0.075,-1.125
2021-08-01 00:41:24.956,-0.04,-1.115
2021-08-01 00:41:24.960,-0.07,-1.135
2021-08-01 00:41:24.964,-0.065,-1.125
2021-08-01 00:41:24.968,-0.06,-1.135
2021-08-01 00:41:24.972,-0.05,-1.12
2021-08-01 00:41:24.976,-0.05,-1.125
2021-08-01 00:41:24.980,-0.045,-1.125
2021-08-01 00:41:24.984,-0.07,-1.105
2021-08-01 00:41:24.988,-0.06,-1.105
2021-08-01 00:41:24.992,-0.055,-1.11
2021-08-01 00:41:24.996,-0.045,-1.11
2021-08-01 00:41:25.000,-0.06,-1.11
2021-08-01 00:41:25.004,-0.055,-1.1
2021-08-01 00:41:25.008,-0.06,-1.115
2021-08-01 00:41:25.012,-0.07,-1.125
2021-08-01 00:41:25.016,-0.04,-1.115
2021-08-01 00:41:25.020,-0.04,-1.105
2021-08-01 00:41:25.024,-0.035,-1.12
2021-08-01 00:41:25.028,-0.03,-1.105
2021-08-01 00:41:25.032,-0.05,-1.095
2021-08-01 00:41:25.036,-0.025,-1.095
2021-08-01 00:41:25.040,-0.04,-1.11
2021-08-01 00:41:25.044,-0.02,-1.11
2021-08-01 00:41:25.048,-0.025,-1.105
2021-08-01 00:41:25.052,-0.045,-1.115
2021-08-01 00:41:25.056,-0.035,-1.1
2021-08-01 00:41:25.060,-0.03,-1.105
2021-08-01 00:41:25.064,-0.02,-1.12
2021-08-01 00:41:25.068,-0.04,-1.11
2021-08-01 00:41:25.072,-0.04,-1.105
2021-08-01 00:41:25.076,-0.045,-1.11
2021-08-01 00:41:25.080,-0.05,-1.095
2021-08-01 00:41:25.084,-0.035,-1.095
2021-08-01 00:41:25.088,-0.06,-1.11
2021-08-01 00:41:25.092,-0.04,-1.135
2021-08-01 00:41:25.096,-0.055,-1.12
2021-08-01 00:41:25.100,-0.05,-1.11
2021-08-01 00:41:25.104,-0.065,-1.13
2021-08-01 00:41:25.108,-0.05,-1.14
2021-08-01 00:41:25.112,-0.04,-1.135
2021-08-01 00:41:25.116,-0.045,-1.115
2021-08-01 00:41:25.120,-0.08,-1.1
2021-08-01 00:41:25.124,-0.07,-1.115
2021-08-01 00:41:25.128,-0.07,-1.13
2021-08-01 00:41:25.132,-0.06,-1.11
2021-08-01 00:41:25.136,-0.06,-1.11
2021-08-01 00:41:25.140,-0.055,-1.12
2021-08-01 00:41:25.144,-0.08,-1.16
2021-08-01 00:41:25.148,-0.07,-1.115
2021-08-01 00:41:25.152,-0.06,-1.115
2021-08-01 00:41:25.156,-0.08,-1.135
2021-08-01 00:41:25.160,-0.07,-1.15
2021-08-01 00:41:25.164,-0.05,-1.115
2021-08-01 00:41:25.168,-0.06,-1.125
2021-08-01 00:41:25.172,-0.07,-1.135
2021-08-01 00:41:25.176,-0.075,-1.13
2021-08-01 00:41:25.180,-0.065,-1.125
2021-08-01 00:41:25.184,-0.06,-1.105
2021-08-01 00:41:25.188,-0.05,-1.135
2021-08-01 00:41:25.192,-0.07,-1.125
2021-08-01 00:41:25.196,-0.045,-1.125
2021-08-01 00:41:25.200,-0.075,-1.085
2021-08-01 00:41:25.204,-0.06,-1.1
2021-08-01 00:41:25.208,-0.04,-1.105
2021-08-01 00:41:25.212,-0.055,-1.11
2021-08-01 00:41:25.216,-0.035,-1.1
2021-08-01 00:41:25.220,-0.04,-1.12
2021-08-01 00:41:25.224,-0.045,-1.095
2021-08-01 00:41:25.228,-0.05,-1.115
2021-08-01 00:41:25.232,-0.045,-1.1
2021-08-01 00:41:25.236,-0.06,-1.09
2021-08-01 00:41:25.240,-0.045,-1.105
2021-08-01 00:41:25.244,-0.05,-1.11
2021-08-01 00:41:25.248,-0.04,-1.095
2021-08-01 00:41:25.252,-0.035,-1.09
2021-08-01 00:41:25.256,-0.055,-1.1
2021-08-01 00:41:25.260,-0.05,-1.105
2021-08-01 00:41:25.264,-0.03,-1.09
2021-08-01 00:41:25.268,-0.04,-1.075
2021-08-01 00:41:25.272,-0.04,-1.105
2021-08-01 00:41:25.276,-0.01,-1.12
2021-08-01 00:41:25.280,-0.02,-1.09
2021-08-01 00:41:25.284,-0.02,-1.06
2021-08-01 00:41:25.288,-0.04,-1.07
2021-08-01 00:41:25.292,-0.05,-1.095
2021-08-01 00:41:25.296,-0.05,-1.105
2021-08-01 00:41:25.300,-0.055,-1.075
2021-08-01 00:41:25.304,-0.04,-1.085
2021-08-01 00:41:25.308,-0.02,-1.09
2021-08-01 00:41:25.312,-0.04,-1.1
2021-08-01 00:41:25.316,-0.04,-1.105
2021-08-01 00:41:25.320,-0.055,-1.11
2021-08-01 00:41:25.324,-0.035,-1.105
2021-08-01 00:41:25.328,-0.065,-1.1
2021-08-01 00:41:25.332,-0.055,-1.07
2021-08-01 00:41:25.336,-0.07,-1.08
2021-08-01 00:41:25.340,-0.06,-1.105
2021-08-01 00:41:25.344,-0.05,-1.08
2021-08-01 00:41:25.348,-0.045,-1.07
2021-08-01 00:41:25.352,-0.07,-1.095
2021-08-01 00:41:25.356,-0.05,-1.11
2021-08-01 00:41:25.360,-0.055,-1.115
2021-08-01 00:41:25.364,-0.045,-1.1
2021-08-01 00:41:25.368,-0.025,-1.095
2021-08-01 00:41:25.372,-0.055,-1.095
2021-08-01 00:41:25.376,-0.045,-1.115
2021-08-01 00:41:25.380,-0.045,-1.095
2021-08-01 00:41:25.384,-0.04,-1.09
2021-08-01 00:41:25.388,-0.05,-1.105
2021-08-01 00:41:25.392,-0.05,-1.11
2021-08-01 00:41:25.396,-0.055,-1.09
2021-08-01 00:41:25.400,-0.035,-1.035
2021-08-01 00:41:25.404,-0.05,-1.04
2021-08-01 00:41:25.408,-0.045,-1.04
2021-08-01 00:41:25.412,-0.035,-1.015
2021-08-01 00:41:25.416,0.0,-0.985
2021-08-01 00:41:25.420,-0.025,-0.975
2021-08-01 00:41:25.424,0.01,-0.945
2021-08-01 00:41:25.428,0.045,-0.925
2021-08-01 00:41:25.432,0.075,-0.925
2021-08-01 00:41:25.436,0.06,-0.945
2021-08-01 00:41:25.440,0.085,-0.95
2021-08-01 00:41:25.444,0.11,-0.945
2021-08-01 00:41:25.448,0.11,-0.94
2021-08-01 00:41:25.452,0.06,-0.9
2021-08-01 00:41:25.456,0.025,-0.83
2021-08-01 00:41:25.460,0.025,-0.705
2021-08-01 00:41:25.464,0.075,-0.465
2021-08-01 00:41:25.468,0.135,-0.24
2021-08-01 00:41:25.472,-0.015,-0.085
2021-08-01 00:41:25.476,-0.335,0.075
2021-08-01 00:41:25.480,-0.91,0.275
2021-08-01 00:41:25.484,-1.635,0.49
2021-08-01 00:41:25.532,-1.95,0.655
2021-08-01 00:41:25.536,-1.825,0.64
2021-08-01 00:41:25.540,-1.715,0.38
2021-08-01 00:41:25.544,-1.655,-0.1
2021-08-01 00:41:25.548,-1.49,-0.54
2021-08-01 00:41:25.552,-1.31,-0.84
2021-08-01 00:41:25.556,-1.095,-1.075
2021-08-01 00:41:25.560,-0.875,-1.2
2021-08-01 00:41:25.564,-0.695,-1.31
2021-08-01 00:41:25.568,-0.44,-1.415
2021-08-01 00:41:25.572,-0.235,-1.485
2021-08-01 00:41:25.576,0.0,-1.48
2021-08-01 00:41:25.580,0.18,-1.52
2021-08-01 00:41:25.584,0.245,-1.52
2021-08-01 00:41:25.588,0.3,-1.525
2021-08-01 00:41:25.592,0.355,-1.535
2021-08-01 00:41:25.596,0.37,-1.525
2021-08-01 00:41:25.600,0.42,-1.54
2021-08-01 00:41:25.604,0.42,-1.555
2021-08-01 00:41:25.608,0.45,-1.555
2021-08-01 00:41:25.612,0.47,-1.545
2021-08-01 00:41:25.616,0.48,-1.54
2021-08-01 00:41:25.620,0.49,-1.555
2021-08-01 00:41:25.624,0.525,-1.525
2021-08-01 00:41:25.628,0.515,-1.515
2021-08-01 00:41:25.632,0.525,-1.525
2021-08-01 00:41:25.636,0.55,-1.53
2021-08-01 00:41:25.640,0.57,-1.495
2021-08-01 00:41:25.644,0.6,-1.48
2021-08-01 00:41:25.648,0.605,-1.495
2021-08-01 00:41:25.652,0.615,-1.475
2021-08-01 00:41:25.656,0.655,-1.48
2021-08-01 00:41:25.660,0.655,-1.44
2021-08-01 00:41:25.664,0.69,-1.455
2021-08-01 00:41:25.668,0.715,-1.46
2021-08-01 00:41:25.672,0.73,-1.43
2021-08-01 00:41:25.676,0.75,-1.42
2021-08-01 00:41:25.680,0.77,-1.445
2021-08-01 00:41:25.684,0.79,-1.45
2021-08-01 00:41:25.688,0.835,-1.435
2021-08-01 00:41:25.692,0.845,-1.445
2021-08-01 00:41:25.696,0.885,-1.455
2021-08-01 00:41:25.700,0.885,-1.475
2021-08-01 00:41:25.704,0.93,-1.485
2021-08-01 00:41:25.708,0.94,-1.48
2021-08-01 00:41:25.712,0.945,-1.5
2021-08-01 00:41:25.716,0.975,-1.525
2021-08-01 00:41:25.720,1.01,-1.53
2021-08-01 00:41:25.724,1.025,-1.505
2021-08-01 00:41:25.728,1.05,-1.52
2021-08-01 00:41:25.732,1.065,-1.565
2021-08-01 00:41:25.736,1.07,-1.555
2021-08-01 00:41:25.740,1.055,-1.565
2021-08-01 00:41:25.744,1.045,-1.56
2021-08-01 00:41:25.748,1.035,-1.565
2021-08-01 00:41:25.752,1.015,-1.54
2021-08-01 00:41:25.756,0.995,-1.52
2021-08-01 00:41:25.760,0.935,-1.5
2021-08-01 00:41:25.764,0.935,-1.48
2021-08-01 00:41:25.768,0.88,-1.44
2021-08-01 00:41:25.772,0.805,-1.41
2021-08-01 00:41:25.776,0.78,-1.36
2021-08-01 00:41:25.780,0.715,-1.34
2021-08-01 00:41:25.784,0.69,-1.285
2021-08-01 00:41:25.788,0.62,-1.255
2021-08-01 00:41:25.792,0.56,-1.245
2021-08-01 00:41:25.796,0.47,-1.22
2021-08-01 00:41:25.800,0.415,-1.2
2021-08-01 00:41:25.804,0.38,-1.155
2021-08-01 00:41:25.808,0.315,-1.11
2021-08-01 00:41:25.812,0.24,-1.105
2021-08-01 00:41:25.816,0.205,-1.085
2021-08-01 00:41:25.820,0.155,-1.06
2021-08-01 00:41:25.824,0.105,-1.055
2021-08-01 00:41:25.828,0.07,-1.06
2021-08-01 00:41:25.832,0.045,-1.06
2021-08-01 00:41:25.836,0.03,-1.025
2021-08-01 00:41:25.840,0.0,-1.025
2021-08-01 00:41:25.844,-0.045,-1.03
2021-08-01 00:41:25.848,-0.035,-1.03
2021-08-01 00:41:25.852,-0.03,-1.025
2021-08-01 00:41:25.856,-0.055,-1.02
2021-08-01 00:41:25.860,-0.075,-1.055
2021-08-01 00:41:25.864,-0.065,-1.05
2021-08-01 00:41:25.868,-0.07,-1.035
2021-08-01 00:41:25.872,-0.07,-1.045
2021-08-01 00:41:25.876,-0.09,-1.065
2021-08-01 00:41:25.880,-0.075,-1.06
2021-08-01 00:41:25.884,-0.095,-1.05
2021-08-01 00:41:25.888,-0.075,-1.04
2021-08-01 00:41:25.892,-0.11,-1.055
2021-08-01 00:41:25.896,-0.09,-1.075
2021-08-01 00:41:25.900,-0.08,-1.065
2021-08-01 00:41:25.904,-0.09,-1.04
2021-08-01 00:41:25.908,-0.105,-1.05
2021-08-01 00:41:25.912,-0.09,-1.07
2021-08-01 00:41:25.916,-0.1,-1.07
2021-08-01 00:41:25.920,-0.115,-1.07
2021-08-01 00:41:25.924,-0.105,-1.06
2021-08-01 00:41:25.928,-0.08,-1.06
2021-08-01 00:41:25.932,-0.12,-1.06
2021-08-01 00:41:25.936,-0.1,-1.08
2021-08-01 00:41:25.940,-0.115,-1.085
2021-08-01 00:41:25.944,-0.105,-1.095
2021-08-01 00:41:25.948,-0.07,-1.075
2021-08-01 00:41:25.952,-0.075,-1.06
2021-08-01 00:41:25.956,-0.1,-1.09
2021-08-01 00:41:25.960,-0.095,-1.09
2021-08-01 00:41:25.964,-0.09,-1.075
2021-08-01 00:41:25.968,-0.085,-1.06
2021-08-01 00:41:25.972,-0.095,-1.09
2021-08-01 00:41:25.976,-0.105,-1.08
2021-08-01 00:41:25.980,-0.1,-1.09
2021-08-01 00:41:25.984,-0.085,-1.105
2021-08-01 00:41:25.988,-0.095,-1.12
2021-08-01 00:41:25.992,-0.08,-1.085
2021-08-01 00:41:25.996,-0.105,-1.075
2021-08-01 00:41:26.000,-0.115,-1.085
2021-08-01 00:41:26.004,-0.105,-1.09
2021-08-01 00:41:26.008,-0.115,-1.085
2021-08-01 00:41:26.012,-0.11,-1.07
2021-08-01 00:41:26.016,-0.115,-1.055
2021-08-01 00:41:26.020,-0.1,-1.06
2021-08-01 00:41:26.024,-0.115,-1.085
2021-08-01 00:41:26.028,-0.1,-1.085
2021-08-01 00:41:26.032,-0.1,-1.06
2021-08-01 00:41:26.036,-0.12,-1.05
2021-08-01 00:41:26.040,-0.14,-1.07
2021-08-01 00:41:26.044,-0.125,-1.055
2021-08-01 00:41:26.048,-0.14,-1.03
2021-08-01 00:41:26.052,-0.15,-1.05
2021-08-01 00:41:26.056,-0.12,-1.04
2021-08-01 00:41:26.060,-0.12,-1.05
2021-08-01 00:41:26.064,-0.13,-1.025
2021-08-01 00:41:26.068,-0.145,-1.03
2021-08-01 00:41:26.072,-0.14,-1.04
2021-08-01 00:41:26.076,-0.135,-1.02
2021-08-01 00:41:26.080,-0.15,-1.02
2021-08-01 00:41:26.084,-0.15,-1.015
2021-08-01 00:41:26.088,-0.16,-1.01
2021-08-01 00:41:26.092,-0.15,-0.985
2021-08-01 00:41:26.096,-0.17,-1.01
2021-08-01 00:41:26.100,-0.135,-1.02
2021-08-01 00:41:26.104,-0.12,-1.01
2021-08-01 00:41:26.108,-0.145,-0.98
2021-08-01 00:41:26.112,-0.17,-0.96
2021-08-01 00:41:26.116,-0.175,-0.985
2021-08-01 00:41:26.120,-0.165,-0.995
2021-08-01 00:41:26.124,-0.16,-0.98
2021-08-01 00:41:26.128,-0.15,-0.985
2021-08-01 00:41:26.132,-0.17,-0.96
2021-08-01 00:41:26.136,-0.155,-0.945
2021-08-01 00:41:26.140,-0.145,-0.89
2021-08-01 00:41:26.144,-0.175,-0.865
2021-08-01 00:41:26.148,-0.18,-0.845
2021-08-01 00:41:26.152,-0.19,-0.875
2021-08-01 00:41:26.156,-0.21,-0.965
2021-08-01 00:41:26.160,-0.185,-1.105
2021-08-01 00:41:26.164,-0.15,-1.15
2021-08-01 00:41:26.168,-0.17,-1.15
2021-08-01 00:41:26.172,-0.175,-1.07
2021-08-01 00:41:26.176,-0.185,-1.035
2021-08-01 00:41:26.180,-0.17,-1.02
2021-08-01 00:41:26.184,-0.15,-1.02
2021-08-01 00:41:26.188,-0.165,-0.99
2021-08-01 00:41:26.192,-0.175,-0.97
2021-08-01 00:41:26.196,-0.145,-0.97
2021-08-01 00:41:26.200,-0.145,-0.985
2021-08-01 00:41:26.204,-0.15,-0.955
2021-08-01 00:41:26.208,-0.15,-0.95
2021-08-01 00:41:26.212,-0.17,-0.955
2021-08-01 00:41:26.216,-0.175,-0.945
2021-08-01 00:41:26.220,-0.19,-0.92
2021-08-01 00:41:26.224,-0.175,-0.92
2021-08-01 00:41:26.228,-0.19,-0.93
2021-08-01 00:41:26.232,-0.18,-0.93
2021-08-01 00:41:26.236,-0.195,-0.92
2021-08-01 00:41:26.240,-0.195,-0.905
2021-08-01 00:41:26.244,-0.2,-0.93
2021-08-01 00:41:26.248,-0.19,-0.91
2021-08-01 00:41:26.252,-0.215,-0.895
2021-08-01 00:41:26.256,-0.195,-0.915
2021-08-01 00:41:26.260,-0.185,-0.905
2021-08-01 00:41:26.264,-0.175,-0.89
2021-08-01 00:41:26.268,-0.215,-0.895
2021-08-01 00:41:26.272,-0.19,-0.88
2021-08-01 00:41:26.276,-0.2,-0.905
2021-08-01 00:41:26.280,-0.195,-0.885
2021-08-01 00:41:26.284,-0.195,-0.88
2021-08-01 00:41:26.288,-0.2,-0.88
2021-08-01 00:41:26.292,-0.215,-0.875
2021-08-01 00:41:26.296,-0.2,-0.87
2021-08-01 00:41:26.300,-0.205,-0.855
2021-08-01 00:41:26.304,-0.215,-0.875
2021-08-01 00:41:26.308,-0.205,-0.86
2021-08-01 00:41:26.312,-0.215,-0.86
2021-08-01 00:41:26.316,-0.195,-0.85
2021-08-01 00:41:26.320,-0.185,-0.845
2021-08-01 00:41:26.324,-0.22,-0.85
2021-08-01 00:41:26.328,-0.205,-0.845
2021-08-01 00:41:26.332,-0.22,-0.845
2021-08-01 00:41:26.336,-0.22,-0.835
2021-08-01 00:41:26.340,-0.215,-0.795
2021-08-01 00:41:26.344,-0.225,-0.795
2021-08-01 00:41:26.348,-0.205,-0.745
2021-08-01 00:41:26.352,-0.195,-0.76
2021-08-01 00:41:26.356,-0.2,-0.825
2021-08-01 00:41:26.360,-0.2,-0.86
2021-08-01 00:41:26.364,-0.205,-0.86
2021-08-01 00:41:26.368,-0.19,-0.87
2021-08-01 00:41:26.372,-0.235,-0.915
2021-08-01 00:41:26.376,-0.2,-0.9
2021-08-01 00:41:26.380,-0.2,-0.875
2021-08-01 00:41:26.384,-0.17,-0.855
2021-08-01 00:41:26.388,-0.2,-0.76
2021-08-01 00:41:26.392,-0.215,-0.74
2021-08-01 00:41:26.396,-0.215,-0.79
2021-08-01 00:41:26.400,-0.225,-0.86
2021-08-01 00:41:26.404,-0.23,-0.95
2021-08-01 00:41:26.408,-0.21,-0.975
2021-08-01 00:41:26.412,-0.2,-0.945
2021-08-01 00:41:26.416,-0.185,-0.89
2021-08-01 00:41:26.420,-0.19,-0.88
2021-08-01 00:41:26.424,-0.2,-0.88
2021-08-01 00:41:26.428,-0.215,-0.86
2021-08-01 00:41:26.432,-0.2,-0.855
2021-08-01 00:41:26.436,-0.205,-0.855
2021-08-01 00:41:26.440,-0.21,-0.87
2021-08-01 00:41:26.444,-0.19,-0.835
2021-08-01 00:41:26.448,-0.195,-0.805
2021-08-01 00:41:26.452,-0.22,-0.825
2021-08-01 00:41:26.456,-0.21,-0.805
2021-08-01 00:41:26.460,-0.205,-0.775
2021-08-01 00:41:26.464,-0.235,-0.73
2021-08-01 00:41:26.468,-0.24,-0.74
2021-08-01 00:41:26.472,-0.245,-0.82
2021-08-01 00:41:26.476,-0.23,-0.865
2021-08-01 00:41:26.480,-0.23,-0.87
2021-08-01 00:41:26.484,-0.235,-0.915
2021-08-01 00:41:26.488,-0.25,-0.845
2021-08-01 00:41:26.492,-0.235,-0.835
2021-08-01 00:41:26.496,-0.245,-0.815
2021-08-01 00:41:26.500,-0.225,-0.785
2021-08-01 00:41:26.504,-0.26,-0.745
2021-08-01 00:41:26.508,-0.275,-0.855
2021-08-01 00:41:26.512,-0.265,-0.985
2021-08-01 00:41:26.516,-0.235,-1.01
2021-08-01 00:41:26.520,-0.235,-0.915
2021-08-01 00:41:26.524,-0.245,-0.89
2021-08-01 00:41:26.528,-0.225,-0.915
2021-08-01 00:41:26.532,-0.23,-0.9
2021-08-01 00:41:26.536,-0.235,-0.9
2021-08-01 00:41:26.540,-0.2,-0.875
2021-08-01 00:41:26.544,-0.215,-0.86
2021-08-01 00:41:26.548,-0.205,-0.86
2021-08-01 00:41:26.552,-0.225,-0.84
2021-08-01 00:41:26.556,-0.245,-0.86
2021-08-01 00:41:26.560,-0.215,-0.86
2021-08-01 00:41:26.564,-0.22,-0.84
2021-08-01 00:41:26.568,-0.245,-0.865
2021-08-01 00:41:26.572,-0.215,-0.895
2021-08-01 00:41:26.576,-0.235,-0.905
2021-08-01 00:41:26.580,-0.235,-0.86
2021-08-01 00:41:26.584,-0.24,-0.865
2021-08-01 00:41:26.588,-0.21,-0.875
2021-08-01 00:41:26.592,-0.22,-0.905
2021-08-01 00:41:26.596,-0.23,-0.89
2021-08-01 00:41:26.600,-0.225,-0.89
2021-08-01 00:41:26.604,-0.21,-0.865
2021-08-01 00:41:26.608,-0.18,-0.89
2021-08-01 00:41:26.612,-0.17,-0.855
2021-08-01 00:41:26.616,-0.225,-0.8
2021-08-01 00:41:26.620,-0.185,-0.84
2021-08-01 00:41:26.624,-0.19,-0.825
2021-08-01 00:41:26.628,-0.18,-0.76
2021-08-01 00:41:26.632,-0.21,-0.76
2021-08-01 00:41:26.636,-0.195,-0.84
2021-08-01 00:41:26.640,-0.2,-0.94
2021-08-01 00:41:26.644,-0.205,-0.98
2021-08-01 00:41:26.648,-0.23,-0.98
2021-08-01 00:41:26.652,-0.185,-0.95
2021-08-01 00:41:26.656,-0.2,-0.955
2021-08-01 00:41:26.660,-0.2,-0.94
2021-08-01 00:41:26.664,-0.185,-0.9
2021-08-01 00:41:26.668,-0.175,-0.855
2021-08-01 00:41:26.672,-0.185,-0.865
2021-08-01 00:41:26.676,-0.16,-0.89
2021-08-01 00:41:26.680,-0.19,-0.855
2021-08-01 00:41:26.684,-0.175,-0.84
2021-08-01 00:41:26.688,-0.17,-0.845
2021-08-01 00:41:26.692,-0.205,-0.785
2021-08-01 00:41:26.696,-0.185,-0.92
2021-08-01 00:41:26.700,-0.18,-0.92
2021-08-01 00:41:26.704,-0.165,-0.86
2021-08-01 00:41:26.708,-0.165,-0.815
2021-08-01 00:41:26.712,-0.18,-0.88
2021-08-01 00:41:26.716,-0.195,-0.92
2021-08-01 00:41:26.720,-0.18,-0.89
2021-08-01 00:41:26.724,-0.185,-0.85
2021-08-01 00:41:26.728,-0.15,-0.84
2021-08-01 00:41:26.732,-0.135,-0.9
2021-08-01 00:41:26.736,-0.145,-0.945
2021-08-01 00:41:26.740,-0.145,-0.955
2021-08-01 00:41:26.744,-0.16,-0.93
2021-08-01 00:41:26.748,-0.155,-0.875
2021-08-01 00:41:26.752,-0.145,-0.855
2021-08-01 00:41:26.756,-0.14,-0.87
2021-08-01 00:41:26.760,-0.145,-0.795
2021-08-01 00:41:26.764,-0.155,-0.755
2021-08-01 00:41:26.768,-0.15,-0.74
2021-08-01 00:41:26.772,-0.145,-0.725
2021-08-01 00:41:26.776,-0.12,-0.77
2021-08-01 00:41:26.780,-0.155,-0.775
2021-08-01 00:41:26.784,-0.14,-0.78
2021-08-01 00:41:26.788,-0.145,-0.875
2021-08-01 00:41:26.792,-0.14,-1.03
2021-08-01 00:41:26.796,-0.12,-1.08
2021-08-01 00:41:26.800,-0.075,-1.02
2021-08-01 00:41:26.804,-0.04,-0.885
2021-08-01 00:41:26.808,-0.045,-0.8
2021-08-01 00:41:26.812,-0.025,-0.76
2021-08-01 00:41:26.816,-0.05,-0.44
2021-08-01 00:41:26.820,-0.05,0.415
2021-08-01 00:41:26.824,-0.07,1.12
2021-08-01 00:41:26.828,-0.05,1.385
2021-08-01 00:41:26.832,-0.065,1.46
2021-08-01 00:41:26.836,-0.055,1.345
2021-08-01 00:41:26.840,-0.05,1.21
2021-08-01 00:41:26.844,-0.065,1.105
2021-08-01 00:41:26.848,-0.055,1.065
2021-08-01 00:41:26.852,-0.07,1.02
2021-08-01 00:41:26.856,-0.075,0.965
2021-08-01 00:41:26.860,-0.085,0.905
2021-08-01 00:41:26.864,-0.04,0.85
2021-08-01 00:41:26.868,-0.04,0.78
2021-08-01 00:41:26.872,-0.065,0.775
2021-08-01 00:41:26.876,-0.08,0.745
2021-08-01 00:41:26.880,-0.075,0.77
2021-08-01 00:41:26.884,-0.06,0.79
2021-08-01 00:41:26.888,-0.095,0.79
2021-08-01 00:41:26.892,-0.11,0.755
2021-08-01 00:41:26.896,-0.09,0.65
2021-08-01 00:41:26.900,-0.08,0.58
2021-08-01 00:41:26.904,-0.075,0.6
2021-08-01 00:41:26.908,-0.095,0.49
2021-08-01 00:41:26.912,-0.12,0.38
2021-08-01 00:41:26.916,-0.085,0.37
2021-08-01 00:41:26.920,-0.055,0.38
2021-08-01 00:41:26.924,-0.075,0.395
2021-08-01 00:41:26.928,-0.08,0.375
2021-08-01 00:41:26.932,-0.09,0.39
2021-08-01 00:41:26.936,-0.09,0.355
2021-08-01 00:41:26.940,-0.08,0.295
2021-08-01 00:41:26.944,-0.07,0.25
2021-08-01 00:41:26.948,-0.07,0.315
2021-08-01 00:41:26.952,-0.11,0.355
2021-08-01 00:41:26.956,-0.145,0.355
2021-08-01 00:41:26.960,-0.11,0.305
2021-08-01 00:41:26.964,-0.065,0.28
2021-08-01 00:41:26.968,-0.07,0.215
2021-08-01 00:41:26.972,-0.08,0.155
2021-08-01 00:41:26.976,-0.07,0.17
2021-08-01 00:41:26.980,-0.055,0.22
2021-08-01 00:41:26.984,-0.075,0.25
2021-08-01 00:41:26.988,-0.085,0.255
2021-08-01 00:41:26.992,-0.055,0.305
2021-08-01 00:41:26.996,-0.035,0.43
2021-08-01 00:41:27.000,0.03,0.455
2021-08-01 00:41:27.004,0.01,0.335
2021-08-01 00:41:27.008,0.015,0.205
2021-08-01 00:41:27.012,-0.04,0.39
2021-08-01 00:41:27.016,-0.195,0.765
2021-08-01 00:41:27.020,-0.26,0.73
2021-08-01 00:41:27.024,-0.305,0.07
2021-08-01 00:41:27.028,-0.315,-0.74
2021-08-01 00:41:27.032,-0.285,-1.125
2021-08-01 00:41:27.036,-0.18,-1.03
2021-08-01 00:41:27.040,-0.17,-0.965
2021-08-01 00:41:27.044,-0.205,-0.93
2021-08-01 00:41:27.048,-0.29,-0.75
2021-08-01 00:41:27.052,-0.39,-0.54
2021-08-01 00:41:27.056,-0.395,-0.36
2021-08-01 00:41:27.060,-0.45,-0.215
2021-08-01 00:41:27.064,-0.515,-0.155
2021-08-01 00:41:27.068,-0.425,-0.09
2021-08-01 00:41:27.072,-0.225,-0.1
2021-08-01 00:41:27.076,-0.13,-0.085
2021-08-01 00:41:27.080,-0.1,-0.045
2021-08-01 00:41:27.084,-0.105,-0.125
2021-08-01 00:41:27.088,-0.07,-0.23
2021-08-01 00:41:27.092,-0.08,-0.175
2021-08-01 00:41:27.096,-0.085,-0.065
2021-08-01 00:41:27.100,-0.08,-0.04
2021-08-01 00:41:27.104,-0.085,-0.24
2021-08-01 00:41:27.108,-0.07,-0.4
2021-08-01 00:41:27.112,-0.055,-0.395
2021-08-01 00:41:27.116,-0.02,-0.295
2021-08-01 00:41:27.120,-0.01,-0.27
2021-08-01 00:41:27.124,-0.035,-0.27
2021-08-01 00:41:27.128,0.0,-0.285
2021-08-01 00:41:27.132,0.01,-0.295
2021-08-01 00:41:27.136,0.01,-0.29
2021-08-01 00:41:27.140,0.02,-0.255
2021-08-01 00:41:27.144,0.015,-0.225
2021-08-01 00:41:27.148,-0.005,-0.3
2021-08-01 00:41:27.152,-0.005,-0.365
2021-08-01 00:41:27.156,-0.02,-0.395
2021-08-01 00:41:27.160,-0.005,-0.415
2021-08-01 00:41:27.164,-0.045,-0.4
2021-08-01 00:41:27.168,-0.06,-0.27
2021-08-01 00:41:27.172,-0.055,-0.155
2021-08-01 00:41:27.176,-0.045,-0.255
2021-08-01 00:41:27.180,-0.075,-0.42
2021-08-01 00:41:27.184,-0.09,-0.56
2021-08-01 00:41:27.188,-0.11,-0.64
2021-08-01 00:41:27.192,-0.095,-0.7
2021-08-01 00:41:27.196,-0.09,-0.615
2021-08-01 00:41:27.200,-0.03,-0.425
2021-08-01 00:41:27.204,0.0,-0.35
2021-08-01 00:41:27.208,0.065,-0.42
2021-08-01 00:41:27.212,0.05,-0.5
2021-08-01 00:41:27.216,0.005,-0.56
2021-08-01 00:41:27.220,-0.015,-0.525
2021-08-01 00:41:27.224,-0.025,-0.45
2021-08-01 00:41:27.228,-0.01,-0.405
2021-08-01 00:41:27.232,0.01,-0.535
2021-08-01 00:41:27.236,0.055,-0.52
2021-08-01 00:41:27.240,0.035,-0.425
2021-08-01 00:41:27.244,0.005,-0.355
2021-08-01 00:41:27.248,-0.01,-0.39
2021-08-01 00:41:27.252,-0.01,-0.435
2021-08-01 00:41:27.256,-0.005,-0.445
2021-08-01 00:41:27.260,0.0,-0.41
2021-08-01 00:41:27.264,0.005,-0.355
2021-08-01 00:41:27.268,-0.025,-0.325
2021-08-01 00:41:27.272,-0.02,-0.31
2021-08-01 00:41:27.276,-0.01,-0.3
2021-08-01 00:41:27.280,-0.01,-0.295
2021-08-01 00:41:27.284,-0.03,-0.3
2021-08-01 00:41:27.288,-0.04,-0.35
2021-08-01 00:41:27.292,-0.03,-0.315
2021-08-01 00:41:27.296,-0.06,-0.3
2021-08-01 00:41:27.300,-0.095,-0.27
2021-08-01 00:41:27.304,-0.045,-0.27
2021-08-01 00:41:27.308,-0.02,-0.38
2021-08-01 00:41:27.312,-0.005,-0.385
2021-08-01 00:41:27.316,-0.025,-0.465
2021-08-01 00:41:27.320,-0.005,-0.655
2021-08-01 00:41:27.324,0.035,-0.625
2021-08-01 00:41:27.328,0.0,-0.495
2021-08-01 00:41:27.332,0.025,-0.55
2021-08-01 00:41:27.336,0.04,-0.57
2021-08-01 00:41:27.340,0.01,-0.445
2021-08-01 00:41:27.344,0.0,-0.59
2021-08-01 00:41:27.348,0.01,-0.945
2021-08-01 00:41:27.352,0.02,-1.005
2021-08-01 00:41:27.356,0.025,-0.855
2021-08-01 00:41:27.360,0.035,-0.78
2021-08-01 00:41:27.364,0.05,-0.775
2021-08-01 00:41:27.368,0.06,-0.775
2021-08-01 00:41:27.372,0.0,-0.89
2021-08-01 00:41:27.376,0.03,-0.885
2021-08-01 00:41:27.380,0.015,-0.885
2021-08-01 00:41:27.384,0.045,-0.865
2021-08-01 00:41:27.388,0.025,-0.82
2021-08-01 00:41:27.392,0.0,-0.855
2021-08-01 00:41:27.396,0.04,-0.825
2021-08-01 00:41:27.400,0.03,-0.865
2021-08-01 00:41:27.404,0.02,-0.905
2021-08-01 00:41:27.408,0.01,-0.935
2021-08-01 00:41:27.412,0.0,-0.915
2021-08-01 00:41:27.416,0.015,-0.835
2021-08-01 00:41:27.420,0.005,-0.84
2021-08-01 00:41:27.424,0.03,-0.875
2021-08-01 00:41:27.428,0.035,-0.915
2021-08-01 00:41:27.432,0.025,-0.905
2021-08-01 00:41:27.436,0.01,-0.99
2021-08-01 00:41:27.440,0.025,-1.025
2021-08-01 00:41:27.444,0.04,-0.955
2021-08-01 00:41:27.448,0.04,-1.015
2021-08-01 00:41:27.452,0.065,-1.12
2021-08-01 00:41:27.456,0.08,-1.085
2021-08-01 00:41:27.460,0.07,-1.08
2021-08-01 00:41:27.464,0.025,-1.115
2021-08-01 00:41:27.468,0.025,-1.08
2021-08-01 00:41:27.472,0.05,-1.085
2021-08-01 00:41:27.476,0.05,-1.03
2021-08-01 00:41:27.480,0.04,-1.035
2021-08-01 00:41:27.484,0.05,-1.075
2021-08-01 00:41:27.488,0.055,-1.08
2021-08-01 00:41:27.492,0.05,-1.16
2021-08-01 00:41:27.496,0.08,-1.155
2021-08-01 00:41:27.500,0.065,-1.01
2021-08-01 00:41:27.504,0.015,-1.04
2021-08-01 00:41:27.508,0.02,-1.135
2021-08-01 00:41:27.512,0.02,-1.165
2021-08-01 00:41:27.516,0.03,-1.215
2021-08-01 00:41:27.520,0.0,-1.23
2021-08-01 00:41:27.524,0.01,-1.31
2021-08-01 00:41:27.528,0.04,-1.375
2021-08-01 00:41:27.532,0.05,-1.405
2021-08-01 00:41:27.536,0.02,-1.355
2021-08-01 00:41:27.540,0.03,-1.3
2021-08-01 00:41:27.544,0.02,-1.275
2021-08-01 00:41:27.548,0.03,-1.305
2021-08-01 00:41:27.552,0.01,-1.26
2021-08-01 00:41:27.556,0.04,-1.25
2021-08-01 00:41:27.560,0.005,-1.25
2021-08-01 00:41:27.564,-0.035,-1.23
2021-08-01 00:41:27.568,-0.03,-1.275
2021-08-01 00:41:27.572,-0.005,-1.345
2021-08-01 00:41:27.576,0.005,-1.35
2021-08-01 00:41:27.580,0.0,-1.305
2021-08-01 00:41:27.584,-0.025,-1.19
2021-08-01 00:41:27.588,-0.04,-1.175
2021-08-01 00:41:27.592,-0.065,-1.25
2021-08-01 00:41:27.596,-0.06,-1.365
2021-08-01 00:41:27.600,-0.05,-1.34
2021-08-01 00:41:27.604,-0.06,-1.29
2021-08-01 00:41:27.608,-0.07,-1.285
2021-08-01 00:41:27.612,-0.08,-1.2
2021-08-01 00:41:27.616,-0.09,-1.345
2021-08-01 00:41:27.620,-0.12,-1.43
2021-08-01 00:41:27.624,-0.14,-1.395
2021-08-01 00:41:27.628,-0.105,-1.39
2021-08-01 00:41:27.632,-0.11,-1.35
2021-08-01 00:41:27.636,-0.095,-1.41
2021-08-01 00:41:27.640,-0.095,-1.475
2021-08-01 00:41:27.644,-0.095,-1.36
2021-08-01 00:41:27.648,-0.115,-1.36
2021-08-01 00:41:27.652,-0.12,-1.44
2021-08-01 00:41:27.656,-0.105,-1.465
2021-08-01 00:41:27.660,-0.09,-1.41
2021-08-01 00:41:27.664,-0.085,-1.41
2021-08-01 00:41:27.668,-0.08,-1.4
2021-08-01 00:41:27.672,-0.095,-1.38
2021-08-01 00:41:27.676,-0.11,-1.365
2021-08-01 00:41:27.680,-0.125,-1.39
2021-08-01 00:41:27.684,-0.135,-1.45
2021-08-01 00:41:27.688,-0.11,-1.385
2021-08-01 00:41:27.692,-0.085,-1.35
2021-08-01 00:41:27.696,-0.08,-1.35
2021-08-01 00:41:27.700,-0.095,-1.395
2021-08-01 00:41:27.704,-0.11,-1.42
2021-08-01 00:41:27.708,-0.11,-1.37
2021-08-01 00:41:27.712,-0.125,-1.375
2021-08-01 00:41:27.716,-0.13,-1.325
2021-08-01 00:41:27.720,-0.1,-1.32
2021-08-01 00:41:27.724,-0.08,-1.41
2021-08-01 00:41:27.728,-0.1,-1.475
2021-08-01 00:41:27.732,-0.12,-1.365
2021-08-01 00:41:27.736,-0.12,-1.37
2021-08-01 00:41:27.740,-0.085,-1.48
2021-08-01 00:41:27.744,-0.08,-1.405
2021-08-01 00:41:27.748,-0.105,-1.28
2021-08-01 00:41:27.752,-0.14,-1.25
2021-08-01 00:41:27.756,-0.145,-1.28
2021-08-01 00:41:27.760,-0.14,-1.28
2021-08-01 00:41:27.764,-0.145,-1.275
2021-08-01 00:41:27.768,-0.16,-1.3
2021-08-01 00:41:27.772,-0.13,-1.22
2021-08-01 00:41:27.776,-0.125,-1.18
2021-08-01 00:41:27.780,-0.155,-1.075
2021-08-01 00:41:27.784,-0.145,-0.96
2021-08-01 00:41:27.788,-0.12,-0.86
2021-08-01 00:41:27.792,-0.13,-0.725
2021-08-01 00:41:27.796,-0.15,-0.665
2021-08-01 00:41:27.800,-0.125,-0.6
2021-08-01 00:41:27.804,-0.095,-0.49
2021-08-01 00:41:27.808,-0.135,-0.305
2021-08-01 00:41:27.812,-0.15,-0.11
2021-08-01 00:41:27.816,-0.205,-0.12
2021-08-01 00:41:27.820,-0.17,-0.195
2021-08-01 00:41:27.824,-0.165,-0.31
2021-08-01 00:41:27.828,-0.155,-0.185
2021-08-01 00:41:27.832,-0.095,-0.15
2021-08-01 00:41:27.836,-0.095,-0.225
2021-08-01 00:41:27.840,-0.13,-0.18
2021-08-01 00:41:27.844,-0.17,-0.185
2021-08-01 00:41:27.848,-0.18,-0.19
2021-08-01 00:41:27.852,-0.17,-0.19
2021-08-01 00:41:27.856,-0.105,-0.225
2021-08-01 00:41:27.860,-0.105,-0.2
2021-08-01 00:41:27.864,-0.16,-0.17
2021-08-01 00:41:27.868,-0.18,-0.11
2021-08-01 00:41:27.872,-0.155,-0.11
2021-08-01 00:41:27.876,-0.175,-0.16
2021-08-01 00:41:27.880,-0.185,-0.11
2021-08-01 00:41:27.884,-0.19,0.005
2021-08-01 00:41:27.888,-0.185,-0.055
2021-08-01 00:41:27.892,-0.175,-0.255
2021-08-01 00:41:27.896,-0.215,-0.395
2021-08-01 00:41:27.900,-0.25,-0.28
2021-08-01 00:41:27.904,-0.205,-0.165
2021-08-01 00:41:27.908,-0.185,-0.18
2021-08-01 00:41:27.912,-0.2,-0.225
2021-08-01 00:41:27.916,-0.215,-0.14
2021-08-01 00:41:27.920,-0.195,-0.11
2021-08-01 00:41:27.924,-0.18,-0.075
2021-08-01 00:41:27.928,-0.185,-0.03
2021-08-01 00:41:27.932,-0.22,-0.115
2021-08-01 00:41:27.936,-0.205,-0.16
2021-08-01 00:41:27.940,-0.22,-0.105
2021-08-01 00:41:27.944,-0.225,-0.02
2021-08-01 00:41:27.948,-0.2,-0.075
2021-08-01 00:41:27.952,-0.215,-0.205
2021-08-01 00:41:27.956,-0.225,-0.38
2021-08-01 00:41:27.960,-0.225,-0.39
2021-08-01 00:41:27.964,-0.215,-0.275
2021-08-01 00:41:27.968,-0.19,-0.24
2021-08-01 00:41:27.972,-0.17,-0.225
2021-08-01 00:41:27.976,-0.225,-0.165
2021-08-01 00:41:27.980,-0.23,-0.195
2021-08-01 00:41:27.984,-0.245,-0.19
2021-08-01 00:41:27.988,-0.225,-0.145
2021-08-01 00:41:27.992,-0.205,-0.14
2021-08-01 00:41:27.996,-0.21,-0.175
2021-08-01 00:41:28.000,-0.245,-0.225
2021-08-01 00:41:28.004,-0.25,-0.14
2021-08-01 00:41:28.008,-0.235,-0.075
2021-08-01 00:41:28.012,-0.255,-0.075
2021-08-01 00:41:28.016,-0.255,-0.125
2021-08-01 00:41:28.020,-0.255,-0.145
2021-08-01 00:41:28.024,-0.22,-0.175
2021-08-01 00:41:28.028,-0.235,-0.165
2021-08-01 00:41:28.032,-0.26,-0.195
2021-08-01 00:41:28.036,-0.24,-0.09
2021-08-01 00:41:28.040,-0.21,-0.065
2021-08-01 00:41:28.044,-0.215,-0.09
2021-08-01 00:41:28.048,-0.23,-0.1
2021-08-01 00:41:28.052,-0.24,-0.135
2021-08-01 00:41:28.056,-0.23,-0.095
2021-08-01 00:41:28.060,-0.24,-0.12
2021-08-01 00:41:28.064,-0.23,-0.14
2021-08-01 00:41:28.068,-0.21,-0.095
2021-08-01 00:41:28.072,-0.225,-0.1
2021-08-01 00:41:28.076,-0.225,-0.185
2021-08-01 00:41:28.080,-0.24,-0.25
2021-08-01 00:41:28.084,-0.23,-0.17
2021-08-01 00:41:28.088,-0.225,-0.085
2021-08-01 00:41:28.092,-0.225,-0.15
2021-08-01 00:41:28.096,-0.205,-0.23
2021-08-01 00:41:28.100,-0.2,-0.185
2021-08-01 00:41:28.104,-0.17,-0.08
2021-08-01 00:41:28.108,-0.185,-0.075
2021-08-01 00:41:28.112,-0.18,-0.13
2021-08-01 00:41:28.116,-0.2,-0.17
2021-08-01 00:41:28.120,-0.18,-0.17
2021-08-01 00:41:28.124,-0.19,-0.12
2021-08-01 00:41:28.128,-0.185,-0.13
2021-08-01 00:41:28.132,-0.185,-0.18
2021-08-01 00:41:28.136,-0.195,-0.235
2021-08-01 00:41:28.140,-0.19,-0.21
2021-08-01 00:41:28.144,-0.185,-0.175
2021-08-01 00:41:28.148,-0.185,-0.13
2021-08-01 00:41:28.152,-0.145,-0.095
2021-08-01 00:41:28.156,-0.18,-0.075
2021-08-01 00:41:28.160,-0.18,-0.02
2021-08-01 00:41:28.164,-0.2,-0.065
2021-08-01 00:41:28.168,-0.205,-0.095
2021-08-01 00:41:28.172,-0.205,-0.11
2021-08-01 00:41:28.176,-0.18,-0.12
2021-08-01 00:41:28.180,-0.21,-0.145
2021-08-01 00:41:28.184,-0.175,-0.09
2021-08-01 00:41:28.188,-0.19,-0.03
2021-08-01 00:41:28.192,-0.18,-0.01
2021-08-01 00:41:28.196,-0.17,0.0
2021-08-01 00:41:28.200,-0.17,0.025
2021-08-01 00:41:28.204,-0.165,0.095
2021-08-01 00:41:28.208,-0.18,0.155
2021-08-01 00:41:28.212,-0.165,0.16
2021-08-01 00:41:28.216,-0.185,0.17
2021-08-01 00:41:28.220,-0.16,0.2
2021-08-01 00:41:28.224,-0.155,0.24
2021-08-01 00:41:28.228,-0.165,0.29
2021-08-01 00:41:28.232,-0.16,0.44
2021-08-01 00:41:28.236,-0.18,0.68
2021-08-01 00:41:28.240,-0.175,0.79
2021-08-01 00:41:28.244,-0.175,0.82
2021-08-01 00:41:28.248,-0.165,0.865
2021-08-01 00:41:28.252,-0.16,0.865
2021-08-01 00:41:28.256,-0.165,0.86
2021-08-01 00:41:28.260,-0.15,0.85
2021-08-01 00:41:28.264,-0.17,0.87
2021-08-01 00:41:28.268,-0.17,0.9
2021-08-01 00:41:28.272,-0.175,0.895
2021-08-01 00:41:28.276,-0.15,0.91
2021-08-01 00:41:28.280,-0.16,0.915
2021-08-01 00:41:28.284,-0.165,0.925
2021-08-01 00:41:28.288,-0.14,0.935
2021-08-01 00:41:28.292,-0.14,0.96
2021-08-01 00:41:28.296,-0.175,0.97
2021-08-01 00:41:28.300,-0.16,0.965
2021-08-01 00:41:28.304,-0.145,0.99
2021-08-01 00:41:28.308,-0.14,0.99
2021-08-01 00:41:28.312,-0.14,0.985
2021-08-01 00:41:28.316,-0.165,0.935
2021-08-01 00:41:28.320,-0.155,0.98
2021-08-01 00:41:28.324,-0.145,1.01
2021-08-01 00:41:28.328,-0.14,0.99
2021-08-01 00:41:28.332,-0.145,1.015
2021-08-01 00:41:28.336,-0.175,1.015
2021-08-01 00:41:28.340,-0.15,1.01
2021-08-01 00:41:28.344,-0.165,1.03
2021-08-01 00:41:28.348,-0.16,1.035
2021-08-01 00:41:28.352,-0.17,1.06
2021-08-01 00:41:28.356,-0.16,1.065
2021-08-01 00:41:28.360,-0.16,1.065
2021-08-01 00:41:28.364,-0.18,1.1
2021-08-01 00:41:28.368,-0.165,1.12
2021-08-01 00:41:28.372,-0.14,1.1
2021-08-01 00:41:28.376,-0.14,1.105
2021-08-01 00:41:28.380,-0.16,1.1
2021-08-01 00:41:28.384,-0.155,1.1
2021-08-01 00:41:28.388,-0.15,1.14
2021-08-01 00:41:28.392,-0.17,1.14
2021-08-01 00:41:28.396,-0.145,1.135
2021-08-01 00:41:28.400,-0.15,1.135
2021-08-01 00:41:28.404,-0.16,1.145
2021-08-01 00:41:28.408,-0.16,1.16
2021-08-01 00:41:28.412,-0.155,1.16
2021-08-01 00:41:28.416,-0.13,1.22
2021-08-01 00:41:28.420,-0.16,1.21
2021-08-01 00:41:28.424,-0.145,1.225
2021-08-01 00:41:28.428,-0.18,1.245
2021-08-01 00:41:28.432,-0.165,1.24
2021-08-01 00:41:28.436,-0.165,1.205
2021-08-01 00:41:28.440,-0.16,1.22
2021-08-01 00:41:28.444,-0.155,1.26
2021-08-01 00:41:28.448,-0.11,1.265
2021-08-01 00:41:28.452,-0.13,1.1
2021-08-01 00:41:28.456,-0.155,0.98
2021-08-01 00:41:28.460,-0.13,1.055
2021-08-01 00:41:28.464,-0.155,1.105
2021-08-01 00:41:28.468,-0.135,1.15
2021-08-01 00:41:28.472,-0.12,1.185
2021-08-01 00:41:28.476,-0.14,1.19
2021-08-01 00:41:28.480,-0.135,1.15
2021-08-01 00:41:28.484,-0.15,1.155
2021-08-01 00:41:28.488,-0.16,1.185
2021-08-01 00:41:28.492,-0.155,1.21
2021-08-01 00:41:28.496,-0.17,1.185
2021-08-01 00:41:28.500,-0.165,1.155
2021-08-01 00:41:28.504,-0.12,1.165
2021-08-01 00:41:28.508,-0.12,1.16
2021-08-01 00:41:28.512,-0.15,1.12
2021-08-01 00:41:28.516,-0.14,1.125
