Time,ECG1,ECG2
2021-08-19 22:17:29.280,-0.43,0.175
2021-08-19 22:17:29.284,-0.415,0.13
2021-08-19 22:17:29.288,-0.4,0.12
2021-08-19 22:17:29.292,-0.395,0.09
2021-08-19 22:17:29.296,-0.405,0.05
2021-08-19 22:17:29.300,-0.375,0.005
2021-08-19 22:17:29.304,-0.375,0.03
2021-08-19 22:17:29.308,-0.35,0.0
2021-08-19 22:17:29.312,-0.37,0.0
2021-08-19 22:17:29.316,-0.33,0.005
2021-08-19 22:17:29.320,-0.32,-0.03
2021-08-19 22:17:29.324,-0.31,-0.035
2021-08-19 22:17:29.328,-0.305,-0.025
2021-08-19 22:17:29.332,-0.305,-0.02
2021-08-19 22:17:29.336,-0.305,-0.035
2021-08-19 22:17:29.340,-0.275,-0.035
2021-08-19 22:17:29.344,-0.28,-0.025
2021-08-19 22:17:29.348,-0.275,-0.03
2021-08-19 22:17:29.352,-0.27,-0.035
2021-08-19 22:17:29.356,-0.265,-0.05
2021-08-19 22:17:29.360,-0.29,-0.055
2021-08-19 22:17:29.364,-0.275,-0.065
2021-08-19 22:17:29.368,-0.265,-0.045
2021-08-19 22:17:29.372,-0.27,-0.035
2021-08-19 22:17:29.376,-0.27,-0.045
2021-08-19 22:17:29.380,-0.29,-0.03
2021-08-19 22:17:29.384,-0.25,-0.01
2021-08-19 22:17:29.388,-0.25,-0.01
2021-08-19 22:17:29.392,-0.25,-0.03
2021-08-19 22:17:29.396,-0.21,-0.02
2021-08-19 22:17:29.400,-0.215,-0.03
2021-08-19 22:17:29.404,-0.2,-0.04
2021-08-19 22:17:29.408,-0.175,0.0
2021-08-19 22:17:29.412,-0.19,-0.015
2021-08-19 22:17:29.416,-0.16,-0.015
2021-08-19 22:17:29.420,-0.12,0.02
2021-08-19 22:17:29.424,-0.065,0.0
2021-08-19 22:17:29.428,-0.01,0.025
2021-08-19 22:17:29.432,0.055,0.02
2021-08-19 22:17:29.436,0.11,0.01
2021-08-19 22:17:29.440,0.18,-0.01
2021-08-19 22:17:29.444,0.18,-0.025
2021-08-19 22:17:29.448,0.14,-0.065
2021-08-19 22:17:29.452,0.13,-0.08
2021-08-19 22:17:29.456,0.115,-0.12
2021-08-19 22:17:29.460,0.155,-0.23
2021-08-19 22:17:29.464,0.355,-0.34
2021-08-19 22:17:29.468,0.65,-0.54
2021-08-19 22:17:29.472,0.965,-0.83
2021-08-19 22:17:29.476,1.135,-1.1
2021-08-19 22:17:29.480,1.08,-1.19
2021-08-19 22:17:29.484,0.79,-1.085
2021-08-19 22:17:29.488,0.32,-0.76
2021-08-19 22:17:29.492,-0.015,-0.385
2021-08-19 22:17:29.496,-0.22,-0.085
2021-08-19 22:17:29.500,-0.295,0.065
2021-08-19 22:17:29.504,-0.305,0.105
2021-08-19 22:17:29.508,-0.32,0.175
2021-08-19 22:17:29.512,-0.325,0.21
2021-08-19 22:17:29.516,-0.33,0.2
2021-08-19 22:17:29.520,-0.335,0.19
2021-08-19 22:17:29.524,-0.33,0.185
2021-08-19 22:17:29.528,-0.34,0.17
2021-08-19 22:17:29.532,-0.34,0.175
2021-08-19 22:17:29.536,-0.345,0.165
2021-08-19 22:17:29.540,-0.35,0.145
2021-08-19 22:17:29.544,-0.365,0.125
2021-08-19 22:17:29.548,-0.38,0.085
2021-08-19 22:17:29.552,-0.38,0.04
2021-08-19 22:17:29.556,-0.38,0.045
2021-08-19 22:17:29.560,-0.41,0.05
2021-08-19 22:17:29.564,-0.43,0.05
2021-08-19 22:17:29.568,-0.44,0.03
2021-08-19 22:17:29.572,-0.445,0.05
2021-08-19 22:17:29.576,-0.46,0.055
2021-08-19 22:17:29.580,-0.48,0.055
2021-08-19 22:17:29.584,-0.455,0.045
2021-08-19 22:17:29.588,-0.47,0.05
2021-08-19 22:17:29.592,-0.48,0.035
2021-08-19 22:17:29.596,-0.49,0.035
2021-08-19 22:17:29.600,-0.47,0.05
2021-08-19 22:17:29.604,-0.47,0.04
2021-08-19 22:17:29.608,-0.47,0.03
2021-08-19 22:17:29.612,-0.47,0.05
2021-08-19 22:17:29.616,-0.485,0.05
2021-08-19 22:17:29.620,-0.46,0.07
2021-08-19 22:17:29.624,-0.46,0.055
2021-08-19 22:17:29.628,-0.445,0.085
2021-08-19 22:17:29.632,-0.42,0.065
2021-08-19 22:17:29.636,-0.425,0.1
2021-08-19 22:17:29.640,-0.41,0.105
2021-08-19 22:17:29.644,-0.385,0.115
2021-08-19 22:17:29.648,-0.39,0.13
2021-08-19 22:17:29.652,-0.37,0.115
2021-08-19 22:17:29.656,-0.375,0.15
2021-08-19 22:17:29.660,-0.34,0.125
2021-08-19 22:17:29.664,-0.32,0.15
2021-08-19 22:17:29.668,-0.3,0.14
2021-08-19 22:17:29.672,-0.295,0.13
2021-08-19 22:17:29.676,-0.31,0.14
2021-08-19 22:17:29.680,-0.35,0.15
2021-08-19 22:17:29.684,-0.345,0.115
2021-08-19 22:17:29.688,-0.35,0.14
2021-08-19 22:17:29.692,-0.36,0.11
2021-08-19 22:17:29.696,-0.36,0.1
2021-08-19 22:17:29.700,-0.355,0.095
2021-08-19 22:17:29.704,-0.345,0.085
2021-08-19 22:17:29.708,-0.32,0.095
2021-08-19 22:17:29.712,-0.33,0.08
2021-08-19 22:17:29.716,-0.315,0.095
2021-08-19 22:17:29.720,-0.3,0.065
2021-08-19 22:17:29.724,-0.295,0.06
2021-08-19 22:17:29.728,-0.29,0.065
2021-08-19 22:17:29.732,-0.27,0.035
2021-08-19 22:17:29.736,-0.265,0.035
2021-08-19 22:17:29.740,-0.26,0.055
2021-08-19 22:17:29.744,-0.26,0.04
2021-08-19 22:17:29.748,-0.235,0.03
2021-08-19 22:17:29.752,-0.235,0.045
2021-08-19 22:17:29.756,-0.22,0.07
2021-08-19 22:17:29.760,-0.255,0.055
2021-08-19 22:17:29.764,-0.26,0.03
2021-08-19 22:17:29.768,-0.265,0.0
2021-08-19 22:17:29.772,-0.28,0.0
2021-08-19 22:17:29.776,-0.3,-0.01
2021-08-19 22:17:29.780,-0.29,-0.01
2021-08-19 22:17:29.784,-0.305,-0.02
2021-08-19 22:17:29.788,-0.3,-0.02
2021-08-19 22:17:29.792,-0.305,-0.025
2021-08-19 22:17:29.796,-0.305,-0.03
2021-08-19 22:17:29.800,-0.29,-0.02
2021-08-19 22:17:29.804,-0.265,-0.025
2021-08-19 22:17:29.808,-0.275,-0.045
2021-08-19 22:17:29.812,-0.25,-0.055
2021-08-19 22:17:29.816,-0.23,-0.06
2021-08-19 22:17:29.820,-0.21,-0.04
2021-08-19 22:17:29.824,-0.16,-0.06
2021-08-19 22:17:29.828,-0.085,-0.04
2021-08-19 22:17:29.832,-0.015,-0.055
2021-08-19 22:17:29.836,0.045,-0.055
2021-08-19 22:17:29.840,0.1,-0.045
2021-08-19 22:17:29.844,0.135,-0.085
2021-08-19 22:17:29.848,0.175,-0.11
2021-08-19 22:17:29.852,0.22,-0.115
2021-08-19 22:17:29.856,0.235,-0.125
2021-08-19 22:17:29.860,0.22,-0.175
2021-08-19 22:17:29.864,0.335,-0.26
2021-08-19 22:17:29.868,0.555,-0.425
2021-08-19 22:17:29.872,0.835,-0.615
2021-08-19 22:17:29.876,1.055,-0.865
2021-08-19 22:17:29.880,1.045,-1.06
2021-08-19 22:17:29.884,0.71,-1.04
2021-08-19 22:17:29.888,0.235,-0.76
2021-08-19 22:17:29.892,-0.12,-0.425
2021-08-19 22:17:29.896,-0.315,-0.155
2021-08-19 22:17:29.900,-0.43,-0.035
2021-08-19 22:17:29.904,-0.485,0.04
2021-08-19 22:17:29.908,-0.485,0.125
2021-08-19 22:17:29.912,-0.515,0.16
2021-08-19 22:17:29.916,-0.535,0.18
2021-08-19 22:17:29.920,-0.53,0.18
2021-08-19 22:17:29.924,-0.54,0.135
2021-08-19 22:17:29.928,-0.52,0.13
2021-08-19 22:17:29.932,-0.51,0.09
2021-08-19 22:17:29.936,-0.51,0.095
2021-08-19 22:17:29.940,-0.53,0.095
2021-08-19 22:17:29.944,-0.525,0.08
2021-08-19 22:17:29.948,-0.515,0.09
2021-08-19 22:17:29.952,-0.52,0.09
2021-08-19 22:17:29.956,-0.495,0.1
2021-08-19 22:17:29.960,-0.465,0.08
2021-08-19 22:17:29.964,-0.48,0.075
2021-08-19 22:17:29.968,-0.48,0.06
2021-08-19 22:17:29.972,-0.47,0.06
2021-08-19 22:17:29.976,-0.485,0.045
2021-08-19 22:17:29.980,-0.495,0.03
2021-08-19 22:17:29.984,-0.51,0.04
2021-08-19 22:17:29.988,-0.485,0.045
2021-08-19 22:17:29.992,-0.485,0.03
2021-08-19 22:17:29.996,-0.475,0.01
2021-08-19 22:17:30.000,-0.47,0.0
2021-08-19 22:17:30.004,-0.48,-0.025
2021-08-19 22:17:30.008,-0.465,-0.005
2021-08-19 22:17:30.012,-0.465,-0.015
2021-08-19 22:17:30.016,-0.46,-0.045
2021-08-19 22:17:30.020,-0.48,-0.015
2021-08-19 22:17:30.024,-0.47,-0.035
2021-08-19 22:17:30.028,-0.45,-0.005
2021-08-19 22:17:30.032,-0.425,0.015
2021-08-19 22:17:30.036,-0.44,0.0
2021-08-19 22:17:30.040,-0.435,0.015
2021-08-19 22:17:30.044,-0.415,0.03
2021-08-19 22:17:30.048,-0.42,0.035
2021-08-19 22:17:30.052,-0.435,0.02
2021-08-19 22:17:30.056,-0.42,0.04
2021-08-19 22:17:30.060,-0.43,0.045
2021-08-19 22:17:30.064,-0.435,0.045
2021-08-19 22:17:30.068,-0.425,0.035
2021-08-19 22:17:30.072,-0.4,0.025
2021-08-19 22:17:30.076,-0.395,0.025
2021-08-19 22:17:30.080,-0.39,0.04
2021-08-19 22:17:30.084,-0.4,0.04
2021-08-19 22:17:30.088,-0.395,0.045
2021-08-19 22:17:30.092,-0.435,0.035
2021-08-19 22:17:30.096,-0.435,0.005
2021-08-19 22:17:30.100,-0.43,0.025
2021-08-19 22:17:30.104,-0.455,0.025
2021-08-19 22:17:30.108,-0.415,0.015
2021-08-19 22:17:30.112,-0.415,0.0
2021-08-19 22:17:30.116,-0.4,-0.015
2021-08-19 22:17:30.120,-0.4,-0.03
2021-08-19 22:17:30.124,-0.385,-0.03
2021-08-19 22:17:30.128,-0.4,-0.02
2021-08-19 22:17:30.132,-0.375,-0.035
2021-08-19 22:17:30.136,-0.34,-0.04
2021-08-19 22:17:30.140,-0.32,-0.075
2021-08-19 22:17:30.144,-0.295,-0.095
2021-08-19 22:17:30.148,-0.31,-0.08
2021-08-19 22:17:30.152,-0.33,-0.06
2021-08-19 22:17:30.156,-0.32,-0.06
2021-08-19 22:17:30.160,-0.315,-0.05
2021-08-19 22:17:30.164,-0.305,-0.06
2021-08-19 22:17:30.168,-0.285,-0.06
2021-08-19 22:17:30.172,-0.28,-0.055
2021-08-19 22:17:30.176,-0.26,-0.075
2021-08-19 22:17:30.180,-0.255,-0.08
2021-08-19 22:17:30.184,-0.255,-0.1
2021-08-19 22:17:30.188,-0.255,-0.095
2021-08-19 22:17:30.192,-0.23,-0.105
2021-08-19 22:17:30.196,-0.215,-0.12
2021-08-19 22:17:30.200,-0.2,-0.095
2021-08-19 22:17:30.204,-0.205,-0.115
2021-08-19 22:17:30.208,-0.205,-0.11
2021-08-19 22:17:30.212,-0.19,-0.11
2021-08-19 22:17:30.216,-0.165,-0.09
2021-08-19 22:17:30.220,-0.19,-0.09
2021-08-19 22:17:30.224,-0.17,-0.08
2021-08-19 22:17:30.228,-0.16,-0.085
2021-08-19 22:17:30.232,-0.165,-0.08
2021-08-19 22:17:30.236,-0.17,-0.05
2021-08-19 22:17:30.240,-0.17,-0.06
2021-08-19 22:17:30.244,-0.185,-0.075
2021-08-19 22:17:30.248,-0.19,-0.07
2021-08-19 22:17:30.252,-0.17,-0.085
2021-08-19 22:17:30.256,-0.16,-0.095
2021-08-19 22:17:30.260,-0.18,-0.09
2021-08-19 22:17:30.264,-0.22,-0.105
2021-08-19 22:17:30.268,-0.225,-0.095
2021-08-19 22:17:30.272,-0.23,-0.09
2021-08-19 22:17:30.276,-0.24,-0.065
2021-08-19 22:17:30.280,-0.235,-0.08
2021-08-19 22:17:30.284,-0.26,-0.04
2021-08-19 22:17:30.288,-0.265,-0.045
2021-08-19 22:17:30.292,-0.25,-0.06
2021-08-19 22:17:30.296,-0.275,-0.055
2021-08-19 22:17:30.300,-0.27,-0.05
2021-08-19 22:17:30.304,-0.295,-0.04
2021-08-19 22:17:30.308,-0.29,-0.05
2021-08-19 22:17:30.312,-0.285,-0.085
2021-08-19 22:17:30.316,-0.3,-0.075
2021-08-19 22:17:30.320,-0.305,-0.08
2021-08-19 22:17:30.324,-0.32,-0.09
2021-08-19 22:17:30.328,-0.33,-0.1
2021-08-19 22:17:30.332,-0.31,-0.085
2021-08-19 22:17:30.336,-0.315,-0.085
2021-08-19 22:17:30.340,-0.31,-0.11
2021-08-19 22:17:30.344,-0.31,-0.11
2021-08-19 22:17:30.348,-0.32,-0.11
2021-08-19 22:17:30.352,-0.31,-0.12
2021-08-19 22:17:30.356,-0.315,-0.095
2021-08-19 22:17:30.360,-0.32,-0.09
2021-08-19 22:17:30.364,-0.335,-0.11
2021-08-19 22:17:30.368,-0.315,-0.11
2021-08-19 22:17:30.372,-0.305,-0.12
2021-08-19 22:17:30.376,-0.3,-0.115
2021-08-19 22:17:30.380,-0.285,-0.13
2021-08-19 22:17:30.384,-0.275,-0.13
2021-08-19 22:17:30.388,-0.26,-0.12
2021-08-19 22:17:30.392,-0.23,-0.145
2021-08-19 22:17:30.396,-0.255,-0.165
2021-08-19 22:17:30.400,-0.235,-0.155
2021-08-19 22:17:30.404,-0.21,-0.16
2021-08-19 22:17:30.408,-0.175,-0.16
2021-08-19 22:17:30.412,-0.17,-0.155
2021-08-19 22:17:30.416,-0.16,-0.135
2021-08-19 22:17:30.420,-0.115,-0.145
2021-08-19 22:17:30.424,-0.13,-0.14
2021-08-19 22:17:30.428,-0.13,-0.135
2021-08-19 22:17:30.432,-0.105,-0.145
2021-08-19 22:17:30.436,-0.105,-0.125
2021-08-19 22:17:30.440,-0.11,-0.125
2021-08-19 22:17:30.444,-0.13,-0.1
2021-08-19 22:17:30.448,-0.135,-0.095
2021-08-19 22:17:30.452,-0.11,-0.12
2021-08-19 22:17:30.456,-0.125,-0.12
2021-08-19 22:17:30.460,-0.14,-0.095
2021-08-19 22:17:30.464,-0.16,-0.08
2021-08-19 22:17:30.468,-0.175,-0.095
2021-08-19 22:17:30.472,-0.195,-0.09
2021-08-19 22:17:30.476,-0.23,-0.08
2021-08-19 22:17:30.480,-0.2,-0.08
2021-08-19 22:17:30.484,-0.235,-0.075
2021-08-19 22:17:30.488,-0.28,-0.09
2021-08-19 22:17:30.492,-0.29,-0.075
2021-08-19 22:17:30.496,-0.305,-0.07
2021-08-19 22:17:30.500,-0.32,-0.065
2021-08-19 22:17:30.504,-0.315,-0.055
2021-08-19 22:17:30.508,-0.31,-0.075
2021-08-19 22:17:30.512,-0.305,-0.055
2021-08-19 22:17:30.516,-0.29,-0.06
2021-08-19 22:17:30.520,-0.3,-0.07
2021-08-19 22:17:30.524,-0.26,-0.07
2021-08-19 22:17:30.528,-0.25,-0.075
2021-08-19 22:17:30.532,-0.24,-0.09
2021-08-19 22:17:30.536,-0.225,-0.055
2021-08-19 22:17:30.540,-0.2,-0.07
2021-08-19 22:17:30.544,-0.2,-0.05
2021-08-19 22:17:30.548,-0.205,-0.06
2021-08-19 22:17:30.552,-0.13,-0.065
2021-08-19 22:17:30.556,-0.075,-0.075
2021-08-19 22:17:30.560,0.0,-0.065
2021-08-19 22:17:30.564,0.08,-0.085
2021-08-19 22:17:30.568,0.175,-0.115
2021-08-19 22:17:30.572,0.24,-0.16
2021-08-19 22:17:30.576,0.29,-0.195
2021-08-19 22:17:30.580,0.33,-0.205
2021-08-19 22:17:30.584,0.37,-0.22
2021-08-19 22:17:30.588,0.345,-0.29
2021-08-19 22:17:30.592,0.38,-0.4
2021-08-19 22:17:30.596,0.55,-0.54
2021-08-19 22:17:30.600,0.86,-0.73
2021-08-19 22:17:30.604,1.14,-0.96
2021-08-19 22:17:30.608,1.275,-1.135
2021-08-19 22:17:30.612,1.13,-1.21
2021-08-19 22:17:30.616,0.73,-1.045
2021-08-19 22:17:30.620,0.27,-0.72
2021-08-19 22:17:30.624,0.005,-0.425
2021-08-19 22:17:30.628,-0.12,-0.25
2021-08-19 22:17:30.632,-0.135,-0.14
2021-08-19 22:17:30.636,-0.15,-0.04
2021-08-19 22:17:30.640,-0.16,0.02
2021-08-19 22:17:30.644,-0.225,0.04
2021-08-19 22:17:30.648,-0.255,0.07
2021-08-19 22:17:30.652,-0.285,0.075
2021-08-19 22:17:30.656,-0.295,0.065
2021-08-19 22:17:30.660,-0.34,0.05
2021-08-19 22:17:30.664,-0.355,0.05
2021-08-19 22:17:30.668,-0.36,0.03
2021-08-19 22:17:30.672,-0.39,0.065
2021-08-19 22:17:30.676,-0.395,0.08
2021-08-19 22:17:30.680,-0.39,0.08
2021-08-19 22:17:30.684,-0.435,0.07
2021-08-19 22:17:30.688,-0.47,0.085
2021-08-19 22:17:30.692,-0.485,0.11
2021-08-19 22:17:30.696,-0.505,0.11
2021-08-19 22:17:30.700,-0.52,0.075
2021-08-19 22:17:30.704,-0.54,0.07
2021-08-19 22:17:30.708,-0.545,0.055
2021-08-19 22:17:30.712,-0.55,0.065
2021-08-19 22:17:30.716,-0.535,0.05
2021-08-19 22:17:30.720,-0.52,0.04
2021-08-19 22:17:30.724,-0.52,0.045
2021-08-19 22:17:30.728,-0.545,0.035
2021-08-19 22:17:30.732,-0.54,0.02
2021-08-19 22:17:30.736,-0.54,0.015
2021-08-19 22:17:30.740,-0.54,0.015
2021-08-19 22:17:30.744,-0.545,0.025
2021-08-19 22:17:30.748,-0.545,0.025
2021-08-19 22:17:30.752,-0.5,0.01
2021-08-19 22:17:30.756,-0.52,0.03
2021-08-19 22:17:30.760,-0.49,0.035
2021-08-19 22:17:30.764,-0.5,0.04
2021-08-19 22:17:30.768,-0.48,0.02
2021-08-19 22:17:30.772,-0.5,0.055
2021-08-19 22:17:30.776,-0.5,0.055
2021-08-19 22:17:30.780,-0.475,0.07
2021-08-19 22:17:30.784,-0.465,0.07
2021-08-19 22:17:30.788,-0.455,0.075
2021-08-19 22:17:30.792,-0.45,0.055
2021-08-19 22:17:30.796,-0.44,0.06
2021-08-19 22:17:30.800,-0.425,0.06
2021-08-19 22:17:30.804,-0.425,0.06
2021-08-19 22:17:30.808,-0.41,0.06
2021-08-19 22:17:30.812,-0.385,0.065
2021-08-19 22:17:30.816,-0.36,0.045
2021-08-19 22:17:30.820,-0.35,0.03
2021-08-19 22:17:30.824,-0.31,0.03
2021-08-19 22:17:30.828,-0.315,0.015
2021-08-19 22:17:30.832,-0.3,0.0
2021-08-19 22:17:30.836,-0.295,0.005
2021-08-19 22:17:30.840,-0.3,0.0
2021-08-19 22:17:30.844,-0.305,-0.01
2021-08-19 22:17:30.848,-0.275,-0.03
2021-08-19 22:17:30.852,-0.295,-0.02
2021-08-19 22:17:30.856,-0.3,-0.02
2021-08-19 22:17:30.860,-0.275,-0.03
2021-08-19 22:17:30.864,-0.26,-0.025
2021-08-19 22:17:30.868,-0.23,-0.015
2021-08-19 22:17:30.872,-0.245,-0.035
2021-08-19 22:17:30.876,-0.26,-0.015
2021-08-19 22:17:30.880,-0.275,0.0
2021-08-19 22:17:30.884,-0.26,0.01
2021-08-19 22:17:30.888,-0.305,0.0
2021-08-19 22:17:30.892,-0.285,0.0
2021-08-19 22:17:30.896,-0.285,-0.015
2021-08-19 22:17:30.900,-0.295,-0.02
2021-08-19 22:17:30.904,-0.31,-0.025
2021-08-19 22:17:30.908,-0.3,-0.045
2021-08-19 22:17:30.912,-0.29,-0.06
2021-08-19 22:17:30.916,-0.305,-0.06
2021-08-19 22:17:30.920,-0.31,-0.065
2021-08-19 22:17:30.924,-0.325,-0.06
2021-08-19 22:17:30.928,-0.32,-0.07
2021-08-19 22:17:30.932,-0.3,-0.08
2021-08-19 22:17:30.936,-0.29,-0.065
2021-08-19 22:17:30.940,-0.29,-0.06
2021-08-19 22:17:30.944,-0.295,-0.055
2021-08-19 22:17:30.948,-0.275,-0.055
2021-08-19 22:17:30.952,-0.285,-0.05
2021-08-19 22:17:30.956,-0.29,-0.035
2021-08-19 22:17:30.960,-0.255,-0.055
2021-08-19 22:17:30.964,-0.195,-0.04
2021-08-19 22:17:30.968,-0.135,-0.035
2021-08-19 22:17:30.972,-0.09,-0.04
2021-08-19 22:17:30.976,-0.03,-0.04
2021-08-19 22:17:30.980,0.01,-0.08
2021-08-19 22:17:30.984,0.025,-0.105
2021-08-19 22:17:30.988,0.015,-0.12
2021-08-19 22:17:30.992,0.02,-0.125
2021-08-19 22:17:30.996,0.0,-0.125
2021-08-19 22:17:31.000,0.05,-0.21
2021-08-19 22:17:31.004,0.255,-0.33
2021-08-19 22:17:31.008,0.56,-0.515
2021-08-19 22:17:31.012,0.87,-0.795
2021-08-19 22:17:31.016,1.11,-1.075
2021-08-19 22:17:31.020,1.11,-1.245
2021-08-19 22:17:31.024,0.86,-1.175
2021-08-19 22:17:31.028,0.435,-0.885
2021-08-19 22:17:31.032,0.035,-0.49
2021-08-19 22:17:31.036,-0.17,-0.2
2021-08-19 22:17:31.040,-0.25,-0.07
2021-08-19 22:17:31.044,-0.29,0.0
2021-08-19 22:17:31.048,-0.305,0.05
2021-08-19 22:17:31.052,-0.36,0.08
2021-08-19 22:17:31.056,-0.36,0.1
2021-08-19 22:17:31.060,-0.34,0.075
2021-08-19 22:17:31.064,-0.365,0.095
2021-08-19 22:17:31.068,-0.365,0.105
2021-08-19 22:17:31.072,-0.38,0.095
2021-08-19 22:17:31.076,-0.385,0.075
2021-08-19 22:17:31.080,-0.425,0.06
2021-08-19 22:17:31.084,-0.43,0.075
2021-08-19 22:17:31.088,-0.44,0.085
2021-08-19 22:17:31.092,-0.44,0.095
2021-08-19 22:17:31.096,-0.435,0.085
2021-08-19 22:17:31.100,-0.45,0.08
2021-08-19 22:17:31.104,-0.455,0.09
2021-08-19 22:17:31.108,-0.455,0.07
2021-08-19 22:17:31.112,-0.45,0.06
2021-08-19 22:17:31.116,-0.435,0.05
2021-08-19 22:17:31.120,-0.455,0.035
2021-08-19 22:17:31.124,-0.48,0.035
2021-08-19 22:17:31.128,-0.495,0.045
2021-08-19 22:17:31.132,-0.505,0.06
2021-08-19 22:17:31.136,-0.51,0.065
2021-08-19 22:17:31.140,-0.5,0.04
2021-08-19 22:17:31.144,-0.51,0.035
2021-08-19 22:17:31.148,-0.525,0.035
2021-08-19 22:17:31.152,-0.53,0.055
2021-08-19 22:17:31.156,-0.515,0.03
2021-08-19 22:17:31.160,-0.49,0.035
2021-08-19 22:17:31.164,-0.495,0.015
2021-08-19 22:17:31.168,-0.47,0.025
2021-08-19 22:17:31.172,-0.475,0.035
2021-08-19 22:17:31.176,-0.455,0.02
2021-08-19 22:17:31.180,-0.465,0.055
2021-08-19 22:17:31.184,-0.45,0.055
2021-08-19 22:17:31.188,-0.43,0.065
2021-08-19 22:17:31.192,-0.42,0.08
2021-08-19 22:17:31.196,-0.405,0.085
2021-08-19 22:17:31.200,-0.37,0.095
2021-08-19 22:17:31.204,-0.34,0.1
2021-08-19 22:17:31.208,-0.335,0.11
2021-08-19 22:17:31.212,-0.33,0.15
2021-08-19 22:17:31.216,-0.31,0.145
2021-08-19 22:17:31.220,-0.295,0.15
2021-08-19 22:17:31.224,-0.275,0.135
2021-08-19 22:17:31.228,-0.26,0.115
2021-08-19 22:17:31.232,-0.275,0.11
2021-08-19 22:17:31.236,-0.25,0.1
2021-08-19 22:17:31.240,-0.23,0.065
2021-08-19 22:17:31.244,-0.24,0.06
2021-08-19 22:17:31.248,-0.225,0.065
2021-08-19 22:17:31.252,-0.25,0.075
2021-08-19 22:17:31.256,-0.225,0.075
2021-08-19 22:17:31.260,-0.245,0.06
2021-08-19 22:17:31.264,-0.245,0.045
2021-08-19 22:17:31.268,-0.24,0.055
2021-08-19 22:17:31.272,-0.225,0.06
2021-08-19 22:17:31.276,-0.22,0.03
2021-08-19 22:17:31.280,-0.225,0.035
2021-08-19 22:17:31.284,-0.225,0.025
2021-08-19 22:17:31.288,-0.275,0.045
2021-08-19 22:17:31.292,-0.27,0.045
2021-08-19 22:17:31.296,-0.27,0.04
2021-08-19 22:17:31.300,-0.285,0.05
2021-08-19 22:17:31.304,-0.28,0.03
2021-08-19 22:17:31.308,-0.275,0.01
2021-08-19 22:17:31.312,-0.285,0.03
2021-08-19 22:17:31.316,-0.28,0.005
2021-08-19 22:17:31.320,-0.275,0.005
2021-08-19 22:17:31.324,-0.265,0.02
2021-08-19 22:17:31.328,-0.255,0.0
2021-08-19 22:17:31.332,-0.255,0.0
2021-08-19 22:17:31.336,-0.26,0.0
2021-08-19 22:17:31.340,-0.25,0.0
2021-08-19 22:17:31.344,-0.26,0.01
2021-08-19 22:17:31.348,-0.26,0.01
2021-08-19 22:17:31.352,-0.25,-0.025
2021-08-19 22:17:31.356,-0.235,-0.01
2021-08-19 22:17:31.360,-0.245,-0.02
2021-08-19 22:17:31.364,-0.23,-0.005
2021-08-19 22:17:31.368,-0.255,-0.025
2021-08-19 22:17:31.372,-0.23,-0.035
2021-08-19 22:17:31.376,-0.255,-0.04
2021-08-19 22:17:31.380,-0.24,-0.05
2021-08-19 22:17:31.384,-0.23,-0.03
2021-08-19 22:17:31.388,-0.21,-0.03
2021-08-19 22:17:31.392,-0.22,-0.03
2021-08-19 22:17:31.396,-0.245,-0.005
2021-08-19 22:17:31.400,-0.23,-0.01
2021-08-19 22:17:31.404,-0.225,-0.005
2021-08-19 22:17:31.408,-0.2,-0.015
2021-08-19 22:17:31.412,-0.2,0.0
2021-08-19 22:17:31.416,-0.185,0.005
2021-08-19 22:17:31.420,-0.195,0.0
2021-08-19 22:17:31.424,-0.21,0.015
2021-08-19 22:17:31.428,-0.2,0.03
2021-08-19 22:17:31.432,-0.185,0.02
2021-08-19 22:17:31.436,-0.19,0.035
2021-08-19 22:17:31.440,-0.185,0.055
2021-08-19 22:17:31.444,-0.195,0.06
2021-08-19 22:17:31.448,-0.185,0.06
2021-08-19 22:17:31.452,-0.16,0.065
2021-08-19 22:17:31.456,-0.165,0.055
2021-08-19 22:17:31.460,-0.165,0.07
2021-08-19 22:17:31.464,-0.165,0.07
2021-08-19 22:17:31.468,-0.17,0.07
2021-08-19 22:17:31.472,-0.16,0.06
2021-08-19 22:17:31.476,-0.185,0.065
2021-08-19 22:17:31.480,-0.21,0.055
2021-08-19 22:17:31.484,-0.215,0.025
2021-08-19 22:17:31.488,-0.19,0.04
2021-08-19 22:17:31.492,-0.14,0.02
2021-08-19 22:17:31.496,-0.085,0.0
2021-08-19 22:17:31.500,0.0,-0.015
2021-08-19 22:17:31.504,0.07,-0.03
2021-08-19 22:17:31.508,0.1,-0.09
2021-08-19 22:17:31.512,0.16,-0.145
2021-08-19 22:17:31.516,0.19,-0.17
2021-08-19 22:17:31.520,0.24,-0.18
2021-08-19 22:17:31.524,0.25,-0.24
2021-08-19 22:17:31.528,0.23,-0.35
2021-08-19 22:17:31.532,0.36,-0.48
2021-08-19 22:17:31.536,0.635,-0.69
2021-08-19 22:17:31.540,0.94,-0.925
2021-08-19 22:17:31.544,1.115,-1.14
2021-08-19 22:17:31.548,1.055,-1.3
2021-08-19 22:17:31.552,0.675,-1.185
2021-08-19 22:17:31.556,0.215,-0.81
2021-08-19 22:17:31.560,-0.09,-0.45
2021-08-19 22:17:31.564,-0.2,-0.235
2021-08-19 22:17:31.568,-0.26,-0.115
2021-08-19 22:17:31.572,-0.265,-0.015
2021-08-19 22:17:31.576,-0.275,0.05
2021-08-19 22:17:31.580,-0.29,0.085
2021-08-19 22:17:31.584,-0.305,0.1
2021-08-19 22:17:31.588,-0.32,0.09
2021-08-19 22:17:31.592,-0.33,0.085
2021-08-19 22:17:31.596,-0.335,0.07
2021-08-19 22:17:31.600,-0.36,0.07
2021-08-19 22:17:31.604,-0.345,0.08
2021-08-19 22:17:31.608,-0.345,0.07
2021-08-19 22:17:31.612,-0.335,0.07
2021-08-19 22:17:31.616,-0.34,0.075
2021-08-19 22:17:31.620,-0.335,0.08
2021-08-19 22:17:31.624,-0.36,0.095
2021-08-19 22:17:31.628,-0.355,0.095
2021-08-19 22:17:31.632,-0.365,0.1
2021-08-19 22:17:31.636,-0.38,0.095
2021-08-19 22:17:31.640,-0.365,0.105
2021-08-19 22:17:31.644,-0.38,0.105
2021-08-19 22:17:31.648,-0.39,0.12
2021-08-19 22:17:31.652,-0.39,0.125
2021-08-19 22:17:31.656,-0.385,0.125
2021-08-19 22:17:31.660,-0.39,0.13
2021-08-19 22:17:31.664,-0.385,0.12
2021-08-19 22:17:31.668,-0.42,0.14
2021-08-19 22:17:31.672,-0.415,0.13
2021-08-19 22:17:31.676,-0.4,0.165
2021-08-19 22:17:31.680,-0.405,0.15
2021-08-19 22:17:31.684,-0.415,0.14
2021-08-19 22:17:31.688,-0.4,0.135
2021-08-19 22:17:31.692,-0.395,0.14
2021-08-19 22:17:31.696,-0.395,0.135
2021-08-19 22:17:31.700,-0.41,0.105
2021-08-19 22:17:31.704,-0.45,0.11
2021-08-19 22:17:31.708,-0.475,0.095
2021-08-19 22:17:31.712,-0.48,0.095
2021-08-19 22:17:31.716,-0.455,0.095
2021-08-19 22:17:31.720,-0.425,0.075
2021-08-19 22:17:31.724,-0.415,0.045
2021-08-19 22:17:31.728,-0.4,0.045
2021-08-19 22:17:31.732,-0.39,0.005
2021-08-19 22:17:31.736,-0.4,0.045
2021-08-19 22:17:31.740,-0.405,0.015
2021-08-19 22:17:31.744,-0.395,-0.005
2021-08-19 22:17:31.748,-0.405,-0.025
2021-08-19 22:17:31.752,-0.4,-0.015
2021-08-19 22:17:31.756,-0.4,-0.025
2021-08-19 22:17:31.760,-0.375,-0.02
2021-08-19 22:17:31.764,-0.345,-0.045
2021-08-19 22:17:31.768,-0.315,-0.035
2021-08-19 22:17:31.772,-0.28,-0.03
2021-08-19 22:17:31.776,-0.245,-0.045
2021-08-19 22:17:31.780,-0.245,-0.055
2021-08-19 22:17:31.784,-0.255,-0.04
2021-08-19 22:17:31.788,-0.23,-0.05
2021-08-19 22:17:31.792,-0.23,-0.05
2021-08-19 22:17:31.796,-0.225,-0.035
2021-08-19 22:17:31.800,-0.23,-0.05
2021-08-19 22:17:31.804,-0.245,-0.04
2021-08-19 22:17:31.808,-0.235,-0.06
2021-08-19 22:17:31.812,-0.22,-0.04
2021-08-19 22:17:31.816,-0.23,-0.02
2021-08-19 22:17:31.820,-0.24,-0.035
2021-08-19 22:17:31.824,-0.23,-0.025
2021-08-19 22:17:31.828,-0.23,-0.045
2021-08-19 22:17:31.832,-0.255,-0.04
2021-08-19 22:17:31.836,-0.24,0.0
2021-08-19 22:17:31.840,-0.24,-0.035
2021-08-19 22:17:31.844,-0.255,-0.01
2021-08-19 22:17:31.848,-0.255,-0.015
2021-08-19 22:17:31.852,-0.285,-0.005
2021-08-19 22:17:31.856,-0.285,0.005
2021-08-19 22:17:31.860,-0.295,0.015
2021-08-19 22:17:31.864,-0.305,0.06
2021-08-19 22:17:31.868,-0.32,0.06
2021-08-19 22:17:31.872,-0.31,0.05
2021-08-19 22:17:31.876,-0.285,0.065
2021-08-19 22:17:31.880,-0.295,0.07
2021-08-19 22:17:31.884,-0.3,0.055
2021-08-19 22:17:31.888,-0.315,0.065
2021-08-19 22:17:31.892,-0.295,0.105
2021-08-19 22:17:31.896,-0.31,0.1
2021-08-19 22:17:31.900,-0.285,0.075
2021-08-19 22:17:31.904,-0.305,0.065
2021-08-19 22:17:31.908,-0.305,0.06
2021-08-19 22:17:31.912,-0.305,0.025
2021-08-19 22:17:31.916,-0.33,0.05
2021-08-19 22:17:31.920,-0.315,0.025
2021-08-19 22:17:31.924,-0.31,0.02
2021-08-19 22:17:31.928,-0.315,0.02
2021-08-19 22:17:31.932,-0.335,0.0
2021-08-19 22:17:31.936,-0.315,-0.035
2021-08-19 22:17:31.940,-0.31,-0.035
2021-08-19 22:17:31.944,-0.315,-0.04
2021-08-19 22:17:31.948,-0.315,-0.06
2021-08-19 22:17:31.952,-0.29,-0.025
2021-08-19 22:17:31.956,-0.295,-0.05
2021-08-19 22:17:31.960,-0.27,-0.055
2021-08-19 22:17:31.964,-0.235,-0.04
2021-08-19 22:17:31.968,-0.17,-0.055
2021-08-19 22:17:31.972,-0.095,-0.065
2021-08-19 22:17:31.976,0.0,-0.045
2021-08-19 22:17:31.980,0.075,-0.075
2021-08-19 22:17:31.984,0.175,-0.095
2021-08-19 22:17:31.988,0.245,-0.155
2021-08-19 22:17:31.992,0.295,-0.185
2021-08-19 22:17:31.996,0.34,-0.19
2021-08-19 22:17:32.000,0.385,-0.225
2021-08-19 22:17:32.004,0.37,-0.27
2021-08-19 22:17:32.008,0.43,-0.345
2021-08-19 22:17:32.012,0.63,-0.485
2021-08-19 22:17:32.016,0.905,-0.71
2021-08-19 22:17:32.020,1.135,-0.935
2021-08-19 22:17:32.024,1.14,-1.105
2021-08-19 22:17:32.028,0.82,-1.105
2021-08-19 22:17:32.032,0.345,-0.835
2021-08-19 22:17:32.036,0.02,-0.495
2021-08-19 22:17:32.040,-0.185,-0.295
2021-08-19 22:17:32.044,-0.27,-0.14
2021-08-19 22:17:32.048,-0.315,-0.04
2021-08-19 22:17:32.052,-0.34,0.01
2021-08-19 22:17:32.056,-0.375,0.065
2021-08-19 22:17:32.060,-0.43,0.1
2021-08-19 22:17:32.064,-0.455,0.09
2021-08-19 22:17:32.068,-0.47,0.07
2021-08-19 22:17:32.072,-0.47,0.055
2021-08-19 22:17:32.076,-0.48,0.055
2021-08-19 22:17:32.080,-0.47,0.055
2021-08-19 22:17:32.084,-0.495,0.035
2021-08-19 22:17:32.088,-0.49,0.05
2021-08-19 22:17:32.092,-0.495,0.075
2021-08-19 22:17:32.096,-0.515,0.07
2021-08-19 22:17:32.100,-0.5,0.05
2021-08-19 22:17:32.104,-0.475,0.07
2021-08-19 22:17:32.108,-0.475,0.095
2021-08-19 22:17:32.112,-0.47,0.095
2021-08-19 22:17:32.116,-0.46,0.075
2021-08-19 22:17:32.120,-0.465,0.065
2021-08-19 22:17:32.124,-0.49,0.06
2021-08-19 22:17:32.128,-0.48,0.055
2021-08-19 22:17:32.132,-0.485,0.04
2021-08-19 22:17:32.136,-0.465,0.04
2021-08-19 22:17:32.140,-0.5,0.0
2021-08-19 22:17:32.144,-0.49,-0.005
2021-08-19 22:17:32.148,-0.48,-0.01
2021-08-19 22:17:32.152,-0.505,-0.005
2021-08-19 22:17:32.156,-0.51,-0.02
2021-08-19 22:17:32.160,-0.5,-0.02
2021-08-19 22:17:32.164,-0.49,-0.025
2021-08-19 22:17:32.168,-0.47,-0.02
2021-08-19 22:17:32.172,-0.47,-0.015
2021-08-19 22:17:32.176,-0.455,-0.04
2021-08-19 22:17:32.180,-0.43,-0.035
2021-08-19 22:17:32.184,-0.425,-0.025
2021-08-19 22:17:32.188,-0.4,-0.035
2021-08-19 22:17:32.192,-0.385,-0.05
2021-08-19 22:17:32.196,-0.375,-0.015
2021-08-19 22:17:32.200,-0.33,-0.005
2021-08-19 22:17:32.204,-0.305,-0.01
2021-08-19 22:17:32.208,-0.305,-0.025
2021-08-19 22:17:32.212,-0.28,-0.015
2021-08-19 22:17:32.216,-0.26,-0.025
2021-08-19 22:17:32.220,-0.26,-0.025
2021-08-19 22:17:32.224,-0.24,-0.03
2021-08-19 22:17:32.228,-0.26,-0.035
2021-08-19 22:17:32.232,-0.235,-0.02
2021-08-19 22:17:32.236,-0.22,-0.035
2021-08-19 22:17:32.240,-0.19,-0.04
2021-08-19 22:17:32.244,-0.2,-0.04
2021-08-19 22:17:32.248,-0.185,-0.05
2021-08-19 22:17:32.252,-0.2,-0.045
2021-08-19 22:17:32.256,-0.21,-0.075
2021-08-19 22:17:32.260,-0.225,-0.07
2021-08-19 22:17:32.264,-0.22,-0.075
2021-08-19 22:17:32.268,-0.24,-0.085
2021-08-19 22:17:32.272,-0.245,-0.08
2021-08-19 22:17:32.276,-0.245,-0.085
2021-08-19 22:17:32.280,-0.285,-0.055
2021-08-19 22:17:32.284,-0.255,-0.065
2021-08-19 22:17:32.288,-0.265,-0.09
2021-08-19 22:17:32.292,-0.275,-0.07
2021-08-19 22:17:32.296,-0.255,-0.1
2021-08-19 22:17:32.300,-0.25,-0.09
2021-08-19 22:17:32.304,-0.275,-0.075
2021-08-19 22:17:32.308,-0.27,-0.07
2021-08-19 22:17:32.312,-0.29,-0.08
2021-08-19 22:17:32.316,-0.29,-0.075
2021-08-19 22:17:32.320,-0.29,-0.07
2021-08-19 22:17:32.324,-0.275,-0.055
2021-08-19 22:17:32.328,-0.245,-0.085
2021-08-19 22:17:32.332,-0.24,-0.085
2021-08-19 22:17:32.336,-0.24,-0.085
2021-08-19 22:17:32.340,-0.255,-0.09
2021-08-19 22:17:32.344,-0.24,-0.095
2021-08-19 22:17:32.348,-0.22,-0.105
2021-08-19 22:17:32.352,-0.245,-0.095
2021-08-19 22:17:32.356,-0.245,-0.115
2021-08-19 22:17:32.360,-0.21,-0.135
2021-08-19 22:17:32.364,-0.225,-0.125
2021-08-19 22:17:32.368,-0.225,-0.13
2021-08-19 22:17:32.372,-0.245,-0.15
2021-08-19 22:17:32.376,-0.245,-0.135
2021-08-19 22:17:32.380,-0.24,-0.13
2021-08-19 22:17:32.384,-0.235,-0.135
2021-08-19 22:17:32.388,-0.215,-0.165
2021-08-19 22:17:32.392,-0.2,-0.13
2021-08-19 22:17:32.396,-0.195,-0.145
2021-08-19 22:17:32.400,-0.18,-0.14
2021-08-19 22:17:32.404,-0.14,-0.135
2021-08-19 22:17:32.408,-0.14,-0.12
2021-08-19 22:17:32.412,-0.125,-0.125
2021-08-19 22:17:32.416,-0.11,-0.12
2021-08-19 22:17:32.420,-0.125,-0.105
2021-08-19 22:17:32.424,-0.12,-0.09
2021-08-19 22:17:32.428,-0.095,-0.11
2021-08-19 22:17:32.432,-0.105,-0.08
2021-08-19 22:17:32.436,-0.08,-0.09
2021-08-19 22:17:32.440,-0.085,-0.1
2021-08-19 22:17:32.444,-0.07,-0.085
2021-08-19 22:17:32.448,-0.06,-0.085
2021-08-19 22:17:32.452,-0.08,-0.065
2021-08-19 22:17:32.456,-0.07,-0.07
2021-08-19 22:17:32.460,-0.095,-0.06
2021-08-19 22:17:32.464,-0.1,-0.08
2021-08-19 22:17:32.468,-0.14,-0.08
2021-08-19 22:17:32.472,-0.14,-0.07
2021-08-19 22:17:32.476,-0.13,-0.08
2021-08-19 22:17:32.480,-0.135,-0.07
2021-08-19 22:17:32.484,-0.16,-0.065
2021-08-19 22:17:32.488,-0.16,-0.055
2021-08-19 22:17:32.492,-0.155,-0.055
2021-08-19 22:17:32.496,-0.15,-0.05
2021-08-19 22:17:32.500,-0.135,-0.055
2021-08-19 22:17:32.504,-0.075,-0.07
2021-08-19 22:17:32.508,-0.02,-0.055
2021-08-19 22:17:32.512,0.07,-0.095
2021-08-19 22:17:32.516,0.14,-0.125
2021-08-19 22:17:32.520,0.215,-0.155
2021-08-19 22:17:32.524,0.26,-0.21
2021-08-19 22:17:32.528,0.31,-0.24
2021-08-19 22:17:32.532,0.33,-0.225
2021-08-19 22:17:32.536,0.295,-0.275
2021-08-19 22:17:32.540,0.335,-0.36
2021-08-19 22:17:32.544,0.47,-0.485
2021-08-19 22:17:32.548,0.735,-0.68
2021-08-19 22:17:32.552,1.03,-0.895
2021-08-19 22:17:32.556,1.13,-1.09
2021-08-19 22:17:32.560,0.94,-1.155
2021-08-19 22:17:32.564,0.495,-0.95
2021-08-19 22:17:32.568,0.1,-0.64
2021-08-19 22:17:32.572,-0.115,-0.395
2021-08-19 22:17:32.576,-0.18,-0.24
2021-08-19 22:17:32.580,-0.25,-0.155
2021-08-19 22:17:32.584,-0.27,-0.07
2021-08-19 22:17:32.588,-0.29,-0.015
2021-08-19 22:17:32.592,-0.35,0.025
2021-08-19 22:17:32.596,-0.36,0.015
2021-08-19 22:17:32.600,-0.355,0.03
2021-08-19 22:17:32.604,-0.34,0.025
2021-08-19 22:17:32.608,-0.32,0.015
2021-08-19 22:17:32.612,-0.32,0.015
2021-08-19 22:17:32.616,-0.305,-0.005
2021-08-19 22:17:32.620,-0.305,0.01
2021-08-19 22:17:32.624,-0.31,0.03
2021-08-19 22:17:32.628,-0.305,0.02
2021-08-19 22:17:32.632,-0.29,0.05
2021-08-19 22:17:32.636,-0.295,0.055
2021-08-19 22:17:32.640,-0.305,0.04
2021-08-19 22:17:32.644,-0.31,0.04
2021-08-19 22:17:32.648,-0.32,0.06
2021-08-19 22:17:32.652,-0.3,0.055
2021-08-19 22:17:32.656,-0.29,0.045
2021-08-19 22:17:32.660,-0.295,0.09
2021-08-19 22:17:32.664,-0.31,0.09
2021-08-19 22:17:32.668,-0.32,0.08
2021-08-19 22:17:32.672,-0.31,0.085
2021-08-19 22:17:32.676,-0.32,0.08
2021-08-19 22:17:32.680,-0.36,0.095
2021-08-19 22:17:32.684,-0.37,0.095
2021-08-19 22:17:32.688,-0.385,0.09
2021-08-19 22:17:32.692,-0.41,0.11
2021-08-19 22:17:32.696,-0.425,0.12
2021-08-19 22:17:32.700,-0.415,0.125
2021-08-19 22:17:32.704,-0.435,0.135
2021-08-19 22:17:32.708,-0.45,0.14
2021-08-19 22:17:32.712,-0.465,0.125
2021-08-19 22:17:32.716,-0.48,0.14
2021-08-19 22:17:32.720,-0.495,0.125
2021-08-19 22:17:32.724,-0.53,0.155
2021-08-19 22:17:32.728,-0.52,0.125
2021-08-19 22:17:32.732,-0.515,0.13
2021-08-19 22:17:32.736,-0.51,0.11
2021-08-19 22:17:32.740,-0.51,0.115
2021-08-19 22:17:32.744,-0.5,0.095
2021-08-19 22:17:32.748,-0.505,0.065
2021-08-19 22:17:32.752,-0.52,0.045
2021-08-19 22:17:32.756,-0.515,0.06
2021-08-19 22:17:32.760,-0.525,0.035
2021-08-19 22:17:32.764,-0.495,0.015
2021-08-19 22:17:32.768,-0.465,0.015
2021-08-19 22:17:32.772,-0.44,-0.01
2021-08-19 22:17:32.776,-0.42,-0.01
2021-08-19 22:17:32.780,-0.38,-0.02
2021-08-19 22:17:32.784,-0.36,-0.05
2021-08-19 22:17:32.788,-0.36,-0.065
2021-08-19 22:17:32.792,-0.36,-0.065
2021-08-19 22:17:32.796,-0.345,-0.095
2021-08-19 22:17:32.800,-0.3,-0.085
2021-08-19 22:17:32.804,-0.28,-0.115
2021-08-19 22:17:32.808,-0.24,-0.105
2021-08-19 22:17:32.812,-0.22,-0.105
2021-08-19 22:17:32.816,-0.175,-0.105
2021-08-19 22:17:32.820,-0.195,-0.09
2021-08-19 22:17:32.824,-0.195,-0.085
2021-08-19 22:17:32.828,-0.18,-0.07
2021-08-19 22:17:32.832,-0.17,-0.065
2021-08-19 22:17:32.836,-0.165,-0.065
2021-08-19 22:17:32.840,-0.16,-0.05
2021-08-19 22:17:32.844,-0.17,-0.05
2021-08-19 22:17:32.848,-0.14,-0.045
2021-08-19 22:17:32.852,-0.135,-0.04
2021-08-19 22:17:32.856,-0.135,-0.025
2021-08-19 22:17:32.860,-0.13,-0.035
2021-08-19 22:17:32.864,-0.13,-0.035
2021-08-19 22:17:32.868,-0.125,-0.01
2021-08-19 22:17:32.872,-0.12,-0.02
2021-08-19 22:17:32.876,-0.13,0.0
2021-08-19 22:17:32.880,-0.125,0.015
2021-08-19 22:17:32.884,-0.135,-0.005
2021-08-19 22:17:32.888,-0.125,0.0
2021-08-19 22:17:32.892,-0.125,0.01
2021-08-19 22:17:32.896,-0.165,0.035
2021-08-19 22:17:32.900,-0.155,0.015
2021-08-19 22:17:32.904,-0.185,0.04
2021-08-19 22:17:32.908,-0.18,0.07
2021-08-19 22:17:32.912,-0.19,0.055
2021-08-19 22:17:32.916,-0.205,0.05
2021-08-19 22:17:32.920,-0.195,0.05
2021-08-19 22:17:32.924,-0.19,0.055
2021-08-19 22:17:32.928,-0.24,0.055
2021-08-19 22:17:32.932,-0.23,0.055
2021-08-19 22:17:32.936,-0.27,0.055
2021-08-19 22:17:32.940,-0.28,0.03
2021-08-19 22:17:32.944,-0.285,0.03
2021-08-19 22:17:32.948,-0.29,0.05
2021-08-19 22:17:32.952,-0.27,0.025
2021-08-19 22:17:32.956,-0.305,0.01
2021-08-19 22:17:32.960,-0.3,0.025
2021-08-19 22:17:32.964,-0.295,0.005
2021-08-19 22:17:32.968,-0.285,-0.015
2021-08-19 22:17:32.972,-0.295,-0.01
2021-08-19 22:17:32.976,-0.285,-0.01
2021-08-19 22:17:32.980,-0.285,-0.02
2021-08-19 22:17:32.984,-0.28,-0.035
2021-08-19 22:17:32.988,-0.295,0.0
2021-08-19 22:17:32.992,-0.305,-0.01
2021-08-19 22:17:32.996,-0.27,0.005
2021-08-19 22:17:33.000,-0.27,-0.005
2021-08-19 22:17:33.004,-0.24,0.0
2021-08-19 22:17:33.008,-0.24,-0.015
2021-08-19 22:17:33.012,-0.235,-0.005
2021-08-19 22:17:33.016,-0.19,0.0
2021-08-19 22:17:33.020,-0.17,0.0
2021-08-19 22:17:33.024,-0.08,-0.035
2021-08-19 22:17:33.028,-0.015,-0.045
2021-08-19 22:17:33.032,0.09,-0.065
2021-08-19 22:17:33.036,0.165,-0.075
2021-08-19 22:17:33.040,0.2,-0.14
2021-08-19 22:17:33.044,0.245,-0.205
2021-08-19 22:17:33.048,0.285,-0.21
2021-08-19 22:17:33.052,0.305,-0.215
2021-08-19 22:17:33.056,0.305,-0.28
2021-08-19 22:17:33.060,0.35,-0.36
2021-08-19 22:17:33.064,0.46,-0.545
2021-08-19 22:17:33.068,0.74,-0.7
2021-08-19 22:17:33.072,1.06,-0.97
2021-08-19 22:17:33.076,1.245,-1.2
2021-08-19 22:17:33.080,1.205,-1.315
2021-08-19 22:17:33.084,0.88,-1.17
2021-08-19 22:17:33.088,0.39,-0.85
2021-08-19 22:17:33.092,0.02,-0.485
2021-08-19 22:17:33.096,-0.16,-0.24
2021-08-19 22:17:33.100,-0.21,-0.1
2021-08-19 22:17:33.104,-0.235,-0.01
2021-08-19 22:17:33.108,-0.225,0.045
2021-08-19 22:17:33.112,-0.26,0.075
2021-08-19 22:17:33.116,-0.27,0.105
2021-08-19 22:17:33.120,-0.295,0.115
2021-08-19 22:17:33.124,-0.3,0.125
2021-08-19 22:17:33.128,-0.29,0.12
2021-08-19 22:17:33.132,-0.31,0.11
2021-08-19 22:17:33.136,-0.32,0.14
2021-08-19 22:17:33.140,-0.35,0.135
2021-08-19 22:17:33.144,-0.365,0.135
2021-08-19 22:17:33.148,-0.35,0.135
2021-08-19 22:17:33.152,-0.37,0.14
2021-08-19 22:17:33.156,-0.405,0.135
2021-08-19 22:17:33.160,-0.395,0.125
2021-08-19 22:17:33.164,-0.41,0.125
2021-08-19 22:17:33.168,-0.41,0.095
2021-08-19 22:17:33.172,-0.42,0.12
2021-08-19 22:17:33.176,-0.42,0.12
2021-08-19 22:17:33.180,-0.415,0.125
2021-08-19 22:17:33.184,-0.41,0.09
2021-08-19 22:17:33.188,-0.435,0.12
2021-08-19 22:17:33.192,-0.42,0.085
2021-08-19 22:17:33.196,-0.425,0.085
2021-08-19 22:17:33.200,-0.435,0.11
2021-08-19 22:17:33.204,-0.43,0.09
2021-08-19 22:17:33.208,-0.425,0.09
2021-08-19 22:17:33.212,-0.425,0.11
2021-08-19 22:17:33.216,-0.42,0.125
2021-08-19 22:17:33.220,-0.41,0.115
2021-08-19 22:17:33.224,-0.4,0.12
2021-08-19 22:17:33.228,-0.395,0.13
2021-08-19 22:17:33.232,-0.38,0.14
2021-08-19 22:17:33.236,-0.38,0.13
2021-08-19 22:17:33.240,-0.37,0.155
2021-08-19 22:17:33.244,-0.34,0.14
2021-08-19 22:17:33.248,-0.335,0.155
2021-08-19 22:17:33.252,-0.35,0.155
2021-08-19 22:17:33.256,-0.33,0.16
2021-08-19 22:17:33.260,-0.31,0.16
2021-08-19 22:17:33.264,-0.3,0.155
2021-08-19 22:17:33.268,-0.31,0.15
2021-08-19 22:17:33.272,-0.275,0.14
2021-08-19 22:17:33.276,-0.26,0.085
2021-08-19 22:17:33.280,-0.25,0.075
2021-08-19 22:17:33.284,-0.22,0.065
2021-08-19 22:17:33.288,-0.195,0.07
2021-08-19 22:17:33.292,-0.155,0.06
2021-08-19 22:17:33.296,-0.13,0.04
2021-08-19 22:17:33.300,-0.135,0.04
2021-08-19 22:17:33.304,-0.125,0.02
2021-08-19 22:17:33.308,-0.11,0.0
2021-08-19 22:17:33.312,-0.105,0.005
2021-08-19 22:17:33.316,-0.12,0.0
2021-08-19 22:17:33.320,-0.12,-0.005
2021-08-19 22:17:33.324,-0.105,0.01
2021-08-19 22:17:33.328,-0.1,0.0
2021-08-19 22:17:33.332,-0.085,0.0
2021-08-19 22:17:33.336,-0.09,0.0
2021-08-19 22:17:33.340,-0.095,-0.015
2021-08-19 22:17:33.344,-0.12,-0.005
2021-08-19 22:17:33.348,-0.145,0.005
2021-08-19 22:17:33.352,-0.125,0.005
2021-08-19 22:17:33.356,-0.13,0.015
2021-08-19 22:17:33.360,-0.14,0.04
2021-08-19 22:17:33.364,-0.17,0.025
2021-08-19 22:17:33.368,-0.14,0.015
2021-08-19 22:17:33.372,-0.155,0.01
2021-08-19 22:17:33.376,-0.16,0.015
2021-08-19 22:17:33.380,-0.16,0.03
2021-08-19 22:17:33.384,-0.17,0.0
2021-08-19 22:17:33.388,-0.185,-0.005
2021-08-19 22:17:33.392,-0.205,0.0
2021-08-19 22:17:33.396,-0.225,0.005
2021-08-19 22:17:33.400,-0.225,0.005
2021-08-19 22:17:33.404,-0.23,0.0
2021-08-19 22:17:33.408,-0.22,-0.025
2021-08-19 22:17:33.412,-0.24,-0.005
2021-08-19 22:17:33.416,-0.23,-0.03
2021-08-19 22:17:33.420,-0.24,0.0
2021-08-19 22:17:33.424,-0.2,0.0
2021-08-19 22:17:33.428,-0.205,0.005
2021-08-19 22:17:33.432,-0.2,0.0
2021-08-19 22:17:33.436,-0.21,0.0
2021-08-19 22:17:33.440,-0.215,0.0
2021-08-19 22:17:33.444,-0.195,0.01
2021-08-19 22:17:33.448,-0.18,0.005
2021-08-19 22:17:33.452,-0.165,0.015
2021-08-19 22:17:33.456,-0.16,0.005
2021-08-19 22:17:33.460,-0.14,0.02
2021-08-19 22:17:33.464,-0.16,0.025
2021-08-19 22:17:33.468,-0.16,0.025
2021-08-19 22:17:33.472,-0.13,0.03
2021-08-19 22:17:33.476,-0.155,0.045
2021-08-19 22:17:33.480,-0.14,0.025
2021-08-19 22:17:33.484,-0.135,0.06
2021-08-19 22:17:33.488,-0.14,0.04
2021-08-19 22:17:33.492,-0.135,0.045
2021-08-19 22:17:33.496,-0.145,0.07
2021-08-19 22:17:33.500,-0.13,0.065
2021-08-19 22:17:33.504,-0.13,0.05
2021-08-19 22:17:33.508,-0.135,0.05
2021-08-19 22:17:33.512,-0.115,0.05
2021-08-19 22:17:33.516,-0.1,0.015
2021-08-19 22:17:33.520,-0.08,0.025
2021-08-19 22:17:33.524,-0.065,0.035
2021-08-19 22:17:33.528,-0.07,0.015
2021-08-19 22:17:33.532,-0.03,0.0
2021-08-19 22:17:33.536,-0.06,-0.025
2021-08-19 22:17:33.540,-0.06,-0.015
2021-08-19 22:17:33.544,-0.06,-0.03
2021-08-19 22:17:33.548,-0.075,-0.02
2021-08-19 22:17:33.552,-0.08,-0.04
2021-08-19 22:17:33.556,-0.05,-0.03
2021-08-19 22:17:33.560,-0.03,-0.025
2021-08-19 22:17:33.564,-0.025,-0.02
2021-08-19 22:17:33.568,0.035,-0.035
2021-08-19 22:17:33.572,0.11,-0.025
2021-08-19 22:17:33.576,0.19,-0.05
2021-08-19 22:17:33.580,0.215,-0.075
2021-08-19 22:17:33.584,0.27,-0.105
2021-08-19 22:17:33.588,0.3,-0.155
2021-08-19 22:17:33.592,0.315,-0.17
2021-08-19 22:17:33.596,0.31,-0.215
2021-08-19 22:17:33.600,0.315,-0.315
2021-08-19 22:17:33.604,0.355,-0.45
2021-08-19 22:17:33.608,0.555,-0.625
2021-08-19 22:17:33.612,0.835,-0.84
2021-08-19 22:17:33.616,1.08,-1.08
2021-08-19 22:17:33.620,1.11,-1.28
2021-08-19 22:17:33.624,0.875,-1.27
2021-08-19 22:17:33.628,0.385,-1.025
2021-08-19 22:17:33.632,-0.045,-0.65
2021-08-19 22:17:33.636,-0.235,-0.355
2021-08-19 22:17:33.640,-0.32,-0.19
2021-08-19 22:17:33.644,-0.33,-0.08
2021-08-19 22:17:33.648,-0.34,-0.025
2021-08-19 22:17:33.652,-0.33,0.025
2021-08-19 22:17:33.656,-0.345,0.035
2021-08-19 22:17:33.660,-0.32,0.05
2021-08-19 22:17:33.664,-0.325,0.065
2021-08-19 22:17:33.668,-0.31,0.025
2021-08-19 22:17:33.672,-0.285,0.015
2021-08-19 22:17:33.676,-0.305,0.01
2021-08-19 22:17:33.680,-0.305,0.02
2021-08-19 22:17:33.684,-0.29,0.035
2021-08-19 22:17:33.688,-0.3,0.05
2021-08-19 22:17:33.692,-0.295,0.06
2021-08-19 22:17:33.696,-0.305,0.075
2021-08-19 22:17:33.700,-0.295,0.055
2021-08-19 22:17:33.704,-0.285,0.095
2021-08-19 22:17:33.708,-0.3,0.09
2021-08-19 22:17:33.712,-0.3,0.105
2021-08-19 22:17:33.716,-0.305,0.09
2021-08-19 22:17:33.720,-0.3,0.09
2021-08-19 22:17:33.724,-0.335,0.11
2021-08-19 22:17:33.728,-0.33,0.12
2021-08-19 22:17:33.732,-0.335,0.125
2021-08-19 22:17:33.736,-0.35,0.1
2021-08-19 22:17:33.740,-0.345,0.07
2021-08-19 22:17:33.744,-0.355,0.075
2021-08-19 22:17:33.748,-0.34,0.07
2021-08-19 22:17:33.752,-0.345,0.06
2021-08-19 22:17:33.756,-0.345,0.055
2021-08-19 22:17:33.760,-0.32,0.035
2021-08-19 22:17:33.764,-0.345,0.04
2021-08-19 22:17:33.768,-0.35,0.045
2021-08-19 22:17:33.772,-0.345,0.045
2021-08-19 22:17:33.776,-0.37,0.04
2021-08-19 22:17:33.780,-0.365,0.055
2021-08-19 22:17:33.784,-0.37,0.04
2021-08-19 22:17:33.788,-0.345,0.025
2021-08-19 22:17:33.792,-0.335,0.035
2021-08-19 22:17:33.796,-0.35,0.055
2021-08-19 22:17:33.800,-0.34,0.05
2021-08-19 22:17:33.804,-0.34,0.065
2021-08-19 22:17:33.808,-0.335,0.05
2021-08-19 22:17:33.812,-0.325,0.03
2021-08-19 22:17:33.816,-0.33,0.015
2021-08-19 22:17:33.820,-0.315,0.025
2021-08-19 22:17:33.824,-0.335,0.0
2021-08-19 22:17:33.828,-0.32,0.0
2021-08-19 22:17:33.832,-0.335,-0.035
2021-08-19 22:17:33.836,-0.33,-0.06
2021-08-19 22:17:33.840,-0.34,-0.06
2021-08-19 22:17:33.844,-0.31,-0.055
2021-08-19 22:17:33.848,-0.325,-0.095
2021-08-19 22:17:33.852,-0.305,-0.1
2021-08-19 22:17:33.856,-0.315,-0.12
2021-08-19 22:17:33.860,-0.29,-0.1
2021-08-19 22:17:33.864,-0.26,-0.095
2021-08-19 22:17:33.868,-0.255,-0.12
2021-08-19 22:17:33.872,-0.25,-0.105
2021-08-19 22:17:33.876,-0.235,-0.095
2021-08-19 22:17:33.880,-0.225,-0.11
2021-08-19 22:17:33.884,-0.2,-0.125
2021-08-19 22:17:33.888,-0.2,-0.1
2021-08-19 22:17:33.892,-0.18,-0.11
2021-08-19 22:17:33.896,-0.155,-0.07
2021-08-19 22:17:33.900,-0.14,-0.08
2021-08-19 22:17:33.904,-0.12,-0.08
2021-08-19 22:17:33.908,-0.135,-0.06
2021-08-19 22:17:33.912,-0.125,-0.05
2021-08-19 22:17:33.916,-0.125,-0.035
2021-08-19 22:17:33.920,-0.125,-0.025
2021-08-19 22:17:33.924,-0.115,-0.005
2021-08-19 22:17:33.928,-0.12,-0.005
2021-08-19 22:17:33.932,-0.115,0.015
2021-08-19 22:17:33.936,-0.08,0.025
2021-08-19 22:17:33.940,-0.115,0.025
2021-08-19 22:17:33.944,-0.115,0.02
2021-08-19 22:17:33.948,-0.12,0.04
2021-08-19 22:17:33.952,-0.145,0.055
2021-08-19 22:17:33.956,-0.155,0.075
2021-08-19 22:17:33.960,-0.16,0.05
2021-08-19 22:17:33.964,-0.16,0.05
2021-08-19 22:17:33.968,-0.18,0.055
2021-08-19 22:17:33.972,-0.195,0.065
2021-08-19 22:17:33.976,-0.205,0.06
2021-08-19 22:17:33.980,-0.21,0.03
2021-08-19 22:17:33.984,-0.175,0.035
2021-08-19 22:17:33.988,-0.18,0.025
2021-08-19 22:17:33.992,-0.165,0.025
2021-08-19 22:17:33.996,-0.155,-0.005
2021-08-19 22:17:34.000,-0.165,0.0
2021-08-19 22:17:34.004,-0.165,-0.025
2021-08-19 22:17:34.008,-0.16,-0.025
2021-08-19 22:17:34.012,-0.15,-0.025
2021-08-19 22:17:34.016,-0.16,-0.025
2021-08-19 22:17:34.020,-0.155,-0.02
2021-08-19 22:17:34.024,-0.16,-0.035
2021-08-19 22:17:34.028,-0.17,-0.02
2021-08-19 22:17:34.032,-0.18,-0.025
2021-08-19 22:17:34.036,-0.19,-0.04
2021-08-19 22:17:34.040,-0.18,-0.03
2021-08-19 22:17:34.044,-0.175,-0.03
2021-08-19 22:17:34.048,-0.19,-0.055
2021-08-19 22:17:34.052,-0.18,-0.075
2021-08-19 22:17:34.056,-0.145,-0.06
2021-08-19 22:17:34.060,-0.095,-0.08
2021-08-19 22:17:34.064,-0.025,-0.08
2021-08-19 22:17:34.068,0.045,-0.085
2021-08-19 22:17:34.072,0.095,-0.135
2021-08-19 22:17:34.076,0.125,-0.17
2021-08-19 22:17:34.080,0.175,-0.21
2021-08-19 22:17:34.084,0.21,-0.24
2021-08-19 22:17:34.088,0.26,-0.25
2021-08-19 22:17:34.092,0.25,-0.3
2021-08-19 22:17:34.096,0.265,-0.4
2021-08-19 22:17:34.100,0.39,-0.55
2021-08-19 22:17:34.104,0.645,-0.735
2021-08-19 22:17:34.108,0.955,-0.965
2021-08-19 22:17:34.112,1.18,-1.175
2021-08-19 22:17:34.116,1.135,-1.32
2021-08-19 22:17:34.120,0.815,-1.21
2021-08-19 22:17:34.124,0.335,-0.88
2021-08-19 22:17:34.128,0.0,-0.51
2021-08-19 22:17:34.132,-0.16,-0.28
2021-08-19 22:17:34.136,-0.255,-0.16
2021-08-19 22:17:34.140,-0.275,-0.075
2021-08-19 22:17:34.144,-0.26,0.0
2021-08-19 22:17:34.148,-0.28,0.075
2021-08-19 22:17:34.152,-0.245,0.095
2021-08-19 22:17:34.156,-0.275,0.1
2021-08-19 22:17:34.160,-0.28,0.11
2021-08-19 22:17:34.164,-0.295,0.085
2021-08-19 22:17:34.168,-0.315,0.095
2021-08-19 22:17:34.172,-0.315,0.09
2021-08-19 22:17:34.176,-0.315,0.085
2021-08-19 22:17:34.180,-0.345,0.085
2021-08-19 22:17:34.184,-0.375,0.095
2021-08-19 22:17:34.188,-0.39,0.085
2021-08-19 22:17:34.192,-0.415,0.095
2021-08-19 22:17:34.196,-0.42,0.1
2021-08-19 22:17:34.200,-0.42,0.09
2021-08-19 22:17:34.204,-0.435,0.1
2021-08-19 22:17:34.208,-0.465,0.075
2021-08-19 22:17:34.212,-0.465,0.065
2021-08-19 22:17:34.216,-0.46,0.08
2021-08-19 22:17:34.220,-0.465,0.09
2021-08-19 22:17:34.224,-0.44,0.09
2021-08-19 22:17:34.228,-0.43,0.09
2021-08-19 22:17:34.232,-0.42,0.07
2021-08-19 22:17:34.236,-0.395,0.075
2021-08-19 22:17:34.240,-0.4,0.065
2021-08-19 22:17:34.244,-0.405,0.05
2021-08-19 22:17:34.248,-0.395,0.045
2021-08-19 22:17:34.252,-0.425,0.005
2021-08-19 22:17:34.256,-0.405,0.005
2021-08-19 22:17:34.260,-0.39,0.015
2021-08-19 22:17:34.264,-0.38,0.01
2021-08-19 22:17:34.268,-0.375,0.02
2021-08-19 22:17:34.272,-0.4,0.005
2021-08-19 22:17:34.276,-0.39,-0.01
2021-08-19 22:17:34.280,-0.415,-0.03
2021-08-19 22:17:34.284,-0.41,-0.02
2021-08-19 22:17:34.288,-0.405,-0.015
2021-08-19 22:17:34.292,-0.4,-0.025
2021-08-19 22:17:34.296,-0.405,-0.025
2021-08-19 22:17:34.300,-0.41,0.0
2021-08-19 22:17:34.304,-0.4,-0.015
2021-08-19 22:17:34.308,-0.365,-0.04
2021-08-19 22:17:34.312,-0.36,-0.065
2021-08-19 22:17:34.316,-0.34,-0.07
2021-08-19 22:17:34.320,-0.335,-0.08
2021-08-19 22:17:34.324,-0.32,-0.09
2021-08-19 22:17:34.328,-0.3,-0.08
2021-08-19 22:17:34.332,-0.28,-0.095
2021-08-19 22:17:34.336,-0.245,-0.1
2021-08-19 22:17:34.340,-0.22,-0.115
2021-08-19 22:17:34.344,-0.195,-0.145
2021-08-19 22:17:34.348,-0.18,-0.13
2021-08-19 22:17:34.352,-0.16,-0.1
2021-08-19 22:17:34.356,-0.115,-0.12
2021-08-19 22:17:34.360,-0.12,-0.13
2021-08-19 22:17:34.364,-0.11,-0.13
2021-08-19 22:17:34.368,-0.08,-0.1
2021-08-19 22:17:34.372,-0.07,-0.075
2021-08-19 22:17:34.376,-0.055,-0.055
2021-08-19 22:17:34.380,-0.055,-0.055
2021-08-19 22:17:34.384,-0.05,-0.045
2021-08-19 22:17:34.388,-0.065,-0.025
2021-08-19 22:17:34.392,-0.06,-0.06
2021-08-19 22:17:34.396,-0.08,-0.03
2021-08-19 22:17:34.400,-0.1,-0.03
2021-08-19 22:17:34.404,-0.105,-0.045
2021-08-19 22:17:34.408,-0.125,-0.065
2021-08-19 22:17:34.412,-0.16,-0.02
2021-08-19 22:17:34.416,-0.2,-0.01
2021-08-19 22:17:34.420,-0.185,-0.055
2021-08-19 22:17:34.424,-0.21,-0.08
2021-08-19 22:17:34.428,-0.225,-0.06
2021-08-19 22:17:34.432,-0.24,-0.05
2021-08-19 22:17:34.436,-0.26,-0.03
2021-08-19 22:17:34.440,-0.255,-0.055
2021-08-19 22:17:34.444,-0.26,-0.05
2021-08-19 22:17:34.448,-0.275,-0.07
2021-08-19 22:17:34.452,-0.28,-0.085
2021-08-19 22:17:34.456,-0.265,-0.08
2021-08-19 22:17:34.460,-0.27,-0.085
2021-08-19 22:17:34.464,-0.265,-0.095
2021-08-19 22:17:34.468,-0.235,-0.11
2021-08-19 22:17:34.472,-0.215,-0.135
2021-08-19 22:17:34.476,-0.23,-0.14
2021-08-19 22:17:34.480,-0.225,-0.115
2021-08-19 22:17:34.484,-0.21,-0.125
2021-08-19 22:17:34.488,-0.22,-0.14
2021-08-19 22:17:34.492,-0.25,-0.13
2021-08-19 22:17:34.496,-0.24,-0.14
2021-08-19 22:17:34.500,-0.22,-0.155
2021-08-19 22:17:34.504,-0.2,-0.175
2021-08-19 22:17:34.508,-0.17,-0.175
2021-08-19 22:17:34.512,-0.2,-0.185
2021-08-19 22:17:34.516,-0.215,-0.175
2021-08-19 22:17:34.520,-0.23,-0.18
2021-08-19 22:17:34.524,-0.24,-0.185
2021-08-19 22:17:34.528,-0.25,-0.16
2021-08-19 22:17:34.532,-0.265,-0.18
2021-08-19 22:17:34.536,-0.23,-0.18
2021-08-19 22:17:34.540,-0.2,-0.165
2021-08-19 22:17:34.544,-0.2,-0.19
2021-08-19 22:17:34.548,-0.195,-0.2
2021-08-19 22:17:34.552,-0.18,-0.19
2021-08-19 22:17:34.556,-0.18,-0.2
2021-08-19 22:17:34.560,-0.18,-0.205
2021-08-19 22:17:34.564,-0.165,-0.19
2021-08-19 22:17:34.568,-0.145,-0.205
2021-08-19 22:17:34.572,-0.115,-0.2
2021-08-19 22:17:34.576,-0.105,-0.195
2021-08-19 22:17:34.580,-0.08,-0.185
2021-08-19 22:17:34.584,-0.06,-0.16
2021-08-19 22:17:34.588,-0.035,-0.17
2021-08-19 22:17:34.592,-0.035,-0.145
2021-08-19 22:17:34.596,-0.035,-0.155
2021-08-19 22:17:34.600,-0.005,-0.16
2021-08-19 22:17:34.604,0.005,-0.15
2021-08-19 22:17:34.608,0.015,-0.125
2021-08-19 22:17:34.612,0.05,-0.125
2021-08-19 22:17:34.616,0.105,-0.125
2021-08-19 22:17:34.620,0.18,-0.13
2021-08-19 22:17:34.624,0.25,-0.145
2021-08-19 22:17:34.628,0.315,-0.185
2021-08-19 22:17:34.632,0.34,-0.255
2021-08-19 22:17:34.636,0.41,-0.285
2021-08-19 22:17:34.640,0.45,-0.3
2021-08-19 22:17:34.644,0.445,-0.3
2021-08-19 22:17:34.648,0.415,-0.375
2021-08-19 22:17:34.652,0.49,-0.48
2021-08-19 22:17:34.656,0.705,-0.61
2021-08-19 22:17:34.660,0.975,-0.815
2021-08-19 22:17:34.664,1.135,-1.035
2021-08-19 22:17:34.668,1.05,-1.18
2021-08-19 22:17:34.672,0.675,-1.095
2021-08-19 22:17:34.676,0.22,-0.825
2021-08-19 22:17:34.680,-0.08,-0.525
2021-08-19 22:17:34.684,-0.195,-0.36
2021-08-19 22:17:34.688,-0.255,-0.29
2021-08-19 22:17:34.692,-0.27,-0.185
2021-08-19 22:17:34.696,-0.28,-0.11
2021-08-19 22:17:34.700,-0.285,-0.09
2021-08-19 22:17:34.704,-0.35,-0.075
2021-08-19 22:17:34.708,-0.35,-0.09
2021-08-19 22:17:34.712,-0.38,-0.105
2021-08-19 22:17:34.716,-0.375,-0.145
2021-08-19 22:17:34.720,-0.375,-0.15
2021-08-19 22:17:34.724,-0.38,-0.18
2021-08-19 22:17:34.728,-0.4,-0.18
2021-08-19 22:17:34.732,-0.4,-0.19
2021-08-19 22:17:34.736,-0.435,-0.22
2021-08-19 22:17:34.740,-0.425,-0.2
2021-08-19 22:17:34.744,-0.46,-0.205
2021-08-19 22:17:34.748,-0.45,-0.18
2021-08-19 22:17:34.752,-0.435,-0.19
2021-08-19 22:17:34.756,-0.43,-0.205
2021-08-19 22:17:34.760,-0.44,-0.21
2021-08-19 22:17:34.764,-0.39,-0.215
2021-08-19 22:17:34.768,-0.42,-0.225
2021-08-19 22:17:34.772,-0.42,-0.23
2021-08-19 22:17:34.776,-0.43,-0.235
2021-08-19 22:17:34.780,-0.4,-0.24
2021-08-19 22:17:34.784,-0.42,-0.23
2021-08-19 22:17:34.788,-0.435,-0.22
2021-08-19 22:17:34.792,-0.42,-0.225
2021-08-19 22:17:34.796,-0.385,-0.21
2021-08-19 22:17:34.800,-0.37,-0.175
2021-08-19 22:17:34.804,-0.34,-0.165
2021-08-19 22:17:34.808,-0.335,-0.18
2021-08-19 22:17:34.812,-0.3,-0.165
2021-08-19 22:17:34.816,-0.32,-0.14
2021-08-19 22:17:34.820,-0.31,-0.1
2021-08-19 22:17:34.824,-0.315,-0.09
2021-08-19 22:17:34.828,-0.335,-0.085
2021-08-19 22:17:34.832,-0.305,-0.07
2021-08-19 22:17:34.836,-0.295,-0.07
2021-08-19 22:17:34.840,-0.32,-0.07
2021-08-19 22:17:34.844,-0.32,-0.065
2021-08-19 22:17:34.848,-0.33,-0.1
2021-08-19 22:17:34.852,-0.32,-0.1
2021-08-19 22:17:34.856,-0.375,-0.1
2021-08-19 22:17:34.860,-0.37,-0.095
2021-08-19 22:17:34.864,-0.37,-0.13
2021-08-19 22:17:34.868,-0.365,-0.12
2021-08-19 22:17:34.872,-0.385,-0.14
2021-08-19 22:17:34.876,-0.4,-0.14
2021-08-19 22:17:34.880,-0.395,-0.15
2021-08-19 22:17:34.884,-0.405,-0.165
2021-08-19 22:17:34.888,-0.395,-0.155
2021-08-19 22:17:34.892,-0.4,-0.165
2021-08-19 22:17:34.896,-0.385,-0.185
2021-08-19 22:17:34.900,-0.37,-0.155
2021-08-19 22:17:34.904,-0.355,-0.16
2021-08-19 22:17:34.908,-0.32,-0.2
2021-08-19 22:17:34.912,-0.3,-0.2
2021-08-19 22:17:34.916,-0.28,-0.2
2021-08-19 22:17:34.920,-0.27,-0.23
2021-08-19 22:17:34.924,-0.25,-0.25
2021-08-19 22:17:34.928,-0.25,-0.23
2021-08-19 22:17:34.932,-0.24,-0.225
2021-08-19 22:17:34.936,-0.24,-0.245
2021-08-19 22:17:34.940,-0.22,-0.26
2021-08-19 22:17:34.944,-0.205,-0.275
2021-08-19 22:17:34.948,-0.18,-0.275
2021-08-19 22:17:34.952,-0.19,-0.265
2021-08-19 22:17:34.956,-0.195,-0.265
2021-08-19 22:17:34.960,-0.215,-0.275
2021-08-19 22:17:34.964,-0.205,-0.29
2021-08-19 22:17:34.968,-0.2,-0.26
2021-08-19 22:17:34.972,-0.2,-0.26
2021-08-19 22:17:34.976,-0.195,-0.245
2021-08-19 22:17:34.980,-0.19,-0.26
2021-08-19 22:17:34.984,-0.18,-0.245
2021-08-19 22:17:34.988,-0.19,-0.255
2021-08-19 22:17:34.992,-0.18,-0.26
2021-08-19 22:17:34.996,-0.165,-0.25
2021-08-19 22:17:35.000,-0.18,-0.24
2021-08-19 22:17:35.004,-0.165,-0.25
2021-08-19 22:17:35.008,-0.15,-0.22
2021-08-19 22:17:35.012,-0.135,-0.22
2021-08-19 22:17:35.016,-0.105,-0.22
2021-08-19 22:17:35.020,-0.09,-0.215
2021-08-19 22:17:35.024,-0.09,-0.195
2021-08-19 22:17:35.028,-0.08,-0.2
2021-08-19 22:17:35.032,-0.08,-0.16
2021-08-19 22:17:35.036,-0.075,-0.13
2021-08-19 22:17:35.040,-0.06,-0.135
2021-08-19 22:17:35.044,-0.06,-0.13
2021-08-19 22:17:35.048,-0.055,-0.13
2021-08-19 22:17:35.052,-0.065,-0.125
2021-08-19 22:17:35.056,-0.065,-0.125
2021-08-19 22:17:35.060,-0.08,-0.13
2021-08-19 22:17:35.064,-0.085,-0.105
2021-08-19 22:17:35.068,-0.1,-0.09
2021-08-19 22:17:35.072,-0.115,-0.12
2021-08-19 22:17:35.076,-0.115,-0.13
2021-08-19 22:17:35.080,-0.13,-0.115
2021-08-19 22:17:35.084,-0.15,-0.115
2021-08-19 22:17:35.088,-0.16,-0.11
2021-08-19 22:17:35.092,-0.175,-0.11
2021-08-19 22:17:35.096,-0.175,-0.09
2021-08-19 22:17:35.100,-0.195,-0.145
2021-08-19 22:17:35.104,-0.21,-0.11
2021-08-19 22:17:35.108,-0.21,-0.11
2021-08-19 22:17:35.112,-0.23,-0.1
2021-08-19 22:17:35.116,-0.225,-0.105
2021-08-19 22:17:35.120,-0.21,-0.105
2021-08-19 22:17:35.124,-0.18,-0.1
2021-08-19 22:17:35.128,-0.15,-0.11
2021-08-19 22:17:35.132,-0.06,-0.08
2021-08-19 22:17:35.136,0.05,-0.11
2021-08-19 22:17:35.140,0.145,-0.155
2021-08-19 22:17:35.144,0.225,-0.185
2021-08-19 22:17:35.148,0.27,-0.235
2021-08-19 22:17:35.152,0.325,-0.265
2021-08-19 22:17:35.156,0.37,-0.285
2021-08-19 22:17:35.160,0.36,-0.36
2021-08-19 22:17:35.164,0.37,-0.47
2021-08-19 22:17:35.168,0.495,-0.605
2021-08-19 22:17:35.172,0.74,-0.785
2021-08-19 22:17:35.176,1.06,-1.025
2021-08-19 22:17:35.180,1.245,-1.24
2021-08-19 22:17:35.184,1.135,-1.345
2021-08-19 22:17:35.188,0.73,-1.245
2021-08-19 22:17:35.192,0.245,-0.915
2021-08-19 22:17:35.196,-0.045,-0.555
2021-08-19 22:17:35.200,-0.16,-0.375
2021-08-19 22:17:35.204,-0.23,-0.255
2021-08-19 22:17:35.208,-0.23,-0.16
2021-08-19 22:17:35.212,-0.23,-0.095
2021-08-19 22:17:35.216,-0.27,-0.045
2021-08-19 22:17:35.220,-0.28,-0.02
2021-08-19 22:17:35.224,-0.28,-0.03
2021-08-19 22:17:35.228,-0.27,-0.03
2021-08-19 22:17:35.232,-0.315,-0.045
2021-08-19 22:17:35.236,-0.295,-0.035
2021-08-19 22:17:35.240,-0.26,-0.02
2021-08-19 22:17:35.244,-0.24,-0.005
2021-08-19 22:17:35.248,-0.23,-0.01
2021-08-19 22:17:35.252,-0.19,-0.005
2021-08-19 22:17:35.256,-0.17,0.04
2021-08-19 22:17:35.260,-0.195,0.05
2021-08-19 22:17:35.264,-0.2,0.065
2021-08-19 22:17:35.268,-0.2,0.07
2021-08-19 22:17:35.272,-0.205,0.055
2021-08-19 22:17:35.276,-0.245,0.09
2021-08-19 22:17:35.280,-0.26,0.08
2021-08-19 22:17:35.284,-0.27,0.085
2021-08-19 22:17:35.288,-0.27,0.075
2021-08-19 22:17:35.292,-0.315,0.075
2021-08-19 22:17:35.296,-0.32,0.085
2021-08-19 22:17:35.300,-0.365,0.095
2021-08-19 22:17:35.304,-0.37,0.07
2021-08-19 22:17:35.308,-0.4,0.09
2021-08-19 22:17:35.312,-0.42,0.105
2021-08-19 22:17:35.316,-0.43,0.1
2021-08-19 22:17:35.320,-0.46,0.08
2021-08-19 22:17:35.324,-0.475,0.08
2021-08-19 22:17:35.328,-0.52,0.12
2021-08-19 22:17:35.332,-0.48,0.11
2021-08-19 22:17:35.336,-0.48,0.135
2021-08-19 22:17:35.340,-0.47,0.09
2021-08-19 22:17:35.344,-0.5,0.125
2021-08-19 22:17:35.348,-0.475,0.13
2021-08-19 22:17:35.352,-0.49,0.13
2021-08-19 22:17:35.356,-0.47,0.135
2021-08-19 22:17:35.360,-0.485,0.125
2021-08-19 22:17:35.364,-0.455,0.13
2021-08-19 22:17:35.368,-0.445,0.095
2021-08-19 22:17:35.372,-0.42,0.08
2021-08-19 22:17:35.376,-0.41,0.065
2021-08-19 22:17:35.380,-0.41,0.065
2021-08-19 22:17:35.384,-0.4,0.045
2021-08-19 22:17:35.388,-0.395,0.04
2021-08-19 22:17:35.392,-0.345,0.03
2021-08-19 22:17:35.396,-0.31,0.0
2021-08-19 22:17:35.400,-0.29,0.005
2021-08-19 22:17:35.404,-0.285,-0.04
2021-08-19 22:17:35.408,-0.27,-0.04
2021-08-19 22:17:35.412,-0.29,-0.08
2021-08-19 22:17:35.416,-0.27,-0.08
2021-08-19 22:17:35.420,-0.26,-0.075
2021-08-19 22:17:35.424,-0.27,-0.085
2021-08-19 22:17:35.428,-0.25,-0.095
2021-08-19 22:17:35.432,-0.22,-0.105
2021-08-19 22:17:35.436,-0.21,-0.13
2021-08-19 22:17:35.440,-0.205,-0.145
2021-08-19 22:17:35.444,-0.18,-0.145
2021-08-19 22:17:35.448,-0.155,-0.12
2021-08-19 22:17:35.452,-0.14,-0.115
2021-08-19 22:17:35.456,-0.135,-0.12
2021-08-19 22:17:35.460,-0.145,-0.11
2021-08-19 22:17:35.464,-0.12,-0.12
2021-08-19 22:17:35.468,-0.1,-0.095
2021-08-19 22:17:35.472,-0.07,-0.08
2021-08-19 22:17:35.476,-0.085,-0.07
2021-08-19 22:17:35.480,-0.07,-0.035
2021-08-19 22:17:35.484,-0.045,-0.02
2021-08-19 22:17:35.488,-0.06,-0.01
2021-08-19 22:17:35.492,-0.075,-0.005
2021-08-19 22:17:35.496,-0.085,0.02
2021-08-19 22:17:35.500,-0.1,0.02
2021-08-19 22:17:35.504,-0.095,0.045
2021-08-19 22:17:35.508,-0.1,0.03
2021-08-19 22:17:35.512,-0.12,0.04
2021-08-19 22:17:35.516,-0.125,0.06
2021-08-19 22:17:35.520,-0.14,0.045
2021-08-19 22:17:35.524,-0.17,0.045
2021-08-19 22:17:35.528,-0.195,0.04
2021-08-19 22:17:35.532,-0.19,0.04
2021-08-19 22:17:35.536,-0.175,0.025
2021-08-19 22:17:35.540,-0.125,0.015
2021-08-19 22:17:35.544,-0.07,0.04
2021-08-19 22:17:35.548,0.0,0.015
2021-08-19 22:17:35.552,0.08,0.0
2021-08-19 22:17:35.556,0.11,-0.055
2021-08-19 22:17:35.560,0.12,-0.1
2021-08-19 22:17:35.564,0.17,-0.11
2021-08-19 22:17:35.568,0.195,-0.15
2021-08-19 22:17:35.572,0.155,-0.245
2021-08-19 22:17:35.576,0.23,-0.365
2021-08-19 22:17:35.580,0.47,-0.515
2021-08-19 22:17:35.584,0.805,-0.74
2021-08-19 22:17:35.588,1.105,-1.005
2021-08-19 22:17:35.592,1.25,-1.195
2021-08-19 22:17:35.596,1.12,-1.235
2021-08-19 22:17:35.600,0.76,-1.035
2021-08-19 22:17:35.604,0.255,-0.61
2021-08-19 22:17:35.608,-0.075,-0.285
2021-08-19 22:17:35.612,-0.22,-0.1
2021-08-19 22:17:35.616,-0.25,-0.02
2021-08-19 22:17:35.620,-0.295,0.07
2021-08-19 22:17:35.624,-0.305,0.115
2021-08-19 22:17:35.628,-0.32,0.13
2021-08-19 22:17:35.632,-0.32,0.14
2021-08-19 22:17:35.636,-0.325,0.14
2021-08-19 22:17:35.640,-0.34,0.125
2021-08-19 22:17:35.644,-0.335,0.13
2021-08-19 22:17:35.648,-0.345,0.095
2021-08-19 22:17:35.652,-0.355,0.105
2021-08-19 22:17:35.656,-0.37,0.105
2021-08-19 22:17:35.660,-0.345,0.09
2021-08-19 22:17:35.664,-0.38,0.055
2021-08-19 22:17:35.668,-0.375,0.03
2021-08-19 22:17:35.672,-0.34,0.025
2021-08-19 22:17:35.676,-0.36,0.0
2021-08-19 22:17:35.680,-0.34,0.0
2021-08-19 22:17:35.684,-0.36,-0.02
2021-08-19 22:17:35.688,-0.355,-0.02
2021-08-19 22:17:35.692,-0.35,-0.045
2021-08-19 22:17:35.696,-0.325,-0.01
2021-08-19 22:17:35.700,-0.33,-0.01
2021-08-19 22:17:35.704,-0.33,-0.01
2021-08-19 22:17:35.708,-0.325,0.015
2021-08-19 22:17:35.712,-0.325,0.035
2021-08-19 22:17:35.716,-0.325,0.04
2021-08-19 22:17:35.720,-0.35,0.06
2021-08-19 22:17:35.724,-0.355,0.095
2021-08-19 22:17:35.728,-0.39,0.08
2021-08-19 22:17:35.732,-0.39,0.08
2021-08-19 22:17:35.736,-0.41,0.075
2021-08-19 22:17:35.740,-0.44,0.1
2021-08-19 22:17:35.744,-0.455,0.09
2021-08-19 22:17:35.748,-0.465,0.1
2021-08-19 22:17:35.752,-0.485,0.09
2021-08-19 22:17:35.756,-0.495,0.08
2021-08-19 22:17:35.760,-0.49,0.105
2021-08-19 22:17:35.764,-0.46,0.105
2021-08-19 22:17:35.768,-0.46,0.085
2021-08-19 22:17:35.772,-0.47,0.07
2021-08-19 22:17:35.776,-0.46,0.09
2021-08-19 22:17:35.780,-0.44,0.05
2021-08-19 22:17:35.784,-0.42,0.05
2021-08-19 22:17:35.788,-0.435,0.055
2021-08-19 22:17:35.792,-0.41,0.035
2021-08-19 22:17:35.796,-0.38,0.035
2021-08-19 22:17:35.800,-0.375,0.045
2021-08-19 22:17:35.804,-0.35,0.02
2021-08-19 22:17:35.808,-0.345,0.02
2021-08-19 22:17:35.812,-0.345,0.02
2021-08-19 22:17:35.816,-0.32,0.015
2021-08-19 22:17:35.820,-0.29,0.005
2021-08-19 22:17:35.824,-0.285,0.015
2021-08-19 22:17:35.828,-0.29,0.01
2021-08-19 22:17:35.832,-0.28,-0.015
2021-08-19 22:17:35.836,-0.3,-0.015
2021-08-19 22:17:35.840,-0.245,0.005
2021-08-19 22:17:35.844,-0.24,-0.03
2021-08-19 22:17:35.848,-0.22,-0.01
2021-08-19 22:17:35.852,-0.24,-0.01
2021-08-19 22:17:35.856,-0.225,-0.03
2021-08-19 22:17:35.860,-0.225,-0.025
2021-08-19 22:17:35.864,-0.235,-0.01
2021-08-19 22:17:35.868,-0.24,-0.015
2021-08-19 22:17:35.872,-0.24,-0.02
2021-08-19 22:17:35.876,-0.23,0.0
2021-08-19 22:17:35.880,-0.215,-0.03
2021-08-19 22:17:35.884,-0.23,-0.015
2021-08-19 22:17:35.888,-0.215,-0.02
2021-08-19 22:17:35.892,-0.22,-0.035
2021-08-19 22:17:35.896,-0.19,-0.035
2021-08-19 22:17:35.900,-0.2,-0.02
2021-08-19 22:17:35.904,-0.185,-0.03
2021-08-19 22:17:35.908,-0.175,-0.03
2021-08-19 22:17:35.912,-0.16,-0.01
2021-08-19 22:17:35.916,-0.14,0.0
2021-08-19 22:17:35.920,-0.135,0.0
2021-08-19 22:17:35.924,-0.085,0.025
2021-08-19 22:17:35.928,-0.095,0.01
2021-08-19 22:17:35.932,-0.085,0.035
2021-08-19 22:17:35.936,-0.085,0.025
2021-08-19 22:17:35.940,-0.09,0.03
2021-08-19 22:17:35.944,-0.075,0.035
2021-08-19 22:17:35.948,-0.04,0.045
2021-08-19 22:17:35.952,0.005,0.02
2021-08-19 22:17:35.956,0.065,0.01
2021-08-19 22:17:35.960,0.13,0.0
2021-08-19 22:17:35.964,0.18,-0.025
2021-08-19 22:17:35.968,0.185,-0.08
2021-08-19 22:17:35.972,0.18,-0.11
2021-08-19 22:17:35.976,0.185,-0.145
2021-08-19 22:17:35.980,0.195,-0.18
2021-08-19 22:17:35.984,0.18,-0.245
2021-08-19 22:17:35.988,0.34,-0.425
2021-08-19 22:17:35.992,0.61,-0.62
2021-08-19 22:17:35.996,0.935,-0.87
2021-08-19 22:17:36.000,1.18,-1.115
2021-08-19 22:17:36.004,1.195,-1.24
2021-08-19 22:17:36.008,0.93,-1.16
2021-08-19 22:17:36.012,0.435,-0.79
2021-08-19 22:17:36.016,0.005,-0.415
2021-08-19 22:17:36.020,-0.2,-0.195
2021-08-19 22:17:36.024,-0.29,-0.08
2021-08-19 22:17:36.028,-0.345,0.015
2021-08-19 22:17:36.032,-0.37,0.06
2021-08-19 22:17:36.036,-0.375,0.09
2021-08-19 22:17:36.040,-0.395,0.13
2021-08-19 22:17:36.044,-0.395,0.125
2021-08-19 22:17:36.048,-0.41,0.095
2021-08-19 22:17:36.052,-0.4,0.075
2021-08-19 22:17:36.056,-0.42,0.075
2021-08-19 22:17:36.060,-0.42,0.08
2021-08-19 22:17:36.064,-0.435,0.08
2021-08-19 22:17:36.068,-0.445,0.085
2021-08-19 22:17:36.072,-0.425,0.075
2021-08-19 22:17:36.076,-0.44,0.055
2021-08-19 22:17:36.080,-0.44,0.06
2021-08-19 22:17:36.084,-0.42,0.065
2021-08-19 22:17:36.088,-0.43,0.09
2021-08-19 22:17:36.092,-0.415,0.09
2021-08-19 22:17:36.096,-0.415,0.095
2021-08-19 22:17:36.100,-0.42,0.085
2021-08-19 22:17:36.104,-0.435,0.09
2021-08-19 22:17:36.108,-0.43,0.09
2021-08-19 22:17:36.112,-0.435,0.085
2021-08-19 22:17:36.116,-0.41,0.075
2021-08-19 22:17:36.120,-0.415,0.08
2021-08-19 22:17:36.124,-0.43,0.08
2021-08-19 22:17:36.128,-0.415,0.065
2021-08-19 22:17:36.132,-0.41,0.065
2021-08-19 22:17:36.136,-0.39,0.07
2021-08-19 22:17:36.140,-0.405,0.1
2021-08-19 22:17:36.144,-0.4,0.1
2021-08-19 22:17:36.148,-0.385,0.09
2021-08-19 22:17:36.152,-0.345,0.105
2021-08-19 22:17:36.156,-0.32,0.105
2021-08-19 22:17:36.160,-0.305,0.125
2021-08-19 22:17:36.164,-0.255,0.135
2021-08-19 22:17:36.168,-0.25,0.16
2021-08-19 22:17:36.172,-0.255,0.165
2021-08-19 22:17:36.176,-0.275,0.17
2021-08-19 22:17:36.180,-0.265,0.16
2021-08-19 22:17:36.184,-0.255,0.18
2021-08-19 22:17:36.188,-0.27,0.165
2021-08-19 22:17:36.192,-0.3,0.165
2021-08-19 22:17:36.196,-0.285,0.145
2021-08-19 22:17:36.200,-0.28,0.13
2021-08-19 22:17:36.204,-0.28,0.115
2021-08-19 22:17:36.208,-0.27,0.09
2021-08-19 22:17:36.212,-0.275,0.065
2021-08-19 22:17:36.216,-0.27,0.045
2021-08-19 22:17:36.220,-0.27,0.03
2021-08-19 22:17:36.224,-0.26,0.04
2021-08-19 22:17:36.228,-0.275,0.03
2021-08-19 22:17:36.232,-0.235,0.0
2021-08-19 22:17:36.236,-0.235,0.01
2021-08-19 22:17:36.240,-0.235,0.005
2021-08-19 22:17:36.244,-0.22,-0.005
2021-08-19 22:17:36.248,-0.22,0.0
2021-08-19 22:17:36.252,-0.21,0.0
2021-08-19 22:17:36.256,-0.21,0.015
2021-08-19 22:17:36.260,-0.19,0.01
2021-08-19 22:17:36.264,-0.19,0.0
2021-08-19 22:17:36.268,-0.19,0.0
2021-08-19 22:17:36.272,-0.18,0.01
2021-08-19 22:17:36.276,-0.18,0.0
2021-08-19 22:17:36.280,-0.17,0.02
2021-08-19 22:17:36.284,-0.17,0.03
2021-08-19 22:17:36.288,-0.16,0.03
2021-08-19 22:17:36.292,-0.16,0.035
2021-08-19 22:17:36.296,-0.185,0.03
2021-08-19 22:17:36.300,-0.185,0.02
2021-08-19 22:17:36.304,-0.2,0.015
2021-08-19 22:17:36.308,-0.2,0.015
2021-08-19 22:17:36.312,-0.2,0.015
2021-08-19 22:17:36.316,-0.205,0.025
2021-08-19 22:17:36.320,-0.23,0.01
2021-08-19 22:17:36.324,-0.235,0.01
2021-08-19 22:17:36.328,-0.23,0.0
2021-08-19 22:17:36.332,-0.24,-0.005
2021-08-19 22:17:36.336,-0.26,0.0
2021-08-19 22:17:36.340,-0.27,-0.005
2021-08-19 22:17:36.344,-0.255,0.005
2021-08-19 22:17:36.348,-0.245,-0.005
2021-08-19 22:17:36.352,-0.24,-0.02
2021-08-19 22:17:36.356,-0.235,-0.025
2021-08-19 22:17:36.360,-0.22,-0.02
2021-08-19 22:17:36.364,-0.22,-0.025
2021-08-19 22:17:36.368,-0.21,-0.045
2021-08-19 22:17:36.372,-0.19,-0.045
2021-08-19 22:17:36.376,-0.165,-0.025
2021-08-19 22:17:36.380,-0.145,-0.02
2021-08-19 22:17:36.384,-0.115,0.015
2021-08-19 22:17:36.388,-0.11,0.005
2021-08-19 22:17:36.392,-0.095,0.035
2021-08-19 22:17:36.396,-0.105,0.06
2021-08-19 22:17:36.400,-0.095,0.075
2021-08-19 22:17:36.404,-0.095,0.085
2021-08-19 22:17:36.408,-0.105,0.085
2021-08-19 22:17:36.412,-0.105,0.105
2021-08-19 22:17:36.416,-0.12,0.13
2021-08-19 22:17:36.420,-0.145,0.13
2021-08-19 22:17:36.424,-0.145,0.12
2021-08-19 22:17:36.428,-0.13,0.115
2021-08-19 22:17:36.432,-0.13,0.115
2021-08-19 22:17:36.436,-0.145,0.115
2021-08-19 22:17:36.440,-0.165,0.11
2021-08-19 22:17:36.444,-0.2,0.09
2021-08-19 22:17:36.448,-0.225,0.075
2021-08-19 22:17:36.452,-0.225,0.055
2021-08-19 22:17:36.456,-0.205,0.04
2021-08-19 22:17:36.460,-0.19,0.03
2021-08-19 22:17:36.464,-0.205,0.01
2021-08-19 22:17:36.468,-0.23,0.02
2021-08-19 22:17:36.472,-0.21,0.0
2021-08-19 22:17:36.476,-0.2,0.01
2021-08-19 22:17:36.480,-0.21,0.0
2021-08-19 22:17:36.484,-0.22,0.01
2021-08-19 22:17:36.488,-0.235,0.01
2021-08-19 22:17:36.492,-0.23,0.01
2021-08-19 22:17:36.496,-0.23,0.0
2021-08-19 22:17:36.500,-0.185,0.0
2021-08-19 22:17:36.504,-0.185,-0.015
2021-08-19 22:17:36.508,-0.19,-0.005
2021-08-19 22:17:36.512,-0.19,0.005
2021-08-19 22:17:36.516,-0.215,0.005
2021-08-19 22:17:36.520,-0.22,-0.015
2021-08-19 22:17:36.524,-0.23,0.005
2021-08-19 22:17:36.528,-0.2,-0.02
2021-08-19 22:17:36.532,-0.225,-0.005
2021-08-19 22:17:36.536,-0.23,-0.01
2021-08-19 22:17:36.540,-0.245,-0.025
2021-08-19 22:17:36.544,-0.23,-0.03
2021-08-19 22:17:36.548,-0.26,0.01
2021-08-19 22:17:36.552,-0.27,-0.04
2021-08-19 22:17:36.556,-0.255,-0.02
2021-08-19 22:17:36.560,-0.255,-0.025
2021-08-19 22:17:36.564,-0.275,-0.02
2021-08-19 22:17:36.568,-0.255,-0.04
2021-08-19 22:17:36.572,-0.27,-0.03
2021-08-19 22:17:36.576,-0.26,-0.05
2021-08-19 22:17:36.580,-0.23,-0.05
2021-08-19 22:17:36.584,-0.235,-0.05
2021-08-19 22:17:36.588,-0.24,-0.03
2021-08-19 22:17:36.592,-0.205,-0.06
2021-08-19 22:17:36.596,-0.2,-0.07
2021-08-19 22:17:36.600,-0.195,-0.065
2021-08-19 22:17:36.604,-0.185,-0.05
2021-08-19 22:17:36.608,-0.15,-0.055
2021-08-19 22:17:36.612,-0.13,-0.06
2021-08-19 22:17:36.616,-0.115,-0.045
2021-08-19 22:17:36.620,-0.1,-0.015
2021-08-19 22:17:36.624,-0.095,0.01
2021-08-19 22:17:36.628,-0.13,0.035
2021-08-19 22:17:36.632,-0.15,0.025
2021-08-19 22:17:36.636,-0.15,0.01
2021-08-19 22:17:36.640,-0.16,0.005
2021-08-19 22:17:36.644,-0.175,0.015
2021-08-19 22:17:36.648,-0.19,0.015
2021-08-19 22:17:36.652,-0.21,0.015
2021-08-19 22:17:36.656,-0.165,0.01
2021-08-19 22:17:36.660,-0.105,0.0
2021-08-19 22:17:36.664,-0.065,0.03
2021-08-19 22:17:36.668,0.02,0.005
2021-08-19 22:17:36.672,0.105,-0.005
2021-08-19 22:17:36.676,0.155,-0.08
2021-08-19 22:17:36.680,0.22,-0.115
2021-08-19 22:17:36.684,0.3,-0.12
2021-08-19 22:17:36.688,0.335,-0.18
2021-08-19 22:17:36.692,0.32,-0.28
2021-08-19 22:17:36.696,0.345,-0.39
2021-08-19 22:17:36.700,0.485,-0.57
2021-08-19 22:17:36.704,0.795,-0.82
2021-08-19 22:17:36.708,1.085,-1.065
2021-08-19 22:17:36.712,1.16,-1.24
2021-08-19 22:17:36.716,0.955,-1.27
2021-08-19 22:17:36.720,0.51,-1.005
2021-08-19 22:17:36.724,0.065,-0.615
2021-08-19 22:17:36.728,-0.14,-0.33
2021-08-19 22:17:36.732,-0.25,-0.205
2021-08-19 22:17:36.736,-0.29,-0.1
2021-08-19 22:17:36.740,-0.295,-0.03
2021-08-19 22:17:36.744,-0.345,0.02
2021-08-19 22:17:36.748,-0.395,0.015
2021-08-19 22:17:36.752,-0.385,0.015
2021-08-19 22:17:36.756,-0.395,-0.005
2021-08-19 22:17:36.760,-0.4,0.0
2021-08-19 22:17:36.764,-0.42,-0.01
2021-08-19 22:17:36.768,-0.435,-0.04
2021-08-19 22:17:36.772,-0.41,-0.035
2021-08-19 22:17:36.776,-0.445,-0.06
2021-08-19 22:17:36.780,-0.43,-0.07
2021-08-19 22:17:36.784,-0.465,-0.065
2021-08-19 22:17:36.788,-0.455,-0.085
2021-08-19 22:17:36.792,-0.47,-0.08
2021-08-19 22:17:36.796,-0.46,-0.08
2021-08-19 22:17:36.800,-0.44,-0.095
2021-08-19 22:17:36.804,-0.46,-0.09
2021-08-19 22:17:36.808,-0.46,-0.095
2021-08-19 22:17:36.812,-0.455,-0.11
2021-08-19 22:17:36.816,-0.46,-0.125
2021-08-19 22:17:36.820,-0.445,-0.105
2021-08-19 22:17:36.824,-0.425,-0.1
2021-08-19 22:17:36.828,-0.425,-0.11
2021-08-19 22:17:36.832,-0.43,-0.11
2021-08-19 22:17:36.836,-0.39,-0.12
2021-08-19 22:17:36.840,-0.355,-0.115
2021-08-19 22:17:36.844,-0.34,-0.075
2021-08-19 22:17:36.848,-0.35,-0.055
2021-08-19 22:17:36.852,-0.335,-0.04
2021-08-19 22:17:36.856,-0.33,-0.055
2021-08-19 22:17:36.860,-0.345,-0.02
2021-08-19 22:17:36.864,-0.35,-0.01
2021-08-19 22:17:36.868,-0.385,0.0
2021-08-19 22:17:36.872,-0.415,0.005
2021-08-19 22:17:36.876,-0.405,-0.02
2021-08-19 22:17:36.880,-0.43,0.0
2021-08-19 22:17:36.884,-0.445,-0.01
2021-08-19 22:17:36.888,-0.46,0.015
2021-08-19 22:17:36.892,-0.485,-0.005
2021-08-19 22:17:36.896,-0.51,0.0
2021-08-19 22:17:36.900,-0.475,0.015
2021-08-19 22:17:36.904,-0.495,0.0
2021-08-19 22:17:36.908,-0.495,-0.01
2021-08-19 22:17:36.912,-0.48,-0.005
2021-08-19 22:17:36.916,-0.465,-0.005
2021-08-19 22:17:36.920,-0.46,-0.015
2021-08-19 22:17:36.924,-0.43,-0.045
2021-08-19 22:17:36.928,-0.43,-0.075
2021-08-19 22:17:36.932,-0.415,-0.06
2021-08-19 22:17:36.936,-0.37,-0.1
2021-08-19 22:17:36.940,-0.375,-0.1
2021-08-19 22:17:36.944,-0.385,-0.14
2021-08-19 22:17:36.948,-0.37,-0.14
2021-08-19 22:17:36.952,-0.335,-0.17
2021-08-19 22:17:36.956,-0.34,-0.175
2021-08-19 22:17:36.960,-0.32,-0.18
2021-08-19 22:17:36.964,-0.335,-0.18
2021-08-19 22:17:36.968,-0.3,-0.205
2021-08-19 22:17:36.972,-0.29,-0.215
2021-08-19 22:17:36.976,-0.29,-0.215
2021-08-19 22:17:36.980,-0.3,-0.215
2021-08-19 22:17:36.984,-0.3,-0.23
2021-08-19 22:17:36.988,-0.28,-0.205
2021-08-19 22:17:36.992,-0.265,-0.24
2021-08-19 22:17:36.996,-0.26,-0.225
2021-08-19 22:17:37.000,-0.265,-0.235
2021-08-19 22:17:37.004,-0.27,-0.24
2021-08-19 22:17:37.008,-0.305,-0.24
2021-08-19 22:17:37.012,-0.34,-0.24
2021-08-19 22:17:37.016,-0.3,-0.245
2021-08-19 22:17:37.020,-0.27,-0.235
2021-08-19 22:17:37.024,-0.245,-0.235
2021-08-19 22:17:37.028,-0.26,-0.235
2021-08-19 22:17:37.032,-0.25,-0.23
2021-08-19 22:17:37.036,-0.24,-0.225
2021-08-19 22:17:37.040,-0.235,-0.22
2021-08-19 22:17:37.044,-0.235,-0.205
2021-08-19 22:17:37.048,-0.235,-0.2
2021-08-19 22:17:37.052,-0.24,-0.205
2021-08-19 22:17:37.056,-0.225,-0.24
2021-08-19 22:17:37.060,-0.2,-0.18
2021-08-19 22:17:37.064,-0.205,-0.19
2021-08-19 22:17:37.068,-0.17,-0.175
2021-08-19 22:17:37.072,-0.19,-0.16
2021-08-19 22:17:37.076,-0.155,-0.165
2021-08-19 22:17:37.080,-0.13,-0.16
2021-08-19 22:17:37.084,-0.13,-0.17
2021-08-19 22:17:37.088,-0.1,-0.15
2021-08-19 22:17:37.092,-0.06,-0.155
2021-08-19 22:17:37.096,-0.02,-0.16
2021-08-19 22:17:37.100,0.015,-0.14
2021-08-19 22:17:37.104,0.05,-0.175
2021-08-19 22:17:37.108,0.09,-0.205
2021-08-19 22:17:37.112,0.105,-0.245
2021-08-19 22:17:37.116,0.155,-0.285
2021-08-19 22:17:37.120,0.22,-0.3
2021-08-19 22:17:37.124,0.225,-0.275
2021-08-19 22:17:37.128,0.215,-0.305
2021-08-19 22:17:37.132,0.26,-0.355
2021-08-19 22:17:37.136,0.405,-0.455
2021-08-19 22:17:37.140,0.675,-0.655
2021-08-19 22:17:37.144,0.945,-0.88
2021-08-19 22:17:37.148,1.025,-1.105
2021-08-19 22:17:37.152,0.83,-1.17
2021-08-19 22:17:37.156,0.42,-1.0
2021-08-19 22:17:37.160,0.01,-0.65
2021-08-19 22:17:37.164,-0.215,-0.405
2021-08-19 22:17:37.168,-0.32,-0.305
2021-08-19 22:17:37.172,-0.34,-0.21
2021-08-19 22:17:37.176,-0.345,-0.115
2021-08-19 22:17:37.180,-0.345,-0.075
2021-08-19 22:17:37.184,-0.35,-0.06
2021-08-19 22:17:37.188,-0.36,-0.05
2021-08-19 22:17:37.192,-0.365,-0.065
2021-08-19 22:17:37.196,-0.395,-0.115
2021-08-19 22:17:37.200,-0.39,-0.11
2021-08-19 22:17:37.204,-0.41,-0.115
2021-08-19 22:17:37.208,-0.42,-0.125
2021-08-19 22:17:37.212,-0.415,-0.125
2021-08-19 22:17:37.216,-0.435,-0.155
2021-08-19 22:17:37.220,-0.455,-0.13
2021-08-19 22:17:37.224,-0.46,-0.165
2021-08-19 22:17:37.228,-0.445,-0.16
2021-08-19 22:17:37.232,-0.475,-0.145
2021-08-19 22:17:37.236,-0.49,-0.16
2021-08-19 22:17:37.240,-0.475,-0.165
2021-08-19 22:17:37.244,-0.46,-0.15
2021-08-19 22:17:37.248,-0.48,-0.17
2021-08-19 22:17:37.252,-0.49,-0.16
2021-08-19 22:17:37.256,-0.51,-0.155
2021-08-19 22:17:37.260,-0.47,-0.15
2021-08-19 22:17:37.264,-0.495,-0.16
2021-08-19 22:17:37.268,-0.5,-0.145
2021-08-19 22:17:37.272,-0.45,-0.125
2021-08-19 22:17:37.276,-0.46,-0.12
2021-08-19 22:17:37.280,-0.46,-0.1
2021-08-19 22:17:37.284,-0.47,-0.115
2021-08-19 22:17:37.288,-0.47,-0.085
2021-08-19 22:17:37.292,-0.465,-0.085
2021-08-19 22:17:37.296,-0.435,-0.07
2021-08-19 22:17:37.300,-0.425,-0.065
2021-08-19 22:17:37.304,-0.405,-0.05
2021-08-19 22:17:37.308,-0.4,-0.06
2021-08-19 22:17:37.312,-0.36,-0.04
2021-08-19 22:17:37.316,-0.35,-0.02
2021-08-19 22:17:37.320,-0.355,-0.025
2021-08-19 22:17:37.324,-0.345,-0.025
2021-08-19 22:17:37.328,-0.33,-0.025
2021-08-19 22:17:37.332,-0.355,-0.035
2021-08-19 22:17:37.336,-0.36,-0.035
2021-08-19 22:17:37.340,-0.38,-0.055
2021-08-19 22:17:37.344,-0.4,-0.04
2021-08-19 22:17:37.348,-0.41,-0.055
2021-08-19 22:17:37.352,-0.405,-0.055
2021-08-19 22:17:37.356,-0.4,-0.045
2021-08-19 22:17:37.360,-0.4,-0.09
2021-08-19 22:17:37.364,-0.41,-0.065
2021-08-19 22:17:37.368,-0.39,-0.065
2021-08-19 22:17:37.372,-0.385,-0.08
2021-08-19 22:17:37.376,-0.355,-0.11
2021-08-19 22:17:37.380,-0.335,-0.095
2021-08-19 22:17:37.384,-0.34,-0.075
2021-08-19 22:17:37.388,-0.305,-0.09
2021-08-19 22:17:37.392,-0.29,-0.105
2021-08-19 22:17:37.396,-0.28,-0.1
2021-08-19 22:17:37.400,-0.275,-0.12
2021-08-19 22:17:37.404,-0.23,-0.11
2021-08-19 22:17:37.408,-0.22,-0.09
2021-08-19 22:17:37.412,-0.2,-0.11
2021-08-19 22:17:37.416,-0.205,-0.1
2021-08-19 22:17:37.420,-0.195,-0.085
2021-08-19 22:17:37.424,-0.17,-0.09
2021-08-19 22:17:37.428,-0.19,-0.095
2021-08-19 22:17:37.432,-0.195,-0.085
2021-08-19 22:17:37.436,-0.195,-0.06
2021-08-19 22:17:37.440,-0.21,-0.1
2021-08-19 22:17:37.444,-0.2,-0.1
2021-08-19 22:17:37.448,-0.22,-0.09
2021-08-19 22:17:37.452,-0.225,-0.09
2021-08-19 22:17:37.456,-0.23,-0.105
2021-08-19 22:17:37.460,-0.27,-0.115
2021-08-19 22:17:37.464,-0.275,-0.12
2021-08-19 22:17:37.468,-0.24,-0.11
2021-08-19 22:17:37.472,-0.23,-0.09
2021-08-19 22:17:37.476,-0.245,-0.105
2021-08-19 22:17:37.480,-0.25,-0.11
2021-08-19 22:17:37.484,-0.25,-0.12
2021-08-19 22:17:37.488,-0.26,-0.125
2021-08-19 22:17:37.492,-0.255,-0.13
2021-08-19 22:17:37.496,-0.225,-0.105
2021-08-19 22:17:37.500,-0.23,-0.095
2021-08-19 22:17:37.504,-0.22,-0.095
2021-08-19 22:17:37.508,-0.195,-0.115
2021-08-19 22:17:37.512,-0.195,-0.08
2021-08-19 22:17:37.516,-0.18,-0.085
2021-08-19 22:17:37.520,-0.17,-0.07
2021-08-19 22:17:37.524,-0.185,-0.07
2021-08-19 22:17:37.528,-0.17,-0.065
2021-08-19 22:17:37.532,-0.17,-0.04
2021-08-19 22:17:37.536,-0.14,-0.025
2021-08-19 22:17:37.540,-0.12,-0.05
2021-08-19 22:17:37.544,-0.125,-0.015
2021-08-19 22:17:37.548,-0.11,-0.015
2021-08-19 22:17:37.552,-0.115,-0.01
2021-08-19 22:17:37.556,-0.095,-0.02
2021-08-19 22:17:37.560,-0.085,0.0
2021-08-19 22:17:37.564,-0.075,0.005
2021-08-19 22:17:37.568,-0.1,-0.02
2021-08-19 22:17:37.572,-0.145,-0.035
2021-08-19 22:17:37.576,-0.17,-0.005
2021-08-19 22:17:37.580,-0.19,-0.02
2021-08-19 22:17:37.584,-0.19,-0.015
2021-08-19 22:17:37.588,-0.225,-0.035
2021-08-19 22:17:37.592,-0.225,-0.035
2021-08-19 22:17:37.596,-0.235,-0.025
2021-08-19 22:17:37.600,-0.26,-0.02
2021-08-19 22:17:37.604,-0.25,-0.02
2021-08-19 22:17:37.608,-0.25,-0.03
2021-08-19 22:17:37.612,-0.25,-0.01
2021-08-19 22:17:37.616,-0.24,-0.005
2021-08-19 22:17:37.620,-0.22,-0.025
2021-08-19 22:17:37.624,-0.16,-0.015
2021-08-19 22:17:37.628,-0.08,-0.04
2021-08-19 22:17:37.632,0.0,-0.065
2021-08-19 22:17:37.636,0.105,-0.095
2021-08-19 22:17:37.640,0.16,-0.115
2021-08-19 22:17:37.644,0.23,-0.185
2021-08-19 22:17:37.648,0.265,-0.2
2021-08-19 22:17:37.652,0.315,-0.225
2021-08-19 22:17:37.656,0.31,-0.295
2021-08-19 22:17:37.660,0.325,-0.375
2021-08-19 22:17:37.664,0.445,-0.54
2021-08-19 22:17:37.668,0.72,-0.775
2021-08-19 22:17:37.672,1.035,-1.0
2021-08-19 22:17:37.676,1.17,-1.165
2021-08-19 22:17:37.680,1.03,-1.205
2021-08-19 22:17:37.684,0.595,-1.055
2021-08-19 22:17:37.688,0.105,-0.685
2021-08-19 22:17:37.692,-0.19,-0.39
2021-08-19 22:17:37.696,-0.29,-0.235
2021-08-19 22:17:37.700,-0.355,-0.095
2021-08-19 22:17:37.704,-0.35,0.0
2021-08-19 22:17:37.708,-0.325,0.055
2021-08-19 22:17:37.712,-0.36,0.095
2021-08-19 22:17:37.716,-0.36,0.12
2021-08-19 22:17:37.720,-0.38,0.15
2021-08-19 22:17:37.724,-0.38,0.145
2021-08-19 22:17:37.728,-0.405,0.125
2021-08-19 22:17:37.732,-0.415,0.13
2021-08-19 22:17:37.736,-0.385,0.07
2021-08-19 22:17:37.740,-0.38,0.055
2021-08-19 22:17:37.744,-0.39,0.04
2021-08-19 22:17:37.748,-0.375,0.005
2021-08-19 22:17:37.752,-0.38,0.005
2021-08-19 22:17:37.756,-0.35,0.005
2021-08-19 22:17:37.760,-0.38,0.015
2021-08-19 22:17:37.764,-0.385,0.025
2021-08-19 22:17:37.768,-0.37,0.025
2021-08-19 22:17:37.772,-0.355,0.02
2021-08-19 22:17:37.776,-0.355,0.065
2021-08-19 22:17:37.780,-0.355,0.055
2021-08-19 22:17:37.784,-0.375,0.06
2021-08-19 22:17:37.788,-0.38,0.045
2021-08-19 22:17:37.792,-0.38,0.065
2021-08-19 22:17:37.796,-0.4,0.075
2021-08-19 22:17:37.800,-0.425,0.085
2021-08-19 22:17:37.804,-0.43,0.1
2021-08-19 22:17:37.808,-0.44,0.09
2021-08-19 22:17:37.812,-0.475,0.09
2021-08-19 22:17:37.816,-0.49,0.1
2021-08-19 22:17:37.820,-0.505,0.095
2021-08-19 22:17:37.824,-0.535,0.085
2021-08-19 22:17:37.828,-0.535,0.08
2021-08-19 22:17:37.832,-0.54,0.09
2021-08-19 22:17:37.836,-0.52,0.105
2021-08-19 22:17:37.840,-0.53,0.08
2021-08-19 22:17:37.844,-0.51,0.075
2021-08-19 22:17:37.848,-0.5,0.075
2021-08-19 22:17:37.852,-0.475,0.08
2021-08-19 22:17:37.856,-0.45,0.045
2021-08-19 22:17:37.860,-0.45,0.05
2021-08-19 22:17:37.864,-0.425,0.075
2021-08-19 22:17:37.868,-0.425,0.04
2021-08-19 22:17:37.872,-0.43,0.055
2021-08-19 22:17:37.876,-0.425,0.055
2021-08-19 22:17:37.880,-0.41,0.035
2021-08-19 22:17:37.884,-0.415,0.045
2021-08-19 22:17:37.888,-0.415,0.035
2021-08-19 22:17:37.892,-0.41,0.01
2021-08-19 22:17:37.896,-0.395,0.02
2021-08-19 22:17:37.900,-0.39,0.0
2021-08-19 22:17:37.904,-0.375,-0.015
2021-08-19 22:17:37.908,-0.365,-0.005
2021-08-19 22:17:37.912,-0.365,-0.01
2021-08-19 22:17:37.916,-0.375,-0.04
2021-08-19 22:17:37.920,-0.365,-0.05
2021-08-19 22:17:37.924,-0.34,-0.045
2021-08-19 22:17:37.928,-0.34,-0.065
2021-08-19 22:17:37.932,-0.32,-0.06
2021-08-19 22:17:37.936,-0.315,-0.055
2021-08-19 22:17:37.940,-0.295,-0.06
2021-08-19 22:17:37.944,-0.315,-0.075
2021-08-19 22:17:37.948,-0.305,-0.07
2021-08-19 22:17:37.952,-0.285,-0.055
2021-08-19 22:17:37.956,-0.305,-0.07
2021-08-19 22:17:37.960,-0.3,-0.075
2021-08-19 22:17:37.964,-0.29,-0.05
2021-08-19 22:17:37.968,-0.27,-0.06
2021-08-19 22:17:37.972,-0.245,-0.03
2021-08-19 22:17:37.976,-0.26,-0.03
2021-08-19 22:17:37.980,-0.23,-0.02
2021-08-19 22:17:37.984,-0.225,-0.02
2021-08-19 22:17:37.988,-0.225,0.015
2021-08-19 22:17:37.992,-0.225,0.02
2021-08-19 22:17:37.996,-0.24,0.01
2021-08-19 22:17:38.000,-0.225,0.0
2021-08-19 22:17:38.004,-0.22,0.015
2021-08-19 22:17:38.008,-0.225,0.02
2021-08-19 22:17:38.012,-0.21,0.02
2021-08-19 22:17:38.016,-0.21,0.035
2021-08-19 22:17:38.020,-0.17,0.035
2021-08-19 22:17:38.024,-0.17,0.02
2021-08-19 22:17:38.028,-0.16,0.015
2021-08-19 22:17:38.032,-0.16,0.045
2021-08-19 22:17:38.036,-0.175,0.06
2021-08-19 22:17:38.040,-0.19,0.055
2021-08-19 22:17:38.044,-0.21,0.065
2021-08-19 22:17:38.048,-0.255,0.09
2021-08-19 22:17:38.052,-0.27,0.085
2021-08-19 22:17:38.056,-0.28,0.085
2021-08-19 22:17:38.060,-0.29,0.085
2021-08-19 22:17:38.064,-0.275,0.12
2021-08-19 22:17:38.068,-0.28,0.09
2021-08-19 22:17:38.072,-0.27,0.075
2021-08-19 22:17:38.076,-0.275,0.075
2021-08-19 22:17:38.080,-0.275,0.05
2021-08-19 22:17:38.084,-0.265,-0.01
2021-08-19 22:17:38.088,-0.28,0.01
2021-08-19 22:17:38.092,-0.275,-0.02
2021-08-19 22:17:38.096,-0.275,-0.025
2021-08-19 22:17:38.100,-0.275,-0.02
2021-08-19 22:17:38.104,-0.28,-0.03
2021-08-19 22:17:38.108,-0.285,-0.02
2021-08-19 22:17:38.112,-0.28,-0.035
2021-08-19 22:17:38.116,-0.295,-0.05
2021-08-19 22:17:38.120,-0.295,-0.05
2021-08-19 22:17:38.124,-0.285,-0.035
2021-08-19 22:17:38.128,-0.28,-0.04
2021-08-19 22:17:38.132,-0.28,-0.065
2021-08-19 22:17:38.136,-0.235,-0.05
2021-08-19 22:17:38.140,-0.17,-0.055
2021-08-19 22:17:38.144,-0.1,-0.08
2021-08-19 22:17:38.148,-0.02,-0.09
2021-08-19 22:17:38.152,0.045,-0.11
2021-08-19 22:17:38.156,0.09,-0.14
2021-08-19 22:17:38.160,0.11,-0.205
2021-08-19 22:17:38.164,0.165,-0.21
2021-08-19 22:17:38.168,0.19,-0.24
2021-08-19 22:17:38.172,0.195,-0.31
2021-08-19 22:17:38.176,0.205,-0.425
2021-08-19 22:17:38.180,0.315,-0.54
2021-08-19 22:17:38.184,0.595,-0.74
2021-08-19 22:17:38.188,0.91,-0.96
2021-08-19 22:17:38.192,1.075,-1.17
2021-08-19 22:17:38.196,1.01,-1.265
2021-08-19 22:17:38.200,0.635,-1.15
2021-08-19 22:17:38.204,0.155,-0.775
2021-08-19 22:17:38.208,-0.17,-0.41
2021-08-19 22:17:38.212,-0.32,-0.215
2021-08-19 22:17:38.216,-0.39,-0.09
2021-08-19 22:17:38.220,-0.41,0.0
2021-08-19 22:17:38.224,-0.405,0.065
2021-08-19 22:17:38.228,-0.42,0.09
2021-08-19 22:17:38.232,-0.435,0.115
2021-08-19 22:17:38.236,-0.445,0.12
2021-08-19 22:17:38.240,-0.44,0.125
2021-08-19 22:17:38.244,-0.44,0.13
2021-08-19 22:17:38.248,-0.445,0.1
2021-08-19 22:17:38.252,-0.425,0.105
2021-08-19 22:17:38.256,-0.42,0.14
2021-08-19 22:17:38.260,-0.41,0.12
2021-08-19 22:17:38.264,-0.38,0.12
2021-08-19 22:17:38.268,-0.375,0.11
2021-08-19 22:17:38.272,-0.385,0.145
2021-08-19 22:17:38.276,-0.36,0.1
2021-08-19 22:17:38.280,-0.385,0.125
2021-08-19 22:17:38.284,-0.38,0.12
2021-08-19 22:17:38.288,-0.43,0.115
2021-08-19 22:17:38.292,-0.46,0.1
2021-08-19 22:17:38.296,-0.47,0.12
2021-08-19 22:17:38.300,-0.49,0.145
2021-08-19 22:17:38.304,-0.465,0.155
2021-08-19 22:17:38.308,-0.46,0.175
2021-08-19 22:17:38.312,-0.46,0.165
2021-08-19 22:17:38.316,-0.485,0.16
2021-08-19 22:17:38.320,-0.46,0.18
2021-08-19 22:17:38.324,-0.455,0.195
2021-08-19 22:17:38.328,-0.425,0.185
2021-08-19 22:17:38.332,-0.435,0.185
2021-08-19 22:17:38.336,-0.44,0.145
2021-08-19 22:17:38.340,-0.395,0.17
2021-08-19 22:17:38.344,-0.41,0.145
2021-08-19 22:17:38.348,-0.425,0.135
2021-08-19 22:17:38.352,-0.43,0.115
2021-08-19 22:17:38.356,-0.435,0.1
2021-08-19 22:17:38.360,-0.44,0.09
2021-08-19 22:17:38.364,-0.44,0.07
2021-08-19 22:17:38.368,-0.42,0.08
2021-08-19 22:17:38.372,-0.41,0.065
2021-08-19 22:17:38.376,-0.41,0.055
2021-08-19 22:17:38.380,-0.4,0.025
2021-08-19 22:17:38.384,-0.405,0.02
2021-08-19 22:17:38.388,-0.395,0.03
2021-08-19 22:17:38.392,-0.395,0.045
2021-08-19 22:17:38.396,-0.37,0.015
2021-08-19 22:17:38.400,-0.405,0.015
2021-08-19 22:17:38.404,-0.385,0.0
2021-08-19 22:17:38.408,-0.36,-0.005
2021-08-19 22:17:38.412,-0.33,-0.005
2021-08-19 22:17:38.416,-0.34,-0.01
2021-08-19 22:17:38.420,-0.315,-0.03
2021-08-19 22:17:38.424,-0.285,-0.05
2021-08-19 22:17:38.428,-0.27,-0.05
2021-08-19 22:17:38.432,-0.255,-0.04
2021-08-19 22:17:38.436,-0.24,-0.05
2021-08-19 22:17:38.440,-0.235,-0.035
2021-08-19 22:17:38.444,-0.19,-0.065
2021-08-19 22:17:38.448,-0.2,-0.035
2021-08-19 22:17:38.452,-0.2,-0.055
2021-08-19 22:17:38.456,-0.21,-0.03
2021-08-19 22:17:38.460,-0.22,0.005
2021-08-19 22:17:38.464,-0.26,0.005
2021-08-19 22:17:38.468,-0.27,-0.01
2021-08-19 22:17:38.472,-0.3,0.0
2021-08-19 22:17:38.476,-0.24,0.005
2021-08-19 22:17:38.480,-0.27,0.0
2021-08-19 22:17:38.484,-0.29,0.0
2021-08-19 22:17:38.488,-0.26,0.025
2021-08-19 22:17:38.492,-0.235,0.005
2021-08-19 22:17:38.496,-0.2,-0.005
2021-08-19 22:17:38.500,-0.2,0.01
2021-08-19 22:17:38.504,-0.2,0.0
2021-08-19 22:17:38.508,-0.17,0.0
2021-08-19 22:17:38.512,-0.16,0.02
2021-08-19 22:17:38.516,-0.16,0.035
2021-08-19 22:17:38.520,-0.185,0.035
2021-08-19 22:17:38.524,-0.205,0.045
2021-08-19 22:17:38.528,-0.22,0.035
2021-08-19 22:17:38.532,-0.245,0.045
2021-08-19 22:17:38.536,-0.25,0.08
2021-08-19 22:17:38.540,-0.24,0.08
2021-08-19 22:17:38.544,-0.21,0.075
2021-08-19 22:17:38.548,-0.16,0.085
2021-08-19 22:17:38.552,-0.12,0.085
2021-08-19 22:17:38.556,-0.035,0.06
2021-08-19 22:17:38.560,0.0,0.025
2021-08-19 22:17:38.564,0.005,-0.02
2021-08-19 22:17:38.568,0.0,-0.05
2021-08-19 22:17:38.572,-0.015,-0.085
2021-08-19 22:17:38.576,-0.005,-0.13
2021-08-19 22:17:38.580,0.02,-0.235
2021-08-19 22:17:38.584,0.185,-0.395
2021-08-19 22:17:38.588,0.475,-0.605
2021-08-19 22:17:38.592,0.81,-0.875
2021-08-19 22:17:38.596,1.05,-1.135
2021-08-19 22:17:38.600,1.095,-1.31
2021-08-19 22:17:38.604,0.91,-1.235
2021-08-19 22:17:38.608,0.48,-0.9
2021-08-19 22:17:38.612,0.06,-0.48
2021-08-19 22:17:38.616,-0.205,-0.225
2021-08-19 22:17:38.620,-0.32,-0.085
2021-08-19 22:17:38.624,-0.355,-0.015
2021-08-19 22:17:38.628,-0.375,0.035
2021-08-19 22:17:38.632,-0.395,0.04
2021-08-19 22:17:38.636,-0.41,0.06
2021-08-19 22:17:38.640,-0.385,0.06
2021-08-19 22:17:38.644,-0.395,0.075
2021-08-19 22:17:38.648,-0.37,0.07
2021-08-19 22:17:38.652,-0.385,0.06
2021-08-19 22:17:38.656,-0.375,0.055
2021-08-19 22:17:38.660,-0.375,0.055
2021-08-19 22:17:38.664,-0.39,0.045
2021-08-19 22:17:38.668,-0.375,0.055
2021-08-19 22:17:38.672,-0.355,0.065
2021-08-19 22:17:38.676,-0.375,0.065
2021-08-19 22:17:38.680,-0.4,0.06
2021-08-19 22:17:38.684,-0.4,0.065
2021-08-19 22:17:38.688,-0.395,0.06
2021-08-19 22:17:38.692,-0.395,0.08
2021-08-19 22:17:38.696,-0.44,0.09
2021-08-19 22:17:38.700,-0.455,0.085
2021-08-19 22:17:38.704,-0.44,0.075
2021-08-19 22:17:38.708,-0.415,0.075
2021-08-19 22:17:38.712,-0.45,0.075
2021-08-19 22:17:38.716,-0.465,0.105
2021-08-19 22:17:38.720,-0.475,0.085
2021-08-19 22:17:38.724,-0.465,0.095
2021-08-19 22:17:38.728,-0.475,0.09
2021-08-19 22:17:38.732,-0.47,0.105
2021-08-19 22:17:38.736,-0.455,0.1
2021-08-19 22:17:38.740,-0.42,0.11
2021-08-19 22:17:38.744,-0.43,0.115
2021-08-19 22:17:38.748,-0.42,0.115
2021-08-19 22:17:38.752,-0.42,0.105
2021-08-19 22:17:38.756,-0.425,0.1
2021-08-19 22:17:38.760,-0.445,0.115
2021-08-19 22:17:38.764,-0.475,0.115
2021-08-19 22:17:38.768,-0.485,0.15
2021-08-19 22:17:38.772,-0.495,0.14
2021-08-19 22:17:38.776,-0.515,0.16
2021-08-19 22:17:38.780,-0.5,0.16
2021-08-19 22:17:38.784,-0.5,0.155
2021-08-19 22:17:38.788,-0.5,0.15
2021-08-19 22:17:38.792,-0.48,0.125
2021-08-19 22:17:38.796,-0.48,0.095
2021-08-19 22:17:38.800,-0.46,0.08
2021-08-19 22:17:38.804,-0.455,0.06
2021-08-19 22:17:38.808,-0.455,0.075
2021-08-19 22:17:38.812,-0.445,0.045
2021-08-19 22:17:38.816,-0.43,0.03
2021-08-19 22:17:38.820,-0.37,0.005
2021-08-19 22:17:38.824,-0.35,-0.01
2021-08-19 22:17:38.828,-0.355,-0.03
2021-08-19 22:17:38.832,-0.315,-0.065
2021-08-19 22:17:38.836,-0.3,-0.04
2021-08-19 22:17:38.840,-0.305,-0.06
2021-08-19 22:17:38.844,-0.305,-0.055
2021-08-19 22:17:38.848,-0.305,-0.075
2021-08-19 22:17:38.852,-0.305,-0.075
2021-08-19 22:17:38.856,-0.285,-0.095
2021-08-19 22:17:38.860,-0.28,-0.06
2021-08-19 22:17:38.864,-0.28,-0.07
2021-08-19 22:17:38.868,-0.295,-0.075
2021-08-19 22:17:38.872,-0.275,-0.08
2021-08-19 22:17:38.876,-0.305,-0.06
2021-08-19 22:17:38.880,-0.285,-0.065
2021-08-19 22:17:38.884,-0.285,-0.07
2021-08-19 22:17:38.888,-0.295,-0.045
2021-08-19 22:17:38.892,-0.305,-0.045
2021-08-19 22:17:38.896,-0.295,-0.065
2021-08-19 22:17:38.900,-0.29,-0.06
2021-08-19 22:17:38.904,-0.28,-0.06
2021-08-19 22:17:38.908,-0.29,-0.055
2021-08-19 22:17:38.912,-0.31,-0.07
2021-08-19 22:17:38.916,-0.295,-0.07
2021-08-19 22:17:38.920,-0.27,-0.055
2021-08-19 22:17:38.924,-0.25,-0.055
2021-08-19 22:17:38.928,-0.22,-0.025
2021-08-19 22:17:38.932,-0.14,-0.05
2021-08-19 22:17:38.936,-0.075,-0.04
2021-08-19 22:17:38.940,-0.01,-0.08
2021-08-19 22:17:38.944,0.07,-0.095
2021-08-19 22:17:38.948,0.07,-0.145
2021-08-19 22:17:38.952,0.075,-0.18
2021-08-19 22:17:38.956,0.09,-0.175
2021-08-19 22:17:38.960,0.115,-0.22
2021-08-19 22:17:38.964,0.11,-0.285
2021-08-19 22:17:38.968,0.24,-0.4
2021-08-19 22:17:38.972,0.515,-0.575
2021-08-19 22:17:38.976,0.815,-0.795
2021-08-19 22:17:38.980,1.02,-1.04
2021-08-19 22:17:38.984,0.975,-1.16
2021-08-19 22:17:38.988,0.63,-1.04
2021-08-19 22:17:38.992,0.19,-0.67
2021-08-19 22:17:38.996,-0.105,-0.355
2021-08-19 22:17:39.000,-0.265,-0.18
2021-08-19 22:17:39.004,-0.35,-0.07
2021-08-19 22:17:39.008,-0.385,0.04
2021-08-19 22:17:39.012,-0.44,0.08
2021-08-19 22:17:39.016,-0.48,0.12
2021-08-19 22:17:39.020,-0.525,0.12
2021-08-19 22:17:39.024,-0.545,0.125
2021-08-19 22:17:39.028,-0.545,0.1
2021-08-19 22:17:39.032,-0.535,0.07
2021-08-19 22:17:39.036,-0.54,0.05
2021-08-19 22:17:39.040,-0.515,0.035
2021-08-19 22:17:39.044,-0.525,0.02
2021-08-19 22:17:39.048,-0.52,0.005
2021-08-19 22:17:39.052,-0.515,0.0
2021-08-19 22:17:39.056,-0.52,-0.01
2021-08-19 22:17:39.060,-0.5,-0.01
2021-08-19 22:17:39.064,-0.46,-0.02
2021-08-19 22:17:39.068,-0.485,-0.025
2021-08-19 22:17:39.072,-0.485,-0.025
2021-08-19 22:17:39.076,-0.46,-0.02
2021-08-19 22:17:39.080,-0.48,-0.03
2021-08-19 22:17:39.084,-0.5,-0.025
2021-08-19 22:17:39.088,-0.52,-0.045
2021-08-19 22:17:39.092,-0.535,-0.055
2021-08-19 22:17:39.096,-0.535,-0.06
2021-08-19 22:17:39.100,-0.535,-0.03
2021-08-19 22:17:39.104,-0.515,-0.045
2021-08-19 22:17:39.108,-0.53,-0.03
2021-08-19 22:17:39.112,-0.505,-0.06
2021-08-19 22:17:39.116,-0.53,-0.07
2021-08-19 22:17:39.120,-0.535,-0.025
2021-08-19 22:17:39.124,-0.53,-0.04
2021-08-19 22:17:39.128,-0.525,-0.03
2021-08-19 22:17:39.132,-0.53,-0.04
2021-08-19 22:17:39.136,-0.51,-0.055
2021-08-19 22:17:39.140,-0.515,-0.075
2021-08-19 22:17:39.144,-0.5,-0.06
2021-08-19 22:17:39.148,-0.495,-0.045
2021-08-19 22:17:39.152,-0.475,-0.035
2021-08-19 22:17:39.156,-0.475,-0.03
2021-08-19 22:17:39.160,-0.48,-0.06
2021-08-19 22:17:39.164,-0.465,-0.075
2021-08-19 22:17:39.168,-0.455,-0.075
2021-08-19 22:17:39.172,-0.44,-0.065
2021-08-19 22:17:39.176,-0.44,-0.07
2021-08-19 22:17:39.180,-0.445,-0.065
2021-08-19 22:17:39.184,-0.44,-0.065
2021-08-19 22:17:39.188,-0.42,-0.065
2021-08-19 22:17:39.192,-0.4,-0.07
2021-08-19 22:17:39.196,-0.385,-0.08
2021-08-19 22:17:39.200,-0.37,-0.09
2021-08-19 22:17:39.204,-0.365,-0.075
2021-08-19 22:17:39.208,-0.35,-0.11
2021-08-19 22:17:39.212,-0.32,-0.12
2021-08-19 22:17:39.216,-0.31,-0.12
2021-08-19 22:17:39.220,-0.275,-0.105
2021-08-19 22:17:39.224,-0.275,-0.095
2021-08-19 22:17:39.228,-0.275,-0.09
2021-08-19 22:17:39.232,-0.295,-0.105
2021-08-19 22:17:39.236,-0.29,-0.08
2021-08-19 22:17:39.240,-0.315,-0.08
2021-08-19 22:17:39.244,-0.33,-0.075
2021-08-19 22:17:39.248,-0.32,-0.105
2021-08-19 22:17:39.252,-0.345,-0.065
2021-08-19 22:17:39.256,-0.33,-0.09
2021-08-19 22:17:39.260,-0.33,-0.08
2021-08-19 22:17:39.264,-0.32,-0.065
2021-08-19 22:17:39.268,-0.32,-0.08
2021-08-19 22:17:39.272,-0.34,-0.09
2021-08-19 22:17:39.276,-0.315,-0.08
2021-08-19 22:17:39.280,-0.325,-0.11
2021-08-19 22:17:39.284,-0.35,-0.085
2021-08-19 22:17:39.288,-0.335,-0.1
2021-08-19 22:17:39.292,-0.32,-0.1
2021-08-19 22:17:39.296,-0.31,-0.105
2021-08-19 22:17:39.300,-0.31,-0.1
2021-08-19 22:17:39.304,-0.32,-0.13
2021-08-19 22:17:39.308,-0.295,-0.115
2021-08-19 22:17:39.312,-0.295,-0.115
2021-08-19 22:17:39.316,-0.3,-0.12
2021-08-19 22:17:39.320,-0.295,-0.14
2021-08-19 22:17:39.324,-0.295,-0.145
2021-08-19 22:17:39.328,-0.28,-0.145
2021-08-19 22:17:39.332,-0.3,-0.16
2021-08-19 22:17:39.336,-0.305,-0.14
2021-08-19 22:17:39.340,-0.3,-0.15
2021-08-19 22:17:39.344,-0.315,-0.14
2021-08-19 22:17:39.348,-0.315,-0.16
2021-08-19 22:17:39.352,-0.32,-0.15
2021-08-19 22:17:39.356,-0.3,-0.155
2021-08-19 22:17:39.360,-0.29,-0.155
2021-08-19 22:17:39.364,-0.315,-0.13
2021-08-19 22:17:39.368,-0.32,-0.145
2021-08-19 22:17:39.372,-0.34,-0.16
2021-08-19 22:17:39.376,-0.34,-0.18
2021-08-19 22:17:39.380,-0.34,-0.19
2021-08-19 22:17:39.384,-0.325,-0.185
2021-08-19 22:17:39.388,-0.295,-0.165
2021-08-19 22:17:39.392,-0.28,-0.17
2021-08-19 22:17:39.396,-0.275,-0.165
2021-08-19 22:17:39.400,-0.245,-0.155
2021-08-19 22:17:39.404,-0.28,-0.17
2021-08-19 22:17:39.408,-0.295,-0.15
2021-08-19 22:17:39.412,-0.28,-0.15
2021-08-19 22:17:39.416,-0.265,-0.145
2021-08-19 22:17:39.420,-0.26,-0.155
2021-08-19 22:17:39.424,-0.26,-0.155
2021-08-19 22:17:39.428,-0.27,-0.12
2021-08-19 22:17:39.432,-0.265,-0.14
2021-08-19 22:17:39.436,-0.25,-0.135
2021-08-19 22:17:39.440,-0.24,-0.125
2021-08-19 22:17:39.444,-0.235,-0.12
2021-08-19 22:17:39.448,-0.22,-0.13
2021-08-19 22:17:39.452,-0.2,-0.105
2021-08-19 22:17:39.456,-0.185,-0.12
2021-08-19 22:17:39.460,-0.155,-0.11
2021-08-19 22:17:39.464,-0.09,-0.115
2021-08-19 22:17:39.468,-0.025,-0.125
2021-08-19 22:17:39.472,0.06,-0.14
2021-08-19 22:17:39.476,0.13,-0.18
2021-08-19 22:17:39.480,0.19,-0.23
2021-08-19 22:17:39.484,0.26,-0.28
2021-08-19 22:17:39.488,0.31,-0.28
2021-08-19 22:17:39.492,0.33,-0.32
2021-08-19 22:17:39.496,0.315,-0.39
2021-08-19 22:17:39.500,0.385,-0.505
2021-08-19 22:17:39.504,0.61,-0.685
2021-08-19 22:17:39.508,0.9,-0.9
2021-08-19 22:17:39.512,1.05,-1.085
2021-08-19 22:17:39.516,0.975,-1.205
2021-08-19 22:17:39.520,0.61,-1.1
2021-08-19 22:17:39.524,0.11,-0.81
2021-08-19 22:17:39.528,-0.18,-0.51
2021-08-19 22:17:39.532,-0.31,-0.33
2021-08-19 22:17:39.536,-0.32,-0.23
2021-08-19 22:17:39.540,-0.345,-0.135
2021-08-19 22:17:39.544,-0.35,-0.06
2021-08-19 22:17:39.548,-0.375,-0.035
2021-08-19 22:17:39.552,-0.36,-0.025
2021-08-19 22:17:39.556,-0.385,-0.035
2021-08-19 22:17:39.560,-0.41,-0.05
2021-08-19 22:17:39.564,-0.415,-0.08
2021-08-19 22:17:39.568,-0.42,-0.11
2021-08-19 22:17:39.572,-0.415,-0.09
2021-08-19 22:17:39.576,-0.42,-0.09
2021-08-19 22:17:39.580,-0.45,-0.085
2021-08-19 22:17:39.584,-0.44,-0.1
2021-08-19 22:17:39.588,-0.455,-0.075
2021-08-19 22:17:39.592,-0.445,-0.095
2021-08-19 22:17:39.596,-0.45,-0.095
2021-08-19 22:17:39.600,-0.455,-0.065
2021-08-19 22:17:39.604,-0.465,-0.085
2021-08-19 22:17:39.608,-0.46,-0.095
2021-08-19 22:17:39.612,-0.465,-0.075
2021-08-19 22:17:39.616,-0.455,-0.09
2021-08-19 22:17:39.620,-0.445,-0.075
2021-08-19 22:17:39.624,-0.45,-0.075
2021-08-19 22:17:39.628,-0.44,-0.08
2021-08-19 22:17:39.632,-0.465,-0.06
2021-08-19 22:17:39.636,-0.455,-0.055
2021-08-19 22:17:39.640,-0.45,-0.03
2021-08-19 22:17:39.644,-0.43,-0.01
2021-08-19 22:17:39.648,-0.445,-0.005
2021-08-19 22:17:39.652,-0.435,-0.005
2021-08-19 22:17:39.656,-0.41,0.0
2021-08-19 22:17:39.660,-0.43,0.015
2021-08-19 22:17:39.664,-0.42,0.025
2021-08-19 22:17:39.668,-0.405,0.05
2021-08-19 22:17:39.672,-0.445,0.045
2021-08-19 22:17:39.676,-0.445,0.065
2021-08-19 22:17:39.680,-0.45,0.095
2021-08-19 22:17:39.684,-0.46,0.1
2021-08-19 22:17:39.688,-0.475,0.08
2021-08-19 22:17:39.692,-0.495,0.09
2021-08-19 22:17:39.696,-0.495,0.085
2021-08-19 22:17:39.700,-0.47,0.07
2021-08-19 22:17:39.704,-0.5,0.07
2021-08-19 22:17:39.708,-0.47,0.075
2021-08-19 22:17:39.712,-0.46,0.05
2021-08-19 22:17:39.716,-0.475,0.035
2021-08-19 22:17:39.720,-0.475,0.025
2021-08-19 22:17:39.724,-0.48,0.015
2021-08-19 22:17:39.728,-0.47,0.015
2021-08-19 22:17:39.732,-0.445,-0.01
2021-08-19 22:17:39.736,-0.465,0.0
2021-08-19 22:17:39.740,-0.425,0.005
2021-08-19 22:17:39.744,-0.445,-0.005
2021-08-19 22:17:39.748,-0.435,-0.015
2021-08-19 22:17:39.752,-0.435,-0.03
2021-08-19 22:17:39.756,-0.415,-0.05
2021-08-19 22:17:39.760,-0.4,-0.05
2021-08-19 22:17:39.764,-0.38,-0.055
2021-08-19 22:17:39.768,-0.365,-0.07
2021-08-19 22:17:39.772,-0.36,-0.055
2021-08-19 22:17:39.776,-0.355,-0.055
2021-08-19 22:17:39.780,-0.345,-0.07
2021-08-19 22:17:39.784,-0.315,-0.065
2021-08-19 22:17:39.788,-0.32,-0.06
2021-08-19 22:17:39.792,-0.285,-0.08
2021-08-19 22:17:39.796,-0.28,-0.075
2021-08-19 22:17:39.800,-0.265,-0.09
2021-08-19 22:17:39.804,-0.26,-0.08
2021-08-19 22:17:39.808,-0.27,-0.11
2021-08-19 22:17:39.812,-0.28,-0.095
2021-08-19 22:17:39.816,-0.28,-0.085
2021-08-19 22:17:39.820,-0.275,-0.1
2021-08-19 22:17:39.824,-0.285,-0.11
2021-08-19 22:17:39.828,-0.26,-0.125
2021-08-19 22:17:39.832,-0.255,-0.115
2021-08-19 22:17:39.836,-0.245,-0.085
2021-08-19 22:17:39.840,-0.245,-0.095
2021-08-19 22:17:39.844,-0.245,-0.095
2021-08-19 22:17:39.848,-0.25,-0.07
2021-08-19 22:17:39.852,-0.265,-0.06
2021-08-19 22:17:39.856,-0.265,-0.065
2021-08-19 22:17:39.860,-0.265,-0.065
2021-08-19 22:17:39.864,-0.255,-0.06
2021-08-19 22:17:39.868,-0.265,-0.055
2021-08-19 22:17:39.872,-0.23,-0.035
2021-08-19 22:17:39.876,-0.21,-0.05
2021-08-19 22:17:39.880,-0.2,-0.045
2021-08-19 22:17:39.884,-0.17,-0.015
2021-08-19 22:17:39.888,-0.205,-0.015
2021-08-19 22:17:39.892,-0.195,-0.005
2021-08-19 22:17:39.896,-0.195,-0.015
2021-08-19 22:17:39.900,-0.23,-0.01
2021-08-19 22:17:39.904,-0.255,-0.01
2021-08-19 22:17:39.908,-0.255,-0.035
2021-08-19 22:17:39.912,-0.26,-0.01
2021-08-19 22:17:39.916,-0.295,0.01
2021-08-19 22:17:39.920,-0.35,0.0
2021-08-19 22:17:39.924,-0.31,0.02
2021-08-19 22:17:39.928,-0.3,0.015
2021-08-19 22:17:39.932,-0.28,0.015
2021-08-19 22:17:39.936,-0.22,0.005
2021-08-19 22:17:39.940,-0.14,0.0
2021-08-19 22:17:39.944,-0.055,-0.025
2021-08-19 22:17:39.948,0.005,-0.06
2021-08-19 22:17:39.952,0.05,-0.11
2021-08-19 22:17:39.956,0.09,-0.16
2021-08-19 22:17:39.960,0.12,-0.18
2021-08-19 22:17:39.964,0.14,-0.19
2021-08-19 22:17:39.968,0.11,-0.265
2021-08-19 22:17:39.972,0.1,-0.38
2021-08-19 22:17:39.976,0.25,-0.54
2021-08-19 22:17:39.980,0.525,-0.745
2021-08-19 22:17:39.984,0.82,-0.965
2021-08-19 22:17:39.988,0.995,-1.2
2021-08-19 22:17:39.992,0.945,-1.305
2021-08-19 22:17:39.996,0.565,-1.12
2021-08-19 22:17:40.000,0.085,-0.735
2021-08-19 22:17:40.004,-0.22,-0.4
2021-08-19 22:17:40.008,-0.37,-0.2
2021-08-19 22:17:40.012,-0.45,-0.105
2021-08-19 22:17:40.016,-0.47,-0.02
2021-08-19 22:17:40.020,-0.475,0.025
2021-08-19 22:17:40.024,-0.505,0.055
2021-08-19 22:17:40.028,-0.495,0.065
2021-08-19 22:17:40.032,-0.51,0.07
2021-08-19 22:17:40.036,-0.5,0.03
2021-08-19 22:17:40.040,-0.495,-0.01
2021-08-19 22:17:40.044,-0.475,-0.01
2021-08-19 22:17:40.048,-0.46,-0.03
2021-08-19 22:17:40.052,-0.465,0.0
2021-08-19 22:17:40.056,-0.46,-0.005
2021-08-19 22:17:40.060,-0.47,-0.01
2021-08-19 22:17:40.064,-0.445,-0.005
2021-08-19 22:17:40.068,-0.455,0.015
2021-08-19 22:17:40.072,-0.445,0.015
2021-08-19 22:17:40.076,-0.455,0.025
2021-08-19 22:17:40.080,-0.46,0.02
2021-08-19 22:17:40.084,-0.45,0.02
2021-08-19 22:17:40.088,-0.43,0.03
2021-08-19 22:17:40.092,-0.435,0.03
2021-08-19 22:17:40.096,-0.435,0.035
2021-08-19 22:17:40.100,-0.43,0.05
2021-08-19 22:17:40.104,-0.405,0.065
2021-08-19 22:17:40.108,-0.415,0.065
2021-08-19 22:17:40.112,-0.41,0.075
2021-08-19 22:17:40.116,-0.405,0.075
2021-08-19 22:17:40.120,-0.385,0.1
2021-08-19 22:17:40.124,-0.38,0.08
2021-08-19 22:17:40.128,-0.41,0.085
2021-08-19 22:17:40.132,-0.43,0.075
2021-08-19 22:17:40.136,-0.465,0.09
2021-08-19 22:17:40.140,-0.49,0.07
2021-08-19 22:17:40.144,-0.515,0.1
2021-08-19 22:17:40.148,-0.55,0.09
2021-08-19 22:17:40.152,-0.555,0.095
2021-08-19 22:17:40.156,-0.545,0.085
2021-08-19 22:17:40.160,-0.535,0.125
2021-08-19 22:17:40.164,-0.53,0.13
2021-08-19 22:17:40.168,-0.495,0.105
2021-08-19 22:17:40.172,-0.485,0.1
2021-08-19 22:17:40.176,-0.475,0.095
2021-08-19 22:17:40.180,-0.465,0.08
2021-08-19 22:17:40.184,-0.445,0.065
2021-08-19 22:17:40.188,-0.42,0.055
2021-08-19 22:17:40.192,-0.41,0.055
2021-08-19 22:17:40.196,-0.395,0.03
2021-08-19 22:17:40.200,-0.385,0.025
2021-08-19 22:17:40.204,-0.37,0.01
2021-08-19 22:17:40.208,-0.35,0.02
2021-08-19 22:17:40.212,-0.33,0.005
2021-08-19 22:17:40.216,-0.315,0.005
2021-08-19 22:17:40.220,-0.31,-0.015
2021-08-19 22:17:40.224,-0.285,-0.01
2021-08-19 22:17:40.228,-0.28,-0.02
2021-08-19 22:17:40.232,-0.26,-0.035
2021-08-19 22:17:40.236,-0.25,-0.035
2021-08-19 22:17:40.240,-0.27,-0.035
2021-08-19 22:17:40.244,-0.255,-0.04
2021-08-19 22:17:40.248,-0.28,-0.04
2021-08-19 22:17:40.252,-0.27,-0.04
2021-08-19 22:17:40.256,-0.28,-0.03
2021-08-19 22:17:40.260,-0.28,-0.02
2021-08-19 22:17:40.264,-0.275,-0.04
2021-08-19 22:17:40.268,-0.285,-0.02
2021-08-19 22:17:40.272,-0.285,-0.015
2021-08-19 22:17:40.276,-0.275,0.01
2021-08-19 22:17:40.280,-0.29,-0.005
2021-08-19 22:17:40.284,-0.285,-0.005
2021-08-19 22:17:40.288,-0.275,0.0
2021-08-19 22:17:40.292,-0.3,0.005
2021-08-19 22:17:40.296,-0.29,0.015
2021-08-19 22:17:40.300,-0.255,-0.005
2021-08-19 22:17:40.304,-0.24,-0.03
2021-08-19 22:17:40.308,-0.235,-0.04
2021-08-19 22:17:40.312,-0.22,-0.025
2021-08-19 22:17:40.316,-0.215,-0.03
2021-08-19 22:17:40.320,-0.225,-0.015
2021-08-19 22:17:40.324,-0.22,-0.005
2021-08-19 22:17:40.328,-0.22,-0.02
2021-08-19 22:17:40.332,-0.205,0.02
2021-08-19 22:17:40.336,-0.21,0.0
2021-08-19 22:17:40.340,-0.195,0.025
2021-08-19 22:17:40.344,-0.195,0.025
2021-08-19 22:17:40.348,-0.2,0.005
2021-08-19 22:17:40.352,-0.21,0.015
2021-08-19 22:17:40.356,-0.2,0.03
2021-08-19 22:17:40.360,-0.2,0.02
2021-08-19 22:17:40.364,-0.205,0.035
2021-08-19 22:17:40.368,-0.205,0.02
2021-08-19 22:17:40.372,-0.23,0.04
2021-08-19 22:17:40.376,-0.245,0.055
2021-08-19 22:17:40.380,-0.27,0.01
2021-08-19 22:17:40.384,-0.265,0.01
2021-08-19 22:17:40.388,-0.285,0.015
2021-08-19 22:17:40.392,-0.3,0.035
2021-08-19 22:17:40.396,-0.3,0.06
2021-08-19 22:17:40.400,-0.29,0.045
2021-08-19 22:17:40.404,-0.29,0.065
2021-08-19 22:17:40.408,-0.305,0.04
2021-08-19 22:17:40.412,-0.28,0.035
2021-08-19 22:17:40.416,-0.3,0.035
2021-08-19 22:17:40.420,-0.3,0.005
2021-08-19 22:17:40.424,-0.295,-0.005
2021-08-19 22:17:40.428,-0.27,-0.005
2021-08-19 22:17:40.432,-0.265,0.005
2021-08-19 22:17:40.436,-0.26,-0.01
2021-08-19 22:17:40.440,-0.27,-0.005
2021-08-19 22:17:40.444,-0.285,-0.005
2021-08-19 22:17:40.448,-0.25,0.015
2021-08-19 22:17:40.452,-0.26,0.0
2021-08-19 22:17:40.456,-0.275,-0.005
2021-08-19 22:17:40.460,-0.285,0.0
2021-08-19 22:17:40.464,-0.265,-0.005
2021-08-19 22:17:40.468,-0.24,-0.01
2021-08-19 22:17:40.472,-0.245,-0.015
2021-08-19 22:17:40.476,-0.26,-0.015
2021-08-19 22:17:40.480,-0.25,-0.015
2021-08-19 22:17:40.484,-0.235,-0.025
2021-08-19 22:17:40.488,-0.235,-0.005
2021-08-19 22:17:40.492,-0.245,-0.005
2021-08-19 22:17:40.496,-0.205,-0.01
2021-08-19 22:17:40.500,-0.225,0.005
2021-08-19 22:17:40.504,-0.22,0.0
2021-08-19 22:17:40.508,-0.23,0.01
2021-08-19 22:17:40.512,-0.22,-0.01
2021-08-19 22:17:40.516,-0.205,0.005
2021-08-19 22:17:40.520,-0.2,0.015
2021-08-19 22:17:40.524,-0.23,0.0
2021-08-19 22:17:40.528,-0.21,0.025
2021-08-19 22:17:40.532,-0.22,0.015
2021-08-19 22:17:40.536,-0.235,0.02
2021-08-19 22:17:40.540,-0.23,0.05
2021-08-19 22:17:40.544,-0.235,0.045
2021-08-19 22:17:40.548,-0.22,0.035
2021-08-19 22:17:40.552,-0.235,0.045
2021-08-19 22:17:40.556,-0.245,0.045
2021-08-19 22:17:40.560,-0.21,0.045
2021-08-19 22:17:40.564,-0.185,0.035
2021-08-19 22:17:40.568,-0.165,0.005
2021-08-19 22:17:40.572,-0.195,0.015
2021-08-19 22:17:40.576,-0.185,0.01
2021-08-19 22:17:40.580,-0.145,-0.01
2021-08-19 22:17:40.584,-0.11,-0.03
2021-08-19 22:17:40.588,-0.055,-0.015
2021-08-19 22:17:40.592,0.04,-0.02
2021-08-19 22:17:40.596,0.125,-0.06
2021-08-19 22:17:40.600,0.18,-0.08
2021-08-19 22:17:40.604,0.21,-0.115
2021-08-19 22:17:40.608,0.24,-0.155
2021-08-19 22:17:40.612,0.255,-0.18
2021-08-19 22:17:40.616,0.26,-0.26
2021-08-19 22:17:40.620,0.26,-0.305
2021-08-19 22:17:40.624,0.285,-0.47
2021-08-19 22:17:40.628,0.465,-0.64
2021-08-19 22:17:40.632,0.755,-0.87
2021-08-19 22:17:40.636,1.01,-1.085
2021-08-19 22:17:40.640,1.09,-1.26
2021-08-19 22:17:40.644,0.915,-1.28
2021-08-19 22:17:40.648,0.47,-0.98
2021-08-19 22:17:40.652,0.0,-0.58
2021-08-19 22:17:40.656,-0.245,-0.33
2021-08-19 22:17:40.660,-0.33,-0.18
2021-08-19 22:17:40.664,-0.375,-0.065
2021-08-19 22:17:40.668,-0.385,0.01
2021-08-19 22:17:40.672,-0.39,0.065
2021-08-19 22:17:40.676,-0.41,0.075
2021-08-19 22:17:40.680,-0.4,0.105
2021-08-19 22:17:40.684,-0.4,0.08
2021-08-19 22:17:40.688,-0.42,0.075
2021-08-19 22:17:40.692,-0.4,0.08
2021-08-19 22:17:40.696,-0.405,0.055
2021-08-19 22:17:40.700,-0.42,0.07
2021-08-19 22:17:40.704,-0.405,0.055
2021-08-19 22:17:40.708,-0.42,0.065
2021-08-19 22:17:40.712,-0.425,0.065
2021-08-19 22:17:40.716,-0.43,0.065
2021-08-19 22:17:40.720,-0.415,0.06
2021-08-19 22:17:40.724,-0.42,0.08
2021-08-19 22:17:40.728,-0.405,0.06
2021-08-19 22:17:40.732,-0.405,0.04
2021-08-19 22:17:40.736,-0.4,0.06
2021-08-19 22:17:40.740,-0.385,0.045
2021-08-19 22:17:40.744,-0.37,0.055
2021-08-19 22:17:40.748,-0.345,0.045
2021-08-19 22:17:40.752,-0.365,0.055
2021-08-19 22:17:40.756,-0.37,0.045
2021-08-19 22:17:40.760,-0.36,0.045
2021-08-19 22:17:40.764,-0.355,0.07
2021-08-19 22:17:40.768,-0.355,0.07
2021-08-19 22:17:40.772,-0.345,0.08
2021-08-19 22:17:40.776,-0.345,0.095
2021-08-19 22:17:40.780,-0.375,0.085
2021-08-19 22:17:40.784,-0.39,0.1
2021-08-19 22:17:40.788,-0.385,0.12
2021-08-19 22:17:40.792,-0.41,0.1
2021-08-19 22:17:40.796,-0.41,0.14
2021-08-19 22:17:40.800,-0.445,0.11
2021-08-19 22:17:40.804,-0.415,0.14
2021-08-19 22:17:40.808,-0.44,0.14
2021-08-19 22:17:40.812,-0.385,0.13
2021-08-19 22:17:40.816,-0.385,0.1
2021-08-19 22:17:40.820,-0.39,0.075
2021-08-19 22:17:40.824,-0.395,0.075
2021-08-19 22:17:40.828,-0.4,0.055
2021-08-19 22:17:40.832,-0.385,0.065
2021-08-19 22:17:40.836,-0.395,0.07
2021-08-19 22:17:40.840,-0.405,0.07
2021-08-19 22:17:40.844,-0.42,0.05
2021-08-19 22:17:40.848,-0.445,0.04
2021-08-19 22:17:40.852,-0.44,0.045
2021-08-19 22:17:40.856,-0.45,0.035
2021-08-19 22:17:40.860,-0.415,0.02
2021-08-19 22:17:40.864,-0.43,0.01
2021-08-19 22:17:40.868,-0.415,0.015
2021-08-19 22:17:40.872,-0.42,0.0
2021-08-19 22:17:40.876,-0.4,-0.025
2021-08-19 22:17:40.880,-0.395,-0.04
2021-08-19 22:17:40.884,-0.41,-0.05
2021-08-19 22:17:40.888,-0.395,-0.06
2021-08-19 22:17:40.892,-0.365,-0.07
2021-08-19 22:17:40.896,-0.355,-0.09
2021-08-19 22:17:40.900,-0.36,-0.05
2021-08-19 22:17:40.904,-0.32,-0.065
2021-08-19 22:17:40.908,-0.34,-0.055
2021-08-19 22:17:40.912,-0.335,-0.065
2021-08-19 22:17:40.916,-0.345,-0.055
2021-08-19 22:17:40.920,-0.34,-0.055
2021-08-19 22:17:40.924,-0.335,-0.065
2021-08-19 22:17:40.928,-0.34,-0.055
2021-08-19 22:17:40.932,-0.34,-0.06
2021-08-19 22:17:40.936,-0.34,-0.025
2021-08-19 22:17:40.940,-0.34,-0.03
2021-08-19 22:17:40.944,-0.31,-0.05
2021-08-19 22:17:40.948,-0.33,-0.03
2021-08-19 22:17:40.952,-0.325,-0.05
2021-08-19 22:17:40.956,-0.3,-0.035
2021-08-19 22:17:40.960,-0.285,-0.045
2021-08-19 22:17:40.964,-0.26,-0.03
2021-08-19 22:17:40.968,-0.25,-0.025
2021-08-19 22:17:40.972,-0.23,0.0
2021-08-19 22:17:40.976,-0.225,-0.01
2021-08-19 22:17:40.980,-0.215,0.01
2021-08-19 22:17:40.984,-0.215,0.0
2021-08-19 22:17:40.988,-0.205,0.0
2021-08-19 22:17:40.992,-0.17,0.005
2021-08-19 22:17:40.996,-0.2,0.02
2021-08-19 22:17:41.000,-0.2,0.025
2021-08-19 22:17:41.004,-0.19,0.05
2021-08-19 22:17:41.008,-0.13,0.045
2021-08-19 22:17:41.012,-0.085,0.03
2021-08-19 22:17:41.016,-0.045,0.035
2021-08-19 22:17:41.020,0.035,0.04
2021-08-19 22:17:41.024,0.085,0.015
2021-08-19 22:17:41.028,0.1,0.0
2021-08-19 22:17:41.032,0.105,-0.005
2021-08-19 22:17:41.036,0.085,-0.03
2021-08-19 22:17:41.040,0.06,-0.075
2021-08-19 22:17:41.044,0.035,-0.16
2021-08-19 22:17:41.048,0.135,-0.26
2021-08-19 22:17:41.052,0.38,-0.44
2021-08-19 22:17:41.056,0.69,-0.68
2021-08-19 22:17:41.060,0.935,-0.98
2021-08-19 22:17:41.064,1.005,-1.185
2021-08-19 22:17:41.068,0.89,-1.15
2021-08-19 22:17:41.072,0.53,-0.89
2021-08-19 22:17:41.076,0.085,-0.545
2021-08-19 22:17:41.080,-0.2,-0.235
2021-08-19 22:17:41.084,-0.365,-0.075
2021-08-19 22:17:41.088,-0.415,0.02
2021-08-19 22:17:41.092,-0.43,0.065
2021-08-19 22:17:41.096,-0.455,0.08
2021-08-19 22:17:41.100,-0.48,0.1
2021-08-19 22:17:41.104,-0.485,0.105
2021-08-19 22:17:41.108,-0.475,0.085
2021-08-19 22:17:41.112,-0.465,0.085
2021-08-19 22:17:41.116,-0.46,0.055
2021-08-19 22:17:41.120,-0.495,0.035
2021-08-19 22:17:41.124,-0.5,0.025
2021-08-19 22:17:41.128,-0.505,0.025
2021-08-19 22:17:41.132,-0.515,0.035
2021-08-19 22:17:41.136,-0.51,0.03
2021-08-19 22:17:41.140,-0.535,0.015
2021-08-19 22:17:41.144,-0.56,0.025
2021-08-19 22:17:41.148,-0.58,0.015
2021-08-19 22:17:41.152,-0.57,0.015
2021-08-19 22:17:41.156,-0.56,0.0
2021-08-19 22:17:41.160,-0.57,0.0
2021-08-19 22:17:41.164,-0.575,0.0
2021-08-19 22:17:41.168,-0.58,-0.01
2021-08-19 22:17:41.172,-0.58,-0.01
2021-08-19 22:17:41.176,-0.58,-0.01
2021-08-19 22:17:41.180,-0.58,-0.015
2021-08-19 22:17:41.184,-0.565,-0.01
2021-08-19 22:17:41.188,-0.57,-0.005
2021-08-19 22:17:41.192,-0.56,0.0
2021-08-19 22:17:41.196,-0.555,0.005
2021-08-19 22:17:41.200,-0.565,0.01
2021-08-19 22:17:41.204,-0.56,0.0
2021-08-19 22:17:41.208,-0.54,0.015
2021-08-19 22:17:41.212,-0.525,0.03
2021-08-19 22:17:41.216,-0.515,0.035
2021-08-19 22:17:41.220,-0.475,0.04
2021-08-19 22:17:41.224,-0.48,0.02
2021-08-19 22:17:41.228,-0.49,0.035
2021-08-19 22:17:41.232,-0.455,0.055
2021-08-19 22:17:41.236,-0.44,0.045
2021-08-19 22:17:41.240,-0.435,0.04
2021-08-19 22:17:41.244,-0.435,0.065
2021-08-19 22:17:41.248,-0.43,0.05
2021-08-19 22:17:41.252,-0.435,0.045
2021-08-19 22:17:41.256,-0.425,0.055
2021-08-19 22:17:41.260,-0.44,0.05
2021-08-19 22:17:41.264,-0.415,0.06
2021-08-19 22:17:41.268,-0.405,0.075
2021-08-19 22:17:41.272,-0.39,0.085
2021-08-19 22:17:41.276,-0.39,0.065
2021-08-19 22:17:41.280,-0.37,0.04
2021-08-19 22:17:41.284,-0.345,0.045
2021-08-19 22:17:41.288,-0.345,0.03
2021-08-19 22:17:41.292,-0.345,0.03
2021-08-19 22:17:41.296,-0.345,0.025
2021-08-19 22:17:41.300,-0.37,0.01
2021-08-19 22:17:41.304,-0.37,0.015
2021-08-19 22:17:41.308,-0.36,-0.005
2021-08-19 22:17:41.312,-0.36,-0.025
2021-08-19 22:17:41.316,-0.36,-0.045
2021-08-19 22:17:41.320,-0.32,-0.03
2021-08-19 22:17:41.324,-0.305,-0.045
2021-08-19 22:17:41.328,-0.285,-0.055
2021-08-19 22:17:41.332,-0.295,-0.05
2021-08-19 22:17:41.336,-0.295,-0.075
2021-08-19 22:17:41.340,-0.285,-0.095
2021-08-19 22:17:41.344,-0.285,-0.07
2021-08-19 22:17:41.348,-0.28,-0.08
2021-08-19 22:17:41.352,-0.3,-0.075
2021-08-19 22:17:41.356,-0.305,-0.075
2021-08-19 22:17:41.360,-0.305,-0.065
2021-08-19 22:17:41.364,-0.295,-0.08
2021-08-19 22:17:41.368,-0.285,-0.08
2021-08-19 22:17:41.372,-0.315,-0.095
2021-08-19 22:17:41.376,-0.32,-0.08
2021-08-19 22:17:41.380,-0.32,-0.085
2021-08-19 22:17:41.384,-0.325,-0.11
2021-08-19 22:17:41.388,-0.315,-0.1
2021-08-19 22:17:41.392,-0.31,-0.09
2021-08-19 22:17:41.396,-0.305,-0.095
2021-08-19 22:17:41.400,-0.29,-0.12
2021-08-19 22:17:41.404,-0.245,-0.13
2021-08-19 22:17:41.408,-0.185,-0.145
2021-08-19 22:17:41.412,-0.15,-0.155
2021-08-19 22:17:41.416,-0.06,-0.17
2021-08-19 22:17:41.420,0.0,-0.195
2021-08-19 22:17:41.424,0.07,-0.22
2021-08-19 22:17:41.428,0.125,-0.305
2021-08-19 22:17:41.432,0.2,-0.315
2021-08-19 22:17:41.436,0.28,-0.33
2021-08-19 22:17:41.440,0.285,-0.345
2021-08-19 22:17:41.444,0.295,-0.42
2021-08-19 22:17:41.448,0.395,-0.5
2021-08-19 22:17:41.452,0.68,-0.695
2021-08-19 22:17:41.456,0.96,-0.905
2021-08-19 22:17:41.460,1.08,-1.075
2021-08-19 22:17:41.464,0.95,-1.155
2021-08-19 22:17:41.468,0.57,-0.965
2021-08-19 22:17:41.472,0.125,-0.635
2021-08-19 22:17:41.476,-0.14,-0.395
2021-08-19 22:17:41.480,-0.25,-0.255
2021-08-19 22:17:41.484,-0.3,-0.185
2021-08-19 22:17:41.488,-0.31,-0.07
2021-08-19 22:17:41.492,-0.335,-0.01
2021-08-19 22:17:41.496,-0.385,0.015
2021-08-19 22:17:41.500,-0.41,0.03
2021-08-19 22:17:41.504,-0.41,0.045
2021-08-19 22:17:41.508,-0.415,0.02
2021-08-19 22:17:41.512,-0.39,0.02
2021-08-19 22:17:41.516,-0.425,-0.015
2021-08-19 22:17:41.520,-0.425,-0.015
2021-08-19 22:17:41.524,-0.435,0.0
2021-08-19 22:17:41.528,-0.44,0.0
2021-08-19 22:17:41.532,-0.43,0.01
2021-08-19 22:17:41.536,-0.49,0.01
2021-08-19 22:17:41.540,-0.505,-0.005
2021-08-19 22:17:41.544,-0.515,-0.025
2021-08-19 22:17:41.548,-0.515,0.0
2021-08-19 22:17:41.552,-0.495,0.005
2021-08-19 22:17:41.556,-0.47,-0.005
2021-08-19 22:17:41.560,-0.465,0.0
2021-08-19 22:17:41.564,-0.49,-0.03
2021-08-19 22:17:41.568,-0.47,-0.035
2021-08-19 22:17:41.572,-0.465,-0.04
2021-08-19 22:17:41.576,-0.455,-0.04
2021-08-19 22:17:41.580,-0.475,-0.06
2021-08-19 22:17:41.584,-0.485,-0.065
2021-08-19 22:17:41.588,-0.48,-0.07
2021-08-19 22:17:41.592,-0.47,-0.055
2021-08-19 22:17:41.596,-0.465,-0.07
2021-08-19 22:17:41.600,-0.49,-0.05
2021-08-19 22:17:41.604,-0.48,-0.06
2021-08-19 22:17:41.608,-0.485,-0.08
2021-08-19 22:17:41.612,-0.48,-0.085
2021-08-19 22:17:41.616,-0.515,-0.08
2021-08-19 22:17:41.620,-0.495,-0.07
2021-08-19 22:17:41.624,-0.47,-0.075
2021-08-19 22:17:41.628,-0.505,-0.07
2021-08-19 22:17:41.632,-0.49,-0.06
2021-08-19 22:17:41.636,-0.505,-0.085
2021-08-19 22:17:41.640,-0.48,-0.075
2021-08-19 22:17:41.644,-0.48,-0.09
2021-08-19 22:17:41.648,-0.485,-0.095
2021-08-19 22:17:41.652,-0.46,-0.105
2021-08-19 22:17:41.656,-0.48,-0.095
2021-08-19 22:17:41.660,-0.47,-0.115
2021-08-19 22:17:41.664,-0.45,-0.125
2021-08-19 22:17:41.668,-0.435,-0.115
2021-08-19 22:17:41.672,-0.43,-0.125
2021-08-19 22:17:41.676,-0.39,-0.125
2021-08-19 22:17:41.680,-0.355,-0.12
2021-08-19 22:17:41.684,-0.37,-0.12
2021-08-19 22:17:41.688,-0.365,-0.125
2021-08-19 22:17:41.692,-0.365,-0.12
2021-08-19 22:17:41.696,-0.32,-0.125
2021-08-19 22:17:41.700,-0.305,-0.155
2021-08-19 22:17:41.704,-0.29,-0.135
2021-08-19 22:17:41.708,-0.285,-0.115
2021-08-19 22:17:41.712,-0.27,-0.115
2021-08-19 22:17:41.716,-0.265,-0.11
2021-08-19 22:17:41.720,-0.28,-0.105
2021-08-19 22:17:41.724,-0.265,-0.095
2021-08-19 22:17:41.728,-0.25,-0.07
2021-08-19 22:17:41.732,-0.255,-0.06
2021-08-19 22:17:41.736,-0.245,-0.075
2021-08-19 22:17:41.740,-0.24,-0.06
2021-08-19 22:17:41.744,-0.23,-0.065
2021-08-19 22:17:41.748,-0.225,-0.055
2021-08-19 22:17:41.752,-0.23,-0.045
2021-08-19 22:17:41.756,-0.205,-0.06
2021-08-19 22:17:41.760,-0.21,-0.06
2021-08-19 22:17:41.764,-0.2,-0.04
2021-08-19 22:17:41.768,-0.225,-0.02
2021-08-19 22:17:41.772,-0.25,-0.005
2021-08-19 22:17:41.776,-0.26,-0.01
2021-08-19 22:17:41.780,-0.255,0.0
2021-08-19 22:17:41.784,-0.27,0.01
2021-08-19 22:17:41.788,-0.28,0.02
2021-08-19 22:17:41.792,-0.265,0.005
2021-08-19 22:17:41.796,-0.265,-0.01
2021-08-19 22:17:41.800,-0.255,-0.005
2021-08-19 22:17:41.804,-0.215,-0.015
2021-08-19 22:17:41.808,-0.145,-0.03
2021-08-19 22:17:41.812,-0.105,-0.09
2021-08-19 22:17:41.816,-0.035,-0.085
2021-08-19 22:17:41.820,0.02,-0.105
2021-08-19 22:17:41.824,0.095,-0.16
2021-08-19 22:17:41.828,0.145,-0.2
2021-08-19 22:17:41.832,0.165,-0.23
2021-08-19 22:17:41.836,0.175,-0.24
2021-08-19 22:17:41.840,0.17,-0.285
2021-08-19 22:17:41.844,0.17,-0.365
2021-08-19 22:17:41.848,0.26,-0.515
2021-08-19 22:17:41.852,0.52,-0.665
2021-08-19 22:17:41.856,0.85,-0.93
2021-08-19 22:17:41.860,1.075,-1.16
2021-08-19 22:17:41.864,1.1,-1.335
2021-08-19 22:17:41.868,0.89,-1.28
2021-08-19 22:17:41.872,0.43,-0.91
2021-08-19 22:17:41.876,0.015,-0.54
2021-08-19 22:17:41.880,-0.2,-0.335
2021-08-19 22:17:41.884,-0.33,-0.19
2021-08-19 22:17:41.888,-0.4,-0.115
2021-08-19 22:17:41.892,-0.42,-0.05
2021-08-19 22:17:41.896,-0.425,-0.005
2021-08-19 22:17:41.900,-0.475,0.01
2021-08-19 22:17:41.904,-0.485,0.025
2021-08-19 22:17:41.908,-0.47,0.025
2021-08-19 22:17:41.912,-0.485,0.03
2021-08-19 22:17:41.916,-0.465,0.015
2021-08-19 22:17:41.920,-0.5,0.015
2021-08-19 22:17:41.924,-0.475,0.025
2021-08-19 22:17:41.928,-0.49,0.02
2021-08-19 22:17:41.932,-0.48,0.035
2021-08-19 22:17:41.936,-0.48,0.025
2021-08-19 22:17:41.940,-0.46,0.01
2021-08-19 22:17:41.944,-0.465,0.035
2021-08-19 22:17:41.948,-0.46,0.01
2021-08-19 22:17:41.952,-0.485,0.02
2021-08-19 22:17:41.956,-0.47,0.02
2021-08-19 22:17:41.960,-0.455,0.055
2021-08-19 22:17:41.964,-0.465,0.045
2021-08-19 22:17:41.968,-0.475,0.085
2021-08-19 22:17:41.972,-0.47,0.085
2021-08-19 22:17:41.976,-0.46,0.085
2021-08-19 22:17:41.980,-0.445,0.08
2021-08-19 22:17:41.984,-0.445,0.095
2021-08-19 22:17:41.988,-0.455,0.1
2021-08-19 22:17:41.992,-0.465,0.1
2021-08-19 22:17:41.996,-0.48,0.145
2021-08-19 22:17:42.000,-0.485,0.155
2021-08-19 22:17:42.004,-0.49,0.14
2021-08-19 22:17:42.008,-0.515,0.14
2021-08-19 22:17:42.012,-0.5,0.13
2021-08-19 22:17:42.016,-0.53,0.155
2021-08-19 22:17:42.020,-0.525,0.185
2021-08-19 22:17:42.024,-0.51,0.155
2021-08-19 22:17:42.028,-0.505,0.155
2021-08-19 22:17:42.032,-0.515,0.16
2021-08-19 22:17:42.036,-0.495,0.135
2021-08-19 22:17:42.040,-0.495,0.13
2021-08-19 22:17:42.044,-0.5,0.11
2021-08-19 22:17:42.048,-0.46,0.08
2021-08-19 22:17:42.052,-0.45,0.055
2021-08-19 22:17:42.056,-0.445,0.03
2021-08-19 22:17:42.060,-0.43,0.005
2021-08-19 22:17:42.064,-0.435,0.0
2021-08-19 22:17:42.068,-0.4,-0.035
2021-08-19 22:17:42.072,-0.39,-0.025
2021-08-19 22:17:42.076,-0.38,-0.055
2021-08-19 22:17:42.080,-0.38,-0.045
2021-08-19 22:17:42.084,-0.37,-0.055
2021-08-19 22:17:42.088,-0.355,-0.06
2021-08-19 22:17:42.092,-0.355,-0.07
2021-08-19 22:17:42.096,-0.345,-0.07
2021-08-19 22:17:42.100,-0.34,-0.085
2021-08-19 22:17:42.104,-0.35,-0.08
2021-08-19 22:17:42.108,-0.33,-0.09
2021-08-19 22:17:42.112,-0.33,-0.08
2021-08-19 22:17:42.116,-0.33,-0.08
2021-08-19 22:17:42.120,-0.325,-0.065
2021-08-19 22:17:42.124,-0.305,-0.095
2021-08-19 22:17:42.128,-0.315,-0.075
2021-08-19 22:17:42.132,-0.32,-0.07
2021-08-19 22:17:42.136,-0.295,-0.09
2021-08-19 22:17:42.140,-0.31,-0.075
2021-08-19 22:17:42.144,-0.285,-0.07
2021-08-19 22:17:42.148,-0.28,-0.065
2021-08-19 22:17:42.152,-0.29,-0.045
2021-08-19 22:17:42.156,-0.29,-0.06
