Time,ECG1,ECG2
2021-08-19 20:32:06.964,0.055,-0.035
2021-08-19 20:32:06.968,0.05,0.255
2021-08-19 20:32:06.972,0.055,0.425
2021-08-19 20:32:06.976,0.075,0.565
2021-08-19 20:32:06.980,0.14,0.615
2021-08-19 20:32:06.984,0.22,0.515
2021-08-19 20:32:06.988,0.3,0.33
2021-08-19 20:32:06.992,0.33,0.26
2021-08-19 20:32:06.996,0.335,0.23
2021-08-19 20:32:07.000,0.315,0.09
2021-08-19 20:32:07.004,0.305,-0.135
2021-08-19 20:32:07.008,0.31,-0.28
2021-08-19 20:32:07.012,0.315,-0.28
2021-08-19 20:32:07.016,0.32,-0.34
2021-08-19 20:32:07.020,0.36,-0.4
2021-08-19 20:32:07.024,0.36,-0.425
2021-08-19 20:32:07.028,0.36,-0.415
2021-08-19 20:32:07.032,0.385,-0.385
2021-08-19 20:32:07.036,0.36,-0.39
2021-08-19 20:32:07.040,0.335,-0.425
2021-08-19 20:32:07.044,0.315,-0.415
2021-08-19 20:32:07.048,0.345,-0.395
2021-08-19 20:32:07.052,0.355,-0.395
2021-08-19 20:32:07.056,0.335,-0.43
2021-08-19 20:32:07.060,0.34,-0.43
2021-08-19 20:32:07.064,0.365,-0.39
2021-08-19 20:32:07.068,0.415,-0.415
2021-08-19 20:32:07.072,0.445,-0.465
2021-08-19 20:32:07.076,0.465,-0.47
2021-08-19 20:32:07.080,0.495,-0.445
2021-08-19 20:32:07.084,0.51,-0.47
2021-08-19 20:32:07.088,0.485,-0.475
2021-08-19 20:32:07.092,0.48,-0.495
2021-08-19 20:32:07.096,0.49,-0.49
2021-08-19 20:32:07.100,0.5,-0.565
2021-08-19 20:32:07.104,0.52,-0.625
2021-08-19 20:32:07.108,0.525,-0.635
2021-08-19 20:32:07.112,0.535,-0.615
2021-08-19 20:32:07.116,0.545,-0.615
2021-08-19 20:32:07.120,0.58,-0.625
2021-08-19 20:32:07.124,0.6,-0.635
2021-08-19 20:32:07.128,0.6,-0.635
2021-08-19 20:32:07.132,0.61,-0.645
2021-08-19 20:32:07.136,0.565,-0.64
2021-08-19 20:32:07.140,0.555,-0.655
2021-08-19 20:32:07.144,0.55,-0.65
2021-08-19 20:32:07.148,0.56,-0.615
2021-08-19 20:32:07.152,0.54,-0.615
2021-08-19 20:32:07.156,0.52,-0.595
2021-08-19 20:32:07.160,0.475,-0.59
2021-08-19 20:32:07.164,0.46,-0.605
2021-08-19 20:32:07.168,0.425,-0.66
2021-08-19 20:32:07.172,0.39,-0.62
2021-08-19 20:32:07.176,0.35,-0.585
2021-08-19 20:32:07.180,0.34,-0.525
2021-08-19 20:32:07.184,0.345,-0.465
2021-08-19 20:32:07.188,0.3,-0.42
2021-08-19 20:32:07.192,0.28,-0.435
2021-08-19 20:32:07.196,0.265,-0.495
2021-08-19 20:32:07.200,0.255,-0.555
2021-08-19 20:32:07.204,0.245,-0.56
2021-08-19 20:32:07.208,0.26,-0.5
2021-08-19 20:32:07.212,0.255,-0.425
2021-08-19 20:32:07.216,0.235,-0.385
2021-08-19 20:32:07.220,0.23,-0.425
2021-08-19 20:32:07.224,0.235,-0.415
2021-08-19 20:32:07.228,0.23,-0.345
2021-08-19 20:32:07.232,0.22,-0.355
2021-08-19 20:32:07.236,0.21,-0.335
2021-08-19 20:32:07.240,0.225,-0.275
2021-08-19 20:32:07.244,0.23,-0.25
2021-08-19 20:32:07.248,0.275,-0.325
2021-08-19 20:32:07.252,0.28,-0.39
2021-08-19 20:32:07.256,0.29,-0.355
2021-08-19 20:32:07.260,0.255,-0.295
2021-08-19 20:32:07.264,0.22,-0.29
2021-08-19 20:32:07.268,0.21,-0.32
2021-08-19 20:32:07.272,0.22,-0.3
2021-08-19 20:32:07.276,0.23,-0.34
2021-08-19 20:32:07.280,0.23,-0.43
2021-08-19 20:32:07.284,0.21,-0.465
2021-08-19 20:32:07.288,0.2,-0.425
2021-08-19 20:32:07.292,0.175,-0.425
2021-08-19 20:32:07.296,0.185,-0.41
2021-08-19 20:32:07.300,0.16,-0.38
2021-08-19 20:32:07.304,0.14,-0.42
2021-08-19 20:32:07.308,0.12,-0.415
2021-08-19 20:32:07.312,0.13,-0.395
2021-08-19 20:32:07.316,0.125,-0.4
2021-08-19 20:32:07.320,0.12,-0.415
2021-08-19 20:32:07.324,0.12,-0.405
2021-08-19 20:32:07.328,0.115,-0.4
2021-08-19 20:32:07.332,0.095,-0.385
2021-08-19 20:32:07.336,0.08,-0.4
2021-08-19 20:32:07.340,0.09,-0.37
2021-08-19 20:32:07.344,0.105,-0.365
2021-08-19 20:32:07.348,0.09,-0.355
2021-08-19 20:32:07.352,0.04,-0.42
2021-08-19 20:32:07.356,-0.035,-0.43
2021-08-19 20:32:07.360,-0.06,-0.405
2021-08-19 20:32:07.364,0.06,-0.34
2021-08-19 20:32:07.368,0.33,-0.325
2021-08-19 20:32:07.372,0.635,-0.3
2021-08-19 20:32:07.376,0.885,-0.295
2021-08-19 20:32:07.380,0.995,-0.3
2021-08-19 20:32:07.384,0.88,-0.27
2021-08-19 20:32:07.388,0.57,-0.25
2021-08-19 20:32:07.392,0.22,-0.255
2021-08-19 20:32:07.396,-0.005,-0.255
2021-08-19 20:32:07.400,-0.1,-0.235
2021-08-19 20:32:07.404,-0.14,-0.15
2021-08-19 20:32:07.408,-0.16,-0.01
2021-08-19 20:32:07.412,-0.175,0.085
2021-08-19 20:32:07.416,-0.17,0.175
2021-08-19 20:32:07.420,-0.2,0.275
2021-08-19 20:32:07.424,-0.225,0.39
2021-08-19 20:32:07.428,-0.24,0.525
2021-08-19 20:32:07.432,-0.255,0.65
2021-08-19 20:32:07.436,-0.22,0.66
2021-08-19 20:32:07.440,-0.135,0.565
2021-08-19 20:32:07.444,-0.05,0.455
2021-08-19 20:32:07.448,-0.005,0.37
2021-08-19 20:32:07.452,-0.01,0.295
2021-08-19 20:32:07.456,-0.02,0.155
2021-08-19 20:32:07.460,-0.005,-0.055
2021-08-19 20:32:07.464,-0.02,-0.195
2021-08-19 20:32:07.468,-0.015,-0.285
2021-08-19 20:32:07.472,0.0,-0.32
2021-08-19 20:32:07.476,-0.02,-0.355
2021-08-19 20:32:07.480,-0.025,-0.43
2021-08-19 20:32:07.484,-0.01,-0.46
2021-08-19 20:32:07.488,0.015,-0.44
2021-08-19 20:32:07.492,0.01,-0.425
2021-08-19 20:32:07.496,0.0,-0.45
2021-08-19 20:32:07.500,-0.01,-0.415
2021-08-19 20:32:07.504,-0.055,-0.395
2021-08-19 20:32:07.508,-0.04,-0.405
2021-08-19 20:32:07.512,-0.025,-0.38
2021-08-19 20:32:07.516,0.0,-0.405
2021-08-19 20:32:07.520,-0.035,-0.435
2021-08-19 20:32:07.524,-0.07,-0.475
2021-08-19 20:32:07.528,-0.105,-0.49
2021-08-19 20:32:07.532,-0.105,-0.465
2021-08-19 20:32:07.536,-0.095,-0.42
2021-08-19 20:32:07.540,-0.095,-0.4
2021-08-19 20:32:07.544,-0.08,-0.44
2021-08-19 20:32:07.548,-0.065,-0.49
2021-08-19 20:32:07.552,-0.035,-0.51
2021-08-19 20:32:07.556,-0.045,-0.5
2021-08-19 20:32:07.560,-0.06,-0.48
2021-08-19 20:32:07.564,-0.075,-0.48
2021-08-19 20:32:07.568,-0.06,-0.455
2021-08-19 20:32:07.572,-0.06,-0.44
2021-08-19 20:32:07.576,-0.04,-0.49
2021-08-19 20:32:07.580,-0.075,-0.54
2021-08-19 20:32:07.584,-0.065,-0.57
2021-08-19 20:32:07.588,-0.06,-0.53
2021-08-19 20:32:07.592,-0.05,-0.51
2021-08-19 20:32:07.596,-0.015,-0.55
2021-08-19 20:32:07.600,0.02,-0.56
2021-08-19 20:32:07.604,0.02,-0.54
2021-08-19 20:32:07.608,0.025,-0.51
2021-08-19 20:32:07.612,0.02,-0.51
2021-08-19 20:32:07.616,0.01,-0.56
2021-08-19 20:32:07.620,0.03,-0.565
2021-08-19 20:32:07.624,0.005,-0.59
2021-08-19 20:32:07.628,0.035,-0.605
2021-08-19 20:32:07.632,0.035,-0.605
2021-08-19 20:32:07.636,-0.015,-0.585
2021-08-19 20:32:07.640,-0.065,-0.58
2021-08-19 20:32:07.644,-0.05,-0.64
2021-08-19 20:32:07.648,-0.05,-0.635
2021-08-19 20:32:07.652,-0.065,-0.595
2021-08-19 20:32:07.656,-0.075,-0.54
2021-08-19 20:32:07.660,-0.075,-0.525
2021-08-19 20:32:07.664,-0.055,-0.515
2021-08-19 20:32:07.668,-0.065,-0.49
2021-08-19 20:32:07.672,-0.105,-0.47
2021-08-19 20:32:07.676,-0.095,-0.475
2021-08-19 20:32:07.680,-0.12,-0.415
2021-08-19 20:32:07.684,-0.135,-0.4
2021-08-19 20:32:07.688,-0.115,-0.39
2021-08-19 20:32:07.692,-0.09,-0.355
2021-08-19 20:32:07.696,-0.1,-0.37
2021-08-19 20:32:07.700,-0.16,-0.42
2021-08-19 20:32:07.704,-0.13,-0.405
2021-08-19 20:32:07.708,-0.06,-0.375
2021-08-19 20:32:07.712,0.13,-0.345
2021-08-19 20:32:07.716,0.41,-0.375
2021-08-19 20:32:07.720,0.745,-0.34
2021-08-19 20:32:07.724,1.01,-0.28
2021-08-19 20:32:07.728,1.08,-0.26
2021-08-19 20:32:07.732,0.875,-0.235
2021-08-19 20:32:07.736,0.49,-0.225
2021-08-19 20:32:07.740,0.18,-0.255
2021-08-19 20:32:07.744,0.0,-0.285
2021-08-19 20:32:07.748,-0.17,-0.32
2021-08-19 20:32:07.752,-0.31,-0.265
2021-08-19 20:32:07.756,-0.425,-0.09
2021-08-19 20:32:07.760,-0.44,0.125
2021-08-19 20:32:07.764,-0.47,0.33
2021-08-19 20:32:07.768,-0.395,0.49
2021-08-19 20:32:07.772,-0.3,0.51
2021-08-19 20:32:07.776,-0.215,0.425
2021-08-19 20:32:07.780,-0.17,0.27
2021-08-19 20:32:07.784,-0.16,0.23
2021-08-19 20:32:07.788,-0.135,0.235
2021-08-19 20:32:07.792,-0.16,0.13
2021-08-19 20:32:07.796,-0.175,-0.02
2021-08-19 20:32:07.800,-0.135,-0.17
2021-08-19 20:32:07.804,-0.105,-0.29
2021-08-19 20:32:07.808,-0.11,-0.355
2021-08-19 20:32:07.812,-0.13,-0.385
2021-08-19 20:32:07.816,-0.155,-0.425
2021-08-19 20:32:07.820,-0.14,-0.445
2021-08-19 20:32:07.824,-0.135,-0.45
2021-08-19 20:32:07.828,-0.13,-0.435
2021-08-19 20:32:07.832,-0.125,-0.445
2021-08-19 20:32:07.836,-0.14,-0.475
2021-08-19 20:32:07.840,-0.135,-0.48
2021-08-19 20:32:07.844,-0.16,-0.505
2021-08-19 20:32:07.848,-0.17,-0.495
2021-08-19 20:32:07.852,-0.16,-0.46
2021-08-19 20:32:07.856,-0.155,-0.43
2021-08-19 20:32:07.860,-0.145,-0.45
2021-08-19 20:32:07.864,-0.15,-0.505
2021-08-19 20:32:07.868,-0.14,-0.515
2021-08-19 20:32:07.872,-0.145,-0.545
2021-08-19 20:32:07.876,-0.145,-0.53
2021-08-19 20:32:07.880,-0.135,-0.525
2021-08-19 20:32:07.884,-0.13,-0.515
2021-08-19 20:32:07.888,-0.115,-0.505
2021-08-19 20:32:07.892,-0.09,-0.51
2021-08-19 20:32:07.896,-0.06,-0.52
2021-08-19 20:32:07.900,-0.045,-0.56
2021-08-19 20:32:07.904,-0.03,-0.51
2021-08-19 20:32:07.908,-0.02,-0.5
2021-08-19 20:32:07.912,-0.05,-0.505
2021-08-19 20:32:07.916,-0.045,-0.52
2021-08-19 20:32:07.920,-0.035,-0.525
2021-08-19 20:32:07.924,-0.015,-0.52
2021-08-19 20:32:07.928,-0.01,-0.565
2021-08-19 20:32:07.932,0.0,-0.585
2021-08-19 20:32:07.936,0.01,-0.565
2021-08-19 20:32:07.940,0.025,-0.525
2021-08-19 20:32:07.944,0.02,-0.5
2021-08-19 20:32:07.948,0.025,-0.495
2021-08-19 20:32:07.952,0.025,-0.49
2021-08-19 20:32:07.956,0.01,-0.53
2021-08-19 20:32:07.960,0.015,-0.58
2021-08-19 20:32:07.964,0.015,-0.56
2021-08-19 20:32:07.968,0.005,-0.515
2021-08-19 20:32:07.972,0.0,-0.46
2021-08-19 20:32:07.976,-0.005,-0.45
2021-08-19 20:32:07.980,-0.02,-0.475
2021-08-19 20:32:07.984,-0.04,-0.465
2021-08-19 20:32:07.988,-0.07,-0.475
2021-08-19 20:32:07.992,-0.105,-0.46
2021-08-19 20:32:07.996,-0.125,-0.415
2021-08-19 20:32:08.000,-0.14,-0.41
2021-08-19 20:32:08.004,-0.12,-0.445
2021-08-19 20:32:08.008,-0.125,-0.465
2021-08-19 20:32:08.012,-0.16,-0.46
2021-08-19 20:32:08.016,-0.21,-0.44
2021-08-19 20:32:08.020,-0.195,-0.415
2021-08-19 20:32:08.024,-0.215,-0.38
2021-08-19 20:32:08.028,-0.21,-0.345
2021-08-19 20:32:08.032,-0.225,-0.34
2021-08-19 20:32:08.036,-0.215,-0.395
2021-08-19 20:32:08.040,-0.19,-0.405
2021-08-19 20:32:08.044,-0.19,-0.41
2021-08-19 20:32:08.048,-0.18,-0.4
2021-08-19 20:32:08.052,-0.205,-0.37
2021-08-19 20:32:08.056,-0.23,-0.34
2021-08-19 20:32:08.060,-0.22,-0.34
2021-08-19 20:32:08.064,-0.225,-0.345
2021-08-19 20:32:08.068,-0.24,-0.36
2021-08-19 20:32:08.072,-0.255,-0.385
2021-08-19 20:32:08.076,-0.24,-0.365
2021-08-19 20:32:08.080,-0.235,-0.345
2021-08-19 20:32:08.084,-0.25,-0.355
2021-08-19 20:32:08.088,-0.25,-0.335
2021-08-19 20:32:08.092,-0.27,-0.36
2021-08-19 20:32:08.096,-0.28,-0.33
2021-08-19 20:32:08.100,-0.295,-0.325
2021-08-19 20:32:08.104,-0.32,-0.28
2021-08-19 20:32:08.108,-0.305,-0.28
2021-08-19 20:32:08.112,-0.28,-0.315
2021-08-19 20:32:08.116,-0.285,-0.28
2021-08-19 20:32:08.120,-0.28,-0.295
2021-08-19 20:32:08.124,-0.28,-0.315
2021-08-19 20:32:08.128,-0.325,-0.295
2021-08-19 20:32:08.132,-0.34,-0.265
2021-08-19 20:32:08.136,-0.315,-0.25
2021-08-19 20:32:08.140,-0.295,-0.23
2021-08-19 20:32:08.144,-0.245,-0.26
2021-08-19 20:32:08.148,-0.215,-0.255
2021-08-19 20:32:08.152,-0.22,-0.265
2021-08-19 20:32:08.156,-0.26,-0.245
2021-08-19 20:32:08.160,-0.27,-0.23
2021-08-19 20:32:08.164,-0.28,-0.215
2021-08-19 20:32:08.168,-0.27,-0.27
2021-08-19 20:32:08.172,-0.245,-0.3
2021-08-19 20:32:08.176,-0.255,-0.28
2021-08-19 20:32:08.180,-0.25,-0.31
2021-08-19 20:32:08.184,-0.275,-0.33
2021-08-19 20:32:08.188,-0.215,-0.33
2021-08-19 20:32:08.192,-0.045,-0.305
2021-08-19 20:32:08.196,0.175,-0.275
2021-08-19 20:32:08.200,0.43,-0.23
2021-08-19 20:32:08.204,0.67,-0.185
2021-08-19 20:32:08.208,0.79,-0.175
2021-08-19 20:32:08.212,0.68,-0.2
2021-08-19 20:32:08.216,0.38,-0.215
2021-08-19 20:32:08.220,0.04,-0.235
2021-08-19 20:32:08.224,-0.2,-0.265
2021-08-19 20:32:08.228,-0.335,-0.275
2021-08-19 20:32:08.232,-0.38,-0.195
2021-08-19 20:32:08.236,-0.41,-0.065
2021-08-19 20:32:08.240,-0.42,0.05
2021-08-19 20:32:08.244,-0.455,0.175
2021-08-19 20:32:08.248,-0.525,0.315
2021-08-19 20:32:08.252,-0.595,0.46
2021-08-19 20:32:08.256,-0.615,0.62
2021-08-19 20:32:08.260,-0.6,0.705
2021-08-19 20:32:08.264,-0.56,0.7
2021-08-19 20:32:08.268,-0.465,0.58
2021-08-19 20:32:08.272,-0.35,0.48
2021-08-19 20:32:08.276,-0.27,0.39
2021-08-19 20:32:08.280,-0.27,0.355
2021-08-19 20:32:08.284,-0.26,0.285
2021-08-19 20:32:08.288,-0.265,0.1
2021-08-19 20:32:08.292,-0.27,-0.055
2021-08-19 20:32:08.296,-0.27,-0.175
2021-08-19 20:32:08.300,-0.255,-0.21
2021-08-19 20:32:08.304,-0.25,-0.2
2021-08-19 20:32:08.308,-0.24,-0.23
2021-08-19 20:32:08.312,-0.24,-0.26
2021-08-19 20:32:08.316,-0.215,-0.275
2021-08-19 20:32:08.320,-0.215,-0.265
2021-08-19 20:32:08.324,-0.21,-0.275
2021-08-19 20:32:08.328,-0.21,-0.26
2021-08-19 20:32:08.332,-0.21,-0.24
2021-08-19 20:32:08.336,-0.205,-0.255
2021-08-19 20:32:08.340,-0.17,-0.26
2021-08-19 20:32:08.344,-0.155,-0.255
2021-08-19 20:32:08.348,-0.15,-0.24
2021-08-19 20:32:08.352,-0.14,-0.25
2021-08-19 20:32:08.356,-0.14,-0.25
2021-08-19 20:32:08.360,-0.14,-0.275
2021-08-19 20:32:08.364,-0.16,-0.295
2021-08-19 20:32:08.368,-0.155,-0.32
2021-08-19 20:32:08.372,-0.175,-0.345
2021-08-19 20:32:08.376,-0.185,-0.36
2021-08-19 20:32:08.380,-0.195,-0.35
2021-08-19 20:32:08.384,-0.205,-0.385
2021-08-19 20:32:08.388,-0.19,-0.37
2021-08-19 20:32:08.392,-0.18,-0.365
2021-08-19 20:32:08.396,-0.18,-0.405
2021-08-19 20:32:08.400,-0.215,-0.44
2021-08-19 20:32:08.404,-0.22,-0.435
2021-08-19 20:32:08.408,-0.225,-0.44
2021-08-19 20:32:08.412,-0.22,-0.45
2021-08-19 20:32:08.416,-0.205,-0.42
2021-08-19 20:32:08.420,-0.225,-0.4
2021-08-19 20:32:08.424,-0.24,-0.42
2021-08-19 20:32:08.428,-0.25,-0.435
2021-08-19 20:32:08.432,-0.24,-0.415
2021-08-19 20:32:08.436,-0.235,-0.425
2021-08-19 20:32:08.440,-0.21,-0.415
2021-08-19 20:32:08.444,-0.215,-0.425
2021-08-19 20:32:08.448,-0.22,-0.425
2021-08-19 20:32:08.452,-0.21,-0.43
2021-08-19 20:32:08.456,-0.2,-0.425
2021-08-19 20:32:08.460,-0.205,-0.435
2021-08-19 20:32:08.464,-0.18,-0.41
2021-08-19 20:32:08.468,-0.185,-0.425
2021-08-19 20:32:08.472,-0.22,-0.42
2021-08-19 20:32:08.476,-0.195,-0.395
2021-08-19 20:32:08.480,-0.19,-0.345
2021-08-19 20:32:08.484,-0.18,-0.335
2021-08-19 20:32:08.488,-0.175,-0.31
2021-08-19 20:32:08.492,-0.205,-0.305
2021-08-19 20:32:08.496,-0.2,-0.25
2021-08-19 20:32:08.500,-0.21,-0.21
2021-08-19 20:32:08.504,-0.205,-0.18
2021-08-19 20:32:08.508,-0.2,-0.14
2021-08-19 20:32:08.512,-0.195,-0.105
2021-08-19 20:32:08.516,-0.195,-0.095
2021-08-19 20:32:08.520,-0.19,-0.08
2021-08-19 20:32:08.524,-0.15,-0.025
2021-08-19 20:32:08.528,-0.13,-0.015
2021-08-19 20:32:08.532,-0.135,-0.02
2021-08-19 20:32:08.536,-0.12,-0.025
2021-08-19 20:32:08.540,0.015,-0.03
2021-08-19 20:32:08.544,0.21,-0.05
2021-08-19 20:32:08.548,0.385,-0.025
2021-08-19 20:32:08.552,0.43,-0.025
2021-08-19 20:32:08.556,0.335,-0.035
2021-08-19 20:32:08.560,0.105,-0.04
2021-08-19 20:32:08.564,-0.09,-0.08
2021-08-19 20:32:08.568,-0.145,-0.13
2021-08-19 20:32:08.572,-0.16,-0.19
2021-08-19 20:32:08.576,-0.175,-0.18
2021-08-19 20:32:08.580,-0.225,-0.125
2021-08-19 20:32:08.584,-0.35,0.055
2021-08-19 20:32:08.588,-0.44,0.335
2021-08-19 20:32:08.592,-0.505,0.575
2021-08-19 20:32:08.596,-0.475,0.78
2021-08-19 20:32:08.600,-0.42,0.91
2021-08-19 20:32:08.604,-0.395,0.975
2021-08-19 20:32:08.608,-0.315,0.94
2021-08-19 20:32:08.612,-0.28,0.815
2021-08-19 20:32:08.616,-0.26,0.685
2021-08-19 20:32:08.620,-0.26,0.56
2021-08-19 20:32:08.624,-0.265,0.36
2021-08-19 20:32:08.628,-0.275,0.125
2021-08-19 20:32:08.632,-0.265,-0.005
2021-08-19 20:32:08.636,-0.26,-0.055
2021-08-19 20:32:08.640,-0.245,-0.055
2021-08-19 20:32:08.644,-0.245,-0.085
2021-08-19 20:32:08.648,-0.28,-0.13
2021-08-19 20:32:08.652,-0.285,-0.14
2021-08-19 20:32:08.656,-0.255,-0.175
2021-08-19 20:32:08.660,-0.245,-0.18
2021-08-19 20:32:08.664,-0.23,-0.195
2021-08-19 20:32:08.668,-0.225,-0.215
2021-08-19 20:32:08.672,-0.205,-0.2
2021-08-19 20:32:08.676,-0.21,-0.185
2021-08-19 20:32:08.680,-0.2,-0.19
2021-08-19 20:32:08.684,-0.215,-0.19
2021-08-19 20:32:08.688,-0.205,-0.19
2021-08-19 20:32:08.692,-0.205,-0.17
2021-08-19 20:32:08.696,-0.19,-0.17
2021-08-19 20:32:08.700,-0.185,-0.165
2021-08-19 20:32:08.704,-0.17,-0.175
2021-08-19 20:32:08.708,-0.15,-0.185
2021-08-19 20:32:08.712,-0.13,-0.21
2021-08-19 20:32:08.716,-0.105,-0.18
2021-08-19 20:32:08.720,-0.075,-0.18
2021-08-19 20:32:08.724,-0.07,-0.16
2021-08-19 20:32:08.728,-0.06,-0.19
2021-08-19 20:32:08.732,-0.03,-0.21
2021-08-19 20:32:08.736,0.0,-0.26
2021-08-19 20:32:08.740,-0.02,-0.27
2021-08-19 20:32:08.744,-0.005,-0.3
2021-08-19 20:32:08.748,-0.025,-0.34
2021-08-19 20:32:08.752,-0.03,-0.36
2021-08-19 20:32:08.756,-0.035,-0.38
2021-08-19 20:32:08.760,-0.025,-0.4
2021-08-19 20:32:08.764,-0.035,-0.41
2021-08-19 20:32:08.768,-0.06,-0.43
2021-08-19 20:32:08.772,-0.08,-0.45
2021-08-19 20:32:08.776,-0.095,-0.43
2021-08-19 20:32:08.780,-0.1,-0.445
2021-08-19 20:32:08.784,-0.105,-0.43
2021-08-19 20:32:08.788,-0.11,-0.44
2021-08-19 20:32:08.792,-0.15,-0.415
2021-08-19 20:32:08.796,-0.155,-0.43
2021-08-19 20:32:08.800,-0.18,-0.425
2021-08-19 20:32:08.804,-0.2,-0.425
2021-08-19 20:32:08.808,-0.22,-0.38
2021-08-19 20:32:08.812,-0.24,-0.345
2021-08-19 20:32:08.816,-0.245,-0.345
2021-08-19 20:32:08.820,-0.25,-0.3
2021-08-19 20:32:08.824,-0.24,-0.265
2021-08-19 20:32:08.828,-0.25,-0.255
2021-08-19 20:32:08.832,-0.275,-0.23
2021-08-19 20:32:08.836,-0.28,-0.225
2021-08-19 20:32:08.840,-0.32,-0.2
2021-08-19 20:32:08.844,-0.295,-0.17
2021-08-19 20:32:08.848,-0.21,-0.15
2021-08-19 20:32:08.852,0.005,-0.125
2021-08-19 20:32:08.856,0.295,-0.105
2021-08-19 20:32:08.860,0.61,-0.085
2021-08-19 20:32:08.864,0.79,-0.04
2021-08-19 20:32:08.868,0.735,-0.005
2021-08-19 20:32:08.872,0.435,0.03
2021-08-19 20:32:08.876,0.005,0.04
2021-08-19 20:32:08.880,-0.31,0.015
2021-08-19 20:32:08.884,-0.505,-0.005
2021-08-19 20:32:08.888,-0.55,-0.025
2021-08-19 20:32:08.892,-0.555,0.09
2021-08-19 20:32:08.896,-0.62,0.295
2021-08-19 20:32:08.900,-0.71,0.47
2021-08-19 20:32:08.904,-0.785,0.64
2021-08-19 20:32:08.908,-0.82,0.83
2021-08-19 20:32:08.912,-0.795,0.99
2021-08-19 20:32:08.916,-0.725,1.08
2021-08-19 20:32:08.920,-0.6,1.0
2021-08-19 20:32:08.924,-0.535,0.84
2021-08-19 20:32:08.928,-0.47,0.73
2021-08-19 20:32:08.932,-0.425,0.67
2021-08-19 20:32:08.936,-0.45,0.56
2021-08-19 20:32:08.940,-0.465,0.365
2021-08-19 20:32:08.944,-0.475,0.175
2021-08-19 20:32:08.948,-0.495,0.04
2021-08-19 20:32:08.952,-0.52,-0.03
2021-08-19 20:32:08.956,-0.51,-0.075
2021-08-19 20:32:08.960,-0.525,-0.095
2021-08-19 20:32:08.964,-0.535,-0.12
2021-08-19 20:32:08.968,-0.55,-0.155
2021-08-19 20:32:08.972,-0.55,-0.15
2021-08-19 20:32:08.976,-0.57,-0.19
2021-08-19 20:32:08.980,-0.57,-0.22
2021-08-19 20:32:08.984,-0.6,-0.215
2021-08-19 20:32:08.988,-0.62,-0.225
2021-08-19 20:32:08.992,-0.605,-0.23
2021-08-19 20:32:08.996,-0.62,-0.24
2021-08-19 20:32:09.000,-0.615,-0.25
2021-08-19 20:32:09.004,-0.585,-0.255
2021-08-19 20:32:09.008,-0.61,-0.265
2021-08-19 20:32:09.012,-0.6,-0.265
2021-08-19 20:32:09.016,-0.665,-0.255
2021-08-19 20:32:09.020,-0.66,-0.255
2021-08-19 20:32:09.024,-0.675,-0.26
2021-08-19 20:32:09.028,-0.655,-0.27
2021-08-19 20:32:09.032,-0.645,-0.29
2021-08-19 20:32:09.036,-0.65,-0.31
2021-08-19 20:32:09.040,-0.64,-0.29
2021-08-19 20:32:09.044,-0.625,-0.3
2021-08-19 20:32:09.048,-0.615,-0.285
2021-08-19 20:32:09.052,-0.605,-0.31
2021-08-19 20:32:09.056,-0.6,-0.33
2021-08-19 20:32:09.060,-0.57,-0.335
2021-08-19 20:32:09.064,-0.55,-0.335
2021-08-19 20:32:09.068,-0.53,-0.33
2021-08-19 20:32:09.072,-0.5,-0.35
2021-08-19 20:32:09.076,-0.455,-0.33
2021-08-19 20:32:09.080,-0.48,-0.345
2021-08-19 20:32:09.084,-0.48,-0.32
2021-08-19 20:32:09.088,-0.44,-0.315
2021-08-19 20:32:09.092,-0.435,-0.315
2021-08-19 20:32:09.096,-0.425,-0.31
2021-08-19 20:32:09.100,-0.435,-0.295
2021-08-19 20:32:09.104,-0.435,-0.285
2021-08-19 20:32:09.108,-0.445,-0.26
2021-08-19 20:32:09.112,-0.435,-0.225
2021-08-19 20:32:09.116,-0.425,-0.185
2021-08-19 20:32:09.120,-0.42,-0.17
2021-08-19 20:32:09.124,-0.42,-0.15
2021-08-19 20:32:09.128,-0.43,-0.12
2021-08-19 20:32:09.132,-0.435,-0.105
2021-08-19 20:32:09.136,-0.465,-0.095
2021-08-19 20:32:09.140,-0.47,-0.115
2021-08-19 20:32:09.144,-0.48,-0.12
2021-08-19 20:32:09.148,-0.445,-0.125
2021-08-19 20:32:09.152,-0.33,-0.12
2021-08-19 20:32:09.156,-0.105,-0.11
2021-08-19 20:32:09.160,0.18,-0.125
2021-08-19 20:32:09.164,0.5,-0.09
2021-08-19 20:32:09.168,0.69,-0.09
2021-08-19 20:32:09.172,0.655,-0.015
2021-08-19 20:32:09.176,0.35,0.01
2021-08-19 20:32:09.180,-0.015,0.0
2021-08-19 20:32:09.184,-0.325,-0.035
2021-08-19 20:32:09.188,-0.48,-0.105
2021-08-19 20:32:09.192,-0.64,-0.07
2021-08-19 20:32:09.196,-0.805,0.05
2021-08-19 20:32:09.200,-0.97,0.26
2021-08-19 20:32:09.204,-1.06,0.54
2021-08-19 20:32:09.208,-1.065,0.73
2021-08-19 20:32:09.212,-0.985,0.86
2021-08-19 20:32:09.216,-0.88,0.81
2021-08-19 20:32:09.220,-0.82,0.63
2021-08-19 20:32:09.224,-0.775,0.495
2021-08-19 20:32:09.228,-0.72,0.48
2021-08-19 20:32:09.232,-0.68,0.445
2021-08-19 20:32:09.236,-0.685,0.29
2021-08-19 20:32:09.240,-0.69,0.16
2021-08-19 20:32:09.244,-0.695,0.11
2021-08-19 20:32:09.248,-0.695,0.025
2021-08-19 20:32:09.252,-0.695,-0.035
2021-08-19 20:32:09.256,-0.685,-0.05
2021-08-19 20:32:09.260,-0.69,-0.06
2021-08-19 20:32:09.264,-0.71,-0.03
2021-08-19 20:32:09.268,-0.695,-0.02
2021-08-19 20:32:09.272,-0.67,-0.08
2021-08-19 20:32:09.276,-0.65,-0.08
2021-08-19 20:32:09.280,-0.665,-0.08
2021-08-19 20:32:09.284,-0.675,-0.07
2021-08-19 20:32:09.288,-0.68,-0.065
2021-08-19 20:32:09.292,-0.665,-0.07
2021-08-19 20:32:09.296,-0.645,-0.065
2021-08-19 20:32:09.300,-0.665,-0.065
2021-08-19 20:32:09.304,-0.64,-0.05
2021-08-19 20:32:09.308,-0.65,-0.06
2021-08-19 20:32:09.312,-0.655,-0.105
2021-08-19 20:32:09.316,-0.64,-0.1
2021-08-19 20:32:09.320,-0.62,-0.14
2021-08-19 20:32:09.324,-0.615,-0.18
2021-08-19 20:32:09.328,-0.605,-0.22
2021-08-19 20:32:09.332,-0.6,-0.22
2021-08-19 20:32:09.336,-0.605,-0.22
2021-08-19 20:32:09.340,-0.605,-0.25
2021-08-19 20:32:09.344,-0.6,-0.29
2021-08-19 20:32:09.348,-0.605,-0.285
2021-08-19 20:32:09.352,-0.585,-0.29
2021-08-19 20:32:09.356,-0.565,-0.32
2021-08-19 20:32:09.360,-0.56,-0.32
2021-08-19 20:32:09.364,-0.52,-0.36
2021-08-19 20:32:09.368,-0.525,-0.34
2021-08-19 20:32:09.372,-0.53,-0.35
2021-08-19 20:32:09.376,-0.54,-0.335
2021-08-19 20:32:09.380,-0.54,-0.33
2021-08-19 20:32:09.384,-0.515,-0.33
2021-08-19 20:32:09.388,-0.51,-0.335
2021-08-19 20:32:09.392,-0.525,-0.34
2021-08-19 20:32:09.396,-0.53,-0.32
2021-08-19 20:32:09.400,-0.55,-0.3
2021-08-19 20:32:09.404,-0.565,-0.255
2021-08-19 20:32:09.408,-0.555,-0.24
2021-08-19 20:32:09.412,-0.545,-0.23
2021-08-19 20:32:09.416,-0.54,-0.2
2021-08-19 20:32:09.420,-0.545,-0.185
2021-08-19 20:32:09.424,-0.56,-0.16
2021-08-19 20:32:09.428,-0.58,-0.12
2021-08-19 20:32:09.432,-0.56,-0.115
2021-08-19 20:32:09.436,-0.54,-0.1
2021-08-19 20:32:09.440,-0.53,-0.1
2021-08-19 20:32:09.444,-0.565,-0.05
2021-08-19 20:32:09.448,-0.595,-0.025
2021-08-19 20:32:09.452,-0.6,-0.01
2021-08-19 20:32:09.456,-0.595,0.0
2021-08-19 20:32:09.460,-0.55,0.01
2021-08-19 20:32:09.464,-0.555,0.015
2021-08-19 20:32:09.468,-0.555,0.025
2021-08-19 20:32:09.472,-0.53,0.025
2021-08-19 20:32:09.476,-0.525,0.035
2021-08-19 20:32:09.480,-0.51,0.07
2021-08-19 20:32:09.484,-0.48,0.035
2021-08-19 20:32:09.488,-0.46,0.035
2021-08-19 20:32:09.492,-0.45,0.045
2021-08-19 20:32:09.496,-0.46,0.065
2021-08-19 20:32:09.500,-0.465,0.07
2021-08-19 20:32:09.504,-0.46,0.06
2021-08-19 20:32:09.508,-0.46,0.025
2021-08-19 20:32:09.512,-0.455,-0.03
2021-08-19 20:32:09.516,-0.43,-0.05
2021-08-19 20:32:09.520,-0.435,-0.085
2021-08-19 20:32:09.524,-0.435,-0.1
2021-08-19 20:32:09.528,-0.47,-0.07
2021-08-19 20:32:09.532,-0.485,-0.065
2021-08-19 20:32:09.536,-0.485,-0.08
2021-08-19 20:32:09.540,-0.45,-0.08
2021-08-19 20:32:09.544,-0.46,-0.08
2021-08-19 20:32:09.548,-0.46,-0.08
2021-08-19 20:32:09.552,-0.44,-0.08
2021-08-19 20:32:09.556,-0.405,-0.09
2021-08-19 20:32:09.560,-0.4,-0.065
2021-08-19 20:32:09.564,-0.355,-0.025
2021-08-19 20:32:09.568,-0.36,-0.06
2021-08-19 20:32:09.572,-0.36,-0.055
2021-08-19 20:32:09.576,-0.35,-0.055
2021-08-19 20:32:09.580,-0.395,-0.025
2021-08-19 20:32:09.584,-0.395,-0.02
2021-08-19 20:32:09.588,-0.355,-0.005
2021-08-19 20:32:09.592,-0.21,-0.005
2021-08-19 20:32:09.596,0.02,0.04
2021-08-19 20:32:09.600,0.29,0.07
2021-08-19 20:32:09.604,0.505,0.085
2021-08-19 20:32:09.608,0.565,0.105
2021-08-19 20:32:09.612,0.35,0.11
2021-08-19 20:32:09.616,0.025,0.095
2021-08-19 20:32:09.620,-0.265,0.1
2021-08-19 20:32:09.624,-0.43,0.05
2021-08-19 20:32:09.628,-0.465,0.055
2021-08-19 20:32:09.632,-0.51,0.165
2021-08-19 20:32:09.636,-0.5,0.325
2021-08-19 20:32:09.640,-0.54,0.45
2021-08-19 20:32:09.644,-0.54,0.57
2021-08-19 20:32:09.648,-0.56,0.655
2021-08-19 20:32:09.652,-0.575,0.765
2021-08-19 20:32:09.656,-0.615,0.85
2021-08-19 20:32:09.660,-0.645,0.94
2021-08-19 20:32:09.664,-0.63,0.985
2021-08-19 20:32:09.668,-0.59,1.03
2021-08-19 20:32:09.672,-0.545,1.095
2021-08-19 20:32:09.676,-0.5,1.12
2021-08-19 20:32:09.680,-0.44,1.15
2021-08-19 20:32:09.684,-0.33,1.19
2021-08-19 20:32:09.688,-0.295,1.22
2021-08-19 20:32:09.692,-0.27,1.155
2021-08-19 20:32:09.696,-0.275,0.975
2021-08-19 20:32:09.700,-0.24,0.63
2021-08-19 20:32:09.704,-0.23,0.29
2021-08-19 20:32:09.708,-0.24,0.06
2021-08-19 20:32:09.712,-0.2,-0.045
2021-08-19 20:32:09.716,-0.22,-0.09
2021-08-19 20:32:09.720,-0.2,-0.14
2021-08-19 20:32:09.724,-0.2,-0.19
2021-08-19 20:32:09.728,-0.195,-0.225
2021-08-19 20:32:09.732,-0.21,-0.24
2021-08-19 20:32:09.736,-0.22,-0.22
2021-08-19 20:32:09.740,-0.2,-0.25
2021-08-19 20:32:09.744,-0.22,-0.265
2021-08-19 20:32:09.748,-0.225,-0.275
2021-08-19 20:32:09.752,-0.2,-0.29
2021-08-19 20:32:09.756,-0.2,-0.3
2021-08-19 20:32:09.760,-0.215,-0.3
2021-08-19 20:32:09.764,-0.22,-0.305
2021-08-19 20:32:09.768,-0.2,-0.28
2021-08-19 20:32:09.772,-0.175,-0.315
2021-08-19 20:32:09.776,-0.18,-0.34
2021-08-19 20:32:09.780,-0.2,-0.335
2021-08-19 20:32:09.784,-0.22,-0.37
2021-08-19 20:32:09.788,-0.225,-0.36
2021-08-19 20:32:09.792,-0.235,-0.37
2021-08-19 20:32:09.796,-0.24,-0.395
2021-08-19 20:32:09.800,-0.24,-0.395
2021-08-19 20:32:09.804,-0.24,-0.415
2021-08-19 20:32:09.808,-0.22,-0.43
2021-08-19 20:32:09.812,-0.195,-0.43
2021-08-19 20:32:09.816,-0.16,-0.46
2021-08-19 20:32:09.820,-0.18,-0.47
2021-08-19 20:32:09.824,-0.15,-0.5
2021-08-19 20:32:09.828,-0.19,-0.49
2021-08-19 20:32:09.832,-0.15,-0.49
2021-08-19 20:32:09.836,-0.13,-0.465
2021-08-19 20:32:09.840,-0.08,-0.48
2021-08-19 20:32:09.844,-0.055,-0.49
2021-08-19 20:32:09.848,-0.005,-0.47
2021-08-19 20:32:09.852,-0.02,-0.51
2021-08-19 20:32:09.856,-0.06,-0.49
2021-08-19 20:32:09.860,-0.09,-0.49
2021-08-19 20:32:09.864,-0.055,-0.515
2021-08-19 20:32:09.868,-0.03,-0.485
2021-08-19 20:32:09.872,-0.02,-0.465
2021-08-19 20:32:09.876,-0.04,-0.455
2021-08-19 20:32:09.880,-0.03,-0.435
2021-08-19 20:32:09.884,-0.01,-0.385
2021-08-19 20:32:09.888,0.005,-0.36
2021-08-19 20:32:09.892,0.015,-0.32
2021-08-19 20:32:09.896,0.03,-0.27
2021-08-19 20:32:09.900,0.06,-0.245
2021-08-19 20:32:09.904,0.06,-0.24
2021-08-19 20:32:09.908,0.03,-0.235
2021-08-19 20:32:09.912,0.035,-0.245
2021-08-19 20:32:09.916,0.1,-0.22
2021-08-19 20:32:09.920,0.23,-0.225
2021-08-19 20:32:09.924,0.37,-0.22
2021-08-19 20:32:09.928,0.49,-0.195
2021-08-19 20:32:09.932,0.495,-0.15
2021-08-19 20:32:09.936,0.365,-0.095
2021-08-19 20:32:09.940,0.125,-0.09
2021-08-19 20:32:09.944,-0.11,-0.13
2021-08-19 20:32:09.948,-0.18,-0.21
2021-08-19 20:32:09.952,-0.15,-0.28
2021-08-19 20:32:09.956,-0.135,-0.265
2021-08-19 20:32:09.960,-0.15,-0.1
2021-08-19 20:32:09.964,-0.175,0.115
2021-08-19 20:32:09.968,-0.185,0.325
2021-08-19 20:32:09.972,-0.17,0.5
2021-08-19 20:32:09.976,-0.16,0.58
2021-08-19 20:32:09.980,-0.18,0.66
2021-08-19 20:32:09.984,-0.2,0.77
2021-08-19 20:32:09.988,-0.21,0.87
2021-08-19 20:32:09.992,-0.23,0.97
2021-08-19 20:32:09.996,-0.2,1.085
2021-08-19 20:32:10.000,-0.16,1.165
2021-08-19 20:32:10.004,-0.14,1.16
2021-08-19 20:32:10.008,-0.14,1.04
2021-08-19 20:32:10.012,-0.095,0.815
2021-08-19 20:32:10.016,-0.065,0.51
2021-08-19 20:32:10.020,-0.04,0.215
2021-08-19 20:32:10.024,-0.05,0.025
2021-08-19 20:32:10.028,-0.04,-0.06
2021-08-19 20:32:10.032,-0.035,-0.12
2021-08-19 20:32:10.036,-0.02,-0.15
2021-08-19 20:32:10.040,0.005,-0.16
2021-08-19 20:32:10.044,0.005,-0.155
2021-08-19 20:32:10.048,0.0,-0.205
2021-08-19 20:32:10.052,0.005,-0.22
2021-08-19 20:32:10.056,0.04,-0.23
2021-08-19 20:32:10.060,0.065,-0.195
2021-08-19 20:32:10.064,0.08,-0.215
2021-08-19 20:32:10.068,0.09,-0.21
2021-08-19 20:32:10.072,0.105,-0.215
2021-08-19 20:32:10.076,0.1,-0.195
2021-08-19 20:32:10.080,0.13,-0.195
2021-08-19 20:32:10.084,0.135,-0.2
2021-08-19 20:32:10.088,0.155,-0.205
2021-08-19 20:32:10.092,0.165,-0.225
2021-08-19 20:32:10.096,0.17,-0.275
2021-08-19 20:32:10.100,0.155,-0.32
2021-08-19 20:32:10.104,0.14,-0.315
2021-08-19 20:32:10.108,0.145,-0.345
2021-08-19 20:32:10.112,0.155,-0.38
2021-08-19 20:32:10.116,0.165,-0.44
2021-08-19 20:32:10.120,0.16,-0.48
2021-08-19 20:32:10.124,0.16,-0.51
2021-08-19 20:32:10.128,0.165,-0.5
2021-08-19 20:32:10.132,0.14,-0.495
2021-08-19 20:32:10.136,0.14,-0.535
2021-08-19 20:32:10.140,0.155,-0.535
2021-08-19 20:32:10.144,0.15,-0.54
2021-08-19 20:32:10.148,0.165,-0.555
2021-08-19 20:32:10.152,0.17,-0.575
2021-08-19 20:32:10.156,0.155,-0.575
2021-08-19 20:32:10.160,0.15,-0.58
2021-08-19 20:32:10.164,0.14,-0.595
2021-08-19 20:32:10.168,0.1,-0.575
2021-08-19 20:32:10.172,0.125,-0.585
2021-08-19 20:32:10.176,0.115,-0.595
2021-08-19 20:32:10.180,0.135,-0.565
2021-08-19 20:32:10.184,0.125,-0.52
2021-08-19 20:32:10.188,0.095,-0.495
2021-08-19 20:32:10.192,0.07,-0.475
2021-08-19 20:32:10.196,0.07,-0.48
2021-08-19 20:32:10.200,0.085,-0.41
2021-08-19 20:32:10.204,0.1,-0.395
2021-08-19 20:32:10.208,0.11,-0.36
2021-08-19 20:32:10.212,0.09,-0.36
2021-08-19 20:32:10.216,0.08,-0.345
2021-08-19 20:32:10.220,0.14,-0.34
2021-08-19 20:32:10.224,0.115,-0.32
2021-08-19 20:32:10.228,0.11,-0.3
2021-08-19 20:32:10.232,0.11,-0.255
2021-08-19 20:32:10.236,0.115,-0.205
2021-08-19 20:32:10.240,0.125,-0.2
2021-08-19 20:32:10.244,0.115,-0.215
2021-08-19 20:32:10.248,0.095,-0.195
2021-08-19 20:32:10.252,0.11,-0.16
2021-08-19 20:32:10.256,0.13,-0.145
2021-08-19 20:32:10.260,0.15,-0.14
2021-08-19 20:32:10.264,0.13,-0.13
2021-08-19 20:32:10.268,0.06,-0.09
2021-08-19 20:32:10.272,0.065,-0.065
2021-08-19 20:32:10.276,0.08,-0.045
2021-08-19 20:32:10.280,0.115,-0.08
2021-08-19 20:32:10.284,0.11,-0.155
2021-08-19 20:32:10.288,0.1,-0.14
2021-08-19 20:32:10.292,0.07,-0.12
2021-08-19 20:32:10.296,0.06,-0.14
2021-08-19 20:32:10.300,0.045,-0.18
2021-08-19 20:32:10.304,0.02,-0.215
2021-08-19 20:32:10.308,0.02,-0.245
2021-08-19 20:32:10.312,0.01,-0.26
2021-08-19 20:32:10.316,0.0,-0.285
2021-08-19 20:32:10.320,-0.005,-0.255
2021-08-19 20:32:10.324,0.0,-0.25
2021-08-19 20:32:10.328,-0.01,-0.235
2021-08-19 20:32:10.332,-0.055,-0.235
2021-08-19 20:32:10.336,-0.085,-0.235
2021-08-19 20:32:10.340,-0.055,-0.275
2021-08-19 20:32:10.344,0.045,-0.23
2021-08-19 20:32:10.348,0.24,-0.24
2021-08-19 20:32:10.352,0.51,-0.21
2021-08-19 20:32:10.356,0.79,-0.16
2021-08-19 20:32:10.360,0.965,-0.095
2021-08-19 20:32:10.364,0.965,-0.11
2021-08-19 20:32:10.368,0.695,-0.16
2021-08-19 20:32:10.372,0.33,-0.18
2021-08-19 20:32:10.376,0.035,-0.205
2021-08-19 20:32:10.380,-0.09,-0.22
2021-08-19 20:32:10.384,-0.135,-0.185
2021-08-19 20:32:10.388,-0.135,-0.1
2021-08-19 20:32:10.392,-0.155,0.055
2021-08-19 20:32:10.396,-0.21,0.155
2021-08-19 20:32:10.400,-0.275,0.31
2021-08-19 20:32:10.404,-0.3,0.455
2021-08-19 20:32:10.408,-0.305,0.555
2021-08-19 20:32:10.412,-0.29,0.62
2021-08-19 20:32:10.416,-0.21,0.58
2021-08-19 20:32:10.420,-0.12,0.525
2021-08-19 20:32:10.424,-0.03,0.445
2021-08-19 20:32:10.428,0.03,0.38
2021-08-19 20:32:10.432,0.085,0.37
2021-08-19 20:32:10.436,0.075,0.25
2021-08-19 20:32:10.440,0.09,0.07
2021-08-19 20:32:10.444,0.11,-0.07
2021-08-19 20:32:10.448,0.11,-0.155
2021-08-19 20:32:10.452,0.12,-0.195
2021-08-19 20:32:10.456,0.1,-0.18
2021-08-19 20:32:10.460,0.1,-0.185
2021-08-19 20:32:10.464,0.1,-0.21
2021-08-19 20:32:10.468,0.13,-0.21
2021-08-19 20:32:10.472,0.13,-0.24
2021-08-19 20:32:10.476,0.135,-0.295
2021-08-19 20:32:10.480,0.135,-0.315
2021-08-19 20:32:10.484,0.14,-0.29
2021-08-19 20:32:10.488,0.14,-0.24
2021-08-19 20:32:10.492,0.1,-0.23
2021-08-19 20:32:10.496,0.095,-0.26
2021-08-19 20:32:10.500,0.11,-0.32
2021-08-19 20:32:10.504,0.08,-0.38
2021-08-19 20:32:10.508,0.055,-0.4
2021-08-19 20:32:10.512,0.05,-0.405
2021-08-19 20:32:10.516,0.055,-0.44
2021-08-19 20:32:10.520,0.09,-0.475
2021-08-19 20:32:10.524,0.09,-0.48
2021-08-19 20:32:10.528,0.07,-0.52
2021-08-19 20:32:10.532,0.075,-0.53
2021-08-19 20:32:10.536,0.065,-0.52
2021-08-19 20:32:10.540,0.06,-0.56
2021-08-19 20:32:10.544,0.045,-0.565
2021-08-19 20:32:10.548,0.025,-0.52
2021-08-19 20:32:10.552,0.005,-0.495
2021-08-19 20:32:10.556,0.025,-0.545
2021-08-19 20:32:10.560,0.025,-0.59
2021-08-19 20:32:10.564,0.05,-0.595
2021-08-19 20:32:10.568,0.065,-0.57
2021-08-19 20:32:10.572,0.09,-0.59
2021-08-19 20:32:10.576,0.08,-0.6
2021-08-19 20:32:10.580,0.105,-0.625
2021-08-19 20:32:10.584,0.12,-0.595
2021-08-19 20:32:10.588,0.14,-0.6
2021-08-19 20:32:10.592,0.14,-0.585
2021-08-19 20:32:10.596,0.17,-0.595
2021-08-19 20:32:10.600,0.195,-0.615
2021-08-19 20:32:10.604,0.21,-0.635
2021-08-19 20:32:10.608,0.225,-0.595
2021-08-19 20:32:10.612,0.21,-0.57
2021-08-19 20:32:10.616,0.245,-0.59
2021-08-19 20:32:10.620,0.295,-0.605
2021-08-19 20:32:10.624,0.295,-0.58
2021-08-19 20:32:10.628,0.27,-0.57
2021-08-19 20:32:10.632,0.27,-0.53
2021-08-19 20:32:10.636,0.255,-0.46
2021-08-19 20:32:10.640,0.245,-0.435
2021-08-19 20:32:10.644,0.255,-0.445
2021-08-19 20:32:10.648,0.215,-0.44
2021-08-19 20:32:10.652,0.205,-0.415
2021-08-19 20:32:10.656,0.2,-0.42
2021-08-19 20:32:10.660,0.275,-0.4
2021-08-19 20:32:10.664,0.29,-0.35
2021-08-19 20:32:10.668,0.28,-0.365
2021-08-19 20:32:10.672,0.25,-0.37
2021-08-19 20:32:10.676,0.23,-0.355
2021-08-19 20:32:10.680,0.245,-0.325
2021-08-19 20:32:10.684,0.275,-0.305
2021-08-19 20:32:10.688,0.3,-0.335
2021-08-19 20:32:10.692,0.33,-0.38
2021-08-19 20:32:10.696,0.355,-0.415
2021-08-19 20:32:10.700,0.335,-0.425
2021-08-19 20:32:10.704,0.38,-0.455
2021-08-19 20:32:10.708,0.5,-0.5
2021-08-19 20:32:10.712,0.755,-0.505
2021-08-19 20:32:10.716,1.125,-0.51
2021-08-19 20:32:10.720,1.51,-0.47
2021-08-19 20:32:10.724,1.78,-0.46
2021-08-19 20:32:10.728,1.73,-0.45
2021-08-19 20:32:10.732,1.38,-0.49
2021-08-19 20:32:10.736,0.875,-0.48
2021-08-19 20:32:10.740,0.445,-0.49
2021-08-19 20:32:10.744,0.23,-0.495
2021-08-19 20:32:10.748,0.175,-0.52
2021-08-19 20:32:10.752,0.18,-0.445
2021-08-19 20:32:10.756,0.16,-0.26
2021-08-19 20:32:10.760,0.11,-0.1
2021-08-19 20:32:10.764,0.02,-0.035
2021-08-19 20:32:10.768,-0.03,0.0
2021-08-19 20:32:10.772,-0.03,0.095
2021-08-19 20:32:10.776,-0.045,0.17
2021-08-19 20:32:10.780,-0.08,0.22
2021-08-19 20:32:10.784,-0.05,0.295
2021-08-19 20:32:10.788,-0.005,0.4
2021-08-19 20:32:10.792,0.01,0.5
2021-08-19 20:32:10.796,0.025,0.605
2021-08-19 20:32:10.800,0.085,0.67
2021-08-19 20:32:10.804,0.14,0.62
2021-08-19 20:32:10.808,0.17,0.56
2021-08-19 20:32:10.812,0.22,0.365
2021-08-19 20:32:10.816,0.225,0.11
2021-08-19 20:32:10.820,0.225,-0.19
2021-08-19 20:32:10.824,0.215,-0.33
2021-08-19 20:32:10.828,0.225,-0.38
2021-08-19 20:32:10.832,0.22,-0.41
2021-08-19 20:32:10.836,0.24,-0.43
2021-08-19 20:32:10.840,0.25,-0.41
2021-08-19 20:32:10.844,0.22,-0.445
2021-08-19 20:32:10.848,0.24,-0.47
2021-08-19 20:32:10.852,0.25,-0.485
2021-08-19 20:32:10.856,0.21,-0.49
2021-08-19 20:32:10.860,0.22,-0.515
2021-08-19 20:32:10.864,0.25,-0.585
2021-08-19 20:32:10.868,0.235,-0.54
2021-08-19 20:32:10.872,0.24,-0.515
2021-08-19 20:32:10.876,0.24,-0.5
2021-08-19 20:32:10.880,0.24,-0.555
2021-08-19 20:32:10.884,0.27,-0.565
2021-08-19 20:32:10.888,0.265,-0.565
2021-08-19 20:32:10.892,0.325,-0.57
2021-08-19 20:32:10.896,0.33,-0.64
2021-08-19 20:32:10.900,0.305,-0.685
2021-08-19 20:32:10.904,0.25,-0.65
2021-08-19 20:32:10.908,0.255,-0.705
2021-08-19 20:32:10.912,0.275,-0.705
2021-08-19 20:32:10.916,0.29,-0.695
2021-08-19 20:32:10.920,0.315,-0.74
2021-08-19 20:32:10.924,0.345,-0.79
2021-08-19 20:32:10.928,0.34,-0.795
2021-08-19 20:32:10.932,0.34,-0.795
2021-08-19 20:32:10.936,0.32,-0.795
2021-08-19 20:32:10.940,0.285,-0.8
2021-08-19 20:32:10.944,0.285,-0.775
2021-08-19 20:32:10.948,0.29,-0.81
2021-08-19 20:32:10.952,0.265,-0.845
2021-08-19 20:32:10.956,0.285,-0.835
2021-08-19 20:32:10.960,0.265,-0.8
2021-08-19 20:32:10.964,0.23,-0.82
2021-08-19 20:32:10.968,0.245,-0.79
2021-08-19 20:32:10.972,0.27,-0.755
2021-08-19 20:32:10.976,0.3,-0.81
2021-08-19 20:32:10.980,0.29,-0.84
2021-08-19 20:32:10.984,0.285,-0.82
2021-08-19 20:32:10.988,0.255,-0.76
2021-08-19 20:32:10.992,0.27,-0.685
2021-08-19 20:32:10.996,0.265,-0.685
2021-08-19 20:32:11.000,0.24,-0.695
2021-08-19 20:32:11.004,0.26,-0.655
2021-08-19 20:32:11.008,0.275,-0.65
2021-08-19 20:32:11.012,0.265,-0.64
2021-08-19 20:32:11.016,0.25,-0.61
2021-08-19 20:32:11.020,0.24,-0.58
2021-08-19 20:32:11.024,0.235,-0.495
2021-08-19 20:32:11.028,0.23,-0.51
2021-08-19 20:32:11.032,0.23,-0.525
2021-08-19 20:32:11.036,0.215,-0.49
2021-08-19 20:32:11.040,0.215,-0.445
2021-08-19 20:32:11.044,0.225,-0.435
2021-08-19 20:32:11.048,0.23,-0.42
2021-08-19 20:32:11.052,0.175,-0.375
2021-08-19 20:32:11.056,0.15,-0.34
2021-08-19 20:32:11.060,0.115,-0.36
2021-08-19 20:32:11.064,0.075,-0.36
2021-08-19 20:32:11.068,0.11,-0.355
2021-08-19 20:32:11.072,0.125,-0.38
2021-08-19 20:32:11.076,0.13,-0.385
2021-08-19 20:32:11.080,0.135,-0.385
2021-08-19 20:32:11.084,0.13,-0.365
2021-08-19 20:32:11.088,0.125,-0.34
2021-08-19 20:32:11.092,0.12,-0.32
2021-08-19 20:32:11.096,0.125,-0.355
2021-08-19 20:32:11.100,0.125,-0.405
2021-08-19 20:32:11.104,0.115,-0.465
2021-08-19 20:32:11.108,0.11,-0.465
2021-08-19 20:32:11.112,0.095,-0.465
2021-08-19 20:32:11.116,0.075,-0.445
2021-08-19 20:32:11.120,0.085,-0.445
2021-08-19 20:32:11.124,0.08,-0.425
2021-08-19 20:32:11.128,0.075,-0.41
2021-08-19 20:32:11.132,0.02,-0.465
2021-08-19 20:32:11.136,0.0,-0.505
2021-08-19 20:32:11.140,0.065,-0.475
2021-08-19 20:32:11.144,0.295,-0.445
2021-08-19 20:32:11.148,0.59,-0.425
2021-08-19 20:32:11.152,0.89,-0.365
2021-08-19 20:32:11.156,1.05,-0.33
2021-08-19 20:32:11.160,1.035,-0.325
2021-08-19 20:32:11.164,0.755,-0.345
2021-08-19 20:32:11.168,0.3,-0.37
2021-08-19 20:32:11.172,-0.05,-0.395
2021-08-19 20:32:11.176,-0.275,-0.43
2021-08-19 20:32:11.180,-0.33,-0.38
2021-08-19 20:32:11.184,-0.335,-0.25
2021-08-19 20:32:11.188,-0.355,-0.105
2021-08-19 20:32:11.192,-0.36,0.015
2021-08-19 20:32:11.196,-0.365,0.115
2021-08-19 20:32:11.200,-0.395,0.19
2021-08-19 20:32:11.204,-0.415,0.225
2021-08-19 20:32:11.208,-0.41,0.28
2021-08-19 20:32:11.212,-0.44,0.35
2021-08-19 20:32:11.216,-0.42,0.41
2021-08-19 20:32:11.220,-0.41,0.495
2021-08-19 20:32:11.224,-0.365,0.535
2021-08-19 20:32:11.228,-0.29,0.625
2021-08-19 20:32:11.232,-0.24,0.64
2021-08-19 20:32:11.236,-0.2,0.635
2021-08-19 20:32:11.240,-0.18,0.6
2021-08-19 20:32:11.244,-0.16,0.535
2021-08-19 20:32:11.248,-0.16,0.385
2021-08-19 20:32:11.252,-0.16,0.13
2021-08-19 20:32:11.256,-0.17,-0.095
2021-08-19 20:32:11.260,-0.165,-0.26
2021-08-19 20:32:11.264,-0.17,-0.32
2021-08-19 20:32:11.268,-0.155,-0.305
2021-08-19 20:32:11.272,-0.15,-0.32
2021-08-19 20:32:11.276,-0.14,-0.37
2021-08-19 20:32:11.280,-0.15,-0.42
2021-08-19 20:32:11.284,-0.12,-0.41
2021-08-19 20:32:11.288,-0.135,-0.435
2021-08-19 20:32:11.292,-0.12,-0.42
2021-08-19 20:32:11.296,-0.115,-0.41
2021-08-19 20:32:11.300,-0.1,-0.415
2021-08-19 20:32:11.304,-0.105,-0.465
2021-08-19 20:32:11.308,-0.12,-0.485
2021-08-19 20:32:11.312,-0.105,-0.51
2021-08-19 20:32:11.316,-0.08,-0.48
2021-08-19 20:32:11.320,-0.1,-0.505
2021-08-19 20:32:11.324,-0.125,-0.525
2021-08-19 20:32:11.328,-0.13,-0.525
2021-08-19 20:32:11.332,-0.155,-0.54
2021-08-19 20:32:11.336,-0.15,-0.54
2021-08-19 20:32:11.340,-0.145,-0.55
2021-08-19 20:32:11.344,-0.14,-0.565
2021-08-19 20:32:11.348,-0.135,-0.56
2021-08-19 20:32:11.352,-0.125,-0.6
2021-08-19 20:32:11.356,-0.135,-0.6
2021-08-19 20:32:11.360,-0.105,-0.57
2021-08-19 20:32:11.364,-0.08,-0.61
2021-08-19 20:32:11.368,-0.08,-0.6
2021-08-19 20:32:11.372,-0.06,-0.585
2021-08-19 20:32:11.376,-0.04,-0.615
2021-08-19 20:32:11.380,-0.045,-0.63
2021-08-19 20:32:11.384,-0.025,-0.615
2021-08-19 20:32:11.388,-0.01,-0.62
2021-08-19 20:32:11.392,0.0,-0.63
2021-08-19 20:32:11.396,0.005,-0.605
2021-08-19 20:32:11.400,0.015,-0.59
2021-08-19 20:32:11.404,0.015,-0.6
2021-08-19 20:32:11.408,0.045,-0.625
2021-08-19 20:32:11.412,0.045,-0.63
2021-08-19 20:32:11.416,0.0,-0.585
2021-08-19 20:32:11.420,-0.005,-0.575
2021-08-19 20:32:11.424,-0.015,-0.53
2021-08-19 20:32:11.428,-0.04,-0.52
2021-08-19 20:32:11.432,-0.045,-0.51
2021-08-19 20:32:11.436,-0.025,-0.505
2021-08-19 20:32:11.440,-0.065,-0.475
2021-08-19 20:32:11.444,-0.055,-0.43
2021-08-19 20:32:11.448,-0.065,-0.395
2021-08-19 20:32:11.452,-0.06,-0.395
2021-08-19 20:32:11.456,-0.03,-0.36
2021-08-19 20:32:11.460,-0.045,-0.315
2021-08-19 20:32:11.464,-0.03,-0.29
2021-08-19 20:32:11.468,-0.045,-0.295
2021-08-19 20:32:11.472,-0.015,-0.26
2021-08-19 20:32:11.476,-0.015,-0.28
2021-08-19 20:32:11.480,-0.035,-0.255
2021-08-19 20:32:11.484,-0.035,-0.26
2021-08-19 20:32:11.488,-0.015,-0.235
2021-08-19 20:32:11.492,0.0,-0.205
2021-08-19 20:32:11.496,0.01,-0.235
2021-08-19 20:32:11.500,-0.015,-0.28
2021-08-19 20:32:11.504,-0.025,-0.29
2021-08-19 20:32:11.508,-0.02,-0.275
2021-08-19 20:32:11.512,-0.015,-0.265
2021-08-19 20:32:11.516,-0.02,-0.26
2021-08-19 20:32:11.520,-0.03,-0.265
2021-08-19 20:32:11.524,-0.025,-0.27
2021-08-19 20:32:11.528,-0.035,-0.255
2021-08-19 20:32:11.532,-0.03,-0.26
2021-08-19 20:32:11.536,-0.04,-0.265
2021-08-19 20:32:11.540,-0.04,-0.27
2021-08-19 20:32:11.544,-0.06,-0.25
2021-08-19 20:32:11.548,-0.075,-0.255
2021-08-19 20:32:11.552,-0.065,-0.27
2021-08-19 20:32:11.556,-0.085,-0.26
2021-08-19 20:32:11.560,-0.075,-0.225
2021-08-19 20:32:11.564,-0.08,-0.235
2021-08-19 20:32:11.568,-0.085,-0.22
2021-08-19 20:32:11.572,-0.085,-0.235
2021-08-19 20:32:11.576,-0.09,-0.24
2021-08-19 20:32:11.580,-0.08,-0.205
2021-08-19 20:32:11.584,-0.07,-0.215
2021-08-19 20:32:11.588,-0.09,-0.21
2021-08-19 20:32:11.592,-0.05,-0.2
2021-08-19 20:32:11.596,-0.06,-0.16
2021-08-19 20:32:11.600,-0.045,-0.18
2021-08-19 20:32:11.604,-0.06,-0.17
2021-08-19 20:32:11.608,-0.105,-0.18
2021-08-19 20:32:11.612,-0.13,-0.18
2021-08-19 20:32:11.616,-0.14,-0.18
2021-08-19 20:32:11.620,-0.025,-0.17
2021-08-19 20:32:11.624,0.23,-0.14
2021-08-19 20:32:11.628,0.53,-0.11
2021-08-19 20:32:11.632,0.83,-0.06
2021-08-19 20:32:11.636,0.98,-0.03
2021-08-19 20:32:11.640,0.82,-0.025
2021-08-19 20:32:11.644,0.47,-0.05
2021-08-19 20:32:11.648,0.105,-0.075
2021-08-19 20:32:11.652,-0.125,-0.1
2021-08-19 20:32:11.656,-0.235,-0.13
2021-08-19 20:32:11.660,-0.255,-0.085
2021-08-19 20:32:11.664,-0.27,-0.01
2021-08-19 20:32:11.668,-0.335,0.135
2021-08-19 20:32:11.672,-0.375,0.255
2021-08-19 20:32:11.676,-0.37,0.37
2021-08-19 20:32:11.680,-0.385,0.465
2021-08-19 20:32:11.684,-0.415,0.615
2021-08-19 20:32:11.688,-0.4,0.725
2021-08-19 20:32:11.692,-0.345,0.725
2021-08-19 20:32:11.696,-0.275,0.64
2021-08-19 20:32:11.700,-0.21,0.545
2021-08-19 20:32:11.704,-0.145,0.49
2021-08-19 20:32:11.708,-0.13,0.475
2021-08-19 20:32:11.712,-0.135,0.38
2021-08-19 20:32:11.716,-0.125,0.17
2021-08-19 20:32:11.720,-0.13,-0.035
2021-08-19 20:32:11.724,-0.12,-0.125
2021-08-19 20:32:11.728,-0.105,-0.175
2021-08-19 20:32:11.732,-0.095,-0.205
2021-08-19 20:32:11.736,-0.1,-0.235
2021-08-19 20:32:11.740,-0.115,-0.245
2021-08-19 20:32:11.744,-0.125,-0.255
2021-08-19 20:32:11.748,-0.125,-0.27
2021-08-19 20:32:11.752,-0.12,-0.28
2021-08-19 20:32:11.756,-0.12,-0.305
2021-08-19 20:32:11.760,-0.125,-0.295
2021-08-19 20:32:11.764,-0.12,-0.31
2021-08-19 20:32:11.768,-0.13,-0.33
2021-08-19 20:32:11.772,-0.125,-0.32
2021-08-19 20:32:11.776,-0.095,-0.31
2021-08-19 20:32:11.780,-0.095,-0.315
2021-08-19 20:32:11.784,-0.105,-0.32
2021-08-19 20:32:11.788,-0.11,-0.295
2021-08-19 20:32:11.792,-0.14,-0.34
2021-08-19 20:32:11.796,-0.15,-0.31
2021-08-19 20:32:11.800,-0.145,-0.31
2021-08-19 20:32:11.804,-0.12,-0.32
2021-08-19 20:32:11.808,-0.12,-0.32
2021-08-19 20:32:11.812,-0.12,-0.33
2021-08-19 20:32:11.816,-0.14,-0.34
2021-08-19 20:32:11.820,-0.17,-0.335
2021-08-19 20:32:11.824,-0.185,-0.335
2021-08-19 20:32:11.828,-0.185,-0.34
2021-08-19 20:32:11.832,-0.17,-0.35
2021-08-19 20:32:11.836,-0.145,-0.36
2021-08-19 20:32:11.840,-0.145,-0.355
2021-08-19 20:32:11.844,-0.16,-0.37
2021-08-19 20:32:11.848,-0.15,-0.34
2021-08-19 20:32:11.852,-0.15,-0.36
2021-08-19 20:32:11.856,-0.135,-0.38
2021-08-19 20:32:11.860,-0.15,-0.395
2021-08-19 20:32:11.864,-0.125,-0.39
2021-08-19 20:32:11.868,-0.13,-0.375
2021-08-19 20:32:11.872,-0.09,-0.395
2021-08-19 20:32:11.876,-0.075,-0.4
2021-08-19 20:32:11.880,-0.07,-0.41
2021-08-19 20:32:11.884,-0.08,-0.395
2021-08-19 20:32:11.888,-0.1,-0.375
2021-08-19 20:32:11.892,-0.09,-0.385
2021-08-19 20:32:11.896,-0.105,-0.43
2021-08-19 20:32:11.900,-0.09,-0.42
2021-08-19 20:32:11.904,-0.09,-0.405
2021-08-19 20:32:11.908,-0.09,-0.37
2021-08-19 20:32:11.912,-0.115,-0.365
2021-08-19 20:32:11.916,-0.14,-0.34
2021-08-19 20:32:11.920,-0.12,-0.315
2021-08-19 20:32:11.924,-0.1,-0.305
2021-08-19 20:32:11.928,-0.09,-0.28
2021-08-19 20:32:11.932,-0.105,-0.28
2021-08-19 20:32:11.936,-0.08,-0.28
2021-08-19 20:32:11.940,-0.095,-0.27
2021-08-19 20:32:11.944,-0.095,-0.24
2021-08-19 20:32:11.948,-0.09,-0.235
2021-08-19 20:32:11.952,-0.085,-0.2
2021-08-19 20:32:11.956,-0.06,-0.205
2021-08-19 20:32:11.960,-0.03,-0.195
2021-08-19 20:32:11.964,-0.01,-0.175
2021-08-19 20:32:11.968,-0.015,-0.18
2021-08-19 20:32:11.972,-0.03,-0.15
2021-08-19 20:32:11.976,-0.035,-0.16
2021-08-19 20:32:11.980,-0.01,-0.17
2021-08-19 20:32:11.984,0.065,-0.155
2021-08-19 20:32:11.988,0.24,-0.15
2021-08-19 20:32:11.992,0.54,-0.15
2021-08-19 20:32:11.996,0.915,-0.145
2021-08-19 20:32:12.000,1.225,-0.135
2021-08-19 20:32:12.004,1.335,-0.105
2021-08-19 20:32:12.008,1.155,-0.1
2021-08-19 20:32:12.012,0.71,-0.14
2021-08-19 20:32:12.016,0.285,-0.165
2021-08-19 20:32:12.020,0.0,-0.21
2021-08-19 20:32:12.024,-0.12,-0.25
2021-08-19 20:32:12.028,-0.2,-0.215
2021-08-19 20:32:12.032,-0.19,-0.05
2021-08-19 20:32:12.036,-0.215,0.095
2021-08-19 20:32:12.040,-0.255,0.22
2021-08-19 20:32:12.044,-0.34,0.36
2021-08-19 20:32:12.048,-0.4,0.455
2021-08-19 20:32:12.052,-0.405,0.57
2021-08-19 20:32:12.056,-0.375,0.675
2021-08-19 20:32:12.060,-0.305,0.735
2021-08-19 20:32:12.064,-0.23,0.72
2021-08-19 20:32:12.068,-0.18,0.65
2021-08-19 20:32:12.072,-0.145,0.56
2021-08-19 20:32:12.076,-0.09,0.525
2021-08-19 20:32:12.080,-0.085,0.405
2021-08-19 20:32:12.084,-0.075,0.175
2021-08-19 20:32:12.088,-0.075,-0.065
2021-08-19 20:32:12.092,-0.065,-0.19
2021-08-19 20:32:12.096,-0.09,-0.22
2021-08-19 20:32:12.100,-0.105,-0.2
2021-08-19 20:32:12.104,-0.12,-0.2
2021-08-19 20:32:12.108,-0.145,-0.215
2021-08-19 20:32:12.112,-0.095,-0.22
2021-08-19 20:32:12.116,-0.08,-0.27
2021-08-19 20:32:12.120,-0.09,-0.3
2021-08-19 20:32:12.124,-0.12,-0.37
2021-08-19 20:32:12.128,-0.14,-0.385
2021-08-19 20:32:12.132,-0.11,-0.35
2021-08-19 20:32:12.136,-0.09,-0.32
2021-08-19 20:32:12.140,-0.085,-0.32
2021-08-19 20:32:12.144,-0.08,-0.365
2021-08-19 20:32:12.148,-0.095,-0.355
2021-08-19 20:32:12.152,-0.08,-0.375
2021-08-19 20:32:12.156,-0.06,-0.38
2021-08-19 20:32:12.160,-0.07,-0.4
2021-08-19 20:32:12.164,-0.07,-0.435
2021-08-19 20:32:12.168,-0.09,-0.45
2021-08-19 20:32:12.172,-0.105,-0.455
2021-08-19 20:32:12.176,-0.1,-0.44
2021-08-19 20:32:12.180,-0.09,-0.44
2021-08-19 20:32:12.184,-0.09,-0.46
2021-08-19 20:32:12.188,-0.07,-0.45
2021-08-19 20:32:12.192,-0.06,-0.475
2021-08-19 20:32:12.196,-0.035,-0.48
2021-08-19 20:32:12.200,-0.04,-0.465
2021-08-19 20:32:12.204,-0.035,-0.48
2021-08-19 20:32:12.208,0.0,-0.495
2021-08-19 20:32:12.212,-0.02,-0.495
2021-08-19 20:32:12.216,-0.02,-0.495
2021-08-19 20:32:12.220,-0.035,-0.49
2021-08-19 20:32:12.224,-0.03,-0.48
2021-08-19 20:32:12.228,-0.02,-0.515
2021-08-19 20:32:12.232,-0.025,-0.54
2021-08-19 20:32:12.236,0.0,-0.525
2021-08-19 20:32:12.240,-0.02,-0.52
2021-08-19 20:32:12.244,0.0,-0.515
2021-08-19 20:32:12.248,-0.02,-0.485
2021-08-19 20:32:12.252,-0.015,-0.47
2021-08-19 20:32:12.256,-0.035,-0.445
2021-08-19 20:32:12.260,-0.04,-0.435
2021-08-19 20:32:12.264,-0.045,-0.445
2021-08-19 20:32:12.268,-0.03,-0.43
2021-08-19 20:32:12.272,-0.025,-0.38
2021-08-19 20:32:12.276,-0.025,-0.385
2021-08-19 20:32:12.280,-0.065,-0.42
2021-08-19 20:32:12.284,-0.065,-0.44
2021-08-19 20:32:12.288,-0.04,-0.41
2021-08-19 20:32:12.292,-0.05,-0.37
2021-08-19 20:32:12.296,-0.065,-0.355
2021-08-19 20:32:12.300,-0.1,-0.35
2021-08-19 20:32:12.304,-0.105,-0.345
2021-08-19 20:32:12.308,-0.07,-0.34
2021-08-19 20:32:12.312,-0.045,-0.355
2021-08-19 20:32:12.316,-0.035,-0.36
2021-08-19 20:32:12.320,0.0,-0.36
2021-08-19 20:32:12.324,-0.01,-0.345
2021-08-19 20:32:12.328,-0.02,-0.33
2021-08-19 20:32:12.332,0.1,-0.34
2021-08-19 20:32:12.336,0.295,-0.335
2021-08-19 20:32:12.340,0.605,-0.305
2021-08-19 20:32:12.344,0.92,-0.285
2021-08-19 20:32:12.348,1.2,-0.245
2021-08-19 20:32:12.352,1.295,-0.24
2021-08-19 20:32:12.356,1.1,-0.235
2021-08-19 20:32:12.360,0.665,-0.25
2021-08-19 20:32:12.364,0.21,-0.315
2021-08-19 20:32:12.368,-0.06,-0.345
2021-08-19 20:32:12.372,-0.22,-0.355
2021-08-19 20:32:12.376,-0.315,-0.28
2021-08-19 20:32:12.380,-0.32,-0.205
2021-08-19 20:32:12.384,-0.365,-0.115
2021-08-19 20:32:12.388,-0.395,0.06
2021-08-19 20:32:12.392,-0.435,0.255
2021-08-19 20:32:12.396,-0.45,0.405
2021-08-19 20:32:12.400,-0.44,0.49
2021-08-19 20:32:12.404,-0.39,0.52
2021-08-19 20:32:12.408,-0.36,0.465
2021-08-19 20:32:12.412,-0.27,0.375
2021-08-19 20:32:12.416,-0.205,0.355
2021-08-19 20:32:12.420,-0.16,0.33
2021-08-19 20:32:12.424,-0.17,0.235
2021-08-19 20:32:12.428,-0.18,0.09
2021-08-19 20:32:12.432,-0.195,-0.045
2021-08-19 20:32:12.436,-0.19,-0.115
2021-08-19 20:32:12.440,-0.18,-0.185
2021-08-19 20:32:12.444,-0.155,-0.225
2021-08-19 20:32:12.448,-0.16,-0.255
2021-08-19 20:32:12.452,-0.175,-0.305
2021-08-19 20:32:12.456,-0.155,-0.275
2021-08-19 20:32:12.460,-0.155,-0.29
2021-08-19 20:32:12.464,-0.2,-0.325
2021-08-19 20:32:12.468,-0.21,-0.335
2021-08-19 20:32:12.472,-0.23,-0.33
2021-08-19 20:32:12.476,-0.21,-0.36
2021-08-19 20:32:12.480,-0.255,-0.365
2021-08-19 20:32:12.484,-0.25,-0.385
2021-08-19 20:32:12.488,-0.285,-0.425
2021-08-19 20:32:12.492,-0.285,-0.445
2021-08-19 20:32:12.496,-0.315,-0.415
2021-08-19 20:32:12.500,-0.32,-0.44
2021-08-19 20:32:12.504,-0.33,-0.44
2021-08-19 20:32:12.508,-0.32,-0.44
2021-08-19 20:32:12.512,-0.32,-0.47
2021-08-19 20:32:12.516,-0.37,-0.475
2021-08-19 20:32:12.520,-0.36,-0.51
2021-08-19 20:32:12.524,-0.33,-0.51
2021-08-19 20:32:12.528,-0.34,-0.515
2021-08-19 20:32:12.532,-0.32,-0.52
2021-08-19 20:32:12.536,-0.34,-0.48
2021-08-19 20:32:12.540,-0.32,-0.465
2021-08-19 20:32:12.544,-0.325,-0.5
2021-08-19 20:32:12.548,-0.35,-0.545
2021-08-19 20:32:12.552,-0.345,-0.585
2021-08-19 20:32:12.556,-0.315,-0.59
2021-08-19 20:32:12.560,-0.305,-0.55
2021-08-19 20:32:12.564,-0.31,-0.575
2021-08-19 20:32:12.568,-0.34,-0.585
2021-08-19 20:32:12.572,-0.345,-0.57
2021-08-19 20:32:12.576,-0.32,-0.565
2021-08-19 20:32:12.580,-0.33,-0.555
2021-08-19 20:32:12.584,-0.33,-0.545
2021-08-19 20:32:12.588,-0.355,-0.54
2021-08-19 20:32:12.592,-0.31,-0.51
2021-08-19 20:32:12.596,-0.305,-0.53
2021-08-19 20:32:12.600,-0.285,-0.525
2021-08-19 20:32:12.604,-0.275,-0.51
2021-08-19 20:32:12.608,-0.275,-0.465
2021-08-19 20:32:12.612,-0.255,-0.43
2021-08-19 20:32:12.616,-0.25,-0.43
2021-08-19 20:32:12.620,-0.26,-0.395
2021-08-19 20:32:12.624,-0.285,-0.37
2021-08-19 20:32:12.628,-0.28,-0.335
2021-08-19 20:32:12.632,-0.275,-0.3
2021-08-19 20:32:12.636,-0.26,-0.33
2021-08-19 20:32:12.640,-0.305,-0.345
2021-08-19 20:32:12.644,-0.29,-0.34
2021-08-19 20:32:12.648,-0.285,-0.32
2021-08-19 20:32:12.652,-0.28,-0.32
2021-08-19 20:32:12.656,-0.275,-0.305
2021-08-19 20:32:12.660,-0.27,-0.305
2021-08-19 20:32:12.664,-0.245,-0.3
2021-08-19 20:32:12.668,-0.265,-0.315
2021-08-19 20:32:12.672,-0.28,-0.305
2021-08-19 20:32:12.676,-0.285,-0.315
2021-08-19 20:32:12.680,-0.265,-0.32
2021-08-19 20:32:12.684,-0.26,-0.355
2021-08-19 20:32:12.688,-0.29,-0.35
2021-08-19 20:32:12.692,-0.285,-0.36
2021-08-19 20:32:12.696,-0.27,-0.355
2021-08-19 20:32:12.700,-0.25,-0.315
2021-08-19 20:32:12.704,-0.245,-0.315
2021-08-19 20:32:12.708,-0.23,-0.34
2021-08-19 20:32:12.712,-0.21,-0.36
2021-08-19 20:32:12.716,-0.25,-0.36
2021-08-19 20:32:12.720,-0.23,-0.33
2021-08-19 20:32:12.724,-0.14,-0.32
2021-08-19 20:32:12.728,0.055,-0.3
2021-08-19 20:32:12.732,0.305,-0.295
2021-08-19 20:32:12.736,0.525,-0.275
2021-08-19 20:32:12.740,0.67,-0.24
2021-08-19 20:32:12.744,0.64,-0.225
2021-08-19 20:32:12.748,0.39,-0.225
2021-08-19 20:32:12.752,0.045,-0.28
2021-08-19 20:32:12.756,-0.195,-0.34
2021-08-19 20:32:12.760,-0.345,-0.37
2021-08-19 20:32:12.764,-0.47,-0.33
2021-08-19 20:32:12.768,-0.525,-0.2
2021-08-19 20:32:12.772,-0.57,-0.075
2021-08-19 20:32:12.776,-0.57,0.04
2021-08-19 20:32:12.780,-0.58,0.155
2021-08-19 20:32:12.784,-0.615,0.235
2021-08-19 20:32:12.788,-0.665,0.33
2021-08-19 20:32:12.792,-0.705,0.455
2021-08-19 20:32:12.796,-0.715,0.57
2021-08-19 20:32:12.800,-0.625,0.59
2021-08-19 20:32:12.804,-0.545,0.535
2021-08-19 20:32:12.808,-0.475,0.475
2021-08-19 20:32:12.812,-0.44,0.45
2021-08-19 20:32:12.816,-0.385,0.455
2021-08-19 20:32:12.820,-0.345,0.41
2021-08-19 20:32:12.824,-0.33,0.185
2021-08-19 20:32:12.828,-0.29,-0.07
2021-08-19 20:32:12.832,-0.27,-0.21
2021-08-19 20:32:12.836,-0.275,-0.215
2021-08-19 20:32:12.840,-0.295,-0.2
2021-08-19 20:32:12.844,-0.315,-0.225
2021-08-19 20:32:12.848,-0.305,-0.23
2021-08-19 20:32:12.852,-0.27,-0.235
2021-08-19 20:32:12.856,-0.28,-0.25
2021-08-19 20:32:12.860,-0.285,-0.285
2021-08-19 20:32:12.864,-0.275,-0.275
2021-08-19 20:32:12.868,-0.255,-0.285
2021-08-19 20:32:12.872,-0.275,-0.29
2021-08-19 20:32:12.876,-0.245,-0.29
2021-08-19 20:32:12.880,-0.235,-0.295
2021-08-19 20:32:12.884,-0.22,-0.245
2021-08-19 20:32:12.888,-0.22,-0.265
2021-08-19 20:32:12.892,-0.265,-0.315
2021-08-19 20:32:12.896,-0.295,-0.325
2021-08-19 20:32:12.900,-0.29,-0.34
2021-08-19 20:32:12.904,-0.28,-0.33
2021-08-19 20:32:12.908,-0.305,-0.34
2021-08-19 20:32:12.912,-0.32,-0.34
2021-08-19 20:32:12.916,-0.31,-0.35
2021-08-19 20:32:12.920,-0.31,-0.37
2021-08-19 20:32:12.924,-0.32,-0.345
2021-08-19 20:32:12.928,-0.305,-0.37
2021-08-19 20:32:12.932,-0.32,-0.39
2021-08-19 20:32:12.936,-0.32,-0.43
2021-08-19 20:32:12.940,-0.315,-0.435
2021-08-19 20:32:12.944,-0.305,-0.435
2021-08-19 20:32:12.948,-0.33,-0.425
2021-08-19 20:32:12.952,-0.31,-0.44
2021-08-19 20:32:12.956,-0.29,-0.44
2021-08-19 20:32:12.960,-0.27,-0.455
2021-08-19 20:32:12.964,-0.265,-0.49
2021-08-19 20:32:12.968,-0.29,-0.505
2021-08-19 20:32:12.972,-0.32,-0.49
2021-08-19 20:32:12.976,-0.31,-0.435
2021-08-19 20:32:12.980,-0.34,-0.445
2021-08-19 20:32:12.984,-0.35,-0.44
2021-08-19 20:32:12.988,-0.34,-0.42
2021-08-19 20:32:12.992,-0.325,-0.44
2021-08-19 20:32:12.996,-0.34,-0.4
2021-08-19 20:32:13.000,-0.34,-0.405
2021-08-19 20:32:13.004,-0.34,-0.385
2021-08-19 20:32:13.008,-0.32,-0.37
2021-08-19 20:32:13.012,-0.34,-0.37
2021-08-19 20:32:13.016,-0.345,-0.345
2021-08-19 20:32:13.020,-0.35,-0.3
2021-08-19 20:32:13.024,-0.365,-0.275
2021-08-19 20:32:13.028,-0.33,-0.24
2021-08-19 20:32:13.032,-0.335,-0.245
2021-08-19 20:32:13.036,-0.32,-0.255
2021-08-19 20:32:13.040,-0.305,-0.21
2021-08-19 20:32:13.044,-0.285,-0.175
2021-08-19 20:32:13.048,-0.275,-0.16
2021-08-19 20:32:13.052,-0.285,-0.2
2021-08-19 20:32:13.056,-0.31,-0.16
2021-08-19 20:32:13.060,-0.31,-0.12
2021-08-19 20:32:13.064,-0.29,-0.12
2021-08-19 20:32:13.068,-0.27,-0.12
2021-08-19 20:32:13.072,-0.225,-0.14
2021-08-19 20:32:13.076,-0.23,-0.16
2021-08-19 20:32:13.080,-0.245,-0.135
2021-08-19 20:32:13.084,-0.225,-0.125
2021-08-19 20:32:13.088,-0.205,-0.125
2021-08-19 20:32:13.092,-0.2,-0.14
2021-08-19 20:32:13.096,-0.215,-0.14
2021-08-19 20:32:13.100,-0.235,-0.135
2021-08-19 20:32:13.104,-0.23,-0.125
2021-08-19 20:32:13.108,-0.24,-0.19
2021-08-19 20:32:13.112,-0.26,-0.22
2021-08-19 20:32:13.116,-0.27,-0.245
2021-08-19 20:32:13.120,-0.265,-0.235
2021-08-19 20:32:13.124,-0.26,-0.245
2021-08-19 20:32:13.128,-0.27,-0.215
2021-08-19 20:32:13.132,-0.28,-0.24
2021-08-19 20:32:13.136,-0.23,-0.235
2021-08-19 20:32:13.140,-0.105,-0.225
2021-08-19 20:32:13.144,0.125,-0.2
2021-08-19 20:32:13.148,0.35,-0.2
2021-08-19 20:32:13.152,0.535,-0.16
2021-08-19 20:32:13.156,0.56,-0.14
2021-08-19 20:32:13.160,0.35,-0.175
2021-08-19 20:32:13.164,0.05,-0.17
2021-08-19 20:32:13.168,-0.25,-0.235
2021-08-19 20:32:13.172,-0.44,-0.26
2021-08-19 20:32:13.176,-0.56,-0.235
2021-08-19 20:32:13.180,-0.6,-0.16
2021-08-19 20:32:13.184,-0.6,-0.015
2021-08-19 20:32:13.188,-0.63,0.09
2021-08-19 20:32:13.192,-0.675,0.17
2021-08-19 20:32:13.196,-0.71,0.26
2021-08-19 20:32:13.200,-0.735,0.4
2021-08-19 20:32:13.204,-0.755,0.525
2021-08-19 20:32:13.208,-0.76,0.635
2021-08-19 20:32:13.212,-0.77,0.685
2021-08-19 20:32:13.216,-0.68,0.615
2021-08-19 20:32:13.220,-0.635,0.54
2021-08-19 20:32:13.224,-0.56,0.51
2021-08-19 20:32:13.228,-0.55,0.475
2021-08-19 20:32:13.232,-0.525,0.335
2021-08-19 20:32:13.236,-0.49,0.155
2021-08-19 20:32:13.240,-0.475,-0.045
2021-08-19 20:32:13.244,-0.46,-0.155
2021-08-19 20:32:13.248,-0.475,-0.15
2021-08-19 20:32:13.252,-0.475,-0.145
2021-08-19 20:32:13.256,-0.48,-0.165
2021-08-19 20:32:13.260,-0.455,-0.18
2021-08-19 20:32:13.264,-0.435,-0.22
2021-08-19 20:32:13.268,-0.41,-0.23
2021-08-19 20:32:13.272,-0.415,-0.22
2021-08-19 20:32:13.276,-0.4,-0.225
2021-08-19 20:32:13.280,-0.4,-0.245
2021-08-19 20:32:13.284,-0.39,-0.23
2021-08-19 20:32:13.288,-0.38,-0.23
2021-08-19 20:32:13.292,-0.36,-0.24
2021-08-19 20:32:13.296,-0.365,-0.245
2021-08-19 20:32:13.300,-0.365,-0.24
2021-08-19 20:32:13.304,-0.37,-0.26
2021-08-19 20:32:13.308,-0.4,-0.26
2021-08-19 20:32:13.312,-0.395,-0.27
2021-08-19 20:32:13.316,-0.395,-0.28
2021-08-19 20:32:13.320,-0.38,-0.285
2021-08-19 20:32:13.324,-0.38,-0.3
2021-08-19 20:32:13.328,-0.42,-0.345
2021-08-19 20:32:13.332,-0.47,-0.355
2021-08-19 20:32:13.336,-0.475,-0.345
2021-08-19 20:32:13.340,-0.485,-0.335
2021-08-19 20:32:13.344,-0.465,-0.38
2021-08-19 20:32:13.348,-0.47,-0.415
2021-08-19 20:32:13.352,-0.465,-0.415
2021-08-19 20:32:13.356,-0.455,-0.465
2021-08-19 20:32:13.360,-0.465,-0.43
2021-08-19 20:32:13.364,-0.465,-0.415
2021-08-19 20:32:13.368,-0.465,-0.4
2021-08-19 20:32:13.372,-0.465,-0.38
2021-08-19 20:32:13.376,-0.455,-0.43
2021-08-19 20:32:13.380,-0.435,-0.465
2021-08-19 20:32:13.384,-0.44,-0.515
2021-08-19 20:32:13.388,-0.445,-0.5
2021-08-19 20:32:13.392,-0.42,-0.515
2021-08-19 20:32:13.396,-0.41,-0.48
2021-08-19 20:32:13.400,-0.445,-0.46
2021-08-19 20:32:13.404,-0.435,-0.45
2021-08-19 20:32:13.408,-0.43,-0.46
2021-08-19 20:32:13.412,-0.46,-0.43
2021-08-19 20:32:13.416,-0.435,-0.395
2021-08-19 20:32:13.420,-0.44,-0.345
2021-08-19 20:32:13.424,-0.46,-0.365
2021-08-19 20:32:13.428,-0.485,-0.34
2021-08-19 20:32:13.432,-0.465,-0.31
2021-08-19 20:32:13.436,-0.455,-0.265
2021-08-19 20:32:13.440,-0.475,-0.24
2021-08-19 20:32:13.444,-0.5,-0.215
2021-08-19 20:32:13.448,-0.525,-0.2
2021-08-19 20:32:13.452,-0.555,-0.165
2021-08-19 20:32:13.456,-0.515,-0.17
2021-08-19 20:32:13.460,-0.48,-0.16
2021-08-19 20:32:13.464,-0.485,-0.18
2021-08-19 20:32:13.468,-0.465,-0.15
2021-08-19 20:32:13.472,-0.475,-0.12
2021-08-19 20:32:13.476,-0.49,-0.09
2021-08-19 20:32:13.480,-0.48,-0.08
2021-08-19 20:32:13.484,-0.475,-0.105
2021-08-19 20:32:13.488,-0.45,-0.11
2021-08-19 20:32:13.492,-0.42,-0.1
2021-08-19 20:32:13.496,-0.42,-0.13
2021-08-19 20:32:13.500,-0.415,-0.115
2021-08-19 20:32:13.504,-0.44,-0.1
2021-08-19 20:32:13.508,-0.45,-0.085
2021-08-19 20:32:13.512,-0.465,-0.065
2021-08-19 20:32:13.516,-0.44,-0.04
2021-08-19 20:32:13.520,-0.37,-0.05
2021-08-19 20:32:13.524,-0.22,-0.09
2021-08-19 20:32:13.528,0.055,-0.11
2021-08-19 20:32:13.532,0.345,-0.145
2021-08-19 20:32:13.536,0.62,-0.165
2021-08-19 20:32:13.540,0.705,-0.14
2021-08-19 20:32:13.544,0.57,-0.105
2021-08-19 20:32:13.548,0.2,-0.1
2021-08-19 20:32:13.552,-0.23,-0.14
2021-08-19 20:32:13.556,-0.525,-0.22
2021-08-19 20:32:13.560,-0.665,-0.295
2021-08-19 20:32:13.564,-0.72,-0.255
2021-08-19 20:32:13.568,-0.74,-0.12
2021-08-19 20:32:13.572,-0.755,0.06
2021-08-19 20:32:13.576,-0.79,0.16
2021-08-19 20:32:13.580,-0.82,0.225
2021-08-19 20:32:13.584,-0.865,0.255
2021-08-19 20:32:13.588,-0.845,0.31
2021-08-19 20:32:13.592,-0.87,0.355
2021-08-19 20:32:13.596,-0.89,0.425
2021-08-19 20:32:13.600,-0.875,0.49
2021-08-19 20:32:13.604,-0.845,0.555
2021-08-19 20:32:13.608,-0.78,0.595
2021-08-19 20:32:13.612,-0.68,0.64
2021-08-19 20:32:13.616,-0.62,0.68
2021-08-19 20:32:13.620,-0.585,0.685
2021-08-19 20:32:13.624,-0.555,0.63
2021-08-19 20:32:13.628,-0.545,0.44
2021-08-19 20:32:13.632,-0.52,0.175
2021-08-19 20:32:13.636,-0.52,-0.095
2021-08-19 20:32:13.640,-0.52,-0.23
2021-08-19 20:32:13.644,-0.5,-0.265
2021-08-19 20:32:13.648,-0.485,-0.29
2021-08-19 20:32:13.652,-0.46,-0.33
2021-08-19 20:32:13.656,-0.445,-0.375
2021-08-19 20:32:13.660,-0.435,-0.415
2021-08-19 20:32:13.664,-0.405,-0.425
2021-08-19 20:32:13.668,-0.425,-0.425
2021-08-19 20:32:13.672,-0.42,-0.47
2021-08-19 20:32:13.676,-0.415,-0.49
2021-08-19 20:32:13.680,-0.415,-0.5
2021-08-19 20:32:13.684,-0.385,-0.51
2021-08-19 20:32:13.688,-0.345,-0.495
2021-08-19 20:32:13.692,-0.37,-0.51
2021-08-19 20:32:13.696,-0.38,-0.55
2021-08-19 20:32:13.700,-0.39,-0.57
2021-08-19 20:32:13.704,-0.41,-0.605
2021-08-19 20:32:13.708,-0.42,-0.64
2021-08-19 20:32:13.712,-0.455,-0.67
2021-08-19 20:32:13.716,-0.475,-0.685
2021-08-19 20:32:13.720,-0.495,-0.7
2021-08-19 20:32:13.724,-0.475,-0.73
2021-08-19 20:32:13.728,-0.47,-0.78
2021-08-19 20:32:13.732,-0.475,-0.79
2021-08-19 20:32:13.736,-0.465,-0.85
2021-08-19 20:32:13.740,-0.46,-0.915
2021-08-19 20:32:13.744,-0.425,-0.955
2021-08-19 20:32:13.748,-0.425,-0.99
2021-08-19 20:32:13.752,-0.39,-1.065
2021-08-19 20:32:13.756,-0.415,-1.11
2021-08-19 20:32:13.760,-0.43,-1.155
2021-08-19 20:32:13.764,-0.44,-1.17
2021-08-19 20:32:13.768,-0.435,-1.225
2021-08-19 20:32:13.772,-0.41,-1.27
2021-08-19 20:32:13.776,-0.395,-1.305
2021-08-19 20:32:13.780,-0.395,-1.335
2021-08-19 20:32:13.784,-0.425,-1.36
2021-08-19 20:32:13.788,-0.435,-1.355
2021-08-19 20:32:13.792,-0.445,-1.37
2021-08-19 20:32:13.796,-0.44,-1.4
2021-08-19 20:32:13.800,-0.45,-1.425
2021-08-19 20:32:13.804,-0.45,-1.465
2021-08-19 20:32:13.808,-0.43,-1.465
2021-08-19 20:32:13.812,-0.43,-1.465
2021-08-19 20:32:13.816,-0.445,-1.505
2021-08-19 20:32:13.820,-0.44,-1.515
2021-08-19 20:32:13.824,-0.42,-1.52
2021-08-19 20:32:13.828,-0.42,-1.515
2021-08-19 20:32:13.832,-0.41,-1.485
2021-08-19 20:32:13.836,-0.415,-1.495
2021-08-19 20:32:13.840,-0.41,-1.505
2021-08-19 20:32:13.844,-0.395,-1.48
2021-08-19 20:32:13.848,-0.36,-1.465
2021-08-19 20:32:13.852,-0.33,-1.47
2021-08-19 20:32:13.856,-0.32,-1.505
2021-08-19 20:32:13.860,-0.305,-1.495
2021-08-19 20:32:13.864,-0.295,-1.5
2021-08-19 20:32:13.868,-0.315,-1.51
2021-08-19 20:32:13.872,-0.28,-1.535
2021-08-19 20:32:13.876,-0.29,-1.545
2021-08-19 20:32:13.880,-0.295,-1.54
2021-08-19 20:32:13.884,-0.265,-1.56
2021-08-19 20:32:13.888,-0.255,-1.545
2021-08-19 20:32:13.892,-0.25,-1.565
2021-08-19 20:32:13.896,-0.275,-1.575
2021-08-19 20:32:13.900,-0.305,-1.61
2021-08-19 20:32:13.904,-0.31,-1.665
2021-08-19 20:32:13.908,-0.32,-1.71
2021-08-19 20:32:13.912,-0.34,-1.735
2021-08-19 20:32:13.916,-0.39,-1.78
2021-08-19 20:32:13.920,-0.415,-1.775
2021-08-19 20:32:13.924,-0.45,-1.78
2021-08-19 20:32:13.928,-0.455,-1.78
2021-08-19 20:32:13.932,-0.47,-1.805
2021-08-19 20:32:13.936,-0.475,-1.805
2021-08-19 20:32:13.940,-0.48,-1.8
2021-08-19 20:32:13.944,-0.47,-1.78
2021-08-19 20:32:13.948,-0.46,-1.805
2021-08-19 20:32:13.952,-0.435,-1.815
2021-08-19 20:32:13.956,-0.445,-1.83
2021-08-19 20:32:13.960,-0.465,-1.855
2021-08-19 20:32:13.964,-0.485,-1.855
2021-08-19 20:32:13.968,-0.525,-1.88
2021-08-19 20:32:13.972,-0.515,-1.9
2021-08-19 20:32:13.976,-0.395,-1.87
2021-08-19 20:32:13.980,-0.14,-1.855
2021-08-19 20:32:13.984,0.14,-1.85
2021-08-19 20:32:13.988,0.395,-1.825
2021-08-19 20:32:13.992,0.5,-1.775
2021-08-19 20:32:13.996,0.325,-1.755
2021-08-19 20:32:14.000,0.01,-1.785
2021-08-19 20:32:14.004,-0.325,-1.825
2021-08-19 20:32:14.008,-0.515,-1.835
2021-08-19 20:32:14.012,-0.605,-1.825
2021-08-19 20:32:14.016,-0.635,-1.765
2021-08-19 20:32:14.020,-0.65,-1.67
2021-08-19 20:32:14.024,-0.685,-1.585
2021-08-19 20:32:14.028,-0.72,-1.49
2021-08-19 20:32:14.032,-0.72,-1.355
2021-08-19 20:32:14.036,-0.74,-1.215
2021-08-19 20:32:14.040,-0.705,-1.08
2021-08-19 20:32:14.044,-0.695,-1.04
2021-08-19 20:32:14.048,-0.62,-1.06
2021-08-19 20:32:14.052,-0.55,-1.065
2021-08-19 20:32:14.056,-0.47,-1.085
2021-08-19 20:32:14.060,-0.44,-1.17
2021-08-19 20:32:14.064,-0.41,-1.335
2021-08-19 20:32:14.068,-0.39,-1.515
2021-08-19 20:32:14.072,-0.39,-1.685
2021-08-19 20:32:14.076,-0.38,-1.775
2021-08-19 20:32:14.080,-0.37,-1.765
2021-08-19 20:32:14.084,-0.335,-1.725
2021-08-19 20:32:14.088,-0.275,-1.865
2021-08-19 20:32:14.116,-0.235,-2.0
2021-08-19 20:32:14.120,-0.26,-1.94
2021-08-19 20:32:14.124,-0.345,-1.885
2021-08-19 20:32:14.128,-0.345,-1.9
2021-08-19 20:32:14.132,-0.36,-1.95
2021-08-19 20:32:14.144,-0.375,-1.985
2021-08-19 20:32:14.148,-0.38,-1.935
2021-08-19 20:32:14.152,-0.37,-1.94
2021-08-19 20:32:14.156,-0.36,-1.93
2021-08-19 20:32:14.160,-0.365,-1.975
2021-08-19 20:32:14.180,-0.35,-1.985
2021-08-19 20:32:14.232,-0.34,-1.98
2021-08-19 20:32:14.236,-0.35,-1.965
2021-08-19 20:32:14.240,-0.345,-1.925
2021-08-19 20:32:14.244,-0.355,-1.905
2021-08-19 20:32:14.248,-0.35,-1.9
2021-08-19 20:32:14.252,-0.335,-1.885
2021-08-19 20:32:14.256,-0.345,-1.84
2021-08-19 20:32:14.260,-0.36,-1.805
2021-08-19 20:32:14.264,-0.375,-1.755
2021-08-19 20:32:14.268,-0.375,-1.72
2021-08-19 20:32:14.272,-0.39,-1.71
2021-08-19 20:32:14.276,-0.365,-1.725
2021-08-19 20:32:14.280,-0.36,-1.755
2021-08-19 20:32:14.284,-0.385,-1.73
2021-08-19 20:32:14.288,-0.375,-1.7
2021-08-19 20:32:14.292,-0.365,-1.69
2021-08-19 20:32:14.296,-0.35,-1.645
2021-08-19 20:32:14.300,-0.345,-1.545
2021-08-19 20:32:14.304,-0.32,-1.525
2021-08-19 20:32:14.308,-0.31,-1.575
2021-08-19 20:32:14.312,-0.33,-1.59
2021-08-19 20:32:14.316,-0.32,-1.55
2021-08-19 20:32:14.320,-0.32,-1.525
2021-08-19 20:32:14.324,-0.325,-1.525
2021-08-19 20:32:14.328,-0.305,-1.51
2021-08-19 20:32:14.332,-0.29,-1.455
2021-08-19 20:32:14.336,-0.27,-1.44
2021-08-19 20:32:14.340,-0.275,-1.425
2021-08-19 20:32:14.344,-0.275,-1.41
2021-08-19 20:32:14.348,-0.27,-1.4
2021-08-19 20:32:14.352,-0.265,-1.395
2021-08-19 20:32:14.356,-0.245,-1.385
2021-08-19 20:32:14.360,-0.245,-1.355
2021-08-19 20:32:14.364,-0.23,-1.345
2021-08-19 20:32:14.368,-0.23,-1.34
2021-08-19 20:32:14.372,-0.245,-1.335
2021-08-19 20:32:14.376,-0.29,-1.285
2021-08-19 20:32:14.380,-0.305,-1.265
2021-08-19 20:32:14.384,-0.31,-1.265
2021-08-19 20:32:14.388,-0.345,-1.285
2021-08-19 20:32:14.392,-0.345,-1.31
2021-08-19 20:32:14.396,-0.35,-1.28
2021-08-19 20:32:14.400,-0.375,-1.27
2021-08-19 20:32:14.404,-0.395,-1.245
2021-08-19 20:32:14.408,-0.37,-1.235
2021-08-19 20:32:14.412,-0.39,-1.25
2021-08-19 20:32:14.416,-0.42,-1.255
2021-08-19 20:32:14.420,-0.44,-1.265
2021-08-19 20:32:14.424,-0.415,-1.235
2021-08-19 20:32:14.428,-0.4,-1.145
2021-08-19 20:32:14.432,-0.42,-1.095
2021-08-19 20:32:14.436,-0.41,-1.075
2021-08-19 20:32:14.440,-0.32,-1.11
2021-08-19 20:32:14.444,-0.13,-1.145
2021-08-19 20:32:14.448,0.14,-1.165
2021-08-19 20:32:14.452,0.355,-1.15
2021-08-19 20:32:14.456,0.465,-1.125
2021-08-19 20:32:14.460,0.36,-1.11
2021-08-19 20:32:14.464,0.03,-1.08
2021-08-19 20:32:14.468,-0.305,-1.08
2021-08-19 20:32:14.472,-0.51,-1.08
2021-08-19 20:32:14.476,-0.62,-1.06
2021-08-19 20:32:14.480,-0.61,-0.94
2021-08-19 20:32:14.484,-0.605,-0.82
2021-08-19 20:32:14.488,-0.61,-0.745
2021-08-19 20:32:14.492,-0.625,-0.655
2021-08-19 20:32:14.496,-0.63,-0.565
2021-08-19 20:32:14.500,-0.665,-0.495
2021-08-19 20:32:14.504,-0.69,-0.385
2021-08-19 20:32:14.508,-0.705,-0.28
2021-08-19 20:32:14.512,-0.665,-0.17
2021-08-19 20:32:14.516,-0.635,-0.095
2021-08-19 20:32:14.520,-0.58,0.02
2021-08-19 20:32:14.524,-0.545,0.19
2021-08-19 20:32:14.528,-0.49,0.21
2021-08-19 20:32:14.532,-0.485,0.105
2021-08-19 20:32:14.536,-0.44,0.025
2021-08-19 20:32:14.540,-0.43,-0.06
2021-08-19 20:32:14.544,-0.425,-0.265
2021-08-19 20:32:14.548,-0.41,-0.595
2021-08-19 20:32:14.552,-0.4,-0.835
2021-08-19 20:32:14.556,-0.365,-0.85
2021-08-19 20:32:14.560,-0.35,-0.84
2021-08-19 20:32:14.564,-0.33,-0.93
2021-08-19 20:32:14.568,-0.335,-1.055
2021-08-19 20:32:14.572,-0.34,-1.065
2021-08-19 20:32:14.576,-0.325,-1.005
2021-08-19 20:32:14.580,-0.31,-0.95
2021-08-19 20:32:14.584,-0.315,-0.91
2021-08-19 20:32:14.588,-0.31,-0.905
2021-08-19 20:32:14.592,-0.305,-0.95
2021-08-19 20:32:14.596,-0.3,-0.985
2021-08-19 20:32:14.600,-0.3,-0.97
2021-08-19 20:32:14.604,-0.285,-0.94
2021-08-19 20:32:14.608,-0.24,-0.91
2021-08-19 20:32:14.612,-0.18,-0.77
2021-08-19 20:32:14.616,-0.155,-0.63
2021-08-19 20:32:14.620,-0.195,-0.595
2021-08-19 20:32:14.624,-0.205,-0.68
2021-08-19 20:32:14.628,-0.23,-0.84
2021-08-19 20:32:14.632,-0.225,-0.95
2021-08-19 20:32:14.636,-0.205,-1.06
2021-08-19 20:32:14.640,-0.205,-1.09
2021-08-19 20:32:14.644,-0.195,-1.12
2021-08-19 20:32:14.648,-0.215,-1.245
2021-08-19 20:32:14.652,-0.205,-1.31
2021-08-19 20:32:14.656,-0.195,-1.27
2021-08-19 20:32:14.660,-0.19,-1.18
2021-08-19 20:32:14.664,-0.21,-1.115
2021-08-19 20:32:14.668,-0.21,-1.115
2021-08-19 20:32:14.672,-0.23,-1.125
2021-08-19 20:32:14.676,-0.21,-1.02
2021-08-19 20:32:14.680,-0.245,-0.93
2021-08-19 20:32:14.684,-0.295,-0.82
2021-08-19 20:32:14.688,-0.32,-0.6
2021-08-19 20:32:14.692,-0.32,-0.54
2021-08-19 20:32:14.696,-0.315,-0.625
2021-08-19 20:32:14.700,-0.315,-0.865
2021-08-19 20:32:14.704,-0.295,-1.055
2021-08-19 20:32:14.708,-0.285,-1.045
2021-08-19 20:32:14.712,-0.315,-0.985
2021-08-19 20:32:14.716,-0.3,-0.905
2021-08-19 20:32:14.720,-0.31,-0.815
2021-08-19 20:32:14.724,-0.31,-0.745
2021-08-19 20:32:14.728,-0.33,-0.71
2021-08-19 20:32:14.732,-0.35,-0.645
2021-08-19 20:32:14.736,-0.35,-0.59
2021-08-19 20:32:14.740,-0.335,-0.565
2021-08-19 20:32:14.744,-0.33,-0.545
2021-08-19 20:32:14.748,-0.36,-0.515
2021-08-19 20:32:14.752,-0.33,-0.47
2021-08-19 20:32:14.756,-0.345,-0.44
2021-08-19 20:32:14.760,-0.35,-0.405
2021-08-19 20:32:14.764,-0.36,-0.345
2021-08-19 20:32:14.768,-0.375,-0.33
2021-08-19 20:32:14.772,-0.385,-0.3
2021-08-19 20:32:14.776,-0.36,-0.275
2021-08-19 20:32:14.780,-0.4,-0.24
2021-08-19 20:32:14.784,-0.41,-0.245
2021-08-19 20:32:14.788,-0.435,-0.25
2021-08-19 20:32:14.792,-0.415,-0.23
2021-08-19 20:32:14.796,-0.43,-0.22
2021-08-19 20:32:14.800,-0.44,-0.195
2021-08-19 20:32:14.804,-0.45,-0.185
2021-08-19 20:32:14.808,-0.45,-0.18
2021-08-19 20:32:14.812,-0.465,-0.15
2021-08-19 20:32:14.816,-0.46,-0.15
2021-08-19 20:32:14.820,-0.495,-0.13
2021-08-19 20:32:14.824,-0.48,-0.125
2021-08-19 20:32:14.828,-0.49,-0.095
2021-08-19 20:32:14.832,-0.48,-0.08
2021-08-19 20:32:14.836,-0.43,-0.045
2021-08-19 20:32:14.840,-0.39,0.035
2021-08-19 20:32:14.844,-0.36,0.115
2021-08-19 20:32:14.848,-0.34,0.11
2021-08-19 20:32:14.852,-0.305,-0.035
2021-08-19 20:32:14.856,-0.3,-0.16
2021-08-19 20:32:14.860,-0.295,-0.145
2021-08-19 20:32:14.864,-0.3,-0.025
2021-08-19 20:32:14.868,-0.29,0.0
2021-08-19 20:32:14.872,-0.29,-0.14
2021-08-19 20:32:14.876,-0.275,-0.345
2021-08-19 20:32:14.880,-0.2,-0.395
2021-08-19 20:32:14.884,-0.055,-0.275
2021-08-19 20:32:14.888,0.175,-0.2
2021-08-19 20:32:14.892,0.395,-0.155
2021-08-19 20:32:14.896,0.565,-0.095
2021-08-19 20:32:14.900,0.57,-0.045
2021-08-19 20:32:14.904,0.33,-0.065
2021-08-19 20:32:14.908,-0.01,-0.075
2021-08-19 20:32:14.912,-0.29,-0.1
2021-08-19 20:32:14.916,-0.435,-0.135
2021-08-19 20:32:14.920,-0.49,-0.13
2021-08-19 20:32:14.924,-0.525,0.0
2021-08-19 20:32:14.928,-0.55,0.135
2021-08-19 20:32:14.932,-0.6,0.27
2021-08-19 20:32:14.936,-0.675,0.425
2021-08-19 20:32:14.940,-0.74,0.585
2021-08-19 20:32:14.944,-0.72,0.745
2021-08-19 20:32:14.948,-0.695,0.83
2021-08-19 20:32:14.952,-0.595,0.765
2021-08-19 20:32:14.956,-0.52,0.64
2021-08-19 20:32:14.960,-0.465,0.56
2021-08-19 20:32:14.964,-0.425,0.585
2021-08-19 20:32:14.968,-0.42,0.53
2021-08-19 20:32:14.972,-0.435,0.3
2021-08-19 20:32:14.976,-0.42,0.075
2021-08-19 20:32:14.980,-0.445,-0.035
2021-08-19 20:32:14.984,-0.435,-0.01
2021-08-19 20:32:14.988,-0.45,-0.025
2021-08-19 20:32:14.992,-0.45,-0.08
2021-08-19 20:32:14.996,-0.47,-0.195
2021-08-19 20:32:15.000,-0.485,-0.205
2021-08-19 20:32:15.004,-0.475,-0.2
2021-08-19 20:32:15.008,-0.49,-0.16
2021-08-19 20:32:15.012,-0.47,-0.16
2021-08-19 20:32:15.016,-0.5,-0.17
2021-08-19 20:32:15.020,-0.515,-0.185
2021-08-19 20:32:15.024,-0.53,-0.165
2021-08-19 20:32:15.028,-0.56,-0.15
2021-08-19 20:32:15.032,-0.615,-0.15
2021-08-19 20:32:15.036,-0.64,-0.12
2021-08-19 20:32:15.040,-0.665,-0.13
2021-08-19 20:32:15.044,-0.7,-0.145
2021-08-19 20:32:15.048,-0.72,-0.145
2021-08-19 20:32:15.052,-0.705,-0.155
2021-08-19 20:32:15.056,-0.675,-0.2
2021-08-19 20:32:15.060,-0.625,-0.21
2021-08-19 20:32:15.064,-0.61,-0.16
2021-08-19 20:32:15.068,-0.595,-0.095
2021-08-19 20:32:15.072,-0.57,0.01
2021-08-19 20:32:15.076,-0.56,-0.07
2021-08-19 20:32:15.080,-0.55,-0.245
2021-08-19 20:32:15.084,-0.535,-0.34
2021-08-19 20:32:15.088,-0.53,-0.31
2021-08-19 20:32:15.092,-0.54,-0.29
2021-08-19 20:32:15.096,-0.53,-0.24
2021-08-19 20:32:15.100,-0.545,-0.23
2021-08-19 20:32:15.104,-0.52,-0.22
2021-08-19 20:32:15.108,-0.53,-0.225
2021-08-19 20:32:15.112,-0.555,-0.215
2021-08-19 20:32:15.116,-0.555,-0.22
2021-08-19 20:32:15.120,-0.57,-0.235
2021-08-19 20:32:15.124,-0.6,-0.28
2021-08-19 20:32:15.128,-0.63,-0.295
2021-08-19 20:32:15.132,-0.62,-0.285
2021-08-19 20:32:15.136,-0.665,-0.27
2021-08-19 20:32:15.140,-0.66,-0.265
2021-08-19 20:32:15.144,-0.7,-0.23
2021-08-19 20:32:15.148,-0.68,-0.195
2021-08-19 20:32:15.152,-0.69,-0.145
2021-08-19 20:32:15.156,-0.7,-0.055
2021-08-19 20:32:15.160,-0.715,0.015
2021-08-19 20:32:15.164,-0.73,-0.055
2021-08-19 20:32:15.168,-0.73,-0.26
2021-08-19 20:32:15.172,-0.73,-0.33
2021-08-19 20:32:15.176,-0.75,-0.295
2021-08-19 20:32:15.180,-0.76,-0.25
2021-08-19 20:32:15.184,-0.755,-0.18
2021-08-19 20:32:15.188,-0.765,-0.14
2021-08-19 20:32:15.192,-0.755,-0.085
2021-08-19 20:32:15.196,-0.755,-0.075
2021-08-19 20:32:15.200,-0.765,-0.035
2021-08-19 20:32:15.204,-0.765,-0.025
2021-08-19 20:32:15.208,-0.77,-0.02
2021-08-19 20:32:15.212,-0.755,0.01
2021-08-19 20:32:15.216,-0.77,0.01
2021-08-19 20:32:15.220,-0.765,-0.005
2021-08-19 20:32:15.224,-0.76,0.0
2021-08-19 20:32:15.228,-0.775,0.01
2021-08-19 20:32:15.232,-0.79,0.015
2021-08-19 20:32:15.236,-0.81,0.03
2021-08-19 20:32:15.240,-0.83,0.055
2021-08-19 20:32:15.244,-0.83,0.05
2021-08-19 20:32:15.248,-0.845,0.05
2021-08-19 20:32:15.252,-0.855,0.04
2021-08-19 20:32:15.256,-0.88,0.015
2021-08-19 20:32:15.260,-0.895,0.005
2021-08-19 20:32:15.264,-0.915,0.01
2021-08-19 20:32:15.268,-0.95,0.025
2021-08-19 20:32:15.272,-0.95,0.035
2021-08-19 20:32:15.276,-0.975,0.055
2021-08-19 20:32:15.280,-0.99,0.03
2021-08-19 20:32:15.284,-0.97,0.03
2021-08-19 20:32:15.288,-0.975,0.02
2021-08-19 20:32:15.292,-0.94,0.03
2021-08-19 20:32:15.296,-0.925,0.045
2021-08-19 20:32:15.300,-0.87,0.06
2021-08-19 20:32:15.304,-0.845,0.135
2021-08-19 20:32:15.308,-0.85,0.31
2021-08-19 20:32:15.312,-0.87,0.355
2021-08-19 20:32:15.316,-0.89,0.24
2021-08-19 20:32:15.320,-0.83,0.125
2021-08-19 20:32:15.324,-0.735,0.05
2021-08-19 20:32:15.328,-0.525,0.045
2021-08-19 20:32:15.332,-0.315,0.135
2021-08-19 20:32:15.336,-0.095,0.215
2021-08-19 20:32:15.340,0.065,0.275
2021-08-19 20:32:15.344,0.06,0.265
2021-08-19 20:32:15.348,-0.235,0.255
2021-08-19 20:32:15.352,-0.655,0.23
2021-08-19 20:32:15.356,-0.96,0.245
2021-08-19 20:32:15.360,-1.06,0.23
2021-08-19 20:32:15.364,-1.035,0.245
2021-08-19 20:32:15.368,-1.0,0.345
2021-08-19 20:32:15.372,-0.97,0.505
2021-08-19 20:32:15.376,-0.98,0.635
2021-08-19 20:32:15.380,-0.995,0.735
2021-08-19 20:32:15.384,-1.025,0.785
2021-08-19 20:32:15.388,-1.06,0.87
2021-08-19 20:32:15.392,-1.105,0.965
2021-08-19 20:32:15.396,-1.105,1.035
2021-08-19 20:32:15.400,-1.13,1.09
2021-08-19 20:32:15.404,-1.095,1.135
2021-08-19 20:32:15.408,-1.07,1.23
2021-08-19 20:32:15.412,-1.045,1.295
2021-08-19 20:32:15.416,-0.995,1.38
2021-08-19 20:32:15.420,-0.965,1.405
2021-08-19 20:32:15.424,-0.93,1.365
2021-08-19 20:32:15.428,-0.9,1.23
2021-08-19 20:32:15.432,-0.885,1.005
2021-08-19 20:32:15.436,-0.875,0.68
2021-08-19 20:32:15.440,-0.88,0.355
2021-08-19 20:32:15.444,-0.855,0.13
2021-08-19 20:32:15.448,-0.845,0.0
2021-08-19 20:32:15.452,-0.86,-0.045
2021-08-19 20:32:15.456,-0.845,-0.06
2021-08-19 20:32:15.460,-0.825,-0.05
2021-08-19 20:32:15.464,-0.82,-0.025
2021-08-19 20:32:15.468,-0.81,-0.04
2021-08-19 20:32:15.472,-0.845,-0.035
2021-08-19 20:32:15.476,-0.845,-0.045
2021-08-19 20:32:15.480,-0.865,-0.055
2021-08-19 20:32:15.484,-0.855,-0.07
2021-08-19 20:32:15.488,-0.88,-0.105
2021-08-19 20:32:15.492,-0.895,-0.1
2021-08-19 20:32:15.496,-0.905,-0.085
2021-08-19 20:32:15.500,-0.925,-0.09
2021-08-19 20:32:15.504,-0.915,-0.095
2021-08-19 20:32:15.508,-0.895,-0.15
2021-08-19 20:32:15.512,-0.935,-0.165
2021-08-19 20:32:15.516,-0.945,-0.155
2021-08-19 20:32:15.520,-0.9,-0.16
2021-08-19 20:32:15.524,-0.895,-0.175
2021-08-19 20:32:15.528,-0.86,-0.185
2021-08-19 20:32:15.532,-0.815,-0.225
2021-08-19 20:32:15.536,-0.745,-0.205
2021-08-19 20:32:15.540,-0.66,-0.185
2021-08-19 20:32:15.544,-0.63,-0.205
2021-08-19 20:32:15.548,-0.635,-0.22
2021-08-19 20:32:15.552,-0.615,-0.24
2021-08-19 20:32:15.556,-0.615,-0.245
2021-08-19 20:32:15.560,-0.63,-0.23
2021-08-19 20:32:15.564,-0.67,-0.215
2021-08-19 20:32:15.568,-0.705,-0.235
2021-08-19 20:32:15.572,-0.69,-0.23
2021-08-19 20:32:15.576,-0.72,-0.17
2021-08-19 20:32:15.580,-0.77,-0.11
2021-08-19 20:32:15.584,-0.76,-0.095
2021-08-19 20:32:15.588,-0.64,-0.2
2021-08-19 20:32:15.592,-0.495,-0.285
2021-08-19 20:32:15.596,-0.47,-0.28
2021-08-19 20:32:15.600,-0.65,-0.15
2021-08-19 20:32:15.604,-0.855,0.005
2021-08-19 20:32:15.608,-0.91,0.085
2021-08-19 20:32:15.612,-0.835,-0.02
2021-08-19 20:32:15.616,-0.8,-0.24
2021-08-19 20:32:15.620,-0.775,-0.315
2021-08-19 20:32:15.624,-0.755,-0.32
2021-08-19 20:32:15.628,-0.755,-0.265
2021-08-19 20:32:15.632,-0.735,-0.165
2021-08-19 20:32:15.636,-0.72,-0.105
2021-08-19 20:32:15.640,-0.7,-0.045
2021-08-19 20:32:15.644,-0.69,-0.005
2021-08-19 20:32:15.648,-0.68,0.01
2021-08-19 20:32:15.652,-0.705,0.065
2021-08-19 20:32:15.656,-0.72,0.1
2021-08-19 20:32:15.660,-0.705,0.135
2021-08-19 20:32:15.664,-0.575,0.17
2021-08-19 20:32:15.668,-0.32,0.195
2021-08-19 20:32:15.672,0.01,0.22
2021-08-19 20:32:15.676,0.27,0.215
2021-08-19 20:32:15.680,0.365,0.305
2021-08-19 20:32:15.684,0.255,0.34
2021-08-19 20:32:15.688,-0.025,0.36
2021-08-19 20:32:15.692,-0.32,0.315
2021-08-19 20:32:15.696,-0.52,0.295
2021-08-19 20:32:15.700,-0.625,0.275
2021-08-19 20:32:15.704,-0.72,0.375
2021-08-19 20:32:15.708,-0.865,0.58
2021-08-19 20:32:15.712,-0.995,0.805
2021-08-19 20:32:15.716,-1.04,1.015
2021-08-19 20:32:15.720,-1.04,1.19
2021-08-19 20:32:15.724,-1.01,1.32
2021-08-19 20:32:15.728,-1.01,1.32
2021-08-19 20:32:15.732,-1.01,1.205
2021-08-19 20:32:15.736,-0.98,1.025
2021-08-19 20:32:15.740,-0.905,0.955
2021-08-19 20:32:15.744,-0.885,0.89
2021-08-19 20:32:15.748,-0.91,0.75
2021-08-19 20:32:15.752,-0.93,0.58
2021-08-19 20:32:15.756,-0.92,0.455
2021-08-19 20:32:15.760,-0.89,0.39
2021-08-19 20:32:15.764,-0.83,0.335
2021-08-19 20:32:15.768,-0.82,0.305
2021-08-19 20:32:15.772,-0.81,0.295
2021-08-19 20:32:15.776,-0.8,0.31
2021-08-19 20:32:15.780,-0.785,0.32
2021-08-19 20:32:15.784,-0.72,0.325
2021-08-19 20:32:15.788,-0.695,0.325
2021-08-19 20:32:15.792,-0.66,0.29
2021-08-19 20:32:15.796,-0.63,0.27
2021-08-19 20:32:15.800,-0.59,0.26
2021-08-19 20:32:15.804,-0.54,0.25
2021-08-19 20:32:15.808,-0.48,0.235
2021-08-19 20:32:15.812,-0.505,0.18
2021-08-19 20:32:15.816,-0.635,0.19
2021-08-19 20:32:15.820,-0.71,0.19
2021-08-19 20:32:15.824,-0.76,0.295
2021-08-19 20:32:15.828,-0.715,0.38
2021-08-19 20:32:15.832,-0.675,0.265
2021-08-19 20:32:15.836,-0.675,0.085
2021-08-19 20:32:15.840,-0.635,0.005
2021-08-19 20:32:15.844,-0.615,0.0
2021-08-19 20:32:15.848,-0.59,-0.02
2021-08-19 20:32:15.852,-0.59,-0.01
2021-08-19 20:32:15.856,-0.575,0.005
2021-08-19 20:32:15.860,-0.575,0.005
2021-08-19 20:32:15.864,-0.57,-0.01
2021-08-19 20:32:15.868,-0.535,0.0
2021-08-19 20:32:15.872,-0.52,0.005
2021-08-19 20:32:15.876,-0.53,0.01
2021-08-19 20:32:15.880,-0.52,0.01
2021-08-19 20:32:15.884,-0.505,0.04
2021-08-19 20:32:15.888,-0.49,0.02
2021-08-19 20:32:15.892,-0.495,0.015
2021-08-19 20:32:15.896,-0.475,0.005
2021-08-19 20:32:15.900,-0.475,0.025
2021-08-19 20:32:15.904,-0.495,0.025
2021-08-19 20:32:15.908,-0.485,0.01
2021-08-19 20:32:15.912,-0.49,0.03
2021-08-19 20:32:15.916,-0.53,0.02
2021-08-19 20:32:15.920,-0.5,0.03
2021-08-19 20:32:15.924,-0.5,0.07
2021-08-19 20:32:15.928,-0.495,0.1
2021-08-19 20:32:15.932,-0.5,0.105
2021-08-19 20:32:15.936,-0.525,0.14
2021-08-19 20:32:15.940,-0.535,0.17
2021-08-19 20:32:15.944,-0.505,0.165
2021-08-19 20:32:15.948,-0.535,0.175
2021-08-19 20:32:15.952,-0.59,0.225
2021-08-19 20:32:15.956,-0.65,0.235
2021-08-19 20:32:15.960,-0.665,0.245
2021-08-19 20:32:15.964,-0.67,0.265
2021-08-19 20:32:15.968,-0.695,0.315
2021-08-19 20:32:15.972,-0.705,0.3
2021-08-19 20:32:15.976,-0.695,0.385
2021-08-19 20:32:15.980,-0.68,0.495
2021-08-19 20:32:15.984,-0.71,0.54
2021-08-19 20:32:15.988,-0.72,0.415
2021-08-19 20:32:15.992,-0.72,0.26
2021-08-19 20:32:15.996,-0.7,0.22
2021-08-19 20:32:16.000,-0.695,0.25
2021-08-19 20:32:16.004,-0.68,0.27
2021-08-19 20:32:16.008,-0.665,0.255
2021-08-19 20:32:16.012,-0.63,0.28
2021-08-19 20:32:16.016,-0.625,0.32
2021-08-19 20:32:16.020,-0.615,0.325
2021-08-19 20:32:16.024,-0.6,0.365
2021-08-19 20:32:16.028,-0.61,0.385
2021-08-19 20:32:16.032,-0.59,0.385
2021-08-19 20:32:16.036,-0.57,0.425
2021-08-19 20:32:16.040,-0.535,0.43
2021-08-19 20:32:16.044,-0.54,0.45
2021-08-19 20:32:16.048,-0.545,0.44
2021-08-19 20:32:16.052,-0.53,0.45
2021-08-19 20:32:16.056,-0.435,0.38
2021-08-19 20:32:16.060,-0.26,0.38
2021-08-19 20:32:16.064,-0.01,0.37
2021-08-19 20:32:16.068,0.17,0.415
2021-08-19 20:32:16.072,0.23,0.42
2021-08-19 20:32:16.076,0.1,0.44
2021-08-19 20:32:16.080,-0.205,0.445
2021-08-19 20:32:16.084,-0.535,0.405
2021-08-19 20:32:16.088,-0.72,0.37
2021-08-19 20:32:16.092,-0.79,0.355
2021-08-19 20:32:16.096,-0.795,0.47
2021-08-19 20:32:16.100,-0.79,0.645
2021-08-19 20:32:16.104,-0.8,0.8
2021-08-19 20:32:16.108,-0.835,0.88
2021-08-19 20:32:16.112,-0.87,0.945
2021-08-19 20:32:16.116,-0.9,1.025
2021-08-19 20:32:16.120,-0.92,1.1
2021-08-19 20:32:16.124,-0.945,1.155
2021-08-19 20:32:16.128,-0.96,1.255
2021-08-19 20:32:16.132,-0.935,1.29
2021-08-19 20:32:16.136,-0.895,1.35
2021-08-19 20:32:16.140,-0.84,1.41
2021-08-19 20:32:16.144,-0.78,1.46
2021-08-19 20:32:16.148,-0.715,1.49
2021-08-19 20:32:16.152,-0.695,1.485
2021-08-19 20:32:16.156,-0.67,1.43
2021-08-19 20:32:16.160,-0.67,1.23
2021-08-19 20:32:16.164,-0.675,0.9
2021-08-19 20:32:16.168,-0.685,0.56
2021-08-19 20:32:16.172,-0.685,0.355
2021-08-19 20:32:16.176,-0.675,0.33
2021-08-19 20:32:16.180,-0.68,0.305
2021-08-19 20:32:16.184,-0.71,0.295
2021-08-19 20:32:16.188,-0.725,0.255
2021-08-19 20:32:16.192,-0.755,0.22
2021-08-19 20:32:16.196,-0.77,0.205
2021-08-19 20:32:16.200,-0.785,0.15
2021-08-19 20:32:16.204,-0.81,0.14
2021-08-19 20:32:16.208,-0.78,0.12
2021-08-19 20:32:16.212,-0.76,0.11
2021-08-19 20:32:16.216,-0.77,0.15
2021-08-19 20:32:16.220,-0.755,0.14
2021-08-19 20:32:16.224,-0.745,0.075
2021-08-19 20:32:16.228,-0.705,0.03
2021-08-19 20:32:16.232,-0.69,0.02
2021-08-19 20:32:16.236,-0.675,0.04
2021-08-19 20:32:16.240,-0.665,0.01
2021-08-19 20:32:16.244,-0.655,0.025
2021-08-19 20:32:16.248,-0.635,0.03
2021-08-19 20:32:16.252,-0.645,0.03
2021-08-19 20:32:16.256,-0.64,0.03
2021-08-19 20:32:16.260,-0.63,0.02
2021-08-19 20:32:16.264,-0.595,0.005
2021-08-19 20:32:16.268,-0.595,-0.015
2021-08-19 20:32:16.272,-0.585,-0.01
2021-08-19 20:32:16.276,-0.55,-0.04
2021-08-19 20:32:16.280,-0.495,-0.035
2021-08-19 20:32:16.284,-0.455,-0.045
2021-08-19 20:32:16.288,-0.435,-0.035
2021-08-19 20:32:16.292,-0.435,-0.05
2021-08-19 20:32:16.296,-0.42,-0.08
2021-08-19 20:32:16.300,-0.42,-0.1
2021-08-19 20:32:16.304,-0.45,-0.13
2021-08-19 20:32:16.308,-0.465,-0.155
2021-08-19 20:32:16.312,-0.425,-0.145
2021-08-19 20:32:16.316,-0.405,-0.145
2021-08-19 20:32:16.320,-0.42,-0.135
2021-08-19 20:32:16.324,-0.415,-0.125
2021-08-19 20:32:16.328,-0.455,-0.145
2021-08-19 20:32:16.332,-0.515,-0.12
2021-08-19 20:32:16.336,-0.535,-0.115
2021-08-19 20:32:16.340,-0.52,-0.16
2021-08-19 20:32:16.344,-0.47,-0.19
2021-08-19 20:32:16.348,-0.465,-0.205
2021-08-19 20:32:16.352,-0.52,-0.15
2021-08-19 20:32:16.356,-0.57,-0.11
2021-08-19 20:32:16.360,-0.605,-0.055
2021-08-19 20:32:16.364,-0.58,-0.025
2021-08-19 20:32:16.368,-0.575,0.0
2021-08-19 20:32:16.372,-0.575,0.06
2021-08-19 20:32:16.376,-0.575,0.11
2021-08-19 20:32:16.380,-0.585,0.145
2021-08-19 20:32:16.384,-0.55,0.145
2021-08-19 20:32:16.388,-0.56,0.18
2021-08-19 20:32:16.392,-0.57,0.215
2021-08-19 20:32:16.396,-0.56,0.23
2021-08-19 20:32:16.400,-0.58,0.265
2021-08-19 20:32:16.404,-0.58,0.27
2021-08-19 20:32:16.408,-0.61,0.31
2021-08-19 20:32:16.412,-0.625,0.315
2021-08-19 20:32:16.416,-0.655,0.325
2021-08-19 20:32:16.420,-0.64,0.325
2021-08-19 20:32:16.424,-0.66,0.335
2021-08-19 20:32:16.428,-0.65,0.335
2021-08-19 20:32:16.432,-0.64,0.355
2021-08-19 20:32:16.436,-0.64,0.32
2021-08-19 20:32:16.440,-0.6,0.315
2021-08-19 20:32:16.444,-0.665,0.33
2021-08-19 20:32:16.448,-0.675,0.325
2021-08-19 20:32:16.452,-0.66,0.355
2021-08-19 20:32:16.456,-0.62,0.325
2021-08-19 20:32:16.460,-0.585,0.315
2021-08-19 20:32:16.464,-0.58,0.36
2021-08-19 20:32:16.468,-0.56,0.395
2021-08-19 20:32:16.472,-0.545,0.4
2021-08-19 20:32:16.476,-0.51,0.41
2021-08-19 20:32:16.480,-0.445,0.445
2021-08-19 20:32:16.484,-0.29,0.42
2021-08-19 20:32:16.488,-0.065,0.445
2021-08-19 20:32:16.492,0.155,0.47
2021-08-19 20:32:16.496,0.305,0.53
2021-08-19 20:32:16.500,0.315,0.57
2021-08-19 20:32:16.504,0.1,0.595
2021-08-19 20:32:16.508,-0.22,0.575
2021-08-19 20:32:16.512,-0.45,0.53
2021-08-19 20:32:16.516,-0.61,0.505
2021-08-19 20:32:16.520,-0.645,0.485
2021-08-19 20:32:16.524,-0.655,0.595
2021-08-19 20:32:16.528,-0.7,0.73
2021-08-19 20:32:16.532,-0.74,0.85
2021-08-19 20:32:16.536,-0.785,1.0
2021-08-19 20:32:16.540,-0.825,1.16
2021-08-19 20:32:16.544,-0.845,1.31
2021-08-19 20:32:16.548,-0.815,1.34
2021-08-19 20:32:16.552,-0.715,1.21
2021-08-19 20:32:16.556,-0.625,1.065
2021-08-19 20:32:16.560,-0.58,0.975
2021-08-19 20:32:16.564,-0.535,0.95
2021-08-19 20:32:16.568,-0.525,0.84
2021-08-19 20:32:16.572,-0.51,0.69
2021-08-19 20:32:16.576,-0.495,0.52
2021-08-19 20:32:16.580,-0.46,0.435
2021-08-19 20:32:16.584,-0.44,0.385
2021-08-19 20:32:16.588,-0.46,0.355
2021-08-19 20:32:16.592,-0.465,0.33
2021-08-19 20:32:16.596,-0.485,0.315
2021-08-19 20:32:16.600,-0.475,0.3
2021-08-19 20:32:16.604,-0.49,0.285
2021-08-19 20:32:16.608,-0.49,0.285
2021-08-19 20:32:16.612,-0.47,0.295
2021-08-19 20:32:16.616,-0.48,0.29
2021-08-19 20:32:16.620,-0.49,0.28
2021-08-19 20:32:16.624,-0.525,0.29
2021-08-19 20:32:16.628,-0.52,0.265
2021-08-19 20:32:16.632,-0.515,0.29
2021-08-19 20:32:16.636,-0.52,0.275
2021-08-19 20:32:16.640,-0.52,0.285
2021-08-19 20:32:16.644,-0.52,0.26
2021-08-19 20:32:16.648,-0.535,0.26
2021-08-19 20:32:16.652,-0.565,0.225
2021-08-19 20:32:16.656,-0.555,0.215
2021-08-19 20:32:16.660,-0.555,0.19
2021-08-19 20:32:16.664,-0.535,0.19
2021-08-19 20:32:16.668,-0.495,0.2
2021-08-19 20:32:16.672,-0.435,0.195
2021-08-19 20:32:16.676,-0.415,0.205
2021-08-19 20:32:16.680,-0.4,0.185
2021-08-19 20:32:16.684,-0.4,0.185
2021-08-19 20:32:16.688,-0.37,0.185
2021-08-19 20:32:16.692,-0.31,0.15
2021-08-19 20:32:16.696,-0.21,0.135
2021-08-19 20:32:16.700,-0.185,0.15
2021-08-19 20:32:16.704,-0.26,0.16
2021-08-19 20:32:16.708,-0.315,0.17
2021-08-19 20:32:16.712,-0.3,0.195
2021-08-19 20:32:16.716,-0.29,0.195
2021-08-19 20:32:16.720,-0.34,0.165
2021-08-19 20:32:16.724,-0.37,0.175
2021-08-19 20:32:16.728,-0.365,0.18
2021-08-19 20:32:16.732,-0.325,0.18
2021-08-19 20:32:16.736,-0.285,0.15
2021-08-19 20:32:16.740,-0.295,0.16
2021-08-19 20:32:16.744,-0.3,0.155
2021-08-19 20:32:16.748,-0.275,0.13
2021-08-19 20:32:16.752,-0.275,0.155
2021-08-19 20:32:16.756,-0.26,0.175
2021-08-19 20:32:16.760,-0.24,0.2
2021-08-19 20:32:16.764,-0.26,0.215
2021-08-19 20:32:16.768,-0.3,0.215
2021-08-19 20:32:16.772,-0.315,0.25
2021-08-19 20:32:16.776,-0.295,0.25
2021-08-19 20:32:16.780,-0.305,0.25
2021-08-19 20:32:16.784,-0.275,0.29
2021-08-19 20:32:16.788,-0.27,0.34
2021-08-19 20:32:16.792,-0.26,0.34
2021-08-19 20:32:16.796,-0.255,0.315
2021-08-19 20:32:16.800,-0.27,0.325
2021-08-19 20:32:16.804,-0.255,0.35
2021-08-19 20:32:16.808,-0.28,0.345
2021-08-19 20:32:16.812,-0.25,0.355
2021-08-19 20:32:16.816,-0.23,0.38
2021-08-19 20:32:16.820,-0.195,0.395
2021-08-19 20:32:16.824,-0.155,0.405
2021-08-19 20:32:16.828,-0.09,0.4
2021-08-19 20:32:16.832,0.095,0.375
2021-08-19 20:32:16.836,0.39,0.4
2021-08-19 20:32:16.840,0.64,0.42
2021-08-19 20:32:16.844,0.81,0.485
2021-08-19 20:32:16.848,0.715,0.525
2021-08-19 20:32:16.852,0.455,0.515
2021-08-19 20:32:16.856,0.095,0.515
2021-08-19 20:32:16.860,-0.235,0.455
2021-08-19 20:32:16.864,-0.42,0.43
2021-08-19 20:32:16.868,-0.495,0.49
2021-08-19 20:32:16.872,-0.545,0.63
2021-08-19 20:32:16.876,-0.585,0.8
2021-08-19 20:32:16.880,-0.64,0.96
2021-08-19 20:32:16.884,-0.675,1.025
2021-08-19 20:32:16.888,-0.69,1.06
2021-08-19 20:32:16.892,-0.705,1.11
2021-08-19 20:32:16.896,-0.715,1.19
2021-08-19 20:32:16.900,-0.735,1.27
2021-08-19 20:32:16.904,-0.67,1.34
2021-08-19 20:32:16.908,-0.57,1.385
2021-08-19 20:32:16.912,-0.555,1.43
2021-08-19 20:32:16.916,-0.56,1.5
2021-08-19 20:32:16.920,-0.52,1.545
2021-08-19 20:32:16.924,-0.465,1.575
2021-08-19 20:32:16.928,-0.42,1.52
2021-08-19 20:32:16.932,-0.39,1.4
2021-08-19 20:32:16.936,-0.325,1.14
2021-08-19 20:32:16.940,-0.295,0.795
2021-08-19 20:32:16.944,-0.305,0.595
2021-08-19 20:32:16.948,-0.305,0.49
2021-08-19 20:32:16.952,-0.27,0.435
2021-08-19 20:32:16.956,-0.285,0.375
2021-08-19 20:32:16.960,-0.275,0.315
2021-08-19 20:32:16.964,-0.25,0.29
2021-08-19 20:32:16.968,-0.26,0.255
2021-08-19 20:32:16.972,-0.3,0.2
2021-08-19 20:32:16.976,-0.32,0.195
2021-08-19 20:32:16.980,-0.28,0.185
2021-08-19 20:32:16.984,-0.28,0.15
2021-08-19 20:32:16.988,-0.265,0.115
2021-08-19 20:32:16.992,-0.235,0.085
2021-08-19 20:32:16.996,-0.22,0.09
2021-08-19 20:32:17.000,-0.265,0.06
2021-08-19 20:32:17.004,-0.315,0.055
2021-08-19 20:32:17.008,-0.27,0.045
2021-08-19 20:32:17.012,-0.23,0.02
2021-08-19 20:32:17.016,-0.22,0.01
2021-08-19 20:32:17.020,-0.2,0.01
2021-08-19 20:32:17.024,-0.14,0.01
2021-08-19 20:32:17.028,-0.14,-0.01
2021-08-19 20:32:17.032,-0.2,-0.035
2021-08-19 20:32:17.036,-0.275,-0.07
2021-08-19 20:32:17.040,-0.25,-0.085
2021-08-19 20:32:17.044,-0.235,-0.095
2021-08-19 20:32:17.048,-0.24,-0.08
2021-08-19 20:32:17.052,-0.225,-0.06
2021-08-19 20:32:17.056,-0.17,-0.105
2021-08-19 20:32:17.060,-0.155,-0.12
2021-08-19 20:32:17.064,-0.14,-0.13
2021-08-19 20:32:17.068,-0.125,-0.135
2021-08-19 20:32:17.072,-0.115,-0.165
2021-08-19 20:32:17.076,-0.115,-0.16
2021-08-19 20:32:17.080,-0.09,-0.155
2021-08-19 20:32:17.084,-0.11,-0.135
2021-08-19 20:32:17.088,-0.125,-0.135
2021-08-19 20:32:17.092,-0.165,-0.12
2021-08-19 20:32:17.096,-0.155,-0.1
2021-08-19 20:32:17.100,-0.135,-0.08
2021-08-19 20:32:17.104,-0.065,-0.085
2021-08-19 20:32:17.108,0.0,-0.075
2021-08-19 20:32:17.112,-0.085,-0.04
2021-08-19 20:32:17.116,-0.19,-0.02
2021-08-19 20:32:17.120,-0.25,0.0
2021-08-19 20:32:17.124,-0.29,0.02
2021-08-19 20:32:17.128,-0.32,0.06
2021-08-19 20:32:17.132,-0.315,0.095
2021-08-19 20:32:17.136,-0.255,0.14
2021-08-19 20:32:17.140,-0.22,0.185
2021-08-19 20:32:17.144,-0.2,0.215
2021-08-19 20:32:17.148,-0.165,0.275
2021-08-19 20:32:17.152,-0.165,0.31
2021-08-19 20:32:17.156,-0.14,0.33
2021-08-19 20:32:17.160,-0.14,0.345
2021-08-19 20:32:17.164,-0.14,0.365
2021-08-19 20:32:17.168,-0.125,0.39
2021-08-19 20:32:17.172,-0.1,0.375
2021-08-19 20:32:17.176,-0.07,0.4
2021-08-19 20:32:17.180,0.005,0.405
2021-08-19 20:32:17.184,0.13,0.41
2021-08-19 20:32:17.188,0.295,0.39
2021-08-19 20:32:17.192,0.53,0.395
2021-08-19 20:32:17.196,0.78,0.395
2021-08-19 20:32:17.200,1.035,0.41
2021-08-19 20:32:17.204,1.15,0.435
2021-08-19 20:32:17.208,0.99,0.455
2021-08-19 20:32:17.212,0.545,0.425
2021-08-19 20:32:17.216,0.015,0.39
2021-08-19 20:32:17.220,-0.35,0.32
2021-08-19 20:32:17.224,-0.535,0.315
2021-08-19 20:32:17.228,-0.625,0.465
2021-08-19 20:32:17.232,-0.65,0.725
2021-08-19 20:32:17.236,-0.64,0.96
2021-08-19 20:32:17.240,-0.58,1.07
2021-08-19 20:32:17.244,-0.5,1.035
2021-08-19 20:32:17.248,-0.445,0.91
2021-08-19 20:32:17.252,-0.385,0.81
2021-08-19 20:32:17.256,-0.33,0.78
2021-08-19 20:32:17.260,-0.305,0.69
2021-08-19 20:32:17.264,-0.31,0.565
2021-08-19 20:32:17.268,-0.295,0.5
2021-08-19 20:32:17.272,-0.285,0.435
2021-08-19 20:32:17.276,-0.265,0.385
2021-08-19 20:32:17.280,-0.275,0.34
2021-08-19 20:32:17.284,-0.28,0.31
2021-08-19 20:32:17.288,-0.26,0.285
2021-08-19 20:32:17.292,-0.265,0.28
2021-08-19 20:32:17.296,-0.245,0.265
2021-08-19 20:32:17.300,-0.255,0.235
2021-08-19 20:32:17.304,-0.26,0.255
2021-08-19 20:32:17.308,-0.265,0.265
2021-08-19 20:32:17.312,-0.27,0.26
2021-08-19 20:32:17.316,-0.275,0.255
2021-08-19 20:32:17.320,-0.27,0.28
2021-08-19 20:32:17.324,-0.28,0.255
2021-08-19 20:32:17.328,-0.3,0.265
2021-08-19 20:32:17.332,-0.38,0.255
2021-08-19 20:32:17.336,-0.46,0.245
2021-08-19 20:32:17.340,-0.44,0.23
2021-08-19 20:32:17.344,-0.43,0.2
2021-08-19 20:32:17.348,-0.43,0.19
2021-08-19 20:32:17.352,-0.425,0.17
2021-08-19 20:32:17.356,-0.415,0.17
2021-08-19 20:32:17.360,-0.405,0.17
2021-08-19 20:32:17.364,-0.375,0.155
2021-08-19 20:32:17.368,-0.35,0.16
2021-08-19 20:32:17.372,-0.32,0.165
2021-08-19 20:32:17.376,-0.295,0.155
2021-08-19 20:32:17.380,-0.3,0.18
2021-08-19 20:32:17.384,-0.27,0.165
2021-08-19 20:32:17.388,-0.235,0.185
2021-08-19 20:32:17.392,-0.21,0.165
2021-08-19 20:32:17.396,-0.17,0.19
2021-08-19 20:32:17.400,-0.145,0.185
2021-08-19 20:32:17.404,-0.12,0.175
2021-08-19 20:32:17.408,-0.1,0.21
2021-08-19 20:32:17.412,-0.085,0.19
2021-08-19 20:32:17.416,-0.07,0.185
2021-08-19 20:32:17.420,-0.07,0.23
2021-08-19 20:32:17.424,-0.06,0.21
2021-08-19 20:32:17.428,-0.07,0.19
2021-08-19 20:32:17.432,-0.06,0.185
2021-08-19 20:32:17.436,-0.09,0.165
2021-08-19 20:32:17.440,-0.105,0.135
2021-08-19 20:32:17.444,-0.08,0.13
2021-08-19 20:32:17.448,-0.085,0.15
2021-08-19 20:32:17.452,-0.1,0.165
2021-08-19 20:32:17.456,-0.11,0.155
2021-08-19 20:32:17.460,-0.125,0.15
2021-08-19 20:32:17.464,-0.145,0.17
2021-08-19 20:32:17.468,-0.13,0.18
2021-08-19 20:32:17.472,-0.11,0.18
2021-08-19 20:32:17.476,-0.13,0.21
2021-08-19 20:32:17.480,-0.13,0.21
2021-08-19 20:32:17.484,-0.15,0.225
2021-08-19 20:32:17.488,-0.17,0.21
2021-08-19 20:32:17.492,-0.165,0.24
2021-08-19 20:32:17.496,-0.165,0.255
2021-08-19 20:32:17.500,-0.17,0.265
2021-08-19 20:32:17.504,-0.16,0.25
2021-08-19 20:32:17.508,-0.165,0.265
2021-08-19 20:32:17.512,-0.185,0.295
2021-08-19 20:32:17.516,-0.175,0.27
2021-08-19 20:32:17.520,-0.17,0.29
2021-08-19 20:32:17.524,-0.19,0.28
2021-08-19 20:32:17.528,-0.2,0.29
2021-08-19 20:32:17.532,-0.21,0.275
2021-08-19 20:32:17.536,-0.225,0.33
2021-08-19 20:32:17.540,-0.225,0.34
2021-08-19 20:32:17.544,-0.255,0.285
2021-08-19 20:32:17.548,-0.27,0.245
2021-08-19 20:32:17.552,-0.3,0.225
2021-08-19 20:32:17.556,-0.33,0.25
2021-08-19 20:32:17.560,-0.32,0.22
2021-08-19 20:32:17.564,-0.345,0.225
2021-08-19 20:32:17.568,-0.33,0.225
2021-08-19 20:32:17.572,-0.37,0.24
2021-08-19 20:32:17.576,-0.41,0.25
2021-08-19 20:32:17.580,-0.42,0.23
2021-08-19 20:32:17.584,-0.42,0.215
2021-08-19 20:32:17.588,-0.415,0.23
2021-08-19 20:32:17.592,-0.4,0.225
2021-08-19 20:32:17.596,-0.39,0.23
2021-08-19 20:32:17.600,-0.375,0.24
2021-08-19 20:32:17.604,-0.375,0.25
2021-08-19 20:32:17.608,-0.32,0.275
2021-08-19 20:32:17.612,-0.295,0.325
2021-08-19 20:32:17.616,-0.275,0.385
2021-08-19 20:32:17.620,-0.3,0.39
2021-08-19 20:32:17.624,-0.29,0.345
2021-08-19 20:32:17.628,-0.32,0.27
2021-08-19 20:32:17.632,-0.305,0.26
2021-08-19 20:32:17.636,-0.24,0.265
2021-08-19 20:32:17.640,-0.05,0.29
2021-08-19 20:32:17.644,0.205,0.295
2021-08-19 20:32:17.648,0.46,0.335
2021-08-19 20:32:17.652,0.6,0.39
2021-08-19 20:32:17.656,0.56,0.375
2021-08-19 20:32:17.660,0.35,0.355
2021-08-19 20:32:17.664,0.05,0.315
2021-08-19 20:32:17.668,-0.155,0.29
2021-08-19 20:32:17.672,-0.265,0.27
2021-08-19 20:32:17.676,-0.355,0.325
2021-08-19 20:32:17.680,-0.36,0.48
2021-08-19 20:32:17.684,-0.41,0.585
2021-08-19 20:32:17.688,-0.47,0.71
2021-08-19 20:32:17.692,-0.525,0.81
2021-08-19 20:32:17.696,-0.585,0.955
2021-08-19 20:32:17.700,-0.61,1.13
2021-08-19 20:32:17.704,-0.62,1.22
2021-08-19 20:32:17.708,-0.545,1.14
2021-08-19 20:32:17.712,-0.415,1.05
2021-08-19 20:32:17.716,-0.34,0.955
2021-08-19 20:32:17.720,-0.27,0.865
2021-08-19 20:32:17.724,-0.28,0.77
2021-08-19 20:32:17.728,-0.26,0.665
2021-08-19 20:32:17.732,-0.25,0.465
2021-08-19 20:32:17.736,-0.275,0.355
2021-08-19 20:32:17.740,-0.265,0.27
2021-08-19 20:32:17.744,-0.245,0.24
2021-08-19 20:32:17.748,-0.24,0.225
2021-08-19 20:32:17.752,-0.255,0.22
2021-08-19 20:32:17.756,-0.24,0.195
2021-08-19 20:32:17.760,-0.265,0.175
2021-08-19 20:32:17.764,-0.26,0.17
2021-08-19 20:32:17.768,-0.24,0.17
2021-08-19 20:32:17.772,-0.245,0.13
2021-08-19 20:32:17.776,-0.25,0.115
2021-08-19 20:32:17.780,-0.275,0.12
2021-08-19 20:32:17.784,-0.255,0.115
2021-08-19 20:32:17.788,-0.265,0.1
2021-08-19 20:32:17.792,-0.27,0.07
2021-08-19 20:32:17.796,-0.29,0.085
2021-08-19 20:32:17.800,-0.31,0.105
2021-08-19 20:32:17.804,-0.325,0.095
2021-08-19 20:32:17.808,-0.345,0.065
2021-08-19 20:32:17.812,-0.33,0.06
2021-08-19 20:32:17.816,-0.35,0.02
2021-08-19 20:32:17.820,-0.355,0.015
2021-08-19 20:32:17.824,-0.33,-0.01
2021-08-19 20:32:17.828,-0.275,-0.005
2021-08-19 20:32:17.832,-0.27,-0.035
2021-08-19 20:32:17.836,-0.24,-0.025
2021-08-19 20:32:17.840,-0.22,-0.07
2021-08-19 20:32:17.844,-0.2,-0.08
2021-08-19 20:32:17.848,-0.19,-0.045
2021-08-19 20:32:17.852,-0.14,-0.055
2021-08-19 20:32:17.856,-0.14,-0.065
2021-08-19 20:32:17.860,-0.135,-0.065
2021-08-19 20:32:17.864,-0.13,-0.065
2021-08-19 20:32:17.868,-0.105,-0.07
2021-08-19 20:32:17.872,-0.1,-0.08
2021-08-19 20:32:17.876,-0.075,-0.08
2021-08-19 20:32:17.880,-0.075,-0.08
2021-08-19 20:32:17.884,-0.07,-0.11
2021-08-19 20:32:17.888,-0.05,-0.11
2021-08-19 20:32:17.892,-0.055,-0.095
2021-08-19 20:32:17.896,-0.06,-0.08
2021-08-19 20:32:17.900,-0.085,-0.1
2021-08-19 20:32:17.904,-0.1,-0.115
2021-08-19 20:32:17.908,-0.1,-0.115
2021-08-19 20:32:17.912,-0.11,-0.115
2021-08-19 20:32:17.916,-0.12,-0.12
2021-08-19 20:32:17.920,-0.14,-0.13
2021-08-19 20:32:17.924,-0.145,-0.12
2021-08-19 20:32:17.928,-0.15,-0.11
2021-08-19 20:32:17.932,-0.15,-0.115
2021-08-19 20:32:17.936,-0.15,-0.075
2021-08-19 20:32:17.940,-0.17,-0.05
2021-08-19 20:32:17.944,-0.18,0.005
2021-08-19 20:32:17.948,-0.16,0.03
2021-08-19 20:32:17.952,-0.175,0.06
2021-08-19 20:32:17.956,-0.17,0.085
2021-08-19 20:32:17.960,-0.185,0.105
2021-08-19 20:32:17.964,-0.2,0.13
2021-08-19 20:32:17.968,-0.18,0.13
2021-08-19 20:32:17.972,-0.18,0.14
2021-08-19 20:32:17.976,-0.185,0.155
2021-08-19 20:32:17.980,-0.195,0.165
2021-08-19 20:32:17.984,-0.165,0.18
2021-08-19 20:32:17.988,-0.09,0.185
2021-08-19 20:32:17.992,0.1,0.23
2021-08-19 20:32:17.996,0.405,0.235
2021-08-19 20:32:18.000,0.67,0.225
2021-08-19 20:32:18.004,0.85,0.23
2021-08-19 20:32:18.008,0.81,0.285
2021-08-19 20:32:18.012,0.58,0.35
2021-08-19 20:32:18.016,0.24,0.325
2021-08-19 20:32:18.020,-0.04,0.19
2021-08-19 20:32:18.024,-0.195,0.055
2021-08-19 20:32:18.028,-0.38,0.095
2021-08-19 20:32:18.032,-0.585,0.285
2021-08-19 20:32:18.036,-0.725,0.555
2021-08-19 20:32:18.040,-0.76,0.785
2021-08-19 20:32:18.044,-0.715,0.93
2021-08-19 20:32:18.048,-0.64,0.98
2021-08-19 20:32:18.052,-0.545,0.885
2021-08-19 20:32:18.056,-0.47,0.74
2021-08-19 20:32:18.060,-0.4,0.675
2021-08-19 20:32:18.064,-0.395,0.645
2021-08-19 20:32:18.068,-0.44,0.555
2021-08-19 20:32:18.072,-0.45,0.42
2021-08-19 20:32:18.076,-0.44,0.315
2021-08-19 20:32:18.080,-0.415,0.26
2021-08-19 20:32:18.084,-0.34,0.21
2021-08-19 20:32:18.088,-0.32,0.2
2021-08-19 20:32:18.092,-0.285,0.185
2021-08-19 20:32:18.096,-0.29,0.19
2021-08-19 20:32:18.100,-0.26,0.135
2021-08-19 20:32:18.104,-0.28,0.15
2021-08-19 20:32:18.108,-0.305,0.165
2021-08-19 20:32:18.112,-0.345,0.22
2021-08-19 20:32:18.116,-0.375,0.245
2021-08-19 20:32:18.120,-0.39,0.22
2021-08-19 20:32:18.124,-0.375,0.195
2021-08-19 20:32:18.128,-0.37,0.04
2021-08-19 20:32:18.132,-0.355,-0.155
2021-08-19 20:32:18.136,-0.34,-0.235
2021-08-19 20:32:18.140,-0.325,-0.205
2021-08-19 20:32:18.144,-0.32,-0.18
2021-08-19 20:32:18.148,-0.325,-0.145
2021-08-19 20:32:18.152,-0.32,-0.175
2021-08-19 20:32:18.156,-0.315,-0.165
2021-08-19 20:32:18.160,-0.31,-0.185
2021-08-19 20:32:18.164,-0.31,-0.185
2021-08-19 20:32:18.168,-0.315,-0.18
2021-08-19 20:32:18.172,-0.28,-0.19
2021-08-19 20:32:18.176,-0.245,-0.205
2021-08-19 20:32:18.180,-0.255,-0.2
2021-08-19 20:32:18.184,-0.275,-0.195
2021-08-19 20:32:18.188,-0.33,-0.195
2021-08-19 20:32:18.192,-0.315,-0.22
2021-08-19 20:32:18.196,-0.26,-0.215
2021-08-19 20:32:18.200,-0.21,-0.23
2021-08-19 20:32:18.204,-0.195,-0.215
2021-08-19 20:32:18.208,-0.22,-0.21
2021-08-19 20:32:18.212,-0.285,-0.22
2021-08-19 20:32:18.216,-0.29,-0.205
2021-08-19 20:32:18.220,-0.315,-0.21
2021-08-19 20:32:18.224,-0.295,-0.22
2021-08-19 20:32:18.228,-0.29,-0.215
2021-08-19 20:32:18.232,-0.295,-0.21
2021-08-19 20:32:18.236,-0.27,-0.185
2021-08-19 20:32:18.240,-0.3,-0.185
2021-08-19 20:32:18.244,-0.31,-0.165
2021-08-19 20:32:18.248,-0.32,-0.13
2021-08-19 20:32:18.252,-0.345,-0.13
2021-08-19 20:32:18.256,-0.36,-0.1
2021-08-19 20:32:18.260,-0.36,-0.08
2021-08-19 20:32:18.264,-0.39,-0.03
2021-08-19 20:32:18.268,-0.425,-0.04
2021-08-19 20:32:18.272,-0.39,-0.02
2021-08-19 20:32:18.276,-0.4,0.015
2021-08-19 20:32:18.280,-0.375,0.005
2021-08-19 20:32:18.284,-0.345,-0.015
2021-08-19 20:32:18.288,-0.315,0.01
2021-08-19 20:32:18.292,-0.255,0.07
2021-08-19 20:32:18.296,-0.23,0.105
2021-08-19 20:32:18.300,-0.195,0.075
2021-08-19 20:32:18.304,-0.22,0.02
2021-08-19 20:32:18.308,-0.225,0.015
2021-08-19 20:32:18.312,-0.25,0.055
2021-08-19 20:32:18.316,-0.27,0.1
2021-08-19 20:32:18.320,-0.31,0.1
2021-08-19 20:32:18.324,-0.315,0.105
2021-08-19 20:32:18.328,-0.305,0.135
2021-08-19 20:32:18.332,-0.27,0.115
2021-08-19 20:32:18.336,-0.225,0.155
2021-08-19 20:32:18.340,-0.2,0.14
2021-08-19 20:32:18.344,-0.175,0.155
2021-08-19 20:32:18.348,-0.11,0.12
2021-08-19 20:32:18.352,0.05,0.115
2021-08-19 20:32:18.356,0.26,0.115
2021-08-19 20:32:18.360,0.445,0.105
2021-08-19 20:32:18.364,0.555,0.14
2021-08-19 20:32:18.368,0.495,0.145
2021-08-19 20:32:18.372,0.245,0.135
2021-08-19 20:32:18.376,-0.075,0.12
2021-08-19 20:32:18.380,-0.25,0.115
2021-08-19 20:32:18.384,-0.355,0.09
2021-08-19 20:32:18.388,-0.355,0.15
2021-08-19 20:32:18.392,-0.295,0.3
2021-08-19 20:32:18.396,-0.255,0.475
2021-08-19 20:32:18.400,-0.38,0.59
2021-08-19 20:32:18.404,-0.59,0.71
2021-08-19 20:32:18.408,-0.7,0.8
2021-08-19 20:32:18.412,-0.745,0.885
2021-08-19 20:32:18.416,-0.72,0.93
2021-08-19 20:32:18.420,-0.695,0.955
2021-08-19 20:32:18.424,-0.68,1.005
2021-08-19 20:32:18.428,-0.66,1.065
2021-08-19 20:32:18.432,-0.61,1.12
2021-08-19 20:32:18.436,-0.52,1.24
2021-08-19 20:32:18.440,-0.42,1.31
2021-08-19 20:32:18.444,-0.375,1.29
2021-08-19 20:32:18.448,-0.315,1.13
2021-08-19 20:32:18.452,-0.2,0.86
2021-08-19 20:32:18.456,-0.055,0.575
2021-08-19 20:32:18.460,0.065,0.39
2021-08-19 20:32:18.464,0.105,0.34
2021-08-19 20:32:18.468,-0.065,0.175
2021-08-19 20:32:18.472,-0.33,0.03
2021-08-19 20:32:18.476,-0.525,0.005
2021-08-19 20:32:18.480,-0.565,-0.045
2021-08-19 20:32:18.484,-0.54,-0.225
2021-08-19 20:32:18.488,-0.495,-0.35
2021-08-19 20:32:18.492,-0.48,-0.345
2021-08-19 20:32:18.496,-0.465,-0.28
2021-08-19 20:32:18.500,-0.475,-0.245
2021-08-19 20:32:18.504,-0.455,-0.245
2021-08-19 20:32:18.508,-0.465,-0.25
2021-08-19 20:32:18.512,-0.47,-0.235
2021-08-19 20:32:18.516,-0.455,-0.265
2021-08-19 20:32:18.520,-0.44,-0.28
2021-08-19 20:32:18.524,-0.4,-0.265
2021-08-19 20:32:18.528,-0.38,-0.28
2021-08-19 20:32:18.532,-0.36,-0.285
2021-08-19 20:32:18.536,-0.305,-0.29
2021-08-19 20:32:18.540,-0.3,-0.305
2021-08-19 20:32:18.544,-0.295,-0.315
2021-08-19 20:32:18.548,-0.275,-0.32
2021-08-19 20:32:18.552,-0.235,-0.315
2021-08-19 20:32:18.556,-0.245,-0.35
2021-08-19 20:32:18.560,-0.2,-0.34
2021-08-19 20:32:18.564,-0.165,-0.36
2021-08-19 20:32:18.568,-0.13,-0.39
2021-08-19 20:32:18.572,-0.115,-0.375
2021-08-19 20:32:18.576,-0.11,-0.4
2021-08-19 20:32:18.580,-0.09,-0.44
2021-08-19 20:32:18.584,-0.105,-0.48
2021-08-19 20:32:18.588,-0.08,-0.525
2021-08-19 20:32:18.592,-0.085,-0.54
2021-08-19 20:32:18.596,-0.09,-0.585
2021-08-19 20:32:18.600,-0.115,-0.575
2021-08-19 20:32:18.604,-0.095,-0.565
2021-08-19 20:32:18.608,-0.06,-0.57
2021-08-19 20:32:18.612,-0.045,-0.55
2021-08-19 20:32:18.616,-0.11,-0.56
2021-08-19 20:32:18.620,-0.185,-0.535
2021-08-19 20:32:18.624,-0.22,-0.5
2021-08-19 20:32:18.628,-0.2,-0.48
2021-08-19 20:32:18.632,-0.22,-0.45
2021-08-19 20:32:18.636,-0.215,-0.42
2021-08-19 20:32:18.640,-0.245,-0.375
2021-08-19 20:32:18.644,-0.25,-0.335
2021-08-19 20:32:18.648,-0.24,-0.31
2021-08-19 20:32:18.652,-0.235,-0.27
2021-08-19 20:32:18.656,-0.21,-0.215
2021-08-19 20:32:18.660,-0.215,-0.21
2021-08-19 20:32:18.664,-0.215,-0.17
2021-08-19 20:32:18.668,-0.225,-0.14
2021-08-19 20:32:18.672,-0.235,-0.095
2021-08-19 20:32:18.676,-0.23,-0.09
2021-08-19 20:32:18.680,-0.21,-0.06
2021-08-19 20:32:18.684,-0.22,-0.05
2021-08-19 20:32:18.688,-0.225,-0.015
2021-08-19 20:32:18.692,-0.23,0.015
2021-08-19 20:32:18.696,-0.255,-0.005
2021-08-19 20:32:18.700,-0.27,-0.015
2021-08-19 20:32:18.704,-0.29,0.01
2021-08-19 20:32:18.708,-0.285,0.0
2021-08-19 20:32:18.712,-0.315,0.035
2021-08-19 20:32:18.716,-0.335,0.035
2021-08-19 20:32:18.720,-0.34,0.035
2021-08-19 20:32:18.724,-0.355,0.02
2021-08-19 20:32:18.728,-0.37,0.04
2021-08-19 20:32:18.732,-0.365,0.045
2021-08-19 20:32:18.736,-0.39,0.05
2021-08-19 20:32:18.740,-0.375,0.03
2021-08-19 20:32:18.744,-0.37,0.01
2021-08-19 20:32:18.748,-0.365,0.04
2021-08-19 20:32:18.752,-0.335,0.045
2021-08-19 20:32:18.756,-0.32,0.05
2021-08-19 20:32:18.760,-0.315,0.04
2021-08-19 20:32:18.764,-0.27,0.055
2021-08-19 20:32:18.768,-0.26,0.06
2021-08-19 20:32:18.772,-0.25,0.075
2021-08-19 20:32:18.776,-0.25,0.1
2021-08-19 20:32:18.780,-0.265,0.105
2021-08-19 20:32:18.784,-0.25,0.125
2021-08-19 20:32:18.788,-0.23,0.105
2021-08-19 20:32:18.792,-0.205,0.125
2021-08-19 20:32:18.796,-0.18,0.105
2021-08-19 20:32:18.800,-0.16,0.12
2021-08-19 20:32:18.804,-0.185,0.11
2021-08-19 20:32:18.808,-0.195,0.095
2021-08-19 20:32:18.812,-0.185,0.065
2021-08-19 20:32:18.816,-0.19,0.03
2021-08-19 20:32:18.820,-0.205,0.015
2021-08-19 20:32:18.824,-0.21,-0.015
2021-08-19 20:32:18.828,-0.215,-0.025
2021-08-19 20:32:18.832,-0.22,-0.015
2021-08-19 20:32:18.836,-0.23,-0.025
2021-08-19 20:32:18.840,-0.235,-0.01
2021-08-19 20:32:18.844,-0.23,-0.01
2021-08-19 20:32:18.848,-0.235,-0.03
2021-08-19 20:32:18.852,-0.235,-0.02
2021-08-19 20:32:18.856,-0.24,-0.015
2021-08-19 20:32:18.860,-0.23,-0.02
2021-08-19 20:32:18.864,-0.235,-0.025
2021-08-19 20:32:18.868,-0.25,-0.005
2021-08-19 20:32:18.872,-0.245,-0.01
2021-08-19 20:32:18.876,-0.26,0.0
2021-08-19 20:32:18.880,-0.26,-0.005
2021-08-19 20:32:18.884,-0.275,-0.015
2021-08-19 20:32:18.888,-0.27,-0.015
2021-08-19 20:32:18.892,-0.265,0.0
2021-08-19 20:32:18.896,-0.265,0.005
2021-08-19 20:32:18.900,-0.24,-0.01
2021-08-19 20:32:18.904,-0.265,0.02
2021-08-19 20:32:18.908,-0.28,-0.015
2021-08-19 20:32:18.912,-0.3,0.01
2021-08-19 20:32:18.916,-0.305,0.0
2021-08-19 20:32:18.920,-0.29,-0.015
2021-08-19 20:32:18.924,-0.305,0.005
2021-08-19 20:32:18.928,-0.3,0.0
2021-08-19 20:32:18.932,-0.325,0.0
2021-08-19 20:32:18.936,-0.36,0.005
2021-08-19 20:32:18.940,-0.375,-0.01
2021-08-19 20:32:18.944,-0.415,0.0
2021-08-19 20:32:18.948,-0.415,-0.01
2021-08-19 20:32:18.952,-0.415,-0.005
2021-08-19 20:32:18.956,-0.43,0.015
2021-08-19 20:32:18.960,-0.42,-0.01
2021-08-19 20:32:18.964,-0.395,0.0
2021-08-19 20:32:18.968,-0.395,0.0
2021-08-19 20:32:18.972,-0.35,-0.015
2021-08-19 20:32:18.976,-0.325,-0.02
2021-08-19 20:32:18.980,-0.29,-0.005
2021-08-19 20:32:18.984,-0.275,0.0
2021-08-19 20:32:18.988,-0.255,0.02
2021-08-19 20:32:18.992,-0.215,0.045
2021-08-19 20:32:18.996,-0.11,0.05
2021-08-19 20:32:19.000,0.075,0.08
2021-08-19 20:32:19.004,0.29,0.11
2021-08-19 20:32:19.008,0.47,0.175
2021-08-19 20:32:19.012,0.56,0.22
2021-08-19 20:32:19.016,0.54,0.22
2021-08-19 20:32:19.020,0.32,0.185
2021-08-19 20:32:19.024,0.065,0.135
2021-08-19 20:32:19.028,-0.08,0.07
2021-08-19 20:32:19.032,-0.145,0.035
2021-08-19 20:32:19.036,-0.17,0.08
2021-08-19 20:32:19.040,-0.24,0.21
2021-08-19 20:32:19.044,-0.38,0.36
2021-08-19 20:32:19.048,-0.495,0.515
2021-08-19 20:32:19.052,-0.56,0.67
2021-08-19 20:32:19.056,-0.585,0.795
2021-08-19 20:32:19.060,-0.6,0.85
2021-08-19 20:32:19.064,-0.56,0.825
2021-08-19 20:32:19.068,-0.445,0.7
2021-08-19 20:32:19.072,-0.35,0.63
2021-08-19 20:32:19.076,-0.32,0.605
2021-08-19 20:32:19.080,-0.27,0.54
2021-08-19 20:32:19.084,-0.26,0.385
2021-08-19 20:32:19.088,-0.255,0.185
2021-08-19 20:32:19.092,-0.24,0.05
2021-08-19 20:32:19.096,-0.25,-0.02
2021-08-19 20:32:19.100,-0.245,-0.055
2021-08-19 20:32:19.104,-0.25,-0.055
2021-08-19 20:32:19.108,-0.265,-0.07
2021-08-19 20:32:19.112,-0.24,-0.06
2021-08-19 20:32:19.116,-0.24,-0.075
2021-08-19 20:32:19.120,-0.235,-0.08
2021-08-19 20:32:19.124,-0.24,-0.095
2021-08-19 20:32:19.128,-0.25,-0.065
2021-08-19 20:32:19.132,-0.25,-0.095
2021-08-19 20:32:19.136,-0.26,-0.07
2021-08-19 20:32:19.140,-0.265,-0.115
2021-08-19 20:32:19.144,-0.27,-0.075
2021-08-19 20:32:19.148,-0.255,-0.085
2021-08-19 20:32:19.152,-0.285,-0.12
2021-08-19 20:32:19.156,-0.285,-0.085
2021-08-19 20:32:19.160,-0.32,-0.14
2021-08-19 20:32:19.164,-0.345,-0.145
2021-08-19 20:32:19.168,-0.36,-0.145
2021-08-19 20:32:19.172,-0.37,-0.13
2021-08-19 20:32:19.176,-0.365,-0.17
2021-08-19 20:32:19.180,-0.4,-0.18
2021-08-19 20:32:19.184,-0.39,-0.2
2021-08-19 20:32:19.188,-0.36,-0.21
2021-08-19 20:32:19.192,-0.36,-0.225
2021-08-19 20:32:19.196,-0.295,-0.225
2021-08-19 20:32:19.200,-0.275,-0.235
2021-08-19 20:32:19.204,-0.245,-0.25
2021-08-19 20:32:19.208,-0.185,-0.275
2021-08-19 20:32:19.212,-0.15,-0.27
2021-08-19 20:32:19.216,-0.115,-0.25
2021-08-19 20:32:19.220,-0.09,-0.245
2021-08-19 20:32:19.224,-0.06,-0.225
2021-08-19 20:32:19.228,-0.055,-0.225
2021-08-19 20:32:19.232,-0.04,-0.23
2021-08-19 20:32:19.236,-0.005,-0.24
2021-08-19 20:32:19.240,0.035,-0.24
2021-08-19 20:32:19.244,0.035,-0.26
2021-08-19 20:32:19.248,0.045,-0.275
2021-08-19 20:32:19.252,0.06,-0.265
2021-08-19 20:32:19.256,0.035,-0.27
2021-08-19 20:32:19.260,0.055,-0.255
2021-08-19 20:32:19.264,0.03,-0.31
2021-08-19 20:32:19.268,0.0,-0.34
2021-08-19 20:32:19.272,0.015,-0.365
2021-08-19 20:32:19.276,-0.005,-0.365
2021-08-19 20:32:19.280,0.0,-0.35
2021-08-19 20:32:19.284,0.02,-0.345
2021-08-19 20:32:19.288,0.035,-0.315
2021-08-19 20:32:19.292,0.01,-0.305
2021-08-19 20:32:19.296,-0.005,-0.285
2021-08-19 20:32:19.300,-0.055,-0.25
2021-08-19 20:32:19.304,-0.085,-0.215
2021-08-19 20:32:19.308,-0.135,-0.195
2021-08-19 20:32:19.312,-0.19,-0.17
2021-08-19 20:32:19.316,-0.2,-0.16
2021-08-19 20:32:19.320,-0.205,-0.14
2021-08-19 20:32:19.324,-0.185,-0.14
2021-08-19 20:32:19.328,-0.185,-0.125
2021-08-19 20:32:19.332,-0.17,-0.07
2021-08-19 20:32:19.336,-0.175,-0.075
2021-08-19 20:32:19.340,-0.14,-0.05
2021-08-19 20:32:19.344,-0.05,-0.06
2021-08-19 20:32:19.348,0.085,-0.055
2021-08-19 20:32:19.352,0.29,-0.04
2021-08-19 20:32:19.356,0.495,-0.04
2021-08-19 20:32:19.360,0.69,0.005
2021-08-19 20:32:19.364,0.74,0.015
2021-08-19 20:32:19.368,0.535,0.03
2021-08-19 20:32:19.372,0.175,0.005
2021-08-19 20:32:19.376,-0.19,-0.01
2021-08-19 20:32:19.380,-0.415,-0.045
2021-08-19 20:32:19.384,-0.54,-0.04
2021-08-19 20:32:19.388,-0.57,0.115
2021-08-19 20:32:19.392,-0.555,0.39
2021-08-19 20:32:19.396,-0.59,0.61
2021-08-19 20:32:19.400,-0.63,0.7
2021-08-19 20:32:19.404,-0.64,0.74
2021-08-19 20:32:19.408,-0.69,0.77
2021-08-19 20:32:19.412,-0.695,0.845
2021-08-19 20:32:19.416,-0.705,0.93
2021-08-19 20:32:19.420,-0.67,1.03
2021-08-19 20:32:19.424,-0.575,1.105
2021-08-19 20:32:19.428,-0.535,1.165
2021-08-19 20:32:19.432,-0.445,1.27
2021-08-19 20:32:19.436,-0.385,1.27
2021-08-19 20:32:19.440,-0.36,1.16
2021-08-19 20:32:19.444,-0.31,0.945
2021-08-19 20:32:19.448,-0.295,0.59
2021-08-19 20:32:19.452,-0.275,0.27
2021-08-19 20:32:19.456,-0.27,0.075
2021-08-19 20:32:19.460,-0.265,0.01
2021-08-19 20:32:19.464,-0.275,-0.01
2021-08-19 20:32:19.468,-0.25,-0.075
2021-08-19 20:32:19.472,-0.28,-0.07
2021-08-19 20:32:19.476,-0.31,-0.13
2021-08-19 20:32:19.480,-0.31,-0.175
2021-08-19 20:32:19.484,-0.305,-0.22
2021-08-19 20:32:19.488,-0.34,-0.24
2021-08-19 20:32:19.492,-0.345,-0.29
2021-08-19 20:32:19.496,-0.345,-0.285
2021-08-19 20:32:19.500,-0.345,-0.33
2021-08-19 20:32:19.504,-0.335,-0.345
2021-08-19 20:32:19.508,-0.35,-0.38
2021-08-19 20:32:19.512,-0.36,-0.39
2021-08-19 20:32:19.516,-0.355,-0.415
2021-08-19 20:32:19.520,-0.345,-0.405
2021-08-19 20:32:19.524,-0.355,-0.43
2021-08-19 20:32:19.528,-0.345,-0.445
2021-08-19 20:32:19.532,-0.35,-0.46
2021-08-19 20:32:19.536,-0.36,-0.485
2021-08-19 20:32:19.540,-0.34,-0.485
2021-08-19 20:32:19.544,-0.33,-0.495
2021-08-19 20:32:19.548,-0.335,-0.525
2021-08-19 20:32:19.552,-0.32,-0.54
2021-08-19 20:32:19.556,-0.3,-0.555
2021-08-19 20:32:19.560,-0.29,-0.56
2021-08-19 20:32:19.564,-0.285,-0.56
2021-08-19 20:32:19.568,-0.285,-0.57
2021-08-19 20:32:19.572,-0.275,-0.595
2021-08-19 20:32:19.576,-0.3,-0.6
2021-08-19 20:32:19.580,-0.31,-0.615
2021-08-19 20:32:19.584,-0.305,-0.605
2021-08-19 20:32:19.588,-0.335,-0.62
2021-08-19 20:32:19.592,-0.35,-0.62
2021-08-19 20:32:19.596,-0.4,-0.63
2021-08-19 20:32:19.600,-0.4,-0.605
2021-08-19 20:32:19.604,-0.415,-0.605
2021-08-19 20:32:19.608,-0.43,-0.57
2021-08-19 20:32:19.612,-0.435,-0.55
2021-08-19 20:32:19.616,-0.45,-0.53
2021-08-19 20:32:19.620,-0.48,-0.525
2021-08-19 20:32:19.624,-0.515,-0.495
2021-08-19 20:32:19.628,-0.53,-0.465
2021-08-19 20:32:19.632,-0.535,-0.415
2021-08-19 20:32:19.636,-0.52,-0.375
2021-08-19 20:32:19.640,-0.52,-0.35
2021-08-19 20:32:19.644,-0.545,-0.345
2021-08-19 20:32:19.648,-0.555,-0.295
2021-08-19 20:32:19.652,-0.55,-0.265
2021-08-19 20:32:19.656,-0.54,-0.225
2021-08-19 20:32:19.660,-0.525,-0.18
2021-08-19 20:32:19.664,-0.51,-0.135
2021-08-19 20:32:19.668,-0.52,-0.095
2021-08-19 20:32:19.672,-0.49,-0.075
2021-08-19 20:32:19.676,-0.505,-0.06
2021-08-19 20:32:19.680,-0.5,-0.03
2021-08-19 20:32:19.684,-0.46,-0.045
2021-08-19 20:32:19.688,-0.42,-0.02
2021-08-19 20:32:19.692,-0.33,0.005
2021-08-19 20:32:19.696,-0.17,0.02
2021-08-19 20:32:19.700,0.065,0.04
2021-08-19 20:32:19.704,0.29,0.085
2021-08-19 20:32:19.708,0.415,0.12
2021-08-19 20:32:19.712,0.355,0.095
2021-08-19 20:32:19.716,0.08,0.065
2021-08-19 20:32:19.720,-0.27,0.04
2021-08-19 20:32:19.724,-0.51,0.005
2021-08-19 20:32:19.728,-0.61,-0.03
2021-08-19 20:32:19.732,-0.69,0.06
2021-08-19 20:32:19.736,-0.74,0.24
2021-08-19 20:32:19.740,-0.79,0.4
2021-08-19 20:32:19.744,-0.895,0.57
2021-08-19 20:32:19.748,-0.925,0.77
2021-08-19 20:32:19.752,-0.95,0.86
2021-08-19 20:32:19.756,-0.925,0.83
2021-08-19 20:32:19.760,-0.83,0.675
2021-08-19 20:32:19.764,-0.78,0.505
2021-08-19 20:32:19.768,-0.735,0.465
2021-08-19 20:32:19.772,-0.68,0.42
2021-08-19 20:32:19.776,-0.655,0.34
2021-08-19 20:32:19.780,-0.64,0.2
2021-08-19 20:32:19.784,-0.66,0.09
2021-08-19 20:32:19.788,-0.65,0.02
2021-08-19 20:32:19.792,-0.635,-0.04
2021-08-19 20:32:19.796,-0.64,-0.05
2021-08-19 20:32:19.800,-0.65,-0.085
2021-08-19 20:32:19.804,-0.66,-0.1
2021-08-19 20:32:19.808,-0.64,-0.115
2021-08-19 20:32:19.812,-0.67,-0.13
2021-08-19 20:32:19.816,-0.68,-0.125
2021-08-19 20:32:19.820,-0.685,-0.11
2021-08-19 20:32:19.824,-0.7,-0.155
2021-08-19 20:32:19.828,-0.72,-0.16
2021-08-19 20:32:19.832,-0.745,-0.17
2021-08-19 20:32:19.836,-0.75,-0.145
2021-08-19 20:32:19.840,-0.765,-0.175
2021-08-19 20:32:19.844,-0.805,-0.17
2021-08-19 20:32:19.848,-0.815,-0.19
2021-08-19 20:32:19.852,-0.825,-0.195
2021-08-19 20:32:19.856,-0.8,-0.215
2021-08-19 20:32:19.860,-0.785,-0.22
2021-08-19 20:32:19.864,-0.795,-0.205
2021-08-19 20:32:19.868,-0.77,-0.245
2021-08-19 20:32:19.872,-0.76,-0.245
2021-08-19 20:32:19.876,-0.76,-0.225
2021-08-19 20:32:19.880,-0.74,-0.25
2021-08-19 20:32:19.884,-0.715,-0.23
2021-08-19 20:32:19.888,-0.685,-0.2
2021-08-19 20:32:19.892,-0.665,-0.23
2021-08-19 20:32:19.896,-0.67,-0.22
2021-08-19 20:32:19.900,-0.65,-0.225
2021-08-19 20:32:19.904,-0.62,-0.23
2021-08-19 20:32:19.908,-0.595,-0.22
2021-08-19 20:32:19.912,-0.57,-0.21
2021-08-19 20:32:19.916,-0.535,-0.215
2021-08-19 20:32:19.920,-0.51,-0.22
