Time,ECG1,ECG2
2021-08-19 09:00:00.148,-0.05,0.005
2021-08-19 09:00:00.152,-0.055,0.0
2021-08-19 09:00:00.156,-0.065,0.0
2021-08-19 09:00:00.160,-0.07,-0.015
2021-08-19 09:00:00.164,-0.07,-0.025
2021-08-19 09:00:00.168,-0.09,-0.045
2021-08-19 09:00:00.172,-0.07,-0.035
2021-08-19 09:00:00.176,-0.085,-0.05
2021-08-19 09:00:00.180,-0.075,-0.055
2021-08-19 09:00:00.184,-0.085,-0.07
2021-08-19 09:00:00.188,-0.07,-0.1
2021-08-19 09:00:00.192,-0.04,-0.085
2021-08-19 09:00:00.196,-0.08,-0.09
2021-08-19 09:00:00.200,-0.09,-0.105
2021-08-19 09:00:00.204,-0.105,-0.055
2021-08-19 09:00:00.208,-0.11,-0.06
2021-08-19 09:00:00.212,-0.11,-0.09
2021-08-19 09:00:00.216,-0.13,-0.03
2021-08-19 09:00:00.220,-0.13,-0.025
2021-08-19 09:00:00.224,-0.125,-0.055
2021-08-19 09:00:00.228,-0.11,-0.03
2021-08-19 09:00:00.232,-0.14,-0.03
2021-08-19 09:00:00.236,-0.115,-0.035
2021-08-19 09:00:00.240,-0.13,-0.045
2021-08-19 09:00:00.244,-0.07,-0.095
2021-08-19 09:00:00.248,0.01,-0.08
2021-08-19 09:00:00.252,0.12,-0.055
2021-08-19 09:00:00.256,0.165,-0.02
2021-08-19 09:00:00.260,0.085,-0.01
2021-08-19 09:00:00.264,-0.05,0.055
2021-08-19 09:00:00.268,-0.285,0.12
2021-08-19 09:00:00.272,-0.66,0.115
2021-08-19 09:00:00.276,-1.045,-0.145
2021-08-19 09:00:00.280,-1.4,-0.57
2021-08-19 09:00:00.284,-1.66,-1.095
2021-08-19 09:00:00.288,-1.81,-1.845
2021-08-19 09:00:00.372,-0.57,-1.855
2021-08-19 09:00:00.376,-0.455,-1.5
2021-08-19 09:00:00.380,-0.31,-1.2
2021-08-19 09:00:00.384,-0.2,-0.95
2021-08-19 09:00:00.388,-0.115,-0.735
2021-08-19 09:00:00.392,-0.04,-0.525
2021-08-19 09:00:00.396,0.025,-0.36
2021-08-19 09:00:00.400,0.06,-0.14
2021-08-19 09:00:00.404,0.06,0.04
2021-08-19 09:00:00.408,0.09,0.205
2021-08-19 09:00:00.412,0.11,0.325
2021-08-19 09:00:00.416,0.1,0.415
2021-08-19 09:00:00.420,0.1,0.465
2021-08-19 09:00:00.424,0.125,0.505
2021-08-19 09:00:00.428,0.15,0.515
2021-08-19 09:00:00.432,0.185,0.575
2021-08-19 09:00:00.436,0.18,0.625
2021-08-19 09:00:00.440,0.17,0.655
2021-08-19 09:00:00.444,0.19,0.685
2021-08-19 09:00:00.448,0.18,0.71
2021-08-19 09:00:00.452,0.19,0.73
2021-08-19 09:00:00.456,0.19,0.735
2021-08-19 09:00:00.460,0.24,0.74
2021-08-19 09:00:00.464,0.26,0.765
2021-08-19 09:00:00.468,0.275,0.795
2021-08-19 09:00:00.472,0.29,0.865
2021-08-19 09:00:00.476,0.31,0.875
2021-08-19 09:00:00.480,0.335,0.905
2021-08-19 09:00:00.484,0.355,0.925
2021-08-19 09:00:00.488,0.37,0.975
2021-08-19 09:00:00.492,0.39,0.98
2021-08-19 09:00:00.496,0.395,0.99
2021-08-19 09:00:00.500,0.405,1.025
2021-08-19 09:00:00.504,0.4,1.06
2021-08-19 09:00:00.508,0.405,1.11
2021-08-19 09:00:00.512,0.415,1.155
2021-08-19 09:00:00.516,0.41,1.19
2021-08-19 09:00:00.520,0.43,1.195
2021-08-19 09:00:00.524,0.455,1.22
2021-08-19 09:00:00.528,0.46,1.215
2021-08-19 09:00:00.532,0.465,1.245
2021-08-19 09:00:00.536,0.495,1.27
2021-08-19 09:00:00.540,0.51,1.285
2021-08-19 09:00:00.544,0.49,1.33
2021-08-19 09:00:00.548,0.49,1.33
2021-08-19 09:00:00.552,0.495,1.315
2021-08-19 09:00:00.556,0.49,1.335
2021-08-19 09:00:00.560,0.45,1.38
2021-08-19 09:00:00.564,0.39,1.385
2021-08-19 09:00:00.568,0.365,1.36
2021-08-19 09:00:00.572,0.34,1.325
2021-08-19 09:00:00.576,0.315,1.275
2021-08-19 09:00:00.580,0.295,1.26
2021-08-19 09:00:00.584,0.245,1.23
2021-08-19 09:00:00.588,0.22,1.15
2021-08-19 09:00:00.592,0.185,1.115
2021-08-19 09:00:00.596,0.155,1.09
2021-08-19 09:00:00.600,0.125,1.045
2021-08-19 09:00:00.604,0.09,0.955
2021-08-19 09:00:00.608,0.05,0.905
2021-08-19 09:00:00.612,0.01,0.81
2021-08-19 09:00:00.616,-0.035,0.755
2021-08-19 09:00:00.620,-0.08,0.705
2021-08-19 09:00:00.624,-0.095,0.61
2021-08-19 09:00:00.628,-0.13,0.54
2021-08-19 09:00:00.632,-0.13,0.465
2021-08-19 09:00:00.636,-0.14,0.39
2021-08-19 09:00:00.640,-0.15,0.34
2021-08-19 09:00:00.644,-0.165,0.33
2021-08-19 09:00:00.648,-0.17,0.285
2021-08-19 09:00:00.652,-0.175,0.23
2021-08-19 09:00:00.656,-0.165,0.205
2021-08-19 09:00:00.660,-0.15,0.21
2021-08-19 09:00:00.664,-0.14,0.21
2021-08-19 09:00:00.668,-0.15,0.18
2021-08-19 09:00:00.672,-0.155,0.16
2021-08-19 09:00:00.676,-0.165,0.145
2021-08-19 09:00:00.680,-0.14,0.135
2021-08-19 09:00:00.684,-0.145,0.155
2021-08-19 09:00:00.688,-0.14,0.13
2021-08-19 09:00:00.692,-0.12,0.13
2021-08-19 09:00:00.696,-0.11,0.155
2021-08-19 09:00:00.700,-0.12,0.155
2021-08-19 09:00:00.704,-0.095,0.17
2021-08-19 09:00:00.708,-0.125,0.16
2021-08-19 09:00:00.712,-0.125,0.195
2021-08-19 09:00:00.716,-0.11,0.185
2021-08-19 09:00:00.720,-0.115,0.185
2021-08-19 09:00:00.724,-0.115,0.175
2021-08-19 09:00:00.728,-0.085,0.2
2021-08-19 09:00:00.732,-0.08,0.2
2021-08-19 09:00:00.736,-0.04,0.17
2021-08-19 09:00:00.740,-0.045,0.14
2021-08-19 09:00:00.744,-0.04,0.125
2021-08-19 09:00:00.748,-0.01,0.14
2021-08-19 09:00:00.752,-0.025,0.185
2021-08-19 09:00:00.756,0.0,0.175
2021-08-19 09:00:00.760,-0.045,0.16
2021-08-19 09:00:00.764,-0.055,0.135
2021-08-19 09:00:00.768,-0.07,0.11
2021-08-19 09:00:00.772,-0.095,0.085
2021-08-19 09:00:00.776,-0.1,0.08
2021-08-19 09:00:00.780,-0.12,0.11
2021-08-19 09:00:00.784,-0.12,0.155
2021-08-19 09:00:00.788,-0.1,0.135
2021-08-19 09:00:00.792,-0.125,0.085
2021-08-19 09:00:00.796,-0.125,0.095
2021-08-19 09:00:00.800,-0.13,0.05
2021-08-19 09:00:00.804,-0.15,0.04
2021-08-19 09:00:00.808,-0.16,0.06
2021-08-19 09:00:00.812,-0.18,0.075
2021-08-19 09:00:00.816,-0.195,0.09
2021-08-19 09:00:00.820,-0.23,0.07
2021-08-19 09:00:00.824,-0.255,0.07
2021-08-19 09:00:00.828,-0.25,0.06
2021-08-19 09:00:00.832,-0.28,0.085
2021-08-19 09:00:00.836,-0.27,0.085
2021-08-19 09:00:00.840,-0.25,0.085
2021-08-19 09:00:00.844,-0.25,0.05
2021-08-19 09:00:00.848,-0.22,0.085
2021-08-19 09:00:00.852,-0.23,0.04
2021-08-19 09:00:00.856,-0.2,0.05
2021-08-19 09:00:00.860,-0.18,0.055
2021-08-19 09:00:00.864,-0.16,0.095
2021-08-19 09:00:00.868,-0.135,0.08
2021-08-19 09:00:00.872,-0.02,0.06
2021-08-19 09:00:00.876,0.13,0.065
2021-08-19 09:00:00.880,0.23,0.08
2021-08-19 09:00:00.884,0.225,0.115
2021-08-19 09:00:00.888,0.155,0.185
2021-08-19 09:00:00.892,-0.03,0.295
2021-08-19 09:00:00.896,-0.32,0.27
2021-08-19 09:00:00.900,-0.64,0.005
2021-08-19 09:00:00.904,-0.95,-0.4
2021-08-19 09:00:00.908,-1.195,-0.965
2021-08-19 09:00:00.912,-1.3,-1.795
2021-08-19 09:00:00.996,-0.67,-1.785
2021-08-19 09:00:01.000,-0.47,-1.425
2021-08-19 09:00:01.004,-0.315,-1.155
2021-08-19 09:00:01.008,-0.16,-0.88
2021-08-19 09:00:01.012,-0.045,-0.655
2021-08-19 09:00:01.016,0.03,-0.41
2021-08-19 09:00:01.020,0.075,-0.17
2021-08-19 09:00:01.024,0.07,0.04
2021-08-19 09:00:01.028,0.09,0.225
2021-08-19 09:00:01.032,0.09,0.395
2021-08-19 09:00:01.036,0.09,0.54
2021-08-19 09:00:01.040,0.085,0.615
2021-08-19 09:00:01.044,0.12,0.655
2021-08-19 09:00:01.048,0.12,0.67
2021-08-19 09:00:01.052,0.13,0.73
2021-08-19 09:00:01.056,0.16,0.725
2021-08-19 09:00:01.060,0.175,0.73
2021-08-19 09:00:01.064,0.18,0.79
2021-08-19 09:00:01.068,0.205,0.825
2021-08-19 09:00:01.072,0.245,0.89
2021-08-19 09:00:01.076,0.245,0.88
2021-08-19 09:00:01.080,0.25,0.89
2021-08-19 09:00:01.084,0.28,0.925
2021-08-19 09:00:01.088,0.295,0.98
2021-08-19 09:00:01.092,0.305,1.015
2021-08-19 09:00:01.096,0.315,1.01
2021-08-19 09:00:01.100,0.355,1.04
2021-08-19 09:00:01.104,0.365,1.065
2021-08-19 09:00:01.108,0.385,1.09
2021-08-19 09:00:01.112,0.415,1.1
2021-08-19 09:00:01.116,0.43,1.105
2021-08-19 09:00:01.120,0.475,1.125
2021-08-19 09:00:01.124,0.5,1.16
2021-08-19 09:00:01.128,0.49,1.185
2021-08-19 09:00:01.132,0.505,1.2
2021-08-19 09:00:01.136,0.51,1.255
2021-08-19 09:00:01.140,0.515,1.28
2021-08-19 09:00:01.144,0.51,1.265
2021-08-19 09:00:01.148,0.5,1.325
2021-08-19 09:00:01.152,0.515,1.355
2021-08-19 09:00:01.156,0.52,1.385
2021-08-19 09:00:01.160,0.5,1.37
2021-08-19 09:00:01.164,0.515,1.37
2021-08-19 09:00:01.168,0.53,1.385
2021-08-19 09:00:01.172,0.535,1.4
2021-08-19 09:00:01.176,0.535,1.395
2021-08-19 09:00:01.180,0.505,1.41
2021-08-19 09:00:01.184,0.47,1.385
2021-08-19 09:00:01.188,0.43,1.375
2021-08-19 09:00:01.192,0.36,1.345
2021-08-19 09:00:01.196,0.31,1.32
2021-08-19 09:00:01.200,0.26,1.295
2021-08-19 09:00:01.204,0.18,1.19
2021-08-19 09:00:01.208,0.135,1.145
2021-08-19 09:00:01.212,0.08,1.11
2021-08-19 09:00:01.216,0.07,1.055
2021-08-19 09:00:01.220,0.015,0.98
2021-08-19 09:00:01.224,-0.01,0.92
2021-08-19 09:00:01.228,-0.015,0.815
2021-08-19 09:00:01.232,-0.04,0.75
2021-08-19 09:00:01.236,-0.055,0.68
2021-08-19 09:00:01.240,-0.075,0.625
2021-08-19 09:00:01.244,-0.1,0.585
2021-08-19 09:00:01.248,-0.13,0.53
2021-08-19 09:00:01.252,-0.16,0.49
2021-08-19 09:00:01.256,-0.155,0.425
2021-08-19 09:00:01.260,-0.155,0.35
2021-08-19 09:00:01.264,-0.185,0.285
2021-08-19 09:00:01.268,-0.185,0.26
2021-08-19 09:00:01.272,-0.18,0.25
2021-08-19 09:00:01.276,-0.175,0.195
2021-08-19 09:00:01.280,-0.16,0.175
2021-08-19 09:00:01.284,-0.16,0.16
2021-08-19 09:00:01.288,-0.15,0.21
2021-08-19 09:00:01.292,-0.16,0.185
2021-08-19 09:00:01.296,-0.16,0.18
2021-08-19 09:00:01.300,-0.16,0.175
2021-08-19 09:00:01.304,-0.185,0.17
2021-08-19 09:00:01.308,-0.14,0.18
2021-08-19 09:00:01.312,-0.13,0.185
2021-08-19 09:00:01.316,-0.13,0.205
2021-08-19 09:00:01.320,-0.14,0.205
2021-08-19 09:00:01.324,-0.145,0.235
2021-08-19 09:00:01.328,-0.1,0.255
2021-08-19 09:00:01.332,-0.09,0.24
2021-08-19 09:00:01.336,-0.085,0.215
2021-08-19 09:00:01.340,-0.08,0.21
2021-08-19 09:00:01.344,-0.09,0.25
2021-08-19 09:00:01.348,-0.095,0.25
2021-08-19 09:00:01.352,-0.11,0.26
2021-08-19 09:00:01.356,-0.105,0.25
2021-08-19 09:00:01.360,-0.115,0.275
2021-08-19 09:00:01.364,-0.14,0.275
2021-08-19 09:00:01.368,-0.125,0.27
2021-08-19 09:00:01.372,-0.115,0.23
2021-08-19 09:00:01.376,-0.095,0.235
2021-08-19 09:00:01.380,-0.07,0.245
2021-08-19 09:00:01.384,-0.065,0.25
2021-08-19 09:00:01.388,-0.03,0.235
2021-08-19 09:00:01.392,0.05,0.215
2021-08-19 09:00:01.396,0.17,0.19
2021-08-19 09:00:01.400,0.245,0.18
2021-08-19 09:00:01.404,0.165,0.15
2021-08-19 09:00:01.408,0.035,0.19
2021-08-19 09:00:01.412,-0.21,0.27
2021-08-19 09:00:01.416,-0.605,0.28
2021-08-19 09:00:01.420,-1.02,-0.025
2021-08-19 09:00:01.424,-1.36,-0.515
2021-08-19 09:00:01.428,-1.6,-1.07
2021-08-19 09:00:01.432,-1.645,-1.935
2021-08-19 09:00:01.512,-0.57,-1.715
2021-08-19 09:00:01.516,-0.445,-1.255
2021-08-19 09:00:01.520,-0.295,-0.92
2021-08-19 09:00:01.524,-0.195,-0.66
2021-08-19 09:00:01.528,-0.135,-0.43
2021-08-19 09:00:01.532,-0.08,-0.235
2021-08-19 09:00:01.536,-0.02,-0.025
2021-08-19 09:00:01.540,0.01,0.135
2021-08-19 09:00:01.544,0.045,0.335
2021-08-19 09:00:01.548,0.065,0.495
2021-08-19 09:00:01.552,0.08,0.62
2021-08-19 09:00:01.556,0.085,0.685
2021-08-19 09:00:01.560,0.105,0.705
2021-08-19 09:00:01.564,0.12,0.76
2021-08-19 09:00:01.568,0.12,0.77
2021-08-19 09:00:01.572,0.13,0.825
2021-08-19 09:00:01.576,0.14,0.84
2021-08-19 09:00:01.580,0.155,0.84
2021-08-19 09:00:01.584,0.17,0.865
2021-08-19 09:00:01.588,0.18,0.875
2021-08-19 09:00:01.592,0.185,0.915
2021-08-19 09:00:01.596,0.21,0.925
2021-08-19 09:00:01.600,0.215,0.91
2021-08-19 09:00:01.604,0.21,0.87
2021-08-19 09:00:01.608,0.205,0.87
2021-08-19 09:00:01.612,0.225,0.9
2021-08-19 09:00:01.616,0.235,0.895
2021-08-19 09:00:01.620,0.26,0.91
2021-08-19 09:00:01.624,0.26,0.93
2021-08-19 09:00:01.628,0.27,0.95
2021-08-19 09:00:01.632,0.295,0.96
2021-08-19 09:00:01.636,0.27,0.965
2021-08-19 09:00:01.640,0.28,1.02
2021-08-19 09:00:01.644,0.3,1.075
2021-08-19 09:00:01.648,0.33,1.095
2021-08-19 09:00:01.652,0.325,1.11
2021-08-19 09:00:01.656,0.35,1.135
2021-08-19 09:00:01.660,0.37,1.15
2021-08-19 09:00:01.664,0.365,1.185
2021-08-19 09:00:01.668,0.365,1.22
2021-08-19 09:00:01.672,0.375,1.25
2021-08-19 09:00:01.676,0.37,1.255
2021-08-19 09:00:01.680,0.39,1.275
2021-08-19 09:00:01.684,0.39,1.28
2021-08-19 09:00:01.688,0.375,1.31
2021-08-19 09:00:01.692,0.365,1.325
2021-08-19 09:00:01.696,0.375,1.305
2021-08-19 09:00:01.700,0.345,1.32
2021-08-19 09:00:01.704,0.32,1.315
2021-08-19 09:00:01.708,0.29,1.32
2021-08-19 09:00:01.712,0.25,1.235
2021-08-19 09:00:01.716,0.235,1.25
2021-08-19 09:00:01.720,0.17,1.2
2021-08-19 09:00:01.724,0.115,1.145
2021-08-19 09:00:01.728,0.095,1.085
2021-08-19 09:00:01.732,0.045,1.01
2021-08-19 09:00:01.736,-0.01,0.95
2021-08-19 09:00:01.740,-0.05,0.87
2021-08-19 09:00:01.744,-0.085,0.8
2021-08-19 09:00:01.748,-0.09,0.725
2021-08-19 09:00:01.752,-0.12,0.64
2021-08-19 09:00:01.756,-0.145,0.61
2021-08-19 09:00:01.760,-0.17,0.545
2021-08-19 09:00:01.764,-0.19,0.52
2021-08-19 09:00:01.768,-0.21,0.435
2021-08-19 09:00:01.772,-0.23,0.385
2021-08-19 09:00:01.776,-0.21,0.325
2021-08-19 09:00:01.780,-0.18,0.295
2021-08-19 09:00:01.784,-0.19,0.27
2021-08-19 09:00:01.788,-0.175,0.265
2021-08-19 09:00:01.792,-0.16,0.235
2021-08-19 09:00:01.796,-0.175,0.21
2021-08-19 09:00:01.800,-0.16,0.17
2021-08-19 09:00:01.804,-0.155,0.15
2021-08-19 09:00:01.808,-0.16,0.145
2021-08-19 09:00:01.812,-0.175,0.155
2021-08-19 09:00:01.816,-0.185,0.155
2021-08-19 09:00:01.820,-0.175,0.15
2021-08-19 09:00:01.824,-0.18,0.13
2021-08-19 09:00:01.828,-0.2,0.135
2021-08-19 09:00:01.832,-0.19,0.14
2021-08-19 09:00:01.836,-0.23,0.155
2021-08-19 09:00:01.840,-0.21,0.135
2021-08-19 09:00:01.844,-0.195,0.115
2021-08-19 09:00:01.848,-0.2,0.13
2021-08-19 09:00:01.852,-0.2,0.165
2021-08-19 09:00:01.856,-0.185,0.155
2021-08-19 09:00:01.860,-0.145,0.165
2021-08-19 09:00:01.864,-0.095,0.175
2021-08-19 09:00:01.868,-0.015,0.175
2021-08-19 09:00:01.872,0.135,0.175
2021-08-19 09:00:01.876,0.27,0.205
2021-08-19 09:00:01.880,0.285,0.215
2021-08-19 09:00:01.884,0.145,0.28
2021-08-19 09:00:01.888,-0.12,0.375
2021-08-19 09:00:01.892,-0.565,0.42
2021-08-19 09:00:01.896,-1.065,0.275
2021-08-19 09:00:01.900,-1.505,-0.075
2021-08-19 09:00:01.904,-1.75,-0.56
2021-08-19 09:00:01.908,-1.815,-1.265
2021-08-19 09:00:01.988,-0.81,-1.925
2021-08-19 09:00:01.992,-0.675,-1.435
2021-08-19 09:00:01.996,-0.515,-1.065
2021-08-19 09:00:02.000,-0.385,-0.765
2021-08-19 09:00:02.004,-0.29,-0.525
2021-08-19 09:00:02.008,-0.205,-0.315
2021-08-19 09:00:02.012,-0.16,-0.1
2021-08-19 09:00:02.016,-0.12,0.1
2021-08-19 09:00:02.020,-0.11,0.28
2021-08-19 09:00:02.024,-0.1,0.465
2021-08-19 09:00:02.028,-0.09,0.63
2021-08-19 09:00:02.032,-0.07,0.715
2021-08-19 09:00:02.036,-0.055,0.755
2021-08-19 09:00:02.040,0.005,0.785
2021-08-19 09:00:02.044,0.055,0.79
2021-08-19 09:00:02.048,0.065,0.8
2021-08-19 09:00:02.052,0.1,0.815
2021-08-19 09:00:02.056,0.15,0.86
2021-08-19 09:00:02.060,0.155,0.855
2021-08-19 09:00:02.064,0.205,0.875
2021-08-19 09:00:02.068,0.22,0.885
2021-08-19 09:00:02.072,0.26,0.88
2021-08-19 09:00:02.076,0.275,0.9
2021-08-19 09:00:02.080,0.3,0.93
2021-08-19 09:00:02.084,0.31,0.95
2021-08-19 09:00:02.088,0.32,1.0
2021-08-19 09:00:02.092,0.325,1.0
2021-08-19 09:00:02.096,0.335,1.0
2021-08-19 09:00:02.100,0.345,1.025
2021-08-19 09:00:02.104,0.35,1.075
2021-08-19 09:00:02.108,0.38,1.065
2021-08-19 09:00:02.112,0.37,1.085
2021-08-19 09:00:02.116,0.375,1.11
2021-08-19 09:00:02.120,0.4,1.13
2021-08-19 09:00:02.124,0.4,1.145
2021-08-19 09:00:02.128,0.395,1.19
2021-08-19 09:00:02.132,0.365,1.215
2021-08-19 09:00:02.136,0.355,1.215
2021-08-19 09:00:02.140,0.34,1.27
2021-08-19 09:00:02.144,0.35,1.27
2021-08-19 09:00:02.148,0.33,1.275
2021-08-19 09:00:02.152,0.35,1.265
2021-08-19 09:00:02.156,0.305,1.275
2021-08-19 09:00:02.160,0.315,1.275
2021-08-19 09:00:02.164,0.285,1.29
2021-08-19 09:00:02.168,0.25,1.315
2021-08-19 09:00:02.172,0.245,1.315
2021-08-19 09:00:02.176,0.19,1.285
2021-08-19 09:00:02.180,0.21,1.255
2021-08-19 09:00:02.184,0.16,1.27
2021-08-19 09:00:02.188,0.13,1.245
2021-08-19 09:00:02.192,0.085,1.215
2021-08-19 09:00:02.196,0.025,1.16
2021-08-19 09:00:02.200,-0.01,1.115
2021-08-19 09:00:02.204,-0.07,1.07
2021-08-19 09:00:02.208,-0.13,1.0
2021-08-19 09:00:02.212,-0.165,0.955
2021-08-19 09:00:02.216,-0.185,0.875
2021-08-19 09:00:02.220,-0.215,0.815
2021-08-19 09:00:02.224,-0.225,0.77
2021-08-19 09:00:02.228,-0.225,0.69
2021-08-19 09:00:02.232,-0.27,0.625
2021-08-19 09:00:02.236,-0.28,0.585
2021-08-19 09:00:02.240,-0.32,0.525
2021-08-19 09:00:02.244,-0.33,0.495
2021-08-19 09:00:02.248,-0.345,0.455
2021-08-19 09:00:02.252,-0.37,0.38
2021-08-19 09:00:02.256,-0.34,0.345
2021-08-19 09:00:02.260,-0.29,0.33
2021-08-19 09:00:02.264,-0.225,0.275
2021-08-19 09:00:02.268,-0.185,0.185
2021-08-19 09:00:02.272,-0.145,0.16
2021-08-19 09:00:02.276,-0.14,0.185
2021-08-19 09:00:02.280,-0.12,0.225
2021-08-19 09:00:02.284,-0.125,0.24
2021-08-19 09:00:02.288,-0.07,0.265
2021-08-19 09:00:02.292,-0.07,0.265
2021-08-19 09:00:02.296,-0.095,0.265
2021-08-19 09:00:02.300,-0.105,0.215
2021-08-19 09:00:02.304,-0.095,0.23
2021-08-19 09:00:02.308,-0.1,0.225
2021-08-19 09:00:02.312,-0.105,0.24
2021-08-19 09:00:02.316,-0.11,0.21
2021-08-19 09:00:02.320,-0.095,0.205
2021-08-19 09:00:02.324,-0.095,0.22
2021-08-19 09:00:02.328,-0.08,0.205
2021-08-19 09:00:02.332,-0.07,0.2
2021-08-19 09:00:02.336,-0.08,0.225
2021-08-19 09:00:02.340,-0.08,0.22
2021-08-19 09:00:02.344,-0.09,0.25
2021-08-19 09:00:02.348,-0.11,0.255
2021-08-19 09:00:02.352,-0.105,0.24
2021-08-19 09:00:02.356,-0.095,0.23
2021-08-19 09:00:02.360,-0.02,0.2
2021-08-19 09:00:02.364,0.11,0.215
2021-08-19 09:00:02.368,0.21,0.235
2021-08-19 09:00:02.372,0.2,0.265
2021-08-19 09:00:02.376,0.035,0.285
2021-08-19 09:00:02.380,-0.31,0.39
2021-08-19 09:00:02.384,-0.825,0.41
2021-08-19 09:00:02.388,-1.315,0.195
2021-08-19 09:00:02.392,-1.755,-0.235
2021-08-19 09:00:02.396,-1.99,-0.765
2021-08-19 09:00:02.480,-0.905,-1.97
2021-08-19 09:00:02.484,-0.745,-1.495
2021-08-19 09:00:02.488,-0.53,-1.135
2021-08-19 09:00:02.492,-0.34,-0.835
2021-08-19 09:00:02.496,-0.21,-0.6
2021-08-19 09:00:02.500,-0.13,-0.345
2021-08-19 09:00:02.504,-0.03,-0.14
2021-08-19 09:00:02.508,0.04,0.055
2021-08-19 09:00:02.512,0.02,0.255
2021-08-19 09:00:02.516,0.035,0.41
2021-08-19 09:00:02.520,0.045,0.55
2021-08-19 09:00:02.524,0.06,0.635
2021-08-19 09:00:02.528,0.1,0.725
2021-08-19 09:00:02.532,0.095,0.72
2021-08-19 09:00:02.536,0.115,0.77
2021-08-19 09:00:02.540,0.105,0.745
2021-08-19 09:00:02.544,0.12,0.755
2021-08-19 09:00:02.548,0.12,0.79
2021-08-19 09:00:02.552,0.13,0.83
2021-08-19 09:00:02.556,0.135,0.835
2021-08-19 09:00:02.560,0.135,0.815
2021-08-19 09:00:02.564,0.135,0.865
2021-08-19 09:00:02.568,0.145,0.87
2021-08-19 09:00:02.572,0.15,0.88
2021-08-19 09:00:02.576,0.165,0.905
2021-08-19 09:00:02.580,0.155,0.865
2021-08-19 09:00:02.584,0.175,0.88
2021-08-19 09:00:02.588,0.185,0.91
2021-08-19 09:00:02.592,0.19,0.91
2021-08-19 09:00:02.596,0.215,0.955
2021-08-19 09:00:02.600,0.225,0.965
2021-08-19 09:00:02.604,0.255,0.98
2021-08-19 09:00:02.608,0.265,1.0
2021-08-19 09:00:02.612,0.27,1.03
2021-08-19 09:00:02.616,0.305,1.045
2021-08-19 09:00:02.620,0.3,1.065
2021-08-19 09:00:02.624,0.31,1.11
2021-08-19 09:00:02.628,0.295,1.105
2021-08-19 09:00:02.632,0.31,1.11
2021-08-19 09:00:02.636,0.305,1.13
2021-08-19 09:00:02.640,0.315,1.165
2021-08-19 09:00:02.644,0.335,1.215
2021-08-19 09:00:02.648,0.335,1.21
2021-08-19 09:00:02.652,0.32,1.19
2021-08-19 09:00:02.656,0.325,1.21
2021-08-19 09:00:02.660,0.315,1.26
2021-08-19 09:00:02.664,0.275,1.27
2021-08-19 09:00:02.668,0.27,1.26
2021-08-19 09:00:02.672,0.205,1.29
2021-08-19 09:00:02.676,0.155,1.27
2021-08-19 09:00:02.680,0.14,1.255
2021-08-19 09:00:02.684,0.09,1.28
2021-08-19 09:00:02.688,0.075,1.225
2021-08-19 09:00:02.692,0.025,1.18
2021-08-19 09:00:02.696,0.0,1.155
2021-08-19 09:00:02.700,-0.025,1.09
2021-08-19 09:00:02.704,-0.06,1.05
2021-08-19 09:00:02.708,-0.04,0.985
2021-08-19 09:00:02.712,-0.065,0.9
2021-08-19 09:00:02.716,-0.07,0.89
2021-08-19 09:00:02.720,-0.08,0.835
2021-08-19 09:00:02.724,-0.075,0.805
2021-08-19 09:00:02.728,-0.12,0.725
2021-08-19 09:00:02.732,-0.12,0.685
2021-08-19 09:00:02.736,-0.14,0.65
2021-08-19 09:00:02.740,-0.175,0.63
2021-08-19 09:00:02.744,-0.165,0.6
2021-08-19 09:00:02.748,-0.14,0.57
2021-08-19 09:00:02.752,-0.16,0.54
2021-08-19 09:00:02.756,-0.14,0.49
2021-08-19 09:00:02.760,-0.125,0.47
2021-08-19 09:00:02.764,-0.12,0.495
2021-08-19 09:00:02.768,-0.11,0.48
2021-08-19 09:00:02.772,-0.11,0.47
2021-08-19 09:00:02.776,-0.145,0.435
2021-08-19 09:00:02.780,-0.15,0.37
2021-08-19 09:00:02.784,-0.17,0.375
2021-08-19 09:00:02.788,-0.19,0.33
2021-08-19 09:00:02.792,-0.195,0.32
2021-08-19 09:00:02.796,-0.23,0.31
2021-08-19 09:00:02.800,-0.23,0.29
2021-08-19 09:00:02.804,-0.26,0.265
2021-08-19 09:00:02.808,-0.275,0.245
2021-08-19 09:00:02.812,-0.29,0.215
2021-08-19 09:00:02.816,-0.295,0.175
2021-08-19 09:00:02.820,-0.28,0.185
2021-08-19 09:00:02.824,-0.295,0.19
2021-08-19 09:00:02.828,-0.295,0.185
2021-08-19 09:00:02.832,-0.295,0.18
2021-08-19 09:00:02.836,-0.3,0.185
2021-08-19 09:00:02.840,-0.305,0.195
2021-08-19 09:00:02.844,-0.305,0.21
2021-08-19 09:00:02.848,-0.305,0.205
2021-08-19 09:00:02.852,-0.325,0.21
2021-08-19 09:00:02.856,-0.315,0.195
2021-08-19 09:00:02.860,-0.32,0.18
2021-08-19 09:00:02.864,-0.335,0.16
2021-08-19 09:00:02.868,-0.36,0.16
2021-08-19 09:00:02.872,-0.35,0.175
2021-08-19 09:00:02.876,-0.38,0.165
2021-08-19 09:00:02.880,-0.37,0.145
2021-08-19 09:00:02.884,-0.37,0.145
2021-08-19 09:00:02.888,-0.32,0.135
2021-08-19 09:00:02.892,-0.18,0.105
2021-08-19 09:00:02.896,-0.04,0.105
2021-08-19 09:00:02.900,0.06,0.105
2021-08-19 09:00:02.904,0.015,0.12
2021-08-19 09:00:02.908,-0.18,0.18
2021-08-19 09:00:02.912,-0.45,0.28
2021-08-19 09:00:02.916,-0.82,0.28
2021-08-19 09:00:02.920,-1.23,0.13
2021-08-19 09:00:02.924,-1.56,-0.255
2021-08-19 09:00:02.928,-1.855,-0.7
2021-08-19 09:00:03.016,-0.785,-1.95
2021-08-19 09:00:03.020,-0.65,-1.515
2021-08-19 09:00:03.024,-0.545,-1.165
2021-08-19 09:00:03.028,-0.405,-0.87
2021-08-19 09:00:03.032,-0.28,-0.625
2021-08-19 09:00:03.036,-0.235,-0.445
2021-08-19 09:00:03.040,-0.15,-0.205
2021-08-19 09:00:03.044,-0.12,0.015
2021-08-19 09:00:03.048,-0.085,0.175
2021-08-19 09:00:03.052,-0.07,0.335
2021-08-19 09:00:03.056,-0.04,0.47
2021-08-19 09:00:03.060,-0.035,0.575
2021-08-19 09:00:03.064,-0.01,0.635
2021-08-19 09:00:03.068,-0.01,0.665
2021-08-19 09:00:03.072,0.02,0.69
2021-08-19 09:00:03.076,0.035,0.74
2021-08-19 09:00:03.080,0.055,0.765
2021-08-19 09:00:03.084,0.05,0.77
2021-08-19 09:00:03.088,0.04,0.795
2021-08-19 09:00:03.092,0.035,0.82
2021-08-19 09:00:03.096,0.035,0.845
2021-08-19 09:00:03.100,0.035,0.865
2021-08-19 09:00:03.104,0.035,0.845
2021-08-19 09:00:03.108,0.075,0.87
2021-08-19 09:00:03.112,0.1,0.91
2021-08-19 09:00:03.116,0.135,0.93
2021-08-19 09:00:03.120,0.145,0.935
2021-08-19 09:00:03.124,0.18,0.955
2021-08-19 09:00:03.128,0.18,1.02
2021-08-19 09:00:03.132,0.21,1.025
2021-08-19 09:00:03.136,0.205,1.04
2021-08-19 09:00:03.140,0.23,1.08
2021-08-19 09:00:03.144,0.255,1.105
2021-08-19 09:00:03.148,0.265,1.14
2021-08-19 09:00:03.152,0.265,1.155
2021-08-19 09:00:03.156,0.275,1.215
2021-08-19 09:00:03.160,0.28,1.245
2021-08-19 09:00:03.164,0.29,1.275
2021-08-19 09:00:03.168,0.28,1.3
2021-08-19 09:00:03.172,0.29,1.315
2021-08-19 09:00:03.176,0.305,1.345
2021-08-19 09:00:03.180,0.295,1.365
2021-08-19 09:00:03.184,0.315,1.37
2021-08-19 09:00:03.188,0.31,1.44
2021-08-19 09:00:03.192,0.3,1.47
2021-08-19 09:00:03.196,0.305,1.465
2021-08-19 09:00:03.200,0.28,1.465
2021-08-19 09:00:03.204,0.3,1.46
2021-08-19 09:00:03.208,0.3,1.475
2021-08-19 09:00:03.212,0.28,1.49
2021-08-19 09:00:03.216,0.255,1.485
2021-08-19 09:00:03.220,0.23,1.495
2021-08-19 09:00:03.224,0.2,1.465
2021-08-19 09:00:03.228,0.16,1.445
2021-08-19 09:00:03.232,0.115,1.38
2021-08-19 09:00:03.236,0.085,1.325
2021-08-19 09:00:03.240,0.045,1.23
2021-08-19 09:00:03.244,0.005,1.18
2021-08-19 09:00:03.248,-0.02,1.08
2021-08-19 09:00:03.252,-0.055,1.0
2021-08-19 09:00:03.256,-0.1,0.905
2021-08-19 09:00:03.260,-0.115,0.835
2021-08-19 09:00:03.264,-0.115,0.775
2021-08-19 09:00:03.268,-0.16,0.715
2021-08-19 09:00:03.272,-0.195,0.655
2021-08-19 09:00:03.276,-0.22,0.55
2021-08-19 09:00:03.280,-0.24,0.485
2021-08-19 09:00:03.284,-0.26,0.43
2021-08-19 09:00:03.288,-0.3,0.365
2021-08-19 09:00:03.292,-0.32,0.325
2021-08-19 09:00:03.296,-0.32,0.265
2021-08-19 09:00:03.300,-0.335,0.24
2021-08-19 09:00:03.304,-0.355,0.2
2021-08-19 09:00:03.308,-0.355,0.165
2021-08-19 09:00:03.312,-0.345,0.155
2021-08-19 09:00:03.316,-0.35,0.125
2021-08-19 09:00:03.320,-0.33,0.125
2021-08-19 09:00:03.324,-0.33,0.11
2021-08-19 09:00:03.328,-0.34,0.105
2021-08-19 09:00:03.332,-0.34,0.12
2021-08-19 09:00:03.336,-0.335,0.14
2021-08-19 09:00:03.340,-0.32,0.145
2021-08-19 09:00:03.344,-0.32,0.15
2021-08-19 09:00:03.348,-0.33,0.135
2021-08-19 09:00:03.352,-0.34,0.12
2021-08-19 09:00:03.356,-0.33,0.145
2021-08-19 09:00:03.360,-0.345,0.155
2021-08-19 09:00:03.364,-0.36,0.18
2021-08-19 09:00:03.368,-0.35,0.19
2021-08-19 09:00:03.372,-0.385,0.175
2021-08-19 09:00:03.376,-0.375,0.18
2021-08-19 09:00:03.380,-0.38,0.14
2021-08-19 09:00:03.384,-0.375,0.14
2021-08-19 09:00:03.388,-0.385,0.18
2021-08-19 09:00:03.392,-0.37,0.195
2021-08-19 09:00:03.396,-0.38,0.21
2021-08-19 09:00:03.400,-0.365,0.24
2021-08-19 09:00:03.404,-0.32,0.235
2021-08-19 09:00:03.408,-0.185,0.215
2021-08-19 09:00:03.412,-0.02,0.16
2021-08-19 09:00:03.416,0.1,0.18
2021-08-19 09:00:03.420,0.075,0.225
2021-08-19 09:00:03.424,-0.09,0.275
2021-08-19 09:00:03.428,-0.385,0.37
2021-08-19 09:00:03.432,-0.825,0.46
2021-08-19 09:00:03.436,-1.305,0.31
2021-08-19 09:00:03.440,-1.715,-0.065
2021-08-19 09:00:03.444,-1.97,-0.525
2021-08-19 09:00:03.536,-0.795,-1.755
2021-08-19 09:00:03.540,-0.605,-1.32
2021-08-19 09:00:03.544,-0.455,-0.955
2021-08-19 09:00:03.548,-0.365,-0.675
2021-08-19 09:00:03.552,-0.3,-0.48
2021-08-19 09:00:03.556,-0.25,-0.265
2021-08-19 09:00:03.560,-0.22,-0.07
2021-08-19 09:00:03.564,-0.2,0.15
2021-08-19 09:00:03.568,-0.185,0.35
2021-08-19 09:00:03.572,-0.165,0.47
2021-08-19 09:00:03.576,-0.15,0.585
2021-08-19 09:00:03.580,-0.135,0.68
2021-08-19 09:00:03.584,-0.12,0.71
2021-08-19 09:00:03.588,-0.125,0.705
2021-08-19 09:00:03.592,-0.105,0.72
2021-08-19 09:00:03.596,-0.1,0.75
2021-08-19 09:00:03.600,-0.08,0.795
2021-08-19 09:00:03.604,-0.075,0.82
2021-08-19 09:00:03.608,-0.07,0.825
2021-08-19 09:00:03.612,-0.04,0.855
2021-08-19 09:00:03.616,-0.02,0.905
2021-08-19 09:00:03.620,-0.025,0.89
2021-08-19 09:00:03.624,0.01,0.92
2021-08-19 09:00:03.628,0.03,0.915
2021-08-19 09:00:03.632,0.055,0.95
2021-08-19 09:00:03.636,0.08,0.985
2021-08-19 09:00:03.640,0.105,1.005
2021-08-19 09:00:03.644,0.13,0.995
2021-08-19 09:00:03.648,0.175,1.015
2021-08-19 09:00:03.652,0.19,1.06
2021-08-19 09:00:03.656,0.2,1.085
2021-08-19 09:00:03.660,0.195,1.135
2021-08-19 09:00:03.664,0.19,1.17
2021-08-19 09:00:03.668,0.185,1.215
2021-08-19 09:00:03.672,0.195,1.22
2021-08-19 09:00:03.676,0.23,1.245
2021-08-19 09:00:03.680,0.25,1.235
2021-08-19 09:00:03.684,0.25,1.22
2021-08-19 09:00:03.688,0.26,1.225
2021-08-19 09:00:03.692,0.27,1.275
2021-08-19 09:00:03.696,0.27,1.275
2021-08-19 09:00:03.700,0.275,1.28
2021-08-19 09:00:03.704,0.255,1.275
2021-08-19 09:00:03.708,0.275,1.3
2021-08-19 09:00:03.712,0.28,1.3
2021-08-19 09:00:03.716,0.26,1.3
2021-08-19 09:00:03.720,0.23,1.305
2021-08-19 09:00:03.724,0.235,1.31
2021-08-19 09:00:03.728,0.205,1.295
2021-08-19 09:00:03.732,0.17,1.295
2021-08-19 09:00:03.736,0.15,1.3
2021-08-19 09:00:03.740,0.11,1.265
2021-08-19 09:00:03.744,0.095,1.27
2021-08-19 09:00:03.748,0.05,1.23
2021-08-19 09:00:03.752,0.03,1.185
2021-08-19 09:00:03.756,-0.005,1.095
2021-08-19 09:00:03.760,-0.055,1.075
2021-08-19 09:00:03.764,-0.125,1.025
2021-08-19 09:00:03.768,-0.14,0.98
2021-08-19 09:00:03.772,-0.16,0.87
2021-08-19 09:00:03.776,-0.195,0.79
2021-08-19 09:00:03.780,-0.215,0.72
2021-08-19 09:00:03.784,-0.24,0.665
2021-08-19 09:00:03.788,-0.285,0.605
2021-08-19 09:00:03.792,-0.265,0.545
2021-08-19 09:00:03.796,-0.3,0.53
2021-08-19 09:00:03.800,-0.305,0.475
2021-08-19 09:00:03.804,-0.335,0.41
2021-08-19 09:00:03.808,-0.355,0.38
2021-08-19 09:00:03.812,-0.395,0.35
2021-08-19 09:00:03.816,-0.405,0.33
2021-08-19 09:00:03.820,-0.4,0.305
2021-08-19 09:00:03.824,-0.375,0.285
2021-08-19 09:00:03.828,-0.395,0.275
2021-08-19 09:00:03.832,-0.4,0.28
2021-08-19 09:00:03.836,-0.395,0.295
2021-08-19 09:00:03.840,-0.4,0.3
2021-08-19 09:00:03.844,-0.38,0.265
2021-08-19 09:00:03.848,-0.37,0.235
2021-08-19 09:00:03.852,-0.38,0.195
2021-08-19 09:00:03.856,-0.36,0.23
2021-08-19 09:00:03.860,-0.34,0.235
2021-08-19 09:00:03.864,-0.305,0.265
2021-08-19 09:00:03.868,-0.315,0.33
2021-08-19 09:00:03.872,-0.32,0.365
2021-08-19 09:00:03.876,-0.33,0.385
2021-08-19 09:00:03.880,-0.33,0.365
2021-08-19 09:00:03.884,-0.34,0.37
2021-08-19 09:00:03.888,-0.32,0.31
2021-08-19 09:00:03.892,-0.31,0.26
2021-08-19 09:00:03.896,-0.31,0.23
2021-08-19 09:00:03.900,-0.325,0.235
2021-08-19 09:00:03.904,-0.325,0.25
2021-08-19 09:00:03.908,-0.31,0.255
2021-08-19 09:00:03.912,-0.315,0.26
2021-08-19 09:00:03.916,-0.32,0.23
2021-08-19 09:00:03.920,-0.32,0.235
2021-08-19 09:00:03.924,-0.31,0.24
2021-08-19 09:00:03.928,-0.3,0.22
2021-08-19 09:00:03.932,-0.3,0.22
2021-08-19 09:00:03.936,-0.315,0.205
2021-08-19 09:00:03.940,-0.325,0.245
2021-08-19 09:00:03.944,-0.33,0.28
2021-08-19 09:00:03.948,-0.325,0.245
2021-08-19 09:00:03.952,-0.345,0.185
2021-08-19 09:00:03.956,-0.35,0.12
2021-08-19 09:00:03.960,-0.36,0.155
2021-08-19 09:00:03.964,-0.375,0.175
2021-08-19 09:00:03.968,-0.36,0.145
2021-08-19 09:00:03.972,-0.35,0.165
2021-08-19 09:00:03.976,-0.36,0.195
2021-08-19 09:00:03.980,-0.375,0.18
2021-08-19 09:00:03.984,-0.4,0.155
2021-08-19 09:00:03.988,-0.42,0.135
2021-08-19 09:00:03.992,-0.445,0.145
2021-08-19 09:00:03.996,-0.44,0.145
2021-08-19 09:00:04.000,-0.455,0.155
2021-08-19 09:00:04.004,-0.475,0.135
2021-08-19 09:00:04.008,-0.475,0.125
2021-08-19 09:00:04.012,-0.44,0.12
2021-08-19 09:00:04.016,-0.46,0.125
2021-08-19 09:00:04.020,-0.45,0.09
2021-08-19 09:00:04.024,-0.45,0.08
2021-08-19 09:00:04.028,-0.465,0.135
2021-08-19 09:00:04.032,-0.475,0.17
2021-08-19 09:00:04.036,-0.47,0.17
2021-08-19 09:00:04.040,-0.46,0.18
2021-08-19 09:00:04.044,-0.48,0.19
2021-08-19 09:00:04.048,-0.48,0.185
2021-08-19 09:00:04.052,-0.475,0.17
2021-08-19 09:00:04.056,-0.445,0.16
2021-08-19 09:00:04.060,-0.45,0.195
2021-08-19 09:00:04.064,-0.445,0.215
2021-08-19 09:00:04.068,-0.445,0.19
2021-08-19 09:00:04.072,-0.445,0.175
2021-08-19 09:00:04.076,-0.405,0.18
2021-08-19 09:00:04.080,-0.375,0.165
2021-08-19 09:00:04.084,-0.405,0.18
2021-08-19 09:00:04.088,-0.41,0.195
2021-08-19 09:00:04.092,-0.42,0.235
2021-08-19 09:00:04.096,-0.42,0.235
2021-08-19 09:00:04.100,-0.42,0.255
2021-08-19 09:00:04.104,-0.39,0.245
2021-08-19 09:00:04.108,-0.365,0.235
2021-08-19 09:00:04.112,-0.36,0.21
2021-08-19 09:00:04.116,-0.34,0.2
2021-08-19 09:00:04.120,-0.33,0.195
2021-08-19 09:00:04.124,-0.335,0.155
2021-08-19 09:00:04.128,-0.34,0.185
2021-08-19 09:00:04.132,-0.305,0.185
2021-08-19 09:00:04.136,-0.285,0.165
2021-08-19 09:00:04.140,-0.29,0.135
2021-08-19 09:00:04.144,-0.29,0.14
2021-08-19 09:00:04.148,-0.305,0.175
2021-08-19 09:00:04.152,-0.31,0.215
2021-08-19 09:00:04.156,-0.32,0.22
2021-08-19 09:00:04.160,-0.31,0.185
2021-08-19 09:00:04.164,-0.275,0.125
2021-08-19 09:00:04.168,-0.28,0.1
2021-08-19 09:00:04.172,-0.275,0.15
2021-08-19 09:00:04.176,-0.25,0.175
2021-08-19 09:00:04.180,-0.19,0.15
2021-08-19 09:00:04.184,-0.08,0.145
2021-08-19 09:00:04.188,0.0,0.12
2021-08-19 09:00:04.192,-0.035,0.145
2021-08-19 09:00:04.196,-0.21,0.215
2021-08-19 09:00:04.200,-0.435,0.3
2021-08-19 09:00:04.204,-0.825,0.35
2021-08-19 09:00:04.208,-1.225,0.21
2021-08-19 09:00:04.212,-1.645,-0.15
2021-08-19 09:00:04.216,-1.955,-0.675
2021-08-19 09:00:04.304,-0.99,-1.845
2021-08-19 09:00:04.308,-0.83,-1.355
2021-08-19 09:00:04.312,-0.65,-1.0
2021-08-19 09:00:04.316,-0.52,-0.695
2021-08-19 09:00:04.320,-0.365,-0.425
2021-08-19 09:00:04.324,-0.285,-0.23
2021-08-19 09:00:04.328,-0.17,-0.08
2021-08-19 09:00:04.332,-0.09,0.075
2021-08-19 09:00:04.336,-0.06,0.265
2021-08-19 09:00:04.340,-0.075,0.425
2021-08-19 09:00:04.344,-0.06,0.565
2021-08-19 09:00:04.348,-0.025,0.705
2021-08-19 09:00:04.352,-0.005,0.74
2021-08-19 09:00:04.356,0.0,0.72
2021-08-19 09:00:04.360,0.015,0.745
2021-08-19 09:00:04.364,0.02,0.815
2021-08-19 09:00:04.368,0.035,0.855
2021-08-19 09:00:04.372,0.04,0.89
2021-08-19 09:00:04.376,0.05,0.87
2021-08-19 09:00:04.380,0.075,0.87
2021-08-19 09:00:04.384,0.085,0.895
2021-08-19 09:00:04.388,0.095,0.885
2021-08-19 09:00:04.392,0.1,0.875
2021-08-19 09:00:04.396,0.115,0.935
2021-08-19 09:00:04.400,0.15,1.015
2021-08-19 09:00:04.404,0.155,1.03
2021-08-19 09:00:04.408,0.165,1.015
2021-08-19 09:00:04.412,0.165,0.995
2021-08-19 09:00:04.416,0.175,1.0
2021-08-19 09:00:04.420,0.18,1.1
2021-08-19 09:00:04.424,0.175,1.145
2021-08-19 09:00:04.428,0.175,1.14
2021-08-19 09:00:04.432,0.18,1.105
2021-08-19 09:00:04.436,0.195,1.16
2021-08-19 09:00:04.440,0.225,1.185
2021-08-19 09:00:04.444,0.25,1.205
2021-08-19 09:00:04.448,0.285,1.21
2021-08-19 09:00:04.452,0.29,1.22
2021-08-19 09:00:04.456,0.29,1.3
2021-08-19 09:00:04.460,0.3,1.345
2021-08-19 09:00:04.464,0.315,1.385
2021-08-19 09:00:04.468,0.31,1.385
2021-08-19 09:00:04.472,0.315,1.365
2021-08-19 09:00:04.476,0.305,1.435
2021-08-19 09:00:04.480,0.295,1.51
2021-08-19 09:00:04.484,0.28,1.555
2021-08-19 09:00:04.488,0.285,1.52
2021-08-19 09:00:04.492,0.3,1.495
2021-08-19 09:00:04.496,0.295,1.485
2021-08-19 09:00:04.500,0.31,1.48
2021-08-19 09:00:04.504,0.29,1.495
2021-08-19 09:00:04.508,0.305,1.475
2021-08-19 09:00:04.512,0.265,1.5
2021-08-19 09:00:04.516,0.255,1.49
2021-08-19 09:00:04.520,0.235,1.455
2021-08-19 09:00:04.524,0.225,1.475
2021-08-19 09:00:04.528,0.22,1.43
2021-08-19 09:00:04.532,0.2,1.41
2021-08-19 09:00:04.536,0.15,1.365
2021-08-19 09:00:04.540,0.115,1.335
2021-08-19 09:00:04.544,0.095,1.315
2021-08-19 09:00:04.548,0.055,1.24
2021-08-19 09:00:04.552,0.02,1.115
2021-08-19 09:00:04.556,-0.005,1.04
2021-08-19 09:00:04.560,-0.01,0.95
2021-08-19 09:00:04.564,-0.05,0.89
2021-08-19 09:00:04.568,-0.07,0.765
2021-08-19 09:00:04.572,-0.105,0.685
2021-08-19 09:00:04.576,-0.15,0.625
2021-08-19 09:00:04.580,-0.18,0.61
2021-08-19 09:00:04.584,-0.225,0.59
2021-08-19 09:00:04.588,-0.22,0.56
2021-08-19 09:00:04.592,-0.23,0.475
2021-08-19 09:00:04.596,-0.25,0.455
2021-08-19 09:00:04.600,-0.29,0.395
2021-08-19 09:00:04.604,-0.32,0.35
2021-08-19 09:00:04.608,-0.31,0.34
2021-08-19 09:00:04.612,-0.275,0.31
2021-08-19 09:00:04.616,-0.295,0.255
2021-08-19 09:00:04.620,-0.305,0.215
2021-08-19 09:00:04.624,-0.32,0.26
2021-08-19 09:00:04.628,-0.31,0.3
2021-08-19 09:00:04.632,-0.3,0.23
2021-08-19 09:00:04.636,-0.32,0.185
2021-08-19 09:00:04.640,-0.355,0.22
2021-08-19 09:00:04.644,-0.365,0.255
2021-08-19 09:00:04.648,-0.375,0.23
2021-08-19 09:00:04.652,-0.38,0.175
2021-08-19 09:00:04.656,-0.36,0.17
2021-08-19 09:00:04.660,-0.375,0.17
2021-08-19 09:00:04.664,-0.375,0.2
2021-08-19 09:00:04.668,-0.38,0.225
2021-08-19 09:00:04.672,-0.37,0.225
2021-08-19 09:00:04.676,-0.375,0.265
2021-08-19 09:00:04.680,-0.42,0.24
2021-08-19 09:00:04.684,-0.405,0.22
2021-08-19 09:00:04.688,-0.375,0.21
2021-08-19 09:00:04.692,-0.365,0.22
2021-08-19 09:00:04.696,-0.345,0.22
2021-08-19 09:00:04.700,-0.33,0.26
2021-08-19 09:00:04.704,-0.34,0.335
2021-08-19 09:00:04.708,-0.33,0.38
2021-08-19 09:00:04.712,-0.345,0.38
2021-08-19 09:00:04.716,-0.33,0.28
2021-08-19 09:00:04.720,-0.32,0.23
2021-08-19 09:00:04.724,-0.3,0.24
2021-08-19 09:00:04.728,-0.255,0.265
2021-08-19 09:00:04.732,-0.275,0.31
2021-08-19 09:00:04.736,-0.285,0.365
2021-08-19 09:00:04.740,-0.285,0.395
2021-08-19 09:00:04.744,-0.305,0.36
2021-08-19 09:00:04.748,-0.3,0.335
2021-08-19 09:00:04.752,-0.265,0.365
2021-08-19 09:00:04.756,-0.255,0.375
2021-08-19 09:00:04.760,-0.215,0.385
2021-08-19 09:00:04.764,-0.185,0.34
2021-08-19 09:00:04.768,-0.06,0.255
2021-08-19 09:00:04.772,0.05,0.23
2021-08-19 09:00:04.776,0.1,0.24
2021-08-19 09:00:04.780,0.02,0.23
2021-08-19 09:00:04.784,-0.165,0.28
2021-08-19 09:00:04.788,-0.58,0.3
2021-08-19 09:00:04.792,-1.08,0.205
2021-08-19 09:00:04.796,-1.53,-0.055
2021-08-19 09:00:04.800,-1.89,-0.5
2021-08-19 09:00:04.888,-0.735,-1.82
2021-08-19 09:00:04.892,-0.565,-1.36
2021-08-19 09:00:04.896,-0.42,-0.98
2021-08-19 09:00:04.900,-0.315,-0.685
2021-08-19 09:00:04.904,-0.245,-0.47
2021-08-19 09:00:04.908,-0.195,-0.245
2021-08-19 09:00:04.912,-0.14,-0.055
2021-08-19 09:00:04.916,-0.11,0.135
2021-08-19 09:00:04.920,-0.105,0.325
2021-08-19 09:00:04.924,-0.105,0.5
2021-08-19 09:00:04.928,-0.085,0.565
2021-08-19 09:00:04.932,-0.075,0.585
2021-08-19 09:00:04.936,-0.035,0.61
2021-08-19 09:00:04.940,-0.005,0.665
2021-08-19 09:00:04.944,-0.005,0.73
2021-08-19 09:00:04.948,0.01,0.795
2021-08-19 09:00:04.952,0.035,0.79
2021-08-19 09:00:04.956,0.02,0.775
2021-08-19 09:00:04.960,0.07,0.73
2021-08-19 09:00:04.964,0.095,0.74
2021-08-19 09:00:04.968,0.11,0.735
2021-08-19 09:00:04.972,0.12,0.79
2021-08-19 09:00:04.976,0.17,0.815
2021-08-19 09:00:04.980,0.17,0.79
2021-08-19 09:00:04.984,0.19,0.78
2021-08-19 09:00:04.988,0.185,0.83
2021-08-19 09:00:04.992,0.235,0.845
2021-08-19 09:00:04.996,0.225,0.835
2021-08-19 09:00:05.000,0.245,0.83
2021-08-19 09:00:05.004,0.23,0.85
2021-08-19 09:00:05.008,0.23,0.855
2021-08-19 09:00:05.012,0.235,0.89
2021-08-19 09:00:05.016,0.245,0.93
2021-08-19 09:00:05.020,0.24,0.935
2021-08-19 09:00:05.024,0.27,0.91
2021-08-19 09:00:05.028,0.305,0.925
2021-08-19 09:00:05.032,0.3,0.99
2021-08-19 09:00:05.036,0.32,1.06
2021-08-19 09:00:05.040,0.335,1.035
2021-08-19 09:00:05.044,0.32,1.03
2021-08-19 09:00:05.048,0.32,1.1
2021-08-19 09:00:05.052,0.315,1.095
2021-08-19 09:00:05.056,0.34,1.065
2021-08-19 09:00:05.060,0.335,1.075
2021-08-19 09:00:05.064,0.315,1.09
2021-08-19 09:00:05.068,0.285,1.135
2021-08-19 09:00:05.072,0.28,1.225
2021-08-19 09:00:05.076,0.26,1.19
2021-08-19 09:00:05.080,0.25,1.16
2021-08-19 09:00:05.084,0.25,1.105
2021-08-19 09:00:05.088,0.24,1.13
2021-08-19 09:00:05.092,0.21,1.08
2021-08-19 09:00:05.096,0.16,1.1
2021-08-19 09:00:05.100,0.095,1.065
2021-08-19 09:00:05.104,0.06,1.015
2021-08-19 09:00:05.108,0.015,0.925
2021-08-19 09:00:05.112,0.005,0.915
2021-08-19 09:00:05.116,-0.015,0.865
2021-08-19 09:00:05.120,-0.05,0.8
2021-08-19 09:00:05.124,-0.075,0.755
2021-08-19 09:00:05.128,-0.115,0.695
2021-08-19 09:00:05.132,-0.12,0.61
2021-08-19 09:00:05.136,-0.15,0.545
2021-08-19 09:00:05.140,-0.155,0.53
2021-08-19 09:00:05.144,-0.155,0.43
2021-08-19 09:00:05.148,-0.17,0.43
2021-08-19 09:00:05.152,-0.175,0.39
2021-08-19 09:00:05.156,-0.21,0.345
2021-08-19 09:00:05.160,-0.225,0.27
2021-08-19 09:00:05.164,-0.255,0.25
2021-08-19 09:00:05.168,-0.295,0.19
2021-08-19 09:00:05.172,-0.28,0.185
2021-08-19 09:00:05.176,-0.3,0.18
2021-08-19 09:00:05.180,-0.285,0.125
2021-08-19 09:00:05.184,-0.305,0.065
2021-08-19 09:00:05.188,-0.305,0.035
2021-08-19 09:00:05.192,-0.275,0.01
2021-08-19 09:00:05.196,-0.295,0.0
2021-08-19 09:00:05.200,-0.29,-0.02
2021-08-19 09:00:05.204,-0.295,-0.045
2021-08-19 09:00:05.208,-0.315,-0.03
2021-08-19 09:00:05.212,-0.315,0.01
2021-08-19 09:00:05.216,-0.31,0.02
2021-08-19 09:00:05.220,-0.33,0.015
2021-08-19 09:00:05.224,-0.35,0.01
2021-08-19 09:00:05.228,-0.355,0.015
2021-08-19 09:00:05.232,-0.33,0.055
2021-08-19 09:00:05.236,-0.32,0.065
2021-08-19 09:00:05.240,-0.34,0.035
2021-08-19 09:00:05.244,-0.375,0.01
2021-08-19 09:00:05.248,-0.365,0.02
2021-08-19 09:00:05.252,-0.32,0.005
2021-08-19 09:00:05.256,-0.32,0.015
2021-08-19 09:00:05.260,-0.335,-0.025
2021-08-19 09:00:05.264,-0.365,-0.025
2021-08-19 09:00:05.268,-0.355,0.01
2021-08-19 09:00:05.272,-0.35,-0.005
2021-08-19 09:00:05.276,-0.345,0.025
2021-08-19 09:00:05.280,-0.355,0.01
2021-08-19 09:00:05.284,-0.365,0.015
2021-08-19 09:00:05.288,-0.385,0.01
2021-08-19 09:00:05.292,-0.34,-0.025
2021-08-19 09:00:05.296,-0.33,-0.055
2021-08-19 09:00:05.300,-0.305,-0.025
2021-08-19 09:00:05.304,-0.29,-0.05
2021-08-19 09:00:05.308,-0.31,-0.04
2021-08-19 09:00:05.312,-0.295,-0.06
2021-08-19 09:00:05.316,-0.27,-0.03
2021-08-19 09:00:05.320,-0.28,0.0
2021-08-19 09:00:05.324,-0.265,0.035
2021-08-19 09:00:05.328,-0.24,0.005
2021-08-19 09:00:05.332,-0.18,-0.03
2021-08-19 09:00:05.336,-0.05,-0.06
2021-08-19 09:00:05.340,0.07,-0.06
2021-08-19 09:00:05.344,0.085,-0.085
2021-08-19 09:00:05.348,0.0,-0.005
2021-08-19 09:00:05.352,-0.185,0.12
2021-08-19 09:00:05.356,-0.545,0.18
2021-08-19 09:00:05.360,-1.0,-0.03
2021-08-19 09:00:05.364,-1.425,-0.44
2021-08-19 09:00:05.368,-1.78,-0.955
2021-08-19 09:00:05.456,-0.68,-1.84
2021-08-19 09:00:05.460,-0.495,-1.4
2021-08-19 09:00:05.464,-0.33,-1.1
2021-08-19 09:00:05.468,-0.24,-0.855
2021-08-19 09:00:05.472,-0.13,-0.62
2021-08-19 09:00:05.476,-0.055,-0.405
2021-08-19 09:00:05.480,-0.02,-0.16
2021-08-19 09:00:05.484,0.0,0.015
2021-08-19 09:00:05.488,0.025,0.22
2021-08-19 09:00:05.492,0.055,0.42
2021-08-19 09:00:05.496,0.055,0.515
2021-08-19 09:00:05.500,0.095,0.555
2021-08-19 09:00:05.504,0.135,0.595
2021-08-19 09:00:05.508,0.17,0.675
2021-08-19 09:00:05.512,0.205,0.68
2021-08-19 09:00:05.516,0.245,0.68
2021-08-19 09:00:05.520,0.265,0.68
2021-08-19 09:00:05.524,0.27,0.75
2021-08-19 09:00:05.528,0.255,0.81
2021-08-19 09:00:05.532,0.255,0.83
2021-08-19 09:00:05.536,0.265,0.845
2021-08-19 09:00:05.540,0.3,0.865
2021-08-19 09:00:05.544,0.315,0.895
2021-08-19 09:00:05.548,0.335,0.9
2021-08-19 09:00:05.552,0.345,0.91
2021-08-19 09:00:05.556,0.345,0.915
2021-08-19 09:00:05.560,0.345,0.905
2021-08-19 09:00:05.564,0.355,0.91
2021-08-19 09:00:05.568,0.355,0.92
2021-08-19 09:00:05.572,0.385,0.925
2021-08-19 09:00:05.576,0.38,0.955
2021-08-19 09:00:05.580,0.375,1.015
2021-08-19 09:00:05.584,0.38,1.02
2021-08-19 09:00:05.588,0.4,1.01
2021-08-19 09:00:05.592,0.42,1.015
2021-08-19 09:00:05.596,0.435,1.04
2021-08-19 09:00:05.600,0.46,1.05
2021-08-19 09:00:05.604,0.465,1.1
2021-08-19 09:00:05.608,0.505,1.1
2021-08-19 09:00:05.612,0.51,1.155
2021-08-19 09:00:05.616,0.535,1.145
2021-08-19 09:00:05.620,0.51,1.16
2021-08-19 09:00:05.624,0.5,1.2
2021-08-19 09:00:05.628,0.485,1.245
2021-08-19 09:00:05.632,0.46,1.265
2021-08-19 09:00:05.636,0.435,1.27
2021-08-19 09:00:05.640,0.42,1.265
2021-08-19 09:00:05.644,0.37,1.215
2021-08-19 09:00:05.648,0.335,1.195
2021-08-19 09:00:05.652,0.295,1.215
2021-08-19 09:00:05.656,0.28,1.175
2021-08-19 09:00:05.660,0.215,1.135
2021-08-19 09:00:05.664,0.195,1.075
2021-08-19 09:00:05.668,0.175,1.03
2021-08-19 09:00:05.672,0.145,1.01
2021-08-19 09:00:05.676,0.11,0.95
2021-08-19 09:00:05.680,0.085,0.885
2021-08-19 09:00:05.684,0.045,0.825
2021-08-19 09:00:05.688,0.03,0.775
2021-08-19 09:00:05.692,0.005,0.715
2021-08-19 09:00:05.696,-0.03,0.635
2021-08-19 09:00:05.700,-0.02,0.56
2021-08-19 09:00:05.704,-0.05,0.515
2021-08-19 09:00:05.708,-0.03,0.48
2021-08-19 09:00:05.712,-0.055,0.405
2021-08-19 09:00:05.716,-0.055,0.385
2021-08-19 09:00:05.720,-0.035,0.375
2021-08-19 09:00:05.724,-0.01,0.32
2021-08-19 09:00:05.728,-0.015,0.285
2021-08-19 09:00:05.732,-0.045,0.285
2021-08-19 09:00:05.736,-0.07,0.265
2021-08-19 09:00:05.740,-0.11,0.245
2021-08-19 09:00:05.744,-0.115,0.23
2021-08-19 09:00:05.748,-0.1,0.21
2021-08-19 09:00:05.752,-0.08,0.23
2021-08-19 09:00:05.756,-0.075,0.23
2021-08-19 09:00:05.760,-0.08,0.2
2021-08-19 09:00:05.764,-0.065,0.18
2021-08-19 09:00:05.768,-0.035,0.18
2021-08-19 09:00:05.772,-0.015,0.245
2021-08-19 09:00:05.776,-0.045,0.23
2021-08-19 09:00:05.780,-0.05,0.175
2021-08-19 09:00:05.784,-0.055,0.15
2021-08-19 09:00:05.788,-0.055,0.155
2021-08-19 09:00:05.792,-0.055,0.135
2021-08-19 09:00:05.796,-0.07,0.105
2021-08-19 09:00:05.800,-0.055,0.1
2021-08-19 09:00:05.804,-0.085,0.1
2021-08-19 09:00:05.808,-0.09,0.095
2021-08-19 09:00:05.812,-0.09,0.085
2021-08-19 09:00:05.816,-0.1,0.1
2021-08-19 09:00:05.820,-0.12,0.115
2021-08-19 09:00:05.824,-0.115,0.12
2021-08-19 09:00:05.828,-0.075,0.13
2021-08-19 09:00:05.832,-0.08,0.115
2021-08-19 09:00:05.836,-0.11,0.11
2021-08-19 09:00:05.840,-0.11,0.12
2021-08-19 09:00:05.844,-0.115,0.145
2021-08-19 09:00:05.848,-0.135,0.13
2021-08-19 09:00:05.852,-0.105,0.12
2021-08-19 09:00:05.856,-0.105,0.125
2021-08-19 09:00:05.860,-0.12,0.1
2021-08-19 09:00:05.864,-0.145,0.07
2021-08-19 09:00:05.868,-0.12,0.035
2021-08-19 09:00:05.872,-0.105,0.045
2021-08-19 09:00:05.876,-0.085,0.075
2021-08-19 09:00:05.880,-0.085,0.09
2021-08-19 09:00:05.884,-0.125,0.07
2021-08-19 09:00:05.888,-0.13,0.05
2021-08-19 09:00:05.892,-0.12,0.07
2021-08-19 09:00:05.896,-0.12,0.055
2021-08-19 09:00:05.900,-0.085,0.055
2021-08-19 09:00:05.904,-0.055,0.06
2021-08-19 09:00:05.908,-0.05,0.02
2021-08-19 09:00:05.912,-0.08,0.02
2021-08-19 09:00:05.916,-0.045,0.015
2021-08-19 09:00:05.920,-0.065,0.04
2021-08-19 09:00:05.924,-0.08,0.055
2021-08-19 09:00:05.928,-0.12,0.075
2021-08-19 09:00:05.932,-0.12,0.075
2021-08-19 09:00:05.936,-0.11,0.05
2021-08-19 09:00:05.940,-0.15,0.045
2021-08-19 09:00:05.944,-0.16,0.04
2021-08-19 09:00:05.948,-0.13,0.03
2021-08-19 09:00:05.952,-0.15,0.03
2021-08-19 09:00:05.956,-0.165,0.04
2021-08-19 09:00:05.960,-0.195,0.01
2021-08-19 09:00:05.964,-0.15,0.03
2021-08-19 09:00:05.968,-0.14,0.005
2021-08-19 09:00:05.972,-0.125,0.02
2021-08-19 09:00:05.976,-0.1,0.035
2021-08-19 09:00:05.980,-0.065,0.045
2021-08-19 09:00:05.984,-0.065,0.025
2021-08-19 09:00:05.988,-0.04,-0.015
2021-08-19 09:00:05.992,-0.065,-0.01
2021-08-19 09:00:05.996,-0.075,-0.015
2021-08-19 09:00:06.000,-0.08,-0.035
2021-08-19 09:00:06.004,-0.09,-0.04
2021-08-19 09:00:06.008,-0.1,-0.07
2021-08-19 09:00:06.012,-0.1,-0.09
2021-08-19 09:00:06.016,-0.11,-0.045
2021-08-19 09:00:06.020,-0.085,-0.04
2021-08-19 09:00:06.024,-0.075,-0.075
2021-08-19 09:00:06.028,-0.075,-0.1
2021-08-19 09:00:06.032,-0.07,-0.11
2021-08-19 09:00:06.036,-0.07,-0.11
2021-08-19 09:00:06.040,-0.07,-0.085
2021-08-19 09:00:06.044,-0.04,-0.06
2021-08-19 09:00:06.048,0.0,-0.105
2021-08-19 09:00:06.052,0.085,-0.11
2021-08-19 09:00:06.056,0.195,-0.135
2021-08-19 09:00:06.060,0.205,-0.12
2021-08-19 09:00:06.064,0.1,-0.07
2021-08-19 09:00:06.068,-0.14,0.035
2021-08-19 09:00:06.072,-0.5,0.055
2021-08-19 09:00:06.076,-1.01,-0.03
2021-08-19 09:00:06.080,-1.485,-0.32
2021-08-19 09:00:06.084,-1.855,-0.79
2021-08-19 09:00:06.172,-0.505,-1.755
2021-08-19 09:00:06.176,-0.4,-1.41
2021-08-19 09:00:06.180,-0.245,-1.08
2021-08-19 09:00:06.184,-0.105,-0.825
2021-08-19 09:00:06.188,0.01,-0.635
2021-08-19 09:00:06.192,0.08,-0.46
2021-08-19 09:00:06.196,0.175,-0.305
2021-08-19 09:00:06.200,0.185,-0.06
2021-08-19 09:00:06.204,0.22,0.14
2021-08-19 09:00:06.208,0.22,0.26
2021-08-19 09:00:06.212,0.235,0.365
2021-08-19 09:00:06.216,0.25,0.45
2021-08-19 09:00:06.220,0.26,0.51
2021-08-19 09:00:06.224,0.3,0.545
2021-08-19 09:00:06.228,0.31,0.575
2021-08-19 09:00:06.232,0.325,0.595
2021-08-19 09:00:06.236,0.335,0.615
2021-08-19 09:00:06.240,0.355,0.595
2021-08-19 09:00:06.244,0.37,0.62
2021-08-19 09:00:06.248,0.385,0.685
2021-08-19 09:00:06.252,0.395,0.72
2021-08-19 09:00:06.256,0.415,0.715
2021-08-19 09:00:06.260,0.44,0.735
2021-08-19 09:00:06.264,0.445,0.745
2021-08-19 09:00:06.268,0.47,0.785
2021-08-19 09:00:06.272,0.49,0.78
2021-08-19 09:00:06.276,0.48,0.81
2021-08-19 09:00:06.280,0.495,0.815
2021-08-19 09:00:06.284,0.535,0.855
2021-08-19 09:00:06.288,0.545,0.86
2021-08-19 09:00:06.292,0.545,0.88
2021-08-19 09:00:06.296,0.57,0.925
2021-08-19 09:00:06.300,0.58,0.97
2021-08-19 09:00:06.304,0.6,0.965
2021-08-19 09:00:06.308,0.605,0.955
2021-08-19 09:00:06.312,0.58,0.98
2021-08-19 09:00:06.316,0.59,1.005
2021-08-19 09:00:06.320,0.595,1.06
2021-08-19 09:00:06.324,0.615,1.085
2021-08-19 09:00:06.328,0.635,1.09
2021-08-19 09:00:06.332,0.63,1.125
2021-08-19 09:00:06.336,0.635,1.13
2021-08-19 09:00:06.340,0.64,1.13
2021-08-19 09:00:06.344,0.63,1.15
2021-08-19 09:00:06.348,0.635,1.195
2021-08-19 09:00:06.352,0.63,1.2
2021-08-19 09:00:06.356,0.61,1.24
2021-08-19 09:00:06.360,0.565,1.265
2021-08-19 09:00:06.364,0.5,1.295
2021-08-19 09:00:06.368,0.465,1.265
2021-08-19 09:00:06.372,0.445,1.245
2021-08-19 09:00:06.376,0.415,1.26
2021-08-19 09:00:06.380,0.39,1.22
2021-08-19 09:00:06.384,0.38,1.195
2021-08-19 09:00:06.388,0.34,1.135
2021-08-19 09:00:06.392,0.31,1.115
2021-08-19 09:00:06.396,0.3,1.04
2021-08-19 09:00:06.400,0.29,1.005
2021-08-19 09:00:06.404,0.25,0.935
2021-08-19 09:00:06.408,0.22,0.855
2021-08-19 09:00:06.412,0.165,0.77
2021-08-19 09:00:06.416,0.14,0.66
2021-08-19 09:00:06.420,0.115,0.61
2021-08-19 09:00:06.424,0.075,0.54
2021-08-19 09:00:06.428,0.075,0.52
2021-08-19 09:00:06.432,0.055,0.435
2021-08-19 09:00:06.436,0.005,0.375
2021-08-19 09:00:06.440,0.005,0.265
2021-08-19 09:00:06.444,-0.025,0.225
2021-08-19 09:00:06.448,-0.01,0.215
2021-08-19 09:00:06.452,-0.005,0.185
2021-08-19 09:00:06.456,0.005,0.135
2021-08-19 09:00:06.460,-0.005,0.105
2021-08-19 09:00:06.464,-0.02,0.07
2021-08-19 09:00:06.468,-0.005,0.075
2021-08-19 09:00:06.472,-0.01,0.09
2021-08-19 09:00:06.476,-0.015,0.085
2021-08-19 09:00:06.480,-0.04,0.05
2021-08-19 09:00:06.484,-0.045,0.05
2021-08-19 09:00:06.488,-0.05,0.03
2021-08-19 09:00:06.492,-0.03,0.015
2021-08-19 09:00:06.496,-0.055,0.03
2021-08-19 09:00:06.500,-0.045,0.0
2021-08-19 09:00:06.504,-0.06,0.015
2021-08-19 09:00:06.508,-0.02,0.005
2021-08-19 09:00:06.512,-0.015,0.025
2021-08-19 09:00:06.516,-0.015,0.035
2021-08-19 09:00:06.520,0.005,0.07
2021-08-19 09:00:06.524,0.0,0.075
2021-08-19 09:00:06.528,0.0,0.055
2021-08-19 09:00:06.532,0.01,0.05
2021-08-19 09:00:06.536,-0.025,0.06
2021-08-19 09:00:06.540,-0.015,0.085
2021-08-19 09:00:06.544,-0.03,0.135
2021-08-19 09:00:06.548,-0.05,0.135
2021-08-19 09:00:06.552,-0.065,0.165
2021-08-19 09:00:06.556,-0.075,0.19
2021-08-19 09:00:06.560,-0.055,0.155
2021-08-19 09:00:06.564,-0.02,0.16
2021-08-19 09:00:06.568,-0.04,0.17
2021-08-19 09:00:06.572,-0.055,0.17
2021-08-19 09:00:06.576,-0.045,0.205
2021-08-19 09:00:06.580,-0.055,0.285
2021-08-19 09:00:06.584,-0.04,0.26
2021-08-19 09:00:06.588,-0.065,0.23
2021-08-19 09:00:06.592,-0.07,0.225
2021-08-19 09:00:06.596,-0.055,0.205
2021-08-19 09:00:06.600,-0.045,0.175
2021-08-19 09:00:06.604,-0.04,0.215
2021-08-19 09:00:06.608,-0.035,0.22
2021-08-19 09:00:06.612,-0.035,0.18
2021-08-19 09:00:06.616,-0.015,0.155
2021-08-19 09:00:06.620,-0.02,0.15
2021-08-19 09:00:06.624,-0.015,0.12
2021-08-19 09:00:06.628,-0.055,0.115
2021-08-19 09:00:06.632,-0.045,0.12
2021-08-19 09:00:06.636,-0.045,0.12
2021-08-19 09:00:06.640,-0.065,0.095
2021-08-19 09:00:06.644,-0.065,0.095
2021-08-19 09:00:06.648,-0.075,0.07
2021-08-19 09:00:06.652,-0.045,0.025
2021-08-19 09:00:06.656,-0.09,0.025
2021-08-19 09:00:06.660,-0.075,0.02
2021-08-19 09:00:06.664,-0.06,0.0
2021-08-19 09:00:06.668,-0.04,0.01
2021-08-19 09:00:06.672,-0.06,0.005
2021-08-19 09:00:06.676,-0.04,0.005
2021-08-19 09:00:06.680,-0.045,0.01
2021-08-19 09:00:06.684,-0.04,-0.015
2021-08-19 09:00:06.688,-0.055,-0.01
2021-08-19 09:00:06.692,-0.085,0.035
2021-08-19 09:00:06.696,-0.08,0.065
2021-08-19 09:00:06.700,-0.08,0.02
2021-08-19 09:00:06.704,-0.105,-0.015
2021-08-19 09:00:06.708,-0.085,-0.04
2021-08-19 09:00:06.712,-0.095,-0.03
2021-08-19 09:00:06.716,-0.09,-0.055
2021-08-19 09:00:06.720,-0.07,-0.055
2021-08-19 09:00:06.724,-0.08,-0.05
2021-08-19 09:00:06.728,-0.075,-0.01
2021-08-19 09:00:06.732,-0.06,0.04
2021-08-19 09:00:06.736,-0.02,0.005
2021-08-19 09:00:06.740,-0.045,0.005
2021-08-19 09:00:06.744,-0.075,0.03
2021-08-19 09:00:06.748,-0.105,0.035
2021-08-19 09:00:06.752,-0.09,0.025
2021-08-19 09:00:06.756,-0.105,0.01
2021-08-19 09:00:06.760,-0.125,0.015
2021-08-19 09:00:06.764,-0.125,0.04
2021-08-19 09:00:06.768,-0.1,0.05
2021-08-19 09:00:06.772,-0.08,0.045
2021-08-19 09:00:06.776,-0.065,0.03
2021-08-19 09:00:06.780,-0.055,0.06
2021-08-19 09:00:06.784,-0.075,0.11
2021-08-19 09:00:06.788,-0.09,0.13
2021-08-19 09:00:06.792,-0.085,0.15
2021-08-19 09:00:06.796,-0.095,0.12
2021-08-19 09:00:06.800,-0.075,0.095
2021-08-19 09:00:06.804,-0.07,0.1
2021-08-19 09:00:06.808,-0.06,0.07
2021-08-19 09:00:06.812,-0.05,0.07
2021-08-19 09:00:06.816,-0.045,0.02
2021-08-19 09:00:06.820,-0.045,0.005
2021-08-19 09:00:06.824,-0.07,-0.04
2021-08-19 09:00:06.828,-0.04,-0.03
2021-08-19 09:00:06.832,-0.04,-0.05
2021-08-19 09:00:06.836,-0.025,-0.04
2021-08-19 09:00:06.840,-0.015,-0.035
2021-08-19 09:00:06.844,-0.02,-0.025
2021-08-19 09:00:06.848,-0.045,-0.065
2021-08-19 09:00:06.852,-0.075,-0.01
2021-08-19 09:00:06.856,-0.08,-0.005
2021-08-19 09:00:06.860,-0.075,-0.035
2021-08-19 09:00:06.864,-0.06,-0.04
2021-08-19 09:00:06.868,-0.055,-0.045
2021-08-19 09:00:06.872,-0.05,-0.03
2021-08-19 09:00:06.876,-0.06,-0.05
2021-08-19 09:00:06.880,-0.06,-0.065
2021-08-19 09:00:06.884,-0.075,-0.015
2021-08-19 09:00:06.888,-0.065,-0.045
2021-08-19 09:00:06.892,-0.08,-0.105
2021-08-19 09:00:06.896,-0.065,-0.12
2021-08-19 09:00:06.900,-0.06,-0.08
2021-08-19 09:00:06.904,-0.05,-0.075
2021-08-19 09:00:06.908,-0.06,-0.1
2021-08-19 09:00:06.912,-0.06,-0.115
2021-08-19 09:00:06.916,-0.05,-0.08
2021-08-19 09:00:06.920,-0.045,-0.035
2021-08-19 09:00:06.924,-0.05,-0.06
2021-08-19 09:00:06.928,-0.08,-0.085
2021-08-19 09:00:06.932,-0.055,-0.1
2021-08-19 09:00:06.936,-0.045,-0.08
2021-08-19 09:00:06.940,-0.075,-0.065
2021-08-19 09:00:06.944,-0.08,-0.045
2021-08-19 09:00:06.948,-0.075,0.0
2021-08-19 09:00:06.952,-0.085,0.005
2021-08-19 09:00:06.956,-0.075,0.005
2021-08-19 09:00:06.960,-0.105,-0.025
2021-08-19 09:00:06.964,-0.13,-0.01
2021-08-19 09:00:06.968,-0.115,-0.03
2021-08-19 09:00:06.972,-0.125,-0.005
2021-08-19 09:00:06.976,-0.15,0.015
2021-08-19 09:00:06.980,-0.15,0.06
2021-08-19 09:00:06.984,-0.145,0.05
2021-08-19 09:00:06.988,-0.125,0.045
2021-08-19 09:00:06.992,-0.08,0.0
2021-08-19 09:00:06.996,-0.045,0.0
2021-08-19 09:00:07.000,-0.03,0.0
2021-08-19 09:00:07.004,-0.035,0.015
2021-08-19 09:00:07.008,-0.035,0.055
2021-08-19 09:00:07.012,-0.025,0.065
2021-08-19 09:00:07.016,-0.02,0.045
2021-08-19 09:00:07.020,-0.025,0.01
2021-08-19 09:00:07.024,-0.02,0.015
2021-08-19 09:00:07.028,0.005,0.015
2021-08-19 09:00:07.032,0.0,0.03
2021-08-19 09:00:07.036,-0.035,0.01
2021-08-19 09:00:07.040,-0.015,0.005
2021-08-19 09:00:07.044,0.005,0.015
2021-08-19 09:00:07.048,0.01,-0.025
2021-08-19 09:00:07.052,-0.01,-0.015
2021-08-19 09:00:07.056,-0.03,-0.02
2021-08-19 09:00:07.060,-0.035,0.01
2021-08-19 09:00:07.064,-0.01,0.015
2021-08-19 09:00:07.068,-0.03,0.005
2021-08-19 09:00:07.072,-0.03,-0.045
2021-08-19 09:00:07.076,-0.005,-0.015
2021-08-19 09:00:07.080,0.015,0.005
2021-08-19 09:00:07.084,0.055,0.0
2021-08-19 09:00:07.088,0.14,-0.03
2021-08-19 09:00:07.092,0.245,-0.06
2021-08-19 09:00:07.096,0.285,-0.05
2021-08-19 09:00:07.100,0.175,-0.015
2021-08-19 09:00:07.104,0.015,0.08
2021-08-19 09:00:07.108,-0.28,0.15
2021-08-19 09:00:07.112,-0.705,0.055
2021-08-19 09:00:07.116,-1.105,-0.255
2021-08-19 09:00:07.120,-1.45,-0.735
2021-08-19 09:00:07.124,-1.715,-1.305
2021-08-19 09:00:07.212,-0.385,-1.825
2021-08-19 09:00:07.216,-0.265,-1.515
2021-08-19 09:00:07.220,-0.115,-1.21
2021-08-19 09:00:07.224,0.025,-0.93
2021-08-19 09:00:07.228,0.08,-0.69
2021-08-19 09:00:07.232,0.17,-0.505
2021-08-19 09:00:07.236,0.225,-0.29
2021-08-19 09:00:07.240,0.25,-0.07
2021-08-19 09:00:07.244,0.235,0.1
2021-08-19 09:00:07.248,0.26,0.27
2021-08-19 09:00:07.252,0.285,0.405
2021-08-19 09:00:07.256,0.285,0.515
2021-08-19 09:00:07.260,0.32,0.545
2021-08-19 09:00:07.264,0.365,0.555
2021-08-19 09:00:07.268,0.37,0.575
2021-08-19 09:00:07.272,0.365,0.595
2021-08-19 09:00:07.276,0.36,0.63
2021-08-19 09:00:07.280,0.375,0.635
2021-08-19 09:00:07.284,0.385,0.68
2021-08-19 09:00:07.288,0.415,0.695
2021-08-19 09:00:07.292,0.42,0.725
2021-08-19 09:00:07.296,0.44,0.735
2021-08-19 09:00:07.300,0.45,0.755
2021-08-19 09:00:07.304,0.485,0.765
2021-08-19 09:00:07.308,0.495,0.735
2021-08-19 09:00:07.312,0.525,0.76
2021-08-19 09:00:07.316,0.545,0.82
2021-08-19 09:00:07.320,0.55,0.84
2021-08-19 09:00:07.324,0.555,0.865
2021-08-19 09:00:07.328,0.56,0.835
2021-08-19 09:00:07.332,0.585,0.87
2021-08-19 09:00:07.336,0.57,0.905
2021-08-19 09:00:07.340,0.57,0.905
2021-08-19 09:00:07.344,0.555,0.945
2021-08-19 09:00:07.348,0.575,0.975
2021-08-19 09:00:07.352,0.615,0.985
2021-08-19 09:00:07.356,0.635,0.99
2021-08-19 09:00:07.360,0.655,1.04
2021-08-19 09:00:07.364,0.72,1.06
2021-08-19 09:00:07.368,0.725,1.08
2021-08-19 09:00:07.372,0.755,1.125
2021-08-19 09:00:07.376,0.78,1.145
2021-08-19 09:00:07.380,0.81,1.175
2021-08-19 09:00:07.384,0.805,1.215
2021-08-19 09:00:07.388,0.815,1.24
2021-08-19 09:00:07.392,0.8,1.28
2021-08-19 09:00:07.396,0.81,1.275
2021-08-19 09:00:07.400,0.805,1.25
2021-08-19 09:00:07.404,0.8,1.255
2021-08-19 09:00:07.408,0.76,1.255
2021-08-19 09:00:07.412,0.755,1.23
2021-08-19 09:00:07.416,0.745,1.21
2021-08-19 09:00:07.420,0.735,1.225
2021-08-19 09:00:07.424,0.73,1.23
2021-08-19 09:00:07.428,0.66,1.215
2021-08-19 09:00:07.432,0.635,1.215
2021-08-19 09:00:07.436,0.595,1.21
2021-08-19 09:00:07.440,0.615,1.175
2021-08-19 09:00:07.444,0.555,1.11
2021-08-19 09:00:07.448,0.545,1.07
2021-08-19 09:00:07.452,0.435,1.065
2021-08-19 09:00:07.456,0.4,1.05
2021-08-19 09:00:07.460,0.34,1.0
2021-08-19 09:00:07.464,0.305,0.955
2021-08-19 09:00:07.468,0.255,0.875
2021-08-19 09:00:07.472,0.225,0.805
2021-08-19 09:00:07.476,0.18,0.73
2021-08-19 09:00:07.480,0.155,0.68
2021-08-19 09:00:07.484,0.155,0.6
2021-08-19 09:00:07.488,0.12,0.58
2021-08-19 09:00:07.492,0.09,0.51
2021-08-19 09:00:07.496,0.065,0.455
2021-08-19 09:00:07.500,0.055,0.39
2021-08-19 09:00:07.504,0.025,0.33
2021-08-19 09:00:07.508,0.025,0.27
2021-08-19 09:00:07.512,0.0,0.215
2021-08-19 09:00:07.516,0.015,0.18
2021-08-19 09:00:07.520,0.005,0.14
2021-08-19 09:00:07.524,-0.005,0.135
2021-08-19 09:00:07.528,0.0,0.11
2021-08-19 09:00:07.532,-0.01,0.125
2021-08-19 09:00:07.536,0.0,0.15
2021-08-19 09:00:07.540,0.0,0.105
2021-08-19 09:00:07.544,0.02,0.105
2021-08-19 09:00:07.548,0.035,0.07
2021-08-19 09:00:07.552,0.04,0.055
2021-08-19 09:00:07.556,0.04,0.065
2021-08-19 09:00:07.560,0.045,0.08
2021-08-19 09:00:07.564,0.06,0.115
2021-08-19 09:00:07.568,0.1,0.135
2021-08-19 09:00:07.572,0.14,0.085
2021-08-19 09:00:07.576,0.155,0.055
2021-08-19 09:00:07.580,0.185,0.03
2021-08-19 09:00:07.584,0.195,0.04
2021-08-19 09:00:07.588,0.18,0.04
2021-08-19 09:00:07.592,0.2,0.02
2021-08-19 09:00:07.596,0.225,0.07
2021-08-19 09:00:07.600,0.25,0.07
2021-08-19 09:00:07.604,0.26,0.08
2021-08-19 09:00:07.608,0.23,0.12
2021-08-19 09:00:07.612,0.215,0.145
2021-08-19 09:00:07.616,0.205,0.125
2021-08-19 09:00:07.620,0.22,0.155
2021-08-19 09:00:07.624,0.225,0.125
2021-08-19 09:00:07.628,0.215,0.135
2021-08-19 09:00:07.632,0.22,0.13
2021-08-19 09:00:07.636,0.205,0.12
2021-08-19 09:00:07.640,0.195,0.115
2021-08-19 09:00:07.644,0.195,0.17
2021-08-19 09:00:07.648,0.19,0.2
2021-08-19 09:00:07.652,0.205,0.18
2021-08-19 09:00:07.656,0.215,0.155
2021-08-19 09:00:07.660,0.185,0.155
2021-08-19 09:00:07.664,0.16,0.125
2021-08-19 09:00:07.668,0.125,0.13
2021-08-19 09:00:07.672,0.12,0.105
2021-08-19 09:00:07.676,0.125,0.09
2021-08-19 09:00:07.680,0.16,0.09
2021-08-19 09:00:07.684,0.19,0.08
2021-08-19 09:00:07.688,0.295,0.075
2021-08-19 09:00:07.692,0.48,0.065
2021-08-19 09:00:07.696,0.585,0.075
2021-08-19 09:00:07.700,0.53,0.075
2021-08-19 09:00:07.704,0.315,0.155
2021-08-19 09:00:07.708,0.01,0.235
2021-08-19 09:00:07.712,-0.435,0.165
2021-08-19 09:00:07.716,-0.935,-0.08
2021-08-19 09:00:07.720,-1.32,-0.475
2021-08-19 09:00:07.724,-1.58,-0.99
2021-08-19 09:00:07.728,-1.72,-1.755
2021-08-19 09:00:07.812,-0.05,-1.815
2021-08-19 09:00:07.816,0.11,-1.45
2021-08-19 09:00:07.820,0.25,-1.145
2021-08-19 09:00:07.824,0.355,-0.89
2021-08-19 09:00:07.828,0.415,-0.655
2021-08-19 09:00:07.832,0.455,-0.47
2021-08-19 09:00:07.836,0.495,-0.23
2021-08-19 09:00:07.840,0.5,-0.025
2021-08-19 09:00:07.844,0.49,0.11
2021-08-19 09:00:07.848,0.515,0.275
2021-08-19 09:00:07.852,0.525,0.415
2021-08-19 09:00:07.856,0.555,0.455
2021-08-19 09:00:07.860,0.565,0.48
2021-08-19 09:00:07.864,0.56,0.525
2021-08-19 09:00:07.868,0.53,0.54
2021-08-19 09:00:07.872,0.51,0.54
2021-08-19 09:00:07.876,0.51,0.57
2021-08-19 09:00:07.880,0.545,0.59
2021-08-19 09:00:07.884,0.555,0.595
2021-08-19 09:00:07.888,0.57,0.58
2021-08-19 09:00:07.892,0.595,0.575
2021-08-19 09:00:07.896,0.59,0.6
2021-08-19 09:00:07.900,0.615,0.635
2021-08-19 09:00:07.904,0.62,0.66
2021-08-19 09:00:07.908,0.63,0.655
2021-08-19 09:00:07.912,0.635,0.67
2021-08-19 09:00:07.916,0.63,0.71
2021-08-19 09:00:07.920,0.68,0.715
2021-08-19 09:00:07.924,0.67,0.73
2021-08-19 09:00:07.928,0.665,0.805
2021-08-19 09:00:07.932,0.675,0.825
2021-08-19 09:00:07.936,0.675,0.825
2021-08-19 09:00:07.940,0.67,0.825
2021-08-19 09:00:07.944,0.71,0.835
2021-08-19 09:00:07.948,0.725,0.865
2021-08-19 09:00:07.952,0.755,0.885
2021-08-19 09:00:07.956,0.74,0.9
2021-08-19 09:00:07.960,0.755,0.92
2021-08-19 09:00:07.964,0.815,0.94
2021-08-19 09:00:07.968,0.81,0.96
2021-08-19 09:00:07.972,0.85,1.01
2021-08-19 09:00:07.976,0.855,1.04
2021-08-19 09:00:07.980,0.81,1.08
2021-08-19 09:00:07.984,0.805,1.105
2021-08-19 09:00:07.988,0.845,1.11
2021-08-19 09:00:07.992,0.85,1.12
2021-08-19 09:00:07.996,0.86,1.13
2021-08-19 09:00:08.000,0.845,1.15
2021-08-19 09:00:08.004,0.865,1.16
2021-08-19 09:00:08.008,0.865,1.165
2021-08-19 09:00:08.012,0.885,1.14
2021-08-19 09:00:08.016,0.855,1.13
2021-08-19 09:00:08.020,0.845,1.115
2021-08-19 09:00:08.024,0.805,1.105
2021-08-19 09:00:08.028,0.75,1.05
2021-08-19 09:00:08.032,0.75,1.02
2021-08-19 09:00:08.036,0.72,0.955
2021-08-19 09:00:08.040,0.685,0.88
2021-08-19 09:00:08.044,0.61,0.865
2021-08-19 09:00:08.048,0.565,0.79
2021-08-19 09:00:08.052,0.535,0.735
2021-08-19 09:00:08.056,0.49,0.67
2021-08-19 09:00:08.060,0.45,0.565
2021-08-19 09:00:08.064,0.415,0.52
2021-08-19 09:00:08.068,0.385,0.455
2021-08-19 09:00:08.072,0.33,0.395
2021-08-19 09:00:08.076,0.34,0.355
2021-08-19 09:00:08.080,0.31,0.31
2021-08-19 09:00:08.084,0.275,0.275
2021-08-19 09:00:08.088,0.255,0.205
2021-08-19 09:00:08.092,0.245,0.2
2021-08-19 09:00:08.096,0.22,0.155
2021-08-19 09:00:08.100,0.18,0.125
2021-08-19 09:00:08.104,0.175,0.095
2021-08-19 09:00:08.108,0.155,0.1
2021-08-19 09:00:08.112,0.135,0.05
2021-08-19 09:00:08.116,0.135,0.055
2021-08-19 09:00:08.120,0.11,0.055
2021-08-19 09:00:08.124,0.095,0.06
2021-08-19 09:00:08.128,0.12,0.015
2021-08-19 09:00:08.132,0.13,0.015
2021-08-19 09:00:08.136,0.125,-0.025
2021-08-19 09:00:08.140,0.15,0.03
2021-08-19 09:00:08.144,0.15,0.09
2021-08-19 09:00:08.148,0.16,0.085
2021-08-19 09:00:08.152,0.175,0.03
2021-08-19 09:00:08.156,0.155,-0.025
2021-08-19 09:00:08.160,0.155,-0.01
2021-08-19 09:00:08.164,0.13,-0.015
2021-08-19 09:00:08.168,0.135,-0.01
2021-08-19 09:00:08.172,0.155,0.005
2021-08-19 09:00:08.176,0.13,0.015
2021-08-19 09:00:08.180,0.145,0.03
2021-08-19 09:00:08.184,0.155,0.02
2021-08-19 09:00:08.188,0.16,0.01
2021-08-19 09:00:08.192,0.18,0.005
2021-08-19 09:00:08.196,0.205,0.035
2021-08-19 09:00:08.200,0.215,0.01
2021-08-19 09:00:08.204,0.22,0.025
2021-08-19 09:00:08.208,0.24,0.0
2021-08-19 09:00:08.212,0.24,0.06
2021-08-19 09:00:08.216,0.27,0.09
2021-08-19 09:00:08.220,0.275,0.065
2021-08-19 09:00:08.224,0.28,0.06
2021-08-19 09:00:08.228,0.3,0.07
2021-08-19 09:00:08.232,0.32,0.07
2021-08-19 09:00:08.236,0.3,0.08
2021-08-19 09:00:08.240,0.315,0.11
2021-08-19 09:00:08.244,0.315,0.105
2021-08-19 09:00:08.248,0.295,0.045
2021-08-19 09:00:08.252,0.265,0.01
2021-08-19 09:00:08.256,0.23,-0.025
2021-08-19 09:00:08.260,0.22,-0.03
2021-08-19 09:00:08.264,0.22,-0.075
2021-08-19 09:00:08.268,0.215,-0.09
2021-08-19 09:00:08.272,0.185,-0.065
2021-08-19 09:00:08.276,0.15,-0.065
2021-08-19 09:00:08.280,0.125,-0.08
2021-08-19 09:00:08.284,0.1,-0.07
2021-08-19 09:00:08.288,0.08,-0.055
2021-08-19 09:00:08.292,0.065,-0.1
2021-08-19 09:00:08.296,0.06,-0.105
2021-08-19 09:00:08.300,0.025,-0.14
2021-08-19 09:00:08.304,0.02,-0.13
2021-08-19 09:00:08.308,0.015,-0.15
2021-08-19 09:00:08.312,0.015,-0.15
2021-08-19 09:00:08.316,0.005,-0.175
2021-08-19 09:00:08.320,0.005,-0.175
2021-08-19 09:00:08.324,0.0,-0.185
2021-08-19 09:00:08.328,0.0,-0.195
2021-08-19 09:00:08.332,0.01,-0.19
2021-08-19 09:00:08.336,-0.005,-0.16
2021-08-19 09:00:08.340,0.005,-0.16
2021-08-19 09:00:08.344,0.005,-0.15
2021-08-19 09:00:08.348,0.025,-0.16
2021-08-19 09:00:08.352,0.03,-0.175
2021-08-19 09:00:08.356,0.015,-0.145
2021-08-19 09:00:08.360,0.03,-0.15
2021-08-19 09:00:08.364,0.01,-0.12
2021-08-19 09:00:08.368,0.025,-0.15
2021-08-19 09:00:08.372,0.01,-0.185
2021-08-19 09:00:08.376,-0.02,-0.19
2021-08-19 09:00:08.380,0.0,-0.22
2021-08-19 09:00:08.384,0.0,-0.255
2021-08-19 09:00:08.388,0.03,-0.21
2021-08-19 09:00:08.392,0.015,-0.2
2021-08-19 09:00:08.396,0.065,-0.185
2021-08-19 09:00:08.400,0.08,-0.195
2021-08-19 09:00:08.404,0.075,-0.16
2021-08-19 09:00:08.408,0.08,-0.155
2021-08-19 09:00:08.412,0.085,-0.14
2021-08-19 09:00:08.416,0.08,-0.095
2021-08-19 09:00:08.420,0.085,-0.095
2021-08-19 09:00:08.424,0.075,-0.085
2021-08-19 09:00:08.428,0.07,-0.075
2021-08-19 09:00:08.432,0.075,-0.05
2021-08-19 09:00:08.436,0.09,-0.05
2021-08-19 09:00:08.440,0.1,-0.075
2021-08-19 09:00:08.444,0.095,-0.06
2021-08-19 09:00:08.448,0.1,-0.035
2021-08-19 09:00:08.452,0.07,0.015
2021-08-19 09:00:08.456,0.085,0.035
2021-08-19 09:00:08.460,0.11,0.02
2021-08-19 09:00:08.464,0.135,-0.005
2021-08-19 09:00:08.468,0.135,-0.02
2021-08-19 09:00:08.472,0.115,0.01
2021-08-19 09:00:08.476,0.095,0.035
2021-08-19 09:00:08.480,0.07,0.04
2021-08-19 09:00:08.484,0.045,-0.005
2021-08-19 09:00:08.488,0.035,-0.06
2021-08-19 09:00:08.492,0.015,-0.155
2021-08-19 09:00:08.496,0.02,-0.14
2021-08-19 09:00:08.500,0.04,-0.065
2021-08-19 09:00:08.504,0.04,-0.07
2021-08-19 09:00:08.508,0.085,-0.09
2021-08-19 09:00:08.512,0.19,-0.1
2021-08-19 09:00:08.516,0.295,-0.11
2021-08-19 09:00:08.520,0.305,-0.09
2021-08-19 09:00:08.524,0.17,-0.025
2021-08-19 09:00:08.528,-0.005,0.07
2021-08-19 09:00:08.532,-0.345,0.14
2021-08-19 09:00:08.536,-0.745,-0.04
2021-08-19 09:00:08.540,-1.12,-0.49
2021-08-19 09:00:08.544,-1.43,-1.04
2021-08-19 09:00:08.548,-1.61,-1.76
2021-08-19 09:00:08.632,-0.485,-1.85
2021-08-19 09:00:08.636,-0.355,-1.465
2021-08-19 09:00:08.640,-0.18,-1.085
2021-08-19 09:00:08.644,-0.02,-0.815
2021-08-19 09:00:08.648,0.08,-0.595
2021-08-19 09:00:08.652,0.135,-0.32
2021-08-19 09:00:08.656,0.19,-0.06
2021-08-19 09:00:08.660,0.195,0.12
2021-08-19 09:00:08.664,0.215,0.24
2021-08-19 09:00:08.668,0.225,0.36
2021-08-19 09:00:08.672,0.27,0.48
2021-08-19 09:00:08.676,0.31,0.575
2021-08-19 09:00:08.680,0.335,0.63
2021-08-19 09:00:08.684,0.355,0.635
2021-08-19 09:00:08.688,0.335,0.695
2021-08-19 09:00:08.692,0.36,0.75
2021-08-19 09:00:08.696,0.37,0.755
2021-08-19 09:00:08.700,0.38,0.715
2021-08-19 09:00:08.704,0.395,0.705
2021-08-19 09:00:08.708,0.395,0.73
2021-08-19 09:00:08.712,0.41,0.785
2021-08-19 09:00:08.716,0.415,0.83
2021-08-19 09:00:08.720,0.435,0.85
2021-08-19 09:00:08.724,0.45,0.845
2021-08-19 09:00:08.728,0.455,0.89
2021-08-19 09:00:08.732,0.465,0.9
2021-08-19 09:00:08.736,0.485,0.935
2021-08-19 09:00:08.740,0.47,0.945
2021-08-19 09:00:08.744,0.485,0.965
2021-08-19 09:00:08.748,0.475,0.995
2021-08-19 09:00:08.752,0.495,1.0
2021-08-19 09:00:08.756,0.505,0.96
2021-08-19 09:00:08.760,0.525,1.015
2021-08-19 09:00:08.764,0.53,1.025
2021-08-19 09:00:08.768,0.55,1.045
2021-08-19 09:00:08.772,0.535,1.065
2021-08-19 09:00:08.776,0.51,1.155
2021-08-19 09:00:08.780,0.515,1.135
2021-08-19 09:00:08.784,0.51,1.135
2021-08-19 09:00:08.788,0.53,1.195
2021-08-19 09:00:08.792,0.55,1.185
2021-08-19 09:00:08.796,0.57,1.18
2021-08-19 09:00:08.800,0.61,1.185
2021-08-19 09:00:08.804,0.615,1.245
2021-08-19 09:00:08.808,0.63,1.315
2021-08-19 09:00:08.812,0.645,1.37
2021-08-19 09:00:08.816,0.655,1.355
2021-08-19 09:00:08.820,0.65,1.37
2021-08-19 09:00:08.824,0.65,1.385
2021-08-19 09:00:08.828,0.625,1.41
2021-08-19 09:00:08.832,0.6,1.38
2021-08-19 09:00:08.836,0.545,1.395
2021-08-19 09:00:08.840,0.505,1.37
2021-08-19 09:00:08.844,0.445,1.385
2021-08-19 09:00:08.848,0.41,1.37
2021-08-19 09:00:08.852,0.345,1.295
2021-08-19 09:00:08.856,0.3,1.23
2021-08-19 09:00:08.860,0.245,1.17
2021-08-19 09:00:08.864,0.26,1.11
2021-08-19 09:00:08.868,0.205,1.025
2021-08-19 09:00:08.872,0.155,0.94
2021-08-19 09:00:08.876,0.125,0.88
2021-08-19 09:00:08.880,0.065,0.815
2021-08-19 09:00:08.884,0.025,0.725
2021-08-19 09:00:08.888,-0.005,0.645
2021-08-19 09:00:08.892,-0.05,0.57
2021-08-19 09:00:08.896,-0.085,0.5
2021-08-19 09:00:08.900,-0.115,0.43
2021-08-19 09:00:08.904,-0.125,0.37
2021-08-19 09:00:08.908,-0.135,0.295
2021-08-19 09:00:08.912,-0.18,0.25
2021-08-19 09:00:08.916,-0.17,0.215
2021-08-19 09:00:08.920,-0.16,0.175
2021-08-19 09:00:08.924,-0.145,0.165
2021-08-19 09:00:08.928,-0.14,0.11
2021-08-19 09:00:08.932,-0.165,0.135
2021-08-19 09:00:08.936,-0.15,0.125
2021-08-19 09:00:08.940,-0.185,0.155
2021-08-19 09:00:08.944,-0.19,0.155
2021-08-19 09:00:08.948,-0.215,0.155
2021-08-19 09:00:08.952,-0.23,0.16
2021-08-19 09:00:08.956,-0.21,0.155
2021-08-19 09:00:08.960,-0.185,0.095
2021-08-19 09:00:08.964,-0.185,0.08
2021-08-19 09:00:08.968,-0.16,0.095
2021-08-19 09:00:08.972,-0.125,0.1
2021-08-19 09:00:08.976,-0.1,0.075
2021-08-19 09:00:08.980,-0.08,0.115
2021-08-19 09:00:08.984,-0.065,0.14
2021-08-19 09:00:08.988,-0.08,0.135
2021-08-19 09:00:08.992,-0.075,0.17
2021-08-19 09:00:08.996,-0.065,0.21
2021-08-19 09:00:09.000,-0.07,0.175
2021-08-19 09:00:09.004,-0.075,0.235
2021-08-19 09:00:09.008,-0.065,0.24
2021-08-19 09:00:09.012,-0.055,0.25
2021-08-19 09:00:09.016,-0.025,0.27
2021-08-19 09:00:09.020,-0.025,0.285
2021-08-19 09:00:09.024,0.02,0.255
2021-08-19 09:00:09.028,0.03,0.29
2021-08-19 09:00:09.032,0.15,0.26
2021-08-19 09:00:09.036,0.3,0.285
2021-08-19 09:00:09.040,0.355,0.29
2021-08-19 09:00:09.044,0.26,0.34
2021-08-19 09:00:09.048,0.0,0.41
2021-08-19 09:00:09.052,-0.4,0.47
2021-08-19 09:00:09.056,-0.965,0.425
2021-08-19 09:00:09.060,-1.53,0.16
2021-08-19 09:00:09.064,-1.945,-0.325
2021-08-19 09:00:09.152,-0.56,-1.615
2021-08-19 09:00:09.156,-0.35,-1.265
2021-08-19 09:00:09.160,-0.195,-0.995
2021-08-19 09:00:09.164,-0.09,-0.74
2021-08-19 09:00:09.168,-0.04,-0.46
2021-08-19 09:00:09.172,0.015,-0.16
2021-08-19 09:00:09.176,0.03,0.055
2021-08-19 09:00:09.180,0.07,0.245
2021-08-19 09:00:09.184,0.09,0.39
2021-08-19 09:00:09.188,0.11,0.52
2021-08-19 09:00:09.192,0.11,0.59
2021-08-19 09:00:09.196,0.12,0.665
2021-08-19 09:00:09.200,0.145,0.705
2021-08-19 09:00:09.204,0.16,0.715
2021-08-19 09:00:09.208,0.165,0.77
2021-08-19 09:00:09.212,0.195,0.825
2021-08-19 09:00:09.216,0.19,0.785
2021-08-19 09:00:09.220,0.19,0.725
2021-08-19 09:00:09.224,0.195,0.755
2021-08-19 09:00:09.228,0.21,0.795
2021-08-19 09:00:09.232,0.23,0.805
2021-08-19 09:00:09.236,0.235,0.83
2021-08-19 09:00:09.240,0.245,0.85
2021-08-19 09:00:09.244,0.23,0.855
2021-08-19 09:00:09.248,0.235,0.885
2021-08-19 09:00:09.252,0.23,0.93
2021-08-19 09:00:09.256,0.26,0.935
2021-08-19 09:00:09.260,0.27,0.945
2021-08-19 09:00:09.264,0.28,0.965
2021-08-19 09:00:09.268,0.295,0.93
2021-08-19 09:00:09.272,0.315,0.99
2021-08-19 09:00:09.276,0.31,1.015
2021-08-19 09:00:09.280,0.33,1.025
2021-08-19 09:00:09.284,0.35,1.06
2021-08-19 09:00:09.288,0.37,1.08
2021-08-19 09:00:09.292,0.36,1.075
2021-08-19 09:00:09.296,0.38,1.065
2021-08-19 09:00:09.300,0.39,1.07
2021-08-19 09:00:09.304,0.39,1.08
2021-08-19 09:00:09.308,0.405,1.12
2021-08-19 09:00:09.312,0.38,1.19
2021-08-19 09:00:09.316,0.35,1.18
2021-08-19 09:00:09.320,0.34,1.18
2021-08-19 09:00:09.324,0.32,1.15
2021-08-19 09:00:09.328,0.33,1.11
2021-08-19 09:00:09.332,0.295,1.145
2021-08-19 09:00:09.336,0.285,1.14
2021-08-19 09:00:09.340,0.295,1.14
2021-08-19 09:00:09.344,0.26,1.12
2021-08-19 09:00:09.348,0.215,1.13
2021-08-19 09:00:09.352,0.19,1.125
2021-08-19 09:00:09.356,0.17,1.08
2021-08-19 09:00:09.360,0.1,1.06
2021-08-19 09:00:09.364,0.06,0.98
2021-08-19 09:00:09.368,0.03,0.945
2021-08-19 09:00:09.372,-0.005,0.88
2021-08-19 09:00:09.376,-0.055,0.785
2021-08-19 09:00:09.380,-0.075,0.755
2021-08-19 09:00:09.384,-0.1,0.715
2021-08-19 09:00:09.388,-0.145,0.64
2021-08-19 09:00:09.392,-0.18,0.575
2021-08-19 09:00:09.396,-0.205,0.515
2021-08-19 09:00:09.400,-0.215,0.46
2021-08-19 09:00:09.404,-0.24,0.455
2021-08-19 09:00:09.408,-0.29,0.47
2021-08-19 09:00:09.412,-0.33,0.4
2021-08-19 09:00:09.416,-0.35,0.3
2021-08-19 09:00:09.420,-0.375,0.265
2021-08-19 09:00:09.424,-0.37,0.205
2021-08-19 09:00:09.428,-0.385,0.22
2021-08-19 09:00:09.432,-0.395,0.265
2021-08-19 09:00:09.436,-0.395,0.28
2021-08-19 09:00:09.440,-0.405,0.255
2021-08-19 09:00:09.444,-0.41,0.225
2021-08-19 09:00:09.448,-0.42,0.21
2021-08-19 09:00:09.452,-0.4,0.215
2021-08-19 09:00:09.456,-0.375,0.225
2021-08-19 09:00:09.460,-0.355,0.23
2021-08-19 09:00:09.464,-0.36,0.255
2021-08-19 09:00:09.468,-0.37,0.26
2021-08-19 09:00:09.472,-0.36,0.26
2021-08-19 09:00:09.476,-0.365,0.245
2021-08-19 09:00:09.480,-0.33,0.205
2021-08-19 09:00:09.484,-0.32,0.17
2021-08-19 09:00:09.488,-0.32,0.185
2021-08-19 09:00:09.492,-0.34,0.225
2021-08-19 09:00:09.496,-0.345,0.215
2021-08-19 09:00:09.500,-0.34,0.175
2021-08-19 09:00:09.504,-0.345,0.14
2021-08-19 09:00:09.508,-0.345,0.155
2021-08-19 09:00:09.512,-0.36,0.175
2021-08-19 09:00:09.516,-0.395,0.195
2021-08-19 09:00:09.520,-0.41,0.18
2021-08-19 09:00:09.524,-0.405,0.175
2021-08-19 09:00:09.528,-0.38,0.135
2021-08-19 09:00:09.532,-0.355,0.11
2021-08-19 09:00:09.536,-0.345,0.075
2021-08-19 09:00:09.540,-0.33,0.13
2021-08-19 09:00:09.544,-0.31,0.12
2021-08-19 09:00:09.548,-0.315,0.13
2021-08-19 09:00:09.552,-0.305,0.13
2021-08-19 09:00:09.556,-0.35,0.13
2021-08-19 09:00:09.560,-0.345,0.155
2021-08-19 09:00:09.564,-0.345,0.2
2021-08-19 09:00:09.568,-0.38,0.2
2021-08-19 09:00:09.572,-0.385,0.155
2021-08-19 09:00:09.576,-0.39,0.14
2021-08-19 09:00:09.580,-0.405,0.135
2021-08-19 09:00:09.584,-0.425,0.14
2021-08-19 09:00:09.588,-0.425,0.125
2021-08-19 09:00:09.592,-0.42,0.135
2021-08-19 09:00:09.596,-0.41,0.175
2021-08-19 09:00:09.600,-0.445,0.115
2021-08-19 09:00:09.604,-0.45,0.09
2021-08-19 09:00:09.608,-0.465,0.11
2021-08-19 09:00:09.612,-0.48,0.11
2021-08-19 09:00:09.616,-0.49,0.07
2021-08-19 09:00:09.620,-0.525,0.08
2021-08-19 09:00:09.624,-0.535,0.09
2021-08-19 09:00:09.628,-0.6,0.13
2021-08-19 09:00:09.632,-0.62,0.12
2021-08-19 09:00:09.636,-0.62,0.055
2021-08-19 09:00:09.640,-0.64,-0.035
2021-08-19 09:00:09.644,-0.665,-0.065
2021-08-19 09:00:09.648,-0.685,-0.015
2021-08-19 09:00:09.652,-0.705,0.04
2021-08-19 09:00:09.656,-0.695,0.03
2021-08-19 09:00:09.660,-0.69,0.015
2021-08-19 09:00:09.664,-0.675,0.0
2021-08-19 09:00:09.668,-0.65,0.015
2021-08-19 09:00:09.672,-0.63,-0.015
2021-08-19 09:00:09.676,-0.6,-0.015
2021-08-19 09:00:09.680,-0.565,-0.02
2021-08-19 09:00:09.684,-0.555,-0.01
2021-08-19 09:00:09.688,-0.56,-0.01
2021-08-19 09:00:09.692,-0.55,-0.02
2021-08-19 09:00:09.696,-0.54,-0.05
2021-08-19 09:00:09.700,-0.49,-0.04
2021-08-19 09:00:09.704,-0.5,-0.05
2021-08-19 09:00:09.708,-0.52,-0.05
2021-08-19 09:00:09.712,-0.51,-0.08
2021-08-19 09:00:09.716,-0.505,-0.03
2021-08-19 09:00:09.720,-0.535,-0.01
2021-08-19 09:00:09.724,-0.52,0.0
2021-08-19 09:00:09.728,-0.495,-0.01
2021-08-19 09:00:09.732,-0.465,-0.055
2021-08-19 09:00:09.736,-0.435,-0.035
2021-08-19 09:00:09.740,-0.425,0.015
2021-08-19 09:00:09.744,-0.445,0.0
2021-08-19 09:00:09.748,-0.43,0.03
2021-08-19 09:00:09.752,-0.435,0.045
2021-08-19 09:00:09.756,-0.43,0.08
2021-08-19 09:00:09.760,-0.395,0.09
2021-08-19 09:00:09.764,-0.4,0.1
2021-08-19 09:00:09.768,-0.44,0.12
2021-08-19 09:00:09.772,-0.425,0.105
2021-08-19 09:00:09.776,-0.455,0.11
2021-08-19 09:00:09.780,-0.45,0.12
2021-08-19 09:00:09.784,-0.46,0.1
2021-08-19 09:00:09.788,-0.45,0.12
2021-08-19 09:00:09.792,-0.43,0.12
2021-08-19 09:00:09.796,-0.435,0.105
2021-08-19 09:00:09.800,-0.44,0.1
2021-08-19 09:00:09.804,-0.455,0.08
2021-08-19 09:00:09.808,-0.5,0.055
2021-08-19 09:00:09.812,-0.49,0.085
2021-08-19 09:00:09.816,-0.465,0.08
2021-08-19 09:00:09.820,-0.445,0.09
2021-08-19 09:00:09.824,-0.47,0.08
2021-08-19 09:00:09.828,-0.52,0.11
2021-08-19 09:00:09.832,-0.535,0.085
2021-08-19 09:00:09.836,-0.55,0.085
2021-08-19 09:00:09.840,-0.55,0.085
2021-08-19 09:00:09.844,-0.52,0.09
2021-08-19 09:00:09.848,-0.575,0.08
2021-08-19 09:00:09.852,-0.605,0.07
2021-08-19 09:00:09.856,-0.61,0.075
2021-08-19 09:00:09.860,-0.63,0.08
2021-08-19 09:00:09.864,-0.63,0.085
2021-08-19 09:00:09.868,-0.62,0.08
2021-08-19 09:00:09.872,-0.58,0.075
2021-08-19 09:00:09.876,-0.53,0.07
2021-08-19 09:00:09.880,-0.525,0.03
2021-08-19 09:00:09.884,-0.515,0.075
2021-08-19 09:00:09.888,-0.505,0.085
2021-08-19 09:00:09.892,-0.485,0.045
2021-08-19 09:00:09.896,-0.49,0.01
2021-08-19 09:00:09.900,-0.47,-0.01
2021-08-19 09:00:09.904,-0.45,-0.05
2021-08-19 09:00:09.908,-0.47,-0.03
2021-08-19 09:00:09.912,-0.48,-0.005
2021-08-19 09:00:09.916,-0.47,-0.025
2021-08-19 09:00:09.920,-0.43,-0.03
2021-08-19 09:00:09.924,-0.395,-0.03
2021-08-19 09:00:09.928,-0.39,-0.04
2021-08-19 09:00:09.932,-0.39,-0.055
2021-08-19 09:00:09.936,-0.32,-0.07
2021-08-19 09:00:09.940,-0.22,-0.075
2021-08-19 09:00:09.944,-0.12,-0.065
2021-08-19 09:00:09.948,-0.17,-0.03
2021-08-19 09:00:09.952,-0.375,0.03
2021-08-19 09:00:09.956,-0.68,0.16
2021-08-19 09:00:09.960,-1.11,0.1
2021-08-19 09:00:09.964,-1.575,-0.22
2021-08-19 09:00:09.968,-1.885,-0.71
2021-08-19 09:00:10.060,-1.06,-1.53
2021-08-19 09:00:10.064,-0.865,-1.125
2021-08-19 09:00:10.068,-0.685,-0.81
2021-08-19 09:00:10.072,-0.575,-0.54
2021-08-19 09:00:10.076,-0.465,-0.35
2021-08-19 09:00:10.080,-0.35,-0.13
2021-08-19 09:00:10.084,-0.29,0.05
2021-08-19 09:00:10.088,-0.285,0.215
2021-08-19 09:00:10.092,-0.265,0.415
2021-08-19 09:00:10.096,-0.235,0.545
2021-08-19 09:00:10.100,-0.23,0.645
2021-08-19 09:00:10.104,-0.22,0.69
2021-08-19 09:00:10.108,-0.225,0.695
2021-08-19 09:00:10.112,-0.23,0.705
2021-08-19 09:00:10.116,-0.2,0.72
2021-08-19 09:00:10.120,-0.175,0.735
2021-08-19 09:00:10.124,-0.15,0.74
2021-08-19 09:00:10.128,-0.13,0.77
2021-08-19 09:00:10.132,-0.13,0.77
2021-08-19 09:00:10.136,-0.12,0.78
2021-08-19 09:00:10.140,-0.105,0.81
2021-08-19 09:00:10.144,-0.065,0.81
2021-08-19 09:00:10.148,-0.015,0.815
2021-08-19 09:00:10.152,-0.01,0.85
2021-08-19 09:00:10.156,0.0,0.895
2021-08-19 09:00:10.160,0.005,0.925
2021-08-19 09:00:10.164,0.06,0.95
2021-08-19 09:00:10.168,0.065,0.97
2021-08-19 09:00:10.172,0.1,0.98
2021-08-19 09:00:10.176,0.125,1.025
2021-08-19 09:00:10.180,0.155,1.055
2021-08-19 09:00:10.184,0.14,1.085
2021-08-19 09:00:10.188,0.175,1.13
2021-08-19 09:00:10.192,0.175,1.145
2021-08-19 09:00:10.196,0.19,1.145
2021-08-19 09:00:10.200,0.165,1.16
2021-08-19 09:00:10.204,0.165,1.21
2021-08-19 09:00:10.208,0.17,1.27
2021-08-19 09:00:10.212,0.15,1.285
2021-08-19 09:00:10.216,0.11,1.265
2021-08-19 09:00:10.220,0.11,1.295
2021-08-19 09:00:10.224,0.145,1.31
2021-08-19 09:00:10.228,0.15,1.36
2021-08-19 09:00:10.232,0.175,1.39
2021-08-19 09:00:10.236,0.155,1.435
2021-08-19 09:00:10.240,0.145,1.425
2021-08-19 09:00:10.244,0.135,1.425
2021-08-19 09:00:10.248,0.095,1.46
2021-08-19 09:00:10.252,0.085,1.47
2021-08-19 09:00:10.256,0.07,1.465
2021-08-19 09:00:10.260,0.065,1.455
2021-08-19 09:00:10.264,0.01,1.435
2021-08-19 09:00:10.268,-0.02,1.455
2021-08-19 09:00:10.272,-0.025,1.43
2021-08-19 09:00:10.276,-0.06,1.415
2021-08-19 09:00:10.280,-0.12,1.395
2021-08-19 09:00:10.284,-0.15,1.33
2021-08-19 09:00:10.288,-0.19,1.305
2021-08-19 09:00:10.292,-0.225,1.29
2021-08-19 09:00:10.296,-0.28,1.25
2021-08-19 09:00:10.300,-0.32,1.16
2021-08-19 09:00:10.304,-0.35,1.08
2021-08-19 09:00:10.308,-0.39,0.995
2021-08-19 09:00:10.312,-0.43,0.91
2021-08-19 09:00:10.316,-0.45,0.815
2021-08-19 09:00:10.320,-0.5,0.735
2021-08-19 09:00:10.324,-0.49,0.645
2021-08-19 09:00:10.328,-0.485,0.57
2021-08-19 09:00:10.332,-0.495,0.51
2021-08-19 09:00:10.336,-0.495,0.455
2021-08-19 09:00:10.340,-0.51,0.45
2021-08-19 09:00:10.344,-0.5,0.43
2021-08-19 09:00:10.348,-0.5,0.4
2021-08-19 09:00:10.352,-0.49,0.345
2021-08-19 09:00:10.356,-0.49,0.28
2021-08-19 09:00:10.360,-0.52,0.26
2021-08-19 09:00:10.364,-0.475,0.255
2021-08-19 09:00:10.368,-0.47,0.25
2021-08-19 09:00:10.372,-0.48,0.23
2021-08-19 09:00:10.376,-0.51,0.225
2021-08-19 09:00:10.380,-0.54,0.265
2021-08-19 09:00:10.384,-0.575,0.25
2021-08-19 09:00:10.388,-0.6,0.23
2021-08-19 09:00:10.392,-0.625,0.24
2021-08-19 09:00:10.396,-0.63,0.23
2021-08-19 09:00:10.400,-0.61,0.2
2021-08-19 09:00:10.404,-0.605,0.235
2021-08-19 09:00:10.408,-0.615,0.23
2021-08-19 09:00:10.412,-0.665,0.25
2021-08-19 09:00:10.416,-0.66,0.255
2021-08-19 09:00:10.420,-0.66,0.23
2021-08-19 09:00:10.424,-0.675,0.245
2021-08-19 09:00:10.428,-0.675,0.25
2021-08-19 09:00:10.432,-0.655,0.275
2021-08-19 09:00:10.436,-0.625,0.255
2021-08-19 09:00:10.440,-0.63,0.29
2021-08-19 09:00:10.444,-0.61,0.285
2021-08-19 09:00:10.448,-0.56,0.28
2021-08-19 09:00:10.452,-0.6,0.295
2021-08-19 09:00:10.456,-0.68,0.295
2021-08-19 09:00:10.460,-0.755,0.295
2021-08-19 09:00:10.464,-0.735,0.28
2021-08-19 09:00:10.468,-0.69,0.28
2021-08-19 09:00:10.472,-0.68,0.29
2021-08-19 09:00:10.476,-0.685,0.28
2021-08-19 09:00:10.480,-0.69,0.26
2021-08-19 09:00:10.484,-0.67,0.26
2021-08-19 09:00:10.488,-0.655,0.29
2021-08-19 09:00:10.492,-0.64,0.28
2021-08-19 09:00:10.496,-0.64,0.315
2021-08-19 09:00:10.500,-0.655,0.305
2021-08-19 09:00:10.504,-0.65,0.29
2021-08-19 09:00:10.508,-0.67,0.275
2021-08-19 09:00:10.512,-0.68,0.28
2021-08-19 09:00:10.516,-0.65,0.3
2021-08-19 09:00:10.520,-0.605,0.275
2021-08-19 09:00:10.524,-0.58,0.26
2021-08-19 09:00:10.528,-0.56,0.25
2021-08-19 09:00:10.532,-0.545,0.295
2021-08-19 09:00:10.536,-0.565,0.305
2021-08-19 09:00:10.540,-0.54,0.31
2021-08-19 09:00:10.544,-0.54,0.29
2021-08-19 09:00:10.548,-0.54,0.32
2021-08-19 09:00:10.552,-0.54,0.345
2021-08-19 09:00:10.556,-0.555,0.335
2021-08-19 09:00:10.560,-0.575,0.33
2021-08-19 09:00:10.564,-0.56,0.3
2021-08-19 09:00:10.568,-0.56,0.27
2021-08-19 09:00:10.572,-0.525,0.235
2021-08-19 09:00:10.576,-0.47,0.215
2021-08-19 09:00:10.580,-0.395,0.205
2021-08-19 09:00:10.584,-0.31,0.24
2021-08-19 09:00:10.588,-0.2,0.21
2021-08-19 09:00:10.592,-0.175,0.19
2021-08-19 09:00:10.596,-0.29,0.235
2021-08-19 09:00:10.600,-0.565,0.31
2021-08-19 09:00:10.604,-0.96,0.375
2021-08-19 09:00:10.608,-1.475,0.26
2021-08-19 09:00:10.612,-1.92,-0.07
2021-08-19 09:00:10.708,-1.415,-1.86
2021-08-19 09:00:10.712,-1.19,-1.39
2021-08-19 09:00:10.716,-0.935,-1.025
2021-08-19 09:00:10.720,-0.78,-0.78
2021-08-19 09:00:10.724,-0.69,-0.545
2021-08-19 09:00:10.728,-0.585,-0.295
2021-08-19 09:00:10.732,-0.53,-0.06
2021-08-19 09:00:10.736,-0.52,0.17
2021-08-19 09:00:10.740,-0.5,0.35
2021-08-19 09:00:10.744,-0.46,0.52
2021-08-19 09:00:10.748,-0.45,0.655
2021-08-19 09:00:10.752,-0.455,0.73
2021-08-19 09:00:10.756,-0.44,0.755
2021-08-19 09:00:10.760,-0.375,0.8
2021-08-19 09:00:10.764,-0.33,0.805
2021-08-19 09:00:10.768,-0.325,0.84
2021-08-19 09:00:10.772,-0.295,0.87
2021-08-19 09:00:10.776,-0.27,0.92
2021-08-19 09:00:10.780,-0.23,0.975
2021-08-19 09:00:10.784,-0.195,0.99
2021-08-19 09:00:10.788,-0.17,0.97
2021-08-19 09:00:10.792,-0.155,0.99
2021-08-19 09:00:10.796,-0.105,1.06
2021-08-19 09:00:10.800,-0.06,1.08
2021-08-19 09:00:10.804,-0.065,1.12
2021-08-19 09:00:10.808,-0.125,1.095
2021-08-19 09:00:10.812,-0.165,1.115
2021-08-19 09:00:10.816,-0.195,1.095
2021-08-19 09:00:10.820,-0.2,1.115
2021-08-19 09:00:10.824,-0.17,1.135
2021-08-19 09:00:10.828,-0.155,1.14
2021-08-19 09:00:10.832,-0.125,1.135
2021-08-19 09:00:10.836,-0.09,1.12
2021-08-19 09:00:10.840,-0.09,1.16
2021-08-19 09:00:10.844,-0.065,1.19
2021-08-19 09:00:10.848,-0.085,1.195
2021-08-19 09:00:10.852,-0.11,1.205
2021-08-19 09:00:10.856,-0.11,1.23
2021-08-19 09:00:10.860,-0.09,1.235
2021-08-19 09:00:10.864,-0.085,1.27
2021-08-19 09:00:10.868,-0.08,1.31
2021-08-19 09:00:10.872,-0.04,1.315
2021-08-19 09:00:10.876,-0.015,1.355
2021-08-19 09:00:10.880,-0.08,1.37
2021-08-19 09:00:10.884,-0.17,1.385
2021-08-19 09:00:10.888,-0.235,1.375
2021-08-19 09:00:10.892,-0.24,1.385
2021-08-19 09:00:10.896,-0.245,1.365
2021-08-19 09:00:10.900,-0.265,1.375
2021-08-19 09:00:10.904,-0.265,1.345
2021-08-19 09:00:10.908,-0.275,1.35
2021-08-19 09:00:10.912,-0.315,1.33
2021-08-19 09:00:10.916,-0.34,1.305
2021-08-19 09:00:10.920,-0.365,1.285
2021-08-19 09:00:10.924,-0.425,1.265
2021-08-19 09:00:10.928,-0.465,1.24
2021-08-19 09:00:10.932,-0.485,1.155
2021-08-19 09:00:10.936,-0.535,1.085
2021-08-19 09:00:10.940,-0.55,1.04
2021-08-19 09:00:10.944,-0.54,1.01
2021-08-19 09:00:10.948,-0.575,0.93
2021-08-19 09:00:10.952,-0.64,0.865
2021-08-19 09:00:10.956,-0.695,0.81
2021-08-19 09:00:10.960,-0.75,0.725
2021-08-19 09:00:10.964,-0.75,0.68
2021-08-19 09:00:10.968,-0.705,0.615
2021-08-19 09:00:10.972,-0.655,0.58
2021-08-19 09:00:10.976,-0.665,0.56
2021-08-19 09:00:10.980,-0.73,0.545
2021-08-19 09:00:10.984,-0.76,0.485
2021-08-19 09:00:10.988,-0.775,0.46
2021-08-19 09:00:10.992,-0.765,0.445
2021-08-19 09:00:10.996,-0.78,0.425
2021-08-19 09:00:11.000,-0.765,0.395
2021-08-19 09:00:11.004,-0.755,0.37
2021-08-19 09:00:11.008,-0.74,0.365
2021-08-19 09:00:11.012,-0.76,0.375
2021-08-19 09:00:11.016,-0.755,0.32
2021-08-19 09:00:11.020,-0.75,0.285
2021-08-19 09:00:11.024,-0.74,0.255
2021-08-19 09:00:11.028,-0.765,0.245
2021-08-19 09:00:11.032,-0.815,0.225
2021-08-19 09:00:11.036,-0.81,0.225
2021-08-19 09:00:11.040,-0.83,0.205
2021-08-19 09:00:11.044,-0.835,0.18
2021-08-19 09:00:11.048,-0.845,0.215
2021-08-19 09:00:11.052,-0.905,0.205
2021-08-19 09:00:11.056,-0.93,0.195
2021-08-19 09:00:11.060,-0.905,0.205
2021-08-19 09:00:11.064,-0.885,0.23
2021-08-19 09:00:11.068,-0.89,0.205
2021-08-19 09:00:11.072,-0.875,0.185
2021-08-19 09:00:11.076,-0.85,0.185
2021-08-19 09:00:11.080,-0.89,0.185
2021-08-19 09:00:11.084,-0.945,0.175
2021-08-19 09:00:11.088,-0.975,0.185
2021-08-19 09:00:11.092,-0.955,0.205
2021-08-19 09:00:11.096,-0.95,0.19
2021-08-19 09:00:11.100,-0.91,0.185
2021-08-19 09:00:11.104,-0.9,0.145
2021-08-19 09:00:11.108,-0.905,0.145
2021-08-19 09:00:11.112,-0.945,0.125
2021-08-19 09:00:11.116,-0.985,0.115
2021-08-19 09:00:11.120,-0.99,0.15
2021-08-19 09:00:11.124,-0.95,0.135
2021-08-19 09:00:11.128,-0.915,0.15
2021-08-19 09:00:11.132,-0.885,0.15
2021-08-19 09:00:11.136,-0.895,0.15
2021-08-19 09:00:11.140,-0.865,0.165
2021-08-19 09:00:11.144,-0.88,0.16
2021-08-19 09:00:11.148,-0.905,0.155
2021-08-19 09:00:11.152,-0.91,0.16
2021-08-19 09:00:11.156,-0.87,0.15
2021-08-19 09:00:11.160,-0.895,0.175
2021-08-19 09:00:11.164,-0.905,0.16
2021-08-19 09:00:11.168,-0.9,0.145
2021-08-19 09:00:11.172,-0.87,0.14
2021-08-19 09:00:11.176,-0.85,0.13
2021-08-19 09:00:11.180,-0.88,0.14
2021-08-19 09:00:11.184,-0.88,0.15
2021-08-19 09:00:11.188,-0.835,0.16
2021-08-19 09:00:11.192,-0.815,0.165
2021-08-19 09:00:11.196,-0.82,0.165
2021-08-19 09:00:11.200,-0.845,0.165
2021-08-19 09:00:11.204,-0.84,0.165
2021-08-19 09:00:11.208,-0.82,0.165
2021-08-19 09:00:11.212,-0.725,0.18
2021-08-19 09:00:11.216,-0.62,0.16
2021-08-19 09:00:11.220,-0.53,0.155
2021-08-19 09:00:11.224,-0.6,0.18
2021-08-19 09:00:11.228,-0.75,0.205
2021-08-19 09:00:11.232,-1.005,0.285
2021-08-19 09:00:11.236,-1.38,0.26
2021-08-19 09:00:11.240,-1.84,-0.06
2021-08-19 09:00:11.340,-1.34,-1.665
2021-08-19 09:00:11.344,-1.15,-1.23
2021-08-19 09:00:11.348,-0.945,-0.85
2021-08-19 09:00:11.352,-0.79,-0.615
2021-08-19 09:00:11.356,-0.69,-0.4
2021-08-19 09:00:11.360,-0.635,-0.175
2021-08-19 09:00:11.364,-0.56,0.055
2021-08-19 09:00:11.368,-0.54,0.275
2021-08-19 09:00:11.372,-0.57,0.44
2021-08-19 09:00:11.376,-0.565,0.585
2021-08-19 09:00:11.380,-0.54,0.665
2021-08-19 09:00:11.384,-0.48,0.73
2021-08-19 09:00:11.388,-0.44,0.75
2021-08-19 09:00:11.392,-0.42,0.82
2021-08-19 09:00:11.396,-0.4,0.87
2021-08-19 09:00:11.400,-0.375,0.855
2021-08-19 09:00:11.404,-0.315,0.87
2021-08-19 09:00:11.408,-0.27,0.91
2021-08-19 09:00:11.412,-0.225,0.945
2021-08-19 09:00:11.416,-0.22,0.965
2021-08-19 09:00:11.420,-0.235,0.985
2021-08-19 09:00:11.424,-0.205,1.015
2021-08-19 09:00:11.428,-0.175,1.055
2021-08-19 09:00:11.432,-0.145,1.065
2021-08-19 09:00:11.436,-0.1,1.075
2021-08-19 09:00:11.440,-0.06,1.15
2021-08-19 09:00:11.444,-0.045,1.17
2021-08-19 09:00:11.448,-0.04,1.205
2021-08-19 09:00:11.452,0.015,1.23
2021-08-19 09:00:11.456,0.035,1.235
2021-08-19 09:00:11.460,0.025,1.23
2021-08-19 09:00:11.464,-0.01,1.23
2021-08-19 09:00:11.468,-0.08,1.235
2021-08-19 09:00:11.472,-0.11,1.25
2021-08-19 09:00:11.476,-0.075,1.275
2021-08-19 09:00:11.480,-0.045,1.295
2021-08-19 09:00:11.484,-0.015,1.3
2021-08-19 09:00:11.488,-0.05,1.295
2021-08-19 09:00:11.492,-0.04,1.31
2021-08-19 09:00:11.496,-0.005,1.34
2021-08-19 09:00:11.500,-0.01,1.35
2021-08-19 09:00:11.504,-0.04,1.365
2021-08-19 09:00:11.508,-0.07,1.41
2021-08-19 09:00:11.512,-0.06,1.43
2021-08-19 09:00:11.516,-0.05,1.44
2021-08-19 09:00:11.520,-0.055,1.475
2021-08-19 09:00:11.524,-0.08,1.495
2021-08-19 09:00:11.528,-0.075,1.475
2021-08-19 09:00:11.532,-0.065,1.48
2021-08-19 09:00:11.536,-0.075,1.49
2021-08-19 09:00:11.540,-0.08,1.5
2021-08-19 09:00:11.544,-0.145,1.455
2021-08-19 09:00:11.548,-0.22,1.455
2021-08-19 09:00:11.552,-0.285,1.44
2021-08-19 09:00:11.556,-0.31,1.385
2021-08-19 09:00:11.560,-0.345,1.33
2021-08-19 09:00:11.564,-0.33,1.305
2021-08-19 09:00:11.568,-0.37,1.255
2021-08-19 09:00:11.572,-0.435,1.185
2021-08-19 09:00:11.576,-0.495,1.11
2021-08-19 09:00:11.580,-0.535,1.03
2021-08-19 09:00:11.584,-0.55,0.965
2021-08-19 09:00:11.588,-0.59,0.93
2021-08-19 09:00:11.592,-0.605,0.835
2021-08-19 09:00:11.596,-0.615,0.785
2021-08-19 09:00:11.600,-0.65,0.71
2021-08-19 09:00:11.604,-0.68,0.63
2021-08-19 09:00:11.608,-0.68,0.56
2021-08-19 09:00:11.612,-0.7,0.52
2021-08-19 09:00:11.616,-0.725,0.44
2021-08-19 09:00:11.620,-0.705,0.405
2021-08-19 09:00:11.624,-0.71,0.345
2021-08-19 09:00:11.628,-0.68,0.34
2021-08-19 09:00:11.632,-0.655,0.335
2021-08-19 09:00:11.636,-0.615,0.34
2021-08-19 09:00:11.640,-0.635,0.33
2021-08-19 09:00:11.644,-0.71,0.295
2021-08-19 09:00:11.648,-0.775,0.285
2021-08-19 09:00:11.652,-0.83,0.26
2021-08-19 09:00:11.656,-0.855,0.26
2021-08-19 09:00:11.660,-0.835,0.25
2021-08-19 09:00:11.664,-0.78,0.24
2021-08-19 09:00:11.668,-0.765,0.22
2021-08-19 09:00:11.672,-0.815,0.23
2021-08-19 09:00:11.676,-0.85,0.23
2021-08-19 09:00:11.680,-0.82,0.265
2021-08-19 09:00:11.684,-0.835,0.275
2021-08-19 09:00:11.688,-0.825,0.265
2021-08-19 09:00:11.692,-0.805,0.26
2021-08-19 09:00:11.696,-0.78,0.26
2021-08-19 09:00:11.700,-0.77,0.25
2021-08-19 09:00:11.704,-0.74,0.26
2021-08-19 09:00:11.708,-0.7,0.275
2021-08-19 09:00:11.712,-0.725,0.265
2021-08-19 09:00:11.716,-0.74,0.255
2021-08-19 09:00:11.720,-0.7,0.255
2021-08-19 09:00:11.724,-0.645,0.26
2021-08-19 09:00:11.728,-0.585,0.275
2021-08-19 09:00:11.732,-0.555,0.265
2021-08-19 09:00:11.736,-0.52,0.24
2021-08-19 09:00:11.740,-0.515,0.26
2021-08-19 09:00:11.744,-0.505,0.25
2021-08-19 09:00:11.748,-0.535,0.255
2021-08-19 09:00:11.752,-0.565,0.265
2021-08-19 09:00:11.756,-0.59,0.27
2021-08-19 09:00:11.760,-0.65,0.255
2021-08-19 09:00:11.764,-0.655,0.27
2021-08-19 09:00:11.768,-0.63,0.26
2021-08-19 09:00:11.772,-0.6,0.25
2021-08-19 09:00:11.776,-0.6,0.22
2021-08-19 09:00:11.780,-0.57,0.19
2021-08-19 09:00:11.784,-0.575,0.22
2021-08-19 09:00:11.788,-0.58,0.205
2021-08-19 09:00:11.792,-0.585,0.21
2021-08-19 09:00:11.796,-0.565,0.195
2021-08-19 09:00:11.800,-0.565,0.19
2021-08-19 09:00:11.804,-0.57,0.18
2021-08-19 09:00:11.808,-0.585,0.175
2021-08-19 09:00:11.812,-0.55,0.175
2021-08-19 09:00:11.816,-0.52,0.165
2021-08-19 09:00:11.820,-0.495,0.14
2021-08-19 09:00:11.824,-0.515,0.175
2021-08-19 09:00:11.828,-0.525,0.135
2021-08-19 09:00:11.832,-0.57,0.135
2021-08-19 09:00:11.836,-0.635,0.135
2021-08-19 09:00:11.840,-0.665,0.14
2021-08-19 09:00:11.844,-0.665,0.135
2021-08-19 09:00:11.848,-0.625,0.125
2021-08-19 09:00:11.852,-0.63,0.115
2021-08-19 09:00:11.856,-0.635,0.12
2021-08-19 09:00:11.860,-0.63,0.105
2021-08-19 09:00:11.864,-0.625,0.09
2021-08-19 09:00:11.868,-0.62,0.085
2021-08-19 09:00:11.872,-0.63,0.07
2021-08-19 09:00:11.876,-0.62,0.1
2021-08-19 09:00:11.880,-0.615,0.09
2021-08-19 09:00:11.884,-0.62,0.085
2021-08-19 09:00:11.888,-0.65,0.075
2021-08-19 09:00:11.892,-0.695,0.08
2021-08-19 09:00:11.896,-0.69,0.075
2021-08-19 09:00:11.900,-0.66,0.085
2021-08-19 09:00:11.904,-0.66,0.075
2021-08-19 09:00:11.908,-0.675,0.09
2021-08-19 09:00:11.912,-0.68,0.08
2021-08-19 09:00:11.916,-0.68,0.1
2021-08-19 09:00:11.920,-0.665,0.09
2021-08-19 09:00:11.924,-0.67,0.095
2021-08-19 09:00:11.928,-0.615,0.075
2021-08-19 09:00:11.932,-0.495,0.09
2021-08-19 09:00:11.936,-0.46,0.065
2021-08-19 09:00:11.940,-0.42,0.035
2021-08-19 09:00:11.944,-0.375,0.065
2021-08-19 09:00:11.948,-0.37,0.055
2021-08-19 09:00:11.952,-0.415,0.09
2021-08-19 09:00:11.956,-0.45,0.095
2021-08-19 09:00:11.960,-0.425,0.075
2021-08-19 09:00:11.964,-0.385,0.075
2021-08-19 09:00:11.968,-0.36,0.065
2021-08-19 09:00:11.972,-0.365,0.08
2021-08-19 09:00:11.976,-0.37,0.06
2021-08-19 09:00:11.980,-0.45,0.04
2021-08-19 09:00:11.984,-0.49,0.035
2021-08-19 09:00:11.988,-0.475,0.01
2021-08-19 09:00:11.992,-0.45,0.015
2021-08-19 09:00:11.996,-0.385,0.03
2021-08-19 09:00:12.000,-0.345,0.03
2021-08-19 09:00:12.004,-0.335,0.04
2021-08-19 09:00:12.008,-0.35,0.04
2021-08-19 09:00:12.012,-0.365,0.05
2021-08-19 09:00:12.016,-0.435,0.055
2021-08-19 09:00:12.020,-0.465,0.045
2021-08-19 09:00:12.024,-0.425,0.07
2021-08-19 09:00:12.028,-0.395,0.07
2021-08-19 09:00:12.032,-0.47,0.045
2021-08-19 09:00:12.036,-0.535,0.04
2021-08-19 09:00:12.040,-0.48,0.05
2021-08-19 09:00:12.044,-0.46,0.03
2021-08-19 09:00:12.048,-0.445,0.01
2021-08-19 09:00:12.052,-0.36,0.0
2021-08-19 09:00:12.056,-0.265,-0.005
2021-08-19 09:00:12.060,-0.195,0.0
2021-08-19 09:00:12.064,-0.27,0.03
2021-08-19 09:00:12.068,-0.44,0.095
2021-08-19 09:00:12.072,-0.7,0.195
2021-08-19 09:00:12.076,-1.11,0.185
2021-08-19 09:00:12.080,-1.565,-0.105
2021-08-19 09:00:12.084,-1.93,-0.575
2021-08-19 09:00:12.176,-0.665,-1.805
2021-08-19 09:00:12.180,-0.54,-1.415
2021-08-19 09:00:12.184,-0.375,-1.085
2021-08-19 09:00:12.188,-0.23,-0.815
2021-08-19 09:00:12.192,-0.14,-0.615
2021-08-19 09:00:12.196,-0.09,-0.46
2021-08-19 09:00:12.200,-0.02,-0.28
2021-08-19 09:00:12.204,0.025,-0.085
2021-08-19 09:00:12.208,0.04,0.095
2021-08-19 09:00:12.212,0.105,0.25
2021-08-19 09:00:12.216,0.12,0.39
2021-08-19 09:00:12.220,0.115,0.5
2021-08-19 09:00:12.224,0.15,0.575
2021-08-19 09:00:12.228,0.175,0.59
2021-08-19 09:00:12.232,0.175,0.595
2021-08-19 09:00:12.236,0.17,0.635
2021-08-19 09:00:12.240,0.18,0.645
2021-08-19 09:00:12.244,0.175,0.685
2021-08-19 09:00:12.248,0.155,0.675
2021-08-19 09:00:12.252,0.18,0.71
2021-08-19 09:00:12.256,0.23,0.72
2021-08-19 09:00:12.260,0.24,0.725
2021-08-19 09:00:12.264,0.235,0.725
2021-08-19 09:00:12.268,0.25,0.75
2021-08-19 09:00:12.272,0.275,0.755
2021-08-19 09:00:12.276,0.285,0.75
2021-08-19 09:00:12.280,0.305,0.745
2021-08-19 09:00:12.284,0.35,0.755
2021-08-19 09:00:12.288,0.375,0.79
2021-08-19 09:00:12.292,0.38,0.82
2021-08-19 09:00:12.296,0.405,0.86
2021-08-19 09:00:12.300,0.455,0.86
2021-08-19 09:00:12.304,0.49,0.875
2021-08-19 09:00:12.308,0.48,0.93
2021-08-19 09:00:12.312,0.44,0.96
2021-08-19 09:00:12.316,0.485,0.995
2021-08-19 09:00:12.320,0.525,1.025
2021-08-19 09:00:12.324,0.585,1.075
2021-08-19 09:00:12.328,0.61,1.08
2021-08-19 09:00:12.332,0.555,1.095
2021-08-19 09:00:12.336,0.52,1.15
2021-08-19 09:00:12.340,0.555,1.165
2021-08-19 09:00:12.344,0.57,1.205
2021-08-19 09:00:12.348,0.59,1.225
2021-08-19 09:00:12.352,0.59,1.295
2021-08-19 09:00:12.356,0.61,1.295
2021-08-19 09:00:12.360,0.6,1.35
2021-08-19 09:00:12.364,0.625,1.375
2021-08-19 09:00:12.368,0.645,1.39
2021-08-19 09:00:12.372,0.65,1.38
2021-08-19 09:00:12.376,0.64,1.365
2021-08-19 09:00:12.380,0.635,1.365
2021-08-19 09:00:12.384,0.64,1.39
2021-08-19 09:00:12.388,0.59,1.38
2021-08-19 09:00:12.392,0.535,1.33
2021-08-19 09:00:12.396,0.46,1.29
2021-08-19 09:00:12.400,0.4,1.245
2021-08-19 09:00:12.404,0.365,1.165
2021-08-19 09:00:12.408,0.31,1.11
2021-08-19 09:00:12.412,0.285,1.055
2021-08-19 09:00:12.416,0.275,0.975
2021-08-19 09:00:12.420,0.25,0.915
2021-08-19 09:00:12.424,0.21,0.835
2021-08-19 09:00:12.428,0.17,0.725
2021-08-19 09:00:12.432,0.13,0.675
2021-08-19 09:00:12.436,0.075,0.58
2021-08-19 09:00:12.440,0.06,0.535
2021-08-19 09:00:12.444,0.07,0.47
2021-08-19 09:00:12.448,0.025,0.405
2021-08-19 09:00:12.452,-0.005,0.34
2021-08-19 09:00:12.456,-0.05,0.305
2021-08-19 09:00:12.460,-0.04,0.24
2021-08-19 09:00:12.464,-0.025,0.215
2021-08-19 09:00:12.468,-0.055,0.2
2021-08-19 09:00:12.472,-0.065,0.145
2021-08-19 09:00:12.476,-0.045,0.115
2021-08-19 09:00:12.480,-0.07,0.085
2021-08-19 09:00:12.484,-0.14,0.07
2021-08-19 09:00:12.488,-0.135,0.055
2021-08-19 09:00:12.492,-0.12,0.06
2021-08-19 09:00:12.496,-0.11,0.035
2021-08-19 09:00:12.500,-0.09,0.03
2021-08-19 09:00:12.504,-0.12,0.0
2021-08-19 09:00:12.508,-0.15,0.01
2021-08-19 09:00:12.512,-0.135,0.03
2021-08-19 09:00:12.516,-0.11,0.0
2021-08-19 09:00:12.520,-0.13,0.005
2021-08-19 09:00:12.524,-0.12,0.02
2021-08-19 09:00:12.528,-0.075,0.045
2021-08-19 09:00:12.532,-0.105,0.025
2021-08-19 09:00:12.536,-0.09,0.02
2021-08-19 09:00:12.540,-0.04,0.05
2021-08-19 09:00:12.544,0.05,0.07
2021-08-19 09:00:12.548,0.105,0.09
2021-08-19 09:00:12.552,0.115,0.12
2021-08-19 09:00:12.556,0.125,0.16
2021-08-19 09:00:12.560,0.125,0.19
2021-08-19 09:00:12.564,0.15,0.185
2021-08-19 09:00:12.568,0.175,0.195
2021-08-19 09:00:12.572,0.185,0.2
2021-08-19 09:00:12.576,0.17,0.215
2021-08-19 09:00:12.580,0.11,0.22
2021-08-19 09:00:12.584,0.05,0.19
2021-08-19 09:00:12.588,0.08,0.185
2021-08-19 09:00:12.592,0.13,0.165
2021-08-19 09:00:12.596,0.115,0.145
2021-08-19 09:00:12.600,0.095,0.14
2021-08-19 09:00:12.604,0.06,0.145
2021-08-19 09:00:12.608,0.06,0.14
2021-08-19 09:00:12.612,0.05,0.14
2021-08-19 09:00:12.616,0.075,0.14
2021-08-19 09:00:12.620,0.11,0.14
2021-08-19 09:00:12.624,0.16,0.115
2021-08-19 09:00:12.628,0.24,0.1
2021-08-19 09:00:12.632,0.37,0.055
2021-08-19 09:00:12.636,0.45,0.075
2021-08-19 09:00:12.640,0.37,0.115
2021-08-19 09:00:12.644,0.185,0.13
2021-08-19 09:00:12.648,-0.13,0.2
2021-08-19 09:00:12.652,-0.535,0.1
2021-08-19 09:00:12.656,-0.99,-0.205
2021-08-19 09:00:12.660,-1.42,-0.595
2021-08-19 09:00:12.664,-1.685,-1.14
2021-08-19 09:00:12.668,-1.825,-1.99
2021-08-19 09:00:12.748,-0.375,-1.795
2021-08-19 09:00:12.752,-0.28,-1.45
2021-08-19 09:00:12.756,-0.125,-1.1
2021-08-19 09:00:12.760,0.025,-0.805
2021-08-19 09:00:12.764,0.16,-0.55
2021-08-19 09:00:12.768,0.225,-0.335
2021-08-19 09:00:12.772,0.27,-0.13
2021-08-19 09:00:12.776,0.275,0.05
2021-08-19 09:00:12.780,0.275,0.195
2021-08-19 09:00:12.784,0.275,0.285
2021-08-19 09:00:12.788,0.295,0.395
2021-08-19 09:00:12.792,0.34,0.43
2021-08-19 09:00:12.796,0.355,0.48
2021-08-19 09:00:12.800,0.365,0.52
2021-08-19 09:00:12.804,0.405,0.55
2021-08-19 09:00:12.808,0.425,0.595
2021-08-19 09:00:12.812,0.41,0.605
2021-08-19 09:00:12.816,0.45,0.635
2021-08-19 09:00:12.820,0.465,0.655
2021-08-19 09:00:12.824,0.455,0.69
2021-08-19 09:00:12.828,0.43,0.685
2021-08-19 09:00:12.832,0.425,0.71
2021-08-19 09:00:12.836,0.42,0.7
2021-08-19 09:00:12.840,0.44,0.745
2021-08-19 09:00:12.844,0.465,0.75
2021-08-19 09:00:12.848,0.48,0.765
2021-08-19 09:00:12.852,0.515,0.78
2021-08-19 09:00:12.856,0.525,0.775
2021-08-19 09:00:12.860,0.535,0.78
2021-08-19 09:00:12.864,0.545,0.81
2021-08-19 09:00:12.868,0.56,0.85
2021-08-19 09:00:12.872,0.555,0.895
2021-08-19 09:00:12.876,0.57,0.9
2021-08-19 09:00:12.880,0.595,0.92
2021-08-19 09:00:12.884,0.63,0.945
2021-08-19 09:00:12.888,0.655,0.985
2021-08-19 09:00:12.892,0.67,1.03
2021-08-19 09:00:12.896,0.65,1.065
2021-08-19 09:00:12.900,0.645,1.09
2021-08-19 09:00:12.904,0.64,1.11
2021-08-19 09:00:12.908,0.705,1.135
2021-08-19 09:00:12.912,0.69,1.155
2021-08-19 09:00:12.916,0.67,1.205
2021-08-19 09:00:12.920,0.635,1.21
2021-08-19 09:00:12.924,0.645,1.215
2021-08-19 09:00:12.928,0.61,1.245
2021-08-19 09:00:12.932,0.615,1.265
2021-08-19 09:00:12.936,0.595,1.245
2021-08-19 09:00:12.940,0.585,1.245
2021-08-19 09:00:12.944,0.57,1.225
2021-08-19 09:00:12.948,0.505,1.215
2021-08-19 09:00:12.952,0.475,1.16
2021-08-19 09:00:12.956,0.42,1.115
2021-08-19 09:00:12.960,0.385,1.08
2021-08-19 09:00:12.964,0.35,1.045
2021-08-19 09:00:12.968,0.325,1.02
2021-08-19 09:00:12.972,0.27,0.94
2021-08-19 09:00:12.976,0.23,0.87
2021-08-19 09:00:12.980,0.18,0.815
2021-08-19 09:00:12.984,0.145,0.76
2021-08-19 09:00:12.988,0.095,0.72
2021-08-19 09:00:12.992,0.05,0.645
2021-08-19 09:00:12.996,0.025,0.56
2021-08-19 09:00:13.000,0.03,0.495
2021-08-19 09:00:13.004,-0.01,0.44
2021-08-19 09:00:13.008,-0.015,0.38
2021-08-19 09:00:13.012,-0.02,0.32
2021-08-19 09:00:13.016,-0.08,0.28
2021-08-19 09:00:13.020,-0.105,0.23
2021-08-19 09:00:13.024,-0.12,0.19
2021-08-19 09:00:13.028,-0.135,0.18
2021-08-19 09:00:13.032,-0.135,0.16
2021-08-19 09:00:13.036,-0.015,0.145
2021-08-19 09:00:13.040,0.01,0.13
2021-08-19 09:00:13.044,0.035,0.09
2021-08-19 09:00:13.048,-0.05,0.065
2021-08-19 09:00:13.052,-0.18,0.05
2021-08-19 09:00:13.056,-0.205,0.02
2021-08-19 09:00:13.060,-0.17,-0.005
2021-08-19 09:00:13.064,-0.15,-0.04
2021-08-19 09:00:13.068,-0.13,-0.01
2021-08-19 09:00:13.072,-0.08,-0.03
2021-08-19 09:00:13.076,-0.075,-0.045
2021-08-19 09:00:13.080,-0.05,-0.04
2021-08-19 09:00:13.084,-0.055,-0.01
2021-08-19 09:00:13.088,-0.055,-0.045
2021-08-19 09:00:13.092,-0.06,0.0
2021-08-19 09:00:13.096,-0.045,0.01
2021-08-19 09:00:13.100,-0.045,0.01
2021-08-19 09:00:13.104,-0.06,0.005
2021-08-19 09:00:13.108,-0.04,0.005
2021-08-19 09:00:13.112,-0.04,0.015
2021-08-19 09:00:13.116,-0.05,0.025
2021-08-19 09:00:13.120,-0.07,0.025
2021-08-19 09:00:13.124,-0.08,0.055
2021-08-19 09:00:13.128,-0.025,0.035
2021-08-19 09:00:13.132,-0.035,0.04
2021-08-19 09:00:13.136,-0.025,0.04
2021-08-19 09:00:13.140,-0.035,0.015
2021-08-19 09:00:13.144,-0.025,0.035
2021-08-19 09:00:13.148,-0.04,0.04
2021-08-19 09:00:13.152,-0.045,0.03
2021-08-19 09:00:13.156,-0.025,0.0
2021-08-19 09:00:13.160,-0.03,0.0
2021-08-19 09:00:13.164,-0.02,-0.01
2021-08-19 09:00:13.168,-0.04,-0.01
2021-08-19 09:00:13.172,-0.02,-0.015
2021-08-19 09:00:13.176,-0.01,0.025
2021-08-19 09:00:13.180,0.0,0.035
2021-08-19 09:00:13.184,0.02,0.025
2021-08-19 09:00:13.188,0.01,0.025
2021-08-19 09:00:13.192,0.0,0.04
2021-08-19 09:00:13.196,-0.015,0.035
2021-08-19 09:00:13.200,-0.04,0.065
2021-08-19 09:00:13.204,-0.015,0.07
2021-08-19 09:00:13.208,-0.01,0.045
2021-08-19 09:00:13.212,0.005,0.04
2021-08-19 09:00:13.216,-0.01,0.05
2021-08-19 09:00:13.220,-0.045,0.035
2021-08-19 09:00:13.224,-0.02,0.025
2021-08-19 09:00:13.228,-0.025,0.035
2021-08-19 09:00:13.232,-0.01,0.05
2021-08-19 09:00:13.236,-0.035,0.045
2021-08-19 09:00:13.240,-0.045,0.045
2021-08-19 09:00:13.244,-0.085,0.04
2021-08-19 09:00:13.248,-0.09,0.035
2021-08-19 09:00:13.252,-0.055,0.02
2021-08-19 09:00:13.256,-0.06,0.015
2021-08-19 09:00:13.260,-0.1,-0.005
2021-08-19 09:00:13.264,-0.125,-0.025
2021-08-19 09:00:13.268,-0.12,-0.09
2021-08-19 09:00:13.272,-0.095,-0.1
2021-08-19 09:00:13.276,-0.08,-0.105
2021-08-19 09:00:13.280,-0.065,-0.105
2021-08-19 09:00:13.284,-0.04,-0.08
2021-08-19 09:00:13.288,-0.03,-0.07
2021-08-19 09:00:13.292,-0.02,-0.09
2021-08-19 09:00:13.296,-0.02,-0.05
2021-08-19 09:00:13.300,-0.01,-0.025
2021-08-19 09:00:13.304,-0.045,-0.01
2021-08-19 09:00:13.308,-0.065,-0.03
2021-08-19 09:00:13.312,-0.055,-0.02
2021-08-19 09:00:13.316,-0.035,-0.01
2021-08-19 09:00:13.320,-0.055,-0.045
2021-08-19 09:00:13.324,-0.115,-0.035
2021-08-19 09:00:13.328,-0.15,-0.09
2021-08-19 09:00:13.332,-0.155,-0.08
2021-08-19 09:00:13.336,-0.135,-0.08
2021-08-19 09:00:13.340,-0.105,-0.03
2021-08-19 09:00:13.344,-0.095,-0.03
2021-08-19 09:00:13.348,-0.1,-0.03
2021-08-19 09:00:13.352,-0.12,-0.015
2021-08-19 09:00:13.356,-0.1,-0.02
2021-08-19 09:00:13.360,-0.09,0.005
2021-08-19 09:00:13.364,-0.09,-0.015
2021-08-19 09:00:13.368,-0.075,-0.01
2021-08-19 09:00:13.372,-0.015,-0.04
2021-08-19 09:00:13.376,0.01,-0.035
2021-08-19 09:00:13.380,0.055,-0.04
2021-08-19 09:00:13.384,0.125,-0.03
2021-08-19 09:00:13.388,0.24,-0.005
2021-08-19 09:00:13.392,0.315,0.02
2021-08-19 09:00:13.396,0.26,0.065
2021-08-19 09:00:13.400,0.09,0.165
2021-08-19 09:00:13.404,-0.205,0.235
2021-08-19 09:00:13.408,-0.605,0.17
2021-08-19 09:00:13.412,-1.02,-0.2
2021-08-19 09:00:13.416,-1.375,-0.685
2021-08-19 09:00:13.420,-1.615,-1.325
2021-08-19 09:00:13.508,-0.62,-1.585
2021-08-19 09:00:13.512,-0.475,-1.245
2021-08-19 09:00:13.516,-0.32,-1.01
2021-08-19 09:00:13.520,-0.195,-0.795
2021-08-19 09:00:13.524,-0.115,-0.54
2021-08-19 09:00:13.528,-0.03,-0.31
2021-08-19 09:00:13.532,-0.005,-0.115
2021-08-19 09:00:13.536,0.015,0.05
2021-08-19 09:00:13.540,0.025,0.235
2021-08-19 09:00:13.544,0.035,0.37
2021-08-19 09:00:13.548,0.085,0.47
2021-08-19 09:00:13.552,0.11,0.515
2021-08-19 09:00:13.556,0.145,0.535
2021-08-19 09:00:13.560,0.16,0.58
2021-08-19 09:00:13.564,0.185,0.59
2021-08-19 09:00:13.568,0.225,0.625
2021-08-19 09:00:13.572,0.235,0.67
2021-08-19 09:00:13.576,0.28,0.7
2021-08-19 09:00:13.580,0.31,0.725
2021-08-19 09:00:13.584,0.32,0.765
2021-08-19 09:00:13.588,0.36,0.795
2021-08-19 09:00:13.592,0.4,0.825
2021-08-19 09:00:13.596,0.42,0.845
2021-08-19 09:00:13.600,0.435,0.875
2021-08-19 09:00:13.604,0.43,0.885
2021-08-19 09:00:13.608,0.45,0.935
2021-08-19 09:00:13.612,0.45,0.95
2021-08-19 09:00:13.616,0.47,0.98
2021-08-19 09:00:13.620,0.465,1.02
2021-08-19 09:00:13.624,0.49,1.025
2021-08-19 09:00:13.628,0.46,1.055
2021-08-19 09:00:13.632,0.45,1.035
2021-08-19 09:00:13.636,0.47,1.045
2021-08-19 09:00:13.640,0.475,1.065
2021-08-19 09:00:13.644,0.465,1.105
2021-08-19 09:00:13.648,0.49,1.13
2021-08-19 09:00:13.652,0.49,1.18
2021-08-19 09:00:13.656,0.515,1.215
2021-08-19 09:00:13.660,0.51,1.24
2021-08-19 09:00:13.664,0.515,1.265
2021-08-19 09:00:13.668,0.525,1.31
2021-08-19 09:00:13.672,0.525,1.36
2021-08-19 09:00:13.676,0.505,1.365
2021-08-19 09:00:13.680,0.51,1.395
2021-08-19 09:00:13.684,0.51,1.415
2021-08-19 09:00:13.688,0.525,1.415
2021-08-19 09:00:13.692,0.52,1.415
2021-08-19 09:00:13.696,0.495,1.39
2021-08-19 09:00:13.700,0.485,1.39
2021-08-19 09:00:13.704,0.455,1.38
2021-08-19 09:00:13.708,0.435,1.355
2021-08-19 09:00:13.712,0.375,1.32
2021-08-19 09:00:13.716,0.335,1.295
2021-08-19 09:00:13.720,0.29,1.245
2021-08-19 09:00:13.724,0.245,1.19
2021-08-19 09:00:13.728,0.205,1.14
2021-08-19 09:00:13.732,0.18,1.04
2021-08-19 09:00:13.736,0.145,0.98
2021-08-19 09:00:13.740,0.095,0.885
2021-08-19 09:00:13.744,0.04,0.83
2021-08-19 09:00:13.748,0.01,0.75
2021-08-19 09:00:13.752,-0.025,0.675
2021-08-19 09:00:13.756,-0.07,0.615
2021-08-19 09:00:13.760,-0.05,0.555
2021-08-19 09:00:13.764,-0.045,0.495
2021-08-19 09:00:13.768,-0.04,0.445
2021-08-19 09:00:13.772,-0.04,0.405
2021-08-19 09:00:13.776,-0.05,0.385
2021-08-19 09:00:13.780,-0.065,0.335
2021-08-19 09:00:13.784,-0.06,0.3
2021-08-19 09:00:13.788,-0.055,0.265
2021-08-19 09:00:13.792,-0.08,0.225
2021-08-19 09:00:13.796,-0.085,0.19
2021-08-19 09:00:13.800,-0.07,0.165
2021-08-19 09:00:13.804,-0.08,0.14
2021-08-19 09:00:13.808,-0.07,0.105
2021-08-19 09:00:13.812,-0.025,0.11
2021-08-19 09:00:13.816,-0.03,0.125
2021-08-19 09:00:13.820,-0.03,0.13
2021-08-19 09:00:13.824,-0.03,0.14
2021-08-19 09:00:13.828,-0.05,0.14
2021-08-19 09:00:13.832,-0.04,0.135
2021-08-19 09:00:13.836,-0.04,0.125
2021-08-19 09:00:13.840,-0.015,0.14
2021-08-19 09:00:13.844,-0.015,0.15
2021-08-19 09:00:13.848,-0.035,0.175
2021-08-19 09:00:13.852,-0.005,0.165
2021-08-19 09:00:13.856,0.01,0.19
2021-08-19 09:00:13.860,-0.015,0.195
2021-08-19 09:00:13.864,-0.015,0.205
2021-08-19 09:00:13.868,0.0,0.23
2021-08-19 09:00:13.872,0.015,0.255
2021-08-19 09:00:13.876,0.015,0.25
2021-08-19 09:00:13.880,0.0,0.245
2021-08-19 09:00:13.884,-0.04,0.22
2021-08-19 09:00:13.888,-0.07,0.21
2021-08-19 09:00:13.892,-0.08,0.17
2021-08-19 09:00:13.896,-0.06,0.12
2021-08-19 09:00:13.900,-0.07,0.135
2021-08-19 09:00:13.904,-0.07,0.12
2021-08-19 09:00:13.908,-0.075,0.125
2021-08-19 09:00:13.912,-0.055,0.12
2021-08-19 09:00:13.916,-0.01,0.12
2021-08-19 09:00:13.920,0.045,0.12
2021-08-19 09:00:13.924,0.15,0.145
2021-08-19 09:00:13.928,0.335,0.15
2021-08-19 09:00:13.932,0.485,0.165
2021-08-19 09:00:13.936,0.44,0.2
2021-08-19 09:00:13.940,0.275,0.265
2021-08-19 09:00:13.944,-0.015,0.325
2021-08-19 09:00:13.948,-0.49,0.285
2021-08-19 09:00:13.952,-0.96,0.005
2021-08-19 09:00:13.956,-1.385,-0.43
2021-08-19 09:00:13.960,-1.665,-0.95
2021-08-19 09:00:13.964,-1.735,-1.835
2021-08-19 09:00:14.044,-0.355,-1.68
2021-08-19 09:00:14.048,-0.26,-1.295
2021-08-19 09:00:14.052,-0.175,-0.975
2021-08-19 09:00:14.056,-0.065,-0.68
2021-08-19 09:00:14.060,0.035,-0.47
2021-08-19 09:00:14.064,0.11,-0.215
2021-08-19 09:00:14.068,0.17,0.025
2021-08-19 09:00:14.072,0.23,0.225
2021-08-19 09:00:14.076,0.265,0.345
2021-08-19 09:00:14.080,0.25,0.485
2021-08-19 09:00:14.084,0.245,0.58
2021-08-19 09:00:14.088,0.27,0.625
2021-08-19 09:00:14.092,0.295,0.64
2021-08-19 09:00:14.096,0.28,0.63
2021-08-19 09:00:14.100,0.31,0.63
2021-08-19 09:00:14.104,0.325,0.64
2021-08-19 09:00:14.108,0.355,0.665
2021-08-19 09:00:14.112,0.36,0.67
2021-08-19 09:00:14.116,0.395,0.695
2021-08-19 09:00:14.120,0.435,0.68
2021-08-19 09:00:14.124,0.475,0.69
2021-08-19 09:00:14.128,0.525,0.75
2021-08-19 09:00:14.132,0.52,0.795
2021-08-19 09:00:14.136,0.545,0.8
2021-08-19 09:00:14.140,0.59,0.825
2021-08-19 09:00:14.144,0.585,0.865
2021-08-19 09:00:14.148,0.585,0.88
2021-08-19 09:00:14.152,0.595,0.91
2021-08-19 09:00:14.156,0.615,0.93
2021-08-19 09:00:14.160,0.64,0.965
2021-08-19 09:00:14.164,0.675,0.98
2021-08-19 09:00:14.168,0.705,1.005
2021-08-19 09:00:14.172,0.72,1.025
2021-08-19 09:00:14.176,0.725,1.05
2021-08-19 09:00:14.180,0.755,1.1
2021-08-19 09:00:14.184,0.755,1.125
2021-08-19 09:00:14.188,0.75,1.135
2021-08-19 09:00:14.192,0.75,1.175
2021-08-19 09:00:14.196,0.735,1.18
2021-08-19 09:00:14.200,0.74,1.22
2021-08-19 09:00:14.204,0.725,1.24
2021-08-19 09:00:14.208,0.695,1.255
2021-08-19 09:00:14.212,0.695,1.24
2021-08-19 09:00:14.216,0.72,1.245
2021-08-19 09:00:14.220,0.735,1.26
2021-08-19 09:00:14.224,0.715,1.265
2021-08-19 09:00:14.228,0.71,1.295
2021-08-19 09:00:14.232,0.695,1.295
2021-08-19 09:00:14.236,0.66,1.28
2021-08-19 09:00:14.240,0.645,1.265
2021-08-19 09:00:14.244,0.625,1.265
2021-08-19 09:00:14.248,0.565,1.235
2021-08-19 09:00:14.252,0.525,1.21
2021-08-19 09:00:14.256,0.48,1.155
2021-08-19 09:00:14.260,0.435,1.12
2021-08-19 09:00:14.264,0.375,1.075
2021-08-19 09:00:14.268,0.315,1.035
2021-08-19 09:00:14.272,0.315,0.96
2021-08-19 09:00:14.276,0.27,0.885
2021-08-19 09:00:14.280,0.26,0.79
2021-08-19 09:00:14.284,0.22,0.69
2021-08-19 09:00:14.288,0.23,0.6
2021-08-19 09:00:14.292,0.195,0.51
2021-08-19 09:00:14.296,0.16,0.465
2021-08-19 09:00:14.300,0.13,0.42
2021-08-19 09:00:14.304,0.1,0.365
2021-08-19 09:00:14.308,0.07,0.295
2021-08-19 09:00:14.312,0.055,0.265
2021-08-19 09:00:14.316,0.085,0.245
2021-08-19 09:00:14.320,0.1,0.17
2021-08-19 09:00:14.324,0.1,0.15
2021-08-19 09:00:14.328,0.085,0.14
2021-08-19 09:00:14.332,0.085,0.11
2021-08-19 09:00:14.336,0.1,0.11
2021-08-19 09:00:14.340,0.105,0.125
2021-08-19 09:00:14.344,0.105,0.095
2021-08-19 09:00:14.348,0.12,0.13
2021-08-19 09:00:14.352,0.13,0.13
2021-08-19 09:00:14.356,0.15,0.12
2021-08-19 09:00:14.360,0.17,0.12
2021-08-19 09:00:14.364,0.15,0.135
2021-08-19 09:00:14.368,0.14,0.145
2021-08-19 09:00:14.372,0.16,0.145
2021-08-19 09:00:14.376,0.165,0.13
2021-08-19 09:00:14.380,0.175,0.135
2021-08-19 09:00:14.384,0.17,0.14
2021-08-19 09:00:14.388,0.185,0.16
2021-08-19 09:00:14.392,0.145,0.17
2021-08-19 09:00:14.396,0.18,0.175
2021-08-19 09:00:14.400,0.16,0.175
2021-08-19 09:00:14.404,0.135,0.155
2021-08-19 09:00:14.408,0.105,0.135
2021-08-19 09:00:14.412,0.075,0.16
2021-08-19 09:00:14.416,0.045,0.155
2021-08-19 09:00:14.420,0.05,0.15
2021-08-19 09:00:14.424,0.065,0.125
2021-08-19 09:00:14.428,0.085,0.11
2021-08-19 09:00:14.432,0.065,0.09
2021-08-19 09:00:14.436,0.06,0.125
2021-08-19 09:00:14.440,0.035,0.085
2021-08-19 09:00:14.444,0.025,0.095
2021-08-19 09:00:14.448,0.015,0.085
2021-08-19 09:00:14.452,0.0,0.11
2021-08-19 09:00:14.456,0.015,0.12
2021-08-19 09:00:14.460,0.065,0.115
2021-08-19 09:00:14.464,0.07,0.1
2021-08-19 09:00:14.468,0.125,0.055
2021-08-19 09:00:14.472,0.21,0.04
2021-08-19 09:00:14.476,0.22,0.05
2021-08-19 09:00:14.480,0.14,0.08
2021-08-19 09:00:14.484,0.04,0.155
2021-08-19 09:00:14.488,-0.21,0.17
2021-08-19 09:00:14.492,-0.57,0.05
2021-08-19 09:00:14.496,-0.92,-0.365
2021-08-19 09:00:14.500,-1.27,-0.86
2021-08-19 09:00:14.504,-1.505,-1.47
2021-08-19 09:00:14.588,-0.155,-1.985
2021-08-19 09:00:14.592,-0.035,-1.58
2021-08-19 09:00:14.596,0.075,-1.23
2021-08-19 09:00:14.600,0.2,-0.925
2021-08-19 09:00:14.604,0.285,-0.635
2021-08-19 09:00:14.608,0.34,-0.435
2021-08-19 09:00:14.612,0.395,-0.23
2021-08-19 09:00:14.616,0.425,-0.015
2021-08-19 09:00:14.620,0.45,0.18
2021-08-19 09:00:14.624,0.44,0.33
2021-08-19 09:00:14.628,0.475,0.48
2021-08-19 09:00:14.632,0.495,0.575
2021-08-19 09:00:14.636,0.51,0.655
2021-08-19 09:00:14.640,0.52,0.71
2021-08-19 09:00:14.644,0.535,0.745
2021-08-19 09:00:14.648,0.54,0.755
2021-08-19 09:00:14.652,0.535,0.79
2021-08-19 09:00:14.656,0.535,0.79
2021-08-19 09:00:14.660,0.56,0.835
2021-08-19 09:00:14.664,0.59,0.88
2021-08-19 09:00:14.668,0.625,0.89
2021-08-19 09:00:14.672,0.615,0.91
2021-08-19 09:00:14.676,0.62,0.935
2021-08-19 09:00:14.680,0.615,0.96
2021-08-19 09:00:14.684,0.625,0.96
2021-08-19 09:00:14.688,0.7,0.975
2021-08-19 09:00:14.692,0.76,1.005
2021-08-19 09:00:14.696,0.79,1.015
2021-08-19 09:00:14.700,0.79,1.03
2021-08-19 09:00:14.704,0.765,1.05
2021-08-19 09:00:14.708,0.795,1.05
2021-08-19 09:00:14.712,0.84,1.07
2021-08-19 09:00:14.716,0.84,1.105
2021-08-19 09:00:14.720,0.85,1.14
2021-08-19 09:00:14.724,0.885,1.155
2021-08-19 09:00:14.728,0.87,1.175
2021-08-19 09:00:14.732,0.855,1.21
2021-08-19 09:00:14.736,0.865,1.24
2021-08-19 09:00:14.740,0.92,1.25
2021-08-19 09:00:14.744,0.94,1.27
2021-08-19 09:00:14.748,0.96,1.29
2021-08-19 09:00:14.752,0.955,1.32
2021-08-19 09:00:14.756,0.955,1.34
2021-08-19 09:00:14.760,0.965,1.355
2021-08-19 09:00:14.764,0.99,1.36
2021-08-19 09:00:14.768,0.975,1.42
2021-08-19 09:00:14.772,0.975,1.41
2021-08-19 09:00:14.776,0.895,1.425
2021-08-19 09:00:14.780,0.845,1.43
2021-08-19 09:00:14.784,0.8,1.42
2021-08-19 09:00:14.788,0.78,1.405
2021-08-19 09:00:14.792,0.745,1.375
2021-08-19 09:00:14.796,0.685,1.315
2021-08-19 09:00:14.800,0.66,1.25
2021-08-19 09:00:14.804,0.615,1.22
2021-08-19 09:00:14.808,0.58,1.17
2021-08-19 09:00:14.812,0.55,1.095
2021-08-19 09:00:14.816,0.525,1.05
2021-08-19 09:00:14.820,0.47,1.01
2021-08-19 09:00:14.824,0.44,0.935
2021-08-19 09:00:14.828,0.425,0.855
2021-08-19 09:00:14.832,0.38,0.79
2021-08-19 09:00:14.836,0.345,0.74
2021-08-19 09:00:14.840,0.3,0.675
2021-08-19 09:00:14.844,0.255,0.59
2021-08-19 09:00:14.848,0.26,0.53
2021-08-19 09:00:14.852,0.25,0.515
2021-08-19 09:00:14.856,0.25,0.445
2021-08-19 09:00:14.860,0.235,0.425
2021-08-19 09:00:14.864,0.265,0.405
2021-08-19 09:00:14.868,0.26,0.39
2021-08-19 09:00:14.872,0.235,0.36
2021-08-19 09:00:14.876,0.245,0.34
2021-08-19 09:00:14.880,0.31,0.33
2021-08-19 09:00:14.884,0.345,0.33
2021-08-19 09:00:14.888,0.355,0.325
2021-08-19 09:00:14.892,0.305,0.31
2021-08-19 09:00:14.896,0.27,0.26
2021-08-19 09:00:14.900,0.295,0.26
2021-08-19 09:00:14.904,0.31,0.225
2021-08-19 09:00:14.908,0.28,0.215
2021-08-19 09:00:14.912,0.27,0.17
2021-08-19 09:00:14.916,0.26,0.165
2021-08-19 09:00:14.920,0.29,0.165
2021-08-19 09:00:14.924,0.31,0.125
2021-08-19 09:00:14.928,0.315,0.14
2021-08-19 09:00:14.932,0.31,0.13
2021-08-19 09:00:14.936,0.325,0.13
2021-08-19 09:00:14.940,0.315,0.145
2021-08-19 09:00:14.944,0.32,0.155
2021-08-19 09:00:14.948,0.34,0.17
2021-08-19 09:00:14.952,0.33,0.17
2021-08-19 09:00:14.956,0.345,0.175
2021-08-19 09:00:14.960,0.32,0.2
2021-08-19 09:00:14.964,0.295,0.195
2021-08-19 09:00:14.968,0.345,0.195
2021-08-19 09:00:14.972,0.37,0.19
2021-08-19 09:00:14.976,0.385,0.2
2021-08-19 09:00:14.980,0.355,0.195
2021-08-19 09:00:14.984,0.29,0.21
2021-08-19 09:00:14.988,0.245,0.2
2021-08-19 09:00:14.992,0.215,0.21
2021-08-19 09:00:14.996,0.205,0.23
2021-08-19 09:00:15.000,0.245,0.24
2021-08-19 09:00:15.004,0.225,0.23
2021-08-19 09:00:15.008,0.22,0.205
2021-08-19 09:00:15.012,0.215,0.205
2021-08-19 09:00:15.016,0.22,0.19
2021-08-19 09:00:15.020,0.22,0.185
2021-08-19 09:00:15.024,0.275,0.19
2021-08-19 09:00:15.028,0.285,0.195
2021-08-19 09:00:15.032,0.325,0.19
2021-08-19 09:00:15.036,0.36,0.185
2021-08-19 09:00:15.040,0.355,0.195
2021-08-19 09:00:15.044,0.305,0.185
2021-08-19 09:00:15.048,0.305,0.185
2021-08-19 09:00:15.052,0.29,0.22
2021-08-19 09:00:15.056,0.315,0.245
2021-08-19 09:00:15.060,0.3,0.22
2021-08-19 09:00:15.064,0.32,0.225
2021-08-19 09:00:15.068,0.32,0.22
2021-08-19 09:00:15.072,0.315,0.215
2021-08-19 09:00:15.076,0.295,0.2
2021-08-19 09:00:15.080,0.3,0.22
2021-08-19 09:00:15.084,0.325,0.215
2021-08-19 09:00:15.088,0.37,0.22
2021-08-19 09:00:15.092,0.42,0.215
2021-08-19 09:00:15.096,0.435,0.19
2021-08-19 09:00:15.100,0.44,0.18
2021-08-19 09:00:15.104,0.41,0.185
2021-08-19 09:00:15.108,0.44,0.165
2021-08-19 09:00:15.112,0.41,0.18
2021-08-19 09:00:15.116,0.395,0.135
2021-08-19 09:00:15.120,0.37,0.115
2021-08-19 09:00:15.124,0.41,0.12
2021-08-19 09:00:15.128,0.405,0.09
2021-08-19 09:00:15.132,0.42,0.115
2021-08-19 09:00:15.136,0.41,0.07
2021-08-19 09:00:15.140,0.4,0.045
2021-08-19 09:00:15.144,0.37,0.055
2021-08-19 09:00:15.148,0.385,0.075
2021-08-19 09:00:15.152,0.36,0.075
2021-08-19 09:00:15.156,0.355,0.075
2021-08-19 09:00:15.160,0.38,0.05
2021-08-19 09:00:15.164,0.375,0.06
2021-08-19 09:00:15.168,0.34,0.04
2021-08-19 09:00:15.172,0.3,0.06
