Time,ECG1,ECG2
2021-08-19 11:36:45.516,0.295,1.26
2021-08-19 11:36:45.520,0.265,1.28
2021-08-19 11:36:45.524,0.265,1.275
2021-08-19 11:36:45.528,0.26,1.265
2021-08-19 11:36:45.532,0.27,1.275
2021-08-19 11:36:45.536,0.255,1.275
2021-08-19 11:36:45.540,0.215,1.29
2021-08-19 11:36:45.544,0.195,1.31
2021-08-19 11:36:45.548,0.19,1.31
2021-08-19 11:36:45.552,0.165,1.33
2021-08-19 11:36:45.556,0.155,1.315
2021-08-19 11:36:45.560,0.17,1.3
2021-08-19 11:36:45.564,0.165,1.29
2021-08-19 11:36:45.568,0.16,1.285
2021-08-19 11:36:45.572,0.145,1.27
2021-08-19 11:36:45.576,0.11,1.21
2021-08-19 11:36:45.580,0.075,1.225
2021-08-19 11:36:45.584,0.055,1.165
2021-08-19 11:36:45.588,0.035,1.12
2021-08-19 11:36:45.592,0.03,1.075
2021-08-19 11:36:45.596,0.03,1.02
2021-08-19 11:36:45.600,0.03,0.96
2021-08-19 11:36:45.604,0.015,0.88
2021-08-19 11:36:45.608,0.025,0.835
2021-08-19 11:36:45.612,0.02,0.77
2021-08-19 11:36:45.616,0.02,0.72
2021-08-19 11:36:45.620,0.01,0.645
2021-08-19 11:36:45.624,0.02,0.55
2021-08-19 11:36:45.628,0.04,0.52
2021-08-19 11:36:45.632,0.035,0.45
2021-08-19 11:36:45.636,0.045,0.4
2021-08-19 11:36:45.640,0.03,0.32
2021-08-19 11:36:45.644,0.045,0.285
2021-08-19 11:36:45.648,0.055,0.245
2021-08-19 11:36:45.652,0.08,0.225
2021-08-19 11:36:45.656,0.095,0.205
2021-08-19 11:36:45.660,0.115,0.185
2021-08-19 11:36:45.664,0.115,0.15
2021-08-19 11:36:45.668,0.11,0.13
2021-08-19 11:36:45.672,0.11,0.12
2021-08-19 11:36:45.676,0.13,0.115
2021-08-19 11:36:45.680,0.145,0.1
2021-08-19 11:36:45.684,0.205,0.07
2021-08-19 11:36:45.688,0.27,0.075
2021-08-19 11:36:45.692,0.39,0.06
2021-08-19 11:36:45.696,0.555,0.065
2021-08-19 11:36:45.700,0.685,0.06
2021-08-19 11:36:45.704,0.8,0.06
2021-08-19 11:36:45.708,0.875,0.075
2021-08-19 11:36:45.712,0.88,0.12
2021-08-19 11:36:45.716,0.79,0.095
2021-08-19 11:36:45.720,0.625,-0.11
2021-08-19 11:36:45.724,0.48,-0.465
2021-08-19 11:36:45.728,0.445,-1.005
2021-08-19 11:36:45.732,0.465,-1.71
2021-08-19 11:36:45.804,0.085,-1.98
2021-08-19 11:36:45.808,0.14,-1.59
2021-08-19 11:36:45.812,0.19,-1.205
2021-08-19 11:36:45.816,0.18,-0.88
2021-08-19 11:36:45.820,0.185,-0.605
2021-08-19 11:36:45.824,0.12,-0.355
2021-08-19 11:36:45.828,0.105,-0.165
2021-08-19 11:36:45.832,0.08,0.005
2021-08-19 11:36:45.836,0.05,0.165
2021-08-19 11:36:45.840,0.06,0.305
2021-08-19 11:36:45.844,0.035,0.355
2021-08-19 11:36:45.848,0.03,0.415
2021-08-19 11:36:45.852,0.045,0.43
2021-08-19 11:36:45.856,0.025,0.445
2021-08-19 11:36:45.860,0.05,0.44
2021-08-19 11:36:45.864,0.06,0.475
2021-08-19 11:36:45.868,0.07,0.5
2021-08-19 11:36:45.872,0.1,0.53
2021-08-19 11:36:45.876,0.115,0.55
2021-08-19 11:36:45.880,0.12,0.575
2021-08-19 11:36:45.884,0.125,0.57
2021-08-19 11:36:45.888,0.14,0.59
2021-08-19 11:36:45.892,0.155,0.605
2021-08-19 11:36:45.896,0.17,0.61
2021-08-19 11:36:45.900,0.19,0.63
2021-08-19 11:36:45.904,0.225,0.63
2021-08-19 11:36:45.908,0.225,0.63
2021-08-19 11:36:45.912,0.26,0.655
2021-08-19 11:36:45.916,0.255,0.675
2021-08-19 11:36:45.920,0.265,0.705
2021-08-19 11:36:45.924,0.29,0.75
2021-08-19 11:36:45.928,0.3,0.76
2021-08-19 11:36:45.932,0.35,0.775
2021-08-19 11:36:45.936,0.425,0.8
2021-08-19 11:36:45.940,0.485,0.835
2021-08-19 11:36:45.944,0.51,0.835
2021-08-19 11:36:45.948,0.53,0.87
2021-08-19 11:36:45.952,0.52,0.945
2021-08-19 11:36:45.956,0.485,1.015
2021-08-19 11:36:45.960,0.455,1.045
2021-08-19 11:36:45.964,0.43,1.075
2021-08-19 11:36:45.968,0.395,1.09
2021-08-19 11:36:45.972,0.38,1.04
2021-08-19 11:36:45.976,0.33,1.015
2021-08-19 11:36:45.980,0.3,1.015
2021-08-19 11:36:45.984,0.29,1.015
2021-08-19 11:36:45.988,0.265,1.015
2021-08-19 11:36:45.992,0.23,1.01
2021-08-19 11:36:45.996,0.21,1.015
2021-08-19 11:36:46.000,0.175,1.03
2021-08-19 11:36:46.004,0.16,1.025
2021-08-19 11:36:46.008,0.12,1.025
2021-08-19 11:36:46.012,0.085,1.035
2021-08-19 11:36:46.016,0.075,1.02
2021-08-19 11:36:46.020,0.06,1.035
2021-08-19 11:36:46.024,0.04,1.025
2021-08-19 11:36:46.028,0.035,1.005
2021-08-19 11:36:46.032,0.035,1.01
2021-08-19 11:36:46.036,0.025,0.985
2021-08-19 11:36:46.040,-0.015,0.985
2021-08-19 11:36:46.044,-0.025,0.97
2021-08-19 11:36:46.048,-0.06,0.925
2021-08-19 11:36:46.052,-0.055,0.905
2021-08-19 11:36:46.056,-0.06,0.84
2021-08-19 11:36:46.060,-0.08,0.8
2021-08-19 11:36:46.064,-0.065,0.735
2021-08-19 11:36:46.068,-0.055,0.705
2021-08-19 11:36:46.072,-0.06,0.63
2021-08-19 11:36:46.076,-0.04,0.605
2021-08-19 11:36:46.080,-0.035,0.545
2021-08-19 11:36:46.084,-0.035,0.49
2021-08-19 11:36:46.088,-0.025,0.46
2021-08-19 11:36:46.092,-0.015,0.425
2021-08-19 11:36:46.096,0.005,0.38
2021-08-19 11:36:46.100,0.015,0.355
2021-08-19 11:36:46.104,0.015,0.315
2021-08-19 11:36:46.108,0.03,0.275
2021-08-19 11:36:46.112,0.06,0.275
2021-08-19 11:36:46.116,0.095,0.27
2021-08-19 11:36:46.120,0.105,0.25
2021-08-19 11:36:46.124,0.115,0.23
2021-08-19 11:36:46.128,0.145,0.26
2021-08-19 11:36:46.132,0.145,0.26
2021-08-19 11:36:46.136,0.16,0.29
2021-08-19 11:36:46.140,0.18,0.245
2021-08-19 11:36:46.144,0.19,0.265
2021-08-19 11:36:46.148,0.205,0.25
2021-08-19 11:36:46.152,0.255,0.265
2021-08-19 11:36:46.156,0.31,0.28
2021-08-19 11:36:46.160,0.325,0.305
2021-08-19 11:36:46.164,0.355,0.305
2021-08-19 11:36:46.168,0.315,0.375
2021-08-19 11:36:46.172,0.3,0.405
2021-08-19 11:36:46.176,0.285,0.43
2021-08-19 11:36:46.180,0.29,0.395
2021-08-19 11:36:46.184,0.27,0.365
2021-08-19 11:36:46.188,0.23,0.345
2021-08-19 11:36:46.192,0.235,0.28
2021-08-19 11:36:46.196,0.215,0.25
2021-08-19 11:36:46.200,0.19,0.245
2021-08-19 11:36:46.204,0.18,0.215
2021-08-19 11:36:46.208,0.14,0.205
2021-08-19 11:36:46.212,0.125,0.205
2021-08-19 11:36:46.216,0.1,0.175
2021-08-19 11:36:46.220,0.1,0.185
2021-08-19 11:36:46.224,0.085,0.185
2021-08-19 11:36:46.228,0.055,0.165
2021-08-19 11:36:46.232,0.045,0.14
2021-08-19 11:36:46.236,0.05,0.14
2021-08-19 11:36:46.240,0.035,0.125
2021-08-19 11:36:46.244,0.045,0.1
2021-08-19 11:36:46.248,0.025,0.095
2021-08-19 11:36:46.252,0.035,0.105
2021-08-19 11:36:46.256,0.02,0.11
2021-08-19 11:36:46.260,0.0,0.105
2021-08-19 11:36:46.264,-0.01,0.095
2021-08-19 11:36:46.268,-0.02,0.1
2021-08-19 11:36:46.272,-0.02,0.105
2021-08-19 11:36:46.276,-0.01,0.06
2021-08-19 11:36:46.280,-0.005,0.075
2021-08-19 11:36:46.284,-0.015,0.075
2021-08-19 11:36:46.288,-0.015,0.055
2021-08-19 11:36:46.292,-0.015,0.08
2021-08-19 11:36:46.296,-0.005,0.065
2021-08-19 11:36:46.300,-0.015,0.07
2021-08-19 11:36:46.304,-0.01,0.07
2021-08-19 11:36:46.308,-0.03,0.085
2021-08-19 11:36:46.312,-0.02,0.055
2021-08-19 11:36:46.316,-0.015,0.07
2021-08-19 11:36:46.320,0.0,0.065
2021-08-19 11:36:46.324,-0.01,0.055
2021-08-19 11:36:46.328,0.01,0.045
2021-08-19 11:36:46.332,0.02,0.045
2021-08-19 11:36:46.336,0.02,0.05
2021-08-19 11:36:46.340,0.02,0.06
2021-08-19 11:36:46.344,0.035,0.045
2021-08-19 11:36:46.348,0.04,0.085
2021-08-19 11:36:46.352,0.05,0.075
2021-08-19 11:36:46.356,0.055,0.065
2021-08-19 11:36:46.360,0.08,0.08
2021-08-19 11:36:46.364,0.095,0.08
2021-08-19 11:36:46.368,0.135,0.085
2021-08-19 11:36:46.372,0.14,0.07
2021-08-19 11:36:46.376,0.15,0.105
2021-08-19 11:36:46.380,0.19,0.15
2021-08-19 11:36:46.384,0.215,0.175
2021-08-19 11:36:46.388,0.215,0.185
2021-08-19 11:36:46.392,0.215,0.19
2021-08-19 11:36:46.396,0.195,0.225
2021-08-19 11:36:46.400,0.185,0.24
2021-08-19 11:36:46.404,0.17,0.24
2021-08-19 11:36:46.408,0.185,0.23
2021-08-19 11:36:46.412,0.19,0.175
2021-08-19 11:36:46.416,0.255,0.125
2021-08-19 11:36:46.420,0.315,0.115
2021-08-19 11:36:46.424,0.345,0.15
2021-08-19 11:36:46.428,0.325,0.18
2021-08-19 11:36:46.432,0.275,0.235
2021-08-19 11:36:46.436,0.175,0.3
2021-08-19 11:36:46.440,0.005,0.18
2021-08-19 11:36:46.444,-0.165,-0.19
2021-08-19 11:36:46.448,-0.285,-0.715
2021-08-19 11:36:46.452,-0.385,-1.33
2021-08-19 11:36:46.540,-0.515,-1.74
2021-08-19 11:36:46.544,-0.4,-1.34
2021-08-19 11:36:46.548,-0.28,-1.0
2021-08-19 11:36:46.552,-0.15,-0.715
2021-08-19 11:36:46.556,-0.1,-0.48
2021-08-19 11:36:46.560,-0.055,-0.255
2021-08-19 11:36:46.564,-0.015,-0.075
2021-08-19 11:36:46.568,0.005,0.13
2021-08-19 11:36:46.572,0.005,0.315
2021-08-19 11:36:46.576,0.015,0.465
2021-08-19 11:36:46.580,0.04,0.61
2021-08-19 11:36:46.584,0.08,0.69
2021-08-19 11:36:46.588,0.105,0.76
2021-08-19 11:36:46.592,0.13,0.805
2021-08-19 11:36:46.596,0.125,0.85
2021-08-19 11:36:46.600,0.175,0.865
2021-08-19 11:36:46.604,0.19,0.89
2021-08-19 11:36:46.608,0.205,0.905
2021-08-19 11:36:46.612,0.235,0.935
2021-08-19 11:36:46.616,0.28,0.965
2021-08-19 11:36:46.620,0.285,0.99
2021-08-19 11:36:46.624,0.27,1.035
2021-08-19 11:36:46.628,0.265,1.04
2021-08-19 11:36:46.632,0.245,1.075
2021-08-19 11:36:46.636,0.215,1.095
2021-08-19 11:36:46.640,0.19,1.075
2021-08-19 11:36:46.644,0.185,1.07
2021-08-19 11:36:46.648,0.21,1.035
2021-08-19 11:36:46.652,0.165,1.045
2021-08-19 11:36:46.656,0.15,1.04
2021-08-19 11:36:46.660,0.155,1.045
2021-08-19 11:36:46.664,0.155,1.05
2021-08-19 11:36:46.668,0.145,1.06
2021-08-19 11:36:46.672,0.145,1.03
2021-08-19 11:36:46.676,0.125,1.045
2021-08-19 11:36:46.680,0.07,1.025
2021-08-19 11:36:46.684,0.065,1.04
2021-08-19 11:36:46.688,0.04,1.06
2021-08-19 11:36:46.692,0.015,1.09
2021-08-19 11:36:46.696,0.005,1.09
2021-08-19 11:36:46.700,0.01,1.1
2021-08-19 11:36:46.704,-0.01,1.105
2021-08-19 11:36:46.708,0.01,1.13
2021-08-19 11:36:46.712,0.02,1.125
2021-08-19 11:36:46.716,0.03,1.13
2021-08-19 11:36:46.720,0.015,1.155
2021-08-19 11:36:46.724,-0.005,1.18
2021-08-19 11:36:46.728,-0.015,1.215
2021-08-19 11:36:46.732,-0.01,1.23
2021-08-19 11:36:46.736,-0.02,1.27
2021-08-19 11:36:46.740,-0.03,1.275
2021-08-19 11:36:46.744,-0.015,1.285
2021-08-19 11:36:46.748,-0.01,1.31
2021-08-19 11:36:46.752,-0.005,1.325
2021-08-19 11:36:46.756,-0.035,1.345
2021-08-19 11:36:46.760,-0.015,1.33
2021-08-19 11:36:46.764,-0.005,1.34
2021-08-19 11:36:46.768,-0.01,1.34
2021-08-19 11:36:46.772,-0.01,1.36
2021-08-19 11:36:46.776,-0.025,1.345
2021-08-19 11:36:46.780,-0.04,1.335
2021-08-19 11:36:46.784,-0.045,1.305
2021-08-19 11:36:46.788,-0.055,1.275
2021-08-19 11:36:46.792,-0.07,1.25
2021-08-19 11:36:46.796,-0.06,1.22
2021-08-19 11:36:46.800,-0.075,1.17
2021-08-19 11:36:46.804,-0.075,1.115
2021-08-19 11:36:46.808,-0.055,1.075
2021-08-19 11:36:46.812,-0.085,1.035
2021-08-19 11:36:46.816,-0.065,1.0
2021-08-19 11:36:46.820,-0.035,0.955
2021-08-19 11:36:46.824,-0.03,0.92
2021-08-19 11:36:46.828,-0.005,0.85
2021-08-19 11:36:46.832,0.03,0.815
2021-08-19 11:36:46.836,0.025,0.75
2021-08-19 11:36:46.840,0.045,0.73
2021-08-19 11:36:46.844,0.0,0.715
2021-08-19 11:36:46.848,-0.025,0.7
2021-08-19 11:36:46.852,-0.045,0.655
2021-08-19 11:36:46.856,-0.08,0.595
2021-08-19 11:36:46.860,-0.09,0.515
2021-08-19 11:36:46.864,-0.13,0.45
2021-08-19 11:36:46.868,-0.125,0.385
2021-08-19 11:36:46.872,-0.12,0.335
2021-08-19 11:36:46.876,-0.14,0.31
2021-08-19 11:36:46.880,-0.14,0.27
2021-08-19 11:36:46.884,-0.125,0.225
2021-08-19 11:36:46.888,-0.12,0.21
2021-08-19 11:36:46.892,-0.125,0.2
2021-08-19 11:36:46.896,-0.125,0.21
2021-08-19 11:36:46.900,-0.135,0.18
2021-08-19 11:36:46.904,-0.145,0.2
2021-08-19 11:36:46.908,-0.16,0.19
2021-08-19 11:36:46.912,-0.16,0.175
2021-08-19 11:36:46.916,-0.18,0.165
2021-08-19 11:36:46.920,-0.14,0.17
2021-08-19 11:36:46.924,-0.05,0.155
2021-08-19 11:36:46.928,0.115,0.14
2021-08-19 11:36:46.932,0.305,0.115
2021-08-19 11:36:46.936,0.485,0.115
2021-08-19 11:36:46.940,0.555,0.15
2021-08-19 11:36:46.944,0.505,0.21
2021-08-19 11:36:46.948,0.41,0.285
2021-08-19 11:36:46.952,0.155,0.295
2021-08-19 11:36:46.956,-0.145,0.07
2021-08-19 11:36:46.960,-0.35,-0.335
2021-08-19 11:36:46.964,-0.475,-0.95
2021-08-19 11:36:46.968,-0.43,-1.72
2021-08-19 11:36:47.044,-0.24,-1.825
2021-08-19 11:36:47.048,-0.115,-1.375
2021-08-19 11:36:47.052,0.0,-0.965
2021-08-19 11:36:47.056,0.045,-0.61
2021-08-19 11:36:47.060,0.05,-0.295
2021-08-19 11:36:47.064,0.05,-0.08
2021-08-19 11:36:47.068,0.03,0.145
2021-08-19 11:36:47.072,0.005,0.305
2021-08-19 11:36:47.076,-0.01,0.435
2021-08-19 11:36:47.080,-0.02,0.525
2021-08-19 11:36:47.084,-0.02,0.61
2021-08-19 11:36:47.088,-0.065,0.67
2021-08-19 11:36:47.092,-0.06,0.71
2021-08-19 11:36:47.096,-0.085,0.73
2021-08-19 11:36:47.100,-0.105,0.76
2021-08-19 11:36:47.104,-0.105,0.785
2021-08-19 11:36:47.108,-0.105,0.76
2021-08-19 11:36:47.112,-0.095,0.77
2021-08-19 11:36:47.116,-0.085,0.77
2021-08-19 11:36:47.120,-0.095,0.77
2021-08-19 11:36:47.124,-0.095,0.785
2021-08-19 11:36:47.128,-0.115,0.79
2021-08-19 11:36:47.132,-0.115,0.775
2021-08-19 11:36:47.136,-0.12,0.77
2021-08-19 11:36:47.140,-0.13,0.775
2021-08-19 11:36:47.144,-0.135,0.77
2021-08-19 11:36:47.148,-0.135,0.775
2021-08-19 11:36:47.152,-0.105,0.765
2021-08-19 11:36:47.156,-0.09,0.8
2021-08-19 11:36:47.160,-0.085,0.825
2021-08-19 11:36:47.164,-0.085,0.835
2021-08-19 11:36:47.168,-0.09,0.845
2021-08-19 11:36:47.172,-0.075,0.86
2021-08-19 11:36:47.176,-0.085,0.855
2021-08-19 11:36:47.180,-0.08,0.88
2021-08-19 11:36:47.184,-0.05,0.89
2021-08-19 11:36:47.188,-0.05,0.915
2021-08-19 11:36:47.192,-0.015,0.94
2021-08-19 11:36:47.196,-0.02,0.945
2021-08-19 11:36:47.200,-0.015,0.96
2021-08-19 11:36:47.204,-0.005,0.99
2021-08-19 11:36:47.208,-0.01,1.03
2021-08-19 11:36:47.212,-0.02,1.035
2021-08-19 11:36:47.216,-0.02,1.06
2021-08-19 11:36:47.220,-0.025,1.065
2021-08-19 11:36:47.224,-0.005,1.095
2021-08-19 11:36:47.228,-0.01,1.075
2021-08-19 11:36:47.232,-0.005,1.125
2021-08-19 11:36:47.236,0.005,1.155
2021-08-19 11:36:47.240,0.01,1.195
2021-08-19 11:36:47.244,0.005,1.2
2021-08-19 11:36:47.248,-0.005,1.215
2021-08-19 11:36:47.252,0.0,1.225
2021-08-19 11:36:47.256,0.015,1.27
2021-08-19 11:36:47.260,0.015,1.275
2021-08-19 11:36:47.264,0.035,1.3
2021-08-19 11:36:47.268,0.045,1.32
2021-08-19 11:36:47.272,0.045,1.33
2021-08-19 11:36:47.276,0.045,1.305
2021-08-19 11:36:47.280,0.06,1.285
2021-08-19 11:36:47.284,0.05,1.29
2021-08-19 11:36:47.288,0.005,1.22
2021-08-19 11:36:47.292,-0.025,1.18
2021-08-19 11:36:47.296,-0.075,1.14
2021-08-19 11:36:47.300,-0.125,1.085
2021-08-19 11:36:47.304,-0.145,1.03
2021-08-19 11:36:47.308,-0.17,0.95
2021-08-19 11:36:47.312,-0.205,0.86
2021-08-19 11:36:47.316,-0.19,0.79
2021-08-19 11:36:47.320,-0.21,0.735
2021-08-19 11:36:47.324,-0.18,0.685
2021-08-19 11:36:47.328,-0.16,0.635
2021-08-19 11:36:47.332,-0.205,0.58
2021-08-19 11:36:47.336,-0.2,0.54
2021-08-19 11:36:47.340,-0.225,0.5
2021-08-19 11:36:47.344,-0.235,0.45
2021-08-19 11:36:47.348,-0.245,0.405
2021-08-19 11:36:47.352,-0.235,0.375
2021-08-19 11:36:47.356,-0.23,0.31
2021-08-19 11:36:47.360,-0.215,0.275
2021-08-19 11:36:47.364,-0.22,0.255
2021-08-19 11:36:47.368,-0.215,0.235
2021-08-19 11:36:47.372,-0.22,0.225
2021-08-19 11:36:47.376,-0.22,0.24
2021-08-19 11:36:47.380,-0.215,0.22
2021-08-19 11:36:47.384,-0.235,0.22
2021-08-19 11:36:47.388,-0.24,0.225
2021-08-19 11:36:47.392,-0.235,0.215
2021-08-19 11:36:47.396,-0.24,0.2
2021-08-19 11:36:47.400,-0.245,0.21
2021-08-19 11:36:47.404,-0.235,0.195
2021-08-19 11:36:47.408,-0.2,0.175
2021-08-19 11:36:47.412,-0.215,0.18
2021-08-19 11:36:47.416,-0.205,0.21
2021-08-19 11:36:47.420,-0.225,0.215
2021-08-19 11:36:47.424,-0.195,0.2
2021-08-19 11:36:47.428,-0.19,0.21
2021-08-19 11:36:47.432,-0.215,0.21
2021-08-19 11:36:47.436,-0.22,0.21
2021-08-19 11:36:47.440,-0.18,0.195
2021-08-19 11:36:47.444,-0.145,0.195
2021-08-19 11:36:47.448,-0.15,0.2
2021-08-19 11:36:47.452,-0.125,0.205
2021-08-19 11:36:47.456,-0.11,0.2
2021-08-19 11:36:47.460,-0.1,0.18
2021-08-19 11:36:47.464,-0.12,0.235
2021-08-19 11:36:47.468,-0.105,0.225
2021-08-19 11:36:47.472,-0.11,0.25
2021-08-19 11:36:47.476,-0.08,0.245
2021-08-19 11:36:47.480,-0.095,0.23
2021-08-19 11:36:47.484,-0.005,0.24
2021-08-19 11:36:47.488,0.11,0.24
2021-08-19 11:36:47.492,0.29,0.265
2021-08-19 11:36:47.496,0.37,0.27
2021-08-19 11:36:47.500,0.385,0.32
2021-08-19 11:36:47.504,0.335,0.39
2021-08-19 11:36:47.508,0.225,0.475
2021-08-19 11:36:47.512,-0.005,0.39
2021-08-19 11:36:47.516,-0.275,0.045
2021-08-19 11:36:47.520,-0.52,-0.41
2021-08-19 11:36:47.524,-0.675,-0.995
2021-08-19 11:36:47.528,-0.7,-1.81
2021-08-19 11:36:47.612,-0.59,-1.595
2021-08-19 11:36:47.616,-0.51,-1.195
2021-08-19 11:36:47.620,-0.425,-0.895
2021-08-19 11:36:47.624,-0.32,-0.59
2021-08-19 11:36:47.628,-0.245,-0.39
2021-08-19 11:36:47.632,-0.205,-0.225
2021-08-19 11:36:47.636,-0.22,-0.04
2021-08-19 11:36:47.640,-0.205,0.135
2021-08-19 11:36:47.644,-0.175,0.325
2021-08-19 11:36:47.648,-0.15,0.485
2021-08-19 11:36:47.652,-0.14,0.635
2021-08-19 11:36:47.656,-0.14,0.72
2021-08-19 11:36:47.660,-0.145,0.745
2021-08-19 11:36:47.664,-0.13,0.76
2021-08-19 11:36:47.668,-0.1,0.795
2021-08-19 11:36:47.672,-0.055,0.825
2021-08-19 11:36:47.676,-0.015,0.855
2021-08-19 11:36:47.680,0.0,0.845
2021-08-19 11:36:47.684,0.0,0.87
2021-08-19 11:36:47.688,0.0,0.895
2021-08-19 11:36:47.692,0.02,0.92
2021-08-19 11:36:47.696,0.005,0.96
2021-08-19 11:36:47.700,0.02,0.965
2021-08-19 11:36:47.704,0.045,0.975
2021-08-19 11:36:47.708,0.055,1.0
2021-08-19 11:36:47.712,0.1,1.03
2021-08-19 11:36:47.716,0.085,1.04
2021-08-19 11:36:47.720,0.1,1.065
2021-08-19 11:36:47.724,0.115,1.095
2021-08-19 11:36:47.728,0.155,1.135
2021-08-19 11:36:47.732,0.165,1.17
2021-08-19 11:36:47.736,0.21,1.185
2021-08-19 11:36:47.740,0.25,1.195
2021-08-19 11:36:47.744,0.265,1.215
2021-08-19 11:36:47.748,0.28,1.25
2021-08-19 11:36:47.752,0.27,1.3
2021-08-19 11:36:47.756,0.25,1.335
2021-08-19 11:36:47.760,0.22,1.395
2021-08-19 11:36:47.764,0.155,1.415
2021-08-19 11:36:47.768,0.125,1.38
2021-08-19 11:36:47.772,0.125,1.38
2021-08-19 11:36:47.776,0.12,1.39
2021-08-19 11:36:47.780,0.095,1.37
2021-08-19 11:36:47.784,0.065,1.39
2021-08-19 11:36:47.788,0.06,1.395
2021-08-19 11:36:47.792,0.055,1.42
2021-08-19 11:36:47.796,0.06,1.405
2021-08-19 11:36:47.800,0.025,1.42
2021-08-19 11:36:47.804,0.0,1.41
2021-08-19 11:36:47.808,-0.015,1.42
2021-08-19 11:36:47.812,-0.055,1.445
2021-08-19 11:36:47.816,-0.06,1.445
2021-08-19 11:36:47.820,-0.07,1.46
2021-08-19 11:36:47.824,-0.09,1.44
2021-08-19 11:36:47.828,-0.11,1.405
2021-08-19 11:36:47.832,-0.12,1.385
2021-08-19 11:36:47.836,-0.105,1.4
2021-08-19 11:36:47.840,-0.12,1.375
2021-08-19 11:36:47.844,-0.17,1.33
2021-08-19 11:36:47.848,-0.175,1.29
2021-08-19 11:36:47.852,-0.21,1.24
2021-08-19 11:36:47.856,-0.24,1.195
2021-08-19 11:36:47.860,-0.27,1.14
2021-08-19 11:36:47.864,-0.265,1.075
2021-08-19 11:36:47.868,-0.295,1.015
2021-08-19 11:36:47.872,-0.295,0.94
2021-08-19 11:36:47.876,-0.28,0.85
2021-08-19 11:36:47.880,-0.235,0.81
2021-08-19 11:36:47.884,-0.25,0.735
2021-08-19 11:36:47.888,-0.275,0.675
2021-08-19 11:36:47.892,-0.265,0.645
2021-08-19 11:36:47.896,-0.275,0.585
2021-08-19 11:36:47.900,-0.295,0.525
2021-08-19 11:36:47.904,-0.29,0.46
2021-08-19 11:36:47.908,-0.295,0.445
2021-08-19 11:36:47.912,-0.28,0.415
2021-08-19 11:36:47.916,-0.275,0.36
2021-08-19 11:36:47.920,-0.235,0.365
2021-08-19 11:36:47.924,-0.215,0.385
2021-08-19 11:36:47.928,-0.22,0.355
2021-08-19 11:36:47.932,-0.215,0.345
2021-08-19 11:36:47.936,-0.21,0.33
2021-08-19 11:36:47.940,-0.215,0.34
2021-08-19 11:36:47.944,-0.19,0.325
2021-08-19 11:36:47.948,-0.17,0.35
2021-08-19 11:36:47.952,-0.115,0.34
2021-08-19 11:36:47.956,-0.095,0.33
2021-08-19 11:36:47.960,-0.07,0.32
2021-08-19 11:36:47.964,-0.07,0.36
2021-08-19 11:36:47.968,-0.07,0.385
2021-08-19 11:36:47.972,-0.09,0.415
2021-08-19 11:36:47.976,-0.115,0.43
2021-08-19 11:36:47.980,-0.135,0.415
2021-08-19 11:36:47.984,-0.125,0.37
2021-08-19 11:36:47.988,-0.13,0.35
2021-08-19 11:36:47.992,-0.155,0.33
2021-08-19 11:36:47.996,-0.1,0.29
2021-08-19 11:36:48.000,-0.13,0.29
2021-08-19 11:36:48.004,-0.175,0.285
2021-08-19 11:36:48.008,-0.17,0.28
2021-08-19 11:36:48.012,-0.17,0.295
2021-08-19 11:36:48.016,-0.155,0.28
2021-08-19 11:36:48.020,-0.185,0.26
2021-08-19 11:36:48.024,-0.205,0.275
2021-08-19 11:36:48.028,-0.195,0.265
2021-08-19 11:36:48.032,-0.235,0.23
2021-08-19 11:36:48.036,-0.22,0.24
2021-08-19 11:36:48.040,-0.185,0.22
2021-08-19 11:36:48.044,-0.21,0.21
2021-08-19 11:36:48.048,-0.255,0.21
2021-08-19 11:36:48.052,-0.29,0.23
2021-08-19 11:36:48.056,-0.27,0.22
2021-08-19 11:36:48.060,-0.26,0.23
2021-08-19 11:36:48.064,-0.26,0.205
2021-08-19 11:36:48.068,-0.285,0.215
2021-08-19 11:36:48.072,-0.315,0.175
2021-08-19 11:36:48.076,-0.3,0.18
2021-08-19 11:36:48.080,-0.3,0.175
2021-08-19 11:36:48.084,-0.3,0.14
2021-08-19 11:36:48.088,-0.29,0.155
2021-08-19 11:36:48.092,-0.265,0.145
2021-08-19 11:36:48.096,-0.28,0.16
2021-08-19 11:36:48.100,-0.3,0.16
2021-08-19 11:36:48.104,-0.305,0.155
2021-08-19 11:36:48.108,-0.3,0.16
2021-08-19 11:36:48.112,-0.32,0.165
2021-08-19 11:36:48.116,-0.3,0.12
2021-08-19 11:36:48.120,-0.28,0.125
2021-08-19 11:36:48.124,-0.26,0.115
2021-08-19 11:36:48.128,-0.265,0.125
2021-08-19 11:36:48.132,-0.275,0.13
2021-08-19 11:36:48.136,-0.28,0.155
2021-08-19 11:36:48.140,-0.235,0.18
2021-08-19 11:36:48.144,-0.21,0.17
2021-08-19 11:36:48.148,-0.22,0.14
2021-08-19 11:36:48.152,-0.23,0.165
2021-08-19 11:36:48.156,-0.245,0.16
2021-08-19 11:36:48.160,-0.23,0.16
2021-08-19 11:36:48.164,-0.215,0.175
2021-08-19 11:36:48.168,-0.185,0.2
2021-08-19 11:36:48.172,-0.135,0.195
2021-08-19 11:36:48.176,-0.095,0.22
2021-08-19 11:36:48.180,-0.08,0.235
2021-08-19 11:36:48.184,-0.08,0.235
2021-08-19 11:36:48.188,-0.09,0.24
2021-08-19 11:36:48.192,-0.09,0.245
2021-08-19 11:36:48.196,-0.105,0.23
2021-08-19 11:36:48.200,-0.16,0.225
2021-08-19 11:36:48.204,-0.185,0.19
2021-08-19 11:36:48.208,-0.19,0.18
2021-08-19 11:36:48.212,-0.21,0.205
2021-08-19 11:36:48.216,-0.2,0.175
2021-08-19 11:36:48.220,-0.205,0.165
2021-08-19 11:36:48.224,-0.195,0.14
2021-08-19 11:36:48.228,-0.185,0.12
2021-08-19 11:36:48.232,-0.215,0.115
2021-08-19 11:36:48.236,-0.2,0.11
2021-08-19 11:36:48.240,-0.24,0.095
2021-08-19 11:36:48.244,-0.24,0.105
2021-08-19 11:36:48.248,-0.2,0.11
2021-08-19 11:36:48.252,-0.2,0.09
2021-08-19 11:36:48.256,-0.195,0.1
2021-08-19 11:36:48.260,-0.2,0.09
2021-08-19 11:36:48.264,-0.24,0.08
2021-08-19 11:36:48.268,-0.26,0.12
2021-08-19 11:36:48.272,-0.24,0.11
2021-08-19 11:36:48.276,-0.225,0.135
2021-08-19 11:36:48.280,-0.22,0.09
2021-08-19 11:36:48.284,-0.18,0.085
2021-08-19 11:36:48.288,-0.085,0.065
2021-08-19 11:36:48.292,0.01,0.055
2021-08-19 11:36:48.296,0.11,0.08
2021-08-19 11:36:48.300,0.145,0.14
2021-08-19 11:36:48.304,0.105,0.21
2021-08-19 11:36:48.308,0.025,0.29
2021-08-19 11:36:48.312,-0.08,0.2
2021-08-19 11:36:48.316,-0.2,-0.185
2021-08-19 11:36:48.320,-0.32,-0.745
2021-08-19 11:36:48.324,-0.37,-1.465
2021-08-19 11:36:48.404,-0.425,-1.7
2021-08-19 11:36:48.408,-0.295,-1.275
2021-08-19 11:36:48.412,-0.2,-0.905
2021-08-19 11:36:48.416,-0.08,-0.57
2021-08-19 11:36:48.420,-0.015,-0.315
2021-08-19 11:36:48.424,0.025,-0.115
2021-08-19 11:36:48.428,0.01,0.095
2021-08-19 11:36:48.432,-0.06,0.295
2021-08-19 11:36:48.436,-0.085,0.47
2021-08-19 11:36:48.440,-0.095,0.59
2021-08-19 11:36:48.444,-0.11,0.66
2021-08-19 11:36:48.448,-0.105,0.7
2021-08-19 11:36:48.452,-0.125,0.715
2021-08-19 11:36:48.456,-0.135,0.74
2021-08-19 11:36:48.460,-0.11,0.735
2021-08-19 11:36:48.464,-0.115,0.76
2021-08-19 11:36:48.468,-0.125,0.78
2021-08-19 11:36:48.472,-0.155,0.795
2021-08-19 11:36:48.476,-0.18,0.815
2021-08-19 11:36:48.480,-0.17,0.83
2021-08-19 11:36:48.484,-0.155,0.84
2021-08-19 11:36:48.488,-0.155,0.835
2021-08-19 11:36:48.492,-0.17,0.81
2021-08-19 11:36:48.496,-0.17,0.83
2021-08-19 11:36:48.500,-0.175,0.845
2021-08-19 11:36:48.504,-0.185,0.88
2021-08-19 11:36:48.508,-0.175,0.865
2021-08-19 11:36:48.512,-0.18,0.87
2021-08-19 11:36:48.516,-0.185,0.88
2021-08-19 11:36:48.520,-0.155,0.91
2021-08-19 11:36:48.524,-0.15,0.91
2021-08-19 11:36:48.528,-0.17,0.915
2021-08-19 11:36:48.532,-0.16,0.925
2021-08-19 11:36:48.536,-0.16,0.945
2021-08-19 11:36:48.540,-0.145,0.96
2021-08-19 11:36:48.544,-0.11,0.985
2021-08-19 11:36:48.548,-0.105,1.0
2021-08-19 11:36:48.552,-0.11,1.015
2021-08-19 11:36:48.556,-0.09,1.04
2021-08-19 11:36:48.560,-0.075,1.06
2021-08-19 11:36:48.564,-0.09,1.095
2021-08-19 11:36:48.568,-0.085,1.085
2021-08-19 11:36:48.572,-0.095,1.11
2021-08-19 11:36:48.576,-0.105,1.125
2021-08-19 11:36:48.580,-0.075,1.175
2021-08-19 11:36:48.584,-0.05,1.185
2021-08-19 11:36:48.588,-0.075,1.21
2021-08-19 11:36:48.592,-0.09,1.22
2021-08-19 11:36:48.596,-0.105,1.24
2021-08-19 11:36:48.600,-0.13,1.285
2021-08-19 11:36:48.604,-0.125,1.295
2021-08-19 11:36:48.608,-0.13,1.31
2021-08-19 11:36:48.612,-0.155,1.32
2021-08-19 11:36:48.616,-0.175,1.32
2021-08-19 11:36:48.620,-0.15,1.355
2021-08-19 11:36:48.624,-0.14,1.33
2021-08-19 11:36:48.628,-0.155,1.34
2021-08-19 11:36:48.632,-0.185,1.345
2021-08-19 11:36:48.636,-0.22,1.355
2021-08-19 11:36:48.640,-0.24,1.315
2021-08-19 11:36:48.644,-0.245,1.275
2021-08-19 11:36:48.648,-0.19,1.275
2021-08-19 11:36:48.652,-0.155,1.265
2021-08-19 11:36:48.656,-0.14,1.205
2021-08-19 11:36:48.660,-0.115,1.18
2021-08-19 11:36:48.664,-0.12,1.155
2021-08-19 11:36:48.668,-0.17,1.135
2021-08-19 11:36:48.672,-0.225,1.07
2021-08-19 11:36:48.676,-0.275,0.985
2021-08-19 11:36:48.680,-0.285,0.92
2021-08-19 11:36:48.684,-0.29,0.85
2021-08-19 11:36:48.688,-0.32,0.75
2021-08-19 11:36:48.692,-0.335,0.645
2021-08-19 11:36:48.696,-0.325,0.575
2021-08-19 11:36:48.700,-0.32,0.51
2021-08-19 11:36:48.704,-0.32,0.45
2021-08-19 11:36:48.708,-0.32,0.415
2021-08-19 11:36:48.712,-0.355,0.385
2021-08-19 11:36:48.716,-0.365,0.345
2021-08-19 11:36:48.720,-0.36,0.33
2021-08-19 11:36:48.724,-0.365,0.305
2021-08-19 11:36:48.728,-0.34,0.24
2021-08-19 11:36:48.732,-0.36,0.26
2021-08-19 11:36:48.736,-0.37,0.225
2021-08-19 11:36:48.740,-0.385,0.225
2021-08-19 11:36:48.744,-0.355,0.2
2021-08-19 11:36:48.748,-0.345,0.2
2021-08-19 11:36:48.752,-0.345,0.175
2021-08-19 11:36:48.756,-0.345,0.175
2021-08-19 11:36:48.760,-0.33,0.19
2021-08-19 11:36:48.764,-0.37,0.205
2021-08-19 11:36:48.768,-0.38,0.22
2021-08-19 11:36:48.772,-0.375,0.22
2021-08-19 11:36:48.776,-0.36,0.18
2021-08-19 11:36:48.780,-0.355,0.21
2021-08-19 11:36:48.784,-0.335,0.165
2021-08-19 11:36:48.788,-0.34,0.205
2021-08-19 11:36:48.792,-0.34,0.22
2021-08-19 11:36:48.796,-0.305,0.245
2021-08-19 11:36:48.800,-0.33,0.25
2021-08-19 11:36:48.804,-0.32,0.245
2021-08-19 11:36:48.808,-0.295,0.27
2021-08-19 11:36:48.812,-0.295,0.285
2021-08-19 11:36:48.816,-0.305,0.285
2021-08-19 11:36:48.820,-0.33,0.25
2021-08-19 11:36:48.824,-0.285,0.28
2021-08-19 11:36:48.828,-0.22,0.29
2021-08-19 11:36:48.832,-0.23,0.29
2021-08-19 11:36:48.836,-0.235,0.29
2021-08-19 11:36:48.840,-0.24,0.315
2021-08-19 11:36:48.844,-0.26,0.34
2021-08-19 11:36:48.848,-0.3,0.35
2021-08-19 11:36:48.852,-0.315,0.335
2021-08-19 11:36:48.856,-0.3,0.315
2021-08-19 11:36:48.860,-0.3,0.325
2021-08-19 11:36:48.864,-0.295,0.31
2021-08-19 11:36:48.868,-0.27,0.35
2021-08-19 11:36:48.872,-0.22,0.335
2021-08-19 11:36:48.876,-0.2,0.355
2021-08-19 11:36:48.880,-0.185,0.375
2021-08-19 11:36:48.884,-0.19,0.36
2021-08-19 11:36:48.888,-0.18,0.36
2021-08-19 11:36:48.892,-0.195,0.34
2021-08-19 11:36:48.896,-0.205,0.325
2021-08-19 11:36:48.900,-0.22,0.305
2021-08-19 11:36:48.904,-0.255,0.335
2021-08-19 11:36:48.908,-0.275,0.295
2021-08-19 11:36:48.912,-0.28,0.265
2021-08-19 11:36:48.916,-0.28,0.255
2021-08-19 11:36:48.920,-0.32,0.23
2021-08-19 11:36:48.924,-0.32,0.235
2021-08-19 11:36:48.928,-0.335,0.215
2021-08-19 11:36:48.932,-0.345,0.195
2021-08-19 11:36:48.936,-0.345,0.175
2021-08-19 11:36:48.940,-0.345,0.19
2021-08-19 11:36:48.944,-0.345,0.17
2021-08-19 11:36:48.948,-0.355,0.16
2021-08-19 11:36:48.952,-0.38,0.145
2021-08-19 11:36:48.956,-0.375,0.13
2021-08-19 11:36:48.960,-0.345,0.135
2021-08-19 11:36:48.964,-0.365,0.12
2021-08-19 11:36:48.968,-0.38,0.12
2021-08-19 11:36:48.972,-0.37,0.135
2021-08-19 11:36:48.976,-0.385,0.115
2021-08-19 11:36:48.980,-0.405,0.11
2021-08-19 11:36:48.984,-0.405,0.095
2021-08-19 11:36:48.988,-0.395,0.1
2021-08-19 11:36:48.992,-0.405,0.105
2021-08-19 11:36:48.996,-0.38,0.075
2021-08-19 11:36:49.000,-0.37,0.105
2021-08-19 11:36:49.004,-0.365,0.11
2021-08-19 11:36:49.008,-0.39,0.095
2021-08-19 11:36:49.012,-0.4,0.115
2021-08-19 11:36:49.016,-0.42,0.16
2021-08-19 11:36:49.020,-0.395,0.145
2021-08-19 11:36:49.024,-0.405,0.13
2021-08-19 11:36:49.028,-0.4,0.12
2021-08-19 11:36:49.032,-0.385,0.11
2021-08-19 11:36:49.036,-0.395,0.115
2021-08-19 11:36:49.040,-0.395,0.135
2021-08-19 11:36:49.044,-0.365,0.13
2021-08-19 11:36:49.048,-0.34,0.16
2021-08-19 11:36:49.052,-0.36,0.15
2021-08-19 11:36:49.056,-0.37,0.15
2021-08-19 11:36:49.060,-0.365,0.135
2021-08-19 11:36:49.064,-0.325,0.125
2021-08-19 11:36:49.068,-0.255,0.11
2021-08-19 11:36:49.072,-0.105,0.11
2021-08-19 11:36:49.076,-0.02,0.13
2021-08-19 11:36:49.080,-0.045,0.2
2021-08-19 11:36:49.084,-0.08,0.28
2021-08-19 11:36:49.088,-0.15,0.365
2021-08-19 11:36:49.092,-0.32,0.22
2021-08-19 11:36:49.096,-0.54,-0.185
2021-08-19 11:36:49.100,-0.71,-0.745
2021-08-19 11:36:49.104,-0.815,-1.455
2021-08-19 11:36:49.184,-0.755,-1.84
2021-08-19 11:36:49.188,-0.66,-1.395
2021-08-19 11:36:49.192,-0.565,-1.0
2021-08-19 11:36:49.196,-0.445,-0.675
2021-08-19 11:36:49.200,-0.335,-0.46
2021-08-19 11:36:49.204,-0.285,-0.255
2021-08-19 11:36:49.208,-0.26,-0.075
2021-08-19 11:36:49.212,-0.27,0.14
2021-08-19 11:36:49.216,-0.26,0.315
2021-08-19 11:36:49.220,-0.24,0.51
2021-08-19 11:36:49.224,-0.23,0.62
2021-08-19 11:36:49.228,-0.215,0.69
2021-08-19 11:36:49.232,-0.215,0.775
2021-08-19 11:36:49.236,-0.2,0.8
2021-08-19 11:36:49.240,-0.175,0.845
2021-08-19 11:36:49.244,-0.14,0.83
2021-08-19 11:36:49.248,-0.14,0.85
2021-08-19 11:36:49.252,-0.135,0.89
2021-08-19 11:36:49.256,-0.11,0.93
2021-08-19 11:36:49.260,-0.11,0.93
2021-08-19 11:36:49.264,-0.115,0.93
2021-08-19 11:36:49.268,-0.11,0.96
2021-08-19 11:36:49.272,-0.095,0.95
2021-08-19 11:36:49.276,-0.045,0.955
2021-08-19 11:36:49.280,-0.04,0.975
2021-08-19 11:36:49.284,-0.035,0.98
2021-08-19 11:36:49.288,-0.02,1.0
2021-08-19 11:36:49.292,-0.01,1.02
2021-08-19 11:36:49.296,0.0,1.035
2021-08-19 11:36:49.300,0.005,1.035
2021-08-19 11:36:49.304,0.0,1.075
2021-08-19 11:36:49.308,0.01,1.09
2021-08-19 11:36:49.312,0.02,1.08
2021-08-19 11:36:49.316,0.05,1.095
2021-08-19 11:36:49.320,0.045,1.12
2021-08-19 11:36:49.324,0.05,1.115
2021-08-19 11:36:49.328,0.085,1.17
2021-08-19 11:36:49.332,0.09,1.215
2021-08-19 11:36:49.336,0.07,1.22
2021-08-19 11:36:49.340,0.065,1.245
2021-08-19 11:36:49.344,0.075,1.285
2021-08-19 11:36:49.348,0.065,1.29
2021-08-19 11:36:49.352,0.04,1.325
2021-08-19 11:36:49.356,0.03,1.34
2021-08-19 11:36:49.360,0.05,1.32
2021-08-19 11:36:49.364,0.02,1.375
2021-08-19 11:36:49.368,0.01,1.37
2021-08-19 11:36:49.372,0.05,1.405
2021-08-19 11:36:49.376,0.02,1.435
2021-08-19 11:36:49.380,-0.01,1.455
2021-08-19 11:36:49.384,-0.02,1.45
2021-08-19 11:36:49.388,-0.03,1.455
2021-08-19 11:36:49.392,-0.055,1.48
2021-08-19 11:36:49.396,-0.055,1.5
2021-08-19 11:36:49.400,-0.065,1.48
2021-08-19 11:36:49.404,-0.07,1.475
2021-08-19 11:36:49.408,-0.08,1.47
2021-08-19 11:36:49.412,-0.13,1.44
2021-08-19 11:36:49.416,-0.13,1.445
2021-08-19 11:36:49.420,-0.17,1.42
2021-08-19 11:36:49.424,-0.18,1.37
2021-08-19 11:36:49.428,-0.22,1.345
2021-08-19 11:36:49.432,-0.22,1.3
2021-08-19 11:36:49.436,-0.24,1.255
2021-08-19 11:36:49.440,-0.255,1.19
2021-08-19 11:36:49.444,-0.225,1.15
2021-08-19 11:36:49.448,-0.235,1.09
2021-08-19 11:36:49.452,-0.255,1.04
2021-08-19 11:36:49.456,-0.28,0.975
2021-08-19 11:36:49.460,-0.27,0.9
2021-08-19 11:36:49.464,-0.28,0.86
2021-08-19 11:36:49.468,-0.28,0.805
2021-08-19 11:36:49.472,-0.255,0.74
2021-08-19 11:36:49.476,-0.205,0.685
2021-08-19 11:36:49.480,-0.205,0.615
2021-08-19 11:36:49.484,-0.195,0.575
2021-08-19 11:36:49.488,-0.2,0.535
2021-08-19 11:36:49.492,-0.21,0.53
2021-08-19 11:36:49.496,-0.24,0.485
2021-08-19 11:36:49.500,-0.21,0.475
2021-08-19 11:36:49.504,-0.22,0.435
2021-08-19 11:36:49.508,-0.21,0.435
2021-08-19 11:36:49.512,-0.2,0.41
2021-08-19 11:36:49.516,-0.175,0.395
2021-08-19 11:36:49.520,-0.165,0.37
2021-08-19 11:36:49.524,-0.155,0.37
2021-08-19 11:36:49.528,-0.14,0.35
2021-08-19 11:36:49.532,-0.125,0.38
2021-08-19 11:36:49.536,-0.125,0.38
2021-08-19 11:36:49.540,-0.14,0.395
2021-08-19 11:36:49.544,-0.145,0.39
2021-08-19 11:36:49.548,-0.14,0.39
2021-08-19 11:36:49.552,-0.145,0.385
2021-08-19 11:36:49.556,-0.125,0.365
2021-08-19 11:36:49.560,-0.125,0.36
2021-08-19 11:36:49.564,-0.12,0.375
2021-08-19 11:36:49.568,-0.11,0.375
2021-08-19 11:36:49.572,-0.11,0.38
2021-08-19 11:36:49.576,-0.09,0.375
2021-08-19 11:36:49.580,-0.08,0.395
2021-08-19 11:36:49.584,-0.08,0.415
2021-08-19 11:36:49.588,-0.105,0.39
2021-08-19 11:36:49.592,-0.085,0.395
2021-08-19 11:36:49.596,-0.085,0.405
2021-08-19 11:36:49.600,-0.105,0.39
2021-08-19 11:36:49.604,-0.12,0.39
2021-08-19 11:36:49.608,-0.105,0.36
2021-08-19 11:36:49.612,-0.1,0.345
2021-08-19 11:36:49.616,-0.08,0.34
2021-08-19 11:36:49.620,-0.065,0.355
2021-08-19 11:36:49.624,-0.08,0.35
2021-08-19 11:36:49.628,-0.115,0.35
2021-08-19 11:36:49.632,-0.13,0.35
2021-08-19 11:36:49.636,-0.11,0.33
2021-08-19 11:36:49.640,-0.12,0.325
2021-08-19 11:36:49.644,-0.105,0.31
2021-08-19 11:36:49.648,-0.135,0.295
2021-08-19 11:36:49.652,-0.115,0.3
2021-08-19 11:36:49.656,-0.09,0.31
2021-08-19 11:36:49.660,-0.11,0.3
2021-08-19 11:36:49.664,-0.12,0.285
2021-08-19 11:36:49.668,-0.115,0.3
2021-08-19 11:36:49.672,-0.08,0.275
2021-08-19 11:36:49.676,-0.11,0.285
2021-08-19 11:36:49.680,-0.13,0.28
2021-08-19 11:36:49.684,-0.095,0.255
2021-08-19 11:36:49.688,-0.085,0.26
2021-08-19 11:36:49.692,-0.1,0.24
2021-08-19 11:36:49.696,-0.11,0.23
2021-08-19 11:36:49.700,-0.1,0.23
2021-08-19 11:36:49.704,-0.105,0.275
2021-08-19 11:36:49.708,-0.095,0.25
2021-08-19 11:36:49.712,-0.08,0.22
2021-08-19 11:36:49.716,-0.135,0.205
2021-08-19 11:36:49.720,-0.12,0.2
2021-08-19 11:36:49.724,-0.13,0.205
2021-08-19 11:36:49.728,-0.11,0.21
2021-08-19 11:36:49.732,-0.105,0.2
2021-08-19 11:36:49.736,-0.12,0.18
2021-08-19 11:36:49.740,-0.1,0.22
2021-08-19 11:36:49.744,-0.09,0.2
2021-08-19 11:36:49.748,-0.13,0.215
2021-08-19 11:36:49.752,-0.11,0.185
2021-08-19 11:36:49.756,-0.11,0.23
2021-08-19 11:36:49.760,-0.125,0.205
2021-08-19 11:36:49.764,-0.115,0.195
2021-08-19 11:36:49.768,-0.12,0.17
2021-08-19 11:36:49.772,-0.115,0.19
2021-08-19 11:36:49.776,-0.115,0.165
2021-08-19 11:36:49.780,-0.115,0.165
2021-08-19 11:36:49.784,-0.095,0.165
2021-08-19 11:36:49.788,-0.08,0.17
2021-08-19 11:36:49.792,-0.07,0.18
2021-08-19 11:36:49.796,-0.09,0.18
2021-08-19 11:36:49.800,-0.105,0.17
2021-08-19 11:36:49.804,-0.1,0.185
2021-08-19 11:36:49.808,-0.085,0.17
2021-08-19 11:36:49.812,-0.085,0.175
2021-08-19 11:36:49.816,-0.08,0.13
2021-08-19 11:36:49.820,-0.06,0.15
2021-08-19 11:36:49.824,-0.085,0.15
2021-08-19 11:36:49.828,-0.09,0.165
2021-08-19 11:36:49.832,-0.105,0.135
2021-08-19 11:36:49.836,-0.07,0.135
2021-08-19 11:36:49.840,-0.065,0.155
2021-08-19 11:36:49.844,-0.065,0.14
2021-08-19 11:36:49.848,-0.085,0.125
2021-08-19 11:36:49.852,-0.07,0.14
2021-08-19 11:36:49.856,-0.07,0.13
2021-08-19 11:36:49.860,-0.08,0.14
2021-08-19 11:36:49.864,-0.06,0.11
2021-08-19 11:36:49.868,-0.07,0.12
2021-08-19 11:36:49.872,-0.055,0.14
2021-08-19 11:36:49.876,-0.075,0.14
2021-08-19 11:36:49.880,-0.09,0.12
2021-08-19 11:36:49.884,-0.09,0.12
2021-08-19 11:36:49.888,-0.105,0.085
2021-08-19 11:36:49.892,-0.115,0.105
2021-08-19 11:36:49.896,-0.12,0.1
2021-08-19 11:36:49.900,-0.12,0.105
2021-08-19 11:36:49.904,-0.095,0.115
2021-08-19 11:36:49.908,-0.055,0.11
2021-08-19 11:36:49.912,-0.07,0.11
2021-08-19 11:36:49.916,-0.05,0.08
2021-08-19 11:36:49.920,-0.09,0.1
2021-08-19 11:36:49.924,-0.095,0.105
2021-08-19 11:36:49.928,-0.11,0.105
2021-08-19 11:36:49.932,-0.125,0.085
2021-08-19 11:36:49.936,-0.12,0.075
2021-08-19 11:36:49.940,-0.1,0.065
2021-08-19 11:36:49.944,-0.095,0.08
2021-08-19 11:36:49.948,-0.105,0.08
2021-08-19 11:36:49.952,-0.115,0.1
2021-08-19 11:36:49.956,-0.12,0.07
2021-08-19 11:36:49.960,-0.125,0.09
2021-08-19 11:36:49.964,-0.11,0.11
2021-08-19 11:36:49.968,-0.145,0.08
2021-08-19 11:36:49.972,-0.145,0.08
2021-08-19 11:36:49.976,-0.125,0.095
2021-08-19 11:36:49.980,-0.12,0.07
2021-08-19 11:36:49.984,-0.125,0.08
2021-08-19 11:36:49.988,-0.11,0.065
2021-08-19 11:36:49.992,-0.085,0.09
2021-08-19 11:36:49.996,-0.105,0.08
2021-08-19 11:36:50.000,-0.12,0.07
2021-08-19 11:36:50.004,-0.11,0.075
2021-08-19 11:36:50.008,-0.125,0.095
2021-08-19 11:36:50.012,-0.135,0.095
2021-08-19 11:36:50.016,-0.145,0.075
2021-08-19 11:36:50.020,-0.15,0.075
2021-08-19 11:36:50.024,-0.16,0.06
2021-08-19 11:36:50.028,-0.145,0.095
2021-08-19 11:36:50.032,-0.13,0.095
2021-08-19 11:36:50.036,-0.105,0.075
2021-08-19 11:36:50.040,-0.14,0.075
2021-08-19 11:36:50.044,-0.135,0.08
2021-08-19 11:36:50.048,-0.16,0.105
2021-08-19 11:36:50.052,-0.11,0.1
2021-08-19 11:36:50.056,-0.155,0.095
2021-08-19 11:36:50.060,-0.155,0.075
2021-08-19 11:36:50.064,-0.15,0.085
2021-08-19 11:36:50.068,-0.16,0.07
2021-08-19 11:36:50.072,-0.135,0.08
2021-08-19 11:36:50.076,-0.135,0.08
2021-08-19 11:36:50.080,-0.125,0.095
2021-08-19 11:36:50.084,-0.13,0.09
2021-08-19 11:36:50.088,-0.115,0.09
2021-08-19 11:36:50.092,-0.125,0.105
2021-08-19 11:36:50.096,-0.145,0.075
2021-08-19 11:36:50.100,-0.135,0.075
2021-08-19 11:36:50.104,-0.125,0.075
2021-08-19 11:36:50.108,-0.15,0.095
2021-08-19 11:36:50.112,-0.145,0.075
2021-08-19 11:36:50.116,-0.15,0.09
2021-08-19 11:36:50.120,-0.15,0.095
2021-08-19 11:36:50.124,-0.165,0.09
2021-08-19 11:36:50.128,-0.16,0.115
2021-08-19 11:36:50.132,-0.145,0.09
2021-08-19 11:36:50.136,-0.16,0.115
2021-08-19 11:36:50.140,-0.15,0.1
2021-08-19 11:36:50.144,-0.17,0.095
2021-08-19 11:36:50.148,-0.2,0.08
2021-08-19 11:36:50.152,-0.205,0.085
2021-08-19 11:36:50.156,-0.225,0.1
2021-08-19 11:36:50.160,-0.17,0.095
2021-08-19 11:36:50.164,-0.18,0.09
2021-08-19 11:36:50.168,-0.16,0.115
2021-08-19 11:36:50.172,-0.165,0.1
2021-08-19 11:36:50.176,-0.175,0.08
2021-08-19 11:36:50.180,-0.185,0.11
2021-08-19 11:36:50.184,-0.165,0.11
2021-08-19 11:36:50.188,-0.205,0.115
2021-08-19 11:36:50.192,-0.185,0.115
2021-08-19 11:36:50.196,-0.18,0.08
2021-08-19 11:36:50.200,-0.165,0.105
2021-08-19 11:36:50.204,-0.18,0.095
2021-08-19 11:36:50.208,-0.175,0.09
2021-08-19 11:36:50.212,-0.19,0.095
2021-08-19 11:36:50.216,-0.19,0.11
2021-08-19 11:36:50.220,-0.17,0.1
2021-08-19 11:36:50.224,-0.17,0.095
2021-08-19 11:36:50.228,-0.17,0.105
2021-08-19 11:36:50.232,-0.175,0.075
2021-08-19 11:36:50.236,-0.165,0.08
2021-08-19 11:36:50.240,-0.175,0.095
2021-08-19 11:36:50.244,-0.15,0.115
2021-08-19 11:36:50.248,-0.185,0.115
2021-08-19 11:36:50.252,-0.205,0.14
2021-08-19 11:36:50.256,-0.19,0.155
2021-08-19 11:36:50.260,-0.175,0.14
2021-08-19 11:36:50.264,-0.2,0.15
2021-08-19 11:36:50.268,-0.195,0.13
2021-08-19 11:36:50.272,-0.215,0.13
2021-08-19 11:36:50.276,-0.205,0.135
2021-08-19 11:36:50.280,-0.195,0.13
2021-08-19 11:36:50.284,-0.2,0.12
2021-08-19 11:36:50.288,-0.19,0.11
2021-08-19 11:36:50.292,-0.17,0.15
2021-08-19 11:36:50.296,-0.2,0.135
2021-08-19 11:36:50.300,-0.2,0.135
2021-08-19 11:36:50.304,-0.185,0.145
2021-08-19 11:36:50.308,-0.23,0.145
2021-08-19 11:36:50.312,-0.23,0.145
2021-08-19 11:36:50.316,-0.23,0.165
2021-08-19 11:36:50.320,-0.205,0.17
2021-08-19 11:36:50.324,-0.21,0.135
2021-08-19 11:36:50.328,-0.2,0.135
2021-08-19 11:36:50.332,-0.205,0.12
2021-08-19 11:36:50.336,-0.205,0.15
2021-08-19 11:36:50.340,-0.21,0.15
2021-08-19 11:36:50.344,-0.2,0.155
2021-08-19 11:36:50.348,-0.205,0.13
2021-08-19 11:36:50.352,-0.215,0.13
2021-08-19 11:36:50.356,-0.235,0.13
2021-08-19 11:36:50.360,-0.25,0.15
2021-08-19 11:36:50.364,-0.225,0.14
2021-08-19 11:36:50.368,-0.22,0.125
2021-08-19 11:36:50.372,-0.22,0.155
2021-08-19 11:36:50.376,-0.22,0.12
2021-08-19 11:36:50.380,-0.23,0.13
2021-08-19 11:36:50.384,-0.225,0.15
2021-08-19 11:36:50.388,-0.24,0.155
2021-08-19 11:36:50.392,-0.24,0.135
2021-08-19 11:36:50.396,-0.225,0.125
2021-08-19 11:36:50.400,-0.23,0.125
2021-08-19 11:36:50.404,-0.22,0.11
2021-08-19 11:36:50.408,-0.24,0.1
2021-08-19 11:36:50.412,-0.245,0.12
2021-08-19 11:36:50.416,-0.24,0.12
2021-08-19 11:36:50.420,-0.22,0.14
2021-08-19 11:36:50.424,-0.22,0.14
2021-08-19 11:36:50.428,-0.24,0.13
2021-08-19 11:36:50.432,-0.265,0.13
2021-08-19 11:36:50.436,-0.275,0.125
2021-08-19 11:36:50.440,-0.265,0.135
2021-08-19 11:36:50.444,-0.275,0.115
2021-08-19 11:36:50.448,-0.245,0.135
2021-08-19 11:36:50.452,-0.22,0.135
2021-08-19 11:36:50.456,-0.21,0.12
2021-08-19 11:36:50.460,-0.23,0.115
2021-08-19 11:36:50.464,-0.245,0.13
2021-08-19 11:36:50.468,-0.225,0.145
2021-08-19 11:36:50.472,-0.25,0.13
2021-08-19 11:36:50.476,-0.245,0.15
2021-08-19 11:36:50.480,-0.255,0.145
2021-08-19 11:36:50.484,-0.265,0.135
2021-08-19 11:36:50.488,-0.265,0.13
2021-08-19 11:36:50.492,-0.25,0.105
2021-08-19 11:36:50.496,-0.23,0.12
2021-08-19 11:36:50.500,-0.22,0.12
2021-08-19 11:36:50.504,-0.22,0.11
2021-08-19 11:36:50.508,-0.24,0.1
2021-08-19 11:36:50.512,-0.24,0.11
2021-08-19 11:36:50.516,-0.235,0.11
2021-08-19 11:36:50.520,-0.255,0.115
2021-08-19 11:36:50.524,-0.25,0.1
2021-08-19 11:36:50.528,-0.28,0.1
2021-08-19 11:36:50.532,-0.295,0.115
2021-08-19 11:36:50.536,-0.26,0.09
2021-08-19 11:36:50.540,-0.26,0.075
2021-08-19 11:36:50.544,-0.25,0.075
2021-08-19 11:36:50.548,-0.235,0.09
2021-08-19 11:36:50.552,-0.245,0.11
2021-08-19 11:36:50.556,-0.23,0.1
2021-08-19 11:36:50.560,-0.225,0.115
2021-08-19 11:36:50.564,-0.24,0.13
2021-08-19 11:36:50.568,-0.205,0.11
2021-08-19 11:36:50.572,-0.18,0.115
2021-08-19 11:36:50.576,-0.16,0.15
2021-08-19 11:36:50.580,-0.105,0.14
2021-08-19 11:36:50.584,-0.075,0.17
2021-08-19 11:36:50.588,-0.06,0.2
2021-08-19 11:36:50.592,-0.07,0.23
2021-08-19 11:36:50.596,-0.08,0.255
2021-08-19 11:36:50.600,-0.105,0.24
2021-08-19 11:36:50.604,-0.135,0.235
2021-08-19 11:36:50.608,-0.14,0.22
2021-08-19 11:36:50.612,-0.15,0.195
2021-08-19 11:36:50.616,-0.165,0.155
2021-08-19 11:36:50.620,-0.165,0.145
2021-08-19 11:36:50.624,-0.16,0.125
2021-08-19 11:36:50.628,-0.115,0.115
2021-08-19 11:36:50.632,-0.09,0.08
2021-08-19 11:36:50.636,-0.055,0.06
2021-08-19 11:36:50.640,-0.065,0.07
2021-08-19 11:36:50.644,-0.06,0.09
2021-08-19 11:36:50.648,-0.13,0.115
2021-08-19 11:36:50.652,-0.18,0.16
2021-08-19 11:36:50.656,-0.185,0.15
2021-08-19 11:36:50.660,-0.185,0.175
2021-08-19 11:36:50.664,-0.15,0.15
2021-08-19 11:36:50.668,-0.075,0.09
2021-08-19 11:36:50.672,0.06,0.085
2021-08-19 11:36:50.676,0.1,0.1
2021-08-19 11:36:50.680,0.075,0.175
2021-08-19 11:36:50.684,0.095,0.255
2021-08-19 11:36:50.688,0.105,0.255
2021-08-19 11:36:50.692,0.02,-0.03
2021-08-19 11:36:50.696,-0.06,-0.53
2021-08-19 11:36:50.700,-0.1,-1.125
2021-08-19 11:36:50.704,-0.04,-1.95
2021-08-19 11:36:50.788,-0.71,-1.87
2021-08-19 11:36:50.792,-0.635,-1.475
2021-08-19 11:36:50.796,-0.57,-1.145
2021-08-19 11:36:50.800,-0.51,-0.84
2021-08-19 11:36:50.804,-0.41,-0.62
2021-08-19 11:36:50.808,-0.37,-0.395
2021-08-19 11:36:50.812,-0.3,-0.2
2021-08-19 11:36:50.816,-0.31,-0.04
2021-08-19 11:36:50.820,-0.31,0.155
2021-08-19 11:36:50.824,-0.305,0.315
2021-08-19 11:36:50.828,-0.32,0.455
2021-08-19 11:36:50.832,-0.285,0.58
2021-08-19 11:36:50.836,-0.27,0.655
2021-08-19 11:36:50.840,-0.25,0.67
2021-08-19 11:36:50.844,-0.245,0.68
2021-08-19 11:36:50.848,-0.23,0.715
2021-08-19 11:36:50.852,-0.225,0.74
2021-08-19 11:36:50.856,-0.21,0.77
2021-08-19 11:36:50.860,-0.21,0.785
2021-08-19 11:36:50.864,-0.22,0.795
2021-08-19 11:36:50.868,-0.215,0.815
2021-08-19 11:36:50.872,-0.235,0.83
2021-08-19 11:36:50.876,-0.21,0.825
2021-08-19 11:36:50.880,-0.205,0.83
2021-08-19 11:36:50.884,-0.19,0.85
2021-08-19 11:36:50.888,-0.195,0.87
2021-08-19 11:36:50.892,-0.185,0.86
2021-08-19 11:36:50.896,-0.16,0.88
2021-08-19 11:36:50.900,-0.15,0.89
2021-08-19 11:36:50.904,-0.14,0.92
2021-08-19 11:36:50.908,-0.175,0.935
2021-08-19 11:36:50.912,-0.16,0.94
2021-08-19 11:36:50.916,-0.14,0.95
2021-08-19 11:36:50.920,-0.145,0.965
2021-08-19 11:36:50.924,-0.135,0.965
2021-08-19 11:36:50.928,-0.13,0.98
2021-08-19 11:36:50.932,-0.115,1.0
2021-08-19 11:36:50.936,-0.09,1.025
2021-08-19 11:36:50.940,-0.095,1.03
2021-08-19 11:36:50.944,-0.1,1.055
2021-08-19 11:36:50.948,-0.13,1.065
2021-08-19 11:36:50.952,-0.14,1.08
2021-08-19 11:36:50.956,-0.14,1.1
2021-08-19 11:36:50.960,-0.13,1.105
2021-08-19 11:36:50.964,-0.11,1.1
2021-08-19 11:36:50.968,-0.145,1.12
2021-08-19 11:36:50.972,-0.125,1.12
2021-08-19 11:36:50.976,-0.12,1.16
2021-08-19 11:36:50.980,-0.095,1.145
2021-08-19 11:36:50.984,-0.125,1.18
2021-08-19 11:36:50.988,-0.155,1.19
2021-08-19 11:36:50.992,-0.17,1.19
2021-08-19 11:36:50.996,-0.18,1.225
2021-08-19 11:36:51.000,-0.19,1.225
2021-08-19 11:36:51.004,-0.17,1.235
2021-08-19 11:36:51.008,-0.175,1.225
2021-08-19 11:36:51.012,-0.21,1.205
2021-08-19 11:36:51.016,-0.215,1.24
2021-08-19 11:36:51.020,-0.2,1.25
2021-08-19 11:36:51.024,-0.225,1.21
2021-08-19 11:36:51.028,-0.23,1.24
2021-08-19 11:36:51.032,-0.24,1.245
2021-08-19 11:36:51.036,-0.255,1.25
2021-08-19 11:36:51.040,-0.265,1.225
2021-08-19 11:36:51.044,-0.26,1.21
2021-08-19 11:36:51.048,-0.235,1.2
2021-08-19 11:36:51.052,-0.22,1.155
2021-08-19 11:36:51.056,-0.21,1.115
2021-08-19 11:36:51.060,-0.19,1.135
2021-08-19 11:36:51.064,-0.15,1.095
2021-08-19 11:36:51.068,-0.125,1.075
2021-08-19 11:36:51.072,-0.07,1.05
2021-08-19 11:36:51.076,0.005,1.04
2021-08-19 11:36:51.080,0.065,1.01
2021-08-19 11:36:51.084,0.085,1.01
2021-08-19 11:36:51.088,0.095,0.985
2021-08-19 11:36:51.092,0.06,0.99
2021-08-19 11:36:51.096,0.045,0.975
2021-08-19 11:36:51.100,0.035,0.965
2021-08-19 11:36:51.104,-0.01,0.96
2021-08-19 11:36:51.108,-0.045,0.88
2021-08-19 11:36:51.112,-0.105,0.78
2021-08-19 11:36:51.116,-0.115,0.69
2021-08-19 11:36:51.120,-0.15,0.61
2021-08-19 11:36:51.124,-0.15,0.555
2021-08-19 11:36:51.128,-0.18,0.475
2021-08-19 11:36:51.132,-0.2,0.43
2021-08-19 11:36:51.136,-0.26,0.355
2021-08-19 11:36:51.140,-0.285,0.305
2021-08-19 11:36:51.144,-0.285,0.295
2021-08-19 11:36:51.148,-0.28,0.235
2021-08-19 11:36:51.152,-0.245,0.205
2021-08-19 11:36:51.156,-0.235,0.18
2021-08-19 11:36:51.160,-0.265,0.165
2021-08-19 11:36:51.164,-0.265,0.18
2021-08-19 11:36:51.168,-0.275,0.15
2021-08-19 11:36:51.172,-0.275,0.145
2021-08-19 11:36:51.176,-0.255,0.135
2021-08-19 11:36:51.180,-0.235,0.16
2021-08-19 11:36:51.184,-0.21,0.14
2021-08-19 11:36:51.188,-0.215,0.15
2021-08-19 11:36:51.192,-0.19,0.155
2021-08-19 11:36:51.196,-0.175,0.135
2021-08-19 11:36:51.200,-0.185,0.175
2021-08-19 11:36:51.204,-0.16,0.175
2021-08-19 11:36:51.208,-0.18,0.155
2021-08-19 11:36:51.212,-0.165,0.175
2021-08-19 11:36:51.216,-0.155,0.175
2021-08-19 11:36:51.220,-0.16,0.195
2021-08-19 11:36:51.224,-0.15,0.205
2021-08-19 11:36:51.228,-0.155,0.205
2021-08-19 11:36:51.232,-0.115,0.215
2021-08-19 11:36:51.236,-0.1,0.22
2021-08-19 11:36:51.240,-0.085,0.215
2021-08-19 11:36:51.244,-0.09,0.22
2021-08-19 11:36:51.248,-0.105,0.22
2021-08-19 11:36:51.252,-0.09,0.235
2021-08-19 11:36:51.256,-0.09,0.245
2021-08-19 11:36:51.260,-0.1,0.24
2021-08-19 11:36:51.264,-0.1,0.25
2021-08-19 11:36:51.268,-0.1,0.23
2021-08-19 11:36:51.272,-0.07,0.215
2021-08-19 11:36:51.276,-0.045,0.21
2021-08-19 11:36:51.280,-0.03,0.23
2021-08-19 11:36:51.284,-0.03,0.23
2021-08-19 11:36:51.288,-0.025,0.205
2021-08-19 11:36:51.292,0.045,0.225
2021-08-19 11:36:51.296,0.205,0.215
2021-08-19 11:36:51.300,0.31,0.225
2021-08-19 11:36:51.304,0.315,0.215
2021-08-19 11:36:51.308,0.295,0.265
2021-08-19 11:36:51.312,0.245,0.345
2021-08-19 11:36:51.316,0.095,0.325
2021-08-19 11:36:51.320,-0.065,0.075
2021-08-19 11:36:51.324,-0.2,-0.38
2021-08-19 11:36:51.328,-0.35,-0.925
2021-08-19 11:36:51.332,-0.415,-1.615
2021-08-19 11:36:51.412,0.0,-1.865
2021-08-19 11:36:51.416,0.015,-1.455
2021-08-19 11:36:51.420,0.035,-1.11
2021-08-19 11:36:51.424,0.06,-0.825
2021-08-19 11:36:51.428,0.11,-0.565
2021-08-19 11:36:51.432,0.145,-0.385
2021-08-19 11:36:51.436,0.15,-0.185
2021-08-19 11:36:51.440,0.11,-0.02
2021-08-19 11:36:51.444,0.1,0.125
2021-08-19 11:36:51.448,0.075,0.275
2021-08-19 11:36:51.452,0.1,0.4
2021-08-19 11:36:51.456,0.11,0.49
2021-08-19 11:36:51.460,0.11,0.545
2021-08-19 11:36:51.464,0.095,0.58
2021-08-19 11:36:51.468,0.105,0.625
2021-08-19 11:36:51.472,0.115,0.66
2021-08-19 11:36:51.476,0.105,0.64
2021-08-19 11:36:51.480,0.13,0.67
2021-08-19 11:36:51.484,0.13,0.66
2021-08-19 11:36:51.488,0.12,0.66
2021-08-19 11:36:51.492,0.16,0.695
2021-08-19 11:36:51.496,0.18,0.715
2021-08-19 11:36:51.500,0.2,0.73
2021-08-19 11:36:51.504,0.205,0.74
2021-08-19 11:36:51.508,0.205,0.76
2021-08-19 11:36:51.512,0.255,0.76
2021-08-19 11:36:51.516,0.255,0.775
2021-08-19 11:36:51.520,0.25,0.785
2021-08-19 11:36:51.524,0.26,0.795
2021-08-19 11:36:51.528,0.285,0.8
2021-08-19 11:36:51.532,0.305,0.825
2021-08-19 11:36:51.536,0.32,0.845
2021-08-19 11:36:51.540,0.335,0.87
2021-08-19 11:36:51.544,0.33,0.89
2021-08-19 11:36:51.548,0.355,0.905
2021-08-19 11:36:51.552,0.355,0.915
2021-08-19 11:36:51.556,0.33,0.945
2021-08-19 11:36:51.560,0.33,0.97
2021-08-19 11:36:51.564,0.345,0.995
2021-08-19 11:36:51.568,0.345,0.99
2021-08-19 11:36:51.572,0.355,1.02
2021-08-19 11:36:51.576,0.385,1.02
2021-08-19 11:36:51.580,0.375,1.04
2021-08-19 11:36:51.584,0.36,1.09
2021-08-19 11:36:51.588,0.37,1.11
2021-08-19 11:36:51.592,0.36,1.15
2021-08-19 11:36:51.596,0.365,1.19
2021-08-19 11:36:51.600,0.36,1.22
2021-08-19 11:36:51.604,0.37,1.24
2021-08-19 11:36:51.608,0.385,1.275
2021-08-19 11:36:51.612,0.385,1.27
2021-08-19 11:36:51.616,0.38,1.29
2021-08-19 11:36:51.620,0.38,1.325
2021-08-19 11:36:51.624,0.385,1.38
2021-08-19 11:36:51.628,0.375,1.41
2021-08-19 11:36:51.632,0.315,1.445
2021-08-19 11:36:51.636,0.285,1.44
2021-08-19 11:36:51.640,0.245,1.38
2021-08-19 11:36:51.644,0.23,1.37
2021-08-19 11:36:51.648,0.195,1.3
2021-08-19 11:36:51.652,0.175,1.255
2021-08-19 11:36:51.656,0.14,1.22
2021-08-19 11:36:51.660,0.12,1.19
2021-08-19 11:36:51.664,0.09,1.155
2021-08-19 11:36:51.668,0.085,1.11
2021-08-19 11:36:51.672,0.055,1.055
2021-08-19 11:36:51.676,0.055,0.995
2021-08-19 11:36:51.680,0.025,0.935
2021-08-19 11:36:51.684,0.025,0.865
2021-08-19 11:36:51.688,-0.005,0.79
2021-08-19 11:36:51.692,-0.005,0.735
2021-08-19 11:36:51.696,-0.035,0.675
2021-08-19 11:36:51.700,-0.03,0.62
2021-08-19 11:36:51.704,-0.03,0.54
2021-08-19 11:36:51.708,-0.04,0.49
2021-08-19 11:36:51.712,-0.02,0.42
2021-08-19 11:36:51.716,-0.02,0.39
2021-08-19 11:36:51.720,-0.03,0.34
2021-08-19 11:36:51.724,-0.04,0.305
2021-08-19 11:36:51.728,-0.06,0.305
2021-08-19 11:36:51.732,-0.065,0.25
2021-08-19 11:36:51.736,-0.06,0.205
2021-08-19 11:36:51.740,-0.06,0.225
2021-08-19 11:36:51.744,-0.035,0.18
2021-08-19 11:36:51.748,-0.035,0.155
2021-08-19 11:36:51.752,-0.045,0.15
2021-08-19 11:36:51.756,-0.025,0.14
2021-08-19 11:36:51.760,0.0,0.13
2021-08-19 11:36:51.764,-0.015,0.135
2021-08-19 11:36:51.768,-0.02,0.14
2021-08-19 11:36:51.772,-0.035,0.13
2021-08-19 11:36:51.776,-0.015,0.125
2021-08-19 11:36:51.780,-0.005,0.11
2021-08-19 11:36:51.784,-0.02,0.11
2021-08-19 11:36:51.788,0.005,0.12
2021-08-19 11:36:51.792,0.005,0.145
2021-08-19 11:36:51.796,0.0,0.13
2021-08-19 11:36:51.800,0.0,0.14
2021-08-19 11:36:51.804,0.015,0.14
2021-08-19 11:36:51.808,0.05,0.14
2021-08-19 11:36:51.812,0.05,0.135
2021-08-19 11:36:51.816,0.06,0.145
2021-08-19 11:36:51.820,0.05,0.15
2021-08-19 11:36:51.824,0.065,0.155
2021-08-19 11:36:51.828,0.075,0.165
2021-08-19 11:36:51.832,0.08,0.16
2021-08-19 11:36:51.836,0.095,0.175
2021-08-19 11:36:51.840,0.115,0.175
2021-08-19 11:36:51.844,0.13,0.185
2021-08-19 11:36:51.848,0.15,0.21
2021-08-19 11:36:51.852,0.16,0.245
2021-08-19 11:36:51.856,0.155,0.235
2021-08-19 11:36:51.860,0.115,0.205
2021-08-19 11:36:51.864,0.09,0.23
2021-08-19 11:36:51.868,0.05,0.23
2021-08-19 11:36:51.872,0.01,0.2
2021-08-19 11:36:51.876,0.0,0.17
2021-08-19 11:36:51.880,0.005,0.145
2021-08-19 11:36:51.884,0.005,0.09
2021-08-19 11:36:51.888,0.0,0.125
2021-08-19 11:36:51.892,0.025,0.085
2021-08-19 11:36:51.896,0.005,0.075
2021-08-19 11:36:51.900,-0.015,0.065
2021-08-19 11:36:51.904,-0.03,0.065
2021-08-19 11:36:51.908,-0.05,0.08
2021-08-19 11:36:51.912,-0.07,0.07
2021-08-19 11:36:51.916,-0.09,0.04
2021-08-19 11:36:51.920,-0.1,0.02
2021-08-19 11:36:51.924,-0.1,0.035
2021-08-19 11:36:51.928,-0.11,0.015
2021-08-19 11:36:51.932,-0.14,-0.015
2021-08-19 11:36:51.936,-0.17,0.03
2021-08-19 11:36:51.940,-0.185,0.035
2021-08-19 11:36:51.944,-0.195,0.02
2021-08-19 11:36:51.948,-0.185,0.005
2021-08-19 11:36:51.952,-0.205,-0.005
2021-08-19 11:36:51.956,-0.2,0.0
2021-08-19 11:36:51.960,-0.19,0.01
2021-08-19 11:36:51.964,-0.16,-0.02
2021-08-19 11:36:51.968,-0.17,0.005
2021-08-19 11:36:51.972,-0.19,0.0
2021-08-19 11:36:51.976,-0.2,0.0
2021-08-19 11:36:51.980,-0.19,0.01
2021-08-19 11:36:51.984,-0.2,0.03
2021-08-19 11:36:51.988,-0.185,0.005
2021-08-19 11:36:51.992,-0.195,-0.005
2021-08-19 11:36:51.996,-0.205,0.005
2021-08-19 11:36:52.000,-0.22,0.0
2021-08-19 11:36:52.004,-0.21,0.005
2021-08-19 11:36:52.008,-0.205,-0.01
2021-08-19 11:36:52.012,-0.21,0.0
2021-08-19 11:36:52.016,-0.18,0.005
2021-08-19 11:36:52.020,-0.18,0.025
2021-08-19 11:36:52.024,-0.195,0.015
2021-08-19 11:36:52.028,-0.185,0.02
2021-08-19 11:36:52.032,-0.2,0.015
2021-08-19 11:36:52.036,-0.19,0.04
2021-08-19 11:36:52.040,-0.2,0.03
2021-08-19 11:36:52.044,-0.185,0.02
2021-08-19 11:36:52.048,-0.16,0.045
2021-08-19 11:36:52.052,-0.145,0.04
2021-08-19 11:36:52.056,-0.16,0.06
2021-08-19 11:36:52.060,-0.12,0.055
2021-08-19 11:36:52.064,-0.08,0.075
2021-08-19 11:36:52.068,-0.085,0.08
2021-08-19 11:36:52.072,-0.06,0.08
2021-08-19 11:36:52.076,-0.055,0.075
2021-08-19 11:36:52.080,-0.045,0.095
2021-08-19 11:36:52.084,-0.01,0.11
2021-08-19 11:36:52.088,0.005,0.1
2021-08-19 11:36:52.092,0.11,0.125
2021-08-19 11:36:52.096,0.215,0.14
2021-08-19 11:36:52.100,0.285,0.17
2021-08-19 11:36:52.104,0.275,0.255
2021-08-19 11:36:52.108,0.265,0.355
2021-08-19 11:36:52.112,0.195,0.37
2021-08-19 11:36:52.116,0.06,0.15
2021-08-19 11:36:52.120,-0.075,-0.32
2021-08-19 11:36:52.124,-0.16,-0.945
2021-08-19 11:36:52.128,-0.18,-1.67
2021-08-19 11:36:52.212,-0.47,-1.69
2021-08-19 11:36:52.216,-0.41,-1.34
2021-08-19 11:36:52.220,-0.335,-0.985
2021-08-19 11:36:52.224,-0.245,-0.715
2021-08-19 11:36:52.228,-0.185,-0.475
2021-08-19 11:36:52.232,-0.155,-0.255
2021-08-19 11:36:52.236,-0.135,-0.08
2021-08-19 11:36:52.240,-0.13,0.1
2021-08-19 11:36:52.244,-0.12,0.26
2021-08-19 11:36:52.248,-0.125,0.405
2021-08-19 11:36:52.252,-0.1,0.53
2021-08-19 11:36:52.256,-0.085,0.62
2021-08-19 11:36:52.260,-0.065,0.645
2021-08-19 11:36:52.264,-0.05,0.68
2021-08-19 11:36:52.268,-0.02,0.71
2021-08-19 11:36:52.272,-0.005,0.725
2021-08-19 11:36:52.276,0.005,0.745
2021-08-19 11:36:52.280,0.005,0.785
2021-08-19 11:36:52.284,0.025,0.79
2021-08-19 11:36:52.288,0.03,0.815
2021-08-19 11:36:52.292,0.035,0.825
2021-08-19 11:36:52.296,0.055,0.835
2021-08-19 11:36:52.300,0.06,0.855
2021-08-19 11:36:52.304,0.06,0.885
2021-08-19 11:36:52.308,0.04,0.91
2021-08-19 11:36:52.312,0.07,0.915
2021-08-19 11:36:52.316,0.085,0.92
2021-08-19 11:36:52.320,0.105,0.96
2021-08-19 11:36:52.324,0.11,0.965
2021-08-19 11:36:52.328,0.18,0.995
2021-08-19 11:36:52.332,0.215,1.015
2021-08-19 11:36:52.336,0.23,1.025
2021-08-19 11:36:52.340,0.225,1.07
2021-08-19 11:36:52.344,0.205,1.1
2021-08-19 11:36:52.348,0.2,1.135
2021-08-19 11:36:52.352,0.17,1.135
2021-08-19 11:36:52.356,0.135,1.105
2021-08-19 11:36:52.360,0.135,1.125
2021-08-19 11:36:52.364,0.115,1.105
2021-08-19 11:36:52.368,0.1,1.105
2021-08-19 11:36:52.372,0.105,1.11
2021-08-19 11:36:52.376,0.135,1.11
2021-08-19 11:36:52.380,0.105,1.145
2021-08-19 11:36:52.384,0.065,1.155
2021-08-19 11:36:52.388,0.03,1.16
2021-08-19 11:36:52.392,0.005,1.16
2021-08-19 11:36:52.396,-0.01,1.21
2021-08-19 11:36:52.400,-0.02,1.225
2021-08-19 11:36:52.404,-0.055,1.215
2021-08-19 11:36:52.408,-0.05,1.225
2021-08-19 11:36:52.412,-0.065,1.235
2021-08-19 11:36:52.416,-0.05,1.265
2021-08-19 11:36:52.420,-0.07,1.25
2021-08-19 11:36:52.424,-0.05,1.23
2021-08-19 11:36:52.428,-0.045,1.235
2021-08-19 11:36:52.432,-0.06,1.23
2021-08-19 11:36:52.436,-0.06,1.23
2021-08-19 11:36:52.440,-0.065,1.235
2021-08-19 11:36:52.444,-0.08,1.22
2021-08-19 11:36:52.448,-0.095,1.2
2021-08-19 11:36:52.452,-0.125,1.17
2021-08-19 11:36:52.456,-0.105,1.13
2021-08-19 11:36:52.460,-0.105,1.11
2021-08-19 11:36:52.464,-0.125,1.065
2021-08-19 11:36:52.468,-0.14,1.005
2021-08-19 11:36:52.472,-0.125,0.975
2021-08-19 11:36:52.476,-0.11,0.935
2021-08-19 11:36:52.480,-0.1,0.865
2021-08-19 11:36:52.484,-0.085,0.805
2021-08-19 11:36:52.488,-0.105,0.78
2021-08-19 11:36:52.492,-0.09,0.71
2021-08-19 11:36:52.496,-0.095,0.645
2021-08-19 11:36:52.500,-0.09,0.6
2021-08-19 11:36:52.504,-0.055,0.575
2021-08-19 11:36:52.508,-0.03,0.51
2021-08-19 11:36:52.512,-0.04,0.445
2021-08-19 11:36:52.516,-0.045,0.425
2021-08-19 11:36:52.520,-0.04,0.395
2021-08-19 11:36:52.524,-0.035,0.37
2021-08-19 11:36:52.528,-0.015,0.385
2021-08-19 11:36:52.532,0.005,0.35
2021-08-19 11:36:52.536,0.015,0.32
2021-08-19 11:36:52.540,0.065,0.36
2021-08-19 11:36:52.544,0.105,0.34
2021-08-19 11:36:52.548,0.12,0.355
2021-08-19 11:36:52.552,0.17,0.34
2021-08-19 11:36:52.556,0.155,0.385
2021-08-19 11:36:52.560,0.165,0.375
2021-08-19 11:36:52.564,0.155,0.34
2021-08-19 11:36:52.568,0.18,0.34
2021-08-19 11:36:52.572,0.13,0.315
2021-08-19 11:36:52.576,0.125,0.285
2021-08-19 11:36:52.580,0.12,0.255
2021-08-19 11:36:52.584,0.12,0.21
2021-08-19 11:36:52.588,0.155,0.19
2021-08-19 11:36:52.592,0.185,0.2
2021-08-19 11:36:52.596,0.19,0.2
2021-08-19 11:36:52.600,0.165,0.195
2021-08-19 11:36:52.604,0.17,0.22
2021-08-19 11:36:52.608,0.175,0.215
2021-08-19 11:36:52.612,0.195,0.21
2021-08-19 11:36:52.616,0.29,0.21
2021-08-19 11:36:52.620,0.41,0.185
2021-08-19 11:36:52.624,0.575,0.145
2021-08-19 11:36:52.628,0.67,0.17
2021-08-19 11:36:52.632,0.655,0.255
2021-08-19 11:36:52.636,0.555,0.37
2021-08-19 11:36:52.640,0.38,0.37
2021-08-19 11:36:52.644,0.165,0.18
2021-08-19 11:36:52.648,-0.035,-0.245
2021-08-19 11:36:52.652,-0.175,-0.755
2021-08-19 11:36:52.656,-0.195,-1.535
2021-08-19 11:36:52.732,-0.12,-1.74
2021-08-19 11:36:52.736,-0.08,-1.335
2021-08-19 11:36:52.740,-0.01,-0.995
2021-08-19 11:36:52.744,0.09,-0.665
2021-08-19 11:36:52.748,0.12,-0.41
2021-08-19 11:36:52.752,0.155,-0.22
2021-08-19 11:36:52.756,0.23,-0.035
2021-08-19 11:36:52.760,0.24,0.14
2021-08-19 11:36:52.764,0.285,0.31
2021-08-19 11:36:52.768,0.3,0.44
2021-08-19 11:36:52.772,0.26,0.53
2021-08-19 11:36:52.776,0.245,0.595
2021-08-19 11:36:52.780,0.255,0.655
2021-08-19 11:36:52.784,0.265,0.655
2021-08-19 11:36:52.788,0.285,0.67
2021-08-19 11:36:52.792,0.285,0.66
2021-08-19 11:36:52.796,0.305,0.665
2021-08-19 11:36:52.800,0.305,0.69
2021-08-19 11:36:52.804,0.315,0.72
2021-08-19 11:36:52.808,0.325,0.715
2021-08-19 11:36:52.812,0.34,0.73
2021-08-19 11:36:52.816,0.315,0.745
2021-08-19 11:36:52.820,0.32,0.755
2021-08-19 11:36:52.824,0.36,0.785
2021-08-19 11:36:52.828,0.355,0.765
2021-08-19 11:36:52.832,0.365,0.74
2021-08-19 11:36:52.836,0.365,0.76
2021-08-19 11:36:52.840,0.37,0.785
2021-08-19 11:36:52.844,0.37,0.82
2021-08-19 11:36:52.848,0.39,0.845
2021-08-19 11:36:52.852,0.375,0.865
2021-08-19 11:36:52.856,0.39,0.89
2021-08-19 11:36:52.860,0.385,0.91
2021-08-19 11:36:52.864,0.375,0.925
2021-08-19 11:36:52.868,0.385,0.92
2021-08-19 11:36:52.872,0.39,0.935
2021-08-19 11:36:52.876,0.405,0.955
2021-08-19 11:36:52.880,0.4,0.99
2021-08-19 11:36:52.884,0.4,1.035
2021-08-19 11:36:52.888,0.39,1.025
2021-08-19 11:36:52.892,0.405,1.07
2021-08-19 11:36:52.896,0.395,1.085
2021-08-19 11:36:52.900,0.405,1.12
2021-08-19 11:36:52.904,0.415,1.135
2021-08-19 11:36:52.908,0.41,1.16
2021-08-19 11:36:52.912,0.36,1.195
2021-08-19 11:36:52.916,0.385,1.22
2021-08-19 11:36:52.920,0.415,1.215
2021-08-19 11:36:52.924,0.42,1.265
2021-08-19 11:36:52.928,0.385,1.28
2021-08-19 11:36:52.932,0.35,1.315
2021-08-19 11:36:52.936,0.32,1.32
2021-08-19 11:36:52.940,0.31,1.325
2021-08-19 11:36:52.944,0.285,1.315
2021-08-19 11:36:52.948,0.25,1.285
2021-08-19 11:36:52.952,0.225,1.275
2021-08-19 11:36:52.956,0.2,1.27
2021-08-19 11:36:52.960,0.2,1.22
2021-08-19 11:36:52.964,0.195,1.19
2021-08-19 11:36:52.968,0.185,1.175
2021-08-19 11:36:52.972,0.19,1.11
2021-08-19 11:36:52.976,0.165,1.09
2021-08-19 11:36:52.980,0.165,1.005
2021-08-19 11:36:52.984,0.165,0.93
2021-08-19 11:36:52.988,0.14,0.855
2021-08-19 11:36:52.992,0.16,0.75
2021-08-19 11:36:52.996,0.115,0.655
2021-08-19 11:36:53.000,0.13,0.575
2021-08-19 11:36:53.004,0.13,0.53
2021-08-19 11:36:53.008,0.135,0.485
2021-08-19 11:36:53.012,0.115,0.43
2021-08-19 11:36:53.016,0.13,0.405
2021-08-19 11:36:53.020,0.14,0.355
2021-08-19 11:36:53.024,0.105,0.315
2021-08-19 11:36:53.028,0.085,0.305
2021-08-19 11:36:53.032,0.095,0.255
2021-08-19 11:36:53.036,0.095,0.25
2021-08-19 11:36:53.040,0.08,0.225
2021-08-19 11:36:53.044,0.085,0.195
2021-08-19 11:36:53.048,0.08,0.185
2021-08-19 11:36:53.052,0.05,0.195
2021-08-19 11:36:53.056,0.065,0.17
2021-08-19 11:36:53.060,0.03,0.17
2021-08-19 11:36:53.064,0.015,0.18
2021-08-19 11:36:53.068,0.02,0.175
2021-08-19 11:36:53.072,0.02,0.185
2021-08-19 11:36:53.076,0.01,0.155
2021-08-19 11:36:53.080,0.04,0.155
2021-08-19 11:36:53.084,0.05,0.16
2021-08-19 11:36:53.088,0.03,0.145
2021-08-19 11:36:53.092,0.025,0.16
2021-08-19 11:36:53.096,0.035,0.17
2021-08-19 11:36:53.100,0.02,0.2
2021-08-19 11:36:53.104,0.01,0.2
2021-08-19 11:36:53.108,0.05,0.21
2021-08-19 11:36:53.112,0.035,0.205
2021-08-19 11:36:53.116,0.03,0.2
2021-08-19 11:36:53.120,0.025,0.165
2021-08-19 11:36:53.124,0.05,0.175
2021-08-19 11:36:53.128,0.055,0.185
2021-08-19 11:36:53.132,0.035,0.2
2021-08-19 11:36:53.136,0.025,0.2
2021-08-19 11:36:53.140,0.005,0.185
2021-08-19 11:36:53.144,-0.01,0.19
2021-08-19 11:36:53.148,0.015,0.18
2021-08-19 11:36:53.152,0.0,0.16
2021-08-19 11:36:53.156,0.0,0.17
2021-08-19 11:36:53.160,0.0,0.17
2021-08-19 11:36:53.164,-0.03,0.18
2021-08-19 11:36:53.168,-0.02,0.185
2021-08-19 11:36:53.172,-0.03,0.17
2021-08-19 11:36:53.176,-0.01,0.165
2021-08-19 11:36:53.180,0.0,0.16
2021-08-19 11:36:53.184,0.03,0.135
2021-08-19 11:36:53.188,0.03,0.115
2021-08-19 11:36:53.192,0.02,0.11
2021-08-19 11:36:53.196,0.015,0.11
2021-08-19 11:36:53.200,-0.005,0.11
2021-08-19 11:36:53.204,0.02,0.065
2021-08-19 11:36:53.208,0.035,0.05
2021-08-19 11:36:53.212,0.07,0.05
2021-08-19 11:36:53.216,0.075,0.04
2021-08-19 11:36:53.220,0.07,0.035
2021-08-19 11:36:53.224,0.06,0.06
2021-08-19 11:36:53.228,0.07,0.08
2021-08-19 11:36:53.232,0.065,0.1
2021-08-19 11:36:53.236,0.075,0.09
2021-08-19 11:36:53.240,0.07,0.1
2021-08-19 11:36:53.244,0.1,0.11
2021-08-19 11:36:53.248,0.1,0.105
2021-08-19 11:36:53.252,0.08,0.105
2021-08-19 11:36:53.256,0.08,0.12
2021-08-19 11:36:53.260,0.055,0.135
2021-08-19 11:36:53.264,0.065,0.115
2021-08-19 11:36:53.268,0.05,0.12
2021-08-19 11:36:53.272,0.055,0.115
2021-08-19 11:36:53.276,0.035,0.11
2021-08-19 11:36:53.280,0.02,0.115
2021-08-19 11:36:53.284,0.015,0.11
2021-08-19 11:36:53.288,0.04,0.14
2021-08-19 11:36:53.292,0.06,0.145
2021-08-19 11:36:53.296,0.04,0.155
2021-08-19 11:36:53.300,0.045,0.15
2021-08-19 11:36:53.304,0.045,0.17
2021-08-19 11:36:53.308,0.04,0.18
2021-08-19 11:36:53.312,0.015,0.19
2021-08-19 11:36:53.316,0.03,0.17
2021-08-19 11:36:53.320,0.035,0.155
2021-08-19 11:36:53.324,0.03,0.145
2021-08-19 11:36:53.328,0.045,0.135
2021-08-19 11:36:53.332,0.05,0.18
2021-08-19 11:36:53.336,0.075,0.205
2021-08-19 11:36:53.340,0.065,0.2
2021-08-19 11:36:53.344,0.03,0.205
2021-08-19 11:36:53.348,0.04,0.185
2021-08-19 11:36:53.352,0.06,0.195
2021-08-19 11:36:53.356,0.075,0.19
2021-08-19 11:36:53.360,0.155,0.175
2021-08-19 11:36:53.364,0.22,0.185
2021-08-19 11:36:53.368,0.29,0.195
2021-08-19 11:36:53.372,0.305,0.28
2021-08-19 11:36:53.376,0.28,0.375
2021-08-19 11:36:53.380,0.235,0.43
2021-08-19 11:36:53.384,0.13,0.285
2021-08-19 11:36:53.388,0.02,-0.155
2021-08-19 11:36:53.392,-0.1,-0.72
2021-08-19 11:36:53.396,-0.14,-1.435
2021-08-19 11:36:53.476,-0.445,-1.875
2021-08-19 11:36:53.480,-0.41,-1.45
2021-08-19 11:36:53.484,-0.36,-1.105
2021-08-19 11:36:53.488,-0.305,-0.825
2021-08-19 11:36:53.492,-0.22,-0.6
2021-08-19 11:36:53.496,-0.195,-0.37
2021-08-19 11:36:53.500,-0.14,-0.17
2021-08-19 11:36:53.504,-0.13,0.025
2021-08-19 11:36:53.508,-0.135,0.215
2021-08-19 11:36:53.512,-0.13,0.375
2021-08-19 11:36:53.516,-0.11,0.525
2021-08-19 11:36:53.520,-0.135,0.625
2021-08-19 11:36:53.524,-0.135,0.715
2021-08-19 11:36:53.528,-0.1,0.745
2021-08-19 11:36:53.532,-0.08,0.77
2021-08-19 11:36:53.536,-0.08,0.795
2021-08-19 11:36:53.540,-0.055,0.83
2021-08-19 11:36:53.544,-0.035,0.845
2021-08-19 11:36:53.548,-0.015,0.87
2021-08-19 11:36:53.552,-0.01,0.9
2021-08-19 11:36:53.556,-0.025,0.92
2021-08-19 11:36:53.560,-0.02,0.945
2021-08-19 11:36:53.564,-0.01,0.925
2021-08-19 11:36:53.568,-0.025,0.95
2021-08-19 11:36:53.572,0.01,0.965
2021-08-19 11:36:53.576,0.015,0.98
2021-08-19 11:36:53.580,0.02,0.995
2021-08-19 11:36:53.584,0.025,1.025
2021-08-19 11:36:53.588,0.055,1.02
2021-08-19 11:36:53.592,0.045,1.03
2021-08-19 11:36:53.596,0.055,1.055
2021-08-19 11:36:53.600,0.06,1.07
2021-08-19 11:36:53.604,0.05,1.075
2021-08-19 11:36:53.608,0.04,1.065
2021-08-19 11:36:53.612,0.01,1.05
2021-08-19 11:36:53.616,-0.01,1.07
2021-08-19 11:36:53.620,-0.02,1.09
2021-08-19 11:36:53.624,-0.04,1.105
2021-08-19 11:36:53.628,-0.09,1.1
2021-08-19 11:36:53.632,-0.075,1.13
2021-08-19 11:36:53.636,-0.085,1.155
2021-08-19 11:36:53.640,-0.1,1.13
2021-08-19 11:36:53.644,-0.12,1.17
2021-08-19 11:36:53.648,-0.135,1.19
2021-08-19 11:36:53.652,-0.115,1.2
2021-08-19 11:36:53.656,-0.11,1.235
2021-08-19 11:36:53.660,-0.115,1.23
2021-08-19 11:36:53.664,-0.15,1.25
2021-08-19 11:36:53.668,-0.14,1.285
2021-08-19 11:36:53.672,-0.15,1.305
2021-08-19 11:36:53.676,-0.16,1.325
2021-08-19 11:36:53.680,-0.19,1.375
2021-08-19 11:36:53.684,-0.185,1.385
2021-08-19 11:36:53.688,-0.195,1.37
2021-08-19 11:36:53.692,-0.205,1.375
2021-08-19 11:36:53.696,-0.23,1.38
2021-08-19 11:36:53.700,-0.225,1.365
2021-08-19 11:36:53.704,-0.22,1.355
2021-08-19 11:36:53.708,-0.2,1.36
2021-08-19 11:36:53.712,-0.225,1.35
2021-08-19 11:36:53.716,-0.245,1.315
2021-08-19 11:36:53.720,-0.28,1.29
2021-08-19 11:36:53.724,-0.295,1.265
2021-08-19 11:36:53.728,-0.3,1.25
2021-08-19 11:36:53.732,-0.28,1.205
2021-08-19 11:36:53.736,-0.31,1.125
2021-08-19 11:36:53.740,-0.305,1.06
2021-08-19 11:36:53.744,-0.32,1.015
2021-08-19 11:36:53.748,-0.335,0.965
2021-08-19 11:36:53.752,-0.335,0.91
2021-08-19 11:36:53.756,-0.345,0.855
2021-08-19 11:36:53.760,-0.355,0.82
2021-08-19 11:36:53.764,-0.37,0.76
2021-08-19 11:36:53.768,-0.38,0.705
2021-08-19 11:36:53.772,-0.355,0.645
2021-08-19 11:36:53.776,-0.35,0.585
2021-08-19 11:36:53.780,-0.345,0.53
2021-08-19 11:36:53.784,-0.35,0.505
2021-08-19 11:36:53.788,-0.365,0.5
2021-08-19 11:36:53.792,-0.38,0.455
2021-08-19 11:36:53.796,-0.38,0.42
2021-08-19 11:36:53.800,-0.385,0.405
2021-08-19 11:36:53.804,-0.36,0.4
2021-08-19 11:36:53.808,-0.35,0.355
2021-08-19 11:36:53.812,-0.315,0.375
2021-08-19 11:36:53.816,-0.275,0.37
2021-08-19 11:36:53.820,-0.25,0.365
2021-08-19 11:36:53.824,-0.225,0.375
2021-08-19 11:36:53.828,-0.195,0.355
2021-08-19 11:36:53.832,-0.215,0.375
2021-08-19 11:36:53.836,-0.22,0.405
2021-08-19 11:36:53.840,-0.21,0.385
2021-08-19 11:36:53.844,-0.22,0.34
2021-08-19 11:36:53.848,-0.235,0.32
2021-08-19 11:36:53.852,-0.225,0.275
2021-08-19 11:36:53.856,-0.245,0.27
2021-08-19 11:36:53.860,-0.295,0.25
2021-08-19 11:36:53.864,-0.29,0.255
2021-08-19 11:36:53.868,-0.275,0.215
2021-08-19 11:36:53.872,-0.25,0.195
2021-08-19 11:36:53.876,-0.24,0.225
2021-08-19 11:36:53.880,-0.235,0.25
2021-08-19 11:36:53.884,-0.235,0.255
2021-08-19 11:36:53.888,-0.24,0.285
2021-08-19 11:36:53.892,-0.24,0.305
2021-08-19 11:36:53.896,-0.255,0.29
2021-08-19 11:36:53.900,-0.25,0.27
2021-08-19 11:36:53.904,-0.245,0.285
2021-08-19 11:36:53.908,-0.245,0.295
2021-08-19 11:36:53.912,-0.205,0.255
2021-08-19 11:36:53.916,-0.19,0.27
2021-08-19 11:36:53.920,-0.195,0.285
2021-08-19 11:36:53.924,-0.215,0.285
2021-08-19 11:36:53.928,-0.24,0.255
2021-08-19 11:36:53.932,-0.25,0.265
2021-08-19 11:36:53.936,-0.265,0.275
2021-08-19 11:36:53.940,-0.24,0.25
2021-08-19 11:36:53.944,-0.25,0.245
2021-08-19 11:36:53.948,-0.25,0.245
2021-08-19 11:36:53.952,-0.24,0.26
2021-08-19 11:36:53.956,-0.235,0.24
2021-08-19 11:36:53.960,-0.265,0.26
2021-08-19 11:36:53.964,-0.23,0.255
2021-08-19 11:36:53.968,-0.225,0.225
2021-08-19 11:36:53.972,-0.245,0.22
2021-08-19 11:36:53.976,-0.255,0.22
2021-08-19 11:36:53.980,-0.25,0.245
2021-08-19 11:36:53.984,-0.205,0.225
2021-08-19 11:36:53.988,-0.145,0.2
2021-08-19 11:36:53.992,-0.025,0.19
2021-08-19 11:36:53.996,0.1,0.195
2021-08-19 11:36:54.000,0.19,0.2
2021-08-19 11:36:54.004,0.2,0.255
2021-08-19 11:36:54.008,0.155,0.355
2021-08-19 11:36:54.012,0.08,0.39
2021-08-19 11:36:54.016,-0.1,0.235
2021-08-19 11:36:54.020,-0.26,-0.215
2021-08-19 11:36:54.024,-0.45,-0.795
2021-08-19 11:36:54.028,-0.52,-1.51
2021-08-19 11:36:54.108,-0.535,-1.93
2021-08-19 11:36:54.112,-0.495,-1.505
2021-08-19 11:36:54.116,-0.375,-1.145
2021-08-19 11:36:54.120,-0.265,-0.84
2021-08-19 11:36:54.124,-0.16,-0.595
2021-08-19 11:36:54.128,-0.12,-0.4
2021-08-19 11:36:54.132,-0.09,-0.195
2021-08-19 11:36:54.136,-0.085,0.02
2021-08-19 11:36:54.140,-0.095,0.2
2021-08-19 11:36:54.144,-0.1,0.36
2021-08-19 11:36:54.148,-0.07,0.46
2021-08-19 11:36:54.152,-0.06,0.605
2021-08-19 11:36:54.156,-0.055,0.675
2021-08-19 11:36:54.160,-0.015,0.725
2021-08-19 11:36:54.164,-0.035,0.745
2021-08-19 11:36:54.168,-0.03,0.77
2021-08-19 11:36:54.172,-0.025,0.795
2021-08-19 11:36:54.176,0.005,0.83
2021-08-19 11:36:54.180,0.01,0.865
2021-08-19 11:36:54.184,0.01,0.86
2021-08-19 11:36:54.188,0.025,0.865
2021-08-19 11:36:54.192,0.045,0.875
2021-08-19 11:36:54.196,0.09,0.9
2021-08-19 11:36:54.200,0.095,0.915
2021-08-19 11:36:54.204,0.11,0.905
2021-08-19 11:36:54.208,0.11,0.92
2021-08-19 11:36:54.212,0.125,0.96
2021-08-19 11:36:54.216,0.14,0.965
2021-08-19 11:36:54.220,0.125,0.985
2021-08-19 11:36:54.224,0.13,0.98
2021-08-19 11:36:54.228,0.185,1.02
2021-08-19 11:36:54.232,0.19,1.02
2021-08-19 11:36:54.236,0.18,1.05
2021-08-19 11:36:54.240,0.165,1.055
2021-08-19 11:36:54.244,0.2,1.08
2021-08-19 11:36:54.248,0.22,1.08
2021-08-19 11:36:54.252,0.21,1.115
2021-08-19 11:36:54.256,0.195,1.12
2021-08-19 11:36:54.260,0.145,1.155
2021-08-19 11:36:54.264,0.125,1.17
2021-08-19 11:36:54.268,0.125,1.175
2021-08-19 11:36:54.272,0.11,1.215
2021-08-19 11:36:54.276,0.115,1.22
2021-08-19 11:36:54.280,0.095,1.25
2021-08-19 11:36:54.284,0.1,1.25
2021-08-19 11:36:54.288,0.11,1.285
2021-08-19 11:36:54.292,0.135,1.29
2021-08-19 11:36:54.296,0.12,1.305
2021-08-19 11:36:54.300,0.14,1.33
2021-08-19 11:36:54.304,0.15,1.35
2021-08-19 11:36:54.308,0.115,1.385
2021-08-19 11:36:54.312,0.065,1.395
2021-08-19 11:36:54.316,0.045,1.415
2021-08-19 11:36:54.320,0.04,1.435
2021-08-19 11:36:54.324,0.015,1.435
2021-08-19 11:36:54.328,0.005,1.43
2021-08-19 11:36:54.332,-0.035,1.415
2021-08-19 11:36:54.336,-0.06,1.405
2021-08-19 11:36:54.340,-0.045,1.38
2021-08-19 11:36:54.344,-0.05,1.36
2021-08-19 11:36:54.348,-0.01,1.325
2021-08-19 11:36:54.352,-0.04,1.295
2021-08-19 11:36:54.356,-0.03,1.22
2021-08-19 11:36:54.360,-0.035,1.2
2021-08-19 11:36:54.364,-0.035,1.145
2021-08-19 11:36:54.368,-0.035,1.065
2021-08-19 11:36:54.372,-0.025,0.995
2021-08-19 11:36:54.376,-0.015,0.92
2021-08-19 11:36:54.380,-0.015,0.855
2021-08-19 11:36:54.384,-0.03,0.78
2021-08-19 11:36:54.388,-0.005,0.715
2021-08-19 11:36:54.392,-0.01,0.64
2021-08-19 11:36:54.396,-0.005,0.58
2021-08-19 11:36:54.400,-0.02,0.53
2021-08-19 11:36:54.404,-0.035,0.51
2021-08-19 11:36:54.408,-0.04,0.46
2021-08-19 11:36:54.412,-0.04,0.42
2021-08-19 11:36:54.416,-0.025,0.365
2021-08-19 11:36:54.420,-0.035,0.345
2021-08-19 11:36:54.424,-0.045,0.335
2021-08-19 11:36:54.428,-0.03,0.29
2021-08-19 11:36:54.432,-0.015,0.275
2021-08-19 11:36:54.436,-0.025,0.26
2021-08-19 11:36:54.440,-0.035,0.25
2021-08-19 11:36:54.444,-0.035,0.25
2021-08-19 11:36:54.448,-0.04,0.235
2021-08-19 11:36:54.452,-0.045,0.225
2021-08-19 11:36:54.456,-0.05,0.22
2021-08-19 11:36:54.460,-0.035,0.22
2021-08-19 11:36:54.464,-0.015,0.2
2021-08-19 11:36:54.468,-0.025,0.22
2021-08-19 11:36:54.472,-0.045,0.185
2021-08-19 11:36:54.476,-0.075,0.19
2021-08-19 11:36:54.480,-0.065,0.195
2021-08-19 11:36:54.484,-0.075,0.215
2021-08-19 11:36:54.488,-0.075,0.2
2021-08-19 11:36:54.492,-0.05,0.225
2021-08-19 11:36:54.496,-0.045,0.2
2021-08-19 11:36:54.500,-0.065,0.19
2021-08-19 11:36:54.504,-0.03,0.195
2021-08-19 11:36:54.508,-0.025,0.2
2021-08-19 11:36:54.512,-0.045,0.23
2021-08-19 11:36:54.516,-0.02,0.25
2021-08-19 11:36:54.520,0.02,0.25
2021-08-19 11:36:54.524,0.025,0.235
2021-08-19 11:36:54.528,0.02,0.22
2021-08-19 11:36:54.532,0.005,0.215
2021-08-19 11:36:54.536,0.015,0.205
2021-08-19 11:36:54.540,0.02,0.21
2021-08-19 11:36:54.544,0.045,0.2
2021-08-19 11:36:54.548,0.015,0.2
2021-08-19 11:36:54.552,0.015,0.21
2021-08-19 11:36:54.556,0.005,0.225
2021-08-19 11:36:54.560,-0.005,0.25
2021-08-19 11:36:54.564,0.005,0.24
2021-08-19 11:36:54.568,0.025,0.215
2021-08-19 11:36:54.572,0.025,0.205
2021-08-19 11:36:54.576,0.05,0.205
2021-08-19 11:36:54.580,0.065,0.195
2021-08-19 11:36:54.584,0.075,0.185
2021-08-19 11:36:54.588,0.105,0.195
2021-08-19 11:36:54.592,0.12,0.19
2021-08-19 11:36:54.596,0.145,0.195
2021-08-19 11:36:54.600,0.13,0.165
2021-08-19 11:36:54.604,0.115,0.16
2021-08-19 11:36:54.608,0.125,0.185
2021-08-19 11:36:54.612,0.11,0.175
2021-08-19 11:36:54.616,0.1,0.125
2021-08-19 11:36:54.620,0.105,0.095
2021-08-19 11:36:54.624,0.13,0.105
2021-08-19 11:36:54.628,0.19,0.105
2021-08-19 11:36:54.632,0.335,0.095
2021-08-19 11:36:54.636,0.455,0.11
2021-08-19 11:36:54.640,0.53,0.13
2021-08-19 11:36:54.644,0.54,0.22
2021-08-19 11:36:54.648,0.52,0.335
2021-08-19 11:36:54.652,0.455,0.355
2021-08-19 11:36:54.656,0.335,0.11
2021-08-19 11:36:54.660,0.205,-0.355
2021-08-19 11:36:54.664,0.145,-0.895
2021-08-19 11:36:54.668,0.135,-1.61
2021-08-19 11:36:54.752,-0.41,-1.63
2021-08-19 11:36:54.756,-0.375,-1.245
2021-08-19 11:36:54.760,-0.325,-0.92
2021-08-19 11:36:54.764,-0.23,-0.68
2021-08-19 11:36:54.768,-0.19,-0.445
2021-08-19 11:36:54.772,-0.185,-0.265
2021-08-19 11:36:54.776,-0.13,-0.11
2021-08-19 11:36:54.780,-0.1,0.085
2021-08-19 11:36:54.784,-0.06,0.24
2021-08-19 11:36:54.788,-0.07,0.37
2021-08-19 11:36:54.792,-0.06,0.52
2021-08-19 11:36:54.796,-0.065,0.62
2021-08-19 11:36:54.800,-0.075,0.685
2021-08-19 11:36:54.804,-0.085,0.695
2021-08-19 11:36:54.808,-0.035,0.715
2021-08-19 11:36:54.812,0.0,0.75
2021-08-19 11:36:54.816,0.005,0.78
2021-08-19 11:36:54.820,0.02,0.815
2021-08-19 11:36:54.824,0.02,0.805
2021-08-19 11:36:54.828,0.02,0.84
2021-08-19 11:36:54.832,0.055,0.87
2021-08-19 11:36:54.836,0.1,0.895
2021-08-19 11:36:54.840,0.105,0.905
2021-08-19 11:36:54.844,0.135,0.905
2021-08-19 11:36:54.848,0.155,0.935
2021-08-19 11:36:54.852,0.195,0.955
2021-08-19 11:36:54.856,0.195,0.96
2021-08-19 11:36:54.860,0.19,0.975
2021-08-19 11:36:54.864,0.22,0.96
2021-08-19 11:36:54.868,0.205,0.94
2021-08-19 11:36:54.872,0.185,0.96
2021-08-19 11:36:54.876,0.185,0.955
2021-08-19 11:36:54.880,0.18,0.96
2021-08-19 11:36:54.884,0.19,0.955
2021-08-19 11:36:54.888,0.2,0.96
2021-08-19 11:36:54.892,0.21,0.97
2021-08-19 11:36:54.896,0.225,0.975
2021-08-19 11:36:54.900,0.205,1.005
2021-08-19 11:36:54.904,0.19,1.025
2021-08-19 11:36:54.908,0.205,1.045
2021-08-19 11:36:54.912,0.23,1.075
2021-08-19 11:36:54.916,0.225,1.11
2021-08-19 11:36:54.920,0.21,1.11
2021-08-19 11:36:54.924,0.195,1.125
2021-08-19 11:36:54.928,0.21,1.15
2021-08-19 11:36:54.932,0.205,1.17
2021-08-19 11:36:54.936,0.225,1.18
2021-08-19 11:36:54.940,0.225,1.175
2021-08-19 11:36:54.944,0.21,1.195
2021-08-19 11:36:54.948,0.17,1.235
2021-08-19 11:36:54.952,0.14,1.255
2021-08-19 11:36:54.956,0.105,1.27
2021-08-19 11:36:54.960,0.095,1.295
2021-08-19 11:36:54.964,0.09,1.295
2021-08-19 11:36:54.968,0.09,1.285
2021-08-19 11:36:54.972,0.07,1.26
2021-08-19 11:36:54.976,0.045,1.24
2021-08-19 11:36:54.980,0.035,1.21
2021-08-19 11:36:54.984,0.025,1.2
2021-08-19 11:36:54.988,-0.005,1.19
2021-08-19 11:36:54.992,-0.015,1.16
2021-08-19 11:36:54.996,-0.06,1.135
2021-08-19 11:36:55.000,-0.085,1.075
2021-08-19 11:36:55.004,-0.125,1.04
2021-08-19 11:36:55.008,-0.135,0.98
2021-08-19 11:36:55.012,-0.145,0.905
2021-08-19 11:36:55.016,-0.12,0.865
2021-08-19 11:36:55.020,-0.135,0.8
2021-08-19 11:36:55.024,-0.15,0.72
2021-08-19 11:36:55.028,-0.155,0.705
2021-08-19 11:36:55.032,-0.13,0.645
2021-08-19 11:36:55.036,-0.12,0.615
2021-08-19 11:36:55.040,-0.11,0.565
2021-08-19 11:36:55.044,-0.14,0.545
2021-08-19 11:36:55.048,-0.13,0.495
2021-08-19 11:36:55.052,-0.12,0.49
2021-08-19 11:36:55.056,-0.11,0.45
2021-08-19 11:36:55.060,-0.095,0.435
2021-08-19 11:36:55.064,-0.1,0.37
2021-08-19 11:36:55.068,-0.06,0.365
2021-08-19 11:36:55.072,-0.045,0.35
2021-08-19 11:36:55.076,-0.05,0.385
2021-08-19 11:36:55.080,-0.08,0.35
2021-08-19 11:36:55.084,-0.08,0.375
2021-08-19 11:36:55.088,-0.105,0.36
2021-08-19 11:36:55.092,-0.06,0.35
2021-08-19 11:36:55.096,-0.01,0.315
2021-08-19 11:36:55.100,0.03,0.305
2021-08-19 11:36:55.104,0.05,0.295
2021-08-19 11:36:55.108,0.06,0.275
2021-08-19 11:36:55.112,0.06,0.255
2021-08-19 11:36:55.116,0.065,0.28
2021-08-19 11:36:55.120,0.055,0.295
2021-08-19 11:36:55.124,0.06,0.275
2021-08-19 11:36:55.128,0.045,0.28
2021-08-19 11:36:55.132,0.04,0.235
2021-08-19 11:36:55.136,0.06,0.24
2021-08-19 11:36:55.140,0.06,0.215
2021-08-19 11:36:55.144,0.035,0.22
2021-08-19 11:36:55.148,0.055,0.235
2021-08-19 11:36:55.152,0.145,0.22
2021-08-19 11:36:55.156,0.3,0.195
2021-08-19 11:36:55.160,0.475,0.21
2021-08-19 11:36:55.164,0.545,0.24
2021-08-19 11:36:55.168,0.525,0.31
2021-08-19 11:36:55.172,0.47,0.425
2021-08-19 11:36:55.176,0.315,0.47
2021-08-19 11:36:55.180,0.06,0.295
2021-08-19 11:36:55.184,-0.115,-0.08
2021-08-19 11:36:55.188,-0.265,-0.555
2021-08-19 11:36:55.192,-0.33,-1.255
2021-08-19 11:36:55.272,-0.525,-1.92
2021-08-19 11:36:55.276,-0.47,-1.495
2021-08-19 11:36:55.280,-0.44,-1.155
2021-08-19 11:36:55.284,-0.365,-0.85
2021-08-19 11:36:55.288,-0.265,-0.595
2021-08-19 11:36:55.292,-0.2,-0.385
2021-08-19 11:36:55.296,-0.14,-0.175
2021-08-19 11:36:55.300,-0.12,-0.005
2021-08-19 11:36:55.304,-0.115,0.18
2021-08-19 11:36:55.308,-0.085,0.36
2021-08-19 11:36:55.312,-0.085,0.51
2021-08-19 11:36:55.316,-0.115,0.6
2021-08-19 11:36:55.320,-0.12,0.7
2021-08-19 11:36:55.324,-0.11,0.76
2021-08-19 11:36:55.328,-0.065,0.775
2021-08-19 11:36:55.332,-0.045,0.785
2021-08-19 11:36:55.336,-0.01,0.785
2021-08-19 11:36:55.340,0.005,0.825
2021-08-19 11:36:55.344,0.04,0.85
2021-08-19 11:36:55.348,0.07,0.865
2021-08-19 11:36:55.352,0.135,0.885
2021-08-19 11:36:55.356,0.165,0.865
2021-08-19 11:36:55.360,0.175,0.855
2021-08-19 11:36:55.364,0.145,0.9
2021-08-19 11:36:55.368,0.155,0.905
2021-08-19 11:36:55.372,0.195,0.915
2021-08-19 11:36:55.376,0.235,0.93
2021-08-19 11:36:55.380,0.23,0.895
2021-08-19 11:36:55.384,0.2,0.93
2021-08-19 11:36:55.388,0.19,0.95
2021-08-19 11:36:55.392,0.195,0.98
2021-08-19 11:36:55.396,0.25,1.0
2021-08-19 11:36:55.400,0.23,0.985
2021-08-19 11:36:55.404,0.19,1.01
2021-08-19 11:36:55.408,0.2,1.02
2021-08-19 11:36:55.412,0.18,1.045
2021-08-19 11:36:55.416,0.185,1.075
2021-08-19 11:36:55.420,0.2,1.07
2021-08-19 11:36:55.424,0.255,1.095
2021-08-19 11:36:55.428,0.245,1.095
2021-08-19 11:36:55.432,0.24,1.145
2021-08-19 11:36:55.436,0.22,1.165
2021-08-19 11:36:55.440,0.18,1.205
2021-08-19 11:36:55.444,0.18,1.17
2021-08-19 11:36:55.448,0.17,1.205
2021-08-19 11:36:55.452,0.18,1.235
2021-08-19 11:36:55.456,0.17,1.24
2021-08-19 11:36:55.460,0.14,1.25
2021-08-19 11:36:55.464,0.145,1.27
2021-08-19 11:36:55.468,0.14,1.28
2021-08-19 11:36:55.472,0.11,1.315
2021-08-19 11:36:55.476,0.095,1.3
2021-08-19 11:36:55.480,0.07,1.275
2021-08-19 11:36:55.484,0.035,1.32
2021-08-19 11:36:55.488,0.015,1.31
2021-08-19 11:36:55.492,0.01,1.25
2021-08-19 11:36:55.496,0.01,1.245
2021-08-19 11:36:55.500,0.015,1.21
2021-08-19 11:36:55.504,-0.005,1.175
2021-08-19 11:36:55.508,-0.04,1.145
2021-08-19 11:36:55.512,-0.1,1.11
2021-08-19 11:36:55.516,-0.11,1.105
2021-08-19 11:36:55.520,-0.16,1.065
2021-08-19 11:36:55.524,-0.15,1.005
2021-08-19 11:36:55.528,-0.14,0.97
2021-08-19 11:36:55.532,-0.12,0.885
2021-08-19 11:36:55.536,-0.14,0.82
2021-08-19 11:36:55.540,-0.16,0.765
2021-08-19 11:36:55.544,-0.135,0.715
2021-08-19 11:36:55.548,-0.15,0.665
2021-08-19 11:36:55.552,-0.13,0.62
2021-08-19 11:36:55.556,-0.15,0.555
2021-08-19 11:36:55.560,-0.15,0.515
2021-08-19 11:36:55.564,-0.16,0.49
2021-08-19 11:36:55.568,-0.165,0.47
2021-08-19 11:36:55.572,-0.165,0.415
2021-08-19 11:36:55.576,-0.155,0.35
2021-08-19 11:36:55.580,-0.16,0.31
2021-08-19 11:36:55.584,-0.13,0.32
2021-08-19 11:36:55.588,-0.11,0.305
2021-08-19 11:36:55.592,-0.085,0.295
2021-08-19 11:36:55.596,-0.045,0.28
2021-08-19 11:36:55.600,-0.03,0.305
2021-08-19 11:36:55.604,-0.01,0.345
2021-08-19 11:36:55.608,0.0,0.365
2021-08-19 11:36:55.612,0.0,0.35
2021-08-19 11:36:55.616,-0.02,0.345
2021-08-19 11:36:55.620,-0.01,0.315
2021-08-19 11:36:55.624,0.01,0.275
2021-08-19 11:36:55.628,0.01,0.26
2021-08-19 11:36:55.632,0.02,0.265
2021-08-19 11:36:55.636,0.005,0.265
2021-08-19 11:36:55.640,0.01,0.24
2021-08-19 11:36:55.644,0.03,0.23
2021-08-19 11:36:55.648,0.055,0.205
2021-08-19 11:36:55.652,0.1,0.215
2021-08-19 11:36:55.656,0.25,0.21
2021-08-19 11:36:55.660,0.41,0.205
2021-08-19 11:36:55.664,0.51,0.24
2021-08-19 11:36:55.668,0.515,0.27
2021-08-19 11:36:55.672,0.47,0.375
2021-08-19 11:36:55.676,0.37,0.43
2021-08-19 11:36:55.680,0.125,0.275
2021-08-19 11:36:55.684,-0.14,-0.08
2021-08-19 11:36:55.688,-0.3,-0.58
2021-08-19 11:36:55.692,-0.33,-1.24
2021-08-19 11:36:55.776,-0.685,-1.615
2021-08-19 11:36:55.780,-0.58,-1.225
2021-08-19 11:36:55.784,-0.49,-0.865
2021-08-19 11:36:55.788,-0.4,-0.58
2021-08-19 11:36:55.792,-0.355,-0.36
2021-08-19 11:36:55.796,-0.34,-0.15
2021-08-19 11:36:55.800,-0.365,0.02
2021-08-19 11:36:55.804,-0.365,0.19
2021-08-19 11:36:55.808,-0.32,0.365
2021-08-19 11:36:55.812,-0.31,0.485
2021-08-19 11:36:55.816,-0.305,0.6
2021-08-19 11:36:55.820,-0.325,0.675
2021-08-19 11:36:55.824,-0.295,0.745
2021-08-19 11:36:55.828,-0.265,0.775
2021-08-19 11:36:55.832,-0.225,0.77
2021-08-19 11:36:55.836,-0.19,0.785
2021-08-19 11:36:55.840,-0.15,0.79
2021-08-19 11:36:55.844,-0.145,0.82
2021-08-19 11:36:55.848,-0.15,0.865
2021-08-19 11:36:55.852,-0.1,0.9
2021-08-19 11:36:55.856,-0.055,0.93
2021-08-19 11:36:55.860,-0.01,0.92
2021-08-19 11:36:55.864,0.01,0.975
2021-08-19 11:36:55.868,0.005,0.995
2021-08-19 11:36:55.872,0.035,0.995
2021-08-19 11:36:55.876,0.05,1.015
2021-08-19 11:36:55.880,0.075,1.02
2021-08-19 11:36:55.884,0.06,1.035
2021-08-19 11:36:55.888,0.085,1.08
2021-08-19 11:36:55.892,0.085,1.08
2021-08-19 11:36:55.896,0.085,1.075
2021-08-19 11:36:55.900,0.105,1.09
2021-08-19 11:36:55.904,0.1,1.08
2021-08-19 11:36:55.908,0.1,1.095
2021-08-19 11:36:55.912,0.09,1.115
2021-08-19 11:36:55.916,0.07,1.14
2021-08-19 11:36:55.920,0.09,1.15
2021-08-19 11:36:55.924,0.075,1.145
2021-08-19 11:36:55.928,0.075,1.17
2021-08-19 11:36:55.932,0.05,1.165
2021-08-19 11:36:55.936,0.04,1.205
2021-08-19 11:36:55.940,0.035,1.22
2021-08-19 11:36:55.944,0.065,1.24
2021-08-19 11:36:55.948,0.06,1.245
2021-08-19 11:36:55.952,0.06,1.285
2021-08-19 11:36:55.956,0.065,1.275
2021-08-19 11:36:55.960,0.025,1.3
2021-08-19 11:36:55.964,0.015,1.31
2021-08-19 11:36:55.968,0.025,1.325
2021-08-19 11:36:55.972,0.015,1.35
2021-08-19 11:36:55.976,0.02,1.345
2021-08-19 11:36:55.980,-0.03,1.355
2021-08-19 11:36:55.984,-0.005,1.365
2021-08-19 11:36:55.988,-0.05,1.37
2021-08-19 11:36:55.992,-0.09,1.36
2021-08-19 11:36:55.996,-0.14,1.33
2021-08-19 11:36:56.000,-0.16,1.31
2021-08-19 11:36:56.004,-0.205,1.25
2021-08-19 11:36:56.008,-0.24,1.21
2021-08-19 11:36:56.012,-0.255,1.17
2021-08-19 11:36:56.016,-0.26,1.105
2021-08-19 11:36:56.020,-0.31,1.05
2021-08-19 11:36:56.024,-0.305,1.005
2021-08-19 11:36:56.028,-0.345,0.94
2021-08-19 11:36:56.032,-0.36,0.885
2021-08-19 11:36:56.036,-0.38,0.85
2021-08-19 11:36:56.040,-0.355,0.75
2021-08-19 11:36:56.044,-0.385,0.695
2021-08-19 11:36:56.048,-0.4,0.655
2021-08-19 11:36:56.052,-0.4,0.6
2021-08-19 11:36:56.056,-0.445,0.56
2021-08-19 11:36:56.060,-0.415,0.54
2021-08-19 11:36:56.064,-0.425,0.52
2021-08-19 11:36:56.068,-0.405,0.515
2021-08-19 11:36:56.072,-0.395,0.47
2021-08-19 11:36:56.076,-0.39,0.465
2021-08-19 11:36:56.080,-0.395,0.45
2021-08-19 11:36:56.084,-0.385,0.43
2021-08-19 11:36:56.088,-0.405,0.42
2021-08-19 11:36:56.092,-0.37,0.415
2021-08-19 11:36:56.096,-0.365,0.41
2021-08-19 11:36:56.100,-0.36,0.385
2021-08-19 11:36:56.104,-0.34,0.385
2021-08-19 11:36:56.108,-0.31,0.4
2021-08-19 11:36:56.112,-0.26,0.41
2021-08-19 11:36:56.116,-0.26,0.355
2021-08-19 11:36:56.120,-0.26,0.345
2021-08-19 11:36:56.124,-0.23,0.325
2021-08-19 11:36:56.128,-0.235,0.335
2021-08-19 11:36:56.132,-0.24,0.335
2021-08-19 11:36:56.136,-0.215,0.33
2021-08-19 11:36:56.140,-0.215,0.32
2021-08-19 11:36:56.144,-0.215,0.305
2021-08-19 11:36:56.148,-0.235,0.29
2021-08-19 11:36:56.152,-0.225,0.28
2021-08-19 11:36:56.156,-0.245,0.275
2021-08-19 11:36:56.160,-0.245,0.28
2021-08-19 11:36:56.164,-0.24,0.255
2021-08-19 11:36:56.168,-0.225,0.275
2021-08-19 11:36:56.172,-0.23,0.25
2021-08-19 11:36:56.176,-0.245,0.245
2021-08-19 11:36:56.180,-0.265,0.22
2021-08-19 11:36:56.184,-0.285,0.225
2021-08-19 11:36:56.188,-0.3,0.24
2021-08-19 11:36:56.192,-0.305,0.24
2021-08-19 11:36:56.196,-0.275,0.24
2021-08-19 11:36:56.200,-0.3,0.215
2021-08-19 11:36:56.204,-0.345,0.215
2021-08-19 11:36:56.208,-0.355,0.19
2021-08-19 11:36:56.212,-0.365,0.215
2021-08-19 11:36:56.216,-0.37,0.215
2021-08-19 11:36:56.220,-0.35,0.155
2021-08-19 11:36:56.224,-0.37,0.145
2021-08-19 11:36:56.228,-0.365,0.17
2021-08-19 11:36:56.232,-0.38,0.18
2021-08-19 11:36:56.236,-0.4,0.18
2021-08-19 11:36:56.240,-0.4,0.19
2021-08-19 11:36:56.244,-0.425,0.16
2021-08-19 11:36:56.248,-0.425,0.185
2021-08-19 11:36:56.252,-0.455,0.17
2021-08-19 11:36:56.256,-0.425,0.15
2021-08-19 11:36:56.260,-0.435,0.12
2021-08-19 11:36:56.264,-0.45,0.12
2021-08-19 11:36:56.268,-0.485,0.125
2021-08-19 11:36:56.272,-0.495,0.14
2021-08-19 11:36:56.276,-0.475,0.12
2021-08-19 11:36:56.280,-0.47,0.115
2021-08-19 11:36:56.284,-0.46,0.105
2021-08-19 11:36:56.288,-0.485,0.08
2021-08-19 11:36:56.292,-0.47,0.065
2021-08-19 11:36:56.296,-0.475,0.05
2021-08-19 11:36:56.300,-0.44,0.08
2021-08-19 11:36:56.304,-0.405,0.09
2021-08-19 11:36:56.308,-0.32,0.075
2021-08-19 11:36:56.312,-0.16,0.09
2021-08-19 11:36:56.316,-0.085,0.115
2021-08-19 11:36:56.320,-0.075,0.185
2021-08-19 11:36:56.324,-0.095,0.285
2021-08-19 11:36:56.328,-0.155,0.335
2021-08-19 11:36:56.332,-0.26,0.145
2021-08-19 11:36:56.336,-0.4,-0.315
2021-08-19 11:36:56.340,-0.505,-0.865
2021-08-19 11:36:56.344,-0.53,-1.6
2021-08-19 11:36:56.424,-0.7,-1.9
2021-08-19 11:36:56.428,-0.65,-1.46
2021-08-19 11:36:56.432,-0.585,-1.08
2021-08-19 11:36:56.436,-0.44,-0.755
2021-08-19 11:36:56.440,-0.35,-0.48
2021-08-19 11:36:56.444,-0.29,-0.25
2021-08-19 11:36:56.448,-0.275,-0.055
2021-08-19 11:36:56.452,-0.24,0.125
2021-08-19 11:36:56.456,-0.255,0.33
2021-08-19 11:36:56.460,-0.25,0.475
2021-08-19 11:36:56.464,-0.24,0.615
2021-08-19 11:36:56.468,-0.245,0.725
2021-08-19 11:36:56.472,-0.225,0.79
2021-08-19 11:36:56.476,-0.22,0.815
2021-08-19 11:36:56.480,-0.2,0.845
2021-08-19 11:36:56.484,-0.19,0.855
2021-08-19 11:36:56.488,-0.21,0.88
2021-08-19 11:36:56.492,-0.22,0.92
2021-08-19 11:36:56.496,-0.24,0.95
2021-08-19 11:36:56.500,-0.255,0.97
2021-08-19 11:36:56.504,-0.21,0.985
2021-08-19 11:36:56.508,-0.185,0.95
2021-08-19 11:36:56.512,-0.185,0.97
2021-08-19 11:36:56.516,-0.18,0.975
2021-08-19 11:36:56.520,-0.19,1.025
2021-08-19 11:36:56.524,-0.2,1.035
2021-08-19 11:36:56.528,-0.185,1.045
2021-08-19 11:36:56.532,-0.175,1.08
2021-08-19 11:36:56.536,-0.185,1.085
2021-08-19 11:36:56.540,-0.185,1.085
2021-08-19 11:36:56.544,-0.195,1.11
2021-08-19 11:36:56.548,-0.16,1.14
2021-08-19 11:36:56.552,-0.175,1.145
2021-08-19 11:36:56.556,-0.155,1.16
2021-08-19 11:36:56.560,-0.155,1.175
2021-08-19 11:36:56.564,-0.145,1.2
2021-08-19 11:36:56.568,-0.155,1.26
2021-08-19 11:36:56.572,-0.155,1.27
2021-08-19 11:36:56.576,-0.15,1.285
2021-08-19 11:36:56.580,-0.165,1.325
2021-08-19 11:36:56.584,-0.18,1.36
2021-08-19 11:36:56.588,-0.165,1.395
2021-08-19 11:36:56.592,-0.185,1.415
2021-08-19 11:36:56.596,-0.175,1.455
2021-08-19 11:36:56.600,-0.13,1.445
2021-08-19 11:36:56.604,-0.08,1.49
2021-08-19 11:36:56.608,-0.05,1.52
2021-08-19 11:36:56.612,-0.035,1.545
2021-08-19 11:36:56.616,-0.06,1.575
2021-08-19 11:36:56.620,-0.06,1.615
2021-08-19 11:36:56.624,-0.02,1.63
2021-08-19 11:36:56.628,-0.01,1.605
2021-08-19 11:36:56.632,-0.05,1.585
2021-08-19 11:36:56.636,-0.045,1.57
2021-08-19 11:36:56.640,-0.055,1.575
2021-08-19 11:36:56.644,-0.045,1.55
2021-08-19 11:36:56.648,-0.055,1.515
2021-08-19 11:36:56.652,-0.07,1.465
2021-08-19 11:36:56.656,-0.095,1.44
2021-08-19 11:36:56.660,-0.12,1.4
2021-08-19 11:36:56.664,-0.14,1.335
2021-08-19 11:36:56.668,-0.185,1.29
2021-08-19 11:36:56.672,-0.2,1.195
2021-08-19 11:36:56.676,-0.23,1.15
2021-08-19 11:36:56.680,-0.245,1.08
2021-08-19 11:36:56.684,-0.285,1.005
2021-08-19 11:36:56.688,-0.315,0.96
2021-08-19 11:36:56.692,-0.315,0.875
2021-08-19 11:36:56.696,-0.32,0.815
2021-08-19 11:36:56.700,-0.35,0.75
2021-08-19 11:36:56.704,-0.345,0.695
2021-08-19 11:36:56.708,-0.345,0.65
2021-08-19 11:36:56.712,-0.38,0.6
2021-08-19 11:36:56.716,-0.39,0.53
2021-08-19 11:36:56.720,-0.355,0.505
2021-08-19 11:36:56.724,-0.415,0.465
2021-08-19 11:36:56.728,-0.4,0.43
2021-08-19 11:36:56.732,-0.415,0.415
2021-08-19 11:36:56.736,-0.445,0.42
2021-08-19 11:36:56.740,-0.435,0.395
2021-08-19 11:36:56.744,-0.455,0.375
2021-08-19 11:36:56.748,-0.435,0.345
2021-08-19 11:36:56.752,-0.465,0.36
2021-08-19 11:36:56.756,-0.48,0.345
2021-08-19 11:36:56.760,-0.5,0.31
2021-08-19 11:36:56.764,-0.49,0.31
2021-08-19 11:36:56.768,-0.47,0.28
2021-08-19 11:36:56.772,-0.45,0.305
2021-08-19 11:36:56.776,-0.435,0.33
2021-08-19 11:36:56.780,-0.445,0.315
2021-08-19 11:36:56.784,-0.475,0.31
2021-08-19 11:36:56.788,-0.485,0.285
2021-08-19 11:36:56.792,-0.49,0.295
2021-08-19 11:36:56.796,-0.5,0.35
2021-08-19 11:36:56.800,-0.5,0.36
2021-08-19 11:36:56.804,-0.505,0.365
2021-08-19 11:36:56.808,-0.475,0.355
2021-08-19 11:36:56.812,-0.455,0.345
2021-08-19 11:36:56.816,-0.44,0.325
2021-08-19 11:36:56.820,-0.44,0.35
2021-08-19 11:36:56.824,-0.45,0.35
2021-08-19 11:36:56.828,-0.44,0.345
2021-08-19 11:36:56.832,-0.435,0.36
2021-08-19 11:36:56.836,-0.41,0.335
2021-08-19 11:36:56.840,-0.4,0.35
2021-08-19 11:36:56.844,-0.35,0.345
2021-08-19 11:36:56.848,-0.29,0.335
2021-08-19 11:36:56.852,-0.27,0.35
2021-08-19 11:36:56.856,-0.25,0.33
2021-08-19 11:36:56.860,-0.225,0.355
2021-08-19 11:36:56.864,-0.215,0.33
2021-08-19 11:36:56.868,-0.215,0.32
2021-08-19 11:36:56.872,-0.18,0.315
2021-08-19 11:36:56.876,-0.07,0.27
2021-08-19 11:36:56.880,0.065,0.27
2021-08-19 11:36:56.884,0.2,0.27
2021-08-19 11:36:56.888,0.275,0.3
2021-08-19 11:36:56.892,0.295,0.365
2021-08-19 11:36:56.896,0.28,0.465
2021-08-19 11:36:56.900,0.22,0.38
2021-08-19 11:36:56.904,0.06,-0.025
2021-08-19 11:36:56.908,-0.065,-0.55
2021-08-19 11:36:56.912,-0.09,-1.27
2021-08-19 11:36:56.992,-0.905,-1.92
2021-08-19 11:36:56.996,-0.855,-1.445
2021-08-19 11:36:57.000,-0.77,-1.025
2021-08-19 11:36:57.004,-0.635,-0.725
2021-08-19 11:36:57.008,-0.525,-0.48
2021-08-19 11:36:57.012,-0.49,-0.225
2021-08-19 11:36:57.016,-0.45,-0.035
2021-08-19 11:36:57.020,-0.43,0.135
2021-08-19 11:36:57.024,-0.44,0.34
2021-08-19 11:36:57.028,-0.44,0.475
2021-08-19 11:36:57.032,-0.43,0.58
2021-08-19 11:36:57.036,-0.435,0.665
2021-08-19 11:36:57.040,-0.4,0.75
2021-08-19 11:36:57.044,-0.405,0.76
2021-08-19 11:36:57.048,-0.395,0.81
2021-08-19 11:36:57.052,-0.36,0.83
2021-08-19 11:36:57.056,-0.34,0.865
2021-08-19 11:36:57.060,-0.33,0.88
2021-08-19 11:36:57.064,-0.325,0.9
2021-08-19 11:36:57.068,-0.31,0.94
2021-08-19 11:36:57.072,-0.34,0.96
2021-08-19 11:36:57.076,-0.31,0.965
2021-08-19 11:36:57.080,-0.285,0.99
2021-08-19 11:36:57.084,-0.21,0.985
2021-08-19 11:36:57.088,-0.165,0.99
2021-08-19 11:36:57.092,-0.11,1.015
2021-08-19 11:36:57.096,-0.065,1.045
2021-08-19 11:36:57.100,-0.06,1.08
2021-08-19 11:36:57.104,-0.02,1.075
2021-08-19 11:36:57.108,0.0,1.095
2021-08-19 11:36:57.112,0.025,1.11
2021-08-19 11:36:57.116,0.005,1.135
2021-08-19 11:36:57.120,-0.005,1.175
2021-08-19 11:36:57.124,0.015,1.19
2021-08-19 11:36:57.128,0.03,1.175
2021-08-19 11:36:57.132,0.035,1.175
2021-08-19 11:36:57.136,0.02,1.215
2021-08-19 11:36:57.140,0.025,1.215
2021-08-19 11:36:57.144,0.03,1.25
2021-08-19 11:36:57.148,0.03,1.26
2021-08-19 11:36:57.152,0.045,1.27
2021-08-19 11:36:57.156,0.045,1.295
2021-08-19 11:36:57.160,0.04,1.295
2021-08-19 11:36:57.164,0.015,1.295
2021-08-19 11:36:57.168,0.0,1.315
2021-08-19 11:36:57.172,0.005,1.33
2021-08-19 11:36:57.176,0.005,1.315
2021-08-19 11:36:57.180,0.0,1.35
2021-08-19 11:36:57.184,0.0,1.37
2021-08-19 11:36:57.188,0.0,1.365
2021-08-19 11:36:57.192,0.015,1.38
2021-08-19 11:36:57.196,-0.03,1.36
2021-08-19 11:36:57.200,-0.065,1.345
2021-08-19 11:36:57.204,-0.07,1.335
2021-08-19 11:36:57.208,-0.135,1.33
2021-08-19 11:36:57.212,-0.18,1.3
2021-08-19 11:36:57.216,-0.195,1.26
2021-08-19 11:36:57.220,-0.195,1.22
2021-08-19 11:36:57.224,-0.21,1.175
2021-08-19 11:36:57.228,-0.24,1.12
2021-08-19 11:36:57.232,-0.29,1.075
2021-08-19 11:36:57.236,-0.335,1.01
2021-08-19 11:36:57.240,-0.36,0.945
2021-08-19 11:36:57.244,-0.405,0.875
2021-08-19 11:36:57.248,-0.415,0.79
2021-08-19 11:36:57.252,-0.465,0.73
2021-08-19 11:36:57.256,-0.495,0.66
2021-08-19 11:36:57.260,-0.5,0.61
2021-08-19 11:36:57.264,-0.52,0.565
2021-08-19 11:36:57.268,-0.515,0.52
2021-08-19 11:36:57.272,-0.52,0.48
2021-08-19 11:36:57.276,-0.52,0.42
2021-08-19 11:36:57.280,-0.55,0.395
2021-08-19 11:36:57.284,-0.57,0.365
2021-08-19 11:36:57.288,-0.565,0.335
2021-08-19 11:36:57.292,-0.575,0.325
2021-08-19 11:36:57.296,-0.56,0.305
2021-08-19 11:36:57.300,-0.525,0.295
2021-08-19 11:36:57.304,-0.495,0.285
2021-08-19 11:36:57.308,-0.51,0.295
2021-08-19 11:36:57.312,-0.515,0.315
2021-08-19 11:36:57.316,-0.505,0.32
2021-08-19 11:36:57.320,-0.51,0.34
2021-08-19 11:36:57.324,-0.55,0.345
2021-08-19 11:36:57.328,-0.54,0.35
2021-08-19 11:36:57.332,-0.495,0.35
2021-08-19 11:36:57.336,-0.43,0.345
2021-08-19 11:36:57.340,-0.335,0.335
2021-08-19 11:36:57.344,-0.27,0.355
2021-08-19 11:36:57.348,-0.24,0.36
2021-08-19 11:36:57.352,-0.21,0.395
2021-08-19 11:36:57.356,-0.21,0.415
2021-08-19 11:36:57.360,-0.23,0.43
2021-08-19 11:36:57.364,-0.22,0.42
2021-08-19 11:36:57.368,-0.225,0.395
2021-08-19 11:36:57.372,-0.22,0.38
2021-08-19 11:36:57.376,-0.175,0.36
2021-08-19 11:36:57.380,-0.135,0.34
2021-08-19 11:36:57.384,-0.04,0.315
2021-08-19 11:36:57.388,0.11,0.315
2021-08-19 11:36:57.392,0.26,0.325
2021-08-19 11:36:57.396,0.315,0.375
2021-08-19 11:36:57.400,0.29,0.455
2021-08-19 11:36:57.404,0.23,0.555
2021-08-19 11:36:57.408,0.04,0.5
2021-08-19 11:36:57.412,-0.18,0.155
2021-08-19 11:36:57.416,-0.355,-0.355
2021-08-19 11:36:57.420,-0.465,-1.0
2021-08-19 11:36:57.424,-0.4,-1.86
2021-08-19 11:36:57.504,-1.005,-1.68
2021-08-19 11:36:57.508,-0.84,-1.275
2021-08-19 11:36:57.512,-0.68,-0.92
2021-08-19 11:36:57.516,-0.55,-0.62
2021-08-19 11:36:57.520,-0.47,-0.36
2021-08-19 11:36:57.524,-0.47,-0.155
2021-08-19 11:36:57.528,-0.465,0.1
2021-08-19 11:36:57.532,-0.455,0.285
2021-08-19 11:36:57.536,-0.44,0.48
2021-08-19 11:36:57.540,-0.435,0.595
2021-08-19 11:36:57.544,-0.425,0.72
2021-08-19 11:36:57.548,-0.375,0.805
2021-08-19 11:36:57.552,-0.35,0.83
2021-08-19 11:36:57.556,-0.32,0.86
2021-08-19 11:36:57.560,-0.295,0.89
2021-08-19 11:36:57.564,-0.315,0.92
2021-08-19 11:36:57.568,-0.33,0.96
2021-08-19 11:36:57.572,-0.37,0.97
2021-08-19 11:36:57.576,-0.36,1.0
2021-08-19 11:36:57.580,-0.3,1.015
2021-08-19 11:36:57.584,-0.2,1.02
2021-08-19 11:36:57.588,-0.13,1.04
2021-08-19 11:36:57.592,-0.08,1.04
2021-08-19 11:36:57.596,-0.03,1.055
2021-08-19 11:36:57.600,-0.005,1.12
2021-08-19 11:36:57.604,0.02,1.18
2021-08-19 11:36:57.608,0.01,1.215
2021-08-19 11:36:57.612,0.02,1.23
2021-08-19 11:36:57.616,0.03,1.21
2021-08-19 11:36:57.620,0.03,1.21
2021-08-19 11:36:57.624,0.03,1.225
2021-08-19 11:36:57.628,0.075,1.25
2021-08-19 11:36:57.632,0.075,1.23
2021-08-19 11:36:57.636,0.09,1.26
2021-08-19 11:36:57.640,0.075,1.255
2021-08-19 11:36:57.644,0.065,1.29
2021-08-19 11:36:57.648,0.08,1.325
2021-08-19 11:36:57.652,0.075,1.34
2021-08-19 11:36:57.656,0.1,1.315
2021-08-19 11:36:57.660,0.095,1.335
2021-08-19 11:36:57.664,0.07,1.35
2021-08-19 11:36:57.668,0.05,1.355
2021-08-19 11:36:57.672,0.07,1.375
2021-08-19 11:36:57.676,0.065,1.385
2021-08-19 11:36:57.680,0.06,1.395
2021-08-19 11:36:57.684,0.04,1.435
2021-08-19 11:36:57.688,0.02,1.44
2021-08-19 11:36:57.692,0.0,1.45
2021-08-19 11:36:57.696,0.005,1.445
2021-08-19 11:36:57.700,-0.015,1.47
2021-08-19 11:36:57.704,-0.035,1.51
2021-08-19 11:36:57.708,-0.075,1.485
2021-08-19 11:36:57.712,-0.105,1.45
2021-08-19 11:36:57.716,-0.125,1.43
2021-08-19 11:36:57.720,-0.125,1.41
2021-08-19 11:36:57.724,-0.17,1.395
2021-08-19 11:36:57.728,-0.215,1.305
2021-08-19 11:36:57.732,-0.245,1.27
2021-08-19 11:36:57.736,-0.285,1.235
2021-08-19 11:36:57.740,-0.37,1.165
2021-08-19 11:36:57.744,-0.39,1.115
2021-08-19 11:36:57.748,-0.43,1.045
2021-08-19 11:36:57.752,-0.41,0.96
2021-08-19 11:36:57.756,-0.405,0.87
2021-08-19 11:36:57.760,-0.43,0.795
2021-08-19 11:36:57.764,-0.445,0.72
2021-08-19 11:36:57.768,-0.46,0.7
2021-08-19 11:36:57.772,-0.49,0.615
2021-08-19 11:36:57.776,-0.525,0.58
2021-08-19 11:36:57.780,-0.55,0.535
2021-08-19 11:36:57.784,-0.565,0.495
2021-08-19 11:36:57.788,-0.56,0.48
2021-08-19 11:36:57.792,-0.54,0.455
2021-08-19 11:36:57.796,-0.555,0.415
2021-08-19 11:36:57.800,-0.54,0.38
2021-08-19 11:36:57.804,-0.53,0.385
2021-08-19 11:36:57.808,-0.555,0.38
2021-08-19 11:36:57.812,-0.56,0.365
2021-08-19 11:36:57.816,-0.55,0.37
2021-08-19 11:36:57.820,-0.52,0.375
2021-08-19 11:36:57.824,-0.5,0.375
2021-08-19 11:36:57.828,-0.455,0.365
2021-08-19 11:36:57.832,-0.4,0.345
2021-08-19 11:36:57.836,-0.34,0.37
2021-08-19 11:36:57.840,-0.315,0.415
2021-08-19 11:36:57.844,-0.295,0.415
2021-08-19 11:36:57.848,-0.265,0.415
2021-08-19 11:36:57.852,-0.275,0.405
2021-08-19 11:36:57.856,-0.255,0.415
2021-08-19 11:36:57.860,-0.28,0.415
2021-08-19 11:36:57.864,-0.265,0.39
2021-08-19 11:36:57.868,-0.265,0.365
2021-08-19 11:36:57.872,-0.27,0.35
2021-08-19 11:36:57.876,-0.26,0.34
2021-08-19 11:36:57.880,-0.285,0.31
2021-08-19 11:36:57.884,-0.265,0.31
2021-08-19 11:36:57.888,-0.26,0.295
2021-08-19 11:36:57.892,-0.26,0.275
2021-08-19 11:36:57.896,-0.25,0.29
2021-08-19 11:36:57.900,-0.27,0.275
2021-08-19 11:36:57.904,-0.31,0.275
2021-08-19 11:36:57.908,-0.305,0.26
2021-08-19 11:36:57.912,-0.345,0.255
2021-08-19 11:36:57.916,-0.36,0.24
2021-08-19 11:36:57.920,-0.34,0.24
2021-08-19 11:36:57.924,-0.36,0.21
2021-08-19 11:36:57.928,-0.36,0.19
2021-08-19 11:36:57.932,-0.375,0.19
2021-08-19 11:36:57.936,-0.375,0.19
2021-08-19 11:36:57.940,-0.39,0.17
2021-08-19 11:36:57.944,-0.405,0.185
2021-08-19 11:36:57.948,-0.415,0.18
2021-08-19 11:36:57.952,-0.41,0.165
2021-08-19 11:36:57.956,-0.405,0.15
2021-08-19 11:36:57.960,-0.385,0.15
2021-08-19 11:36:57.964,-0.385,0.16
2021-08-19 11:36:57.968,-0.38,0.16
2021-08-19 11:36:57.972,-0.365,0.14
2021-08-19 11:36:57.976,-0.275,0.16
2021-08-19 11:36:57.980,-0.15,0.16
2021-08-19 11:36:57.984,-0.04,0.16
2021-08-19 11:36:57.988,-0.055,0.185
2021-08-19 11:36:57.992,-0.105,0.26
2021-08-19 11:36:57.996,-0.225,0.335
2021-08-19 11:36:58.000,-0.42,0.25
2021-08-19 11:36:58.004,-0.675,-0.105
2021-08-19 11:36:58.008,-0.855,-0.65
2021-08-19 11:36:58.012,-1.005,-1.295
2021-08-19 11:36:58.096,-0.83,-1.87
2021-08-19 11:36:58.100,-0.7,-1.4
2021-08-19 11:36:58.104,-0.58,-1.025
2021-08-19 11:36:58.108,-0.445,-0.7
2021-08-19 11:36:58.112,-0.33,-0.42
2021-08-19 11:36:58.116,-0.285,-0.205
2021-08-19 11:36:58.120,-0.245,-0.04
2021-08-19 11:36:58.124,-0.185,0.14
2021-08-19 11:36:58.128,-0.18,0.32
2021-08-19 11:36:58.132,-0.175,0.485
2021-08-19 11:36:58.136,-0.165,0.64
2021-08-19 11:36:58.140,-0.145,0.73
2021-08-19 11:36:58.144,-0.135,0.815
2021-08-19 11:36:58.148,-0.12,0.83
2021-08-19 11:36:58.152,-0.12,0.85
2021-08-19 11:36:58.156,-0.15,0.88
2021-08-19 11:36:58.160,-0.15,0.905
2021-08-19 11:36:58.164,-0.12,0.915
2021-08-19 11:36:58.168,-0.11,0.915
2021-08-19 11:36:58.172,-0.09,0.93
2021-08-19 11:36:58.176,-0.11,0.95
2021-08-19 11:36:58.180,-0.11,0.975
2021-08-19 11:36:58.184,-0.105,0.98
2021-08-19 11:36:58.188,-0.085,1.005
2021-08-19 11:36:58.192,-0.07,0.985
2021-08-19 11:36:58.196,-0.065,1.025
2021-08-19 11:36:58.200,-0.07,1.01
2021-08-19 11:36:58.204,-0.06,1.06
2021-08-19 11:36:58.208,-0.04,1.07
2021-08-19 11:36:58.212,-0.025,1.095
2021-08-19 11:36:58.216,-0.04,1.08
2021-08-19 11:36:58.220,-0.065,1.12
2021-08-19 11:36:58.224,-0.065,1.115
2021-08-19 11:36:58.228,-0.055,1.145
2021-08-19 11:36:58.232,-0.06,1.17
2021-08-19 11:36:58.236,-0.07,1.205
2021-08-19 11:36:58.240,-0.075,1.22
2021-08-19 11:36:58.244,-0.08,1.225
2021-08-19 11:36:58.248,-0.095,1.265
2021-08-19 11:36:58.252,-0.09,1.3
2021-08-19 11:36:58.256,-0.085,1.305
2021-08-19 11:36:58.260,-0.05,1.305
2021-08-19 11:36:58.264,-0.075,1.32
2021-08-19 11:36:58.268,-0.075,1.34
2021-08-19 11:36:58.272,-0.08,1.375
2021-08-19 11:36:58.276,-0.08,1.37
2021-08-19 11:36:58.280,-0.11,1.42
2021-08-19 11:36:58.284,-0.155,1.435
2021-08-19 11:36:58.288,-0.2,1.48
2021-08-19 11:36:58.292,-0.185,1.495
2021-08-19 11:36:58.296,-0.2,1.485
2021-08-19 11:36:58.300,-0.2,1.505
2021-08-19 11:36:58.304,-0.215,1.525
2021-08-19 11:36:58.308,-0.225,1.54
2021-08-19 11:36:58.312,-0.225,1.525
2021-08-19 11:36:58.316,-0.26,1.525
2021-08-19 11:36:58.320,-0.28,1.515
2021-08-19 11:36:58.324,-0.29,1.505
2021-08-19 11:36:58.328,-0.3,1.51
2021-08-19 11:36:58.332,-0.28,1.475
2021-08-19 11:36:58.336,-0.27,1.42
2021-08-19 11:36:58.340,-0.25,1.35
2021-08-19 11:36:58.344,-0.22,1.275
2021-08-19 11:36:58.348,-0.185,1.26
2021-08-19 11:36:58.352,-0.195,1.215
2021-08-19 11:36:58.356,-0.175,1.19
2021-08-19 11:36:58.360,-0.17,1.18
2021-08-19 11:36:58.364,-0.17,1.12
2021-08-19 11:36:58.368,-0.18,1.03
2021-08-19 11:36:58.372,-0.19,0.99
2021-08-19 11:36:58.376,-0.17,0.895
2021-08-19 11:36:58.380,-0.14,0.83
2021-08-19 11:36:58.384,-0.16,0.755
2021-08-19 11:36:58.388,-0.16,0.715
2021-08-19 11:36:58.392,-0.17,0.665
2021-08-19 11:36:58.396,-0.18,0.63
2021-08-19 11:36:58.400,-0.16,0.585
2021-08-19 11:36:58.404,-0.185,0.545
2021-08-19 11:36:58.408,-0.18,0.495
2021-08-19 11:36:58.412,-0.18,0.47
2021-08-19 11:36:58.416,-0.22,0.46
2021-08-19 11:36:58.420,-0.225,0.44
2021-08-19 11:36:58.424,-0.225,0.395
2021-08-19 11:36:58.428,-0.22,0.37
2021-08-19 11:36:58.432,-0.235,0.36
2021-08-19 11:36:58.436,-0.225,0.36
2021-08-19 11:36:58.440,-0.215,0.345
2021-08-19 11:36:58.444,-0.22,0.345
2021-08-19 11:36:58.448,-0.25,0.36
2021-08-19 11:36:58.452,-0.255,0.34
2021-08-19 11:36:58.456,-0.25,0.345
2021-08-19 11:36:58.460,-0.25,0.31
2021-08-19 11:36:58.464,-0.25,0.305
2021-08-19 11:36:58.468,-0.295,0.315
2021-08-19 11:36:58.472,-0.265,0.29
2021-08-19 11:36:58.476,-0.27,0.295
2021-08-19 11:36:58.480,-0.285,0.29
2021-08-19 11:36:58.484,-0.305,0.275
2021-08-19 11:36:58.488,-0.31,0.275
2021-08-19 11:36:58.492,-0.32,0.285
2021-08-19 11:36:58.496,-0.37,0.275
2021-08-19 11:36:58.500,-0.36,0.285
2021-08-19 11:36:58.504,-0.375,0.26
2021-08-19 11:36:58.508,-0.375,0.26
2021-08-19 11:36:58.512,-0.365,0.24
2021-08-19 11:36:58.516,-0.365,0.19
2021-08-19 11:36:58.520,-0.35,0.195
2021-08-19 11:36:58.524,-0.35,0.18
2021-08-19 11:36:58.528,-0.35,0.21
2021-08-19 11:36:58.532,-0.355,0.2
2021-08-19 11:36:58.536,-0.37,0.22
2021-08-19 11:36:58.540,-0.39,0.235
2021-08-19 11:36:58.544,-0.38,0.23
2021-08-19 11:36:58.548,-0.37,0.23
2021-08-19 11:36:58.552,-0.265,0.21
2021-08-19 11:36:58.556,-0.15,0.2
2021-08-19 11:36:58.560,-0.005,0.195
2021-08-19 11:36:58.564,0.035,0.235
2021-08-19 11:36:58.568,0.01,0.295
2021-08-19 11:36:58.572,-0.04,0.39
2021-08-19 11:36:58.576,-0.175,0.365
2021-08-19 11:36:58.580,-0.365,0.095
2021-08-19 11:36:58.584,-0.535,-0.38
2021-08-19 11:36:58.588,-0.695,-0.925
2021-08-19 11:36:58.592,-0.72,-1.69
2021-08-19 11:36:58.672,-0.53,-2.0
2021-08-19 11:36:58.676,-0.48,-1.545
2021-08-19 11:36:58.680,-0.43,-1.15
2021-08-19 11:36:58.684,-0.345,-0.815
2021-08-19 11:36:58.688,-0.235,-0.555
2021-08-19 11:36:58.692,-0.16,-0.345
2021-08-19 11:36:58.696,-0.115,-0.14
2021-08-19 11:36:58.700,-0.095,0.025
2021-08-19 11:36:58.704,-0.075,0.235
2021-08-19 11:36:58.708,-0.065,0.395
2021-08-19 11:36:58.712,-0.05,0.535
2021-08-19 11:36:58.716,-0.06,0.68
2021-08-19 11:36:58.720,-0.075,0.77
2021-08-19 11:36:58.724,-0.045,0.82
2021-08-19 11:36:58.728,-0.035,0.85
2021-08-19 11:36:58.732,-0.035,0.86
2021-08-19 11:36:58.736,-0.03,0.9
2021-08-19 11:36:58.740,-0.04,0.925
2021-08-19 11:36:58.744,-0.03,0.94
2021-08-19 11:36:58.748,-0.015,0.97
2021-08-19 11:36:58.752,-0.01,0.96
2021-08-19 11:36:58.756,-0.015,0.985
2021-08-19 11:36:58.760,-0.025,0.985
2021-08-19 11:36:58.764,-0.035,0.995
2021-08-19 11:36:58.768,-0.03,1.0
2021-08-19 11:36:58.772,-0.035,1.025
2021-08-19 11:36:58.776,-0.035,1.035
2021-08-19 11:36:58.780,-0.015,1.015
2021-08-19 11:36:58.784,0.005,1.03
2021-08-19 11:36:58.788,0.005,1.05
2021-08-19 11:36:58.792,0.04,1.06
2021-08-19 11:36:58.796,0.03,1.09
2021-08-19 11:36:58.800,0.04,1.095
2021-08-19 11:36:58.804,0.01,1.125
2021-08-19 11:36:58.808,-0.005,1.15
2021-08-19 11:36:58.812,0.02,1.175
2021-08-19 11:36:58.816,0.035,1.175
2021-08-19 11:36:58.820,0.06,1.18
2021-08-19 11:36:58.824,0.08,1.22
2021-08-19 11:36:58.828,0.1,1.25
2021-08-19 11:36:58.832,0.115,1.275
2021-08-19 11:36:58.836,0.085,1.305
2021-08-19 11:36:58.840,0.075,1.365
2021-08-19 11:36:58.844,0.09,1.355
2021-08-19 11:36:58.848,0.09,1.375
2021-08-19 11:36:58.852,0.12,1.37
2021-08-19 11:36:58.856,0.14,1.415
2021-08-19 11:36:58.860,0.18,1.435
2021-08-19 11:36:58.864,0.21,1.47
2021-08-19 11:36:58.868,0.22,1.47
2021-08-19 11:36:58.872,0.205,1.49
2021-08-19 11:36:58.876,0.185,1.515
2021-08-19 11:36:58.880,0.205,1.51
2021-08-19 11:36:58.884,0.18,1.505
2021-08-19 11:36:58.888,0.155,1.485
2021-08-19 11:36:58.892,0.145,1.445
2021-08-19 11:36:58.896,0.155,1.41
2021-08-19 11:36:58.900,0.115,1.37
2021-08-19 11:36:58.904,0.1,1.34
2021-08-19 11:36:58.908,0.105,1.315
2021-08-19 11:36:58.912,0.1,1.255
2021-08-19 11:36:58.916,0.07,1.215
2021-08-19 11:36:58.920,0.065,1.16
2021-08-19 11:36:58.924,0.05,1.11
2021-08-19 11:36:58.928,0.03,1.035
2021-08-19 11:36:58.932,0.015,0.98
2021-08-19 11:36:58.936,-0.01,0.9
2021-08-19 11:36:58.940,-0.02,0.84
2021-08-19 11:36:58.944,-0.02,0.79
2021-08-19 11:36:58.948,-0.02,0.705
2021-08-19 11:36:58.952,-0.035,0.655
2021-08-19 11:36:58.956,-0.06,0.59
2021-08-19 11:36:58.960,-0.085,0.57
2021-08-19 11:36:58.964,-0.075,0.54
2021-08-19 11:36:58.968,-0.065,0.5
2021-08-19 11:36:58.972,-0.075,0.465
2021-08-19 11:36:58.976,-0.09,0.425
2021-08-19 11:36:58.980,-0.115,0.405
2021-08-19 11:36:58.984,-0.125,0.385
2021-08-19 11:36:58.988,-0.105,0.375
2021-08-19 11:36:58.992,-0.07,0.335
2021-08-19 11:36:58.996,-0.06,0.325
2021-08-19 11:36:59.000,-0.07,0.32
2021-08-19 11:36:59.004,-0.08,0.315
2021-08-19 11:36:59.008,-0.11,0.34
2021-08-19 11:36:59.012,-0.12,0.31
2021-08-19 11:36:59.016,-0.145,0.32
2021-08-19 11:36:59.020,-0.15,0.3
2021-08-19 11:36:59.024,-0.155,0.3
2021-08-19 11:36:59.028,-0.15,0.285
2021-08-19 11:36:59.032,-0.115,0.255
2021-08-19 11:36:59.036,-0.14,0.26
2021-08-19 11:36:59.040,-0.12,0.275
2021-08-19 11:36:59.044,-0.1,0.245
2021-08-19 11:36:59.048,-0.07,0.25
2021-08-19 11:36:59.052,-0.045,0.225
2021-08-19 11:36:59.056,0.005,0.235
2021-08-19 11:36:59.060,0.1,0.23
2021-08-19 11:36:59.064,0.22,0.24
2021-08-19 11:36:59.068,0.235,0.295
2021-08-19 11:36:59.072,0.225,0.34
2021-08-19 11:36:59.076,0.15,0.39
2021-08-19 11:36:59.080,0.0,0.385
2021-08-19 11:36:59.084,-0.21,0.155
2021-08-19 11:36:59.088,-0.4,-0.235
2021-08-19 11:36:59.092,-0.585,-0.685
2021-08-19 11:36:59.096,-0.64,-1.365
2021-08-19 11:36:59.176,-0.145,-1.715
2021-08-19 11:36:59.180,-0.105,-1.3
2021-08-19 11:36:59.184,-0.06,-0.93
2021-08-19 11:36:59.188,0.04,-0.615
2021-08-19 11:36:59.192,0.1,-0.34
2021-08-19 11:36:59.196,0.125,-0.16
2021-08-19 11:36:59.200,0.135,0.005
2021-08-19 11:36:59.204,0.145,0.19
2021-08-19 11:36:59.208,0.145,0.335
2021-08-19 11:36:59.212,0.155,0.475
2021-08-19 11:36:59.216,0.195,0.615
2021-08-19 11:36:59.220,0.195,0.72
2021-08-19 11:36:59.224,0.23,0.795
2021-08-19 11:36:59.228,0.23,0.825
2021-08-19 11:36:59.232,0.205,0.88
2021-08-19 11:36:59.236,0.205,0.88
2021-08-19 11:36:59.240,0.21,0.91
2021-08-19 11:36:59.244,0.22,0.935
2021-08-19 11:36:59.248,0.245,0.93
2021-08-19 11:36:59.252,0.255,0.93
2021-08-19 11:36:59.256,0.26,0.95
2021-08-19 11:36:59.260,0.27,0.965
2021-08-19 11:36:59.264,0.265,1.0
2021-08-19 11:36:59.268,0.26,1.01
2021-08-19 11:36:59.272,0.255,1.045
2021-08-19 11:36:59.276,0.265,1.05
2021-08-19 11:36:59.280,0.255,1.05
2021-08-19 11:36:59.284,0.225,1.075
2021-08-19 11:36:59.288,0.22,1.075
2021-08-19 11:36:59.292,0.235,1.085
2021-08-19 11:36:59.296,0.26,1.105
2021-08-19 11:36:59.300,0.255,1.115
2021-08-19 11:36:59.304,0.275,1.115
2021-08-19 11:36:59.308,0.29,1.14
2021-08-19 11:36:59.312,0.255,1.185
2021-08-19 11:36:59.316,0.2,1.225
2021-08-19 11:36:59.320,0.2,1.215
2021-08-19 11:36:59.324,0.175,1.265
2021-08-19 11:36:59.328,0.175,1.275
2021-08-19 11:36:59.332,0.18,1.32
2021-08-19 11:36:59.336,0.2,1.31
2021-08-19 11:36:59.340,0.185,1.34
2021-08-19 11:36:59.344,0.21,1.345
2021-08-19 11:36:59.348,0.205,1.36
2021-08-19 11:36:59.352,0.19,1.42
2021-08-19 11:36:59.356,0.19,1.435
2021-08-19 11:36:59.360,0.195,1.475
2021-08-19 11:36:59.364,0.15,1.465
2021-08-19 11:36:59.368,0.165,1.495
2021-08-19 11:36:59.372,0.195,1.505
2021-08-19 11:36:59.376,0.23,1.5
2021-08-19 11:36:59.380,0.25,1.495
2021-08-19 11:36:59.384,0.275,1.49
2021-08-19 11:36:59.388,0.27,1.52
2021-08-19 11:36:59.392,0.275,1.52
2021-08-19 11:36:59.396,0.285,1.505
2021-08-19 11:36:59.400,0.26,1.455
2021-08-19 11:36:59.404,0.245,1.4
2021-08-19 11:36:59.408,0.245,1.35
2021-08-19 11:36:59.412,0.225,1.32
2021-08-19 11:36:59.416,0.245,1.225
2021-08-19 11:36:59.420,0.24,1.18
2021-08-19 11:36:59.424,0.255,1.095
2021-08-19 11:36:59.428,0.25,1.035
2021-08-19 11:36:59.432,0.25,0.97
2021-08-19 11:36:59.436,0.23,0.9
2021-08-19 11:36:59.440,0.24,0.85
2021-08-19 11:36:59.444,0.23,0.81
2021-08-19 11:36:59.448,0.21,0.78
2021-08-19 11:36:59.452,0.19,0.73
2021-08-19 11:36:59.456,0.18,0.66
2021-08-19 11:36:59.460,0.18,0.595
2021-08-19 11:36:59.464,0.145,0.52
2021-08-19 11:36:59.468,0.125,0.51
2021-08-19 11:36:59.472,0.145,0.48
2021-08-19 11:36:59.476,0.15,0.45
2021-08-19 11:36:59.480,0.14,0.41
2021-08-19 11:36:59.484,0.12,0.41
2021-08-19 11:36:59.488,0.1,0.41
2021-08-19 11:36:59.492,0.08,0.395
2021-08-19 11:36:59.496,0.09,0.385
2021-08-19 11:36:59.500,0.095,0.385
2021-08-19 11:36:59.504,0.09,0.355
2021-08-19 11:36:59.508,0.075,0.35
2021-08-19 11:36:59.512,0.075,0.35
2021-08-19 11:36:59.516,0.085,0.335
2021-08-19 11:36:59.520,0.075,0.35
2021-08-19 11:36:59.524,0.055,0.35
2021-08-19 11:36:59.528,0.035,0.34
2021-08-19 11:36:59.532,0.02,0.34
2021-08-19 11:36:59.536,0.015,0.315
2021-08-19 11:36:59.540,-0.005,0.325
2021-08-19 11:36:59.544,0.015,0.33
2021-08-19 11:36:59.548,0.005,0.31
2021-08-19 11:36:59.552,0.0,0.315
2021-08-19 11:36:59.556,0.0,0.285
2021-08-19 11:36:59.560,0.0,0.275
2021-08-19 11:36:59.564,0.015,0.275
2021-08-19 11:36:59.568,0.0,0.255
2021-08-19 11:36:59.572,-0.025,0.265
2021-08-19 11:36:59.576,-0.03,0.24
2021-08-19 11:36:59.580,-0.04,0.255
2021-08-19 11:36:59.584,-0.06,0.26
2021-08-19 11:36:59.588,-0.04,0.25
2021-08-19 11:36:59.592,-0.04,0.245
2021-08-19 11:36:59.596,-0.03,0.24
2021-08-19 11:36:59.600,-0.005,0.23
2021-08-19 11:36:59.604,-0.005,0.24
2021-08-19 11:36:59.608,-0.005,0.265
2021-08-19 11:36:59.612,-0.005,0.255
2021-08-19 11:36:59.616,-0.01,0.28
2021-08-19 11:36:59.620,-0.01,0.285
2021-08-19 11:36:59.624,0.035,0.255
2021-08-19 11:36:59.628,0.105,0.235
2021-08-19 11:36:59.632,0.225,0.215
2021-08-19 11:36:59.636,0.355,0.21
2021-08-19 11:36:59.640,0.475,0.205
2021-08-19 11:36:59.644,0.56,0.29
2021-08-19 11:36:59.648,0.575,0.385
2021-08-19 11:36:59.652,0.57,0.495
2021-08-19 11:36:59.656,0.505,0.395
2021-08-19 11:36:59.660,0.38,0.045
2021-08-19 11:36:59.664,0.275,-0.46
2021-08-19 11:36:59.668,0.23,-1.085
2021-08-19 11:36:59.672,0.24,-1.93
2021-08-19 11:36:59.752,-0.26,-1.6
2021-08-19 11:36:59.756,-0.21,-1.205
2021-08-19 11:36:59.760,-0.15,-0.87
2021-08-19 11:36:59.764,-0.08,-0.58
2021-08-19 11:36:59.768,-0.02,-0.35
2021-08-19 11:36:59.772,0.02,-0.16
2021-08-19 11:36:59.776,0.025,0.015
2021-08-19 11:36:59.780,0.01,0.19
2021-08-19 11:36:59.784,0.015,0.38
2021-08-19 11:36:59.788,0.005,0.5
2021-08-19 11:36:59.792,0.005,0.61
2021-08-19 11:36:59.796,0.0,0.705
2021-08-19 11:36:59.800,-0.01,0.785
2021-08-19 11:36:59.804,-0.005,0.79
2021-08-19 11:36:59.808,-0.005,0.785
2021-08-19 11:36:59.812,-0.005,0.825
2021-08-19 11:36:59.816,0.015,0.855
2021-08-19 11:36:59.820,0.04,0.86
2021-08-19 11:36:59.824,0.025,0.865
2021-08-19 11:36:59.828,0.01,0.89
2021-08-19 11:36:59.832,0.0,0.905
2021-08-19 11:36:59.836,-0.02,0.935
2021-08-19 11:36:59.840,-0.005,0.975
2021-08-19 11:36:59.844,-0.01,0.985
2021-08-19 11:36:59.848,0.005,0.995
2021-08-19 11:36:59.852,0.0,1.01
2021-08-19 11:36:59.856,0.02,1.03
2021-08-19 11:36:59.860,0.025,1.045
2021-08-19 11:36:59.864,0.05,1.07
2021-08-19 11:36:59.868,0.08,1.115
2021-08-19 11:36:59.872,0.07,1.15
2021-08-19 11:36:59.876,0.055,1.185
2021-08-19 11:36:59.880,0.07,1.215
2021-08-19 11:36:59.884,0.095,1.24
2021-08-19 11:36:59.888,0.165,1.25
2021-08-19 11:36:59.892,0.22,1.255
2021-08-19 11:36:59.896,0.24,1.295
2021-08-19 11:36:59.900,0.245,1.32
2021-08-19 11:36:59.904,0.26,1.355
2021-08-19 11:36:59.908,0.275,1.395
2021-08-19 11:36:59.912,0.27,1.415
2021-08-19 11:36:59.916,0.255,1.41
2021-08-19 11:36:59.920,0.27,1.41
2021-08-19 11:36:59.924,0.26,1.415
2021-08-19 11:36:59.928,0.255,1.44
2021-08-19 11:36:59.932,0.275,1.445
2021-08-19 11:36:59.936,0.28,1.415
2021-08-19 11:36:59.940,0.27,1.445
2021-08-19 11:36:59.944,0.27,1.45
2021-08-19 11:36:59.948,0.265,1.475
2021-08-19 11:36:59.952,0.265,1.47
2021-08-19 11:36:59.956,0.27,1.495
2021-08-19 11:36:59.960,0.27,1.48
2021-08-19 11:36:59.964,0.22,1.48
2021-08-19 11:36:59.968,0.21,1.46
2021-08-19 11:36:59.972,0.2,1.435
2021-08-19 11:36:59.976,0.17,1.385
2021-08-19 11:36:59.980,0.145,1.33
2021-08-19 11:36:59.984,0.12,1.28
2021-08-19 11:36:59.988,0.1,1.26
2021-08-19 11:36:59.992,0.075,1.19
2021-08-19 11:36:59.996,0.04,1.155
2021-08-19 11:37:00.000,0.03,1.09
2021-08-19 11:37:00.004,0.01,1.025
2021-08-19 11:37:00.008,-0.03,0.965
2021-08-19 11:37:00.012,-0.055,0.9
2021-08-19 11:37:00.016,-0.06,0.85
2021-08-19 11:37:00.020,-0.065,0.775
2021-08-19 11:37:00.024,-0.08,0.73
2021-08-19 11:37:00.028,-0.1,0.66
2021-08-19 11:37:00.032,-0.105,0.615
2021-08-19 11:37:00.036,-0.155,0.605
2021-08-19 11:37:00.040,-0.145,0.555
2021-08-19 11:37:00.044,-0.19,0.52
2021-08-19 11:37:00.048,-0.21,0.5
2021-08-19 11:37:00.052,-0.21,0.465
2021-08-19 11:37:00.056,-0.23,0.435
2021-08-19 11:37:00.060,-0.25,0.4
2021-08-19 11:37:00.064,-0.25,0.38
2021-08-19 11:37:00.068,-0.24,0.325
2021-08-19 11:37:00.072,-0.22,0.315
2021-08-19 11:37:00.076,-0.225,0.3
2021-08-19 11:37:00.080,-0.24,0.3
2021-08-19 11:37:00.084,-0.24,0.335
2021-08-19 11:37:00.088,-0.255,0.34
2021-08-19 11:37:00.092,-0.265,0.31
2021-08-19 11:37:00.096,-0.275,0.325
2021-08-19 11:37:00.100,-0.26,0.35
2021-08-19 11:37:00.104,-0.23,0.345
2021-08-19 11:37:00.108,-0.22,0.35
2021-08-19 11:37:00.112,-0.24,0.35
2021-08-19 11:37:00.116,-0.245,0.365
2021-08-19 11:37:00.120,-0.21,0.365
2021-08-19 11:37:00.124,-0.175,0.4
2021-08-19 11:37:00.128,-0.19,0.365
2021-08-19 11:37:00.132,-0.225,0.39
2021-08-19 11:37:00.136,-0.23,0.4
2021-08-19 11:37:00.140,-0.21,0.39
2021-08-19 11:37:00.144,-0.135,0.37
2021-08-19 11:37:00.148,-0.1,0.35
2021-08-19 11:37:00.152,-0.04,0.37
2021-08-19 11:37:00.156,-0.03,0.405
2021-08-19 11:37:00.160,-0.045,0.425
2021-08-19 11:37:00.164,-0.04,0.4
2021-08-19 11:37:00.168,-0.04,0.395
2021-08-19 11:37:00.172,-0.04,0.39
2021-08-19 11:37:00.176,-0.035,0.37
2021-08-19 11:37:00.180,-0.035,0.34
2021-08-19 11:37:00.184,-0.05,0.35
2021-08-19 11:37:00.188,-0.055,0.335
2021-08-19 11:37:00.192,-0.05,0.33
2021-08-19 11:37:00.196,-0.045,0.34
2021-08-19 11:37:00.200,-0.04,0.32
2021-08-19 11:37:00.204,-0.06,0.3
2021-08-19 11:37:00.208,-0.065,0.305
2021-08-19 11:37:00.212,-0.08,0.295
2021-08-19 11:37:00.216,-0.09,0.275
2021-08-19 11:37:00.220,-0.09,0.26
2021-08-19 11:37:00.224,-0.115,0.255
2021-08-19 11:37:00.228,-0.11,0.25
2021-08-19 11:37:00.232,-0.1,0.26
2021-08-19 11:37:00.236,-0.095,0.23
2021-08-19 11:37:00.240,-0.125,0.245
2021-08-19 11:37:00.244,-0.13,0.225
2021-08-19 11:37:00.248,-0.14,0.195
2021-08-19 11:37:00.252,-0.165,0.215
2021-08-19 11:37:00.256,-0.165,0.22
2021-08-19 11:37:00.260,-0.155,0.23
2021-08-19 11:37:00.264,-0.17,0.19
2021-08-19 11:37:00.268,-0.17,0.215
2021-08-19 11:37:00.272,-0.165,0.205
2021-08-19 11:37:00.276,-0.17,0.22
2021-08-19 11:37:00.280,-0.185,0.235
2021-08-19 11:37:00.284,-0.2,0.19
2021-08-19 11:37:00.288,-0.215,0.2
2021-08-19 11:37:00.292,-0.22,0.2
2021-08-19 11:37:00.296,-0.24,0.195
2021-08-19 11:37:00.300,-0.24,0.2
2021-08-19 11:37:00.304,-0.27,0.17
2021-08-19 11:37:00.308,-0.285,0.17
2021-08-19 11:37:00.312,-0.28,0.145
2021-08-19 11:37:00.316,-0.305,0.175
2021-08-19 11:37:00.320,-0.305,0.18
