Time,ECG1,ECG2
2021-08-19 10:37:21.664,-0.245,-0.095
2021-08-19 10:37:21.668,-0.24,-0.11
2021-08-19 10:37:21.672,-0.27,-0.1
2021-08-19 10:37:21.676,-0.255,-0.09
2021-08-19 10:37:21.680,-0.275,-0.085
2021-08-19 10:37:21.684,-0.3,-0.08
2021-08-19 10:37:21.688,-0.28,-0.105
2021-08-19 10:37:21.692,-0.285,-0.12
2021-08-19 10:37:21.696,-0.31,-0.115
2021-08-19 10:37:21.700,-0.305,-0.14
2021-08-19 10:37:21.704,-0.3,-0.145
2021-08-19 10:37:21.708,-0.28,-0.145
2021-08-19 10:37:21.712,-0.28,-0.135
2021-08-19 10:37:21.716,-0.28,-0.14
2021-08-19 10:37:21.720,-0.31,-0.155
2021-08-19 10:37:21.724,-0.305,-0.175
2021-08-19 10:37:21.728,-0.32,-0.15
2021-08-19 10:37:21.732,-0.31,-0.16
2021-08-19 10:37:21.736,-0.33,-0.175
2021-08-19 10:37:21.740,-0.31,-0.165
2021-08-19 10:37:21.744,-0.31,-0.185
2021-08-19 10:37:21.748,-0.325,-0.15
2021-08-19 10:37:21.752,-0.315,-0.165
2021-08-19 10:37:21.756,-0.315,-0.155
2021-08-19 10:37:21.760,-0.3,-0.175
2021-08-19 10:37:21.764,-0.305,-0.175
2021-08-19 10:37:21.768,-0.32,-0.155
2021-08-19 10:37:21.772,-0.335,-0.14
2021-08-19 10:37:21.776,-0.33,-0.16
2021-08-19 10:37:21.780,-0.35,-0.14
2021-08-19 10:37:21.784,-0.345,-0.145
2021-08-19 10:37:21.788,-0.34,-0.14
2021-08-19 10:37:21.792,-0.31,-0.16
2021-08-19 10:37:21.796,-0.33,-0.155
2021-08-19 10:37:21.800,-0.32,-0.17
2021-08-19 10:37:21.804,-0.32,-0.18
2021-08-19 10:37:21.808,-0.335,-0.185
2021-08-19 10:37:21.812,-0.34,-0.2
2021-08-19 10:37:21.816,-0.355,-0.22
2021-08-19 10:37:21.820,-0.36,-0.195
2021-08-19 10:37:21.824,-0.36,-0.185
2021-08-19 10:37:21.828,-0.34,-0.2
2021-08-19 10:37:21.832,-0.31,-0.205
2021-08-19 10:37:21.836,-0.275,-0.19
2021-08-19 10:37:21.840,-0.195,-0.17
2021-08-19 10:37:21.844,-0.165,-0.15
2021-08-19 10:37:21.848,-0.16,-0.12
2021-08-19 10:37:21.852,-0.175,-0.095
2021-08-19 10:37:21.856,-0.165,-0.085
2021-08-19 10:37:21.860,-0.15,-0.1
2021-08-19 10:37:21.864,-0.175,-0.105
2021-08-19 10:37:21.868,-0.17,-0.08
2021-08-19 10:37:21.872,-0.16,-0.11
2021-08-19 10:37:21.876,-0.165,-0.155
2021-08-19 10:37:21.880,-0.12,-0.14
2021-08-19 10:37:21.884,-0.155,-0.19
2021-08-19 10:37:21.888,-0.18,-0.205
2021-08-19 10:37:21.892,-0.215,-0.2
2021-08-19 10:37:21.896,-0.24,-0.21
2021-08-19 10:37:21.900,-0.28,-0.26
2021-08-19 10:37:21.904,-0.33,-0.3
2021-08-19 10:37:21.908,-0.36,-0.26
2021-08-19 10:37:21.912,-0.405,-0.255
2021-08-19 10:37:21.916,-0.435,-0.25
2021-08-19 10:37:21.920,-0.44,-0.265
2021-08-19 10:37:21.924,-0.45,-0.28
2021-08-19 10:37:21.928,-0.435,-0.265
2021-08-19 10:37:21.932,-0.42,-0.27
2021-08-19 10:37:21.936,-0.41,-0.28
2021-08-19 10:37:21.940,-0.395,-0.29
2021-08-19 10:37:21.944,-0.38,-0.27
2021-08-19 10:37:21.948,-0.35,-0.265
2021-08-19 10:37:21.952,-0.285,-0.245
2021-08-19 10:37:21.956,-0.19,-0.185
2021-08-19 10:37:21.960,0.0,-0.13
2021-08-19 10:37:21.964,0.275,-0.15
2021-08-19 10:37:21.968,0.5,-0.17
2021-08-19 10:37:21.972,0.63,-0.22
2021-08-19 10:37:21.976,0.695,-0.395
2021-08-19 10:37:21.980,0.62,-0.775
2021-08-19 10:37:21.984,0.08,-1.155
2021-08-19 10:37:21.988,-0.87,-1.51
2021-08-19 10:37:21.992,-1.59,-1.875
2021-08-19 10:37:22.016,-0.895,-1.84
2021-08-19 10:37:22.020,-0.72,-1.455
2021-08-19 10:37:22.024,-0.6,-1.115
2021-08-19 10:37:22.028,-0.52,-0.825
2021-08-19 10:37:22.032,-0.515,-0.58
2021-08-19 10:37:22.036,-0.52,-0.44
2021-08-19 10:37:22.040,-0.53,-0.36
2021-08-19 10:37:22.044,-0.555,-0.335
2021-08-19 10:37:22.048,-0.56,-0.295
2021-08-19 10:37:22.052,-0.565,-0.275
2021-08-19 10:37:22.056,-0.57,-0.27
2021-08-19 10:37:22.060,-0.59,-0.265
2021-08-19 10:37:22.064,-0.575,-0.27
2021-08-19 10:37:22.068,-0.58,-0.23
2021-08-19 10:37:22.072,-0.565,-0.235
2021-08-19 10:37:22.076,-0.585,-0.235
2021-08-19 10:37:22.080,-0.595,-0.23
2021-08-19 10:37:22.084,-0.565,-0.22
2021-08-19 10:37:22.088,-0.595,-0.22
2021-08-19 10:37:22.092,-0.615,-0.235
2021-08-19 10:37:22.096,-0.65,-0.225
2021-08-19 10:37:22.100,-0.64,-0.23
2021-08-19 10:37:22.104,-0.665,-0.215
2021-08-19 10:37:22.108,-0.675,-0.195
2021-08-19 10:37:22.112,-0.655,-0.21
2021-08-19 10:37:22.116,-0.655,-0.215
2021-08-19 10:37:22.120,-0.68,-0.205
2021-08-19 10:37:22.124,-0.68,-0.215
2021-08-19 10:37:22.128,-0.67,-0.23
2021-08-19 10:37:22.132,-0.69,-0.22
2021-08-19 10:37:22.136,-0.7,-0.225
2021-08-19 10:37:22.140,-0.745,-0.22
2021-08-19 10:37:22.144,-0.76,-0.22
2021-08-19 10:37:22.148,-0.775,-0.225
2021-08-19 10:37:22.152,-0.77,-0.215
2021-08-19 10:37:22.156,-0.805,-0.21
2021-08-19 10:37:22.160,-0.815,-0.225
2021-08-19 10:37:22.164,-0.795,-0.23
2021-08-19 10:37:22.168,-0.82,-0.215
2021-08-19 10:37:22.172,-0.83,-0.215
2021-08-19 10:37:22.176,-0.855,-0.22
2021-08-19 10:37:22.180,-0.895,-0.21
2021-08-19 10:37:22.184,-0.9,-0.245
2021-08-19 10:37:22.188,-0.95,-0.25
2021-08-19 10:37:22.192,-0.955,-0.26
2021-08-19 10:37:22.196,-0.975,-0.265
2021-08-19 10:37:22.200,-0.975,-0.275
2021-08-19 10:37:22.204,-0.995,-0.28
2021-08-19 10:37:22.208,-0.96,-0.275
2021-08-19 10:37:22.212,-0.96,-0.3
2021-08-19 10:37:22.216,-0.985,-0.305
2021-08-19 10:37:22.220,-0.99,-0.315
2021-08-19 10:37:22.224,-1.0,-0.325
2021-08-19 10:37:22.228,-1.02,-0.335
2021-08-19 10:37:22.232,-1.045,-0.33
2021-08-19 10:37:22.236,-1.04,-0.33
2021-08-19 10:37:22.240,-1.045,-0.35
2021-08-19 10:37:22.244,-1.05,-0.35
2021-08-19 10:37:22.248,-1.005,-0.35
2021-08-19 10:37:22.252,-0.97,-0.35
2021-08-19 10:37:22.256,-0.965,-0.355
2021-08-19 10:37:22.260,-0.95,-0.36
2021-08-19 10:37:22.264,-0.93,-0.36
2021-08-19 10:37:22.268,-0.94,-0.33
2021-08-19 10:37:22.272,-0.9,-0.335
2021-08-19 10:37:22.276,-0.9,-0.32
2021-08-19 10:37:22.280,-0.86,-0.32
2021-08-19 10:37:22.284,-0.84,-0.33
2021-08-19 10:37:22.288,-0.795,-0.32
2021-08-19 10:37:22.292,-0.735,-0.3
2021-08-19 10:37:22.296,-0.7,-0.3
2021-08-19 10:37:22.300,-0.66,-0.27
2021-08-19 10:37:22.304,-0.61,-0.255
2021-08-19 10:37:22.308,-0.575,-0.205
2021-08-19 10:37:22.312,-0.535,-0.195
2021-08-19 10:37:22.316,-0.515,-0.175
2021-08-19 10:37:22.320,-0.52,-0.13
2021-08-19 10:37:22.324,-0.49,-0.1
2021-08-19 10:37:22.328,-0.47,-0.09
2021-08-19 10:37:22.332,-0.45,-0.07
2021-08-19 10:37:22.336,-0.44,-0.07
2021-08-19 10:37:22.340,-0.41,-0.055
2021-08-19 10:37:22.344,-0.38,-0.04
2021-08-19 10:37:22.348,-0.355,-0.03
2021-08-19 10:37:22.352,-0.35,-0.035
2021-08-19 10:37:22.356,-0.33,-0.02
2021-08-19 10:37:22.360,-0.335,-0.035
2021-08-19 10:37:22.364,-0.33,-0.01
2021-08-19 10:37:22.368,-0.35,-0.015
2021-08-19 10:37:22.372,-0.335,-0.015
2021-08-19 10:37:22.376,-0.33,-0.025
2021-08-19 10:37:22.380,-0.345,-0.025
2021-08-19 10:37:22.384,-0.31,-0.01
2021-08-19 10:37:22.388,-0.295,-0.01
2021-08-19 10:37:22.392,-0.29,-0.03
2021-08-19 10:37:22.396,-0.295,0.0
2021-08-19 10:37:22.400,-0.29,-0.025
2021-08-19 10:37:22.404,-0.3,-0.045
2021-08-19 10:37:22.408,-0.3,-0.04
2021-08-19 10:37:22.412,-0.305,-0.055
2021-08-19 10:37:22.416,-0.33,-0.07
2021-08-19 10:37:22.420,-0.32,-0.065
2021-08-19 10:37:22.424,-0.35,-0.04
2021-08-19 10:37:22.428,-0.355,-0.065
2021-08-19 10:37:22.432,-0.325,-0.08
2021-08-19 10:37:22.436,-0.315,-0.065
2021-08-19 10:37:22.440,-0.31,-0.07
2021-08-19 10:37:22.444,-0.31,-0.085
2021-08-19 10:37:22.448,-0.31,-0.11
2021-08-19 10:37:22.452,-0.32,-0.11
2021-08-19 10:37:22.456,-0.345,-0.115
2021-08-19 10:37:22.460,-0.37,-0.125
2021-08-19 10:37:22.464,-0.365,-0.135
2021-08-19 10:37:22.468,-0.36,-0.155
2021-08-19 10:37:22.472,-0.375,-0.135
2021-08-19 10:37:22.476,-0.355,-0.12
2021-08-19 10:37:22.480,-0.335,-0.105
2021-08-19 10:37:22.484,-0.32,-0.125
2021-08-19 10:37:22.488,-0.32,-0.15
2021-08-19 10:37:22.492,-0.32,-0.14
2021-08-19 10:37:22.496,-0.315,-0.16
2021-08-19 10:37:22.500,-0.33,-0.145
2021-08-19 10:37:22.504,-0.345,-0.17
2021-08-19 10:37:22.508,-0.36,-0.175
2021-08-19 10:37:22.512,-0.36,-0.155
2021-08-19 10:37:22.516,-0.37,-0.165
2021-08-19 10:37:22.520,-0.37,-0.165
2021-08-19 10:37:22.524,-0.36,-0.175
2021-08-19 10:37:22.528,-0.355,-0.18
2021-08-19 10:37:22.532,-0.33,-0.2
2021-08-19 10:37:22.536,-0.34,-0.16
2021-08-19 10:37:22.540,-0.325,-0.155
2021-08-19 10:37:22.544,-0.335,-0.185
2021-08-19 10:37:22.548,-0.345,-0.175
2021-08-19 10:37:22.552,-0.365,-0.155
2021-08-19 10:37:22.556,-0.355,-0.17
2021-08-19 10:37:22.560,-0.365,-0.175
2021-08-19 10:37:22.564,-0.365,-0.175
2021-08-19 10:37:22.568,-0.35,-0.16
2021-08-19 10:37:22.572,-0.335,-0.155
2021-08-19 10:37:22.576,-0.315,-0.155
2021-08-19 10:37:22.580,-0.305,-0.16
2021-08-19 10:37:22.584,-0.295,-0.17
2021-08-19 10:37:22.588,-0.315,-0.165
2021-08-19 10:37:22.592,-0.32,-0.185
2021-08-19 10:37:22.596,-0.355,-0.185
2021-08-19 10:37:22.600,-0.365,-0.175
2021-08-19 10:37:22.604,-0.355,-0.175
2021-08-19 10:37:22.608,-0.375,-0.175
2021-08-19 10:37:22.612,-0.36,-0.19
2021-08-19 10:37:22.616,-0.37,-0.205
2021-08-19 10:37:22.620,-0.335,-0.19
2021-08-19 10:37:22.624,-0.34,-0.18
2021-08-19 10:37:22.628,-0.34,-0.19
2021-08-19 10:37:22.632,-0.325,-0.19
2021-08-19 10:37:22.636,-0.31,-0.18
2021-08-19 10:37:22.640,-0.32,-0.16
2021-08-19 10:37:22.644,-0.35,-0.15
2021-08-19 10:37:22.648,-0.355,-0.15
2021-08-19 10:37:22.652,-0.365,-0.17
2021-08-19 10:37:22.656,-0.34,-0.175
2021-08-19 10:37:22.660,-0.345,-0.15
2021-08-19 10:37:22.664,-0.35,-0.15
2021-08-19 10:37:22.668,-0.34,-0.14
2021-08-19 10:37:22.672,-0.32,-0.18
2021-08-19 10:37:22.676,-0.315,-0.16
2021-08-19 10:37:22.680,-0.32,-0.17
2021-08-19 10:37:22.684,-0.335,-0.155
2021-08-19 10:37:22.688,-0.35,-0.16
2021-08-19 10:37:22.692,-0.345,-0.16
2021-08-19 10:37:22.696,-0.335,-0.165
2021-08-19 10:37:22.700,-0.33,-0.17
2021-08-19 10:37:22.704,-0.335,-0.17
2021-08-19 10:37:22.708,-0.305,-0.15
2021-08-19 10:37:22.712,-0.255,-0.145
2021-08-19 10:37:22.716,-0.22,-0.135
2021-08-19 10:37:22.720,-0.165,-0.125
2021-08-19 10:37:22.724,-0.155,-0.095
2021-08-19 10:37:22.728,-0.155,-0.035
2021-08-19 10:37:22.732,-0.165,-0.01
2021-08-19 10:37:22.736,-0.16,-0.005
2021-08-19 10:37:22.740,-0.15,0.0
2021-08-19 10:37:22.744,-0.145,-0.02
2021-08-19 10:37:22.748,-0.175,-0.055
2021-08-19 10:37:22.752,-0.19,-0.075
2021-08-19 10:37:22.756,-0.15,-0.075
2021-08-19 10:37:22.760,-0.15,-0.125
2021-08-19 10:37:22.764,-0.175,-0.18
2021-08-19 10:37:22.768,-0.2,-0.24
2021-08-19 10:37:22.772,-0.225,-0.235
2021-08-19 10:37:22.776,-0.265,-0.255
2021-08-19 10:37:22.780,-0.315,-0.245
2021-08-19 10:37:22.784,-0.32,-0.215
2021-08-19 10:37:22.788,-0.355,-0.185
2021-08-19 10:37:22.792,-0.38,-0.205
2021-08-19 10:37:22.796,-0.39,-0.185
2021-08-19 10:37:22.800,-0.39,-0.185
2021-08-19 10:37:22.804,-0.375,-0.195
2021-08-19 10:37:22.808,-0.37,-0.18
2021-08-19 10:37:22.812,-0.345,-0.21
2021-08-19 10:37:22.816,-0.35,-0.23
2021-08-19 10:37:22.820,-0.32,-0.24
2021-08-19 10:37:22.824,-0.28,-0.235
2021-08-19 10:37:22.828,-0.225,-0.185
2021-08-19 10:37:22.832,-0.065,-0.14
2021-08-19 10:37:22.836,0.175,-0.1
2021-08-19 10:37:22.840,0.43,-0.13
2021-08-19 10:37:22.844,0.605,-0.14
2021-08-19 10:37:22.848,0.695,-0.24
2021-08-19 10:37:22.852,0.77,-0.61
2021-08-19 10:37:22.856,0.52,-1.02
2021-08-19 10:37:22.860,-0.275,-1.45
2021-08-19 10:37:22.864,-1.17,-1.8
2021-08-19 10:37:22.892,-0.66,-1.665
2021-08-19 10:37:22.896,-0.55,-1.25
2021-08-19 10:37:22.900,-0.475,-0.895
2021-08-19 10:37:22.904,-0.46,-0.615
2021-08-19 10:37:22.908,-0.465,-0.465
2021-08-19 10:37:22.912,-0.445,-0.37
2021-08-19 10:37:22.916,-0.445,-0.3
2021-08-19 10:37:22.920,-0.455,-0.28
2021-08-19 10:37:22.924,-0.465,-0.255
2021-08-19 10:37:22.928,-0.44,-0.285
2021-08-19 10:37:22.932,-0.44,-0.23
2021-08-19 10:37:22.936,-0.475,-0.22
2021-08-19 10:37:22.940,-0.46,-0.21
2021-08-19 10:37:22.944,-0.435,-0.205
2021-08-19 10:37:22.948,-0.43,-0.185
2021-08-19 10:37:22.952,-0.435,-0.185
2021-08-19 10:37:22.956,-0.445,-0.195
2021-08-19 10:37:22.960,-0.455,-0.185
2021-08-19 10:37:22.964,-0.495,-0.18
2021-08-19 10:37:22.968,-0.5,-0.21
2021-08-19 10:37:22.972,-0.515,-0.185
2021-08-19 10:37:22.976,-0.525,-0.2
2021-08-19 10:37:22.980,-0.505,-0.195
2021-08-19 10:37:22.984,-0.51,-0.19
2021-08-19 10:37:22.988,-0.505,-0.185
2021-08-19 10:37:22.992,-0.525,-0.2
2021-08-19 10:37:22.996,-0.515,-0.185
2021-08-19 10:37:23.000,-0.525,-0.2
2021-08-19 10:37:23.004,-0.545,-0.21
2021-08-19 10:37:23.008,-0.585,-0.2
2021-08-19 10:37:23.012,-0.6,-0.225
2021-08-19 10:37:23.016,-0.61,-0.215
2021-08-19 10:37:23.020,-0.61,-0.225
2021-08-19 10:37:23.024,-0.615,-0.195
2021-08-19 10:37:23.028,-0.64,-0.205
2021-08-19 10:37:23.032,-0.655,-0.21
2021-08-19 10:37:23.036,-0.665,-0.245
2021-08-19 10:37:23.040,-0.65,-0.24
2021-08-19 10:37:23.044,-0.68,-0.24
2021-08-19 10:37:23.048,-0.715,-0.24
2021-08-19 10:37:23.052,-0.755,-0.26
2021-08-19 10:37:23.056,-0.77,-0.285
2021-08-19 10:37:23.060,-0.8,-0.28
2021-08-19 10:37:23.064,-0.81,-0.29
2021-08-19 10:37:23.068,-0.83,-0.29
2021-08-19 10:37:23.072,-0.855,-0.305
2021-08-19 10:37:23.076,-0.87,-0.32
2021-08-19 10:37:23.080,-0.88,-0.34
2021-08-19 10:37:23.084,-0.88,-0.33
2021-08-19 10:37:23.088,-0.9,-0.32
2021-08-19 10:37:23.092,-0.885,-0.345
2021-08-19 10:37:23.096,-0.915,-0.33
2021-08-19 10:37:23.100,-0.96,-0.365
2021-08-19 10:37:23.104,-0.99,-0.335
2021-08-19 10:37:23.108,-1.0,-0.35
2021-08-19 10:37:23.112,-1.025,-0.38
2021-08-19 10:37:23.116,-1.025,-0.38
2021-08-19 10:37:23.120,-1.02,-0.4
2021-08-19 10:37:23.124,-0.98,-0.375
2021-08-19 10:37:23.128,-0.955,-0.405
2021-08-19 10:37:23.132,-0.96,-0.37
2021-08-19 10:37:23.136,-0.965,-0.395
2021-08-19 10:37:23.140,-0.985,-0.44
2021-08-19 10:37:23.144,-0.98,-0.44
2021-08-19 10:37:23.148,-0.975,-0.415
2021-08-19 10:37:23.152,-0.955,-0.405
2021-08-19 10:37:23.156,-0.925,-0.365
2021-08-19 10:37:23.160,-0.9,-0.38
2021-08-19 10:37:23.164,-0.885,-0.365
2021-08-19 10:37:23.168,-0.875,-0.385
2021-08-19 10:37:23.172,-0.845,-0.375
2021-08-19 10:37:23.176,-0.76,-0.365
2021-08-19 10:37:23.180,-0.73,-0.32
2021-08-19 10:37:23.184,-0.69,-0.305
2021-08-19 10:37:23.188,-0.675,-0.285
2021-08-19 10:37:23.192,-0.63,-0.265
2021-08-19 10:37:23.196,-0.63,-0.275
2021-08-19 10:37:23.200,-0.625,-0.21
2021-08-19 10:37:23.204,-0.59,-0.18
2021-08-19 10:37:23.208,-0.56,-0.155
2021-08-19 10:37:23.212,-0.505,-0.16
2021-08-19 10:37:23.216,-0.465,-0.145
2021-08-19 10:37:23.220,-0.41,-0.105
2021-08-19 10:37:23.224,-0.38,-0.115
2021-08-19 10:37:23.228,-0.375,-0.105
2021-08-19 10:37:23.232,-0.38,-0.1
2021-08-19 10:37:23.236,-0.39,-0.085
2021-08-19 10:37:23.240,-0.375,-0.1
2021-08-19 10:37:23.244,-0.33,-0.085
2021-08-19 10:37:23.248,-0.32,-0.08
2021-08-19 10:37:23.252,-0.31,-0.08
2021-08-19 10:37:23.256,-0.275,-0.085
2021-08-19 10:37:23.260,-0.265,-0.105
2021-08-19 10:37:23.264,-0.245,-0.125
2021-08-19 10:37:23.268,-0.245,-0.12
2021-08-19 10:37:23.272,-0.21,-0.11
2021-08-19 10:37:23.276,-0.2,-0.105
2021-08-19 10:37:23.280,-0.22,-0.16
2021-08-19 10:37:23.284,-0.22,-0.155
2021-08-19 10:37:23.288,-0.24,-0.18
2021-08-19 10:37:23.292,-0.255,-0.195
2021-08-19 10:37:23.296,-0.22,-0.195
2021-08-19 10:37:23.300,-0.205,-0.205
2021-08-19 10:37:23.304,-0.2,-0.22
2021-08-19 10:37:23.308,-0.185,-0.21
2021-08-19 10:37:23.312,-0.2,-0.21
2021-08-19 10:37:23.316,-0.17,-0.215
2021-08-19 10:37:23.320,-0.195,-0.22
2021-08-19 10:37:23.324,-0.21,-0.21
2021-08-19 10:37:23.328,-0.225,-0.23
2021-08-19 10:37:23.332,-0.245,-0.225
2021-08-19 10:37:23.336,-0.24,-0.195
2021-08-19 10:37:23.340,-0.235,-0.195
2021-08-19 10:37:23.344,-0.205,-0.2
2021-08-19 10:37:23.348,-0.225,-0.23
2021-08-19 10:37:23.352,-0.19,-0.225
2021-08-19 10:37:23.356,-0.175,-0.22
2021-08-19 10:37:23.360,-0.195,-0.22
2021-08-19 10:37:23.364,-0.23,-0.21
2021-08-19 10:37:23.368,-0.215,-0.22
2021-08-19 10:37:23.372,-0.215,-0.225
2021-08-19 10:37:23.376,-0.195,-0.215
2021-08-19 10:37:23.380,-0.175,-0.21
2021-08-19 10:37:23.384,-0.195,-0.18
2021-08-19 10:37:23.388,-0.205,-0.17
2021-08-19 10:37:23.392,-0.21,-0.185
2021-08-19 10:37:23.396,-0.215,-0.22
2021-08-19 10:37:23.400,-0.19,-0.23
2021-08-19 10:37:23.404,-0.175,-0.24
2021-08-19 10:37:23.408,-0.16,-0.215
2021-08-19 10:37:23.412,-0.145,-0.21
2021-08-19 10:37:23.416,-0.16,-0.225
2021-08-19 10:37:23.420,-0.19,-0.21
2021-08-19 10:37:23.424,-0.215,-0.22
2021-08-19 10:37:23.428,-0.2,-0.24
2021-08-19 10:37:23.432,-0.215,-0.25
2021-08-19 10:37:23.436,-0.205,-0.235
2021-08-19 10:37:23.440,-0.205,-0.22
2021-08-19 10:37:23.444,-0.205,-0.23
2021-08-19 10:37:23.448,-0.17,-0.225
2021-08-19 10:37:23.452,-0.165,-0.25
2021-08-19 10:37:23.456,-0.175,-0.21
2021-08-19 10:37:23.460,-0.17,-0.23
2021-08-19 10:37:23.464,-0.165,-0.215
2021-08-19 10:37:23.468,-0.185,-0.215
2021-08-19 10:37:23.472,-0.185,-0.245
2021-08-19 10:37:23.476,-0.2,-0.245
2021-08-19 10:37:23.480,-0.2,-0.24
2021-08-19 10:37:23.484,-0.2,-0.23
2021-08-19 10:37:23.488,-0.17,-0.225
2021-08-19 10:37:23.492,-0.18,-0.23
2021-08-19 10:37:23.496,-0.155,-0.225
2021-08-19 10:37:23.500,-0.16,-0.22
2021-08-19 10:37:23.504,-0.175,-0.23
2021-08-19 10:37:23.508,-0.17,-0.225
2021-08-19 10:37:23.512,-0.15,-0.22
2021-08-19 10:37:23.516,-0.2,-0.225
2021-08-19 10:37:23.520,-0.205,-0.235
2021-08-19 10:37:23.524,-0.23,-0.245
2021-08-19 10:37:23.528,-0.2,-0.245
2021-08-19 10:37:23.532,-0.2,-0.22
2021-08-19 10:37:23.536,-0.2,-0.24
2021-08-19 10:37:23.540,-0.17,-0.25
2021-08-19 10:37:23.544,-0.155,-0.235
2021-08-19 10:37:23.548,-0.14,-0.225
2021-08-19 10:37:23.552,-0.155,-0.24
2021-08-19 10:37:23.556,-0.145,-0.25
2021-08-19 10:37:23.560,-0.125,-0.25
2021-08-19 10:37:23.564,-0.085,-0.215
2021-08-19 10:37:23.568,-0.1,-0.225
2021-08-19 10:37:23.572,-0.115,-0.225
2021-08-19 10:37:23.576,-0.08,-0.215
2021-08-19 10:37:23.580,-0.08,-0.155
2021-08-19 10:37:23.584,-0.04,-0.145
2021-08-19 10:37:23.588,0.045,-0.125
2021-08-19 10:37:23.592,0.065,-0.135
2021-08-19 10:37:23.596,0.03,-0.145
2021-08-19 10:37:23.600,0.01,-0.15
2021-08-19 10:37:23.604,0.0,-0.16
2021-08-19 10:37:23.608,0.0,-0.17
2021-08-19 10:37:23.612,-0.01,-0.205
2021-08-19 10:37:23.616,-0.05,-0.255
2021-08-19 10:37:23.620,-0.09,-0.27
2021-08-19 10:37:23.624,-0.1,-0.305
2021-08-19 10:37:23.628,-0.13,-0.31
2021-08-19 10:37:23.632,-0.125,-0.3
2021-08-19 10:37:23.636,-0.14,-0.29
2021-08-19 10:37:23.640,-0.145,-0.24
2021-08-19 10:37:23.644,-0.15,-0.24
2021-08-19 10:37:23.648,-0.16,-0.26
2021-08-19 10:37:23.652,-0.21,-0.265
2021-08-19 10:37:23.656,-0.225,-0.265
2021-08-19 10:37:23.660,-0.22,-0.275
2021-08-19 10:37:23.664,-0.255,-0.265
2021-08-19 10:37:23.668,-0.23,-0.295
2021-08-19 10:37:23.672,-0.2,-0.3
2021-08-19 10:37:23.676,-0.11,-0.305
2021-08-19 10:37:23.680,-0.005,-0.26
2021-08-19 10:37:23.684,0.115,-0.185
2021-08-19 10:37:23.688,0.375,-0.125
2021-08-19 10:37:23.692,0.725,-0.095
2021-08-19 10:37:23.696,0.975,-0.145
2021-08-19 10:37:23.700,1.14,-0.2
2021-08-19 10:37:23.704,1.165,-0.335
2021-08-19 10:37:23.708,0.915,-0.54
2021-08-19 10:37:23.712,0.13,-0.82
2021-08-19 10:37:23.716,-0.775,-1.145
2021-08-19 10:37:23.720,-1.37,-1.44
2021-08-19 10:37:23.724,-1.57,-1.695
2021-08-19 10:37:23.728,-1.505,-1.93
2021-08-19 10:37:23.736,-1.16,-1.98
2021-08-19 10:37:23.740,-0.89,-1.76
2021-08-19 10:37:23.744,-0.69,-1.495
2021-08-19 10:37:23.748,-0.53,-1.245
2021-08-19 10:37:23.752,-0.45,-1.065
2021-08-19 10:37:23.756,-0.405,-0.8
2021-08-19 10:37:23.760,-0.345,-0.585
2021-08-19 10:37:23.764,-0.335,-0.455
2021-08-19 10:37:23.768,-0.34,-0.375
2021-08-19 10:37:23.772,-0.285,-0.335
2021-08-19 10:37:23.776,-0.27,-0.3
2021-08-19 10:37:23.780,-0.305,-0.3
2021-08-19 10:37:23.784,-0.3,-0.34
2021-08-19 10:37:23.788,-0.31,-0.325
2021-08-19 10:37:23.792,-0.375,-0.3
2021-08-19 10:37:23.796,-0.405,-0.285
2021-08-19 10:37:23.800,-0.385,-0.25
2021-08-19 10:37:23.804,-0.345,-0.27
2021-08-19 10:37:23.808,-0.34,-0.27
2021-08-19 10:37:23.812,-0.34,-0.275
2021-08-19 10:37:23.816,-0.355,-0.28
2021-08-19 10:37:23.820,-0.35,-0.27
2021-08-19 10:37:23.824,-0.365,-0.28
2021-08-19 10:37:23.828,-0.35,-0.31
2021-08-19 10:37:23.832,-0.365,-0.29
2021-08-19 10:37:23.836,-0.38,-0.275
2021-08-19 10:37:23.840,-0.385,-0.24
2021-08-19 10:37:23.844,-0.405,-0.26
2021-08-19 10:37:23.848,-0.435,-0.285
2021-08-19 10:37:23.852,-0.495,-0.28
2021-08-19 10:37:23.856,-0.475,-0.3
2021-08-19 10:37:23.860,-0.475,-0.29
2021-08-19 10:37:23.864,-0.44,-0.275
2021-08-19 10:37:23.868,-0.455,-0.29
2021-08-19 10:37:23.872,-0.5,-0.275
2021-08-19 10:37:23.876,-0.535,-0.275
2021-08-19 10:37:23.880,-0.555,-0.3
2021-08-19 10:37:23.884,-0.58,-0.325
2021-08-19 10:37:23.888,-0.62,-0.315
2021-08-19 10:37:23.892,-0.645,-0.32
2021-08-19 10:37:23.896,-0.665,-0.365
2021-08-19 10:37:23.900,-0.685,-0.39
2021-08-19 10:37:23.904,-0.695,-0.41
2021-08-19 10:37:23.908,-0.71,-0.405
2021-08-19 10:37:23.912,-0.7,-0.405
2021-08-19 10:37:23.916,-0.725,-0.405
2021-08-19 10:37:23.920,-0.755,-0.41
2021-08-19 10:37:23.924,-0.795,-0.4
2021-08-19 10:37:23.928,-0.83,-0.435
2021-08-19 10:37:23.932,-0.86,-0.44
2021-08-19 10:37:23.936,-0.865,-0.46
2021-08-19 10:37:23.940,-0.85,-0.47
2021-08-19 10:37:23.944,-0.89,-0.44
2021-08-19 10:37:23.948,-0.94,-0.46
2021-08-19 10:37:23.952,-0.955,-0.48
2021-08-19 10:37:23.956,-0.97,-0.505
2021-08-19 10:37:23.960,-0.935,-0.51
2021-08-19 10:37:23.964,-0.96,-0.505
2021-08-19 10:37:23.968,-1.005,-0.54
2021-08-19 10:37:23.972,-0.985,-0.54
2021-08-19 10:37:23.976,-1.03,-0.535
2021-08-19 10:37:23.980,-1.05,-0.53
2021-08-19 10:37:23.984,-1.08,-0.535
2021-08-19 10:37:23.988,-1.07,-0.57
2021-08-19 10:37:23.992,-1.025,-0.565
2021-08-19 10:37:23.996,-0.985,-0.55
2021-08-19 10:37:24.000,-0.995,-0.58
2021-08-19 10:37:24.004,-0.96,-0.57
2021-08-19 10:37:24.008,-0.925,-0.585
2021-08-19 10:37:24.012,-0.86,-0.55
2021-08-19 10:37:24.016,-0.865,-0.525
2021-08-19 10:37:24.020,-0.85,-0.54
2021-08-19 10:37:24.024,-0.83,-0.53
2021-08-19 10:37:24.028,-0.795,-0.515
2021-08-19 10:37:24.032,-0.76,-0.505
2021-08-19 10:37:24.036,-0.69,-0.445
2021-08-19 10:37:24.040,-0.66,-0.405
2021-08-19 10:37:24.044,-0.63,-0.385
2021-08-19 10:37:24.048,-0.565,-0.365
2021-08-19 10:37:24.052,-0.52,-0.335
2021-08-19 10:37:24.056,-0.485,-0.3
2021-08-19 10:37:24.060,-0.42,-0.29
2021-08-19 10:37:24.064,-0.385,-0.265
2021-08-19 10:37:24.068,-0.375,-0.245
2021-08-19 10:37:24.072,-0.355,-0.205
2021-08-19 10:37:24.076,-0.315,-0.205
2021-08-19 10:37:24.080,-0.28,-0.17
2021-08-19 10:37:24.084,-0.27,-0.205
2021-08-19 10:37:24.088,-0.23,-0.18
2021-08-19 10:37:24.092,-0.18,-0.12
2021-08-19 10:37:24.096,-0.165,-0.17
2021-08-19 10:37:24.100,-0.165,-0.175
2021-08-19 10:37:24.104,-0.145,-0.135
2021-08-19 10:37:24.108,-0.165,-0.125
2021-08-19 10:37:24.112,-0.15,-0.135
2021-08-19 10:37:24.116,-0.16,-0.135
2021-08-19 10:37:24.120,-0.135,-0.145
2021-08-19 10:37:24.124,-0.16,-0.13
2021-08-19 10:37:24.128,-0.165,-0.115
2021-08-19 10:37:24.132,-0.115,-0.14
2021-08-19 10:37:24.136,-0.12,-0.135
2021-08-19 10:37:24.140,-0.135,-0.13
2021-08-19 10:37:24.144,-0.11,-0.14
2021-08-19 10:37:24.148,-0.09,-0.15
2021-08-19 10:37:24.152,-0.105,-0.16
2021-08-19 10:37:24.156,-0.12,-0.16
2021-08-19 10:37:24.160,-0.17,-0.18
2021-08-19 10:37:24.164,-0.17,-0.16
2021-08-19 10:37:24.168,-0.14,-0.13
2021-08-19 10:37:24.172,-0.16,-0.16
2021-08-19 10:37:24.176,-0.155,-0.155
2021-08-19 10:37:24.180,-0.165,-0.17
2021-08-19 10:37:24.184,-0.155,-0.16
2021-08-19 10:37:24.188,-0.095,-0.19
2021-08-19 10:37:24.192,-0.105,-0.16
2021-08-19 10:37:24.196,-0.08,-0.195
2021-08-19 10:37:24.200,-0.1,-0.165
2021-08-19 10:37:24.204,-0.12,-0.18
2021-08-19 10:37:24.208,-0.13,-0.19
2021-08-19 10:37:24.212,-0.12,-0.18
2021-08-19 10:37:24.216,-0.14,-0.205
2021-08-19 10:37:24.220,-0.14,-0.175
2021-08-19 10:37:24.224,-0.125,-0.195
2021-08-19 10:37:24.228,-0.105,-0.2
2021-08-19 10:37:24.232,-0.12,-0.22
2021-08-19 10:37:24.236,-0.11,-0.215
2021-08-19 10:37:24.240,-0.1,-0.205
2021-08-19 10:37:24.244,-0.115,-0.2
2021-08-19 10:37:24.248,-0.105,-0.17
2021-08-19 10:37:24.252,-0.14,-0.18
2021-08-19 10:37:24.256,-0.145,-0.2
2021-08-19 10:37:24.260,-0.14,-0.205
2021-08-19 10:37:24.264,-0.13,-0.215
2021-08-19 10:37:24.268,-0.135,-0.215
2021-08-19 10:37:24.272,-0.12,-0.205
2021-08-19 10:37:24.276,-0.11,-0.225
2021-08-19 10:37:24.280,-0.095,-0.195
2021-08-19 10:37:24.284,-0.105,-0.18
2021-08-19 10:37:24.288,-0.115,-0.18
2021-08-19 10:37:24.292,-0.16,-0.185
2021-08-19 10:37:24.296,-0.155,-0.205
2021-08-19 10:37:24.300,-0.155,-0.185
2021-08-19 10:37:24.304,-0.15,-0.17
2021-08-19 10:37:24.308,-0.16,-0.16
2021-08-19 10:37:24.312,-0.125,-0.19
2021-08-19 10:37:24.316,-0.13,-0.16
2021-08-19 10:37:24.320,-0.12,-0.155
2021-08-19 10:37:24.324,-0.105,-0.145
2021-08-19 10:37:24.328,-0.125,-0.145
2021-08-19 10:37:24.332,-0.115,-0.145
2021-08-19 10:37:24.336,-0.105,-0.16
2021-08-19 10:37:24.340,-0.11,-0.185
2021-08-19 10:37:24.344,-0.13,-0.185
2021-08-19 10:37:24.348,-0.135,-0.17
2021-08-19 10:37:24.352,-0.135,-0.16
2021-08-19 10:37:24.356,-0.145,-0.19
2021-08-19 10:37:24.360,-0.135,-0.19
2021-08-19 10:37:24.364,-0.12,-0.18
2021-08-19 10:37:24.368,-0.1,-0.19
2021-08-19 10:37:24.372,-0.11,-0.17
2021-08-19 10:37:24.376,-0.1,-0.15
2021-08-19 10:37:24.380,-0.09,-0.155
2021-08-19 10:37:24.384,-0.12,-0.135
2021-08-19 10:37:24.388,-0.135,-0.15
2021-08-19 10:37:24.392,-0.135,-0.135
2021-08-19 10:37:24.396,-0.13,-0.12
2021-08-19 10:37:24.400,-0.105,-0.12
2021-08-19 10:37:24.404,-0.075,-0.15
2021-08-19 10:37:24.408,-0.045,-0.125
2021-08-19 10:37:24.412,-0.015,-0.155
2021-08-19 10:37:24.416,0.04,-0.12
2021-08-19 10:37:24.420,0.05,-0.08
2021-08-19 10:37:24.424,0.05,-0.065
2021-08-19 10:37:24.428,0.075,-0.035
2021-08-19 10:37:24.432,0.06,-0.03
2021-08-19 10:37:24.436,0.07,-0.055
2021-08-19 10:37:24.440,0.04,-0.055
2021-08-19 10:37:24.444,0.025,-0.06
2021-08-19 10:37:24.448,-0.005,-0.115
2021-08-19 10:37:24.452,0.0,-0.12
2021-08-19 10:37:24.456,0.02,-0.13
2021-08-19 10:37:24.460,0.005,-0.205
2021-08-19 10:37:24.464,-0.01,-0.21
2021-08-19 10:37:24.468,-0.04,-0.225
2021-08-19 10:37:24.472,-0.08,-0.205
2021-08-19 10:37:24.476,-0.11,-0.205
2021-08-19 10:37:24.480,-0.16,-0.16
2021-08-19 10:37:24.484,-0.18,-0.135
2021-08-19 10:37:24.488,-0.165,-0.145
2021-08-19 10:37:24.492,-0.175,-0.16
2021-08-19 10:37:24.496,-0.195,-0.175
2021-08-19 10:37:24.500,-0.18,-0.175
2021-08-19 10:37:24.504,-0.16,-0.19
2021-08-19 10:37:24.508,-0.155,-0.17
2021-08-19 10:37:24.512,-0.145,-0.175
2021-08-19 10:37:24.516,-0.095,-0.16
2021-08-19 10:37:24.520,-0.035,-0.145
2021-08-19 10:37:24.524,0.045,-0.115
2021-08-19 10:37:24.528,0.295,-0.025
2021-08-19 10:37:24.532,0.6,-0.015
2021-08-19 10:37:24.536,0.875,-0.02
2021-08-19 10:37:24.540,1.03,-0.055
2021-08-19 10:37:24.544,1.11,-0.22
2021-08-19 10:37:24.548,0.905,-0.525
2021-08-19 10:37:24.552,0.205,-0.81
2021-08-19 10:37:24.556,-0.68,-1.165
2021-08-19 10:37:24.560,-1.31,-1.475
2021-08-19 10:37:24.564,-1.555,-1.715
2021-08-19 10:37:24.568,-1.54,-1.97
2021-08-19 10:37:24.580,-0.99,-1.83
2021-08-19 10:37:24.584,-0.725,-1.525
2021-08-19 10:37:24.588,-0.51,-1.275
2021-08-19 10:37:24.592,-0.425,-1.0
2021-08-19 10:37:24.596,-0.33,-0.73
2021-08-19 10:37:24.600,-0.285,-0.495
2021-08-19 10:37:24.604,-0.285,-0.35
2021-08-19 10:37:24.608,-0.285,-0.26
2021-08-19 10:37:24.612,-0.315,-0.215
2021-08-19 10:37:24.616,-0.31,-0.185
2021-08-19 10:37:24.620,-0.33,-0.16
2021-08-19 10:37:24.624,-0.32,-0.135
2021-08-19 10:37:24.628,-0.285,-0.13
2021-08-19 10:37:24.632,-0.32,-0.13
2021-08-19 10:37:24.636,-0.3,-0.12
2021-08-19 10:37:24.640,-0.3,-0.11
2021-08-19 10:37:24.644,-0.295,-0.11
2021-08-19 10:37:24.648,-0.3,-0.1
2021-08-19 10:37:24.652,-0.315,-0.105
2021-08-19 10:37:24.656,-0.345,-0.105
2021-08-19 10:37:24.660,-0.345,-0.135
2021-08-19 10:37:24.664,-0.35,-0.13
2021-08-19 10:37:24.668,-0.365,-0.135
2021-08-19 10:37:24.672,-0.36,-0.125
2021-08-19 10:37:24.676,-0.375,-0.135
2021-08-19 10:37:24.680,-0.4,-0.125
2021-08-19 10:37:24.684,-0.37,-0.135
2021-08-19 10:37:24.688,-0.38,-0.14
2021-08-19 10:37:24.692,-0.38,-0.125
2021-08-19 10:37:24.696,-0.39,-0.125
2021-08-19 10:37:24.700,-0.4,-0.11
2021-08-19 10:37:24.704,-0.425,-0.13
2021-08-19 10:37:24.708,-0.47,-0.13
2021-08-19 10:37:24.712,-0.485,-0.11
2021-08-19 10:37:24.716,-0.535,-0.11
2021-08-19 10:37:24.720,-0.55,-0.12
2021-08-19 10:37:24.724,-0.575,-0.13
2021-08-19 10:37:24.728,-0.575,-0.16
2021-08-19 10:37:24.732,-0.58,-0.145
2021-08-19 10:37:24.736,-0.61,-0.16
2021-08-19 10:37:24.740,-0.64,-0.175
2021-08-19 10:37:24.744,-0.66,-0.19
2021-08-19 10:37:24.748,-0.705,-0.21
2021-08-19 10:37:24.752,-0.74,-0.22
2021-08-19 10:37:24.756,-0.78,-0.215
2021-08-19 10:37:24.760,-0.795,-0.205
2021-08-19 10:37:24.764,-0.85,-0.215
2021-08-19 10:37:24.768,-0.86,-0.26
2021-08-19 10:37:24.772,-0.885,-0.275
2021-08-19 10:37:24.776,-0.91,-0.3
2021-08-19 10:37:24.780,-0.9,-0.28
2021-08-19 10:37:24.784,-0.935,-0.305
2021-08-19 10:37:24.788,-0.97,-0.34
2021-08-19 10:37:24.792,-0.985,-0.335
2021-08-19 10:37:24.796,-1.015,-0.36
2021-08-19 10:37:24.800,-1.035,-0.395
2021-08-19 10:37:24.804,-1.07,-0.39
2021-08-19 10:37:24.808,-1.065,-0.415
2021-08-19 10:37:24.812,-1.085,-0.41
2021-08-19 10:37:24.816,-1.09,-0.425
2021-08-19 10:37:24.820,-1.07,-0.43
2021-08-19 10:37:24.824,-1.035,-0.445
2021-08-19 10:37:24.828,-1.02,-0.48
2021-08-19 10:37:24.832,-0.96,-0.465
2021-08-19 10:37:24.836,-0.905,-0.465
2021-08-19 10:37:24.840,-0.915,-0.465
2021-08-19 10:37:24.844,-0.9,-0.455
2021-08-19 10:37:24.848,-0.87,-0.39
2021-08-19 10:37:24.852,-0.83,-0.35
2021-08-19 10:37:24.856,-0.745,-0.335
2021-08-19 10:37:24.860,-0.695,-0.365
2021-08-19 10:37:24.864,-0.64,-0.32
2021-08-19 10:37:24.868,-0.585,-0.295
2021-08-19 10:37:24.872,-0.52,-0.245
2021-08-19 10:37:24.876,-0.475,-0.22
2021-08-19 10:37:24.880,-0.44,-0.235
2021-08-19 10:37:24.884,-0.415,-0.18
2021-08-19 10:37:24.888,-0.415,-0.12
2021-08-19 10:37:24.892,-0.4,-0.08
2021-08-19 10:37:24.896,-0.375,-0.08
2021-08-19 10:37:24.900,-0.365,-0.085
2021-08-19 10:37:24.904,-0.345,-0.115
2021-08-19 10:37:24.908,-0.32,-0.12
2021-08-19 10:37:24.912,-0.32,-0.1
2021-08-19 10:37:24.916,-0.305,-0.085
2021-08-19 10:37:24.920,-0.27,-0.1
2021-08-19 10:37:24.924,-0.255,-0.115
2021-08-19 10:37:24.928,-0.285,-0.125
2021-08-19 10:37:24.932,-0.26,-0.12
2021-08-19 10:37:24.936,-0.255,-0.12
2021-08-19 10:37:24.940,-0.25,-0.13
2021-08-19 10:37:24.944,-0.255,-0.13
2021-08-19 10:37:24.948,-0.255,-0.12
2021-08-19 10:37:24.952,-0.22,-0.125
2021-08-19 10:37:24.956,-0.22,-0.135
2021-08-19 10:37:24.960,-0.22,-0.13
2021-08-19 10:37:24.964,-0.205,-0.12
2021-08-19 10:37:24.968,-0.22,-0.14
2021-08-19 10:37:24.972,-0.2,-0.16
2021-08-19 10:37:24.976,-0.195,-0.135
2021-08-19 10:37:24.980,-0.24,-0.15
2021-08-19 10:37:24.984,-0.24,-0.12
2021-08-19 10:37:24.988,-0.25,-0.145
2021-08-19 10:37:24.992,-0.255,-0.16
2021-08-19 10:37:24.996,-0.255,-0.13
2021-08-19 10:37:25.000,-0.235,-0.155
2021-08-19 10:37:25.004,-0.225,-0.15
2021-08-19 10:37:25.008,-0.215,-0.135
2021-08-19 10:37:25.012,-0.205,-0.125
2021-08-19 10:37:25.016,-0.195,-0.125
2021-08-19 10:37:25.020,-0.195,-0.08
2021-08-19 10:37:25.024,-0.185,-0.055
2021-08-19 10:37:25.028,-0.07,-0.01
2021-08-19 10:37:25.032,0.18,-0.02
2021-08-19 10:37:25.036,0.51,-0.13
2021-08-19 10:37:25.040,0.745,-0.205
2021-08-19 10:37:25.044,0.915,-0.34
2021-08-19 10:37:25.048,0.88,-0.55
2021-08-19 10:37:25.052,0.335,-0.835
2021-08-19 10:37:25.056,-0.595,-1.145
2021-08-19 10:37:25.060,-1.435,-1.515
2021-08-19 10:37:25.064,-1.865,-1.88
2021-08-19 10:37:25.084,-0.675,-1.78
2021-08-19 10:37:25.088,-0.495,-1.365
2021-08-19 10:37:25.092,-0.415,-1.005
2021-08-19 10:37:25.096,-0.335,-0.69
2021-08-19 10:37:25.100,-0.29,-0.475
2021-08-19 10:37:25.104,-0.265,-0.31
2021-08-19 10:37:25.108,-0.275,-0.215
2021-08-19 10:37:25.112,-0.28,-0.195
2021-08-19 10:37:25.116,-0.275,-0.16
2021-08-19 10:37:25.120,-0.29,-0.16
2021-08-19 10:37:25.124,-0.315,-0.15
2021-08-19 10:37:25.128,-0.31,-0.12
2021-08-19 10:37:25.132,-0.32,-0.1
2021-08-19 10:37:25.136,-0.31,-0.125
2021-08-19 10:37:25.140,-0.31,-0.125
2021-08-19 10:37:25.144,-0.29,-0.1
2021-08-19 10:37:25.148,-0.29,-0.06
2021-08-19 10:37:25.152,-0.26,-0.09
2021-08-19 10:37:25.156,-0.28,-0.09
2021-08-19 10:37:25.160,-0.29,-0.08
2021-08-19 10:37:25.164,-0.3,-0.09
2021-08-19 10:37:25.168,-0.31,-0.085
2021-08-19 10:37:25.172,-0.345,-0.075
2021-08-19 10:37:25.176,-0.345,-0.06
2021-08-19 10:37:25.180,-0.36,-0.065
2021-08-19 10:37:25.184,-0.35,-0.08
2021-08-19 10:37:25.188,-0.36,-0.07
2021-08-19 10:37:25.192,-0.355,-0.065
2021-08-19 10:37:25.196,-0.36,-0.05
2021-08-19 10:37:25.200,-0.38,-0.065
2021-08-19 10:37:25.204,-0.4,-0.075
2021-08-19 10:37:25.208,-0.41,-0.08
2021-08-19 10:37:25.212,-0.42,-0.075
2021-08-19 10:37:25.216,-0.465,-0.065
2021-08-19 10:37:25.220,-0.475,-0.05
2021-08-19 10:37:25.224,-0.5,-0.045
2021-08-19 10:37:25.228,-0.525,-0.09
2021-08-19 10:37:25.232,-0.545,-0.095
2021-08-19 10:37:25.236,-0.535,-0.065
2021-08-19 10:37:25.240,-0.54,-0.04
2021-08-19 10:37:25.244,-0.575,-0.07
2021-08-19 10:37:25.248,-0.6,-0.085
2021-08-19 10:37:25.252,-0.615,-0.095
2021-08-19 10:37:25.256,-0.65,-0.105
2021-08-19 10:37:25.260,-0.675,-0.12
2021-08-19 10:37:25.264,-0.705,-0.095
2021-08-19 10:37:25.268,-0.725,-0.12
2021-08-19 10:37:25.272,-0.755,-0.1
2021-08-19 10:37:25.276,-0.775,-0.105
2021-08-19 10:37:25.280,-0.78,-0.135
2021-08-19 10:37:25.284,-0.77,-0.125
2021-08-19 10:37:25.288,-0.78,-0.125
2021-08-19 10:37:25.292,-0.77,-0.14
2021-08-19 10:37:25.296,-0.76,-0.145
2021-08-19 10:37:25.300,-0.775,-0.145
2021-08-19 10:37:25.304,-0.785,-0.15
2021-08-19 10:37:25.308,-0.76,-0.145
2021-08-19 10:37:25.312,-0.72,-0.16
2021-08-19 10:37:25.316,-0.71,-0.155
2021-08-19 10:37:25.320,-0.635,-0.145
2021-08-19 10:37:25.324,-0.58,-0.13
2021-08-19 10:37:25.328,-0.53,-0.13
2021-08-19 10:37:25.332,-0.45,-0.09
2021-08-19 10:37:25.336,-0.405,-0.1
2021-08-19 10:37:25.340,-0.335,-0.06
2021-08-19 10:37:25.344,-0.3,-0.055
2021-08-19 10:37:25.348,-0.26,-0.045
2021-08-19 10:37:25.352,-0.245,0.005
2021-08-19 10:37:25.356,-0.23,0.0
2021-08-19 10:37:25.360,-0.18,0.005
2021-08-19 10:37:25.364,-0.155,0.04
2021-08-19 10:37:25.368,-0.14,0.065
2021-08-19 10:37:25.372,-0.115,0.085
2021-08-19 10:37:25.376,-0.095,0.115
2021-08-19 10:37:25.380,-0.085,0.11
2021-08-19 10:37:25.384,-0.07,0.115
2021-08-19 10:37:25.388,-0.055,0.115
2021-08-19 10:37:25.392,-0.085,0.12
2021-08-19 10:37:25.396,-0.1,0.115
2021-08-19 10:37:25.400,-0.11,0.115
2021-08-19 10:37:25.404,-0.14,0.13
2021-08-19 10:37:25.408,-0.13,0.115
2021-08-19 10:37:25.412,-0.12,0.08
2021-08-19 10:37:25.416,-0.12,0.085
2021-08-19 10:37:25.420,-0.1,0.09
2021-08-19 10:37:25.424,-0.12,0.11
2021-08-19 10:37:25.428,-0.125,0.12
2021-08-19 10:37:25.432,-0.135,0.1
2021-08-19 10:37:25.436,-0.125,0.075
2021-08-19 10:37:25.440,-0.135,0.07
2021-08-19 10:37:25.444,-0.14,0.07
2021-08-19 10:37:25.448,-0.175,0.065
2021-08-19 10:37:25.452,-0.16,0.07
2021-08-19 10:37:25.456,-0.16,0.045
2021-08-19 10:37:25.460,-0.175,0.065
2021-08-19 10:37:25.464,-0.185,0.055
2021-08-19 10:37:25.468,-0.16,0.07
2021-08-19 10:37:25.472,-0.155,0.06
2021-08-19 10:37:25.476,-0.145,0.07
2021-08-19 10:37:25.480,-0.13,0.055
2021-08-19 10:37:25.484,-0.135,0.055
2021-08-19 10:37:25.488,-0.16,0.06
2021-08-19 10:37:25.492,-0.17,0.08
2021-08-19 10:37:25.496,-0.17,0.05
2021-08-19 10:37:25.500,-0.14,0.065
2021-08-19 10:37:25.504,-0.065,0.055
2021-08-19 10:37:25.508,-0.02,0.06
2021-08-19 10:37:25.512,0.045,0.09
2021-08-19 10:37:25.516,0.11,0.08
2021-08-19 10:37:25.520,0.185,0.15
2021-08-19 10:37:25.524,0.225,0.205
2021-08-19 10:37:25.528,0.26,0.215
2021-08-19 10:37:25.532,0.25,0.245
2021-08-19 10:37:25.536,0.265,0.215
2021-08-19 10:37:25.540,0.215,0.21
2021-08-19 10:37:25.544,0.15,0.155
2021-08-19 10:37:25.548,0.095,0.12
2021-08-19 10:37:25.552,0.025,0.1
2021-08-19 10:37:25.556,-0.015,0.085
2021-08-19 10:37:25.560,-0.035,0.085
2021-08-19 10:37:25.564,-0.105,0.125
2021-08-19 10:37:25.568,-0.14,0.105
2021-08-19 10:37:25.572,-0.16,0.06
2021-08-19 10:37:25.576,-0.19,0.065
2021-08-19 10:37:25.580,-0.23,0.05
2021-08-19 10:37:25.584,-0.265,0.02
2021-08-19 10:37:25.588,-0.27,-0.035
2021-08-19 10:37:25.592,-0.26,-0.02
2021-08-19 10:37:25.596,-0.25,-0.055
2021-08-19 10:37:25.600,-0.24,-0.08
2021-08-19 10:37:25.604,-0.22,-0.085
2021-08-19 10:37:25.608,-0.15,-0.085
2021-08-19 10:37:25.612,-0.09,-0.03
2021-08-19 10:37:25.616,-0.03,0.04
2021-08-19 10:37:25.620,0.1,0.08
2021-08-19 10:37:25.624,0.325,0.045
2021-08-19 10:37:25.628,0.525,0.025
2021-08-19 10:37:25.632,0.645,-0.005
2021-08-19 10:37:25.636,0.735,-0.115
2021-08-19 10:37:25.640,0.735,-0.495
2021-08-19 10:37:25.644,0.41,-0.955
2021-08-19 10:37:25.648,-0.395,-1.33
2021-08-19 10:37:25.652,-1.235,-1.66
2021-08-19 10:37:25.656,-1.65,-1.94
2021-08-19 10:37:25.676,-0.675,-1.86
2021-08-19 10:37:25.680,-0.525,-1.405
2021-08-19 10:37:25.684,-0.41,-1.0
2021-08-19 10:37:25.688,-0.37,-0.655
2021-08-19 10:37:25.692,-0.335,-0.415
2021-08-19 10:37:25.696,-0.315,-0.275
2021-08-19 10:37:25.700,-0.315,-0.165
2021-08-19 10:37:25.704,-0.31,-0.08
2021-08-19 10:37:25.708,-0.295,-0.045
2021-08-19 10:37:25.712,-0.285,-0.055
2021-08-19 10:37:25.716,-0.315,-0.05
2021-08-19 10:37:25.720,-0.335,-0.03
2021-08-19 10:37:25.724,-0.33,-0.045
2021-08-19 10:37:25.728,-0.34,-0.02
2021-08-19 10:37:25.732,-0.34,-0.025
2021-08-19 10:37:25.736,-0.36,-0.02
2021-08-19 10:37:25.740,-0.36,-0.015
2021-08-19 10:37:25.744,-0.335,-0.02
2021-08-19 10:37:25.748,-0.33,-0.025
2021-08-19 10:37:25.752,-0.325,-0.015
2021-08-19 10:37:25.756,-0.36,0.005
2021-08-19 10:37:25.760,-0.36,0.0
2021-08-19 10:37:25.764,-0.375,-0.005
2021-08-19 10:37:25.768,-0.385,0.0
2021-08-19 10:37:25.772,-0.42,0.005
2021-08-19 10:37:25.776,-0.42,0.025
2021-08-19 10:37:25.780,-0.41,0.02
2021-08-19 10:37:25.784,-0.45,0.02
2021-08-19 10:37:25.788,-0.45,0.01
2021-08-19 10:37:25.792,-0.46,0.02
2021-08-19 10:37:25.796,-0.44,0.01
2021-08-19 10:37:25.800,-0.48,0.0
2021-08-19 10:37:25.804,-0.48,0.02
2021-08-19 10:37:25.808,-0.495,0.01
2021-08-19 10:37:25.812,-0.515,0.015
2021-08-19 10:37:25.816,-0.54,0.0
2021-08-19 10:37:25.820,-0.565,0.035
2021-08-19 10:37:25.824,-0.585,0.015
2021-08-19 10:37:25.828,-0.6,0.01
2021-08-19 10:37:25.832,-0.625,0.0
2021-08-19 10:37:25.836,-0.65,-0.015
2021-08-19 10:37:25.840,-0.665,0.0
2021-08-19 10:37:25.844,-0.665,0.0
2021-08-19 10:37:25.848,-0.69,-0.015
2021-08-19 10:37:25.852,-0.705,-0.06
2021-08-19 10:37:25.856,-0.755,-0.055
2021-08-19 10:37:25.860,-0.78,-0.07
2021-08-19 10:37:25.864,-0.825,-0.07
2021-08-19 10:37:25.868,-0.85,-0.095
2021-08-19 10:37:25.872,-0.855,-0.075
2021-08-19 10:37:25.876,-0.865,-0.09
2021-08-19 10:37:25.880,-0.91,-0.105
2021-08-19 10:37:25.884,-0.91,-0.145
2021-08-19 10:37:25.888,-0.91,-0.14
2021-08-19 10:37:25.892,-0.895,-0.145
2021-08-19 10:37:25.896,-0.925,-0.135
2021-08-19 10:37:25.900,-0.905,-0.15
2021-08-19 10:37:25.904,-0.875,-0.15
2021-08-19 10:37:25.908,-0.85,-0.13
2021-08-19 10:37:25.912,-0.8,-0.11
2021-08-19 10:37:25.916,-0.775,-0.11
2021-08-19 10:37:25.920,-0.745,-0.08
2021-08-19 10:37:25.924,-0.73,-0.025
2021-08-19 10:37:25.928,-0.63,-0.025
2021-08-19 10:37:25.932,-0.58,0.01
2021-08-19 10:37:25.936,-0.505,0.03
2021-08-19 10:37:25.940,-0.42,0.06
2021-08-19 10:37:25.944,-0.38,0.075
2021-08-19 10:37:25.948,-0.365,0.115
2021-08-19 10:37:25.952,-0.35,0.115
2021-08-19 10:37:25.956,-0.33,0.15
2021-08-19 10:37:25.960,-0.305,0.19
2021-08-19 10:37:25.964,-0.295,0.205
2021-08-19 10:37:25.968,-0.28,0.225
2021-08-19 10:37:25.972,-0.255,0.215
2021-08-19 10:37:25.976,-0.24,0.205
2021-08-19 10:37:25.980,-0.21,0.19
2021-08-19 10:37:25.984,-0.24,0.165
2021-08-19 10:37:25.988,-0.225,0.15
2021-08-19 10:37:25.992,-0.215,0.125
2021-08-19 10:37:25.996,-0.205,0.115
2021-08-19 10:37:26.000,-0.205,0.09
2021-08-19 10:37:26.004,-0.2,0.055
2021-08-19 10:37:26.008,-0.18,0.055
2021-08-19 10:37:26.012,-0.175,0.045
2021-08-19 10:37:26.016,-0.18,0.04
2021-08-19 10:37:26.020,-0.185,0.02
2021-08-19 10:37:26.024,-0.16,0.01
2021-08-19 10:37:26.028,-0.155,0.02
2021-08-19 10:37:26.032,-0.15,-0.005
2021-08-19 10:37:26.036,-0.14,0.0
2021-08-19 10:37:26.040,-0.15,0.01
2021-08-19 10:37:26.044,-0.175,0.0
2021-08-19 10:37:26.048,-0.175,-0.01
2021-08-19 10:37:26.052,-0.18,-0.03
2021-08-19 10:37:26.056,-0.19,-0.025
2021-08-19 10:37:26.060,-0.19,-0.03
2021-08-19 10:37:26.064,-0.17,-0.045
2021-08-19 10:37:26.068,-0.145,-0.02
2021-08-19 10:37:26.072,-0.145,-0.015
2021-08-19 10:37:26.076,-0.155,-0.02
2021-08-19 10:37:26.080,-0.135,-0.01
2021-08-19 10:37:26.084,-0.17,0.0
2021-08-19 10:37:26.088,-0.275,0.035
2021-08-19 10:37:26.092,-0.325,0.065
2021-08-19 10:37:26.096,-0.26,0.035
2021-08-19 10:37:26.100,-0.095,-0.035
2021-08-19 10:37:26.104,0.065,-0.14
2021-08-19 10:37:26.108,0.3,-0.3
2021-08-19 10:37:26.112,0.41,-0.45
2021-08-19 10:37:26.116,0.005,-0.43
2021-08-19 10:37:26.120,-0.74,-0.305
2021-08-19 10:37:26.124,-1.325,-0.215
2021-08-19 10:37:26.128,-1.62,-0.095
2021-08-19 10:37:26.132,-1.71,-0.03
2021-08-19 10:37:26.136,-1.705,0.0
2021-08-19 10:37:26.140,-1.655,0.09
2021-08-19 10:37:26.144,-1.585,0.315
2021-08-19 10:37:26.148,-1.565,0.635
2021-08-19 10:37:26.152,-1.53,0.87
2021-08-19 10:37:26.156,-1.46,1.035
2021-08-19 10:37:26.160,-1.365,1.04
2021-08-19 10:37:26.164,-1.265,0.965
2021-08-19 10:37:26.168,-1.09,0.93
2021-08-19 10:37:26.172,-0.78,0.88
2021-08-19 10:37:26.176,-0.535,0.825
2021-08-19 10:37:26.180,-0.355,0.665
2021-08-19 10:37:26.184,-0.275,0.455
2021-08-19 10:37:26.188,-0.195,0.255
2021-08-19 10:37:26.192,-0.14,0.12
2021-08-19 10:37:26.196,-0.1,-0.01
2021-08-19 10:37:26.200,-0.105,-0.115
2021-08-19 10:37:26.204,-0.11,-0.21
2021-08-19 10:37:26.208,-0.08,-0.275
2021-08-19 10:37:26.212,-0.075,-0.28
2021-08-19 10:37:26.216,-0.05,-0.3
2021-08-19 10:37:26.220,-0.05,-0.32
2021-08-19 10:37:26.224,-0.015,-0.31
2021-08-19 10:37:26.228,-0.045,-0.32
2021-08-19 10:37:26.232,-0.06,-0.32
2021-08-19 10:37:26.236,-0.05,-0.33
2021-08-19 10:37:26.240,-0.04,-0.34
2021-08-19 10:37:26.244,-0.08,-0.355
2021-08-19 10:37:26.248,-0.04,-0.37
2021-08-19 10:37:26.252,-0.035,-0.4
2021-08-19 10:37:26.256,-0.035,-0.405
2021-08-19 10:37:26.260,-0.02,-0.395
2021-08-19 10:37:26.264,-0.03,-0.39
2021-08-19 10:37:26.268,-0.085,-0.43
2021-08-19 10:37:26.272,-0.08,-0.45
2021-08-19 10:37:26.276,-0.08,-0.47
2021-08-19 10:37:26.280,-0.13,-0.46
2021-08-19 10:37:26.284,-0.14,-0.48
2021-08-19 10:37:26.288,-0.15,-0.515
2021-08-19 10:37:26.292,-0.17,-0.52
2021-08-19 10:37:26.296,-0.185,-0.55
2021-08-19 10:37:26.300,-0.175,-0.555
2021-08-19 10:37:26.304,-0.16,-0.56
2021-08-19 10:37:26.308,-0.18,-0.585
2021-08-19 10:37:26.312,-0.155,-0.59
2021-08-19 10:37:26.316,-0.185,-0.61
2021-08-19 10:37:26.320,-0.215,-0.63
2021-08-19 10:37:26.324,-0.21,-0.635
2021-08-19 10:37:26.328,-0.225,-0.64
2021-08-19 10:37:26.332,-0.225,-0.65
2021-08-19 10:37:26.336,-0.25,-0.665
2021-08-19 10:37:26.340,-0.26,-0.675
2021-08-19 10:37:26.344,-0.265,-0.68
2021-08-19 10:37:26.348,-0.26,-0.72
2021-08-19 10:37:26.352,-0.205,-0.755
2021-08-19 10:37:26.356,-0.19,-0.76
2021-08-19 10:37:26.360,-0.18,-0.76
2021-08-19 10:37:26.364,-0.17,-0.78
2021-08-19 10:37:26.368,-0.155,-0.785
2021-08-19 10:37:26.372,-0.14,-0.8
2021-08-19 10:37:26.376,-0.1,-0.81
2021-08-19 10:37:26.380,-0.06,-0.815
2021-08-19 10:37:26.384,0.0,-0.83
2021-08-19 10:37:26.388,0.08,-0.83
2021-08-19 10:37:26.392,0.135,-0.835
2021-08-19 10:37:26.396,0.175,-0.82
2021-08-19 10:37:26.400,0.23,-0.82
2021-08-19 10:37:26.404,0.255,-0.805
2021-08-19 10:37:26.408,0.295,-0.805
2021-08-19 10:37:26.412,0.34,-0.795
2021-08-19 10:37:26.416,0.345,-0.76
2021-08-19 10:37:26.420,0.355,-0.71
2021-08-19 10:37:26.424,0.35,-0.68
2021-08-19 10:37:26.428,0.36,-0.635
2021-08-19 10:37:26.432,0.34,-0.62
2021-08-19 10:37:26.436,0.325,-0.57
2021-08-19 10:37:26.440,0.31,-0.52
2021-08-19 10:37:26.444,0.31,-0.47
2021-08-19 10:37:26.448,0.34,-0.43
2021-08-19 10:37:26.452,0.3,-0.39
2021-08-19 10:37:26.456,0.27,-0.33
2021-08-19 10:37:26.460,0.23,-0.305
2021-08-19 10:37:26.464,0.205,-0.24
2021-08-19 10:37:26.468,0.16,-0.2
2021-08-19 10:37:26.472,0.135,-0.165
2021-08-19 10:37:26.476,0.15,-0.16
2021-08-19 10:37:26.480,0.1,-0.105
2021-08-19 10:37:26.484,0.075,-0.065
2021-08-19 10:37:26.488,0.065,-0.04
2021-08-19 10:37:26.492,0.09,-0.01
2021-08-19 10:37:26.496,0.09,0.02
2021-08-19 10:37:26.500,0.095,0.02
2021-08-19 10:37:26.504,0.06,0.02
2021-08-19 10:37:26.508,0.015,0.015
2021-08-19 10:37:26.512,-0.005,0.065
2021-08-19 10:37:26.516,-0.005,0.075
2021-08-19 10:37:26.520,0.015,0.065
2021-08-19 10:37:26.524,0.01,0.075
2021-08-19 10:37:26.528,0.015,0.045
2021-08-19 10:37:26.532,-0.01,0.085
2021-08-19 10:37:26.536,-0.005,0.075
2021-08-19 10:37:26.540,0.01,0.09
2021-08-19 10:37:26.544,0.03,0.06
2021-08-19 10:37:26.548,0.035,0.08
2021-08-19 10:37:26.552,0.04,0.095
2021-08-19 10:37:26.556,0.0,0.05
2021-08-19 10:37:26.560,-0.02,0.065
2021-08-19 10:37:26.564,-0.01,0.11
2021-08-19 10:37:26.568,-0.03,0.09
2021-08-19 10:37:26.572,-0.04,0.065
2021-08-19 10:37:26.576,-0.03,0.07
2021-08-19 10:37:26.580,-0.01,0.06
2021-08-19 10:37:26.584,-0.015,0.055
2021-08-19 10:37:26.588,-0.01,0.06
2021-08-19 10:37:26.592,-0.01,0.07
2021-08-19 10:37:26.596,-0.005,0.09
2021-08-19 10:37:26.600,0.0,0.075
2021-08-19 10:37:26.604,-0.02,0.085
2021-08-19 10:37:26.608,-0.04,0.07
2021-08-19 10:37:26.612,-0.03,0.05
2021-08-19 10:37:26.616,-0.05,0.035
2021-08-19 10:37:26.620,-0.02,0.06
2021-08-19 10:37:26.624,0.005,0.055
2021-08-19 10:37:26.628,-0.01,0.05
2021-08-19 10:37:26.632,-0.015,0.075
2021-08-19 10:37:26.636,-0.015,0.05
2021-08-19 10:37:26.640,-0.025,0.06
2021-08-19 10:37:26.644,-0.03,0.09
2021-08-19 10:37:26.648,-0.035,0.1
2021-08-19 10:37:26.652,-0.025,0.095
2021-08-19 10:37:26.656,-0.03,0.1
2021-08-19 10:37:26.660,-0.04,0.09
2021-08-19 10:37:26.664,-0.04,0.09
2021-08-19 10:37:26.668,-0.04,0.095
2021-08-19 10:37:26.672,-0.03,0.095
2021-08-19 10:37:26.676,-0.04,0.085
2021-08-19 10:37:26.680,-0.005,0.04
2021-08-19 10:37:26.684,0.005,0.07
2021-08-19 10:37:26.688,0.0,0.065
2021-08-19 10:37:26.692,0.0,0.06
2021-08-19 10:37:26.696,-0.05,0.08
2021-08-19 10:37:26.700,-0.05,0.06
2021-08-19 10:37:26.704,-0.04,0.08
2021-08-19 10:37:26.708,-0.035,0.045
2021-08-19 10:37:26.712,-0.04,0.055
2021-08-19 10:37:26.716,-0.045,0.05
2021-08-19 10:37:26.720,-0.005,0.045
2021-08-19 10:37:26.724,-0.025,0.05
2021-08-19 10:37:26.728,-0.02,0.06
2021-08-19 10:37:26.732,-0.025,0.07
2021-08-19 10:37:26.736,-0.03,0.055
2021-08-19 10:37:26.740,-0.045,0.05
2021-08-19 10:37:26.744,-0.07,0.055
2021-08-19 10:37:26.748,-0.08,0.04
2021-08-19 10:37:26.752,-0.08,0.04
2021-08-19 10:37:26.756,-0.045,0.03
2021-08-19 10:37:26.760,-0.035,0.03
2021-08-19 10:37:26.764,-0.025,0.045
2021-08-19 10:37:26.768,-0.035,0.055
2021-08-19 10:37:26.772,-0.015,0.04
2021-08-19 10:37:26.776,-0.02,0.035
2021-08-19 10:37:26.780,-0.01,0.08
2021-08-19 10:37:26.784,-0.01,0.04
2021-08-19 10:37:26.788,-0.025,0.045
2021-08-19 10:37:26.792,-0.04,0.05
2021-08-19 10:37:26.796,-0.07,0.045
2021-08-19 10:37:26.800,-0.09,0.075
2021-08-19 10:37:26.804,-0.06,0.08
2021-08-19 10:37:26.808,-0.04,0.085
2021-08-19 10:37:26.812,0.0,0.08
2021-08-19 10:37:26.816,0.04,0.05
2021-08-19 10:37:26.820,0.08,0.055
2021-08-19 10:37:26.824,0.185,0.065
2021-08-19 10:37:26.828,0.27,0.08
2021-08-19 10:37:26.832,0.33,0.14
2021-08-19 10:37:26.836,0.37,0.185
2021-08-19 10:37:26.840,0.36,0.235
2021-08-19 10:37:26.844,0.355,0.265
2021-08-19 10:37:26.848,0.31,0.255
2021-08-19 10:37:26.852,0.285,0.25
2021-08-19 10:37:26.856,0.25,0.23
2021-08-19 10:37:26.860,0.19,0.19
2021-08-19 10:37:26.864,0.13,0.22
2021-08-19 10:37:26.868,0.08,0.22
2021-08-19 10:37:26.872,0.055,0.185
2021-08-19 10:37:26.876,0.0,0.145
2021-08-19 10:37:26.880,-0.04,0.11
2021-08-19 10:37:26.884,-0.1,0.105
2021-08-19 10:37:26.888,-0.12,0.1
2021-08-19 10:37:26.892,-0.13,0.07
2021-08-19 10:37:26.896,-0.13,0.07
2021-08-19 10:37:26.900,-0.09,0.05
2021-08-19 10:37:26.904,-0.08,0.05
2021-08-19 10:37:26.908,-0.045,0.07
2021-08-19 10:37:26.912,-0.02,0.06
2021-08-19 10:37:26.916,0.015,0.06
2021-08-19 10:37:26.920,0.08,0.095
2021-08-19 10:37:26.924,0.27,0.18
2021-08-19 10:37:26.928,0.6,0.22
2021-08-19 10:37:26.932,0.915,0.22
2021-08-19 10:37:26.936,1.14,0.17
2021-08-19 10:37:26.940,1.27,0.115
2021-08-19 10:37:26.944,1.165,-0.11
2021-08-19 10:37:26.948,0.48,-0.36
2021-08-19 10:37:26.952,-0.43,-0.695
2021-08-19 10:37:26.956,-1.08,-1.055
2021-08-19 10:37:26.960,-1.4,-1.33
2021-08-19 10:37:26.964,-1.435,-1.555
2021-08-19 10:37:26.968,-1.32,-1.73
2021-08-19 10:37:26.972,-1.2,-1.72
2021-08-19 10:37:26.976,-0.99,-1.575
2021-08-19 10:37:26.980,-0.72,-1.29
2021-08-19 10:37:26.984,-0.52,-1.04
2021-08-19 10:37:26.988,-0.395,-0.795
2021-08-19 10:37:26.992,-0.345,-0.565
2021-08-19 10:37:26.996,-0.3,-0.345
2021-08-19 10:37:27.000,-0.27,-0.17
2021-08-19 10:37:27.004,-0.24,-0.1
2021-08-19 10:37:27.008,-0.255,-0.025
2021-08-19 10:37:27.012,-0.27,-0.01
2021-08-19 10:37:27.016,-0.305,0.015
2021-08-19 10:37:27.020,-0.3,0.035
2021-08-19 10:37:27.024,-0.29,0.03
2021-08-19 10:37:27.028,-0.28,0.04
2021-08-19 10:37:27.032,-0.265,0.04
2021-08-19 10:37:27.036,-0.26,0.04
2021-08-19 10:37:27.040,-0.255,0.095
2021-08-19 10:37:27.044,-0.265,0.075
2021-08-19 10:37:27.048,-0.26,0.08
2021-08-19 10:37:27.052,-0.29,0.04
2021-08-19 10:37:27.056,-0.305,0.09
2021-08-19 10:37:27.060,-0.33,0.06
2021-08-19 10:37:27.064,-0.32,0.06
2021-08-19 10:37:27.068,-0.32,0.08
2021-08-19 10:37:27.072,-0.36,0.075
2021-08-19 10:37:27.076,-0.38,0.07
2021-08-19 10:37:27.080,-0.36,0.075
2021-08-19 10:37:27.084,-0.31,0.08
2021-08-19 10:37:27.088,-0.32,0.105
2021-08-19 10:37:27.092,-0.325,0.1
2021-08-19 10:37:27.096,-0.36,0.09
2021-08-19 10:37:27.100,-0.39,0.05
2021-08-19 10:37:27.104,-0.44,0.075
2021-08-19 10:37:27.108,-0.465,0.065
2021-08-19 10:37:27.112,-0.45,0.045
2021-08-19 10:37:27.116,-0.44,0.075
2021-08-19 10:37:27.120,-0.455,0.06
2021-08-19 10:37:27.124,-0.45,0.065
2021-08-19 10:37:27.128,-0.45,0.085
2021-08-19 10:37:27.132,-0.48,0.075
2021-08-19 10:37:27.136,-0.48,0.055
2021-08-19 10:37:27.140,-0.51,0.03
2021-08-19 10:37:27.144,-0.48,0.05
2021-08-19 10:37:27.148,-0.505,0.06
2021-08-19 10:37:27.152,-0.525,0.055
2021-08-19 10:37:27.156,-0.535,0.035
2021-08-19 10:37:27.160,-0.555,0.01
2021-08-19 10:37:27.164,-0.56,0.01
2021-08-19 10:37:27.168,-0.54,0.025
2021-08-19 10:37:27.172,-0.53,0.03
2021-08-19 10:37:27.176,-0.52,0.035
2021-08-19 10:37:27.180,-0.51,0.025
2021-08-19 10:37:27.184,-0.505,0.02
2021-08-19 10:37:27.188,-0.505,0.025
2021-08-19 10:37:27.192,-0.51,0.035
2021-08-19 10:37:27.196,-0.555,-0.005
2021-08-19 10:37:27.200,-0.54,-0.005
2021-08-19 10:37:27.204,-0.54,-0.01
2021-08-19 10:37:27.208,-0.53,-0.02
2021-08-19 10:37:27.212,-0.5,-0.035
2021-08-19 10:37:27.216,-0.44,-0.02
2021-08-19 10:37:27.220,-0.39,-0.01
2021-08-19 10:37:27.224,-0.365,0.015
2021-08-19 10:37:27.228,-0.36,0.055
2021-08-19 10:37:27.232,-0.345,0.1
2021-08-19 10:37:27.236,-0.335,0.105
2021-08-19 10:37:27.240,-0.31,0.09
2021-08-19 10:37:27.244,-0.265,0.14
2021-08-19 10:37:27.248,-0.21,0.14
2021-08-19 10:37:27.252,-0.185,0.155
2021-08-19 10:37:27.256,-0.175,0.17
2021-08-19 10:37:27.260,-0.16,0.23
2021-08-19 10:37:27.264,-0.175,0.25
2021-08-19 10:37:27.268,-0.13,0.24
2021-08-19 10:37:27.272,-0.16,0.29
2021-08-19 10:37:27.276,-0.175,0.325
2021-08-19 10:37:27.280,-0.205,0.36
2021-08-19 10:37:27.284,-0.21,0.35
2021-08-19 10:37:27.288,-0.195,0.33
2021-08-19 10:37:27.292,-0.19,0.31
2021-08-19 10:37:27.296,-0.215,0.29
2021-08-19 10:37:27.300,-0.215,0.28
2021-08-19 10:37:27.304,-0.2,0.275
2021-08-19 10:37:27.308,-0.185,0.28
2021-08-19 10:37:27.312,-0.17,0.25
2021-08-19 10:37:27.316,-0.175,0.235
2021-08-19 10:37:27.320,-0.165,0.245
2021-08-19 10:37:27.324,-0.17,0.225
2021-08-19 10:37:27.328,-0.15,0.155
2021-08-19 10:37:27.332,-0.145,0.17
2021-08-19 10:37:27.336,-0.15,0.155
2021-08-19 10:37:27.340,-0.15,0.175
2021-08-19 10:37:27.344,-0.145,0.155
2021-08-19 10:37:27.348,-0.14,0.14
2021-08-19 10:37:27.352,-0.12,0.165
2021-08-19 10:37:27.356,-0.1,0.17
2021-08-19 10:37:27.360,-0.1,0.175
2021-08-19 10:37:27.364,-0.1,0.195
2021-08-19 10:37:27.368,-0.09,0.15
2021-08-19 10:37:27.372,-0.12,0.16
2021-08-19 10:37:27.376,-0.13,0.17
2021-08-19 10:37:27.380,-0.14,0.165
2021-08-19 10:37:27.384,-0.17,0.165
2021-08-19 10:37:27.388,-0.16,0.15
2021-08-19 10:37:27.392,-0.15,0.13
2021-08-19 10:37:27.396,-0.135,0.135
2021-08-19 10:37:27.400,-0.15,0.145
2021-08-19 10:37:27.404,-0.155,0.16
2021-08-19 10:37:27.408,-0.185,0.185
2021-08-19 10:37:27.412,-0.18,0.23
2021-08-19 10:37:27.416,-0.08,0.27
2021-08-19 10:37:27.420,0.12,0.245
2021-08-19 10:37:27.424,0.31,0.19
2021-08-19 10:37:27.428,0.52,0.12
2021-08-19 10:37:27.432,0.725,0.03
2021-08-19 10:37:27.436,0.43,-0.005
2021-08-19 10:37:27.440,-0.3,0.03
2021-08-19 10:37:27.444,-0.98,0.05
2021-08-19 10:37:27.448,-1.395,0.07
2021-08-19 10:37:27.452,-1.545,0.2
2021-08-19 10:37:27.456,-1.56,0.31
2021-08-19 10:37:27.460,-1.51,0.37
2021-08-19 10:37:27.464,-1.445,0.39
2021-08-19 10:37:27.468,-1.41,0.395
2021-08-19 10:37:27.472,-1.305,0.395
2021-08-19 10:37:27.476,-1.2,0.365
2021-08-19 10:37:27.480,-1.085,0.27
2021-08-19 10:37:27.484,-0.925,0.11
2021-08-19 10:37:27.488,-0.685,-0.03
2021-08-19 10:37:27.492,-0.38,-0.06
2021-08-19 10:37:27.496,-0.23,-0.07
2021-08-19 10:37:27.500,-0.165,-0.035
2021-08-19 10:37:27.504,-0.155,-0.02
2021-08-19 10:37:27.508,-0.15,0.005
2021-08-19 10:37:27.512,-0.165,0.025
2021-08-19 10:37:27.516,-0.2,0.01
2021-08-19 10:37:27.520,-0.2,0.03
2021-08-19 10:37:27.524,-0.2,0.035
2021-08-19 10:37:27.528,-0.195,0.03
2021-08-19 10:37:27.532,-0.18,0.0
2021-08-19 10:37:27.536,-0.17,0.01
2021-08-19 10:37:27.540,-0.165,0.005
2021-08-19 10:37:27.544,-0.175,0.035
2021-08-19 10:37:27.548,-0.185,0.02
2021-08-19 10:37:27.552,-0.19,0.005
2021-08-19 10:37:27.556,-0.2,0.015
2021-08-19 10:37:27.560,-0.225,0.0
2021-08-19 10:37:27.564,-0.22,0.015
2021-08-19 10:37:27.568,-0.23,-0.01
2021-08-19 10:37:27.572,-0.22,-0.02
2021-08-19 10:37:27.576,-0.245,-0.035
2021-08-19 10:37:27.580,-0.23,-0.03
2021-08-19 10:37:27.584,-0.26,-0.06
2021-08-19 10:37:27.588,-0.26,-0.07
2021-08-19 10:37:27.592,-0.275,-0.09
2021-08-19 10:37:27.596,-0.3,-0.105
2021-08-19 10:37:27.600,-0.305,-0.08
2021-08-19 10:37:27.604,-0.33,-0.115
2021-08-19 10:37:27.608,-0.345,-0.11
2021-08-19 10:37:27.612,-0.37,-0.165
2021-08-19 10:37:27.616,-0.385,-0.15
2021-08-19 10:37:27.620,-0.415,-0.2
2021-08-19 10:37:27.624,-0.41,-0.21
2021-08-19 10:37:27.628,-0.4,-0.165
2021-08-19 10:37:27.632,-0.41,-0.195
2021-08-19 10:37:27.636,-0.42,-0.225
2021-08-19 10:37:27.640,-0.445,-0.24
2021-08-19 10:37:27.644,-0.445,-0.23
2021-08-19 10:37:27.648,-0.455,-0.275
2021-08-19 10:37:27.652,-0.5,-0.295
2021-08-19 10:37:27.656,-0.505,-0.305
2021-08-19 10:37:27.660,-0.53,-0.305
2021-08-19 10:37:27.664,-0.53,-0.33
2021-08-19 10:37:27.668,-0.55,-0.35
2021-08-19 10:37:27.672,-0.52,-0.34
2021-08-19 10:37:27.676,-0.51,-0.34
2021-08-19 10:37:27.680,-0.49,-0.38
2021-08-19 10:37:27.684,-0.455,-0.41
2021-08-19 10:37:27.688,-0.425,-0.41
2021-08-19 10:37:27.692,-0.43,-0.43
2021-08-19 10:37:27.696,-0.405,-0.435
2021-08-19 10:37:27.700,-0.375,-0.475
2021-08-19 10:37:27.704,-0.325,-0.46
2021-08-19 10:37:27.708,-0.27,-0.49
2021-08-19 10:37:27.712,-0.21,-0.49
2021-08-19 10:37:27.716,-0.16,-0.495
2021-08-19 10:37:27.720,-0.105,-0.485
2021-08-19 10:37:27.724,-0.04,-0.47
2021-08-19 10:37:27.728,0.0,-0.44
2021-08-19 10:37:27.732,0.02,-0.435
2021-08-19 10:37:27.736,0.04,-0.41
2021-08-19 10:37:27.740,0.04,-0.345
2021-08-19 10:37:27.744,0.055,-0.29
2021-08-19 10:37:27.748,0.075,-0.28
2021-08-19 10:37:27.752,0.085,-0.215
2021-08-19 10:37:27.756,0.08,-0.155
2021-08-19 10:37:27.760,0.06,-0.12
2021-08-19 10:37:27.764,0.05,-0.08
2021-08-19 10:37:27.768,0.07,-0.01
2021-08-19 10:37:27.772,0.045,0.025
2021-08-19 10:37:27.776,0.02,0.055
2021-08-19 10:37:27.780,0.015,0.08
2021-08-19 10:37:27.784,-0.01,0.115
2021-08-19 10:37:27.788,-0.04,0.165
2021-08-19 10:37:27.792,-0.085,0.19
2021-08-19 10:37:27.796,-0.08,0.19
2021-08-19 10:37:27.800,-0.13,0.185
2021-08-19 10:37:27.804,-0.135,0.2
2021-08-19 10:37:27.808,-0.145,0.22
2021-08-19 10:37:27.812,-0.13,0.22
2021-08-19 10:37:27.816,-0.14,0.24
2021-08-19 10:37:27.820,-0.12,0.24
2021-08-19 10:37:27.824,-0.14,0.255
2021-08-19 10:37:27.828,-0.145,0.27
2021-08-19 10:37:27.832,-0.165,0.265
2021-08-19 10:37:27.836,-0.18,0.25
2021-08-19 10:37:27.840,-0.2,0.27
2021-08-19 10:37:27.844,-0.19,0.275
2021-08-19 10:37:27.848,-0.205,0.265
2021-08-19 10:37:27.852,-0.195,0.26
2021-08-19 10:37:27.856,-0.21,0.27
2021-08-19 10:37:27.860,-0.185,0.285
2021-08-19 10:37:27.864,-0.16,0.255
2021-08-19 10:37:27.868,-0.2,0.255
2021-08-19 10:37:27.872,-0.185,0.25
2021-08-19 10:37:27.876,-0.2,0.25
2021-08-19 10:37:27.880,-0.19,0.275
2021-08-19 10:37:27.884,-0.215,0.255
2021-08-19 10:37:27.888,-0.24,0.265
2021-08-19 10:37:27.892,-0.24,0.255
2021-08-19 10:37:27.896,-0.24,0.265
2021-08-19 10:37:27.900,-0.25,0.245
2021-08-19 10:37:27.904,-0.215,0.245
2021-08-19 10:37:27.908,-0.195,0.255
2021-08-19 10:37:27.912,-0.21,0.26
2021-08-19 10:37:27.916,-0.215,0.235
2021-08-19 10:37:27.920,-0.21,0.2
2021-08-19 10:37:27.924,-0.25,0.22
2021-08-19 10:37:27.928,-0.255,0.23
2021-08-19 10:37:27.932,-0.26,0.225
2021-08-19 10:37:27.936,-0.26,0.215
2021-08-19 10:37:27.940,-0.265,0.22
2021-08-19 10:37:27.944,-0.245,0.23
2021-08-19 10:37:27.948,-0.245,0.235
2021-08-19 10:37:27.952,-0.225,0.23
2021-08-19 10:37:27.956,-0.225,0.25
2021-08-19 10:37:27.960,-0.23,0.235
2021-08-19 10:37:27.964,-0.25,0.225
2021-08-19 10:37:27.968,-0.245,0.225
2021-08-19 10:37:27.972,-0.265,0.23
2021-08-19 10:37:27.976,-0.25,0.21
2021-08-19 10:37:27.980,-0.255,0.225
2021-08-19 10:37:27.984,-0.25,0.22
2021-08-19 10:37:27.988,-0.25,0.235
2021-08-19 10:37:27.992,-0.25,0.23
2021-08-19 10:37:27.996,-0.245,0.24
2021-08-19 10:37:28.000,-0.22,0.22
2021-08-19 10:37:28.004,-0.16,0.225
2021-08-19 10:37:28.008,-0.1,0.24
2021-08-19 10:37:28.012,-0.05,0.255
2021-08-19 10:37:28.016,0.005,0.265
2021-08-19 10:37:28.020,0.055,0.3
2021-08-19 10:37:28.024,0.095,0.345
2021-08-19 10:37:28.028,0.105,0.37
2021-08-19 10:37:28.032,0.13,0.405
2021-08-19 10:37:28.036,0.14,0.415
2021-08-19 10:37:28.040,0.125,0.385
2021-08-19 10:37:28.044,0.09,0.345
2021-08-19 10:37:28.048,0.055,0.33
2021-08-19 10:37:28.052,-0.01,0.3
2021-08-19 10:37:28.056,-0.05,0.29
2021-08-19 10:37:28.060,-0.1,0.27
2021-08-19 10:37:28.064,-0.17,0.27
2021-08-19 10:37:28.068,-0.255,0.255
2021-08-19 10:37:28.072,-0.28,0.26
2021-08-19 10:37:28.076,-0.31,0.225
2021-08-19 10:37:28.080,-0.345,0.195
2021-08-19 10:37:28.084,-0.365,0.185
2021-08-19 10:37:28.088,-0.36,0.175
2021-08-19 10:37:28.092,-0.32,0.155
2021-08-19 10:37:28.096,-0.315,0.145
2021-08-19 10:37:28.100,-0.32,0.14
2021-08-19 10:37:28.104,-0.305,0.135
2021-08-19 10:37:28.108,-0.275,0.145
2021-08-19 10:37:28.112,-0.21,0.13
2021-08-19 10:37:28.116,-0.185,0.165
2021-08-19 10:37:28.120,-0.04,0.24
2021-08-19 10:37:28.124,0.2,0.255
2021-08-19 10:37:28.128,0.435,0.22
2021-08-19 10:37:28.132,0.6,0.155
2021-08-19 10:37:28.136,0.705,0.035
2021-08-19 10:37:28.140,0.685,-0.365
2021-08-19 10:37:28.144,0.265,-0.815
2021-08-19 10:37:28.148,-0.615,-1.24
2021-08-19 10:37:28.152,-1.41,-1.575
2021-08-19 10:37:28.156,-1.85,-1.88
2021-08-19 10:37:28.176,-0.815,-1.7
2021-08-19 10:37:28.180,-0.635,-1.28
2021-08-19 10:37:28.184,-0.53,-0.865
2021-08-19 10:37:28.188,-0.465,-0.51
2021-08-19 10:37:28.192,-0.45,-0.25
2021-08-19 10:37:28.196,-0.46,-0.085
2021-08-19 10:37:28.200,-0.46,0.02
2021-08-19 10:37:28.204,-0.48,0.07
2021-08-19 10:37:28.208,-0.44,0.1
2021-08-19 10:37:28.212,-0.46,0.09
2021-08-19 10:37:28.216,-0.465,0.105
2021-08-19 10:37:28.220,-0.44,0.105
2021-08-19 10:37:28.224,-0.46,0.12
2021-08-19 10:37:28.228,-0.46,0.135
2021-08-19 10:37:28.232,-0.43,0.165
2021-08-19 10:37:28.236,-0.45,0.17
2021-08-19 10:37:28.240,-0.445,0.175
2021-08-19 10:37:28.244,-0.45,0.155
2021-08-19 10:37:28.248,-0.5,0.13
2021-08-19 10:37:28.252,-0.515,0.14
2021-08-19 10:37:28.256,-0.535,0.145
2021-08-19 10:37:28.260,-0.545,0.155
2021-08-19 10:37:28.264,-0.545,0.18
2021-08-19 10:37:28.268,-0.555,0.155
2021-08-19 10:37:28.272,-0.545,0.19
2021-08-19 10:37:28.276,-0.53,0.2
2021-08-19 10:37:28.280,-0.545,0.17
2021-08-19 10:37:28.284,-0.54,0.175
2021-08-19 10:37:28.288,-0.56,0.18
2021-08-19 10:37:28.292,-0.58,0.195
2021-08-19 10:37:28.296,-0.6,0.175
2021-08-19 10:37:28.300,-0.615,0.15
2021-08-19 10:37:28.304,-0.65,0.175
2021-08-19 10:37:28.308,-0.65,0.165
2021-08-19 10:37:28.312,-0.66,0.18
2021-08-19 10:37:28.316,-0.675,0.175
2021-08-19 10:37:28.320,-0.665,0.16
2021-08-19 10:37:28.324,-0.685,0.16
2021-08-19 10:37:28.328,-0.665,0.14
2021-08-19 10:37:28.332,-0.715,0.14
2021-08-19 10:37:28.336,-0.74,0.12
2021-08-19 10:37:28.340,-0.775,0.12
2021-08-19 10:37:28.344,-0.79,0.125
2021-08-19 10:37:28.348,-0.81,0.12
2021-08-19 10:37:28.352,-0.815,0.13
2021-08-19 10:37:28.356,-0.845,0.12
2021-08-19 10:37:28.360,-0.845,0.125
2021-08-19 10:37:28.364,-0.865,0.135
2021-08-19 10:37:28.368,-0.855,0.13
2021-08-19 10:37:28.372,-0.87,0.1
2021-08-19 10:37:28.376,-0.89,0.115
2021-08-19 10:37:28.380,-0.875,0.12
2021-08-19 10:37:28.384,-0.89,0.1
2021-08-19 10:37:28.388,-0.89,0.11
2021-08-19 10:37:28.392,-0.915,0.11
2021-08-19 10:37:28.396,-0.93,0.08
2021-08-19 10:37:28.400,-0.94,0.09
2021-08-19 10:37:28.404,-0.945,0.085
2021-08-19 10:37:28.408,-0.96,0.09
2021-08-19 10:37:28.412,-0.945,0.09
2021-08-19 10:37:28.416,-0.895,0.1
2021-08-19 10:37:28.420,-0.9,0.11
2021-08-19 10:37:28.424,-0.885,0.11
2021-08-19 10:37:28.428,-0.89,0.12
2021-08-19 10:37:28.432,-0.86,0.105
2021-08-19 10:37:28.436,-0.855,0.095
2021-08-19 10:37:28.440,-0.82,0.11
2021-08-19 10:37:28.444,-0.78,0.14
2021-08-19 10:37:28.448,-0.745,0.14
2021-08-19 10:37:28.452,-0.705,0.14
2021-08-19 10:37:28.456,-0.655,0.165
2021-08-19 10:37:28.460,-0.595,0.175
2021-08-19 10:37:28.464,-0.545,0.215
2021-08-19 10:37:28.468,-0.54,0.245
2021-08-19 10:37:28.472,-0.48,0.25
2021-08-19 10:37:28.476,-0.45,0.28
2021-08-19 10:37:28.480,-0.43,0.31
2021-08-19 10:37:28.484,-0.425,0.295
2021-08-19 10:37:28.488,-0.38,0.29
2021-08-19 10:37:28.492,-0.38,0.305
2021-08-19 10:37:28.496,-0.35,0.335
2021-08-19 10:37:28.500,-0.305,0.35
2021-08-19 10:37:28.504,-0.25,0.345
2021-08-19 10:37:28.508,-0.235,0.36
2021-08-19 10:37:28.512,-0.24,0.355
2021-08-19 10:37:28.516,-0.22,0.37
2021-08-19 10:37:28.520,-0.205,0.355
2021-08-19 10:37:28.524,-0.205,0.35
2021-08-19 10:37:28.528,-0.22,0.36
2021-08-19 10:37:28.532,-0.21,0.36
2021-08-19 10:37:28.536,-0.22,0.36
2021-08-19 10:37:28.540,-0.215,0.345
2021-08-19 10:37:28.544,-0.19,0.32
2021-08-19 10:37:28.548,-0.195,0.32
2021-08-19 10:37:28.552,-0.16,0.305
2021-08-19 10:37:28.556,-0.13,0.305
2021-08-19 10:37:28.560,-0.15,0.305
2021-08-19 10:37:28.564,-0.165,0.315
2021-08-19 10:37:28.568,-0.16,0.29
2021-08-19 10:37:28.572,-0.17,0.29
2021-08-19 10:37:28.576,-0.18,0.28
2021-08-19 10:37:28.580,-0.175,0.3
2021-08-19 10:37:28.584,-0.19,0.285
2021-08-19 10:37:28.588,-0.19,0.265
2021-08-19 10:37:28.592,-0.185,0.255
2021-08-19 10:37:28.596,-0.15,0.235
2021-08-19 10:37:28.600,-0.14,0.23
2021-08-19 10:37:28.604,-0.16,0.21
2021-08-19 10:37:28.608,-0.17,0.215
2021-08-19 10:37:28.612,-0.17,0.2
2021-08-19 10:37:28.616,-0.205,0.195
2021-08-19 10:37:28.620,-0.185,0.205
2021-08-19 10:37:28.624,-0.195,0.2
2021-08-19 10:37:28.628,-0.195,0.185
2021-08-19 10:37:28.632,-0.2,0.165
2021-08-19 10:37:28.636,-0.18,0.165
2021-08-19 10:37:28.640,-0.175,0.17
2021-08-19 10:37:28.644,-0.15,0.18
2021-08-19 10:37:28.648,-0.14,0.185
2021-08-19 10:37:28.652,-0.16,0.175
2021-08-19 10:37:28.656,-0.165,0.185
2021-08-19 10:37:28.660,-0.195,0.17
2021-08-19 10:37:28.664,-0.2,0.16
2021-08-19 10:37:28.668,-0.2,0.155
2021-08-19 10:37:28.672,-0.19,0.175
2021-08-19 10:37:28.676,-0.185,0.185
2021-08-19 10:37:28.680,-0.195,0.15
2021-08-19 10:37:28.684,-0.17,0.16
2021-08-19 10:37:28.688,-0.15,0.165
2021-08-19 10:37:28.692,-0.16,0.175
2021-08-19 10:37:28.696,-0.185,0.16
2021-08-19 10:37:28.700,-0.145,0.175
2021-08-19 10:37:28.704,-0.17,0.17
2021-08-19 10:37:28.708,-0.175,0.16
2021-08-19 10:37:28.712,-0.185,0.16
2021-08-19 10:37:28.716,-0.17,0.145
2021-08-19 10:37:28.720,-0.185,0.145
2021-08-19 10:37:28.724,-0.175,0.165
2021-08-19 10:37:28.728,-0.195,0.155
2021-08-19 10:37:28.732,-0.19,0.15
2021-08-19 10:37:28.736,-0.16,0.16
2021-08-19 10:37:28.740,-0.16,0.155
2021-08-19 10:37:28.744,-0.17,0.16
2021-08-19 10:37:28.748,-0.175,0.155
2021-08-19 10:37:28.752,-0.185,0.15
2021-08-19 10:37:28.756,-0.205,0.15
2021-08-19 10:37:28.760,-0.19,0.155
2021-08-19 10:37:28.764,-0.19,0.12
2021-08-19 10:37:28.768,-0.19,0.145
2021-08-19 10:37:28.772,-0.19,0.135
2021-08-19 10:37:28.776,-0.195,0.135
2021-08-19 10:37:28.780,-0.155,0.15
2021-08-19 10:37:28.784,-0.16,0.14
2021-08-19 10:37:28.788,-0.15,0.14
2021-08-19 10:37:28.792,-0.155,0.12
2021-08-19 10:37:28.796,-0.16,0.135
2021-08-19 10:37:28.800,-0.18,0.15
2021-08-19 10:37:28.804,-0.19,0.135
2021-08-19 10:37:28.808,-0.19,0.16
2021-08-19 10:37:28.812,-0.19,0.145
2021-08-19 10:37:28.816,-0.19,0.13
2021-08-19 10:37:28.820,-0.165,0.125
2021-08-19 10:37:28.824,-0.15,0.155
2021-08-19 10:37:28.828,-0.16,0.135
2021-08-19 10:37:28.832,-0.15,0.12
2021-08-19 10:37:28.836,-0.14,0.135
2021-08-19 10:37:28.840,-0.17,0.125
2021-08-19 10:37:28.844,-0.165,0.135
2021-08-19 10:37:28.848,-0.2,0.115
2021-08-19 10:37:28.852,-0.19,0.115
2021-08-19 10:37:28.856,-0.195,0.135
2021-08-19 10:37:28.860,-0.195,0.135
2021-08-19 10:37:28.864,-0.18,0.125
2021-08-19 10:37:28.868,-0.185,0.12
2021-08-19 10:37:28.872,-0.16,0.115
2021-08-19 10:37:28.876,-0.175,0.12
2021-08-19 10:37:28.880,-0.17,0.13
2021-08-19 10:37:28.884,-0.16,0.12
2021-08-19 10:37:28.888,-0.155,0.12
2021-08-19 10:37:28.892,-0.175,0.1
2021-08-19 10:37:28.896,-0.155,0.12
2021-08-19 10:37:28.900,-0.175,0.11
2021-08-19 10:37:28.904,-0.17,0.105
2021-08-19 10:37:28.908,-0.185,0.105
2021-08-19 10:37:28.912,-0.165,0.1
2021-08-19 10:37:28.916,-0.16,0.095
2021-08-19 10:37:28.920,-0.16,0.11
2021-08-19 10:37:28.924,-0.15,0.11
2021-08-19 10:37:28.928,-0.155,0.08
2021-08-19 10:37:28.932,-0.185,0.085
2021-08-19 10:37:28.936,-0.17,0.095
2021-08-19 10:37:28.940,-0.175,0.1
2021-08-19 10:37:28.944,-0.12,0.105
2021-08-19 10:37:28.948,-0.095,0.115
2021-08-19 10:37:28.952,-0.055,0.115
2021-08-19 10:37:28.956,-0.02,0.14
2021-08-19 10:37:28.960,0.0,0.16
2021-08-19 10:37:28.964,0.05,0.205
2021-08-19 10:37:28.968,0.105,0.24
2021-08-19 10:37:28.972,0.155,0.245
2021-08-19 10:37:28.976,0.18,0.245
2021-08-19 10:37:28.980,0.19,0.26
2021-08-19 10:37:28.984,0.165,0.235
2021-08-19 10:37:28.988,0.09,0.225
2021-08-19 10:37:28.992,0.025,0.21
2021-08-19 10:37:28.996,-0.025,0.165
2021-08-19 10:37:29.000,-0.075,0.105
2021-08-19 10:37:29.004,-0.11,0.085
2021-08-19 10:37:29.008,-0.14,0.075
2021-08-19 10:37:29.012,-0.145,0.08
2021-08-19 10:37:29.016,-0.17,0.075
2021-08-19 10:37:29.020,-0.195,0.075
2021-08-19 10:37:29.024,-0.235,0.06
2021-08-19 10:37:29.028,-0.24,0.07
2021-08-19 10:37:29.032,-0.26,0.045
2021-08-19 10:37:29.036,-0.24,0.045
2021-08-19 10:37:29.040,-0.24,0.065
2021-08-19 10:37:29.044,-0.225,0.03
2021-08-19 10:37:29.048,-0.2,0.03
2021-08-19 10:37:29.052,-0.165,0.03
2021-08-19 10:37:29.056,-0.09,0.045
2021-08-19 10:37:29.060,-0.04,0.08
2021-08-19 10:37:29.064,0.095,0.125
2021-08-19 10:37:29.068,0.36,0.125
2021-08-19 10:37:29.072,0.62,0.115
2021-08-19 10:37:29.076,0.755,0.065
2021-08-19 10:37:29.080,0.845,-0.045
2021-08-19 10:37:29.084,0.86,-0.385
2021-08-19 10:37:29.088,0.545,-0.855
2021-08-19 10:37:29.092,-0.275,-1.24
2021-08-19 10:37:29.096,-1.125,-1.63
2021-08-19 10:37:29.100,-1.605,-1.935
2021-08-19 10:37:29.120,-0.68,-1.88
2021-08-19 10:37:29.124,-0.52,-1.48
2021-08-19 10:37:29.128,-0.41,-1.035
2021-08-19 10:37:29.132,-0.345,-0.65
2021-08-19 10:37:29.136,-0.325,-0.37
2021-08-19 10:37:29.140,-0.315,-0.2
2021-08-19 10:37:29.144,-0.29,-0.11
2021-08-19 10:37:29.148,-0.25,-0.075
2021-08-19 10:37:29.152,-0.235,-0.035
2021-08-19 10:37:29.156,-0.24,-0.01
2021-08-19 10:37:29.160,-0.28,0.01
2021-08-19 10:37:29.164,-0.305,0.01
2021-08-19 10:37:29.168,-0.33,0.02
2021-08-19 10:37:29.172,-0.315,0.035
2021-08-19 10:37:29.176,-0.3,0.02
2021-08-19 10:37:29.180,-0.325,0.04
2021-08-19 10:37:29.184,-0.315,0.04
2021-08-19 10:37:29.188,-0.335,0.015
2021-08-19 10:37:29.192,-0.305,0.015
2021-08-19 10:37:29.196,-0.29,0.055
2021-08-19 10:37:29.200,-0.32,0.08
2021-08-19 10:37:29.204,-0.335,0.07
2021-08-19 10:37:29.208,-0.365,0.055
2021-08-19 10:37:29.212,-0.39,0.055
2021-08-19 10:37:29.216,-0.395,0.085
2021-08-19 10:37:29.220,-0.395,0.065
2021-08-19 10:37:29.224,-0.38,0.09
2021-08-19 10:37:29.228,-0.405,0.06
2021-08-19 10:37:29.232,-0.42,0.06
2021-08-19 10:37:29.236,-0.425,0.06
2021-08-19 10:37:29.240,-0.435,0.07
2021-08-19 10:37:29.244,-0.41,0.06
2021-08-19 10:37:29.248,-0.445,0.045
2021-08-19 10:37:29.252,-0.455,0.065
2021-08-19 10:37:29.256,-0.445,0.065
2021-08-19 10:37:29.260,-0.48,0.04
2021-08-19 10:37:29.264,-0.52,0.035
2021-08-19 10:37:29.268,-0.535,0.03
2021-08-19 10:37:29.272,-0.565,0.015
2021-08-19 10:37:29.276,-0.555,-0.01
2021-08-19 10:37:29.280,-0.575,-0.025
2021-08-19 10:37:29.284,-0.595,-0.01
2021-08-19 10:37:29.288,-0.6,-0.015
2021-08-19 10:37:29.292,-0.6,-0.01
2021-08-19 10:37:29.296,-0.62,-0.005
2021-08-19 10:37:29.300,-0.63,-0.055
2021-08-19 10:37:29.304,-0.655,-0.055
2021-08-19 10:37:29.308,-0.7,-0.04
2021-08-19 10:37:29.312,-0.71,-0.065
2021-08-19 10:37:29.316,-0.725,-0.06
2021-08-19 10:37:29.320,-0.735,-0.085
2021-08-19 10:37:29.324,-0.725,-0.075
2021-08-19 10:37:29.328,-0.76,-0.11
2021-08-19 10:37:29.332,-0.805,-0.08
2021-08-19 10:37:29.336,-0.79,-0.12
2021-08-19 10:37:29.340,-0.785,-0.115
2021-08-19 10:37:29.344,-0.78,-0.115
2021-08-19 10:37:29.348,-0.79,-0.13
2021-08-19 10:37:29.352,-0.8,-0.155
2021-08-19 10:37:29.356,-0.79,-0.155
2021-08-19 10:37:29.360,-0.73,-0.13
2021-08-19 10:37:29.364,-0.715,-0.155
2021-08-19 10:37:29.368,-0.685,-0.145
2021-08-19 10:37:29.372,-0.635,-0.1
2021-08-19 10:37:29.376,-0.605,-0.085
2021-08-19 10:37:29.380,-0.555,-0.105
2021-08-19 10:37:29.384,-0.54,-0.065
2021-08-19 10:37:29.388,-0.49,-0.075
2021-08-19 10:37:29.392,-0.49,-0.04
2021-08-19 10:37:29.396,-0.465,-0.03
2021-08-19 10:37:29.400,-0.47,-0.01
2021-08-19 10:37:29.404,-0.445,0.0
2021-08-19 10:37:29.408,-0.41,0.03
2021-08-19 10:37:29.412,-0.4,0.06
2021-08-19 10:37:29.416,-0.42,0.075
2021-08-19 10:37:29.420,-0.395,0.1
2021-08-19 10:37:29.424,-0.365,0.115
2021-08-19 10:37:29.428,-0.34,0.095
2021-08-19 10:37:29.432,-0.32,0.07
2021-08-19 10:37:29.436,-0.295,0.075
2021-08-19 10:37:29.440,-0.295,0.095
2021-08-19 10:37:29.444,-0.27,0.07
2021-08-19 10:37:29.448,-0.285,0.07
2021-08-19 10:37:29.452,-0.28,0.05
2021-08-19 10:37:29.456,-0.26,0.03
2021-08-19 10:37:29.460,-0.23,0.0
2021-08-19 10:37:29.464,-0.21,-0.005
2021-08-19 10:37:29.468,-0.165,0.035
2021-08-19 10:37:29.472,-0.155,0.035
2021-08-19 10:37:29.476,-0.145,0.02
2021-08-19 10:37:29.480,-0.145,0.025
2021-08-19 10:37:29.484,-0.15,0.01
2021-08-19 10:37:29.488,-0.145,0.01
2021-08-19 10:37:29.492,-0.145,-0.01
2021-08-19 10:37:29.496,-0.1,-0.015
2021-08-19 10:37:29.500,-0.07,-0.01
2021-08-19 10:37:29.504,-0.075,-0.01
2021-08-19 10:37:29.508,-0.06,-0.005
2021-08-19 10:37:29.512,-0.085,0.0
2021-08-19 10:37:29.516,-0.085,-0.025
2021-08-19 10:37:29.520,-0.065,-0.03
2021-08-19 10:37:29.524,-0.075,-0.035
2021-08-19 10:37:29.528,-0.08,-0.015
2021-08-19 10:37:29.532,-0.11,-0.05
2021-08-19 10:37:29.536,-0.09,-0.075
2021-08-19 10:37:29.540,-0.09,-0.055
2021-08-19 10:37:29.544,-0.11,-0.065
2021-08-19 10:37:29.548,-0.1,-0.08
2021-08-19 10:37:29.552,-0.085,-0.09
2021-08-19 10:37:29.556,-0.05,-0.105
2021-08-19 10:37:29.560,-0.04,-0.1
2021-08-19 10:37:29.564,-0.035,-0.085
2021-08-19 10:37:29.568,-0.115,-0.07
2021-08-19 10:37:29.572,-0.135,-0.02
2021-08-19 10:37:29.576,-0.03,0.015
2021-08-19 10:37:29.580,0.205,0.005
2021-08-19 10:37:29.584,0.465,-0.07
2021-08-19 10:37:29.588,0.79,-0.175
2021-08-19 10:37:29.592,1.09,-0.325
2021-08-19 10:37:29.596,0.895,-0.35
2021-08-19 10:37:29.600,0.095,-0.295
2021-08-19 10:37:29.604,-0.815,-0.195
2021-08-19 10:37:29.608,-1.39,-0.115
2021-08-19 10:37:29.612,-1.54,-0.24
2021-08-19 10:37:29.616,-1.51,-0.5
2021-08-19 10:37:29.620,-1.445,-0.715
2021-08-19 10:37:29.624,-1.36,-0.775
2021-08-19 10:37:29.628,-1.235,-0.695
2021-08-19 10:37:29.632,-1.13,-0.645
2021-08-19 10:37:29.636,-0.905,-0.675
2021-08-19 10:37:29.640,-0.635,-0.705
2021-08-19 10:37:29.644,-0.435,-0.705
2021-08-19 10:37:29.648,-0.265,-0.635
2021-08-19 10:37:29.652,-0.15,-0.55
2021-08-19 10:37:29.656,-0.08,-0.455
2021-08-19 10:37:29.660,-0.09,-0.37
2021-08-19 10:37:29.664,-0.1,-0.32
2021-08-19 10:37:29.668,-0.075,-0.295
2021-08-19 10:37:29.672,-0.085,-0.27
2021-08-19 10:37:29.676,-0.09,-0.26
2021-08-19 10:37:29.680,-0.075,-0.265
2021-08-19 10:37:29.684,-0.075,-0.265
2021-08-19 10:37:29.688,-0.075,-0.28
2021-08-19 10:37:29.692,-0.07,-0.28
2021-08-19 10:37:29.696,-0.065,-0.28
2021-08-19 10:37:29.700,-0.05,-0.265
2021-08-19 10:37:29.704,-0.06,-0.255
2021-08-19 10:37:29.708,-0.08,-0.26
2021-08-19 10:37:29.712,-0.115,-0.25
2021-08-19 10:37:29.716,-0.12,-0.24
2021-08-19 10:37:29.720,-0.105,-0.285
2021-08-19 10:37:29.724,-0.08,-0.305
2021-08-19 10:37:29.728,-0.09,-0.305
2021-08-19 10:37:29.732,-0.1,-0.32
2021-08-19 10:37:29.736,-0.12,-0.315
2021-08-19 10:37:29.740,-0.1,-0.34
2021-08-19 10:37:29.744,-0.115,-0.34
2021-08-19 10:37:29.748,-0.14,-0.36
2021-08-19 10:37:29.752,-0.145,-0.35
2021-08-19 10:37:29.756,-0.17,-0.365
2021-08-19 10:37:29.760,-0.155,-0.39
2021-08-19 10:37:29.764,-0.19,-0.39
2021-08-19 10:37:29.768,-0.22,-0.415
2021-08-19 10:37:29.772,-0.24,-0.43
2021-08-19 10:37:29.776,-0.28,-0.45
2021-08-19 10:37:29.780,-0.31,-0.46
2021-08-19 10:37:29.784,-0.27,-0.465
2021-08-19 10:37:29.788,-0.26,-0.49
2021-08-19 10:37:29.792,-0.25,-0.48
2021-08-19 10:37:29.796,-0.265,-0.475
2021-08-19 10:37:29.800,-0.29,-0.49
2021-08-19 10:37:29.804,-0.33,-0.49
2021-08-19 10:37:29.808,-0.32,-0.51
2021-08-19 10:37:29.812,-0.365,-0.53
2021-08-19 10:37:29.816,-0.405,-0.555
2021-08-19 10:37:29.820,-0.43,-0.55
2021-08-19 10:37:29.824,-0.44,-0.56
2021-08-19 10:37:29.828,-0.435,-0.585
2021-08-19 10:37:29.832,-0.4,-0.605
2021-08-19 10:37:29.836,-0.375,-0.6
2021-08-19 10:37:29.840,-0.355,-0.635
2021-08-19 10:37:29.844,-0.36,-0.67
2021-08-19 10:37:29.848,-0.36,-0.665
2021-08-19 10:37:29.852,-0.345,-0.71
2021-08-19 10:37:29.856,-0.335,-0.71
2021-08-19 10:37:29.860,-0.295,-0.68
2021-08-19 10:37:29.864,-0.255,-0.7
2021-08-19 10:37:29.868,-0.205,-0.715
2021-08-19 10:37:29.872,-0.135,-0.715
2021-08-19 10:37:29.876,-0.08,-0.73
2021-08-19 10:37:29.880,-0.07,-0.71
2021-08-19 10:37:29.884,-0.04,-0.675
2021-08-19 10:37:29.888,0.035,-0.66
2021-08-19 10:37:29.892,0.065,-0.65
2021-08-19 10:37:29.896,0.095,-0.605
2021-08-19 10:37:29.900,0.085,-0.57
2021-08-19 10:37:29.904,0.105,-0.54
2021-08-19 10:37:29.908,0.115,-0.51
2021-08-19 10:37:29.912,0.125,-0.475
2021-08-19 10:37:29.916,0.135,-0.435
2021-08-19 10:37:29.920,0.135,-0.38
2021-08-19 10:37:29.924,0.17,-0.36
2021-08-19 10:37:29.928,0.175,-0.32
2021-08-19 10:37:29.932,0.14,-0.34
2021-08-19 10:37:29.936,0.075,-0.315
2021-08-19 10:37:29.940,0.08,-0.275
2021-08-19 10:37:29.944,0.07,-0.26
2021-08-19 10:37:29.948,0.03,-0.255
2021-08-19 10:37:29.952,0.015,-0.245
2021-08-19 10:37:29.956,-0.02,-0.235
2021-08-19 10:37:29.960,0.015,-0.245
2021-08-19 10:37:29.964,0.005,-0.26
2021-08-19 10:37:29.968,0.015,-0.24
2021-08-19 10:37:29.972,0.005,-0.24
2021-08-19 10:37:29.976,0.03,-0.24
2021-08-19 10:37:29.980,0.0,-0.24
2021-08-19 10:37:29.984,-0.02,-0.255
2021-08-19 10:37:29.988,-0.045,-0.245
2021-08-19 10:37:29.992,-0.075,-0.255
2021-08-19 10:37:29.996,-0.1,-0.25
2021-08-19 10:37:30.000,-0.075,-0.245
2021-08-19 10:37:30.004,-0.045,-0.26
2021-08-19 10:37:30.008,-0.05,-0.28
2021-08-19 10:37:30.012,-0.08,-0.28
2021-08-19 10:37:30.016,-0.075,-0.265
2021-08-19 10:37:30.020,-0.095,-0.255
2021-08-19 10:37:30.024,-0.08,-0.26
2021-08-19 10:37:30.028,-0.08,-0.255
2021-08-19 10:37:30.032,-0.06,-0.25
2021-08-19 10:37:30.036,-0.055,-0.25
2021-08-19 10:37:30.040,-0.075,-0.28
2021-08-19 10:37:30.044,-0.115,-0.26
2021-08-19 10:37:30.048,-0.115,-0.275
2021-08-19 10:37:30.052,-0.11,-0.285
2021-08-19 10:37:30.056,-0.11,-0.235
2021-08-19 10:37:30.060,-0.08,-0.285
2021-08-19 10:37:30.064,-0.07,-0.275
2021-08-19 10:37:30.068,-0.06,-0.255
2021-08-19 10:37:30.072,-0.06,-0.265
2021-08-19 10:37:30.076,-0.095,-0.265
2021-08-19 10:37:30.080,-0.06,-0.26
2021-08-19 10:37:30.084,-0.085,-0.24
2021-08-19 10:37:30.088,-0.16,-0.235
2021-08-19 10:37:30.092,-0.15,-0.25
2021-08-19 10:37:30.096,-0.145,-0.265
2021-08-19 10:37:30.100,-0.135,-0.245
2021-08-19 10:37:30.104,-0.11,-0.26
2021-08-19 10:37:30.108,-0.1,-0.26
2021-08-19 10:37:30.112,-0.1,-0.265
2021-08-19 10:37:30.116,-0.08,-0.25
2021-08-19 10:37:30.120,-0.08,-0.265
2021-08-19 10:37:30.124,-0.09,-0.265
2021-08-19 10:37:30.128,-0.09,-0.275
2021-08-19 10:37:30.132,-0.105,-0.26
2021-08-19 10:37:30.136,-0.105,-0.27
2021-08-19 10:37:30.140,-0.115,-0.265
2021-08-19 10:37:30.144,-0.14,-0.295
2021-08-19 10:37:30.148,-0.16,-0.28
2021-08-19 10:37:30.152,-0.145,-0.27
2021-08-19 10:37:30.156,-0.1,-0.29
2021-08-19 10:37:30.160,-0.08,-0.285
2021-08-19 10:37:30.164,-0.07,-0.28
2021-08-19 10:37:30.168,-0.085,-0.28
2021-08-19 10:37:30.172,-0.08,-0.3
2021-08-19 10:37:30.176,-0.09,-0.3
2021-08-19 10:37:30.180,-0.09,-0.315
2021-08-19 10:37:30.184,-0.085,-0.285
2021-08-19 10:37:30.188,-0.065,-0.28
2021-08-19 10:37:30.192,0.005,-0.3
2021-08-19 10:37:30.196,0.05,-0.275
2021-08-19 10:37:30.200,0.145,-0.235
2021-08-19 10:37:30.204,0.235,-0.205
2021-08-19 10:37:30.208,0.255,-0.15
2021-08-19 10:37:30.212,0.27,-0.11
2021-08-19 10:37:30.216,0.295,-0.09
2021-08-19 10:37:30.220,0.275,-0.125
2021-08-19 10:37:30.224,0.235,-0.15
2021-08-19 10:37:30.228,0.205,-0.15
2021-08-19 10:37:30.232,0.15,-0.145
2021-08-19 10:37:30.236,0.1,-0.205
2021-08-19 10:37:30.240,0.075,-0.21
2021-08-19 10:37:30.244,0.015,-0.21
2021-08-19 10:37:30.248,-0.015,-0.215
2021-08-19 10:37:30.252,-0.05,-0.215
2021-08-19 10:37:30.256,-0.115,-0.21
2021-08-19 10:37:30.260,-0.15,-0.23
2021-08-19 10:37:30.264,-0.175,-0.27
2021-08-19 10:37:30.268,-0.195,-0.28
2021-08-19 10:37:30.272,-0.165,-0.3
2021-08-19 10:37:30.276,-0.14,-0.32
2021-08-19 10:37:30.280,-0.165,-0.32
2021-08-19 10:37:30.284,-0.185,-0.33
2021-08-19 10:37:30.288,-0.15,-0.36
2021-08-19 10:37:30.292,-0.04,-0.32
2021-08-19 10:37:30.296,0.065,-0.23
2021-08-19 10:37:30.300,0.265,-0.16
2021-08-19 10:37:30.304,0.545,-0.125
2021-08-19 10:37:30.308,0.855,-0.14
2021-08-19 10:37:30.312,1.04,-0.16
2021-08-19 10:37:30.316,1.17,-0.245
2021-08-19 10:37:30.320,1.09,-0.49
2021-08-19 10:37:30.324,0.565,-0.8
2021-08-19 10:37:30.328,-0.33,-1.09
2021-08-19 10:37:30.332,-1.11,-1.41
2021-08-19 10:37:30.336,-1.445,-1.67
2021-08-19 10:37:30.340,-1.505,-1.955
2021-08-19 10:37:30.356,-0.805,-1.755
2021-08-19 10:37:30.360,-0.605,-1.465
2021-08-19 10:37:30.364,-0.47,-1.24
2021-08-19 10:37:30.368,-0.39,-1.0
2021-08-19 10:37:30.372,-0.335,-0.75
2021-08-19 10:37:30.376,-0.315,-0.56
2021-08-19 10:37:30.380,-0.33,-0.435
2021-08-19 10:37:30.384,-0.33,-0.39
2021-08-19 10:37:30.388,-0.29,-0.355
2021-08-19 10:37:30.392,-0.25,-0.335
2021-08-19 10:37:30.396,-0.27,-0.305
2021-08-19 10:37:30.400,-0.31,-0.3
2021-08-19 10:37:30.404,-0.31,-0.3
2021-08-19 10:37:30.408,-0.335,-0.28
2021-08-19 10:37:30.412,-0.345,-0.275
2021-08-19 10:37:30.416,-0.315,-0.3
2021-08-19 10:37:30.420,-0.305,-0.275
2021-08-19 10:37:30.424,-0.3,-0.255
2021-08-19 10:37:30.428,-0.32,-0.27
2021-08-19 10:37:30.432,-0.31,-0.285
2021-08-19 10:37:30.436,-0.31,-0.3
2021-08-19 10:37:30.440,-0.32,-0.27
2021-08-19 10:37:30.444,-0.33,-0.26
2021-08-19 10:37:30.448,-0.315,-0.265
2021-08-19 10:37:30.452,-0.325,-0.24
2021-08-19 10:37:30.456,-0.38,-0.24
2021-08-19 10:37:30.460,-0.41,-0.265
2021-08-19 10:37:30.464,-0.41,-0.27
2021-08-19 10:37:30.468,-0.395,-0.265
2021-08-19 10:37:30.472,-0.41,-0.275
2021-08-19 10:37:30.476,-0.43,-0.25
2021-08-19 10:37:30.480,-0.46,-0.28
2021-08-19 10:37:30.484,-0.48,-0.235
2021-08-19 10:37:30.488,-0.495,-0.265
2021-08-19 10:37:30.492,-0.52,-0.29
2021-08-19 10:37:30.496,-0.57,-0.285
2021-08-19 10:37:30.500,-0.61,-0.31
2021-08-19 10:37:30.504,-0.62,-0.275
2021-08-19 10:37:30.508,-0.62,-0.285
2021-08-19 10:37:30.512,-0.64,-0.265
2021-08-19 10:37:30.516,-0.67,-0.26
2021-08-19 10:37:30.520,-0.685,-0.275
2021-08-19 10:37:30.524,-0.705,-0.275
2021-08-19 10:37:30.528,-0.71,-0.295
2021-08-19 10:37:30.532,-0.69,-0.31
2021-08-19 10:37:30.536,-0.715,-0.3
2021-08-19 10:37:30.540,-0.74,-0.31
2021-08-19 10:37:30.544,-0.77,-0.34
2021-08-19 10:37:30.548,-0.82,-0.35
2021-08-19 10:37:30.552,-0.83,-0.355
2021-08-19 10:37:30.556,-0.835,-0.35
2021-08-19 10:37:30.560,-0.84,-0.4
2021-08-19 10:37:30.564,-0.89,-0.39
2021-08-19 10:37:30.568,-0.89,-0.395
2021-08-19 10:37:30.572,-0.885,-0.43
2021-08-19 10:37:30.576,-0.88,-0.41
2021-08-19 10:37:30.580,-0.865,-0.415
2021-08-19 10:37:30.584,-0.885,-0.4
2021-08-19 10:37:30.588,-0.89,-0.45
2021-08-19 10:37:30.592,-0.855,-0.445
2021-08-19 10:37:30.596,-0.84,-0.45
2021-08-19 10:37:30.600,-0.82,-0.44
2021-08-19 10:37:30.604,-0.8,-0.425
2021-08-19 10:37:30.608,-0.78,-0.365
2021-08-19 10:37:30.612,-0.715,-0.335
2021-08-19 10:37:30.616,-0.655,-0.335
2021-08-19 10:37:30.620,-0.6,-0.32
2021-08-19 10:37:30.624,-0.565,-0.33
2021-08-19 10:37:30.628,-0.5,-0.325
2021-08-19 10:37:30.632,-0.48,-0.29
2021-08-19 10:37:30.636,-0.5,-0.27
2021-08-19 10:37:30.640,-0.5,-0.245
2021-08-19 10:37:30.644,-0.465,-0.215
2021-08-19 10:37:30.648,-0.415,-0.17
2021-08-19 10:37:30.652,-0.415,-0.15
2021-08-19 10:37:30.656,-0.37,-0.12
2021-08-19 10:37:30.660,-0.35,-0.095
2021-08-19 10:37:30.664,-0.355,-0.115
2021-08-19 10:37:30.668,-0.32,-0.15
2021-08-19 10:37:30.672,-0.315,-0.16
2021-08-19 10:37:30.676,-0.32,-0.145
2021-08-19 10:37:30.680,-0.335,-0.155
2021-08-19 10:37:30.684,-0.345,-0.155
2021-08-19 10:37:30.688,-0.355,-0.17
2021-08-19 10:37:30.692,-0.345,-0.195
2021-08-19 10:37:30.696,-0.31,-0.21
2021-08-19 10:37:30.700,-0.3,-0.21
2021-08-19 10:37:30.704,-0.27,-0.235
2021-08-19 10:37:30.708,-0.25,-0.265
2021-08-19 10:37:30.712,-0.215,-0.29
2021-08-19 10:37:30.716,-0.225,-0.26
2021-08-19 10:37:30.720,-0.225,-0.26
2021-08-19 10:37:30.724,-0.225,-0.245
2021-08-19 10:37:30.728,-0.23,-0.27
2021-08-19 10:37:30.732,-0.23,-0.26
2021-08-19 10:37:30.736,-0.255,-0.28
2021-08-19 10:37:30.740,-0.245,-0.255
2021-08-19 10:37:30.744,-0.24,-0.26
2021-08-19 10:37:30.748,-0.22,-0.25
2021-08-19 10:37:30.752,-0.22,-0.275
2021-08-19 10:37:30.756,-0.23,-0.285
2021-08-19 10:37:30.760,-0.21,-0.3
2021-08-19 10:37:30.764,-0.225,-0.305
2021-08-19 10:37:30.768,-0.22,-0.305
2021-08-19 10:37:30.772,-0.22,-0.28
2021-08-19 10:37:30.776,-0.25,-0.28
2021-08-19 10:37:30.780,-0.265,-0.24
2021-08-19 10:37:30.784,-0.315,-0.255
2021-08-19 10:37:30.788,-0.34,-0.225
2021-08-19 10:37:30.792,-0.34,-0.165
2021-08-19 10:37:30.796,-0.22,-0.155
2021-08-19 10:37:30.800,0.005,-0.19
2021-08-19 10:37:30.804,0.235,-0.205
2021-08-19 10:37:30.808,0.49,-0.28
2021-08-19 10:37:30.812,0.69,-0.44
2021-08-19 10:37:30.816,0.54,-0.47
2021-08-19 10:37:30.820,-0.125,-0.46
2021-08-19 10:37:30.824,-0.965,-0.41
2021-08-19 10:37:30.828,-1.54,-0.305
2021-08-19 10:37:30.832,-1.755,-0.265
2021-08-19 10:37:30.836,-1.73,-0.36
2021-08-19 10:37:30.840,-1.675,-0.48
2021-08-19 10:37:30.844,-1.625,-0.565
2021-08-19 10:37:30.848,-1.55,-0.565
2021-08-19 10:37:30.852,-1.44,-0.535
2021-08-19 10:37:30.856,-1.27,-0.565
2021-08-19 10:37:30.860,-1.065,-0.665
2021-08-19 10:37:30.864,-0.83,-0.735
2021-08-19 10:37:30.868,-0.58,-0.715
2021-08-19 10:37:30.872,-0.42,-0.67
2021-08-19 10:37:30.876,-0.3,-0.63
2021-08-19 10:37:30.880,-0.265,-0.565
2021-08-19 10:37:30.884,-0.26,-0.475
2021-08-19 10:37:30.888,-0.225,-0.4
2021-08-19 10:37:30.892,-0.19,-0.38
2021-08-19 10:37:30.896,-0.145,-0.36
2021-08-19 10:37:30.900,-0.095,-0.335
2021-08-19 10:37:30.904,-0.105,-0.345
2021-08-19 10:37:30.908,-0.105,-0.335
2021-08-19 10:37:30.912,-0.13,-0.295
2021-08-19 10:37:30.916,-0.18,-0.295
2021-08-19 10:37:30.920,-0.18,-0.32
2021-08-19 10:37:30.924,-0.185,-0.33
2021-08-19 10:37:30.928,-0.18,-0.305
2021-08-19 10:37:30.932,-0.165,-0.305
2021-08-19 10:37:30.936,-0.17,-0.32
2021-08-19 10:37:30.940,-0.16,-0.33
2021-08-19 10:37:30.944,-0.16,-0.315
2021-08-19 10:37:30.948,-0.17,-0.32
2021-08-19 10:37:30.952,-0.225,-0.35
2021-08-19 10:37:30.956,-0.26,-0.34
2021-08-19 10:37:30.960,-0.28,-0.395
2021-08-19 10:37:30.964,-0.31,-0.415
2021-08-19 10:37:30.968,-0.34,-0.44
2021-08-19 10:37:30.972,-0.37,-0.48
2021-08-19 10:37:30.976,-0.395,-0.505
2021-08-19 10:37:30.980,-0.4,-0.52
2021-08-19 10:37:30.984,-0.395,-0.51
2021-08-19 10:37:30.988,-0.415,-0.535
2021-08-19 10:37:30.992,-0.445,-0.58
2021-08-19 10:37:30.996,-0.46,-0.6
2021-08-19 10:37:31.000,-0.49,-0.615
2021-08-19 10:37:31.004,-0.495,-0.635
2021-08-19 10:37:31.008,-0.55,-0.64
2021-08-19 10:37:31.012,-0.565,-0.675
2021-08-19 10:37:31.016,-0.585,-0.69
2021-08-19 10:37:31.020,-0.615,-0.69
2021-08-19 10:37:31.024,-0.615,-0.75
2021-08-19 10:37:31.028,-0.65,-0.755
2021-08-19 10:37:31.032,-0.66,-0.815
2021-08-19 10:37:31.036,-0.65,-0.79
2021-08-19 10:37:31.040,-0.66,-0.81
2021-08-19 10:37:31.044,-0.67,-0.825
2021-08-19 10:37:31.048,-0.66,-0.855
2021-08-19 10:37:31.052,-0.675,-0.84
2021-08-19 10:37:31.056,-0.7,-0.85
2021-08-19 10:37:31.060,-0.7,-0.87
2021-08-19 10:37:31.064,-0.705,-0.87
2021-08-19 10:37:31.068,-0.675,-0.865
2021-08-19 10:37:31.072,-0.675,-0.88
2021-08-19 10:37:31.076,-0.61,-0.9
2021-08-19 10:37:31.080,-0.54,-0.935
2021-08-19 10:37:31.084,-0.49,-0.93
2021-08-19 10:37:31.088,-0.44,-0.95
2021-08-19 10:37:31.092,-0.385,-0.915
2021-08-19 10:37:31.096,-0.355,-0.95
2021-08-19 10:37:31.100,-0.35,-0.93
2021-08-19 10:37:31.104,-0.315,-0.91
2021-08-19 10:37:31.108,-0.29,-0.885
2021-08-19 10:37:31.112,-0.23,-0.855
2021-08-19 10:37:31.116,-0.21,-0.82
2021-08-19 10:37:31.120,-0.185,-0.775
2021-08-19 10:37:31.124,-0.135,-0.74
2021-08-19 10:37:31.128,-0.065,-0.705
2021-08-19 10:37:31.132,-0.035,-0.64
2021-08-19 10:37:31.136,-0.045,-0.58
2021-08-19 10:37:31.140,-0.05,-0.56
2021-08-19 10:37:31.144,-0.08,-0.5
2021-08-19 10:37:31.148,-0.09,-0.45
2021-08-19 10:37:31.152,-0.12,-0.43
2021-08-19 10:37:31.156,-0.135,-0.4
2021-08-19 10:37:31.160,-0.17,-0.355
2021-08-19 10:37:31.164,-0.155,-0.34
2021-08-19 10:37:31.168,-0.155,-0.295
2021-08-19 10:37:31.172,-0.17,-0.3
2021-08-19 10:37:31.176,-0.175,-0.29
2021-08-19 10:37:31.180,-0.19,-0.24
2021-08-19 10:37:31.184,-0.205,-0.245
2021-08-19 10:37:31.188,-0.22,-0.245
2021-08-19 10:37:31.192,-0.235,-0.23
2021-08-19 10:37:31.196,-0.24,-0.195
2021-08-19 10:37:31.200,-0.255,-0.205
2021-08-19 10:37:31.204,-0.275,-0.24
2021-08-19 10:37:31.208,-0.28,-0.225
2021-08-19 10:37:31.212,-0.295,-0.21
2021-08-19 10:37:31.216,-0.27,-0.21
2021-08-19 10:37:31.220,-0.27,-0.21
2021-08-19 10:37:31.224,-0.275,-0.19
2021-08-19 10:37:31.228,-0.275,-0.24
2021-08-19 10:37:31.232,-0.26,-0.22
2021-08-19 10:37:31.236,-0.305,-0.21
2021-08-19 10:37:31.240,-0.325,-0.205
2021-08-19 10:37:31.244,-0.32,-0.22
2021-08-19 10:37:31.248,-0.32,-0.215
2021-08-19 10:37:31.252,-0.32,-0.21
2021-08-19 10:37:31.256,-0.325,-0.21
2021-08-19 10:37:31.260,-0.32,-0.205
2021-08-19 10:37:31.264,-0.315,-0.205
2021-08-19 10:37:31.268,-0.3,-0.22
2021-08-19 10:37:31.272,-0.305,-0.205
2021-08-19 10:37:31.276,-0.325,-0.195
2021-08-19 10:37:31.280,-0.32,-0.175
2021-08-19 10:37:31.284,-0.345,-0.2
2021-08-19 10:37:31.288,-0.34,-0.2
2021-08-19 10:37:31.292,-0.33,-0.23
2021-08-19 10:37:31.296,-0.355,-0.22
2021-08-19 10:37:31.300,-0.37,-0.225
2021-08-19 10:37:31.304,-0.365,-0.255
2021-08-19 10:37:31.308,-0.34,-0.215
2021-08-19 10:37:31.312,-0.335,-0.22
2021-08-19 10:37:31.316,-0.305,-0.22
2021-08-19 10:37:31.320,-0.325,-0.22
2021-08-19 10:37:31.324,-0.34,-0.235
2021-08-19 10:37:31.328,-0.36,-0.25
2021-08-19 10:37:31.332,-0.39,-0.215
2021-08-19 10:37:31.336,-0.355,-0.225
2021-08-19 10:37:31.340,-0.385,-0.24
2021-08-19 10:37:31.344,-0.36,-0.235
2021-08-19 10:37:31.348,-0.365,-0.235
2021-08-19 10:37:31.352,-0.33,-0.24
2021-08-19 10:37:31.356,-0.3,-0.25
2021-08-19 10:37:31.360,-0.24,-0.24
2021-08-19 10:37:31.364,-0.21,-0.23
2021-08-19 10:37:31.368,-0.145,-0.225
2021-08-19 10:37:31.372,-0.1,-0.18
2021-08-19 10:37:31.376,-0.04,-0.13
2021-08-19 10:37:31.380,0.035,-0.095
2021-08-19 10:37:31.384,0.04,-0.06
2021-08-19 10:37:31.388,0.06,-0.01
2021-08-19 10:37:31.392,0.08,0.01
2021-08-19 10:37:31.396,0.11,0.005
2021-08-19 10:37:31.400,0.05,-0.035
2021-08-19 10:37:31.404,0.015,-0.06
2021-08-19 10:37:31.408,-0.045,-0.1
2021-08-19 10:37:31.412,-0.125,-0.115
2021-08-19 10:37:31.416,-0.19,-0.145
2021-08-19 10:37:31.420,-0.245,-0.11
2021-08-19 10:37:31.424,-0.32,-0.125
2021-08-19 10:37:31.428,-0.37,-0.14
2021-08-19 10:37:31.432,-0.415,-0.175
2021-08-19 10:37:31.436,-0.435,-0.185
2021-08-19 10:37:31.440,-0.455,-0.215
2021-08-19 10:37:31.444,-0.435,-0.205
2021-08-19 10:37:31.448,-0.41,-0.275
2021-08-19 10:37:31.452,-0.42,-0.27
2021-08-19 10:37:31.456,-0.435,-0.26
2021-08-19 10:37:31.460,-0.42,-0.25
2021-08-19 10:37:31.464,-0.41,-0.26
2021-08-19 10:37:31.468,-0.42,-0.26
2021-08-19 10:37:31.472,-0.43,-0.27
2021-08-19 10:37:31.476,-0.385,-0.26
2021-08-19 10:37:31.480,-0.32,-0.225
2021-08-19 10:37:31.484,-0.25,-0.185
2021-08-19 10:37:31.488,-0.055,-0.14
2021-08-19 10:37:31.492,0.185,-0.19
2021-08-19 10:37:31.496,0.415,-0.2
2021-08-19 10:37:31.500,0.53,-0.27
2021-08-19 10:37:31.504,0.61,-0.475
2021-08-19 10:37:31.508,0.52,-0.87
2021-08-19 10:37:31.512,-0.025,-1.285
2021-08-19 10:37:31.516,-0.985,-1.675
2021-08-19 10:37:31.544,-0.85,-1.965
2021-08-19 10:37:31.548,-0.71,-1.555
2021-08-19 10:37:31.552,-0.615,-1.14
2021-08-19 10:37:31.556,-0.56,-0.805
2021-08-19 10:37:31.560,-0.57,-0.595
2021-08-19 10:37:31.564,-0.56,-0.435
2021-08-19 10:37:31.568,-0.56,-0.325
2021-08-19 10:37:31.572,-0.55,-0.275
2021-08-19 10:37:31.576,-0.56,-0.26
2021-08-19 10:37:31.580,-0.535,-0.25
2021-08-19 10:37:31.584,-0.54,-0.25
2021-08-19 10:37:31.588,-0.53,-0.215
2021-08-19 10:37:31.592,-0.54,-0.205
2021-08-19 10:37:31.596,-0.56,-0.215
2021-08-19 10:37:31.600,-0.58,-0.215
2021-08-19 10:37:31.604,-0.6,-0.2
2021-08-19 10:37:31.608,-0.605,-0.17
2021-08-19 10:37:31.612,-0.61,-0.165
2021-08-19 10:37:31.616,-0.63,-0.18
2021-08-19 10:37:31.620,-0.63,-0.165
2021-08-19 10:37:31.624,-0.63,-0.185
2021-08-19 10:37:31.628,-0.625,-0.18
2021-08-19 10:37:31.632,-0.625,-0.185
2021-08-19 10:37:31.636,-0.625,-0.195
2021-08-19 10:37:31.640,-0.66,-0.175
2021-08-19 10:37:31.644,-0.67,-0.185
2021-08-19 10:37:31.648,-0.675,-0.17
2021-08-19 10:37:31.652,-0.715,-0.195
2021-08-19 10:37:31.656,-0.71,-0.2
2021-08-19 10:37:31.660,-0.72,-0.19
2021-08-19 10:37:31.664,-0.745,-0.195
2021-08-19 10:37:31.668,-0.78,-0.205
2021-08-19 10:37:31.672,-0.77,-0.195
2021-08-19 10:37:31.676,-0.77,-0.195
2021-08-19 10:37:31.680,-0.775,-0.2
2021-08-19 10:37:31.684,-0.785,-0.19
2021-08-19 10:37:31.688,-0.8,-0.19
2021-08-19 10:37:31.692,-0.845,-0.19
2021-08-19 10:37:31.696,-0.88,-0.215
2021-08-19 10:37:31.700,-0.9,-0.22
2021-08-19 10:37:31.704,-0.92,-0.235
2021-08-19 10:37:31.708,-0.95,-0.225
2021-08-19 10:37:31.712,-0.955,-0.27
2021-08-19 10:37:31.716,-0.965,-0.26
2021-08-19 10:37:31.720,-0.965,-0.26
2021-08-19 10:37:31.724,-0.985,-0.255
2021-08-19 10:37:31.728,-1.0,-0.27
2021-08-19 10:37:31.732,-1.01,-0.275
2021-08-19 10:37:31.736,-1.04,-0.275
2021-08-19 10:37:31.740,-1.08,-0.285
2021-08-19 10:37:31.744,-1.085,-0.28
2021-08-19 10:37:31.748,-1.09,-0.285
2021-08-19 10:37:31.752,-1.115,-0.31
2021-08-19 10:37:31.756,-1.16,-0.32
2021-08-19 10:37:31.760,-1.15,-0.31
2021-08-19 10:37:31.764,-1.155,-0.325
2021-08-19 10:37:31.768,-1.135,-0.33
2021-08-19 10:37:31.772,-1.185,-0.31
2021-08-19 10:37:31.776,-1.21,-0.285
2021-08-19 10:37:31.780,-1.21,-0.31
2021-08-19 10:37:31.784,-1.245,-0.32
2021-08-19 10:37:31.788,-1.25,-0.335
2021-08-19 10:37:31.792,-1.25,-0.315
2021-08-19 10:37:31.796,-1.185,-0.305
2021-08-19 10:37:31.800,-1.075,-0.3
2021-08-19 10:37:31.804,-1.025,-0.32
2021-08-19 10:37:31.808,-0.99,-0.27
2021-08-19 10:37:31.812,-0.95,-0.23
2021-08-19 10:37:31.816,-0.9,-0.195
2021-08-19 10:37:31.820,-0.815,-0.21
2021-08-19 10:37:31.824,-0.745,-0.205
2021-08-19 10:37:31.828,-0.665,-0.18
2021-08-19 10:37:31.832,-0.59,-0.145
2021-08-19 10:37:31.836,-0.56,-0.125
2021-08-19 10:37:31.840,-0.5,-0.065
2021-08-19 10:37:31.844,-0.455,-0.02
2021-08-19 10:37:31.848,-0.46,0.005
2021-08-19 10:37:31.852,-0.455,0.05
2021-08-19 10:37:31.856,-0.46,0.02
2021-08-19 10:37:31.860,-0.445,-0.015
2021-08-19 10:37:31.864,-0.4,-0.05
2021-08-19 10:37:31.868,-0.385,-0.085
2021-08-19 10:37:31.872,-0.375,-0.1
2021-08-19 10:37:31.876,-0.36,-0.105
2021-08-19 10:37:31.880,-0.385,-0.105
2021-08-19 10:37:31.884,-0.345,-0.115
2021-08-19 10:37:31.888,-0.37,-0.11
2021-08-19 10:37:31.892,-0.35,-0.1
2021-08-19 10:37:31.896,-0.32,-0.12
2021-08-19 10:37:31.900,-0.315,-0.125
2021-08-19 10:37:31.904,-0.31,-0.135
2021-08-19 10:37:31.908,-0.295,-0.11
2021-08-19 10:37:31.912,-0.3,-0.125
2021-08-19 10:37:31.916,-0.3,-0.115
2021-08-19 10:37:31.920,-0.3,-0.13
2021-08-19 10:37:31.924,-0.3,-0.14
2021-08-19 10:37:31.928,-0.32,-0.17
2021-08-19 10:37:31.932,-0.34,-0.155
2021-08-19 10:37:31.936,-0.33,-0.165
2021-08-19 10:37:31.940,-0.34,-0.17
2021-08-19 10:37:31.944,-0.32,-0.175
2021-08-19 10:37:31.948,-0.285,-0.16
2021-08-19 10:37:31.952,-0.28,-0.17
2021-08-19 10:37:31.956,-0.315,-0.19
2021-08-19 10:37:31.960,-0.32,-0.19
2021-08-19 10:37:31.964,-0.365,-0.18
2021-08-19 10:37:31.968,-0.445,-0.14
2021-08-19 10:37:31.972,-0.5,-0.105
2021-08-19 10:37:31.976,-0.405,-0.125
2021-08-19 10:37:31.980,-0.185,-0.215
2021-08-19 10:37:31.984,-0.01,-0.3
2021-08-19 10:37:31.988,0.185,-0.465
2021-08-19 10:37:31.992,0.255,-0.59
2021-08-19 10:37:31.996,-0.205,-0.57
2021-08-19 10:37:32.000,-1.03,-0.445
2021-08-19 10:37:32.004,-1.62,-0.335
2021-08-19 10:37:32.008,-1.88,-0.195
2021-08-19 10:37:32.012,-1.96,-0.14
2021-08-19 10:37:32.016,-1.935,-0.105
2021-08-19 10:37:32.020,-1.895,-0.05
2021-08-19 10:37:32.024,-1.845,0.12
2021-08-19 10:37:32.028,-1.84,0.39
2021-08-19 10:37:32.032,-1.755,0.65
2021-08-19 10:37:32.036,-1.61,0.785
2021-08-19 10:37:32.040,-1.48,0.735
2021-08-19 10:37:32.044,-1.32,0.665
2021-08-19 10:37:32.048,-1.05,0.695
2021-08-19 10:37:32.052,-0.77,0.665
2021-08-19 10:37:32.056,-0.535,0.535
2021-08-19 10:37:32.060,-0.46,0.345
2021-08-19 10:37:32.064,-0.365,0.135
2021-08-19 10:37:32.068,-0.315,-0.03
2021-08-19 10:37:32.072,-0.28,-0.16
2021-08-19 10:37:32.076,-0.26,-0.28
2021-08-19 10:37:32.080,-0.25,-0.385
2021-08-19 10:37:32.084,-0.25,-0.45
2021-08-19 10:37:32.088,-0.235,-0.47
2021-08-19 10:37:32.092,-0.225,-0.49
2021-08-19 10:37:32.096,-0.21,-0.5
2021-08-19 10:37:32.100,-0.235,-0.485
2021-08-19 10:37:32.104,-0.245,-0.485
2021-08-19 10:37:32.108,-0.265,-0.505
2021-08-19 10:37:32.112,-0.24,-0.545
2021-08-19 10:37:32.116,-0.265,-0.535
2021-08-19 10:37:32.120,-0.285,-0.54
2021-08-19 10:37:32.124,-0.27,-0.545
2021-08-19 10:37:32.128,-0.285,-0.525
2021-08-19 10:37:32.132,-0.265,-0.55
2021-08-19 10:37:32.136,-0.265,-0.555
2021-08-19 10:37:32.140,-0.295,-0.58
2021-08-19 10:37:32.144,-0.31,-0.6
2021-08-19 10:37:32.148,-0.31,-0.61
2021-08-19 10:37:32.152,-0.355,-0.61
2021-08-19 10:37:32.156,-0.365,-0.615
2021-08-19 10:37:32.160,-0.38,-0.66
2021-08-19 10:37:32.164,-0.405,-0.675
2021-08-19 10:37:32.168,-0.41,-0.69
2021-08-19 10:37:32.172,-0.44,-0.705
2021-08-19 10:37:32.176,-0.44,-0.72
2021-08-19 10:37:32.180,-0.45,-0.735
2021-08-19 10:37:32.184,-0.455,-0.775
2021-08-19 10:37:32.188,-0.47,-0.795
2021-08-19 10:37:32.192,-0.505,-0.785
2021-08-19 10:37:32.196,-0.54,-0.825
2021-08-19 10:37:32.200,-0.56,-0.815
2021-08-19 10:37:32.204,-0.57,-0.845
2021-08-19 10:37:32.208,-0.585,-0.85
2021-08-19 10:37:32.212,-0.605,-0.84
2021-08-19 10:37:32.216,-0.605,-0.87
2021-08-19 10:37:32.220,-0.58,-0.905
2021-08-19 10:37:32.224,-0.56,-0.92
2021-08-19 10:37:32.228,-0.58,-0.92
2021-08-19 10:37:32.232,-0.585,-0.965
2021-08-19 10:37:32.236,-0.56,-0.99
2021-08-19 10:37:32.240,-0.555,-1.005
2021-08-19 10:37:32.244,-0.56,-1.02
2021-08-19 10:37:32.248,-0.515,-1.015
2021-08-19 10:37:32.252,-0.475,-1.055
2021-08-19 10:37:32.256,-0.445,-1.045
2021-08-19 10:37:32.260,-0.395,-1.065
2021-08-19 10:37:32.264,-0.34,-1.075
2021-08-19 10:37:32.268,-0.28,-1.045
2021-08-19 10:37:32.272,-0.215,-1.045
2021-08-19 10:37:32.276,-0.17,-1.065
2021-08-19 10:37:32.280,-0.145,-1.02
2021-08-19 10:37:32.284,-0.09,-1.015
2021-08-19 10:37:32.288,-0.07,-1.015
2021-08-19 10:37:32.292,-0.04,-1.0
2021-08-19 10:37:32.296,-0.03,-0.96
2021-08-19 10:37:32.300,0.0,-0.935
2021-08-19 10:37:32.304,0.0,-0.915
2021-08-19 10:37:32.308,0.01,-0.85
2021-08-19 10:37:32.312,0.01,-0.795
2021-08-19 10:37:32.316,0.025,-0.775
2021-08-19 10:37:32.320,0.0,-0.72
2021-08-19 10:37:32.324,-0.01,-0.68
2021-08-19 10:37:32.328,-0.035,-0.63
2021-08-19 10:37:32.332,-0.09,-0.595
2021-08-19 10:37:32.336,-0.09,-0.575
2021-08-19 10:37:32.340,-0.13,-0.49
2021-08-19 10:37:32.344,-0.15,-0.47
2021-08-19 10:37:32.348,-0.18,-0.455
2021-08-19 10:37:32.352,-0.185,-0.405
2021-08-19 10:37:32.356,-0.18,-0.365
2021-08-19 10:37:32.360,-0.185,-0.33
2021-08-19 10:37:32.364,-0.195,-0.295
2021-08-19 10:37:32.368,-0.205,-0.285
2021-08-19 10:37:32.372,-0.2,-0.25
2021-08-19 10:37:32.376,-0.24,-0.25
2021-08-19 10:37:32.380,-0.24,-0.225
2021-08-19 10:37:32.384,-0.28,-0.225
2021-08-19 10:37:32.388,-0.28,-0.225
2021-08-19 10:37:32.392,-0.29,-0.21
2021-08-19 10:37:32.396,-0.285,-0.19
2021-08-19 10:37:32.400,-0.28,-0.2
2021-08-19 10:37:32.404,-0.26,-0.2
2021-08-19 10:37:32.408,-0.265,-0.185
2021-08-19 10:37:32.412,-0.25,-0.18
2021-08-19 10:37:32.416,-0.275,-0.185
2021-08-19 10:37:32.420,-0.27,-0.18
2021-08-19 10:37:32.424,-0.28,-0.185
2021-08-19 10:37:32.428,-0.3,-0.165
2021-08-19 10:37:32.432,-0.295,-0.185
2021-08-19 10:37:32.436,-0.295,-0.205
2021-08-19 10:37:32.440,-0.3,-0.2
2021-08-19 10:37:32.444,-0.31,-0.23
2021-08-19 10:37:32.448,-0.29,-0.225
2021-08-19 10:37:32.452,-0.265,-0.2
2021-08-19 10:37:32.456,-0.255,-0.205
2021-08-19 10:37:32.460,-0.275,-0.215
2021-08-19 10:37:32.464,-0.265,-0.21
2021-08-19 10:37:32.468,-0.305,-0.215
2021-08-19 10:37:32.472,-0.3,-0.215
2021-08-19 10:37:32.476,-0.325,-0.215
2021-08-19 10:37:32.480,-0.305,-0.195
2021-08-19 10:37:32.484,-0.31,-0.21
2021-08-19 10:37:32.488,-0.295,-0.22
2021-08-19 10:37:32.492,-0.3,-0.215
2021-08-19 10:37:32.496,-0.265,-0.195
2021-08-19 10:37:32.500,-0.235,-0.21
2021-08-19 10:37:32.504,-0.22,-0.215
2021-08-19 10:37:32.508,-0.26,-0.22
2021-08-19 10:37:32.512,-0.27,-0.23
2021-08-19 10:37:32.516,-0.29,-0.24
2021-08-19 10:37:32.520,-0.29,-0.2
2021-08-19 10:37:32.524,-0.295,-0.21
2021-08-19 10:37:32.528,-0.305,-0.21
2021-08-19 10:37:32.532,-0.29,-0.225
2021-08-19 10:37:32.536,-0.275,-0.255
2021-08-19 10:37:32.540,-0.285,-0.24
2021-08-19 10:37:32.544,-0.235,-0.225
2021-08-19 10:37:32.548,-0.235,-0.225
2021-08-19 10:37:32.552,-0.225,-0.25
2021-08-19 10:37:32.556,-0.215,-0.25
2021-08-19 10:37:32.560,-0.24,-0.245
2021-08-19 10:37:32.564,-0.26,-0.235
2021-08-19 10:37:32.568,-0.27,-0.245
2021-08-19 10:37:32.572,-0.275,-0.23
2021-08-19 10:37:32.576,-0.3,-0.265
2021-08-19 10:37:32.580,-0.29,-0.26
2021-08-19 10:37:32.584,-0.3,-0.265
2021-08-19 10:37:32.588,-0.27,-0.23
2021-08-19 10:37:32.592,-0.255,-0.215
2021-08-19 10:37:32.596,-0.26,-0.22
2021-08-19 10:37:32.600,-0.285,-0.24
2021-08-19 10:37:32.604,-0.275,-0.235
2021-08-19 10:37:32.608,-0.29,-0.22
2021-08-19 10:37:32.612,-0.295,-0.25
2021-08-19 10:37:32.616,-0.285,-0.245
2021-08-19 10:37:32.620,-0.29,-0.255
2021-08-19 10:37:32.624,-0.28,-0.265
2021-08-19 10:37:32.628,-0.295,-0.26
2021-08-19 10:37:32.632,-0.275,-0.265
2021-08-19 10:37:32.636,-0.27,-0.26
2021-08-19 10:37:32.640,-0.245,-0.23
2021-08-19 10:37:32.644,-0.255,-0.26
2021-08-19 10:37:32.648,-0.26,-0.24
2021-08-19 10:37:32.652,-0.24,-0.245
2021-08-19 10:37:32.656,-0.25,-0.235
2021-08-19 10:37:32.660,-0.28,-0.24
2021-08-19 10:37:32.664,-0.28,-0.245
2021-08-19 10:37:32.668,-0.255,-0.285
2021-08-19 10:37:32.672,-0.23,-0.265
2021-08-19 10:37:32.676,-0.27,-0.24
2021-08-19 10:37:32.680,-0.25,-0.235
2021-08-19 10:37:32.684,-0.245,-0.245
2021-08-19 10:37:32.688,-0.25,-0.255
2021-08-19 10:37:32.692,-0.24,-0.285
2021-08-19 10:37:32.696,-0.23,-0.26
2021-08-19 10:37:32.700,-0.22,-0.255
2021-08-19 10:37:32.704,-0.255,-0.23
2021-08-19 10:37:32.708,-0.255,-0.245
2021-08-19 10:37:32.712,-0.235,-0.275
2021-08-19 10:37:32.716,-0.22,-0.255
2021-08-19 10:37:32.720,-0.2,-0.26
2021-08-19 10:37:32.724,-0.14,-0.26
2021-08-19 10:37:32.728,-0.09,-0.245
2021-08-19 10:37:32.732,-0.04,-0.225
2021-08-19 10:37:32.736,0.075,-0.235
2021-08-19 10:37:32.740,0.18,-0.185
2021-08-19 10:37:32.744,0.2,-0.14
2021-08-19 10:37:32.748,0.2,-0.07
2021-08-19 10:37:32.752,0.175,-0.07
2021-08-19 10:37:32.756,0.12,-0.08
2021-08-19 10:37:32.760,0.1,-0.08
2021-08-19 10:37:32.764,0.065,-0.11
2021-08-19 10:37:32.768,0.01,-0.15
2021-08-19 10:37:32.772,0.01,-0.14
2021-08-19 10:37:32.776,-0.025,-0.13
2021-08-19 10:37:32.780,-0.055,-0.17
2021-08-19 10:37:32.784,-0.105,-0.18
2021-08-19 10:37:32.788,-0.16,-0.22
2021-08-19 10:37:32.792,-0.215,-0.22
2021-08-19 10:37:32.796,-0.265,-0.215
2021-08-19 10:37:32.800,-0.29,-0.24
2021-08-19 10:37:32.804,-0.3,-0.265
2021-08-19 10:37:32.808,-0.28,-0.3
2021-08-19 10:37:32.812,-0.27,-0.31
2021-08-19 10:37:32.816,-0.265,-0.315
2021-08-19 10:37:32.820,-0.205,-0.29
2021-08-19 10:37:32.824,-0.135,-0.295
2021-08-19 10:37:32.828,-0.07,-0.245
2021-08-19 10:37:32.832,0.07,-0.21
2021-08-19 10:37:32.836,0.32,-0.145
2021-08-19 10:37:32.840,0.605,-0.185
2021-08-19 10:37:32.844,0.795,-0.26
2021-08-19 10:37:32.848,0.915,-0.32
2021-08-19 10:37:32.852,0.98,-0.54
2021-08-19 10:37:32.856,0.65,-0.865
2021-08-19 10:37:32.860,-0.19,-1.2
2021-08-19 10:37:32.864,-1.03,-1.525
2021-08-19 10:37:32.868,-1.55,-1.905
2021-08-19 10:37:32.892,-0.68,-1.655
2021-08-19 10:37:32.896,-0.56,-1.355
2021-08-19 10:37:32.900,-0.5,-1.045
2021-08-19 10:37:32.904,-0.45,-0.805
2021-08-19 10:37:32.908,-0.415,-0.59
2021-08-19 10:37:32.912,-0.385,-0.485
2021-08-19 10:37:32.916,-0.39,-0.425
2021-08-19 10:37:32.920,-0.38,-0.4
2021-08-19 10:37:32.924,-0.365,-0.385
2021-08-19 10:37:32.928,-0.36,-0.37
2021-08-19 10:37:32.932,-0.395,-0.35
2021-08-19 10:37:32.936,-0.4,-0.33
2021-08-19 10:37:32.940,-0.42,-0.33
2021-08-19 10:37:32.944,-0.415,-0.34
2021-08-19 10:37:32.948,-0.425,-0.32
2021-08-19 10:37:32.952,-0.42,-0.32
2021-08-19 10:37:32.956,-0.405,-0.3
2021-08-19 10:37:32.960,-0.41,-0.305
2021-08-19 10:37:32.964,-0.42,-0.315
2021-08-19 10:37:32.968,-0.44,-0.32
2021-08-19 10:37:32.972,-0.46,-0.325
2021-08-19 10:37:32.976,-0.46,-0.3
2021-08-19 10:37:32.980,-0.46,-0.28
2021-08-19 10:37:32.984,-0.505,-0.335
2021-08-19 10:37:32.988,-0.505,-0.305
2021-08-19 10:37:32.992,-0.515,-0.3
2021-08-19 10:37:32.996,-0.54,-0.34
2021-08-19 10:37:33.000,-0.54,-0.33
2021-08-19 10:37:33.004,-0.525,-0.305
2021-08-19 10:37:33.008,-0.505,-0.315
2021-08-19 10:37:33.012,-0.515,-0.32
2021-08-19 10:37:33.016,-0.52,-0.33
2021-08-19 10:37:33.020,-0.555,-0.315
2021-08-19 10:37:33.024,-0.57,-0.315
2021-08-19 10:37:33.028,-0.61,-0.315
2021-08-19 10:37:33.032,-0.605,-0.33
2021-08-19 10:37:33.036,-0.61,-0.345
2021-08-19 10:37:33.040,-0.615,-0.355
2021-08-19 10:37:33.044,-0.635,-0.355
2021-08-19 10:37:33.048,-0.61,-0.35
2021-08-19 10:37:33.052,-0.635,-0.375
2021-08-19 10:37:33.056,-0.655,-0.345
2021-08-19 10:37:33.060,-0.635,-0.37
2021-08-19 10:37:33.064,-0.66,-0.39
2021-08-19 10:37:33.068,-0.64,-0.38
2021-08-19 10:37:33.072,-0.675,-0.425
2021-08-19 10:37:33.076,-0.71,-0.4
2021-08-19 10:37:33.080,-0.71,-0.42
2021-08-19 10:37:33.084,-0.76,-0.405
2021-08-19 10:37:33.088,-0.745,-0.45
2021-08-19 10:37:33.092,-0.705,-0.455
2021-08-19 10:37:33.096,-0.69,-0.46
2021-08-19 10:37:33.100,-0.69,-0.47
2021-08-19 10:37:33.104,-0.685,-0.475
2021-08-19 10:37:33.108,-0.715,-0.495
2021-08-19 10:37:33.112,-0.735,-0.47
2021-08-19 10:37:33.116,-0.735,-0.445
2021-08-19 10:37:33.120,-0.765,-0.44
2021-08-19 10:37:33.124,-0.75,-0.465
2021-08-19 10:37:33.128,-0.745,-0.505
2021-08-19 10:37:33.132,-0.735,-0.485
2021-08-19 10:37:33.136,-0.715,-0.475
2021-08-19 10:37:33.140,-0.69,-0.49
2021-08-19 10:37:33.144,-0.65,-0.47
2021-08-19 10:37:33.148,-0.61,-0.475
2021-08-19 10:37:33.152,-0.59,-0.48
2021-08-19 10:37:33.156,-0.565,-0.49
2021-08-19 10:37:33.160,-0.55,-0.47
2021-08-19 10:37:33.164,-0.515,-0.45
2021-08-19 10:37:33.168,-0.525,-0.425
2021-08-19 10:37:33.172,-0.52,-0.43
2021-08-19 10:37:33.176,-0.51,-0.41
2021-08-19 10:37:33.180,-0.47,-0.44
2021-08-19 10:37:33.184,-0.42,-0.42
2021-08-19 10:37:33.188,-0.405,-0.375
2021-08-19 10:37:33.192,-0.4,-0.385
2021-08-19 10:37:33.196,-0.38,-0.35
2021-08-19 10:37:33.200,-0.365,-0.32
2021-08-19 10:37:33.204,-0.335,-0.295
2021-08-19 10:37:33.208,-0.33,-0.265
2021-08-19 10:37:33.212,-0.335,-0.26
2021-08-19 10:37:33.216,-0.32,-0.25
2021-08-19 10:37:33.220,-0.31,-0.235
2021-08-19 10:37:33.224,-0.315,-0.21
2021-08-19 10:37:33.228,-0.28,-0.2
2021-08-19 10:37:33.232,-0.265,-0.195
2021-08-19 10:37:33.236,-0.235,-0.195
2021-08-19 10:37:33.240,-0.215,-0.175
2021-08-19 10:37:33.244,-0.2,-0.17
2021-08-19 10:37:33.248,-0.175,-0.17
2021-08-19 10:37:33.252,-0.155,-0.18
2021-08-19 10:37:33.256,-0.205,-0.165
2021-08-19 10:37:33.260,-0.215,-0.195
2021-08-19 10:37:33.264,-0.215,-0.195
2021-08-19 10:37:33.268,-0.185,-0.18
2021-08-19 10:37:33.272,-0.165,-0.185
2021-08-19 10:37:33.276,-0.16,-0.22
2021-08-19 10:37:33.280,-0.14,-0.21
2021-08-19 10:37:33.284,-0.15,-0.185
2021-08-19 10:37:33.288,-0.155,-0.215
2021-08-19 10:37:33.292,-0.15,-0.225
2021-08-19 10:37:33.296,-0.155,-0.235
2021-08-19 10:37:33.300,-0.18,-0.235
2021-08-19 10:37:33.304,-0.185,-0.23
2021-08-19 10:37:33.308,-0.17,-0.235
2021-08-19 10:37:33.312,-0.155,-0.255
2021-08-19 10:37:33.316,-0.185,-0.245
2021-08-19 10:37:33.320,-0.215,-0.235
2021-08-19 10:37:33.324,-0.2,-0.215
2021-08-19 10:37:33.328,-0.18,-0.23
2021-08-19 10:37:33.332,-0.175,-0.23
2021-08-19 10:37:33.336,-0.155,-0.26
2021-08-19 10:37:33.340,-0.135,-0.25
2021-08-19 10:37:33.344,-0.175,-0.25
2021-08-19 10:37:33.348,-0.21,-0.24
2021-08-19 10:37:33.352,-0.2,-0.245
2021-08-19 10:37:33.356,-0.215,-0.285
2021-08-19 10:37:33.360,-0.175,-0.265
2021-08-19 10:37:33.364,-0.165,-0.26
2021-08-19 10:37:33.368,-0.17,-0.255
2021-08-19 10:37:33.372,-0.18,-0.24
2021-08-19 10:37:33.376,-0.18,-0.24
2021-08-19 10:37:33.380,-0.195,-0.26
2021-08-19 10:37:33.384,-0.2,-0.27
2021-08-19 10:37:33.388,-0.185,-0.265
2021-08-19 10:37:33.392,-0.18,-0.275
2021-08-19 10:37:33.396,-0.195,-0.265
2021-08-19 10:37:33.400,-0.185,-0.265
2021-08-19 10:37:33.404,-0.215,-0.28
2021-08-19 10:37:33.408,-0.21,-0.28
2021-08-19 10:37:33.412,-0.225,-0.265
2021-08-19 10:37:33.416,-0.19,-0.235
2021-08-19 10:37:33.420,-0.165,-0.23
2021-08-19 10:37:33.424,-0.155,-0.235
2021-08-19 10:37:33.428,-0.16,-0.24
2021-08-19 10:37:33.432,-0.17,-0.245
2021-08-19 10:37:33.436,-0.225,-0.285
2021-08-19 10:37:33.440,-0.225,-0.245
2021-08-19 10:37:33.444,-0.225,-0.235
2021-08-19 10:37:33.448,-0.22,-0.225
2021-08-19 10:37:33.452,-0.2,-0.215
2021-08-19 10:37:33.456,-0.175,-0.23
2021-08-19 10:37:33.460,-0.18,-0.24
2021-08-19 10:37:33.464,-0.175,-0.285
2021-08-19 10:37:33.468,-0.17,-0.255
2021-08-19 10:37:33.472,-0.13,-0.24
2021-08-19 10:37:33.476,-0.17,-0.245
2021-08-19 10:37:33.480,-0.19,-0.245
2021-08-19 10:37:33.484,-0.215,-0.23
2021-08-19 10:37:33.488,-0.205,-0.25
2021-08-19 10:37:33.492,-0.22,-0.25
2021-08-19 10:37:33.496,-0.23,-0.24
2021-08-19 10:37:33.500,-0.195,-0.235
2021-08-19 10:37:33.504,-0.225,-0.25
2021-08-19 10:37:33.508,-0.185,-0.235
2021-08-19 10:37:33.512,-0.17,-0.225
2021-08-19 10:37:33.516,-0.16,-0.255
2021-08-19 10:37:33.520,-0.135,-0.26
2021-08-19 10:37:33.524,-0.125,-0.255
2021-08-19 10:37:33.528,-0.19,-0.275
2021-08-19 10:37:33.532,-0.19,-0.25
2021-08-19 10:37:33.536,-0.17,-0.265
2021-08-19 10:37:33.540,-0.195,-0.26
2021-08-19 10:37:33.544,-0.18,-0.265
2021-08-19 10:37:33.548,-0.195,-0.25
2021-08-19 10:37:33.552,-0.195,-0.28
2021-08-19 10:37:33.556,-0.19,-0.285
2021-08-19 10:37:33.560,-0.175,-0.265
2021-08-19 10:37:33.564,-0.2,-0.28
2021-08-19 10:37:33.568,-0.215,-0.295
2021-08-19 10:37:33.572,-0.2,-0.29
2021-08-19 10:37:33.576,-0.18,-0.29
2021-08-19 10:37:33.580,-0.195,-0.27
2021-08-19 10:37:33.584,-0.185,-0.28
2021-08-19 10:37:33.588,-0.195,-0.28
2021-08-19 10:37:33.592,-0.17,-0.275
2021-08-19 10:37:33.596,-0.19,-0.27
2021-08-19 10:37:33.600,-0.195,-0.29
2021-08-19 10:37:33.604,-0.17,-0.275
2021-08-19 10:37:33.608,-0.16,-0.28
2021-08-19 10:37:33.612,-0.12,-0.255
2021-08-19 10:37:33.616,-0.075,-0.235
2021-08-19 10:37:33.620,-0.06,-0.21
2021-08-19 10:37:33.624,-0.045,-0.205
2021-08-19 10:37:33.628,-0.065,-0.165
2021-08-19 10:37:33.632,-0.075,-0.15
2021-08-19 10:37:33.636,-0.08,-0.185
2021-08-19 10:37:33.640,-0.04,-0.195
2021-08-19 10:37:33.644,-0.005,-0.175
2021-08-19 10:37:33.648,-0.01,-0.18
2021-08-19 10:37:33.652,0.01,-0.205
2021-08-19 10:37:33.656,0.03,-0.195
2021-08-19 10:37:33.660,0.005,-0.225
2021-08-19 10:37:33.664,-0.025,-0.27
2021-08-19 10:37:33.668,-0.065,-0.295
2021-08-19 10:37:33.672,-0.115,-0.335
2021-08-19 10:37:33.676,-0.14,-0.345
2021-08-19 10:37:33.680,-0.12,-0.335
2021-08-19 10:37:33.684,-0.17,-0.31
2021-08-19 10:37:33.688,-0.225,-0.29
2021-08-19 10:37:33.692,-0.265,-0.29
2021-08-19 10:37:33.696,-0.235,-0.295
2021-08-19 10:37:33.700,-0.25,-0.28
2021-08-19 10:37:33.704,-0.235,-0.275
2021-08-19 10:37:33.708,-0.23,-0.3
2021-08-19 10:37:33.712,-0.19,-0.33
2021-08-19 10:37:33.716,-0.19,-0.3
2021-08-19 10:37:33.720,-0.155,-0.29
2021-08-19 10:37:33.724,-0.105,-0.275
2021-08-19 10:37:33.728,-0.015,-0.22
2021-08-19 10:37:33.732,0.205,-0.15
2021-08-19 10:37:33.736,0.545,-0.115
2021-08-19 10:37:33.740,0.86,-0.12
2021-08-19 10:37:33.744,1.06,-0.11
2021-08-19 10:37:33.748,1.175,-0.24
2021-08-19 10:37:33.752,0.99,-0.47
2021-08-19 10:37:33.756,0.27,-0.72
2021-08-19 10:37:33.760,-0.65,-1.02
2021-08-19 10:37:33.764,-1.3,-1.36
2021-08-19 10:37:33.768,-1.56,-1.635
2021-08-19 10:37:33.772,-1.58,-1.855
2021-08-19 10:37:33.784,-1.03,-1.8
2021-08-19 10:37:33.788,-0.765,-1.555
2021-08-19 10:37:33.792,-0.585,-1.3
2021-08-19 10:37:33.796,-0.485,-1.08
2021-08-19 10:37:33.800,-0.425,-0.855
2021-08-19 10:37:33.804,-0.385,-0.655
2021-08-19 10:37:33.808,-0.38,-0.48
2021-08-19 10:37:33.812,-0.385,-0.405
2021-08-19 10:37:33.816,-0.38,-0.36
2021-08-19 10:37:33.820,-0.37,-0.32
2021-08-19 10:37:33.824,-0.375,-0.295
2021-08-19 10:37:33.828,-0.37,-0.28
2021-08-19 10:37:33.832,-0.38,-0.285
2021-08-19 10:37:33.836,-0.37,-0.25
2021-08-19 10:37:33.840,-0.375,-0.265
2021-08-19 10:37:33.844,-0.37,-0.285
2021-08-19 10:37:33.848,-0.38,-0.28
2021-08-19 10:37:33.852,-0.39,-0.305
2021-08-19 10:37:33.856,-0.41,-0.28
2021-08-19 10:37:33.860,-0.425,-0.26
2021-08-19 10:37:33.864,-0.43,-0.26
2021-08-19 10:37:33.868,-0.425,-0.26
2021-08-19 10:37:33.872,-0.455,-0.295
2021-08-19 10:37:33.876,-0.45,-0.28
2021-08-19 10:37:33.880,-0.435,-0.26
2021-08-19 10:37:33.884,-0.45,-0.255
2021-08-19 10:37:33.888,-0.455,-0.265
2021-08-19 10:37:33.892,-0.465,-0.26
2021-08-19 10:37:33.896,-0.48,-0.245
2021-08-19 10:37:33.900,-0.515,-0.25
2021-08-19 10:37:33.904,-0.545,-0.26
2021-08-19 10:37:33.908,-0.57,-0.285
2021-08-19 10:37:33.912,-0.57,-0.265
2021-08-19 10:37:33.916,-0.59,-0.27
2021-08-19 10:37:33.920,-0.6,-0.29
2021-08-19 10:37:33.924,-0.59,-0.295
2021-08-19 10:37:33.928,-0.61,-0.315
2021-08-19 10:37:33.932,-0.64,-0.325
2021-08-19 10:37:33.936,-0.655,-0.335
2021-08-19 10:37:33.940,-0.68,-0.325
2021-08-19 10:37:33.944,-0.715,-0.35
2021-08-19 10:37:33.948,-0.755,-0.34
2021-08-19 10:37:33.952,-0.78,-0.35
2021-08-19 10:37:33.956,-0.825,-0.34
2021-08-19 10:37:33.960,-0.855,-0.365
2021-08-19 10:37:33.964,-0.85,-0.39
2021-08-19 10:37:33.968,-0.87,-0.39
2021-08-19 10:37:33.972,-0.87,-0.385
2021-08-19 10:37:33.976,-0.875,-0.405
2021-08-19 10:37:33.980,-0.87,-0.42
2021-08-19 10:37:33.984,-0.91,-0.45
2021-08-19 10:37:33.988,-0.94,-0.46
2021-08-19 10:37:33.992,-0.99,-0.48
2021-08-19 10:37:33.996,-0.995,-0.48
2021-08-19 10:37:34.000,-1.02,-0.505
2021-08-19 10:37:34.004,-1.035,-0.515
2021-08-19 10:37:34.008,-1.05,-0.535
2021-08-19 10:37:34.012,-1.045,-0.535
2021-08-19 10:37:34.016,-1.025,-0.565
2021-08-19 10:37:34.020,-1.015,-0.585
2021-08-19 10:37:34.024,-0.965,-0.59
2021-08-19 10:37:34.028,-0.95,-0.605
2021-08-19 10:37:34.032,-0.91,-0.62
2021-08-19 10:37:34.036,-0.88,-0.595
2021-08-19 10:37:34.040,-0.87,-0.56
2021-08-19 10:37:34.044,-0.87,-0.545
2021-08-19 10:37:34.048,-0.83,-0.53
2021-08-19 10:37:34.052,-0.765,-0.52
2021-08-19 10:37:34.056,-0.72,-0.505
2021-08-19 10:37:34.060,-0.665,-0.5
2021-08-19 10:37:34.064,-0.61,-0.485
2021-08-19 10:37:34.068,-0.605,-0.445
2021-08-19 10:37:34.072,-0.6,-0.43
2021-08-19 10:37:34.076,-0.565,-0.41
2021-08-19 10:37:34.080,-0.55,-0.36
2021-08-19 10:37:34.084,-0.54,-0.34
2021-08-19 10:37:34.088,-0.54,-0.31
2021-08-19 10:37:34.092,-0.525,-0.315
2021-08-19 10:37:34.096,-0.495,-0.29
2021-08-19 10:37:34.100,-0.465,-0.31
2021-08-19 10:37:34.104,-0.435,-0.295
2021-08-19 10:37:34.108,-0.43,-0.295
2021-08-19 10:37:34.112,-0.435,-0.295
2021-08-19 10:37:34.116,-0.4,-0.285
2021-08-19 10:37:34.120,-0.4,-0.29
2021-08-19 10:37:34.124,-0.39,-0.295
2021-08-19 10:37:34.128,-0.375,-0.31
2021-08-19 10:37:34.132,-0.385,-0.29
2021-08-19 10:37:34.136,-0.37,-0.295
2021-08-19 10:37:34.140,-0.365,-0.3
2021-08-19 10:37:34.144,-0.335,-0.315
2021-08-19 10:37:34.148,-0.32,-0.28
2021-08-19 10:37:34.152,-0.3,-0.29
2021-08-19 10:37:34.156,-0.295,-0.28
2021-08-19 10:37:34.160,-0.295,-0.265
2021-08-19 10:37:34.164,-0.315,-0.28
2021-08-19 10:37:34.168,-0.305,-0.27
2021-08-19 10:37:34.172,-0.33,-0.26
2021-08-19 10:37:34.176,-0.35,-0.25
2021-08-19 10:37:34.180,-0.355,-0.265
2021-08-19 10:37:34.184,-0.355,-0.295
2021-08-19 10:37:34.188,-0.355,-0.29
2021-08-19 10:37:34.192,-0.365,-0.305
2021-08-19 10:37:34.196,-0.36,-0.29
2021-08-19 10:37:34.200,-0.33,-0.29
2021-08-19 10:37:34.204,-0.315,-0.29
2021-08-19 10:37:34.208,-0.32,-0.295
2021-08-19 10:37:34.212,-0.315,-0.3
2021-08-19 10:37:34.216,-0.34,-0.275
2021-08-19 10:37:34.220,-0.38,-0.29
2021-08-19 10:37:34.224,-0.355,-0.305
2021-08-19 10:37:34.228,-0.365,-0.285
2021-08-19 10:37:34.232,-0.36,-0.27
2021-08-19 10:37:34.236,-0.26,-0.215
2021-08-19 10:37:34.240,-0.025,-0.215
2021-08-19 10:37:34.244,0.285,-0.28
2021-08-19 10:37:34.248,0.505,-0.37
2021-08-19 10:37:34.252,0.66,-0.475
2021-08-19 10:37:34.256,0.68,-0.71
2021-08-19 10:37:34.260,0.22,-1.015
2021-08-19 10:37:34.264,-0.69,-1.35
2021-08-19 10:37:34.268,-1.57,-1.705
2021-08-19 10:37:34.292,-0.74,-1.9
2021-08-19 10:37:34.296,-0.56,-1.45
2021-08-19 10:37:34.300,-0.425,-1.1
2021-08-19 10:37:34.304,-0.34,-0.78
2021-08-19 10:37:34.308,-0.345,-0.505
2021-08-19 10:37:34.312,-0.36,-0.34
2021-08-19 10:37:34.316,-0.34,-0.275
2021-08-19 10:37:34.320,-0.335,-0.205
2021-08-19 10:37:34.324,-0.3,-0.175
2021-08-19 10:37:34.328,-0.285,-0.165
2021-08-19 10:37:34.332,-0.27,-0.14
2021-08-19 10:37:34.336,-0.265,-0.11
2021-08-19 10:37:34.340,-0.265,-0.095
2021-08-19 10:37:34.344,-0.255,-0.1
2021-08-19 10:37:34.348,-0.285,-0.105
2021-08-19 10:37:34.352,-0.315,-0.12
2021-08-19 10:37:34.356,-0.32,-0.115
2021-08-19 10:37:34.360,-0.315,-0.115
2021-08-19 10:37:34.364,-0.3,-0.095
2021-08-19 10:37:34.368,-0.32,-0.07
2021-08-19 10:37:34.372,-0.32,-0.08
2021-08-19 10:37:34.376,-0.34,-0.06
2021-08-19 10:37:34.380,-0.37,-0.05
2021-08-19 10:37:34.384,-0.405,-0.065
2021-08-19 10:37:34.388,-0.42,-0.09
2021-08-19 10:37:34.392,-0.425,-0.13
2021-08-19 10:37:34.396,-0.45,-0.16
2021-08-19 10:37:34.400,-0.495,-0.19
2021-08-19 10:37:34.404,-0.525,-0.22
2021-08-19 10:37:34.408,-0.555,-0.23
2021-08-19 10:37:34.412,-0.565,-0.245
2021-08-19 10:37:34.416,-0.6,-0.24
2021-08-19 10:37:34.420,-0.61,-0.245
2021-08-19 10:37:34.424,-0.64,-0.28
2021-08-19 10:37:34.428,-0.665,-0.29
2021-08-19 10:37:34.432,-0.655,-0.3
2021-08-19 10:37:34.436,-0.67,-0.305
2021-08-19 10:37:34.440,-0.7,-0.31
2021-08-19 10:37:34.444,-0.745,-0.33
2021-08-19 10:37:34.448,-0.765,-0.325
2021-08-19 10:37:34.452,-0.8,-0.3
2021-08-19 10:37:34.456,-0.81,-0.3
2021-08-19 10:37:34.460,-0.85,-0.335
2021-08-19 10:37:34.464,-0.855,-0.34
2021-08-19 10:37:34.468,-0.855,-0.345
2021-08-19 10:37:34.472,-0.875,-0.37
2021-08-19 10:37:34.476,-0.88,-0.36
2021-08-19 10:37:34.480,-0.895,-0.34
2021-08-19 10:37:34.484,-0.92,-0.355
2021-08-19 10:37:34.488,-0.935,-0.35
2021-08-19 10:37:34.492,-0.945,-0.36
2021-08-19 10:37:34.496,-0.925,-0.35
2021-08-19 10:37:34.500,-0.94,-0.36
2021-08-19 10:37:34.504,-0.915,-0.375
2021-08-19 10:37:34.508,-0.895,-0.345
2021-08-19 10:37:34.512,-0.905,-0.385
2021-08-19 10:37:34.516,-0.86,-0.4
2021-08-19 10:37:34.520,-0.8,-0.385
2021-08-19 10:37:34.524,-0.74,-0.345
2021-08-19 10:37:34.528,-0.685,-0.375
2021-08-19 10:37:34.532,-0.625,-0.365
2021-08-19 10:37:34.536,-0.58,-0.355
2021-08-19 10:37:34.540,-0.525,-0.365
2021-08-19 10:37:34.544,-0.485,-0.34
2021-08-19 10:37:34.548,-0.455,-0.32
2021-08-19 10:37:34.552,-0.415,-0.31
2021-08-19 10:37:34.556,-0.34,-0.28
2021-08-19 10:37:34.560,-0.31,-0.25
2021-08-19 10:37:34.564,-0.27,-0.24
2021-08-19 10:37:34.568,-0.24,-0.205
2021-08-19 10:37:34.572,-0.225,-0.18
2021-08-19 10:37:34.576,-0.21,-0.15
2021-08-19 10:37:34.580,-0.215,-0.185
2021-08-19 10:37:34.584,-0.19,-0.16
2021-08-19 10:37:34.588,-0.21,-0.145
2021-08-19 10:37:34.592,-0.225,-0.16
2021-08-19 10:37:34.596,-0.25,-0.15
2021-08-19 10:37:34.600,-0.235,-0.15
2021-08-19 10:37:34.604,-0.23,-0.14
2021-08-19 10:37:34.608,-0.22,-0.11
2021-08-19 10:37:34.612,-0.215,-0.13
2021-08-19 10:37:34.616,-0.215,-0.12
2021-08-19 10:37:34.620,-0.225,-0.15
2021-08-19 10:37:34.624,-0.245,-0.135
2021-08-19 10:37:34.628,-0.255,-0.16
2021-08-19 10:37:34.632,-0.26,-0.115
2021-08-19 10:37:34.636,-0.255,-0.15
2021-08-19 10:37:34.640,-0.235,-0.12
2021-08-19 10:37:34.644,-0.24,-0.17
2021-08-19 10:37:34.648,-0.255,-0.145
2021-08-19 10:37:34.652,-0.255,-0.15
2021-08-19 10:37:34.656,-0.26,-0.135
2021-08-19 10:37:34.660,-0.24,-0.11
2021-08-19 10:37:34.664,-0.23,-0.125
2021-08-19 10:37:34.668,-0.225,-0.13
