Time,ECG1,ECG2
2021-08-19 00:00:01,-0.045,-0.36
2021-08-19 00:00:01,-0.015,-0.34
2021-08-19 00:00:01,-0.025,-0.34
2021-08-19 00:00:01,-0.04,-0.34
2021-08-19 00:00:02,-0.045,-0.36
2021-08-19 00:00:02,-0.05,-0.365
2021-08-19 00:00:02,-0.04,-0.345
2021-08-19 00:00:02,-0.045,-0.35
2021-08-19 00:00:03,-0.035,-0.345
2021-08-19 00:00:03,-0.045,-0.36
2021-08-19 00:00:03,-0.05,-0.36
2021-08-19 00:00:03,-0.04,-0.355
2021-08-19 00:00:04,-0.045,-0.335
2021-08-19 00:00:04,-0.055,-0.335
2021-08-19 00:00:04,-0.05,-0.29
2021-08-19 00:00:04,-0.035,-0.24
2021-08-19 00:00:05,-0.04,-0.23
2021-08-19 00:00:05,-0.05,-0.185
2021-08-19 00:00:05,-0.06,-0.175
2021-08-19 00:00:05,-0.04,-0.17
2021-08-19 00:00:06,-0.01,-0.16
2021-08-19 00:00:06,0.0,-0.175
2021-08-19 00:00:06,0.035,-0.175
2021-08-19 00:00:06,0.035,-0.16
2021-08-19 00:00:06,0.06,-0.18
2021-08-19 00:00:07,0.07,-0.17
2021-08-19 00:00:07,0.075,-0.155
2021-08-19 00:00:07,0.05,-0.135
2021-08-19 00:00:07,0.04,-0.16
2021-08-19 00:00:08,0.0,-0.185
2021-08-19 00:00:08,-0.015,-0.23
2021-08-19 00:00:08,-0.015,-0.28
2021-08-19 00:00:08,-0.05,-0.3
2021-08-19 00:00:09,-0.09,-0.305
2021-08-19 00:00:09,-0.085,-0.3
2021-08-19 00:00:09,-0.1,-0.275
2021-08-19 00:00:09,-0.09,-0.26
2021-08-19 00:00:10,-0.125,-0.285
2021-08-19 00:00:10,-0.125,-0.275
2021-08-19 00:00:10,-0.125,-0.285
2021-08-19 00:00:10,-0.11,-0.29
2021-08-19 00:00:11,-0.09,-0.325
2021-08-19 00:00:11,-0.07,-0.345
2021-08-19 00:00:11,-0.05,-0.345
2021-08-19 00:00:11,-0.085,-0.36
2021-08-19 00:00:12,-0.07,-0.4
2021-08-19 00:00:12,-0.075,-0.39
2021-08-19 00:00:12,-0.055,-0.37
2021-08-19 00:00:12,-0.03,-0.38
2021-08-19 00:00:12,-0.01,-0.375
2021-08-19 00:00:13,-0.01,-0.375
2021-08-19 00:00:13,-0.02,-0.38
2021-08-19 00:00:13,-0.04,-0.385
2021-08-19 00:00:13,-0.005,-0.365
2021-08-19 00:00:14,-0.025,-0.365
2021-08-19 00:00:14,-0.035,-0.365
2021-08-19 00:00:14,-0.025,-0.35
2021-08-19 00:00:14,-0.025,-0.365
2021-08-19 00:00:15,-0.03,-0.36
2021-08-19 00:00:15,-0.015,-0.36
2021-08-19 00:00:15,-0.025,-0.34
2021-08-19 00:00:15,-0.03,-0.335
2021-08-19 00:00:16,-0.035,-0.32
2021-08-19 00:00:16,-0.05,-0.28
2021-08-19 00:00:16,-0.045,-0.22
2021-08-19 00:00:16,-0.06,-0.215
2021-08-19 00:00:17,-0.045,-0.14
2021-08-19 00:00:17,-0.045,0.07
2021-08-19 00:00:17,-0.03,0.35
2021-08-19 00:00:17,0.0,0.625
2021-08-19 00:00:18,0.05,0.785
2021-08-19 00:00:18,-0.005,0.88
2021-08-19 00:00:18,-0.025,0.89
2021-08-19 00:00:18,-0.07,0.79
2021-08-19 00:00:18,-0.105,0.555
2021-08-19 00:00:19,-0.185,0.195
2021-08-19 00:00:19,-0.405,-0.105
2021-08-19 00:00:19,-0.69,-0.145
2021-08-19 00:00:19,-1.04,0.04
2021-08-19 00:00:20,-1.31,0.085
2021-08-19 00:00:20,-1.475,-0.105
2021-08-19 00:00:20,-1.545,-0.42
2021-08-19 00:00:20,-1.405,-0.67
2021-08-19 00:00:21,-1.055,-0.78
2021-08-19 00:00:21,-0.61,-0.765
2021-08-19 00:00:21,-0.255,-0.735
2021-08-19 00:00:21,-0.145,-0.595
2021-08-19 00:00:22,-0.125,-0.53
2021-08-19 00:00:22,-0.14,-0.505
2021-08-19 00:00:22,-0.165,-0.505
2021-08-19 00:00:22,-0.15,-0.515
2021-08-19 00:00:23,-0.1,-0.51
2021-08-19 00:00:23,-0.065,-0.505
2021-08-19 00:00:23,-0.005,-0.5
2021-08-19 00:00:23,0.03,-0.5
2021-08-19 00:00:24,0.085,-0.45
2021-08-19 00:00:24,0.06,-0.495
2021-08-19 00:00:24,0.075,-0.5
2021-08-19 00:00:24,0.055,-0.51
2021-08-19 00:00:24,0.06,-0.47
2021-08-19 00:00:25,0.07,-0.475
2021-08-19 00:00:25,0.075,-0.47
2021-08-19 00:00:25,0.105,-0.475
2021-08-19 00:00:25,0.095,-0.475
2021-08-19 00:00:26,0.11,-0.47
2021-08-19 00:00:26,0.095,-0.48
2021-08-19 00:00:26,0.115,-0.46
2021-08-19 00:00:26,0.11,-0.48
2021-08-19 00:00:27,0.1,-0.465
2021-08-19 00:00:27,0.1,-0.48
2021-08-19 00:00:27,0.1,-0.49
2021-08-19 00:00:27,0.115,-0.49
2021-08-19 00:00:28,0.115,-0.49
2021-08-19 00:00:28,0.11,-0.47
2021-08-19 00:00:28,0.12,-0.505
2021-08-19 00:00:28,0.105,-0.48
2021-08-19 00:00:29,0.115,-0.46
2021-08-19 00:00:29,0.115,-0.485
2021-08-19 00:00:29,0.12,-0.485
2021-08-19 00:00:29,0.11,-0.495
2021-08-19 00:00:30,0.1,-0.49
2021-08-19 00:00:30,0.11,-0.49
2021-08-19 00:00:30,0.1,-0.51
2021-08-19 00:00:30,0.08,-0.505
2021-08-19 00:00:30,0.08,-0.485
2021-08-19 00:00:31,0.1,-0.5
2021-08-19 00:00:31,0.08,-0.505
2021-08-19 00:00:31,0.095,-0.51
2021-08-19 00:00:31,0.11,-0.505
2021-08-19 00:00:32,0.095,-0.49
2021-08-19 00:00:32,0.085,-0.505
2021-08-19 00:00:32,0.09,-0.51
2021-08-19 00:00:32,0.095,-0.475
2021-08-19 00:00:33,0.105,-0.49
2021-08-19 00:00:33,0.1,-0.47
2021-08-19 00:00:33,0.115,-0.465
2021-08-19 00:00:33,0.09,-0.45
2021-08-19 00:00:34,0.08,-0.435
2021-08-19 00:00:34,0.085,-0.415
2021-08-19 00:00:34,0.07,-0.39
2021-08-19 00:00:34,0.065,-0.385
2021-08-19 00:00:35,0.09,-0.365
2021-08-19 00:00:35,0.09,-0.33
2021-08-19 00:00:35,0.06,-0.32
2021-08-19 00:00:35,0.045,-0.325
2021-08-19 00:00:36,0.055,-0.3
2021-08-19 00:00:36,0.05,-0.29
2021-08-19 00:00:36,0.015,-0.28
2021-08-19 00:00:36,0.025,-0.27
2021-08-19 00:00:36,0.02,-0.25
2021-08-19 00:00:37,0.02,-0.26
2021-08-19 00:00:37,0.01,-0.255
2021-08-19 00:00:37,0.03,-0.255
2021-08-19 00:00:37,0.015,-0.265
2021-08-19 00:00:38,0.005,-0.255
2021-08-19 00:00:38,0.005,-0.265
2021-08-19 00:00:38,0.005,-0.275
2021-08-19 00:00:38,0.015,-0.255
2021-08-19 00:00:39,0.005,-0.255
2021-08-19 00:00:39,0.01,-0.265
2021-08-19 00:00:39,0.015,-0.28
2021-08-19 00:00:39,0.01,-0.3
2021-08-19 00:00:40,0.03,-0.285
2021-08-19 00:00:40,0.03,-0.29
2021-08-19 00:00:40,0.02,-0.285
2021-08-19 00:00:40,0.005,-0.285
2021-08-19 00:00:41,0.025,-0.305
2021-08-19 00:00:41,0.015,-0.29
2021-08-19 00:00:41,0.035,-0.3
2021-08-19 00:00:41,0.035,-0.305
2021-08-19 00:00:42,0.04,-0.295
2021-08-19 00:00:42,0.02,-0.285
2021-08-19 00:00:42,0.03,-0.32
2021-08-19 00:00:42,0.035,-0.305
2021-08-19 00:00:42,0.05,-0.32
2021-08-19 00:00:43,0.065,-0.315
2021-08-19 00:00:43,0.055,-0.315
2021-08-19 00:00:43,0.045,-0.325
2021-08-19 00:00:43,0.07,-0.315
2021-08-19 00:00:44,0.065,-0.32
2021-08-19 00:00:44,0.05,-0.315
2021-08-19 00:00:44,0.06,-0.315
2021-08-19 00:00:44,0.055,-0.32
2021-08-19 00:00:45,0.05,-0.32
2021-08-19 00:00:45,0.05,-0.3
2021-08-19 00:00:45,0.05,-0.29
2021-08-19 00:00:45,0.05,-0.315
2021-08-19 00:00:46,0.06,-0.335
2021-08-19 00:00:46,0.05,-0.315
2021-08-19 00:00:46,0.055,-0.315
2021-08-19 00:00:46,0.04,-0.315
2021-08-19 00:00:47,0.065,-0.31
2021-08-19 00:00:47,0.05,-0.305
2021-08-19 00:00:47,0.045,-0.305
2021-08-19 00:00:47,0.045,-0.285
2021-08-19 00:00:48,0.035,-0.295
2021-08-19 00:00:48,0.05,-0.29
2021-08-19 00:00:48,0.045,-0.31
2021-08-19 00:00:48,0.035,-0.28
2021-08-19 00:00:48,0.04,-0.28
2021-08-19 00:00:49,0.035,-0.3
2021-08-19 00:00:49,0.035,-0.31
2021-08-19 00:00:49,0.035,-0.3
2021-08-19 00:00:49,0.025,-0.315
2021-08-19 00:00:50,0.04,-0.31
2021-08-19 00:00:50,0.035,-0.31
2021-08-19 00:00:50,0.06,-0.315
2021-08-19 00:00:50,0.025,-0.295
2021-08-19 00:00:51,0.04,-0.285
2021-08-19 00:00:51,0.045,-0.285
2021-08-19 00:00:51,0.025,-0.31
2021-08-19 00:00:51,0.025,-0.3
2021-08-19 00:00:52,0.04,-0.285
2021-08-19 00:00:52,0.03,-0.28
2021-08-19 00:00:52,0.02,-0.295
2021-08-19 00:00:52,0.02,-0.29
2021-08-19 00:00:53,0.015,-0.305
2021-08-19 00:00:53,0.02,-0.305
2021-08-19 00:00:53,0.02,-0.31
2021-08-19 00:00:53,0.005,-0.315
2021-08-19 00:00:54,0.015,-0.29
2021-08-19 00:00:54,0.01,-0.295
2021-08-19 00:00:54,0.04,-0.305
2021-08-19 00:00:54,0.01,-0.32
2021-08-19 00:00:54,0.015,-0.3
2021-08-19 00:00:55,0.025,-0.305
2021-08-19 00:00:55,0.015,-0.32
2021-08-19 00:00:55,0.01,-0.305
2021-08-19 00:00:55,0.02,-0.3
2021-08-19 00:00:56,-0.005,-0.29
2021-08-19 00:00:56,0.0,-0.315
2021-08-19 00:00:56,0.015,-0.305
2021-08-19 00:00:56,0.005,-0.31
2021-08-19 00:00:57,0.02,-0.305
2021-08-19 00:00:57,0.01,-0.3
2021-08-19 00:00:57,0.025,-0.29
2021-08-19 00:00:57,0.005,-0.28
2021-08-19 00:00:58,0.02,-0.275
2021-08-19 00:00:58,0.02,-0.245
2021-08-19 00:00:58,0.01,-0.2
2021-08-19 00:00:58,0.02,-0.175
2021-08-19 00:00:59,0.015,-0.145
2021-08-19 00:00:59,0.02,-0.13
2021-08-19 00:00:59,0.03,-0.13
2021-08-19 00:00:59,0.055,-0.135
2021-08-19 00:01:00,0.09,-0.1
2021-08-19 00:01:00,0.085,-0.135
2021-08-19 00:01:00,0.105,-0.165
2021-08-19 00:01:00,0.125,-0.14
2021-08-19 00:01:00,0.105,-0.145
2021-08-19 00:01:01,0.095,-0.14
2021-08-19 00:01:01,0.075,-0.14
2021-08-19 00:01:01,0.08,-0.13
2021-08-19 00:01:01,0.065,-0.17
2021-08-19 00:01:02,0.04,-0.225
2021-08-19 00:01:02,0.015,-0.285
2021-08-19 00:01:02,-0.02,-0.285
2021-08-19 00:01:02,-0.02,-0.265
2021-08-19 00:01:03,-0.035,-0.245
2021-08-19 00:01:03,-0.035,-0.265
2021-08-19 00:01:03,-0.075,-0.24
2021-08-19 00:01:03,-0.085,-0.235
2021-08-19 00:01:04,-0.08,-0.245
2021-08-19 00:01:04,-0.09,-0.235
2021-08-19 00:01:04,-0.06,-0.265
2021-08-19 00:01:04,-0.05,-0.29
2021-08-19 00:01:05,-0.035,-0.3
2021-08-19 00:01:05,-0.045,-0.32
2021-08-19 00:01:05,-0.04,-0.33
2021-08-19 00:01:05,-0.045,-0.36
2021-08-19 00:01:06,-0.03,-0.34
2021-08-19 00:01:06,-0.03,-0.335
2021-08-19 00:01:06,-0.01,-0.32
2021-08-19 00:01:06,0.005,-0.325
2021-08-19 00:01:06,0.025,-0.34
2021-08-19 00:01:07,-0.005,-0.34
2021-08-19 00:01:07,0.0,-0.315
2021-08-19 00:01:07,0.0,-0.33
2021-08-19 00:01:07,-0.015,-0.31
2021-08-19 00:01:08,0.0,-0.31
2021-08-19 00:01:08,-0.01,-0.295
2021-08-19 00:01:08,0.0,-0.32
2021-08-19 00:01:08,-0.03,-0.315
2021-08-19 00:01:09,-0.01,-0.31
2021-08-19 00:01:09,-0.03,-0.3
2021-08-19 00:01:09,-0.025,-0.28
2021-08-19 00:01:09,-0.01,-0.26
2021-08-19 00:01:10,-0.015,-0.225
2021-08-19 00:01:10,-0.035,-0.19
2021-08-19 00:01:10,-0.015,-0.16
2021-08-19 00:01:10,-0.025,-0.015
2021-08-19 00:01:11,-0.02,0.235
2021-08-19 00:01:11,-0.01,0.51
2021-08-19 00:01:11,0.045,0.715
2021-08-19 00:01:11,0.04,0.83
2021-08-19 00:01:12,-0.005,0.88
2021-08-19 00:01:12,-0.045,0.83
2021-08-19 00:01:12,-0.06,0.665
2021-08-19 00:01:12,-0.13,0.37
2021-08-19 00:01:12,-0.265,0.02
2021-08-19 00:01:13,-0.525,-0.08
2021-08-19 00:01:13,-0.875,0.07
2021-08-19 00:01:13,-1.21,0.2
2021-08-19 00:01:13,-1.44,0.075
2021-08-19 00:01:14,-1.515,-0.215
2021-08-19 00:01:14,-1.475,-0.515
2021-08-19 00:01:14,-1.2,-0.65
2021-08-19 00:01:14,-0.75,-0.725
2021-08-19 00:01:15,-0.335,-0.69
2021-08-19 00:01:15,-0.115,-0.585
2021-08-19 00:01:15,-0.08,-0.49
2021-08-19 00:01:15,-0.095,-0.425
2021-08-19 00:01:16,-0.125,-0.435
2021-08-19 00:01:16,-0.11,-0.43
2021-08-19 00:01:16,-0.095,-0.44
2021-08-19 00:01:16,-0.085,-0.435
2021-08-19 00:01:17,-0.025,-0.44
2021-08-19 00:01:17,0.07,-0.415
2021-08-19 00:01:17,0.095,-0.44
2021-08-19 00:01:17,0.09,-0.415
2021-08-19 00:01:18,0.065,-0.415
2021-08-19 00:01:18,0.09,-0.41
2021-08-19 00:01:18,0.105,-0.405
2021-08-19 00:01:18,0.115,-0.4
2021-08-19 00:01:18,0.13,-0.405
2021-08-19 00:01:19,0.115,-0.39
2021-08-19 00:01:19,0.11,-0.4
2021-08-19 00:01:19,0.155,-0.415
2021-08-19 00:01:19,0.125,-0.4
2021-08-19 00:01:20,0.13,-0.405
2021-08-19 00:01:20,0.115,-0.385
2021-08-19 00:01:20,0.11,-0.39
2021-08-19 00:01:20,0.12,-0.405
2021-08-19 00:01:21,0.12,-0.42
2021-08-19 00:01:21,0.125,-0.39
2021-08-19 00:01:21,0.11,-0.4
2021-08-19 00:01:21,0.105,-0.405
2021-08-19 00:01:22,0.125,-0.405
2021-08-19 00:01:22,0.14,-0.4
2021-08-19 00:01:22,0.14,-0.405
2021-08-19 00:01:22,0.14,-0.38
2021-08-19 00:01:23,0.12,-0.4
2021-08-19 00:01:23,0.125,-0.41
2021-08-19 00:01:23,0.125,-0.4
2021-08-19 00:01:23,0.14,-0.4
2021-08-19 00:01:24,0.11,-0.415
2021-08-19 00:01:24,0.12,-0.41
2021-08-19 00:01:24,0.13,-0.415
2021-08-19 00:01:24,0.12,-0.415
2021-08-19 00:01:24,0.1,-0.41
2021-08-19 00:01:25,0.11,-0.43
2021-08-19 00:01:25,0.1,-0.42
2021-08-19 00:01:25,0.11,-0.42
2021-08-19 00:01:25,0.09,-0.43
2021-08-19 00:01:26,0.12,-0.425
2021-08-19 00:01:26,0.085,-0.415
2021-08-19 00:01:26,0.085,-0.4
2021-08-19 00:01:26,0.105,-0.375
2021-08-19 00:01:27,0.09,-0.385
2021-08-19 00:01:27,0.1,-0.36
2021-08-19 00:01:27,0.09,-0.37
2021-08-19 00:01:27,0.08,-0.36
2021-08-19 00:01:28,0.075,-0.32
2021-08-19 00:01:28,0.065,-0.335
2021-08-19 00:01:28,0.075,-0.315
2021-08-19 00:01:28,0.075,-0.28
2021-08-19 00:01:29,0.045,-0.275
2021-08-19 00:01:29,0.055,-0.28
2021-08-19 00:01:29,0.035,-0.235
2021-08-19 00:01:29,0.055,-0.26
2021-08-19 00:01:30,0.045,-0.23
2021-08-19 00:01:30,0.035,-0.195
2021-08-19 00:01:30,0.05,-0.205
2021-08-19 00:01:30,0.035,-0.215
2021-08-19 00:01:30,0.02,-0.2
2021-08-19 00:01:31,0.005,-0.2
2021-08-19 00:01:31,0.025,-0.195
2021-08-19 00:01:31,0.025,-0.185
2021-08-19 00:01:31,0.01,-0.19
2021-08-19 00:01:32,0.015,-0.18
2021-08-19 00:01:32,0.0,-0.18
2021-08-19 00:01:32,0.02,-0.185
2021-08-19 00:01:32,0.02,-0.195
2021-08-19 00:01:33,0.01,-0.225
2021-08-19 00:01:33,0.005,-0.18
2021-08-19 00:01:33,0.005,-0.195
2021-08-19 00:01:33,0.045,-0.195
2021-08-19 00:01:34,0.015,-0.205
2021-08-19 00:01:34,0.035,-0.195
2021-08-19 00:01:34,0.03,-0.215
2021-08-19 00:01:34,0.035,-0.195
2021-08-19 00:01:35,0.045,-0.2
2021-08-19 00:01:35,0.035,-0.215
2021-08-19 00:01:35,0.035,-0.205
2021-08-19 00:01:35,0.025,-0.21
2021-08-19 00:01:36,0.065,-0.205
2021-08-19 00:01:36,0.045,-0.205
2021-08-19 00:01:36,0.055,-0.205
2021-08-19 00:01:36,0.055,-0.21
2021-08-19 00:01:36,0.07,-0.22
2021-08-19 00:01:37,0.05,-0.21
2021-08-19 00:01:37,0.055,-0.21
2021-08-19 00:01:37,0.05,-0.205
2021-08-19 00:01:37,0.05,-0.2
2021-08-19 00:01:38,0.04,-0.21
2021-08-19 00:01:38,0.05,-0.2
2021-08-19 00:01:38,0.07,-0.195
2021-08-19 00:01:38,0.07,-0.195
2021-08-19 00:01:39,0.045,-0.205
2021-08-19 00:01:39,0.08,-0.215
2021-08-19 00:01:39,0.08,-0.185
2021-08-19 00:01:39,0.08,-0.205
2021-08-19 00:01:40,0.07,-0.215
2021-08-19 00:01:40,0.06,-0.19
2021-08-19 00:01:40,0.065,-0.19
2021-08-19 00:01:40,0.075,-0.19
2021-08-19 00:01:41,0.06,-0.19
2021-08-19 00:01:41,0.07,-0.215
2021-08-19 00:01:41,0.045,-0.21
2021-08-19 00:01:41,0.07,-0.205
2021-08-19 00:01:42,0.055,-0.185
2021-08-19 00:01:42,0.035,-0.195
2021-08-19 00:01:42,0.055,-0.195
2021-08-19 00:01:42,0.055,-0.2
2021-08-19 00:01:42,0.05,-0.215
2021-08-19 00:01:43,0.06,-0.19
2021-08-19 00:01:43,0.06,-0.215
2021-08-19 00:01:43,0.025,-0.205
2021-08-19 00:01:43,0.05,-0.205
2021-08-19 00:01:44,0.015,-0.2
2021-08-19 00:01:44,0.035,-0.215
2021-08-19 00:01:44,0.03,-0.19
2021-08-19 00:01:44,0.02,-0.21
2021-08-19 00:01:45,0.03,-0.22
2021-08-19 00:01:45,0.03,-0.205
2021-08-19 00:01:45,0.015,-0.18
2021-08-19 00:01:45,0.01,-0.18
2021-08-19 00:01:46,0.03,-0.2
2021-08-19 00:01:46,0.02,-0.17
2021-08-19 00:01:46,0.03,-0.17
2021-08-19 00:01:46,0.02,-0.19
2021-08-19 00:01:47,0.015,-0.19
2021-08-19 00:01:47,0.025,-0.195
2021-08-19 00:01:47,0.025,-0.19
2021-08-19 00:01:47,0.015,-0.19
2021-08-19 00:01:48,0.035,-0.18
2021-08-19 00:01:48,0.025,-0.195
2021-08-19 00:01:48,0.035,-0.18
2021-08-19 00:01:48,0.025,-0.185
2021-08-19 00:01:48,0.0,-0.19
2021-08-19 00:01:49,0.03,-0.175
2021-08-19 00:01:49,0.025,-0.18
2021-08-19 00:01:49,0.03,-0.195
2021-08-19 00:01:49,0.015,-0.185
2021-08-19 00:01:50,0.01,-0.18
2021-08-19 00:01:50,0.01,-0.17
2021-08-19 00:01:50,0.005,-0.165
2021-08-19 00:01:50,0.02,-0.165
2021-08-19 00:01:51,0.005,-0.12
2021-08-19 00:01:51,-0.005,-0.11
2021-08-19 00:01:51,0.025,-0.08
2021-08-19 00:01:51,0.045,-0.045
2021-08-19 00:01:52,0.02,-0.025
2021-08-19 00:01:52,0.015,-0.02
2021-08-19 00:01:52,0.02,-0.03
2021-08-19 00:01:52,0.06,-0.015
2021-08-19 00:01:53,0.08,-0.005
2021-08-19 00:01:53,0.12,-0.01
2021-08-19 00:01:53,0.115,-0.025
2021-08-19 00:01:53,0.105,-0.02
2021-08-19 00:01:54,0.13,-0.005
2021-08-19 00:01:54,0.105,0.025
2021-08-19 00:01:54,0.095,0.01
2021-08-19 00:01:54,0.075,0.005
2021-08-19 00:01:54,0.07,-0.04
2021-08-19 00:01:55,0.045,-0.08
2021-08-19 00:01:55,0.03,-0.13
2021-08-19 00:01:55,0.025,-0.125
2021-08-19 00:01:55,0.005,-0.12
2021-08-19 00:01:56,-0.015,-0.115
2021-08-19 00:01:56,-0.03,-0.105
2021-08-19 00:01:56,-0.04,-0.09
2021-08-19 00:01:56,-0.05,-0.12
2021-08-19 00:01:57,-0.065,-0.115
2021-08-19 00:01:57,-0.055,-0.11
2021-08-19 00:01:57,-0.04,-0.13
2021-08-19 00:01:57,-0.015,-0.14
2021-08-19 00:01:58,-0.01,-0.15
2021-08-19 00:01:58,-0.02,-0.19
2021-08-19 00:01:58,-0.035,-0.195
2021-08-19 00:01:58,-0.045,-0.21
2021-08-19 00:01:59,-0.015,-0.195
2021-08-19 00:01:59,0.02,-0.17
2021-08-19 00:01:59,0.03,-0.185
2021-08-19 00:01:59,0.045,-0.195
2021-08-19 00:02:00,0.025,-0.19
2021-08-19 00:02:00,0.02,-0.175
2021-08-19 00:02:00,0.015,-0.185
2021-08-19 00:02:00,0.0,-0.19
2021-08-19 00:02:00,0.03,-0.19
2021-08-19 00:02:01,0.01,-0.2
2021-08-19 00:02:01,0.005,-0.17
2021-08-19 00:02:01,0.005,-0.165
2021-08-19 00:02:01,-0.005,-0.2
2021-08-19 00:02:02,0.0,-0.165
2021-08-19 00:02:02,0.01,-0.17
2021-08-19 00:02:02,0.0,-0.15
2021-08-19 00:02:02,0.0,-0.11
2021-08-19 00:02:03,-0.005,-0.1
2021-08-19 00:02:03,0.0,-0.065
2021-08-19 00:02:03,-0.005,0.0
2021-08-19 00:02:03,-0.01,0.185
2021-08-19 00:02:04,0.0,0.45
2021-08-19 00:02:04,0.02,0.67
2021-08-19 00:02:04,0.065,0.855
2021-08-19 00:02:04,0.035,0.975
2021-08-19 00:02:05,-0.035,1.0
2021-08-19 00:02:05,-0.075,0.93
2021-08-19 00:02:05,-0.125,0.72
2021-08-19 00:02:05,-0.185,0.41
2021-08-19 00:02:06,-0.385,0.155
2021-08-19 00:02:06,-0.675,0.165
2021-08-19 00:02:06,-1.0,0.28
2021-08-19 00:02:06,-1.255,0.205
2021-08-19 00:02:06,-1.385,-0.06
2021-08-19 00:02:07,-1.36,-0.35
2021-08-19 00:02:07,-1.205,-0.525
2021-08-19 00:02:07,-0.825,-0.615
2021-08-19 00:02:07,-0.385,-0.61
2021-08-19 00:02:08,-0.16,-0.5
2021-08-19 00:02:08,-0.12,-0.405
2021-08-19 00:02:08,-0.14,-0.34
2021-08-19 00:02:08,-0.15,-0.33
2021-08-19 00:02:09,-0.16,-0.325
2021-08-19 00:02:09,-0.14,-0.32
2021-08-19 00:02:09,-0.11,-0.345
2021-08-19 00:02:09,-0.04,-0.33
2021-08-19 00:02:10,0.005,-0.33
2021-08-19 00:02:10,0.045,-0.305
2021-08-19 00:02:10,0.065,-0.3
2021-08-19 00:02:10,0.055,-0.32
2021-08-19 00:02:11,0.09,-0.335
2021-08-19 00:02:11,0.08,-0.335
2021-08-19 00:02:11,0.065,-0.31
2021-08-19 00:02:11,0.075,-0.32
2021-08-19 00:02:12,0.06,-0.34
2021-08-19 00:02:12,0.07,-0.31
2021-08-19 00:02:12,0.06,-0.315
2021-08-19 00:02:12,0.075,-0.315
2021-08-19 00:02:12,0.075,-0.315
2021-08-19 00:02:13,0.085,-0.33
2021-08-19 00:02:13,0.085,-0.32
2021-08-19 00:02:13,0.09,-0.32
2021-08-19 00:02:13,0.1,-0.315
2021-08-19 00:02:14,0.095,-0.32
2021-08-19 00:02:14,0.08,-0.32
2021-08-19 00:02:14,0.08,-0.315
2021-08-19 00:02:14,0.075,-0.34
2021-08-19 00:02:15,0.07,-0.32
2021-08-19 00:02:15,0.08,-0.34
2021-08-19 00:02:15,0.08,-0.335
2021-08-19 00:02:15,0.07,-0.34
2021-08-19 00:02:16,0.07,-0.34
2021-08-19 00:02:16,0.09,-0.355
2021-08-19 00:02:16,0.07,-0.365
2021-08-19 00:02:16,0.09,-0.36
2021-08-19 00:02:17,0.07,-0.365
2021-08-19 00:02:17,0.065,-0.375
2021-08-19 00:02:17,0.05,-0.38
2021-08-19 00:02:17,0.055,-0.38
2021-08-19 00:02:18,0.075,-0.355
2021-08-19 00:02:18,0.055,-0.375
2021-08-19 00:02:18,0.055,-0.37
2021-08-19 00:02:18,0.06,-0.385
2021-08-19 00:02:18,0.06,-0.39
2021-08-19 00:02:19,0.045,-0.38
2021-08-19 00:02:19,0.07,-0.38
2021-08-19 00:02:19,0.05,-0.375
2021-08-19 00:02:19,0.03,-0.37
2021-08-19 00:02:20,0.04,-0.365
2021-08-19 00:02:20,0.055,-0.32
2021-08-19 00:02:20,0.05,-0.33
2021-08-19 00:02:20,0.04,-0.31
2021-08-19 00:02:21,0.04,-0.285
2021-08-19 00:02:21,0.03,-0.26
2021-08-19 00:02:21,0.03,-0.255
2021-08-19 00:02:21,0.015,-0.225
2021-08-19 00:02:22,0.01,-0.235
2021-08-19 00:02:22,0.015,-0.225
2021-08-19 00:02:22,0.0,-0.185
2021-08-19 00:02:22,0.0,-0.17
2021-08-19 00:02:23,-0.01,-0.165
2021-08-19 00:02:23,-0.01,-0.17
2021-08-19 00:02:23,-0.035,-0.16
2021-08-19 00:02:23,-0.015,-0.16
2021-08-19 00:02:24,-0.02,-0.125
2021-08-19 00:02:24,-0.025,-0.14
2021-08-19 00:02:24,-0.025,-0.15
2021-08-19 00:02:24,-0.04,-0.16
2021-08-19 00:02:24,-0.025,-0.14
2021-08-19 00:02:25,-0.025,-0.165
2021-08-19 00:02:25,-0.02,-0.165
2021-08-19 00:02:25,-0.015,-0.16
2021-08-19 00:02:25,0.005,-0.165
2021-08-19 00:02:26,-0.005,-0.185
2021-08-19 00:02:26,0.0,-0.17
2021-08-19 00:02:26,0.0,-0.17
2021-08-19 00:02:26,-0.005,-0.16
2021-08-19 00:02:27,-0.005,-0.165
2021-08-19 00:02:27,0.0,-0.17
2021-08-19 00:02:27,0.0,-0.175
2021-08-19 00:02:27,0.0,-0.185
2021-08-19 00:02:28,0.0,-0.18
2021-08-19 00:02:28,0.0,-0.17
2021-08-19 00:02:28,0.0,-0.18
2021-08-19 00:02:28,-0.005,-0.18
2021-08-19 00:02:29,0.005,-0.175
2021-08-19 00:02:29,0.0,-0.175
2021-08-19 00:02:29,0.0,-0.18
2021-08-19 00:02:29,-0.005,-0.185
2021-08-19 00:02:30,0.02,-0.185
2021-08-19 00:02:30,0.005,-0.195
2021-08-19 00:02:30,0.005,-0.19
2021-08-19 00:02:30,0.015,-0.19
2021-08-19 00:02:30,-0.01,-0.18
2021-08-19 00:02:31,0.01,-0.19
2021-08-19 00:02:31,0.01,-0.175
2021-08-19 00:02:31,0.0,-0.18
2021-08-19 00:02:31,-0.01,-0.17
2021-08-19 00:02:32,0.01,-0.175
2021-08-19 00:02:32,0.01,-0.19
2021-08-19 00:02:32,0.0,-0.165
2021-08-19 00:02:32,0.005,-0.18
2021-08-19 00:02:33,0.0,-0.19
2021-08-19 00:02:33,0.0,-0.185
2021-08-19 00:02:33,0.0,-0.185
2021-08-19 00:02:33,0.0,-0.185
2021-08-19 00:02:34,-0.005,-0.165
2021-08-19 00:02:34,0.005,-0.175
2021-08-19 00:02:34,0.01,-0.18
2021-08-19 00:02:34,-0.005,-0.175
2021-08-19 00:02:35,-0.02,-0.19
2021-08-19 00:02:35,0.0,-0.18
2021-08-19 00:02:35,0.0,-0.18
2021-08-19 00:02:35,-0.01,-0.18
2021-08-19 00:02:36,-0.005,-0.175
2021-08-19 00:02:36,0.005,-0.185
2021-08-19 00:02:36,0.0,-0.185
2021-08-19 00:02:36,0.0,-0.2
2021-08-19 00:02:36,-0.005,-0.18
2021-08-19 00:02:37,-0.01,-0.195
2021-08-19 00:02:37,0.0,-0.195
2021-08-19 00:02:37,-0.005,-0.18
2021-08-19 00:02:37,0.0,-0.175
2021-08-19 00:02:38,0.005,-0.18
2021-08-19 00:02:38,-0.005,-0.16
2021-08-19 00:02:38,-0.015,-0.155
2021-08-19 00:02:38,-0.02,-0.175
2021-08-19 00:02:39,-0.005,-0.165
2021-08-19 00:02:39,0.005,-0.16
2021-08-19 00:02:39,-0.005,-0.18
2021-08-19 00:02:39,0.0,-0.17
2021-08-19 00:02:40,-0.005,-0.18
2021-08-19 00:02:40,0.0,-0.18
2021-08-19 00:02:40,0.0,-0.18
2021-08-19 00:02:40,0.0,-0.175
2021-08-19 00:02:41,0.0,-0.16
2021-08-19 00:02:41,-0.015,-0.17
2021-08-19 00:02:41,-0.025,-0.18
2021-08-19 00:02:41,-0.005,-0.19
2021-08-19 00:02:42,-0.015,-0.18
2021-08-19 00:02:42,0.0,-0.155
2021-08-19 00:02:42,0.005,-0.13
2021-08-19 00:02:42,0.0,-0.075
2021-08-19 00:02:42,-0.01,-0.045
2021-08-19 00:02:43,0.0,-0.015
2021-08-19 00:02:43,0.01,-0.005
2021-08-19 00:02:43,-0.01,0.0
2021-08-19 00:02:43,0.03,-0.01
2021-08-19 00:02:44,0.055,-0.015
2021-08-19 00:02:44,0.075,-0.015
2021-08-19 00:02:44,0.08,-0.02
2021-08-19 00:02:44,0.1,-0.025
2021-08-19 00:02:45,0.09,0.0
2021-08-19 00:02:45,0.085,0.0
2021-08-19 00:02:45,0.075,0.005
2021-08-19 00:02:45,0.055,-0.02
2021-08-19 00:02:46,0.065,-0.045
2021-08-19 00:02:46,0.025,-0.09
2021-08-19 00:02:46,0.005,-0.125
2021-08-19 00:02:46,0.0,-0.155
2021-08-19 00:02:47,-0.025,-0.145
2021-08-19 00:02:47,-0.05,-0.135
2021-08-19 00:02:47,-0.045,-0.135
2021-08-19 00:02:47,-0.075,-0.13
2021-08-19 00:02:48,-0.065,-0.11
2021-08-19 00:02:48,-0.08,-0.135
2021-08-19 00:02:48,-0.06,-0.155
2021-08-19 00:02:48,-0.08,-0.13
2021-08-19 00:02:48,-0.055,-0.14
2021-08-19 00:02:49,-0.055,-0.155
2021-08-19 00:02:49,-0.035,-0.2
2021-08-19 00:02:49,-0.05,-0.21
2021-08-19 00:02:49,-0.045,-0.21
2021-08-19 00:02:50,-0.035,-0.21
2021-08-19 00:02:50,0.0,-0.225
2021-08-19 00:02:50,0.03,-0.215
2021-08-19 00:02:50,0.01,-0.21
2021-08-19 00:02:51,0.02,-0.215
2021-08-19 00:02:51,0.015,-0.21
2021-08-19 00:02:51,0.005,-0.2
2021-08-19 00:02:51,-0.01,-0.2
2021-08-19 00:02:52,0.01,-0.215
2021-08-19 00:02:52,0.0,-0.21
2021-08-19 00:02:52,-0.02,-0.195
2021-08-19 00:02:52,-0.01,-0.205
2021-08-19 00:02:53,0.0,-0.19
2021-08-19 00:02:53,-0.015,-0.195
2021-08-19 00:02:53,-0.005,-0.17
2021-08-19 00:02:53,0.0,-0.145
2021-08-19 00:02:54,0.0,-0.12
2021-08-19 00:02:54,0.0,-0.105
2021-08-19 00:02:54,-0.005,-0.07
2021-08-19 00:02:54,-0.01,0.02
2021-08-19 00:02:54,0.0,0.21
2021-08-19 00:02:55,0.0,0.5
2021-08-19 00:02:55,0.03,0.75
2021-08-19 00:02:55,0.04,0.945
2021-08-19 00:02:55,0.03,1.065
2021-08-19 00:02:56,-0.015,1.105
2021-08-19 00:02:56,-0.05,1.02
2021-08-19 00:02:56,-0.085,0.81
2021-08-19 00:02:56,-0.185,0.445
2021-08-19 00:02:57,-0.355,0.155
2021-08-19 00:02:57,-0.615,0.125
2021-08-19 00:02:57,-0.905,0.225
2021-08-19 00:02:57,-1.185,0.2
2021-08-19 00:02:58,-1.3,-0.04
2021-08-19 00:02:58,-1.34,-0.32
2021-08-19 00:02:58,-1.19,-0.535
2021-08-19 00:02:58,-0.84,-0.62
2021-08-19 00:02:59,-0.43,-0.63
2021-08-19 00:02:59,-0.185,-0.545
2021-08-19 00:02:59,-0.12,-0.425
2021-08-19 00:02:59,-0.14,-0.38
2021-08-19 00:03:00,-0.135,-0.345
2021-08-19 00:03:00,-0.14,-0.345
2021-08-19 00:03:00,-0.13,-0.355
2021-08-19 00:03:00,-0.115,-0.365
2021-08-19 00:03:00,-0.04,-0.35
2021-08-19 00:03:01,0.01,-0.35
2021-08-19 00:03:01,0.045,-0.38
2021-08-19 00:03:01,0.085,-0.385
2021-08-19 00:03:01,0.09,-0.365
2021-08-19 00:03:02,0.085,-0.365
2021-08-19 00:03:02,0.075,-0.375
2021-08-19 00:03:02,0.105,-0.36
2021-08-19 00:03:02,0.115,-0.385
2021-08-19 00:03:03,0.1,-0.375
2021-08-19 00:03:03,0.09,-0.38
2021-08-19 00:03:03,0.1,-0.375
2021-08-19 00:03:03,0.095,-0.36
2021-08-19 00:03:04,0.1,-0.375
2021-08-19 00:03:04,0.105,-0.385
2021-08-19 00:03:04,0.1,-0.385
2021-08-19 00:03:04,0.06,-0.4
2021-08-19 00:03:05,0.095,-0.38
2021-08-19 00:03:05,0.095,-0.37
2021-08-19 00:03:05,0.11,-0.37
2021-08-19 00:03:05,0.08,-0.36
2021-08-19 00:03:06,0.09,-0.39
2021-08-19 00:03:06,0.095,-0.405
2021-08-19 00:03:06,0.075,-0.38
2021-08-19 00:03:06,0.085,-0.4
2021-08-19 00:03:06,0.075,-0.405
2021-08-19 00:03:07,0.09,-0.415
2021-08-19 00:03:07,0.075,-0.39
2021-08-19 00:03:07,0.09,-0.41
2021-08-19 00:03:07,0.09,-0.42
2021-08-19 00:03:08,0.11,-0.425
2021-08-19 00:03:08,0.1,-0.415
2021-08-19 00:03:08,0.06,-0.42
2021-08-19 00:03:08,0.09,-0.435
2021-08-19 00:03:09,0.08,-0.415
2021-08-19 00:03:09,0.075,-0.44
2021-08-19 00:03:09,0.1,-0.44
2021-08-19 00:03:09,0.085,-0.445
2021-08-19 00:03:10,0.06,-0.44
2021-08-19 00:03:10,0.07,-0.445
2021-08-19 00:03:10,0.08,-0.44
2021-08-19 00:03:10,0.07,-0.415
2021-08-19 00:03:11,0.07,-0.435
2021-08-19 00:03:11,0.055,-0.415
2021-08-19 00:03:11,0.055,-0.415
2021-08-19 00:03:11,0.06,-0.38
2021-08-19 00:03:12,0.07,-0.37
2021-08-19 00:03:12,0.055,-0.36
2021-08-19 00:03:12,0.05,-0.335
2021-08-19 00:03:12,0.025,-0.34
2021-08-19 00:03:12,0.04,-0.3
2021-08-19 00:03:13,0.02,-0.285
2021-08-19 00:03:13,0.015,-0.285
2021-08-19 00:03:13,0.005,-0.295
2021-08-19 00:03:13,0.005,-0.26
2021-08-19 00:03:14,0.01,-0.225
2021-08-19 00:03:14,0.0,-0.24
2021-08-19 00:03:14,0.0,-0.23
2021-08-19 00:03:14,-0.005,-0.205
2021-08-19 00:03:15,-0.015,-0.19
2021-08-19 00:03:15,-0.005,-0.215
2021-08-19 00:03:15,0.0,-0.215
2021-08-19 00:03:15,0.0,-0.22
2021-08-19 00:03:16,-0.015,-0.22
2021-08-19 00:03:16,0.0,-0.21
2021-08-19 00:03:16,0.02,-0.215
2021-08-19 00:03:16,0.0,-0.235
2021-08-19 00:03:17,0.0,-0.24
2021-08-19 00:03:17,0.01,-0.215
2021-08-19 00:03:17,0.0,-0.225
2021-08-19 00:03:17,0.015,-0.225
2021-08-19 00:03:18,0.02,-0.235
2021-08-19 00:03:18,0.01,-0.235
2021-08-19 00:03:18,0.025,-0.245
2021-08-19 00:03:18,0.02,-0.235
2021-08-19 00:03:18,0.01,-0.24
2021-08-19 00:03:19,0.025,-0.255
2021-08-19 00:03:19,0.03,-0.25
2021-08-19 00:03:19,0.035,-0.26
2021-08-19 00:03:19,0.02,-0.25
2021-08-19 00:03:20,0.02,-0.265
2021-08-19 00:03:20,0.035,-0.245
2021-08-19 00:03:20,0.04,-0.25
2021-08-19 00:03:20,0.025,-0.24
2021-08-19 00:03:21,0.06,-0.26
2021-08-19 00:03:21,0.04,-0.265
2021-08-19 00:03:21,0.045,-0.25
2021-08-19 00:03:21,0.025,-0.26
2021-08-19 00:03:22,0.065,-0.26
2021-08-19 00:03:22,0.06,-0.23
2021-08-19 00:03:22,0.06,-0.26
2021-08-19 00:03:22,0.05,-0.255
2021-08-19 00:03:23,0.045,-0.245
2021-08-19 00:03:23,0.045,-0.265
2021-08-19 00:03:23,0.055,-0.25
2021-08-19 00:03:23,0.045,-0.255
2021-08-19 00:03:24,0.055,-0.26
2021-08-19 00:03:24,0.05,-0.265
2021-08-19 00:03:24,0.025,-0.255
2021-08-19 00:03:24,0.03,-0.25
2021-08-19 00:03:24,0.035,-0.27
2021-08-19 00:03:25,0.055,-0.26
2021-08-19 00:03:25,0.055,-0.26
2021-08-19 00:03:25,0.045,-0.26
2021-08-19 00:03:25,0.045,-0.26
2021-08-19 00:03:26,0.025,-0.25
2021-08-19 00:03:26,0.04,-0.265
2021-08-19 00:03:26,0.02,-0.26
2021-08-19 00:03:26,0.05,-0.25
2021-08-19 00:03:27,0.05,-0.27
2021-08-19 00:03:27,0.02,-0.27
2021-08-19 00:03:27,0.03,-0.28
2021-08-19 00:03:27,0.035,-0.285
2021-08-19 00:03:28,0.035,-0.275
2021-08-19 00:03:28,0.04,-0.28
2021-08-19 00:03:28,0.04,-0.27
2021-08-19 00:03:28,0.04,-0.28
2021-08-19 00:03:29,0.035,-0.26
2021-08-19 00:03:29,0.03,-0.285
2021-08-19 00:03:29,0.005,-0.265
2021-08-19 00:03:29,0.02,-0.25
2021-08-19 00:03:30,0.02,-0.255
2021-08-19 00:03:30,0.02,-0.26
2021-08-19 00:03:30,0.025,-0.26
2021-08-19 00:03:30,0.035,-0.25
2021-08-19 00:03:30,0.03,-0.27
2021-08-19 00:03:31,0.025,-0.26
2021-08-19 00:03:31,0.03,-0.26
2021-08-19 00:03:31,0.05,-0.255
2021-08-19 00:03:31,0.015,-0.265
2021-08-19 00:03:32,0.035,-0.265
2021-08-19 00:03:32,0.015,-0.25
2021-08-19 00:03:32,0.01,-0.265
2021-08-19 00:03:32,0.03,-0.255
2021-08-19 00:03:33,0.035,-0.26
2021-08-19 00:03:33,0.01,-0.265
2021-08-19 00:03:33,0.04,-0.275
2021-08-19 00:03:33,0.025,-0.265
2021-08-19 00:03:34,0.04,-0.24
2021-08-19 00:03:34,0.025,-0.245
2021-08-19 00:03:34,0.025,-0.22
2021-08-19 00:03:34,0.025,-0.215
2021-08-19 00:03:35,0.025,-0.165
2021-08-19 00:03:35,0.025,-0.14
2021-08-19 00:03:35,0.045,-0.105
2021-08-19 00:03:35,0.025,-0.08
2021-08-19 00:03:36,0.035,-0.075
2021-08-19 00:03:36,0.06,-0.075
2021-08-19 00:03:36,0.065,-0.05
2021-08-19 00:03:36,0.11,-0.065
2021-08-19 00:03:36,0.13,-0.07
2021-08-19 00:03:37,0.115,-0.09
2021-08-19 00:03:37,0.155,-0.07
2021-08-19 00:03:37,0.155,-0.07
2021-08-19 00:03:37,0.135,-0.065
2021-08-19 00:03:38,0.15,-0.08
2021-08-19 00:03:38,0.1,-0.065
2021-08-19 00:03:38,0.075,-0.07
2021-08-19 00:03:38,0.08,-0.12
2021-08-19 00:03:39,0.07,-0.16
2021-08-19 00:03:39,0.04,-0.19
2021-08-19 00:03:39,0.025,-0.21
2021-08-19 00:03:39,-0.005,-0.19
2021-08-19 00:03:40,-0.03,-0.19
2021-08-19 00:03:40,-0.035,-0.16
2021-08-19 00:03:40,-0.045,-0.165
2021-08-19 00:03:40,-0.025,-0.18
2021-08-19 00:03:41,-0.03,-0.175
2021-08-19 00:03:41,-0.02,-0.185
2021-08-19 00:03:41,-0.01,-0.21
2021-08-19 00:03:41,-0.01,-0.205
2021-08-19 00:03:42,0.015,-0.235
2021-08-19 00:03:42,0.02,-0.24
2021-08-19 00:03:42,0.02,-0.25
2021-08-19 00:03:42,0.015,-0.25
2021-08-19 00:03:42,0.05,-0.275
2021-08-19 00:03:43,0.045,-0.27
2021-08-19 00:03:43,0.075,-0.27
2021-08-19 00:03:43,0.06,-0.265
2021-08-19 00:03:43,0.065,-0.255
2021-08-19 00:03:44,0.05,-0.26
2021-08-19 00:03:44,0.05,-0.255
2021-08-19 00:03:44,0.055,-0.25
2021-08-19 00:03:44,0.055,-0.255
2021-08-19 00:03:45,0.06,-0.26
2021-08-19 00:03:45,0.05,-0.235
2021-08-19 00:03:45,0.06,-0.24
2021-08-19 00:03:45,0.045,-0.24
2021-08-19 00:03:46,0.035,-0.245
2021-08-19 00:03:46,0.035,-0.215
2021-08-19 00:03:46,0.045,-0.2
2021-08-19 00:03:46,0.04,-0.17
2021-08-19 00:03:47,0.04,-0.125
2021-08-19 00:03:47,0.04,-0.115
2021-08-19 00:03:47,0.03,-0.055
2021-08-19 00:03:47,0.04,0.08
2021-08-19 00:03:48,0.04,0.345
2021-08-19 00:03:48,0.05,0.63
2021-08-19 00:03:48,0.1,0.83
2021-08-19 00:03:48,0.095,0.965
2021-08-19 00:03:48,0.065,1.005
2021-08-19 00:03:49,0.005,0.965
2021-08-19 00:03:49,-0.005,0.79
2021-08-19 00:03:49,-0.06,0.485
2021-08-19 00:03:49,-0.225,0.15
2021-08-19 00:03:50,-0.485,-0.08
2021-08-19 00:03:50,-0.825,0.05
2021-08-19 00:03:50,-1.185,0.25
2021-08-19 00:03:50,-1.395,0.195
2021-08-19 00:03:51,-1.485,-0.075
2021-08-19 00:03:51,-1.47,-0.355
2021-08-19 00:03:51,-1.255,-0.575
2021-08-19 00:03:51,-0.825,-0.66
2021-08-19 00:03:52,-0.395,-0.67
2021-08-19 00:03:52,-0.15,-0.61
2021-08-19 00:03:52,-0.06,-0.49
2021-08-19 00:03:52,-0.06,-0.425
2021-08-19 00:03:53,-0.09,-0.38
2021-08-19 00:03:53,-0.08,-0.4
2021-08-19 00:03:53,-0.085,-0.37
2021-08-19 00:03:53,-0.05,-0.375
2021-08-19 00:03:54,-0.005,-0.385
2021-08-19 00:03:54,0.045,-0.375
2021-08-19 00:03:54,0.1,-0.375
2021-08-19 00:03:54,0.11,-0.375
2021-08-19 00:03:54,0.14,-0.38
2021-08-19 00:03:55,0.135,-0.375
2021-08-19 00:03:55,0.135,-0.375
2021-08-19 00:03:55,0.165,-0.37
2021-08-19 00:03:55,0.155,-0.38
2021-08-19 00:03:56,0.145,-0.39
2021-08-19 00:03:56,0.155,-0.38
2021-08-19 00:03:56,0.155,-0.355
2021-08-19 00:03:56,0.155,-0.385
2021-08-19 00:03:57,0.15,-0.37
2021-08-19 00:03:57,0.15,-0.37
2021-08-19 00:03:57,0.15,-0.38
2021-08-19 00:03:57,0.165,-0.38
2021-08-19 00:03:58,0.17,-0.355
2021-08-19 00:03:58,0.165,-0.375
2021-08-19 00:03:58,0.16,-0.35
2021-08-19 00:03:58,0.15,-0.375
2021-08-19 00:03:59,0.175,-0.37
2021-08-19 00:03:59,0.155,-0.38
2021-08-19 00:03:59,0.17,-0.375
2021-08-19 00:03:59,0.155,-0.38
2021-08-19 00:04:00,0.15,-0.365
2021-08-19 00:04:00,0.145,-0.38
2021-08-19 00:04:00,0.14,-0.39
2021-08-19 00:04:00,0.14,-0.395
2021-08-19 00:04:00,0.17,-0.395
2021-08-19 00:04:01,0.155,-0.41
2021-08-19 00:04:01,0.17,-0.405
2021-08-19 00:04:01,0.145,-0.4
2021-08-19 00:04:01,0.145,-0.41
2021-08-19 00:04:02,0.14,-0.395
2021-08-19 00:04:02,0.14,-0.395
2021-08-19 00:04:02,0.17,-0.425
2021-08-19 00:04:02,0.145,-0.41
2021-08-19 00:04:03,0.145,-0.415
2021-08-19 00:04:03,0.14,-0.4
2021-08-19 00:04:03,0.125,-0.395
2021-08-19 00:04:03,0.12,-0.405
2021-08-19 00:04:04,0.13,-0.4
2021-08-19 00:04:04,0.115,-0.405
2021-08-19 00:04:04,0.115,-0.385
2021-08-19 00:04:04,0.125,-0.375
2021-08-19 00:04:05,0.12,-0.355
2021-08-19 00:04:05,0.12,-0.335
2021-08-19 00:04:05,0.12,-0.325
2021-08-19 00:04:05,0.11,-0.32
2021-08-19 00:04:06,0.11,-0.305
2021-08-19 00:04:06,0.095,-0.275
2021-08-19 00:04:06,0.08,-0.27
2021-08-19 00:04:06,0.07,-0.255
2021-08-19 00:04:06,0.055,-0.24
2021-08-19 00:04:07,0.055,-0.235
2021-08-19 00:04:07,0.07,-0.23
2021-08-19 00:04:07,0.025,-0.215
2021-08-19 00:04:07,0.035,-0.215
2021-08-19 00:04:08,0.02,-0.195
2021-08-19 00:04:08,0.025,-0.215
2021-08-19 00:04:08,0.015,-0.205
2021-08-19 00:04:08,0.035,-0.2
2021-08-19 00:04:09,0.015,-0.205
2021-08-19 00:04:09,0.015,-0.2
2021-08-19 00:04:09,0.0,-0.2
2021-08-19 00:04:09,0.02,-0.225
2021-08-19 00:04:10,0.01,-0.21
2021-08-19 00:04:10,0.005,-0.22
2021-08-19 00:04:10,0.015,-0.22
2021-08-19 00:04:10,0.005,-0.22
2021-08-19 00:04:11,-0.005,-0.225
2021-08-19 00:04:11,0.0,-0.23
2021-08-19 00:04:11,0.01,-0.21
2021-08-19 00:04:11,0.015,-0.22
2021-08-19 00:04:12,0.01,-0.22
2021-08-19 00:04:12,0.025,-0.245
2021-08-19 00:04:12,0.015,-0.235
2021-08-19 00:04:12,0.015,-0.25
2021-08-19 00:04:12,0.025,-0.255
2021-08-19 00:04:13,0.025,-0.25
2021-08-19 00:04:13,0.04,-0.24
2021-08-19 00:04:13,0.02,-0.245
2021-08-19 00:04:13,0.04,-0.255
2021-08-19 00:04:14,0.025,-0.265
2021-08-19 00:04:14,0.04,-0.26
2021-08-19 00:04:14,0.04,-0.26
2021-08-19 00:04:14,0.035,-0.26
2021-08-19 00:04:15,0.035,-0.265
2021-08-19 00:04:15,0.035,-0.26
2021-08-19 00:04:15,0.055,-0.27
2021-08-19 00:04:15,0.055,-0.265
2021-08-19 00:04:16,0.055,-0.285
2021-08-19 00:04:16,0.06,-0.265
2021-08-19 00:04:16,0.075,-0.255
2021-08-19 00:04:16,0.065,-0.265
2021-08-19 00:04:17,0.065,-0.26
2021-08-19 00:04:17,0.04,-0.25
2021-08-19 00:04:17,0.04,-0.255
2021-08-19 00:04:17,0.055,-0.255
2021-08-19 00:04:18,0.065,-0.25
2021-08-19 00:04:18,0.055,-0.27
2021-08-19 00:04:18,0.045,-0.26
2021-08-19 00:04:18,0.04,-0.285
2021-08-19 00:04:18,0.035,-0.28
2021-08-19 00:04:19,0.04,-0.28
2021-08-19 00:04:19,0.055,-0.29
2021-08-19 00:04:19,0.05,-0.285
2021-08-19 00:04:19,0.045,-0.29
2021-08-19 00:04:20,0.055,-0.28
2021-08-19 00:04:20,0.035,-0.285
2021-08-19 00:04:20,0.025,-0.275
2021-08-19 00:04:20,0.035,-0.28
2021-08-19 00:04:21,0.02,-0.28
2021-08-19 00:04:21,0.02,-0.295
2021-08-19 00:04:21,0.01,-0.285
2021-08-19 00:04:21,0.025,-0.29
2021-08-19 00:04:22,0.035,-0.285
2021-08-19 00:04:22,0.025,-0.275
2021-08-19 00:04:22,0.02,-0.28
2021-08-19 00:04:22,0.03,-0.285
2021-08-19 00:04:23,0.02,-0.28
2021-08-19 00:04:23,0.0,-0.285
2021-08-19 00:04:23,0.0,-0.29
2021-08-19 00:04:23,0.01,-0.27
2021-08-19 00:04:24,0.0,-0.28
2021-08-19 00:04:24,0.01,-0.275
2021-08-19 00:04:24,0.025,-0.29
2021-08-19 00:04:24,0.02,-0.275
2021-08-19 00:04:24,0.015,-0.28
2021-08-19 00:04:25,0.01,-0.275
2021-08-19 00:04:25,0.03,-0.265
2021-08-19 00:04:25,-0.01,-0.26
2021-08-19 00:04:25,0.02,-0.27
2021-08-19 00:04:26,0.03,-0.275
2021-08-19 00:04:26,0.0,-0.285
2021-08-19 00:04:26,0.0,-0.28
2021-08-19 00:04:26,0.015,-0.28
2021-08-19 00:04:27,0.0,-0.265
2021-08-19 00:04:27,0.015,-0.255
2021-08-19 00:04:27,0.015,-0.27
2021-08-19 00:04:27,0.005,-0.275
2021-08-19 00:04:28,0.0,-0.275
2021-08-19 00:04:28,0.015,-0.275
2021-08-19 00:04:28,0.015,-0.235
2021-08-19 00:04:28,0.0,-0.18
2021-08-19 00:04:29,0.01,-0.17
2021-08-19 00:04:29,0.0,-0.135
2021-08-19 00:04:29,0.0,-0.115
2021-08-19 00:04:29,0.025,-0.085
2021-08-19 00:04:30,0.035,-0.095
2021-08-19 00:04:30,0.04,-0.09
2021-08-19 00:04:30,0.07,-0.085
2021-08-19 00:04:30,0.1,-0.11
2021-08-19 00:04:30,0.105,-0.1
2021-08-19 00:04:31,0.12,-0.115
2021-08-19 00:04:31,0.115,-0.095
2021-08-19 00:04:31,0.12,-0.085
2021-08-19 00:04:31,0.095,-0.08
2021-08-19 00:04:32,0.075,-0.11
2021-08-19 00:04:32,0.045,-0.13
2021-08-19 00:04:32,0.035,-0.18
2021-08-19 00:04:32,0.015,-0.195
2021-08-19 00:04:33,0.0,-0.23
2021-08-19 00:04:33,-0.04,-0.23
2021-08-19 00:04:33,-0.05,-0.2
2021-08-19 00:04:33,-0.035,-0.19
2021-08-19 00:04:34,-0.05,-0.195
2021-08-19 00:04:34,-0.08,-0.19
2021-08-19 00:04:34,-0.045,-0.205
2021-08-19 00:04:34,-0.04,-0.22
2021-08-19 00:04:35,-0.06,-0.225
2021-08-19 00:04:35,-0.04,-0.23
2021-08-19 00:04:35,-0.025,-0.245
2021-08-19 00:04:35,0.0,-0.295
2021-08-19 00:04:36,-0.02,-0.29
2021-08-19 00:04:36,-0.025,-0.3
2021-08-19 00:04:36,-0.025,-0.31
2021-08-19 00:04:36,0.015,-0.29
2021-08-19 00:04:36,0.045,-0.3
2021-08-19 00:04:37,0.04,-0.31
2021-08-19 00:04:37,0.04,-0.285
2021-08-19 00:04:37,0.02,-0.28
2021-08-19 00:04:37,0.005,-0.275
2021-08-19 00:04:38,0.025,-0.275
2021-08-19 00:04:38,0.035,-0.27
2021-08-19 00:04:38,0.055,-0.27
2021-08-19 00:04:38,0.045,-0.265
2021-08-19 00:04:39,0.03,-0.265
2021-08-19 00:04:39,0.035,-0.24
2021-08-19 00:04:39,0.025,-0.235
2021-08-19 00:04:39,0.03,-0.255
2021-08-19 00:04:40,0.025,-0.235
2021-08-19 00:04:40,0.05,-0.19
2021-08-19 00:04:40,0.03,-0.15
2021-08-19 00:04:40,0.01,-0.13
2021-08-19 00:04:41,0.02,-0.1
2021-08-19 00:04:41,0.025,0.075
2021-08-19 00:04:41,0.01,0.345
2021-08-19 00:04:41,0.035,0.595
2021-08-19 00:04:42,0.075,0.78
2021-08-19 00:04:42,0.065,0.86
2021-08-19 00:04:42,0.02,0.885
2021-08-19 00:04:42,-0.04,0.8
2021-08-19 00:04:42,-0.07,0.58
2021-08-19 00:04:43,-0.145,0.25
2021-08-19 00:04:43,-0.335,-0.045
2021-08-19 00:04:43,-0.645,-0.025
2021-08-19 00:04:43,-0.98,0.175
2021-08-19 00:04:44,-1.265,0.23
2021-08-19 00:04:44,-1.47,0.01
2021-08-19 00:04:44,-1.515,-0.29
2021-08-19 00:04:44,-1.385,-0.52
2021-08-19 00:04:45,-1.02,-0.65
2021-08-19 00:04:45,-0.545,-0.69
2021-08-19 00:04:45,-0.205,-0.645
2021-08-19 00:04:45,-0.08,-0.545
2021-08-19 00:04:46,-0.09,-0.445
2021-08-19 00:04:46,-0.11,-0.42
2021-08-19 00:04:46,-0.12,-0.425
2021-08-19 00:04:46,-0.125,-0.42
2021-08-19 00:04:47,-0.09,-0.425
2021-08-19 00:04:47,-0.04,-0.415
2021-08-19 00:04:47,0.02,-0.41
2021-08-19 00:04:47,0.065,-0.43
2021-08-19 00:04:48,0.095,-0.41
2021-08-19 00:04:48,0.125,-0.4
2021-08-19 00:04:48,0.11,-0.42
2021-08-19 00:04:48,0.105,-0.41
2021-08-19 00:04:48,0.1,-0.415
2021-08-19 00:04:49,0.11,-0.4
2021-08-19 00:04:49,0.095,-0.4
2021-08-19 00:04:49,0.12,-0.39
2021-08-19 00:04:49,0.135,-0.39
2021-08-19 00:04:50,0.15,-0.39
2021-08-19 00:04:50,0.135,-0.38
2021-08-19 00:04:50,0.135,-0.4
2021-08-19 00:04:50,0.14,-0.41
2021-08-19 00:04:51,0.14,-0.4
2021-08-19 00:04:51,0.14,-0.405
2021-08-19 00:04:51,0.145,-0.4
2021-08-19 00:04:51,0.14,-0.415
2021-08-19 00:04:52,0.14,-0.425
2021-08-19 00:04:52,0.115,-0.42
2021-08-19 00:04:52,0.145,-0.43
2021-08-19 00:04:52,0.16,-0.425
2021-08-19 00:04:53,0.135,-0.415
2021-08-19 00:04:53,0.13,-0.425
2021-08-19 00:04:53,0.13,-0.415
2021-08-19 00:04:53,0.125,-0.435
2021-08-19 00:04:54,0.12,-0.44
2021-08-19 00:04:54,0.085,-0.43
2021-08-19 00:04:54,0.115,-0.44
2021-08-19 00:04:54,0.12,-0.44
2021-08-19 00:04:54,0.125,-0.44
2021-08-19 00:04:55,0.115,-0.44
2021-08-19 00:04:55,0.12,-0.445
2021-08-19 00:04:55,0.09,-0.445
2021-08-19 00:04:55,0.11,-0.44
2021-08-19 00:04:56,0.09,-0.42
2021-08-19 00:04:56,0.085,-0.435
2021-08-19 00:04:56,0.09,-0.44
2021-08-19 00:04:56,0.09,-0.44
2021-08-19 00:04:57,0.09,-0.445
2021-08-19 00:04:57,0.08,-0.44
2021-08-19 00:04:57,0.09,-0.41
2021-08-19 00:04:57,0.1,-0.39
2021-08-19 00:04:58,0.09,-0.375
2021-08-19 00:04:58,0.085,-0.37
2021-08-19 00:04:58,0.075,-0.345
2021-08-19 00:04:58,0.06,-0.335
2021-08-19 00:04:59,0.06,-0.305
2021-08-19 00:04:59,0.06,-0.3
2021-08-19 00:04:59,0.06,-0.28
2021-08-19 00:04:59,0.02,-0.295
2021-08-19 00:05:00,0.005,-0.29
2021-08-19 00:05:00,0.005,-0.275
2021-08-19 00:05:00,0.005,-0.25
2021-08-19 00:05:00,-0.005,-0.255
2021-08-19 00:05:00,0.0,-0.275
2021-08-19 00:05:01,-0.02,-0.27
2021-08-19 00:05:01,-0.02,-0.25
2021-08-19 00:05:01,-0.02,-0.23
2021-08-19 00:05:01,-0.015,-0.265
2021-08-19 00:05:02,-0.03,-0.245
2021-08-19 00:05:02,-0.01,-0.265
2021-08-19 00:05:02,-0.035,-0.27
2021-08-19 00:05:02,-0.035,-0.26
2021-08-19 00:05:03,-0.025,-0.265
2021-08-19 00:05:03,-0.015,-0.245
2021-08-19 00:05:03,-0.02,-0.265
2021-08-19 00:05:03,-0.035,-0.29
2021-08-19 00:05:04,-0.035,-0.275
2021-08-19 00:05:04,-0.02,-0.305
2021-08-19 00:05:04,-0.025,-0.295
2021-08-19 00:05:04,-0.025,-0.3
2021-08-19 00:05:05,-0.035,-0.295
2021-08-19 00:05:05,-0.015,-0.305
2021-08-19 00:05:05,-0.02,-0.32
2021-08-19 00:05:05,-0.02,-0.32
2021-08-19 00:05:06,-0.01,-0.31
2021-08-19 00:05:06,0.0,-0.315
2021-08-19 00:05:06,-0.04,-0.305
2021-08-19 00:05:06,-0.03,-0.315
2021-08-19 00:05:06,-0.045,-0.315
2021-08-19 00:05:07,-0.025,-0.32
2021-08-19 00:05:07,-0.005,-0.325
2021-08-19 00:05:07,-0.02,-0.33
2021-08-19 00:05:07,-0.025,-0.34
2021-08-19 00:05:08,-0.01,-0.325
2021-08-19 00:05:08,-0.01,-0.335
2021-08-19 00:05:08,-0.025,-0.32
2021-08-19 00:05:08,-0.02,-0.315
2021-08-19 00:05:09,-0.035,-0.33
2021-08-19 00:05:09,-0.02,-0.32
2021-08-19 00:05:09,-0.01,-0.3
2021-08-19 00:05:09,-0.035,-0.315
2021-08-19 00:05:10,-0.01,-0.33
2021-08-19 00:05:10,-0.02,-0.325
2021-08-19 00:05:10,-0.025,-0.32
2021-08-19 00:05:10,-0.03,-0.33
2021-08-19 00:05:11,-0.02,-0.31
2021-08-19 00:05:11,-0.055,-0.305
2021-08-19 00:05:11,-0.025,-0.31
2021-08-19 00:05:11,-0.045,-0.315
2021-08-19 00:05:12,-0.045,-0.31
2021-08-19 00:05:12,-0.02,-0.32
2021-08-19 00:05:12,-0.045,-0.33
2021-08-19 00:05:12,-0.06,-0.335
2021-08-19 00:05:12,-0.065,-0.32
2021-08-19 00:05:13,-0.06,-0.345
2021-08-19 00:05:13,-0.05,-0.33
2021-08-19 00:05:13,-0.07,-0.32
2021-08-19 00:05:13,-0.06,-0.32
2021-08-19 00:05:14,-0.06,-0.33
2021-08-19 00:05:14,-0.045,-0.315
2021-08-19 00:05:14,-0.055,-0.33
2021-08-19 00:05:14,-0.07,-0.33
2021-08-19 00:05:15,-0.055,-0.32
2021-08-19 00:05:15,-0.065,-0.315
2021-08-19 00:05:15,-0.055,-0.33
2021-08-19 00:05:15,-0.045,-0.315
2021-08-19 00:05:16,-0.045,-0.345
2021-08-19 00:05:16,-0.07,-0.31
2021-08-19 00:05:16,-0.055,-0.305
2021-08-19 00:05:16,-0.075,-0.305
2021-08-19 00:05:17,-0.06,-0.305
2021-08-19 00:05:17,-0.065,-0.315
2021-08-19 00:05:17,-0.06,-0.325
2021-08-19 00:05:17,-0.07,-0.31
2021-08-19 00:05:18,-0.085,-0.31
2021-08-19 00:05:18,-0.075,-0.34
2021-08-19 00:05:18,-0.08,-0.32
2021-08-19 00:05:18,-0.07,-0.31
2021-08-19 00:05:18,-0.075,-0.31
2021-08-19 00:05:19,-0.07,-0.3
2021-08-19 00:05:19,-0.08,-0.315
2021-08-19 00:05:19,-0.08,-0.315
2021-08-19 00:05:19,-0.06,-0.27
2021-08-19 00:05:20,-0.065,-0.215
2021-08-19 00:05:20,-0.075,-0.19
2021-08-19 00:05:20,-0.08,-0.16
2021-08-19 00:05:20,-0.08,-0.145
2021-08-19 00:05:21,-0.075,-0.155
2021-08-19 00:05:21,-0.05,-0.155
2021-08-19 00:05:21,-0.02,-0.145
2021-08-19 00:05:21,0.005,-0.15
2021-08-19 00:05:22,0.0,-0.16
2021-08-19 00:05:22,0.02,-0.165
2021-08-19 00:05:22,0.015,-0.155
2021-08-19 00:05:22,0.025,-0.14
2021-08-19 00:05:23,0.01,-0.145
2021-08-19 00:05:23,-0.03,-0.155
2021-08-19 00:05:23,-0.015,-0.17
2021-08-19 00:05:23,-0.04,-0.24
2021-08-19 00:05:24,-0.065,-0.265
2021-08-19 00:05:24,-0.075,-0.265
2021-08-19 00:05:24,-0.115,-0.27
2021-08-19 00:05:24,-0.125,-0.24
2021-08-19 00:05:24,-0.13,-0.235
2021-08-19 00:05:25,-0.14,-0.25
2021-08-19 00:05:25,-0.14,-0.26
2021-08-19 00:05:25,-0.17,-0.27
2021-08-19 00:05:25,-0.16,-0.26
2021-08-19 00:05:26,-0.155,-0.27
2021-08-19 00:05:26,-0.145,-0.28
2021-08-19 00:05:26,-0.135,-0.305
2021-08-19 00:05:26,-0.145,-0.345
2021-08-19 00:05:27,-0.135,-0.34
2021-08-19 00:05:27,-0.125,-0.345
2021-08-19 00:05:27,-0.12,-0.33
2021-08-19 00:05:27,-0.09,-0.32
2021-08-19 00:05:28,-0.06,-0.345
2021-08-19 00:05:28,-0.065,-0.325
2021-08-19 00:05:28,-0.075,-0.335
2021-08-19 00:05:28,-0.08,-0.345
2021-08-19 00:05:29,-0.09,-0.31
2021-08-19 00:05:29,-0.1,-0.34
2021-08-19 00:05:29,-0.1,-0.335
2021-08-19 00:05:29,-0.105,-0.325
2021-08-19 00:05:30,-0.11,-0.345
2021-08-19 00:05:30,-0.095,-0.335
2021-08-19 00:05:30,-0.09,-0.315
2021-08-19 00:05:30,-0.105,-0.3
2021-08-19 00:05:30,-0.105,-0.295
2021-08-19 00:05:31,-0.11,-0.275
2021-08-19 00:05:31,-0.09,-0.225
2021-08-19 00:05:31,-0.105,-0.205
2021-08-19 00:05:31,-0.08,-0.185
2021-08-19 00:05:32,-0.1,-0.065
2021-08-19 00:05:32,-0.11,0.165
2021-08-19 00:05:32,-0.095,0.425
2021-08-19 00:05:32,-0.045,0.65
2021-08-19 00:05:33,-0.04,0.795
2021-08-19 00:05:33,-0.09,0.85
2021-08-19 00:05:33,-0.125,0.84
2021-08-19 00:05:33,-0.145,0.73
2021-08-19 00:05:34,-0.215,0.5
2021-08-19 00:05:34,-0.36,0.195
2021-08-19 00:05:34,-0.605,0.01
2021-08-19 00:05:34,-0.9,0.095
2021-08-19 00:05:35,-1.215,0.175
2021-08-19 00:05:35,-1.41,0.05
2021-08-19 00:05:35,-1.465,-0.25
2021-08-19 00:05:35,-1.405,-0.535
2021-08-19 00:05:36,-1.105,-0.66
2021-08-19 00:05:36,-0.685,-0.72
2021-08-19 00:05:36,-0.355,-0.67
2021-08-19 00:05:36,-0.2,-0.57
2021-08-19 00:05:36,-0.19,-0.47
2021-08-19 00:05:37,-0.21,-0.445
2021-08-19 00:05:37,-0.225,-0.435
2021-08-19 00:05:37,-0.19,-0.435
2021-08-19 00:05:37,-0.175,-0.455
2021-08-19 00:05:38,-0.145,-0.445
2021-08-19 00:05:38,-0.065,-0.455
2021-08-19 00:05:38,-0.025,-0.455
2021-08-19 00:05:38,0.0,-0.435
2021-08-19 00:05:39,0.005,-0.445
2021-08-19 00:05:39,0.015,-0.445
2021-08-19 00:05:39,0.02,-0.45
2021-08-19 00:05:39,0.02,-0.445
2021-08-19 00:05:40,0.005,-0.46
2021-08-19 00:05:40,0.02,-0.44
2021-08-19 00:05:40,0.005,-0.445
2021-08-19 00:05:40,0.005,-0.44
2021-08-19 00:05:41,0.025,-0.43
2021-08-19 00:05:41,0.05,-0.435
2021-08-19 00:05:41,0.0,-0.43
2021-08-19 00:05:41,0.03,-0.435
2021-08-19 00:05:42,0.0,-0.415
2021-08-19 00:05:42,0.025,-0.425
2021-08-19 00:05:42,0.025,-0.445
2021-08-19 00:05:42,0.02,-0.435
2021-08-19 00:05:42,0.0,-0.43
2021-08-19 00:05:43,0.01,-0.435
2021-08-19 00:05:43,0.0,-0.43
2021-08-19 00:05:43,0.01,-0.46
2021-08-19 00:05:43,0.035,-0.46
2021-08-19 00:05:44,0.0,-0.485
2021-08-19 00:05:44,0.0,-0.47
2021-08-19 00:05:44,0.005,-0.465
2021-08-19 00:05:44,0.0,-0.47
2021-08-19 00:05:45,0.0,-0.475
2021-08-19 00:05:45,0.0,-0.48
2021-08-19 00:05:45,0.0,-0.455
2021-08-19 00:05:45,0.0,-0.47
2021-08-19 00:05:46,0.0,-0.465
2021-08-19 00:05:46,0.0,-0.48
2021-08-19 00:05:46,0.0,-0.475
2021-08-19 00:05:46,0.01,-0.465
2021-08-19 00:05:47,-0.005,-0.465
2021-08-19 00:05:47,-0.02,-0.465
2021-08-19 00:05:47,-0.02,-0.47
2021-08-19 00:05:47,-0.005,-0.485
2021-08-19 00:05:48,-0.015,-0.465
2021-08-19 00:05:48,-0.02,-0.47
2021-08-19 00:05:48,-0.025,-0.44
2021-08-19 00:05:48,-0.045,-0.44
2021-08-19 00:05:48,-0.04,-0.43
2021-08-19 00:05:49,-0.035,-0.415
2021-08-19 00:05:49,-0.04,-0.4
2021-08-19 00:05:49,-0.035,-0.375
2021-08-19 00:05:49,-0.045,-0.355
2021-08-19 00:05:50,-0.06,-0.315
2021-08-19 00:05:50,-0.07,-0.31
2021-08-19 00:05:50,-0.06,-0.29
2021-08-19 00:05:50,-0.07,-0.305
2021-08-19 00:05:51,-0.085,-0.275
2021-08-19 00:05:51,-0.1,-0.26
2021-08-19 00:05:51,-0.08,-0.25
2021-08-19 00:05:51,-0.11,-0.26
2021-08-19 00:05:52,-0.12,-0.25
2021-08-19 00:05:52,-0.115,-0.26
2021-08-19 00:05:52,-0.11,-0.265
2021-08-19 00:05:52,-0.1,-0.255
2021-08-19 00:05:53,-0.125,-0.235
2021-08-19 00:05:53,-0.105,-0.26
2021-08-19 00:05:53,-0.1,-0.265
2021-08-19 00:05:53,-0.095,-0.26
2021-08-19 00:05:54,-0.105,-0.245
2021-08-19 00:05:54,-0.1,-0.255
2021-08-19 00:05:54,-0.08,-0.27
2021-08-19 00:05:54,-0.08,-0.27
2021-08-19 00:05:54,-0.105,-0.275
2021-08-19 00:05:55,-0.105,-0.28
2021-08-19 00:05:55,-0.08,-0.275
2021-08-19 00:05:55,-0.095,-0.285
2021-08-19 00:05:55,-0.11,-0.275
2021-08-19 00:05:56,-0.105,-0.285
2021-08-19 00:05:56,-0.095,-0.265
2021-08-19 00:05:56,-0.09,-0.28
2021-08-19 00:05:56,-0.08,-0.28
2021-08-19 00:05:57,-0.085,-0.28
2021-08-19 00:05:57,-0.1,-0.3
2021-08-19 00:05:57,-0.075,-0.31
2021-08-19 00:05:57,-0.085,-0.285
2021-08-19 00:05:58,-0.09,-0.28
2021-08-19 00:05:58,-0.07,-0.28
2021-08-19 00:05:58,-0.055,-0.29
2021-08-19 00:05:58,-0.07,-0.3
2021-08-19 00:05:59,-0.085,-0.295
2021-08-19 00:05:59,-0.045,-0.29
2021-08-19 00:05:59,-0.08,-0.29
2021-08-19 00:05:59,-0.055,-0.3
2021-08-19 00:06:00,-0.06,-0.295
2021-08-19 00:06:00,-0.07,-0.3
2021-08-19 00:06:00,-0.08,-0.29
2021-08-19 00:06:00,-0.07,-0.29
2021-08-19 00:06:00,-0.1,-0.295
2021-08-19 00:06:01,-0.1,-0.275
2021-08-19 00:06:01,-0.095,-0.295
2021-08-19 00:06:01,-0.105,-0.275
2021-08-19 00:06:01,-0.09,-0.27
2021-08-19 00:06:02,-0.08,-0.26
2021-08-19 00:06:02,-0.1,-0.29
2021-08-19 00:06:02,-0.095,-0.29
2021-08-19 00:06:02,-0.095,-0.295
2021-08-19 00:06:03,-0.11,-0.295
2021-08-19 00:06:03,-0.115,-0.315
2021-08-19 00:06:03,-0.1,-0.295
2021-08-19 00:06:03,-0.12,-0.305
2021-08-19 00:06:04,-0.12,-0.295
2021-08-19 00:06:04,-0.13,-0.29
2021-08-19 00:06:04,-0.11,-0.3
2021-08-19 00:06:04,-0.13,-0.305
2021-08-19 00:06:05,-0.15,-0.305
2021-08-19 00:06:05,-0.135,-0.31
2021-08-19 00:06:05,-0.135,-0.3
2021-08-19 00:06:05,-0.12,-0.295
2021-08-19 00:06:06,-0.13,-0.315
2021-08-19 00:06:06,-0.16,-0.31
2021-08-19 00:06:06,-0.12,-0.31
2021-08-19 00:06:06,-0.13,-0.305
2021-08-19 00:06:06,-0.135,-0.315
2021-08-19 00:06:07,-0.14,-0.33
2021-08-19 00:06:07,-0.16,-0.33
2021-08-19 00:06:07,-0.15,-0.295
2021-08-19 00:06:07,-0.12,-0.305
2021-08-19 00:06:08,-0.155,-0.31
2021-08-19 00:06:08,-0.15,-0.295
2021-08-19 00:06:08,-0.15,-0.32
2021-08-19 00:06:08,-0.155,-0.295
2021-08-19 00:06:09,-0.12,-0.315
2021-08-19 00:06:09,-0.155,-0.325
2021-08-19 00:06:09,-0.14,-0.315
2021-08-19 00:06:09,-0.14,-0.295
2021-08-19 00:06:10,-0.185,-0.31
2021-08-19 00:06:10,-0.155,-0.305
2021-08-19 00:06:10,-0.15,-0.295
2021-08-19 00:06:10,-0.14,-0.245
2021-08-19 00:06:11,-0.175,-0.24
2021-08-19 00:06:11,-0.16,-0.22
2021-08-19 00:06:11,-0.155,-0.175
2021-08-19 00:06:11,-0.165,-0.155
2021-08-19 00:06:12,-0.16,-0.15
2021-08-19 00:06:12,-0.12,-0.15
2021-08-19 00:06:12,-0.115,-0.155
2021-08-19 00:06:12,-0.08,-0.16
2021-08-19 00:06:12,-0.06,-0.17
2021-08-19 00:06:13,-0.075,-0.17
2021-08-19 00:06:13,-0.055,-0.18
2021-08-19 00:06:13,-0.05,-0.13
2021-08-19 00:06:13,-0.06,-0.135
2021-08-19 00:06:14,-0.07,-0.125
2021-08-19 00:06:14,-0.08,-0.135
2021-08-19 00:06:14,-0.1,-0.18
2021-08-19 00:06:14,-0.135,-0.245
2021-08-19 00:06:15,-0.12,-0.275
2021-08-19 00:06:15,-0.15,-0.285
2021-08-19 00:06:15,-0.175,-0.26
2021-08-19 00:06:15,-0.18,-0.265
2021-08-19 00:06:16,-0.195,-0.275
2021-08-19 00:06:16,-0.215,-0.265
2021-08-19 00:06:16,-0.21,-0.275
2021-08-19 00:06:16,-0.195,-0.285
2021-08-19 00:06:17,-0.23,-0.3
2021-08-19 00:06:17,-0.225,-0.315
2021-08-19 00:06:17,-0.205,-0.305
2021-08-19 00:06:17,-0.165,-0.325
2021-08-19 00:06:18,-0.18,-0.36
2021-08-19 00:06:18,-0.19,-0.375
2021-08-19 00:06:18,-0.19,-0.37
2021-08-19 00:06:18,-0.155,-0.375
2021-08-19 00:06:18,-0.14,-0.365
2021-08-19 00:06:19,-0.14,-0.365
2021-08-19 00:06:19,-0.12,-0.36
2021-08-19 00:06:19,-0.12,-0.35
2021-08-19 00:06:19,-0.115,-0.36
2021-08-19 00:06:20,-0.12,-0.365
2021-08-19 00:06:20,-0.13,-0.35
2021-08-19 00:06:20,-0.145,-0.35
2021-08-19 00:06:20,-0.135,-0.36
2021-08-19 00:06:21,-0.135,-0.34
2021-08-19 00:06:21,-0.15,-0.34
2021-08-19 00:06:21,-0.135,-0.365
2021-08-19 00:06:21,-0.14,-0.345
2021-08-19 00:06:22,-0.125,-0.335
2021-08-19 00:06:22,-0.125,-0.31
2021-08-19 00:06:22,-0.135,-0.275
2021-08-19 00:06:22,-0.145,-0.25
2021-08-19 00:06:23,-0.14,-0.24
2021-08-19 00:06:23,-0.145,-0.155
2021-08-19 00:06:23,-0.16,0.02
2021-08-19 00:06:23,-0.14,0.325
2021-08-19 00:06:24,-0.11,0.57
2021-08-19 00:06:24,-0.095,0.755
2021-08-19 00:06:24,-0.115,0.895
2021-08-19 00:06:24,-0.15,0.95
2021-08-19 00:06:24,-0.19,0.915
2021-08-19 00:06:25,-0.2,0.735
2021-08-19 00:06:25,-0.285,0.39
2021-08-19 00:06:25,-0.465,0.075
2021-08-19 00:06:25,-0.745,-0.03
2021-08-19 00:06:26,-1.055,0.065
2021-08-19 00:06:26,-1.29,0.09
2021-08-19 00:06:26,-1.45,-0.11
2021-08-19 00:06:26,-1.465,-0.415
2021-08-19 00:06:27,-1.32,-0.635
2021-08-19 00:06:27,-0.98,-0.75
2021-08-19 00:06:27,-0.57,-0.78
2021-08-19 00:06:27,-0.31,-0.705
2021-08-19 00:06:28,-0.21,-0.625
2021-08-19 00:06:28,-0.22,-0.54
2021-08-19 00:06:28,-0.265,-0.495
2021-08-19 00:06:28,-0.26,-0.49
2021-08-19 00:06:29,-0.24,-0.51
2021-08-19 00:06:29,-0.21,-0.505
2021-08-19 00:06:29,-0.155,-0.495
2021-08-19 00:06:29,-0.115,-0.505
2021-08-19 00:06:30,-0.055,-0.5
2021-08-19 00:06:30,-0.035,-0.495
2021-08-19 00:06:30,-0.02,-0.49
2021-08-19 00:06:30,-0.04,-0.51
2021-08-19 00:06:30,-0.04,-0.49
2021-08-19 00:06:31,-0.04,-0.48
2021-08-19 00:06:31,-0.01,-0.485
2021-08-19 00:06:31,-0.015,-0.47
2021-08-19 00:06:31,-0.01,-0.495
2021-08-19 00:06:32,0.0,-0.48
2021-08-19 00:06:32,0.0,-0.475
2021-08-19 00:06:32,-0.015,-0.46
2021-08-19 00:06:32,0.01,-0.47
2021-08-19 00:06:33,0.0,-0.49
2021-08-19 00:06:33,0.0,-0.485
2021-08-19 00:06:33,0.0,-0.485
2021-08-19 00:06:33,-0.02,-0.495
2021-08-19 00:06:34,-0.01,-0.49
2021-08-19 00:06:34,-0.01,-0.49
2021-08-19 00:06:34,-0.01,-0.49
2021-08-19 00:06:34,-0.005,-0.485
2021-08-19 00:06:35,0.0,-0.49
2021-08-19 00:06:35,0.005,-0.49
2021-08-19 00:06:35,-0.005,-0.485
2021-08-19 00:06:35,0.005,-0.49
2021-08-19 00:06:36,0.01,-0.515
2021-08-19 00:06:36,0.0,-0.505
2021-08-19 00:06:36,0.005,-0.495
2021-08-19 00:06:36,0.005,-0.505
2021-08-19 00:06:36,0.0,-0.495
2021-08-19 00:06:37,0.005,-0.5
2021-08-19 00:06:37,0.02,-0.515
2021-08-19 00:06:37,0.0,-0.53
2021-08-19 00:06:37,0.005,-0.515
2021-08-19 00:06:38,0.015,-0.5
2021-08-19 00:06:38,0.01,-0.51
2021-08-19 00:06:38,-0.005,-0.515
2021-08-19 00:06:38,-0.005,-0.515
2021-08-19 00:06:39,0.0,-0.51
2021-08-19 00:06:39,-0.01,-0.485
2021-08-19 00:06:39,0.0,-0.48
2021-08-19 00:06:39,0.005,-0.48
2021-08-19 00:06:40,0.0,-0.44
2021-08-19 00:06:40,0.0,-0.45
2021-08-19 00:06:40,0.0,-0.44
2021-08-19 00:06:40,-0.015,-0.415
2021-08-19 00:06:41,-0.03,-0.4
2021-08-19 00:06:41,-0.035,-0.39
2021-08-19 00:06:41,-0.045,-0.36
2021-08-19 00:06:41,-0.04,-0.355
2021-08-19 00:06:42,-0.03,-0.325
2021-08-19 00:06:42,-0.055,-0.315
2021-08-19 00:06:42,-0.055,-0.315
2021-08-19 00:06:42,-0.055,-0.325
2021-08-19 00:06:42,-0.045,-0.31
2021-08-19 00:06:43,-0.045,-0.305
2021-08-19 00:06:43,-0.045,-0.305
2021-08-19 00:06:43,-0.075,-0.29
2021-08-19 00:06:43,-0.065,-0.285
2021-08-19 00:06:44,-0.065,-0.295
2021-08-19 00:06:44,-0.06,-0.28
2021-08-19 00:06:44,-0.07,-0.28
2021-08-19 00:06:44,-0.055,-0.285
2021-08-19 00:06:45,-0.06,-0.275
2021-08-19 00:06:45,-0.04,-0.285
2021-08-19 00:06:45,-0.05,-0.26
2021-08-19 00:06:45,-0.055,-0.295
2021-08-19 00:06:46,-0.06,-0.29
2021-08-19 00:06:46,-0.045,-0.29
2021-08-19 00:06:46,-0.025,-0.29
2021-08-19 00:06:46,-0.035,-0.29
2021-08-19 00:06:47,-0.025,-0.3
2021-08-19 00:06:47,-0.045,-0.3
2021-08-19 00:06:47,-0.04,-0.28
2021-08-19 00:06:47,-0.035,-0.315
2021-08-19 00:06:48,-0.045,-0.295
2021-08-19 00:06:48,-0.015,-0.305
2021-08-19 00:06:48,-0.04,-0.31
2021-08-19 00:06:48,-0.04,-0.3
2021-08-19 00:06:48,-0.035,-0.305
2021-08-19 00:06:49,-0.02,-0.32
2021-08-19 00:06:49,-0.015,-0.31
2021-08-19 00:06:49,-0.025,-0.31
2021-08-19 00:06:49,-0.015,-0.305
2021-08-19 00:06:50,-0.025,-0.315
2021-08-19 00:06:50,-0.03,-0.31
2021-08-19 00:06:50,-0.015,-0.305
2021-08-19 00:06:50,0.0,-0.3
2021-08-19 00:06:51,-0.02,-0.295
2021-08-19 00:06:51,-0.025,-0.3
2021-08-19 00:06:51,-0.015,-0.31
2021-08-19 00:06:51,-0.005,-0.31
2021-08-19 00:06:52,-0.02,-0.31
2021-08-19 00:06:52,-0.02,-0.3
2021-08-19 00:06:52,-0.035,-0.305
2021-08-19 00:06:52,-0.02,-0.315
2021-08-19 00:06:53,-0.035,-0.305
2021-08-19 00:06:53,-0.035,-0.32
2021-08-19 00:06:53,-0.03,-0.3
2021-08-19 00:06:53,-0.01,-0.305
2021-08-19 00:06:54,-0.025,-0.295
2021-08-19 00:06:54,-0.035,-0.31
2021-08-19 00:06:54,-0.035,-0.32
2021-08-19 00:06:54,-0.04,-0.32
2021-08-19 00:06:54,-0.02,-0.3
2021-08-19 00:06:55,-0.03,-0.315
2021-08-19 00:06:55,-0.03,-0.31
2021-08-19 00:06:55,-0.04,-0.3
2021-08-19 00:06:55,-0.02,-0.31
2021-08-19 00:06:56,-0.05,-0.325
2021-08-19 00:06:56,-0.05,-0.315
2021-08-19 00:06:56,-0.035,-0.31
2021-08-19 00:06:56,-0.04,-0.32
2021-08-19 00:06:57,-0.025,-0.295
2021-08-19 00:06:57,-0.03,-0.32
2021-08-19 00:06:57,-0.045,-0.295
2021-08-19 00:06:57,-0.02,-0.315
2021-08-19 00:06:58,-0.035,-0.29
2021-08-19 00:06:58,-0.025,-0.31
2021-08-19 00:06:58,-0.03,-0.315
2021-08-19 00:06:58,-0.065,-0.325
2021-08-19 00:06:59,-0.04,-0.31
2021-08-19 00:06:59,-0.055,-0.32
2021-08-19 00:06:59,-0.05,-0.315
2021-08-19 00:06:59,-0.05,-0.32
2021-08-19 00:07:00,-0.04,-0.3
2021-08-19 00:07:00,-0.045,-0.315
2021-08-19 00:07:00,-0.04,-0.315
2021-08-19 00:07:00,-0.05,-0.305
2021-08-19 00:07:00,-0.04,-0.3
2021-08-19 00:07:01,-0.045,-0.335
2021-08-19 00:07:01,-0.05,-0.32
2021-08-19 00:07:01,-0.045,-0.335
2021-08-19 00:07:01,-0.04,-0.305
2021-08-19 00:07:02,-0.05,-0.3
2021-08-19 00:07:02,-0.06,-0.28
2021-08-19 00:07:02,-0.045,-0.275
2021-08-19 00:07:02,-0.04,-0.235
2021-08-19 00:07:03,-0.045,-0.21
2021-08-19 00:07:03,-0.055,-0.16
2021-08-19 00:07:03,-0.055,-0.155
2021-08-19 00:07:03,-0.025,-0.155
2021-08-19 00:07:04,-0.01,-0.135
2021-08-19 00:07:04,0.0,-0.13
2021-08-19 00:07:04,0.02,-0.12
2021-08-19 00:07:04,0.03,-0.12
2021-08-19 00:07:05,0.055,-0.125
2021-08-19 00:07:05,0.06,-0.14
2021-08-19 00:07:05,0.075,-0.125
2021-08-19 00:07:05,0.045,-0.12
2021-08-19 00:07:06,0.035,-0.145
2021-08-19 00:07:06,0.015,-0.125
2021-08-19 00:07:06,-0.01,-0.175
2021-08-19 00:07:06,-0.01,-0.21
2021-08-19 00:07:06,-0.045,-0.265
2021-08-19 00:07:07,-0.065,-0.27
2021-08-19 00:07:07,-0.095,-0.26
2021-08-19 00:07:07,-0.1,-0.25
2021-08-19 00:07:07,-0.1,-0.245
2021-08-19 00:07:08,-0.115,-0.24
2021-08-19 00:07:08,-0.13,-0.22
2021-08-19 00:07:08,-0.14,-0.245
2021-08-19 00:07:08,-0.135,-0.25
2021-08-19 00:07:09,-0.125,-0.265
2021-08-19 00:07:09,-0.115,-0.28
2021-08-19 00:07:09,-0.105,-0.3
2021-08-19 00:07:09,-0.105,-0.32
2021-08-19 00:07:10,-0.105,-0.34
2021-08-19 00:07:10,-0.09,-0.34
2021-08-19 00:07:10,-0.09,-0.355
2021-08-19 00:07:10,-0.065,-0.33
2021-08-19 00:07:11,-0.04,-0.325
2021-08-19 00:07:11,-0.015,-0.35
2021-08-19 00:07:11,-0.02,-0.34
2021-08-19 00:07:11,-0.035,-0.345
2021-08-19 00:07:12,-0.055,-0.32
2021-08-19 00:07:12,-0.06,-0.355
2021-08-19 00:07:12,-0.065,-0.34
2021-08-19 00:07:12,-0.055,-0.34
2021-08-19 00:07:12,-0.05,-0.33
2021-08-19 00:07:13,-0.035,-0.325
2021-08-19 00:07:13,-0.045,-0.325
2021-08-19 00:07:13,-0.07,-0.32
2021-08-19 00:07:13,-0.065,-0.3
2021-08-19 00:07:14,-0.05,-0.28
2021-08-19 00:07:14,-0.065,-0.23
2021-08-19 00:07:14,-0.07,-0.21
2021-08-19 00:07:14,-0.095,-0.18
2021-08-19 00:07:15,-0.07,-0.045
2021-08-19 00:07:15,-0.04,0.185
2021-08-19 00:07:15,-0.035,0.495
2021-08-19 00:07:15,-0.005,0.72
2021-08-19 00:07:16,0.015,0.865
2021-08-19 00:07:16,-0.03,0.935
2021-08-19 00:07:16,-0.1,0.91
2021-08-19 00:07:16,-0.11,0.75
2021-08-19 00:07:17,-0.175,0.44
2021-08-19 00:07:17,-0.32,0.065
2021-08-19 00:07:17,-0.555,-0.13
2021-08-19 00:07:17,-0.93,0.0
2021-08-19 00:07:18,-1.24,0.165
2021-08-19 00:07:18,-1.46,0.055
2021-08-19 00:07:18,-1.58,-0.205
2021-08-19 00:07:18,-1.54,-0.525
2021-08-19 00:07:18,-1.28,-0.68
2021-08-19 00:07:19,-0.82,-0.74
2021-08-19 00:07:19,-0.41,-0.7
2021-08-19 00:07:19,-0.21,-0.62
2021-08-19 00:07:19,-0.145,-0.545
2021-08-19 00:07:20,-0.165,-0.485
2021-08-19 00:07:20,-0.175,-0.475
2021-08-19 00:07:20,-0.175,-0.48
2021-08-19 00:07:20,-0.18,-0.475
2021-08-19 00:07:21,-0.125,-0.49
2021-08-19 00:07:21,-0.08,-0.485
2021-08-19 00:07:21,-0.02,-0.47
2021-08-19 00:07:21,0.02,-0.48
2021-08-19 00:07:22,0.02,-0.48
2021-08-19 00:07:22,0.02,-0.445
2021-08-19 00:07:22,0.05,-0.465
2021-08-19 00:07:22,0.055,-0.47
2021-08-19 00:07:23,0.075,-0.47
2021-08-19 00:07:23,0.07,-0.46
2021-08-19 00:07:23,0.065,-0.475
2021-08-19 00:07:23,0.095,-0.455
2021-08-19 00:07:24,0.065,-0.445
2021-08-19 00:07:24,0.08,-0.455
2021-08-19 00:07:24,0.08,-0.44
2021-08-19 00:07:24,0.085,-0.455
2021-08-19 00:07:24,0.095,-0.46
2021-08-19 00:07:25,0.095,-0.455
2021-08-19 00:07:25,0.095,-0.445
2021-08-19 00:07:25,0.1,-0.45
2021-08-19 00:07:25,0.11,-0.445
2021-08-19 00:07:26,0.1,-0.445
2021-08-19 00:07:26,0.08,-0.47
2021-08-19 00:07:26,0.08,-0.465
2021-08-19 00:07:26,0.095,-0.475
2021-08-19 00:07:27,0.07,-0.46
2021-08-19 00:07:27,0.09,-0.48
2021-08-19 00:07:27,0.08,-0.485
2021-08-19 00:07:27,0.075,-0.495
2021-08-19 00:07:28,0.075,-0.465
2021-08-19 00:07:28,0.1,-0.475
2021-08-19 00:07:28,0.105,-0.475
2021-08-19 00:07:28,0.115,-0.475
2021-08-19 00:07:29,0.07,-0.46
2021-08-19 00:07:29,0.1,-0.48
2021-08-19 00:07:29,0.08,-0.49
2021-08-19 00:07:29,0.09,-0.485
2021-08-19 00:07:30,0.085,-0.485
2021-08-19 00:07:30,0.08,-0.485
2021-08-19 00:07:30,0.04,-0.475
2021-08-19 00:07:30,0.07,-0.5
2021-08-19 00:07:30,0.065,-0.475
2021-08-19 00:07:31,0.055,-0.47
2021-08-19 00:07:31,0.055,-0.455
2021-08-19 00:07:31,0.06,-0.445
2021-08-19 00:07:31,0.065,-0.415
2021-08-19 00:07:32,0.055,-0.415
2021-08-19 00:07:32,0.05,-0.395
2021-08-19 00:07:32,0.065,-0.39
2021-08-19 00:07:32,0.025,-0.36
2021-08-19 00:07:33,0.05,-0.355
2021-08-19 00:07:33,0.03,-0.32
2021-08-19 00:07:33,0.03,-0.32
2021-08-19 00:07:33,0.01,-0.31
2021-08-19 00:07:34,0.005,-0.29
2021-08-19 00:07:34,-0.01,-0.3
2021-08-19 00:07:34,-0.02,-0.27
2021-08-19 00:07:34,-0.015,-0.28
2021-08-19 00:07:35,-0.02,-0.27
2021-08-19 00:07:35,-0.015,-0.265
2021-08-19 00:07:35,-0.005,-0.255
2021-08-19 00:07:35,-0.005,-0.26
2021-08-19 00:07:36,-0.025,-0.25
2021-08-19 00:07:36,-0.015,-0.265
2021-08-19 00:07:36,-0.045,-0.255
2021-08-19 00:07:36,-0.035,-0.25
2021-08-19 00:07:36,-0.015,-0.26
2021-08-19 00:07:37,0.0,-0.265
2021-08-19 00:07:37,-0.005,-0.275
2021-08-19 00:07:37,-0.015,-0.285
2021-08-19 00:07:37,0.0,-0.285
2021-08-19 00:07:38,0.02,-0.285
2021-08-19 00:07:38,0.0,-0.29
2021-08-19 00:07:38,0.005,-0.295
2021-08-19 00:07:38,0.005,-0.285
2021-08-19 00:07:39,0.01,-0.305
2021-08-19 00:07:39,0.005,-0.29
2021-08-19 00:07:39,0.01,-0.305
2021-08-19 00:07:39,0.0,-0.3
2021-08-19 00:07:40,0.01,-0.3
2021-08-19 00:07:40,-0.015,-0.295
2021-08-19 00:07:40,0.035,-0.31
2021-08-19 00:07:40,0.005,-0.3
2021-08-19 00:07:41,0.02,-0.295
2021-08-19 00:07:41,0.025,-0.315
2021-08-19 00:07:41,0.025,-0.31
2021-08-19 00:07:41,0.04,-0.305
2021-08-19 00:07:42,0.025,-0.305
2021-08-19 00:07:42,0.015,-0.31
2021-08-19 00:07:42,0.02,-0.305
2021-08-19 00:07:42,0.04,-0.31
2021-08-19 00:07:42,0.04,-0.295
2021-08-19 00:07:43,0.03,-0.305
2021-08-19 00:07:43,0.03,-0.305
2021-08-19 00:07:43,0.035,-0.31
2021-08-19 00:07:43,0.04,-0.3
2021-08-19 00:07:44,0.04,-0.29
2021-08-19 00:07:44,0.045,-0.31
2021-08-19 00:07:44,0.03,-0.305
2021-08-19 00:07:44,0.05,-0.31
2021-08-19 00:07:45,0.045,-0.295
2021-08-19 00:07:45,0.025,-0.29
2021-08-19 00:07:45,0.01,-0.3
2021-08-19 00:07:45,0.01,-0.285
2021-08-19 00:07:46,0.025,-0.28
2021-08-19 00:07:46,0.015,-0.285
2021-08-19 00:07:46,0.01,-0.3
2021-08-19 00:07:46,0.005,-0.27
2021-08-19 00:07:47,0.0,-0.28
2021-08-19 00:07:47,0.02,-0.28
2021-08-19 00:07:47,0.01,-0.28
2021-08-19 00:07:47,0.0,-0.275
2021-08-19 00:07:48,0.0,-0.29
2021-08-19 00:07:48,0.0,-0.295
2021-08-19 00:07:48,0.025,-0.3
2021-08-19 00:07:48,0.005,-0.28
2021-08-19 00:07:48,0.0,-0.29
2021-08-19 00:07:49,0.0,-0.295
2021-08-19 00:07:49,0.0,-0.3
2021-08-19 00:07:49,0.0,-0.31
2021-08-19 00:07:49,-0.01,-0.28
2021-08-19 00:07:50,0.01,-0.28
2021-08-19 00:07:50,0.005,-0.31
2021-08-19 00:07:50,-0.005,-0.265
2021-08-19 00:07:50,0.005,-0.3
2021-08-19 00:07:51,0.0,-0.32
2021-08-19 00:07:51,0.005,-0.305
2021-08-19 00:07:51,0.02,-0.275
2021-08-19 00:07:51,0.0,-0.29
2021-08-19 00:07:52,0.005,-0.3
2021-08-19 00:07:52,0.0,-0.29
2021-08-19 00:07:52,-0.015,-0.29
2021-08-19 00:07:52,-0.015,-0.29
2021-08-19 00:07:53,-0.01,-0.29
2021-08-19 00:07:53,-0.02,-0.27
2021-08-19 00:07:53,-0.03,-0.285
2021-08-19 00:07:53,-0.025,-0.295
2021-08-19 00:07:54,0.0,-0.305
2021-08-19 00:07:54,-0.02,-0.28
2021-08-19 00:07:54,0.005,-0.3
2021-08-19 00:07:54,-0.02,-0.275
2021-08-19 00:07:54,-0.01,-0.255
2021-08-19 00:07:55,-0.005,-0.24
2021-08-19 00:07:55,0.0,-0.21
2021-08-19 00:07:55,-0.015,-0.16
2021-08-19 00:07:55,-0.01,-0.13
2021-08-19 00:07:56,-0.02,-0.12
2021-08-19 00:07:56,0.0,-0.125
2021-08-19 00:07:56,0.02,-0.11
2021-08-19 00:07:56,0.025,-0.105
2021-08-19 00:07:57,0.075,-0.11
2021-08-19 00:07:57,0.07,-0.105
2021-08-19 00:07:57,0.075,-0.11
2021-08-19 00:07:57,0.095,-0.12
2021-08-19 00:07:58,0.1,-0.115
2021-08-19 00:07:58,0.075,-0.095
2021-08-19 00:07:58,0.09,-0.115
2021-08-19 00:07:58,0.065,-0.125
2021-08-19 00:07:59,0.03,-0.135
2021-08-19 00:07:59,0.005,-0.19
2021-08-19 00:07:59,0.0,-0.205
2021-08-19 00:07:59,-0.03,-0.235
2021-08-19 00:08:00,-0.065,-0.23
2021-08-19 00:08:00,-0.05,-0.245
2021-08-19 00:08:00,-0.08,-0.22
2021-08-19 00:08:00,-0.085,-0.195
2021-08-19 00:08:00,-0.095,-0.21
2021-08-19 00:08:01,-0.08,-0.225
2021-08-19 00:08:01,-0.08,-0.23
2021-08-19 00:08:01,-0.08,-0.245
2021-08-19 00:08:01,-0.05,-0.255
2021-08-19 00:08:02,-0.055,-0.255
2021-08-19 00:08:02,-0.04,-0.265
2021-08-19 00:08:02,-0.055,-0.29
2021-08-19 00:08:02,-0.055,-0.335
2021-08-19 00:08:03,-0.05,-0.335
2021-08-19 00:08:03,-0.005,-0.305
2021-08-19 00:08:03,-0.01,-0.32
2021-08-19 00:08:03,0.005,-0.305
2021-08-19 00:08:04,0.0,-0.305
2021-08-19 00:08:04,0.01,-0.3
2021-08-19 00:08:04,-0.015,-0.29
2021-08-19 00:08:04,0.0,-0.275
2021-08-19 00:08:05,0.0,-0.285
2021-08-19 00:08:05,-0.005,-0.295
2021-08-19 00:08:05,-0.015,-0.295
2021-08-19 00:08:05,-0.01,-0.28
2021-08-19 00:08:06,-0.015,-0.295
2021-08-19 00:08:06,-0.025,-0.285
2021-08-19 00:08:06,-0.02,-0.29
2021-08-19 00:08:06,-0.035,-0.28
2021-08-19 00:08:06,-0.03,-0.265
2021-08-19 00:08:07,-0.005,-0.225
2021-08-19 00:08:07,-0.04,-0.185
2021-08-19 00:08:07,-0.035,-0.16
2021-08-19 00:08:07,-0.035,-0.12
2021-08-19 00:08:08,-0.03,0.07
2021-08-19 00:08:08,-0.01,0.325
2021-08-19 00:08:08,0.0,0.57
2021-08-19 00:08:08,0.035,0.73
2021-08-19 00:08:09,0.015,0.825
2021-08-19 00:08:09,-0.04,0.84
2021-08-19 00:08:09,-0.08,0.785
2021-08-19 00:08:09,-0.11,0.6
2021-08-19 00:08:10,-0.19,0.32
2021-08-19 00:08:10,-0.375,-0.01
2021-08-19 00:08:10,-0.655,-0.12
2021-08-19 00:08:10,-0.96,0.035
2021-08-19 00:08:11,-1.3,0.21
2021-08-19 00:08:11,-1.48,0.095
2021-08-19 00:08:11,-1.585,-0.175
2021-08-19 00:08:11,-1.535,-0.445
2021-08-19 00:08:12,-1.255,-0.635
2021-08-19 00:08:12,-0.78,-0.72
2021-08-19 00:08:12,-0.37,-0.68
2021-08-19 00:08:12,-0.16,-0.6
2021-08-19 00:08:12,-0.12,-0.485
2021-08-19 00:08:13,-0.14,-0.445
2021-08-19 00:08:13,-0.165,-0.425
2021-08-19 00:08:13,-0.17,-0.405
2021-08-19 00:08:13,-0.16,-0.42
2021-08-19 00:08:14,-0.09,-0.42
2021-08-19 00:08:14,-0.015,-0.425
2021-08-19 00:08:14,0.015,-0.435
2021-08-19 00:08:14,0.05,-0.435
2021-08-19 00:08:15,0.06,-0.43
2021-08-19 00:08:15,0.065,-0.42
2021-08-19 00:08:15,0.095,-0.43
2021-08-19 00:08:15,0.07,-0.425
2021-08-19 00:08:16,0.085,-0.42
2021-08-19 00:08:16,0.11,-0.43
2021-08-19 00:08:16,0.1,-0.4
2021-08-19 00:08:16,0.095,-0.405
2021-08-19 00:08:17,0.13,-0.42
2021-08-19 00:08:17,0.14,-0.405
2021-08-19 00:08:17,0.125,-0.395
2021-08-19 00:08:17,0.1,-0.375
2021-08-19 00:08:18,0.105,-0.395
2021-08-19 00:08:18,0.115,-0.4
2021-08-19 00:08:18,0.125,-0.39
2021-08-19 00:08:18,0.105,-0.4
2021-08-19 00:08:18,0.115,-0.385
2021-08-19 00:08:19,0.095,-0.365
2021-08-19 00:08:19,0.11,-0.405
2021-08-19 00:08:19,0.11,-0.4
2021-08-19 00:08:19,0.12,-0.39
2021-08-19 00:08:20,0.115,-0.4
2021-08-19 00:08:20,0.125,-0.39
2021-08-19 00:08:20,0.115,-0.39
2021-08-19 00:08:20,0.11,-0.41
2021-08-19 00:08:21,0.12,-0.41
2021-08-19 00:08:21,0.115,-0.43
2021-08-19 00:08:21,0.095,-0.44
2021-08-19 00:08:21,0.095,-0.42
2021-08-19 00:08:22,0.1,-0.435
2021-08-19 00:08:22,0.1,-0.445
2021-08-19 00:08:22,0.095,-0.45
2021-08-19 00:08:22,0.09,-0.43
2021-08-19 00:08:23,0.095,-0.425
2021-08-19 00:08:23,0.1,-0.425
2021-08-19 00:08:23,0.09,-0.41
2021-08-19 00:08:23,0.11,-0.445
2021-08-19 00:08:24,0.07,-0.44
2021-08-19 00:08:24,0.1,-0.44
2021-08-19 00:08:24,0.09,-0.41
2021-08-19 00:08:24,0.065,-0.435
2021-08-19 00:08:24,0.08,-0.39
2021-08-19 00:08:25,0.075,-0.375
2021-08-19 00:08:25,0.055,-0.365
2021-08-19 00:08:25,0.065,-0.38
2021-08-19 00:08:25,0.045,-0.34
2021-08-19 00:08:26,0.055,-0.34
2021-08-19 00:08:26,0.05,-0.32
2021-08-19 00:08:26,0.075,-0.295
2021-08-19 00:08:26,0.035,-0.285
2021-08-19 00:08:27,0.03,-0.28
2021-08-19 00:08:27,0.02,-0.26
2021-08-19 00:08:27,0.005,-0.265
2021-08-19 00:08:27,0.0,-0.25
2021-08-19 00:08:28,-0.005,-0.245
2021-08-19 00:08:28,-0.005,-0.24
2021-08-19 00:08:28,-0.025,-0.245
2021-08-19 00:08:28,-0.02,-0.225
2021-08-19 00:08:29,-0.03,-0.225
2021-08-19 00:08:29,-0.01,-0.235
2021-08-19 00:08:29,-0.05,-0.24
2021-08-19 00:08:29,-0.02,-0.215
2021-08-19 00:08:30,-0.03,-0.215
2021-08-19 00:08:30,-0.025,-0.23
2021-08-19 00:08:30,-0.025,-0.255
2021-08-19 00:08:30,-0.025,-0.26
2021-08-19 00:08:30,-0.02,-0.26
2021-08-19 00:08:31,0.0,-0.26
2021-08-19 00:08:31,-0.025,-0.265
2021-08-19 00:08:31,-0.01,-0.27
2021-08-19 00:08:31,0.005,-0.27
2021-08-19 00:08:32,-0.025,-0.28
2021-08-19 00:08:32,-0.04,-0.25
2021-08-19 00:08:32,-0.005,-0.275
2021-08-19 00:08:32,-0.01,-0.285
2021-08-19 00:08:33,-0.025,-0.29
2021-08-19 00:08:33,-0.015,-0.285
2021-08-19 00:08:33,-0.02,-0.29
2021-08-19 00:08:33,0.005,-0.285
2021-08-19 00:08:34,0.0,-0.27
2021-08-19 00:08:34,0.0,-0.27
2021-08-19 00:08:34,0.0,-0.27
2021-08-19 00:08:34,0.025,-0.29
2021-08-19 00:08:35,0.01,-0.28
2021-08-19 00:08:35,0.01,-0.275
2021-08-19 00:08:35,0.0,-0.26
2021-08-19 00:08:35,0.005,-0.29
2021-08-19 00:08:36,0.01,-0.28
2021-08-19 00:08:36,0.01,-0.27
2021-08-19 00:08:36,0.015,-0.25
2021-08-19 00:08:36,0.015,-0.26
2021-08-19 00:08:36,0.04,-0.255
2021-08-19 00:08:37,0.015,-0.265
2021-08-19 00:08:37,0.02,-0.255
2021-08-19 00:08:37,0.015,-0.275
2021-08-19 00:08:37,0.04,-0.26
2021-08-19 00:08:38,0.04,-0.27
2021-08-19 00:08:38,0.02,-0.245
2021-08-19 00:08:38,0.03,-0.265
2021-08-19 00:08:38,0.02,-0.255
2021-08-19 00:08:39,0.02,-0.25
2021-08-19 00:08:39,0.005,-0.26
2021-08-19 00:08:39,0.01,-0.265
2021-08-19 00:08:39,0.02,-0.25
2021-08-19 00:08:40,0.0,-0.255
2021-08-19 00:08:40,0.01,-0.255
2021-08-19 00:08:40,-0.02,-0.24
2021-08-19 00:08:40,0.0,-0.24
2021-08-19 00:08:41,0.02,-0.245
2021-08-19 00:08:41,0.01,-0.24
2021-08-19 00:08:41,0.0,-0.24
2021-08-19 00:08:41,0.0,-0.24
2021-08-19 00:08:42,0.005,-0.235
2021-08-19 00:08:42,0.015,-0.225
2021-08-19 00:08:42,0.005,-0.255
2021-08-19 00:08:42,0.005,-0.235
2021-08-19 00:08:42,0.005,-0.255
2021-08-19 00:08:43,-0.015,-0.235
2021-08-19 00:08:43,-0.015,-0.225
2021-08-19 00:08:43,-0.025,-0.255
2021-08-19 00:08:43,0.0,-0.24
2021-08-19 00:08:44,0.0,-0.235
2021-08-19 00:08:44,0.025,-0.245
2021-08-19 00:08:44,0.0,-0.235
2021-08-19 00:08:44,-0.02,-0.235
2021-08-19 00:08:45,0.015,-0.235
2021-08-19 00:08:45,0.0,-0.22
2021-08-19 00:08:45,0.0,-0.23
2021-08-19 00:08:45,0.0,-0.215
2021-08-19 00:08:46,0.005,-0.22
2021-08-19 00:08:46,0.0,-0.23
2021-08-19 00:08:46,0.0,-0.22
2021-08-19 00:08:46,-0.02,-0.23
2021-08-19 00:08:47,-0.005,-0.235
2021-08-19 00:08:47,-0.005,-0.21
2021-08-19 00:08:47,-0.015,-0.21
2021-08-19 00:08:47,0.0,-0.195
2021-08-19 00:08:48,-0.02,-0.155
2021-08-19 00:08:48,-0.015,-0.125
2021-08-19 00:08:48,-0.01,-0.085
2021-08-19 00:08:48,0.0,-0.065
2021-08-19 00:08:48,-0.01,-0.04
2021-08-19 00:08:49,0.005,-0.045
2021-08-19 00:08:49,0.01,-0.05
2021-08-19 00:08:49,0.035,-0.05
2021-08-19 00:08:49,0.055,-0.03
2021-08-19 00:08:50,0.07,-0.045
2021-08-19 00:08:50,0.075,-0.065
2021-08-19 00:08:50,0.06,-0.035
2021-08-19 00:08:50,0.08,-0.04
2021-08-19 00:08:51,0.07,-0.03
2021-08-19 00:08:51,0.06,-0.025
2021-08-19 00:08:51,0.045,-0.045
2021-08-19 00:08:51,0.035,-0.095
2021-08-19 00:08:52,0.015,-0.135
2021-08-19 00:08:52,-0.01,-0.145
2021-08-19 00:08:52,-0.04,-0.16
2021-08-19 00:08:52,-0.065,-0.155
2021-08-19 00:08:53,-0.055,-0.13
2021-08-19 00:08:53,-0.075,-0.125
2021-08-19 00:08:53,-0.085,-0.13
2021-08-19 00:08:53,-0.085,-0.14
2021-08-19 00:08:54,-0.08,-0.145
2021-08-19 00:08:54,-0.065,-0.145
2021-08-19 00:08:54,-0.07,-0.15
2021-08-19 00:08:54,-0.06,-0.125
2021-08-19 00:08:54,-0.07,-0.165
2021-08-19 00:08:55,-0.05,-0.205
2021-08-19 00:08:55,-0.055,-0.22
2021-08-19 00:08:55,-0.04,-0.225
2021-08-19 00:08:55,-0.03,-0.215
2021-08-19 00:08:56,-0.03,-0.2
2021-08-19 00:08:56,0.0,-0.185
2021-08-19 00:08:56,-0.01,-0.215
2021-08-19 00:08:56,-0.03,-0.205
2021-08-19 00:08:57,-0.025,-0.195
2021-08-19 00:08:57,-0.01,-0.175
2021-08-19 00:08:57,-0.005,-0.185
2021-08-19 00:08:57,-0.02,-0.195
2021-08-19 00:08:58,-0.03,-0.185
2021-08-19 00:08:58,0.01,-0.17
2021-08-19 00:08:58,-0.02,-0.195
2021-08-19 00:08:58,-0.015,-0.175
2021-08-19 00:08:59,-0.02,-0.175
2021-08-19 00:08:59,-0.02,-0.165
2021-08-19 00:08:59,-0.04,-0.14
2021-08-19 00:08:59,-0.025,-0.105
2021-08-19 00:09:00,-0.025,-0.075
2021-08-19 00:09:00,-0.02,-0.055
2021-08-19 00:09:00,-0.02,0.005
2021-08-19 00:09:00,-0.025,0.21
2021-08-19 00:09:00,0.0,0.455
2021-08-19 00:09:01,0.025,0.68
2021-08-19 00:09:01,0.03,0.83
2021-08-19 00:09:01,-0.01,0.92
2021-08-19 00:09:01,-0.05,0.92
2021-08-19 00:09:02,-0.1,0.84
2021-08-19 00:09:02,-0.13,0.66
2021-08-19 00:09:02,-0.24,0.355
2021-08-19 00:09:02,-0.46,0.125
2021-08-19 00:09:03,-0.76,0.14
2021-08-19 00:09:03,-1.06,0.27
2021-08-19 00:09:03,-1.3,0.26
2021-08-19 00:09:03,-1.425,0.03
2021-08-19 00:09:04,-1.43,-0.275
2021-08-19 00:09:04,-1.235,-0.495
2021-08-19 00:09:04,-0.875,-0.58
2021-08-19 00:09:04,-0.425,-0.605
2021-08-19 00:09:05,-0.155,-0.535
2021-08-19 00:09:05,-0.105,-0.42
2021-08-19 00:09:05,-0.13,-0.36
2021-08-19 00:09:05,-0.125,-0.325
2021-08-19 00:09:06,-0.145,-0.325
2021-08-19 00:09:06,-0.14,-0.325
2021-08-19 00:09:06,-0.115,-0.31
2021-08-19 00:09:06,-0.075,-0.32
2021-08-19 00:09:06,-0.015,-0.34
2021-08-19 00:09:07,0.025,-0.33
2021-08-19 00:09:07,0.04,-0.33
2021-08-19 00:09:07,0.055,-0.355
2021-08-19 00:09:07,0.035,-0.335
2021-08-19 00:09:08,0.06,-0.32
2021-08-19 00:09:08,0.06,-0.34
2021-08-19 00:09:08,0.065,-0.35
2021-08-19 00:09:08,0.07,-0.34
2021-08-19 00:09:09,0.075,-0.345
2021-08-19 00:09:09,0.065,-0.355
2021-08-19 00:09:09,0.05,-0.345
2021-08-19 00:09:09,0.07,-0.345
2021-08-19 00:09:10,0.085,-0.35
2021-08-19 00:09:10,0.09,-0.355
2021-08-19 00:09:10,0.085,-0.335
2021-08-19 00:09:10,0.08,-0.34
2021-08-19 00:09:11,0.08,-0.345
2021-08-19 00:09:11,0.085,-0.34
2021-08-19 00:09:11,0.095,-0.355
2021-08-19 00:09:11,0.075,-0.34
2021-08-19 00:09:12,0.065,-0.34
2021-08-19 00:09:12,0.065,-0.36
2021-08-19 00:09:12,0.07,-0.36
2021-08-19 00:09:12,0.065,-0.365
2021-08-19 00:09:12,0.065,-0.38
2021-08-19 00:09:13,0.06,-0.385
2021-08-19 00:09:13,0.07,-0.37
2021-08-19 00:09:13,0.06,-0.37
2021-08-19 00:09:13,0.055,-0.39
2021-08-19 00:09:14,0.05,-0.37
2021-08-19 00:09:14,0.065,-0.385
2021-08-19 00:09:14,0.065,-0.395
2021-08-19 00:09:14,0.055,-0.39
2021-08-19 00:09:15,0.05,-0.405
2021-08-19 00:09:15,0.055,-0.4
2021-08-19 00:09:15,0.045,-0.42
2021-08-19 00:09:15,0.055,-0.38
2021-08-19 00:09:16,0.05,-0.375
2021-08-19 00:09:16,0.055,-0.38
2021-08-19 00:09:16,0.035,-0.375
2021-08-19 00:09:16,0.035,-0.365
2021-08-19 00:09:17,0.035,-0.35
2021-08-19 00:09:17,0.05,-0.355
2021-08-19 00:09:17,0.03,-0.33
2021-08-19 00:09:17,0.03,-0.31
2021-08-19 00:09:18,0.025,-0.275
2021-08-19 00:09:18,0.025,-0.275
2021-08-19 00:09:18,0.01,-0.255
2021-08-19 00:09:18,0.005,-0.22
2021-08-19 00:09:18,0.01,-0.215
2021-08-19 00:09:19,-0.02,-0.2
2021-08-19 00:09:19,-0.005,-0.2
2021-08-19 00:09:19,-0.005,-0.19
2021-08-19 00:09:19,-0.03,-0.165
2021-08-19 00:09:20,-0.02,-0.18
2021-08-19 00:09:20,-0.01,-0.18
2021-08-19 00:09:20,-0.04,-0.2
2021-08-19 00:09:20,-0.02,-0.16
2021-08-19 00:09:21,-0.02,-0.17
2021-08-19 00:09:21,-0.02,-0.16
2021-08-19 00:09:21,-0.055,-0.16
2021-08-19 00:09:21,-0.02,-0.17
2021-08-19 00:09:22,-0.04,-0.17
2021-08-19 00:09:22,-0.015,-0.175
2021-08-19 00:09:22,-0.03,-0.175
2021-08-19 00:09:22,-0.04,-0.18
2021-08-19 00:09:23,-0.03,-0.21
2021-08-19 00:09:23,-0.03,-0.2
2021-08-19 00:09:23,-0.01,-0.2
2021-08-19 00:09:23,-0.02,-0.195
2021-08-19 00:09:24,-0.02,-0.185
2021-08-19 00:09:24,-0.01,-0.195
2021-08-19 00:09:24,-0.005,-0.18
2021-08-19 00:09:24,0.0,-0.185
2021-08-19 00:09:24,-0.01,-0.17
2021-08-19 00:09:25,0.0,-0.17
2021-08-19 00:09:25,-0.015,-0.18
2021-08-19 00:09:25,-0.005,-0.18
2021-08-19 00:09:25,0.005,-0.19
2021-08-19 00:09:26,0.0,-0.205
2021-08-19 00:09:26,0.0,-0.205
2021-08-19 00:09:26,0.005,-0.2
2021-08-19 00:09:26,-0.01,-0.195
2021-08-19 00:09:27,0.02,-0.195
2021-08-19 00:09:27,0.005,-0.205
2021-08-19 00:09:27,0.0,-0.19
2021-08-19 00:09:27,0.0,-0.205
2021-08-19 00:09:28,0.02,-0.205
2021-08-19 00:09:28,0.015,-0.195
2021-08-19 00:09:28,0.005,-0.18
2021-08-19 00:09:28,0.0,-0.18
2021-08-19 00:09:29,0.01,-0.2
2021-08-19 00:09:29,0.02,-0.19
2021-08-19 00:09:29,0.0,-0.185
2021-08-19 00:09:29,0.005,-0.19
2021-08-19 00:09:30,-0.005,-0.18
2021-08-19 00:09:30,0.0,-0.19
2021-08-19 00:09:30,0.01,-0.19
2021-08-19 00:09:30,0.015,-0.19
2021-08-19 00:09:30,-0.005,-0.2
2021-08-19 00:09:31,-0.005,-0.21
2021-08-19 00:09:31,0.0,-0.21
2021-08-19 00:09:31,-0.005,-0.2
2021-08-19 00:09:31,-0.005,-0.19
2021-08-19 00:09:32,-0.01,-0.2
2021-08-19 00:09:32,-0.005,-0.19
2021-08-19 00:09:32,0.01,-0.205
2021-08-19 00:09:32,0.01,-0.205
2021-08-19 00:09:33,0.0,-0.2
2021-08-19 00:09:33,0.0,-0.19
2021-08-19 00:09:33,0.01,-0.195
2021-08-19 00:09:33,-0.02,-0.175
2021-08-19 00:09:34,-0.01,-0.2
2021-08-19 00:09:34,-0.015,-0.19
2021-08-19 00:09:34,0.0,-0.19
2021-08-19 00:09:34,0.0,-0.21
2021-08-19 00:09:35,-0.02,-0.17
2021-08-19 00:09:35,-0.005,-0.185
2021-08-19 00:09:35,-0.005,-0.185
2021-08-19 00:09:35,-0.035,-0.17
2021-08-19 00:09:36,-0.015,-0.17
2021-08-19 00:09:36,-0.02,-0.18
2021-08-19 00:09:36,-0.025,-0.18
2021-08-19 00:09:36,-0.02,-0.185
2021-08-19 00:09:36,-0.025,-0.165
2021-08-19 00:09:37,-0.015,-0.155
2021-08-19 00:09:37,0.005,-0.16
2021-08-19 00:09:37,0.005,-0.19
2021-08-19 00:09:37,-0.005,-0.165
2021-08-19 00:09:38,0.005,-0.155
2021-08-19 00:09:38,0.0,-0.15
2021-08-19 00:09:38,0.0,-0.16
2021-08-19 00:09:38,0.0,-0.16
2021-08-19 00:09:39,-0.035,-0.12
2021-08-19 00:09:39,-0.015,-0.11
2021-08-19 00:09:39,-0.02,-0.055
2021-08-19 00:09:39,0.0,-0.04
2021-08-19 00:09:40,-0.005,-0.035
2021-08-19 00:09:40,0.01,-0.005
2021-08-19 00:09:40,0.005,0.01
2021-08-19 00:09:40,0.045,-0.01
2021-08-19 00:09:41,0.04,0.01
2021-08-19 00:09:41,0.06,0.025
2021-08-19 00:09:41,0.085,0.0
2021-08-19 00:09:41,0.09,-0.02
2021-08-19 00:09:42,0.11,-0.015
2021-08-19 00:09:42,0.09,0.005
2021-08-19 00:09:42,0.1,0.02
2021-08-19 00:09:42,0.085,0.005
2021-08-19 00:09:42,0.095,-0.005
2021-08-19 00:09:43,0.055,-0.03
2021-08-19 00:09:43,0.045,-0.105
2021-08-19 00:09:43,0.02,-0.11
2021-08-19 00:09:43,0.01,-0.125
2021-08-19 00:09:44,-0.01,-0.11
2021-08-19 00:09:44,-0.02,-0.1
2021-08-19 00:09:44,-0.065,-0.09
2021-08-19 00:09:44,-0.03,-0.085
2021-08-19 00:09:45,-0.06,-0.105
2021-08-19 00:09:45,-0.045,-0.12
2021-08-19 00:09:45,-0.045,-0.13
2021-08-19 00:09:45,-0.04,-0.12
2021-08-19 00:09:46,-0.025,-0.14
2021-08-19 00:09:46,-0.03,-0.17
2021-08-19 00:09:46,-0.03,-0.195
2021-08-19 00:09:46,-0.02,-0.21
2021-08-19 00:09:47,0.005,-0.2
2021-08-19 00:09:47,0.015,-0.195
2021-08-19 00:09:47,0.01,-0.18
2021-08-19 00:09:47,0.015,-0.19
2021-08-19 00:09:48,0.035,-0.18
2021-08-19 00:09:48,0.02,-0.19
2021-08-19 00:09:48,0.02,-0.185
2021-08-19 00:09:48,0.01,-0.17
2021-08-19 00:09:48,0.0,-0.18
2021-08-19 00:09:49,0.005,-0.175
2021-08-19 00:09:49,-0.005,-0.17
2021-08-19 00:09:49,-0.005,-0.16
2021-08-19 00:09:49,0.01,-0.15
2021-08-19 00:09:50,-0.01,-0.15
2021-08-19 00:09:50,0.01,-0.14
2021-08-19 00:09:50,0.02,-0.1
2021-08-19 00:09:50,-0.005,-0.08
2021-08-19 00:09:51,0.01,-0.065
2021-08-19 00:09:51,-0.005,-0.03
2021-08-19 00:09:51,0.01,0.09
2021-08-19 00:09:51,0.005,0.335
2021-08-19 00:09:52,0.02,0.6
2021-08-19 00:09:52,0.045,0.82
2021-08-19 00:09:52,0.06,0.975
2021-08-19 00:09:52,0.04,1.07
2021-08-19 00:09:53,-0.025,1.095
2021-08-19 00:09:53,-0.055,0.99
2021-08-19 00:09:53,-0.085,0.73
2021-08-19 00:09:53,-0.22,0.375
2021-08-19 00:09:54,-0.43,0.19
2021-08-19 00:09:54,-0.74,0.25
2021-08-19 00:09:54,-1.055,0.295
2021-08-19 00:09:54,-1.235,0.17
2021-08-19 00:09:54,-1.305,-0.13
2021-08-19 00:09:55,-1.26,-0.38
2021-08-19 00:09:55,-1.015,-0.525
2021-08-19 00:09:55,-0.61,-0.575
2021-08-19 00:09:55,-0.24,-0.54
2021-08-19 00:09:56,-0.125,-0.395
2021-08-19 00:09:56,-0.08,-0.32
2021-08-19 00:09:56,-0.13,-0.31
2021-08-19 00:09:56,-0.125,-0.295
2021-08-19 00:09:57,-0.105,-0.295
2021-08-19 00:09:57,-0.08,-0.295
2021-08-19 00:09:57,-0.03,-0.3
2021-08-19 00:09:57,0.015,-0.3
2021-08-19 00:09:58,0.05,-0.3
2021-08-19 00:09:58,0.095,-0.295
2021-08-19 00:09:58,0.09,-0.305
2021-08-19 00:09:58,0.085,-0.295
2021-08-19 00:09:59,0.1,-0.285
2021-08-19 00:09:59,0.1,-0.305
2021-08-19 00:09:59,0.085,-0.305
2021-08-19 00:09:59,0.08,-0.295
2021-08-19 00:10:00,0.09,-0.31
2021-08-19 00:10:00,0.11,-0.305
2021-08-19 00:10:00,0.095,-0.3
2021-08-19 00:10:00,0.105,-0.285
2021-08-19 00:10:00,0.11,-0.29
2021-08-19 00:10:01,0.125,-0.275
2021-08-19 00:10:01,0.125,-0.3
2021-08-19 00:10:01,0.12,-0.31
2021-08-19 00:10:01,0.115,-0.3
2021-08-19 00:10:02,0.11,-0.32
2021-08-19 00:10:02,0.1,-0.295
2021-08-19 00:10:02,0.11,-0.29
2021-08-19 00:10:02,0.105,-0.32
2021-08-19 00:10:03,0.105,-0.31
2021-08-19 00:10:03,0.11,-0.3
2021-08-19 00:10:03,0.11,-0.305
2021-08-19 00:10:03,0.105,-0.33
2021-08-19 00:10:04,0.125,-0.34
2021-08-19 00:10:04,0.1,-0.33
2021-08-19 00:10:04,0.11,-0.325
2021-08-19 00:10:04,0.11,-0.32
2021-08-19 00:10:05,0.105,-0.34
2021-08-19 00:10:05,0.1,-0.355
2021-08-19 00:10:05,0.11,-0.34
2021-08-19 00:10:05,0.11,-0.36
2021-08-19 00:10:06,0.105,-0.36
2021-08-19 00:10:06,0.1,-0.34
2021-08-19 00:10:06,0.085,-0.36
2021-08-19 00:10:06,0.09,-0.36
2021-08-19 00:10:06,0.08,-0.35
2021-08-19 00:10:07,0.095,-0.355
2021-08-19 00:10:07,0.095,-0.345
2021-08-19 00:10:07,0.06,-0.335
2021-08-19 00:10:07,0.08,-0.325
2021-08-19 00:10:08,0.06,-0.3
2021-08-19 00:10:08,0.09,-0.3
2021-08-19 00:10:08,0.07,-0.275
2021-08-19 00:10:08,0.08,-0.26
2021-08-19 00:10:09,0.08,-0.25
2021-08-19 00:10:09,0.055,-0.23
2021-08-19 00:10:09,0.04,-0.195
2021-08-19 00:10:09,0.055,-0.185
2021-08-19 00:10:10,0.045,-0.17
2021-08-19 00:10:10,0.01,-0.155
2021-08-19 00:10:10,0.01,-0.16
2021-08-19 00:10:10,0.015,-0.13
2021-08-19 00:10:11,0.015,-0.13
2021-08-19 00:10:11,0.01,-0.13
2021-08-19 00:10:11,0.03,-0.115
2021-08-19 00:10:11,0.02,-0.11
2021-08-19 00:10:12,0.02,-0.125
2021-08-19 00:10:12,0.02,-0.12
2021-08-19 00:10:12,0.0,-0.11
2021-08-19 00:10:12,0.005,-0.115
2021-08-19 00:10:12,0.025,-0.115
2021-08-19 00:10:13,0.02,-0.115
2021-08-19 00:10:13,0.015,-0.12
2021-08-19 00:10:13,0.0,-0.13
2021-08-19 00:10:13,0.01,-0.13
2021-08-19 00:10:14,0.035,-0.115
2021-08-19 00:10:14,0.04,-0.135
2021-08-19 00:10:14,0.04,-0.145
2021-08-19 00:10:14,0.035,-0.155
2021-08-19 00:10:15,0.035,-0.15
2021-08-19 00:10:15,0.04,-0.14
2021-08-19 00:10:15,0.035,-0.145
2021-08-19 00:10:15,0.055,-0.135
2021-08-19 00:10:16,0.04,-0.13
2021-08-19 00:10:16,0.065,-0.13
2021-08-19 00:10:16,0.065,-0.15
2021-08-19 00:10:16,0.075,-0.15
2021-08-19 00:10:17,0.055,-0.15
2021-08-19 00:10:17,0.065,-0.15
2021-08-19 00:10:17,0.055,-0.145
2021-08-19 00:10:17,0.07,-0.135
2021-08-19 00:10:18,0.07,-0.15
2021-08-19 00:10:18,0.075,-0.14
2021-08-19 00:10:18,0.06,-0.14
2021-08-19 00:10:18,0.075,-0.17
2021-08-19 00:10:18,0.045,-0.155
2021-08-19 00:10:19,0.06,-0.15
2021-08-19 00:10:19,0.06,-0.155
2021-08-19 00:10:19,0.055,-0.165
2021-08-19 00:10:19,0.05,-0.15
2021-08-19 00:10:20,0.05,-0.15
2021-08-19 00:10:20,0.045,-0.135
2021-08-19 00:10:20,0.06,-0.185
2021-08-19 00:10:20,0.06,-0.15
2021-08-19 00:10:21,0.05,-0.155
2021-08-19 00:10:21,0.04,-0.17
2021-08-19 00:10:21,0.055,-0.17
2021-08-19 00:10:21,0.065,-0.18
2021-08-19 00:10:22,0.06,-0.175
2021-08-19 00:10:22,0.04,-0.18
2021-08-19 00:10:22,0.035,-0.165
2021-08-19 00:10:22,0.06,-0.19
2021-08-19 00:10:23,0.055,-0.175
2021-08-19 00:10:23,0.045,-0.18
2021-08-19 00:10:23,0.05,-0.18
2021-08-19 00:10:23,0.035,-0.185
2021-08-19 00:10:24,0.045,-0.2
2021-08-19 00:10:24,0.035,-0.205
2021-08-19 00:10:24,0.04,-0.21
2021-08-19 00:10:24,0.06,-0.19
2021-08-19 00:10:24,0.04,-0.2
2021-08-19 00:10:25,0.03,-0.175
2021-08-19 00:10:25,0.04,-0.21
2021-08-19 00:10:25,0.03,-0.195
2021-08-19 00:10:25,0.04,-0.18
2021-08-19 00:10:26,0.065,-0.205
2021-08-19 00:10:26,0.045,-0.175
2021-08-19 00:10:26,0.05,-0.2
2021-08-19 00:10:26,0.055,-0.175
2021-08-19 00:10:27,0.04,-0.185
2021-08-19 00:10:27,0.035,-0.195
2021-08-19 00:10:27,0.035,-0.205
2021-08-19 00:10:27,0.05,-0.195
2021-08-19 00:10:28,0.055,-0.175
2021-08-19 00:10:28,0.07,-0.185
2021-08-19 00:10:28,0.04,-0.195
2021-08-19 00:10:28,0.05,-0.18
2021-08-19 00:10:29,0.04,-0.2
2021-08-19 00:10:29,0.03,-0.185
2021-08-19 00:10:29,0.05,-0.175
2021-08-19 00:10:29,0.025,-0.17
2021-08-19 00:10:30,0.03,-0.16
2021-08-19 00:10:30,0.04,-0.135
2021-08-19 00:10:30,0.055,-0.07
2021-08-19 00:10:30,0.055,-0.075
2021-08-19 00:10:30,0.055,-0.035
2021-08-19 00:10:31,0.05,-0.015
2021-08-19 00:10:31,0.05,-0.02
2021-08-19 00:10:31,0.085,-0.025
2021-08-19 00:10:31,0.08,-0.005
2021-08-19 00:10:32,0.115,-0.005
2021-08-19 00:10:32,0.14,0.0
2021-08-19 00:10:32,0.15,-0.035
2021-08-19 00:10:32,0.16,0.0
2021-08-19 00:10:33,0.155,-0.02
2021-08-19 00:10:33,0.17,-0.015
2021-08-19 00:10:33,0.125,-0.025
2021-08-19 00:10:33,0.115,-0.02
2021-08-19 00:10:34,0.08,-0.065
2021-08-19 00:10:34,0.055,-0.105
2021-08-19 00:10:34,0.06,-0.13
2021-08-19 00:10:34,0.01,-0.145
2021-08-19 00:10:35,-0.01,-0.14
2021-08-19 00:10:35,-0.005,-0.125
2021-08-19 00:10:35,-0.01,-0.1
2021-08-19 00:10:35,-0.015,-0.1
2021-08-19 00:10:36,-0.02,-0.1
2021-08-19 00:10:36,-0.01,-0.125
2021-08-19 00:10:36,-0.01,-0.125
2021-08-19 00:10:36,-0.005,-0.135
2021-08-19 00:10:36,0.015,-0.155
2021-08-19 00:10:37,0.02,-0.16
2021-08-19 00:10:37,0.02,-0.205
2021-08-19 00:10:37,0.015,-0.205
2021-08-19 00:10:37,0.03,-0.22
2021-08-19 00:10:38,0.04,-0.22
2021-08-19 00:10:38,0.055,-0.21
2021-08-19 00:10:38,0.055,-0.2
2021-08-19 00:10:38,0.055,-0.2
2021-08-19 00:10:39,0.055,-0.175
2021-08-19 00:10:39,0.07,-0.21
2021-08-19 00:10:39,0.06,-0.19
2021-08-19 00:10:39,0.08,-0.18
2021-08-19 00:10:40,0.065,-0.19
2021-08-19 00:10:40,0.075,-0.19
2021-08-19 00:10:40,0.045,-0.185
2021-08-19 00:10:40,0.06,-0.175
2021-08-19 00:10:41,0.06,-0.175
2021-08-19 00:10:41,0.07,-0.165
2021-08-19 00:10:41,0.06,-0.13
2021-08-19 00:10:41,0.08,-0.1
2021-08-19 00:10:42,0.07,-0.05
2021-08-19 00:10:42,0.07,-0.04
2021-08-19 00:10:42,0.065,0.0
2021-08-19 00:10:42,0.06,0.17
2021-08-19 00:10:42,0.06,0.43
2021-08-19 00:10:43,0.095,0.69
2021-08-19 00:10:43,0.115,0.89
2021-08-19 00:10:43,0.125,1.045
2021-08-19 00:10:43,0.075,1.1
2021-08-19 00:10:44,0.05,1.07
2021-08-19 00:10:44,0.005,0.915
2021-08-19 00:10:44,-0.055,0.57
2021-08-19 00:10:44,-0.195,0.17
2021-08-19 00:10:45,-0.48,0.05
2021-08-19 00:10:45,-0.82,0.18
2021-08-19 00:10:45,-1.13,0.31
2021-08-19 00:10:45,-1.33,0.19
2021-08-19 00:10:46,-1.415,-0.095
2021-08-19 00:10:46,-1.365,-0.36
2021-08-19 00:10:46,-1.1,-0.53
2021-08-19 00:10:46,-0.64,-0.585
2021-08-19 00:10:47,-0.25,-0.575
2021-08-19 00:10:47,-0.065,-0.48
2021-08-19 00:10:47,-0.01,-0.37
2021-08-19 00:10:47,-0.045,-0.32
2021-08-19 00:10:48,-0.035,-0.31
2021-08-19 00:10:48,-0.06,-0.315
2021-08-19 00:10:48,-0.04,-0.31
2021-08-19 00:10:48,0.0,-0.31
2021-08-19 00:10:48,0.065,-0.32
2021-08-19 00:10:49,0.12,-0.33
2021-08-19 00:10:49,0.145,-0.305
2021-08-19 00:10:49,0.145,-0.315
2021-08-19 00:10:49,0.15,-0.31
2021-08-19 00:10:50,0.14,-0.305
2021-08-19 00:10:50,0.175,-0.315
2021-08-19 00:10:50,0.165,-0.305
2021-08-19 00:10:50,0.175,-0.31
2021-08-19 00:10:51,0.15,-0.32
2021-08-19 00:10:51,0.18,-0.31
2021-08-19 00:10:51,0.2,-0.31
2021-08-19 00:10:51,0.175,-0.29
2021-08-19 00:10:52,0.18,-0.295
2021-08-19 00:10:52,0.175,-0.28
2021-08-19 00:10:52,0.2,-0.315
2021-08-19 00:10:52,0.185,-0.31
2021-08-19 00:10:53,0.17,-0.31
2021-08-19 00:10:53,0.18,-0.305
2021-08-19 00:10:53,0.165,-0.295
2021-08-19 00:10:53,0.2,-0.3
2021-08-19 00:10:54,0.175,-0.3
2021-08-19 00:10:54,0.175,-0.32
2021-08-19 00:10:54,0.17,-0.31
2021-08-19 00:10:54,0.18,-0.33
2021-08-19 00:10:54,0.16,-0.335
2021-08-19 00:10:55,0.175,-0.33
2021-08-19 00:10:55,0.155,-0.325
2021-08-19 00:10:55,0.17,-0.335
2021-08-19 00:10:55,0.165,-0.32
2021-08-19 00:10:56,0.16,-0.34
2021-08-19 00:10:56,0.18,-0.35
2021-08-19 00:10:56,0.16,-0.34
2021-08-19 00:10:56,0.15,-0.345
2021-08-19 00:10:57,0.16,-0.355
2021-08-19 00:10:57,0.155,-0.365
2021-08-19 00:10:57,0.155,-0.37
2021-08-19 00:10:57,0.17,-0.37
2021-08-19 00:10:58,0.175,-0.36
2021-08-19 00:10:58,0.135,-0.355
2021-08-19 00:10:58,0.15,-0.335
2021-08-19 00:10:58,0.14,-0.345
2021-08-19 00:10:59,0.15,-0.34
2021-08-19 00:10:59,0.14,-0.31
2021-08-19 00:10:59,0.12,-0.29
2021-08-19 00:10:59,0.135,-0.305
2021-08-19 00:11:00,0.14,-0.29
2021-08-19 00:11:00,0.12,-0.28
2021-08-19 00:11:00,0.1,-0.255
2021-08-19 00:11:00,0.095,-0.225
2021-08-19 00:11:00,0.1,-0.215
2021-08-19 00:11:01,0.09,-0.215
2021-08-19 00:11:01,0.11,-0.19
2021-08-19 00:11:01,0.085,-0.18
2021-08-19 00:11:01,0.075,-0.16
2021-08-19 00:11:02,0.09,-0.17
2021-08-19 00:11:02,0.055,-0.15
2021-08-19 00:11:02,0.05,-0.13
2021-08-19 00:11:02,0.05,-0.16
2021-08-19 00:11:03,0.05,-0.155
2021-08-19 00:11:03,0.06,-0.14
2021-08-19 00:11:03,0.05,-0.14
2021-08-19 00:11:03,0.025,-0.15
2021-08-19 00:11:04,0.05,-0.16
2021-08-19 00:11:04,0.02,-0.155
2021-08-19 00:11:04,0.035,-0.145
2021-08-19 00:11:04,0.035,-0.15
2021-08-19 00:11:05,0.035,-0.17
2021-08-19 00:11:05,0.035,-0.155
2021-08-19 00:11:05,0.055,-0.165
2021-08-19 00:11:05,0.04,-0.18
2021-08-19 00:11:06,0.05,-0.18
2021-08-19 00:11:06,0.045,-0.185
2021-08-19 00:11:06,0.045,-0.2
2021-08-19 00:11:06,0.07,-0.2
2021-08-19 00:11:06,0.04,-0.19
2021-08-19 00:11:07,0.06,-0.2
2021-08-19 00:11:07,0.04,-0.225
2021-08-19 00:11:07,0.06,-0.2
2021-08-19 00:11:07,0.04,-0.23
2021-08-19 00:11:08,0.025,-0.235
2021-08-19 00:11:08,0.045,-0.245
2021-08-19 00:11:08,0.055,-0.235
2021-08-19 00:11:08,0.035,-0.23
2021-08-19 00:11:09,0.055,-0.22
2021-08-19 00:11:09,0.055,-0.24
2021-08-19 00:11:09,0.05,-0.24
2021-08-19 00:11:09,0.06,-0.235
2021-08-19 00:11:10,0.07,-0.26
2021-08-19 00:11:10,0.045,-0.24
2021-08-19 00:11:10,0.05,-0.25
2021-08-19 00:11:10,0.055,-0.255
2021-08-19 00:11:11,0.05,-0.25
2021-08-19 00:11:11,0.06,-0.25
2021-08-19 00:11:11,0.07,-0.24
2021-08-19 00:11:11,0.055,-0.26
2021-08-19 00:11:12,0.06,-0.255
2021-08-19 00:11:12,0.04,-0.255
2021-08-19 00:11:12,0.04,-0.245
2021-08-19 00:11:12,0.05,-0.235
2021-08-19 00:11:12,0.04,-0.255
2021-08-19 00:11:13,0.02,-0.26
2021-08-19 00:11:13,0.055,-0.24
2021-08-19 00:11:13,0.05,-0.25
2021-08-19 00:11:13,0.055,-0.26
2021-08-19 00:11:14,0.04,-0.25
2021-08-19 00:11:14,0.035,-0.265
2021-08-19 00:11:14,0.04,-0.26
2021-08-19 00:11:14,0.035,-0.255
2021-08-19 00:11:15,0.03,-0.245
2021-08-19 00:11:15,0.03,-0.27
2021-08-19 00:11:15,0.03,-0.24
2021-08-19 00:11:15,0.015,-0.26
2021-08-19 00:11:16,0.03,-0.26
2021-08-19 00:11:16,0.005,-0.25
2021-08-19 00:11:16,0.03,-0.25
2021-08-19 00:11:16,0.03,-0.26
2021-08-19 00:11:17,0.03,-0.27
2021-08-19 00:11:17,0.015,-0.285
2021-08-19 00:11:17,0.015,-0.26
2021-08-19 00:11:17,0.02,-0.275
2021-08-19 00:11:18,0.03,-0.26
2021-08-19 00:11:18,0.015,-0.26
2021-08-19 00:11:18,0.01,-0.255
2021-08-19 00:11:18,0.025,-0.23
2021-08-19 00:11:18,0.055,-0.26
2021-08-19 00:11:19,0.01,-0.245
2021-08-19 00:11:19,0.02,-0.24
2021-08-19 00:11:19,0.01,-0.255
2021-08-19 00:11:19,0.025,-0.255
2021-08-19 00:11:20,0.025,-0.255
2021-08-19 00:11:20,0.005,-0.255
2021-08-19 00:11:20,0.005,-0.245
2021-08-19 00:11:20,0.005,-0.245
2021-08-19 00:11:21,0.0,-0.255
2021-08-19 00:11:21,0.015,-0.25
2021-08-19 00:11:21,0.015,-0.24
2021-08-19 00:11:21,0.015,-0.235
2021-08-19 00:11:22,0.025,-0.24
2021-08-19 00:11:22,0.0,-0.2
2021-08-19 00:11:22,0.015,-0.185
2021-08-19 00:11:22,0.025,-0.175
2021-08-19 00:11:23,0.0,-0.13
2021-08-19 00:11:23,-0.01,-0.1
2021-08-19 00:11:23,0.005,-0.105
2021-08-19 00:11:23,0.02,-0.1
2021-08-19 00:11:24,0.03,-0.105
2021-08-19 00:11:24,0.05,-0.105
2021-08-19 00:11:24,0.085,-0.08
2021-08-19 00:11:24,0.11,-0.09
2021-08-19 00:11:24,0.11,-0.11
2021-08-19 00:11:25,0.11,-0.1
2021-08-19 00:11:25,0.115,-0.09
2021-08-19 00:11:25,0.105,-0.085
2021-08-19 00:11:25,0.07,-0.09
2021-08-19 00:11:26,0.045,-0.08
2021-08-19 00:11:26,0.03,-0.14
2021-08-19 00:11:26,0.01,-0.18
2021-08-19 00:11:26,0.005,-0.25
2021-08-19 00:11:27,-0.035,-0.25
2021-08-19 00:11:27,-0.04,-0.24
2021-08-19 00:11:27,-0.055,-0.225
2021-08-19 00:11:27,-0.045,-0.225
2021-08-19 00:11:28,-0.07,-0.235
2021-08-19 00:11:28,-0.065,-0.225
2021-08-19 00:11:28,-0.05,-0.22
2021-08-19 00:11:28,-0.06,-0.23
2021-08-19 00:11:29,-0.04,-0.23
2021-08-19 00:11:29,-0.065,-0.255
2021-08-19 00:11:29,-0.045,-0.27
2021-08-19 00:11:29,-0.03,-0.275
2021-08-19 00:11:30,-0.05,-0.305
2021-08-19 00:11:30,-0.01,-0.325
2021-08-19 00:11:30,0.01,-0.315
2021-08-19 00:11:30,0.015,-0.31
2021-08-19 00:11:30,0.02,-0.28
2021-08-19 00:11:31,0.02,-0.285
2021-08-19 00:11:31,0.02,-0.3
2021-08-19 00:11:31,0.025,-0.3
2021-08-19 00:11:31,0.01,-0.285
2021-08-19 00:11:32,0.005,-0.3
2021-08-19 00:11:32,0.0,-0.255
2021-08-19 00:11:32,0.005,-0.295
2021-08-19 00:11:32,0.0,-0.285
2021-08-19 00:11:33,0.005,-0.275
2021-08-19 00:11:33,0.005,-0.255
2021-08-19 00:11:33,-0.005,-0.275
2021-08-19 00:11:33,0.0,-0.26
2021-08-19 00:11:34,0.0,-0.245
2021-08-19 00:11:34,0.0,-0.19
2021-08-19 00:11:34,-0.005,-0.15
2021-08-19 00:11:34,-0.025,-0.135
2021-08-19 00:11:35,-0.02,-0.08
2021-08-19 00:11:35,0.0,0.07
2021-08-19 00:11:35,0.0,0.32
2021-08-19 00:11:35,0.03,0.57
2021-08-19 00:11:36,0.055,0.75
2021-08-19 00:11:36,0.05,0.83
2021-08-19 00:11:36,-0.005,0.835
2021-08-19 00:11:36,-0.04,0.775
2021-08-19 00:11:36,-0.08,0.58
2021-08-19 00:11:37,-0.16,0.285
2021-08-19 00:11:37,-0.355,-0.015
2021-08-19 00:11:37,-0.645,-0.075
2021-08-19 00:11:37,-0.97,0.08
2021-08-19 00:11:38,-1.29,0.21
2021-08-19 00:11:38,-1.45,0.075
2021-08-19 00:11:38,-1.48,-0.235
2021-08-19 00:11:38,-1.4,-0.5
2021-08-19 00:11:39,-1.07,-0.64
2021-08-19 00:11:39,-0.615,-0.69
2021-08-19 00:11:39,-0.245,-0.635
2021-08-19 00:11:39,-0.085,-0.545
2021-08-19 00:11:40,-0.06,-0.445
2021-08-19 00:11:40,-0.12,-0.415
2021-08-19 00:11:40,-0.135,-0.41
2021-08-19 00:11:40,-0.125,-0.415
2021-08-19 00:11:41,-0.09,-0.425
2021-08-19 00:11:41,-0.03,-0.425
2021-08-19 00:11:41,0.03,-0.41
2021-08-19 00:11:41,0.07,-0.415
2021-08-19 00:11:42,0.075,-0.405
2021-08-19 00:11:42,0.115,-0.4
2021-08-19 00:11:42,0.105,-0.39
2021-08-19 00:11:42,0.105,-0.415
2021-08-19 00:11:42,0.115,-0.405
2021-08-19 00:11:43,0.125,-0.395
2021-08-19 00:11:43,0.135,-0.4
2021-08-19 00:11:43,0.095,-0.385
2021-08-19 00:11:43,0.13,-0.395
2021-08-19 00:11:44,0.13,-0.4
2021-08-19 00:11:44,0.115,-0.41
2021-08-19 00:11:44,0.12,-0.415
2021-08-19 00:11:44,0.14,-0.4
2021-08-19 00:11:45,0.125,-0.41
2021-08-19 00:11:45,0.14,-0.395
2021-08-19 00:11:45,0.15,-0.395
2021-08-19 00:11:45,0.155,-0.385
2021-08-19 00:11:46,0.135,-0.405
2021-08-19 00:11:46,0.125,-0.4
2021-08-19 00:11:46,0.135,-0.42
2021-08-19 00:11:46,0.13,-0.41
2021-08-19 00:11:47,0.13,-0.4
2021-08-19 00:11:47,0.1,-0.42
2021-08-19 00:11:47,0.12,-0.44
2021-08-19 00:11:47,0.12,-0.435
2021-08-19 00:11:48,0.11,-0.45
2021-08-19 00:11:48,0.13,-0.415
2021-08-19 00:11:48,0.1,-0.43
2021-08-19 00:11:48,0.13,-0.41
2021-08-19 00:11:48,0.11,-0.43
2021-08-19 00:11:49,0.12,-0.425
2021-08-19 00:11:49,0.105,-0.44
2021-08-19 00:11:49,0.105,-0.435
2021-08-19 00:11:49,0.11,-0.455
2021-08-19 00:11:50,0.09,-0.445
2021-08-19 00:11:50,0.075,-0.44
2021-08-19 00:11:50,0.08,-0.43
2021-08-19 00:11:50,0.09,-0.44
2021-08-19 00:11:51,0.095,-0.43
2021-08-19 00:11:51,0.085,-0.425
2021-08-19 00:11:51,0.05,-0.415
2021-08-19 00:11:51,0.075,-0.4
2021-08-19 00:11:52,0.09,-0.38
2021-08-19 00:11:52,0.07,-0.375
2021-08-19 00:11:52,0.075,-0.35
2021-08-19 00:11:52,0.055,-0.335
2021-08-19 00:11:53,0.065,-0.315
2021-08-19 00:11:53,0.055,-0.31
2021-08-19 00:11:53,0.05,-0.295
2021-08-19 00:11:53,0.045,-0.28
2021-08-19 00:11:54,0.03,-0.275
2021-08-19 00:11:54,0.01,-0.27
2021-08-19 00:11:54,0.0,-0.275
2021-08-19 00:11:54,-0.015,-0.245
2021-08-19 00:11:54,0.0,-0.245
2021-08-19 00:11:55,-0.005,-0.225
2021-08-19 00:11:55,-0.015,-0.225
2021-08-19 00:11:55,-0.02,-0.25
2021-08-19 00:11:55,-0.02,-0.225
2021-08-19 00:11:56,0.0,-0.245
2021-08-19 00:11:56,-0.01,-0.24
2021-08-19 00:11:56,0.0,-0.245
2021-08-19 00:11:56,0.0,-0.23
2021-08-19 00:11:57,-0.015,-0.255
2021-08-19 00:11:57,-0.01,-0.245
2021-08-19 00:11:57,-0.025,-0.23
2021-08-19 00:11:57,-0.025,-0.255
2021-08-19 00:11:58,0.0,-0.235
2021-08-19 00:11:58,-0.01,-0.26
2021-08-19 00:11:58,0.0,-0.265
2021-08-19 00:11:58,-0.005,-0.265
2021-08-19 00:11:59,-0.005,-0.28
2021-08-19 00:11:59,-0.015,-0.275
2021-08-19 00:11:59,0.0,-0.29
2021-08-19 00:11:59,-0.005,-0.27
2021-08-19 00:12:00,-0.005,-0.26
2021-08-19 00:12:00,0.0,-0.26
2021-08-19 00:12:00,0.01,-0.285
2021-08-19 00:12:00,0.005,-0.295
2021-08-19 00:12:00,0.01,-0.29
2021-08-19 00:12:01,0.0,-0.28
2021-08-19 00:12:01,0.005,-0.265
2021-08-19 00:12:01,0.005,-0.28
2021-08-19 00:12:01,0.0,-0.28
2021-08-19 00:12:02,-0.005,-0.3
2021-08-19 00:12:02,0.005,-0.285
2021-08-19 00:12:02,0.015,-0.29
2021-08-19 00:12:02,0.02,-0.29
2021-08-19 00:12:03,0.01,-0.28
2021-08-19 00:12:03,0.02,-0.285
2021-08-19 00:12:03,0.01,-0.26
2021-08-19 00:12:03,0.005,-0.27
2021-08-19 00:12:04,0.01,-0.275
2021-08-19 00:12:04,0.005,-0.275
2021-08-19 00:12:04,0.015,-0.3
2021-08-19 00:12:04,0.015,-0.26
2021-08-19 00:12:05,0.015,-0.285
2021-08-19 00:12:05,0.0,-0.28
2021-08-19 00:12:05,-0.01,-0.275
2021-08-19 00:12:05,0.01,-0.295
2021-08-19 00:12:06,0.0,-0.275
2021-08-19 00:12:06,-0.005,-0.275
2021-08-19 00:12:06,0.0,-0.28
2021-08-19 00:12:06,0.005,-0.27
2021-08-19 00:12:06,0.0,-0.28
2021-08-19 00:12:07,0.0,-0.305
2021-08-19 00:12:07,-0.01,-0.295
2021-08-19 00:12:07,0.01,-0.29
2021-08-19 00:12:07,-0.015,-0.275
2021-08-19 00:12:08,-0.025,-0.285
2021-08-19 00:12:08,-0.035,-0.285
2021-08-19 00:12:08,-0.035,-0.29
2021-08-19 00:12:08,0.005,-0.285
2021-08-19 00:12:09,-0.03,-0.285
2021-08-19 00:12:09,-0.065,-0.29
2021-08-19 00:12:09,-0.04,-0.28
2021-08-19 00:12:09,-0.04,-0.285
2021-08-19 00:12:10,-0.05,-0.29
2021-08-19 00:12:10,-0.04,-0.29
2021-08-19 00:12:10,-0.055,-0.295
2021-08-19 00:12:10,-0.04,-0.285
2021-08-19 00:12:11,-0.04,-0.295
2021-08-19 00:12:11,-0.04,-0.3
2021-08-19 00:12:11,-0.06,-0.29
2021-08-19 00:12:11,-0.045,-0.315
2021-08-19 00:12:12,-0.045,-0.3
2021-08-19 00:12:12,-0.065,-0.305
2021-08-19 00:12:12,-0.05,-0.285
2021-08-19 00:12:12,-0.045,-0.285
2021-08-19 00:12:12,-0.065,-0.29
2021-08-19 00:12:13,-0.065,-0.27
2021-08-19 00:12:13,-0.055,-0.285
2021-08-19 00:12:13,-0.05,-0.295
2021-08-19 00:12:13,-0.055,-0.27
2021-08-19 00:12:14,-0.065,-0.24
2021-08-19 00:12:14,-0.08,-0.21
2021-08-19 00:12:14,-0.06,-0.15
2021-08-19 00:12:14,-0.065,-0.15
2021-08-19 00:12:15,-0.065,-0.14
2021-08-19 00:12:15,-0.065,-0.145
2021-08-19 00:12:15,-0.035,-0.15
2021-08-19 00:12:15,-0.04,-0.14
2021-08-19 00:12:16,-0.01,-0.13
2021-08-19 00:12:16,0.0,-0.145
2021-08-19 00:12:16,0.0,-0.16
2021-08-19 00:12:16,0.04,-0.15
2021-08-19 00:12:17,0.035,-0.13
2021-08-19 00:12:17,0.025,-0.125
2021-08-19 00:12:17,0.01,-0.11
2021-08-19 00:12:17,-0.005,-0.12
2021-08-19 00:12:18,0.0,-0.185
2021-08-19 00:12:18,-0.05,-0.215
2021-08-19 00:12:18,-0.07,-0.25
2021-08-19 00:12:18,-0.075,-0.255
2021-08-19 00:12:18,-0.08,-0.25
2021-08-19 00:12:19,-0.105,-0.24
2021-08-19 00:12:19,-0.115,-0.23
2021-08-19 00:12:19,-0.12,-0.25
2021-08-19 00:12:19,-0.14,-0.265
2021-08-19 00:12:20,-0.12,-0.265
2021-08-19 00:12:20,-0.14,-0.27
2021-08-19 00:12:20,-0.125,-0.285
2021-08-19 00:12:20,-0.11,-0.275
2021-08-19 00:12:21,-0.105,-0.31
2021-08-19 00:12:21,-0.1,-0.33
2021-08-19 00:12:21,-0.08,-0.34
2021-08-19 00:12:21,-0.085,-0.32
2021-08-19 00:12:22,-0.08,-0.32
2021-08-19 00:12:22,-0.03,-0.325
2021-08-19 00:12:22,-0.035,-0.325
2021-08-19 00:12:22,-0.065,-0.325
2021-08-19 00:12:23,-0.06,-0.33
2021-08-19 00:12:23,-0.04,-0.34
2021-08-19 00:12:23,-0.04,-0.33
2021-08-19 00:12:23,-0.05,-0.31
2021-08-19 00:12:24,-0.075,-0.32
2021-08-19 00:12:24,-0.075,-0.31
2021-08-19 00:12:24,-0.06,-0.31
2021-08-19 00:12:24,-0.05,-0.325
2021-08-19 00:12:24,-0.055,-0.315
2021-08-19 00:12:25,-0.065,-0.29
2021-08-19 00:12:25,-0.065,-0.27
2021-08-19 00:12:25,-0.06,-0.25
2021-08-19 00:12:25,-0.07,-0.21
2021-08-19 00:12:26,-0.065,-0.215
2021-08-19 00:12:26,-0.08,-0.195
2021-08-19 00:12:26,-0.075,-0.04
2021-08-19 00:12:26,-0.065,0.2
2021-08-19 00:12:27,-0.04,0.445
2021-08-19 00:12:27,-0.01,0.635
2021-08-19 00:12:27,-0.01,0.785
2021-08-19 00:12:27,-0.085,0.89
2021-08-19 00:12:28,-0.12,0.89
2021-08-19 00:12:28,-0.15,0.81
2021-08-19 00:12:28,-0.195,0.595
2021-08-19 00:12:28,-0.325,0.255
2021-08-19 00:12:29,-0.565,0.08
2021-08-19 00:12:29,-0.87,0.11
2021-08-19 00:12:29,-1.165,0.17
2021-08-19 00:12:29,-1.31,0.02
2021-08-19 00:12:30,-1.34,-0.27
2021-08-19 00:12:30,-1.27,-0.525
2021-08-19 00:12:30,-1.03,-0.675
2021-08-19 00:12:30,-0.66,-0.74
2021-08-19 00:12:30,-0.34,-0.715
2021-08-19 00:12:31,-0.195,-0.605
2021-08-19 00:12:31,-0.18,-0.525
2021-08-19 00:12:31,-0.215,-0.465
2021-08-19 00:12:31,-0.215,-0.46
2021-08-19 00:12:32,-0.2,-0.465
2021-08-19 00:12:32,-0.17,-0.45
2021-08-19 00:12:32,-0.145,-0.465
2021-08-19 00:12:32,-0.1,-0.49
2021-08-19 00:12:33,-0.065,-0.475
2021-08-19 00:12:33,-0.02,-0.46
2021-08-19 00:12:33,0.0,-0.455
2021-08-19 00:12:33,0.005,-0.46
2021-08-19 00:12:34,0.005,-0.465
2021-08-19 00:12:34,0.005,-0.465
2021-08-19 00:12:34,0.005,-0.48
2021-08-19 00:12:34,-0.005,-0.45
2021-08-19 00:12:35,0.0,-0.475
2021-08-19 00:12:35,0.015,-0.47
2021-08-19 00:12:35,0.03,-0.47
2021-08-19 00:12:35,0.025,-0.48
2021-08-19 00:12:36,0.025,-0.45
2021-08-19 00:12:36,0.01,-0.485
2021-08-19 00:12:36,0.035,-0.485
2021-08-19 00:12:36,0.03,-0.49
2021-08-19 00:12:36,0.02,-0.475
2021-08-19 00:12:37,0.035,-0.475
2021-08-19 00:12:37,0.04,-0.46
2021-08-19 00:12:37,0.03,-0.47
2021-08-19 00:12:37,0.005,-0.46
2021-08-19 00:12:38,0.015,-0.475
2021-08-19 00:12:38,0.035,-0.495
2021-08-19 00:12:38,0.04,-0.495
2021-08-19 00:12:38,0.03,-0.495
2021-08-19 00:12:39,0.035,-0.48
2021-08-19 00:12:39,0.04,-0.48
2021-08-19 00:12:39,0.035,-0.5
2021-08-19 00:12:39,0.035,-0.515
2021-08-19 00:12:40,0.04,-0.5
2021-08-19 00:12:40,0.015,-0.505
2021-08-19 00:12:40,0.02,-0.52
2021-08-19 00:12:40,0.035,-0.51
2021-08-19 00:12:41,0.045,-0.505
2021-08-19 00:12:41,0.025,-0.525
2021-08-19 00:12:41,0.02,-0.525
2021-08-19 00:12:41,0.015,-0.495
2021-08-19 00:12:42,0.035,-0.5
2021-08-19 00:12:42,0.03,-0.48
2021-08-19 00:12:42,0.035,-0.48
2021-08-19 00:12:42,0.025,-0.485
2021-08-19 00:12:42,0.01,-0.475
2021-08-19 00:12:43,0.02,-0.465
2021-08-19 00:12:43,0.015,-0.435
2021-08-19 00:12:43,0.005,-0.43
2021-08-19 00:12:43,0.015,-0.42
2021-08-19 00:12:44,0.01,-0.41
2021-08-19 00:12:44,0.015,-0.375
2021-08-19 00:12:44,-0.005,-0.35
2021-08-19 00:12:44,-0.005,-0.33
2021-08-19 00:12:45,-0.03,-0.315
2021-08-19 00:12:45,0.0,-0.305
2021-08-19 00:12:45,-0.02,-0.285
2021-08-19 00:12:45,-0.035,-0.28
2021-08-19 00:12:46,-0.05,-0.27
2021-08-19 00:12:46,-0.04,-0.265
2021-08-19 00:12:46,-0.05,-0.265
2021-08-19 00:12:46,-0.05,-0.22
2021-08-19 00:12:47,-0.055,-0.24
2021-08-19 00:12:47,-0.055,-0.25
2021-08-19 00:12:47,-0.06,-0.245
2021-08-19 00:12:47,-0.045,-0.24
2021-08-19 00:12:48,-0.055,-0.245
2021-08-19 00:12:48,-0.05,-0.27
2021-08-19 00:12:48,-0.05,-0.25
2021-08-19 00:12:48,-0.04,-0.25
2021-08-19 00:12:48,-0.04,-0.245
2021-08-19 00:12:49,-0.055,-0.26
2021-08-19 00:12:49,-0.05,-0.265
2021-08-19 00:12:49,-0.03,-0.265
2021-08-19 00:12:49,-0.03,-0.275
2021-08-19 00:12:50,-0.04,-0.275
2021-08-19 00:12:50,-0.035,-0.27
2021-08-19 00:12:50,-0.025,-0.285
2021-08-19 00:12:50,-0.03,-0.27
2021-08-19 00:12:51,-0.015,-0.26
2021-08-19 00:12:51,-0.035,-0.28
2021-08-19 00:12:51,-0.035,-0.3
2021-08-19 00:12:51,-0.025,-0.275
2021-08-19 00:12:52,-0.02,-0.28
2021-08-19 00:12:52,-0.025,-0.29
2021-08-19 00:12:52,-0.02,-0.28
2021-08-19 00:12:52,-0.025,-0.285
2021-08-19 00:12:53,-0.01,-0.275
2021-08-19 00:12:53,-0.01,-0.285
2021-08-19 00:12:53,-0.025,-0.27
2021-08-19 00:12:53,-0.015,-0.27
2021-08-19 00:12:54,-0.025,-0.27
2021-08-19 00:12:54,-0.02,-0.285
2021-08-19 00:12:54,-0.005,-0.265
2021-08-19 00:12:54,-0.02,-0.275
2021-08-19 00:12:54,0.0,-0.29
2021-08-19 00:12:55,-0.005,-0.275
2021-08-19 00:12:55,0.005,-0.28
2021-08-19 00:12:55,0.0,-0.285
2021-08-19 00:12:55,-0.005,-0.28
2021-08-19 00:12:56,-0.01,-0.28
2021-08-19 00:12:56,-0.025,-0.28
2021-08-19 00:12:56,-0.005,-0.285
2021-08-19 00:12:56,-0.015,-0.29
2021-08-19 00:12:57,0.0,-0.29
2021-08-19 00:12:57,-0.02,-0.28
2021-08-19 00:12:57,-0.01,-0.265
2021-08-19 00:12:57,-0.035,-0.29
2021-08-19 00:12:58,-0.01,-0.29
2021-08-19 00:12:58,-0.02,-0.27
2021-08-19 00:12:58,-0.03,-0.27
2021-08-19 00:12:58,-0.035,-0.29
2021-08-19 00:12:59,-0.02,-0.28
2021-08-19 00:12:59,-0.035,-0.29
2021-08-19 00:12:59,-0.03,-0.28
2021-08-19 00:12:59,-0.02,-0.285
2021-08-19 00:13:00,-0.05,-0.295
2021-08-19 00:13:00,-0.04,-0.295
2021-08-19 00:13:00,-0.035,-0.28
2021-08-19 00:13:00,-0.03,-0.295
2021-08-19 00:13:00,-0.04,-0.29
2021-08-19 00:13:01,-0.05,-0.295
2021-08-19 00:13:01,-0.03,-0.29
2021-08-19 00:13:01,-0.04,-0.305
2021-08-19 00:13:01,-0.02,-0.3
2021-08-19 00:13:02,-0.04,-0.275
2021-08-19 00:13:02,-0.06,-0.29
2021-08-19 00:13:02,-0.045,-0.295
2021-08-19 00:13:02,-0.065,-0.295
2021-08-19 00:13:03,-0.055,-0.275
2021-08-19 00:13:03,-0.045,-0.28
2021-08-19 00:13:03,-0.05,-0.265
2021-08-19 00:13:03,-0.065,-0.28
2021-08-19 00:13:04,-0.055,-0.265
2021-08-19 00:13:04,-0.04,-0.265
2021-08-19 00:13:04,-0.06,-0.265
2021-08-19 00:13:04,-0.045,-0.27
2021-08-19 00:13:05,-0.05,-0.27
2021-08-19 00:13:05,-0.035,-0.235
2021-08-19 00:13:05,-0.02,-0.2
2021-08-19 00:13:05,-0.035,-0.175
2021-08-19 00:13:06,-0.05,-0.135
2021-08-19 00:13:06,-0.035,-0.115
2021-08-19 00:13:06,-0.04,-0.105
2021-08-19 00:13:06,-0.015,-0.11
2021-08-19 00:13:06,-0.015,-0.115
2021-08-19 00:13:07,0.0,-0.115
2021-08-19 00:13:07,0.025,-0.095
2021-08-19 00:13:07,0.025,-0.105
2021-08-19 00:13:07,0.035,-0.13
2021-08-19 00:13:08,0.06,-0.11
2021-08-19 00:13:08,0.055,-0.095
2021-08-19 00:13:08,0.03,-0.1
2021-08-19 00:13:08,0.035,-0.105
2021-08-19 00:13:09,0.01,-0.13
2021-08-19 00:13:09,-0.015,-0.155
2021-08-19 00:13:09,-0.035,-0.21
2021-08-19 00:13:09,-0.045,-0.26
2021-08-19 00:13:10,-0.07,-0.25
2021-08-19 00:13:10,-0.08,-0.23
2021-08-19 00:13:10,-0.1,-0.225
2021-08-19 00:13:10,-0.105,-0.235
2021-08-19 00:13:11,-0.12,-0.225
2021-08-19 00:13:11,-0.12,-0.24
2021-08-19 00:13:11,-0.125,-0.24
2021-08-19 00:13:11,-0.125,-0.235
2021-08-19 00:13:12,-0.09,-0.235
2021-08-19 00:13:12,-0.09,-0.27
2021-08-19 00:13:12,-0.09,-0.285
2021-08-19 00:13:12,-0.09,-0.295
2021-08-19 00:13:12,-0.095,-0.335
2021-08-19 00:13:13,-0.085,-0.33
2021-08-19 00:13:13,-0.065,-0.34
2021-08-19 00:13:13,-0.035,-0.315
2021-08-19 00:13:13,-0.03,-0.335
2021-08-19 00:13:14,-0.04,-0.325
2021-08-19 00:13:14,-0.05,-0.315
2021-08-19 00:13:14,-0.065,-0.31
2021-08-19 00:13:14,-0.06,-0.315
2021-08-19 00:13:15,-0.045,-0.305
2021-08-19 00:13:15,-0.045,-0.3
2021-08-19 00:13:15,-0.045,-0.315
2021-08-19 00:13:15,-0.05,-0.3
2021-08-19 00:13:16,-0.06,-0.305
2021-08-19 00:13:16,-0.045,-0.315
2021-08-19 00:13:16,-0.035,-0.3
2021-08-19 00:13:16,-0.06,-0.28
2021-08-19 00:13:17,-0.05,-0.235
2021-08-19 00:13:17,-0.07,-0.21
2021-08-19 00:13:17,-0.05,-0.185
2021-08-19 00:13:17,-0.075,-0.11
2021-08-19 00:13:18,-0.055,0.055
2021-08-19 00:13:18,-0.055,0.35
2021-08-19 00:13:18,-0.02,0.59
2021-08-19 00:13:18,-0.005,0.795
2021-08-19 00:13:18,-0.01,0.935
2021-08-19 00:13:19,-0.045,1.025
2021-08-19 00:13:19,-0.1,1.0
2021-08-19 00:13:19,-0.105,0.84
2021-08-19 00:13:19,-0.16,0.52
2021-08-19 00:13:20,-0.34,0.155
2021-08-19 00:13:20,-0.6,0.005
2021-08-19 00:13:20,-0.895,0.09
2021-08-19 00:13:20,-1.18,0.155
2021-08-19 00:13:21,-1.32,0.01
2021-08-19 00:13:21,-1.365,-0.275
2021-08-19 00:13:21,-1.295,-0.525
2021-08-19 00:13:21,-0.98,-0.675
2021-08-19 00:13:22,-0.59,-0.74
2021-08-19 00:13:22,-0.285,-0.705
2021-08-19 00:13:22,-0.16,-0.61
2021-08-19 00:13:22,-0.13,-0.53
2021-08-19 00:13:23,-0.175,-0.46
2021-08-19 00:13:23,-0.15,-0.44
2021-08-19 00:13:23,-0.155,-0.46
2021-08-19 00:13:23,-0.135,-0.46
2021-08-19 00:13:24,-0.085,-0.47
2021-08-19 00:13:24,-0.045,-0.47
2021-08-19 00:13:24,0.0,-0.44
2021-08-19 00:13:24,0.025,-0.435
2021-08-19 00:13:24,0.035,-0.46
2021-08-19 00:13:25,0.055,-0.46
2021-08-19 00:13:25,0.035,-0.45
2021-08-19 00:13:25,0.04,-0.46
2021-08-19 00:13:25,0.06,-0.46
2021-08-19 00:13:26,0.065,-0.44
2021-08-19 00:13:26,0.06,-0.455
2021-08-19 00:13:26,0.06,-0.465
2021-08-19 00:13:26,0.07,-0.46
2021-08-19 00:13:27,0.055,-0.47
2021-08-19 00:13:27,0.085,-0.46
2021-08-19 00:13:27,0.07,-0.45
2021-08-19 00:13:27,0.095,-0.45
2021-08-19 00:13:28,0.105,-0.44
2021-08-19 00:13:28,0.065,-0.455
2021-08-19 00:13:28,0.085,-0.455
2021-08-19 00:13:28,0.09,-0.44
2021-08-19 00:13:29,0.09,-0.46
2021-08-19 00:13:29,0.065,-0.465
2021-08-19 00:13:29,0.085,-0.465
2021-08-19 00:13:29,0.11,-0.455
2021-08-19 00:13:30,0.11,-0.455
2021-08-19 00:13:30,0.1,-0.455
2021-08-19 00:13:30,0.095,-0.475
2021-08-19 00:13:30,0.11,-0.46
2021-08-19 00:13:30,0.09,-0.485
2021-08-19 00:13:31,0.095,-0.485
2021-08-19 00:13:31,0.075,-0.485
2021-08-19 00:13:31,0.085,-0.47
2021-08-19 00:13:31,0.095,-0.49
2021-08-19 00:13:32,0.085,-0.495
2021-08-19 00:13:32,0.065,-0.495
2021-08-19 00:13:32,0.08,-0.5
2021-08-19 00:13:32,0.08,-0.515
2021-08-19 00:13:33,0.08,-0.49
2021-08-19 00:13:33,0.08,-0.5
2021-08-19 00:13:33,0.06,-0.485
2021-08-19 00:13:33,0.08,-0.49
2021-08-19 00:13:34,0.07,-0.485
2021-08-19 00:13:34,0.08,-0.48
2021-08-19 00:13:34,0.06,-0.45
2021-08-19 00:13:34,0.055,-0.44
2021-08-19 00:13:35,0.07,-0.445
2021-08-19 00:13:35,0.07,-0.42
2021-08-19 00:13:35,0.09,-0.385
2021-08-19 00:13:35,0.06,-0.375
2021-08-19 00:13:36,0.035,-0.33
2021-08-19 00:13:36,0.06,-0.33
2021-08-19 00:13:36,0.04,-0.305
2021-08-19 00:13:36,0.02,-0.285
2021-08-19 00:13:36,0.03,-0.305
2021-08-19 00:13:37,0.0,-0.28
2021-08-19 00:13:37,0.025,-0.26
2021-08-19 00:13:37,0.01,-0.25
2021-08-19 00:13:37,0.01,-0.25
2021-08-19 00:13:38,0.015,-0.235
2021-08-19 00:13:38,0.005,-0.225
2021-08-19 00:13:38,0.0,-0.25
2021-08-19 00:13:38,0.01,-0.235
2021-08-19 00:13:39,0.0,-0.22
2021-08-19 00:13:39,0.02,-0.245
2021-08-19 00:13:39,-0.005,-0.235
2021-08-19 00:13:39,0.04,-0.24
2021-08-19 00:13:40,0.045,-0.24
2021-08-19 00:13:40,0.01,-0.255
2021-08-19 00:13:40,0.045,-0.235
2021-08-19 00:13:40,0.025,-0.24
2021-08-19 00:13:41,0.045,-0.255
2021-08-19 00:13:41,0.035,-0.27
2021-08-19 00:13:41,0.035,-0.25
2021-08-19 00:13:41,0.035,-0.275
2021-08-19 00:13:42,0.06,-0.25
2021-08-19 00:13:42,0.055,-0.265
2021-08-19 00:13:42,0.045,-0.26
2021-08-19 00:13:42,0.045,-0.255
2021-08-19 00:13:42,0.055,-0.265
2021-08-19 00:13:43,0.04,-0.27
2021-08-19 00:13:43,0.055,-0.27
2021-08-19 00:13:43,0.045,-0.275
2021-08-19 00:13:43,0.065,-0.28
2021-08-19 00:13:44,0.055,-0.265
2021-08-19 00:13:44,0.07,-0.275
2021-08-19 00:13:44,0.075,-0.28
2021-08-19 00:13:44,0.06,-0.295
2021-08-19 00:13:45,0.06,-0.265
2021-08-19 00:13:45,0.075,-0.26
2021-08-19 00:13:45,0.085,-0.275
2021-08-19 00:13:45,0.06,-0.265
2021-08-19 00:13:46,0.06,-0.265
2021-08-19 00:13:46,0.07,-0.275
2021-08-19 00:13:46,0.07,-0.275
2021-08-19 00:13:46,0.065,-0.29
2021-08-19 00:13:47,0.07,-0.275
2021-08-19 00:13:47,0.05,-0.27
2021-08-19 00:13:47,0.065,-0.275
2021-08-19 00:13:47,0.055,-0.27
2021-08-19 00:13:48,0.075,-0.27
2021-08-19 00:13:48,0.075,-0.26
2021-08-19 00:13:48,0.05,-0.25
2021-08-19 00:13:48,0.055,-0.26
2021-08-19 00:13:48,0.06,-0.265
2021-08-19 00:13:49,0.035,-0.275
2021-08-19 00:13:49,0.045,-0.275
2021-08-19 00:13:49,0.06,-0.3
2021-08-19 00:13:49,0.065,-0.275
2021-08-19 00:13:50,0.055,-0.275
2021-08-19 00:13:50,0.03,-0.27
2021-08-19 00:13:50,0.045,-0.295
2021-08-19 00:13:50,0.05,-0.265
2021-08-19 00:13:51,0.04,-0.27
2021-08-19 00:13:51,0.03,-0.275
2021-08-19 00:13:51,0.04,-0.265
2021-08-19 00:13:51,0.035,-0.28
2021-08-19 00:13:52,0.06,-0.275
2021-08-19 00:13:52,0.025,-0.26
2021-08-19 00:13:52,0.04,-0.285
2021-08-19 00:13:52,0.05,-0.285
2021-08-19 00:13:53,0.025,-0.28
2021-08-19 00:13:53,0.03,-0.29
2021-08-19 00:13:53,0.025,-0.265
2021-08-19 00:13:53,0.035,-0.275
2021-08-19 00:13:54,0.02,-0.285
2021-08-19 00:13:54,0.025,-0.29
2021-08-19 00:13:54,0.045,-0.28
2021-08-19 00:13:54,0.05,-0.25
2021-08-19 00:13:54,0.035,-0.265
2021-08-19 00:13:55,0.03,-0.27
2021-08-19 00:13:55,0.035,-0.26
2021-08-19 00:13:55,0.035,-0.26
2021-08-19 00:13:55,0.04,-0.225
2021-08-19 00:13:56,0.015,-0.21
2021-08-19 00:13:56,0.045,-0.18
2021-08-19 00:13:56,0.055,-0.125
2021-08-19 00:13:56,0.025,-0.09
2021-08-19 00:13:57,0.055,-0.095
2021-08-19 00:13:57,0.055,-0.07
2021-08-19 00:13:57,0.06,-0.09
2021-08-19 00:13:57,0.1,-0.09
2021-08-19 00:13:58,0.1,-0.085
2021-08-19 00:13:58,0.12,-0.1
2021-08-19 00:13:58,0.13,-0.1
2021-08-19 00:13:58,0.145,-0.095
2021-08-19 00:13:59,0.145,-0.085
2021-08-19 00:13:59,0.125,-0.085
2021-08-19 00:13:59,0.09,-0.085
2021-08-19 00:13:59,0.08,-0.115
2021-08-19 00:14:00,0.035,-0.17
2021-08-19 00:14:00,0.03,-0.22
2021-08-19 00:14:00,0.015,-0.22
2021-08-19 00:14:00,-0.01,-0.205
2021-08-19 00:14:00,-0.025,-0.22
2021-08-19 00:14:01,-0.035,-0.185
2021-08-19 00:14:01,-0.03,-0.195
2021-08-19 00:14:01,-0.04,-0.2
2021-08-19 00:14:01,-0.035,-0.21
2021-08-19 00:14:02,-0.03,-0.2
2021-08-19 00:14:02,-0.025,-0.225
2021-08-19 00:14:02,-0.01,-0.23
2021-08-19 00:14:02,0.0,-0.25
2021-08-19 00:14:03,0.005,-0.295
2021-08-19 00:14:03,0.0,-0.3
2021-08-19 00:14:03,0.005,-0.29
2021-08-19 00:14:03,0.03,-0.29
2021-08-19 00:14:04,0.06,-0.28
2021-08-19 00:14:04,0.065,-0.29
2021-08-19 00:14:04,0.045,-0.29
2021-08-19 00:14:04,0.06,-0.28
2021-08-19 00:14:05,0.045,-0.27
2021-08-19 00:14:05,0.045,-0.275
2021-08-19 00:14:05,0.03,-0.28
2021-08-19 00:14:05,0.04,-0.265
2021-08-19 00:14:06,0.045,-0.275
2021-08-19 00:14:06,0.035,-0.265
2021-08-19 00:14:06,0.035,-0.26
2021-08-19 00:14:06,0.035,-0.26
2021-08-19 00:14:06,0.035,-0.24
2021-08-19 00:14:07,0.045,-0.215
2021-08-19 00:14:07,0.045,-0.195
2021-08-19 00:14:07,0.02,-0.18
2021-08-19 00:14:07,0.01,-0.145
2021-08-19 00:14:08,0.025,-0.045
2021-08-19 00:14:08,0.04,0.195
2021-08-19 00:14:08,0.05,0.485
2021-08-19 00:14:08,0.065,0.725
2021-08-19 00:14:09,0.095,0.88
2021-08-19 00:14:09,0.06,0.99
2021-08-19 00:14:09,0.0,0.975
2021-08-19 00:14:09,-0.02,0.825
2021-08-19 00:14:10,-0.075,0.515
2021-08-19 00:14:10,-0.185,0.135
2021-08-19 00:14:10,-0.455,-0.075
2021-08-19 00:14:10,-0.785,0.035
2021-08-19 00:14:11,-1.115,0.215
2021-08-19 00:14:11,-1.355,0.11
2021-08-19 00:14:11,-1.455,-0.18
2021-08-19 00:14:11,-1.415,-0.45
2021-08-19 00:14:12,-1.165,-0.63
2021-08-19 00:14:12,-0.705,-0.715
2021-08-19 00:14:12,-0.325,-0.66
2021-08-19 00:14:12,-0.115,-0.575
2021-08-19 00:14:12,-0.055,-0.48
2021-08-19 00:14:13,-0.105,-0.42
2021-08-19 00:14:13,-0.1,-0.425
2021-08-19 00:14:13,-0.105,-0.425
2021-08-19 00:14:13,-0.095,-0.425
2021-08-19 00:14:14,-0.015,-0.43
2021-08-19 00:14:14,0.02,-0.435
2021-08-19 00:14:14,0.055,-0.435
2021-08-19 00:14:14,0.1,-0.44
2021-08-19 00:14:15,0.105,-0.435
2021-08-19 00:14:15,0.095,-0.43
2021-08-19 00:14:15,0.13,-0.43
2021-08-19 00:14:15,0.12,-0.425
2021-08-19 00:14:16,0.115,-0.425
2021-08-19 00:14:16,0.11,-0.43
2021-08-19 00:14:16,0.125,-0.415
2021-08-19 00:14:16,0.12,-0.425
2021-08-19 00:14:17,0.125,-0.425
2021-08-19 00:14:17,0.125,-0.435
2021-08-19 00:14:17,0.16,-0.415
2021-08-19 00:14:17,0.14,-0.405
2021-08-19 00:14:18,0.13,-0.42
2021-08-19 00:14:18,0.135,-0.425
2021-08-19 00:14:18,0.145,-0.41
2021-08-19 00:14:18,0.15,-0.425
2021-08-19 00:14:18,0.15,-0.425
2021-08-19 00:14:19,0.145,-0.425
2021-08-19 00:14:19,0.145,-0.435
2021-08-19 00:14:19,0.145,-0.435
2021-08-19 00:14:19,0.14,-0.425
2021-08-19 00:14:20,0.145,-0.43
2021-08-19 00:14:20,0.14,-0.425
2021-08-19 00:14:20,0.13,-0.45
2021-08-19 00:14:20,0.14,-0.43
2021-08-19 00:14:21,0.15,-0.47
2021-08-19 00:14:21,0.15,-0.42
2021-08-19 00:14:21,0.15,-0.44
2021-08-19 00:14:21,0.135,-0.445
2021-08-19 00:14:22,0.13,-0.445
2021-08-19 00:14:22,0.13,-0.44
2021-08-19 00:14:22,0.14,-0.47
2021-08-19 00:14:22,0.12,-0.445
2021-08-19 00:14:23,0.125,-0.435
2021-08-19 00:14:23,0.13,-0.44
2021-08-19 00:14:23,0.12,-0.43
2021-08-19 00:14:23,0.125,-0.435
2021-08-19 00:14:24,0.115,-0.425
2021-08-19 00:14:24,0.135,-0.4
2021-08-19 00:14:24,0.125,-0.39
2021-08-19 00:14:24,0.12,-0.38
2021-08-19 00:14:24,0.12,-0.365
2021-08-19 00:14:25,0.12,-0.345
2021-08-19 00:14:25,0.095,-0.34
2021-08-19 00:14:25,0.085,-0.315
2021-08-19 00:14:25,0.08,-0.3
2021-08-19 00:14:26,0.105,-0.28
2021-08-19 00:14:26,0.065,-0.295
2021-08-19 00:14:26,0.04,-0.275
2021-08-19 00:14:26,0.04,-0.265
2021-08-19 00:14:27,0.055,-0.255
2021-08-19 00:14:27,0.03,-0.26
2021-08-19 00:14:27,0.035,-0.265
2021-08-19 00:14:27,0.03,-0.26
2021-08-19 00:14:28,0.045,-0.25
2021-08-19 00:14:28,0.025,-0.24
2021-08-19 00:14:28,0.03,-0.24
2021-08-19 00:14:28,0.025,-0.275
2021-08-19 00:14:29,0.045,-0.25
2021-08-19 00:14:29,0.02,-0.25
2021-08-19 00:14:29,0.025,-0.265
2021-08-19 00:14:29,0.015,-0.26
2021-08-19 00:14:30,0.035,-0.27
