Time,ECG1,ECG2
,2.0,2.0
,2.0,2.0
,2.0,2.0
,2.0,2.0
,2.0,2.0
,2.0,2.0
,2.0,2.0
,2.0,2.0
,2.0,2.0
,2.0,2.0
,2.0,2.0
,2.0,2.0
,2.0,2.0
,2.0,2.0
,2.0,2.0
,2.0,2.0
,2.0,2.0
,2.0,2.0
,2.0,2.0
,2.0,2.0
,2.0,2.0
,2.0,2.0
,2.0,2.0
,2.0,2.0
,2.0,2.0
,2.0,2.0
,2.0,2.0
,2.0,2.0
,2.0,2.0
,2.0,2.0
,2.0,2.0
,2.0,2.0
,2.0,2.0
,2.0,2.0
,2.0,2.0
,2.0,2.0
,2.0,2.0
,2.0,2.0
,2.0,2.0
,2.0,2.0
,2.0,2.0
,2.0,2.0
,2.0,2.0
,2.0,2.0
,2.0,2.0
,2.0,2.0
,2.0,2.0
,2.0,2.0
,2.0,2.0
,2.0,2.0
,2.0,2.0
,2.0,2.0
,2.0,2.0
,2.0,2.0
,2.0,2.0
,2.0,2.0
,2.0,2.0
,2.0,2.0
,2.0,2.0
,2.0,2.0
,2.0,2.0
,2.0,2.0
,2.0,2.0
,2.0,2.0
,2.0,2.0
,2.0,2.0
,2.0,2.0
,2.0,2.0
,2.0,2.0
,2.0,2.0
,2.0,2.0
,2.0,2.0
,2.0,2.0
,2.0,2.0
,2.0,2.0
,2.0,2.0
,2.0,2.0
,2.0,2.0
,2.0,2.0
,2.0,2.0
,2.0,2.0
,2.0,2.0
,2.0,2.0
,2.0,2.0
,2.0,2.0
,2.0,2.0
,2.0,2.0
,2.0,2.0
,2.0,2.0
,2.0,2.0
,2.0,2.0
,2.0,2.0
,2.0,2.0
,2.0,2.0
,2.0,2.0
,2.0,2.0
,2.0,2.0
,2.0,2.0
,2.0,2.0
,2.0,2.0
,2.0,2.0
,2.0,2.0
,2.0,2.0
,2.0,2.0
,2.0,2.0
,2.0,2.0
,2.0,2.0
,2.0,2.0
,2.0,2.0
,2.0,2.0
,2.0,2.0
,2.0,2.0
,2.0,2.0
,2.0,2.0
,2.0,2.0
,2.0,2.0
,2.0,2.0
,2.0,2.0
,2.0,2.0
,2.0,2.0
,2.0,2.0
,2.0,2.0
,2.0,2.0
,2.0,2.0
,2.0,2.0
,2.0,2.0
,2.0,2.0
,2.0,2.0
,2.0,2.0
,2.0,2.0
,2.0,2.0
,2.0,2.0
,2.0,2.0
,2.0,2.0
,2.0,2.0
,2.0,2.0
,2.0,2.0
,2.0,2.0
,2.0,2.0
,2.0,2.0
,2.0,2.0
,2.0,2.0
,2.0,2.0
,2.0,2.0
,2.0,2.0
,2.0,2.0
,2.0,2.0
,2.0,2.0
,2.0,2.0
,2.0,2.0
,2.0,2.0
,2.0,2.0
,2.0,2.0
,2.0,2.0
,2.0,2.0
,2.0,2.0
,2.0,2.0
,2.0,2.0
,2.0,2.0
,2.0,2.0
,2.0,2.0
,2.0,2.0
,2.0,2.0
,2.0,2.0
,2.0,2.0
,2.0,2.0
,2.0,2.0
,2.0,2.0
,2.0,2.0
,2.0,2.0
,2.0,2.0
,2.0,2.0
,2.0,2.0
,2.0,2.0
,2.0,2.0
,2.0,2.0
,2.0,2.0
,2.0,2.0
,2.0,2.0
,2.0,2.0
,2.0,2.0
,2.0,2.0
,2.0,2.0
,2.0,2.0
,2.0,2.0
,2.0,2.0
,2.0,2.0
,2.0,2.0
,2.0,2.0
,2.0,2.0
,2.0,2.0
,2.0,2.0
,2.0,2.0
,2.0,2.0
,2.0,2.0
,2.0,2.0
,2.0,2.0
,2.0,2.0
,2.0,2.0
,2.0,2.0
,2.0,2.0
,2.0,2.0
,2.0,2.0
,2.0,2.0
,2.0,2.0
,2.0,2.0
,2.0,2.0
,2.0,2.0
,2.0,2.0
,2.0,2.0
,2.0,2.0
,2.0,2.0
,2.0,2.0
,2.0,2.0
,2.0,2.0
,2.0,2.0
,2.0,2.0
,2.0,2.0
,2.0,2.0
,2.0,2.0
,2.0,2.0
,2.0,2.0
,2.0,2.0
,2.0,2.0
,2.0,2.0
,2.0,2.0
,2.0,2.0
,2.0,2.0
,2.0,2.0
,2.0,2.0
,2.0,2.0
,2.0,2.0
,2.0,2.0
,2.0,2.0
,2.0,2.0
,2.0,2.0
,2.0,2.0
,2.0,2.0
,2.0,2.0
,2.0,2.0
,2.0,2.0
,2.0,2.0
,2.0,2.0
,2.0,2.0
,2.0,2.0
,2.0,2.0
,2.0,2.0
,2.0,2.0
,2.0,2.0
,2.0,2.0
,2.0,2.0
,2.0,2.0
,2.0,2.0
,2.0,2.0
,2.0,2.0
,2.0,2.0
,2.0,2.0
,2.0,2.0
,2.0,2.0
,2.0,2.0
,2.0,2.0
,2.0,2.0
,2.0,2.0
,2.0,2.0
,2.0,2.0
,2.0,2.0
,2.0,2.0
,2.0,2.0
,2.0,2.0
,2.0,2.0
,2.0,2.0
,2.0,2.0
,2.0,2.0
,2.0,2.0
,2.0,2.0
,2.0,2.0
,2.0,2.0
,2.0,2.0
,2.0,2.0
,2.0,2.0
,2.0,2.0
,2.0,2.0
,2.0,2.0
,2.0,2.0
,2.0,2.0
,2.0,2.0
,2.0,2.0
,2.0,2.0
,2.0,2.0
,2.0,2.0
,2.0,2.0
,2.0,2.0
,2.0,2.0
,2.0,2.0
,2.0,2.0
,2.0,2.0
,2.0,2.0
,2.0,2.0
,2.0,2.0
,2.0,2.0
,2.0,2.0
,2.0,2.0
,2.0,2.0
,2.0,2.0
,2.0,2.0
,2.0,2.0
,2.0,2.0
,2.0,2.0
,2.0,2.0
,2.0,2.0
,2.0,2.0
,2.0,2.0
,2.0,2.0
,2.0,2.0
,2.0,2.0
,2.0,2.0
,2.0,2.0
,2.0,2.0
,2.0,2.0
,2.0,2.0
,2.0,2.0
,2.0,2.0
,2.0,2.0
,2.0,2.0
,2.0,2.0
,2.0,2.0
,2.0,2.0
,2.0,2.0
,2.0,2.0
,2.0,2.0
,2.0,2.0
,2.0,2.0
,2.0,2.0
,2.0,2.0
,2.0,2.0
,2.0,2.0
,2.0,2.0
,2.0,2.0
,2.0,2.0
,2.0,2.0
,2.0,2.0
,2.0,2.0
,2.0,2.0
,2.0,2.0
,2.0,2.0
,2.0,2.0
,2.0,2.0
,2.0,2.0
,2.0,2.0
,2.0,2.0
,2.0,2.0
,2.0,2.0
,2.0,2.0
,2.0,2.0
,2.0,2.0
,2.0,2.0
,2.0,2.0
,2.0,2.0
,2.0,2.0
,2.0,2.0
,2.0,2.0
,2.0,2.0
,2.0,2.0
,2.0,2.0
,2.0,2.0
,2.0,2.0
,2.0,2.0
,2.0,2.0
,2.0,2.0
,2.0,2.0
,2.0,2.0
,2.0,2.0
,2.0,2.0
,2.0,2.0
,2.0,2.0
,2.0,2.0
,2.0,2.0
,2.0,2.0
,2.0,2.0
,2.0,2.0
,2.0,2.0
,2.0,2.0
,2.0,2.0
,2.0,2.0
,2.0,2.0
,2.0,2.0
,2.0,2.0
,2.0,2.0
,2.0,2.0
,2.0,2.0
,2.0,2.0
,2.0,2.0
,2.0,2.0
,2.0,2.0
,2.0,2.0
,2.0,2.0
,2.0,2.0
,2.0,2.0
,2.0,2.0
,2.0,2.0
,2.0,2.0
,2.0,2.0
,2.0,2.0
,2.0,2.0
,2.0,2.0
,2.0,2.0
,2.0,2.0
,2.0,2.0
,2.0,2.0
,2.0,2.0
,2.0,2.0
,2.0,2.0
,2.0,2.0
,2.0,2.0
,2.0,2.0
,2.0,2.0
,2.0,2.0
,2.0,2.0
,2.0,2.0
,2.0,2.0
,2.0,2.0
,2.0,2.0
,2.0,2.0
,2.0,2.0
,2.0,2.0
,2.0,2.0
,2.0,2.0
,2.0,2.0
,2.0,2.0
,2.0,2.0
,2.0,2.0
,2.0,2.0
,2.0,2.0
,2.0,2.0
,2.0,2.0
,2.0,2.0
,2.0,2.0
,2.0,2.0
,2.0,2.0
,2.0,2.0
,2.0,2.0
,2.0,2.0
,2.0,2.0
,2.0,2.0
,2.0,2.0
,2.0,2.0
,2.0,2.0
,2.0,2.0
,2.0,2.0
,2.0,2.0
,2.0,2.0
,2.0,2.0
,2.0,2.0
,2.0,2.0
,2.0,2.0
,2.0,2.0
,2.0,2.0
,2.0,2.0
,2.0,2.0
,2.0,2.0
,2.0,2.0
,2.0,2.0
,2.0,2.0
,2.0,2.0
,2.0,2.0
,2.0,2.0
,2.0,2.0
,2.0,2.0
,2.0,2.0
,2.0,2.0
,2.0,2.0
,2.0,2.0
,2.0,2.0
,2.0,2.0
,2.0,2.0
,2.0,2.0
,2.0,2.0
,2.0,2.0
,2.0,2.0
,2.0,2.0
,2.0,2.0
,2.0,2.0
,2.0,2.0
,2.0,2.0
,2.0,2.0
,2.0,2.0
,2.0,2.0
,2.0,2.0
,2.0,2.0
,2.0,2.0
,2.0,2.0
,2.0,2.0
,2.0,2.0
,2.0,2.0
,2.0,2.0
,2.0,2.0
,2.0,2.0
,2.0,2.0
,2.0,2.0
,2.0,2.0
,2.0,2.0
,2.0,2.0
,2.0,2.0
,2.0,2.0
,2.0,2.0
,2.0,2.0
,2.0,2.0
,2.0,2.0
,2.0,2.0
,2.0,2.0
,2.0,2.0
,2.0,2.0
,2.0,2.0
,2.0,2.0
,2.0,2.0
,2.0,2.0
,2.0,2.0
,2.0,2.0
,2.0,2.0
,2.0,2.0
,2.0,2.0
,2.0,2.0
,2.0,2.0
,2.0,2.0
,2.0,2.0
,2.0,2.0
,2.0,2.0
,2.0,2.0
,2.0,2.0
,2.0,2.0
,2.0,2.0
,2.0,2.0
,2.0,2.0
,2.0,2.0
,2.0,2.0
,2.0,2.0
,2.0,2.0
,2.0,2.0
,2.0,2.0
,2.0,2.0
,2.0,2.0
,2.0,2.0
,2.0,2.0
,2.0,2.0
,2.0,2.0
,2.0,2.0
,2.0,2.0
2021-08-19 23:13:14.736,-0.12,-0.335
2021-08-19 23:13:14.740,-0.14,-0.345
2021-08-19 23:13:14.744,-0.13,-0.345
2021-08-19 23:13:14.748,-0.14,-0.35
2021-08-19 23:13:14.752,-0.13,-0.355
2021-08-19 23:13:14.756,-0.155,-0.335
2021-08-19 23:13:14.760,-0.135,-0.355
2021-08-19 23:13:14.764,-0.14,-0.345
2021-08-19 23:13:14.768,-0.135,-0.34
2021-08-19 23:13:14.772,-0.15,-0.33
2021-08-19 23:13:14.776,-0.13,-0.34
2021-08-19 23:13:14.780,-0.135,-0.345
2021-08-19 23:13:14.784,-0.13,-0.34
2021-08-19 23:13:14.788,-0.125,-0.33
2021-08-19 23:13:14.792,-0.12,-0.335
2021-08-19 23:13:14.796,-0.15,-0.32
2021-08-19 23:13:14.800,-0.12,-0.335
2021-08-19 23:13:14.804,-0.14,-0.32
2021-08-19 23:13:14.808,-0.14,-0.335
2021-08-19 23:13:14.812,-0.115,-0.33
2021-08-19 23:13:14.816,-0.11,-0.34
2021-08-19 23:13:14.820,-0.095,-0.345
2021-08-19 23:13:14.824,-0.125,-0.32
2021-08-19 23:13:14.828,-0.115,-0.325
2021-08-19 23:13:14.832,-0.11,-0.335
2021-08-19 23:13:14.836,-0.115,-0.325
2021-08-19 23:13:14.840,-0.11,-0.305
2021-08-19 23:13:14.844,-0.13,-0.335
2021-08-19 23:13:14.848,-0.13,-0.315
2021-08-19 23:13:14.852,-0.115,-0.32
2021-08-19 23:13:14.856,-0.12,-0.315
2021-08-19 23:13:14.860,-0.105,-0.315
2021-08-19 23:13:14.864,-0.105,-0.32
2021-08-19 23:13:14.868,-0.115,-0.3
2021-08-19 23:13:14.872,-0.12,-0.315
2021-08-19 23:13:14.876,-0.105,-0.32
2021-08-19 23:13:14.880,-0.105,-0.32
2021-08-19 23:13:14.884,-0.105,-0.325
2021-08-19 23:13:14.888,-0.105,-0.31
2021-08-19 23:13:14.892,-0.1,-0.305
2021-08-19 23:13:14.896,-0.105,-0.31
2021-08-19 23:13:14.900,-0.095,-0.305
2021-08-19 23:13:14.904,-0.11,-0.32
2021-08-19 23:13:14.908,-0.095,-0.3
2021-08-19 23:13:14.912,-0.09,-0.305
2021-08-19 23:13:14.916,-0.09,-0.32
2021-08-19 23:13:14.920,-0.09,-0.32
2021-08-19 23:13:14.924,-0.08,-0.305
2021-08-19 23:13:14.928,-0.085,-0.31
2021-08-19 23:13:14.932,-0.115,-0.315
2021-08-19 23:13:14.936,-0.11,-0.305
2021-08-19 23:13:14.940,-0.1,-0.305
2021-08-19 23:13:14.944,-0.095,-0.31
2021-08-19 23:13:14.948,-0.105,-0.31
2021-08-19 23:13:14.952,-0.105,-0.305
2021-08-19 23:13:14.956,-0.1,-0.29
2021-08-19 23:13:14.960,-0.11,-0.315
2021-08-19 23:13:14.964,-0.115,-0.3
2021-08-19 23:13:14.968,-0.1,-0.3
2021-08-19 23:13:14.972,-0.1,-0.29
2021-08-19 23:13:14.976,-0.1,-0.3
2021-08-19 23:13:14.980,-0.1,-0.3
2021-08-19 23:13:14.984,-0.105,-0.3
2021-08-19 23:13:14.988,-0.1,-0.29
2021-08-19 23:13:14.992,-0.11,-0.3
2021-08-19 23:13:14.996,-0.115,-0.29
2021-08-19 23:13:15.000,-0.12,-0.31
2021-08-19 23:13:15.004,-0.125,-0.295
2021-08-19 23:13:15.008,-0.105,-0.3
2021-08-19 23:13:15.012,-0.105,-0.295
2021-08-19 23:13:15.016,-0.11,-0.3
2021-08-19 23:13:15.020,-0.115,-0.295
2021-08-19 23:13:15.024,-0.09,-0.285
2021-08-19 23:13:15.028,-0.11,-0.305
2021-08-19 23:13:15.032,-0.12,-0.285
2021-08-19 23:13:15.036,-0.13,-0.29
2021-08-19 23:13:15.040,-0.11,-0.28
2021-08-19 23:13:15.044,-0.11,-0.295
2021-08-19 23:13:15.048,-0.125,-0.28
2021-08-19 23:13:15.052,-0.11,-0.295
2021-08-19 23:13:15.056,-0.12,-0.285
2021-08-19 23:13:15.060,-0.09,-0.29
2021-08-19 23:13:15.064,-0.1,-0.295
2021-08-19 23:13:15.068,-0.095,-0.29
2021-08-19 23:13:15.072,-0.09,-0.27
2021-08-19 23:13:15.076,-0.085,-0.27
2021-08-19 23:13:15.080,-0.105,-0.28
2021-08-19 23:13:15.084,-0.095,-0.265
2021-08-19 23:13:15.088,-0.115,-0.275
2021-08-19 23:13:15.092,-0.1,-0.275
2021-08-19 23:13:15.096,-0.095,-0.225
2021-08-19 23:13:15.100,-0.085,-0.225
2021-08-19 23:13:15.104,-0.095,-0.22
2021-08-19 23:13:15.108,-0.06,-0.215
2021-08-19 23:13:15.112,-0.06,-0.185
2021-08-19 23:13:15.116,-0.06,-0.195
2021-08-19 23:13:15.120,-0.05,-0.19
2021-08-19 23:13:15.124,-0.03,-0.18
2021-08-19 23:13:15.128,-0.045,-0.17
2021-08-19 23:13:15.132,-0.035,-0.14
2021-08-19 23:13:15.136,-0.07,-0.13
2021-08-19 23:13:15.140,-0.06,-0.165
2021-08-19 23:13:15.144,-0.075,-0.185
2021-08-19 23:13:15.148,-0.07,-0.215
2021-08-19 23:13:15.152,-0.11,-0.215
2021-08-19 23:13:15.156,-0.105,-0.22
2021-08-19 23:13:15.160,-0.11,-0.21
2021-08-19 23:13:15.164,-0.13,-0.22
2021-08-19 23:13:15.168,-0.115,-0.21
2021-08-19 23:13:15.172,-0.125,-0.205
2021-08-19 23:13:15.176,-0.15,-0.24
2021-08-19 23:13:15.180,-0.12,-0.235
2021-08-19 23:13:15.184,-0.13,-0.275
2021-08-19 23:13:15.188,-0.11,-0.305
2021-08-19 23:13:15.192,-0.085,-0.32
2021-08-19 23:13:15.196,-0.11,-0.35
2021-08-19 23:13:15.200,-0.115,-0.335
2021-08-19 23:13:15.204,-0.125,-0.32
2021-08-19 23:13:15.208,-0.115,-0.325
2021-08-19 23:13:15.212,-0.12,-0.31
2021-08-19 23:13:15.216,-0.12,-0.32
2021-08-19 23:13:15.220,-0.125,-0.34
2021-08-19 23:13:15.224,-0.11,-0.33
2021-08-19 23:13:15.228,-0.12,-0.315
2021-08-19 23:13:15.232,-0.115,-0.325
2021-08-19 23:13:15.236,-0.135,-0.315
2021-08-19 23:13:15.240,-0.125,-0.31
2021-08-19 23:13:15.244,-0.105,-0.315
2021-08-19 23:13:15.248,-0.105,-0.335
2021-08-19 23:13:15.252,-0.12,-0.385
2021-08-19 23:13:15.256,-0.125,-0.46
2021-08-19 23:13:15.260,-0.11,-0.58
2021-08-19 23:13:15.264,-0.11,-0.62
2021-08-19 23:13:15.268,-0.115,-0.495
2021-08-19 23:13:15.272,-0.105,-0.14
2021-08-19 23:13:15.276,-0.075,0.325
2021-08-19 23:13:15.280,-0.015,0.925
2021-08-19 23:13:15.284,0.13,1.595
,2.0,2.0
,2.0,2.0
,2.0,2.0
,2.0,2.0
2021-08-19 23:13:15.304,0.39,1.635
2021-08-19 23:13:15.308,0.29,1.02
2021-08-19 23:13:15.312,0.085,0.58
2021-08-19 23:13:15.316,-0.11,0.25
2021-08-19 23:13:15.320,-0.195,0.05
2021-08-19 23:13:15.324,-0.245,-0.07
2021-08-19 23:13:15.328,-0.2,-0.13
2021-08-19 23:13:15.332,-0.125,-0.21
2021-08-19 23:13:15.336,-0.11,-0.26
2021-08-19 23:13:15.340,-0.095,-0.305
2021-08-19 23:13:15.344,-0.105,-0.335
2021-08-19 23:13:15.348,-0.115,-0.38
2021-08-19 23:13:15.352,-0.105,-0.405
2021-08-19 23:13:15.356,-0.095,-0.42
2021-08-19 23:13:15.360,-0.115,-0.425
2021-08-19 23:13:15.364,-0.12,-0.43
2021-08-19 23:13:15.368,-0.13,-0.45
2021-08-19 23:13:15.372,-0.095,-0.46
2021-08-19 23:13:15.376,-0.1,-0.45
2021-08-19 23:13:15.380,-0.125,-0.445
2021-08-19 23:13:15.384,-0.085,-0.46
2021-08-19 23:13:15.388,-0.105,-0.46
2021-08-19 23:13:15.392,-0.11,-0.455
2021-08-19 23:13:15.396,-0.105,-0.44
2021-08-19 23:13:15.400,-0.11,-0.46
2021-08-19 23:13:15.404,-0.09,-0.45
2021-08-19 23:13:15.408,-0.09,-0.455
2021-08-19 23:13:15.412,-0.12,-0.46
2021-08-19 23:13:15.416,-0.115,-0.46
2021-08-19 23:13:15.420,-0.1,-0.465
2021-08-19 23:13:15.424,-0.105,-0.455
2021-08-19 23:13:15.428,-0.095,-0.47
2021-08-19 23:13:15.432,-0.11,-0.48
2021-08-19 23:13:15.436,-0.09,-0.47
2021-08-19 23:13:15.440,-0.085,-0.455
2021-08-19 23:13:15.444,-0.075,-0.48
2021-08-19 23:13:15.448,-0.085,-0.47
2021-08-19 23:13:15.452,-0.07,-0.48
2021-08-19 23:13:15.456,-0.085,-0.455
2021-08-19 23:13:15.460,-0.07,-0.465
2021-08-19 23:13:15.464,-0.07,-0.44
2021-08-19 23:13:15.468,-0.065,-0.47
2021-08-19 23:13:15.472,-0.04,-0.455
2021-08-19 23:13:15.476,-0.035,-0.445
2021-08-19 23:13:15.480,-0.04,-0.455
2021-08-19 23:13:15.484,-0.04,-0.455
2021-08-19 23:13:15.488,-0.03,-0.43
2021-08-19 23:13:15.492,-0.03,-0.46
2021-08-19 23:13:15.496,-0.02,-0.44
2021-08-19 23:13:15.500,-0.015,-0.435
2021-08-19 23:13:15.504,0.01,-0.425
2021-08-19 23:13:15.508,-0.005,-0.42
2021-08-19 23:13:15.512,0.005,-0.42
2021-08-19 23:13:15.516,0.01,-0.425
2021-08-19 23:13:15.520,0.0,-0.425
2021-08-19 23:13:15.524,0.015,-0.415
2021-08-19 23:13:15.528,0.04,-0.405
2021-08-19 23:13:15.532,0.04,-0.41
2021-08-19 23:13:15.536,0.04,-0.405
2021-08-19 23:13:15.540,0.07,-0.4
2021-08-19 23:13:15.544,0.065,-0.385
2021-08-19 23:13:15.548,0.075,-0.395
2021-08-19 23:13:15.552,0.09,-0.37
2021-08-19 23:13:15.556,0.085,-0.355
2021-08-19 23:13:15.560,0.085,-0.325
2021-08-19 23:13:15.564,0.125,-0.33
2021-08-19 23:13:15.568,0.105,-0.3
2021-08-19 23:13:15.572,0.135,-0.285
2021-08-19 23:13:15.576,0.135,-0.28
2021-08-19 23:13:15.580,0.165,-0.29
2021-08-19 23:13:15.584,0.17,-0.305
2021-08-19 23:13:15.588,0.18,-0.31
2021-08-19 23:13:15.592,0.165,-0.31
2021-08-19 23:13:15.596,0.155,-0.32
2021-08-19 23:13:15.600,0.15,-0.305
2021-08-19 23:13:15.604,0.15,-0.29
2021-08-19 23:13:15.608,0.155,-0.295
2021-08-19 23:13:15.612,0.145,-0.3
2021-08-19 23:13:15.616,0.145,-0.29
2021-08-19 23:13:15.620,0.125,-0.285
2021-08-19 23:13:15.624,0.105,-0.28
2021-08-19 23:13:15.628,0.06,-0.285
2021-08-19 23:13:15.632,0.07,-0.27
2021-08-19 23:13:15.636,0.06,-0.265
2021-08-19 23:13:15.640,0.045,-0.275
2021-08-19 23:13:15.644,0.02,-0.265
2021-08-19 23:13:15.648,-0.01,-0.265
2021-08-19 23:13:15.652,-0.04,-0.26
2021-08-19 23:13:15.656,-0.045,-0.255
2021-08-19 23:13:15.660,-0.035,-0.255
2021-08-19 23:13:15.664,-0.055,-0.245
2021-08-19 23:13:15.668,-0.055,-0.265
2021-08-19 23:13:15.672,-0.065,-0.255
2021-08-19 23:13:15.676,-0.065,-0.265
2021-08-19 23:13:15.680,-0.07,-0.255
2021-08-19 23:13:15.684,-0.08,-0.265
2021-08-19 23:13:15.688,-0.085,-0.3
2021-08-19 23:13:15.692,-0.085,-0.285
2021-08-19 23:13:15.696,-0.095,-0.315
2021-08-19 23:13:15.700,-0.085,-0.315
2021-08-19 23:13:15.704,-0.11,-0.32
2021-08-19 23:13:15.708,-0.1,-0.31
2021-08-19 23:13:15.712,-0.08,-0.32
2021-08-19 23:13:15.716,-0.105,-0.33
2021-08-19 23:13:15.720,-0.08,-0.35
2021-08-19 23:13:15.724,-0.095,-0.32
2021-08-19 23:13:15.728,-0.095,-0.34
2021-08-19 23:13:15.732,-0.095,-0.33
2021-08-19 23:13:15.736,-0.07,-0.34
2021-08-19 23:13:15.740,-0.07,-0.345
2021-08-19 23:13:15.744,-0.07,-0.36
2021-08-19 23:13:15.748,-0.09,-0.36
2021-08-19 23:13:15.752,-0.07,-0.28
2021-08-19 23:13:15.756,-0.035,0.01
2021-08-19 23:13:15.760,-0.005,0.435
2021-08-19 23:13:15.764,0.07,0.95
2021-08-19 23:13:15.768,0.155,1.455
2021-08-19 23:13:15.772,0.255,1.905
,2.0,2.0
,2.0,2.0
2021-08-19 23:13:15.784,0.59,1.98
2021-08-19 23:13:15.788,0.62,1.33
2021-08-19 23:13:15.792,0.53,0.73
2021-08-19 23:13:15.796,0.35,0.39
2021-08-19 23:13:15.800,0.075,0.255
2021-08-19 23:13:15.804,-0.095,0.1
2021-08-19 23:13:15.808,-0.14,-0.03
2021-08-19 23:13:15.812,-0.125,-0.13
2021-08-19 23:13:15.816,-0.15,-0.2
2021-08-19 23:13:15.820,-0.13,-0.21
2021-08-19 23:13:15.824,-0.095,-0.25
2021-08-19 23:13:15.828,-0.095,-0.285
2021-08-19 23:13:15.832,-0.07,-0.315
2021-08-19 23:13:15.836,-0.075,-0.34
2021-08-19 23:13:15.840,-0.085,-0.345
2021-08-19 23:13:15.844,-0.085,-0.335
2021-08-19 23:13:15.848,-0.075,-0.335
2021-08-19 23:13:15.852,-0.075,-0.345
2021-08-19 23:13:15.856,-0.085,-0.345
2021-08-19 23:13:15.860,-0.085,-0.32
2021-08-19 23:13:15.864,-0.09,-0.36
2021-08-19 23:13:15.868,-0.075,-0.355
2021-08-19 23:13:15.872,-0.09,-0.35
2021-08-19 23:13:15.876,-0.08,-0.365
2021-08-19 23:13:15.880,-0.085,-0.37
2021-08-19 23:13:15.884,-0.07,-0.355
2021-08-19 23:13:15.888,-0.085,-0.35
2021-08-19 23:13:15.892,-0.065,-0.37
2021-08-19 23:13:15.896,-0.08,-0.355
2021-08-19 23:13:15.900,-0.065,-0.36
2021-08-19 23:13:15.904,-0.08,-0.37
2021-08-19 23:13:15.908,-0.075,-0.36
2021-08-19 23:13:15.912,-0.07,-0.38
2021-08-19 23:13:15.916,-0.07,-0.36
2021-08-19 23:13:15.920,-0.06,-0.35
2021-08-19 23:13:15.924,-0.065,-0.35
2021-08-19 23:13:15.928,-0.07,-0.365
2021-08-19 23:13:15.932,-0.08,-0.335
2021-08-19 23:13:15.936,-0.07,-0.335
2021-08-19 23:13:15.940,-0.065,-0.325
2021-08-19 23:13:15.944,-0.075,-0.31
2021-08-19 23:13:15.948,-0.08,-0.33
2021-08-19 23:13:15.952,-0.035,-0.33
2021-08-19 23:13:15.956,-0.03,-0.325
2021-08-19 23:13:15.960,-0.045,-0.32
2021-08-19 23:13:15.964,-0.05,-0.325
2021-08-19 23:13:15.968,-0.05,-0.33
2021-08-19 23:13:15.972,-0.06,-0.315
2021-08-19 23:13:15.976,-0.05,-0.31
2021-08-19 23:13:15.980,-0.035,-0.305
2021-08-19 23:13:15.984,-0.005,-0.29
2021-08-19 23:13:15.988,-0.025,-0.31
2021-08-19 23:13:15.992,-0.045,-0.305
2021-08-19 23:13:15.996,-0.02,-0.285
2021-08-19 23:13:16.000,-0.015,-0.28
2021-08-19 23:13:16.004,-0.025,-0.275
2021-08-19 23:13:16.008,-0.025,-0.255
2021-08-19 23:13:16.012,-0.005,-0.25
2021-08-19 23:13:16.016,0.0,-0.255
2021-08-19 23:13:16.020,0.0,-0.24
2021-08-19 23:13:16.024,0.0,-0.225
2021-08-19 23:13:16.028,0.015,-0.23
2021-08-19 23:13:16.032,0.02,-0.21
2021-08-19 23:13:16.036,0.015,-0.19
2021-08-19 23:13:16.040,0.025,-0.2
2021-08-19 23:13:16.044,0.035,-0.175
2021-08-19 23:13:16.048,0.03,-0.16
2021-08-19 23:13:16.052,0.055,-0.16
2021-08-19 23:13:16.056,0.04,-0.14
2021-08-19 23:13:16.060,0.045,-0.12
2021-08-19 23:13:16.064,0.045,-0.105
2021-08-19 23:13:16.068,0.055,-0.065
2021-08-19 23:13:16.072,0.055,-0.06
2021-08-19 23:13:16.076,0.055,-0.03
2021-08-19 23:13:16.080,0.06,-0.035
2021-08-19 23:13:16.084,0.065,-0.04
2021-08-19 23:13:16.088,0.06,-0.045
2021-08-19 23:13:16.092,0.06,-0.04
2021-08-19 23:13:16.096,0.04,-0.03
2021-08-19 23:13:16.100,0.045,-0.05
2021-08-19 23:13:16.104,0.035,-0.055
2021-08-19 23:13:16.108,0.025,-0.06
2021-08-19 23:13:16.112,0.005,-0.08
2021-08-19 23:13:16.116,0.015,-0.09
2021-08-19 23:13:16.120,-0.005,-0.11
2021-08-19 23:13:16.124,-0.03,-0.145
2021-08-19 23:13:16.128,-0.025,-0.16
2021-08-19 23:13:16.132,-0.035,-0.17
2021-08-19 23:13:16.136,-0.04,-0.17
2021-08-19 23:13:16.140,-0.035,-0.17
2021-08-19 23:13:16.144,-0.05,-0.185
2021-08-19 23:13:16.148,-0.065,-0.205
2021-08-19 23:13:16.152,-0.05,-0.225
2021-08-19 23:13:16.156,-0.065,-0.215
2021-08-19 23:13:16.160,-0.06,-0.225
2021-08-19 23:13:16.164,-0.07,-0.21
2021-08-19 23:13:16.168,-0.05,-0.215
2021-08-19 23:13:16.172,-0.085,-0.23
2021-08-19 23:13:16.176,-0.04,-0.225
2021-08-19 23:13:16.180,-0.075,-0.24
2021-08-19 23:13:16.184,-0.075,-0.24
2021-08-19 23:13:16.188,-0.095,-0.245
2021-08-19 23:13:16.192,-0.055,-0.24
2021-08-19 23:13:16.196,-0.075,-0.245
2021-08-19 23:13:16.200,-0.065,-0.26
2021-08-19 23:13:16.204,-0.075,-0.26
2021-08-19 23:13:16.208,-0.095,-0.255
2021-08-19 23:13:16.212,-0.095,-0.265
2021-08-19 23:13:16.216,-0.11,-0.275
2021-08-19 23:13:16.220,-0.11,-0.27
2021-08-19 23:13:16.224,-0.105,-0.285
2021-08-19 23:13:16.228,-0.105,-0.295
2021-08-19 23:13:16.232,-0.11,-0.28
2021-08-19 23:13:16.236,-0.095,-0.305
2021-08-19 23:13:16.240,-0.1,-0.29
2021-08-19 23:13:16.244,-0.115,-0.28
2021-08-19 23:13:16.248,-0.09,-0.265
2021-08-19 23:13:16.252,-0.105,-0.265
2021-08-19 23:13:16.256,-0.1,-0.28
2021-08-19 23:13:16.260,-0.115,-0.32
2021-08-19 23:13:16.264,-0.12,-0.31
2021-08-19 23:13:16.268,-0.095,-0.3
2021-08-19 23:13:16.272,-0.105,-0.32
2021-08-19 23:13:16.276,-0.1,-0.31
2021-08-19 23:13:16.280,-0.115,-0.32
2021-08-19 23:13:16.284,-0.105,-0.315
2021-08-19 23:13:16.288,-0.105,-0.32
2021-08-19 23:13:16.292,-0.095,-0.31
2021-08-19 23:13:16.296,-0.11,-0.32
2021-08-19 23:13:16.300,-0.12,-0.345
2021-08-19 23:13:16.304,-0.115,-0.34
2021-08-19 23:13:16.308,-0.125,-0.33
2021-08-19 23:13:16.312,-0.12,-0.34
2021-08-19 23:13:16.316,-0.135,-0.33
2021-08-19 23:13:16.320,-0.13,-0.33
2021-08-19 23:13:16.324,-0.13,-0.345
2021-08-19 23:13:16.328,-0.14,-0.33
2021-08-19 23:13:16.332,-0.125,-0.34
2021-08-19 23:13:16.336,-0.13,-0.325
2021-08-19 23:13:16.340,-0.135,-0.335
2021-08-19 23:13:16.344,-0.14,-0.335
2021-08-19 23:13:16.348,-0.135,-0.335
2021-08-19 23:13:16.352,-0.13,-0.31
2021-08-19 23:13:16.356,-0.12,-0.335
2021-08-19 23:13:16.360,-0.13,-0.34
2021-08-19 23:13:16.364,-0.145,-0.35
2021-08-19 23:13:16.368,-0.155,-0.34
2021-08-19 23:13:16.372,-0.14,-0.33
2021-08-19 23:13:16.376,-0.13,-0.335
2021-08-19 23:13:16.380,-0.145,-0.34
2021-08-19 23:13:16.384,-0.14,-0.365
2021-08-19 23:13:16.388,-0.125,-0.33
2021-08-19 23:13:16.392,-0.13,-0.325
2021-08-19 23:13:16.396,-0.14,-0.35
2021-08-19 23:13:16.400,-0.145,-0.345
2021-08-19 23:13:16.404,-0.15,-0.365
2021-08-19 23:13:16.408,-0.13,-0.335
2021-08-19 23:13:16.412,-0.155,-0.33
2021-08-19 23:13:16.416,-0.145,-0.325
2021-08-19 23:13:16.420,-0.13,-0.315
2021-08-19 23:13:16.424,-0.135,-0.325
2021-08-19 23:13:16.428,-0.135,-0.34
2021-08-19 23:13:16.432,-0.16,-0.345
2021-08-19 23:13:16.436,-0.13,-0.355
2021-08-19 23:13:16.440,-0.15,-0.36
2021-08-19 23:13:16.444,-0.145,-0.345
2021-08-19 23:13:16.448,-0.15,-0.35
2021-08-19 23:13:16.452,-0.16,-0.365
2021-08-19 23:13:16.456,-0.14,-0.365
2021-08-19 23:13:16.460,-0.13,-0.34
2021-08-19 23:13:16.464,-0.14,-0.335
2021-08-19 23:13:16.468,-0.14,-0.345
2021-08-19 23:13:16.472,-0.13,-0.365
2021-08-19 23:13:16.476,-0.14,-0.365
2021-08-19 23:13:16.480,-0.145,-0.355
2021-08-19 23:13:16.484,-0.13,-0.345
2021-08-19 23:13:16.488,-0.155,-0.335
2021-08-19 23:13:16.492,-0.13,-0.345
2021-08-19 23:13:16.496,-0.155,-0.345
2021-08-19 23:13:16.500,-0.155,-0.35
2021-08-19 23:13:16.504,-0.13,-0.335
2021-08-19 23:13:16.508,-0.16,-0.355
2021-08-19 23:13:16.512,-0.145,-0.37
2021-08-19 23:13:16.516,-0.145,-0.365
2021-08-19 23:13:16.520,-0.14,-0.35
2021-08-19 23:13:16.524,-0.14,-0.345
2021-08-19 23:13:16.528,-0.155,-0.36
2021-08-19 23:13:16.532,-0.145,-0.34
2021-08-19 23:13:16.536,-0.125,-0.335
2021-08-19 23:13:16.540,-0.14,-0.36
2021-08-19 23:13:16.544,-0.15,-0.345
2021-08-19 23:13:16.548,-0.145,-0.35
2021-08-19 23:13:16.552,-0.15,-0.33
2021-08-19 23:13:16.556,-0.155,-0.33
2021-08-19 23:13:16.560,-0.145,-0.335
2021-08-19 23:13:16.564,-0.14,-0.35
2021-08-19 23:13:16.568,-0.155,-0.36
2021-08-19 23:13:16.572,-0.175,-0.365
2021-08-19 23:13:16.576,-0.16,-0.36
2021-08-19 23:13:16.580,-0.155,-0.36
2021-08-19 23:13:16.584,-0.18,-0.335
2021-08-19 23:13:16.588,-0.155,-0.34
2021-08-19 23:13:16.592,-0.16,-0.34
2021-08-19 23:13:16.596,-0.155,-0.345
2021-08-19 23:13:16.600,-0.14,-0.35
2021-08-19 23:13:16.604,-0.165,-0.345
2021-08-19 23:13:16.608,-0.15,-0.35
2021-08-19 23:13:16.612,-0.165,-0.345
2021-08-19 23:13:16.616,-0.17,-0.34
2021-08-19 23:13:16.620,-0.14,-0.35
2021-08-19 23:13:16.624,-0.145,-0.345
2021-08-19 23:13:16.628,-0.145,-0.34
2021-08-19 23:13:16.632,-0.155,-0.34
2021-08-19 23:13:16.636,-0.15,-0.33
2021-08-19 23:13:16.640,-0.14,-0.36
2021-08-19 23:13:16.644,-0.17,-0.355
2021-08-19 23:13:16.648,-0.16,-0.34
2021-08-19 23:13:16.652,-0.18,-0.365
2021-08-19 23:13:16.656,-0.14,-0.34
2021-08-19 23:13:16.660,-0.155,-0.34
2021-08-19 23:13:16.664,-0.14,-0.345
2021-08-19 23:13:16.668,-0.135,-0.345
2021-08-19 23:13:16.672,-0.14,-0.345
2021-08-19 23:13:16.676,-0.16,-0.345
2021-08-19 23:13:16.680,-0.14,-0.315
2021-08-19 23:13:16.684,-0.155,-0.315
2021-08-19 23:13:16.688,-0.125,-0.32
2021-08-19 23:13:16.692,-0.16,-0.33
2021-08-19 23:13:16.696,-0.155,-0.34
2021-08-19 23:13:16.700,-0.155,-0.335
2021-08-19 23:13:16.704,-0.15,-0.32
2021-08-19 23:13:16.708,-0.145,-0.34
2021-08-19 23:13:16.712,-0.15,-0.335
2021-08-19 23:13:16.716,-0.125,-0.33
2021-08-19 23:13:16.720,-0.13,-0.32
2021-08-19 23:13:16.724,-0.145,-0.31
2021-08-19 23:13:16.728,-0.15,-0.29
2021-08-19 23:13:16.732,-0.1,-0.27
2021-08-19 23:13:16.736,-0.115,-0.285
2021-08-19 23:13:16.740,-0.115,-0.285
2021-08-19 23:13:16.744,-0.095,-0.255
2021-08-19 23:13:16.748,-0.09,-0.24
2021-08-19 23:13:16.752,-0.065,-0.225
2021-08-19 23:13:16.756,-0.06,-0.22
2021-08-19 23:13:16.760,-0.09,-0.215
2021-08-19 23:13:16.764,-0.095,-0.215
2021-08-19 23:13:16.768,-0.105,-0.205
2021-08-19 23:13:16.772,-0.095,-0.225
2021-08-19 23:13:16.776,-0.11,-0.24
2021-08-19 23:13:16.780,-0.145,-0.25
2021-08-19 23:13:16.784,-0.135,-0.24
2021-08-19 23:13:16.788,-0.16,-0.24
2021-08-19 23:13:16.792,-0.14,-0.25
2021-08-19 23:13:16.796,-0.135,-0.24
2021-08-19 23:13:16.800,-0.135,-0.26
2021-08-19 23:13:16.804,-0.155,-0.27
2021-08-19 23:13:16.808,-0.135,-0.27
2021-08-19 23:13:16.812,-0.14,-0.305
2021-08-19 23:13:16.816,-0.13,-0.32
2021-08-19 23:13:16.820,-0.125,-0.32
2021-08-19 23:13:16.824,-0.125,-0.315
2021-08-19 23:13:16.828,-0.145,-0.34
2021-08-19 23:13:16.832,-0.155,-0.365
2021-08-19 23:13:16.836,-0.125,-0.36
2021-08-19 23:13:16.840,-0.145,-0.365
2021-08-19 23:13:16.844,-0.145,-0.355
2021-08-19 23:13:16.848,-0.12,-0.36
2021-08-19 23:13:16.852,-0.135,-0.355
2021-08-19 23:13:16.856,-0.14,-0.33
2021-08-19 23:13:16.860,-0.145,-0.33
2021-08-19 23:13:16.864,-0.15,-0.365
2021-08-19 23:13:16.868,-0.135,-0.345
2021-08-19 23:13:16.872,-0.13,-0.32
2021-08-19 23:13:16.876,-0.13,-0.36
2021-08-19 23:13:16.880,-0.135,-0.4
2021-08-19 23:13:16.884,-0.125,-0.475
2021-08-19 23:13:16.888,-0.125,-0.57
2021-08-19 23:13:16.892,-0.1,-0.6
2021-08-19 23:13:16.896,-0.095,-0.43
2021-08-19 23:13:16.900,-0.09,-0.08
2021-08-19 23:13:16.904,-0.06,0.405
2021-08-19 23:13:16.908,0.01,0.98
2021-08-19 23:13:16.912,0.13,1.605
,2.0,2.0
,2.0,2.0
,2.0,2.0
,2.0,2.0
2021-08-19 23:13:16.932,0.275,1.425
2021-08-19 23:13:16.936,0.175,0.86
2021-08-19 23:13:16.940,0.03,0.415
2021-08-19 23:13:16.944,-0.115,0.14
2021-08-19 23:13:16.948,-0.215,0.035
2021-08-19 23:13:16.952,-0.255,-0.055
2021-08-19 23:13:16.956,-0.19,-0.155
2021-08-19 23:13:16.960,-0.175,-0.225
2021-08-19 23:13:16.964,-0.135,-0.275
2021-08-19 23:13:16.968,-0.12,-0.335
2021-08-19 23:13:16.972,-0.095,-0.355
2021-08-19 23:13:16.976,-0.115,-0.37
2021-08-19 23:13:16.980,-0.115,-0.4
2021-08-19 23:13:16.984,-0.13,-0.385
2021-08-19 23:13:16.988,-0.115,-0.41
2021-08-19 23:13:16.992,-0.135,-0.445
2021-08-19 23:13:16.996,-0.125,-0.47
2021-08-19 23:13:17.000,-0.125,-0.46
2021-08-19 23:13:17.004,-0.13,-0.465
2021-08-19 23:13:17.008,-0.13,-0.455
2021-08-19 23:13:17.012,-0.115,-0.48
2021-08-19 23:13:17.016,-0.12,-0.465
2021-08-19 23:13:17.020,-0.135,-0.475
2021-08-19 23:13:17.024,-0.12,-0.485
2021-08-19 23:13:17.028,-0.115,-0.475
2021-08-19 23:13:17.032,-0.105,-0.47
2021-08-19 23:13:17.036,-0.11,-0.48
2021-08-19 23:13:17.040,-0.12,-0.48
2021-08-19 23:13:17.044,-0.125,-0.48
2021-08-19 23:13:17.048,-0.11,-0.475
2021-08-19 23:13:17.052,-0.12,-0.505
2021-08-19 23:13:17.056,-0.115,-0.48
2021-08-19 23:13:17.060,-0.105,-0.485
2021-08-19 23:13:17.064,-0.1,-0.48
2021-08-19 23:13:17.068,-0.095,-0.47
2021-08-19 23:13:17.072,-0.11,-0.475
2021-08-19 23:13:17.076,-0.08,-0.48
2021-08-19 23:13:17.080,-0.095,-0.475
2021-08-19 23:13:17.084,-0.09,-0.475
2021-08-19 23:13:17.088,-0.08,-0.475
2021-08-19 23:13:17.092,-0.065,-0.475
2021-08-19 23:13:17.096,-0.06,-0.475
2021-08-19 23:13:17.100,-0.07,-0.47
2021-08-19 23:13:17.104,-0.06,-0.46
2021-08-19 23:13:17.108,-0.065,-0.46
2021-08-19 23:13:17.112,-0.045,-0.455
2021-08-19 23:13:17.116,-0.055,-0.445
2021-08-19 23:13:17.120,-0.06,-0.455
2021-08-19 23:13:17.124,-0.055,-0.46
2021-08-19 23:13:17.128,-0.05,-0.455
2021-08-19 23:13:17.132,-0.02,-0.45
2021-08-19 23:13:17.136,-0.035,-0.43
2021-08-19 23:13:17.140,-0.04,-0.445
2021-08-19 23:13:17.144,-0.03,-0.44
2021-08-19 23:13:17.148,-0.035,-0.445
2021-08-19 23:13:17.152,-0.025,-0.435
2021-08-19 23:13:17.156,-0.01,-0.435
2021-08-19 23:13:17.160,0.01,-0.435
2021-08-19 23:13:17.164,0.0,-0.435
2021-08-19 23:13:17.168,0.015,-0.45
2021-08-19 23:13:17.172,0.045,-0.435
2021-08-19 23:13:17.176,0.03,-0.43
2021-08-19 23:13:17.180,0.02,-0.435
2021-08-19 23:13:17.184,0.015,-0.44
2021-08-19 23:13:17.188,0.045,-0.425
2021-08-19 23:13:17.192,0.035,-0.45
2021-08-19 23:13:17.196,0.075,-0.455
2021-08-19 23:13:17.200,0.045,-0.465
2021-08-19 23:13:17.204,0.05,-0.48
2021-08-19 23:13:17.208,0.05,-0.505
2021-08-19 23:13:17.212,0.05,-0.51
2021-08-19 23:13:17.216,0.04,-0.505
2021-08-19 23:13:17.220,0.05,-0.525
2021-08-19 23:13:17.224,0.03,-0.515
2021-08-19 23:13:17.228,0.035,-0.515
2021-08-19 23:13:17.232,0.05,-0.48
2021-08-19 23:13:17.236,0.03,-0.455
2021-08-19 23:13:17.240,0.06,-0.44
2021-08-19 23:13:17.244,0.035,-0.44
2021-08-19 23:13:17.248,0.045,-0.44
2021-08-19 23:13:17.252,0.04,-0.455
2021-08-19 23:13:17.256,0.0,-0.465
2021-08-19 23:13:17.260,-0.01,-0.475
2021-08-19 23:13:17.264,-0.01,-0.44
2021-08-19 23:13:17.268,-0.05,-0.45
2021-08-19 23:13:17.272,-0.09,-0.43
2021-08-19 23:13:17.276,-0.1,-0.415
2021-08-19 23:13:17.280,-0.11,-0.385
2021-08-19 23:13:17.284,-0.09,-0.405
2021-08-19 23:13:17.288,-0.12,-0.37
2021-08-19 23:13:17.292,-0.125,-0.355
2021-08-19 23:13:17.296,-0.14,-0.365
2021-08-19 23:13:17.300,-0.13,-0.355
2021-08-19 23:13:17.304,-0.1,-0.34
2021-08-19 23:13:17.308,-0.125,-0.35
2021-08-19 23:13:17.312,-0.145,-0.305
2021-08-19 23:13:17.316,-0.125,-0.315
2021-08-19 23:13:17.320,-0.115,-0.315
2021-08-19 23:13:17.324,-0.14,-0.305
2021-08-19 23:13:17.328,-0.125,-0.31
2021-08-19 23:13:17.332,-0.1,-0.29
2021-08-19 23:13:17.336,-0.125,-0.295
2021-08-19 23:13:17.340,-0.125,-0.285
2021-08-19 23:13:17.344,-0.135,-0.29
2021-08-19 23:13:17.348,-0.13,-0.275
2021-08-19 23:13:17.352,-0.12,-0.295
2021-08-19 23:13:17.356,-0.115,-0.285
2021-08-19 23:13:17.360,-0.11,-0.27
2021-08-19 23:13:17.364,-0.105,-0.25
2021-08-19 23:13:17.368,-0.115,-0.255
2021-08-19 23:13:17.372,-0.095,-0.26
2021-08-19 23:13:17.376,-0.105,-0.285
2021-08-19 23:13:17.380,-0.085,-0.265
2021-08-19 23:13:17.384,-0.07,-0.16
2021-08-19 23:13:17.388,-0.045,0.075
2021-08-19 23:13:17.392,-0.005,0.475
2021-08-19 23:13:17.396,0.055,0.965
2021-08-19 23:13:17.400,0.14,1.43
2021-08-19 23:13:17.404,0.225,1.86
,2.0,2.0
,2.0,2.0
2021-08-19 23:13:17.416,0.515,1.82
2021-08-19 23:13:17.420,0.57,1.24
2021-08-19 23:13:17.424,0.59,0.665
2021-08-19 23:13:17.428,0.485,0.255
2021-08-19 23:13:17.432,0.3,0.12
2021-08-19 23:13:17.436,0.155,0.0
2021-08-19 23:13:17.440,0.04,-0.13
2021-08-19 23:13:17.444,0.04,-0.23
2021-08-19 23:13:17.448,-0.01,-0.285
2021-08-19 23:13:17.452,-0.09,-0.27
2021-08-19 23:13:17.456,-0.145,-0.24
2021-08-19 23:13:17.460,-0.14,-0.25
2021-08-19 23:13:17.464,-0.145,-0.265
2021-08-19 23:13:17.468,-0.14,-0.285
2021-08-19 23:13:17.472,-0.12,-0.295
2021-08-19 23:13:17.476,-0.12,-0.285
2021-08-19 23:13:17.480,-0.145,-0.29
2021-08-19 23:13:17.484,-0.12,-0.285
2021-08-19 23:13:17.488,-0.16,-0.295
2021-08-19 23:13:17.492,-0.145,-0.28
2021-08-19 23:13:17.496,-0.135,-0.28
2021-08-19 23:13:17.500,-0.15,-0.29
2021-08-19 23:13:17.504,-0.14,-0.3
2021-08-19 23:13:17.508,-0.14,-0.26
2021-08-19 23:13:17.512,-0.12,-0.29
2021-08-19 23:13:17.516,-0.125,-0.275
2021-08-19 23:13:17.520,-0.125,-0.28
2021-08-19 23:13:17.524,-0.115,-0.28
2021-08-19 23:13:17.528,-0.125,-0.295
2021-08-19 23:13:17.532,-0.125,-0.32
2021-08-19 23:13:17.536,-0.14,-0.355
2021-08-19 23:13:17.540,-0.14,-0.35
2021-08-19 23:13:17.544,-0.125,-0.325
2021-08-19 23:13:17.548,-0.09,-0.3
2021-08-19 23:13:17.552,-0.115,-0.265
2021-08-19 23:13:17.556,-0.085,-0.25
2021-08-19 23:13:17.560,-0.085,-0.245
2021-08-19 23:13:17.564,-0.09,-0.23
2021-08-19 23:13:17.568,-0.08,-0.26
2021-08-19 23:13:17.572,-0.105,-0.28
2021-08-19 23:13:17.576,-0.09,-0.285
2021-08-19 23:13:17.580,-0.14,-0.295
2021-08-19 23:13:17.584,-0.125,-0.29
2021-08-19 23:13:17.588,-0.145,-0.31
2021-08-19 23:13:17.592,-0.135,-0.3
2021-08-19 23:13:17.596,-0.145,-0.29
2021-08-19 23:13:17.600,-0.15,-0.305
2021-08-19 23:13:17.604,-0.13,-0.29
2021-08-19 23:13:17.608,-0.13,-0.275
2021-08-19 23:13:17.612,-0.125,-0.285
2021-08-19 23:13:17.616,-0.12,-0.27
2021-08-19 23:13:17.620,-0.13,-0.245
2021-08-19 23:13:17.624,-0.11,-0.25
2021-08-19 23:13:17.628,-0.1,-0.215
2021-08-19 23:13:17.632,-0.105,-0.22
2021-08-19 23:13:17.636,-0.095,-0.195
2021-08-19 23:13:17.640,-0.1,-0.18
2021-08-19 23:13:17.644,-0.085,-0.165
2021-08-19 23:13:17.648,-0.08,-0.155
2021-08-19 23:13:17.652,-0.065,-0.135
2021-08-19 23:13:17.656,-0.07,-0.13
2021-08-19 23:13:17.660,-0.075,-0.12
2021-08-19 23:13:17.664,-0.04,-0.1
2021-08-19 23:13:17.668,-0.045,-0.07
2021-08-19 23:13:17.672,-0.045,-0.07
2021-08-19 23:13:17.676,-0.035,-0.07
2021-08-19 23:13:17.680,-0.035,-0.045
2021-08-19 23:13:17.684,-0.02,-0.035
2021-08-19 23:13:17.688,-0.005,-0.035
2021-08-19 23:13:17.692,-0.015,0.005
2021-08-19 23:13:17.696,-0.03,0.015
2021-08-19 23:13:17.700,-0.02,0.02
2021-08-19 23:13:17.704,-0.015,0.025
2021-08-19 23:13:17.708,-0.005,0.025
2021-08-19 23:13:17.712,0.01,0.015
2021-08-19 23:13:17.716,0.02,0.01
2021-08-19 23:13:17.720,0.0,0.015
2021-08-19 23:13:17.724,-0.01,0.0
2021-08-19 23:13:17.728,-0.005,-0.03
2021-08-19 23:13:17.732,-0.02,-0.05
2021-08-19 23:13:17.736,-0.01,-0.06
2021-08-19 23:13:17.740,-0.03,-0.09
2021-08-19 23:13:17.744,-0.045,-0.1
2021-08-19 23:13:17.748,-0.04,-0.11
2021-08-19 23:13:17.752,-0.035,-0.145
2021-08-19 23:13:17.756,-0.055,-0.16
2021-08-19 23:13:17.760,-0.075,-0.175
2021-08-19 23:13:17.764,-0.055,-0.185
2021-08-19 23:13:17.768,-0.075,-0.205
2021-08-19 23:13:17.772,-0.095,-0.225
2021-08-19 23:13:17.776,-0.08,-0.25
2021-08-19 23:13:17.780,-0.08,-0.225
2021-08-19 23:13:17.784,-0.105,-0.25
2021-08-19 23:13:17.788,-0.095,-0.24
2021-08-19 23:13:17.792,-0.08,-0.235
2021-08-19 23:13:17.796,-0.105,-0.24
2021-08-19 23:13:17.800,-0.1,-0.24
2021-08-19 23:13:17.804,-0.1,-0.23
2021-08-19 23:13:17.808,-0.09,-0.24
2021-08-19 23:13:17.812,-0.11,-0.25
2021-08-19 23:13:17.816,-0.115,-0.265
2021-08-19 23:13:17.820,-0.095,-0.235
2021-08-19 23:13:17.824,-0.125,-0.265
2021-08-19 23:13:17.828,-0.105,-0.25
2021-08-19 23:13:17.832,-0.09,-0.25
2021-08-19 23:13:17.836,-0.125,-0.25
2021-08-19 23:13:17.840,-0.125,-0.24
2021-08-19 23:13:17.844,-0.11,-0.255
2021-08-19 23:13:17.848,-0.105,-0.27
2021-08-19 23:13:17.852,-0.115,-0.255
2021-08-19 23:13:17.856,-0.11,-0.26
2021-08-19 23:13:17.860,-0.125,-0.255
2021-08-19 23:13:17.864,-0.12,-0.245
2021-08-19 23:13:17.868,-0.11,-0.245
2021-08-19 23:13:17.872,-0.115,-0.255
2021-08-19 23:13:17.876,-0.135,-0.265
2021-08-19 23:13:17.880,-0.135,-0.265
2021-08-19 23:13:17.884,-0.11,-0.25
2021-08-19 23:13:17.888,-0.12,-0.26
2021-08-19 23:13:17.892,-0.11,-0.27
2021-08-19 23:13:17.896,-0.115,-0.28
2021-08-19 23:13:17.900,-0.11,-0.26
2021-08-19 23:13:17.904,-0.115,-0.27
2021-08-19 23:13:17.908,-0.11,-0.25
2021-08-19 23:13:17.912,-0.13,-0.26
2021-08-19 23:13:17.916,-0.13,-0.265
2021-08-19 23:13:17.920,-0.145,-0.265
2021-08-19 23:13:17.924,-0.14,-0.25
2021-08-19 23:13:17.928,-0.11,-0.25
2021-08-19 23:13:17.932,-0.105,-0.25
2021-08-19 23:13:17.936,-0.125,-0.235
2021-08-19 23:13:17.940,-0.095,-0.22
2021-08-19 23:13:17.944,-0.11,-0.21
2021-08-19 23:13:17.948,-0.115,-0.2
2021-08-19 23:13:17.952,-0.115,-0.195
2021-08-19 23:13:17.956,-0.085,-0.205
2021-08-19 23:13:17.960,-0.09,-0.2
2021-08-19 23:13:17.964,-0.09,-0.21
2021-08-19 23:13:17.968,-0.09,-0.225
2021-08-19 23:13:17.972,-0.085,-0.215
2021-08-19 23:13:17.976,-0.085,-0.21
2021-08-19 23:13:17.980,-0.09,-0.2
2021-08-19 23:13:17.984,-0.1,-0.18
2021-08-19 23:13:17.988,-0.095,-0.175
2021-08-19 23:13:17.992,-0.115,-0.195
2021-08-19 23:13:17.996,-0.135,-0.215
2021-08-19 23:13:18.000,-0.145,-0.24
2021-08-19 23:13:18.004,-0.15,-0.22
2021-08-19 23:13:18.008,-0.13,-0.25
2021-08-19 23:13:18.012,-0.125,-0.275
2021-08-19 23:13:18.016,-0.145,-0.305
2021-08-19 23:13:18.020,-0.15,-0.305
2021-08-19 23:13:18.024,-0.13,-0.3
2021-08-19 23:13:18.028,-0.135,-0.3
2021-08-19 23:13:18.032,-0.145,-0.305
2021-08-19 23:13:18.036,-0.17,-0.32
2021-08-19 23:13:18.040,-0.14,-0.32
2021-08-19 23:13:18.044,-0.15,-0.305
2021-08-19 23:13:18.048,-0.16,-0.32
2021-08-19 23:13:18.052,-0.17,-0.31
2021-08-19 23:13:18.056,-0.16,-0.305
2021-08-19 23:13:18.060,-0.165,-0.3
2021-08-19 23:13:18.064,-0.17,-0.31
2021-08-19 23:13:18.068,-0.185,-0.295
2021-08-19 23:13:18.072,-0.18,-0.28
2021-08-19 23:13:18.076,-0.17,-0.285
2021-08-19 23:13:18.080,-0.17,-0.3
2021-08-19 23:13:18.084,-0.155,-0.285
2021-08-19 23:13:18.088,-0.15,-0.3
2021-08-19 23:13:18.092,-0.16,-0.315
2021-08-19 23:13:18.096,-0.135,-0.355
2021-08-19 23:13:18.100,-0.14,-0.485
2021-08-19 23:13:18.104,-0.15,-0.575
2021-08-19 23:13:18.108,-0.145,-0.57
2021-08-19 23:13:18.112,-0.16,-0.375
2021-08-19 23:13:18.116,-0.125,0.035
2021-08-19 23:13:18.120,-0.1,0.535
2021-08-19 23:13:18.124,0.005,1.175
2021-08-19 23:13:18.128,0.115,1.855
,2.0,2.0
,2.0,2.0
,2.0,2.0
,2.0,2.0
2021-08-19 23:13:18.148,0.31,1.41
2021-08-19 23:13:18.152,0.155,0.895
2021-08-19 23:13:18.156,-0.06,0.47
2021-08-19 23:13:18.160,-0.2,0.22
2021-08-19 23:13:18.164,-0.265,0.055
2021-08-19 23:13:18.168,-0.275,-0.045
2021-08-19 23:13:18.172,-0.235,-0.11
2021-08-19 23:13:18.176,-0.17,-0.165
2021-08-19 23:13:18.180,-0.15,-0.2
2021-08-19 23:13:18.184,-0.135,-0.265
2021-08-19 23:13:18.188,-0.12,-0.285
2021-08-19 23:13:18.192,-0.11,-0.33
2021-08-19 23:13:18.196,-0.145,-0.35
2021-08-19 23:13:18.200,-0.13,-0.355
2021-08-19 23:13:18.204,-0.135,-0.385
2021-08-19 23:13:18.208,-0.145,-0.385
2021-08-19 23:13:18.212,-0.15,-0.39
2021-08-19 23:13:18.216,-0.135,-0.395
2021-08-19 23:13:18.220,-0.135,-0.395
2021-08-19 23:13:18.224,-0.125,-0.415
2021-08-19 23:13:18.228,-0.135,-0.4
2021-08-19 23:13:18.232,-0.135,-0.415
2021-08-19 23:13:18.236,-0.12,-0.415
2021-08-19 23:13:18.240,-0.125,-0.405
2021-08-19 23:13:18.244,-0.13,-0.41
2021-08-19 23:13:18.248,-0.11,-0.4
2021-08-19 23:13:18.252,-0.13,-0.4
2021-08-19 23:13:18.256,-0.13,-0.415
2021-08-19 23:13:18.260,-0.13,-0.405
2021-08-19 23:13:18.264,-0.115,-0.395
2021-08-19 23:13:18.268,-0.095,-0.4
2021-08-19 23:13:18.272,-0.085,-0.415
2021-08-19 23:13:18.276,-0.1,-0.415
2021-08-19 23:13:18.280,-0.125,-0.405
2021-08-19 23:13:18.284,-0.095,-0.405
2021-08-19 23:13:18.288,-0.1,-0.4
2021-08-19 23:13:18.292,-0.105,-0.4
2021-08-19 23:13:18.296,-0.09,-0.425
2021-08-19 23:13:18.300,-0.11,-0.4
2021-08-19 23:13:18.304,-0.11,-0.4
2021-08-19 23:13:18.308,-0.1,-0.425
2021-08-19 23:13:18.312,-0.105,-0.415
2021-08-19 23:13:18.316,-0.09,-0.405
2021-08-19 23:13:18.320,-0.075,-0.41
2021-08-19 23:13:18.324,-0.065,-0.415
2021-08-19 23:13:18.328,-0.055,-0.4
2021-08-19 23:13:18.332,-0.055,-0.405
2021-08-19 23:13:18.336,-0.06,-0.41
2021-08-19 23:13:18.340,-0.07,-0.395
2021-08-19 23:13:18.344,-0.05,-0.39
2021-08-19 23:13:18.348,-0.07,-0.405
2021-08-19 23:13:18.352,-0.06,-0.4
2021-08-19 23:13:18.356,-0.04,-0.395
2021-08-19 23:13:18.360,-0.025,-0.4
2021-08-19 23:13:18.364,-0.025,-0.385
2021-08-19 23:13:18.368,-0.015,-0.395
2021-08-19 23:13:18.372,-0.02,-0.4
2021-08-19 23:13:18.376,-0.025,-0.405
2021-08-19 23:13:18.380,0.0,-0.42
2021-08-19 23:13:18.384,0.0,-0.405
2021-08-19 23:13:18.388,-0.005,-0.41
2021-08-19 23:13:18.392,0.005,-0.415
2021-08-19 23:13:18.396,0.005,-0.43
2021-08-19 23:13:18.400,0.005,-0.425
2021-08-19 23:13:18.404,0.015,-0.43
2021-08-19 23:13:18.408,0.01,-0.43
2021-08-19 23:13:18.412,0.01,-0.435
2021-08-19 23:13:18.416,0.015,-0.435
2021-08-19 23:13:18.420,0.01,-0.435
2021-08-19 23:13:18.424,0.015,-0.435
2021-08-19 23:13:18.428,0.01,-0.43
2021-08-19 23:13:18.432,0.005,-0.43
2021-08-19 23:13:18.436,0.0,-0.425
2021-08-19 23:13:18.440,-0.015,-0.4
2021-08-19 23:13:18.444,-0.015,-0.42
2021-08-19 23:13:18.448,-0.035,-0.39
2021-08-19 23:13:18.452,-0.055,-0.395
2021-08-19 23:13:18.456,-0.04,-0.375
2021-08-19 23:13:18.460,-0.045,-0.345
2021-08-19 23:13:18.464,-0.045,-0.335
2021-08-19 23:13:18.468,-0.06,-0.315
2021-08-19 23:13:18.472,-0.065,-0.315
2021-08-19 23:13:18.476,-0.08,-0.285
2021-08-19 23:13:18.480,-0.1,-0.255
2021-08-19 23:13:18.484,-0.12,-0.26
2021-08-19 23:13:18.488,-0.085,-0.245
2021-08-19 23:13:18.492,-0.095,-0.235
2021-08-19 23:13:18.496,-0.11,-0.22
2021-08-19 23:13:18.500,-0.105,-0.235
2021-08-19 23:13:18.504,-0.125,-0.24
2021-08-19 23:13:18.508,-0.135,-0.22
2021-08-19 23:13:18.512,-0.13,-0.245
2021-08-19 23:13:18.516,-0.13,-0.215
2021-08-19 23:13:18.520,-0.14,-0.22
2021-08-19 23:13:18.524,-0.145,-0.22
2021-08-19 23:13:18.528,-0.135,-0.23
2021-08-19 23:13:18.532,-0.15,-0.245
2021-08-19 23:13:18.536,-0.145,-0.24
2021-08-19 23:13:18.540,-0.125,-0.24
2021-08-19 23:13:18.544,-0.12,-0.245
2021-08-19 23:13:18.548,-0.135,-0.25
2021-08-19 23:13:18.552,-0.13,-0.25
2021-08-19 23:13:18.556,-0.13,-0.255
2021-08-19 23:13:18.560,-0.115,-0.255
2021-08-19 23:13:18.564,-0.135,-0.235
2021-08-19 23:13:18.568,-0.145,-0.245
2021-08-19 23:13:18.572,-0.15,-0.245
2021-08-19 23:13:18.576,-0.115,-0.25
2021-08-19 23:13:18.580,-0.145,-0.255
2021-08-19 23:13:18.584,-0.13,-0.27
2021-08-19 23:13:18.588,-0.13,-0.255
2021-08-19 23:13:18.592,-0.145,-0.25
2021-08-19 23:13:18.596,-0.135,-0.265
2021-08-19 23:13:18.600,-0.14,-0.28
2021-08-19 23:13:18.604,-0.16,-0.27
2021-08-19 23:13:18.608,-0.145,-0.27
2021-08-19 23:13:18.612,-0.145,-0.285
2021-08-19 23:13:18.616,-0.14,-0.28
2021-08-19 23:13:18.620,-0.145,-0.265
2021-08-19 23:13:18.624,-0.14,-0.27
2021-08-19 23:13:18.628,-0.13,-0.26
2021-08-19 23:13:18.632,-0.145,-0.26
2021-08-19 23:13:18.636,-0.155,-0.275
2021-08-19 23:13:18.640,-0.135,-0.26
2021-08-19 23:13:18.644,-0.155,-0.24
2021-08-19 23:13:18.648,-0.16,-0.275
2021-08-19 23:13:18.652,-0.15,-0.265
2021-08-19 23:13:18.656,-0.16,-0.26
2021-08-19 23:13:18.660,-0.18,-0.27
2021-08-19 23:13:18.664,-0.15,-0.28
2021-08-19 23:13:18.668,-0.17,-0.275
2021-08-19 23:13:18.672,-0.16,-0.285
2021-08-19 23:13:18.676,-0.155,-0.28
2021-08-19 23:13:18.680,-0.15,-0.27
2021-08-19 23:13:18.684,-0.175,-0.26
2021-08-19 23:13:18.688,-0.16,-0.29
2021-08-19 23:13:18.692,-0.17,-0.28
2021-08-19 23:13:18.696,-0.18,-0.265
2021-08-19 23:13:18.700,-0.18,-0.255
2021-08-19 23:13:18.704,-0.165,-0.265
2021-08-19 23:13:18.708,-0.175,-0.265
2021-08-19 23:13:18.712,-0.175,-0.27
2021-08-19 23:13:18.716,-0.165,-0.275
2021-08-19 23:13:18.720,-0.175,-0.28
2021-08-19 23:13:18.724,-0.17,-0.3
2021-08-19 23:13:18.728,-0.18,-0.265
2021-08-19 23:13:18.732,-0.175,-0.28
2021-08-19 23:13:18.736,-0.17,-0.28
2021-08-19 23:13:18.740,-0.16,-0.275
2021-08-19 23:13:18.744,-0.195,-0.27
2021-08-19 23:13:18.748,-0.18,-0.28
2021-08-19 23:13:18.752,-0.18,-0.28
2021-08-19 23:13:18.756,-0.17,-0.305
2021-08-19 23:13:18.760,-0.175,-0.28
2021-08-19 23:13:18.764,-0.16,-0.28
2021-08-19 23:13:18.768,-0.16,-0.285
2021-08-19 23:13:18.772,-0.17,-0.26
2021-08-19 23:13:18.776,-0.165,-0.305
2021-08-19 23:13:18.780,-0.18,-0.28
2021-08-19 23:13:18.784,-0.18,-0.285
2021-08-19 23:13:18.788,-0.195,-0.265
2021-08-19 23:13:18.792,-0.18,-0.285
2021-08-19 23:13:18.796,-0.185,-0.275
2021-08-19 23:13:18.800,-0.18,-0.295
2021-08-19 23:13:18.804,-0.14,-0.275
2021-08-19 23:13:18.808,-0.165,-0.29
2021-08-19 23:13:18.812,-0.175,-0.265
2021-08-19 23:13:18.816,-0.175,-0.28
2021-08-19 23:13:18.820,-0.16,-0.285
2021-08-19 23:13:18.824,-0.18,-0.285
2021-08-19 23:13:18.828,-0.175,-0.265
2021-08-19 23:13:18.832,-0.18,-0.27
2021-08-19 23:13:18.836,-0.145,-0.27
2021-08-19 23:13:18.840,-0.145,-0.275
2021-08-19 23:13:18.844,-0.15,-0.255
2021-08-19 23:13:18.848,-0.135,-0.26
2021-08-19 23:13:18.852,-0.17,-0.26
2021-08-19 23:13:18.856,-0.145,-0.27
2021-08-19 23:13:18.860,-0.165,-0.27
2021-08-19 23:13:18.864,-0.16,-0.265
2021-08-19 23:13:18.868,-0.17,-0.25
2021-08-19 23:13:18.872,-0.175,-0.26
2021-08-19 23:13:18.876,-0.16,-0.265
2021-08-19 23:13:18.880,-0.165,-0.275
2021-08-19 23:13:18.884,-0.17,-0.245
2021-08-19 23:13:18.888,-0.16,-0.255
2021-08-19 23:13:18.892,-0.16,-0.25
2021-08-19 23:13:18.896,-0.175,-0.245
2021-08-19 23:13:18.900,-0.175,-0.25
2021-08-19 23:13:18.904,-0.145,-0.265
2021-08-19 23:13:18.908,-0.15,-0.27
2021-08-19 23:13:18.912,-0.13,-0.245
2021-08-19 23:13:18.916,-0.13,-0.265
2021-08-19 23:13:18.920,-0.155,-0.27
2021-08-19 23:13:18.924,-0.155,-0.25
2021-08-19 23:13:18.928,-0.155,-0.245
2021-08-19 23:13:18.932,-0.165,-0.24
2021-08-19 23:13:18.936,-0.16,-0.23
2021-08-19 23:13:18.940,-0.15,-0.255
2021-08-19 23:13:18.944,-0.16,-0.255
2021-08-19 23:13:18.948,-0.175,-0.24
2021-08-19 23:13:18.952,-0.15,-0.25
2021-08-19 23:13:18.956,-0.14,-0.24
2021-08-19 23:13:18.960,-0.135,-0.26
2021-08-19 23:13:18.964,-0.14,-0.255
2021-08-19 23:13:18.968,-0.17,-0.245
2021-08-19 23:13:18.972,-0.165,-0.245
2021-08-19 23:13:18.976,-0.16,-0.25
2021-08-19 23:13:18.980,-0.155,-0.255
2021-08-19 23:13:18.984,-0.15,-0.275
2021-08-19 23:13:18.988,-0.125,-0.24
2021-08-19 23:13:18.992,-0.155,-0.255
2021-08-19 23:13:18.996,-0.16,-0.245
2021-08-19 23:13:19.000,-0.155,-0.245
2021-08-19 23:13:19.004,-0.17,-0.245
2021-08-19 23:13:19.008,-0.18,-0.245
2021-08-19 23:13:19.012,-0.145,-0.24
2021-08-19 23:13:19.016,-0.16,-0.25
2021-08-19 23:13:19.020,-0.155,-0.22
2021-08-19 23:13:19.024,-0.16,-0.245
2021-08-19 23:13:19.028,-0.16,-0.245
2021-08-19 23:13:19.032,-0.155,-0.26
2021-08-19 23:13:19.036,-0.155,-0.245
2021-08-19 23:13:19.040,-0.18,-0.24
2021-08-19 23:13:19.044,-0.18,-0.26
2021-08-19 23:13:19.048,-0.185,-0.24
2021-08-19 23:13:19.052,-0.165,-0.25
2021-08-19 23:13:19.056,-0.15,-0.235
2021-08-19 23:13:19.060,-0.15,-0.23
2021-08-19 23:13:19.064,-0.15,-0.24
2021-08-19 23:13:19.068,-0.155,-0.23
2021-08-19 23:13:19.072,-0.155,-0.23
2021-08-19 23:13:19.076,-0.17,-0.235
2021-08-19 23:13:19.080,-0.165,-0.25
2021-08-19 23:13:19.084,-0.19,-0.26
2021-08-19 23:13:19.088,-0.15,-0.25
2021-08-19 23:13:19.092,-0.145,-0.245
2021-08-19 23:13:19.096,-0.15,-0.255
2021-08-19 23:13:19.100,-0.18,-0.255
2021-08-19 23:13:19.104,-0.15,-0.235
2021-08-19 23:13:19.108,-0.16,-0.255
2021-08-19 23:13:19.112,-0.17,-0.25
2021-08-19 23:13:19.116,-0.17,-0.24
2021-08-19 23:13:19.120,-0.17,-0.22
2021-08-19 23:13:19.124,-0.17,-0.22
2021-08-19 23:13:19.128,-0.16,-0.23
2021-08-19 23:13:19.132,-0.155,-0.225
2021-08-19 23:13:19.136,-0.16,-0.225
2021-08-19 23:13:19.140,-0.16,-0.22
2021-08-19 23:13:19.144,-0.145,-0.235
2021-08-19 23:13:19.148,-0.18,-0.23
2021-08-19 23:13:19.152,-0.185,-0.21
2021-08-19 23:13:19.156,-0.155,-0.215
2021-08-19 23:13:19.160,-0.13,-0.18
2021-08-19 23:13:19.164,-0.125,-0.18
2021-08-19 23:13:19.168,-0.135,-0.17
2021-08-19 23:13:19.172,-0.11,-0.16
2021-08-19 23:13:19.176,-0.115,-0.125
2021-08-19 23:13:19.180,-0.085,-0.11
2021-08-19 23:13:19.184,-0.095,-0.13
2021-08-19 23:13:19.188,-0.105,-0.095
2021-08-19 23:13:19.192,-0.12,-0.08
2021-08-19 23:13:19.196,-0.125,-0.095
2021-08-19 23:13:19.200,-0.14,-0.11
2021-08-19 23:13:19.204,-0.135,-0.095
2021-08-19 23:13:19.208,-0.17,-0.14
2021-08-19 23:13:19.212,-0.17,-0.14
2021-08-19 23:13:19.216,-0.16,-0.17
2021-08-19 23:13:19.220,-0.17,-0.14
2021-08-19 23:13:19.224,-0.185,-0.145
2021-08-19 23:13:19.228,-0.18,-0.17
2021-08-19 23:13:19.232,-0.195,-0.18
2021-08-19 23:13:19.236,-0.19,-0.155
2021-08-19 23:13:19.240,-0.18,-0.16
2021-08-19 23:13:19.244,-0.18,-0.205
2021-08-19 23:13:19.248,-0.16,-0.225
2021-08-19 23:13:19.252,-0.17,-0.255
2021-08-19 23:13:19.256,-0.175,-0.265
2021-08-19 23:13:19.260,-0.185,-0.27
2021-08-19 23:13:19.264,-0.19,-0.265
2021-08-19 23:13:19.268,-0.21,-0.25
2021-08-19 23:13:19.272,-0.19,-0.265
2021-08-19 23:13:19.276,-0.2,-0.265
2021-08-19 23:13:19.280,-0.2,-0.245
2021-08-19 23:13:19.284,-0.2,-0.27
2021-08-19 23:13:19.288,-0.185,-0.31
2021-08-19 23:13:19.292,-0.18,-0.295
2021-08-19 23:13:19.296,-0.19,-0.28
2021-08-19 23:13:19.300,-0.2,-0.25
2021-08-19 23:13:19.304,-0.22,-0.245
2021-08-19 23:13:19.308,-0.2,-0.265
2021-08-19 23:13:19.312,-0.185,-0.295
2021-08-19 23:13:19.316,-0.175,-0.37
2021-08-19 23:13:19.320,-0.2,-0.48
2021-08-19 23:13:19.324,-0.19,-0.525
2021-08-19 23:13:19.328,-0.18,-0.48
2021-08-19 23:13:19.332,-0.185,-0.26
2021-08-19 23:13:19.336,-0.185,0.125
2021-08-19 23:13:19.340,-0.11,0.63
2021-08-19 23:13:19.344,-0.005,1.195
2021-08-19 23:13:19.348,0.06,1.795
,2.0,2.0
,2.0,2.0
,2.0,2.0
,2.0,2.0
2021-08-19 23:13:19.368,0.175,1.37
2021-08-19 23:13:19.372,0.07,0.855
2021-08-19 23:13:19.376,-0.09,0.44
2021-08-19 23:13:19.380,-0.225,0.195
2021-08-19 23:13:19.384,-0.305,0.08
2021-08-19 23:13:19.388,-0.335,-0.015
2021-08-19 23:13:19.392,-0.295,-0.085
2021-08-19 23:13:19.396,-0.255,-0.155
2021-08-19 23:13:19.400,-0.225,-0.21
2021-08-19 23:13:19.404,-0.195,-0.26
2021-08-19 23:13:19.408,-0.185,-0.305
2021-08-19 23:13:19.412,-0.21,-0.34
2021-08-19 23:13:19.416,-0.185,-0.35
2021-08-19 23:13:19.420,-0.21,-0.39
2021-08-19 23:13:19.424,-0.22,-0.4
2021-08-19 23:13:19.428,-0.2,-0.415
2021-08-19 23:13:19.432,-0.22,-0.41
2021-08-19 23:13:19.436,-0.2,-0.435
2021-08-19 23:13:19.440,-0.185,-0.425
2021-08-19 23:13:19.444,-0.18,-0.425
2021-08-19 23:13:19.448,-0.185,-0.425
2021-08-19 23:13:19.452,-0.2,-0.435
2021-08-19 23:13:19.456,-0.205,-0.43
2021-08-19 23:13:19.460,-0.17,-0.445
2021-08-19 23:13:19.464,-0.165,-0.415
2021-08-19 23:13:19.468,-0.195,-0.41
2021-08-19 23:13:19.472,-0.185,-0.41
2021-08-19 23:13:19.476,-0.185,-0.44
2021-08-19 23:13:19.480,-0.195,-0.435
2021-08-19 23:13:19.484,-0.18,-0.46
2021-08-19 23:13:19.488,-0.18,-0.455
2021-08-19 23:13:19.492,-0.17,-0.45
2021-08-19 23:13:19.496,-0.2,-0.44
2021-08-19 23:13:19.500,-0.175,-0.455
2021-08-19 23:13:19.504,-0.185,-0.445
2021-08-19 23:13:19.508,-0.185,-0.45
2021-08-19 23:13:19.512,-0.15,-0.435
2021-08-19 23:13:19.516,-0.155,-0.43
2021-08-19 23:13:19.520,-0.17,-0.44
2021-08-19 23:13:19.524,-0.13,-0.455
2021-08-19 23:13:19.528,-0.14,-0.46
2021-08-19 23:13:19.532,-0.155,-0.455
2021-08-19 23:13:19.536,-0.14,-0.455
2021-08-19 23:13:19.540,-0.14,-0.46
2021-08-19 23:13:19.544,-0.14,-0.42
2021-08-19 23:13:19.548,-0.145,-0.41
2021-08-19 23:13:19.552,-0.115,-0.425
2021-08-19 23:13:19.556,-0.14,-0.42
2021-08-19 23:13:19.560,-0.115,-0.41
2021-08-19 23:13:19.564,-0.12,-0.42
2021-08-19 23:13:19.568,-0.11,-0.425
2021-08-19 23:13:19.572,-0.095,-0.425
2021-08-19 23:13:19.576,-0.075,-0.43
2021-08-19 23:13:19.580,-0.1,-0.42
2021-08-19 23:13:19.584,-0.09,-0.41
2021-08-19 23:13:19.588,-0.08,-0.415
2021-08-19 23:13:19.592,-0.06,-0.44
2021-08-19 23:13:19.596,-0.085,-0.43
2021-08-19 23:13:19.600,-0.07,-0.425
2021-08-19 23:13:19.604,-0.065,-0.415
2021-08-19 23:13:19.608,-0.08,-0.4
2021-08-19 23:13:19.612,-0.055,-0.415
2021-08-19 23:13:19.616,-0.035,-0.425
2021-08-19 23:13:19.620,-0.05,-0.425
2021-08-19 23:13:19.624,-0.02,-0.445
2021-08-19 23:13:19.628,-0.03,-0.43
2021-08-19 23:13:19.632,-0.035,-0.45
2021-08-19 23:13:19.636,-0.03,-0.455
2021-08-19 23:13:19.640,-0.02,-0.48
2021-08-19 23:13:19.644,-0.03,-0.495
2021-08-19 23:13:19.648,-0.03,-0.475
2021-08-19 23:13:19.652,-0.025,-0.48
2021-08-19 23:13:19.656,-0.055,-0.485
2021-08-19 23:13:19.660,-0.04,-0.465
2021-08-19 23:13:19.664,-0.045,-0.48
2021-08-19 23:13:19.668,-0.025,-0.49
2021-08-19 23:13:19.672,-0.045,-0.485
2021-08-19 23:13:19.676,-0.075,-0.49
2021-08-19 23:13:19.680,-0.08,-0.46
2021-08-19 23:13:19.684,-0.075,-0.455
2021-08-19 23:13:19.688,-0.09,-0.435
2021-08-19 23:13:19.692,-0.115,-0.425
2021-08-19 23:13:19.696,-0.105,-0.395
2021-08-19 23:13:19.700,-0.125,-0.4
2021-08-19 23:13:19.704,-0.115,-0.39
2021-08-19 23:13:19.708,-0.14,-0.38
2021-08-19 23:13:19.712,-0.125,-0.345
2021-08-19 23:13:19.716,-0.16,-0.32
2021-08-19 23:13:19.720,-0.135,-0.32
2021-08-19 23:13:19.724,-0.13,-0.32
2021-08-19 23:13:19.728,-0.13,-0.295
2021-08-19 23:13:19.732,-0.15,-0.3
2021-08-19 23:13:19.736,-0.165,-0.295
2021-08-19 23:13:19.740,-0.165,-0.315
2021-08-19 23:13:19.744,-0.165,-0.31
2021-08-19 23:13:19.748,-0.175,-0.295
2021-08-19 23:13:19.752,-0.165,-0.28
2021-08-19 23:13:19.756,-0.155,-0.3
2021-08-19 23:13:19.760,-0.16,-0.295
2021-08-19 23:13:19.764,-0.18,-0.28
2021-08-19 23:13:19.768,-0.18,-0.3
2021-08-19 23:13:19.772,-0.18,-0.295
2021-08-19 23:13:19.776,-0.18,-0.305
2021-08-19 23:13:19.780,-0.17,-0.3
2021-08-19 23:13:19.784,-0.19,-0.3
2021-08-19 23:13:19.788,-0.175,-0.305
2021-08-19 23:13:19.792,-0.16,-0.285
2021-08-19 23:13:19.796,-0.16,-0.28
2021-08-19 23:13:19.800,-0.17,-0.28
2021-08-19 23:13:19.804,-0.165,-0.265
2021-08-19 23:13:19.808,-0.18,-0.275
2021-08-19 23:13:19.812,-0.17,-0.265
2021-08-19 23:13:19.816,-0.16,-0.28
2021-08-19 23:13:19.820,-0.165,-0.26
2021-08-19 23:13:19.824,-0.155,-0.265
2021-08-19 23:13:19.828,-0.155,-0.265
2021-08-19 23:13:19.832,-0.16,-0.255
2021-08-19 23:13:19.836,-0.145,-0.25
2021-08-19 23:13:19.840,-0.155,-0.25
2021-08-19 23:13:19.844,-0.155,-0.245
2021-08-19 23:13:19.848,-0.155,-0.225
2021-08-19 23:13:19.852,-0.145,-0.245
2021-08-19 23:13:19.856,-0.155,-0.24
2021-08-19 23:13:19.860,-0.15,-0.24
2021-08-19 23:13:19.864,-0.16,-0.25
2021-08-19 23:13:19.868,-0.16,-0.26
2021-08-19 23:13:19.872,-0.15,-0.25
2021-08-19 23:13:19.876,-0.16,-0.235
2021-08-19 23:13:19.880,-0.145,-0.23
2021-08-19 23:13:19.884,-0.155,-0.24
2021-08-19 23:13:19.888,-0.155,-0.25
2021-08-19 23:13:19.892,-0.155,-0.255
2021-08-19 23:13:19.896,-0.145,-0.26
2021-08-19 23:13:19.900,-0.155,-0.255
2021-08-19 23:13:19.904,-0.145,-0.27
2021-08-19 23:13:19.908,-0.16,-0.255
2021-08-19 23:13:19.912,-0.165,-0.27
2021-08-19 23:13:19.916,-0.15,-0.245
2021-08-19 23:13:19.920,-0.155,-0.265
2021-08-19 23:13:19.924,-0.155,-0.255
2021-08-19 23:13:19.928,-0.15,-0.24
2021-08-19 23:13:19.932,-0.14,-0.255
2021-08-19 23:13:19.936,-0.16,-0.25
2021-08-19 23:13:19.940,-0.16,-0.26
2021-08-19 23:13:19.944,-0.16,-0.25
2021-08-19 23:13:19.948,-0.155,-0.27
2021-08-19 23:13:19.952,-0.155,-0.27
2021-08-19 23:13:19.956,-0.16,-0.27
2021-08-19 23:13:19.960,-0.17,-0.255
2021-08-19 23:13:19.964,-0.175,-0.265
2021-08-19 23:13:19.968,-0.16,-0.285
2021-08-19 23:13:19.972,-0.18,-0.27
2021-08-19 23:13:19.976,-0.175,-0.28
2021-08-19 23:13:19.980,-0.16,-0.29
2021-08-19 23:13:19.984,-0.17,-0.275
2021-08-19 23:13:19.988,-0.18,-0.28
2021-08-19 23:13:19.992,-0.18,-0.3
2021-08-19 23:13:19.996,-0.175,-0.275
2021-08-19 23:13:20.000,-0.18,-0.295
2021-08-19 23:13:20.004,-0.18,-0.27
2021-08-19 23:13:20.008,-0.19,-0.285
2021-08-19 23:13:20.012,-0.175,-0.29
2021-08-19 23:13:20.016,-0.195,-0.275
2021-08-19 23:13:20.020,-0.195,-0.285
2021-08-19 23:13:20.024,-0.195,-0.27
2021-08-19 23:13:20.028,-0.175,-0.285
2021-08-19 23:13:20.032,-0.18,-0.285
2021-08-19 23:13:20.036,-0.2,-0.295
2021-08-19 23:13:20.040,-0.175,-0.285
2021-08-19 23:13:20.044,-0.16,-0.275
2021-08-19 23:13:20.048,-0.18,-0.265
2021-08-19 23:13:20.052,-0.175,-0.27
2021-08-19 23:13:20.056,-0.19,-0.29
2021-08-19 23:13:20.060,-0.18,-0.28
2021-08-19 23:13:20.064,-0.185,-0.27
2021-08-19 23:13:20.068,-0.185,-0.28
2021-08-19 23:13:20.072,-0.175,-0.275
2021-08-19 23:13:20.076,-0.185,-0.29
2021-08-19 23:13:20.080,-0.185,-0.29
2021-08-19 23:13:20.084,-0.175,-0.28
2021-08-19 23:13:20.088,-0.205,-0.285
2021-08-19 23:13:20.092,-0.2,-0.27
2021-08-19 23:13:20.096,-0.195,-0.275
2021-08-19 23:13:20.100,-0.19,-0.28
2021-08-19 23:13:20.104,-0.18,-0.285
2021-08-19 23:13:20.108,-0.18,-0.27
2021-08-19 23:13:20.112,-0.185,-0.265
2021-08-19 23:13:20.116,-0.185,-0.255
2021-08-19 23:13:20.120,-0.185,-0.285
2021-08-19 23:13:20.124,-0.185,-0.28
2021-08-19 23:13:20.128,-0.19,-0.28
2021-08-19 23:13:20.132,-0.2,-0.275
2021-08-19 23:13:20.136,-0.195,-0.275
2021-08-19 23:13:20.140,-0.185,-0.28
2021-08-19 23:13:20.144,-0.205,-0.27
2021-08-19 23:13:20.148,-0.21,-0.27
2021-08-19 23:13:20.152,-0.18,-0.29
2021-08-19 23:13:20.156,-0.21,-0.3
2021-08-19 23:13:20.160,-0.195,-0.26
2021-08-19 23:13:20.164,-0.18,-0.24
2021-08-19 23:13:20.168,-0.19,-0.27
2021-08-19 23:13:20.172,-0.195,-0.29
2021-08-19 23:13:20.176,-0.185,-0.26
2021-08-19 23:13:20.180,-0.2,-0.27
2021-08-19 23:13:20.184,-0.19,-0.27
2021-08-19 23:13:20.188,-0.19,-0.295
2021-08-19 23:13:20.192,-0.19,-0.28
2021-08-19 23:13:20.196,-0.175,-0.28
2021-08-19 23:13:20.200,-0.2,-0.275
2021-08-19 23:13:20.204,-0.19,-0.275
2021-08-19 23:13:20.208,-0.2,-0.275
2021-08-19 23:13:20.212,-0.19,-0.27
2021-08-19 23:13:20.216,-0.2,-0.275
2021-08-19 23:13:20.220,-0.19,-0.255
2021-08-19 23:13:20.224,-0.185,-0.255
2021-08-19 23:13:20.228,-0.205,-0.24
2021-08-19 23:13:20.232,-0.19,-0.235
2021-08-19 23:13:20.236,-0.18,-0.215
2021-08-19 23:13:20.240,-0.165,-0.215
2021-08-19 23:13:20.244,-0.155,-0.21
2021-08-19 23:13:20.248,-0.155,-0.2
2021-08-19 23:13:20.252,-0.16,-0.2
2021-08-19 23:13:20.256,-0.14,-0.175
2021-08-19 23:13:20.260,-0.14,-0.175
2021-08-19 23:13:20.264,-0.155,-0.15
2021-08-19 23:13:20.268,-0.125,-0.14
2021-08-19 23:13:20.272,-0.15,-0.15
2021-08-19 23:13:20.276,-0.155,-0.165
2021-08-19 23:13:20.280,-0.165,-0.17
2021-08-19 23:13:20.284,-0.165,-0.19
2021-08-19 23:13:20.288,-0.19,-0.205
2021-08-19 23:13:20.292,-0.19,-0.21
2021-08-19 23:13:20.296,-0.205,-0.215
2021-08-19 23:13:20.300,-0.225,-0.19
2021-08-19 23:13:20.304,-0.21,-0.19
2021-08-19 23:13:20.308,-0.21,-0.215
2021-08-19 23:13:20.312,-0.21,-0.2
2021-08-19 23:13:20.316,-0.215,-0.2
2021-08-19 23:13:20.320,-0.205,-0.235
2021-08-19 23:13:20.324,-0.2,-0.27
2021-08-19 23:13:20.328,-0.2,-0.29
2021-08-19 23:13:20.332,-0.21,-0.305
2021-08-19 23:13:20.336,-0.22,-0.31
2021-08-19 23:13:20.340,-0.22,-0.33
2021-08-19 23:13:20.344,-0.23,-0.325
2021-08-19 23:13:20.348,-0.245,-0.315
2021-08-19 23:13:20.352,-0.22,-0.32
2021-08-19 23:13:20.356,-0.215,-0.31
2021-08-19 23:13:20.360,-0.215,-0.32
2021-08-19 23:13:20.364,-0.205,-0.335
2021-08-19 23:13:20.368,-0.23,-0.315
2021-08-19 23:13:20.372,-0.205,-0.32
2021-08-19 23:13:20.376,-0.2,-0.315
2021-08-19 23:13:20.380,-0.22,-0.32
2021-08-19 23:13:20.384,-0.205,-0.325
2021-08-19 23:13:20.388,-0.21,-0.36
2021-08-19 23:13:20.392,-0.205,-0.46
2021-08-19 23:13:20.396,-0.2,-0.57
2021-08-19 23:13:20.400,-0.2,-0.635
2021-08-19 23:13:20.404,-0.205,-0.595
2021-08-19 23:13:20.408,-0.225,-0.305
2021-08-19 23:13:20.412,-0.21,0.12
2021-08-19 23:13:20.416,-0.125,0.655
2021-08-19 23:13:20.420,-0.04,1.33
2021-08-19 23:13:20.424,0.055,2.0
,2.0,2.0
,2.0,2.0
,2.0,2.0
2021-08-19 23:13:20.440,0.275,1.91
2021-08-19 23:13:20.444,0.245,1.21
2021-08-19 23:13:20.448,0.05,0.69
2021-08-19 23:13:20.452,-0.135,0.33
2021-08-19 23:13:20.456,-0.275,0.125
2021-08-19 23:13:20.460,-0.34,-0.015
2021-08-19 23:13:20.464,-0.335,-0.09
2021-08-19 23:13:20.468,-0.27,-0.17
2021-08-19 23:13:20.472,-0.22,-0.23
2021-08-19 23:13:20.476,-0.195,-0.295
2021-08-19 23:13:20.480,-0.17,-0.32
2021-08-19 23:13:20.484,-0.175,-0.36
2021-08-19 23:13:20.488,-0.185,-0.37
2021-08-19 23:13:20.492,-0.19,-0.39
2021-08-19 23:13:20.496,-0.215,-0.41
2021-08-19 23:13:20.500,-0.19,-0.41
2021-08-19 23:13:20.504,-0.19,-0.42
2021-08-19 23:13:20.508,-0.185,-0.41
2021-08-19 23:13:20.512,-0.18,-0.42
2021-08-19 23:13:20.516,-0.19,-0.42
2021-08-19 23:13:20.520,-0.205,-0.405
2021-08-19 23:13:20.524,-0.175,-0.42
2021-08-19 23:13:20.528,-0.165,-0.435
2021-08-19 23:13:20.532,-0.18,-0.435
2021-08-19 23:13:20.536,-0.17,-0.44
2021-08-19 23:13:20.540,-0.175,-0.44
2021-08-19 23:13:20.544,-0.175,-0.44
2021-08-19 23:13:20.548,-0.18,-0.43
2021-08-19 23:13:20.552,-0.16,-0.445
2021-08-19 23:13:20.556,-0.17,-0.465
2021-08-19 23:13:20.560,-0.165,-0.465
2021-08-19 23:13:20.564,-0.16,-0.44
2021-08-19 23:13:20.568,-0.155,-0.45
2021-08-19 23:13:20.572,-0.17,-0.46
2021-08-19 23:13:20.576,-0.155,-0.44
2021-08-19 23:13:20.580,-0.165,-0.445
2021-08-19 23:13:20.584,-0.16,-0.445
2021-08-19 23:13:20.588,-0.145,-0.45
2021-08-19 23:13:20.592,-0.135,-0.465
2021-08-19 23:13:20.596,-0.135,-0.445
2021-08-19 23:13:20.600,-0.125,-0.455
2021-08-19 23:13:20.604,-0.13,-0.455
2021-08-19 23:13:20.608,-0.145,-0.435
2021-08-19 23:13:20.612,-0.145,-0.435
2021-08-19 23:13:20.616,-0.12,-0.415
2021-08-19 23:13:20.620,-0.13,-0.415
2021-08-19 23:13:20.624,-0.12,-0.41
2021-08-19 23:13:20.628,-0.11,-0.39
2021-08-19 23:13:20.632,-0.095,-0.4
2021-08-19 23:13:20.636,-0.095,-0.41
2021-08-19 23:13:20.640,-0.09,-0.405
2021-08-19 23:13:20.644,-0.08,-0.385
2021-08-19 23:13:20.648,-0.085,-0.37
2021-08-19 23:13:20.652,-0.07,-0.39
2021-08-19 23:13:20.656,-0.07,-0.375
2021-08-19 23:13:20.660,-0.06,-0.385
2021-08-19 23:13:20.664,-0.04,-0.37
2021-08-19 23:13:20.668,-0.03,-0.355
2021-08-19 23:13:20.672,-0.035,-0.34
2021-08-19 23:13:20.676,-0.03,-0.375
2021-08-19 23:13:20.680,0.0,-0.355
2021-08-19 23:13:20.684,-0.015,-0.36
2021-08-19 23:13:20.688,0.0,-0.335
2021-08-19 23:13:20.692,0.01,-0.335
2021-08-19 23:13:20.696,0.02,-0.33
2021-08-19 23:13:20.700,0.015,-0.32
2021-08-19 23:13:20.704,0.0,-0.32
2021-08-19 23:13:20.708,0.025,-0.32
2021-08-19 23:13:20.712,-0.01,-0.32
2021-08-19 23:13:20.716,0.005,-0.335
2021-08-19 23:13:20.720,0.005,-0.305
2021-08-19 23:13:20.724,-0.005,-0.305
2021-08-19 23:13:20.728,0.025,-0.3
2021-08-19 23:13:20.732,0.01,-0.285
2021-08-19 23:13:20.736,0.005,-0.29
2021-08-19 23:13:20.740,-0.01,-0.265
2021-08-19 23:13:20.744,-0.03,-0.27
2021-08-19 23:13:20.748,-0.05,-0.245
2021-08-19 23:13:20.752,-0.04,-0.235
2021-08-19 23:13:20.756,-0.04,-0.225
2021-08-19 23:13:20.760,-0.05,-0.23
2021-08-19 23:13:20.764,-0.07,-0.225
2021-08-19 23:13:20.768,-0.075,-0.22
2021-08-19 23:13:20.772,-0.075,-0.215
2021-08-19 23:13:20.776,-0.075,-0.22
2021-08-19 23:13:20.780,-0.1,-0.2
2021-08-19 23:13:20.784,-0.115,-0.205
2021-08-19 23:13:20.788,-0.11,-0.23
2021-08-19 23:13:20.792,-0.12,-0.22
2021-08-19 23:13:20.796,-0.135,-0.195
2021-08-19 23:13:20.800,-0.14,-0.225
2021-08-19 23:13:20.804,-0.13,-0.25
2021-08-19 23:13:20.808,-0.15,-0.235
2021-08-19 23:13:20.812,-0.155,-0.26
2021-08-19 23:13:20.816,-0.16,-0.265
2021-08-19 23:13:20.820,-0.14,-0.245
2021-08-19 23:13:20.824,-0.155,-0.26
2021-08-19 23:13:20.828,-0.16,-0.27
2021-08-19 23:13:20.832,-0.17,-0.265
2021-08-19 23:13:20.836,-0.175,-0.275
2021-08-19 23:13:20.840,-0.185,-0.3
2021-08-19 23:13:20.844,-0.175,-0.29
2021-08-19 23:13:20.848,-0.16,-0.29
2021-08-19 23:13:20.852,-0.175,-0.295
2021-08-19 23:13:20.856,-0.17,-0.3
2021-08-19 23:13:20.860,-0.165,-0.3
2021-08-19 23:13:20.864,-0.165,-0.325
2021-08-19 23:13:20.868,-0.165,-0.305
2021-08-19 23:13:20.872,-0.165,-0.305
2021-08-19 23:13:20.876,-0.165,-0.31
2021-08-19 23:13:20.880,-0.15,-0.31
2021-08-19 23:13:20.884,-0.16,-0.32
2021-08-19 23:13:20.888,-0.16,-0.31
2021-08-19 23:13:20.892,-0.15,-0.31
2021-08-19 23:13:20.896,-0.135,-0.305
2021-08-19 23:13:20.900,-0.155,-0.3
2021-08-19 23:13:20.904,-0.155,-0.3
2021-08-19 23:13:20.908,-0.155,-0.3
2021-08-19 23:13:20.912,-0.165,-0.29
2021-08-19 23:13:20.916,-0.155,-0.295
2021-08-19 23:13:20.920,-0.14,-0.295
2021-08-19 23:13:20.924,-0.14,-0.285
2021-08-19 23:13:20.928,-0.175,-0.28
2021-08-19 23:13:20.932,-0.15,-0.28
2021-08-19 23:13:20.936,-0.165,-0.26
2021-08-19 23:13:20.940,-0.16,-0.29
2021-08-19 23:13:20.944,-0.13,-0.28
2021-08-19 23:13:20.948,-0.16,-0.28
2021-08-19 23:13:20.952,-0.175,-0.3
2021-08-19 23:13:20.956,-0.16,-0.27
2021-08-19 23:13:20.960,-0.16,-0.26
2021-08-19 23:13:20.964,-0.165,-0.275
2021-08-19 23:13:20.968,-0.155,-0.265
2021-08-19 23:13:20.972,-0.155,-0.29
2021-08-19 23:13:20.976,-0.185,-0.275
2021-08-19 23:13:20.980,-0.175,-0.28
2021-08-19 23:13:20.984,-0.145,-0.28
2021-08-19 23:13:20.988,-0.155,-0.29
2021-08-19 23:13:20.992,-0.16,-0.265
2021-08-19 23:13:20.996,-0.155,-0.265
2021-08-19 23:13:21.000,-0.16,-0.275
2021-08-19 23:13:21.004,-0.16,-0.28
2021-08-19 23:13:21.008,-0.145,-0.275
2021-08-19 23:13:21.012,-0.17,-0.28
2021-08-19 23:13:21.016,-0.165,-0.285
2021-08-19 23:13:21.020,-0.165,-0.285
2021-08-19 23:13:21.024,-0.15,-0.27
2021-08-19 23:13:21.028,-0.15,-0.255
2021-08-19 23:13:21.032,-0.15,-0.28
2021-08-19 23:13:21.036,-0.16,-0.28
2021-08-19 23:13:21.040,-0.165,-0.26
2021-08-19 23:13:21.044,-0.14,-0.295
2021-08-19 23:13:21.048,-0.16,-0.29
2021-08-19 23:13:21.052,-0.185,-0.27
2021-08-19 23:13:21.056,-0.18,-0.29
2021-08-19 23:13:21.060,-0.16,-0.275
2021-08-19 23:13:21.064,-0.17,-0.28
2021-08-19 23:13:21.068,-0.175,-0.285
2021-08-19 23:13:21.072,-0.19,-0.28
2021-08-19 23:13:21.076,-0.195,-0.28
2021-08-19 23:13:21.080,-0.18,-0.275
2021-08-19 23:13:21.084,-0.155,-0.29
2021-08-19 23:13:21.088,-0.16,-0.275
2021-08-19 23:13:21.092,-0.16,-0.27
2021-08-19 23:13:21.096,-0.15,-0.27
2021-08-19 23:13:21.100,-0.19,-0.285
2021-08-19 23:13:21.104,-0.16,-0.275
2021-08-19 23:13:21.108,-0.16,-0.285
2021-08-19 23:13:21.112,-0.185,-0.27
2021-08-19 23:13:21.116,-0.18,-0.265
2021-08-19 23:13:21.120,-0.17,-0.28
2021-08-19 23:13:21.124,-0.185,-0.26
2021-08-19 23:13:21.128,-0.175,-0.255
2021-08-19 23:13:21.132,-0.18,-0.255
2021-08-19 23:13:21.136,-0.185,-0.245
2021-08-19 23:13:21.140,-0.17,-0.265
2021-08-19 23:13:21.144,-0.17,-0.24
2021-08-19 23:13:21.148,-0.165,-0.265
2021-08-19 23:13:21.152,-0.175,-0.245
2021-08-19 23:13:21.156,-0.19,-0.27
2021-08-19 23:13:21.160,-0.195,-0.26
2021-08-19 23:13:21.164,-0.185,-0.26
2021-08-19 23:13:21.168,-0.18,-0.265
2021-08-19 23:13:21.172,-0.185,-0.255
2021-08-19 23:13:21.176,-0.19,-0.27
2021-08-19 23:13:21.180,-0.195,-0.265
2021-08-19 23:13:21.184,-0.16,-0.27
2021-08-19 23:13:21.188,-0.165,-0.275
2021-08-19 23:13:21.192,-0.175,-0.27
2021-08-19 23:13:21.196,-0.18,-0.275
2021-08-19 23:13:21.200,-0.18,-0.26
2021-08-19 23:13:21.204,-0.195,-0.255
2021-08-19 23:13:21.208,-0.18,-0.26
2021-08-19 23:13:21.212,-0.19,-0.255
2021-08-19 23:13:21.216,-0.195,-0.255
2021-08-19 23:13:21.220,-0.2,-0.265
2021-08-19 23:13:21.224,-0.18,-0.265
2021-08-19 23:13:21.228,-0.16,-0.24
2021-08-19 23:13:21.232,-0.195,-0.26
2021-08-19 23:13:21.236,-0.185,-0.25
2021-08-19 23:13:21.240,-0.18,-0.26
2021-08-19 23:13:21.244,-0.195,-0.25
2021-08-19 23:13:21.248,-0.195,-0.26
2021-08-19 23:13:21.252,-0.185,-0.26
2021-08-19 23:13:21.256,-0.17,-0.255
2021-08-19 23:13:21.260,-0.175,-0.25
2021-08-19 23:13:21.264,-0.175,-0.235
2021-08-19 23:13:21.268,-0.17,-0.26
2021-08-19 23:13:21.272,-0.185,-0.235
2021-08-19 23:13:21.276,-0.18,-0.255
2021-08-19 23:13:21.280,-0.19,-0.26
2021-08-19 23:13:21.284,-0.18,-0.265
2021-08-19 23:13:21.288,-0.175,-0.265
2021-08-19 23:13:21.292,-0.175,-0.26
2021-08-19 23:13:21.296,-0.195,-0.23
2021-08-19 23:13:21.300,-0.18,-0.275
2021-08-19 23:13:21.304,-0.17,-0.275
2021-08-19 23:13:21.308,-0.17,-0.265
2021-08-19 23:13:21.312,-0.185,-0.265
2021-08-19 23:13:21.316,-0.17,-0.28
2021-08-19 23:13:21.320,-0.155,-0.27
2021-08-19 23:13:21.324,-0.16,-0.255
2021-08-19 23:13:21.328,-0.175,-0.265
2021-08-19 23:13:21.332,-0.195,-0.245
2021-08-19 23:13:21.336,-0.17,-0.25
2021-08-19 23:13:21.340,-0.165,-0.225
2021-08-19 23:13:21.344,-0.16,-0.215
2021-08-19 23:13:21.348,-0.16,-0.185
2021-08-19 23:13:21.352,-0.15,-0.2
2021-08-19 23:13:21.356,-0.15,-0.215
2021-08-19 23:13:21.360,-0.14,-0.205
2021-08-19 23:13:21.364,-0.12,-0.185
2021-08-19 23:13:21.368,-0.115,-0.17
2021-08-19 23:13:21.372,-0.145,-0.165
2021-08-19 23:13:21.376,-0.14,-0.14
2021-08-19 23:13:21.380,-0.14,-0.145
2021-08-19 23:13:21.384,-0.16,-0.145
2021-08-19 23:13:21.388,-0.15,-0.185
2021-08-19 23:13:21.392,-0.18,-0.185
2021-08-19 23:13:21.396,-0.17,-0.225
2021-08-19 23:13:21.400,-0.195,-0.23
2021-08-19 23:13:21.404,-0.2,-0.21
2021-08-19 23:13:21.408,-0.205,-0.22
2021-08-19 23:13:21.412,-0.2,-0.215
2021-08-19 23:13:21.416,-0.205,-0.21
2021-08-19 23:13:21.420,-0.205,-0.255
2021-08-19 23:13:21.424,-0.2,-0.23
2021-08-19 23:13:21.428,-0.195,-0.255
2021-08-19 23:13:21.432,-0.21,-0.29
2021-08-19 23:13:21.436,-0.195,-0.3
2021-08-19 23:13:21.440,-0.21,-0.305
2021-08-19 23:13:21.444,-0.19,-0.32
2021-08-19 23:13:21.448,-0.21,-0.32
2021-08-19 23:13:21.452,-0.205,-0.31
2021-08-19 23:13:21.456,-0.205,-0.315
2021-08-19 23:13:21.460,-0.21,-0.315
2021-08-19 23:13:21.464,-0.195,-0.335
2021-08-19 23:13:21.468,-0.215,-0.33
2021-08-19 23:13:21.472,-0.22,-0.345
2021-08-19 23:13:21.476,-0.23,-0.33
2021-08-19 23:13:21.480,-0.205,-0.32
2021-08-19 23:13:21.484,-0.21,-0.32
2021-08-19 23:13:21.488,-0.215,-0.33
2021-08-19 23:13:21.492,-0.205,-0.33
2021-08-19 23:13:21.496,-0.22,-0.34
2021-08-19 23:13:21.500,-0.195,-0.41
2021-08-19 23:13:21.504,-0.205,-0.525
2021-08-19 23:13:21.508,-0.2,-0.62
2021-08-19 23:13:21.512,-0.205,-0.595
2021-08-19 23:13:21.516,-0.21,-0.33
2021-08-19 23:13:21.520,-0.19,0.11
2021-08-19 23:13:21.524,-0.13,0.66
2021-08-19 23:13:21.528,-0.03,1.355
,2.0,2.0
,2.0,2.0
,2.0,2.0
,2.0,2.0
2021-08-19 23:13:21.548,0.325,1.78
2021-08-19 23:13:21.552,0.24,1.165
2021-08-19 23:13:21.556,0.06,0.695
2021-08-19 23:13:21.560,-0.155,0.335
2021-08-19 23:13:21.564,-0.255,0.135
2021-08-19 23:13:21.568,-0.31,-0.015
2021-08-19 23:13:21.572,-0.31,-0.09
2021-08-19 23:13:21.576,-0.25,-0.145
2021-08-19 23:13:21.580,-0.19,-0.23
2021-08-19 23:13:21.584,-0.155,-0.28
2021-08-19 23:13:21.588,-0.175,-0.33
2021-08-19 23:13:21.592,-0.16,-0.365
2021-08-19 23:13:21.596,-0.155,-0.37
2021-08-19 23:13:21.600,-0.17,-0.395
2021-08-19 23:13:21.604,-0.16,-0.4
2021-08-19 23:13:21.608,-0.18,-0.43
2021-08-19 23:13:21.612,-0.18,-0.415
2021-08-19 23:13:21.616,-0.175,-0.425
2021-08-19 23:13:21.620,-0.165,-0.435
2021-08-19 23:13:21.624,-0.185,-0.445
2021-08-19 23:13:21.628,-0.19,-0.43
2021-08-19 23:13:21.632,-0.16,-0.425
2021-08-19 23:13:21.636,-0.19,-0.425
2021-08-19 23:13:21.640,-0.175,-0.42
2021-08-19 23:13:21.644,-0.16,-0.415
2021-08-19 23:13:21.648,-0.175,-0.42
2021-08-19 23:13:21.652,-0.15,-0.435
2021-08-19 23:13:21.656,-0.17,-0.445
2021-08-19 23:13:21.660,-0.16,-0.44
2021-08-19 23:13:21.664,-0.175,-0.43
2021-08-19 23:13:21.668,-0.175,-0.44
2021-08-19 23:13:21.672,-0.145,-0.425
2021-08-19 23:13:21.676,-0.16,-0.435
2021-08-19 23:13:21.680,-0.14,-0.42
2021-08-19 23:13:21.684,-0.145,-0.43
2021-08-19 23:13:21.688,-0.145,-0.415
2021-08-19 23:13:21.692,-0.125,-0.42
2021-08-19 23:13:21.696,-0.14,-0.43
2021-08-19 23:13:21.700,-0.125,-0.435
2021-08-19 23:13:21.704,-0.125,-0.455
2021-08-19 23:13:21.708,-0.135,-0.44
2021-08-19 23:13:21.712,-0.15,-0.435
2021-08-19 23:13:21.716,-0.13,-0.44
2021-08-19 23:13:21.720,-0.12,-0.43
2021-08-19 23:13:21.724,-0.12,-0.415
2021-08-19 23:13:21.728,-0.12,-0.435
2021-08-19 23:13:21.732,-0.075,-0.41
2021-08-19 23:13:21.736,-0.11,-0.395
2021-08-19 23:13:21.740,-0.1,-0.41
2021-08-19 23:13:21.744,-0.09,-0.395
2021-08-19 23:13:21.748,-0.085,-0.405
2021-08-19 23:13:21.752,-0.06,-0.39
2021-08-19 23:13:21.756,-0.08,-0.365
2021-08-19 23:13:21.760,-0.07,-0.385
2021-08-19 23:13:21.764,-0.07,-0.385
2021-08-19 23:13:21.768,-0.025,-0.375
2021-08-19 23:13:21.772,-0.02,-0.365
2021-08-19 23:13:21.776,-0.04,-0.355
2021-08-19 23:13:21.780,-0.025,-0.36
2021-08-19 23:13:21.784,-0.01,-0.35
2021-08-19 23:13:21.788,-0.02,-0.335
2021-08-19 23:13:21.792,0.005,-0.31
2021-08-19 23:13:21.796,0.02,-0.31
2021-08-19 23:13:21.800,0.01,-0.335
2021-08-19 23:13:21.804,0.045,-0.325
2021-08-19 23:13:21.808,0.035,-0.315
2021-08-19 23:13:21.812,0.03,-0.315
2021-08-19 23:13:21.816,0.025,-0.295
2021-08-19 23:13:21.820,0.01,-0.265
2021-08-19 23:13:21.824,0.045,-0.28
2021-08-19 23:13:21.828,0.045,-0.275
2021-08-19 23:13:21.832,0.06,-0.28
2021-08-19 23:13:21.836,0.035,-0.255
2021-08-19 23:13:21.840,0.025,-0.235
2021-08-19 23:13:21.844,0.04,-0.235
2021-08-19 23:13:21.848,0.035,-0.205
2021-08-19 23:13:21.852,0.035,-0.215
2021-08-19 23:13:21.856,0.03,-0.2
2021-08-19 23:13:21.860,0.005,-0.18
2021-08-19 23:13:21.864,0.015,-0.185
2021-08-19 23:13:21.868,0.0,-0.18
2021-08-19 23:13:21.872,-0.015,-0.16
2021-08-19 23:13:21.876,-0.005,-0.17
2021-08-19 23:13:21.880,-0.02,-0.135
2021-08-19 23:13:21.884,-0.025,-0.14
2021-08-19 23:13:21.888,-0.055,-0.15
2021-08-19 23:13:21.892,-0.07,-0.15
2021-08-19 23:13:21.896,-0.055,-0.17
2021-08-19 23:13:21.900,-0.085,-0.16
2021-08-19 23:13:21.904,-0.085,-0.175
2021-08-19 23:13:21.908,-0.1,-0.18
2021-08-19 23:13:21.912,-0.115,-0.18
2021-08-19 23:13:21.916,-0.105,-0.205
2021-08-19 23:13:21.920,-0.135,-0.195
2021-08-19 23:13:21.924,-0.12,-0.2
2021-08-19 23:13:21.928,-0.14,-0.215
2021-08-19 23:13:21.932,-0.11,-0.23
2021-08-19 23:13:21.936,-0.125,-0.23
2021-08-19 23:13:21.940,-0.13,-0.23
2021-08-19 23:13:21.944,-0.115,-0.24
2021-08-19 23:13:21.948,-0.135,-0.26
2021-08-19 23:13:21.952,-0.145,-0.265
2021-08-19 23:13:21.956,-0.13,-0.275
2021-08-19 23:13:21.960,-0.13,-0.265
2021-08-19 23:13:21.964,-0.14,-0.28
2021-08-19 23:13:21.968,-0.125,-0.295
2021-08-19 23:13:21.972,-0.135,-0.285
2021-08-19 23:13:21.976,-0.135,-0.29
2021-08-19 23:13:21.980,-0.115,-0.295
2021-08-19 23:13:21.984,-0.145,-0.295
2021-08-19 23:13:21.988,-0.135,-0.31
2021-08-19 23:13:21.992,-0.125,-0.315
2021-08-19 23:13:21.996,-0.115,-0.31
2021-08-19 23:13:22.000,-0.13,-0.3
2021-08-19 23:13:22.004,-0.125,-0.3
2021-08-19 23:13:22.008,-0.12,-0.29
2021-08-19 23:13:22.012,-0.15,-0.285
2021-08-19 23:13:22.016,-0.175,-0.295
2021-08-19 23:13:22.020,-0.15,-0.27
2021-08-19 23:13:22.024,-0.145,-0.3
2021-08-19 23:13:22.028,-0.14,-0.29
2021-08-19 23:13:22.032,-0.14,-0.28
2021-08-19 23:13:22.036,-0.165,-0.275
2021-08-19 23:13:22.040,-0.13,-0.28
2021-08-19 23:13:22.044,-0.16,-0.28
2021-08-19 23:13:22.048,-0.155,-0.285
2021-08-19 23:13:22.052,-0.145,-0.265
2021-08-19 23:13:22.056,-0.175,-0.27
2021-08-19 23:13:22.060,-0.15,-0.255
2021-08-19 23:13:22.064,-0.155,-0.275
2021-08-19 23:13:22.068,-0.135,-0.275
2021-08-19 23:13:22.072,-0.15,-0.27
2021-08-19 23:13:22.076,-0.17,-0.27
2021-08-19 23:13:22.080,-0.14,-0.26
2021-08-19 23:13:22.084,-0.155,-0.275
2021-08-19 23:13:22.088,-0.15,-0.27
2021-08-19 23:13:22.092,-0.155,-0.285
2021-08-19 23:13:22.096,-0.165,-0.275
2021-08-19 23:13:22.100,-0.16,-0.26
2021-08-19 23:13:22.104,-0.165,-0.28
2021-08-19 23:13:22.108,-0.165,-0.28
2021-08-19 23:13:22.112,-0.14,-0.28
2021-08-19 23:13:22.116,-0.15,-0.275
2021-08-19 23:13:22.120,-0.15,-0.255
2021-08-19 23:13:22.124,-0.155,-0.28
2021-08-19 23:13:22.128,-0.15,-0.275
2021-08-19 23:13:22.132,-0.155,-0.28
2021-08-19 23:13:22.136,-0.165,-0.26
2021-08-19 23:13:22.140,-0.14,-0.265
2021-08-19 23:13:22.144,-0.135,-0.275
2021-08-19 23:13:22.148,-0.16,-0.265
2021-08-19 23:13:22.152,-0.17,-0.285
2021-08-19 23:13:22.156,-0.145,-0.265
2021-08-19 23:13:22.160,-0.155,-0.265
2021-08-19 23:13:22.164,-0.155,-0.285
2021-08-19 23:13:22.168,-0.155,-0.25
2021-08-19 23:13:22.172,-0.16,-0.28
2021-08-19 23:13:22.176,-0.155,-0.28
2021-08-19 23:13:22.180,-0.165,-0.275
2021-08-19 23:13:22.184,-0.155,-0.27
2021-08-19 23:13:22.188,-0.155,-0.27
2021-08-19 23:13:22.192,-0.195,-0.245
2021-08-19 23:13:22.196,-0.175,-0.25
2021-08-19 23:13:22.200,-0.18,-0.27
2021-08-19 23:13:22.204,-0.19,-0.265
2021-08-19 23:13:22.208,-0.15,-0.27
2021-08-19 23:13:22.212,-0.15,-0.255
2021-08-19 23:13:22.216,-0.165,-0.27
2021-08-19 23:13:22.220,-0.18,-0.27
2021-08-19 23:13:22.224,-0.165,-0.265
2021-08-19 23:13:22.228,-0.175,-0.255
2021-08-19 23:13:22.232,-0.16,-0.26
2021-08-19 23:13:22.236,-0.165,-0.26
2021-08-19 23:13:22.240,-0.175,-0.25
2021-08-19 23:13:22.244,-0.17,-0.255
2021-08-19 23:13:22.248,-0.16,-0.26
2021-08-19 23:13:22.252,-0.155,-0.27
2021-08-19 23:13:22.256,-0.185,-0.265
2021-08-19 23:13:22.260,-0.17,-0.27
2021-08-19 23:13:22.264,-0.17,-0.27
2021-08-19 23:13:22.268,-0.18,-0.27
2021-08-19 23:13:22.272,-0.165,-0.265
2021-08-19 23:13:22.276,-0.17,-0.285
2021-08-19 23:13:22.280,-0.16,-0.25
2021-08-19 23:13:22.284,-0.175,-0.25
2021-08-19 23:13:22.288,-0.17,-0.26
2021-08-19 23:13:22.292,-0.16,-0.26
2021-08-19 23:13:22.296,-0.17,-0.275
2021-08-19 23:13:22.300,-0.17,-0.29
2021-08-19 23:13:22.304,-0.17,-0.275
2021-08-19 23:13:22.308,-0.155,-0.265
2021-08-19 23:13:22.312,-0.175,-0.27
2021-08-19 23:13:22.316,-0.175,-0.27
2021-08-19 23:13:22.320,-0.15,-0.275
2021-08-19 23:13:22.324,-0.155,-0.275
2021-08-19 23:13:22.328,-0.17,-0.27
2021-08-19 23:13:22.332,-0.175,-0.275
2021-08-19 23:13:22.336,-0.19,-0.29
2021-08-19 23:13:22.340,-0.185,-0.26
2021-08-19 23:13:22.344,-0.17,-0.26
2021-08-19 23:13:22.348,-0.17,-0.29
2021-08-19 23:13:22.352,-0.17,-0.285
2021-08-19 23:13:22.356,-0.18,-0.26
2021-08-19 23:13:22.360,-0.17,-0.27
2021-08-19 23:13:22.364,-0.18,-0.27
2021-08-19 23:13:22.368,-0.19,-0.275
2021-08-19 23:13:22.372,-0.17,-0.285
2021-08-19 23:13:22.376,-0.175,-0.305
2021-08-19 23:13:22.380,-0.185,-0.28
2021-08-19 23:13:22.384,-0.18,-0.29
2021-08-19 23:13:22.388,-0.185,-0.29
2021-08-19 23:13:22.392,-0.16,-0.29
2021-08-19 23:13:22.396,-0.195,-0.295
2021-08-19 23:13:22.400,-0.165,-0.3
2021-08-19 23:13:22.404,-0.16,-0.295
2021-08-19 23:13:22.408,-0.16,-0.3
2021-08-19 23:13:22.412,-0.155,-0.31
2021-08-19 23:13:22.416,-0.175,-0.28
2021-08-19 23:13:22.420,-0.17,-0.285
2021-08-19 23:13:22.424,-0.18,-0.28
2021-08-19 23:13:22.428,-0.185,-0.28
2021-08-19 23:13:22.432,-0.175,-0.255
2021-08-19 23:13:22.436,-0.19,-0.265
2021-08-19 23:13:22.440,-0.195,-0.28
2021-08-19 23:13:22.444,-0.17,-0.29
2021-08-19 23:13:22.448,-0.18,-0.27
2021-08-19 23:13:22.452,-0.185,-0.27
2021-08-19 23:13:22.456,-0.17,-0.26
2021-08-19 23:13:22.460,-0.175,-0.245
2021-08-19 23:13:22.464,-0.16,-0.24
2021-08-19 23:13:22.468,-0.155,-0.22
2021-08-19 23:13:22.472,-0.155,-0.22
2021-08-19 23:13:22.476,-0.14,-0.205
2021-08-19 23:13:22.480,-0.13,-0.215
2021-08-19 23:13:22.484,-0.12,-0.195
2021-08-19 23:13:22.488,-0.125,-0.185
2021-08-19 23:13:22.492,-0.12,-0.155
2021-08-19 23:13:22.496,-0.135,-0.15
2021-08-19 23:13:22.500,-0.14,-0.145
2021-08-19 23:13:22.504,-0.16,-0.165
2021-08-19 23:13:22.508,-0.155,-0.185
2021-08-19 23:13:22.512,-0.165,-0.215
2021-08-19 23:13:22.516,-0.17,-0.205
2021-08-19 23:13:22.520,-0.2,-0.22
2021-08-19 23:13:22.524,-0.18,-0.215
2021-08-19 23:13:22.528,-0.18,-0.22
2021-08-19 23:13:22.532,-0.18,-0.25
2021-08-19 23:13:22.536,-0.2,-0.24
2021-08-19 23:13:22.540,-0.18,-0.25
2021-08-19 23:13:22.544,-0.19,-0.265
2021-08-19 23:13:22.548,-0.2,-0.28
2021-08-19 23:13:22.552,-0.19,-0.29
2021-08-19 23:13:22.556,-0.155,-0.34
2021-08-19 23:13:22.560,-0.18,-0.34
2021-08-19 23:13:22.564,-0.185,-0.36
2021-08-19 23:13:22.568,-0.16,-0.34
2021-08-19 23:13:22.572,-0.19,-0.34
2021-08-19 23:13:22.576,-0.17,-0.35
2021-08-19 23:13:22.580,-0.16,-0.34
2021-08-19 23:13:22.584,-0.17,-0.35
2021-08-19 23:13:22.588,-0.15,-0.35
2021-08-19 23:13:22.592,-0.175,-0.35
2021-08-19 23:13:22.596,-0.155,-0.335
2021-08-19 23:13:22.600,-0.18,-0.345
2021-08-19 23:13:22.604,-0.18,-0.345
2021-08-19 23:13:22.608,-0.16,-0.35
2021-08-19 23:13:22.612,-0.17,-0.36
2021-08-19 23:13:22.616,-0.16,-0.395
2021-08-19 23:13:22.620,-0.155,-0.48
2021-08-19 23:13:22.624,-0.15,-0.6
2021-08-19 23:13:22.628,-0.15,-0.645
2021-08-19 23:13:22.632,-0.15,-0.52
2021-08-19 23:13:22.636,-0.175,-0.225
2021-08-19 23:13:22.640,-0.135,0.215
2021-08-19 23:13:22.644,-0.08,0.76
2021-08-19 23:13:22.648,0.015,1.355
2021-08-19 23:13:22.652,0.12,1.97
,2.0,2.0
,2.0,2.0
,2.0,2.0
2021-08-19 23:13:22.668,0.26,1.56
2021-08-19 23:13:22.672,0.195,0.95
2021-08-19 23:13:22.676,0.05,0.5
2021-08-19 23:13:22.680,-0.095,0.175
2021-08-19 23:13:22.684,-0.225,0.03
2021-08-19 23:13:22.688,-0.3,-0.07
2021-08-19 23:13:22.692,-0.285,-0.175
2021-08-19 23:13:22.696,-0.225,-0.22
2021-08-19 23:13:22.700,-0.175,-0.28
2021-08-19 23:13:22.704,-0.14,-0.345
2021-08-19 23:13:22.708,-0.13,-0.37
2021-08-19 23:13:22.712,-0.12,-0.375
2021-08-19 23:13:22.716,-0.14,-0.415
2021-08-19 23:13:22.720,-0.135,-0.43
2021-08-19 23:13:22.724,-0.14,-0.44
2021-08-19 23:13:22.728,-0.155,-0.44
2021-08-19 23:13:22.732,-0.15,-0.48
2021-08-19 23:13:22.736,-0.14,-0.46
2021-08-19 23:13:22.740,-0.14,-0.45
2021-08-19 23:13:22.744,-0.16,-0.46
2021-08-19 23:13:22.748,-0.16,-0.48
2021-08-19 23:13:22.752,-0.14,-0.48
2021-08-19 23:13:22.756,-0.16,-0.46
2021-08-19 23:13:22.760,-0.135,-0.47
2021-08-19 23:13:22.764,-0.145,-0.485
2021-08-19 23:13:22.768,-0.16,-0.495
2021-08-19 23:13:22.772,-0.14,-0.49
2021-08-19 23:13:22.776,-0.15,-0.485
2021-08-19 23:13:22.780,-0.145,-0.48
2021-08-19 23:13:22.784,-0.125,-0.46
2021-08-19 23:13:22.788,-0.13,-0.49
2021-08-19 23:13:22.792,-0.12,-0.5
2021-08-19 23:13:22.796,-0.14,-0.495
2021-08-19 23:13:22.800,-0.12,-0.49
2021-08-19 23:13:22.804,-0.12,-0.485
2021-08-19 23:13:22.808,-0.12,-0.48
2021-08-19 23:13:22.812,-0.11,-0.475
2021-08-19 23:13:22.816,-0.115,-0.48
2021-08-19 23:13:22.820,-0.13,-0.48
2021-08-19 23:13:22.824,-0.1,-0.48
2021-08-19 23:13:22.828,-0.105,-0.47
2021-08-19 23:13:22.832,-0.085,-0.475
2021-08-19 23:13:22.836,-0.1,-0.45
2021-08-19 23:13:22.840,-0.09,-0.46
2021-08-19 23:13:22.844,-0.095,-0.435
2021-08-19 23:13:22.848,-0.07,-0.425
2021-08-19 23:13:22.852,-0.095,-0.44
2021-08-19 23:13:22.856,-0.07,-0.44
2021-08-19 23:13:22.860,-0.09,-0.43
2021-08-19 23:13:22.864,-0.07,-0.43
2021-08-19 23:13:22.868,-0.085,-0.425
2021-08-19 23:13:22.872,-0.035,-0.42
2021-08-19 23:13:22.876,-0.05,-0.42
2021-08-19 23:13:22.880,-0.035,-0.41
2021-08-19 23:13:22.884,-0.04,-0.405
2021-08-19 23:13:22.888,-0.035,-0.39
2021-08-19 23:13:22.892,-0.03,-0.385
2021-08-19 23:13:22.896,-0.03,-0.37
2021-08-19 23:13:22.900,-0.01,-0.37
2021-08-19 23:13:22.904,0.0,-0.345
2021-08-19 23:13:22.908,0.01,-0.36
2021-08-19 23:13:22.912,0.035,-0.345
2021-08-19 23:13:22.916,0.025,-0.335
2021-08-19 23:13:22.920,0.04,-0.33
2021-08-19 23:13:22.924,0.05,-0.32
2021-08-19 23:13:22.928,0.05,-0.35
2021-08-19 23:13:22.932,0.05,-0.335
2021-08-19 23:13:22.936,0.055,-0.31
2021-08-19 23:13:22.940,0.06,-0.305
2021-08-19 23:13:22.944,0.065,-0.295
2021-08-19 23:13:22.948,0.055,-0.305
2021-08-19 23:13:22.952,0.07,-0.29
2021-08-19 23:13:22.956,0.065,-0.29
2021-08-19 23:13:22.960,0.055,-0.27
2021-08-19 23:13:22.964,0.05,-0.26
2021-08-19 23:13:22.968,0.035,-0.24
2021-08-19 23:13:22.972,0.05,-0.25
2021-08-19 23:13:22.976,0.035,-0.22
2021-08-19 23:13:22.980,0.04,-0.215
2021-08-19 23:13:22.984,0.03,-0.225
2021-08-19 23:13:22.988,0.03,-0.215
2021-08-19 23:13:22.992,0.0,-0.22
2021-08-19 23:13:22.996,-0.02,-0.21
2021-08-19 23:13:23.000,-0.01,-0.22
2021-08-19 23:13:23.004,-0.025,-0.205
2021-08-19 23:13:23.008,-0.05,-0.215
2021-08-19 23:13:23.012,-0.03,-0.23
2021-08-19 23:13:23.016,-0.04,-0.22
2021-08-19 23:13:23.020,-0.05,-0.225
2021-08-19 23:13:23.024,-0.05,-0.23
2021-08-19 23:13:23.028,-0.055,-0.22
2021-08-19 23:13:23.032,-0.06,-0.255
2021-08-19 23:13:23.036,-0.06,-0.23
2021-08-19 23:13:23.040,-0.08,-0.265
2021-08-19 23:13:23.044,-0.085,-0.27
2021-08-19 23:13:23.048,-0.1,-0.28
2021-08-19 23:13:23.052,-0.105,-0.3
2021-08-19 23:13:23.056,-0.1,-0.3
2021-08-19 23:13:23.060,-0.11,-0.32
2021-08-19 23:13:23.064,-0.11,-0.335
2021-08-19 23:13:23.068,-0.11,-0.33
2021-08-19 23:13:23.072,-0.12,-0.32
2021-08-19 23:13:23.076,-0.105,-0.325
2021-08-19 23:13:23.080,-0.115,-0.345
2021-08-19 23:13:23.084,-0.12,-0.345
2021-08-19 23:13:23.088,-0.115,-0.34
2021-08-19 23:13:23.092,-0.13,-0.355
2021-08-19 23:13:23.096,-0.12,-0.36
2021-08-19 23:13:23.100,-0.1,-0.33
2021-08-19 23:13:23.104,-0.11,-0.355
2021-08-19 23:13:23.108,-0.115,-0.355
2021-08-19 23:13:23.112,-0.1,-0.355
2021-08-19 23:13:23.116,-0.105,-0.35
2021-08-19 23:13:23.120,-0.12,-0.345
2021-08-19 23:13:23.124,-0.115,-0.33
2021-08-19 23:13:23.128,-0.09,-0.345
2021-08-19 23:13:23.132,-0.11,-0.35
2021-08-19 23:13:23.136,-0.11,-0.31
2021-08-19 23:13:23.140,-0.11,-0.315
2021-08-19 23:13:23.144,-0.095,-0.305
2021-08-19 23:13:23.148,-0.08,-0.3
2021-08-19 23:13:23.152,-0.09,-0.3
2021-08-19 23:13:23.156,-0.095,-0.29
2021-08-19 23:13:23.160,-0.1,-0.3
2021-08-19 23:13:23.164,-0.095,-0.3
2021-08-19 23:13:23.168,-0.1,-0.3
2021-08-19 23:13:23.172,-0.1,-0.31
2021-08-19 23:13:23.176,-0.09,-0.29
2021-08-19 23:13:23.180,-0.09,-0.3
2021-08-19 23:13:23.184,-0.105,-0.29
2021-08-19 23:13:23.188,-0.11,-0.305
2021-08-19 23:13:23.192,-0.13,-0.315
2021-08-19 23:13:23.196,-0.12,-0.3
2021-08-19 23:13:23.200,-0.12,-0.305
2021-08-19 23:13:23.204,-0.1,-0.305
2021-08-19 23:13:23.208,-0.125,-0.295
2021-08-19 23:13:23.212,-0.12,-0.32
2021-08-19 23:13:23.216,-0.12,-0.3
2021-08-19 23:13:23.220,-0.12,-0.31
2021-08-19 23:13:23.224,-0.13,-0.32
2021-08-19 23:13:23.228,-0.115,-0.31
2021-08-19 23:13:23.232,-0.11,-0.32
2021-08-19 23:13:23.236,-0.1,-0.305
2021-08-19 23:13:23.240,-0.125,-0.305
2021-08-19 23:13:23.244,-0.13,-0.33
2021-08-19 23:13:23.248,-0.13,-0.305
2021-08-19 23:13:23.252,-0.12,-0.31
2021-08-19 23:13:23.256,-0.14,-0.3
2021-08-19 23:13:23.260,-0.13,-0.305
2021-08-19 23:13:23.264,-0.13,-0.3
2021-08-19 23:13:23.268,-0.13,-0.31
2021-08-19 23:13:23.272,-0.12,-0.33
2021-08-19 23:13:23.276,-0.105,-0.325
2021-08-19 23:13:23.280,-0.11,-0.315
2021-08-19 23:13:23.284,-0.105,-0.335
2021-08-19 23:13:23.288,-0.105,-0.315
2021-08-19 23:13:23.292,-0.125,-0.305
2021-08-19 23:13:23.296,-0.12,-0.32
2021-08-19 23:13:23.300,-0.135,-0.34
2021-08-19 23:13:23.304,-0.095,-0.335
2021-08-19 23:13:23.308,-0.115,-0.32
2021-08-19 23:13:23.312,-0.11,-0.325
2021-08-19 23:13:23.316,-0.11,-0.32
2021-08-19 23:13:23.320,-0.125,-0.325
2021-08-19 23:13:23.324,-0.105,-0.325
2021-08-19 23:13:23.328,-0.12,-0.34
2021-08-19 23:13:23.332,-0.12,-0.31
2021-08-19 23:13:23.336,-0.12,-0.31
2021-08-19 23:13:23.340,-0.115,-0.315
2021-08-19 23:13:23.344,-0.11,-0.32
2021-08-19 23:13:23.348,-0.125,-0.315
2021-08-19 23:13:23.352,-0.12,-0.305
2021-08-19 23:13:23.356,-0.13,-0.31
2021-08-19 23:13:23.360,-0.125,-0.31
2021-08-19 23:13:23.364,-0.12,-0.32
2021-08-19 23:13:23.368,-0.13,-0.31
2021-08-19 23:13:23.372,-0.115,-0.325
2021-08-19 23:13:23.376,-0.12,-0.33
2021-08-19 23:13:23.380,-0.13,-0.32
2021-08-19 23:13:23.384,-0.12,-0.325
2021-08-19 23:13:23.388,-0.135,-0.31
2021-08-19 23:13:23.392,-0.13,-0.31
2021-08-19 23:13:23.396,-0.135,-0.31
2021-08-19 23:13:23.400,-0.13,-0.31
2021-08-19 23:13:23.404,-0.14,-0.31
2021-08-19 23:13:23.408,-0.115,-0.32
2021-08-19 23:13:23.412,-0.13,-0.315
2021-08-19 23:13:23.416,-0.135,-0.32
2021-08-19 23:13:23.420,-0.125,-0.32
2021-08-19 23:13:23.424,-0.13,-0.33
2021-08-19 23:13:23.428,-0.15,-0.31
2021-08-19 23:13:23.432,-0.14,-0.315
2021-08-19 23:13:23.436,-0.12,-0.32
2021-08-19 23:13:23.440,-0.135,-0.33
2021-08-19 23:13:23.444,-0.13,-0.32
2021-08-19 23:13:23.448,-0.135,-0.315
2021-08-19 23:13:23.452,-0.12,-0.32
2021-08-19 23:13:23.456,-0.125,-0.315
2021-08-19 23:13:23.460,-0.16,-0.32
2021-08-19 23:13:23.464,-0.14,-0.325
2021-08-19 23:13:23.468,-0.145,-0.31
2021-08-19 23:13:23.472,-0.13,-0.295
2021-08-19 23:13:23.476,-0.15,-0.3
2021-08-19 23:13:23.480,-0.145,-0.325
2021-08-19 23:13:23.484,-0.14,-0.305
2021-08-19 23:13:23.488,-0.14,-0.31
2021-08-19 23:13:23.492,-0.165,-0.305
2021-08-19 23:13:23.496,-0.13,-0.32
2021-08-19 23:13:23.500,-0.145,-0.33
2021-08-19 23:13:23.504,-0.125,-0.315
2021-08-19 23:13:23.508,-0.13,-0.31
2021-08-19 23:13:23.512,-0.12,-0.3
2021-08-19 23:13:23.516,-0.135,-0.31
2021-08-19 23:13:23.520,-0.145,-0.3
2021-08-19 23:13:23.524,-0.14,-0.325
2021-08-19 23:13:23.528,-0.14,-0.32
2021-08-19 23:13:23.532,-0.145,-0.32
2021-08-19 23:13:23.536,-0.155,-0.32
2021-08-19 23:13:23.540,-0.135,-0.315
2021-08-19 23:13:23.544,-0.125,-0.315
2021-08-19 23:13:23.548,-0.13,-0.3
2021-08-19 23:13:23.552,-0.145,-0.31
2021-08-19 23:13:23.556,-0.135,-0.32
2021-08-19 23:13:23.560,-0.11,-0.3
2021-08-19 23:13:23.564,-0.125,-0.26
2021-08-19 23:13:23.568,-0.125,-0.265
2021-08-19 23:13:23.572,-0.11,-0.235
2021-08-19 23:13:23.576,-0.1,-0.24
2021-08-19 23:13:23.580,-0.11,-0.22
2021-08-19 23:13:23.584,-0.08,-0.22
2021-08-19 23:13:23.588,-0.07,-0.23
2021-08-19 23:13:23.592,-0.065,-0.2
2021-08-19 23:13:23.596,-0.055,-0.195
2021-08-19 23:13:23.600,-0.07,-0.18
2021-08-19 23:13:23.604,-0.06,-0.18
2021-08-19 23:13:23.608,-0.07,-0.175
2021-08-19 23:13:23.612,-0.09,-0.18
2021-08-19 23:13:23.616,-0.065,-0.18
2021-08-19 23:13:23.620,-0.09,-0.2
2021-08-19 23:13:23.624,-0.11,-0.215
2021-08-19 23:13:23.628,-0.1,-0.23
2021-08-19 23:13:23.632,-0.12,-0.245
2021-08-19 23:13:23.636,-0.1,-0.23
2021-08-19 23:13:23.640,-0.135,-0.245
2021-08-19 23:13:23.644,-0.135,-0.235
2021-08-19 23:13:23.648,-0.135,-0.24
2021-08-19 23:13:23.652,-0.145,-0.255
2021-08-19 23:13:23.656,-0.15,-0.27
2021-08-19 23:13:23.660,-0.11,-0.295
2021-08-19 23:13:23.664,-0.11,-0.31
2021-08-19 23:13:23.668,-0.11,-0.335
2021-08-19 23:13:23.672,-0.125,-0.37
2021-08-19 23:13:23.676,-0.16,-0.345
2021-08-19 23:13:23.680,-0.125,-0.345
2021-08-19 23:13:23.684,-0.14,-0.35
2021-08-19 23:13:23.688,-0.14,-0.36
2021-08-19 23:13:23.692,-0.13,-0.36
2021-08-19 23:13:23.696,-0.155,-0.35
2021-08-19 23:13:23.700,-0.135,-0.345
2021-08-19 23:13:23.704,-0.15,-0.36
2021-08-19 23:13:23.708,-0.125,-0.34
2021-08-19 23:13:23.712,-0.135,-0.35
2021-08-19 23:13:23.716,-0.12,-0.325
2021-08-19 23:13:23.720,-0.13,-0.35
2021-08-19 23:13:23.724,-0.135,-0.36
2021-08-19 23:13:23.728,-0.135,-0.39
2021-08-19 23:13:23.732,-0.12,-0.475
2021-08-19 23:13:23.736,-0.11,-0.59
2021-08-19 23:13:23.740,-0.105,-0.66
2021-08-19 23:13:23.744,-0.095,-0.53
2021-08-19 23:13:23.748,-0.14,-0.21
2021-08-19 23:13:23.752,-0.09,0.265
2021-08-19 23:13:23.756,-0.025,0.86
2021-08-19 23:13:23.760,0.085,1.555
,2.0,2.0
,2.0,2.0
,2.0,2.0
,2.0,2.0
2021-08-19 23:13:23.780,0.37,1.595
2021-08-19 23:13:23.784,0.26,1.01
2021-08-19 23:13:23.788,0.07,0.555
2021-08-19 23:13:23.792,-0.09,0.225
2021-08-19 23:13:23.796,-0.205,0.04
2021-08-19 23:13:23.800,-0.255,-0.045
2021-08-19 23:13:23.804,-0.205,-0.12
2021-08-19 23:13:23.808,-0.14,-0.21
2021-08-19 23:13:23.812,-0.105,-0.265
2021-08-19 23:13:23.816,-0.08,-0.315
2021-08-19 23:13:23.820,-0.095,-0.355
2021-08-19 23:13:23.824,-0.085,-0.385
2021-08-19 23:13:23.828,-0.11,-0.385
2021-08-19 23:13:23.832,-0.09,-0.405
2021-08-19 23:13:23.836,-0.08,-0.415
2021-08-19 23:13:23.840,-0.105,-0.415
2021-08-19 23:13:23.844,-0.1,-0.43
2021-08-19 23:13:23.848,-0.1,-0.435
2021-08-19 23:13:23.852,-0.095,-0.45
2021-08-19 23:13:23.856,-0.105,-0.455
2021-08-19 23:13:23.860,-0.085,-0.445
2021-08-19 23:13:23.864,-0.095,-0.42
2021-08-19 23:13:23.868,-0.085,-0.445
2021-08-19 23:13:23.872,-0.075,-0.435
2021-08-19 23:13:23.876,-0.075,-0.43
2021-08-19 23:13:23.880,-0.07,-0.44
2021-08-19 23:13:23.884,-0.07,-0.435
2021-08-19 23:13:23.888,-0.065,-0.43
2021-08-19 23:13:23.892,-0.055,-0.43
2021-08-19 23:13:23.896,-0.065,-0.44
2021-08-19 23:13:23.900,-0.075,-0.425
2021-08-19 23:13:23.904,-0.07,-0.44
2021-08-19 23:13:23.908,-0.065,-0.43
2021-08-19 23:13:23.912,-0.06,-0.45
2021-08-19 23:13:23.916,-0.045,-0.44
2021-08-19 23:13:23.920,-0.055,-0.44
2021-08-19 23:13:23.924,-0.03,-0.42
2021-08-19 23:13:23.928,-0.025,-0.41
2021-08-19 23:13:23.932,-0.03,-0.425
2021-08-19 23:13:23.936,-0.02,-0.41
2021-08-19 23:13:23.940,-0.015,-0.41
2021-08-19 23:13:23.944,-0.035,-0.41
2021-08-19 23:13:23.948,-0.02,-0.41
2021-08-19 23:13:23.952,-0.015,-0.4
2021-08-19 23:13:23.956,0.0,-0.38
2021-08-19 23:13:23.960,0.01,-0.38
2021-08-19 23:13:23.964,-0.005,-0.39
2021-08-19 23:13:23.968,0.015,-0.38
2021-08-19 23:13:23.972,0.015,-0.385
2021-08-19 23:13:23.976,0.015,-0.38
2021-08-19 23:13:23.980,0.03,-0.37
2021-08-19 23:13:23.984,0.03,-0.365
2021-08-19 23:13:23.988,0.045,-0.355
2021-08-19 23:13:23.992,0.045,-0.36
2021-08-19 23:13:23.996,0.055,-0.335
2021-08-19 23:13:24.000,0.06,-0.335
2021-08-19 23:13:24.004,0.07,-0.335
2021-08-19 23:13:24.008,0.09,-0.345
2021-08-19 23:13:24.012,0.095,-0.305
2021-08-19 23:13:24.016,0.11,-0.31
2021-08-19 23:13:24.020,0.11,-0.32
2021-08-19 23:13:24.024,0.115,-0.28
2021-08-19 23:13:24.028,0.115,-0.275
2021-08-19 23:13:24.032,0.14,-0.275
2021-08-19 23:13:24.036,0.145,-0.275
2021-08-19 23:13:24.040,0.155,-0.25
2021-08-19 23:13:24.044,0.15,-0.225
2021-08-19 23:13:24.048,0.145,-0.225
2021-08-19 23:13:24.052,0.155,-0.2
2021-08-19 23:13:24.056,0.165,-0.215
2021-08-19 23:13:24.060,0.14,-0.195
2021-08-19 23:13:24.064,0.17,-0.185
2021-08-19 23:13:24.068,0.165,-0.185
2021-08-19 23:13:24.072,0.16,-0.175
2021-08-19 23:13:24.076,0.15,-0.155
2021-08-19 23:13:24.080,0.15,-0.14
2021-08-19 23:13:24.084,0.16,-0.145
2021-08-19 23:13:24.088,0.135,-0.13
2021-08-19 23:13:24.092,0.115,-0.135
2021-08-19 23:13:24.096,0.11,-0.135
2021-08-19 23:13:24.100,0.095,-0.12
2021-08-19 23:13:24.104,0.1,-0.115
2021-08-19 23:13:24.108,0.08,-0.135
2021-08-19 23:13:24.112,0.06,-0.105
2021-08-19 23:13:24.116,0.065,-0.115
2021-08-19 23:13:24.120,0.035,-0.115
2021-08-19 23:13:24.124,0.015,-0.14
2021-08-19 23:13:24.128,0.01,-0.145
2021-08-19 23:13:24.132,-0.01,-0.15
2021-08-19 23:13:24.136,-0.01,-0.16
2021-08-19 23:13:24.140,-0.03,-0.17
2021-08-19 23:13:24.144,-0.025,-0.17
2021-08-19 23:13:24.148,-0.03,-0.215
2021-08-19 23:13:24.152,-0.035,-0.205
2021-08-19 23:13:24.156,-0.055,-0.215
2021-08-19 23:13:24.160,-0.045,-0.205
2021-08-19 23:13:24.164,-0.06,-0.225
2021-08-19 23:13:24.168,-0.045,-0.22
2021-08-19 23:13:24.172,-0.055,-0.215
2021-08-19 23:13:24.176,-0.045,-0.235
2021-08-19 23:13:24.180,-0.055,-0.25
2021-08-19 23:13:24.184,-0.055,-0.25
2021-08-19 23:13:24.188,-0.055,-0.285
2021-08-19 23:13:24.192,-0.05,-0.285
2021-08-19 23:13:24.196,-0.06,-0.285
2021-08-19 23:13:24.200,-0.06,-0.285
2021-08-19 23:13:24.204,-0.065,-0.295
2021-08-19 23:13:24.208,-0.055,-0.32
2021-08-19 23:13:24.212,-0.055,-0.305
2021-08-19 23:13:24.216,-0.06,-0.305
2021-08-19 23:13:24.220,-0.055,-0.315
2021-08-19 23:13:24.224,-0.06,-0.33
2021-08-19 23:13:24.228,-0.05,-0.325
2021-08-19 23:13:24.232,-0.075,-0.325
2021-08-19 23:13:24.236,-0.06,-0.32
2021-08-19 23:13:24.240,-0.07,-0.32
2021-08-19 23:13:24.244,-0.055,-0.3
2021-08-19 23:13:24.248,-0.06,-0.29
2021-08-19 23:13:24.252,-0.045,-0.29
2021-08-19 23:13:24.256,-0.075,-0.285
2021-08-19 23:13:24.260,-0.055,-0.29
2021-08-19 23:13:24.264,-0.06,-0.29
2021-08-19 23:13:24.268,-0.065,-0.285
2021-08-19 23:13:24.272,-0.065,-0.305
2021-08-19 23:13:24.276,-0.07,-0.29
2021-08-19 23:13:24.280,-0.065,-0.285
2021-08-19 23:13:24.284,-0.06,-0.3
2021-08-19 23:13:24.288,-0.055,-0.275
2021-08-19 23:13:24.292,-0.075,-0.285
2021-08-19 23:13:24.296,-0.09,-0.29
2021-08-19 23:13:24.300,-0.055,-0.285
2021-08-19 23:13:24.304,-0.055,-0.275
2021-08-19 23:13:24.308,-0.07,-0.275
2021-08-19 23:13:24.312,-0.07,-0.265
2021-08-19 23:13:24.316,-0.08,-0.28
2021-08-19 23:13:24.320,-0.09,-0.27
2021-08-19 23:13:24.324,-0.075,-0.3
2021-08-19 23:13:24.328,-0.08,-0.27
2021-08-19 23:13:24.332,-0.08,-0.28
2021-08-19 23:13:24.336,-0.1,-0.28
2021-08-19 23:13:24.340,-0.1,-0.275
2021-08-19 23:13:24.344,-0.095,-0.29
2021-08-19 23:13:24.348,-0.085,-0.295
2021-08-19 23:13:24.352,-0.085,-0.285
2021-08-19 23:13:24.356,-0.095,-0.3
2021-08-19 23:13:24.360,-0.075,-0.295
2021-08-19 23:13:24.364,-0.095,-0.305
2021-08-19 23:13:24.368,-0.065,-0.31
2021-08-19 23:13:24.372,-0.09,-0.3
2021-08-19 23:13:24.376,-0.1,-0.295
2021-08-19 23:13:24.380,-0.08,-0.3
2021-08-19 23:13:24.384,-0.08,-0.3
2021-08-19 23:13:24.388,-0.075,-0.32
2021-08-19 23:13:24.392,-0.085,-0.28
2021-08-19 23:13:24.396,-0.09,-0.29
2021-08-19 23:13:24.400,-0.1,-0.275
2021-08-19 23:13:24.404,-0.09,-0.28
2021-08-19 23:13:24.408,-0.08,-0.3
2021-08-19 23:13:24.412,-0.105,-0.3
2021-08-19 23:13:24.416,-0.11,-0.295
2021-08-19 23:13:24.420,-0.1,-0.28
2021-08-19 23:13:24.424,-0.095,-0.31
2021-08-19 23:13:24.428,-0.1,-0.32
2021-08-19 23:13:24.432,-0.11,-0.32
2021-08-19 23:13:24.436,-0.11,-0.315
2021-08-19 23:13:24.440,-0.11,-0.305
2021-08-19 23:13:24.444,-0.105,-0.305
2021-08-19 23:13:24.448,-0.1,-0.29
2021-08-19 23:13:24.452,-0.105,-0.29
2021-08-19 23:13:24.456,-0.11,-0.295
2021-08-19 23:13:24.460,-0.125,-0.325
2021-08-19 23:13:24.464,-0.11,-0.305
2021-08-19 23:13:24.468,-0.12,-0.32
2021-08-19 23:13:24.472,-0.125,-0.305
2021-08-19 23:13:24.476,-0.135,-0.3
2021-08-19 23:13:24.480,-0.105,-0.3
2021-08-19 23:13:24.484,-0.125,-0.295
2021-08-19 23:13:24.488,-0.135,-0.295
2021-08-19 23:13:24.492,-0.125,-0.31
2021-08-19 23:13:24.496,-0.13,-0.3
2021-08-19 23:13:24.500,-0.125,-0.315
2021-08-19 23:13:24.504,-0.12,-0.305
2021-08-19 23:13:24.508,-0.115,-0.29
2021-08-19 23:13:24.512,-0.13,-0.305
2021-08-19 23:13:24.516,-0.135,-0.325
2021-08-19 23:13:24.520,-0.125,-0.305
2021-08-19 23:13:24.524,-0.11,-0.31
2021-08-19 23:13:24.528,-0.115,-0.285
2021-08-19 23:13:24.532,-0.11,-0.305
2021-08-19 23:13:24.536,-0.125,-0.3
2021-08-19 23:13:24.540,-0.105,-0.29
2021-08-19 23:13:24.544,-0.12,-0.29
2021-08-19 23:13:24.548,-0.115,-0.285
2021-08-19 23:13:24.552,-0.105,-0.3
2021-08-19 23:13:24.556,-0.12,-0.32
2021-08-19 23:13:24.560,-0.11,-0.315
2021-08-19 23:13:24.564,-0.125,-0.31
2021-08-19 23:13:24.568,-0.12,-0.295
2021-08-19 23:13:24.572,-0.115,-0.3
2021-08-19 23:13:24.576,-0.11,-0.295
2021-08-19 23:13:24.580,-0.105,-0.295
2021-08-19 23:13:24.584,-0.12,-0.295
2021-08-19 23:13:24.588,-0.145,-0.305
2021-08-19 23:13:24.592,-0.125,-0.305
2021-08-19 23:13:24.596,-0.11,-0.275
2021-08-19 23:13:24.600,-0.11,-0.275
2021-08-19 23:13:24.604,-0.1,-0.305
2021-08-19 23:13:24.608,-0.13,-0.295
2021-08-19 23:13:24.612,-0.11,-0.295
2021-08-19 23:13:24.616,-0.1,-0.265
2021-08-19 23:13:24.620,-0.1,-0.27
2021-08-19 23:13:24.624,-0.105,-0.28
2021-08-19 23:13:24.628,-0.105,-0.29
2021-08-19 23:13:24.632,-0.115,-0.275
2021-08-19 23:13:24.636,-0.09,-0.28
2021-08-19 23:13:24.640,-0.115,-0.285
2021-08-19 23:13:24.644,-0.085,-0.3
2021-08-19 23:13:24.648,-0.095,-0.29
2021-08-19 23:13:24.652,-0.12,-0.28
2021-08-19 23:13:24.656,-0.105,-0.295
2021-08-19 23:13:24.660,-0.1,-0.28
2021-08-19 23:13:24.664,-0.125,-0.275
2021-08-19 23:13:24.668,-0.115,-0.305
2021-08-19 23:13:24.672,-0.11,-0.295
2021-08-19 23:13:24.676,-0.125,-0.28
2021-08-19 23:13:24.680,-0.125,-0.275
2021-08-19 23:13:24.684,-0.11,-0.3
2021-08-19 23:13:24.688,-0.115,-0.285
2021-08-19 23:13:24.692,-0.105,-0.295
2021-08-19 23:13:24.696,-0.115,-0.295
2021-08-19 23:13:24.700,-0.115,-0.29
2021-08-19 23:13:24.704,-0.105,-0.265
2021-08-19 23:13:24.708,-0.085,-0.245
2021-08-19 23:13:24.712,-0.09,-0.22
2021-08-19 23:13:24.716,-0.1,-0.225
2021-08-19 23:13:24.720,-0.1,-0.22
2021-08-19 23:13:24.724,-0.105,-0.2
2021-08-19 23:13:24.728,-0.08,-0.2
2021-08-19 23:13:24.732,-0.055,-0.21
2021-08-19 23:13:24.736,-0.065,-0.19
2021-08-19 23:13:24.740,-0.06,-0.185
2021-08-19 23:13:24.744,-0.04,-0.16
2021-08-19 23:13:24.748,-0.05,-0.14
2021-08-19 23:13:24.752,-0.06,-0.135
2021-08-19 23:13:24.756,-0.05,-0.155
2021-08-19 23:13:24.760,-0.085,-0.175
2021-08-19 23:13:24.764,-0.08,-0.19
2021-08-19 23:13:24.768,-0.06,-0.21
2021-08-19 23:13:24.772,-0.115,-0.22
2021-08-19 23:13:24.776,-0.115,-0.22
2021-08-19 23:13:24.780,-0.115,-0.21
2021-08-19 23:13:24.784,-0.135,-0.21
2021-08-19 23:13:24.788,-0.13,-0.22
2021-08-19 23:13:24.792,-0.13,-0.225
2021-08-19 23:13:24.796,-0.11,-0.23
2021-08-19 23:13:24.800,-0.12,-0.24
2021-08-19 23:13:24.804,-0.1,-0.275
2021-08-19 23:13:24.808,-0.09,-0.295
2021-08-19 23:13:24.812,-0.095,-0.315
2021-08-19 23:13:24.816,-0.1,-0.33
2021-08-19 23:13:24.820,-0.125,-0.33
2021-08-19 23:13:24.824,-0.095,-0.32
2021-08-19 23:13:24.828,-0.11,-0.315
2021-08-19 23:13:24.832,-0.125,-0.31
2021-08-19 23:13:24.836,-0.125,-0.32
2021-08-19 23:13:24.840,-0.12,-0.3
2021-08-19 23:13:24.844,-0.11,-0.31
2021-08-19 23:13:24.848,-0.105,-0.305
2021-08-19 23:13:24.852,-0.12,-0.32
2021-08-19 23:13:24.856,-0.125,-0.34
2021-08-19 23:13:24.860,-0.105,-0.315
2021-08-19 23:13:24.864,-0.12,-0.32
2021-08-19 23:13:24.868,-0.11,-0.37
2021-08-19 23:13:24.872,-0.105,-0.425
2021-08-19 23:13:24.876,-0.085,-0.53
2021-08-19 23:13:24.880,-0.105,-0.595
2021-08-19 23:13:24.884,-0.095,-0.49
2021-08-19 23:13:24.888,-0.095,-0.175
2021-08-19 23:13:24.892,-0.07,0.255
2021-08-19 23:13:24.896,0.0,0.855
2021-08-19 23:13:24.900,0.09,1.485
,2.0,2.0
,2.0,2.0
,2.0,2.0
,2.0,2.0
2021-08-19 23:13:24.920,0.35,1.525
2021-08-19 23:13:24.924,0.25,0.935
2021-08-19 23:13:24.928,0.1,0.525
2021-08-19 23:13:24.932,-0.075,0.245
2021-08-19 23:13:24.936,-0.16,0.08
2021-08-19 23:13:24.940,-0.23,-0.025
2021-08-19 23:13:24.944,-0.17,-0.085
2021-08-19 23:13:24.948,-0.15,-0.175
2021-08-19 23:13:24.952,-0.105,-0.245
2021-08-19 23:13:24.956,-0.065,-0.26
2021-08-19 23:13:24.960,-0.04,-0.28
2021-08-19 23:13:24.964,-0.06,-0.31
2021-08-19 23:13:24.968,-0.06,-0.33
2021-08-19 23:13:24.972,-0.085,-0.345
2021-08-19 23:13:24.976,-0.07,-0.375
2021-08-19 23:13:24.980,-0.065,-0.38
2021-08-19 23:13:24.984,-0.06,-0.395
2021-08-19 23:13:24.988,-0.04,-0.39
2021-08-19 23:13:24.992,-0.065,-0.37
2021-08-19 23:13:24.996,-0.045,-0.4
2021-08-19 23:13:25.000,-0.045,-0.405
2021-08-19 23:13:25.004,-0.03,-0.395
2021-08-19 23:13:25.008,-0.06,-0.385
2021-08-19 23:13:25.012,-0.06,-0.39
2021-08-19 23:13:25.016,-0.055,-0.38
2021-08-19 23:13:25.020,-0.05,-0.375
2021-08-19 23:13:25.024,-0.04,-0.395
2021-08-19 23:13:25.028,-0.05,-0.385
2021-08-19 23:13:25.032,-0.04,-0.395
2021-08-19 23:13:25.036,-0.045,-0.395
2021-08-19 23:13:25.040,-0.04,-0.41
2021-08-19 23:13:25.044,-0.035,-0.405
2021-08-19 23:13:25.048,-0.025,-0.4
2021-08-19 23:13:25.052,-0.03,-0.4
2021-08-19 23:13:25.056,-0.04,-0.395
2021-08-19 23:13:25.060,-0.03,-0.395
2021-08-19 23:13:25.064,-0.04,-0.395
2021-08-19 23:13:25.068,-0.03,-0.405
2021-08-19 23:13:25.072,-0.05,-0.395
2021-08-19 23:13:25.076,-0.01,-0.395
2021-08-19 23:13:25.080,-0.02,-0.395
2021-08-19 23:13:25.084,-0.015,-0.385
2021-08-19 23:13:25.088,-0.01,-0.38
2021-08-19 23:13:25.092,-0.005,-0.39
2021-08-19 23:13:25.096,-0.015,-0.4
2021-08-19 23:13:25.100,-0.01,-0.375
2021-08-19 23:13:25.104,-0.01,-0.36
2021-08-19 23:13:25.108,0.01,-0.36
2021-08-19 23:13:25.112,0.02,-0.365
2021-08-19 23:13:25.116,0.01,-0.38
2021-08-19 23:13:25.120,0.02,-0.36
2021-08-19 23:13:25.124,0.03,-0.36
2021-08-19 23:13:25.128,0.025,-0.345
2021-08-19 23:13:25.132,0.03,-0.33
2021-08-19 23:13:25.136,0.045,-0.34
2021-08-19 23:13:25.140,0.065,-0.335
2021-08-19 23:13:25.144,0.055,-0.335
2021-08-19 23:13:25.148,0.075,-0.315
2021-08-19 23:13:25.152,0.08,-0.315
2021-08-19 23:13:25.156,0.085,-0.285
2021-08-19 23:13:25.160,0.095,-0.275
2021-08-19 23:13:25.164,0.11,-0.265
2021-08-19 23:13:25.168,0.125,-0.26
2021-08-19 23:13:25.172,0.14,-0.265
2021-08-19 23:13:25.176,0.135,-0.26
2021-08-19 23:13:25.180,0.14,-0.245
2021-08-19 23:13:25.184,0.155,-0.25
2021-08-19 23:13:25.188,0.15,-0.25
2021-08-19 23:13:25.192,0.16,-0.225
2021-08-19 23:13:25.196,0.145,-0.2
2021-08-19 23:13:25.200,0.155,-0.195
2021-08-19 23:13:25.204,0.155,-0.17
2021-08-19 23:13:25.208,0.125,-0.145
2021-08-19 23:13:25.212,0.135,-0.16
2021-08-19 23:13:25.216,0.115,-0.15
2021-08-19 23:13:25.220,0.115,-0.14
2021-08-19 23:13:25.224,0.1,-0.14
2021-08-19 23:13:25.228,0.11,-0.145
2021-08-19 23:13:25.232,0.12,-0.135
2021-08-19 23:13:25.236,0.09,-0.125
2021-08-19 23:13:25.240,0.095,-0.14
2021-08-19 23:13:25.244,0.06,-0.13
2021-08-19 23:13:25.248,0.055,-0.145
2021-08-19 23:13:25.252,0.025,-0.145
2021-08-19 23:13:25.256,0.03,-0.15
2021-08-19 23:13:25.260,0.025,-0.15
2021-08-19 23:13:25.264,0.015,-0.155
2021-08-19 23:13:25.268,0.015,-0.16
2021-08-19 23:13:25.272,-0.005,-0.175
2021-08-19 23:13:25.276,-0.025,-0.185
2021-08-19 23:13:25.280,-0.025,-0.21
2021-08-19 23:13:25.284,-0.03,-0.225
2021-08-19 23:13:25.288,-0.02,-0.235
2021-08-19 23:13:25.292,-0.025,-0.23
2021-08-19 23:13:25.296,-0.03,-0.25
2021-08-19 23:13:25.300,-0.045,-0.28
2021-08-19 23:13:25.304,-0.06,-0.28
2021-08-19 23:13:25.308,-0.04,-0.285
2021-08-19 23:13:25.312,-0.055,-0.285
2021-08-19 23:13:25.316,-0.05,-0.29
2021-08-19 23:13:25.320,-0.02,-0.275
2021-08-19 23:13:25.324,-0.04,-0.28
2021-08-19 23:13:25.328,-0.035,-0.31
2021-08-19 23:13:25.332,-0.055,-0.305
2021-08-19 23:13:25.336,-0.04,-0.3
2021-08-19 23:13:25.340,-0.04,-0.32
2021-08-19 23:13:25.344,-0.035,-0.325
2021-08-19 23:13:25.348,-0.055,-0.325
2021-08-19 23:13:25.352,-0.045,-0.315
2021-08-19 23:13:25.356,-0.03,-0.295
2021-08-19 23:13:25.360,-0.055,-0.3
2021-08-19 23:13:25.364,-0.055,-0.33
2021-08-19 23:13:25.368,-0.055,-0.32
2021-08-19 23:13:25.372,-0.035,-0.3
2021-08-19 23:13:25.376,-0.02,-0.3
2021-08-19 23:13:25.380,-0.045,-0.31
2021-08-19 23:13:25.384,-0.055,-0.305
2021-08-19 23:13:25.388,-0.05,-0.295
2021-08-19 23:13:25.392,-0.04,-0.31
2021-08-19 23:13:25.396,-0.045,-0.3
2021-08-19 23:13:25.400,-0.045,-0.3
2021-08-19 23:13:25.404,-0.045,-0.31
2021-08-19 23:13:25.408,-0.055,-0.29
2021-08-19 23:13:25.412,-0.05,-0.295
2021-08-19 23:13:25.416,-0.07,-0.29
2021-08-19 23:13:25.420,-0.07,-0.28
2021-08-19 23:13:25.424,-0.06,-0.285
2021-08-19 23:13:25.428,-0.06,-0.275
2021-08-19 23:13:25.432,-0.06,-0.3
2021-08-19 23:13:25.436,-0.06,-0.315
2021-08-19 23:13:25.440,-0.055,-0.325
2021-08-19 23:13:25.444,-0.06,-0.3
2021-08-19 23:13:25.448,-0.08,-0.305
2021-08-19 23:13:25.452,-0.08,-0.31
2021-08-19 23:13:25.456,-0.065,-0.325
2021-08-19 23:13:25.460,-0.06,-0.3
2021-08-19 23:13:25.464,-0.05,-0.32
2021-08-19 23:13:25.468,-0.075,-0.315
2021-08-19 23:13:25.472,-0.06,-0.305
2021-08-19 23:13:25.476,-0.105,-0.315
2021-08-19 23:13:25.480,-0.1,-0.31
2021-08-19 23:13:25.484,-0.1,-0.31
2021-08-19 23:13:25.488,-0.095,-0.3
2021-08-19 23:13:25.492,-0.065,-0.315
2021-08-19 23:13:25.496,-0.095,-0.295
2021-08-19 23:13:25.500,-0.085,-0.31
2021-08-19 23:13:25.504,-0.105,-0.32
2021-08-19 23:13:25.508,-0.095,-0.32
2021-08-19 23:13:25.512,-0.1,-0.315
2021-08-19 23:13:25.516,-0.1,-0.315
2021-08-19 23:13:25.520,-0.105,-0.325
2021-08-19 23:13:25.524,-0.08,-0.305
2021-08-19 23:13:25.528,-0.095,-0.3
2021-08-19 23:13:25.532,-0.095,-0.32
2021-08-19 23:13:25.536,-0.11,-0.33
2021-08-19 23:13:25.540,-0.105,-0.315
2021-08-19 23:13:25.544,-0.1,-0.305
2021-08-19 23:13:25.548,-0.095,-0.3
2021-08-19 23:13:25.552,-0.085,-0.32
2021-08-19 23:13:25.556,-0.105,-0.32
2021-08-19 23:13:25.560,-0.11,-0.315
2021-08-19 23:13:25.564,-0.085,-0.32
2021-08-19 23:13:25.568,-0.11,-0.325
2021-08-19 23:13:25.572,-0.1,-0.31
2021-08-19 23:13:25.576,-0.09,-0.315
2021-08-19 23:13:25.580,-0.1,-0.32
2021-08-19 23:13:25.584,-0.105,-0.315
2021-08-19 23:13:25.588,-0.105,-0.315
2021-08-19 23:13:25.592,-0.1,-0.335
2021-08-19 23:13:25.596,-0.105,-0.32
2021-08-19 23:13:25.600,-0.08,-0.325
2021-08-19 23:13:25.604,-0.09,-0.32
2021-08-19 23:13:25.608,-0.105,-0.33
2021-08-19 23:13:25.612,-0.105,-0.31
2021-08-19 23:13:25.616,-0.09,-0.325
2021-08-19 23:13:25.620,-0.1,-0.32
2021-08-19 23:13:25.624,-0.115,-0.325
2021-08-19 23:13:25.628,-0.09,-0.325
2021-08-19 23:13:25.632,-0.095,-0.33
2021-08-19 23:13:25.636,-0.095,-0.31
2021-08-19 23:13:25.640,-0.12,-0.33
2021-08-19 23:13:25.644,-0.075,-0.325
2021-08-19 23:13:25.648,-0.09,-0.31
2021-08-19 23:13:25.652,-0.09,-0.305
2021-08-19 23:13:25.656,-0.095,-0.335
2021-08-19 23:13:25.660,-0.115,-0.335
2021-08-19 23:13:25.664,-0.105,-0.345
2021-08-19 23:13:25.668,-0.095,-0.33
2021-08-19 23:13:25.672,-0.095,-0.33
2021-08-19 23:13:25.676,-0.11,-0.32
2021-08-19 23:13:25.680,-0.1,-0.36
2021-08-19 23:13:25.684,-0.095,-0.34
2021-08-19 23:13:25.688,-0.11,-0.32
2021-08-19 23:13:25.692,-0.08,-0.33
2021-08-19 23:13:25.696,-0.085,-0.335
2021-08-19 23:13:25.700,-0.1,-0.325
2021-08-19 23:13:25.704,-0.095,-0.32
2021-08-19 23:13:25.708,-0.075,-0.315
2021-08-19 23:13:25.712,-0.09,-0.32
2021-08-19 23:13:25.716,-0.095,-0.335
2021-08-19 23:13:25.720,-0.115,-0.33
2021-08-19 23:13:25.724,-0.1,-0.325
2021-08-19 23:13:25.728,-0.085,-0.335
2021-08-19 23:13:25.732,-0.08,-0.315
2021-08-19 23:13:25.736,-0.1,-0.325
2021-08-19 23:13:25.740,-0.095,-0.33
2021-08-19 23:13:25.744,-0.095,-0.335
2021-08-19 23:13:25.748,-0.095,-0.31
2021-08-19 23:13:25.752,-0.09,-0.315
2021-08-19 23:13:25.756,-0.09,-0.305
2021-08-19 23:13:25.760,-0.095,-0.32
2021-08-19 23:13:25.764,-0.095,-0.32
2021-08-19 23:13:25.768,-0.11,-0.305
2021-08-19 23:13:25.772,-0.08,-0.31
2021-08-19 23:13:25.776,-0.07,-0.29
2021-08-19 23:13:25.780,-0.07,-0.275
2021-08-19 23:13:25.784,-0.08,-0.265
2021-08-19 23:13:25.788,-0.06,-0.23
2021-08-19 23:13:25.792,-0.065,-0.25
2021-08-19 23:13:25.796,-0.04,-0.25
2021-08-19 23:13:25.800,-0.045,-0.255
2021-08-19 23:13:25.804,-0.05,-0.22
2021-08-19 23:13:25.808,-0.025,-0.215
2021-08-19 23:13:25.812,-0.03,-0.18
2021-08-19 23:13:25.816,-0.025,-0.17
2021-08-19 23:13:25.820,-0.03,-0.17
2021-08-19 23:13:25.824,-0.045,-0.17
2021-08-19 23:13:25.828,-0.04,-0.205
2021-08-19 23:13:25.832,-0.045,-0.21
2021-08-19 23:13:25.836,-0.075,-0.24
2021-08-19 23:13:25.840,-0.095,-0.225
2021-08-19 23:13:25.844,-0.1,-0.25
2021-08-19 23:13:25.848,-0.085,-0.25
2021-08-19 23:13:25.852,-0.1,-0.245
2021-08-19 23:13:25.856,-0.1,-0.25
2021-08-19 23:13:25.860,-0.08,-0.26
2021-08-19 23:13:25.864,-0.07,-0.265
2021-08-19 23:13:25.868,-0.1,-0.28
2021-08-19 23:13:25.872,-0.075,-0.325
2021-08-19 23:13:25.876,-0.075,-0.355
2021-08-19 23:13:25.880,-0.095,-0.36
2021-08-19 23:13:25.884,-0.075,-0.38
2021-08-19 23:13:25.888,-0.095,-0.36
2021-08-19 23:13:25.892,-0.07,-0.355
2021-08-19 23:13:25.896,-0.08,-0.375
2021-08-19 23:13:25.900,-0.1,-0.345
2021-08-19 23:13:25.904,-0.085,-0.36
2021-08-19 23:13:25.908,-0.085,-0.355
2021-08-19 23:13:25.912,-0.08,-0.355
2021-08-19 23:13:25.916,-0.095,-0.355
2021-08-19 23:13:25.920,-0.075,-0.35
2021-08-19 23:13:25.924,-0.06,-0.325
2021-08-19 23:13:25.928,-0.065,-0.33
2021-08-19 23:13:25.932,-0.055,-0.335
2021-08-19 23:13:25.936,-0.075,-0.355
2021-08-19 23:13:25.940,-0.08,-0.425
2021-08-19 23:13:25.944,-0.06,-0.53
2021-08-19 23:13:25.948,-0.035,-0.61
2021-08-19 23:13:25.952,-0.05,-0.575
2021-08-19 23:13:25.956,-0.055,-0.36
2021-08-19 23:13:25.960,-0.04,0.015
2021-08-19 23:13:25.964,0.005,0.52
2021-08-19 23:13:25.968,0.1,1.12
2021-08-19 23:13:25.972,0.2,1.765
,2.0,2.0
,2.0,2.0
,2.0,2.0
2021-08-19 23:13:25.988,0.425,1.99
2021-08-19 23:13:25.992,0.395,1.275
2021-08-19 23:13:25.996,0.26,0.74
2021-08-19 23:13:26.000,0.07,0.31
2021-08-19 23:13:26.004,-0.065,0.11
2021-08-19 23:13:26.008,-0.17,0.0
2021-08-19 23:13:26.012,-0.2,-0.09
2021-08-19 23:13:26.016,-0.12,-0.165
2021-08-19 23:13:26.020,-0.09,-0.22
2021-08-19 23:13:26.024,-0.03,-0.275
2021-08-19 23:13:26.028,-0.02,-0.32
2021-08-19 23:13:26.032,-0.005,-0.355
2021-08-19 23:13:26.036,-0.005,-0.35
2021-08-19 23:13:26.040,-0.03,-0.385
2021-08-19 23:13:26.044,-0.01,-0.395
2021-08-19 23:13:26.048,-0.025,-0.395
2021-08-19 23:13:26.052,-0.03,-0.405
2021-08-19 23:13:26.056,-0.035,-0.4
2021-08-19 23:13:26.060,-0.04,-0.425
2021-08-19 23:13:26.064,-0.025,-0.44
2021-08-19 23:13:26.068,-0.015,-0.445
2021-08-19 23:13:26.072,-0.025,-0.425
2021-08-19 23:13:26.076,-0.025,-0.435
2021-08-19 23:13:26.080,-0.045,-0.435
2021-08-19 23:13:26.084,-0.015,-0.415
2021-08-19 23:13:26.088,-0.02,-0.425
2021-08-19 23:13:26.092,-0.015,-0.425
2021-08-19 23:13:26.096,-0.02,-0.435
2021-08-19 23:13:26.100,-0.03,-0.42
2021-08-19 23:13:26.104,-0.025,-0.425
2021-08-19 23:13:26.108,0.0,-0.42
2021-08-19 23:13:26.112,-0.005,-0.41
2021-08-19 23:13:26.116,-0.015,-0.425
2021-08-19 23:13:26.120,-0.01,-0.415
2021-08-19 23:13:26.124,-0.005,-0.425
2021-08-19 23:13:26.128,-0.005,-0.42
2021-08-19 23:13:26.132,0.0,-0.445
2021-08-19 23:13:26.136,-0.02,-0.435
2021-08-19 23:13:26.140,-0.005,-0.405
2021-08-19 23:13:26.144,-0.005,-0.405
2021-08-19 23:13:26.148,0.015,-0.42
2021-08-19 23:13:26.152,0.0,-0.415
2021-08-19 23:13:26.156,0.015,-0.4
2021-08-19 23:13:26.160,0.02,-0.41
2021-08-19 23:13:26.164,0.01,-0.405
2021-08-19 23:13:26.168,0.01,-0.39
2021-08-19 23:13:26.172,0.01,-0.4
2021-08-19 23:13:26.176,0.045,-0.4
2021-08-19 23:13:26.180,0.05,-0.395
2021-08-19 23:13:26.184,0.055,-0.375
2021-08-19 23:13:26.188,0.055,-0.38
2021-08-19 23:13:26.192,0.075,-0.395
2021-08-19 23:13:26.196,0.05,-0.375
2021-08-19 23:13:26.200,0.075,-0.365
2021-08-19 23:13:26.204,0.09,-0.34
2021-08-19 23:13:26.208,0.09,-0.36
2021-08-19 23:13:26.212,0.1,-0.35
2021-08-19 23:13:26.216,0.09,-0.32
2021-08-19 23:13:26.220,0.11,-0.31
2021-08-19 23:13:26.224,0.115,-0.305
2021-08-19 23:13:26.228,0.12,-0.295
2021-08-19 23:13:26.232,0.105,-0.3
2021-08-19 23:13:26.236,0.135,-0.29
2021-08-19 23:13:26.240,0.145,-0.28
2021-08-19 23:13:26.244,0.16,-0.27
2021-08-19 23:13:26.248,0.165,-0.26
2021-08-19 23:13:26.252,0.155,-0.26
2021-08-19 23:13:26.256,0.16,-0.215
2021-08-19 23:13:26.260,0.17,-0.225
2021-08-19 23:13:26.264,0.16,-0.215
2021-08-19 23:13:26.268,0.165,-0.18
2021-08-19 23:13:26.272,0.175,-0.195
2021-08-19 23:13:26.276,0.185,-0.19
2021-08-19 23:13:26.280,0.17,-0.18
2021-08-19 23:13:26.284,0.185,-0.155
2021-08-19 23:13:26.288,0.165,-0.15
2021-08-19 23:13:26.292,0.15,-0.12
2021-08-19 23:13:26.296,0.15,-0.13
2021-08-19 23:13:26.300,0.14,-0.13
2021-08-19 23:13:26.304,0.13,-0.11
2021-08-19 23:13:26.308,0.11,-0.125
2021-08-19 23:13:26.312,0.11,-0.13
2021-08-19 23:13:26.316,0.105,-0.125
2021-08-19 23:13:26.320,0.1,-0.14
2021-08-19 23:13:26.324,0.1,-0.12
2021-08-19 23:13:26.328,0.08,-0.12
2021-08-19 23:13:26.332,0.06,-0.12
2021-08-19 23:13:26.336,0.04,-0.12
2021-08-19 23:13:26.340,0.035,-0.15
2021-08-19 23:13:26.344,0.035,-0.165
2021-08-19 23:13:26.348,0.025,-0.155
2021-08-19 23:13:26.352,0.03,-0.185
2021-08-19 23:13:26.356,0.01,-0.195
2021-08-19 23:13:26.360,0.005,-0.19
2021-08-19 23:13:26.364,-0.02,-0.225
2021-08-19 23:13:26.368,-0.015,-0.23
2021-08-19 23:13:26.372,-0.02,-0.22
2021-08-19 23:13:26.376,-0.015,-0.22
2021-08-19 23:13:26.380,-0.025,-0.23
2021-08-19 23:13:26.384,-0.01,-0.26
2021-08-19 23:13:26.388,0.0,-0.26
2021-08-19 23:13:26.392,-0.03,-0.26
2021-08-19 23:13:26.396,-0.025,-0.265
2021-08-19 23:13:26.400,-0.03,-0.29
2021-08-19 23:13:26.404,-0.015,-0.29
2021-08-19 23:13:26.408,-0.035,-0.275
2021-08-19 23:13:26.412,-0.025,-0.29
2021-08-19 23:13:26.416,-0.045,-0.29
2021-08-19 23:13:26.420,-0.04,-0.29
2021-08-19 23:13:26.424,-0.04,-0.28
2021-08-19 23:13:26.428,-0.04,-0.28
2021-08-19 23:13:26.432,-0.04,-0.3
2021-08-19 23:13:26.436,-0.055,-0.3
2021-08-19 23:13:26.440,-0.04,-0.29
2021-08-19 23:13:26.444,-0.065,-0.305
2021-08-19 23:13:26.448,-0.04,-0.325
2021-08-19 23:13:26.452,-0.03,-0.31
2021-08-19 23:13:26.456,-0.04,-0.33
2021-08-19 23:13:26.460,-0.035,-0.31
2021-08-19 23:13:26.464,-0.035,-0.305
2021-08-19 23:13:26.468,-0.045,-0.31
2021-08-19 23:13:26.472,-0.03,-0.315
2021-08-19 23:13:26.476,-0.04,-0.305
2021-08-19 23:13:26.480,-0.035,-0.32
2021-08-19 23:13:26.484,-0.06,-0.3
2021-08-19 23:13:26.488,-0.05,-0.305
2021-08-19 23:13:26.492,-0.035,-0.29
2021-08-19 23:13:26.496,-0.02,-0.295
2021-08-19 23:13:26.500,-0.045,-0.305
2021-08-19 23:13:26.504,-0.04,-0.31
2021-08-19 23:13:26.508,-0.05,-0.295
2021-08-19 23:13:26.512,-0.05,-0.295
2021-08-19 23:13:26.516,-0.065,-0.3
2021-08-19 23:13:26.520,-0.07,-0.32
2021-08-19 23:13:26.524,-0.06,-0.31
2021-08-19 23:13:26.528,-0.06,-0.315
2021-08-19 23:13:26.532,-0.065,-0.3
2021-08-19 23:13:26.536,-0.06,-0.295
2021-08-19 23:13:26.540,-0.065,-0.305
2021-08-19 23:13:26.544,-0.065,-0.31
2021-08-19 23:13:26.548,-0.08,-0.34
2021-08-19 23:13:26.552,-0.07,-0.305
2021-08-19 23:13:26.556,-0.065,-0.3
2021-08-19 23:13:26.560,-0.07,-0.31
2021-08-19 23:13:26.564,-0.08,-0.315
2021-08-19 23:13:26.568,-0.07,-0.32
2021-08-19 23:13:26.572,-0.095,-0.315
2021-08-19 23:13:26.576,-0.085,-0.31
2021-08-19 23:13:26.580,-0.085,-0.32
2021-08-19 23:13:26.584,-0.1,-0.32
2021-08-19 23:13:26.588,-0.085,-0.32
2021-08-19 23:13:26.592,-0.07,-0.33
2021-08-19 23:13:26.596,-0.08,-0.32
2021-08-19 23:13:26.600,-0.06,-0.315
2021-08-19 23:13:26.604,-0.07,-0.325
2021-08-19 23:13:26.608,-0.08,-0.315
2021-08-19 23:13:26.612,-0.06,-0.34
2021-08-19 23:13:26.616,-0.075,-0.305
2021-08-19 23:13:26.620,-0.06,-0.33
2021-08-19 23:13:26.624,-0.055,-0.32
2021-08-19 23:13:26.628,-0.06,-0.315
2021-08-19 23:13:26.632,-0.085,-0.31
2021-08-19 23:13:26.636,-0.065,-0.315
2021-08-19 23:13:26.640,-0.08,-0.305
2021-08-19 23:13:26.644,-0.075,-0.3
2021-08-19 23:13:26.648,-0.075,-0.315
2021-08-19 23:13:26.652,-0.055,-0.31
2021-08-19 23:13:26.656,-0.06,-0.315
2021-08-19 23:13:26.660,-0.06,-0.31
2021-08-19 23:13:26.664,-0.055,-0.315
2021-08-19 23:13:26.668,-0.075,-0.315
2021-08-19 23:13:26.672,-0.075,-0.325
2021-08-19 23:13:26.676,-0.08,-0.305
2021-08-19 23:13:26.680,-0.06,-0.32
2021-08-19 23:13:26.684,-0.05,-0.3
2021-08-19 23:13:26.688,-0.08,-0.305
2021-08-19 23:13:26.692,-0.075,-0.315
2021-08-19 23:13:26.696,-0.085,-0.3
2021-08-19 23:13:26.700,-0.08,-0.32
2021-08-19 23:13:26.704,-0.085,-0.31
2021-08-19 23:13:26.708,-0.07,-0.31
2021-08-19 23:13:26.712,-0.085,-0.32
2021-08-19 23:13:26.716,-0.07,-0.305
2021-08-19 23:13:26.720,-0.085,-0.32
2021-08-19 23:13:26.724,-0.07,-0.305
2021-08-19 23:13:26.728,-0.1,-0.3
2021-08-19 23:13:26.732,-0.06,-0.305
2021-08-19 23:13:26.736,-0.07,-0.305
2021-08-19 23:13:26.740,-0.08,-0.315
2021-08-19 23:13:26.744,-0.07,-0.305
2021-08-19 23:13:26.748,-0.045,-0.295
2021-08-19 23:13:26.752,-0.055,-0.3
2021-08-19 23:13:26.756,-0.06,-0.3
2021-08-19 23:13:26.760,-0.07,-0.305
2021-08-19 23:13:26.764,-0.06,-0.305
2021-08-19 23:13:26.768,-0.065,-0.305
2021-08-19 23:13:26.772,-0.065,-0.31
2021-08-19 23:13:26.776,-0.065,-0.305
2021-08-19 23:13:26.780,-0.05,-0.315
2021-08-19 23:13:26.784,-0.07,-0.3
2021-08-19 23:13:26.788,-0.05,-0.3
2021-08-19 23:13:26.792,-0.07,-0.305
2021-08-19 23:13:26.796,-0.065,-0.29
2021-08-19 23:13:26.800,-0.07,-0.29
2021-08-19 23:13:26.804,-0.06,-0.285
2021-08-19 23:13:26.808,-0.055,-0.305
2021-08-19 23:13:26.812,-0.065,-0.3
2021-08-19 23:13:26.816,-0.05,-0.285
2021-08-19 23:13:26.820,-0.06,-0.295
2021-08-19 23:13:26.824,-0.05,-0.305
2021-08-19 23:13:26.828,-0.08,-0.3
2021-08-19 23:13:26.832,-0.055,-0.3
2021-08-19 23:13:26.836,-0.06,-0.295
2021-08-19 23:13:26.840,-0.05,-0.275
2021-08-19 23:13:26.844,-0.07,-0.305
2021-08-19 23:13:26.848,-0.07,-0.29
2021-08-19 23:13:26.852,-0.065,-0.3
2021-08-19 23:13:26.856,-0.055,-0.285
2021-08-19 23:13:26.860,-0.06,-0.29
2021-08-19 23:13:26.864,-0.055,-0.3
2021-08-19 23:13:26.868,-0.055,-0.295
2021-08-19 23:13:26.872,-0.065,-0.3
2021-08-19 23:13:26.876,-0.07,-0.29
2021-08-19 23:13:26.880,-0.06,-0.31
2021-08-19 23:13:26.884,-0.06,-0.305
2021-08-19 23:13:26.888,-0.075,-0.295
2021-08-19 23:13:26.892,-0.075,-0.29
2021-08-19 23:13:26.896,-0.06,-0.31
2021-08-19 23:13:26.900,-0.07,-0.29
2021-08-19 23:13:26.904,-0.075,-0.305
2021-08-19 23:13:26.908,-0.03,-0.29
2021-08-19 23:13:26.912,-0.065,-0.3
2021-08-19 23:13:26.916,-0.06,-0.275
2021-08-19 23:13:26.920,-0.07,-0.27
2021-08-19 23:13:26.924,-0.05,-0.255
2021-08-19 23:13:26.928,-0.015,-0.26
2021-08-19 23:13:26.932,-0.03,-0.22
2021-08-19 23:13:26.936,-0.02,-0.23
2021-08-19 23:13:26.940,-0.01,-0.205
2021-08-19 23:13:26.944,-0.01,-0.21
2021-08-19 23:13:26.948,0.01,-0.185
2021-08-19 23:13:26.952,0.005,-0.18
2021-08-19 23:13:26.956,0.015,-0.14
2021-08-19 23:13:26.960,0.005,-0.17
2021-08-19 23:13:26.964,0.005,-0.155
2021-08-19 23:13:26.968,0.005,-0.16
2021-08-19 23:13:26.972,-0.015,-0.16
2021-08-19 23:13:26.976,-0.02,-0.185
2021-08-19 23:13:26.980,-0.01,-0.21
2021-08-19 23:13:26.984,-0.035,-0.215
2021-08-19 23:13:26.988,-0.04,-0.225
2021-08-19 23:13:26.992,-0.055,-0.22
2021-08-19 23:13:26.996,-0.065,-0.21
2021-08-19 23:13:27.000,-0.045,-0.215
2021-08-19 23:13:27.004,-0.065,-0.22
2021-08-19 23:13:27.008,-0.055,-0.225
2021-08-19 23:13:27.012,-0.075,-0.22
