Time,ECG1,ECG2
2021-08-19 15:00:00.272,-0.21,-0.26
2021-08-19 15:00:00.276,-0.19,-0.275
2021-08-19 15:00:00.280,-0.2,-0.255
2021-08-19 15:00:00.284,-0.155,-0.245
2021-08-19 15:00:00.288,-0.17,-0.255
2021-08-19 15:00:00.292,-0.17,-0.25
2021-08-19 15:00:00.296,-0.17,-0.24
2021-08-19 15:00:00.300,-0.14,-0.235
2021-08-19 15:00:00.304,-0.105,-0.23
2021-08-19 15:00:00.308,-0.065,-0.205
2021-08-19 15:00:00.312,-0.01,-0.19
2021-08-19 15:00:00.316,0.04,-0.205
2021-08-19 15:00:00.320,0.095,-0.17
2021-08-19 15:00:00.324,0.13,-0.155
2021-08-19 15:00:00.328,0.15,-0.155
2021-08-19 15:00:00.332,0.17,-0.18
2021-08-19 15:00:00.336,0.17,-0.16
2021-08-19 15:00:00.340,0.19,-0.16
2021-08-19 15:00:00.344,0.16,-0.175
2021-08-19 15:00:00.348,0.13,-0.21
2021-08-19 15:00:00.352,0.085,-0.24
2021-08-19 15:00:00.356,0.03,-0.29
2021-08-19 15:00:00.360,-0.04,-0.28
2021-08-19 15:00:00.364,-0.115,-0.3
2021-08-19 15:00:00.368,-0.15,-0.275
2021-08-19 15:00:00.372,-0.22,-0.23
2021-08-19 15:00:00.376,-0.245,-0.19
2021-08-19 15:00:00.380,-0.27,-0.185
2021-08-19 15:00:00.384,-0.265,-0.18
2021-08-19 15:00:00.388,-0.26,-0.19
2021-08-19 15:00:00.392,-0.26,-0.2
2021-08-19 15:00:00.396,-0.245,-0.24
2021-08-19 15:00:00.400,-0.25,-0.24
2021-08-19 15:00:00.404,-0.25,-0.24
2021-08-19 15:00:00.408,-0.25,-0.255
2021-08-19 15:00:00.412,-0.235,-0.245
2021-08-19 15:00:00.416,-0.23,-0.24
2021-08-19 15:00:00.420,-0.225,-0.28
2021-08-19 15:00:00.424,-0.245,-0.25
2021-08-19 15:00:00.428,-0.235,-0.25
2021-08-19 15:00:00.432,-0.225,-0.255
2021-08-19 15:00:00.436,-0.21,-0.26
2021-08-19 15:00:00.440,-0.21,-0.255
2021-08-19 15:00:00.444,-0.22,-0.26
2021-08-19 15:00:00.448,-0.185,-0.24
2021-08-19 15:00:00.452,-0.2,-0.255
2021-08-19 15:00:00.456,-0.19,-0.245
2021-08-19 15:00:00.460,-0.18,-0.265
2021-08-19 15:00:00.464,-0.2,-0.255
2021-08-19 15:00:00.468,-0.2,-0.26
2021-08-19 15:00:00.472,-0.2,-0.24
2021-08-19 15:00:00.476,-0.205,-0.255
2021-08-19 15:00:00.480,-0.195,-0.25
2021-08-19 15:00:00.484,-0.165,-0.265
2021-08-19 15:00:00.488,-0.12,-0.27
2021-08-19 15:00:00.492,-0.1,-0.275
2021-08-19 15:00:00.496,-0.045,-0.255
2021-08-19 15:00:00.500,0.01,-0.26
2021-08-19 15:00:00.504,0.09,-0.32
2021-08-19 15:00:00.508,0.165,-0.355
2021-08-19 15:00:00.512,0.235,-0.425
2021-08-19 15:00:00.516,0.275,-0.49
2021-08-19 15:00:00.520,0.31,-0.56
2021-08-19 15:00:00.524,0.34,-0.67
2021-08-19 15:00:00.528,0.36,-0.815
2021-08-19 15:00:00.532,0.385,-0.97
2021-08-19 15:00:00.536,0.505,-1.195
2021-08-19 15:00:00.540,0.74,-1.46
2021-08-19 15:00:00.544,1.02,-1.72
2021-08-19 15:00:00.548,1.16,-1.96
2021-08-19 15:00:00.560,0.05,-1.725
2021-08-19 15:00:00.564,-0.205,-1.28
2021-08-19 15:00:00.568,-0.3,-0.87
2021-08-19 15:00:00.572,-0.34,-0.635
2021-08-19 15:00:00.576,-0.36,-0.46
2021-08-19 15:00:00.580,-0.345,-0.31
2021-08-19 15:00:00.584,-0.34,-0.21
2021-08-19 15:00:00.588,-0.35,-0.14
2021-08-19 15:00:00.592,-0.37,-0.095
2021-08-19 15:00:00.596,-0.34,-0.1
2021-08-19 15:00:00.600,-0.36,-0.08
2021-08-19 15:00:00.604,-0.355,-0.055
2021-08-19 15:00:00.608,-0.375,-0.05
2021-08-19 15:00:00.612,-0.365,-0.045
2021-08-19 15:00:00.616,-0.34,-0.035
2021-08-19 15:00:00.620,-0.335,-0.04
2021-08-19 15:00:00.624,-0.33,-0.035
2021-08-19 15:00:00.628,-0.355,-0.035
2021-08-19 15:00:00.632,-0.36,-0.025
2021-08-19 15:00:00.636,-0.36,-0.02
2021-08-19 15:00:00.640,-0.36,-0.01
2021-08-19 15:00:00.644,-0.37,-0.02
2021-08-19 15:00:00.648,-0.36,-0.03
2021-08-19 15:00:00.652,-0.365,-0.025
2021-08-19 15:00:00.656,-0.37,-0.02
2021-08-19 15:00:00.660,-0.355,-0.01
2021-08-19 15:00:00.664,-0.355,-0.015
2021-08-19 15:00:00.668,-0.36,0.0
2021-08-19 15:00:00.672,-0.36,-0.015
2021-08-19 15:00:00.676,-0.36,0.005
2021-08-19 15:00:00.680,-0.355,0.015
2021-08-19 15:00:00.684,-0.34,0.025
2021-08-19 15:00:00.688,-0.33,0.05
2021-08-19 15:00:00.692,-0.32,0.055
2021-08-19 15:00:00.696,-0.32,0.045
2021-08-19 15:00:00.700,-0.31,0.065
2021-08-19 15:00:00.704,-0.315,0.08
2021-08-19 15:00:00.708,-0.29,0.06
2021-08-19 15:00:00.712,-0.285,0.06
2021-08-19 15:00:00.716,-0.25,0.09
2021-08-19 15:00:00.720,-0.24,0.075
2021-08-19 15:00:00.724,-0.245,0.09
2021-08-19 15:00:00.728,-0.235,0.095
2021-08-19 15:00:00.732,-0.24,0.1
2021-08-19 15:00:00.736,-0.23,0.095
2021-08-19 15:00:00.740,-0.22,0.1
2021-08-19 15:00:00.744,-0.23,0.07
2021-08-19 15:00:00.748,-0.215,0.06
2021-08-19 15:00:00.752,-0.22,0.04
2021-08-19 15:00:00.756,-0.21,0.035
2021-08-19 15:00:00.760,-0.23,0.01
2021-08-19 15:00:00.764,-0.2,0.0
2021-08-19 15:00:00.768,-0.195,0.0
2021-08-19 15:00:00.772,-0.195,-0.02
2021-08-19 15:00:00.776,-0.205,-0.015
2021-08-19 15:00:00.780,-0.185,-0.065
2021-08-19 15:00:00.784,-0.205,-0.09
2021-08-19 15:00:00.788,-0.185,-0.1
2021-08-19 15:00:00.792,-0.16,-0.12
2021-08-19 15:00:00.796,-0.18,-0.14
2021-08-19 15:00:00.800,-0.175,-0.145
2021-08-19 15:00:00.804,-0.17,-0.175
2021-08-19 15:00:00.808,-0.135,-0.165
2021-08-19 15:00:00.812,-0.155,-0.18
2021-08-19 15:00:00.816,-0.16,-0.2
2021-08-19 15:00:00.820,-0.135,-0.195
2021-08-19 15:00:00.824,-0.115,-0.21
2021-08-19 15:00:00.828,-0.11,-0.205
2021-08-19 15:00:00.832,-0.095,-0.215
2021-08-19 15:00:00.836,-0.1,-0.195
2021-08-19 15:00:00.840,-0.08,-0.185
2021-08-19 15:00:00.844,-0.06,-0.18
2021-08-19 15:00:00.848,-0.04,-0.185
2021-08-19 15:00:00.852,-0.03,-0.195
2021-08-19 15:00:00.856,-0.045,-0.195
2021-08-19 15:00:00.860,-0.01,-0.175
2021-08-19 15:00:00.864,0.025,-0.16
2021-08-19 15:00:00.868,0.055,-0.165
2021-08-19 15:00:00.872,0.09,-0.135
2021-08-19 15:00:00.876,0.105,-0.13
2021-08-19 15:00:00.880,0.13,-0.12
2021-08-19 15:00:00.884,0.155,-0.1
2021-08-19 15:00:00.888,0.185,-0.12
2021-08-19 15:00:00.892,0.21,-0.115
2021-08-19 15:00:00.896,0.185,-0.13
2021-08-19 15:00:00.900,0.16,-0.15
2021-08-19 15:00:00.904,0.14,-0.18
2021-08-19 15:00:00.908,0.095,-0.22
2021-08-19 15:00:00.912,0.03,-0.255
2021-08-19 15:00:00.916,-0.015,-0.28
2021-08-19 15:00:00.920,-0.08,-0.25
2021-08-19 15:00:00.924,-0.125,-0.21
2021-08-19 15:00:00.928,-0.17,-0.19
2021-08-19 15:00:00.932,-0.22,-0.16
2021-08-19 15:00:00.936,-0.23,-0.145
2021-08-19 15:00:00.940,-0.245,-0.12
2021-08-19 15:00:00.944,-0.215,-0.13
2021-08-19 15:00:00.948,-0.23,-0.145
2021-08-19 15:00:00.952,-0.2,-0.15
2021-08-19 15:00:00.956,-0.2,-0.14
2021-08-19 15:00:00.960,-0.18,-0.15
2021-08-19 15:00:00.964,-0.19,-0.175
2021-08-19 15:00:00.968,-0.18,-0.17
2021-08-19 15:00:00.972,-0.175,-0.165
2021-08-19 15:00:00.976,-0.19,-0.16
2021-08-19 15:00:00.980,-0.16,-0.18
2021-08-19 15:00:00.984,-0.165,-0.19
2021-08-19 15:00:00.988,-0.175,-0.155
2021-08-19 15:00:00.992,-0.185,-0.175
2021-08-19 15:00:00.996,-0.185,-0.185
2021-08-19 15:00:01.000,-0.185,-0.185
2021-08-19 15:00:01.004,-0.175,-0.18
2021-08-19 15:00:01.008,-0.17,-0.2
2021-08-19 15:00:01.012,-0.195,-0.215
2021-08-19 15:00:01.016,-0.175,-0.19
2021-08-19 15:00:01.020,-0.185,-0.2
2021-08-19 15:00:01.024,-0.175,-0.22
2021-08-19 15:00:01.028,-0.17,-0.22
2021-08-19 15:00:01.032,-0.185,-0.215
2021-08-19 15:00:01.036,-0.16,-0.215
2021-08-19 15:00:01.040,-0.145,-0.235
2021-08-19 15:00:01.044,-0.135,-0.225
2021-08-19 15:00:01.048,-0.08,-0.24
2021-08-19 15:00:01.052,-0.015,-0.23
2021-08-19 15:00:01.056,0.025,-0.235
2021-08-19 15:00:01.060,0.115,-0.26
2021-08-19 15:00:01.064,0.175,-0.295
2021-08-19 15:00:01.068,0.24,-0.325
2021-08-19 15:00:01.072,0.26,-0.385
2021-08-19 15:00:01.076,0.28,-0.46
2021-08-19 15:00:01.080,0.315,-0.575
2021-08-19 15:00:01.084,0.32,-0.715
2021-08-19 15:00:01.088,0.37,-0.895
2021-08-19 15:00:01.092,0.49,-1.12
2021-08-19 15:00:01.096,0.71,-1.39
2021-08-19 15:00:01.100,0.955,-1.675
2021-08-19 15:00:01.104,1.13,-1.96
2021-08-19 15:00:01.116,0.2,-1.83
2021-08-19 15:00:01.120,-0.12,-1.37
2021-08-19 15:00:01.124,-0.285,-0.945
2021-08-19 15:00:01.128,-0.34,-0.685
2021-08-19 15:00:01.132,-0.39,-0.505
2021-08-19 15:00:01.136,-0.36,-0.33
2021-08-19 15:00:01.140,-0.355,-0.235
2021-08-19 15:00:01.144,-0.365,-0.13
2021-08-19 15:00:01.148,-0.37,-0.11
2021-08-19 15:00:01.152,-0.355,-0.07
2021-08-19 15:00:01.156,-0.355,-0.05
2021-08-19 15:00:01.160,-0.31,-0.03
2021-08-19 15:00:01.164,-0.33,-0.02
2021-08-19 15:00:01.168,-0.34,-0.03
2021-08-19 15:00:01.172,-0.335,-0.02
2021-08-19 15:00:01.176,-0.355,-0.055
2021-08-19 15:00:01.180,-0.345,-0.025
2021-08-19 15:00:01.184,-0.355,-0.025
2021-08-19 15:00:01.188,-0.335,-0.005
2021-08-19 15:00:01.192,-0.345,-0.03
2021-08-19 15:00:01.196,-0.345,-0.01
2021-08-19 15:00:01.200,-0.345,-0.01
2021-08-19 15:00:01.204,-0.34,0.0
2021-08-19 15:00:01.208,-0.32,-0.015
2021-08-19 15:00:01.212,-0.315,0.0
2021-08-19 15:00:01.216,-0.33,-0.005
2021-08-19 15:00:01.220,-0.325,0.015
2021-08-19 15:00:01.224,-0.32,0.02
2021-08-19 15:00:01.228,-0.35,0.035
2021-08-19 15:00:01.232,-0.33,0.045
2021-08-19 15:00:01.236,-0.32,0.05
2021-08-19 15:00:01.240,-0.305,0.045
2021-08-19 15:00:01.244,-0.285,0.05
2021-08-19 15:00:01.248,-0.3,0.055
2021-08-19 15:00:01.252,-0.28,0.055
2021-08-19 15:00:01.256,-0.3,0.05
2021-08-19 15:00:01.260,-0.295,0.06
2021-08-19 15:00:01.264,-0.31,0.04
2021-08-19 15:00:01.268,-0.32,0.07
2021-08-19 15:00:01.272,-0.275,0.06
2021-08-19 15:00:01.276,-0.275,0.085
2021-08-19 15:00:01.280,-0.275,0.085
2021-08-19 15:00:01.284,-0.265,0.06
2021-08-19 15:00:01.288,-0.265,0.07
2021-08-19 15:00:01.292,-0.27,0.05
2021-08-19 15:00:01.296,-0.25,0.045
2021-08-19 15:00:01.300,-0.255,0.06
2021-08-19 15:00:01.304,-0.26,0.055
2021-08-19 15:00:01.308,-0.27,0.035
2021-08-19 15:00:01.312,-0.22,0.015
2021-08-19 15:00:01.316,-0.22,0.03
2021-08-19 15:00:01.320,-0.22,0.0
2021-08-19 15:00:01.324,-0.215,-0.01
2021-08-19 15:00:01.328,-0.18,-0.01
2021-08-19 15:00:01.332,-0.185,-0.055
2021-08-19 15:00:01.336,-0.185,-0.035
2021-08-19 15:00:01.340,-0.2,-0.065
2021-08-19 15:00:01.344,-0.165,-0.105
2021-08-19 15:00:01.348,-0.18,-0.115
2021-08-19 15:00:01.352,-0.165,-0.1
2021-08-19 15:00:01.356,-0.165,-0.135
2021-08-19 15:00:01.360,-0.17,-0.135
2021-08-19 15:00:01.364,-0.14,-0.155
2021-08-19 15:00:01.368,-0.11,-0.17
2021-08-19 15:00:01.372,-0.125,-0.185
2021-08-19 15:00:01.376,-0.14,-0.185
2021-08-19 15:00:01.380,-0.13,-0.185
2021-08-19 15:00:01.384,-0.12,-0.17
2021-08-19 15:00:01.388,-0.12,-0.185
2021-08-19 15:00:01.392,-0.12,-0.2
2021-08-19 15:00:01.396,-0.13,-0.21
2021-08-19 15:00:01.400,-0.13,-0.2
2021-08-19 15:00:01.404,-0.12,-0.195
2021-08-19 15:00:01.408,-0.125,-0.2
2021-08-19 15:00:01.412,-0.105,-0.155
2021-08-19 15:00:01.416,-0.07,-0.195
2021-08-19 15:00:01.420,-0.045,-0.18
2021-08-19 15:00:01.424,-0.01,-0.165
2021-08-19 15:00:01.428,0.01,-0.16
2021-08-19 15:00:01.432,0.05,-0.14
2021-08-19 15:00:01.436,0.115,-0.11
2021-08-19 15:00:01.440,0.105,-0.1
2021-08-19 15:00:01.444,0.155,-0.12
2021-08-19 15:00:01.448,0.17,-0.1
2021-08-19 15:00:01.452,0.18,-0.09
2021-08-19 15:00:01.456,0.18,-0.1
2021-08-19 15:00:01.460,0.18,-0.1
2021-08-19 15:00:01.464,0.16,-0.15
2021-08-19 15:00:01.468,0.1,-0.165
2021-08-19 15:00:01.472,0.075,-0.2
2021-08-19 15:00:01.476,0.005,-0.21
2021-08-19 15:00:01.480,-0.04,-0.21
2021-08-19 15:00:01.484,-0.08,-0.205
2021-08-19 15:00:01.488,-0.14,-0.19
2021-08-19 15:00:01.492,-0.18,-0.15
2021-08-19 15:00:01.496,-0.215,-0.135
2021-08-19 15:00:01.500,-0.225,-0.115
2021-08-19 15:00:01.504,-0.22,-0.12
2021-08-19 15:00:01.508,-0.225,-0.115
2021-08-19 15:00:01.512,-0.235,-0.13
2021-08-19 15:00:01.516,-0.22,-0.14
2021-08-19 15:00:01.520,-0.22,-0.145
2021-08-19 15:00:01.524,-0.2,-0.15
2021-08-19 15:00:01.528,-0.2,-0.155
2021-08-19 15:00:01.532,-0.205,-0.175
2021-08-19 15:00:01.536,-0.205,-0.165
2021-08-19 15:00:01.540,-0.205,-0.17
2021-08-19 15:00:01.544,-0.195,-0.185
2021-08-19 15:00:01.548,-0.21,-0.195
2021-08-19 15:00:01.552,-0.19,-0.185
2021-08-19 15:00:01.556,-0.18,-0.195
2021-08-19 15:00:01.560,-0.175,-0.19
2021-08-19 15:00:01.564,-0.165,-0.18
2021-08-19 15:00:01.568,-0.16,-0.21
2021-08-19 15:00:01.572,-0.18,-0.2
2021-08-19 15:00:01.576,-0.195,-0.215
2021-08-19 15:00:01.580,-0.185,-0.22
2021-08-19 15:00:01.584,-0.185,-0.215
2021-08-19 15:00:01.588,-0.18,-0.22
2021-08-19 15:00:01.592,-0.16,-0.195
2021-08-19 15:00:01.596,-0.12,-0.215
2021-08-19 15:00:01.600,-0.12,-0.225
2021-08-19 15:00:01.604,-0.1,-0.205
2021-08-19 15:00:01.608,-0.055,-0.195
2021-08-19 15:00:01.612,-0.01,-0.185
2021-08-19 15:00:01.616,0.075,-0.205
2021-08-19 15:00:01.620,0.14,-0.235
2021-08-19 15:00:01.624,0.235,-0.245
2021-08-19 15:00:01.628,0.31,-0.3
2021-08-19 15:00:01.632,0.345,-0.355
2021-08-19 15:00:01.636,0.375,-0.445
2021-08-19 15:00:01.640,0.42,-0.54
2021-08-19 15:00:01.644,0.445,-0.68
2021-08-19 15:00:01.648,0.47,-0.825
2021-08-19 15:00:01.652,0.5,-1.01
2021-08-19 15:00:01.656,0.635,-1.22
2021-08-19 15:00:01.660,0.885,-1.5
2021-08-19 15:00:01.664,1.12,-1.765
2021-08-19 15:00:01.668,1.155,-1.975
2021-08-19 15:00:01.676,0.375,-1.89
2021-08-19 15:00:01.680,0.0,-1.49
2021-08-19 15:00:01.684,-0.195,-1.035
2021-08-19 15:00:01.688,-0.28,-0.72
2021-08-19 15:00:01.692,-0.285,-0.52
2021-08-19 15:00:01.696,-0.295,-0.37
2021-08-19 15:00:01.700,-0.28,-0.215
2021-08-19 15:00:01.704,-0.275,-0.135
2021-08-19 15:00:01.708,-0.275,-0.075
2021-08-19 15:00:01.712,-0.28,-0.03
2021-08-19 15:00:01.716,-0.28,-0.01
2021-08-19 15:00:01.720,-0.275,-0.005
2021-08-19 15:00:01.724,-0.29,0.005
2021-08-19 15:00:01.728,-0.275,0.0
2021-08-19 15:00:01.732,-0.245,-0.005
2021-08-19 15:00:01.736,-0.25,-0.005
2021-08-19 15:00:01.740,-0.265,0.0
2021-08-19 15:00:01.744,-0.26,0.005
2021-08-19 15:00:01.748,-0.275,0.015
2021-08-19 15:00:01.752,-0.275,0.0
2021-08-19 15:00:01.756,-0.27,0.0
2021-08-19 15:00:01.760,-0.255,0.025
2021-08-19 15:00:01.764,-0.27,0.025
2021-08-19 15:00:01.768,-0.28,0.01
2021-08-19 15:00:01.772,-0.29,0.045
2021-08-19 15:00:01.776,-0.295,0.035
2021-08-19 15:00:01.780,-0.315,0.04
2021-08-19 15:00:01.784,-0.3,0.07
2021-08-19 15:00:01.788,-0.305,0.055
2021-08-19 15:00:01.792,-0.28,0.06
2021-08-19 15:00:01.796,-0.285,0.04
2021-08-19 15:00:01.800,-0.28,0.06
2021-08-19 15:00:01.804,-0.27,0.055
2021-08-19 15:00:01.808,-0.275,0.075
2021-08-19 15:00:01.812,-0.28,0.065
2021-08-19 15:00:01.816,-0.275,0.055
2021-08-19 15:00:01.820,-0.26,0.055
2021-08-19 15:00:01.824,-0.245,0.055
2021-08-19 15:00:01.828,-0.245,0.065
2021-08-19 15:00:01.832,-0.23,0.065
2021-08-19 15:00:01.836,-0.21,0.055
2021-08-19 15:00:01.840,-0.22,0.085
2021-08-19 15:00:01.844,-0.2,0.075
2021-08-19 15:00:01.848,-0.19,0.09
2021-08-19 15:00:01.852,-0.2,0.08
2021-08-19 15:00:01.856,-0.18,0.07
2021-08-19 15:00:01.860,-0.19,0.07
2021-08-19 15:00:01.864,-0.175,0.07
2021-08-19 15:00:01.868,-0.155,0.07
2021-08-19 15:00:01.872,-0.16,0.06
2021-08-19 15:00:01.876,-0.145,0.03
2021-08-19 15:00:01.880,-0.15,0.035
2021-08-19 15:00:01.884,-0.14,0.025
2021-08-19 15:00:01.888,-0.11,0.01
2021-08-19 15:00:01.892,-0.11,-0.01
2021-08-19 15:00:01.896,-0.1,-0.045
2021-08-19 15:00:01.900,-0.105,-0.045
2021-08-19 15:00:01.904,-0.11,-0.07
2021-08-19 15:00:01.908,-0.1,-0.1
2021-08-19 15:00:01.912,-0.095,-0.115
2021-08-19 15:00:01.916,-0.095,-0.11
2021-08-19 15:00:01.920,-0.09,-0.155
2021-08-19 15:00:01.924,-0.06,-0.155
2021-08-19 15:00:01.928,-0.06,-0.17
2021-08-19 15:00:01.932,-0.06,-0.17
2021-08-19 15:00:01.936,-0.045,-0.155
2021-08-19 15:00:01.940,-0.045,-0.165
2021-08-19 15:00:01.944,-0.03,-0.185
2021-08-19 15:00:01.948,-0.02,-0.18
2021-08-19 15:00:01.952,-0.03,-0.18
2021-08-19 15:00:01.956,-0.025,-0.19
2021-08-19 15:00:01.960,-0.005,-0.19
2021-08-19 15:00:01.964,0.005,-0.18
2021-08-19 15:00:01.968,0.01,-0.18
2021-08-19 15:00:01.972,0.03,-0.175
2021-08-19 15:00:01.976,0.05,-0.17
2021-08-19 15:00:01.980,0.07,-0.17
2021-08-19 15:00:01.984,0.115,-0.17
2021-08-19 15:00:01.988,0.125,-0.145
2021-08-19 15:00:01.992,0.165,-0.11
2021-08-19 15:00:01.996,0.215,-0.115
2021-08-19 15:00:02.000,0.235,-0.105
2021-08-19 15:00:02.004,0.235,-0.105
2021-08-19 15:00:02.008,0.275,-0.115
2021-08-19 15:00:02.012,0.29,-0.11
2021-08-19 15:00:02.016,0.325,-0.12
2021-08-19 15:00:02.020,0.33,-0.105
2021-08-19 15:00:02.024,0.325,-0.115
2021-08-19 15:00:02.028,0.28,-0.16
2021-08-19 15:00:02.032,0.195,-0.205
2021-08-19 15:00:02.036,0.13,-0.22
2021-08-19 15:00:02.040,0.09,-0.225
2021-08-19 15:00:02.044,0.02,-0.23
2021-08-19 15:00:02.048,-0.015,-0.225
2021-08-19 15:00:02.052,-0.07,-0.19
2021-08-19 15:00:02.056,-0.105,-0.19
2021-08-19 15:00:02.060,-0.12,-0.155
2021-08-19 15:00:02.064,-0.13,-0.13
2021-08-19 15:00:02.068,-0.13,-0.16
2021-08-19 15:00:02.072,-0.115,-0.16
2021-08-19 15:00:02.076,-0.12,-0.17
2021-08-19 15:00:02.080,-0.12,-0.15
2021-08-19 15:00:02.084,-0.125,-0.18
2021-08-19 15:00:02.088,-0.1,-0.185
2021-08-19 15:00:02.092,-0.09,-0.17
2021-08-19 15:00:02.096,-0.08,-0.19
2021-08-19 15:00:02.100,-0.07,-0.185
2021-08-19 15:00:02.104,-0.065,-0.195
2021-08-19 15:00:02.108,-0.075,-0.17
2021-08-19 15:00:02.112,-0.06,-0.18
2021-08-19 15:00:02.116,-0.085,-0.205
2021-08-19 15:00:02.120,-0.1,-0.19
2021-08-19 15:00:02.124,-0.1,-0.17
2021-08-19 15:00:02.128,-0.09,-0.195
2021-08-19 15:00:02.132,-0.09,-0.2
2021-08-19 15:00:02.136,-0.11,-0.205
2021-08-19 15:00:02.140,-0.105,-0.195
2021-08-19 15:00:02.144,-0.11,-0.195
2021-08-19 15:00:02.148,-0.105,-0.22
2021-08-19 15:00:02.152,-0.12,-0.22
2021-08-19 15:00:02.156,-0.11,-0.23
2021-08-19 15:00:02.160,-0.105,-0.235
2021-08-19 15:00:02.164,-0.1,-0.22
2021-08-19 15:00:02.168,-0.08,-0.205
2021-08-19 15:00:02.172,-0.05,-0.22
2021-08-19 15:00:02.176,0.005,-0.24
2021-08-19 15:00:02.180,0.035,-0.24
2021-08-19 15:00:02.184,0.135,-0.265
2021-08-19 15:00:02.188,0.235,-0.295
2021-08-19 15:00:02.192,0.255,-0.32
2021-08-19 15:00:02.196,0.31,-0.365
2021-08-19 15:00:02.200,0.34,-0.45
2021-08-19 15:00:02.204,0.355,-0.53
2021-08-19 15:00:02.208,0.39,-0.675
2021-08-19 15:00:02.212,0.41,-0.795
2021-08-19 15:00:02.216,0.45,-0.965
2021-08-19 15:00:02.220,0.58,-1.185
2021-08-19 15:00:02.224,0.835,-1.42
2021-08-19 15:00:02.228,1.125,-1.715
2021-08-19 15:00:02.232,1.275,-1.99
2021-08-19 15:00:02.244,0.195,-1.73
2021-08-19 15:00:02.248,-0.065,-1.25
2021-08-19 15:00:02.252,-0.19,-0.845
2021-08-19 15:00:02.256,-0.28,-0.64
2021-08-19 15:00:02.260,-0.29,-0.47
2021-08-19 15:00:02.264,-0.3,-0.32
2021-08-19 15:00:02.268,-0.27,-0.205
2021-08-19 15:00:02.272,-0.29,-0.13
2021-08-19 15:00:02.276,-0.31,-0.07
2021-08-19 15:00:02.280,-0.285,-0.055
2021-08-19 15:00:02.284,-0.29,-0.02
2021-08-19 15:00:02.288,-0.3,-0.045
2021-08-19 15:00:02.292,-0.285,-0.035
2021-08-19 15:00:02.296,-0.28,-0.015
2021-08-19 15:00:02.300,-0.275,-0.03
2021-08-19 15:00:02.304,-0.29,-0.04
2021-08-19 15:00:02.308,-0.28,-0.025
2021-08-19 15:00:02.312,-0.275,-0.03
2021-08-19 15:00:02.316,-0.295,-0.04
2021-08-19 15:00:02.320,-0.29,-0.045
2021-08-19 15:00:02.324,-0.295,-0.025
2021-08-19 15:00:02.328,-0.28,-0.02
2021-08-19 15:00:02.332,-0.275,-0.015
2021-08-19 15:00:02.336,-0.3,0.005
2021-08-19 15:00:02.340,-0.31,-0.015
2021-08-19 15:00:02.344,-0.3,0.0
2021-08-19 15:00:02.348,-0.285,0.02
2021-08-19 15:00:02.352,-0.28,0.05
2021-08-19 15:00:02.356,-0.265,0.05
2021-08-19 15:00:02.360,-0.295,0.035
2021-08-19 15:00:02.364,-0.28,0.045
2021-08-19 15:00:02.368,-0.26,0.055
2021-08-19 15:00:02.372,-0.275,0.08
2021-08-19 15:00:02.376,-0.265,0.075
2021-08-19 15:00:02.380,-0.24,0.09
2021-08-19 15:00:02.384,-0.25,0.075
2021-08-19 15:00:02.388,-0.235,0.09
2021-08-19 15:00:02.392,-0.235,0.07
2021-08-19 15:00:02.396,-0.22,0.095
2021-08-19 15:00:02.400,-0.225,0.095
2021-08-19 15:00:02.404,-0.21,0.095
2021-08-19 15:00:02.408,-0.215,0.095
2021-08-19 15:00:02.412,-0.215,0.11
2021-08-19 15:00:02.416,-0.215,0.1
2021-08-19 15:00:02.420,-0.22,0.11
2021-08-19 15:00:02.424,-0.19,0.11
2021-08-19 15:00:02.428,-0.2,0.105
2021-08-19 15:00:02.432,-0.18,0.07
2021-08-19 15:00:02.436,-0.15,0.055
2021-08-19 15:00:02.440,-0.165,0.045
2021-08-19 15:00:02.444,-0.16,0.03
2021-08-19 15:00:02.448,-0.145,0.005
2021-08-19 15:00:02.452,-0.14,0.0
2021-08-19 15:00:02.456,-0.13,-0.04
2021-08-19 15:00:02.460,-0.135,-0.03
2021-08-19 15:00:02.464,-0.16,-0.055
2021-08-19 15:00:02.468,-0.155,-0.08
2021-08-19 15:00:02.472,-0.13,-0.09
2021-08-19 15:00:02.476,-0.125,-0.105
2021-08-19 15:00:02.480,-0.115,-0.125
2021-08-19 15:00:02.484,-0.1,-0.12
2021-08-19 15:00:02.488,-0.09,-0.15
2021-08-19 15:00:02.492,-0.09,-0.155
2021-08-19 15:00:02.496,-0.075,-0.14
2021-08-19 15:00:02.500,-0.07,-0.15
2021-08-19 15:00:02.504,-0.065,-0.16
2021-08-19 15:00:02.508,-0.075,-0.165
2021-08-19 15:00:02.512,-0.055,-0.19
2021-08-19 15:00:02.516,-0.055,-0.17
2021-08-19 15:00:02.520,-0.045,-0.19
2021-08-19 15:00:02.524,-0.035,-0.185
2021-08-19 15:00:02.528,0.0,-0.185
2021-08-19 15:00:02.532,-0.005,-0.185
2021-08-19 15:00:02.536,0.0,-0.18
2021-08-19 15:00:02.540,0.02,-0.165
2021-08-19 15:00:02.544,0.045,-0.17
2021-08-19 15:00:02.548,0.1,-0.16
2021-08-19 15:00:02.552,0.15,-0.11
2021-08-19 15:00:02.556,0.18,-0.1
2021-08-19 15:00:02.560,0.19,-0.095
2021-08-19 15:00:02.564,0.19,-0.11
2021-08-19 15:00:02.568,0.22,-0.11
2021-08-19 15:00:02.572,0.215,-0.11
2021-08-19 15:00:02.576,0.215,-0.12
2021-08-19 15:00:02.580,0.195,-0.14
2021-08-19 15:00:02.584,0.17,-0.185
2021-08-19 15:00:02.588,0.115,-0.225
2021-08-19 15:00:02.592,0.06,-0.24
2021-08-19 15:00:02.596,0.005,-0.215
2021-08-19 15:00:02.600,-0.035,-0.235
2021-08-19 15:00:02.604,-0.085,-0.205
2021-08-19 15:00:02.608,-0.105,-0.185
2021-08-19 15:00:02.612,-0.125,-0.135
2021-08-19 15:00:02.616,-0.165,-0.115
2021-08-19 15:00:02.620,-0.17,-0.1
2021-08-19 15:00:02.624,-0.155,-0.085
2021-08-19 15:00:02.628,-0.155,-0.11
2021-08-19 15:00:02.632,-0.145,-0.09
2021-08-19 15:00:02.636,-0.14,-0.1
2021-08-19 15:00:02.640,-0.155,-0.12
2021-08-19 15:00:02.644,-0.15,-0.11
2021-08-19 15:00:02.648,-0.12,-0.12
2021-08-19 15:00:02.652,-0.11,-0.11
2021-08-19 15:00:02.656,-0.13,-0.12
2021-08-19 15:00:02.660,-0.145,-0.12
2021-08-19 15:00:02.664,-0.145,-0.14
2021-08-19 15:00:02.668,-0.145,-0.14
2021-08-19 15:00:02.672,-0.15,-0.13
2021-08-19 15:00:02.676,-0.135,-0.165
2021-08-19 15:00:02.680,-0.12,-0.14
2021-08-19 15:00:02.684,-0.125,-0.16
2021-08-19 15:00:02.688,-0.125,-0.165
2021-08-19 15:00:02.692,-0.12,-0.17
2021-08-19 15:00:02.696,-0.105,-0.175
2021-08-19 15:00:02.700,-0.125,-0.19
2021-08-19 15:00:02.704,-0.12,-0.17
2021-08-19 15:00:02.708,-0.125,-0.17
2021-08-19 15:00:02.712,-0.12,-0.165
2021-08-19 15:00:02.716,-0.1,-0.17
2021-08-19 15:00:02.720,-0.09,-0.185
2021-08-19 15:00:02.724,-0.07,-0.155
2021-08-19 15:00:02.728,-0.03,-0.15
2021-08-19 15:00:02.732,0.03,-0.17
2021-08-19 15:00:02.736,0.12,-0.185
2021-08-19 15:00:02.740,0.18,-0.185
2021-08-19 15:00:02.744,0.26,-0.205
2021-08-19 15:00:02.748,0.33,-0.28
2021-08-19 15:00:02.752,0.345,-0.32
2021-08-19 15:00:02.756,0.38,-0.42
2021-08-19 15:00:02.760,0.38,-0.51
2021-08-19 15:00:02.764,0.375,-0.63
2021-08-19 15:00:02.768,0.4,-0.825
2021-08-19 15:00:02.772,0.49,-1.02
2021-08-19 15:00:02.776,0.685,-1.28
2021-08-19 15:00:02.780,0.97,-1.57
2021-08-19 15:00:02.784,1.21,-1.89
2021-08-19 15:00:02.796,0.35,-1.915
2021-08-19 15:00:02.800,-0.025,-1.445
2021-08-19 15:00:02.804,-0.215,-0.995
2021-08-19 15:00:02.808,-0.305,-0.7
2021-08-19 15:00:02.812,-0.34,-0.48
2021-08-19 15:00:02.816,-0.31,-0.33
2021-08-19 15:00:02.820,-0.26,-0.21
2021-08-19 15:00:02.824,-0.255,-0.12
2021-08-19 15:00:02.828,-0.27,-0.055
2021-08-19 15:00:02.832,-0.265,-0.025
2021-08-19 15:00:02.836,-0.25,0.0
2021-08-19 15:00:02.840,-0.24,0.0
2021-08-19 15:00:02.844,-0.26,-0.01
2021-08-19 15:00:02.848,-0.25,0.02
2021-08-19 15:00:02.852,-0.265,0.01
2021-08-19 15:00:02.856,-0.26,0.0
2021-08-19 15:00:02.860,-0.22,0.01
2021-08-19 15:00:02.864,-0.225,0.02
2021-08-19 15:00:02.868,-0.23,0.05
2021-08-19 15:00:02.872,-0.235,0.015
2021-08-19 15:00:02.876,-0.215,0.045
2021-08-19 15:00:02.880,-0.22,0.04
2021-08-19 15:00:02.884,-0.215,0.07
2021-08-19 15:00:02.888,-0.23,0.09
2021-08-19 15:00:02.892,-0.245,0.07
2021-08-19 15:00:02.896,-0.25,0.08
2021-08-19 15:00:02.900,-0.245,0.095
2021-08-19 15:00:02.904,-0.245,0.085
2021-08-19 15:00:02.908,-0.23,0.105
2021-08-19 15:00:02.912,-0.23,0.11
2021-08-19 15:00:02.916,-0.245,0.11
2021-08-19 15:00:02.920,-0.245,0.105
2021-08-19 15:00:02.924,-0.22,0.12
2021-08-19 15:00:02.928,-0.195,0.11
2021-08-19 15:00:02.932,-0.21,0.115
2021-08-19 15:00:02.936,-0.21,0.105
2021-08-19 15:00:02.940,-0.205,0.105
2021-08-19 15:00:02.944,-0.205,0.095
2021-08-19 15:00:02.948,-0.185,0.085
2021-08-19 15:00:02.952,-0.175,0.115
2021-08-19 15:00:02.956,-0.175,0.1
2021-08-19 15:00:02.960,-0.16,0.095
2021-08-19 15:00:02.964,-0.175,0.105
2021-08-19 15:00:02.968,-0.175,0.095
2021-08-19 15:00:02.972,-0.16,0.11
2021-08-19 15:00:02.976,-0.155,0.1
2021-08-19 15:00:02.980,-0.14,0.1
2021-08-19 15:00:02.984,-0.135,0.115
2021-08-19 15:00:02.988,-0.105,0.08
2021-08-19 15:00:02.992,-0.105,0.08
2021-08-19 15:00:02.996,-0.105,0.065
2021-08-19 15:00:03.000,-0.1,0.07
2021-08-19 15:00:03.004,-0.095,0.035
2021-08-19 15:00:03.008,-0.09,0.02
2021-08-19 15:00:03.012,-0.065,-0.025
2021-08-19 15:00:03.016,-0.07,-0.03
2021-08-19 15:00:03.020,-0.055,-0.055
2021-08-19 15:00:03.024,-0.055,-0.06
2021-08-19 15:00:03.028,-0.08,-0.1
2021-08-19 15:00:03.032,-0.07,-0.1
2021-08-19 15:00:03.036,-0.075,-0.1
2021-08-19 15:00:03.040,-0.075,-0.145
2021-08-19 15:00:03.044,-0.07,-0.14
2021-08-19 15:00:03.048,-0.08,-0.15
2021-08-19 15:00:03.052,-0.05,-0.15
2021-08-19 15:00:03.056,-0.05,-0.15
2021-08-19 15:00:03.060,-0.045,-0.16
2021-08-19 15:00:03.064,-0.05,-0.17
2021-08-19 15:00:03.068,-0.07,-0.17
2021-08-19 15:00:03.072,-0.045,-0.165
2021-08-19 15:00:03.076,-0.04,-0.17
2021-08-19 15:00:03.080,0.0,-0.165
2021-08-19 15:00:03.084,0.0,-0.16
2021-08-19 15:00:03.088,0.03,-0.155
2021-08-19 15:00:03.092,0.045,-0.14
2021-08-19 15:00:03.096,0.085,-0.125
2021-08-19 15:00:03.100,0.105,-0.14
2021-08-19 15:00:03.104,0.165,-0.105
2021-08-19 15:00:03.108,0.185,-0.09
2021-08-19 15:00:03.112,0.195,-0.085
2021-08-19 15:00:03.116,0.225,-0.09
2021-08-19 15:00:03.120,0.255,-0.08
2021-08-19 15:00:03.124,0.27,-0.07
2021-08-19 15:00:03.128,0.28,-0.06
2021-08-19 15:00:03.132,0.275,-0.075
2021-08-19 15:00:03.136,0.23,-0.125
2021-08-19 15:00:03.140,0.16,-0.16
2021-08-19 15:00:03.144,0.095,-0.205
2021-08-19 15:00:03.148,0.035,-0.23
2021-08-19 15:00:03.152,-0.02,-0.215
2021-08-19 15:00:03.156,-0.09,-0.185
2021-08-19 15:00:03.160,-0.12,-0.175
2021-08-19 15:00:03.164,-0.155,-0.15
2021-08-19 15:00:03.168,-0.18,-0.13
2021-08-19 15:00:03.172,-0.195,-0.12
2021-08-19 15:00:03.176,-0.205,-0.115
2021-08-19 15:00:03.180,-0.19,-0.115
2021-08-19 15:00:03.184,-0.195,-0.13
2021-08-19 15:00:03.188,-0.18,-0.145
2021-08-19 15:00:03.192,-0.165,-0.13
2021-08-19 15:00:03.196,-0.15,-0.17
2021-08-19 15:00:03.200,-0.16,-0.16
2021-08-19 15:00:03.204,-0.15,-0.18
2021-08-19 15:00:03.208,-0.135,-0.19
2021-08-19 15:00:03.212,-0.15,-0.19
2021-08-19 15:00:03.216,-0.16,-0.16
2021-08-19 15:00:03.220,-0.145,-0.16
2021-08-19 15:00:03.224,-0.135,-0.16
2021-08-19 15:00:03.228,-0.135,-0.185
2021-08-19 15:00:03.232,-0.13,-0.22
2021-08-19 15:00:03.236,-0.115,-0.19
2021-08-19 15:00:03.240,-0.11,-0.205
2021-08-19 15:00:03.244,-0.125,-0.195
2021-08-19 15:00:03.248,-0.115,-0.17
2021-08-19 15:00:03.252,-0.135,-0.2
2021-08-19 15:00:03.256,-0.125,-0.185
2021-08-19 15:00:03.260,-0.1,-0.185
2021-08-19 15:00:03.264,-0.11,-0.19
2021-08-19 15:00:03.268,-0.105,-0.2
2021-08-19 15:00:03.272,-0.095,-0.205
2021-08-19 15:00:03.276,-0.075,-0.195
2021-08-19 15:00:03.280,-0.055,-0.2
2021-08-19 15:00:03.284,0.005,-0.2
2021-08-19 15:00:03.288,0.07,-0.215
2021-08-19 15:00:03.292,0.16,-0.225
2021-08-19 15:00:03.296,0.245,-0.245
2021-08-19 15:00:03.300,0.315,-0.295
2021-08-19 15:00:03.304,0.365,-0.34
2021-08-19 15:00:03.308,0.415,-0.455
2021-08-19 15:00:03.312,0.43,-0.505
2021-08-19 15:00:03.316,0.445,-0.645
2021-08-19 15:00:03.320,0.465,-0.795
2021-08-19 15:00:03.324,0.51,-0.97
2021-08-19 15:00:03.328,0.635,-1.215
2021-08-19 15:00:03.332,0.89,-1.44
2021-08-19 15:00:03.336,1.16,-1.755
2021-08-19 15:00:03.340,1.2,-1.97
2021-08-19 15:00:03.348,0.425,-1.935
2021-08-19 15:00:03.352,0.02,-1.555
2021-08-19 15:00:03.356,-0.175,-1.115
2021-08-19 15:00:03.360,-0.245,-0.77
2021-08-19 15:00:03.364,-0.275,-0.575
2021-08-19 15:00:03.368,-0.26,-0.375
2021-08-19 15:00:03.372,-0.25,-0.255
2021-08-19 15:00:03.376,-0.27,-0.145
2021-08-19 15:00:03.380,-0.29,-0.075
2021-08-19 15:00:03.384,-0.3,-0.035
2021-08-19 15:00:03.388,-0.275,-0.005
2021-08-19 15:00:03.392,-0.27,-0.01
2021-08-19 15:00:03.396,-0.29,0.0
2021-08-19 15:00:03.400,-0.27,-0.025
2021-08-19 15:00:03.404,-0.27,-0.015
2021-08-19 15:00:03.408,-0.265,-0.04
2021-08-19 15:00:03.412,-0.27,-0.03
2021-08-19 15:00:03.416,-0.285,-0.025
2021-08-19 15:00:03.420,-0.295,-0.025
2021-08-19 15:00:03.424,-0.285,-0.03
2021-08-19 15:00:03.428,-0.295,-0.035
2021-08-19 15:00:03.432,-0.3,-0.03
2021-08-19 15:00:03.436,-0.275,-0.02
2021-08-19 15:00:03.440,-0.265,-0.02
2021-08-19 15:00:03.444,-0.285,-0.035
2021-08-19 15:00:03.448,-0.285,0.0
2021-08-19 15:00:03.452,-0.28,-0.01
2021-08-19 15:00:03.456,-0.3,0.0
2021-08-19 15:00:03.460,-0.29,0.0
2021-08-19 15:00:03.464,-0.305,0.03
2021-08-19 15:00:03.468,-0.305,0.045
2021-08-19 15:00:03.472,-0.29,0.04
2021-08-19 15:00:03.476,-0.26,0.035
2021-08-19 15:00:03.480,-0.25,0.05
2021-08-19 15:00:03.484,-0.265,0.045
2021-08-19 15:00:03.488,-0.23,0.03
2021-08-19 15:00:03.492,-0.225,0.04
2021-08-19 15:00:03.496,-0.205,0.06
2021-08-19 15:00:03.500,-0.195,0.05
2021-08-19 15:00:03.504,-0.19,0.07
2021-08-19 15:00:03.508,-0.21,0.085
2021-08-19 15:00:03.512,-0.2,0.1
2021-08-19 15:00:03.516,-0.16,0.08
2021-08-19 15:00:03.520,-0.17,0.09
2021-08-19 15:00:03.524,-0.17,0.075
2021-08-19 15:00:03.528,-0.195,0.07
2021-08-19 15:00:03.532,-0.16,0.07
2021-08-19 15:00:03.536,-0.155,0.055
2021-08-19 15:00:03.540,-0.13,0.045
2021-08-19 15:00:03.544,-0.145,0.045
2021-08-19 15:00:03.548,-0.15,0.03
2021-08-19 15:00:03.552,-0.135,0.005
2021-08-19 15:00:03.556,-0.125,-0.005
2021-08-19 15:00:03.560,-0.13,-0.015
2021-08-19 15:00:03.564,-0.12,-0.04
2021-08-19 15:00:03.568,-0.12,-0.05
2021-08-19 15:00:03.572,-0.095,-0.075
2021-08-19 15:00:03.576,-0.1,-0.08
2021-08-19 15:00:03.580,-0.08,-0.1
2021-08-19 15:00:03.584,-0.085,-0.125
2021-08-19 15:00:03.588,-0.065,-0.145
2021-08-19 15:00:03.592,-0.055,-0.135
2021-08-19 15:00:03.596,-0.045,-0.155
2021-08-19 15:00:03.600,-0.07,-0.16
2021-08-19 15:00:03.604,-0.045,-0.14
2021-08-19 15:00:03.608,-0.035,-0.16
2021-08-19 15:00:03.612,-0.055,-0.19
2021-08-19 15:00:03.616,-0.055,-0.19
2021-08-19 15:00:03.620,-0.035,-0.18
2021-08-19 15:00:03.624,-0.02,-0.15
2021-08-19 15:00:03.628,-0.015,-0.175
2021-08-19 15:00:03.632,0.0,-0.165
2021-08-19 15:00:03.636,0.0,-0.185
2021-08-19 15:00:03.640,0.025,-0.165
2021-08-19 15:00:03.644,0.045,-0.155
2021-08-19 15:00:03.648,0.045,-0.165
2021-08-19 15:00:03.652,0.08,-0.135
2021-08-19 15:00:03.656,0.065,-0.16
2021-08-19 15:00:03.660,0.08,-0.145
2021-08-19 15:00:03.664,0.125,-0.14
2021-08-19 15:00:03.668,0.185,-0.115
2021-08-19 15:00:03.672,0.205,-0.07
2021-08-19 15:00:03.676,0.205,-0.065
2021-08-19 15:00:03.680,0.23,-0.06
2021-08-19 15:00:03.684,0.285,-0.06
2021-08-19 15:00:03.688,0.305,-0.08
2021-08-19 15:00:03.692,0.33,-0.07
2021-08-19 15:00:03.696,0.305,-0.095
2021-08-19 15:00:03.700,0.295,-0.115
2021-08-19 15:00:03.704,0.235,-0.155
2021-08-19 15:00:03.708,0.195,-0.17
2021-08-19 15:00:03.712,0.155,-0.18
2021-08-19 15:00:03.716,0.1,-0.185
2021-08-19 15:00:03.720,0.04,-0.18
2021-08-19 15:00:03.724,-0.005,-0.18
2021-08-19 15:00:03.728,-0.045,-0.14
2021-08-19 15:00:03.732,-0.05,-0.105
2021-08-19 15:00:03.736,-0.085,-0.075
2021-08-19 15:00:03.740,-0.085,-0.08
2021-08-19 15:00:03.744,-0.075,-0.09
2021-08-19 15:00:03.748,-0.045,-0.09
2021-08-19 15:00:03.752,-0.035,-0.09
2021-08-19 15:00:03.756,-0.02,-0.09
2021-08-19 15:00:03.760,-0.015,-0.11
2021-08-19 15:00:03.764,-0.01,-0.12
2021-08-19 15:00:03.768,-0.035,-0.1
2021-08-19 15:00:03.772,-0.035,-0.11
2021-08-19 15:00:03.776,-0.045,-0.11
2021-08-19 15:00:03.780,-0.02,-0.125
2021-08-19 15:00:03.784,-0.015,-0.125
2021-08-19 15:00:03.788,-0.03,-0.12
2021-08-19 15:00:03.792,-0.04,-0.13
2021-08-19 15:00:03.796,-0.04,-0.135
2021-08-19 15:00:03.800,-0.04,-0.145
2021-08-19 15:00:03.804,-0.04,-0.14
2021-08-19 15:00:03.808,-0.025,-0.155
2021-08-19 15:00:03.812,-0.025,-0.16
2021-08-19 15:00:03.816,-0.02,-0.165
2021-08-19 15:00:03.820,-0.035,-0.16
2021-08-19 15:00:03.824,-0.03,-0.16
2021-08-19 15:00:03.828,-0.045,-0.165
2021-08-19 15:00:03.832,-0.025,-0.16
2021-08-19 15:00:03.836,-0.045,-0.165
2021-08-19 15:00:03.840,-0.025,-0.16
2021-08-19 15:00:03.844,0.0,-0.175
2021-08-19 15:00:03.848,0.035,-0.18
2021-08-19 15:00:03.852,0.125,-0.16
2021-08-19 15:00:03.856,0.22,-0.18
2021-08-19 15:00:03.860,0.305,-0.21
2021-08-19 15:00:03.864,0.395,-0.24
2021-08-19 15:00:03.868,0.465,-0.3
2021-08-19 15:00:03.872,0.495,-0.38
2021-08-19 15:00:03.876,0.495,-0.455
2021-08-19 15:00:03.880,0.54,-0.56
2021-08-19 15:00:03.884,0.54,-0.7
2021-08-19 15:00:03.888,0.585,-0.88
2021-08-19 15:00:03.892,0.675,-1.08
2021-08-19 15:00:03.896,0.92,-1.33
2021-08-19 15:00:03.900,1.215,-1.63
2021-08-19 15:00:03.904,1.39,-1.875
2021-08-19 15:00:03.912,0.755,-1.98
2021-08-19 15:00:03.916,0.285,-1.645
2021-08-19 15:00:03.920,-0.01,-1.18
2021-08-19 15:00:03.924,-0.14,-0.79
2021-08-19 15:00:03.928,-0.2,-0.555
2021-08-19 15:00:03.932,-0.215,-0.385
2021-08-19 15:00:03.936,-0.185,-0.245
2021-08-19 15:00:03.940,-0.18,-0.13
2021-08-19 15:00:03.944,-0.215,-0.055
2021-08-19 15:00:03.948,-0.22,-0.035
2021-08-19 15:00:03.952,-0.22,-0.01
2021-08-19 15:00:03.956,-0.22,0.01
2021-08-19 15:00:03.960,-0.215,0.015
2021-08-19 15:00:03.964,-0.225,0.03
2021-08-19 15:00:03.968,-0.22,0.01
2021-08-19 15:00:03.972,-0.225,0.015
2021-08-19 15:00:03.976,-0.22,0.04
2021-08-19 15:00:03.980,-0.23,0.02
2021-08-19 15:00:03.984,-0.215,0.03
2021-08-19 15:00:03.988,-0.21,0.035
2021-08-19 15:00:03.992,-0.21,0.04
2021-08-19 15:00:03.996,-0.21,0.045
2021-08-19 15:00:04.000,-0.205,0.055
2021-08-19 15:00:04.004,-0.205,0.06
2021-08-19 15:00:04.008,-0.205,0.055
2021-08-19 15:00:04.012,-0.195,0.09
2021-08-19 15:00:04.016,-0.21,0.095
2021-08-19 15:00:04.020,-0.21,0.1
2021-08-19 15:00:04.024,-0.21,0.075
2021-08-19 15:00:04.028,-0.215,0.095
2021-08-19 15:00:04.032,-0.205,0.115
2021-08-19 15:00:04.036,-0.215,0.12
2021-08-19 15:00:04.040,-0.23,0.125
2021-08-19 15:00:04.044,-0.215,0.145
2021-08-19 15:00:04.048,-0.2,0.13
2021-08-19 15:00:04.052,-0.205,0.125
2021-08-19 15:00:04.056,-0.195,0.13
2021-08-19 15:00:04.060,-0.19,0.125
2021-08-19 15:00:04.064,-0.175,0.14
2021-08-19 15:00:04.068,-0.165,0.14
2021-08-19 15:00:04.072,-0.15,0.165
2021-08-19 15:00:04.076,-0.125,0.145
2021-08-19 15:00:04.080,-0.125,0.135
2021-08-19 15:00:04.084,-0.125,0.125
2021-08-19 15:00:04.088,-0.15,0.12
2021-08-19 15:00:04.092,-0.13,0.145
2021-08-19 15:00:04.096,-0.125,0.13
2021-08-19 15:00:04.100,-0.1,0.14
2021-08-19 15:00:04.104,-0.115,0.13
2021-08-19 15:00:04.108,-0.115,0.12
2021-08-19 15:00:04.112,-0.095,0.105
2021-08-19 15:00:04.116,-0.065,0.09
2021-08-19 15:00:04.120,-0.08,0.085
2021-08-19 15:00:04.124,-0.06,0.055
2021-08-19 15:00:04.128,-0.08,0.035
2021-08-19 15:00:04.132,-0.07,0.055
2021-08-19 15:00:04.136,-0.055,0.02
2021-08-19 15:00:04.140,-0.055,-0.005
2021-08-19 15:00:04.144,-0.07,-0.025
2021-08-19 15:00:04.148,-0.075,-0.04
2021-08-19 15:00:04.152,-0.045,-0.04
2021-08-19 15:00:04.156,-0.025,-0.065
2021-08-19 15:00:04.160,-0.055,-0.095
2021-08-19 15:00:04.164,-0.05,-0.08
2021-08-19 15:00:04.168,-0.05,-0.105
2021-08-19 15:00:04.172,-0.045,-0.11
2021-08-19 15:00:04.176,-0.03,-0.12
2021-08-19 15:00:04.180,-0.02,-0.13
2021-08-19 15:00:04.184,-0.015,-0.115
2021-08-19 15:00:04.188,-0.015,-0.13
2021-08-19 15:00:04.192,-0.005,-0.14
2021-08-19 15:00:04.196,0.01,-0.165
2021-08-19 15:00:04.200,0.025,-0.18
2021-08-19 15:00:04.204,0.05,-0.145
2021-08-19 15:00:04.208,0.055,-0.15
2021-08-19 15:00:04.212,0.07,-0.145
2021-08-19 15:00:04.216,0.075,-0.12
2021-08-19 15:00:04.220,0.12,-0.115
2021-08-19 15:00:04.224,0.175,-0.08
2021-08-19 15:00:04.228,0.21,-0.06
2021-08-19 15:00:04.232,0.225,-0.05
2021-08-19 15:00:04.236,0.25,-0.055
2021-08-19 15:00:04.240,0.28,-0.07
2021-08-19 15:00:04.244,0.28,-0.07
2021-08-19 15:00:04.248,0.3,-0.065
2021-08-19 15:00:04.252,0.295,-0.075
2021-08-19 15:00:04.256,0.275,-0.125
2021-08-19 15:00:04.260,0.245,-0.145
2021-08-19 15:00:04.264,0.185,-0.19
2021-08-19 15:00:04.268,0.135,-0.21
2021-08-19 15:00:04.272,0.065,-0.205
2021-08-19 15:00:04.276,0.015,-0.17
2021-08-19 15:00:04.280,-0.05,-0.17
2021-08-19 15:00:04.284,-0.095,-0.135
2021-08-19 15:00:04.288,-0.12,-0.12
2021-08-19 15:00:04.292,-0.145,-0.075
2021-08-19 15:00:04.296,-0.155,-0.07
2021-08-19 15:00:04.300,-0.16,-0.08
2021-08-19 15:00:04.304,-0.13,-0.11
2021-08-19 15:00:04.308,-0.155,-0.11
2021-08-19 15:00:04.312,-0.14,-0.11
2021-08-19 15:00:04.316,-0.135,-0.115
2021-08-19 15:00:04.320,-0.135,-0.145
2021-08-19 15:00:04.324,-0.125,-0.135
2021-08-19 15:00:04.328,-0.125,-0.13
2021-08-19 15:00:04.332,-0.13,-0.135
2021-08-19 15:00:04.336,-0.12,-0.13
2021-08-19 15:00:04.340,-0.12,-0.13
2021-08-19 15:00:04.344,-0.125,-0.16
2021-08-19 15:00:04.348,-0.11,-0.145
2021-08-19 15:00:04.352,-0.115,-0.14
2021-08-19 15:00:04.356,-0.105,-0.145
2021-08-19 15:00:04.360,-0.11,-0.125
2021-08-19 15:00:04.364,-0.08,-0.145
2021-08-19 15:00:04.368,-0.09,-0.135
2021-08-19 15:00:04.372,-0.06,-0.145
2021-08-19 15:00:04.376,-0.085,-0.145
2021-08-19 15:00:04.380,-0.09,-0.145
2021-08-19 15:00:04.384,-0.08,-0.11
2021-08-19 15:00:04.388,-0.095,-0.13
2021-08-19 15:00:04.392,-0.075,-0.125
2021-08-19 15:00:04.396,-0.07,-0.14
2021-08-19 15:00:04.400,-0.05,-0.14
2021-08-19 15:00:04.404,-0.02,-0.145
2021-08-19 15:00:04.408,0.04,-0.165
2021-08-19 15:00:04.412,0.115,-0.16
2021-08-19 15:00:04.416,0.17,-0.17
2021-08-19 15:00:04.420,0.24,-0.195
2021-08-19 15:00:04.424,0.295,-0.245
2021-08-19 15:00:04.428,0.305,-0.32
2021-08-19 15:00:04.432,0.33,-0.41
2021-08-19 15:00:04.436,0.345,-0.51
2021-08-19 15:00:04.440,0.345,-0.65
2021-08-19 15:00:04.444,0.39,-0.82
2021-08-19 15:00:04.448,0.48,-1.035
2021-08-19 15:00:04.452,0.67,-1.265
2021-08-19 15:00:04.456,0.965,-1.59
2021-08-19 15:00:04.460,1.19,-1.85
2021-08-19 15:00:04.472,0.35,-1.855
2021-08-19 15:00:04.476,-0.01,-1.405
2021-08-19 15:00:04.480,-0.2,-0.945
2021-08-19 15:00:04.484,-0.275,-0.625
2021-08-19 15:00:04.488,-0.315,-0.455
2021-08-19 15:00:04.492,-0.3,-0.295
2021-08-19 15:00:04.496,-0.28,-0.16
2021-08-19 15:00:04.500,-0.275,-0.085
2021-08-19 15:00:04.504,-0.26,-0.005
2021-08-19 15:00:04.508,-0.255,0.03
2021-08-19 15:00:04.512,-0.245,0.05
2021-08-19 15:00:04.516,-0.255,0.065
2021-08-19 15:00:04.520,-0.28,0.065
2021-08-19 15:00:04.524,-0.255,0.065
2021-08-19 15:00:04.528,-0.26,0.075
2021-08-19 15:00:04.532,-0.26,0.06
2021-08-19 15:00:04.536,-0.265,0.065
2021-08-19 15:00:04.540,-0.26,0.06
2021-08-19 15:00:04.544,-0.25,0.065
2021-08-19 15:00:04.548,-0.235,0.075
2021-08-19 15:00:04.552,-0.25,0.09
2021-08-19 15:00:04.556,-0.245,0.09
2021-08-19 15:00:04.560,-0.25,0.09
2021-08-19 15:00:04.564,-0.255,0.085
2021-08-19 15:00:04.568,-0.245,0.09
2021-08-19 15:00:04.572,-0.25,0.075
2021-08-19 15:00:04.576,-0.23,0.085
2021-08-19 15:00:04.580,-0.22,0.105
2021-08-19 15:00:04.584,-0.23,0.095
2021-08-19 15:00:04.588,-0.25,0.105
2021-08-19 15:00:04.592,-0.235,0.115
2021-08-19 15:00:04.596,-0.245,0.14
2021-08-19 15:00:04.600,-0.235,0.135
2021-08-19 15:00:04.604,-0.21,0.16
2021-08-19 15:00:04.608,-0.215,0.17
2021-08-19 15:00:04.612,-0.21,0.19
2021-08-19 15:00:04.616,-0.18,0.155
2021-08-19 15:00:04.620,-0.19,0.175
2021-08-19 15:00:04.624,-0.175,0.185
2021-08-19 15:00:04.628,-0.14,0.19
2021-08-19 15:00:04.632,-0.14,0.2
2021-08-19 15:00:04.636,-0.15,0.2
2021-08-19 15:00:04.640,-0.16,0.185
2021-08-19 15:00:04.644,-0.16,0.2
2021-08-19 15:00:04.648,-0.16,0.2
2021-08-19 15:00:04.652,-0.14,0.175
2021-08-19 15:00:04.656,-0.1,0.2
2021-08-19 15:00:04.660,-0.095,0.185
2021-08-19 15:00:04.664,-0.09,0.17
2021-08-19 15:00:04.668,-0.095,0.175
2021-08-19 15:00:04.672,-0.105,0.15
2021-08-19 15:00:04.676,-0.1,0.125
2021-08-19 15:00:04.680,-0.095,0.1
2021-08-19 15:00:04.684,-0.09,0.09
2021-08-19 15:00:04.688,-0.095,0.085
2021-08-19 15:00:04.692,-0.095,0.055
2021-08-19 15:00:04.696,-0.11,0.035
2021-08-19 15:00:04.700,-0.095,0.02
2021-08-19 15:00:04.704,-0.085,0.0
2021-08-19 15:00:04.708,-0.085,-0.025
2021-08-19 15:00:04.712,-0.07,-0.03
2021-08-19 15:00:04.716,-0.04,-0.045
2021-08-19 15:00:04.720,-0.06,-0.055
2021-08-19 15:00:04.724,-0.06,-0.06
2021-08-19 15:00:04.728,-0.07,-0.055
2021-08-19 15:00:04.732,-0.065,-0.06
2021-08-19 15:00:04.736,-0.055,-0.075
2021-08-19 15:00:04.740,-0.025,-0.08
2021-08-19 15:00:04.744,-0.005,-0.09
2021-08-19 15:00:04.748,0.0,-0.07
2021-08-19 15:00:04.752,0.015,-0.09
2021-08-19 15:00:04.756,0.03,-0.1
2021-08-19 15:00:04.760,0.055,-0.07
2021-08-19 15:00:04.764,0.065,-0.06
2021-08-19 15:00:04.768,0.085,-0.07
2021-08-19 15:00:04.772,0.075,-0.035
2021-08-19 15:00:04.776,0.135,-0.03
2021-08-19 15:00:04.780,0.165,-0.01
2021-08-19 15:00:04.784,0.21,0.01
2021-08-19 15:00:04.788,0.19,0.005
2021-08-19 15:00:04.792,0.225,0.005
2021-08-19 15:00:04.796,0.245,0.005
2021-08-19 15:00:04.800,0.26,-0.005
2021-08-19 15:00:04.804,0.27,0.015
2021-08-19 15:00:04.808,0.27,-0.005
2021-08-19 15:00:04.812,0.235,-0.04
2021-08-19 15:00:04.816,0.19,-0.075
2021-08-19 15:00:04.820,0.15,-0.12
2021-08-19 15:00:04.824,0.11,-0.15
2021-08-19 15:00:04.828,0.04,-0.12
2021-08-19 15:00:04.832,-0.025,-0.115
2021-08-19 15:00:04.836,-0.055,-0.1
2021-08-19 15:00:04.840,-0.11,-0.075
2021-08-19 15:00:04.844,-0.13,-0.06
2021-08-19 15:00:04.848,-0.165,-0.05
2021-08-19 15:00:04.852,-0.175,-0.02
2021-08-19 15:00:04.856,-0.175,-0.03
2021-08-19 15:00:04.860,-0.16,-0.02
2021-08-19 15:00:04.864,-0.16,-0.03
2021-08-19 15:00:04.868,-0.135,-0.035
2021-08-19 15:00:04.872,-0.11,-0.04
2021-08-19 15:00:04.876,-0.11,-0.05
2021-08-19 15:00:04.880,-0.1,-0.08
2021-08-19 15:00:04.884,-0.105,-0.06
2021-08-19 15:00:04.888,-0.1,-0.07
2021-08-19 15:00:04.892,-0.09,-0.07
2021-08-19 15:00:04.896,-0.09,-0.075
2021-08-19 15:00:04.900,-0.085,-0.075
2021-08-19 15:00:04.904,-0.09,-0.06
2021-08-19 15:00:04.908,-0.09,-0.08
2021-08-19 15:00:04.912,-0.1,-0.055
2021-08-19 15:00:04.916,-0.08,-0.07
2021-08-19 15:00:04.920,-0.06,-0.075
2021-08-19 15:00:04.924,-0.07,-0.075
2021-08-19 15:00:04.928,-0.1,-0.05
2021-08-19 15:00:04.932,-0.13,-0.1
2021-08-19 15:00:04.936,-0.115,-0.095
2021-08-19 15:00:04.940,-0.105,-0.115
2021-08-19 15:00:04.944,-0.08,-0.11
2021-08-19 15:00:04.948,-0.07,-0.085
2021-08-19 15:00:04.952,-0.07,-0.1
2021-08-19 15:00:04.956,-0.045,-0.08
2021-08-19 15:00:04.960,0.01,-0.12
2021-08-19 15:00:04.964,0.08,-0.12
2021-08-19 15:00:04.968,0.15,-0.13
2021-08-19 15:00:04.972,0.24,-0.14
2021-08-19 15:00:04.976,0.32,-0.175
2021-08-19 15:00:04.980,0.38,-0.23
2021-08-19 15:00:04.984,0.44,-0.295
2021-08-19 15:00:04.988,0.48,-0.36
2021-08-19 15:00:04.992,0.525,-0.465
2021-08-19 15:00:04.996,0.515,-0.59
2021-08-19 15:00:05.000,0.54,-0.765
2021-08-19 15:00:05.004,0.6,-0.94
2021-08-19 15:00:05.008,0.79,-1.16
2021-08-19 15:00:05.012,1.085,-1.46
2021-08-19 15:00:05.016,1.285,-1.75
2021-08-19 15:00:05.020,1.23,-1.895
2021-08-19 15:00:05.024,0.815,-1.935
2021-08-19 15:00:05.028,0.315,-1.685
2021-08-19 15:00:05.032,0.015,-1.235
2021-08-19 15:00:05.036,-0.115,-0.85
2021-08-19 15:00:05.040,-0.21,-0.585
2021-08-19 15:00:05.044,-0.225,-0.395
2021-08-19 15:00:05.048,-0.2,-0.25
2021-08-19 15:00:05.052,-0.205,-0.125
2021-08-19 15:00:05.056,-0.24,-0.04
2021-08-19 15:00:05.060,-0.255,0.0
2021-08-19 15:00:05.064,-0.245,0.03
2021-08-19 15:00:05.068,-0.245,0.02
2021-08-19 15:00:05.072,-0.22,0.055
2021-08-19 15:00:05.076,-0.235,0.045
2021-08-19 15:00:05.080,-0.23,0.04
2021-08-19 15:00:05.084,-0.255,0.05
2021-08-19 15:00:05.088,-0.255,0.035
2021-08-19 15:00:05.092,-0.24,0.045
2021-08-19 15:00:05.096,-0.235,0.045
2021-08-19 15:00:05.100,-0.24,0.03
2021-08-19 15:00:05.104,-0.23,0.06
2021-08-19 15:00:05.108,-0.23,0.045
2021-08-19 15:00:05.112,-0.245,0.065
2021-08-19 15:00:05.116,-0.215,0.06
2021-08-19 15:00:05.120,-0.215,0.07
2021-08-19 15:00:05.124,-0.195,0.06
2021-08-19 15:00:05.128,-0.2,0.065
2021-08-19 15:00:05.132,-0.21,0.085
2021-08-19 15:00:05.136,-0.235,0.095
2021-08-19 15:00:05.140,-0.235,0.1
2021-08-19 15:00:05.144,-0.235,0.115
2021-08-19 15:00:05.148,-0.23,0.125
2021-08-19 15:00:05.152,-0.22,0.115
2021-08-19 15:00:05.156,-0.215,0.13
2021-08-19 15:00:05.160,-0.2,0.14
2021-08-19 15:00:05.164,-0.22,0.135
2021-08-19 15:00:05.168,-0.22,0.15
2021-08-19 15:00:05.172,-0.215,0.14
2021-08-19 15:00:05.176,-0.2,0.135
2021-08-19 15:00:05.180,-0.17,0.135
2021-08-19 15:00:05.184,-0.195,0.135
2021-08-19 15:00:05.188,-0.165,0.145
2021-08-19 15:00:05.192,-0.17,0.135
2021-08-19 15:00:05.196,-0.155,0.15
2021-08-19 15:00:05.200,-0.16,0.125
2021-08-19 15:00:05.204,-0.16,0.115
2021-08-19 15:00:05.208,-0.155,0.1
2021-08-19 15:00:05.212,-0.145,0.095
2021-08-19 15:00:05.216,-0.115,0.105
2021-08-19 15:00:05.220,-0.14,0.1
2021-08-19 15:00:05.224,-0.14,0.075
2021-08-19 15:00:05.228,-0.135,0.07
2021-08-19 15:00:05.232,-0.12,0.075
2021-08-19 15:00:05.236,-0.105,0.045
2021-08-19 15:00:05.240,-0.09,0.02
2021-08-19 15:00:05.244,-0.07,0.01
2021-08-19 15:00:05.248,-0.095,-0.005
2021-08-19 15:00:05.252,-0.065,-0.025
2021-08-19 15:00:05.256,-0.06,-0.055
2021-08-19 15:00:05.260,-0.03,-0.065
2021-08-19 15:00:05.264,-0.03,-0.07
2021-08-19 15:00:05.268,-0.02,-0.08
2021-08-19 15:00:05.272,-0.02,-0.075
2021-08-19 15:00:05.276,-0.025,-0.09
2021-08-19 15:00:05.280,-0.02,-0.105
2021-08-19 15:00:05.284,-0.02,-0.12
2021-08-19 15:00:05.288,-0.02,-0.12
2021-08-19 15:00:05.292,-0.01,-0.13
2021-08-19 15:00:05.296,-0.01,-0.11
2021-08-19 15:00:05.300,-0.02,-0.125
2021-08-19 15:00:05.304,-0.005,-0.13
2021-08-19 15:00:05.308,-0.035,-0.125
2021-08-19 15:00:05.312,-0.01,-0.11
2021-08-19 15:00:05.316,-0.03,-0.115
2021-08-19 15:00:05.320,-0.01,-0.12
2021-08-19 15:00:05.324,-0.005,-0.12
2021-08-19 15:00:05.328,-0.02,-0.11
2021-08-19 15:00:05.332,0.0,-0.12
2021-08-19 15:00:05.336,0.02,-0.13
2021-08-19 15:00:05.340,0.02,-0.14
2021-08-19 15:00:05.344,0.02,-0.14
2021-08-19 15:00:05.348,0.04,-0.125
2021-08-19 15:00:05.352,0.05,-0.09
2021-08-19 15:00:05.356,0.075,-0.095
2021-08-19 15:00:05.360,0.115,-0.105
2021-08-19 15:00:05.364,0.17,-0.055
2021-08-19 15:00:05.368,0.235,-0.035
2021-08-19 15:00:05.372,0.27,-0.02
2021-08-19 15:00:05.376,0.295,-0.045
2021-08-19 15:00:05.380,0.33,-0.04
2021-08-19 15:00:05.384,0.345,-0.04
2021-08-19 15:00:05.388,0.335,-0.025
2021-08-19 15:00:05.392,0.34,-0.035
2021-08-19 15:00:05.396,0.32,-0.075
2021-08-19 15:00:05.400,0.275,-0.105
2021-08-19 15:00:05.404,0.215,-0.145
2021-08-19 15:00:05.408,0.15,-0.17
2021-08-19 15:00:05.412,0.105,-0.165
2021-08-19 15:00:05.416,0.03,-0.16
2021-08-19 15:00:05.420,-0.005,-0.13
2021-08-19 15:00:05.424,-0.05,-0.12
2021-08-19 15:00:05.428,-0.065,-0.09
2021-08-19 15:00:05.432,-0.11,-0.08
2021-08-19 15:00:05.436,-0.11,-0.1
2021-08-19 15:00:05.440,-0.095,-0.105
2021-08-19 15:00:05.444,-0.085,-0.09
2021-08-19 15:00:05.448,-0.07,-0.125
2021-08-19 15:00:05.452,-0.095,-0.115
2021-08-19 15:00:05.456,-0.075,-0.125
2021-08-19 15:00:05.460,-0.07,-0.115
2021-08-19 15:00:05.464,-0.075,-0.125
2021-08-19 15:00:05.468,-0.08,-0.135
2021-08-19 15:00:05.472,-0.075,-0.135
2021-08-19 15:00:05.476,-0.085,-0.14
2021-08-19 15:00:05.480,-0.075,-0.115
2021-08-19 15:00:05.484,-0.08,-0.14
2021-08-19 15:00:05.488,-0.055,-0.145
2021-08-19 15:00:05.492,-0.09,-0.14
2021-08-19 15:00:05.496,-0.055,-0.14
2021-08-19 15:00:05.500,-0.06,-0.135
2021-08-19 15:00:05.504,-0.05,-0.135
2021-08-19 15:00:05.508,-0.055,-0.14
2021-08-19 15:00:05.512,-0.04,-0.14
2021-08-19 15:00:05.516,-0.04,-0.14
2021-08-19 15:00:05.520,-0.06,-0.125
2021-08-19 15:00:05.524,-0.045,-0.135
2021-08-19 15:00:05.528,-0.055,-0.14
2021-08-19 15:00:05.532,-0.05,-0.135
2021-08-19 15:00:05.536,-0.04,-0.14
2021-08-19 15:00:05.540,0.005,-0.13
2021-08-19 15:00:05.544,0.055,-0.155
2021-08-19 15:00:05.548,0.145,-0.16
2021-08-19 15:00:05.552,0.215,-0.17
2021-08-19 15:00:05.556,0.275,-0.2
2021-08-19 15:00:05.560,0.325,-0.255
2021-08-19 15:00:05.564,0.375,-0.34
2021-08-19 15:00:05.568,0.4,-0.42
2021-08-19 15:00:05.572,0.42,-0.5
2021-08-19 15:00:05.576,0.435,-0.63
2021-08-19 15:00:05.580,0.475,-0.775
2021-08-19 15:00:05.584,0.54,-0.98
2021-08-19 15:00:05.588,0.725,-1.2
2021-08-19 15:00:05.592,1.0,-1.47
2021-08-19 15:00:05.596,1.25,-1.76
2021-08-19 15:00:05.600,1.295,-1.955
2021-08-19 15:00:05.608,0.455,-1.865
2021-08-19 15:00:05.612,0.045,-1.44
2021-08-19 15:00:05.616,-0.13,-0.965
2021-08-19 15:00:05.620,-0.23,-0.65
2021-08-19 15:00:05.624,-0.26,-0.465
2021-08-19 15:00:05.628,-0.215,-0.295
2021-08-19 15:00:05.632,-0.19,-0.17
2021-08-19 15:00:05.636,-0.2,-0.1
2021-08-19 15:00:05.640,-0.215,-0.025
2021-08-19 15:00:05.644,-0.23,-0.01
2021-08-19 15:00:05.648,-0.235,0.03
2021-08-19 15:00:05.652,-0.24,0.025
2021-08-19 15:00:05.656,-0.23,0.045
2021-08-19 15:00:05.660,-0.225,0.06
2021-08-19 15:00:05.664,-0.23,0.02
2021-08-19 15:00:05.668,-0.225,0.06
2021-08-19 15:00:05.672,-0.225,0.07
2021-08-19 15:00:05.676,-0.225,0.06
2021-08-19 15:00:05.680,-0.225,0.055
2021-08-19 15:00:05.684,-0.245,0.065
2021-08-19 15:00:05.688,-0.25,0.08
2021-08-19 15:00:05.692,-0.25,0.06
2021-08-19 15:00:05.696,-0.235,0.075
2021-08-19 15:00:05.700,-0.24,0.075
2021-08-19 15:00:05.704,-0.24,0.075
2021-08-19 15:00:05.708,-0.225,0.075
2021-08-19 15:00:05.712,-0.23,0.09
2021-08-19 15:00:05.716,-0.23,0.11
2021-08-19 15:00:05.720,-0.235,0.08
2021-08-19 15:00:05.724,-0.22,0.1
2021-08-19 15:00:05.728,-0.225,0.11
2021-08-19 15:00:05.732,-0.215,0.12
2021-08-19 15:00:05.736,-0.205,0.125
2021-08-19 15:00:05.740,-0.205,0.145
2021-08-19 15:00:05.744,-0.175,0.135
2021-08-19 15:00:05.748,-0.175,0.13
2021-08-19 15:00:05.752,-0.175,0.125
2021-08-19 15:00:05.756,-0.175,0.125
2021-08-19 15:00:05.760,-0.17,0.18
2021-08-19 15:00:05.764,-0.16,0.175
2021-08-19 15:00:05.768,-0.14,0.16
2021-08-19 15:00:05.772,-0.13,0.17
2021-08-19 15:00:05.776,-0.13,0.185
2021-08-19 15:00:05.780,-0.125,0.195
2021-08-19 15:00:05.784,-0.1,0.18
2021-08-19 15:00:05.788,-0.085,0.175
2021-08-19 15:00:05.792,-0.08,0.175
2021-08-19 15:00:05.796,-0.1,0.165
2021-08-19 15:00:05.800,-0.08,0.14
2021-08-19 15:00:05.804,-0.08,0.135
2021-08-19 15:00:05.808,-0.095,0.12
2021-08-19 15:00:05.812,-0.08,0.105
2021-08-19 15:00:05.816,-0.125,0.1
2021-08-19 15:00:05.820,-0.1,0.05
2021-08-19 15:00:05.824,-0.095,0.05
2021-08-19 15:00:05.828,-0.08,0.035
2021-08-19 15:00:05.832,-0.065,0.005
2021-08-19 15:00:05.836,-0.075,-0.02
2021-08-19 15:00:05.840,-0.07,-0.02
2021-08-19 15:00:05.844,-0.06,-0.04
2021-08-19 15:00:05.848,-0.05,-0.06
2021-08-19 15:00:05.852,-0.04,-0.07
2021-08-19 15:00:05.856,-0.03,-0.06
2021-08-19 15:00:05.860,-0.035,-0.095
2021-08-19 15:00:05.864,-0.02,-0.1
2021-08-19 15:00:05.868,-0.02,-0.095
2021-08-19 15:00:05.872,-0.005,-0.12
2021-08-19 15:00:05.876,0.005,-0.105
2021-08-19 15:00:05.880,0.0,-0.13
2021-08-19 15:00:05.884,0.035,-0.13
2021-08-19 15:00:05.888,0.05,-0.12
2021-08-19 15:00:05.892,0.07,-0.105
2021-08-19 15:00:05.896,0.065,-0.105
2021-08-19 15:00:05.900,0.065,-0.1
2021-08-19 15:00:05.904,0.085,-0.09
2021-08-19 15:00:05.908,0.13,-0.085
2021-08-19 15:00:05.912,0.17,-0.075
2021-08-19 15:00:05.916,0.215,-0.07
2021-08-19 15:00:05.920,0.245,-0.04
2021-08-19 15:00:05.924,0.27,-0.01
2021-08-19 15:00:05.928,0.28,-0.025
2021-08-19 15:00:05.932,0.285,-0.015
2021-08-19 15:00:05.936,0.275,-0.05
2021-08-19 15:00:05.940,0.28,-0.04
2021-08-19 15:00:05.944,0.28,-0.08
2021-08-19 15:00:05.948,0.25,-0.115
2021-08-19 15:00:05.952,0.225,-0.155
2021-08-19 15:00:05.956,0.155,-0.17
2021-08-19 15:00:05.960,0.115,-0.19
2021-08-19 15:00:05.964,0.035,-0.195
2021-08-19 15:00:05.968,-0.025,-0.145
2021-08-19 15:00:05.972,-0.05,-0.14
2021-08-19 15:00:05.976,-0.1,-0.1
2021-08-19 15:00:05.980,-0.135,-0.075
2021-08-19 15:00:05.984,-0.16,-0.075
2021-08-19 15:00:05.988,-0.13,-0.085
2021-08-19 15:00:05.992,-0.125,-0.055
2021-08-19 15:00:05.996,-0.09,-0.07
2021-08-19 15:00:06.000,-0.105,-0.09
2021-08-19 15:00:06.004,-0.095,-0.075
2021-08-19 15:00:06.008,-0.09,-0.095
2021-08-19 15:00:06.012,-0.08,-0.11
2021-08-19 15:00:06.016,-0.065,-0.09
2021-08-19 15:00:06.020,-0.075,-0.095
2021-08-19 15:00:06.024,-0.08,-0.09
2021-08-19 15:00:06.028,-0.09,-0.11
2021-08-19 15:00:06.032,-0.07,-0.12
2021-08-19 15:00:06.036,-0.08,-0.125
2021-08-19 15:00:06.040,-0.07,-0.12
2021-08-19 15:00:06.044,-0.08,-0.13
2021-08-19 15:00:06.048,-0.08,-0.115
2021-08-19 15:00:06.052,-0.06,-0.125
2021-08-19 15:00:06.056,-0.08,-0.13
2021-08-19 15:00:06.060,-0.09,-0.12
2021-08-19 15:00:06.064,-0.085,-0.13
2021-08-19 15:00:06.068,-0.08,-0.125
2021-08-19 15:00:06.072,-0.08,-0.155
2021-08-19 15:00:06.076,-0.085,-0.165
2021-08-19 15:00:06.080,-0.085,-0.155
2021-08-19 15:00:06.084,-0.075,-0.145
2021-08-19 15:00:06.088,-0.05,-0.15
2021-08-19 15:00:06.092,-0.01,-0.16
2021-08-19 15:00:06.096,0.03,-0.145
2021-08-19 15:00:06.100,0.1,-0.165
2021-08-19 15:00:06.104,0.155,-0.195
2021-08-19 15:00:06.108,0.23,-0.235
2021-08-19 15:00:06.112,0.28,-0.26
2021-08-19 15:00:06.116,0.34,-0.335
2021-08-19 15:00:06.120,0.36,-0.395
2021-08-19 15:00:06.124,0.375,-0.49
2021-08-19 15:00:06.128,0.39,-0.615
2021-08-19 15:00:06.132,0.42,-0.8
2021-08-19 15:00:06.136,0.475,-0.985
2021-08-19 15:00:06.140,0.675,-1.21
2021-08-19 15:00:06.144,0.965,-1.52
2021-08-19 15:00:06.148,1.215,-1.8
2021-08-19 15:00:06.160,0.36,-1.885
2021-08-19 15:00:06.164,-0.03,-1.435
2021-08-19 15:00:06.168,-0.205,-0.985
2021-08-19 15:00:06.172,-0.28,-0.68
2021-08-19 15:00:06.176,-0.325,-0.475
2021-08-19 15:00:06.180,-0.305,-0.32
2021-08-19 15:00:06.184,-0.295,-0.18
2021-08-19 15:00:06.188,-0.29,-0.105
2021-08-19 15:00:06.192,-0.31,-0.04
2021-08-19 15:00:06.196,-0.285,0.005
2021-08-19 15:00:06.200,-0.3,0.015
2021-08-19 15:00:06.204,-0.315,0.025
2021-08-19 15:00:06.208,-0.295,0.005
2021-08-19 15:00:06.212,-0.3,0.01
2021-08-19 15:00:06.216,-0.295,0.01
2021-08-19 15:00:06.220,-0.285,0.0
2021-08-19 15:00:06.224,-0.28,0.025
2021-08-19 15:00:06.228,-0.28,0.005
2021-08-19 15:00:06.232,-0.3,0.0
2021-08-19 15:00:06.236,-0.29,0.02
2021-08-19 15:00:06.240,-0.31,0.005
2021-08-19 15:00:06.244,-0.29,0.035
2021-08-19 15:00:06.248,-0.27,0.045
2021-08-19 15:00:06.252,-0.26,0.045
2021-08-19 15:00:06.256,-0.26,0.04
2021-08-19 15:00:06.260,-0.265,0.06
2021-08-19 15:00:06.264,-0.255,0.055
2021-08-19 15:00:06.268,-0.24,0.045
2021-08-19 15:00:06.272,-0.265,0.07
2021-08-19 15:00:06.276,-0.24,0.085
2021-08-19 15:00:06.280,-0.27,0.075
2021-08-19 15:00:06.284,-0.255,0.075
2021-08-19 15:00:06.288,-0.235,0.085
2021-08-19 15:00:06.292,-0.255,0.08
2021-08-19 15:00:06.296,-0.25,0.09
2021-08-19 15:00:06.300,-0.23,0.105
2021-08-19 15:00:06.304,-0.23,0.09
2021-08-19 15:00:06.308,-0.235,0.11
2021-08-19 15:00:06.312,-0.22,0.095
2021-08-19 15:00:06.316,-0.225,0.09
2021-08-19 15:00:06.320,-0.22,0.115
2021-08-19 15:00:06.324,-0.225,0.11
2021-08-19 15:00:06.328,-0.205,0.105
2021-08-19 15:00:06.332,-0.225,0.09
2021-08-19 15:00:06.336,-0.22,0.08
2021-08-19 15:00:06.340,-0.215,0.09
2021-08-19 15:00:06.344,-0.2,0.09
2021-08-19 15:00:06.348,-0.185,0.07
2021-08-19 15:00:06.352,-0.195,0.075
2021-08-19 15:00:06.356,-0.17,0.05
2021-08-19 15:00:06.360,-0.16,0.035
2021-08-19 15:00:06.364,-0.185,0.04
2021-08-19 15:00:06.368,-0.175,0.01
2021-08-19 15:00:06.372,-0.16,-0.02
2021-08-19 15:00:06.376,-0.145,-0.035
2021-08-19 15:00:06.380,-0.13,-0.05
2021-08-19 15:00:06.384,-0.11,-0.045
2021-08-19 15:00:06.388,-0.13,-0.085
2021-08-19 15:00:06.392,-0.13,-0.08
2021-08-19 15:00:06.396,-0.105,-0.095
2021-08-19 15:00:06.400,-0.095,-0.105
2021-08-19 15:00:06.404,-0.085,-0.105
2021-08-19 15:00:06.408,-0.1,-0.1
2021-08-19 15:00:06.412,-0.1,-0.13
2021-08-19 15:00:06.416,-0.09,-0.15
2021-08-19 15:00:06.420,-0.085,-0.135
2021-08-19 15:00:06.424,-0.075,-0.135
2021-08-19 15:00:06.428,-0.11,-0.15
2021-08-19 15:00:06.432,-0.135,-0.125
2021-08-19 15:00:06.436,-0.11,-0.165
2021-08-19 15:00:06.440,-0.1,-0.155
2021-08-19 15:00:06.444,-0.095,-0.14
2021-08-19 15:00:06.448,-0.055,-0.14
2021-08-19 15:00:06.452,-0.03,-0.14
2021-08-19 15:00:06.456,-0.025,-0.155
2021-08-19 15:00:06.460,-0.03,-0.14
2021-08-19 15:00:06.464,-0.065,-0.155
2021-08-19 15:00:06.468,-0.035,-0.145
2021-08-19 15:00:06.472,-0.02,-0.135
2021-08-19 15:00:06.476,0.005,-0.115
2021-08-19 15:00:06.480,0.07,-0.13
2021-08-19 15:00:06.484,0.1,-0.09
2021-08-19 15:00:06.488,0.12,-0.07
2021-08-19 15:00:06.492,0.14,-0.045
2021-08-19 15:00:06.496,0.16,-0.065
2021-08-19 15:00:06.500,0.22,-0.085
2021-08-19 15:00:06.504,0.22,-0.08
2021-08-19 15:00:06.508,0.2,-0.065
2021-08-19 15:00:06.512,0.17,-0.11
2021-08-19 15:00:06.516,0.155,-0.14
2021-08-19 15:00:06.520,0.09,-0.185
2021-08-19 15:00:06.524,0.02,-0.195
2021-08-19 15:00:06.528,0.0,-0.19
2021-08-19 15:00:06.532,-0.08,-0.15
2021-08-19 15:00:06.536,-0.125,-0.155
2021-08-19 15:00:06.540,-0.2,-0.145
2021-08-19 15:00:06.544,-0.22,-0.09
2021-08-19 15:00:06.548,-0.22,-0.08
2021-08-19 15:00:06.552,-0.225,-0.095
2021-08-19 15:00:06.556,-0.21,-0.08
2021-08-19 15:00:06.560,-0.225,-0.095
2021-08-19 15:00:06.564,-0.205,-0.12
2021-08-19 15:00:06.568,-0.215,-0.125
2021-08-19 15:00:06.572,-0.205,-0.14
2021-08-19 15:00:06.576,-0.2,-0.135
2021-08-19 15:00:06.580,-0.185,-0.155
2021-08-19 15:00:06.584,-0.19,-0.15
2021-08-19 15:00:06.588,-0.195,-0.16
2021-08-19 15:00:06.592,-0.185,-0.165
2021-08-19 15:00:06.596,-0.19,-0.175
2021-08-19 15:00:06.600,-0.19,-0.165
2021-08-19 15:00:06.604,-0.195,-0.165
2021-08-19 15:00:06.608,-0.17,-0.17
2021-08-19 15:00:06.612,-0.165,-0.145
2021-08-19 15:00:06.616,-0.16,-0.17
2021-08-19 15:00:06.620,-0.17,-0.17
2021-08-19 15:00:06.624,-0.185,-0.15
2021-08-19 15:00:06.628,-0.17,-0.155
2021-08-19 15:00:06.632,-0.175,-0.165
2021-08-19 15:00:06.636,-0.155,-0.15
2021-08-19 15:00:06.640,-0.13,-0.145
2021-08-19 15:00:06.644,-0.11,-0.16
2021-08-19 15:00:06.648,-0.115,-0.15
2021-08-19 15:00:06.652,-0.085,-0.15
2021-08-19 15:00:06.656,-0.07,-0.165
2021-08-19 15:00:06.660,-0.03,-0.14
2021-08-19 15:00:06.664,0.04,-0.16
2021-08-19 15:00:06.668,0.125,-0.21
2021-08-19 15:00:06.672,0.22,-0.205
2021-08-19 15:00:06.676,0.29,-0.26
2021-08-19 15:00:06.680,0.355,-0.33
2021-08-19 15:00:06.684,0.39,-0.385
2021-08-19 15:00:06.688,0.44,-0.495
2021-08-19 15:00:06.692,0.465,-0.595
2021-08-19 15:00:06.696,0.495,-0.75
2021-08-19 15:00:06.700,0.525,-0.92
2021-08-19 15:00:06.704,0.65,-1.16
2021-08-19 15:00:06.708,0.905,-1.395
2021-08-19 15:00:06.712,1.135,-1.685
2021-08-19 15:00:06.716,1.245,-1.89
2021-08-19 15:00:06.720,1.02,-1.975
2021-08-19 15:00:06.724,0.555,-1.835
2021-08-19 15:00:06.728,0.13,-1.42
2021-08-19 15:00:06.732,-0.09,-1.0
2021-08-19 15:00:06.736,-0.19,-0.7
2021-08-19 15:00:06.740,-0.265,-0.505
2021-08-19 15:00:06.744,-0.28,-0.325
2021-08-19 15:00:06.748,-0.235,-0.2
2021-08-19 15:00:06.752,-0.245,-0.095
2021-08-19 15:00:06.756,-0.24,-0.045
2021-08-19 15:00:06.760,-0.24,-0.005
2021-08-19 15:00:06.764,-0.26,0.015
2021-08-19 15:00:06.768,-0.27,0.03
2021-08-19 15:00:06.772,-0.245,0.03
2021-08-19 15:00:06.776,-0.235,0.045
2021-08-19 15:00:06.780,-0.24,0.045
2021-08-19 15:00:06.784,-0.25,0.055
2021-08-19 15:00:06.788,-0.265,0.06
2021-08-19 15:00:06.792,-0.255,0.075
2021-08-19 15:00:06.796,-0.23,0.085
2021-08-19 15:00:06.800,-0.235,0.085
2021-08-19 15:00:06.804,-0.27,0.07
2021-08-19 15:00:06.808,-0.25,0.08
2021-08-19 15:00:06.812,-0.26,0.08
2021-08-19 15:00:06.816,-0.27,0.07
2021-08-19 15:00:06.820,-0.255,0.09
2021-08-19 15:00:06.824,-0.245,0.085
2021-08-19 15:00:06.828,-0.255,0.08
2021-08-19 15:00:06.832,-0.25,0.08
2021-08-19 15:00:06.836,-0.235,0.1
2021-08-19 15:00:06.840,-0.245,0.105
2021-08-19 15:00:06.844,-0.25,0.1
2021-08-19 15:00:06.848,-0.245,0.11
2021-08-19 15:00:06.852,-0.22,0.115
2021-08-19 15:00:06.856,-0.21,0.11
2021-08-19 15:00:06.860,-0.215,0.095
2021-08-19 15:00:06.864,-0.205,0.11
2021-08-19 15:00:06.868,-0.215,0.095
2021-08-19 15:00:06.872,-0.2,0.12
2021-08-19 15:00:06.876,-0.205,0.13
2021-08-19 15:00:06.880,-0.18,0.145
2021-08-19 15:00:06.884,-0.145,0.15
2021-08-19 15:00:06.888,-0.12,0.16
2021-08-19 15:00:06.892,-0.125,0.15
2021-08-19 15:00:06.896,-0.145,0.145
2021-08-19 15:00:06.900,-0.145,0.14
2021-08-19 15:00:06.904,-0.15,0.135
2021-08-19 15:00:06.908,-0.16,0.14
2021-08-19 15:00:06.912,-0.17,0.12
2021-08-19 15:00:06.916,-0.15,0.125
2021-08-19 15:00:06.920,-0.14,0.14
2021-08-19 15:00:06.924,-0.12,0.105
2021-08-19 15:00:06.928,-0.125,0.11
2021-08-19 15:00:06.932,-0.115,0.075
2021-08-19 15:00:06.936,-0.12,0.07
2021-08-19 15:00:06.940,-0.145,0.045
2021-08-19 15:00:06.944,-0.15,0.03
2021-08-19 15:00:06.948,-0.115,0.005
2021-08-19 15:00:06.952,-0.135,-0.005
2021-08-19 15:00:06.956,-0.12,-0.015
2021-08-19 15:00:06.960,-0.12,-0.055
2021-08-19 15:00:06.964,-0.105,-0.075
2021-08-19 15:00:06.968,-0.105,-0.09
2021-08-19 15:00:06.972,-0.11,-0.095
2021-08-19 15:00:06.976,-0.095,-0.095
2021-08-19 15:00:06.980,-0.095,-0.12
2021-08-19 15:00:06.984,-0.105,-0.135
2021-08-19 15:00:06.988,-0.1,-0.135
2021-08-19 15:00:06.992,-0.085,-0.12
2021-08-19 15:00:06.996,-0.08,-0.12
2021-08-19 15:00:07.000,-0.065,-0.13
2021-08-19 15:00:07.004,-0.055,-0.105
2021-08-19 15:00:07.008,-0.045,-0.12
2021-08-19 15:00:07.012,-0.015,-0.145
2021-08-19 15:00:07.016,-0.005,-0.135
2021-08-19 15:00:07.020,0.03,-0.12
2021-08-19 15:00:07.024,0.03,-0.115
2021-08-19 15:00:07.028,0.03,-0.105
2021-08-19 15:00:07.032,0.065,-0.08
2021-08-19 15:00:07.036,0.07,-0.075
2021-08-19 15:00:07.040,0.115,-0.06
2021-08-19 15:00:07.044,0.14,-0.07
2021-08-19 15:00:07.048,0.18,-0.04
2021-08-19 15:00:07.052,0.215,-0.04
2021-08-19 15:00:07.056,0.21,-0.045
2021-08-19 15:00:07.060,0.225,-0.06
2021-08-19 15:00:07.064,0.225,-0.06
2021-08-19 15:00:07.068,0.245,-0.08
2021-08-19 15:00:07.072,0.245,-0.08
2021-08-19 15:00:07.076,0.225,-0.12
2021-08-19 15:00:07.080,0.175,-0.145
2021-08-19 15:00:07.084,0.125,-0.165
2021-08-19 15:00:07.088,0.06,-0.195
2021-08-19 15:00:07.092,0.01,-0.185
2021-08-19 15:00:07.096,-0.04,-0.17
2021-08-19 15:00:07.100,-0.085,-0.155
2021-08-19 15:00:07.104,-0.14,-0.115
2021-08-19 15:00:07.108,-0.145,-0.105
2021-08-19 15:00:07.112,-0.175,-0.06
2021-08-19 15:00:07.116,-0.155,-0.08
2021-08-19 15:00:07.120,-0.17,-0.085
2021-08-19 15:00:07.124,-0.175,-0.085
2021-08-19 15:00:07.128,-0.16,-0.11
2021-08-19 15:00:07.132,-0.16,-0.11
2021-08-19 15:00:07.136,-0.15,-0.095
2021-08-19 15:00:07.140,-0.14,-0.12
2021-08-19 15:00:07.144,-0.14,-0.135
2021-08-19 15:00:07.148,-0.115,-0.125
2021-08-19 15:00:07.152,-0.145,-0.12
2021-08-19 15:00:07.156,-0.125,-0.125
2021-08-19 15:00:07.160,-0.11,-0.115
2021-08-19 15:00:07.164,-0.115,-0.125
2021-08-19 15:00:07.168,-0.08,-0.14
2021-08-19 15:00:07.172,-0.115,-0.14
2021-08-19 15:00:07.176,-0.12,-0.14
2021-08-19 15:00:07.180,-0.14,-0.155
2021-08-19 15:00:07.184,-0.15,-0.16
2021-08-19 15:00:07.188,-0.155,-0.145
2021-08-19 15:00:07.192,-0.145,-0.155
2021-08-19 15:00:07.196,-0.15,-0.16
2021-08-19 15:00:07.200,-0.155,-0.15
2021-08-19 15:00:07.204,-0.15,-0.16
2021-08-19 15:00:07.208,-0.145,-0.17
2021-08-19 15:00:07.212,-0.13,-0.18
2021-08-19 15:00:07.216,-0.1,-0.18
2021-08-19 15:00:07.220,-0.085,-0.18
2021-08-19 15:00:07.224,-0.04,-0.18
2021-08-19 15:00:07.228,0.0,-0.19
2021-08-19 15:00:07.232,0.085,-0.235
2021-08-19 15:00:07.236,0.175,-0.25
2021-08-19 15:00:07.240,0.215,-0.265
2021-08-19 15:00:07.244,0.24,-0.345
2021-08-19 15:00:07.248,0.27,-0.415
2021-08-19 15:00:07.252,0.295,-0.47
2021-08-19 15:00:07.256,0.295,-0.6
2021-08-19 15:00:07.260,0.315,-0.735
2021-08-19 15:00:07.264,0.345,-0.93
2021-08-19 15:00:07.268,0.485,-1.155
2021-08-19 15:00:07.272,0.71,-1.425
2021-08-19 15:00:07.276,1.015,-1.705
2021-08-19 15:00:07.280,1.185,-1.945
2021-08-19 15:00:07.292,0.155,-1.7
2021-08-19 15:00:07.296,-0.13,-1.22
2021-08-19 15:00:07.300,-0.26,-0.835
2021-08-19 15:00:07.304,-0.34,-0.6
2021-08-19 15:00:07.308,-0.355,-0.41
2021-08-19 15:00:07.312,-0.33,-0.265
2021-08-19 15:00:07.316,-0.33,-0.2
2021-08-19 15:00:07.320,-0.345,-0.095
2021-08-19 15:00:07.324,-0.34,-0.055
2021-08-19 15:00:07.328,-0.35,-0.02
2021-08-19 15:00:07.332,-0.32,0.0
2021-08-19 15:00:07.336,-0.32,-0.01
2021-08-19 15:00:07.340,-0.325,0.015
2021-08-19 15:00:07.344,-0.355,0.01
2021-08-19 15:00:07.348,-0.33,0.0
2021-08-19 15:00:07.352,-0.325,0.01
2021-08-19 15:00:07.356,-0.335,0.025
2021-08-19 15:00:07.360,-0.32,0.04
2021-08-19 15:00:07.364,-0.335,0.01
2021-08-19 15:00:07.368,-0.325,0.04
2021-08-19 15:00:07.372,-0.34,0.015
2021-08-19 15:00:07.376,-0.32,0.015
2021-08-19 15:00:07.380,-0.32,0.005
2021-08-19 15:00:07.384,-0.31,0.045
2021-08-19 15:00:07.388,-0.3,0.04
2021-08-19 15:00:07.392,-0.29,0.055
2021-08-19 15:00:07.396,-0.29,0.065
2021-08-19 15:00:07.400,-0.295,0.095
2021-08-19 15:00:07.404,-0.3,0.1
2021-08-19 15:00:07.408,-0.3,0.12
2021-08-19 15:00:07.412,-0.3,0.105
2021-08-19 15:00:07.416,-0.29,0.11
2021-08-19 15:00:07.420,-0.28,0.11
2021-08-19 15:00:07.424,-0.275,0.12
2021-08-19 15:00:07.428,-0.27,0.14
2021-08-19 15:00:07.432,-0.3,0.125
2021-08-19 15:00:07.436,-0.29,0.135
2021-08-19 15:00:07.440,-0.28,0.135
2021-08-19 15:00:07.444,-0.255,0.135
2021-08-19 15:00:07.448,-0.27,0.14
2021-08-19 15:00:07.452,-0.25,0.135
2021-08-19 15:00:07.456,-0.23,0.155
2021-08-19 15:00:07.460,-0.225,0.135
2021-08-19 15:00:07.464,-0.22,0.135
2021-08-19 15:00:07.468,-0.21,0.1
2021-08-19 15:00:07.472,-0.235,0.11
2021-08-19 15:00:07.476,-0.22,0.095
2021-08-19 15:00:07.480,-0.19,0.085
2021-08-19 15:00:07.484,-0.205,0.075
2021-08-19 15:00:07.488,-0.2,0.07
2021-08-19 15:00:07.492,-0.185,0.07
2021-08-19 15:00:07.496,-0.19,0.055
2021-08-19 15:00:07.500,-0.195,0.035
2021-08-19 15:00:07.504,-0.21,0.02
2021-08-19 15:00:07.508,-0.205,0.03
2021-08-19 15:00:07.512,-0.19,-0.035
2021-08-19 15:00:07.516,-0.175,-0.035
2021-08-19 15:00:07.520,-0.155,-0.035
2021-08-19 15:00:07.524,-0.17,-0.08
2021-08-19 15:00:07.528,-0.145,-0.06
2021-08-19 15:00:07.532,-0.125,-0.1
2021-08-19 15:00:07.536,-0.115,-0.12
2021-08-19 15:00:07.540,-0.125,-0.13
2021-08-19 15:00:07.544,-0.105,-0.13
2021-08-19 15:00:07.548,-0.13,-0.11
2021-08-19 15:00:07.552,-0.12,-0.12
2021-08-19 15:00:07.556,-0.115,-0.12
2021-08-19 15:00:07.560,-0.1,-0.12
2021-08-19 15:00:07.564,-0.105,-0.135
2021-08-19 15:00:07.568,-0.09,-0.14
2021-08-19 15:00:07.572,-0.1,-0.145
2021-08-19 15:00:07.576,-0.05,-0.115
2021-08-19 15:00:07.580,-0.05,-0.13
2021-08-19 15:00:07.584,-0.04,-0.105
2021-08-19 15:00:07.588,-0.01,-0.11
2021-08-19 15:00:07.592,0.05,-0.09
2021-08-19 15:00:07.596,0.1,-0.095
2021-08-19 15:00:07.600,0.1,-0.08
2021-08-19 15:00:07.604,0.135,-0.07
2021-08-19 15:00:07.608,0.145,-0.065
2021-08-19 15:00:07.612,0.17,-0.095
2021-08-19 15:00:07.616,0.18,-0.08
2021-08-19 15:00:07.620,0.2,-0.1
2021-08-19 15:00:07.624,0.17,-0.115
2021-08-19 15:00:07.628,0.13,-0.105
2021-08-19 15:00:07.632,0.1,-0.175
2021-08-19 15:00:07.636,0.055,-0.205
2021-08-19 15:00:07.640,0.0,-0.205
2021-08-19 15:00:07.644,-0.05,-0.195
2021-08-19 15:00:07.648,-0.12,-0.16
2021-08-19 15:00:07.652,-0.17,-0.15
2021-08-19 15:00:07.656,-0.195,-0.105
2021-08-19 15:00:07.660,-0.23,-0.065
2021-08-19 15:00:07.664,-0.22,-0.075
2021-08-19 15:00:07.668,-0.215,-0.075
2021-08-19 15:00:07.672,-0.24,-0.055
2021-08-19 15:00:07.676,-0.22,-0.055
2021-08-19 15:00:07.680,-0.205,-0.075
2021-08-19 15:00:07.684,-0.21,-0.095
2021-08-19 15:00:07.688,-0.225,-0.09
2021-08-19 15:00:07.692,-0.215,-0.1
2021-08-19 15:00:07.696,-0.21,-0.11
2021-08-19 15:00:07.700,-0.215,-0.095
2021-08-19 15:00:07.704,-0.2,-0.12
2021-08-19 15:00:07.708,-0.19,-0.115
2021-08-19 15:00:07.712,-0.19,-0.125
2021-08-19 15:00:07.716,-0.195,-0.135
2021-08-19 15:00:07.720,-0.205,-0.135
2021-08-19 15:00:07.724,-0.18,-0.13
2021-08-19 15:00:07.728,-0.175,-0.155
2021-08-19 15:00:07.732,-0.185,-0.145
2021-08-19 15:00:07.736,-0.19,-0.15
2021-08-19 15:00:07.740,-0.2,-0.135
2021-08-19 15:00:07.744,-0.2,-0.14
2021-08-19 15:00:07.748,-0.17,-0.145
2021-08-19 15:00:07.752,-0.18,-0.15
2021-08-19 15:00:07.756,-0.16,-0.13
2021-08-19 15:00:07.760,-0.165,-0.145
2021-08-19 15:00:07.764,-0.17,-0.125
2021-08-19 15:00:07.768,-0.16,-0.145
2021-08-19 15:00:07.772,-0.12,-0.14
2021-08-19 15:00:07.776,-0.085,-0.165
2021-08-19 15:00:07.780,-0.015,-0.135
2021-08-19 15:00:07.784,0.06,-0.15
2021-08-19 15:00:07.788,0.15,-0.17
2021-08-19 15:00:07.792,0.225,-0.215
2021-08-19 15:00:07.796,0.275,-0.26
2021-08-19 15:00:07.800,0.315,-0.325
2021-08-19 15:00:07.804,0.335,-0.43
2021-08-19 15:00:07.808,0.35,-0.53
2021-08-19 15:00:07.812,0.345,-0.68
2021-08-19 15:00:07.816,0.375,-0.855
2021-08-19 15:00:07.820,0.475,-1.07
2021-08-19 15:00:07.824,0.66,-1.31
2021-08-19 15:00:07.828,0.935,-1.615
2021-08-19 15:00:07.832,1.125,-1.9
2021-08-19 15:00:07.844,0.19,-1.78
2021-08-19 15:00:07.848,-0.145,-1.3
2021-08-19 15:00:07.852,-0.28,-0.875
2021-08-19 15:00:07.856,-0.33,-0.63
2021-08-19 15:00:07.860,-0.345,-0.42
2021-08-19 15:00:07.864,-0.345,-0.295
2021-08-19 15:00:07.868,-0.365,-0.17
2021-08-19 15:00:07.872,-0.38,-0.1
2021-08-19 15:00:07.876,-0.365,-0.04
2021-08-19 15:00:07.880,-0.33,0.01
2021-08-19 15:00:07.884,-0.34,0.015
2021-08-19 15:00:07.888,-0.34,0.02
2021-08-19 15:00:07.892,-0.36,0.025
2021-08-19 15:00:07.896,-0.345,0.03
2021-08-19 15:00:07.900,-0.325,0.025
2021-08-19 15:00:07.904,-0.305,0.035
2021-08-19 15:00:07.908,-0.305,0.02
2021-08-19 15:00:07.912,-0.29,0.015
2021-08-19 15:00:07.916,-0.3,0.035
2021-08-19 15:00:07.920,-0.28,0.035
2021-08-19 15:00:07.924,-0.29,0.03
2021-08-19 15:00:07.928,-0.32,0.03
2021-08-19 15:00:07.932,-0.305,0.04
2021-08-19 15:00:07.936,-0.315,0.07
2021-08-19 15:00:07.940,-0.32,0.045
2021-08-19 15:00:07.944,-0.3,0.065
2021-08-19 15:00:07.948,-0.305,0.06
2021-08-19 15:00:07.952,-0.315,0.08
2021-08-19 15:00:07.956,-0.32,0.075
2021-08-19 15:00:07.960,-0.34,0.09
2021-08-19 15:00:07.964,-0.325,0.1
2021-08-19 15:00:07.968,-0.33,0.095
2021-08-19 15:00:07.972,-0.31,0.095
2021-08-19 15:00:07.976,-0.305,0.1
2021-08-19 15:00:07.980,-0.275,0.135
2021-08-19 15:00:07.984,-0.285,0.13
2021-08-19 15:00:07.988,-0.285,0.125
2021-08-19 15:00:07.992,-0.31,0.115
2021-08-19 15:00:07.996,-0.29,0.11
2021-08-19 15:00:08.000,-0.29,0.115
2021-08-19 15:00:08.004,-0.25,0.1
2021-08-19 15:00:08.008,-0.27,0.115
2021-08-19 15:00:08.012,-0.25,0.115
2021-08-19 15:00:08.016,-0.25,0.1
2021-08-19 15:00:08.020,-0.24,0.09
2021-08-19 15:00:08.024,-0.23,0.105
2021-08-19 15:00:08.028,-0.22,0.08
2021-08-19 15:00:08.032,-0.23,0.085
2021-08-19 15:00:08.036,-0.225,0.075
2021-08-19 15:00:08.040,-0.2,0.06
2021-08-19 15:00:08.044,-0.195,0.075
2021-08-19 15:00:08.048,-0.185,0.04
2021-08-19 15:00:08.052,-0.18,0.025
2021-08-19 15:00:08.056,-0.19,0.015
2021-08-19 15:00:08.060,-0.2,-0.005
2021-08-19 15:00:08.064,-0.16,0.0
2021-08-19 15:00:08.068,-0.165,-0.04
2021-08-19 15:00:08.072,-0.18,-0.05
2021-08-19 15:00:08.076,-0.17,-0.07
2021-08-19 15:00:08.080,-0.16,-0.1
2021-08-19 15:00:08.084,-0.175,-0.1
2021-08-19 15:00:08.088,-0.155,-0.12
2021-08-19 15:00:08.092,-0.14,-0.13
2021-08-19 15:00:08.096,-0.15,-0.155
2021-08-19 15:00:08.100,-0.145,-0.165
2021-08-19 15:00:08.104,-0.125,-0.18
2021-08-19 15:00:08.108,-0.135,-0.175
2021-08-19 15:00:08.112,-0.13,-0.17
2021-08-19 15:00:08.116,-0.115,-0.17
2021-08-19 15:00:08.120,-0.13,-0.17
2021-08-19 15:00:08.124,-0.125,-0.16
2021-08-19 15:00:08.128,-0.09,-0.155
2021-08-19 15:00:08.132,-0.08,-0.165
2021-08-19 15:00:08.136,-0.115,-0.16
2021-08-19 15:00:08.140,-0.11,-0.17
2021-08-19 15:00:08.144,-0.085,-0.15
2021-08-19 15:00:08.148,-0.035,-0.15
2021-08-19 15:00:08.152,-0.02,-0.14
2021-08-19 15:00:08.156,-0.02,-0.13
2021-08-19 15:00:08.160,-0.015,-0.115
2021-08-19 15:00:08.164,0.005,-0.13
2021-08-19 15:00:08.168,0.055,-0.095
2021-08-19 15:00:08.172,0.1,-0.085
2021-08-19 15:00:08.176,0.125,-0.08
2021-08-19 15:00:08.180,0.15,-0.08
2021-08-19 15:00:08.184,0.175,-0.07
2021-08-19 15:00:08.188,0.2,-0.1
2021-08-19 15:00:08.192,0.215,-0.09
2021-08-19 15:00:08.196,0.21,-0.1
2021-08-19 15:00:08.200,0.18,-0.105
2021-08-19 15:00:08.204,0.125,-0.17
2021-08-19 15:00:08.208,0.07,-0.2
2021-08-19 15:00:08.212,0.01,-0.22
2021-08-19 15:00:08.216,-0.06,-0.22
2021-08-19 15:00:08.220,-0.14,-0.225
2021-08-19 15:00:08.224,-0.175,-0.21
2021-08-19 15:00:08.228,-0.22,-0.185
2021-08-19 15:00:08.232,-0.24,-0.145
2021-08-19 15:00:08.236,-0.24,-0.14
2021-08-19 15:00:08.240,-0.24,-0.145
2021-08-19 15:00:08.244,-0.245,-0.155
2021-08-19 15:00:08.248,-0.245,-0.16
2021-08-19 15:00:08.252,-0.24,-0.17
2021-08-19 15:00:08.256,-0.215,-0.175
2021-08-19 15:00:08.260,-0.205,-0.19
2021-08-19 15:00:08.264,-0.23,-0.16
2021-08-19 15:00:08.268,-0.24,-0.17
2021-08-19 15:00:08.272,-0.24,-0.17
2021-08-19 15:00:08.276,-0.22,-0.18
2021-08-19 15:00:08.280,-0.215,-0.185
2021-08-19 15:00:08.284,-0.205,-0.195
2021-08-19 15:00:08.288,-0.175,-0.18
2021-08-19 15:00:08.292,-0.17,-0.175
2021-08-19 15:00:08.296,-0.19,-0.175
2021-08-19 15:00:08.300,-0.195,-0.19
2021-08-19 15:00:08.304,-0.18,-0.185
2021-08-19 15:00:08.308,-0.185,-0.175
2021-08-19 15:00:08.312,-0.195,-0.2
2021-08-19 15:00:08.316,-0.17,-0.175
2021-08-19 15:00:08.320,-0.18,-0.215
2021-08-19 15:00:08.324,-0.17,-0.195
2021-08-19 15:00:08.328,-0.19,-0.205
2021-08-19 15:00:08.332,-0.195,-0.22
2021-08-19 15:00:08.336,-0.19,-0.21
2021-08-19 15:00:08.340,-0.17,-0.225
2021-08-19 15:00:08.344,-0.12,-0.235
2021-08-19 15:00:08.348,-0.07,-0.22
2021-08-19 15:00:08.352,0.0,-0.225
2021-08-19 15:00:08.356,0.05,-0.225
2021-08-19 15:00:08.360,0.14,-0.27
2021-08-19 15:00:08.364,0.22,-0.315
2021-08-19 15:00:08.368,0.33,-0.375
2021-08-19 15:00:08.372,0.375,-0.44
2021-08-19 15:00:08.376,0.425,-0.535
2021-08-19 15:00:08.380,0.42,-0.66
2021-08-19 15:00:08.384,0.43,-0.8
2021-08-19 15:00:08.388,0.455,-0.97
2021-08-19 15:00:08.392,0.58,-1.185
2021-08-19 15:00:08.396,0.82,-1.42
2021-08-19 15:00:08.400,1.135,-1.71
2021-08-19 15:00:08.404,1.255,-1.935
2021-08-19 15:00:08.412,0.595,-1.975
2021-08-19 15:00:08.416,0.15,-1.605
2021-08-19 15:00:08.420,-0.105,-1.14
2021-08-19 15:00:08.424,-0.22,-0.825
2021-08-19 15:00:08.428,-0.275,-0.59
2021-08-19 15:00:08.432,-0.275,-0.43
2021-08-19 15:00:08.436,-0.275,-0.285
2021-08-19 15:00:08.440,-0.26,-0.205
2021-08-19 15:00:08.444,-0.295,-0.12
2021-08-19 15:00:08.448,-0.32,-0.07
2021-08-19 15:00:08.452,-0.33,-0.075
2021-08-19 15:00:08.456,-0.345,-0.035
2021-08-19 15:00:08.460,-0.35,-0.065
2021-08-19 15:00:08.464,-0.325,-0.05
2021-08-19 15:00:08.468,-0.34,-0.055
2021-08-19 15:00:08.472,-0.345,-0.05
2021-08-19 15:00:08.476,-0.34,-0.06
2021-08-19 15:00:08.480,-0.35,-0.065
2021-08-19 15:00:08.484,-0.35,-0.06
2021-08-19 15:00:08.488,-0.35,-0.065
2021-08-19 15:00:08.492,-0.345,-0.045
2021-08-19 15:00:08.496,-0.36,-0.05
2021-08-19 15:00:08.500,-0.34,-0.055
2021-08-19 15:00:08.504,-0.35,-0.03
2021-08-19 15:00:08.508,-0.345,-0.03
2021-08-19 15:00:08.512,-0.355,-0.015
2021-08-19 15:00:08.516,-0.355,-0.015
2021-08-19 15:00:08.520,-0.365,-0.01
2021-08-19 15:00:08.524,-0.335,0.005
2021-08-19 15:00:08.528,-0.335,0.0
2021-08-19 15:00:08.532,-0.345,0.02
2021-08-19 15:00:08.536,-0.335,0.005
2021-08-19 15:00:08.540,-0.345,0.045
2021-08-19 15:00:08.544,-0.32,0.035
2021-08-19 15:00:08.548,-0.32,0.055
2021-08-19 15:00:08.552,-0.345,0.06
2021-08-19 15:00:08.556,-0.34,0.05
2021-08-19 15:00:08.560,-0.31,0.055
2021-08-19 15:00:08.564,-0.295,0.055
2021-08-19 15:00:08.568,-0.295,0.065
2021-08-19 15:00:08.572,-0.32,0.08
2021-08-19 15:00:08.576,-0.315,0.06
2021-08-19 15:00:08.580,-0.315,0.07
2021-08-19 15:00:08.584,-0.305,0.075
2021-08-19 15:00:08.588,-0.3,0.065
2021-08-19 15:00:08.592,-0.3,0.045
2021-08-19 15:00:08.596,-0.295,0.07
2021-08-19 15:00:08.600,-0.28,0.045
2021-08-19 15:00:08.604,-0.27,0.03
2021-08-19 15:00:08.608,-0.245,0.04
2021-08-19 15:00:08.612,-0.255,0.0
2021-08-19 15:00:08.616,-0.24,-0.01
2021-08-19 15:00:08.620,-0.215,-0.03
2021-08-19 15:00:08.624,-0.235,-0.03
2021-08-19 15:00:08.628,-0.25,-0.075
2021-08-19 15:00:08.632,-0.24,-0.07
2021-08-19 15:00:08.636,-0.23,-0.08
2021-08-19 15:00:08.640,-0.23,-0.095
2021-08-19 15:00:08.644,-0.23,-0.115
2021-08-19 15:00:08.648,-0.2,-0.135
2021-08-19 15:00:08.652,-0.195,-0.16
2021-08-19 15:00:08.656,-0.195,-0.16
2021-08-19 15:00:08.660,-0.19,-0.155
2021-08-19 15:00:08.664,-0.19,-0.16
2021-08-19 15:00:08.668,-0.14,-0.18
2021-08-19 15:00:08.672,-0.16,-0.175
2021-08-19 15:00:08.676,-0.145,-0.19
2021-08-19 15:00:08.680,-0.165,-0.195
2021-08-19 15:00:08.684,-0.145,-0.205
2021-08-19 15:00:08.688,-0.14,-0.19
2021-08-19 15:00:08.692,-0.13,-0.205
2021-08-19 15:00:08.696,-0.145,-0.23
2021-08-19 15:00:08.700,-0.145,-0.19
2021-08-19 15:00:08.704,-0.125,-0.205
2021-08-19 15:00:08.708,-0.095,-0.195
2021-08-19 15:00:08.712,-0.1,-0.215
2021-08-19 15:00:08.716,-0.11,-0.205
2021-08-19 15:00:08.720,-0.09,-0.18
2021-08-19 15:00:08.724,-0.06,-0.17
2021-08-19 15:00:08.728,-0.02,-0.165
2021-08-19 15:00:08.732,0.04,-0.16
2021-08-19 15:00:08.736,0.055,-0.165
2021-08-19 15:00:08.740,0.07,-0.13
2021-08-19 15:00:08.744,0.085,-0.115
2021-08-19 15:00:08.748,0.115,-0.115
2021-08-19 15:00:08.752,0.145,-0.125
2021-08-19 15:00:08.756,0.18,-0.13
2021-08-19 15:00:08.760,0.16,-0.13
2021-08-19 15:00:08.764,0.145,-0.16
2021-08-19 15:00:08.768,0.085,-0.19
2021-08-19 15:00:08.772,0.05,-0.235
2021-08-19 15:00:08.776,0.0,-0.25
2021-08-19 15:00:08.780,-0.02,-0.255
2021-08-19 15:00:08.784,-0.09,-0.235
2021-08-19 15:00:08.788,-0.14,-0.215
2021-08-19 15:00:08.792,-0.2,-0.18
2021-08-19 15:00:08.796,-0.23,-0.155
2021-08-19 15:00:08.800,-0.24,-0.14
2021-08-19 15:00:08.804,-0.23,-0.13
2021-08-19 15:00:08.808,-0.245,-0.12
2021-08-19 15:00:08.812,-0.24,-0.125
2021-08-19 15:00:08.816,-0.235,-0.15
2021-08-19 15:00:08.820,-0.22,-0.145
2021-08-19 15:00:08.824,-0.235,-0.16
2021-08-19 15:00:08.828,-0.2,-0.145
2021-08-19 15:00:08.832,-0.215,-0.155
2021-08-19 15:00:08.836,-0.225,-0.165
2021-08-19 15:00:08.840,-0.225,-0.16
2021-08-19 15:00:08.844,-0.245,-0.175
2021-08-19 15:00:08.848,-0.26,-0.185
2021-08-19 15:00:08.852,-0.225,-0.18
2021-08-19 15:00:08.856,-0.215,-0.19
2021-08-19 15:00:08.860,-0.215,-0.195
2021-08-19 15:00:08.864,-0.21,-0.2
2021-08-19 15:00:08.868,-0.235,-0.2
2021-08-19 15:00:08.872,-0.225,-0.215
2021-08-19 15:00:08.876,-0.215,-0.2
2021-08-19 15:00:08.880,-0.23,-0.18
2021-08-19 15:00:08.884,-0.23,-0.195
2021-08-19 15:00:08.888,-0.22,-0.19
2021-08-19 15:00:08.892,-0.24,-0.195
2021-08-19 15:00:08.896,-0.21,-0.205
2021-08-19 15:00:08.900,-0.225,-0.225
2021-08-19 15:00:08.904,-0.21,-0.21
2021-08-19 15:00:08.908,-0.2,-0.2
2021-08-19 15:00:08.912,-0.13,-0.215
2021-08-19 15:00:08.916,-0.07,-0.225
2021-08-19 15:00:08.920,0.0,-0.22
2021-08-19 15:00:08.924,0.07,-0.23
2021-08-19 15:00:08.928,0.12,-0.29
2021-08-19 15:00:08.932,0.165,-0.33
2021-08-19 15:00:08.936,0.205,-0.39
2021-08-19 15:00:08.940,0.25,-0.46
2021-08-19 15:00:08.944,0.275,-0.545
2021-08-19 15:00:08.948,0.245,-0.715
2021-08-19 15:00:08.952,0.27,-0.895
2021-08-19 15:00:08.956,0.365,-1.1
2021-08-19 15:00:08.960,0.565,-1.34
2021-08-19 15:00:08.964,0.85,-1.625
2021-08-19 15:00:08.968,1.1,-1.905
2021-08-19 15:00:08.980,0.205,-1.87
2021-08-19 15:00:08.984,-0.17,-1.41
2021-08-19 15:00:08.988,-0.35,-0.965
2021-08-19 15:00:08.992,-0.44,-0.67
2021-08-19 15:00:08.996,-0.455,-0.51
2021-08-19 15:00:09.000,-0.42,-0.335
2021-08-19 15:00:09.004,-0.395,-0.21
2021-08-19 15:00:09.008,-0.385,-0.155
2021-08-19 15:00:09.012,-0.41,-0.1
2021-08-19 15:00:09.016,-0.41,-0.04
2021-08-19 15:00:09.020,-0.39,-0.045
2021-08-19 15:00:09.024,-0.395,-0.04
2021-08-19 15:00:09.028,-0.365,-0.05
2021-08-19 15:00:09.032,-0.385,-0.02
2021-08-19 15:00:09.036,-0.34,-0.005
2021-08-19 15:00:09.040,-0.345,-0.01
2021-08-19 15:00:09.044,-0.335,-0.005
2021-08-19 15:00:09.048,-0.34,-0.005
2021-08-19 15:00:09.052,-0.345,0.0
2021-08-19 15:00:09.056,-0.335,0.01
2021-08-19 15:00:09.060,-0.33,0.0
2021-08-19 15:00:09.064,-0.33,0.0
2021-08-19 15:00:09.068,-0.34,0.025
2021-08-19 15:00:09.072,-0.34,0.03
2021-08-19 15:00:09.076,-0.36,0.035
2021-08-19 15:00:09.080,-0.37,0.03
2021-08-19 15:00:09.084,-0.36,0.04
2021-08-19 15:00:09.088,-0.365,0.045
2021-08-19 15:00:09.092,-0.335,0.03
2021-08-19 15:00:09.096,-0.33,0.055
2021-08-19 15:00:09.100,-0.375,0.035
2021-08-19 15:00:09.104,-0.395,0.045
2021-08-19 15:00:09.108,-0.375,0.065
2021-08-19 15:00:09.112,-0.345,0.06
2021-08-19 15:00:09.116,-0.34,0.065
2021-08-19 15:00:09.120,-0.345,0.08
2021-08-19 15:00:09.124,-0.335,0.065
2021-08-19 15:00:09.128,-0.355,0.05
2021-08-19 15:00:09.132,-0.32,0.06
2021-08-19 15:00:09.136,-0.29,0.075
2021-08-19 15:00:09.140,-0.29,0.08
2021-08-19 15:00:09.144,-0.295,0.07
2021-08-19 15:00:09.148,-0.3,0.07
2021-08-19 15:00:09.152,-0.275,0.085
2021-08-19 15:00:09.156,-0.26,0.08
2021-08-19 15:00:09.160,-0.25,0.105
2021-08-19 15:00:09.164,-0.26,0.065
2021-08-19 15:00:09.168,-0.255,0.055
2021-08-19 15:00:09.172,-0.255,0.075
2021-08-19 15:00:09.176,-0.25,0.055
2021-08-19 15:00:09.180,-0.225,0.05
2021-08-19 15:00:09.184,-0.215,0.035
2021-08-19 15:00:09.188,-0.235,0.005
2021-08-19 15:00:09.192,-0.25,-0.025
2021-08-19 15:00:09.196,-0.23,-0.025
2021-08-19 15:00:09.200,-0.25,-0.025
2021-08-19 15:00:09.204,-0.245,-0.05
2021-08-19 15:00:09.208,-0.215,-0.055
2021-08-19 15:00:09.212,-0.2,-0.08
2021-08-19 15:00:09.216,-0.185,-0.115
2021-08-19 15:00:09.220,-0.19,-0.13
2021-08-19 15:00:09.224,-0.19,-0.175
2021-08-19 15:00:09.228,-0.225,-0.175
2021-08-19 15:00:09.232,-0.225,-0.195
2021-08-19 15:00:09.236,-0.215,-0.19
2021-08-19 15:00:09.240,-0.21,-0.205
2021-08-19 15:00:09.244,-0.215,-0.195
2021-08-19 15:00:09.248,-0.18,-0.22
2021-08-19 15:00:09.252,-0.19,-0.24
2021-08-19 15:00:09.256,-0.165,-0.21
2021-08-19 15:00:09.260,-0.15,-0.225
2021-08-19 15:00:09.264,-0.13,-0.225
2021-08-19 15:00:09.268,-0.15,-0.19
2021-08-19 15:00:09.272,-0.12,-0.195
2021-08-19 15:00:09.276,-0.105,-0.2
2021-08-19 15:00:09.280,-0.075,-0.17
2021-08-19 15:00:09.284,-0.02,-0.19
2021-08-19 15:00:09.288,0.045,-0.16
2021-08-19 15:00:09.292,0.105,-0.14
2021-08-19 15:00:09.296,0.115,-0.14
2021-08-19 15:00:09.300,0.12,-0.12
2021-08-19 15:00:09.304,0.16,-0.15
2021-08-19 15:00:09.308,0.16,-0.145
2021-08-19 15:00:09.312,0.15,-0.15
2021-08-19 15:00:09.316,0.145,-0.15
2021-08-19 15:00:09.320,0.105,-0.18
2021-08-19 15:00:09.324,0.05,-0.24
2021-08-19 15:00:09.328,0.005,-0.27
2021-08-19 15:00:09.332,-0.06,-0.255
2021-08-19 15:00:09.336,-0.11,-0.26
2021-08-19 15:00:09.340,-0.18,-0.23
2021-08-19 15:00:09.344,-0.225,-0.225
2021-08-19 15:00:09.348,-0.265,-0.2
2021-08-19 15:00:09.352,-0.31,-0.165
2021-08-19 15:00:09.356,-0.32,-0.15
2021-08-19 15:00:09.360,-0.325,-0.15
2021-08-19 15:00:09.364,-0.32,-0.15
2021-08-19 15:00:09.368,-0.335,-0.17
2021-08-19 15:00:09.372,-0.325,-0.18
2021-08-19 15:00:09.376,-0.315,-0.19
2021-08-19 15:00:09.380,-0.32,-0.18
2021-08-19 15:00:09.384,-0.29,-0.2
2021-08-19 15:00:09.388,-0.3,-0.21
2021-08-19 15:00:09.392,-0.29,-0.2
2021-08-19 15:00:09.396,-0.285,-0.2
2021-08-19 15:00:09.400,-0.28,-0.215
2021-08-19 15:00:09.404,-0.28,-0.21
2021-08-19 15:00:09.408,-0.285,-0.23
2021-08-19 15:00:09.412,-0.265,-0.23
2021-08-19 15:00:09.416,-0.265,-0.225
2021-08-19 15:00:09.420,-0.275,-0.23
2021-08-19 15:00:09.424,-0.275,-0.205
2021-08-19 15:00:09.428,-0.28,-0.205
2021-08-19 15:00:09.432,-0.27,-0.21
2021-08-19 15:00:09.436,-0.27,-0.21
2021-08-19 15:00:09.440,-0.275,-0.22
2021-08-19 15:00:09.444,-0.26,-0.205
2021-08-19 15:00:09.448,-0.24,-0.195
2021-08-19 15:00:09.452,-0.26,-0.215
2021-08-19 15:00:09.456,-0.285,-0.215
2021-08-19 15:00:09.460,-0.29,-0.22
2021-08-19 15:00:09.464,-0.26,-0.23
2021-08-19 15:00:09.468,-0.205,-0.25
2021-08-19 15:00:09.472,-0.115,-0.265
2021-08-19 15:00:09.476,-0.04,-0.255
2021-08-19 15:00:09.480,0.01,-0.28
2021-08-19 15:00:09.484,0.06,-0.315
2021-08-19 15:00:09.488,0.13,-0.385
2021-08-19 15:00:09.492,0.195,-0.45
2021-08-19 15:00:09.496,0.245,-0.53
2021-08-19 15:00:09.500,0.27,-0.66
2021-08-19 15:00:09.504,0.245,-0.845
2021-08-19 15:00:09.508,0.27,-1.01
2021-08-19 15:00:09.512,0.375,-1.21
2021-08-19 15:00:09.516,0.615,-1.485
2021-08-19 15:00:09.520,0.91,-1.775
2021-08-19 15:00:09.536,-0.05,-1.72
2021-08-19 15:00:09.540,-0.29,-1.24
2021-08-19 15:00:09.544,-0.395,-0.875
2021-08-19 15:00:09.548,-0.46,-0.62
2021-08-19 15:00:09.552,-0.455,-0.45
2021-08-19 15:00:09.556,-0.435,-0.3
2021-08-19 15:00:09.560,-0.405,-0.21
2021-08-19 15:00:09.564,-0.415,-0.135
2021-08-19 15:00:09.568,-0.42,-0.075
2021-08-19 15:00:09.572,-0.42,-0.06
2021-08-19 15:00:09.576,-0.42,-0.045
2021-08-19 15:00:09.580,-0.41,-0.05
2021-08-19 15:00:09.584,-0.395,-0.045
2021-08-19 15:00:09.588,-0.39,-0.04
2021-08-19 15:00:09.592,-0.415,-0.06
2021-08-19 15:00:09.596,-0.425,-0.035
2021-08-19 15:00:09.600,-0.415,-0.04
2021-08-19 15:00:09.604,-0.385,-0.04
2021-08-19 15:00:09.608,-0.405,-0.035
2021-08-19 15:00:09.612,-0.425,-0.01
2021-08-19 15:00:09.616,-0.435,-0.04
2021-08-19 15:00:09.620,-0.425,-0.03
2021-08-19 15:00:09.624,-0.41,-0.04
2021-08-19 15:00:09.628,-0.42,-0.02
2021-08-19 15:00:09.632,-0.425,-0.055
2021-08-19 15:00:09.636,-0.415,-0.03
2021-08-19 15:00:09.640,-0.43,-0.03
2021-08-19 15:00:09.644,-0.44,-0.025
2021-08-19 15:00:09.648,-0.425,-0.015
2021-08-19 15:00:09.652,-0.41,-0.03
2021-08-19 15:00:09.656,-0.41,0.01
2021-08-19 15:00:09.660,-0.425,0.005
2021-08-19 15:00:09.664,-0.42,0.01
2021-08-19 15:00:09.668,-0.425,-0.005
2021-08-19 15:00:09.672,-0.395,0.01
2021-08-19 15:00:09.676,-0.37,0.03
2021-08-19 15:00:09.680,-0.345,0.035
2021-08-19 15:00:09.684,-0.33,0.03
2021-08-19 15:00:09.688,-0.335,0.025
2021-08-19 15:00:09.692,-0.33,0.035
2021-08-19 15:00:09.696,-0.32,0.02
2021-08-19 15:00:09.700,-0.34,0.035
2021-08-19 15:00:09.704,-0.33,0.05
2021-08-19 15:00:09.708,-0.315,0.025
2021-08-19 15:00:09.712,-0.305,0.045
2021-08-19 15:00:09.716,-0.32,0.02
2021-08-19 15:00:09.720,-0.295,0.015
2021-08-19 15:00:09.724,-0.265,0.03
2021-08-19 15:00:09.728,-0.285,0.0
2021-08-19 15:00:09.732,-0.285,-0.01
2021-08-19 15:00:09.736,-0.305,-0.025
2021-08-19 15:00:09.740,-0.285,-0.04
2021-08-19 15:00:09.744,-0.255,-0.04
2021-08-19 15:00:09.748,-0.255,-0.06
2021-08-19 15:00:09.752,-0.29,-0.075
2021-08-19 15:00:09.756,-0.29,-0.1
2021-08-19 15:00:09.760,-0.275,-0.12
2021-08-19 15:00:09.764,-0.255,-0.115
2021-08-19 15:00:09.768,-0.25,-0.13
2021-08-19 15:00:09.772,-0.215,-0.15
2021-08-19 15:00:09.776,-0.19,-0.175
2021-08-19 15:00:09.780,-0.21,-0.205
2021-08-19 15:00:09.784,-0.185,-0.195
2021-08-19 15:00:09.788,-0.18,-0.2
2021-08-19 15:00:09.792,-0.19,-0.205
2021-08-19 15:00:09.796,-0.185,-0.205
2021-08-19 15:00:09.800,-0.175,-0.21
2021-08-19 15:00:09.804,-0.175,-0.22
2021-08-19 15:00:09.808,-0.15,-0.21
2021-08-19 15:00:09.812,-0.14,-0.21
2021-08-19 15:00:09.816,-0.135,-0.21
2021-08-19 15:00:09.820,-0.125,-0.22
2021-08-19 15:00:09.824,-0.1,-0.205
2021-08-19 15:00:09.828,-0.105,-0.195
2021-08-19 15:00:09.832,-0.1,-0.185
2021-08-19 15:00:09.836,-0.12,-0.2
2021-08-19 15:00:09.840,-0.105,-0.165
2021-08-19 15:00:09.844,-0.07,-0.175
2021-08-19 15:00:09.848,-0.04,-0.155
2021-08-19 15:00:09.852,0.0,-0.14
2021-08-19 15:00:09.856,0.03,-0.1
2021-08-19 15:00:09.860,0.045,-0.12
2021-08-19 15:00:09.864,0.07,-0.145
2021-08-19 15:00:09.868,0.11,-0.145
2021-08-19 15:00:09.872,0.135,-0.15
2021-08-19 15:00:09.876,0.14,-0.135
2021-08-19 15:00:09.880,0.14,-0.14
2021-08-19 15:00:09.884,0.105,-0.17
2021-08-19 15:00:09.888,0.09,-0.195
2021-08-19 15:00:09.892,0.02,-0.24
2021-08-19 15:00:09.896,-0.035,-0.26
2021-08-19 15:00:09.900,-0.08,-0.255
2021-08-19 15:00:09.904,-0.16,-0.26
2021-08-19 15:00:09.908,-0.21,-0.23
2021-08-19 15:00:09.912,-0.26,-0.205
2021-08-19 15:00:09.916,-0.265,-0.16
2021-08-19 15:00:09.920,-0.29,-0.155
2021-08-19 15:00:09.924,-0.265,-0.14
2021-08-19 15:00:09.928,-0.25,-0.155
2021-08-19 15:00:09.932,-0.255,-0.16
2021-08-19 15:00:09.936,-0.24,-0.155
2021-08-19 15:00:09.940,-0.225,-0.18
2021-08-19 15:00:09.944,-0.23,-0.2
2021-08-19 15:00:09.948,-0.21,-0.18
2021-08-19 15:00:09.952,-0.195,-0.2
2021-08-19 15:00:09.956,-0.22,-0.185
2021-08-19 15:00:09.960,-0.21,-0.175
2021-08-19 15:00:09.964,-0.22,-0.2
2021-08-19 15:00:09.968,-0.195,-0.205
2021-08-19 15:00:09.972,-0.185,-0.2
2021-08-19 15:00:09.976,-0.205,-0.18
2021-08-19 15:00:09.980,-0.18,-0.19
2021-08-19 15:00:09.984,-0.205,-0.2
2021-08-19 15:00:09.988,-0.19,-0.22
2021-08-19 15:00:09.992,-0.2,-0.21
2021-08-19 15:00:09.996,-0.21,-0.22
2021-08-19 15:00:10.000,-0.205,-0.205
2021-08-19 15:00:10.004,-0.2,-0.22
2021-08-19 15:00:10.008,-0.2,-0.225
2021-08-19 15:00:10.012,-0.185,-0.21
2021-08-19 15:00:10.016,-0.18,-0.225
2021-08-19 15:00:10.020,-0.17,-0.225
2021-08-19 15:00:10.024,-0.145,-0.24
2021-08-19 15:00:10.028,-0.13,-0.22
2021-08-19 15:00:10.032,-0.075,-0.24
2021-08-19 15:00:10.036,-0.01,-0.22
2021-08-19 15:00:10.040,0.07,-0.25
2021-08-19 15:00:10.044,0.16,-0.265
2021-08-19 15:00:10.048,0.23,-0.32
2021-08-19 15:00:10.052,0.29,-0.375
2021-08-19 15:00:10.056,0.35,-0.455
2021-08-19 15:00:10.060,0.41,-0.52
2021-08-19 15:00:10.064,0.45,-0.65
2021-08-19 15:00:10.068,0.455,-0.775
2021-08-19 15:00:10.072,0.47,-0.94
2021-08-19 15:00:10.076,0.555,-1.145
2021-08-19 15:00:10.080,0.8,-1.415
2021-08-19 15:00:10.084,1.07,-1.73
2021-08-19 15:00:10.088,1.24,-1.93
2021-08-19 15:00:10.100,0.145,-1.67
2021-08-19 15:00:10.104,-0.09,-1.195
2021-08-19 15:00:10.108,-0.24,-0.815
2021-08-19 15:00:10.112,-0.31,-0.595
2021-08-19 15:00:10.116,-0.34,-0.45
2021-08-19 15:00:10.120,-0.325,-0.285
2021-08-19 15:00:10.124,-0.3,-0.195
2021-08-19 15:00:10.128,-0.305,-0.135
2021-08-19 15:00:10.132,-0.305,-0.08
2021-08-19 15:00:10.136,-0.32,-0.08
2021-08-19 15:00:10.140,-0.34,-0.07
2021-08-19 15:00:10.144,-0.36,-0.07
2021-08-19 15:00:10.148,-0.365,-0.06
2021-08-19 15:00:10.152,-0.365,-0.045
2021-08-19 15:00:10.156,-0.365,-0.055
2021-08-19 15:00:10.160,-0.365,-0.04
2021-08-19 15:00:10.164,-0.35,-0.05
2021-08-19 15:00:10.168,-0.35,-0.025
2021-08-19 15:00:10.172,-0.35,-0.05
2021-08-19 15:00:10.176,-0.34,-0.02
2021-08-19 15:00:10.180,-0.365,-0.03
2021-08-19 15:00:10.184,-0.34,-0.035
2021-08-19 15:00:10.188,-0.33,-0.02
2021-08-19 15:00:10.192,-0.34,-0.01
2021-08-19 15:00:10.196,-0.355,-0.02
2021-08-19 15:00:10.200,-0.335,-0.02
2021-08-19 15:00:10.204,-0.355,0.0
2021-08-19 15:00:10.208,-0.37,0.02
2021-08-19 15:00:10.212,-0.39,0.015
2021-08-19 15:00:10.216,-0.39,0.02
2021-08-19 15:00:10.220,-0.39,0.02
2021-08-19 15:00:10.224,-0.345,0.05
2021-08-19 15:00:10.228,-0.35,0.035
2021-08-19 15:00:10.232,-0.34,0.055
2021-08-19 15:00:10.236,-0.335,0.04
2021-08-19 15:00:10.240,-0.335,0.045
2021-08-19 15:00:10.244,-0.355,0.05
2021-08-19 15:00:10.248,-0.36,0.055
2021-08-19 15:00:10.252,-0.35,0.055
2021-08-19 15:00:10.256,-0.365,0.065
2021-08-19 15:00:10.260,-0.34,0.055
2021-08-19 15:00:10.264,-0.325,0.055
2021-08-19 15:00:10.268,-0.31,0.06
2021-08-19 15:00:10.272,-0.305,0.065
2021-08-19 15:00:10.276,-0.295,0.04
2021-08-19 15:00:10.280,-0.3,0.03
2021-08-19 15:00:10.284,-0.275,0.005
2021-08-19 15:00:10.288,-0.29,0.025
2021-08-19 15:00:10.292,-0.28,0.02
2021-08-19 15:00:10.296,-0.27,0.0
2021-08-19 15:00:10.300,-0.26,-0.01
2021-08-19 15:00:10.304,-0.24,-0.04
2021-08-19 15:00:10.308,-0.235,-0.03
2021-08-19 15:00:10.312,-0.235,-0.05
2021-08-19 15:00:10.316,-0.23,-0.06
2021-08-19 15:00:10.320,-0.245,-0.085
2021-08-19 15:00:10.324,-0.235,-0.075
2021-08-19 15:00:10.328,-0.25,-0.095
2021-08-19 15:00:10.332,-0.245,-0.11
2021-08-19 15:00:10.336,-0.21,-0.15
2021-08-19 15:00:10.340,-0.205,-0.16
2021-08-19 15:00:10.344,-0.21,-0.16
2021-08-19 15:00:10.348,-0.19,-0.19
2021-08-19 15:00:10.352,-0.185,-0.205
2021-08-19 15:00:10.356,-0.19,-0.195
2021-08-19 15:00:10.360,-0.2,-0.22
2021-08-19 15:00:10.364,-0.185,-0.21
2021-08-19 15:00:10.368,-0.225,-0.23
2021-08-19 15:00:10.372,-0.215,-0.23
2021-08-19 15:00:10.376,-0.19,-0.215
2021-08-19 15:00:10.380,-0.15,-0.23
2021-08-19 15:00:10.384,-0.12,-0.23
2021-08-19 15:00:10.388,-0.14,-0.23
2021-08-19 15:00:10.392,-0.14,-0.23
2021-08-19 15:00:10.396,-0.115,-0.225
2021-08-19 15:00:10.400,-0.105,-0.2
2021-08-19 15:00:10.404,-0.06,-0.185
2021-08-19 15:00:10.408,-0.025,-0.165
2021-08-19 15:00:10.412,0.035,-0.165
2021-08-19 15:00:10.416,0.055,-0.125
2021-08-19 15:00:10.420,0.065,-0.13
2021-08-19 15:00:10.424,0.11,-0.135
2021-08-19 15:00:10.428,0.13,-0.15
2021-08-19 15:00:10.432,0.155,-0.15
2021-08-19 15:00:10.436,0.14,-0.155
2021-08-19 15:00:10.440,0.135,-0.175
2021-08-19 15:00:10.444,0.075,-0.22
2021-08-19 15:00:10.448,0.015,-0.255
2021-08-19 15:00:10.452,-0.035,-0.25
2021-08-19 15:00:10.456,-0.085,-0.265
2021-08-19 15:00:10.460,-0.15,-0.24
2021-08-19 15:00:10.464,-0.21,-0.235
2021-08-19 15:00:10.468,-0.245,-0.215
2021-08-19 15:00:10.472,-0.285,-0.17
2021-08-19 15:00:10.476,-0.315,-0.14
2021-08-19 15:00:10.480,-0.31,-0.145
2021-08-19 15:00:10.484,-0.305,-0.175
2021-08-19 15:00:10.488,-0.31,-0.17
2021-08-19 15:00:10.492,-0.3,-0.19
2021-08-19 15:00:10.496,-0.29,-0.18
2021-08-19 15:00:10.500,-0.29,-0.195
2021-08-19 15:00:10.504,-0.295,-0.195
2021-08-19 15:00:10.508,-0.29,-0.22
2021-08-19 15:00:10.512,-0.3,-0.2
2021-08-19 15:00:10.516,-0.27,-0.25
2021-08-19 15:00:10.520,-0.27,-0.22
2021-08-19 15:00:10.524,-0.27,-0.24
2021-08-19 15:00:10.528,-0.255,-0.225
2021-08-19 15:00:10.532,-0.275,-0.215
2021-08-19 15:00:10.536,-0.29,-0.21
2021-08-19 15:00:10.540,-0.285,-0.23
2021-08-19 15:00:10.544,-0.29,-0.225
2021-08-19 15:00:10.548,-0.265,-0.225
2021-08-19 15:00:10.552,-0.265,-0.225
2021-08-19 15:00:10.556,-0.26,-0.22
2021-08-19 15:00:10.560,-0.245,-0.22
2021-08-19 15:00:10.564,-0.27,-0.22
2021-08-19 15:00:10.568,-0.28,-0.23
2021-08-19 15:00:10.572,-0.24,-0.23
2021-08-19 15:00:10.576,-0.24,-0.23
2021-08-19 15:00:10.580,-0.235,-0.22
2021-08-19 15:00:10.584,-0.225,-0.23
2021-08-19 15:00:10.588,-0.175,-0.235
2021-08-19 15:00:10.592,-0.11,-0.24
2021-08-19 15:00:10.596,-0.015,-0.26
2021-08-19 15:00:10.600,0.045,-0.285
2021-08-19 15:00:10.604,0.075,-0.31
2021-08-19 15:00:10.608,0.105,-0.36
2021-08-19 15:00:10.612,0.125,-0.44
2021-08-19 15:00:10.616,0.15,-0.51
2021-08-19 15:00:10.620,0.175,-0.635
2021-08-19 15:00:10.624,0.185,-0.765
2021-08-19 15:00:10.628,0.215,-0.955
2021-08-19 15:00:10.632,0.32,-1.18
2021-08-19 15:00:10.636,0.525,-1.42
2021-08-19 15:00:10.640,0.82,-1.72
2021-08-19 15:00:10.644,1.085,-2.0
2021-08-19 15:00:10.656,0.13,-1.87
2021-08-19 15:00:10.660,-0.225,-1.365
2021-08-19 15:00:10.664,-0.395,-0.955
2021-08-19 15:00:10.668,-0.475,-0.7
2021-08-19 15:00:10.672,-0.49,-0.52
2021-08-19 15:00:10.676,-0.485,-0.35
2021-08-19 15:00:10.680,-0.45,-0.24
2021-08-19 15:00:10.684,-0.425,-0.145
2021-08-19 15:00:10.688,-0.425,-0.105
2021-08-19 15:00:10.692,-0.4,-0.065
2021-08-19 15:00:10.696,-0.395,-0.035
2021-08-19 15:00:10.700,-0.4,-0.015
2021-08-19 15:00:10.704,-0.41,-0.04
2021-08-19 15:00:10.708,-0.41,-0.035
2021-08-19 15:00:10.712,-0.425,-0.02
2021-08-19 15:00:10.716,-0.41,-0.015
2021-08-19 15:00:10.720,-0.4,-0.02
2021-08-19 15:00:10.724,-0.4,-0.035
2021-08-19 15:00:10.728,-0.39,-0.02
2021-08-19 15:00:10.732,-0.395,-0.035
2021-08-19 15:00:10.736,-0.405,-0.03
2021-08-19 15:00:10.740,-0.415,-0.01
2021-08-19 15:00:10.744,-0.39,-0.015
2021-08-19 15:00:10.748,-0.39,0.005
2021-08-19 15:00:10.752,-0.395,0.025
2021-08-19 15:00:10.756,-0.41,0.01
2021-08-19 15:00:10.760,-0.405,0.0
2021-08-19 15:00:10.764,-0.4,0.025
2021-08-19 15:00:10.768,-0.41,0.03
2021-08-19 15:00:10.772,-0.4,0.04
2021-08-19 15:00:10.776,-0.38,0.045
2021-08-19 15:00:10.780,-0.395,0.03
2021-08-19 15:00:10.784,-0.365,0.055
2021-08-19 15:00:10.788,-0.37,0.05
2021-08-19 15:00:10.792,-0.39,0.08
2021-08-19 15:00:10.796,-0.355,0.045
2021-08-19 15:00:10.800,-0.35,0.08
2021-08-19 15:00:10.804,-0.335,0.075
2021-08-19 15:00:10.808,-0.325,0.08
2021-08-19 15:00:10.812,-0.325,0.09
2021-08-19 15:00:10.816,-0.33,0.085
2021-08-19 15:00:10.820,-0.3,0.11
2021-08-19 15:00:10.824,-0.305,0.09
2021-08-19 15:00:10.828,-0.3,0.09
2021-08-19 15:00:10.832,-0.29,0.095
2021-08-19 15:00:10.836,-0.28,0.075
2021-08-19 15:00:10.840,-0.285,0.095
2021-08-19 15:00:10.844,-0.26,0.065
2021-08-19 15:00:10.848,-0.25,0.065
2021-08-19 15:00:10.852,-0.26,0.055
2021-08-19 15:00:10.856,-0.275,0.055
2021-08-19 15:00:10.860,-0.285,0.035
2021-08-19 15:00:10.864,-0.275,-0.02
2021-08-19 15:00:10.868,-0.26,-0.02
2021-08-19 15:00:10.872,-0.265,-0.035
2021-08-19 15:00:10.876,-0.25,-0.05
2021-08-19 15:00:10.880,-0.25,-0.08
2021-08-19 15:00:10.884,-0.24,-0.085
2021-08-19 15:00:10.888,-0.26,-0.105
2021-08-19 15:00:10.892,-0.235,-0.095
2021-08-19 15:00:10.896,-0.24,-0.14
2021-08-19 15:00:10.900,-0.225,-0.135
2021-08-19 15:00:10.904,-0.22,-0.15
2021-08-19 15:00:10.908,-0.22,-0.18
2021-08-19 15:00:10.912,-0.24,-0.18
2021-08-19 15:00:10.916,-0.22,-0.195
2021-08-19 15:00:10.920,-0.18,-0.18
2021-08-19 15:00:10.924,-0.17,-0.21
2021-08-19 15:00:10.928,-0.18,-0.19
2021-08-19 15:00:10.932,-0.145,-0.19
2021-08-19 15:00:10.936,-0.11,-0.195
2021-08-19 15:00:10.940,-0.07,-0.175
2021-08-19 15:00:10.944,-0.075,-0.175
2021-08-19 15:00:10.948,-0.085,-0.175
2021-08-19 15:00:10.952,-0.055,-0.15
2021-08-19 15:00:10.956,-0.015,-0.145
2021-08-19 15:00:10.960,0.01,-0.15
2021-08-19 15:00:10.964,0.065,-0.125
2021-08-19 15:00:10.968,0.09,-0.11
2021-08-19 15:00:10.972,0.085,-0.09
2021-08-19 15:00:10.976,0.125,-0.115
2021-08-19 15:00:10.980,0.13,-0.145
2021-08-19 15:00:10.984,0.14,-0.13
2021-08-19 15:00:10.988,0.11,-0.145
2021-08-19 15:00:10.992,0.09,-0.185
2021-08-19 15:00:10.996,0.015,-0.22
2021-08-19 15:00:11.000,-0.03,-0.255
2021-08-19 15:00:11.004,-0.08,-0.245
2021-08-19 15:00:11.008,-0.14,-0.245
2021-08-19 15:00:11.012,-0.195,-0.24
2021-08-19 15:00:11.016,-0.245,-0.195
2021-08-19 15:00:11.020,-0.29,-0.165
2021-08-19 15:00:11.024,-0.33,-0.15
2021-08-19 15:00:11.028,-0.33,-0.13
2021-08-19 15:00:11.032,-0.305,-0.135
2021-08-19 15:00:11.036,-0.32,-0.15
2021-08-19 15:00:11.040,-0.32,-0.16
2021-08-19 15:00:11.044,-0.32,-0.14
2021-08-19 15:00:11.048,-0.285,-0.165
2021-08-19 15:00:11.052,-0.29,-0.165
2021-08-19 15:00:11.056,-0.275,-0.17
2021-08-19 15:00:11.060,-0.285,-0.175
2021-08-19 15:00:11.064,-0.275,-0.17
2021-08-19 15:00:11.068,-0.25,-0.16
2021-08-19 15:00:11.072,-0.245,-0.18
2021-08-19 15:00:11.076,-0.265,-0.17
2021-08-19 15:00:11.080,-0.245,-0.18
2021-08-19 15:00:11.084,-0.24,-0.18
2021-08-19 15:00:11.088,-0.26,-0.185
2021-08-19 15:00:11.092,-0.26,-0.195
2021-08-19 15:00:11.096,-0.245,-0.2
2021-08-19 15:00:11.100,-0.25,-0.205
2021-08-19 15:00:11.104,-0.24,-0.205
2021-08-19 15:00:11.108,-0.25,-0.21
2021-08-19 15:00:11.112,-0.27,-0.22
2021-08-19 15:00:11.116,-0.27,-0.215
2021-08-19 15:00:11.120,-0.24,-0.225
2021-08-19 15:00:11.124,-0.23,-0.23
2021-08-19 15:00:11.128,-0.24,-0.24
2021-08-19 15:00:11.132,-0.215,-0.235
2021-08-19 15:00:11.136,-0.21,-0.24
2021-08-19 15:00:11.140,-0.155,-0.23
2021-08-19 15:00:11.144,-0.115,-0.235
2021-08-19 15:00:11.148,-0.02,-0.255
2021-08-19 15:00:11.152,0.07,-0.285
2021-08-19 15:00:11.156,0.125,-0.32
2021-08-19 15:00:11.160,0.155,-0.36
2021-08-19 15:00:11.164,0.2,-0.45
2021-08-19 15:00:11.168,0.21,-0.545
2021-08-19 15:00:11.172,0.225,-0.65
2021-08-19 15:00:11.176,0.245,-0.795
2021-08-19 15:00:11.180,0.3,-1.0
2021-08-19 15:00:11.184,0.43,-1.245
2021-08-19 15:00:11.188,0.67,-1.51
2021-08-19 15:00:11.192,0.95,-1.84
2021-08-19 15:00:11.208,0.0,-1.74
2021-08-19 15:00:11.212,-0.285,-1.26
2021-08-19 15:00:11.216,-0.395,-0.875
2021-08-19 15:00:11.220,-0.445,-0.635
2021-08-19 15:00:11.224,-0.44,-0.435
2021-08-19 15:00:11.228,-0.425,-0.305
2021-08-19 15:00:11.232,-0.44,-0.215
2021-08-19 15:00:11.236,-0.445,-0.12
2021-08-19 15:00:11.240,-0.45,-0.08
2021-08-19 15:00:11.244,-0.44,-0.07
2021-08-19 15:00:11.248,-0.445,-0.07
2021-08-19 15:00:11.252,-0.465,-0.07
2021-08-19 15:00:11.256,-0.44,-0.06
2021-08-19 15:00:11.260,-0.43,-0.055
2021-08-19 15:00:11.264,-0.425,-0.07
2021-08-19 15:00:11.268,-0.425,-0.09
2021-08-19 15:00:11.272,-0.435,-0.065
2021-08-19 15:00:11.276,-0.425,-0.06
2021-08-19 15:00:11.280,-0.43,-0.07
2021-08-19 15:00:11.284,-0.42,-0.05
2021-08-19 15:00:11.288,-0.415,-0.05
2021-08-19 15:00:11.292,-0.4,-0.03
2021-08-19 15:00:11.296,-0.395,-0.04
2021-08-19 15:00:11.300,-0.37,-0.035
2021-08-19 15:00:11.304,-0.395,-0.04
2021-08-19 15:00:11.308,-0.415,-0.04
2021-08-19 15:00:11.312,-0.4,-0.015
2021-08-19 15:00:11.316,-0.41,-0.015
2021-08-19 15:00:11.320,-0.395,0.015
2021-08-19 15:00:11.324,-0.405,-0.02
2021-08-19 15:00:11.328,-0.41,0.015
2021-08-19 15:00:11.332,-0.395,0.015
2021-08-19 15:00:11.336,-0.4,0.015
2021-08-19 15:00:11.340,-0.395,0.015
2021-08-19 15:00:11.344,-0.37,0.035
2021-08-19 15:00:11.348,-0.365,0.01
2021-08-19 15:00:11.352,-0.365,0.045
2021-08-19 15:00:11.356,-0.375,0.035
2021-08-19 15:00:11.360,-0.37,0.025
2021-08-19 15:00:11.364,-0.335,0.01
2021-08-19 15:00:11.368,-0.35,0.035
2021-08-19 15:00:11.372,-0.35,0.03
2021-08-19 15:00:11.376,-0.335,0.035
2021-08-19 15:00:11.380,-0.35,0.015
2021-08-19 15:00:11.384,-0.32,0.0
2021-08-19 15:00:11.388,-0.31,0.0
2021-08-19 15:00:11.392,-0.315,0.0
2021-08-19 15:00:11.396,-0.31,0.0
2021-08-19 15:00:11.400,-0.305,-0.01
2021-08-19 15:00:11.404,-0.31,-0.03
2021-08-19 15:00:11.408,-0.295,-0.025
2021-08-19 15:00:11.412,-0.295,-0.04
2021-08-19 15:00:11.416,-0.265,-0.08
2021-08-19 15:00:11.420,-0.285,-0.095
2021-08-19 15:00:11.424,-0.25,-0.11
2021-08-19 15:00:11.428,-0.275,-0.145
2021-08-19 15:00:11.432,-0.275,-0.15
2021-08-19 15:00:11.436,-0.3,-0.135
2021-08-19 15:00:11.440,-0.265,-0.14
2021-08-19 15:00:11.444,-0.24,-0.15
2021-08-19 15:00:11.448,-0.23,-0.18
2021-08-19 15:00:11.452,-0.245,-0.185
2021-08-19 15:00:11.456,-0.245,-0.185
2021-08-19 15:00:11.460,-0.245,-0.2
2021-08-19 15:00:11.464,-0.235,-0.22
2021-08-19 15:00:11.468,-0.21,-0.23
2021-08-19 15:00:11.472,-0.2,-0.23
2021-08-19 15:00:11.476,-0.19,-0.225
2021-08-19 15:00:11.480,-0.205,-0.22
2021-08-19 15:00:11.484,-0.235,-0.215
2021-08-19 15:00:11.488,-0.225,-0.235
2021-08-19 15:00:11.492,-0.23,-0.255
2021-08-19 15:00:11.496,-0.215,-0.255
2021-08-19 15:00:11.500,-0.215,-0.235
2021-08-19 15:00:11.504,-0.19,-0.23
2021-08-19 15:00:11.508,-0.17,-0.225
2021-08-19 15:00:11.512,-0.155,-0.235
2021-08-19 15:00:11.516,-0.165,-0.24
2021-08-19 15:00:11.520,-0.165,-0.225
2021-08-19 15:00:11.524,-0.115,-0.22
2021-08-19 15:00:11.528,-0.07,-0.2
2021-08-19 15:00:11.532,-0.01,-0.185
2021-08-19 15:00:11.536,0.01,-0.15
2021-08-19 15:00:11.540,0.035,-0.175
2021-08-19 15:00:11.544,0.03,-0.135
2021-08-19 15:00:11.548,0.08,-0.13
2021-08-19 15:00:11.552,0.115,-0.14
2021-08-19 15:00:11.556,0.14,-0.155
2021-08-19 15:00:11.560,0.14,-0.155
2021-08-19 15:00:11.564,0.1,-0.19
2021-08-19 15:00:11.568,0.04,-0.245
2021-08-19 15:00:11.572,-0.025,-0.25
2021-08-19 15:00:11.576,-0.085,-0.28
2021-08-19 15:00:11.580,-0.13,-0.27
2021-08-19 15:00:11.584,-0.185,-0.26
2021-08-19 15:00:11.588,-0.245,-0.245
2021-08-19 15:00:11.592,-0.295,-0.225
2021-08-19 15:00:11.596,-0.33,-0.18
2021-08-19 15:00:11.600,-0.32,-0.2
2021-08-19 15:00:11.604,-0.34,-0.2
2021-08-19 15:00:11.608,-0.315,-0.175
2021-08-19 15:00:11.612,-0.305,-0.205
2021-08-19 15:00:11.616,-0.295,-0.2
2021-08-19 15:00:11.620,-0.29,-0.21
2021-08-19 15:00:11.624,-0.305,-0.23
2021-08-19 15:00:11.628,-0.315,-0.22
2021-08-19 15:00:11.632,-0.295,-0.23
2021-08-19 15:00:11.636,-0.28,-0.225
2021-08-19 15:00:11.640,-0.265,-0.22
2021-08-19 15:00:11.644,-0.28,-0.245
2021-08-19 15:00:11.648,-0.28,-0.25
2021-08-19 15:00:11.652,-0.275,-0.255
2021-08-19 15:00:11.656,-0.265,-0.265
2021-08-19 15:00:11.660,-0.28,-0.225
2021-08-19 15:00:11.664,-0.25,-0.23
2021-08-19 15:00:11.668,-0.255,-0.235
2021-08-19 15:00:11.672,-0.24,-0.245
2021-08-19 15:00:11.676,-0.27,-0.23
2021-08-19 15:00:11.680,-0.245,-0.24
2021-08-19 15:00:11.684,-0.25,-0.25
2021-08-19 15:00:11.688,-0.255,-0.24
2021-08-19 15:00:11.692,-0.235,-0.235
2021-08-19 15:00:11.696,-0.225,-0.235
2021-08-19 15:00:11.700,-0.225,-0.225
2021-08-19 15:00:11.704,-0.215,-0.235
2021-08-19 15:00:11.708,-0.175,-0.235
2021-08-19 15:00:11.712,-0.115,-0.25
2021-08-19 15:00:11.716,-0.045,-0.24
2021-08-19 15:00:11.720,0.03,-0.275
2021-08-19 15:00:11.724,0.095,-0.295
2021-08-19 15:00:11.728,0.165,-0.335
2021-08-19 15:00:11.732,0.255,-0.405
2021-08-19 15:00:11.736,0.32,-0.485
2021-08-19 15:00:11.740,0.34,-0.57
2021-08-19 15:00:11.744,0.39,-0.715
2021-08-19 15:00:11.748,0.395,-0.86
2021-08-19 15:00:11.752,0.4,-1.06
2021-08-19 15:00:11.756,0.535,-1.265
2021-08-19 15:00:11.760,0.8,-1.53
2021-08-19 15:00:11.764,1.06,-1.79
2021-08-19 15:00:11.776,0.415,-1.905
2021-08-19 15:00:11.780,0.0,-1.515
2021-08-19 15:00:11.784,-0.24,-1.065
2021-08-19 15:00:11.788,-0.32,-0.785
2021-08-19 15:00:11.792,-0.335,-0.575
2021-08-19 15:00:11.796,-0.33,-0.4
2021-08-19 15:00:11.800,-0.32,-0.26
2021-08-19 15:00:11.804,-0.335,-0.21
2021-08-19 15:00:11.808,-0.365,-0.13
2021-08-19 15:00:11.812,-0.375,-0.06
2021-08-19 15:00:11.816,-0.365,-0.065
2021-08-19 15:00:11.820,-0.37,-0.065
2021-08-19 15:00:11.824,-0.36,-0.055
2021-08-19 15:00:11.828,-0.36,-0.06
2021-08-19 15:00:11.832,-0.36,-0.04
2021-08-19 15:00:11.836,-0.36,-0.055
2021-08-19 15:00:11.840,-0.36,-0.035
2021-08-19 15:00:11.844,-0.37,-0.055
2021-08-19 15:00:11.848,-0.355,-0.045
2021-08-19 15:00:11.852,-0.375,-0.04
2021-08-19 15:00:11.856,-0.405,-0.035
2021-08-19 15:00:11.860,-0.37,-0.04
2021-08-19 15:00:11.864,-0.365,-0.04
2021-08-19 15:00:11.868,-0.385,-0.02
2021-08-19 15:00:11.872,-0.345,-0.03
2021-08-19 15:00:11.876,-0.365,-0.055
2021-08-19 15:00:11.880,-0.37,-0.01
2021-08-19 15:00:11.884,-0.375,-0.03
2021-08-19 15:00:11.888,-0.36,0.0
2021-08-19 15:00:11.892,-0.375,0.0
2021-08-19 15:00:11.896,-0.37,-0.02
2021-08-19 15:00:11.900,-0.365,-0.005
2021-08-19 15:00:11.904,-0.36,0.025
2021-08-19 15:00:11.908,-0.345,0.025
2021-08-19 15:00:11.912,-0.35,0.005
2021-08-19 15:00:11.916,-0.34,0.025
2021-08-19 15:00:11.920,-0.31,0.03
2021-08-19 15:00:11.924,-0.32,0.02
2021-08-19 15:00:11.928,-0.305,0.035
2021-08-19 15:00:11.932,-0.265,0.045
2021-08-19 15:00:11.936,-0.28,0.055
2021-08-19 15:00:11.940,-0.265,0.045
2021-08-19 15:00:11.944,-0.26,0.055
2021-08-19 15:00:11.948,-0.26,0.03
2021-08-19 15:00:11.952,-0.27,0.01
2021-08-19 15:00:11.956,-0.265,0.03
2021-08-19 15:00:11.960,-0.255,0.005
2021-08-19 15:00:11.964,-0.23,0.025
2021-08-19 15:00:11.968,-0.23,0.015
2021-08-19 15:00:11.972,-0.245,0.0
2021-08-19 15:00:11.976,-0.26,0.0
2021-08-19 15:00:11.980,-0.24,-0.005
2021-08-19 15:00:11.984,-0.23,-0.035
2021-08-19 15:00:11.988,-0.235,-0.065
2021-08-19 15:00:11.992,-0.245,-0.09
2021-08-19 15:00:11.996,-0.24,-0.1
2021-08-19 15:00:12.000,-0.235,-0.1
2021-08-19 15:00:12.004,-0.22,-0.125
2021-08-19 15:00:12.008,-0.205,-0.14
2021-08-19 15:00:12.012,-0.195,-0.15
2021-08-19 15:00:12.016,-0.19,-0.155
2021-08-19 15:00:12.020,-0.185,-0.19
2021-08-19 15:00:12.024,-0.19,-0.2
2021-08-19 15:00:12.028,-0.19,-0.225
2021-08-19 15:00:12.032,-0.16,-0.235
2021-08-19 15:00:12.036,-0.16,-0.22
2021-08-19 15:00:12.040,-0.14,-0.21
2021-08-19 15:00:12.044,-0.15,-0.2
2021-08-19 15:00:12.048,-0.14,-0.22
2021-08-19 15:00:12.052,-0.13,-0.21
2021-08-19 15:00:12.056,-0.14,-0.2
2021-08-19 15:00:12.060,-0.115,-0.205
2021-08-19 15:00:12.064,-0.095,-0.215
2021-08-19 15:00:12.068,-0.1,-0.205
2021-08-19 15:00:12.072,-0.08,-0.195
2021-08-19 15:00:12.076,-0.08,-0.19
2021-08-19 15:00:12.080,-0.06,-0.195
2021-08-19 15:00:12.084,-0.06,-0.165
2021-08-19 15:00:12.088,-0.02,-0.165
2021-08-19 15:00:12.092,0.01,-0.15
2021-08-19 15:00:12.096,0.065,-0.15
2021-08-19 15:00:12.100,0.075,-0.12
2021-08-19 15:00:12.104,0.095,-0.125
2021-08-19 15:00:12.108,0.12,-0.145
2021-08-19 15:00:12.112,0.14,-0.13
2021-08-19 15:00:12.116,0.14,-0.175
2021-08-19 15:00:12.120,0.16,-0.175
2021-08-19 15:00:12.124,0.125,-0.195
2021-08-19 15:00:12.128,0.08,-0.255
2021-08-19 15:00:12.132,0.025,-0.265
2021-08-19 15:00:12.136,-0.01,-0.275
2021-08-19 15:00:12.140,-0.095,-0.28
2021-08-19 15:00:12.144,-0.145,-0.29
2021-08-19 15:00:12.148,-0.185,-0.25
2021-08-19 15:00:12.152,-0.23,-0.22
2021-08-19 15:00:12.156,-0.25,-0.185
2021-08-19 15:00:12.160,-0.265,-0.18
2021-08-19 15:00:12.164,-0.265,-0.175
2021-08-19 15:00:12.168,-0.265,-0.155
2021-08-19 15:00:12.172,-0.255,-0.16
2021-08-19 15:00:12.176,-0.24,-0.185
2021-08-19 15:00:12.180,-0.23,-0.175
2021-08-19 15:00:12.184,-0.22,-0.18
2021-08-19 15:00:12.188,-0.21,-0.2
2021-08-19 15:00:12.192,-0.245,-0.195
2021-08-19 15:00:12.196,-0.235,-0.19
2021-08-19 15:00:12.200,-0.235,-0.17
2021-08-19 15:00:12.204,-0.24,-0.18
2021-08-19 15:00:12.208,-0.255,-0.205
2021-08-19 15:00:12.212,-0.245,-0.2
2021-08-19 15:00:12.216,-0.26,-0.2
2021-08-19 15:00:12.220,-0.255,-0.24
2021-08-19 15:00:12.224,-0.25,-0.235
2021-08-19 15:00:12.228,-0.26,-0.23
2021-08-19 15:00:12.232,-0.255,-0.235
2021-08-19 15:00:12.236,-0.265,-0.225
2021-08-19 15:00:12.240,-0.26,-0.245
2021-08-19 15:00:12.244,-0.24,-0.235
2021-08-19 15:00:12.248,-0.225,-0.26
2021-08-19 15:00:12.252,-0.23,-0.27
2021-08-19 15:00:12.256,-0.225,-0.24
2021-08-19 15:00:12.260,-0.225,-0.245
2021-08-19 15:00:12.264,-0.24,-0.25
2021-08-19 15:00:12.268,-0.21,-0.25
2021-08-19 15:00:12.272,-0.14,-0.255
2021-08-19 15:00:12.276,-0.09,-0.25
2021-08-19 15:00:12.280,0.01,-0.27
2021-08-19 15:00:12.284,0.08,-0.29
2021-08-19 15:00:12.288,0.145,-0.335
2021-08-19 15:00:12.292,0.185,-0.385
2021-08-19 15:00:12.296,0.22,-0.46
2021-08-19 15:00:12.300,0.235,-0.55
2021-08-19 15:00:12.304,0.24,-0.655
2021-08-19 15:00:12.308,0.215,-0.815
2021-08-19 15:00:12.312,0.245,-0.98
2021-08-19 15:00:12.316,0.395,-1.2
2021-08-19 15:00:12.320,0.62,-1.46
2021-08-19 15:00:12.324,0.915,-1.75
2021-08-19 15:00:12.328,1.1,-1.99
2021-08-19 15:00:12.340,0.1,-1.705
2021-08-19 15:00:12.344,-0.22,-1.23
2021-08-19 15:00:12.348,-0.365,-0.88
2021-08-19 15:00:12.352,-0.44,-0.64
2021-08-19 15:00:12.356,-0.465,-0.46
2021-08-19 15:00:12.360,-0.42,-0.335
2021-08-19 15:00:12.364,-0.415,-0.245
2021-08-19 15:00:12.368,-0.415,-0.16
2021-08-19 15:00:12.372,-0.44,-0.135
2021-08-19 15:00:12.376,-0.43,-0.1
2021-08-19 15:00:12.380,-0.43,-0.07
2021-08-19 15:00:12.384,-0.42,-0.05
2021-08-19 15:00:12.388,-0.405,-0.065
2021-08-19 15:00:12.392,-0.405,-0.07
2021-08-19 15:00:12.396,-0.435,-0.045
2021-08-19 15:00:12.400,-0.42,-0.05
2021-08-19 15:00:12.404,-0.425,-0.04
2021-08-19 15:00:12.408,-0.395,-0.015
2021-08-19 15:00:12.412,-0.4,-0.05
2021-08-19 15:00:12.416,-0.425,-0.02
2021-08-19 15:00:12.420,-0.415,-0.005
2021-08-19 15:00:12.424,-0.4,-0.035
2021-08-19 15:00:12.428,-0.39,0.0
2021-08-19 15:00:12.432,-0.41,-0.01
2021-08-19 15:00:12.436,-0.4,0.0
2021-08-19 15:00:12.440,-0.4,0.015
2021-08-19 15:00:12.444,-0.405,0.005
2021-08-19 15:00:12.448,-0.415,0.03
2021-08-19 15:00:12.452,-0.395,0.005
2021-08-19 15:00:12.456,-0.395,0.025
2021-08-19 15:00:12.460,-0.41,0.025
2021-08-19 15:00:12.464,-0.425,0.025
2021-08-19 15:00:12.468,-0.405,0.04
2021-08-19 15:00:12.472,-0.415,0.03
2021-08-19 15:00:12.476,-0.4,0.065
2021-08-19 15:00:12.480,-0.395,0.06
2021-08-19 15:00:12.484,-0.38,0.06
2021-08-19 15:00:12.488,-0.37,0.055
2021-08-19 15:00:12.492,-0.37,0.05
2021-08-19 15:00:12.496,-0.375,0.065
2021-08-19 15:00:12.500,-0.35,0.055
2021-08-19 15:00:12.504,-0.345,0.05
2021-08-19 15:00:12.508,-0.34,0.04
2021-08-19 15:00:12.512,-0.335,0.05
2021-08-19 15:00:12.516,-0.32,0.055
2021-08-19 15:00:12.520,-0.34,0.065
2021-08-19 15:00:12.524,-0.315,0.06
2021-08-19 15:00:12.528,-0.305,0.045
2021-08-19 15:00:12.532,-0.305,0.045
2021-08-19 15:00:12.536,-0.285,0.035
2021-08-19 15:00:12.540,-0.29,0.01
2021-08-19 15:00:12.544,-0.275,0.005
2021-08-19 15:00:12.548,-0.27,-0.005
2021-08-19 15:00:12.552,-0.285,-0.03
2021-08-19 15:00:12.556,-0.28,-0.05
2021-08-19 15:00:12.560,-0.26,-0.055
2021-08-19 15:00:12.564,-0.25,-0.07
2021-08-19 15:00:12.568,-0.25,-0.08
2021-08-19 15:00:12.572,-0.255,-0.11
2021-08-19 15:00:12.576,-0.26,-0.14
2021-08-19 15:00:12.580,-0.25,-0.145
2021-08-19 15:00:12.584,-0.245,-0.155
2021-08-19 15:00:12.588,-0.23,-0.165
2021-08-19 15:00:12.592,-0.245,-0.195
2021-08-19 15:00:12.596,-0.255,-0.2
2021-08-19 15:00:12.600,-0.24,-0.2
2021-08-19 15:00:12.604,-0.23,-0.2
2021-08-19 15:00:12.608,-0.225,-0.205
2021-08-19 15:00:12.612,-0.205,-0.22
2021-08-19 15:00:12.616,-0.165,-0.24
2021-08-19 15:00:12.620,-0.145,-0.235
2021-08-19 15:00:12.624,-0.16,-0.255
2021-08-19 15:00:12.628,-0.16,-0.22
2021-08-19 15:00:12.632,-0.13,-0.185
2021-08-19 15:00:12.636,-0.1,-0.175
2021-08-19 15:00:12.640,-0.05,-0.195
2021-08-19 15:00:12.644,0.015,-0.17
2021-08-19 15:00:12.648,0.02,-0.13
2021-08-19 15:00:12.652,0.035,-0.135
2021-08-19 15:00:12.656,0.055,-0.135
2021-08-19 15:00:12.660,0.105,-0.14
2021-08-19 15:00:12.664,0.12,-0.145
2021-08-19 15:00:12.668,0.105,-0.155
2021-08-19 15:00:12.672,0.07,-0.18
2021-08-19 15:00:12.676,0.025,-0.225
2021-08-19 15:00:12.680,-0.02,-0.255
2021-08-19 15:00:12.684,-0.1,-0.25
2021-08-19 15:00:12.688,-0.155,-0.245
2021-08-19 15:00:12.692,-0.205,-0.25
2021-08-19 15:00:12.696,-0.245,-0.205
2021-08-19 15:00:12.700,-0.31,-0.19
2021-08-19 15:00:12.704,-0.33,-0.135
2021-08-19 15:00:12.708,-0.335,-0.145
2021-08-19 15:00:12.712,-0.355,-0.15
2021-08-19 15:00:12.716,-0.365,-0.15
2021-08-19 15:00:12.720,-0.35,-0.15
2021-08-19 15:00:12.724,-0.335,-0.16
2021-08-19 15:00:12.728,-0.32,-0.18
2021-08-19 15:00:12.732,-0.33,-0.19
2021-08-19 15:00:12.736,-0.32,-0.195
2021-08-19 15:00:12.740,-0.32,-0.19
2021-08-19 15:00:12.744,-0.325,-0.205
2021-08-19 15:00:12.748,-0.305,-0.19
2021-08-19 15:00:12.752,-0.31,-0.2
2021-08-19 15:00:12.756,-0.29,-0.22
2021-08-19 15:00:12.760,-0.29,-0.205
2021-08-19 15:00:12.764,-0.315,-0.215
2021-08-19 15:00:12.768,-0.315,-0.225
2021-08-19 15:00:12.772,-0.295,-0.215
2021-08-19 15:00:12.776,-0.27,-0.21
2021-08-19 15:00:12.780,-0.25,-0.215
2021-08-19 15:00:12.784,-0.26,-0.205
2021-08-19 15:00:12.788,-0.25,-0.21
2021-08-19 15:00:12.792,-0.26,-0.205
2021-08-19 15:00:12.796,-0.25,-0.215
2021-08-19 15:00:12.800,-0.255,-0.205
2021-08-19 15:00:12.804,-0.24,-0.215
2021-08-19 15:00:12.808,-0.24,-0.205
2021-08-19 15:00:12.812,-0.24,-0.21
2021-08-19 15:00:12.816,-0.225,-0.205
2021-08-19 15:00:12.820,-0.205,-0.22
2021-08-19 15:00:12.824,-0.135,-0.235
2021-08-19 15:00:12.828,-0.05,-0.215
2021-08-19 15:00:12.832,0.035,-0.235
2021-08-19 15:00:12.836,0.11,-0.28
2021-08-19 15:00:12.840,0.17,-0.335
2021-08-19 15:00:12.844,0.205,-0.39
2021-08-19 15:00:12.848,0.245,-0.465
2021-08-19 15:00:12.852,0.255,-0.595
2021-08-19 15:00:12.856,0.275,-0.72
2021-08-19 15:00:12.860,0.3,-0.915
2021-08-19 15:00:12.864,0.375,-1.11
2021-08-19 15:00:12.868,0.56,-1.335
2021-08-19 15:00:12.872,0.83,-1.65
2021-08-19 15:00:12.876,1.055,-1.915
2021-08-19 15:00:12.888,0.185,-1.835
2021-08-19 15:00:12.892,-0.155,-1.375
2021-08-19 15:00:12.896,-0.34,-0.945
2021-08-19 15:00:12.900,-0.42,-0.685
2021-08-19 15:00:12.904,-0.425,-0.495
2021-08-19 15:00:12.908,-0.4,-0.34
2021-08-19 15:00:12.912,-0.405,-0.215
2021-08-19 15:00:12.916,-0.41,-0.135
2021-08-19 15:00:12.920,-0.4,-0.105
2021-08-19 15:00:12.924,-0.42,-0.055
2021-08-19 15:00:12.928,-0.4,-0.055
2021-08-19 15:00:12.932,-0.4,-0.05
2021-08-19 15:00:12.936,-0.395,-0.02
2021-08-19 15:00:12.940,-0.415,-0.025
2021-08-19 15:00:12.944,-0.41,-0.02
2021-08-19 15:00:12.948,-0.42,-0.045
2021-08-19 15:00:12.952,-0.39,-0.03
2021-08-19 15:00:12.956,-0.4,-0.04
2021-08-19 15:00:12.960,-0.42,-0.04
2021-08-19 15:00:12.964,-0.42,-0.035
2021-08-19 15:00:12.968,-0.415,-0.025
2021-08-19 15:00:12.972,-0.41,-0.015
2021-08-19 15:00:12.976,-0.4,-0.03
2021-08-19 15:00:12.980,-0.4,-0.025
2021-08-19 15:00:12.984,-0.43,-0.01
2021-08-19 15:00:12.988,-0.43,-0.005
2021-08-19 15:00:12.992,-0.42,-0.01
2021-08-19 15:00:12.996,-0.4,-0.01
2021-08-19 15:00:13.000,-0.405,0.0
2021-08-19 15:00:13.004,-0.38,0.005
2021-08-19 15:00:13.008,-0.395,0.02
2021-08-19 15:00:13.012,-0.415,0.04
2021-08-19 15:00:13.016,-0.405,0.035
2021-08-19 15:00:13.020,-0.405,0.025
2021-08-19 15:00:13.024,-0.375,0.04
2021-08-19 15:00:13.028,-0.375,0.04
2021-08-19 15:00:13.032,-0.365,0.035
2021-08-19 15:00:13.036,-0.375,0.04
2021-08-19 15:00:13.040,-0.36,0.075
2021-08-19 15:00:13.044,-0.345,0.065
2021-08-19 15:00:13.048,-0.32,0.055
2021-08-19 15:00:13.052,-0.31,0.05
2021-08-19 15:00:13.056,-0.315,0.06
2021-08-19 15:00:13.060,-0.315,0.07
2021-08-19 15:00:13.064,-0.295,0.055
2021-08-19 15:00:13.068,-0.31,0.045
2021-08-19 15:00:13.072,-0.295,0.05
2021-08-19 15:00:13.076,-0.295,0.035
2021-08-19 15:00:13.080,-0.3,0.02
2021-08-19 15:00:13.084,-0.295,0.015
2021-08-19 15:00:13.088,-0.285,0.02
2021-08-19 15:00:13.092,-0.28,-0.005
2021-08-19 15:00:13.096,-0.295,-0.01
2021-08-19 15:00:13.100,-0.275,-0.05
2021-08-19 15:00:13.104,-0.26,-0.08
2021-08-19 15:00:13.108,-0.26,-0.055
2021-08-19 15:00:13.112,-0.25,-0.1
2021-08-19 15:00:13.116,-0.24,-0.135
2021-08-19 15:00:13.120,-0.235,-0.155
2021-08-19 15:00:13.124,-0.25,-0.16
2021-08-19 15:00:13.128,-0.265,-0.175
2021-08-19 15:00:13.132,-0.255,-0.2
2021-08-19 15:00:13.136,-0.225,-0.185
2021-08-19 15:00:13.140,-0.205,-0.17
2021-08-19 15:00:13.144,-0.205,-0.17
2021-08-19 15:00:13.148,-0.195,-0.195
2021-08-19 15:00:13.152,-0.2,-0.2
2021-08-19 15:00:13.156,-0.205,-0.215
2021-08-19 15:00:13.160,-0.185,-0.215
2021-08-19 15:00:13.164,-0.185,-0.19
2021-08-19 15:00:13.168,-0.16,-0.2
2021-08-19 15:00:13.172,-0.165,-0.21
2021-08-19 15:00:13.176,-0.16,-0.19
2021-08-19 15:00:13.180,-0.115,-0.225
2021-08-19 15:00:13.184,-0.125,-0.18
2021-08-19 15:00:13.188,-0.115,-0.19
2021-08-19 15:00:13.192,-0.11,-0.195
2021-08-19 15:00:13.196,-0.08,-0.185
2021-08-19 15:00:13.200,-0.085,-0.155
2021-08-19 15:00:13.204,-0.035,-0.175
2021-08-19 15:00:13.208,0.005,-0.16
2021-08-19 15:00:13.212,0.06,-0.145
2021-08-19 15:00:13.216,0.06,-0.125
2021-08-19 15:00:13.220,0.095,-0.12
2021-08-19 15:00:13.224,0.11,-0.16
2021-08-19 15:00:13.228,0.095,-0.15
2021-08-19 15:00:13.232,0.125,-0.145
2021-08-19 15:00:13.236,0.115,-0.15
2021-08-19 15:00:13.240,0.095,-0.185
2021-08-19 15:00:13.244,0.055,-0.245
2021-08-19 15:00:13.248,0.0,-0.265
2021-08-19 15:00:13.252,-0.07,-0.265
2021-08-19 15:00:13.256,-0.13,-0.255
2021-08-19 15:00:13.260,-0.175,-0.25
2021-08-19 15:00:13.264,-0.235,-0.215
2021-08-19 15:00:13.268,-0.275,-0.21
2021-08-19 15:00:13.272,-0.29,-0.185
2021-08-19 15:00:13.276,-0.305,-0.16
