Time,ECG1,ECG2
2021-08-19 15:25:05.312,-0.235,0.075
2021-08-19 15:25:05.316,-0.215,0.06
2021-08-19 15:25:05.320,-0.23,0.035
2021-08-19 15:25:05.324,-0.225,0.025
2021-08-19 15:25:05.328,-0.235,0.015
2021-08-19 15:25:05.332,-0.235,0.02
2021-08-19 15:25:05.336,-0.23,0.005
2021-08-19 15:25:05.340,-0.225,0.0
2021-08-19 15:25:05.344,-0.22,-0.015
2021-08-19 15:25:05.348,-0.24,-0.01
2021-08-19 15:25:05.352,-0.21,-0.035
2021-08-19 15:25:05.356,-0.21,0.005
2021-08-19 15:25:05.360,-0.195,0.01
2021-08-19 15:25:05.364,-0.205,0.01
2021-08-19 15:25:05.368,-0.195,0.02
2021-08-19 15:25:05.372,-0.22,0.0
2021-08-19 15:25:05.376,-0.25,-0.01
2021-08-19 15:25:05.380,-0.245,0.0
2021-08-19 15:25:05.384,-0.24,-0.02
2021-08-19 15:25:05.388,-0.23,-0.035
2021-08-19 15:25:05.392,-0.23,-0.015
2021-08-19 15:25:05.396,-0.24,-0.03
2021-08-19 15:25:05.400,-0.23,-0.01
2021-08-19 15:25:05.404,-0.24,-0.015
2021-08-19 15:25:05.408,-0.24,-0.03
2021-08-19 15:25:05.412,-0.215,0.0
2021-08-19 15:25:05.416,-0.205,0.015
2021-08-19 15:25:05.420,-0.185,0.0
2021-08-19 15:25:05.424,-0.175,-0.05
2021-08-19 15:25:05.428,-0.16,-0.08
2021-08-19 15:25:05.432,-0.18,-0.08
2021-08-19 15:25:05.436,-0.185,-0.055
2021-08-19 15:25:05.440,-0.15,-0.045
2021-08-19 15:25:05.444,-0.155,-0.02
2021-08-19 15:25:05.448,-0.14,0.0
2021-08-19 15:25:05.452,-0.11,-0.01
2021-08-19 15:25:05.456,-0.08,0.01
2021-08-19 15:25:05.460,-0.07,0.03
2021-08-19 15:25:05.464,-0.065,0.025
2021-08-19 15:25:05.468,-0.06,0.015
2021-08-19 15:25:05.472,-0.01,0.025
2021-08-19 15:25:05.476,0.0,0.025
2021-08-19 15:25:05.480,0.015,0.03
2021-08-19 15:25:05.484,0.005,-0.015
2021-08-19 15:25:05.488,0.0,-0.06
2021-08-19 15:25:05.492,-0.005,-0.11
2021-08-19 15:25:05.496,-0.01,-0.125
2021-08-19 15:25:05.500,-0.04,-0.12
2021-08-19 15:25:05.504,-0.065,-0.11
2021-08-19 15:25:05.508,-0.11,-0.085
2021-08-19 15:25:05.512,-0.16,-0.07
2021-08-19 15:25:05.516,-0.205,-0.04
2021-08-19 15:25:05.520,-0.225,-0.035
2021-08-19 15:25:05.524,-0.28,-0.04
2021-08-19 15:25:05.528,-0.31,-0.06
2021-08-19 15:25:05.532,-0.34,-0.04
2021-08-19 15:25:05.536,-0.34,-0.045
2021-08-19 15:25:05.540,-0.34,-0.02
2021-08-19 15:25:05.544,-0.33,-0.025
2021-08-19 15:25:05.548,-0.335,-0.04
2021-08-19 15:25:05.552,-0.32,-0.04
2021-08-19 15:25:05.556,-0.32,-0.035
2021-08-19 15:25:05.560,-0.32,-0.02
2021-08-19 15:25:05.564,-0.32,-0.035
2021-08-19 15:25:05.568,-0.32,-0.06
2021-08-19 15:25:05.572,-0.34,-0.06
2021-08-19 15:25:05.576,-0.355,-0.05
2021-08-19 15:25:05.580,-0.35,-0.06
2021-08-19 15:25:05.584,-0.36,-0.065
2021-08-19 15:25:05.588,-0.345,-0.065
2021-08-19 15:25:05.592,-0.33,-0.075
2021-08-19 15:25:05.596,-0.325,-0.065
2021-08-19 15:25:05.600,-0.325,-0.055
2021-08-19 15:25:05.604,-0.33,-0.065
2021-08-19 15:25:05.608,-0.32,-0.08
2021-08-19 15:25:05.612,-0.325,-0.07
2021-08-19 15:25:05.616,-0.3,-0.06
2021-08-19 15:25:05.620,-0.29,-0.055
2021-08-19 15:25:05.624,-0.325,-0.06
2021-08-19 15:25:05.628,-0.315,-0.07
2021-08-19 15:25:05.632,-0.32,-0.105
2021-08-19 15:25:05.636,-0.29,-0.115
2021-08-19 15:25:05.640,-0.285,-0.11
2021-08-19 15:25:05.644,-0.255,-0.11
2021-08-19 15:25:05.648,-0.165,-0.1
2021-08-19 15:25:05.652,-0.1,-0.12
2021-08-19 15:25:05.656,-0.02,-0.135
2021-08-19 15:25:05.660,0.03,-0.185
2021-08-19 15:25:05.664,0.09,-0.255
2021-08-19 15:25:05.668,0.125,-0.32
2021-08-19 15:25:05.672,0.165,-0.41
2021-08-19 15:25:05.676,0.18,-0.525
2021-08-19 15:25:05.680,0.18,-0.675
2021-08-19 15:25:05.684,0.205,-0.865
2021-08-19 15:25:05.688,0.275,-1.115
2021-08-19 15:25:05.692,0.45,-1.34
2021-08-19 15:25:05.696,0.75,-1.595
2021-08-19 15:25:05.700,1.065,-1.825
2021-08-19 15:25:05.704,1.21,-2.0
2021-08-19 15:25:05.712,0.75,-1.85
2021-08-19 15:25:05.716,0.215,-1.47
2021-08-19 15:25:05.720,-0.2,-1.03
2021-08-19 15:25:05.724,-0.43,-0.755
2021-08-19 15:25:05.728,-0.51,-0.575
2021-08-19 15:25:05.732,-0.52,-0.395
2021-08-19 15:25:05.736,-0.51,-0.2
2021-08-19 15:25:05.740,-0.525,-0.07
2021-08-19 15:25:05.744,-0.495,0.01
2021-08-19 15:25:05.748,-0.51,0.04
2021-08-19 15:25:05.752,-0.495,0.065
2021-08-19 15:25:05.756,-0.51,0.07
2021-08-19 15:25:05.760,-0.52,0.095
2021-08-19 15:25:05.764,-0.52,0.095
2021-08-19 15:25:05.768,-0.53,0.05
2021-08-19 15:25:05.772,-0.51,0.065
2021-08-19 15:25:05.776,-0.505,0.095
2021-08-19 15:25:05.780,-0.51,0.11
2021-08-19 15:25:05.784,-0.515,0.11
2021-08-19 15:25:05.788,-0.535,0.1
2021-08-19 15:25:05.792,-0.53,0.105
2021-08-19 15:25:05.796,-0.5,0.09
2021-08-19 15:25:05.800,-0.515,0.11
2021-08-19 15:25:05.804,-0.515,0.12
2021-08-19 15:25:05.808,-0.48,0.145
2021-08-19 15:25:05.812,-0.51,0.15
2021-08-19 15:25:05.816,-0.5,0.115
2021-08-19 15:25:05.820,-0.495,0.11
2021-08-19 15:25:05.824,-0.5,0.14
2021-08-19 15:25:05.828,-0.495,0.15
2021-08-19 15:25:05.832,-0.505,0.16
2021-08-19 15:25:05.836,-0.505,0.15
2021-08-19 15:25:05.840,-0.515,0.14
2021-08-19 15:25:05.844,-0.5,0.15
2021-08-19 15:25:05.848,-0.5,0.165
2021-08-19 15:25:05.852,-0.5,0.2
2021-08-19 15:25:05.856,-0.5,0.225
2021-08-19 15:25:05.860,-0.495,0.23
2021-08-19 15:25:05.864,-0.495,0.2
2021-08-19 15:25:05.868,-0.5,0.185
2021-08-19 15:25:05.872,-0.465,0.155
2021-08-19 15:25:05.876,-0.435,0.165
2021-08-19 15:25:05.880,-0.44,0.225
2021-08-19 15:25:05.884,-0.44,0.24
2021-08-19 15:25:05.888,-0.435,0.215
2021-08-19 15:25:05.892,-0.4,0.19
2021-08-19 15:25:05.896,-0.415,0.21
2021-08-19 15:25:05.900,-0.395,0.19
2021-08-19 15:25:05.904,-0.41,0.2
2021-08-19 15:25:05.908,-0.395,0.21
2021-08-19 15:25:05.912,-0.385,0.225
2021-08-19 15:25:05.916,-0.4,0.21
2021-08-19 15:25:05.920,-0.375,0.21
2021-08-19 15:25:05.924,-0.38,0.17
2021-08-19 15:25:05.928,-0.37,0.185
2021-08-19 15:25:05.932,-0.385,0.185
2021-08-19 15:25:05.936,-0.39,0.16
2021-08-19 15:25:05.940,-0.36,0.115
2021-08-19 15:25:05.944,-0.365,0.085
2021-08-19 15:25:05.948,-0.365,0.055
2021-08-19 15:25:05.952,-0.36,0.08
2021-08-19 15:25:05.956,-0.38,0.07
2021-08-19 15:25:05.960,-0.35,0.06
2021-08-19 15:25:05.964,-0.34,0.05
2021-08-19 15:25:05.968,-0.35,0.045
2021-08-19 15:25:05.972,-0.355,0.055
2021-08-19 15:25:05.976,-0.335,0.035
2021-08-19 15:25:05.980,-0.345,0.0
2021-08-19 15:25:05.984,-0.34,-0.025
2021-08-19 15:25:05.988,-0.32,-0.005
2021-08-19 15:25:05.992,-0.315,-0.015
2021-08-19 15:25:05.996,-0.31,-0.025
2021-08-19 15:25:06.000,-0.3,-0.005
2021-08-19 15:25:06.004,-0.295,-0.02
2021-08-19 15:25:06.008,-0.295,0.02
2021-08-19 15:25:06.012,-0.305,0.015
2021-08-19 15:25:06.016,-0.295,-0.01
2021-08-19 15:25:06.020,-0.28,-0.015
2021-08-19 15:25:06.024,-0.29,-0.035
2021-08-19 15:25:06.028,-0.265,-0.005
2021-08-19 15:25:06.032,-0.26,0.005
2021-08-19 15:25:06.036,-0.29,0.02
2021-08-19 15:25:06.040,-0.285,-0.01
2021-08-19 15:25:06.044,-0.305,-0.055
2021-08-19 15:25:06.048,-0.305,-0.02
2021-08-19 15:25:06.052,-0.305,-0.02
2021-08-19 15:25:06.056,-0.29,0.0
2021-08-19 15:25:06.060,-0.26,0.015
2021-08-19 15:25:06.064,-0.27,0.0
2021-08-19 15:25:06.068,-0.245,0.0
2021-08-19 15:25:06.072,-0.255,0.02
2021-08-19 15:25:06.076,-0.225,0.05
2021-08-19 15:25:06.080,-0.205,0.055
2021-08-19 15:25:06.084,-0.21,0.07
2021-08-19 15:25:06.088,-0.16,0.045
2021-08-19 15:25:06.092,-0.13,0.065
2021-08-19 15:25:06.096,-0.12,0.07
2021-08-19 15:25:06.100,-0.075,0.075
2021-08-19 15:25:06.104,-0.07,0.08
2021-08-19 15:25:06.108,-0.05,0.045
2021-08-19 15:25:06.112,-0.035,0.05
2021-08-19 15:25:06.116,0.0,0.05
2021-08-19 15:25:06.120,0.0,0.045
2021-08-19 15:25:06.124,0.01,0.03
2021-08-19 15:25:06.128,-0.015,-0.005
2021-08-19 15:25:06.132,-0.055,-0.025
2021-08-19 15:25:06.136,-0.12,-0.065
2021-08-19 15:25:06.140,-0.125,-0.075
2021-08-19 15:25:06.144,-0.18,-0.075
2021-08-19 15:25:06.148,-0.255,-0.065
2021-08-19 15:25:06.152,-0.275,-0.055
2021-08-19 15:25:06.156,-0.315,0.0
2021-08-19 15:25:06.160,-0.355,-0.005
2021-08-19 15:25:06.164,-0.375,0.01
2021-08-19 15:25:06.168,-0.39,0.05
2021-08-19 15:25:06.172,-0.4,0.02
2021-08-19 15:25:06.176,-0.415,0.015
2021-08-19 15:25:06.180,-0.405,0.01
2021-08-19 15:25:06.184,-0.4,0.0
2021-08-19 15:25:06.188,-0.4,-0.01
2021-08-19 15:25:06.192,-0.4,-0.005
2021-08-19 15:25:06.196,-0.38,0.0
2021-08-19 15:25:06.200,-0.375,-0.025
2021-08-19 15:25:06.204,-0.375,-0.02
2021-08-19 15:25:06.208,-0.355,-0.05
2021-08-19 15:25:06.212,-0.36,-0.045
2021-08-19 15:25:06.216,-0.37,-0.045
2021-08-19 15:25:06.220,-0.38,-0.045
2021-08-19 15:25:06.224,-0.365,-0.05
2021-08-19 15:25:06.228,-0.375,-0.035
2021-08-19 15:25:06.232,-0.37,-0.015
2021-08-19 15:25:06.236,-0.36,-0.025
2021-08-19 15:25:06.240,-0.355,-0.005
2021-08-19 15:25:06.244,-0.355,-0.04
2021-08-19 15:25:06.248,-0.35,-0.02
2021-08-19 15:25:06.252,-0.35,-0.055
2021-08-19 15:25:06.256,-0.355,-0.07
2021-08-19 15:25:06.260,-0.365,-0.075
2021-08-19 15:25:06.264,-0.36,-0.05
2021-08-19 15:25:06.268,-0.36,-0.065
2021-08-19 15:25:06.272,-0.34,-0.06
2021-08-19 15:25:06.276,-0.32,-0.065
2021-08-19 15:25:06.280,-0.305,-0.04
2021-08-19 15:25:06.284,-0.26,-0.04
2021-08-19 15:25:06.288,-0.225,-0.06
2021-08-19 15:25:06.292,-0.135,-0.045
2021-08-19 15:25:06.296,-0.065,-0.07
2021-08-19 15:25:06.300,0.01,-0.115
2021-08-19 15:25:06.304,0.07,-0.145
2021-08-19 15:25:06.308,0.11,-0.22
2021-08-19 15:25:06.312,0.14,-0.3
2021-08-19 15:25:06.316,0.18,-0.445
2021-08-19 15:25:06.320,0.185,-0.63
2021-08-19 15:25:06.324,0.2,-0.83
2021-08-19 15:25:06.328,0.255,-1.065
2021-08-19 15:25:06.332,0.42,-1.305
2021-08-19 15:25:06.336,0.73,-1.575
2021-08-19 15:25:06.340,1.035,-1.825
2021-08-19 15:25:06.352,0.81,-1.91
2021-08-19 15:25:06.356,0.225,-1.505
2021-08-19 15:25:06.360,-0.165,-1.07
2021-08-19 15:25:06.364,-0.405,-0.725
2021-08-19 15:25:06.368,-0.48,-0.57
2021-08-19 15:25:06.372,-0.505,-0.405
2021-08-19 15:25:06.376,-0.52,-0.22
2021-08-19 15:25:06.380,-0.51,-0.095
2021-08-19 15:25:06.384,-0.51,0.005
2021-08-19 15:25:06.388,-0.515,0.005
2021-08-19 15:25:06.392,-0.52,0.035
2021-08-19 15:25:06.396,-0.51,0.07
2021-08-19 15:25:06.400,-0.53,0.095
2021-08-19 15:25:06.404,-0.49,0.115
2021-08-19 15:25:06.408,-0.515,0.12
2021-08-19 15:25:06.412,-0.52,0.12
2021-08-19 15:25:06.416,-0.51,0.165
2021-08-19 15:25:06.420,-0.5,0.17
2021-08-19 15:25:06.424,-0.48,0.165
2021-08-19 15:25:06.428,-0.485,0.135
2021-08-19 15:25:06.432,-0.485,0.145
2021-08-19 15:25:06.436,-0.49,0.145
2021-08-19 15:25:06.440,-0.48,0.165
2021-08-19 15:25:06.444,-0.495,0.185
2021-08-19 15:25:06.448,-0.485,0.17
2021-08-19 15:25:06.452,-0.49,0.16
2021-08-19 15:25:06.456,-0.505,0.155
2021-08-19 15:25:06.460,-0.495,0.165
2021-08-19 15:25:06.464,-0.51,0.18
2021-08-19 15:25:06.468,-0.52,0.165
2021-08-19 15:25:06.472,-0.515,0.2
2021-08-19 15:25:06.476,-0.525,0.19
2021-08-19 15:25:06.480,-0.52,0.21
2021-08-19 15:25:06.484,-0.5,0.235
2021-08-19 15:25:06.488,-0.49,0.22
2021-08-19 15:25:06.492,-0.48,0.205
2021-08-19 15:25:06.496,-0.48,0.22
2021-08-19 15:25:06.500,-0.475,0.23
2021-08-19 15:25:06.504,-0.445,0.265
2021-08-19 15:25:06.508,-0.445,0.255
2021-08-19 15:25:06.512,-0.445,0.25
2021-08-19 15:25:06.516,-0.43,0.225
2021-08-19 15:25:06.520,-0.435,0.215
2021-08-19 15:25:06.524,-0.445,0.235
2021-08-19 15:25:06.528,-0.42,0.205
2021-08-19 15:25:06.532,-0.445,0.215
2021-08-19 15:25:06.536,-0.41,0.235
2021-08-19 15:25:06.540,-0.41,0.24
2021-08-19 15:25:06.544,-0.405,0.235
2021-08-19 15:25:06.548,-0.395,0.215
2021-08-19 15:25:06.552,-0.395,0.16
2021-08-19 15:25:06.556,-0.39,0.19
2021-08-19 15:25:06.560,-0.385,0.16
2021-08-19 15:25:06.564,-0.39,0.145
2021-08-19 15:25:06.568,-0.38,0.115
2021-08-19 15:25:06.572,-0.38,0.09
2021-08-19 15:25:06.576,-0.375,0.085
2021-08-19 15:25:06.580,-0.37,0.07
2021-08-19 15:25:06.584,-0.365,0.075
2021-08-19 15:25:06.588,-0.375,0.08
2021-08-19 15:25:06.592,-0.385,0.04
2021-08-19 15:25:06.596,-0.385,0.035
2021-08-19 15:25:06.600,-0.36,0.025
2021-08-19 15:25:06.604,-0.345,0.005
2021-08-19 15:25:06.608,-0.33,-0.005
2021-08-19 15:25:06.612,-0.33,-0.02
2021-08-19 15:25:06.616,-0.33,-0.02
2021-08-19 15:25:06.620,-0.32,-0.01
2021-08-19 15:25:06.624,-0.315,-0.02
2021-08-19 15:25:06.628,-0.32,0.0
2021-08-19 15:25:06.632,-0.305,0.0
2021-08-19 15:25:06.636,-0.305,0.03
2021-08-19 15:25:06.640,-0.31,0.04
2021-08-19 15:25:06.644,-0.315,0.0
2021-08-19 15:25:06.648,-0.3,-0.06
2021-08-19 15:25:06.652,-0.27,-0.08
2021-08-19 15:25:06.656,-0.265,-0.07
2021-08-19 15:25:06.660,-0.265,-0.04
2021-08-19 15:25:06.664,-0.27,0.0
2021-08-19 15:25:06.668,-0.26,0.015
2021-08-19 15:25:06.672,-0.265,0.025
2021-08-19 15:25:06.676,-0.265,0.055
2021-08-19 15:25:06.680,-0.225,-0.005
2021-08-19 15:25:06.684,-0.205,0.005
2021-08-19 15:25:06.688,-0.145,0.02
2021-08-19 15:25:06.692,-0.12,0.055
2021-08-19 15:25:06.696,-0.11,0.1
2021-08-19 15:25:06.700,-0.105,0.125
2021-08-19 15:25:06.704,-0.085,0.125
2021-08-19 15:25:06.708,-0.06,0.08
2021-08-19 15:25:06.712,-0.06,0.015
2021-08-19 15:25:06.716,-0.03,-0.01
2021-08-19 15:25:06.720,-0.055,0.01
2021-08-19 15:25:06.724,-0.07,0.01
2021-08-19 15:25:06.728,-0.09,-0.015
2021-08-19 15:25:06.732,-0.135,-0.05
2021-08-19 15:25:06.736,-0.19,-0.095
2021-08-19 15:25:06.740,-0.22,-0.095
2021-08-19 15:25:06.744,-0.275,-0.055
2021-08-19 15:25:06.748,-0.325,-0.04
2021-08-19 15:25:06.752,-0.4,0.0
2021-08-19 15:25:06.756,-0.45,0.03
2021-08-19 15:25:06.760,-0.465,0.03
2021-08-19 15:25:06.764,-0.48,0.045
2021-08-19 15:25:06.768,-0.47,0.04
2021-08-19 15:25:06.772,-0.465,0.04
2021-08-19 15:25:06.776,-0.485,0.025
2021-08-19 15:25:06.780,-0.48,0.015
2021-08-19 15:25:06.784,-0.47,-0.015
2021-08-19 15:25:06.788,-0.465,-0.02
2021-08-19 15:25:06.792,-0.46,-0.005
2021-08-19 15:25:06.796,-0.44,0.005
2021-08-19 15:25:06.800,-0.455,-0.045
2021-08-19 15:25:06.804,-0.46,-0.05
2021-08-19 15:25:06.808,-0.435,-0.095
2021-08-19 15:25:06.812,-0.445,-0.08
2021-08-19 15:25:06.816,-0.42,-0.09
2021-08-19 15:25:06.820,-0.455,-0.035
2021-08-19 15:25:06.824,-0.475,-0.055
2021-08-19 15:25:06.828,-0.465,-0.04
2021-08-19 15:25:06.832,-0.455,-0.045
2021-08-19 15:25:06.836,-0.445,-0.06
2021-08-19 15:25:06.840,-0.455,-0.035
2021-08-19 15:25:06.844,-0.43,-0.055
2021-08-19 15:25:06.848,-0.425,-0.055
2021-08-19 15:25:06.852,-0.42,-0.06
2021-08-19 15:25:06.856,-0.42,-0.07
2021-08-19 15:25:06.860,-0.435,-0.06
2021-08-19 15:25:06.864,-0.44,-0.085
2021-08-19 15:25:06.868,-0.46,-0.065
2021-08-19 15:25:06.872,-0.435,-0.05
2021-08-19 15:25:06.876,-0.425,-0.04
2021-08-19 15:25:06.880,-0.375,-0.01
2021-08-19 15:25:06.884,-0.345,-0.035
2021-08-19 15:25:06.888,-0.27,-0.075
2021-08-19 15:25:06.892,-0.175,-0.09
2021-08-19 15:25:06.896,-0.105,-0.085
2021-08-19 15:25:06.900,-0.01,-0.105
2021-08-19 15:25:06.904,0.04,-0.175
2021-08-19 15:25:06.908,0.12,-0.25
2021-08-19 15:25:06.912,0.165,-0.395
2021-08-19 15:25:06.916,0.215,-0.485
2021-08-19 15:25:06.920,0.21,-0.64
2021-08-19 15:25:06.924,0.23,-0.845
2021-08-19 15:25:06.928,0.285,-1.07
2021-08-19 15:25:06.932,0.45,-1.31
2021-08-19 15:25:06.936,0.745,-1.595
2021-08-19 15:25:06.940,1.05,-1.845
2021-08-19 15:25:06.944,1.12,-1.995
2021-08-19 15:25:06.948,0.91,-2.0
2021-08-19 15:25:06.952,0.44,-1.745
2021-08-19 15:25:06.956,-0.055,-1.325
2021-08-19 15:25:06.960,-0.355,-0.915
2021-08-19 15:25:06.964,-0.505,-0.675
2021-08-19 15:25:06.968,-0.55,-0.52
2021-08-19 15:25:06.972,-0.54,-0.35
2021-08-19 15:25:06.976,-0.56,-0.215
2021-08-19 15:25:06.980,-0.56,-0.09
2021-08-19 15:25:06.984,-0.565,-0.01
2021-08-19 15:25:06.988,-0.56,0.025
2021-08-19 15:25:06.992,-0.575,0.09
2021-08-19 15:25:06.996,-0.58,0.145
2021-08-19 15:25:07.000,-0.59,0.145
2021-08-19 15:25:07.004,-0.6,0.16
2021-08-19 15:25:07.008,-0.59,0.135
2021-08-19 15:25:07.012,-0.6,0.11
2021-08-19 15:25:07.016,-0.59,0.095
2021-08-19 15:25:07.020,-0.56,0.095
2021-08-19 15:25:07.024,-0.58,0.11
2021-08-19 15:25:07.028,-0.58,0.11
2021-08-19 15:25:07.032,-0.57,0.13
2021-08-19 15:25:07.036,-0.58,0.135
2021-08-19 15:25:07.040,-0.575,0.155
2021-08-19 15:25:07.044,-0.56,0.21
2021-08-19 15:25:07.048,-0.57,0.195
2021-08-19 15:25:07.052,-0.57,0.18
2021-08-19 15:25:07.056,-0.58,0.16
2021-08-19 15:25:07.060,-0.565,0.145
2021-08-19 15:25:07.064,-0.58,0.17
2021-08-19 15:25:07.068,-0.56,0.165
2021-08-19 15:25:07.072,-0.565,0.155
2021-08-19 15:25:07.076,-0.58,0.175
2021-08-19 15:25:07.080,-0.57,0.22
2021-08-19 15:25:07.084,-0.58,0.235
2021-08-19 15:25:07.088,-0.57,0.245
2021-08-19 15:25:07.092,-0.53,0.245
2021-08-19 15:25:07.096,-0.52,0.265
2021-08-19 15:25:07.100,-0.515,0.235
2021-08-19 15:25:07.104,-0.5,0.2
2021-08-19 15:25:07.108,-0.48,0.205
2021-08-19 15:25:07.112,-0.475,0.2
2021-08-19 15:25:07.116,-0.515,0.205
2021-08-19 15:25:07.120,-0.51,0.215
2021-08-19 15:25:07.124,-0.48,0.255
2021-08-19 15:25:07.128,-0.48,0.24
2021-08-19 15:25:07.132,-0.47,0.23
2021-08-19 15:25:07.136,-0.46,0.235
2021-08-19 15:25:07.140,-0.48,0.205
2021-08-19 15:25:07.144,-0.475,0.185
2021-08-19 15:25:07.148,-0.42,0.195
2021-08-19 15:25:07.152,-0.385,0.195
2021-08-19 15:25:07.156,-0.405,0.215
2021-08-19 15:25:07.160,-0.415,0.205
2021-08-19 15:25:07.164,-0.41,0.15
2021-08-19 15:25:07.168,-0.405,0.08
2021-08-19 15:25:07.172,-0.38,0.09
2021-08-19 15:25:07.176,-0.37,0.085
2021-08-19 15:25:07.180,-0.385,0.07
2021-08-19 15:25:07.184,-0.385,0.06
2021-08-19 15:25:07.188,-0.385,0.055
2021-08-19 15:25:07.192,-0.35,0.035
2021-08-19 15:25:07.196,-0.345,0.025
2021-08-19 15:25:07.200,-0.335,-0.01
2021-08-19 15:25:07.204,-0.33,0.0
2021-08-19 15:25:07.208,-0.315,0.02
2021-08-19 15:25:07.212,-0.33,0.02
2021-08-19 15:25:07.216,-0.32,-0.03
2021-08-19 15:25:07.220,-0.32,-0.04
2021-08-19 15:25:07.224,-0.315,-0.035
2021-08-19 15:25:07.228,-0.325,-0.035
2021-08-19 15:25:07.232,-0.32,-0.025
2021-08-19 15:25:07.236,-0.3,-0.005
2021-08-19 15:25:07.240,-0.25,-0.005
2021-08-19 15:25:07.244,-0.25,0.01
2021-08-19 15:25:07.248,-0.24,0.005
2021-08-19 15:25:07.252,-0.255,0.0
2021-08-19 15:25:07.256,-0.27,-0.045
2021-08-19 15:25:07.260,-0.255,-0.04
2021-08-19 15:25:07.264,-0.21,-0.045
2021-08-19 15:25:07.268,-0.2,-0.015
2021-08-19 15:25:07.272,-0.165,0.0
2021-08-19 15:25:07.276,-0.115,0.065
2021-08-19 15:25:07.280,-0.08,0.085
2021-08-19 15:25:07.284,-0.085,0.07
2021-08-19 15:25:07.288,-0.035,0.025
2021-08-19 15:25:07.292,-0.03,-0.01
2021-08-19 15:25:07.296,-0.005,0.0
2021-08-19 15:25:07.300,0.01,0.03
2021-08-19 15:25:07.304,0.035,0.03
2021-08-19 15:25:07.308,0.02,0.02
2021-08-19 15:25:07.312,-0.035,-0.02
2021-08-19 15:25:07.316,-0.08,-0.045
2021-08-19 15:25:07.320,-0.1,-0.055
2021-08-19 15:25:07.324,-0.155,-0.05
2021-08-19 15:25:07.328,-0.21,-0.015
2021-08-19 15:25:07.332,-0.26,-0.01
2021-08-19 15:25:07.336,-0.325,0.01
2021-08-19 15:25:07.340,-0.37,0.02
2021-08-19 15:25:07.344,-0.385,0.02
2021-08-19 15:25:07.348,-0.365,0.035
2021-08-19 15:25:07.352,-0.385,0.035
2021-08-19 15:25:07.356,-0.405,0.03
2021-08-19 15:25:07.360,-0.405,0.005
2021-08-19 15:25:07.364,-0.405,0.0
2021-08-19 15:25:07.368,-0.405,0.0
2021-08-19 15:25:07.372,-0.375,0.005
2021-08-19 15:25:07.376,-0.375,0.025
2021-08-19 15:25:07.380,-0.375,0.025
2021-08-19 15:25:07.384,-0.405,0.0
2021-08-19 15:25:07.388,-0.405,-0.045
2021-08-19 15:25:07.392,-0.4,-0.05
2021-08-19 15:25:07.396,-0.37,-0.04
2021-08-19 15:25:07.400,-0.39,-0.02
2021-08-19 15:25:07.404,-0.39,0.01
2021-08-19 15:25:07.408,-0.38,-0.01
2021-08-19 15:25:07.412,-0.38,-0.025
2021-08-19 15:25:07.416,-0.37,-0.03
2021-08-19 15:25:07.420,-0.355,-0.01
2021-08-19 15:25:07.424,-0.355,-0.05
2021-08-19 15:25:07.428,-0.335,-0.06
2021-08-19 15:25:07.432,-0.325,-0.055
2021-08-19 15:25:07.436,-0.335,-0.07
2021-08-19 15:25:07.440,-0.335,-0.055
2021-08-19 15:25:07.444,-0.33,-0.06
2021-08-19 15:25:07.448,-0.32,-0.075
2021-08-19 15:25:07.452,-0.33,-0.05
2021-08-19 15:25:07.456,-0.32,-0.045
2021-08-19 15:25:07.460,-0.305,-0.06
2021-08-19 15:25:07.464,-0.295,-0.05
2021-08-19 15:25:07.468,-0.255,-0.01
2021-08-19 15:25:07.472,-0.21,-0.015
2021-08-19 15:25:07.476,-0.13,-0.035
2021-08-19 15:25:07.480,-0.03,-0.07
2021-08-19 15:25:07.484,0.065,-0.105
2021-08-19 15:25:07.488,0.145,-0.145
2021-08-19 15:25:07.492,0.235,-0.21
2021-08-19 15:25:07.496,0.29,-0.28
2021-08-19 15:25:07.500,0.37,-0.365
2021-08-19 15:25:07.504,0.38,-0.51
2021-08-19 15:25:07.508,0.39,-0.68
2021-08-19 15:25:07.512,0.42,-0.9
2021-08-19 15:25:07.516,0.56,-1.16
2021-08-19 15:25:07.520,0.815,-1.415
2021-08-19 15:25:07.524,1.11,-1.69
2021-08-19 15:25:07.528,1.31,-1.875
2021-08-19 15:25:07.532,1.25,-1.955
2021-08-19 15:25:07.536,0.86,-1.845
2021-08-19 15:25:07.540,0.305,-1.51
2021-08-19 15:25:07.544,-0.105,-1.06
2021-08-19 15:25:07.548,-0.295,-0.745
2021-08-19 15:25:07.552,-0.36,-0.545
2021-08-19 15:25:07.556,-0.38,-0.355
2021-08-19 15:25:07.560,-0.37,-0.225
2021-08-19 15:25:07.564,-0.39,-0.085
2021-08-19 15:25:07.568,-0.405,-0.015
2021-08-19 15:25:07.572,-0.415,0.035
2021-08-19 15:25:07.576,-0.43,0.09
2021-08-19 15:25:07.580,-0.43,0.12
2021-08-19 15:25:07.584,-0.455,0.15
2021-08-19 15:25:07.588,-0.49,0.18
2021-08-19 15:25:07.592,-0.455,0.17
2021-08-19 15:25:07.596,-0.45,0.13
2021-08-19 15:25:07.600,-0.475,0.1
2021-08-19 15:25:07.604,-0.465,0.09
2021-08-19 15:25:07.608,-0.46,0.1
2021-08-19 15:25:07.612,-0.46,0.13
2021-08-19 15:25:07.616,-0.465,0.135
2021-08-19 15:25:07.620,-0.45,0.12
2021-08-19 15:25:07.624,-0.44,0.13
2021-08-19 15:25:07.628,-0.455,0.165
2021-08-19 15:25:07.632,-0.455,0.165
2021-08-19 15:25:07.636,-0.46,0.15
2021-08-19 15:25:07.640,-0.465,0.125
2021-08-19 15:25:07.644,-0.44,0.12
2021-08-19 15:25:07.648,-0.45,0.175
2021-08-19 15:25:07.652,-0.445,0.155
2021-08-19 15:25:07.656,-0.445,0.18
2021-08-19 15:25:07.660,-0.465,0.185
2021-08-19 15:25:07.664,-0.465,0.175
2021-08-19 15:25:07.668,-0.465,0.18
2021-08-19 15:25:07.672,-0.46,0.165
2021-08-19 15:25:07.676,-0.45,0.2
2021-08-19 15:25:07.680,-0.44,0.23
2021-08-19 15:25:07.684,-0.445,0.245
2021-08-19 15:25:07.688,-0.45,0.26
2021-08-19 15:25:07.692,-0.42,0.205
2021-08-19 15:25:07.696,-0.4,0.195
2021-08-19 15:25:07.700,-0.395,0.18
2021-08-19 15:25:07.704,-0.385,0.205
2021-08-19 15:25:07.708,-0.385,0.18
2021-08-19 15:25:07.712,-0.37,0.205
2021-08-19 15:25:07.716,-0.35,0.22
2021-08-19 15:25:07.720,-0.35,0.225
2021-08-19 15:25:07.724,-0.34,0.225
2021-08-19 15:25:07.728,-0.335,0.165
2021-08-19 15:25:07.732,-0.315,0.12
2021-08-19 15:25:07.736,-0.31,0.115
2021-08-19 15:25:07.740,-0.32,0.135
2021-08-19 15:25:07.744,-0.3,0.12
2021-08-19 15:25:07.748,-0.29,0.135
2021-08-19 15:25:07.752,-0.275,0.12
2021-08-19 15:25:07.756,-0.275,0.095
2021-08-19 15:25:07.760,-0.23,0.065
2021-08-19 15:25:07.764,-0.25,0.065
2021-08-19 15:25:07.768,-0.245,0.035
2021-08-19 15:25:07.772,-0.215,0.005
2021-08-19 15:25:07.776,-0.225,0.015
2021-08-19 15:25:07.780,-0.23,0.015
2021-08-19 15:25:07.784,-0.22,-0.01
2021-08-19 15:25:07.788,-0.21,0.0
2021-08-19 15:25:07.792,-0.2,-0.005
2021-08-19 15:25:07.796,-0.185,0.0
2021-08-19 15:25:07.800,-0.19,-0.005
2021-08-19 15:25:07.804,-0.195,-0.025
2021-08-19 15:25:07.808,-0.195,-0.03
2021-08-19 15:25:07.812,-0.18,-0.04
2021-08-19 15:25:07.816,-0.14,-0.02
2021-08-19 15:25:07.820,-0.13,-0.03
2021-08-19 15:25:07.824,-0.115,-0.045
2021-08-19 15:25:07.828,-0.11,-0.04
2021-08-19 15:25:07.832,-0.115,-0.04
2021-08-19 15:25:07.836,-0.105,-0.035
2021-08-19 15:25:07.840,-0.06,-0.025
2021-08-19 15:25:07.844,-0.035,-0.015
2021-08-19 15:25:07.848,0.015,0.01
2021-08-19 15:25:07.852,0.015,0.02
2021-08-19 15:25:07.856,0.035,0.0
2021-08-19 15:25:07.860,0.055,-0.02
2021-08-19 15:25:07.864,0.06,-0.01
2021-08-19 15:25:07.868,0.075,-0.01
2021-08-19 15:25:07.872,0.065,-0.01
2021-08-19 15:25:07.876,0.075,-0.02
2021-08-19 15:25:07.880,0.06,-0.03
2021-08-19 15:25:07.884,0.065,-0.035
2021-08-19 15:25:07.888,0.025,-0.065
2021-08-19 15:25:07.892,-0.01,-0.055
2021-08-19 15:25:07.896,-0.04,-0.06
2021-08-19 15:25:07.900,-0.085,-0.045
2021-08-19 15:25:07.904,-0.125,0.0
2021-08-19 15:25:07.908,-0.18,0.0
2021-08-19 15:25:07.912,-0.24,-0.03
2021-08-19 15:25:07.916,-0.27,-0.05
2021-08-19 15:25:07.920,-0.31,-0.02
2021-08-19 15:25:07.924,-0.315,0.02
2021-08-19 15:25:07.928,-0.32,0.015
2021-08-19 15:25:07.932,-0.285,0.02
2021-08-19 15:25:07.936,-0.29,-0.005
2021-08-19 15:25:07.940,-0.285,-0.02
2021-08-19 15:25:07.944,-0.295,-0.055
2021-08-19 15:25:07.948,-0.28,-0.035
2021-08-19 15:25:07.952,-0.285,-0.02
2021-08-19 15:25:07.956,-0.285,-0.02
2021-08-19 15:25:07.960,-0.29,-0.045
2021-08-19 15:25:07.964,-0.29,-0.045
2021-08-19 15:25:07.968,-0.295,-0.045
2021-08-19 15:25:07.972,-0.285,-0.055
2021-08-19 15:25:07.976,-0.28,-0.085
2021-08-19 15:25:07.980,-0.28,-0.07
2021-08-19 15:25:07.984,-0.285,-0.08
2021-08-19 15:25:07.988,-0.28,-0.045
2021-08-19 15:25:07.992,-0.295,-0.05
2021-08-19 15:25:07.996,-0.285,-0.05
2021-08-19 15:25:08.000,-0.305,-0.035
2021-08-19 15:25:08.004,-0.29,-0.04
2021-08-19 15:25:08.008,-0.275,-0.02
2021-08-19 15:25:08.012,-0.27,-0.045
2021-08-19 15:25:08.016,-0.27,-0.08
2021-08-19 15:25:08.020,-0.26,-0.11
2021-08-19 15:25:08.024,-0.265,-0.115
2021-08-19 15:25:08.028,-0.275,-0.11
2021-08-19 15:25:08.032,-0.26,-0.075
2021-08-19 15:25:08.036,-0.225,-0.07
2021-08-19 15:25:08.040,-0.205,-0.09
2021-08-19 15:25:08.044,-0.18,-0.075
2021-08-19 15:25:08.048,-0.125,-0.07
2021-08-19 15:25:08.052,-0.05,-0.07
2021-08-19 15:25:08.056,0.03,-0.11
2021-08-19 15:25:08.060,0.09,-0.135
2021-08-19 15:25:08.064,0.13,-0.205
2021-08-19 15:25:08.068,0.185,-0.285
2021-08-19 15:25:08.072,0.25,-0.36
2021-08-19 15:25:08.076,0.26,-0.475
2021-08-19 15:25:08.080,0.285,-0.615
2021-08-19 15:25:08.084,0.305,-0.79
2021-08-19 15:25:08.088,0.39,-1.03
2021-08-19 15:25:08.092,0.635,-1.28
2021-08-19 15:25:08.096,0.96,-1.555
2021-08-19 15:25:08.100,1.255,-1.805
2021-08-19 15:25:08.104,1.365,-1.975
2021-08-19 15:25:08.108,1.2,-1.98
2021-08-19 15:25:08.112,0.715,-1.8
2021-08-19 15:25:08.116,0.13,-1.385
2021-08-19 15:25:08.120,-0.195,-1.005
2021-08-19 15:25:08.124,-0.35,-0.72
2021-08-19 15:25:08.128,-0.42,-0.525
2021-08-19 15:25:08.132,-0.42,-0.36
2021-08-19 15:25:08.136,-0.425,-0.185
2021-08-19 15:25:08.140,-0.4,-0.08
2021-08-19 15:25:08.144,-0.4,-0.005
2021-08-19 15:25:08.148,-0.39,0.06
2021-08-19 15:25:08.152,-0.385,0.095
2021-08-19 15:25:08.156,-0.375,0.09
2021-08-19 15:25:08.160,-0.37,0.145
2021-08-19 15:25:08.164,-0.38,0.18
2021-08-19 15:25:08.168,-0.385,0.17
2021-08-19 15:25:08.172,-0.4,0.165
2021-08-19 15:25:08.176,-0.39,0.16
2021-08-19 15:25:08.180,-0.38,0.165
2021-08-19 15:25:08.184,-0.365,0.17
2021-08-19 15:25:08.188,-0.375,0.165
2021-08-19 15:25:08.192,-0.39,0.15
2021-08-19 15:25:08.196,-0.39,0.13
2021-08-19 15:25:08.200,-0.375,0.145
2021-08-19 15:25:08.204,-0.385,0.17
2021-08-19 15:25:08.208,-0.4,0.18
2021-08-19 15:25:08.212,-0.395,0.195
2021-08-19 15:25:08.216,-0.405,0.2
2021-08-19 15:25:08.220,-0.405,0.175
2021-08-19 15:25:08.224,-0.39,0.21
2021-08-19 15:25:08.228,-0.405,0.22
2021-08-19 15:25:08.232,-0.415,0.23
2021-08-19 15:25:08.236,-0.385,0.225
2021-08-19 15:25:08.240,-0.385,0.225
2021-08-19 15:25:08.244,-0.375,0.24
2021-08-19 15:25:08.248,-0.385,0.22
2021-08-19 15:25:08.252,-0.395,0.195
2021-08-19 15:25:08.256,-0.385,0.205
2021-08-19 15:25:08.260,-0.37,0.21
2021-08-19 15:25:08.264,-0.36,0.255
2021-08-19 15:25:08.268,-0.36,0.25
2021-08-19 15:25:08.272,-0.38,0.255
2021-08-19 15:25:08.276,-0.37,0.235
2021-08-19 15:25:08.280,-0.38,0.21
2021-08-19 15:25:08.284,-0.355,0.235
2021-08-19 15:25:08.288,-0.33,0.21
2021-08-19 15:25:08.292,-0.32,0.195
2021-08-19 15:25:08.296,-0.32,0.21
2021-08-19 15:25:08.300,-0.295,0.245
2021-08-19 15:25:08.304,-0.275,0.245
2021-08-19 15:25:08.308,-0.285,0.21
2021-08-19 15:25:08.312,-0.285,0.17
2021-08-19 15:25:08.316,-0.3,0.195
2021-08-19 15:25:08.320,-0.285,0.17
2021-08-19 15:25:08.324,-0.285,0.135
2021-08-19 15:25:08.328,-0.25,0.14
2021-08-19 15:25:08.332,-0.235,0.16
2021-08-19 15:25:08.336,-0.235,0.19
2021-08-19 15:25:08.340,-0.23,0.15
2021-08-19 15:25:08.344,-0.23,0.1
2021-08-19 15:25:08.348,-0.235,0.055
2021-08-19 15:25:08.352,-0.205,0.065
2021-08-19 15:25:08.356,-0.205,0.05
2021-08-19 15:25:08.360,-0.21,0.045
2021-08-19 15:25:08.364,-0.18,0.0
2021-08-19 15:25:08.368,-0.195,-0.025
2021-08-19 15:25:08.372,-0.19,-0.015
2021-08-19 15:25:08.376,-0.185,-0.005
2021-08-19 15:25:08.380,-0.17,-0.01
2021-08-19 15:25:08.384,-0.17,0.01
2021-08-19 15:25:08.388,-0.17,0.0
2021-08-19 15:25:08.392,-0.18,0.0
2021-08-19 15:25:08.396,-0.18,0.02
2021-08-19 15:25:08.400,-0.18,0.02
2021-08-19 15:25:08.404,-0.165,0.025
2021-08-19 15:25:08.408,-0.18,0.005
2021-08-19 15:25:08.412,-0.175,-0.015
2021-08-19 15:25:08.416,-0.16,-0.005
2021-08-19 15:25:08.420,-0.18,0.015
2021-08-19 15:25:08.424,-0.19,0.02
2021-08-19 15:25:08.428,-0.175,0.03
2021-08-19 15:25:08.432,-0.17,-0.015
2021-08-19 15:25:08.436,-0.16,-0.035
2021-08-19 15:25:08.440,-0.155,-0.025
2021-08-19 15:25:08.444,-0.15,-0.005
2021-08-19 15:25:08.448,-0.145,0.015
2021-08-19 15:25:08.452,-0.14,0.005
2021-08-19 15:25:08.456,-0.15,0.01
2021-08-19 15:25:08.460,-0.145,0.005
2021-08-19 15:25:08.464,-0.105,0.06
2021-08-19 15:25:08.468,-0.06,0.065
2021-08-19 15:25:08.472,-0.02,0.065
2021-08-19 15:25:08.476,0.01,0.025
2021-08-19 15:25:08.480,0.03,0.01
2021-08-19 15:25:08.484,0.04,0.02
2021-08-19 15:25:08.488,0.075,-0.005
2021-08-19 15:25:08.492,0.075,0.02
2021-08-19 15:25:08.496,0.095,0.025
2021-08-19 15:25:08.500,0.09,0.01
2021-08-19 15:25:08.504,0.07,-0.045
2021-08-19 15:25:08.508,0.015,-0.115
2021-08-19 15:25:08.512,-0.025,-0.15
2021-08-19 15:25:08.516,-0.055,-0.13
2021-08-19 15:25:08.520,-0.12,-0.095
2021-08-19 15:25:08.524,-0.155,-0.06
2021-08-19 15:25:08.528,-0.205,-0.04
2021-08-19 15:25:08.532,-0.245,0.0
2021-08-19 15:25:08.536,-0.3,0.015
2021-08-19 15:25:08.540,-0.315,0.025
2021-08-19 15:25:08.544,-0.32,0.04
2021-08-19 15:25:08.548,-0.32,0.03
2021-08-19 15:25:08.552,-0.32,0.005
2021-08-19 15:25:08.556,-0.325,0.0
2021-08-19 15:25:08.560,-0.31,-0.015
2021-08-19 15:25:08.564,-0.315,-0.025
2021-08-19 15:25:08.568,-0.305,-0.015
2021-08-19 15:25:08.572,-0.315,-0.04
2021-08-19 15:25:08.576,-0.305,-0.05
2021-08-19 15:25:08.580,-0.315,-0.05
2021-08-19 15:25:08.584,-0.305,-0.065
2021-08-19 15:25:08.588,-0.305,-0.06
2021-08-19 15:25:08.592,-0.325,-0.05
2021-08-19 15:25:08.596,-0.31,-0.035
2021-08-19 15:25:08.600,-0.31,-0.045
2021-08-19 15:25:08.604,-0.32,-0.045
2021-08-19 15:25:08.608,-0.305,-0.07
2021-08-19 15:25:08.612,-0.32,-0.03
2021-08-19 15:25:08.616,-0.325,-0.035
2021-08-19 15:25:08.620,-0.31,-0.06
2021-08-19 15:25:08.624,-0.315,-0.09
2021-08-19 15:25:08.628,-0.315,-0.1
2021-08-19 15:25:08.632,-0.31,-0.11
2021-08-19 15:25:08.636,-0.31,-0.105
2021-08-19 15:25:08.640,-0.325,-0.105
2021-08-19 15:25:08.644,-0.3,-0.095
2021-08-19 15:25:08.648,-0.27,-0.085
2021-08-19 15:25:08.652,-0.27,-0.055
2021-08-19 15:25:08.656,-0.24,-0.08
2021-08-19 15:25:08.660,-0.195,-0.1
2021-08-19 15:25:08.664,-0.125,-0.125
2021-08-19 15:25:08.668,-0.05,-0.12
2021-08-19 15:25:08.672,0.0,-0.135
2021-08-19 15:25:08.676,0.07,-0.16
2021-08-19 15:25:08.680,0.135,-0.24
2021-08-19 15:25:08.684,0.175,-0.32
2021-08-19 15:25:08.688,0.235,-0.44
2021-08-19 15:25:08.692,0.255,-0.565
2021-08-19 15:25:08.696,0.27,-0.74
2021-08-19 15:25:08.700,0.3,-1.01
2021-08-19 15:25:08.704,0.45,-1.255
2021-08-19 15:25:08.708,0.74,-1.525
2021-08-19 15:25:08.712,1.065,-1.76
2021-08-19 15:25:08.716,1.28,-1.98
2021-08-19 15:25:08.724,0.86,-1.97
2021-08-19 15:25:08.728,0.3,-1.64
2021-08-19 15:25:08.732,-0.125,-1.205
2021-08-19 15:25:08.736,-0.37,-0.87
2021-08-19 15:25:08.740,-0.455,-0.615
2021-08-19 15:25:08.744,-0.48,-0.43
2021-08-19 15:25:08.748,-0.48,-0.25
2021-08-19 15:25:08.752,-0.475,-0.12
2021-08-19 15:25:08.756,-0.47,-0.05
2021-08-19 15:25:08.760,-0.475,0.0
2021-08-19 15:25:08.764,-0.46,0.05
2021-08-19 15:25:08.768,-0.475,0.085
2021-08-19 15:25:08.772,-0.465,0.105
2021-08-19 15:25:08.776,-0.465,0.095
2021-08-19 15:25:08.780,-0.495,0.095
2021-08-19 15:25:08.784,-0.465,0.09
2021-08-19 15:25:08.788,-0.47,0.105
2021-08-19 15:25:08.792,-0.45,0.15
2021-08-19 15:25:08.796,-0.475,0.155
2021-08-19 15:25:08.800,-0.465,0.175
2021-08-19 15:25:08.804,-0.48,0.165
2021-08-19 15:25:08.808,-0.5,0.135
2021-08-19 15:25:08.812,-0.49,0.115
2021-08-19 15:25:08.816,-0.485,0.11
2021-08-19 15:25:08.820,-0.46,0.13
2021-08-19 15:25:08.824,-0.465,0.13
2021-08-19 15:25:08.828,-0.455,0.145
2021-08-19 15:25:08.832,-0.475,0.15
2021-08-19 15:25:08.836,-0.475,0.155
2021-08-19 15:25:08.840,-0.46,0.155
2021-08-19 15:25:08.844,-0.45,0.17
2021-08-19 15:25:08.848,-0.46,0.145
2021-08-19 15:25:08.852,-0.48,0.14
2021-08-19 15:25:08.856,-0.48,0.135
2021-08-19 15:25:08.860,-0.49,0.145
2021-08-19 15:25:08.864,-0.475,0.18
2021-08-19 15:25:08.868,-0.465,0.22
2021-08-19 15:25:08.872,-0.45,0.23
2021-08-19 15:25:08.876,-0.46,0.21
2021-08-19 15:25:08.880,-0.46,0.175
2021-08-19 15:25:08.884,-0.47,0.16
2021-08-19 15:25:08.888,-0.455,0.175
2021-08-19 15:25:08.892,-0.445,0.21
2021-08-19 15:25:08.896,-0.43,0.23
2021-08-19 15:25:08.900,-0.405,0.24
2021-08-19 15:25:08.904,-0.385,0.205
2021-08-19 15:25:08.908,-0.375,0.175
2021-08-19 15:25:08.912,-0.39,0.175
2021-08-19 15:25:08.916,-0.365,0.155
2021-08-19 15:25:08.920,-0.375,0.18
2021-08-19 15:25:08.924,-0.365,0.19
2021-08-19 15:25:08.928,-0.355,0.165
2021-08-19 15:25:08.932,-0.35,0.13
2021-08-19 15:25:08.936,-0.33,0.115
2021-08-19 15:25:08.940,-0.34,0.105
2021-08-19 15:25:08.944,-0.34,0.08
2021-08-19 15:25:08.948,-0.32,0.045
2021-08-19 15:25:08.952,-0.33,0.045
2021-08-19 15:25:08.956,-0.32,0.045
2021-08-19 15:25:08.960,-0.32,0.035
2021-08-19 15:25:08.964,-0.315,0.055
2021-08-19 15:25:08.968,-0.28,0.05
2021-08-19 15:25:08.972,-0.29,0.035
2021-08-19 15:25:08.976,-0.265,0.015
2021-08-19 15:25:08.980,-0.27,0.01
2021-08-19 15:25:08.984,-0.265,-0.025
2021-08-19 15:25:08.988,-0.27,-0.045
2021-08-19 15:25:08.992,-0.265,-0.08
2021-08-19 15:25:08.996,-0.265,-0.04
2021-08-19 15:25:09.000,-0.25,-0.065
2021-08-19 15:25:09.004,-0.265,-0.045
2021-08-19 15:25:09.008,-0.265,-0.055
2021-08-19 15:25:09.012,-0.26,-0.05
2021-08-19 15:25:09.016,-0.24,-0.03
2021-08-19 15:25:09.020,-0.23,-0.025
2021-08-19 15:25:09.024,-0.23,-0.04
2021-08-19 15:25:09.028,-0.25,-0.055
2021-08-19 15:25:09.032,-0.235,-0.085
2021-08-19 15:25:09.036,-0.24,-0.07
2021-08-19 15:25:09.040,-0.23,-0.07
2021-08-19 15:25:09.044,-0.24,-0.05
2021-08-19 15:25:09.048,-0.225,-0.05
2021-08-19 15:25:09.052,-0.22,-0.04
2021-08-19 15:25:09.056,-0.22,-0.03
2021-08-19 15:25:09.060,-0.215,-0.045
2021-08-19 15:25:09.064,-0.225,-0.01
2021-08-19 15:25:09.068,-0.215,0.005
2021-08-19 15:25:09.072,-0.215,0.04
2021-08-19 15:25:09.076,-0.195,0.05
2021-08-19 15:25:09.080,-0.16,0.07
2021-08-19 15:25:09.084,-0.13,0.075
2021-08-19 15:25:09.088,-0.1,0.025
2021-08-19 15:25:09.092,-0.06,-0.005
2021-08-19 15:25:09.096,-0.035,0.0
2021-08-19 15:25:09.100,-0.02,0.0
2021-08-19 15:25:09.104,0.0,0.03
2021-08-19 15:25:09.108,0.035,0.035
2021-08-19 15:25:09.112,0.055,0.035
2021-08-19 15:25:09.116,0.065,0.02
2021-08-19 15:25:09.120,0.035,-0.005
2021-08-19 15:25:09.124,0.01,-0.04
2021-08-19 15:25:09.128,-0.05,-0.11
2021-08-19 15:25:09.132,-0.08,-0.135
2021-08-19 15:25:09.136,-0.125,-0.13
2021-08-19 15:25:09.140,-0.195,-0.1
2021-08-19 15:25:09.144,-0.23,-0.11
2021-08-19 15:25:09.148,-0.285,-0.07
2021-08-19 15:25:09.152,-0.33,-0.045
2021-08-19 15:25:09.156,-0.375,0.005
2021-08-19 15:25:09.160,-0.395,0.025
2021-08-19 15:25:09.164,-0.38,0.01
2021-08-19 15:25:09.168,-0.37,0.01
2021-08-19 15:25:09.172,-0.375,0.01
2021-08-19 15:25:09.176,-0.365,0.01
2021-08-19 15:25:09.180,-0.37,-0.04
2021-08-19 15:25:09.184,-0.385,-0.025
2021-08-19 15:25:09.188,-0.37,-0.04
2021-08-19 15:25:09.192,-0.375,-0.045
2021-08-19 15:25:09.196,-0.395,-0.045
2021-08-19 15:25:09.200,-0.38,-0.045
2021-08-19 15:25:09.204,-0.375,-0.02
2021-08-19 15:25:09.208,-0.365,0.0
2021-08-19 15:25:09.212,-0.345,0.005
2021-08-19 15:25:09.216,-0.32,-0.02
2021-08-19 15:25:09.220,-0.325,-0.05
2021-08-19 15:25:09.224,-0.34,-0.05
2021-08-19 15:25:09.228,-0.365,-0.08
2021-08-19 15:25:09.232,-0.355,-0.065
2021-08-19 15:25:09.236,-0.36,-0.075
2021-08-19 15:25:09.240,-0.345,-0.095
2021-08-19 15:25:09.244,-0.365,-0.07
2021-08-19 15:25:09.248,-0.335,-0.08
2021-08-19 15:25:09.252,-0.33,-0.07
2021-08-19 15:25:09.256,-0.355,-0.08
2021-08-19 15:25:09.260,-0.365,-0.06
2021-08-19 15:25:09.264,-0.35,-0.055
2021-08-19 15:25:09.268,-0.33,-0.055
2021-08-19 15:25:09.272,-0.305,-0.05
2021-08-19 15:25:09.276,-0.275,-0.075
2021-08-19 15:25:09.280,-0.21,-0.105
2021-08-19 15:25:09.284,-0.15,-0.11
2021-08-19 15:25:09.288,-0.055,-0.105
2021-08-19 15:25:09.292,0.025,-0.125
2021-08-19 15:25:09.296,0.095,-0.16
2021-08-19 15:25:09.300,0.16,-0.26
2021-08-19 15:25:09.304,0.225,-0.34
2021-08-19 15:25:09.308,0.26,-0.475
2021-08-19 15:25:09.312,0.285,-0.655
2021-08-19 15:25:09.316,0.285,-0.83
2021-08-19 15:25:09.320,0.335,-1.065
2021-08-19 15:25:09.324,0.5,-1.335
2021-08-19 15:25:09.328,0.79,-1.58
2021-08-19 15:25:09.332,1.1,-1.835
2021-08-19 15:25:09.344,0.495,-1.88
2021-08-19 15:25:09.348,-0.015,-1.505
2021-08-19 15:25:09.352,-0.28,-1.03
2021-08-19 15:25:09.356,-0.41,-0.75
2021-08-19 15:25:09.360,-0.455,-0.53
2021-08-19 15:25:09.364,-0.48,-0.335
2021-08-19 15:25:09.368,-0.465,-0.195
2021-08-19 15:25:09.372,-0.495,-0.08
2021-08-19 15:25:09.376,-0.515,-0.005
2021-08-19 15:25:09.380,-0.495,0.04
2021-08-19 15:25:09.384,-0.51,0.08
2021-08-19 15:25:09.388,-0.485,0.09
2021-08-19 15:25:09.392,-0.495,0.095
2021-08-19 15:25:09.396,-0.505,0.105
2021-08-19 15:25:09.400,-0.505,0.135
2021-08-19 15:25:09.404,-0.52,0.125
2021-08-19 15:25:09.408,-0.51,0.14
2021-08-19 15:25:09.412,-0.495,0.15
2021-08-19 15:25:09.416,-0.52,0.16
2021-08-19 15:25:09.420,-0.52,0.155
2021-08-19 15:25:09.424,-0.505,0.1
2021-08-19 15:25:09.428,-0.5,0.125
2021-08-19 15:25:09.432,-0.495,0.14
2021-08-19 15:25:09.436,-0.51,0.14
2021-08-19 15:25:09.440,-0.515,0.135
2021-08-19 15:25:09.444,-0.525,0.15
2021-08-19 15:25:09.448,-0.515,0.12
2021-08-19 15:25:09.452,-0.505,0.115
2021-08-19 15:25:09.456,-0.51,0.135
2021-08-19 15:25:09.460,-0.49,0.165
2021-08-19 15:25:09.464,-0.495,0.135
2021-08-19 15:25:09.468,-0.48,0.125
2021-08-19 15:25:09.472,-0.475,0.15
2021-08-19 15:25:09.476,-0.5,0.175
2021-08-19 15:25:09.480,-0.5,0.205
2021-08-19 15:25:09.484,-0.5,0.18
2021-08-19 15:25:09.488,-0.5,0.155
2021-08-19 15:25:09.492,-0.5,0.175
2021-08-19 15:25:09.496,-0.48,0.185
2021-08-19 15:25:09.500,-0.48,0.23
2021-08-19 15:25:09.504,-0.46,0.23
2021-08-19 15:25:09.508,-0.445,0.22
2021-08-19 15:25:09.512,-0.44,0.18
2021-08-19 15:25:09.516,-0.435,0.16
2021-08-19 15:25:09.520,-0.435,0.175
2021-08-19 15:25:09.524,-0.415,0.18
2021-08-19 15:25:09.528,-0.4,0.19
2021-08-19 15:25:09.532,-0.39,0.175
2021-08-19 15:25:09.536,-0.4,0.17
2021-08-19 15:25:09.540,-0.385,0.155
2021-08-19 15:25:09.544,-0.405,0.14
2021-08-19 15:25:09.548,-0.4,0.145
2021-08-19 15:25:09.552,-0.39,0.14
2021-08-19 15:25:09.556,-0.37,0.125
2021-08-19 15:25:09.560,-0.355,0.11
2021-08-19 15:25:09.564,-0.33,0.095
2021-08-19 15:25:09.568,-0.32,0.075
2021-08-19 15:25:09.572,-0.325,0.065
2021-08-19 15:25:09.576,-0.32,0.055
2021-08-19 15:25:09.580,-0.31,0.015
2021-08-19 15:25:09.584,-0.315,0.005
2021-08-19 15:25:09.588,-0.32,-0.01
2021-08-19 15:25:09.592,-0.31,-0.03
2021-08-19 15:25:09.596,-0.295,-0.03
2021-08-19 15:25:09.600,-0.305,-0.06
2021-08-19 15:25:09.604,-0.305,-0.065
2021-08-19 15:25:09.608,-0.295,-0.075
2021-08-19 15:25:09.612,-0.295,-0.045
2021-08-19 15:25:09.616,-0.285,-0.065
2021-08-19 15:25:09.620,-0.29,-0.06
2021-08-19 15:25:09.624,-0.255,-0.065
2021-08-19 15:25:09.628,-0.265,-0.09
2021-08-19 15:25:09.632,-0.275,-0.095
2021-08-19 15:25:09.636,-0.285,-0.08
2021-08-19 15:25:09.640,-0.25,-0.08
2021-08-19 15:25:09.644,-0.26,-0.065
2021-08-19 15:25:09.648,-0.23,-0.07
2021-08-19 15:25:09.652,-0.26,-0.06
2021-08-19 15:25:09.656,-0.23,-0.035
2021-08-19 15:25:09.660,-0.205,-0.03
2021-08-19 15:25:09.664,-0.205,-0.05
2021-08-19 15:25:09.668,-0.22,-0.055
2021-08-19 15:25:09.672,-0.2,-0.06
2021-08-19 15:25:09.676,-0.225,-0.07
2021-08-19 15:25:09.680,-0.225,-0.025
2021-08-19 15:25:09.684,-0.19,0.01
2021-08-19 15:25:09.688,-0.16,0.005
2021-08-19 15:25:09.692,-0.125,0.03
2021-08-19 15:25:09.696,-0.095,0.015
2021-08-19 15:25:09.700,-0.07,0.005
2021-08-19 15:25:09.704,-0.04,-0.015
2021-08-19 15:25:09.708,-0.02,-0.03
2021-08-19 15:25:09.712,0.015,-0.03
2021-08-19 15:25:09.716,0.035,-0.015
2021-08-19 15:25:09.720,0.04,-0.03
2021-08-19 15:25:09.724,0.015,-0.06
2021-08-19 15:25:09.728,0.0,-0.07
2021-08-19 15:25:09.732,-0.035,-0.135
2021-08-19 15:25:09.736,-0.085,-0.135
2021-08-19 15:25:09.740,-0.125,-0.12
2021-08-19 15:25:09.744,-0.18,-0.125
2021-08-19 15:25:09.748,-0.23,-0.11
2021-08-19 15:25:09.752,-0.255,-0.09
2021-08-19 15:25:09.756,-0.325,-0.065
2021-08-19 15:25:09.760,-0.34,-0.04
2021-08-19 15:25:09.764,-0.355,-0.04
2021-08-19 15:25:09.768,-0.39,-0.04
2021-08-19 15:25:09.772,-0.395,-0.07
2021-08-19 15:25:09.776,-0.38,-0.06
2021-08-19 15:25:09.780,-0.38,-0.035
2021-08-19 15:25:09.784,-0.375,-0.03
2021-08-19 15:25:09.788,-0.37,-0.06
2021-08-19 15:25:09.792,-0.39,-0.045
2021-08-19 15:25:09.796,-0.38,-0.05
2021-08-19 15:25:09.800,-0.38,-0.08
2021-08-19 15:25:09.804,-0.385,-0.085
2021-08-19 15:25:09.808,-0.38,-0.09
2021-08-19 15:25:09.812,-0.385,-0.09
2021-08-19 15:25:09.816,-0.355,-0.08
2021-08-19 15:25:09.820,-0.345,-0.085
2021-08-19 15:25:09.824,-0.365,-0.095
2021-08-19 15:25:09.828,-0.355,-0.1
2021-08-19 15:25:09.832,-0.36,-0.09
2021-08-19 15:25:09.836,-0.35,-0.12
2021-08-19 15:25:09.840,-0.36,-0.09
2021-08-19 15:25:09.844,-0.365,-0.085
2021-08-19 15:25:09.848,-0.37,-0.065
2021-08-19 15:25:09.852,-0.345,-0.07
2021-08-19 15:25:09.856,-0.355,-0.085
2021-08-19 15:25:09.860,-0.34,-0.115
2021-08-19 15:25:09.864,-0.35,-0.09
2021-08-19 15:25:09.868,-0.33,-0.12
2021-08-19 15:25:09.872,-0.345,-0.09
2021-08-19 15:25:09.876,-0.305,-0.065
2021-08-19 15:25:09.880,-0.275,-0.075
2021-08-19 15:25:09.884,-0.21,-0.085
2021-08-19 15:25:09.888,-0.155,-0.095
2021-08-19 15:25:09.892,-0.07,-0.115
2021-08-19 15:25:09.896,0.01,-0.165
2021-08-19 15:25:09.900,0.1,-0.215
2021-08-19 15:25:09.904,0.18,-0.295
2021-08-19 15:25:09.908,0.245,-0.365
2021-08-19 15:25:09.912,0.315,-0.45
2021-08-19 15:25:09.916,0.325,-0.57
2021-08-19 15:25:09.920,0.345,-0.725
2021-08-19 15:25:09.924,0.365,-0.94
2021-08-19 15:25:09.928,0.49,-1.22
2021-08-19 15:25:09.932,0.78,-1.485
2021-08-19 15:25:09.936,1.1,-1.7
2021-08-19 15:25:09.940,1.29,-1.88
2021-08-19 15:25:09.944,1.19,-1.98
2021-08-19 15:25:09.948,0.815,-1.875
2021-08-19 15:25:09.952,0.29,-1.53
2021-08-19 15:25:09.956,-0.1,-1.075
2021-08-19 15:25:09.960,-0.29,-0.77
2021-08-19 15:25:09.964,-0.35,-0.585
2021-08-19 15:25:09.968,-0.39,-0.445
2021-08-19 15:25:09.972,-0.39,-0.28
2021-08-19 15:25:09.976,-0.4,-0.16
2021-08-19 15:25:09.980,-0.415,-0.075
2021-08-19 15:25:09.984,-0.415,0.04
2021-08-19 15:25:09.988,-0.42,0.075
2021-08-19 15:25:09.992,-0.42,0.09
2021-08-19 15:25:09.996,-0.425,0.11
2021-08-19 15:25:10.000,-0.43,0.115
2021-08-19 15:25:10.004,-0.46,0.115
2021-08-19 15:25:10.008,-0.46,0.1
2021-08-19 15:25:10.012,-0.46,0.095
2021-08-19 15:25:10.016,-0.46,0.085
2021-08-19 15:25:10.020,-0.46,0.09
2021-08-19 15:25:10.024,-0.46,0.085
2021-08-19 15:25:10.028,-0.44,0.1
2021-08-19 15:25:10.032,-0.43,0.14
2021-08-19 15:25:10.036,-0.425,0.15
2021-08-19 15:25:10.040,-0.445,0.13
2021-08-19 15:25:10.044,-0.435,0.095
2021-08-19 15:25:10.048,-0.435,0.07
2021-08-19 15:25:10.052,-0.44,0.06
2021-08-19 15:25:10.056,-0.46,0.085
2021-08-19 15:25:10.060,-0.44,0.105
2021-08-19 15:25:10.064,-0.44,0.15
2021-08-19 15:25:10.068,-0.43,0.175
2021-08-19 15:25:10.072,-0.425,0.165
2021-08-19 15:25:10.076,-0.44,0.145
2021-08-19 15:25:10.080,-0.435,0.165
2021-08-19 15:25:10.084,-0.445,0.155
2021-08-19 15:25:10.088,-0.43,0.175
2021-08-19 15:25:10.092,-0.455,0.18
2021-08-19 15:25:10.096,-0.445,0.19
2021-08-19 15:25:10.100,-0.43,0.195
2021-08-19 15:25:10.104,-0.425,0.21
2021-08-19 15:25:10.108,-0.4,0.215
2021-08-19 15:25:10.112,-0.38,0.205
2021-08-19 15:25:10.116,-0.375,0.225
2021-08-19 15:25:10.120,-0.355,0.22
2021-08-19 15:25:10.124,-0.345,0.24
2021-08-19 15:25:10.128,-0.325,0.24
2021-08-19 15:25:10.132,-0.32,0.2
2021-08-19 15:25:10.136,-0.33,0.175
2021-08-19 15:25:10.140,-0.32,0.165
2021-08-19 15:25:10.144,-0.33,0.18
2021-08-19 15:25:10.148,-0.295,0.18
2021-08-19 15:25:10.152,-0.285,0.145
2021-08-19 15:25:10.156,-0.285,0.12
2021-08-19 15:25:10.160,-0.27,0.11
2021-08-19 15:25:10.164,-0.27,0.115
2021-08-19 15:25:10.168,-0.24,0.11
2021-08-19 15:25:10.172,-0.22,0.115
2021-08-19 15:25:10.176,-0.255,0.09
2021-08-19 15:25:10.180,-0.235,0.055
2021-08-19 15:25:10.184,-0.235,-0.005
2021-08-19 15:25:10.188,-0.21,-0.05
2021-08-19 15:25:10.192,-0.19,-0.025
2021-08-19 15:25:10.196,-0.18,-0.03
2021-08-19 15:25:10.200,-0.18,-0.01
2021-08-19 15:25:10.204,-0.205,0.0
2021-08-19 15:25:10.208,-0.185,0.0
2021-08-19 15:25:10.212,-0.17,-0.02
2021-08-19 15:25:10.216,-0.185,-0.04
2021-08-19 15:25:10.220,-0.18,-0.055
2021-08-19 15:25:10.224,-0.155,-0.06
2021-08-19 15:25:10.228,-0.15,-0.04
2021-08-19 15:25:10.232,-0.145,-0.04
2021-08-19 15:25:10.236,-0.125,-0.045
2021-08-19 15:25:10.240,-0.1,-0.04
2021-08-19 15:25:10.244,-0.13,-0.035
2021-08-19 15:25:10.248,-0.095,-0.03
2021-08-19 15:25:10.252,-0.09,-0.035
2021-08-19 15:25:10.256,-0.08,-0.045
2021-08-19 15:25:10.260,-0.03,-0.035
2021-08-19 15:25:10.264,-0.02,-0.01
2021-08-19 15:25:10.268,0.01,-0.005
2021-08-19 15:25:10.272,0.055,0.015
2021-08-19 15:25:10.276,0.065,0.0
2021-08-19 15:25:10.280,0.085,0.045
2021-08-19 15:25:10.284,0.105,0.035
2021-08-19 15:25:10.288,0.125,0.01
2021-08-19 15:25:10.292,0.115,0.02
2021-08-19 15:25:10.296,0.135,-0.02
2021-08-19 15:25:10.300,0.13,-0.055
2021-08-19 15:25:10.304,0.115,-0.115
2021-08-19 15:25:10.308,0.065,-0.125
2021-08-19 15:25:10.312,0.015,-0.15
2021-08-19 15:25:10.316,-0.045,-0.115
2021-08-19 15:25:10.320,-0.105,-0.06
2021-08-19 15:25:10.324,-0.155,-0.06
2021-08-19 15:25:10.328,-0.205,-0.04
2021-08-19 15:25:10.332,-0.25,0.0
2021-08-19 15:25:10.336,-0.27,0.0
2021-08-19 15:25:10.340,-0.285,0.0
2021-08-19 15:25:10.344,-0.285,0.015
2021-08-19 15:25:10.348,-0.275,0.015
2021-08-19 15:25:10.352,-0.275,-0.01
2021-08-19 15:25:10.356,-0.27,0.005
2021-08-19 15:25:10.360,-0.28,0.015
2021-08-19 15:25:10.364,-0.28,0.0
2021-08-19 15:25:10.368,-0.255,0.0
2021-08-19 15:25:10.372,-0.255,-0.01
2021-08-19 15:25:10.376,-0.235,-0.05
2021-08-19 15:25:10.380,-0.235,-0.045
2021-08-19 15:25:10.384,-0.255,-0.06
2021-08-19 15:25:10.388,-0.235,-0.055
2021-08-19 15:25:10.392,-0.26,-0.02
2021-08-19 15:25:10.396,-0.265,-0.04
2021-08-19 15:25:10.400,-0.265,-0.025
2021-08-19 15:25:10.404,-0.24,-0.03
2021-08-19 15:25:10.408,-0.245,-0.03
2021-08-19 15:25:10.412,-0.265,-0.065
2021-08-19 15:25:10.416,-0.255,-0.115
2021-08-19 15:25:10.420,-0.25,-0.075
2021-08-19 15:25:10.424,-0.24,-0.08
2021-08-19 15:25:10.428,-0.25,-0.08
2021-08-19 15:25:10.432,-0.235,-0.065
2021-08-19 15:25:10.436,-0.225,-0.07
2021-08-19 15:25:10.440,-0.23,-0.065
2021-08-19 15:25:10.444,-0.22,-0.08
2021-08-19 15:25:10.448,-0.24,-0.075
2021-08-19 15:25:10.452,-0.23,-0.07
2021-08-19 15:25:10.456,-0.185,-0.055
2021-08-19 15:25:10.460,-0.135,-0.045
2021-08-19 15:25:10.464,-0.055,-0.065
2021-08-19 15:25:10.468,0.025,-0.08
2021-08-19 15:25:10.472,0.085,-0.135
2021-08-19 15:25:10.476,0.135,-0.18
2021-08-19 15:25:10.480,0.21,-0.235
2021-08-19 15:25:10.484,0.26,-0.305
2021-08-19 15:25:10.488,0.28,-0.425
2021-08-19 15:25:10.492,0.28,-0.55
2021-08-19 15:25:10.496,0.31,-0.655
2021-08-19 15:25:10.500,0.345,-0.875
2021-08-19 15:25:10.504,0.49,-1.13
2021-08-19 15:25:10.508,0.75,-1.395
2021-08-19 15:25:10.512,1.07,-1.665
2021-08-19 15:25:10.516,1.32,-1.875
2021-08-19 15:25:10.520,1.365,-1.995
2021-08-19 15:25:10.524,1.085,-1.9
2021-08-19 15:25:10.528,0.535,-1.64
2021-08-19 15:25:10.532,0.02,-1.205
2021-08-19 15:25:10.536,-0.255,-0.83
2021-08-19 15:25:10.540,-0.375,-0.59
2021-08-19 15:25:10.544,-0.415,-0.44
2021-08-19 15:25:10.548,-0.41,-0.3
2021-08-19 15:25:10.552,-0.4,-0.16
2021-08-19 15:25:10.556,-0.415,-0.08
2021-08-19 15:25:10.560,-0.39,-0.015
2021-08-19 15:25:10.564,-0.41,0.025
2021-08-19 15:25:10.568,-0.385,0.045
2021-08-19 15:25:10.572,-0.405,0.115
2021-08-19 15:25:10.576,-0.39,0.13
2021-08-19 15:25:10.580,-0.385,0.12
2021-08-19 15:25:10.584,-0.375,0.09
2021-08-19 15:25:10.588,-0.37,0.105
2021-08-19 15:25:10.592,-0.395,0.105
2021-08-19 15:25:10.596,-0.385,0.1
2021-08-19 15:25:10.600,-0.395,0.1
2021-08-19 15:25:10.604,-0.39,0.08
2021-08-19 15:25:10.608,-0.41,0.12
2021-08-19 15:25:10.612,-0.425,0.115
2021-08-19 15:25:10.616,-0.425,0.14
2021-08-19 15:25:10.620,-0.4,0.125
2021-08-19 15:25:10.624,-0.425,0.125
2021-08-19 15:25:10.628,-0.4,0.17
2021-08-19 15:25:10.632,-0.4,0.16
2021-08-19 15:25:10.636,-0.43,0.15
2021-08-19 15:25:10.640,-0.415,0.12
2021-08-19 15:25:10.644,-0.415,0.09
2021-08-19 15:25:10.648,-0.43,0.1
2021-08-19 15:25:10.652,-0.42,0.135
2021-08-19 15:25:10.656,-0.42,0.17
2021-08-19 15:25:10.660,-0.435,0.175
2021-08-19 15:25:10.664,-0.435,0.165
2021-08-19 15:25:10.668,-0.425,0.17
2021-08-19 15:25:10.672,-0.42,0.185
2021-08-19 15:25:10.676,-0.415,0.205
2021-08-19 15:25:10.680,-0.415,0.205
2021-08-19 15:25:10.684,-0.4,0.19
2021-08-19 15:25:10.688,-0.4,0.19
2021-08-19 15:25:10.692,-0.405,0.195
2021-08-19 15:25:10.696,-0.39,0.17
2021-08-19 15:25:10.700,-0.38,0.185
2021-08-19 15:25:10.704,-0.385,0.2
2021-08-19 15:25:10.708,-0.33,0.155
2021-08-19 15:25:10.712,-0.33,0.145
2021-08-19 15:25:10.716,-0.315,0.165
2021-08-19 15:25:10.720,-0.325,0.155
2021-08-19 15:25:10.724,-0.305,0.17
2021-08-19 15:25:10.728,-0.31,0.175
2021-08-19 15:25:10.732,-0.29,0.15
2021-08-19 15:25:10.736,-0.29,0.115
2021-08-19 15:25:10.740,-0.285,0.095
2021-08-19 15:25:10.744,-0.285,0.07
2021-08-19 15:25:10.748,-0.285,0.03
2021-08-19 15:25:10.752,-0.29,0.015
2021-08-19 15:25:10.756,-0.275,0.025
2021-08-19 15:25:10.760,-0.265,0.01
2021-08-19 15:25:10.764,-0.245,0.0
2021-08-19 15:25:10.768,-0.24,-0.015
2021-08-19 15:25:10.772,-0.25,0.0
2021-08-19 15:25:10.776,-0.24,-0.005
2021-08-19 15:25:10.780,-0.22,0.015
2021-08-19 15:25:10.784,-0.2,-0.025
2021-08-19 15:25:10.788,-0.215,-0.055
2021-08-19 15:25:10.792,-0.23,-0.06
2021-08-19 15:25:10.796,-0.2,-0.05
2021-08-19 15:25:10.800,-0.195,-0.04
2021-08-19 15:25:10.804,-0.2,-0.05
2021-08-19 15:25:10.808,-0.2,-0.04
2021-08-19 15:25:10.812,-0.16,-0.055
2021-08-19 15:25:10.816,-0.16,-0.05
2021-08-19 15:25:10.820,-0.17,-0.065
2021-08-19 15:25:10.824,-0.13,-0.07
2021-08-19 15:25:10.828,-0.14,-0.065
2021-08-19 15:25:10.832,-0.105,-0.035
2021-08-19 15:25:10.836,-0.08,-0.005
2021-08-19 15:25:10.840,-0.03,0.005
2021-08-19 15:25:10.844,-0.02,0.04
2021-08-19 15:25:10.848,0.0,0.045
2021-08-19 15:25:10.852,0.01,0.015
2021-08-19 15:25:10.856,0.035,0.005
2021-08-19 15:25:10.860,0.045,-0.02
2021-08-19 15:25:10.864,0.045,0.0
2021-08-19 15:25:10.868,0.03,0.01
2021-08-19 15:25:10.872,0.035,-0.02
2021-08-19 15:25:10.876,-0.025,-0.06
2021-08-19 15:25:10.880,-0.065,-0.08
2021-08-19 15:25:10.884,-0.13,-0.085
2021-08-19 15:25:10.888,-0.165,-0.08
2021-08-19 15:25:10.892,-0.19,-0.08
2021-08-19 15:25:10.896,-0.255,-0.06
2021-08-19 15:25:10.900,-0.305,-0.035
2021-08-19 15:25:10.904,-0.345,0.0
2021-08-19 15:25:10.908,-0.375,0.005
2021-08-19 15:25:10.912,-0.37,0.01
2021-08-19 15:25:10.916,-0.385,0.025
2021-08-19 15:25:10.920,-0.4,0.01
2021-08-19 15:25:10.924,-0.37,-0.01
2021-08-19 15:25:10.928,-0.35,0.0
2021-08-19 15:25:10.932,-0.355,0.01
2021-08-19 15:25:10.936,-0.36,0.0
2021-08-19 15:25:10.940,-0.365,-0.01
2021-08-19 15:25:10.944,-0.345,-0.02
2021-08-19 15:25:10.948,-0.335,-0.03
2021-08-19 15:25:10.952,-0.335,-0.035
2021-08-19 15:25:10.956,-0.34,-0.02
2021-08-19 15:25:10.960,-0.36,-0.015
2021-08-19 15:25:10.964,-0.335,0.0
2021-08-19 15:25:10.968,-0.33,-0.005
2021-08-19 15:25:10.972,-0.33,-0.025
2021-08-19 15:25:10.976,-0.335,-0.04
2021-08-19 15:25:10.980,-0.325,-0.035
2021-08-19 15:25:10.984,-0.32,-0.05
2021-08-19 15:25:10.988,-0.34,-0.055
2021-08-19 15:25:10.992,-0.33,-0.08
2021-08-19 15:25:10.996,-0.34,-0.07
2021-08-19 15:25:11.000,-0.345,-0.05
2021-08-19 15:25:11.004,-0.335,-0.03
2021-08-19 15:25:11.008,-0.335,-0.01
2021-08-19 15:25:11.012,-0.32,-0.01
2021-08-19 15:25:11.016,-0.335,-0.03
2021-08-19 15:25:11.020,-0.33,-0.035
2021-08-19 15:25:11.024,-0.295,-0.075
2021-08-19 15:25:11.028,-0.265,-0.11
2021-08-19 15:25:11.032,-0.225,-0.105
2021-08-19 15:25:11.036,-0.165,-0.115
2021-08-19 15:25:11.040,-0.08,-0.115
2021-08-19 15:25:11.044,0.005,-0.105
2021-08-19 15:25:11.048,0.07,-0.135
2021-08-19 15:25:11.052,0.09,-0.195
2021-08-19 15:25:11.056,0.145,-0.305
2021-08-19 15:25:11.060,0.165,-0.4
2021-08-19 15:25:11.064,0.18,-0.51
2021-08-19 15:25:11.068,0.19,-0.68
2021-08-19 15:25:11.072,0.215,-0.92
2021-08-19 15:25:11.076,0.335,-1.16
2021-08-19 15:25:11.080,0.58,-1.44
2021-08-19 15:25:11.084,0.905,-1.685
2021-08-19 15:25:11.088,1.17,-1.895
2021-08-19 15:25:11.096,0.87,-1.965
2021-08-19 15:25:11.100,0.32,-1.635
2021-08-19 15:25:11.104,-0.135,-1.205
2021-08-19 15:25:11.108,-0.375,-0.84
2021-08-19 15:25:11.112,-0.47,-0.585
2021-08-19 15:25:11.116,-0.505,-0.4
2021-08-19 15:25:11.120,-0.485,-0.25
2021-08-19 15:25:11.124,-0.48,-0.16
2021-08-19 15:25:11.128,-0.48,-0.085
2021-08-19 15:25:11.132,-0.475,-0.005
2021-08-19 15:25:11.136,-0.46,0.075
2021-08-19 15:25:11.140,-0.46,0.11
2021-08-19 15:25:11.144,-0.445,0.155
2021-08-19 15:25:11.148,-0.45,0.16
2021-08-19 15:25:11.152,-0.455,0.16
2021-08-19 15:25:11.156,-0.44,0.16
2021-08-19 15:25:11.160,-0.45,0.175
2021-08-19 15:25:11.164,-0.46,0.2
2021-08-19 15:25:11.168,-0.45,0.19
2021-08-19 15:25:11.172,-0.45,0.165
2021-08-19 15:25:11.176,-0.445,0.175
2021-08-19 15:25:11.180,-0.435,0.18
2021-08-19 15:25:11.184,-0.445,0.205
2021-08-19 15:25:11.188,-0.435,0.205
2021-08-19 15:25:11.192,-0.46,0.22
2021-08-19 15:25:11.196,-0.45,0.235
2021-08-19 15:25:11.200,-0.455,0.22
2021-08-19 15:25:11.204,-0.44,0.21
2021-08-19 15:25:11.208,-0.46,0.21
2021-08-19 15:25:11.212,-0.46,0.21
2021-08-19 15:25:11.216,-0.47,0.21
2021-08-19 15:25:11.220,-0.475,0.225
2021-08-19 15:25:11.224,-0.48,0.205
2021-08-19 15:25:11.228,-0.48,0.235
2021-08-19 15:25:11.232,-0.49,0.245
2021-08-19 15:25:11.236,-0.47,0.255
2021-08-19 15:25:11.240,-0.44,0.28
2021-08-19 15:25:11.244,-0.445,0.275
2021-08-19 15:25:11.248,-0.435,0.285
2021-08-19 15:25:11.252,-0.445,0.255
2021-08-19 15:25:11.256,-0.43,0.22
2021-08-19 15:25:11.260,-0.43,0.2
2021-08-19 15:25:11.264,-0.435,0.2
2021-08-19 15:25:11.268,-0.425,0.205
2021-08-19 15:25:11.272,-0.4,0.22
2021-08-19 15:25:11.276,-0.415,0.225
2021-08-19 15:25:11.280,-0.41,0.235
2021-08-19 15:25:11.284,-0.415,0.23
2021-08-19 15:25:11.288,-0.395,0.22
2021-08-19 15:25:11.292,-0.38,0.215
2021-08-19 15:25:11.296,-0.385,0.175
2021-08-19 15:25:11.300,-0.38,0.16
2021-08-19 15:25:11.304,-0.36,0.17
2021-08-19 15:25:11.308,-0.36,0.145
2021-08-19 15:25:11.312,-0.365,0.15
2021-08-19 15:25:11.316,-0.345,0.12
2021-08-19 15:25:11.320,-0.325,0.085
2021-08-19 15:25:11.324,-0.305,0.05
2021-08-19 15:25:11.328,-0.29,0.04
2021-08-19 15:25:11.332,-0.3,0.025
2021-08-19 15:25:11.336,-0.265,0.02
2021-08-19 15:25:11.340,-0.275,0.0
2021-08-19 15:25:11.344,-0.275,0.015
2021-08-19 15:25:11.348,-0.255,0.01
2021-08-19 15:25:11.352,-0.235,0.0
2021-08-19 15:25:11.356,-0.245,-0.025
2021-08-19 15:25:11.360,-0.235,-0.01
2021-08-19 15:25:11.364,-0.235,0.01
2021-08-19 15:25:11.368,-0.245,-0.005
2021-08-19 15:25:11.372,-0.195,0.015
2021-08-19 15:25:11.376,-0.175,-0.025
2021-08-19 15:25:11.380,-0.16,-0.01
2021-08-19 15:25:11.384,-0.175,0.01
2021-08-19 15:25:11.388,-0.175,0.015
2021-08-19 15:25:11.392,-0.15,0.035
2021-08-19 15:25:11.396,-0.13,0.005
2021-08-19 15:25:11.400,-0.11,-0.04
2021-08-19 15:25:11.404,-0.06,-0.03
2021-08-19 15:25:11.408,-0.04,-0.02
2021-08-19 15:25:11.412,-0.03,0.02
2021-08-19 15:25:11.416,0.0,0.045
2021-08-19 15:25:11.420,0.005,0.07
2021-08-19 15:25:11.424,0.02,0.035
2021-08-19 15:25:11.428,0.035,0.03
2021-08-19 15:25:11.432,0.035,0.045
2021-08-19 15:25:11.436,0.04,0.025
2021-08-19 15:25:11.440,0.015,-0.045
2021-08-19 15:25:11.444,-0.015,-0.105
2021-08-19 15:25:11.448,-0.05,-0.15
2021-08-19 15:25:11.452,-0.11,-0.16
2021-08-19 15:25:11.456,-0.15,-0.125
2021-08-19 15:25:11.460,-0.235,-0.105
2021-08-19 15:25:11.464,-0.305,-0.065
2021-08-19 15:25:11.468,-0.34,-0.04
2021-08-19 15:25:11.472,-0.39,-0.005
2021-08-19 15:25:11.476,-0.415,0.02
2021-08-19 15:25:11.480,-0.415,0.03
2021-08-19 15:25:11.484,-0.41,0.02
2021-08-19 15:25:11.488,-0.41,0.015
2021-08-19 15:25:11.492,-0.415,-0.01
2021-08-19 15:25:11.496,-0.39,0.0
2021-08-19 15:25:11.500,-0.405,0.0
2021-08-19 15:25:11.504,-0.405,-0.01
2021-08-19 15:25:11.508,-0.405,0.0
2021-08-19 15:25:11.512,-0.395,0.0
2021-08-19 15:25:11.516,-0.37,-0.01
2021-08-19 15:25:11.520,-0.36,-0.015
2021-08-19 15:25:11.524,-0.37,-0.025
2021-08-19 15:25:11.528,-0.39,-0.025
2021-08-19 15:25:11.532,-0.365,-0.02
2021-08-19 15:25:11.536,-0.38,-0.05
2021-08-19 15:25:11.540,-0.365,-0.065
2021-08-19 15:25:11.544,-0.35,-0.05
2021-08-19 15:25:11.548,-0.35,-0.04
2021-08-19 15:25:11.552,-0.335,-0.05
2021-08-19 15:25:11.556,-0.335,-0.025
2021-08-19 15:25:11.560,-0.315,0.005
2021-08-19 15:25:11.564,-0.33,0.015
2021-08-19 15:25:11.568,-0.33,0.0
2021-08-19 15:25:11.572,-0.34,-0.05
2021-08-19 15:25:11.576,-0.32,-0.09
2021-08-19 15:25:11.580,-0.31,-0.125
2021-08-19 15:25:11.584,-0.315,-0.085
2021-08-19 15:25:11.588,-0.315,-0.075
2021-08-19 15:25:11.592,-0.295,-0.07
2021-08-19 15:25:11.596,-0.29,-0.065
2021-08-19 15:25:11.600,-0.24,-0.07
2021-08-19 15:25:11.604,-0.2,-0.07
2021-08-19 15:25:11.608,-0.13,-0.08
2021-08-19 15:25:11.612,-0.05,-0.11
2021-08-19 15:25:11.616,0.005,-0.165
2021-08-19 15:25:11.620,0.075,-0.2
2021-08-19 15:25:11.624,0.13,-0.29
2021-08-19 15:25:11.628,0.165,-0.4
2021-08-19 15:25:11.632,0.19,-0.51
2021-08-19 15:25:11.636,0.185,-0.69
2021-08-19 15:25:11.640,0.205,-0.92
2021-08-19 15:25:11.644,0.29,-1.19
2021-08-19 15:25:11.648,0.52,-1.45
2021-08-19 15:25:11.652,0.81,-1.71
2021-08-19 15:25:11.656,1.09,-1.955
2021-08-19 15:25:11.668,0.405,-1.845
2021-08-19 15:25:11.672,-0.115,-1.415
2021-08-19 15:25:11.676,-0.39,-1.02
2021-08-19 15:25:11.680,-0.5,-0.77
2021-08-19 15:25:11.684,-0.52,-0.575
2021-08-19 15:25:11.688,-0.54,-0.36
2021-08-19 15:25:11.692,-0.545,-0.22
2021-08-19 15:25:11.696,-0.555,-0.17
2021-08-19 15:25:11.700,-0.56,-0.11
2021-08-19 15:25:11.704,-0.565,-0.03
2021-08-19 15:25:11.708,-0.56,0.03
2021-08-19 15:25:11.712,-0.55,0.065
2021-08-19 15:25:11.716,-0.54,0.09
2021-08-19 15:25:11.720,-0.56,0.12
2021-08-19 15:25:11.724,-0.56,0.1
2021-08-19 15:25:11.728,-0.56,0.09
2021-08-19 15:25:11.732,-0.57,0.09
2021-08-19 15:25:11.736,-0.54,0.1
2021-08-19 15:25:11.740,-0.535,0.1
2021-08-19 15:25:11.744,-0.52,0.105
2021-08-19 15:25:11.748,-0.515,0.13
2021-08-19 15:25:11.752,-0.54,0.165
2021-08-19 15:25:11.756,-0.565,0.135
2021-08-19 15:25:11.760,-0.56,0.185
2021-08-19 15:25:11.764,-0.54,0.155
2021-08-19 15:25:11.768,-0.56,0.17
2021-08-19 15:25:11.772,-0.545,0.18
2021-08-19 15:25:11.776,-0.52,0.175
2021-08-19 15:25:11.780,-0.505,0.18
2021-08-19 15:25:11.784,-0.53,0.19
2021-08-19 15:25:11.788,-0.545,0.22
2021-08-19 15:25:11.792,-0.53,0.18
2021-08-19 15:25:11.796,-0.53,0.17
2021-08-19 15:25:11.800,-0.545,0.175
2021-08-19 15:25:11.804,-0.545,0.175
2021-08-19 15:25:11.808,-0.54,0.175
2021-08-19 15:25:11.812,-0.525,0.165
2021-08-19 15:25:11.816,-0.52,0.155
2021-08-19 15:25:11.820,-0.52,0.19
2021-08-19 15:25:11.824,-0.49,0.185
2021-08-19 15:25:11.828,-0.495,0.19
2021-08-19 15:25:11.832,-0.49,0.185
2021-08-19 15:25:11.836,-0.515,0.2
2021-08-19 15:25:11.840,-0.515,0.2
2021-08-19 15:25:11.844,-0.495,0.19
2021-08-19 15:25:11.848,-0.475,0.165
2021-08-19 15:25:11.852,-0.46,0.165
2021-08-19 15:25:11.856,-0.435,0.13
2021-08-19 15:25:11.860,-0.455,0.155
2021-08-19 15:25:11.864,-0.455,0.14
2021-08-19 15:25:11.868,-0.47,0.13
2021-08-19 15:25:11.872,-0.45,0.13
2021-08-19 15:25:11.876,-0.45,0.125
2021-08-19 15:25:11.880,-0.43,0.09
2021-08-19 15:25:11.884,-0.435,0.035
2021-08-19 15:25:11.888,-0.435,0.02
2021-08-19 15:25:11.892,-0.425,0.0
2021-08-19 15:25:11.896,-0.4,-0.01
2021-08-19 15:25:11.900,-0.39,-0.015
2021-08-19 15:25:11.904,-0.375,-0.025
2021-08-19 15:25:11.908,-0.37,-0.015
2021-08-19 15:25:11.912,-0.365,-0.03
2021-08-19 15:25:11.916,-0.37,-0.04
2021-08-19 15:25:11.920,-0.365,-0.065
2021-08-19 15:25:11.924,-0.365,-0.065
2021-08-19 15:25:11.928,-0.345,-0.07
2021-08-19 15:25:11.932,-0.34,-0.05
2021-08-19 15:25:11.936,-0.32,-0.06
2021-08-19 15:25:11.940,-0.325,-0.03
2021-08-19 15:25:11.944,-0.29,-0.025
2021-08-19 15:25:11.948,-0.27,-0.035
2021-08-19 15:25:11.952,-0.26,-0.06
2021-08-19 15:25:11.956,-0.28,-0.105
2021-08-19 15:25:11.960,-0.27,-0.08
2021-08-19 15:25:11.964,-0.255,-0.085
2021-08-19 15:25:11.968,-0.225,-0.05
2021-08-19 15:25:11.972,-0.22,-0.015
2021-08-19 15:25:11.976,-0.185,0.0
2021-08-19 15:25:11.980,-0.15,0.01
2021-08-19 15:25:11.984,-0.135,-0.015
2021-08-19 15:25:11.988,-0.115,-0.005
2021-08-19 15:25:11.992,-0.105,0.01
2021-08-19 15:25:11.996,-0.07,-0.01
2021-08-19 15:25:12.000,-0.03,-0.02
2021-08-19 15:25:12.004,-0.01,-0.005
2021-08-19 15:25:12.008,0.0,-0.005
2021-08-19 15:25:12.012,-0.015,0.01
2021-08-19 15:25:12.016,-0.04,-0.02
2021-08-19 15:25:12.020,-0.08,-0.09
2021-08-19 15:25:12.024,-0.145,-0.105
2021-08-19 15:25:12.028,-0.2,-0.115
2021-08-19 15:25:12.032,-0.235,-0.1
2021-08-19 15:25:12.036,-0.265,-0.065
2021-08-19 15:25:12.040,-0.31,-0.045
2021-08-19 15:25:12.044,-0.38,-0.025
2021-08-19 15:25:12.048,-0.45,0.015
2021-08-19 15:25:12.052,-0.47,0.015
2021-08-19 15:25:12.056,-0.475,0.02
2021-08-19 15:25:12.060,-0.46,0.03
2021-08-19 15:25:12.064,-0.47,0.01
2021-08-19 15:25:12.068,-0.475,0.005
2021-08-19 15:25:12.072,-0.475,-0.05
2021-08-19 15:25:12.076,-0.465,-0.04
2021-08-19 15:25:12.080,-0.46,-0.025
2021-08-19 15:25:12.084,-0.46,-0.035
2021-08-19 15:25:12.088,-0.445,-0.035
2021-08-19 15:25:12.092,-0.45,-0.055
2021-08-19 15:25:12.096,-0.44,-0.055
2021-08-19 15:25:12.100,-0.44,-0.05
2021-08-19 15:25:12.104,-0.42,-0.065
2021-08-19 15:25:12.108,-0.41,-0.06
2021-08-19 15:25:12.112,-0.405,-0.06
2021-08-19 15:25:12.116,-0.415,-0.045
2021-08-19 15:25:12.120,-0.435,-0.04
2021-08-19 15:25:12.124,-0.42,-0.05
2021-08-19 15:25:12.128,-0.41,-0.06
2021-08-19 15:25:12.132,-0.41,-0.04
2021-08-19 15:25:12.136,-0.4,-0.035
2021-08-19 15:25:12.140,-0.4,-0.04
2021-08-19 15:25:12.144,-0.385,-0.05
2021-08-19 15:25:12.148,-0.385,-0.025
2021-08-19 15:25:12.152,-0.39,-0.02
2021-08-19 15:25:12.156,-0.36,-0.04
2021-08-19 15:25:12.160,-0.355,-0.015
2021-08-19 15:25:12.164,-0.345,-0.015
2021-08-19 15:25:12.168,-0.34,-0.015
2021-08-19 15:25:12.172,-0.305,-0.005
2021-08-19 15:25:12.176,-0.26,-0.025
2021-08-19 15:25:12.180,-0.195,-0.04
2021-08-19 15:25:12.184,-0.105,-0.075
2021-08-19 15:25:12.188,-0.015,-0.115
2021-08-19 15:25:12.192,0.055,-0.17
2021-08-19 15:25:12.196,0.13,-0.21
2021-08-19 15:25:12.200,0.225,-0.28
2021-08-19 15:25:12.204,0.275,-0.335
2021-08-19 15:25:12.208,0.32,-0.435
2021-08-19 15:25:12.212,0.335,-0.595
2021-08-19 15:25:12.216,0.35,-0.825
2021-08-19 15:25:12.220,0.445,-1.08
2021-08-19 15:25:12.224,0.67,-1.315
2021-08-19 15:25:12.228,0.945,-1.59
2021-08-19 15:25:12.232,1.185,-1.77
2021-08-19 15:25:12.236,1.195,-1.86
2021-08-19 15:25:12.240,0.88,-1.855
2021-08-19 15:25:12.244,0.335,-1.635
2021-08-19 15:25:12.248,-0.12,-1.22
2021-08-19 15:25:12.252,-0.325,-0.885
2021-08-19 15:25:12.256,-0.405,-0.635
2021-08-19 15:25:12.260,-0.45,-0.425
2021-08-19 15:25:12.264,-0.46,-0.275
2021-08-19 15:25:12.268,-0.46,-0.14
2021-08-19 15:25:12.272,-0.465,-0.055
2021-08-19 15:25:12.276,-0.495,0.055
2021-08-19 15:25:12.280,-0.495,0.105
2021-08-19 15:25:12.284,-0.515,0.12
2021-08-19 15:25:12.288,-0.5,0.13
2021-08-19 15:25:12.292,-0.495,0.135
2021-08-19 15:25:12.296,-0.5,0.115
2021-08-19 15:25:12.300,-0.505,0.115
2021-08-19 15:25:12.304,-0.495,0.13
2021-08-19 15:25:12.308,-0.52,0.14
2021-08-19 15:25:12.312,-0.515,0.14
2021-08-19 15:25:12.316,-0.495,0.155
2021-08-19 15:25:12.320,-0.49,0.135
2021-08-19 15:25:12.324,-0.485,0.125
2021-08-19 15:25:12.328,-0.5,0.145
2021-08-19 15:25:12.332,-0.49,0.175
2021-08-19 15:25:12.336,-0.51,0.165
2021-08-19 15:25:12.340,-0.5,0.19
2021-08-19 15:25:12.344,-0.5,0.155
2021-08-19 15:25:12.348,-0.5,0.135
2021-08-19 15:25:12.352,-0.48,0.125
2021-08-19 15:25:12.356,-0.475,0.14
2021-08-19 15:25:12.360,-0.48,0.17
2021-08-19 15:25:12.364,-0.48,0.23
2021-08-19 15:25:12.368,-0.465,0.21
2021-08-19 15:25:12.372,-0.465,0.2
2021-08-19 15:25:12.376,-0.455,0.205
2021-08-19 15:25:12.380,-0.45,0.205
2021-08-19 15:25:12.384,-0.43,0.19
2021-08-19 15:25:12.388,-0.435,0.205
2021-08-19 15:25:12.392,-0.44,0.22
2021-08-19 15:25:12.396,-0.42,0.22
2021-08-19 15:25:12.400,-0.42,0.22
2021-08-19 15:25:12.404,-0.41,0.225
2021-08-19 15:25:12.408,-0.41,0.23
2021-08-19 15:25:12.412,-0.4,0.255
2021-08-19 15:25:12.416,-0.39,0.23
2021-08-19 15:25:12.420,-0.38,0.215
2021-08-19 15:25:12.424,-0.38,0.195
2021-08-19 15:25:12.428,-0.37,0.18
2021-08-19 15:25:12.432,-0.37,0.165
2021-08-19 15:25:12.436,-0.355,0.16
2021-08-19 15:25:12.440,-0.34,0.15
2021-08-19 15:25:12.444,-0.325,0.165
2021-08-19 15:25:12.448,-0.315,0.165
2021-08-19 15:25:12.452,-0.33,0.135
2021-08-19 15:25:12.456,-0.305,0.1
2021-08-19 15:25:12.460,-0.3,0.09
2021-08-19 15:25:12.464,-0.295,0.085
2021-08-19 15:25:12.468,-0.295,0.07
2021-08-19 15:25:12.472,-0.295,0.04
2021-08-19 15:25:12.476,-0.28,0.03
2021-08-19 15:25:12.480,-0.24,0.02
2021-08-19 15:25:12.484,-0.25,-0.015
2021-08-19 15:25:12.488,-0.25,-0.015
2021-08-19 15:25:12.492,-0.23,-0.02
2021-08-19 15:25:12.496,-0.235,-0.03
2021-08-19 15:25:12.500,-0.22,-0.04
2021-08-19 15:25:12.504,-0.225,-0.05
2021-08-19 15:25:12.508,-0.2,-0.06
2021-08-19 15:25:12.512,-0.17,-0.07
2021-08-19 15:25:12.516,-0.15,-0.06
2021-08-19 15:25:12.520,-0.145,-0.045
2021-08-19 15:25:12.524,-0.15,-0.035
2021-08-19 15:25:12.528,-0.14,-0.04
2021-08-19 15:25:12.532,-0.11,-0.035
2021-08-19 15:25:12.536,-0.13,-0.04
2021-08-19 15:25:12.540,-0.1,-0.045
2021-08-19 15:25:12.544,-0.065,-0.035
2021-08-19 15:25:12.548,-0.01,-0.06
2021-08-19 15:25:12.552,0.02,-0.05
2021-08-19 15:25:12.556,0.025,-0.02
2021-08-19 15:25:12.560,0.04,0.0
2021-08-19 15:25:12.564,0.065,0.015
2021-08-19 15:25:12.568,0.08,0.01
2021-08-19 15:25:12.572,0.1,0.0
2021-08-19 15:25:12.576,0.105,-0.015
2021-08-19 15:25:12.580,0.135,-0.03
2021-08-19 15:25:12.584,0.135,-0.045
2021-08-19 15:25:12.588,0.08,-0.095
2021-08-19 15:25:12.592,0.045,-0.105
2021-08-19 15:25:12.596,0.0,-0.105
2021-08-19 15:25:12.600,-0.085,-0.09
2021-08-19 15:25:12.604,-0.155,-0.07
2021-08-19 15:25:12.608,-0.235,-0.03
2021-08-19 15:25:12.612,-0.275,0.0
2021-08-19 15:25:12.616,-0.335,0.03
2021-08-19 15:25:12.620,-0.305,0.045
2021-08-19 15:25:12.624,-0.325,0.05
2021-08-19 15:25:12.628,-0.315,0.015
2021-08-19 15:25:12.632,-0.34,0.0
2021-08-19 15:25:12.636,-0.325,0.01
2021-08-19 15:25:12.640,-0.33,0.03
2021-08-19 15:25:12.644,-0.32,0.03
2021-08-19 15:25:12.648,-0.3,-0.005
2021-08-19 15:25:12.652,-0.315,-0.02
2021-08-19 15:25:12.656,-0.315,-0.01
2021-08-19 15:25:12.660,-0.3,-0.035
2021-08-19 15:25:12.664,-0.28,-0.075
2021-08-19 15:25:12.668,-0.32,-0.09
2021-08-19 15:25:12.672,-0.285,-0.105
2021-08-19 15:25:12.676,-0.285,-0.08
2021-08-19 15:25:12.680,-0.305,-0.055
2021-08-19 15:25:12.684,-0.315,-0.045
2021-08-19 15:25:12.688,-0.295,-0.04
2021-08-19 15:25:12.692,-0.285,-0.03
2021-08-19 15:25:12.696,-0.275,-0.04
2021-08-19 15:25:12.700,-0.285,-0.035
2021-08-19 15:25:12.704,-0.32,-0.055
2021-08-19 15:25:12.708,-0.3,-0.095
2021-08-19 15:25:12.712,-0.285,-0.095
2021-08-19 15:25:12.716,-0.28,-0.1
2021-08-19 15:25:12.720,-0.275,-0.105
2021-08-19 15:25:12.724,-0.27,-0.08
2021-08-19 15:25:12.728,-0.265,-0.08
2021-08-19 15:25:12.732,-0.275,-0.08
2021-08-19 15:25:12.736,-0.27,-0.09
2021-08-19 15:25:12.740,-0.23,-0.145
2021-08-19 15:25:12.744,-0.195,-0.125
2021-08-19 15:25:12.748,-0.135,-0.135
2021-08-19 15:25:12.752,-0.06,-0.11
2021-08-19 15:25:12.756,0.015,-0.145
2021-08-19 15:25:12.760,0.085,-0.185
2021-08-19 15:25:12.764,0.145,-0.22
2021-08-19 15:25:12.768,0.18,-0.32
2021-08-19 15:25:12.772,0.22,-0.425
2021-08-19 15:25:12.776,0.26,-0.565
2021-08-19 15:25:12.780,0.245,-0.71
2021-08-19 15:25:12.784,0.265,-0.895
2021-08-19 15:25:12.788,0.425,-1.17
2021-08-19 15:25:12.792,0.68,-1.415
2021-08-19 15:25:12.796,0.965,-1.67
2021-08-19 15:25:12.800,1.22,-1.88
2021-08-19 15:25:12.808,1.035,-1.985
2021-08-19 15:25:12.812,0.54,-1.73
2021-08-19 15:25:12.816,0.01,-1.29
2021-08-19 15:25:12.820,-0.29,-0.9
2021-08-19 15:25:12.824,-0.405,-0.655
2021-08-19 15:25:12.828,-0.47,-0.48
2021-08-19 15:25:12.832,-0.45,-0.34
2021-08-19 15:25:12.836,-0.445,-0.23
2021-08-19 15:25:12.840,-0.435,-0.13
2021-08-19 15:25:12.844,-0.43,-0.03
2021-08-19 15:25:12.848,-0.43,0.015
2021-08-19 15:25:12.852,-0.435,0.05
2021-08-19 15:25:12.856,-0.425,0.075
2021-08-19 15:25:12.860,-0.425,0.095
2021-08-19 15:25:12.864,-0.43,0.11
2021-08-19 15:25:12.868,-0.45,0.08
2021-08-19 15:25:12.872,-0.445,0.1
2021-08-19 15:25:12.876,-0.46,0.14
2021-08-19 15:25:12.880,-0.47,0.145
2021-08-19 15:25:12.884,-0.455,0.16
2021-08-19 15:25:12.888,-0.445,0.135
2021-08-19 15:25:12.892,-0.43,0.1
2021-08-19 15:25:12.896,-0.45,0.105
2021-08-19 15:25:12.900,-0.46,0.125
2021-08-19 15:25:12.904,-0.465,0.125
2021-08-19 15:25:12.908,-0.465,0.155
2021-08-19 15:25:12.912,-0.44,0.17
2021-08-19 15:25:12.916,-0.455,0.155
2021-08-19 15:25:12.920,-0.44,0.13
2021-08-19 15:25:12.924,-0.46,0.115
2021-08-19 15:25:12.928,-0.465,0.11
2021-08-19 15:25:12.932,-0.46,0.115
2021-08-19 15:25:12.936,-0.46,0.145
2021-08-19 15:25:12.940,-0.445,0.17
2021-08-19 15:25:12.944,-0.46,0.2
2021-08-19 15:25:12.948,-0.44,0.205
2021-08-19 15:25:12.952,-0.455,0.195
2021-08-19 15:25:12.956,-0.435,0.195
2021-08-19 15:25:12.960,-0.45,0.195
2021-08-19 15:25:12.964,-0.42,0.175
2021-08-19 15:25:12.968,-0.44,0.175
2021-08-19 15:25:12.972,-0.41,0.185
2021-08-19 15:25:12.976,-0.4,0.2
2021-08-19 15:25:12.980,-0.41,0.225
2021-08-19 15:25:12.984,-0.395,0.215
2021-08-19 15:25:12.988,-0.38,0.23
2021-08-19 15:25:12.992,-0.38,0.215
2021-08-19 15:25:12.996,-0.37,0.185
2021-08-19 15:25:13.000,-0.365,0.175
2021-08-19 15:25:13.004,-0.345,0.16
2021-08-19 15:25:13.008,-0.345,0.16
2021-08-19 15:25:13.012,-0.345,0.155
2021-08-19 15:25:13.016,-0.355,0.14
2021-08-19 15:25:13.020,-0.33,0.135
2021-08-19 15:25:13.024,-0.32,0.15
2021-08-19 15:25:13.028,-0.335,0.125
2021-08-19 15:25:13.032,-0.315,0.075
2021-08-19 15:25:13.036,-0.305,0.06
2021-08-19 15:25:13.040,-0.29,0.03
2021-08-19 15:25:13.044,-0.315,0.025
2021-08-19 15:25:13.048,-0.295,0.025
2021-08-19 15:25:13.052,-0.245,0.005
2021-08-19 15:25:13.056,-0.265,0.015
2021-08-19 15:25:13.060,-0.26,0.025
2021-08-19 15:25:13.064,-0.265,0.005
2021-08-19 15:25:13.068,-0.255,-0.025
2021-08-19 15:25:13.072,-0.255,-0.025
2021-08-19 15:25:13.076,-0.245,-0.03
2021-08-19 15:25:13.080,-0.235,-0.055
2021-08-19 15:25:13.084,-0.24,-0.045
2021-08-19 15:25:13.088,-0.245,-0.045
2021-08-19 15:25:13.092,-0.23,-0.065
2021-08-19 15:25:13.096,-0.225,-0.05
2021-08-19 15:25:13.100,-0.205,-0.045
2021-08-19 15:25:13.104,-0.205,-0.02
2021-08-19 15:25:13.108,-0.195,0.0
2021-08-19 15:25:13.112,-0.185,-0.005
2021-08-19 15:25:13.116,-0.165,-0.015
2021-08-19 15:25:13.120,-0.155,-0.035
2021-08-19 15:25:13.124,-0.11,-0.025
2021-08-19 15:25:13.128,-0.1,0.0
2021-08-19 15:25:13.132,-0.05,0.025
2021-08-19 15:25:13.136,-0.035,0.045
2021-08-19 15:25:13.140,-0.005,0.075
2021-08-19 15:25:13.144,-0.015,0.055
2021-08-19 15:25:13.148,0.02,0.055
2021-08-19 15:25:13.152,0.02,0.015
2021-08-19 15:25:13.156,0.015,0.03
2021-08-19 15:25:13.160,0.02,-0.015
2021-08-19 15:25:13.164,0.005,-0.045
2021-08-19 15:25:13.168,-0.055,-0.105
2021-08-19 15:25:13.172,-0.11,-0.125
2021-08-19 15:25:13.176,-0.15,-0.105
2021-08-19 15:25:13.180,-0.215,-0.085
2021-08-19 15:25:13.184,-0.235,-0.035
2021-08-19 15:25:13.188,-0.28,0.0
2021-08-19 15:25:13.192,-0.315,0.005
2021-08-19 15:25:13.196,-0.36,0.015
2021-08-19 15:25:13.200,-0.4,0.035
2021-08-19 15:25:13.204,-0.405,0.035
2021-08-19 15:25:13.208,-0.41,0.04
2021-08-19 15:25:13.212,-0.39,0.035
2021-08-19 15:25:13.216,-0.4,0.04
2021-08-19 15:25:13.220,-0.37,0.03
2021-08-19 15:25:13.224,-0.365,0.04
2021-08-19 15:25:13.228,-0.375,0.02
2021-08-19 15:25:13.232,-0.365,0.01
2021-08-19 15:25:13.236,-0.38,0.0
2021-08-19 15:25:13.240,-0.385,0.005
2021-08-19 15:25:13.244,-0.35,-0.01
2021-08-19 15:25:13.248,-0.355,0.0
2021-08-19 15:25:13.252,-0.345,-0.035
2021-08-19 15:25:13.256,-0.375,-0.015
2021-08-19 15:25:13.260,-0.365,-0.03
2021-08-19 15:25:13.264,-0.355,-0.035
2021-08-19 15:25:13.268,-0.36,-0.01
2021-08-19 15:25:13.272,-0.36,0.015
2021-08-19 15:25:13.276,-0.38,-0.005
2021-08-19 15:25:13.280,-0.37,0.005
2021-08-19 15:25:13.284,-0.37,-0.02
2021-08-19 15:25:13.288,-0.375,-0.04
2021-08-19 15:25:13.292,-0.37,-0.065
2021-08-19 15:25:13.296,-0.36,-0.04
2021-08-19 15:25:13.300,-0.37,-0.045
2021-08-19 15:25:13.304,-0.365,-0.05
2021-08-19 15:25:13.308,-0.35,-0.045
2021-08-19 15:25:13.312,-0.31,-0.05
2021-08-19 15:25:13.316,-0.285,-0.005
2021-08-19 15:25:13.320,-0.25,0.01
2021-08-19 15:25:13.324,-0.195,-0.055
2021-08-19 15:25:13.328,-0.095,-0.1
2021-08-19 15:25:13.332,-0.02,-0.12
2021-08-19 15:25:13.336,0.045,-0.155
2021-08-19 15:25:13.340,0.095,-0.2
2021-08-19 15:25:13.344,0.12,-0.275
2021-08-19 15:25:13.348,0.19,-0.345
2021-08-19 15:25:13.352,0.195,-0.485
2021-08-19 15:25:13.356,0.195,-0.64
2021-08-19 15:25:13.360,0.21,-0.83
2021-08-19 15:25:13.364,0.3,-1.07
2021-08-19 15:25:13.368,0.52,-1.33
2021-08-19 15:25:13.372,0.845,-1.595
2021-08-19 15:25:13.376,1.12,-1.83
2021-08-19 15:25:13.380,1.215,-1.97
2021-08-19 15:25:13.384,0.975,-1.98
2021-08-19 15:25:13.388,0.5,-1.765
2021-08-19 15:25:13.392,0.01,-1.325
2021-08-19 15:25:13.396,-0.31,-0.91
2021-08-19 15:25:13.400,-0.445,-0.67
2021-08-19 15:25:13.404,-0.49,-0.505
2021-08-19 15:25:13.408,-0.49,-0.34
2021-08-19 15:25:13.412,-0.5,-0.18
2021-08-19 15:25:13.416,-0.5,-0.07
2021-08-19 15:25:13.420,-0.48,0.005
2021-08-19 15:25:13.424,-0.475,0.05
2021-08-19 15:25:13.428,-0.48,0.1
2021-08-19 15:25:13.432,-0.495,0.11
2021-08-19 15:25:13.436,-0.5,0.16
2021-08-19 15:25:13.440,-0.485,0.15
2021-08-19 15:25:13.444,-0.47,0.165
2021-08-19 15:25:13.448,-0.45,0.155
2021-08-19 15:25:13.452,-0.455,0.17
2021-08-19 15:25:13.456,-0.44,0.18
2021-08-19 15:25:13.460,-0.465,0.2
2021-08-19 15:25:13.464,-0.455,0.2
2021-08-19 15:25:13.468,-0.46,0.145
2021-08-19 15:25:13.472,-0.445,0.13
2021-08-19 15:25:13.476,-0.455,0.155
2021-08-19 15:25:13.480,-0.465,0.155
2021-08-19 15:25:13.484,-0.47,0.165
2021-08-19 15:25:13.488,-0.49,0.16
2021-08-19 15:25:13.492,-0.475,0.17
2021-08-19 15:25:13.496,-0.48,0.155
2021-08-19 15:25:13.500,-0.48,0.155
2021-08-19 15:25:13.504,-0.49,0.2
2021-08-19 15:25:13.508,-0.47,0.24
2021-08-19 15:25:13.512,-0.49,0.235
2021-08-19 15:25:13.516,-0.49,0.22
2021-08-19 15:25:13.520,-0.495,0.17
2021-08-19 15:25:13.524,-0.5,0.16
2021-08-19 15:25:13.528,-0.48,0.17
2021-08-19 15:25:13.532,-0.49,0.175
2021-08-19 15:25:13.536,-0.49,0.215
2021-08-19 15:25:13.540,-0.475,0.225
2021-08-19 15:25:13.544,-0.465,0.22
2021-08-19 15:25:13.548,-0.465,0.23
2021-08-19 15:25:13.552,-0.44,0.235
2021-08-19 15:25:13.556,-0.46,0.195
2021-08-19 15:25:13.560,-0.445,0.22
2021-08-19 15:25:13.564,-0.425,0.255
2021-08-19 15:25:13.568,-0.43,0.26
2021-08-19 15:25:13.572,-0.43,0.25
2021-08-19 15:25:13.576,-0.42,0.195
2021-08-19 15:25:13.580,-0.42,0.17
2021-08-19 15:25:13.584,-0.39,0.15
2021-08-19 15:25:13.588,-0.37,0.125
2021-08-19 15:25:13.592,-0.365,0.115
2021-08-19 15:25:13.596,-0.38,0.14
2021-08-19 15:25:13.600,-0.36,0.12
2021-08-19 15:25:13.604,-0.345,0.125
2021-08-19 15:25:13.608,-0.325,0.11
2021-08-19 15:25:13.612,-0.31,0.075
2021-08-19 15:25:13.616,-0.29,0.06
2021-08-19 15:25:13.620,-0.285,0.035
2021-08-19 15:25:13.624,-0.3,0.015
2021-08-19 15:25:13.628,-0.305,0.0
2021-08-19 15:25:13.632,-0.3,-0.02
2021-08-19 15:25:13.636,-0.3,0.01
2021-08-19 15:25:13.640,-0.285,0.0
2021-08-19 15:25:13.644,-0.275,0.01
2021-08-19 15:25:13.648,-0.275,-0.01
2021-08-19 15:25:13.652,-0.3,-0.01
2021-08-19 15:25:13.656,-0.285,-0.02
2021-08-19 15:25:13.660,-0.265,-0.05
2021-08-19 15:25:13.664,-0.265,-0.06
2021-08-19 15:25:13.668,-0.255,-0.05
2021-08-19 15:25:13.672,-0.255,-0.05
2021-08-19 15:25:13.676,-0.275,-0.035
2021-08-19 15:25:13.680,-0.275,-0.06
2021-08-19 15:25:13.684,-0.295,-0.04
2021-08-19 15:25:13.688,-0.32,-0.045
2021-08-19 15:25:13.692,-0.295,-0.045
2021-08-19 15:25:13.696,-0.3,-0.02
2021-08-19 15:25:13.700,-0.295,-0.02
2021-08-19 15:25:13.704,-0.275,-0.02
2021-08-19 15:25:13.708,-0.26,-0.03
2021-08-19 15:25:13.712,-0.23,-0.04
2021-08-19 15:25:13.716,-0.24,-0.005
2021-08-19 15:25:13.720,-0.225,-0.02
2021-08-19 15:25:13.724,-0.22,-0.04
2021-08-19 15:25:13.728,-0.23,-0.05
2021-08-19 15:25:13.732,-0.22,-0.045
2021-08-19 15:25:13.736,-0.185,-0.03
2021-08-19 15:25:13.740,-0.11,0.005
2021-08-19 15:25:13.744,-0.12,0.01
2021-08-19 15:25:13.748,-0.1,0.025
2021-08-19 15:25:13.752,-0.08,0.025
2021-08-19 15:25:13.756,-0.035,0.0
2021-08-19 15:25:13.760,-0.03,-0.005
2021-08-19 15:25:13.764,-0.01,0.0
2021-08-19 15:25:13.768,-0.03,-0.005
2021-08-19 15:25:13.772,-0.045,-0.035
2021-08-19 15:25:13.776,-0.085,-0.08
2021-08-19 15:25:13.780,-0.13,-0.13
2021-08-19 15:25:13.784,-0.185,-0.14
2021-08-19 15:25:13.788,-0.21,-0.125
2021-08-19 15:25:13.792,-0.255,-0.1
2021-08-19 15:25:13.796,-0.3,-0.075
2021-08-19 15:25:13.800,-0.33,-0.065
2021-08-19 15:25:13.804,-0.375,0.005
2021-08-19 15:25:13.808,-0.415,0.03
2021-08-19 15:25:13.812,-0.4,0.0
2021-08-19 15:25:13.816,-0.41,-0.02
2021-08-19 15:25:13.820,-0.395,-0.005
2021-08-19 15:25:13.824,-0.4,-0.02
2021-08-19 15:25:13.828,-0.41,-0.02
2021-08-19 15:25:13.832,-0.395,-0.035
2021-08-19 15:25:13.836,-0.39,-0.035
2021-08-19 15:25:13.840,-0.38,-0.035
2021-08-19 15:25:13.844,-0.41,-0.055
2021-08-19 15:25:13.848,-0.4,-0.055
2021-08-19 15:25:13.852,-0.395,-0.055
2021-08-19 15:25:13.856,-0.395,-0.06
2021-08-19 15:25:13.860,-0.39,-0.065
2021-08-19 15:25:13.864,-0.395,-0.055
2021-08-19 15:25:13.868,-0.395,-0.08
2021-08-19 15:25:13.872,-0.385,-0.085
2021-08-19 15:25:13.876,-0.375,-0.055
2021-08-19 15:25:13.880,-0.395,-0.055
2021-08-19 15:25:13.884,-0.4,-0.035
2021-08-19 15:25:13.888,-0.395,-0.05
2021-08-19 15:25:13.892,-0.39,-0.045
2021-08-19 15:25:13.896,-0.4,-0.06
2021-08-19 15:25:13.900,-0.415,-0.065
2021-08-19 15:25:13.904,-0.395,-0.06
2021-08-19 15:25:13.908,-0.38,-0.05
2021-08-19 15:25:13.912,-0.41,-0.065
2021-08-19 15:25:13.916,-0.395,-0.085
2021-08-19 15:25:13.920,-0.37,-0.075
2021-08-19 15:25:13.924,-0.315,-0.08
2021-08-19 15:25:13.928,-0.285,-0.075
2021-08-19 15:25:13.932,-0.21,-0.09
2021-08-19 15:25:13.936,-0.16,-0.14
2021-08-19 15:25:13.940,-0.06,-0.18
2021-08-19 15:25:13.944,0.005,-0.21
2021-08-19 15:25:13.948,0.075,-0.25
2021-08-19 15:25:13.952,0.12,-0.33
2021-08-19 15:25:13.956,0.175,-0.425
2021-08-19 15:25:13.960,0.165,-0.545
2021-08-19 15:25:13.964,0.165,-0.71
2021-08-19 15:25:13.968,0.22,-0.97
2021-08-19 15:25:13.972,0.33,-1.215
2021-08-19 15:25:13.976,0.55,-1.485
2021-08-19 15:25:13.980,0.87,-1.77
2021-08-19 15:25:13.996,0.28,-1.795
2021-08-19 15:25:14.000,-0.185,-1.32
2021-08-19 15:25:14.004,-0.44,-0.905
2021-08-19 15:25:14.008,-0.53,-0.64
2021-08-19 15:25:14.012,-0.56,-0.455
2021-08-19 15:25:14.016,-0.55,-0.315
2021-08-19 15:25:14.020,-0.545,-0.21
2021-08-19 15:25:14.024,-0.58,-0.11
2021-08-19 15:25:14.028,-0.57,-0.025
2021-08-19 15:25:14.032,-0.55,0.06
2021-08-19 15:25:14.036,-0.545,0.13
2021-08-19 15:25:14.040,-0.545,0.15
2021-08-19 15:25:14.044,-0.54,0.135
2021-08-19 15:25:14.048,-0.56,0.145
2021-08-19 15:25:14.052,-0.555,0.125
2021-08-19 15:25:14.056,-0.565,0.105
2021-08-19 15:25:14.060,-0.57,0.125
2021-08-19 15:25:14.064,-0.56,0.16
2021-08-19 15:25:14.068,-0.56,0.13
2021-08-19 15:25:14.072,-0.57,0.155
2021-08-19 15:25:14.076,-0.555,0.165
2021-08-19 15:25:14.080,-0.54,0.16
2021-08-19 15:25:14.084,-0.55,0.155
2021-08-19 15:25:14.088,-0.56,0.16
2021-08-19 15:25:14.092,-0.575,0.165
2021-08-19 15:25:14.096,-0.57,0.145
2021-08-19 15:25:14.100,-0.58,0.16
2021-08-19 15:25:14.104,-0.56,0.19
2021-08-19 15:25:14.108,-0.575,0.17
2021-08-19 15:25:14.112,-0.58,0.175
2021-08-19 15:25:14.116,-0.565,0.16
2021-08-19 15:25:14.120,-0.565,0.2
2021-08-19 15:25:14.124,-0.565,0.185
2021-08-19 15:25:14.128,-0.535,0.2
2021-08-19 15:25:14.132,-0.54,0.205
2021-08-19 15:25:14.136,-0.54,0.215
2021-08-19 15:25:14.140,-0.545,0.24
2021-08-19 15:25:14.144,-0.535,0.23
2021-08-19 15:25:14.148,-0.545,0.2
2021-08-19 15:25:14.152,-0.54,0.205
2021-08-19 15:25:14.156,-0.53,0.2
2021-08-19 15:25:14.160,-0.52,0.225
2021-08-19 15:25:14.164,-0.51,0.21
2021-08-19 15:25:14.168,-0.505,0.22
2021-08-19 15:25:14.172,-0.495,0.235
2021-08-19 15:25:14.176,-0.485,0.205
2021-08-19 15:25:14.180,-0.46,0.2
2021-08-19 15:25:14.184,-0.47,0.185
2021-08-19 15:25:14.188,-0.47,0.18
2021-08-19 15:25:14.192,-0.46,0.19
2021-08-19 15:25:14.196,-0.445,0.17
2021-08-19 15:25:14.200,-0.43,0.175
2021-08-19 15:25:14.204,-0.43,0.14
2021-08-19 15:25:14.208,-0.425,0.13
2021-08-19 15:25:14.212,-0.39,0.12
2021-08-19 15:25:14.216,-0.385,0.115
2021-08-19 15:25:14.220,-0.365,0.065
2021-08-19 15:25:14.224,-0.375,0.07
2021-08-19 15:25:14.228,-0.36,0.065
2021-08-19 15:25:14.232,-0.35,0.035
2021-08-19 15:25:14.236,-0.345,0.015
2021-08-19 15:25:14.240,-0.32,0.005
2021-08-19 15:25:14.244,-0.32,0.025
2021-08-19 15:25:14.248,-0.325,0.01
2021-08-19 15:25:14.252,-0.315,0.005
2021-08-19 15:25:14.256,-0.325,0.015
2021-08-19 15:25:14.260,-0.305,0.0
2021-08-19 15:25:14.264,-0.29,0.0
2021-08-19 15:25:14.268,-0.3,0.0
2021-08-19 15:25:14.272,-0.305,-0.02
2021-08-19 15:25:14.276,-0.32,-0.04
2021-08-19 15:25:14.280,-0.3,-0.05
2021-08-19 15:25:14.284,-0.285,-0.065
2021-08-19 15:25:14.288,-0.27,-0.06
2021-08-19 15:25:14.292,-0.29,-0.035
2021-08-19 15:25:14.296,-0.28,-0.015
2021-08-19 15:25:14.300,-0.265,-0.02
2021-08-19 15:25:14.304,-0.255,-0.04
2021-08-19 15:25:14.308,-0.27,-0.005
2021-08-19 15:25:14.312,-0.255,-0.01
2021-08-19 15:25:14.316,-0.215,0.0
2021-08-19 15:25:14.320,-0.24,0.005
2021-08-19 15:25:14.324,-0.195,0.01
2021-08-19 15:25:14.328,-0.15,0.055
2021-08-19 15:25:14.332,-0.115,0.05
2021-08-19 15:25:14.336,-0.125,0.045
2021-08-19 15:25:14.340,-0.11,-0.015
2021-08-19 15:25:14.344,-0.09,0.005
2021-08-19 15:25:14.348,-0.075,-0.005
2021-08-19 15:25:14.352,-0.025,-0.02
2021-08-19 15:25:14.356,-0.025,-0.01
2021-08-19 15:25:14.360,-0.03,-0.04
2021-08-19 15:25:14.364,-0.035,-0.06
2021-08-19 15:25:14.368,-0.105,-0.09
2021-08-19 15:25:14.372,-0.16,-0.14
2021-08-19 15:25:14.376,-0.235,-0.145
2021-08-19 15:25:14.380,-0.29,-0.12
2021-08-19 15:25:14.384,-0.33,-0.11
2021-08-19 15:25:14.388,-0.38,-0.08
2021-08-19 15:25:14.392,-0.42,-0.075
2021-08-19 15:25:14.396,-0.445,-0.03
2021-08-19 15:25:14.400,-0.47,-0.01
2021-08-19 15:25:14.404,-0.47,-0.025
2021-08-19 15:25:14.408,-0.465,-0.015
2021-08-19 15:25:14.412,-0.445,0.0
2021-08-19 15:25:14.416,-0.44,-0.015
2021-08-19 15:25:14.420,-0.46,-0.045
2021-08-19 15:25:14.424,-0.405,-0.065
2021-08-19 15:25:14.428,-0.43,-0.055
2021-08-19 15:25:14.432,-0.405,-0.04
2021-08-19 15:25:14.436,-0.405,-0.06
2021-08-19 15:25:14.440,-0.4,-0.065
2021-08-19 15:25:14.444,-0.405,-0.045
2021-08-19 15:25:14.448,-0.405,-0.055
2021-08-19 15:25:14.452,-0.395,-0.055
2021-08-19 15:25:14.456,-0.385,-0.06
2021-08-19 15:25:14.460,-0.4,-0.05
2021-08-19 15:25:14.464,-0.39,-0.02
2021-08-19 15:25:14.468,-0.375,-0.035
2021-08-19 15:25:14.472,-0.38,-0.06
2021-08-19 15:25:14.476,-0.38,-0.1
2021-08-19 15:25:14.480,-0.38,-0.14
2021-08-19 15:25:14.484,-0.38,-0.18
2021-08-19 15:25:14.488,-0.37,-0.185
2021-08-19 15:25:14.492,-0.385,-0.14
2021-08-19 15:25:14.496,-0.375,-0.125
2021-08-19 15:25:14.500,-0.365,-0.12
2021-08-19 15:25:14.504,-0.36,-0.115
2021-08-19 15:25:14.508,-0.36,-0.125
2021-08-19 15:25:14.512,-0.36,-0.13
2021-08-19 15:25:14.516,-0.31,-0.105
2021-08-19 15:25:14.520,-0.25,-0.12
2021-08-19 15:25:14.524,-0.16,-0.125
2021-08-19 15:25:14.528,-0.08,-0.145
2021-08-19 15:25:14.532,0.0,-0.17
2021-08-19 15:25:14.536,0.07,-0.2
2021-08-19 15:25:14.540,0.145,-0.295
2021-08-19 15:25:14.544,0.225,-0.35
2021-08-19 15:25:14.548,0.27,-0.46
2021-08-19 15:25:14.552,0.29,-0.61
2021-08-19 15:25:14.556,0.31,-0.81
2021-08-19 15:25:14.560,0.36,-1.06
2021-08-19 15:25:14.564,0.53,-1.28
2021-08-19 15:25:14.568,0.83,-1.56
2021-08-19 15:25:14.572,1.105,-1.77
2021-08-19 15:25:14.576,1.23,-1.925
2021-08-19 15:25:14.580,1.05,-1.975
2021-08-19 15:25:14.584,0.56,-1.87
2021-08-19 15:25:14.588,0.055,-1.495
2021-08-19 15:25:14.592,-0.24,-1.09
2021-08-19 15:25:14.596,-0.37,-0.78
2021-08-19 15:25:14.600,-0.425,-0.58
2021-08-19 15:25:14.604,-0.44,-0.39
2021-08-19 15:25:14.608,-0.44,-0.25
2021-08-19 15:25:14.612,-0.455,-0.165
2021-08-19 15:25:14.616,-0.475,-0.08
2021-08-19 15:25:14.620,-0.46,-0.03
2021-08-19 15:25:14.624,-0.45,0.005
2021-08-19 15:25:14.628,-0.46,0.055
2021-08-19 15:25:14.632,-0.46,0.07
2021-08-19 15:25:14.636,-0.465,0.09
2021-08-19 15:25:14.640,-0.455,0.075
2021-08-19 15:25:14.644,-0.47,0.055
2021-08-19 15:25:14.648,-0.48,0.065
2021-08-19 15:25:14.652,-0.46,0.06
2021-08-19 15:25:14.656,-0.465,0.07
2021-08-19 15:25:14.660,-0.455,0.07
2021-08-19 15:25:14.664,-0.455,0.095
2021-08-19 15:25:14.668,-0.45,0.11
2021-08-19 15:25:14.672,-0.445,0.09
2021-08-19 15:25:14.676,-0.45,0.085
2021-08-19 15:25:14.680,-0.45,0.12
2021-08-19 15:25:14.684,-0.45,0.1
2021-08-19 15:25:14.688,-0.475,0.12
2021-08-19 15:25:14.692,-0.465,0.1
2021-08-19 15:25:14.696,-0.46,0.105
2021-08-19 15:25:14.700,-0.455,0.115
2021-08-19 15:25:14.704,-0.475,0.125
2021-08-19 15:25:14.708,-0.48,0.12
2021-08-19 15:25:14.712,-0.47,0.12
2021-08-19 15:25:14.716,-0.465,0.135
2021-08-19 15:25:14.720,-0.475,0.125
2021-08-19 15:25:14.724,-0.475,0.11
2021-08-19 15:25:14.728,-0.475,0.12
2021-08-19 15:25:14.732,-0.48,0.145
2021-08-19 15:25:14.736,-0.46,0.15
2021-08-19 15:25:14.740,-0.455,0.15
2021-08-19 15:25:14.744,-0.46,0.145
2021-08-19 15:25:14.748,-0.45,0.13
2021-08-19 15:25:14.752,-0.435,0.12
2021-08-19 15:25:14.756,-0.41,0.13
2021-08-19 15:25:14.760,-0.43,0.155
2021-08-19 15:25:14.764,-0.415,0.14
2021-08-19 15:25:14.768,-0.4,0.1
2021-08-19 15:25:14.772,-0.39,0.105
2021-08-19 15:25:14.776,-0.365,0.095
2021-08-19 15:25:14.780,-0.38,0.08
2021-08-19 15:25:14.784,-0.36,0.065
2021-08-19 15:25:14.788,-0.355,0.05
2021-08-19 15:25:14.792,-0.36,0.05
2021-08-19 15:25:14.796,-0.375,0.05
2021-08-19 15:25:14.800,-0.35,0.02
2021-08-19 15:25:14.804,-0.325,0.0
2021-08-19 15:25:14.808,-0.325,0.0
2021-08-19 15:25:14.812,-0.325,0.0
2021-08-19 15:25:14.816,-0.31,-0.025
2021-08-19 15:25:14.820,-0.28,-0.01
2021-08-19 15:25:14.824,-0.27,-0.04
2021-08-19 15:25:14.828,-0.27,-0.06
2021-08-19 15:25:14.832,-0.25,-0.07
2021-08-19 15:25:14.836,-0.22,-0.095
2021-08-19 15:25:14.840,-0.25,-0.115
2021-08-19 15:25:14.844,-0.24,-0.11
2021-08-19 15:25:14.848,-0.235,-0.09
2021-08-19 15:25:14.852,-0.215,-0.095
2021-08-19 15:25:14.856,-0.22,-0.105
2021-08-19 15:25:14.860,-0.215,-0.115
2021-08-19 15:25:14.864,-0.18,-0.115
2021-08-19 15:25:14.868,-0.16,-0.095
2021-08-19 15:25:14.872,-0.15,-0.11
2021-08-19 15:25:14.876,-0.17,-0.12
2021-08-19 15:25:14.880,-0.15,-0.125
2021-08-19 15:25:14.884,-0.14,-0.135
2021-08-19 15:25:14.888,-0.13,-0.11
2021-08-19 15:25:14.892,-0.105,-0.11
2021-08-19 15:25:14.896,-0.11,-0.07
2021-08-19 15:25:14.900,-0.08,-0.055
2021-08-19 15:25:14.904,-0.045,-0.06
2021-08-19 15:25:14.908,-0.005,-0.055
2021-08-19 15:25:14.912,0.01,-0.03
2021-08-19 15:25:14.916,0.035,-0.04
2021-08-19 15:25:14.920,0.055,-0.025
2021-08-19 15:25:14.924,0.06,-0.035
2021-08-19 15:25:14.928,0.06,-0.04
2021-08-19 15:25:14.932,0.07,-0.065
2021-08-19 15:25:14.936,0.075,-0.09
2021-08-19 15:25:14.940,0.045,-0.125
2021-08-19 15:25:14.944,0.02,-0.15
2021-08-19 15:25:14.948,-0.03,-0.16
2021-08-19 15:25:14.952,-0.08,-0.15
2021-08-19 15:25:14.956,-0.13,-0.16
2021-08-19 15:25:14.960,-0.185,-0.13
2021-08-19 15:25:14.964,-0.25,-0.155
2021-08-19 15:25:14.968,-0.28,-0.115
2021-08-19 15:25:14.972,-0.32,-0.11
2021-08-19 15:25:14.976,-0.33,-0.09
2021-08-19 15:25:14.980,-0.33,-0.06
2021-08-19 15:25:14.984,-0.34,-0.065
2021-08-19 15:25:14.988,-0.345,-0.06
2021-08-19 15:25:14.992,-0.355,-0.075
2021-08-19 15:25:14.996,-0.325,-0.1
2021-08-19 15:25:15.000,-0.33,-0.09
2021-08-19 15:25:15.004,-0.335,-0.065
2021-08-19 15:25:15.008,-0.33,-0.06
2021-08-19 15:25:15.012,-0.33,-0.06
2021-08-19 15:25:15.016,-0.305,-0.06
2021-08-19 15:25:15.020,-0.3,-0.1
2021-08-19 15:25:15.024,-0.28,-0.12
2021-08-19 15:25:15.028,-0.28,-0.12
2021-08-19 15:25:15.032,-0.255,-0.12
2021-08-19 15:25:15.036,-0.265,-0.09
2021-08-19 15:25:15.040,-0.265,-0.1
2021-08-19 15:25:15.044,-0.26,-0.08
2021-08-19 15:25:15.048,-0.275,-0.09
2021-08-19 15:25:15.052,-0.265,-0.105
2021-08-19 15:25:15.056,-0.28,-0.115
2021-08-19 15:25:15.060,-0.26,-0.125
2021-08-19 15:25:15.064,-0.25,-0.12
2021-08-19 15:25:15.068,-0.26,-0.1
2021-08-19 15:25:15.072,-0.27,-0.095
2021-08-19 15:25:15.076,-0.24,-0.11
2021-08-19 15:25:15.080,-0.26,-0.12
2021-08-19 15:25:15.084,-0.265,-0.14
2021-08-19 15:25:15.088,-0.24,-0.135
2021-08-19 15:25:15.092,-0.22,-0.12
2021-08-19 15:25:15.096,-0.185,-0.115
2021-08-19 15:25:15.100,-0.12,-0.13
2021-08-19 15:25:15.104,-0.04,-0.13
2021-08-19 15:25:15.108,0.035,-0.135
2021-08-19 15:25:15.112,0.095,-0.19
2021-08-19 15:25:15.116,0.155,-0.26
2021-08-19 15:25:15.120,0.155,-0.35
2021-08-19 15:25:15.124,0.215,-0.43
2021-08-19 15:25:15.128,0.25,-0.54
2021-08-19 15:25:15.132,0.245,-0.69
2021-08-19 15:25:15.136,0.305,-0.91
2021-08-19 15:25:15.140,0.41,-1.175
2021-08-19 15:25:15.144,0.66,-1.4
2021-08-19 15:25:15.148,0.96,-1.645
2021-08-19 15:25:15.152,1.21,-1.895
2021-08-19 15:25:15.164,0.505,-1.77
2021-08-19 15:25:15.168,0.0,-1.355
2021-08-19 15:25:15.172,-0.295,-0.95
2021-08-19 15:25:15.176,-0.4,-0.695
2021-08-19 15:25:15.180,-0.445,-0.53
2021-08-19 15:25:15.184,-0.455,-0.37
2021-08-19 15:25:15.188,-0.45,-0.235
2021-08-19 15:25:15.192,-0.44,-0.145
2021-08-19 15:25:15.196,-0.45,-0.045
2021-08-19 15:25:15.200,-0.42,0.005
2021-08-19 15:25:15.204,-0.45,0.08
2021-08-19 15:25:15.208,-0.42,0.09
2021-08-19 15:25:15.212,-0.42,0.09
2021-08-19 15:25:15.216,-0.415,0.055
2021-08-19 15:25:15.220,-0.415,0.06
2021-08-19 15:25:15.224,-0.39,0.065
2021-08-19 15:25:15.228,-0.39,0.07
2021-08-19 15:25:15.232,-0.38,0.08
2021-08-19 15:25:15.236,-0.385,0.105
2021-08-19 15:25:15.240,-0.39,0.13
2021-08-19 15:25:15.244,-0.39,0.12
2021-08-19 15:25:15.248,-0.375,0.12
2021-08-19 15:25:15.252,-0.36,0.115
2021-08-19 15:25:15.256,-0.385,0.12
2021-08-19 15:25:15.260,-0.39,0.14
2021-08-19 15:25:15.264,-0.4,0.14
2021-08-19 15:25:15.268,-0.39,0.14
2021-08-19 15:25:15.272,-0.39,0.135
2021-08-19 15:25:15.276,-0.39,0.145
2021-08-19 15:25:15.280,-0.39,0.15
2021-08-19 15:25:15.284,-0.39,0.16
2021-08-19 15:25:15.288,-0.405,0.205
2021-08-19 15:25:15.292,-0.39,0.195
2021-08-19 15:25:15.296,-0.375,0.17
2021-08-19 15:25:15.300,-0.39,0.19
2021-08-19 15:25:15.304,-0.395,0.21
2021-08-19 15:25:15.308,-0.37,0.22
2021-08-19 15:25:15.312,-0.385,0.19
2021-08-19 15:25:15.316,-0.39,0.175
2021-08-19 15:25:15.320,-0.39,0.15
2021-08-19 15:25:15.324,-0.38,0.175
2021-08-19 15:25:15.328,-0.365,0.18
2021-08-19 15:25:15.332,-0.34,0.16
2021-08-19 15:25:15.336,-0.355,0.17
2021-08-19 15:25:15.340,-0.355,0.16
2021-08-19 15:25:15.344,-0.34,0.16
2021-08-19 15:25:15.348,-0.36,0.18
2021-08-19 15:25:15.352,-0.33,0.185
2021-08-19 15:25:15.356,-0.32,0.14
2021-08-19 15:25:15.360,-0.31,0.125
2021-08-19 15:25:15.364,-0.31,0.105
2021-08-19 15:25:15.368,-0.28,0.115
2021-08-19 15:25:15.372,-0.275,0.145
2021-08-19 15:25:15.376,-0.27,0.125
2021-08-19 15:25:15.380,-0.27,0.065
2021-08-19 15:25:15.384,-0.285,0.035
2021-08-19 15:25:15.388,-0.255,0.005
2021-08-19 15:25:15.392,-0.23,-0.005
2021-08-19 15:25:15.396,-0.23,-0.02
2021-08-19 15:25:15.400,-0.245,-0.05
2021-08-19 15:25:15.404,-0.245,-0.035
2021-08-19 15:25:15.408,-0.225,-0.03
2021-08-19 15:25:15.412,-0.215,-0.045
2021-08-19 15:25:15.416,-0.225,-0.07
2021-08-19 15:25:15.420,-0.21,-0.075
2021-08-19 15:25:15.424,-0.16,-0.04
2021-08-19 15:25:15.428,-0.145,-0.02
2021-08-19 15:25:15.432,-0.135,-0.025
2021-08-19 15:25:15.436,-0.145,-0.075
2021-08-19 15:25:15.440,-0.13,-0.06
2021-08-19 15:25:15.444,-0.11,-0.065
2021-08-19 15:25:15.448,-0.11,-0.08
2021-08-19 15:25:15.452,-0.1,-0.075
2021-08-19 15:25:15.456,-0.04,-0.04
2021-08-19 15:25:15.460,-0.005,0.01
2021-08-19 15:25:15.464,0.04,0.015
2021-08-19 15:25:15.468,0.06,0.015
2021-08-19 15:25:15.472,0.085,0.01
2021-08-19 15:25:15.476,0.07,0.01
2021-08-19 15:25:15.480,0.08,-0.03
2021-08-19 15:25:15.484,0.09,-0.02
2021-08-19 15:25:15.488,0.085,-0.05
2021-08-19 15:25:15.492,0.1,-0.035
2021-08-19 15:25:15.496,0.08,-0.03
2021-08-19 15:25:15.500,0.03,-0.065
2021-08-19 15:25:15.504,-0.01,-0.115
2021-08-19 15:25:15.508,-0.055,-0.17
2021-08-19 15:25:15.512,-0.12,-0.165
2021-08-19 15:25:15.516,-0.155,-0.18
2021-08-19 15:25:15.520,-0.225,-0.105
2021-08-19 15:25:15.524,-0.275,-0.07
2021-08-19 15:25:15.528,-0.33,-0.045
2021-08-19 15:25:15.532,-0.36,-0.045
2021-08-19 15:25:15.536,-0.355,-0.02
2021-08-19 15:25:15.540,-0.375,-0.03
2021-08-19 15:25:15.544,-0.36,-0.06
2021-08-19 15:25:15.548,-0.36,-0.03
2021-08-19 15:25:15.552,-0.35,-0.035
2021-08-19 15:25:15.556,-0.35,-0.045
2021-08-19 15:25:15.560,-0.335,-0.065
2021-08-19 15:25:15.564,-0.31,-0.045
2021-08-19 15:25:15.568,-0.33,-0.045
2021-08-19 15:25:15.572,-0.315,-0.055
2021-08-19 15:25:15.576,-0.33,-0.085
2021-08-19 15:25:15.580,-0.31,-0.1
2021-08-19 15:25:15.584,-0.31,-0.085
2021-08-19 15:25:15.588,-0.32,-0.06
2021-08-19 15:25:15.592,-0.305,-0.05
2021-08-19 15:25:15.596,-0.315,-0.035
2021-08-19 15:25:15.600,-0.31,-0.055
2021-08-19 15:25:15.604,-0.315,-0.06
2021-08-19 15:25:15.608,-0.305,-0.075
2021-08-19 15:25:15.612,-0.31,-0.1
2021-08-19 15:25:15.616,-0.31,-0.04
2021-08-19 15:25:15.620,-0.305,-0.03
2021-08-19 15:25:15.624,-0.28,-0.09
2021-08-19 15:25:15.628,-0.295,-0.12
2021-08-19 15:25:15.632,-0.275,-0.11
2021-08-19 15:25:15.636,-0.265,-0.12
2021-08-19 15:25:15.640,-0.265,-0.11
2021-08-19 15:25:15.644,-0.28,-0.11
2021-08-19 15:25:15.648,-0.25,-0.11
2021-08-19 15:25:15.652,-0.2,-0.09
2021-08-19 15:25:15.656,-0.16,-0.095
2021-08-19 15:25:15.660,-0.09,-0.085
2021-08-19 15:25:15.664,-0.045,-0.09
2021-08-19 15:25:15.668,0.03,-0.125
2021-08-19 15:25:15.672,0.08,-0.185
2021-08-19 15:25:15.676,0.13,-0.24
2021-08-19 15:25:15.680,0.195,-0.34
2021-08-19 15:25:15.684,0.205,-0.47
2021-08-19 15:25:15.688,0.22,-0.625
2021-08-19 15:25:15.692,0.23,-0.78
2021-08-19 15:25:15.696,0.29,-1.03
2021-08-19 15:25:15.700,0.44,-1.315
2021-08-19 15:25:15.704,0.72,-1.57
2021-08-19 15:25:15.708,1.04,-1.835
2021-08-19 15:25:15.724,0.19,-1.71
2021-08-19 15:25:15.728,-0.19,-1.27
2021-08-19 15:25:15.732,-0.41,-0.935
2021-08-19 15:25:15.736,-0.47,-0.695
2021-08-19 15:25:15.740,-0.525,-0.49
2021-08-19 15:25:15.744,-0.495,-0.335
2021-08-19 15:25:15.748,-0.49,-0.21
2021-08-19 15:25:15.752,-0.495,-0.115
2021-08-19 15:25:15.756,-0.5,-0.04
2021-08-19 15:25:15.760,-0.5,-0.01
2021-08-19 15:25:15.764,-0.485,0.005
2021-08-19 15:25:15.768,-0.49,0.04
2021-08-19 15:25:15.772,-0.5,0.025
2021-08-19 15:25:15.776,-0.475,0.045
2021-08-19 15:25:15.780,-0.47,0.06
2021-08-19 15:25:15.784,-0.47,0.065
2021-08-19 15:25:15.788,-0.49,0.085
2021-08-19 15:25:15.792,-0.47,0.085
2021-08-19 15:25:15.796,-0.46,0.085
2021-08-19 15:25:15.800,-0.455,0.1
2021-08-19 15:25:15.804,-0.475,0.11
2021-08-19 15:25:15.808,-0.475,0.12
2021-08-19 15:25:15.812,-0.49,0.11
2021-08-19 15:25:15.816,-0.485,0.11
2021-08-19 15:25:15.820,-0.495,0.11
2021-08-19 15:25:15.824,-0.495,0.135
2021-08-19 15:25:15.828,-0.495,0.14
2021-08-19 15:25:15.832,-0.475,0.15
2021-08-19 15:25:15.836,-0.465,0.145
2021-08-19 15:25:15.840,-0.46,0.12
2021-08-19 15:25:15.844,-0.465,0.11
2021-08-19 15:25:15.848,-0.465,0.165
2021-08-19 15:25:15.852,-0.445,0.17
2021-08-19 15:25:15.856,-0.46,0.185
2021-08-19 15:25:15.860,-0.455,0.23
2021-08-19 15:25:15.864,-0.46,0.245
2021-08-19 15:25:15.868,-0.47,0.21
2021-08-19 15:25:15.872,-0.465,0.18
2021-08-19 15:25:15.876,-0.445,0.19
2021-08-19 15:25:15.880,-0.445,0.195
2021-08-19 15:25:15.884,-0.44,0.19
2021-08-19 15:25:15.888,-0.425,0.175
2021-08-19 15:25:15.892,-0.44,0.19
2021-08-19 15:25:15.896,-0.42,0.19
2021-08-19 15:25:15.900,-0.41,0.175
2021-08-19 15:25:15.904,-0.4,0.15
2021-08-19 15:25:15.908,-0.405,0.15
2021-08-19 15:25:15.912,-0.395,0.135
2021-08-19 15:25:15.916,-0.375,0.135
2021-08-19 15:25:15.920,-0.37,0.145
2021-08-19 15:25:15.924,-0.375,0.13
2021-08-19 15:25:15.928,-0.37,0.1
2021-08-19 15:25:15.932,-0.355,0.08
2021-08-19 15:25:15.936,-0.36,0.055
2021-08-19 15:25:15.940,-0.345,0.06
2021-08-19 15:25:15.944,-0.34,0.04
2021-08-19 15:25:15.948,-0.34,0.05
2021-08-19 15:25:15.952,-0.31,0.05
2021-08-19 15:25:15.956,-0.325,0.01
2021-08-19 15:25:15.960,-0.32,-0.02
2021-08-19 15:25:15.964,-0.29,-0.045
2021-08-19 15:25:15.968,-0.25,-0.035
2021-08-19 15:25:15.972,-0.27,-0.05
2021-08-19 15:25:15.976,-0.28,-0.07
2021-08-19 15:25:15.980,-0.27,-0.065
2021-08-19 15:25:15.984,-0.27,-0.075
2021-08-19 15:25:15.988,-0.27,-0.07
2021-08-19 15:25:15.992,-0.265,-0.065
2021-08-19 15:25:15.996,-0.25,-0.065
2021-08-19 15:25:16.000,-0.245,-0.07
2021-08-19 15:25:16.004,-0.21,-0.085
2021-08-19 15:25:16.008,-0.23,-0.075
2021-08-19 15:25:16.012,-0.19,-0.035
2021-08-19 15:25:16.016,-0.21,-0.05
2021-08-19 15:25:16.020,-0.18,-0.055
2021-08-19 15:25:16.024,-0.15,-0.02
2021-08-19 15:25:16.028,-0.1,-0.005
2021-08-19 15:25:16.032,-0.045,0.0
2021-08-19 15:25:16.036,-0.025,0.03
2021-08-19 15:25:16.040,-0.01,0.04
2021-08-19 15:25:16.044,-0.015,0.015
2021-08-19 15:25:16.048,-0.005,0.015
2021-08-19 15:25:16.052,0.01,-0.01
2021-08-19 15:25:16.056,0.015,-0.02
2021-08-19 15:25:16.060,0.03,0.0
2021-08-19 15:25:16.064,0.04,-0.01
2021-08-19 15:25:16.068,0.0,-0.065
2021-08-19 15:25:16.072,-0.045,-0.1
2021-08-19 15:25:16.076,-0.105,-0.12
2021-08-19 15:25:16.080,-0.15,-0.16
2021-08-19 15:25:16.084,-0.215,-0.14
2021-08-19 15:25:16.088,-0.275,-0.125
2021-08-19 15:25:16.092,-0.35,-0.07
2021-08-19 15:25:16.096,-0.365,-0.055
2021-08-19 15:25:16.100,-0.42,-0.01
2021-08-19 15:25:16.104,-0.41,0.02
2021-08-19 15:25:16.108,-0.415,0.02
2021-08-19 15:25:16.112,-0.41,-0.005
2021-08-19 15:25:16.116,-0.415,-0.035
2021-08-19 15:25:16.120,-0.42,-0.05
2021-08-19 15:25:16.124,-0.4,-0.06
2021-08-19 15:25:16.128,-0.395,-0.075
2021-08-19 15:25:16.132,-0.42,-0.075
2021-08-19 15:25:16.136,-0.41,-0.1
2021-08-19 15:25:16.140,-0.41,-0.085
2021-08-19 15:25:16.144,-0.395,-0.075
2021-08-19 15:25:16.148,-0.38,-0.06
2021-08-19 15:25:16.152,-0.375,-0.065
2021-08-19 15:25:16.156,-0.38,-0.035
2021-08-19 15:25:16.160,-0.39,-0.04
2021-08-19 15:25:16.164,-0.395,-0.065
2021-08-19 15:25:16.168,-0.405,-0.075
2021-08-19 15:25:16.172,-0.385,-0.125
2021-08-19 15:25:16.176,-0.385,-0.125
2021-08-19 15:25:16.180,-0.37,-0.065
2021-08-19 15:25:16.184,-0.36,-0.065
2021-08-19 15:25:16.188,-0.35,-0.1
2021-08-19 15:25:16.192,-0.355,-0.115
2021-08-19 15:25:16.196,-0.37,-0.13
2021-08-19 15:25:16.200,-0.36,-0.105
2021-08-19 15:25:16.204,-0.36,-0.11
2021-08-19 15:25:16.208,-0.37,-0.105
2021-08-19 15:25:16.212,-0.365,-0.08
2021-08-19 15:25:16.216,-0.36,-0.07
2021-08-19 15:25:16.220,-0.33,-0.06
2021-08-19 15:25:16.224,-0.26,-0.1
2021-08-19 15:25:16.228,-0.19,-0.11
2021-08-19 15:25:16.232,-0.105,-0.115
2021-08-19 15:25:16.236,-0.015,-0.125
2021-08-19 15:25:16.240,0.05,-0.15
2021-08-19 15:25:16.244,0.12,-0.215
2021-08-19 15:25:16.248,0.2,-0.33
2021-08-19 15:25:16.252,0.23,-0.46
2021-08-19 15:25:16.256,0.27,-0.565
2021-08-19 15:25:16.260,0.25,-0.695
2021-08-19 15:25:16.264,0.27,-0.85
2021-08-19 15:25:16.268,0.345,-1.11
2021-08-19 15:25:16.272,0.575,-1.37
2021-08-19 15:25:16.276,0.855,-1.71
2021-08-19 15:25:16.280,1.1,-1.995
2021-08-19 15:25:16.292,0.38,-1.885
2021-08-19 15:25:16.296,-0.105,-1.42
2021-08-19 15:25:16.300,-0.36,-0.975
2021-08-19 15:25:16.304,-0.465,-0.69
2021-08-19 15:25:16.308,-0.48,-0.51
2021-08-19 15:25:16.312,-0.505,-0.38
2021-08-19 15:25:16.316,-0.495,-0.235
2021-08-19 15:25:16.320,-0.51,-0.105
2021-08-19 15:25:16.324,-0.52,-0.03
2021-08-19 15:25:16.328,-0.52,0.01
2021-08-19 15:25:16.332,-0.51,0.045
2021-08-19 15:25:16.336,-0.525,0.07
2021-08-19 15:25:16.340,-0.52,0.09
2021-08-19 15:25:16.344,-0.535,0.1
2021-08-19 15:25:16.348,-0.53,0.11
2021-08-19 15:25:16.352,-0.525,0.1
2021-08-19 15:25:16.356,-0.525,0.095
2021-08-19 15:25:16.360,-0.525,0.075
2021-08-19 15:25:16.364,-0.505,0.055
2021-08-19 15:25:16.368,-0.51,0.06
2021-08-19 15:25:16.372,-0.525,0.09
2021-08-19 15:25:16.376,-0.52,0.095
2021-08-19 15:25:16.380,-0.51,0.095
2021-08-19 15:25:16.384,-0.49,0.095
2021-08-19 15:25:16.388,-0.49,0.1
2021-08-19 15:25:16.392,-0.49,0.125
2021-08-19 15:25:16.396,-0.51,0.13
2021-08-19 15:25:16.400,-0.53,0.085
2021-08-19 15:25:16.404,-0.515,0.1
2021-08-19 15:25:16.408,-0.505,0.12
2021-08-19 15:25:16.412,-0.53,0.135
2021-08-19 15:25:16.416,-0.535,0.155
2021-08-19 15:25:16.420,-0.52,0.16
2021-08-19 15:25:16.424,-0.505,0.14
2021-08-19 15:25:16.428,-0.51,0.155
2021-08-19 15:25:16.432,-0.505,0.18
2021-08-19 15:25:16.436,-0.505,0.18
2021-08-19 15:25:16.440,-0.485,0.16
2021-08-19 15:25:16.444,-0.465,0.16
2021-08-19 15:25:16.448,-0.47,0.155
2021-08-19 15:25:16.452,-0.46,0.13
2021-08-19 15:25:16.456,-0.475,0.125
2021-08-19 15:25:16.460,-0.465,0.145
2021-08-19 15:25:16.464,-0.43,0.17
2021-08-19 15:25:16.468,-0.425,0.21
2021-08-19 15:25:16.472,-0.41,0.195
2021-08-19 15:25:16.476,-0.405,0.15
2021-08-19 15:25:16.480,-0.39,0.13
2021-08-19 15:25:16.484,-0.39,0.085
2021-08-19 15:25:16.488,-0.395,0.095
2021-08-19 15:25:16.492,-0.41,0.075
2021-08-19 15:25:16.496,-0.4,0.065
2021-08-19 15:25:16.500,-0.395,0.08
2021-08-19 15:25:16.504,-0.355,0.085
2021-08-19 15:25:16.508,-0.365,0.055
2021-08-19 15:25:16.512,-0.355,0.04
2021-08-19 15:25:16.516,-0.355,0.005
2021-08-19 15:25:16.520,-0.34,0.02
2021-08-19 15:25:16.524,-0.355,0.0
2021-08-19 15:25:16.528,-0.345,-0.03
2021-08-19 15:25:16.532,-0.32,-0.065
2021-08-19 15:25:16.536,-0.32,-0.11
2021-08-19 15:25:16.540,-0.305,-0.075
2021-08-19 15:25:16.544,-0.315,-0.08
2021-08-19 15:25:16.548,-0.285,-0.065
2021-08-19 15:25:16.552,-0.275,-0.08
2021-08-19 15:25:16.556,-0.3,-0.12
2021-08-19 15:25:16.560,-0.29,-0.14
2021-08-19 15:25:16.564,-0.28,-0.145
2021-08-19 15:25:16.568,-0.28,-0.125
2021-08-19 15:25:16.572,-0.26,-0.12
2021-08-19 15:25:16.576,-0.235,-0.135
2021-08-19 15:25:16.580,-0.21,-0.12
2021-08-19 15:25:16.584,-0.195,-0.11
2021-08-19 15:25:16.588,-0.19,-0.115
2021-08-19 15:25:16.592,-0.175,-0.095
2021-08-19 15:25:16.596,-0.165,-0.065
2021-08-19 15:25:16.600,-0.115,-0.065
2021-08-19 15:25:16.604,-0.07,-0.04
2021-08-19 15:25:16.608,-0.06,-0.03
2021-08-19 15:25:16.612,-0.03,-0.025
2021-08-19 15:25:16.616,0.01,-0.02
2021-08-19 15:25:16.620,0.01,-0.055
2021-08-19 15:25:16.624,0.005,-0.06
2021-08-19 15:25:16.628,0.0,-0.075
2021-08-19 15:25:16.632,0.01,-0.09
2021-08-19 15:25:16.636,-0.005,-0.12
2021-08-19 15:25:16.640,-0.03,-0.135
2021-08-19 15:25:16.644,-0.07,-0.15
2021-08-19 15:25:16.648,-0.1,-0.15
2021-08-19 15:25:16.652,-0.19,-0.13
2021-08-19 15:25:16.656,-0.265,-0.125
2021-08-19 15:25:16.660,-0.31,-0.125
2021-08-19 15:25:16.664,-0.345,-0.08
2021-08-19 15:25:16.668,-0.39,-0.04
2021-08-19 15:25:16.672,-0.41,-0.03
2021-08-19 15:25:16.676,-0.425,-0.025
2021-08-19 15:25:16.680,-0.425,-0.055
2021-08-19 15:25:16.684,-0.385,-0.065
2021-08-19 15:25:16.688,-0.375,-0.09
2021-08-19 15:25:16.692,-0.39,-0.12
2021-08-19 15:25:16.696,-0.365,-0.105
2021-08-19 15:25:16.700,-0.37,-0.1
2021-08-19 15:25:16.704,-0.39,-0.09
2021-08-19 15:25:16.708,-0.38,-0.08
2021-08-19 15:25:16.712,-0.375,-0.065
2021-08-19 15:25:16.716,-0.345,-0.075
2021-08-19 15:25:16.720,-0.38,-0.1
2021-08-19 15:25:16.724,-0.35,-0.145
2021-08-19 15:25:16.728,-0.35,-0.16
2021-08-19 15:25:16.732,-0.35,-0.13
2021-08-19 15:25:16.736,-0.36,-0.12
2021-08-19 15:25:16.740,-0.37,-0.15
2021-08-19 15:25:16.744,-0.37,-0.14
2021-08-19 15:25:16.748,-0.38,-0.155
2021-08-19 15:25:16.752,-0.365,-0.145
2021-08-19 15:25:16.756,-0.365,-0.14
2021-08-19 15:25:16.760,-0.36,-0.12
2021-08-19 15:25:16.764,-0.35,-0.12
2021-08-19 15:25:16.768,-0.345,-0.13
2021-08-19 15:25:16.772,-0.345,-0.13
2021-08-19 15:25:16.776,-0.33,-0.145
2021-08-19 15:25:16.780,-0.335,-0.15
2021-08-19 15:25:16.784,-0.315,-0.18
2021-08-19 15:25:16.788,-0.3,-0.175
2021-08-19 15:25:16.792,-0.245,-0.19
2021-08-19 15:25:16.796,-0.205,-0.195
2021-08-19 15:25:16.800,-0.125,-0.2
2021-08-19 15:25:16.804,-0.035,-0.215
2021-08-19 15:25:16.808,0.055,-0.225
2021-08-19 15:25:16.812,0.11,-0.29
2021-08-19 15:25:16.816,0.165,-0.34
2021-08-19 15:25:16.820,0.235,-0.455
2021-08-19 15:25:16.824,0.27,-0.55
2021-08-19 15:25:16.828,0.29,-0.655
2021-08-19 15:25:16.832,0.31,-0.825
2021-08-19 15:25:16.836,0.36,-1.04
2021-08-19 15:25:16.840,0.515,-1.3
2021-08-19 15:25:16.844,0.78,-1.56
2021-08-19 15:25:16.848,1.075,-1.81
2021-08-19 15:25:16.852,1.21,-1.985
2021-08-19 15:25:16.860,0.64,-1.945
2021-08-19 15:25:16.864,0.16,-1.565
2021-08-19 15:25:16.868,-0.175,-1.12
2021-08-19 15:25:16.872,-0.325,-0.795
2021-08-19 15:25:16.876,-0.375,-0.61
2021-08-19 15:25:16.880,-0.415,-0.46
2021-08-19 15:25:16.884,-0.42,-0.34
2021-08-19 15:25:16.888,-0.435,-0.23
2021-08-19 15:25:16.892,-0.455,-0.125
2021-08-19 15:25:16.896,-0.44,-0.035
2021-08-19 15:25:16.900,-0.465,0.02
2021-08-19 15:25:16.904,-0.47,0.04
2021-08-19 15:25:16.908,-0.465,0.045
2021-08-19 15:25:16.912,-0.465,0.065
2021-08-19 15:25:16.916,-0.46,0.05
2021-08-19 15:25:16.920,-0.485,0.04
2021-08-19 15:25:16.924,-0.475,0.04
2021-08-19 15:25:16.928,-0.485,0.045
2021-08-19 15:25:16.932,-0.5,0.045
2021-08-19 15:25:16.936,-0.485,0.055
2021-08-19 15:25:16.940,-0.48,0.065
2021-08-19 15:25:16.944,-0.5,0.07
2021-08-19 15:25:16.948,-0.475,0.065
2021-08-19 15:25:16.952,-0.485,0.08
2021-08-19 15:25:16.956,-0.485,0.1
2021-08-19 15:25:16.960,-0.495,0.07
2021-08-19 15:25:16.964,-0.49,0.085
2021-08-19 15:25:16.968,-0.48,0.09
2021-08-19 15:25:16.972,-0.485,0.125
2021-08-19 15:25:16.976,-0.49,0.135
2021-08-19 15:25:16.980,-0.495,0.115
2021-08-19 15:25:16.984,-0.48,0.08
2021-08-19 15:25:16.988,-0.47,0.085
2021-08-19 15:25:16.992,-0.485,0.095
2021-08-19 15:25:16.996,-0.48,0.085
2021-08-19 15:25:17.000,-0.475,0.095
2021-08-19 15:25:17.004,-0.46,0.11
2021-08-19 15:25:17.008,-0.45,0.12
2021-08-19 15:25:17.012,-0.46,0.14
2021-08-19 15:25:17.016,-0.445,0.175
2021-08-19 15:25:17.020,-0.45,0.145
2021-08-19 15:25:17.024,-0.445,0.16
2021-08-19 15:25:17.028,-0.435,0.15
2021-08-19 15:25:17.032,-0.435,0.135
2021-08-19 15:25:17.036,-0.415,0.12
2021-08-19 15:25:17.040,-0.41,0.07
2021-08-19 15:25:17.044,-0.4,0.08
2021-08-19 15:25:17.048,-0.365,0.12
2021-08-19 15:25:17.052,-0.37,0.1
2021-08-19 15:25:17.056,-0.365,0.115
2021-08-19 15:25:17.060,-0.37,0.075
2021-08-19 15:25:17.064,-0.345,0.06
2021-08-19 15:25:17.068,-0.35,0.06
2021-08-19 15:25:17.072,-0.33,0.065
2021-08-19 15:25:17.076,-0.325,0.025
2021-08-19 15:25:17.080,-0.32,0.0
2021-08-19 15:25:17.084,-0.295,0.0
2021-08-19 15:25:17.088,-0.295,-0.005
2021-08-19 15:25:17.092,-0.275,-0.02
2021-08-19 15:25:17.096,-0.285,-0.03
2021-08-19 15:25:17.100,-0.27,-0.035
2021-08-19 15:25:17.104,-0.27,-0.045
2021-08-19 15:25:17.108,-0.26,-0.065
2021-08-19 15:25:17.112,-0.265,-0.085
2021-08-19 15:25:17.116,-0.23,-0.095
2021-08-19 15:25:17.120,-0.24,-0.115
2021-08-19 15:25:17.124,-0.22,-0.125
2021-08-19 15:25:17.128,-0.21,-0.1
2021-08-19 15:25:17.132,-0.19,-0.07
2021-08-19 15:25:17.136,-0.18,-0.11
2021-08-19 15:25:17.140,-0.17,-0.12
2021-08-19 15:25:17.144,-0.17,-0.155
2021-08-19 15:25:17.148,-0.155,-0.11
2021-08-19 15:25:17.152,-0.125,-0.11
2021-08-19 15:25:17.156,-0.105,-0.065
2021-08-19 15:25:17.160,-0.08,-0.08
2021-08-19 15:25:17.164,-0.035,-0.085
2021-08-19 15:25:17.168,-0.015,-0.055
2021-08-19 15:25:17.172,0.005,-0.04
2021-08-19 15:25:17.176,0.015,-0.04
2021-08-19 15:25:17.180,0.035,-0.055
2021-08-19 15:25:17.184,0.07,-0.07
2021-08-19 15:25:17.188,0.075,-0.045
2021-08-19 15:25:17.192,0.065,-0.075
2021-08-19 15:25:17.196,0.06,-0.08
2021-08-19 15:25:17.200,0.045,-0.135
2021-08-19 15:25:17.204,0.005,-0.16
2021-08-19 15:25:17.208,-0.05,-0.16
2021-08-19 15:25:17.212,-0.1,-0.175
2021-08-19 15:25:17.216,-0.15,-0.15
2021-08-19 15:25:17.220,-0.205,-0.135
2021-08-19 15:25:17.224,-0.275,-0.105
2021-08-19 15:25:17.228,-0.295,-0.095
2021-08-19 15:25:17.232,-0.325,-0.04
2021-08-19 15:25:17.236,-0.33,0.0
2021-08-19 15:25:17.240,-0.36,0.0
2021-08-19 15:25:17.244,-0.345,-0.025
2021-08-19 15:25:17.248,-0.355,0.01
2021-08-19 15:25:17.252,-0.31,0.0
2021-08-19 15:25:17.256,-0.32,-0.02
2021-08-19 15:25:17.260,-0.315,-0.08
2021-08-19 15:25:17.264,-0.29,-0.11
2021-08-19 15:25:17.268,-0.285,-0.135
2021-08-19 15:25:17.272,-0.295,-0.105
2021-08-19 15:25:17.276,-0.275,-0.07
2021-08-19 15:25:17.280,-0.285,-0.1
2021-08-19 15:25:17.284,-0.29,-0.09
2021-08-19 15:25:17.288,-0.275,-0.12
2021-08-19 15:25:17.292,-0.28,-0.1
2021-08-19 15:25:17.296,-0.275,-0.12
2021-08-19 15:25:17.300,-0.28,-0.105
2021-08-19 15:25:17.304,-0.275,-0.1
2021-08-19 15:25:17.308,-0.27,-0.105
2021-08-19 15:25:17.312,-0.275,-0.105
2021-08-19 15:25:17.316,-0.275,-0.1
2021-08-19 15:25:17.320,-0.26,-0.1
2021-08-19 15:25:17.324,-0.25,-0.08
2021-08-19 15:25:17.328,-0.255,-0.09
2021-08-19 15:25:17.332,-0.28,-0.095
2021-08-19 15:25:17.336,-0.27,-0.1
2021-08-19 15:25:17.340,-0.265,-0.095
2021-08-19 15:25:17.344,-0.255,-0.085
2021-08-19 15:25:17.348,-0.26,-0.09
2021-08-19 15:25:17.352,-0.235,-0.145
2021-08-19 15:25:17.356,-0.2,-0.155
2021-08-19 15:25:17.360,-0.155,-0.15
2021-08-19 15:25:17.364,-0.055,-0.145
2021-08-19 15:25:17.368,0.025,-0.13
2021-08-19 15:25:17.372,0.075,-0.17
2021-08-19 15:25:17.376,0.135,-0.21
2021-08-19 15:25:17.380,0.185,-0.315
2021-08-19 15:25:17.384,0.225,-0.435
2021-08-19 15:25:17.388,0.26,-0.545
2021-08-19 15:25:17.392,0.235,-0.67
2021-08-19 15:25:17.396,0.24,-0.84
2021-08-19 15:25:17.400,0.35,-1.07
2021-08-19 15:25:17.404,0.54,-1.355
2021-08-19 15:25:17.408,0.845,-1.62
2021-08-19 15:25:17.412,1.155,-1.84
2021-08-19 15:25:17.424,0.65,-1.94
2021-08-19 15:25:17.428,0.1,-1.565
2021-08-19 15:25:17.432,-0.24,-1.155
2021-08-19 15:25:17.436,-0.4,-0.82
2021-08-19 15:25:17.440,-0.46,-0.615
2021-08-19 15:25:17.444,-0.465,-0.445
2021-08-19 15:25:17.448,-0.465,-0.285
2021-08-19 15:25:17.452,-0.45,-0.17
2021-08-19 15:25:17.456,-0.43,-0.125
2021-08-19 15:25:17.460,-0.42,-0.035
2021-08-19 15:25:17.464,-0.43,0.0
2021-08-19 15:25:17.468,-0.42,0.03
2021-08-19 15:25:17.472,-0.435,0.045
2021-08-19 15:25:17.476,-0.44,0.06
2021-08-19 15:25:17.480,-0.445,0.055
2021-08-19 15:25:17.484,-0.415,0.09
2021-08-19 15:25:17.488,-0.415,0.07
2021-08-19 15:25:17.492,-0.425,0.075
2021-08-19 15:25:17.496,-0.43,0.075
2021-08-19 15:25:17.500,-0.425,0.09
2021-08-19 15:25:17.504,-0.41,0.105
2021-08-19 15:25:17.508,-0.42,0.11
2021-08-19 15:25:17.512,-0.425,0.1
2021-08-19 15:25:17.516,-0.445,0.085
2021-08-19 15:25:17.520,-0.43,0.11
2021-08-19 15:25:17.524,-0.425,0.1
2021-08-19 15:25:17.528,-0.445,0.125
2021-08-19 15:25:17.532,-0.42,0.12
2021-08-19 15:25:17.536,-0.44,0.115
2021-08-19 15:25:17.540,-0.445,0.14
2021-08-19 15:25:17.544,-0.455,0.135
2021-08-19 15:25:17.548,-0.445,0.15
2021-08-19 15:25:17.552,-0.46,0.17
2021-08-19 15:25:17.556,-0.465,0.19
2021-08-19 15:25:17.560,-0.47,0.195
2021-08-19 15:25:17.564,-0.455,0.225
2021-08-19 15:25:17.568,-0.455,0.195
2021-08-19 15:25:17.572,-0.43,0.14
2021-08-19 15:25:17.576,-0.43,0.09
2021-08-19 15:25:17.580,-0.43,0.07
2021-08-19 15:25:17.584,-0.415,0.095
2021-08-19 15:25:17.588,-0.405,0.115
2021-08-19 15:25:17.592,-0.415,0.16
2021-08-19 15:25:17.596,-0.395,0.175
2021-08-19 15:25:17.600,-0.38,0.17
2021-08-19 15:25:17.604,-0.36,0.15
2021-08-19 15:25:17.608,-0.355,0.105
2021-08-19 15:25:17.612,-0.38,0.09
2021-08-19 15:25:17.616,-0.36,0.09
2021-08-19 15:25:17.620,-0.375,0.095
2021-08-19 15:25:17.624,-0.36,0.095
2021-08-19 15:25:17.628,-0.345,0.085
2021-08-19 15:25:17.632,-0.34,0.08
2021-08-19 15:25:17.636,-0.32,0.075
2021-08-19 15:25:17.640,-0.315,0.06
2021-08-19 15:25:17.644,-0.3,0.06
2021-08-19 15:25:17.648,-0.285,0.04
2021-08-19 15:25:17.652,-0.28,0.035
2021-08-19 15:25:17.656,-0.265,0.0
2021-08-19 15:25:17.660,-0.245,-0.01
2021-08-19 15:25:17.664,-0.245,-0.03
2021-08-19 15:25:17.668,-0.25,-0.05
2021-08-19 15:25:17.672,-0.26,-0.08
2021-08-19 15:25:17.676,-0.235,-0.08
2021-08-19 15:25:17.680,-0.2,-0.075
2021-08-19 15:25:17.684,-0.195,-0.07
2021-08-19 15:25:17.688,-0.18,-0.07
2021-08-19 15:25:17.692,-0.185,-0.07
2021-08-19 15:25:17.696,-0.155,-0.07
2021-08-19 15:25:17.700,-0.15,-0.085
2021-08-19 15:25:17.704,-0.15,-0.1
2021-08-19 15:25:17.708,-0.14,-0.11
2021-08-19 15:25:17.712,-0.115,-0.09
2021-08-19 15:25:17.716,-0.075,-0.055
2021-08-19 15:25:17.720,-0.025,-0.05
2021-08-19 15:25:17.724,0.0,-0.015
2021-08-19 15:25:17.728,0.015,-0.025
2021-08-19 15:25:17.732,0.035,-0.025
2021-08-19 15:25:17.736,0.04,-0.03
2021-08-19 15:25:17.740,0.045,-0.05
2021-08-19 15:25:17.744,0.04,-0.045
2021-08-19 15:25:17.748,0.04,-0.08
2021-08-19 15:25:17.752,0.025,-0.095
2021-08-19 15:25:17.756,-0.01,-0.11
2021-08-19 15:25:17.760,-0.06,-0.145
2021-08-19 15:25:17.764,-0.1,-0.17
2021-08-19 15:25:17.768,-0.15,-0.15
2021-08-19 15:25:17.772,-0.225,-0.135
2021-08-19 15:25:17.776,-0.25,-0.095
2021-08-19 15:25:17.780,-0.315,-0.055
2021-08-19 15:25:17.784,-0.365,-0.075
2021-08-19 15:25:17.788,-0.38,-0.085
2021-08-19 15:25:17.792,-0.39,-0.06
2021-08-19 15:25:17.796,-0.41,-0.065
2021-08-19 15:25:17.800,-0.4,-0.04
2021-08-19 15:25:17.804,-0.39,-0.045
2021-08-19 15:25:17.808,-0.375,-0.05
2021-08-19 15:25:17.812,-0.375,-0.06
2021-08-19 15:25:17.816,-0.41,-0.07
2021-08-19 15:25:17.820,-0.4,-0.065
2021-08-19 15:25:17.824,-0.395,-0.075
2021-08-19 15:25:17.828,-0.375,-0.055
2021-08-19 15:25:17.832,-0.35,-0.075
2021-08-19 15:25:17.836,-0.37,-0.08
2021-08-19 15:25:17.840,-0.37,-0.085
2021-08-19 15:25:17.844,-0.355,-0.125
2021-08-19 15:25:17.848,-0.345,-0.145
2021-08-19 15:25:17.852,-0.35,-0.135
2021-08-19 15:25:17.856,-0.335,-0.11
2021-08-19 15:25:17.860,-0.315,-0.1
2021-08-19 15:25:17.864,-0.315,-0.11
2021-08-19 15:25:17.868,-0.325,-0.135
2021-08-19 15:25:17.872,-0.33,-0.12
2021-08-19 15:25:17.876,-0.315,-0.105
2021-08-19 15:25:17.880,-0.325,-0.08
2021-08-19 15:25:17.884,-0.34,-0.085
2021-08-19 15:25:17.888,-0.315,-0.08
2021-08-19 15:25:17.892,-0.315,-0.1
2021-08-19 15:25:17.896,-0.32,-0.095
2021-08-19 15:25:17.900,-0.3,-0.1
2021-08-19 15:25:17.904,-0.31,-0.08
2021-08-19 15:25:17.908,-0.29,-0.07
2021-08-19 15:25:17.912,-0.24,-0.075
2021-08-19 15:25:17.916,-0.19,-0.09
2021-08-19 15:25:17.920,-0.115,-0.085
2021-08-19 15:25:17.924,-0.045,-0.12
2021-08-19 15:25:17.928,0.03,-0.18
2021-08-19 15:25:17.932,0.09,-0.235
2021-08-19 15:25:17.936,0.12,-0.32
2021-08-19 15:25:17.940,0.175,-0.4
2021-08-19 15:25:17.944,0.195,-0.51
2021-08-19 15:25:17.948,0.18,-0.68
2021-08-19 15:25:17.952,0.205,-0.89
2021-08-19 15:25:17.956,0.27,-1.14
2021-08-19 15:25:17.960,0.48,-1.42
2021-08-19 15:25:17.964,0.775,-1.64
2021-08-19 15:25:17.968,1.095,-1.905
2021-08-19 15:25:17.980,0.605,-1.94
2021-08-19 15:25:17.984,0.065,-1.52
2021-08-19 15:25:17.988,-0.26,-1.1
2021-08-19 15:25:17.992,-0.435,-0.77
2021-08-19 15:25:17.996,-0.485,-0.585
2021-08-19 15:25:18.000,-0.48,-0.44
2021-08-19 15:25:18.004,-0.51,-0.265
2021-08-19 15:25:18.008,-0.515,-0.13
2021-08-19 15:25:18.012,-0.515,-0.055
2021-08-19 15:25:18.016,-0.51,-0.045
2021-08-19 15:25:18.020,-0.505,-0.02
2021-08-19 15:25:18.024,-0.505,0.015
2021-08-19 15:25:18.028,-0.515,0.05
2021-08-19 15:25:18.032,-0.505,0.09
2021-08-19 15:25:18.036,-0.5,0.09
2021-08-19 15:25:18.040,-0.48,0.07
2021-08-19 15:25:18.044,-0.49,0.09
2021-08-19 15:25:18.048,-0.485,0.07
2021-08-19 15:25:18.052,-0.5,0.08
2021-08-19 15:25:18.056,-0.485,0.095
2021-08-19 15:25:18.060,-0.48,0.09
2021-08-19 15:25:18.064,-0.475,0.095
2021-08-19 15:25:18.068,-0.475,0.12
2021-08-19 15:25:18.072,-0.475,0.095
2021-08-19 15:25:18.076,-0.465,0.11
2021-08-19 15:25:18.080,-0.47,0.12
2021-08-19 15:25:18.084,-0.475,0.155
2021-08-19 15:25:18.088,-0.485,0.175
2021-08-19 15:25:18.092,-0.47,0.145
2021-08-19 15:25:18.096,-0.475,0.135
2021-08-19 15:25:18.100,-0.49,0.12
2021-08-19 15:25:18.104,-0.47,0.155
2021-08-19 15:25:18.108,-0.465,0.195
2021-08-19 15:25:18.112,-0.48,0.175
2021-08-19 15:25:18.116,-0.48,0.21
2021-08-19 15:25:18.120,-0.495,0.22
2021-08-19 15:25:18.124,-0.485,0.195
2021-08-19 15:25:18.128,-0.455,0.19
2021-08-19 15:25:18.132,-0.475,0.19
2021-08-19 15:25:18.136,-0.48,0.19
2021-08-19 15:25:18.140,-0.465,0.19
2021-08-19 15:25:18.144,-0.47,0.19
2021-08-19 15:25:18.148,-0.45,0.22
2021-08-19 15:25:18.152,-0.45,0.185
2021-08-19 15:25:18.156,-0.44,0.17
2021-08-19 15:25:18.160,-0.43,0.155
2021-08-19 15:25:18.164,-0.43,0.15
2021-08-19 15:25:18.168,-0.4,0.135
2021-08-19 15:25:18.172,-0.4,0.155
2021-08-19 15:25:18.176,-0.4,0.125
2021-08-19 15:25:18.180,-0.395,0.1
2021-08-19 15:25:18.184,-0.4,0.09
2021-08-19 15:25:18.188,-0.395,0.07
2021-08-19 15:25:18.192,-0.4,0.055
2021-08-19 15:25:18.196,-0.4,0.045
2021-08-19 15:25:18.200,-0.385,0.03
2021-08-19 15:25:18.204,-0.365,0.015
2021-08-19 15:25:18.208,-0.355,0.015
2021-08-19 15:25:18.212,-0.35,-0.005
2021-08-19 15:25:18.216,-0.335,0.0
2021-08-19 15:25:18.220,-0.315,0.0
2021-08-19 15:25:18.224,-0.33,-0.04
2021-08-19 15:25:18.228,-0.34,-0.05
2021-08-19 15:25:18.232,-0.32,-0.085
2021-08-19 15:25:18.236,-0.305,-0.07
2021-08-19 15:25:18.240,-0.295,-0.065
2021-08-19 15:25:18.244,-0.29,-0.045
2021-08-19 15:25:18.248,-0.3,-0.055
2021-08-19 15:25:18.252,-0.29,-0.06
2021-08-19 15:25:18.256,-0.285,-0.055
2021-08-19 15:25:18.260,-0.27,-0.1
2021-08-19 15:25:18.264,-0.25,-0.07
2021-08-19 15:25:18.268,-0.245,-0.08
2021-08-19 15:25:18.272,-0.24,-0.075
2021-08-19 15:25:18.276,-0.215,-0.07
2021-08-19 15:25:18.280,-0.215,-0.06
2021-08-19 15:25:18.284,-0.22,-0.04
2021-08-19 15:25:18.288,-0.2,-0.06
2021-08-19 15:25:18.292,-0.2,-0.05
2021-08-19 15:25:18.296,-0.21,-0.06
2021-08-19 15:25:18.300,-0.16,0.0
2021-08-19 15:25:18.304,-0.115,0.01
