Time,ECG1,ECG2
2021-08-19 02:46:34.000,0.145,-0.205
2021-08-19 02:46:34.000,0.145,-0.19
2021-08-19 02:46:34.000,0.165,-0.185
2021-08-19 02:46:34.000,0.155,-0.19
2021-08-19 02:46:35.000,0.17,-0.2
2021-08-19 02:46:35.000,0.145,-0.19
2021-08-19 02:46:35.000,0.145,-0.18
2021-08-19 02:46:35.000,0.145,-0.195
2021-08-19 02:46:36.000,0.155,-0.155
2021-08-19 02:46:36.000,0.145,-0.13
2021-08-19 02:46:36.000,0.135,-0.07
2021-08-19 02:46:36.000,0.155,-0.07
2021-08-19 02:46:36.000,0.15,-0.035
2021-08-19 02:46:37.000,0.15,0.105
2021-08-19 02:46:37.000,0.16,0.34
2021-08-19 02:46:37.000,0.18,0.56
2021-08-19 02:46:37.000,0.195,0.75
2021-08-19 02:46:38.000,0.19,0.83
2021-08-19 02:46:38.000,0.155,0.845
2021-08-19 02:46:38.000,0.085,0.78
2021-08-19 02:46:38.000,0.06,0.605
2021-08-19 02:46:39.000,-0.01,0.29
2021-08-19 02:46:39.000,-0.155,0.07
2021-08-19 02:46:39.000,-0.465,0.1
2021-08-19 02:46:39.000,-0.795,0.26
2021-08-19 02:46:40.000,-1.095,0.25
2021-08-19 02:46:40.000,-1.285,0.005
2021-08-19 02:46:40.000,-1.33,-0.295
2021-08-19 02:46:40.000,-1.19,-0.52
2021-08-19 02:46:41.000,-0.835,-0.625
2021-08-19 02:46:41.000,-0.395,-0.605
2021-08-19 02:46:41.000,-0.075,-0.535
2021-08-19 02:46:41.000,0.04,-0.405
2021-08-19 02:46:42.000,0.035,-0.33
2021-08-19 02:46:42.000,0.0,-0.34
2021-08-19 02:46:42.000,0.0,-0.345
2021-08-19 02:46:42.000,-0.015,-0.34
2021-08-19 02:46:42.000,0.025,-0.33
2021-08-19 02:46:43.000,0.08,-0.335
2021-08-19 02:46:43.000,0.145,-0.34
2021-08-19 02:46:43.000,0.17,-0.33
2021-08-19 02:46:43.000,0.185,-0.335
2021-08-19 02:46:44.000,0.2,-0.345
2021-08-19 02:46:44.000,0.185,-0.345
2021-08-19 02:46:44.000,0.225,-0.32
2021-08-19 02:46:44.000,0.23,-0.345
2021-08-19 02:46:45.000,0.22,-0.345
2021-08-19 02:46:45.000,0.215,-0.335
2021-08-19 02:46:45.000,0.21,-0.345
2021-08-19 02:46:45.000,0.215,-0.33
2021-08-19 02:46:46.000,0.205,-0.355
2021-08-19 02:46:46.000,0.205,-0.33
2021-08-19 02:46:46.000,0.205,-0.34
2021-08-19 02:46:46.000,0.23,-0.34
2021-08-19 02:46:47.000,0.215,-0.345
2021-08-19 02:46:47.000,0.215,-0.32
2021-08-19 02:46:47.000,0.235,-0.34
2021-08-19 02:46:47.000,0.215,-0.35
2021-08-19 02:46:48.000,0.205,-0.355
2021-08-19 02:46:48.000,0.205,-0.34
2021-08-19 02:46:48.000,0.225,-0.35
2021-08-19 02:46:48.000,0.21,-0.35
2021-08-19 02:46:48.000,0.235,-0.355
2021-08-19 02:46:49.000,0.215,-0.375
2021-08-19 02:46:49.000,0.21,-0.375
2021-08-19 02:46:49.000,0.215,-0.37
2021-08-19 02:46:49.000,0.215,-0.39
2021-08-19 02:46:50.000,0.23,-0.38
2021-08-19 02:46:50.000,0.205,-0.395
2021-08-19 02:46:50.000,0.22,-0.385
2021-08-19 02:46:50.000,0.22,-0.385
2021-08-19 02:46:51.000,0.21,-0.405
2021-08-19 02:46:51.000,0.215,-0.4
2021-08-19 02:46:51.000,0.195,-0.38
2021-08-19 02:46:51.000,0.185,-0.39
2021-08-19 02:46:52.000,0.2,-0.42
2021-08-19 02:46:52.000,0.185,-0.4
2021-08-19 02:46:52.000,0.2,-0.39
2021-08-19 02:46:52.000,0.195,-0.4
2021-08-19 02:46:53.000,0.2,-0.375
2021-08-19 02:46:53.000,0.19,-0.395
2021-08-19 02:46:53.000,0.205,-0.37
2021-08-19 02:46:53.000,0.195,-0.365
2021-08-19 02:46:54.000,0.18,-0.345
2021-08-19 02:46:54.000,0.165,-0.32
2021-08-19 02:46:54.000,0.185,-0.315
2021-08-19 02:46:54.000,0.16,-0.31
2021-08-19 02:46:54.000,0.165,-0.29
2021-08-19 02:46:55.000,0.185,-0.27
2021-08-19 02:46:55.000,0.155,-0.255
2021-08-19 02:46:55.000,0.155,-0.245
2021-08-19 02:46:55.000,0.15,-0.21
2021-08-19 02:46:56.000,0.15,-0.195
2021-08-19 02:46:56.000,0.125,-0.19
2021-08-19 02:46:56.000,0.13,-0.205
2021-08-19 02:46:56.000,0.12,-0.175
2021-08-19 02:46:57.000,0.125,-0.19
2021-08-19 02:46:57.000,0.12,-0.185
2021-08-19 02:46:57.000,0.12,-0.185
2021-08-19 02:46:57.000,0.115,-0.185
2021-08-19 02:46:58.000,0.135,-0.185
2021-08-19 02:46:58.000,0.105,-0.175
2021-08-19 02:46:58.000,0.1,-0.19
2021-08-19 02:46:58.000,0.11,-0.18
2021-08-19 02:46:59.000,0.125,-0.19
2021-08-19 02:46:59.000,0.105,-0.175
2021-08-19 02:46:59.000,0.12,-0.195
2021-08-19 02:46:59.000,0.115,-0.18
2021-08-19 02:47:00.000,0.125,-0.195
2021-08-19 02:47:00.000,0.14,-0.2
2021-08-19 02:47:00.000,0.13,-0.19
2021-08-19 02:47:00.000,0.125,-0.215
2021-08-19 02:47:00.000,0.145,-0.225
2021-08-19 02:47:01.000,0.12,-0.205
2021-08-19 02:47:01.000,0.135,-0.2
2021-08-19 02:47:01.000,0.135,-0.19
2021-08-19 02:47:01.000,0.14,-0.205
2021-08-19 02:47:02.000,0.14,-0.185
2021-08-19 02:47:02.000,0.13,-0.19
2021-08-19 02:47:02.000,0.15,-0.19
2021-08-19 02:47:02.000,0.15,-0.19
2021-08-19 02:47:03.000,0.135,-0.2
2021-08-19 02:47:03.000,0.155,-0.205
2021-08-19 02:47:03.000,0.16,-0.21
2021-08-19 02:47:03.000,0.155,-0.215
2021-08-19 02:47:04.000,0.16,-0.195
2021-08-19 02:47:04.000,0.165,-0.215
2021-08-19 02:47:04.000,0.165,-0.215
2021-08-19 02:47:04.000,0.16,-0.2
2021-08-19 02:47:05.000,0.165,-0.2
2021-08-19 02:47:05.000,0.16,-0.2
2021-08-19 02:47:05.000,0.145,-0.19
2021-08-19 02:47:05.000,0.13,-0.195
2021-08-19 02:46:33.412,0.04,-0.2
2021-08-19 02:46:33.416,0.04,-0.2
2021-08-19 02:46:33.420,0.04,-0.225
2021-08-19 02:46:33.424,0.025,-0.24
2021-08-19 02:46:33.428,0.035,-0.21
2021-08-19 02:46:33.432,0.03,-0.21
2021-08-19 02:46:33.436,0.04,-0.21
2021-08-19 02:46:33.440,0.05,-0.225
2021-08-19 02:46:33.444,0.06,-0.205
2021-08-19 02:46:33.448,0.06,-0.23
2021-08-19 02:46:33.452,0.04,-0.24
2021-08-19 02:46:33.456,0.045,-0.225
2021-08-19 02:46:33.460,0.03,-0.215
2021-08-19 02:46:33.464,0.055,-0.225
2021-08-19 02:46:33.468,0.04,-0.215
2021-08-19 02:46:33.472,0.07,-0.22
2021-08-19 02:46:33.476,0.045,-0.215
2021-08-19 02:46:33.480,0.055,-0.22
2021-08-19 02:46:33.484,0.04,-0.23
2021-08-19 02:46:33.488,0.03,-0.215
2021-08-19 02:46:33.492,0.03,-0.24
2021-08-19 02:46:33.496,0.04,-0.23
2021-08-19 02:46:33.500,0.025,-0.24
2021-08-19 02:46:33.504,0.02,-0.23
2021-08-19 02:46:33.508,0.045,-0.24
2021-08-19 02:46:33.512,0.045,-0.23
2021-08-19 02:46:33.516,0.03,-0.22
2021-08-19 02:46:33.520,0.045,-0.22
2021-08-19 02:46:33.524,0.04,-0.22
2021-08-19 02:46:33.528,0.025,-0.225
2021-08-19 02:46:33.532,0.035,-0.205
2021-08-19 02:46:33.536,0.055,-0.21
2021-08-19 02:46:33.540,0.035,-0.205
2021-08-19 02:46:33.544,0.04,-0.225
2021-08-19 02:46:33.548,0.045,-0.23
2021-08-19 02:46:33.552,0.03,-0.22
2021-08-19 02:46:33.556,0.02,-0.235
2021-08-19 02:46:33.560,0.04,-0.22
2021-08-19 02:46:33.564,0.06,-0.23
2021-08-19 02:46:33.568,0.05,-0.23
2021-08-19 02:46:33.572,0.05,-0.23
2021-08-19 02:46:33.576,0.035,-0.225
2021-08-19 02:46:33.580,0.05,-0.23
2021-08-19 02:46:33.584,0.045,-0.23
2021-08-19 02:46:33.588,0.055,-0.225
2021-08-19 02:46:33.592,0.055,-0.225
2021-08-19 02:46:33.596,0.045,-0.21
2021-08-19 02:46:33.600,0.065,-0.21
2021-08-19 02:46:33.604,0.045,-0.215
2021-08-19 02:46:33.608,0.06,-0.225
2021-08-19 02:46:33.612,0.035,-0.24
2021-08-19 02:46:33.616,0.05,-0.23
2021-08-19 02:46:33.620,0.05,-0.235
2021-08-19 02:46:33.624,0.03,-0.21
2021-08-19 02:46:33.628,0.02,-0.21
2021-08-19 02:46:33.632,0.03,-0.22
2021-08-19 02:46:33.636,0.04,-0.225
2021-08-19 02:46:33.640,0.065,-0.225
2021-08-19 02:46:33.644,0.05,-0.24
2021-08-19 02:46:33.648,0.035,-0.235
2021-08-19 02:46:33.652,0.035,-0.225
2021-08-19 02:46:33.656,0.05,-0.22
2021-08-19 02:46:33.660,0.04,-0.23
2021-08-19 02:46:33.664,0.045,-0.235
2021-08-19 02:46:33.668,0.05,-0.24
2021-08-19 02:46:33.672,0.04,-0.235
2021-08-19 02:46:33.676,0.065,-0.24
2021-08-19 02:46:33.680,0.055,-0.25
2021-08-19 02:46:33.684,0.06,-0.23
2021-08-19 02:46:33.688,0.06,-0.23
2021-08-19 02:46:33.692,0.04,-0.225
2021-08-19 02:46:33.696,0.065,-0.22
2021-08-19 02:46:33.700,0.06,-0.22
2021-08-19 02:46:33.704,0.055,-0.22
2021-08-19 02:46:33.708,0.04,-0.215
2021-08-19 02:46:33.712,0.07,-0.22
2021-08-19 02:46:33.716,0.06,-0.215
2021-08-19 02:46:33.720,0.065,-0.22
2021-08-19 02:46:33.724,0.06,-0.225
2021-08-19 02:46:33.728,0.055,-0.225
2021-08-19 02:46:33.732,0.065,-0.22
2021-08-19 02:46:33.736,0.06,-0.22
2021-08-19 02:46:33.740,0.07,-0.215
2021-08-19 02:46:33.744,0.075,-0.21
2021-08-19 02:46:33.748,0.055,-0.24
2021-08-19 02:46:33.752,0.07,-0.24
2021-08-19 02:46:33.756,0.065,-0.235
2021-08-19 02:46:33.760,0.07,-0.23
2021-08-19 02:46:33.764,0.08,-0.23
2021-08-19 02:46:33.768,0.08,-0.24
2021-08-19 02:46:33.772,0.09,-0.23
2021-08-19 02:46:33.776,0.085,-0.23
2021-08-19 02:46:33.780,0.075,-0.235
2021-08-19 02:46:33.784,0.06,-0.235
2021-08-19 02:46:33.788,0.08,-0.22
2021-08-19 02:46:33.792,0.06,-0.21
2021-08-19 02:46:33.796,0.065,-0.215
2021-08-19 02:46:33.800,0.06,-0.23
2021-08-19 02:46:33.804,0.055,-0.225
2021-08-19 02:46:33.808,0.06,-0.235
2021-08-19 02:46:33.812,0.065,-0.23
2021-08-19 02:46:33.816,0.07,-0.235
2021-08-19 02:46:33.820,0.085,-0.23
2021-08-19 02:46:33.824,0.07,-0.225
2021-08-19 02:46:33.828,0.065,-0.225
2021-08-19 02:46:33.832,0.085,-0.22
2021-08-19 02:46:33.836,0.07,-0.22
2021-08-19 02:46:33.840,0.07,-0.24
2021-08-19 02:46:33.844,0.08,-0.24
2021-08-19 02:46:33.848,0.045,-0.225
2021-08-19 02:46:33.852,0.085,-0.23
2021-08-19 02:46:33.856,0.08,-0.25
2021-08-19 02:46:33.860,0.07,-0.225
2021-08-19 02:46:33.864,0.06,-0.24
2021-08-19 02:46:33.868,0.06,-0.23
2021-08-19 02:46:33.872,0.065,-0.23
2021-08-19 02:46:33.876,0.06,-0.22
2021-08-19 02:46:33.880,0.08,-0.21
2021-08-19 02:46:33.884,0.08,-0.235
2021-08-19 02:46:33.888,0.07,-0.26
2021-08-19 02:46:33.892,0.06,-0.255
2021-08-19 02:46:33.896,0.08,-0.25
2021-08-19 02:46:33.900,0.07,-0.245
2021-08-19 02:46:33.904,0.06,-0.235
2021-08-19 02:46:33.908,0.06,-0.23
2021-08-19 02:46:33.912,0.065,-0.235
2021-08-19 02:46:33.916,0.065,-0.23
2021-08-19 02:46:33.920,0.06,-0.245
2021-08-19 02:46:33.924,0.065,-0.225
2021-08-19 02:46:33.928,0.065,-0.225
2021-08-19 02:46:33.932,0.065,-0.235
2021-08-19 02:46:33.936,0.06,-0.2
2021-08-19 02:46:33.940,0.08,-0.175
2021-08-19 02:46:33.944,0.085,-0.14
2021-08-19 02:46:33.948,0.08,-0.1
2021-08-19 02:46:33.952,0.085,-0.07
2021-08-19 02:46:33.956,0.085,-0.09
2021-08-19 02:46:33.960,0.095,-0.07
2021-08-19 02:46:33.964,0.105,-0.06
2021-08-19 02:46:33.968,0.12,-0.06
2021-08-19 02:46:33.972,0.145,-0.07
2021-08-19 02:46:33.976,0.14,-0.115
2021-08-19 02:46:33.980,0.175,-0.105
2021-08-19 02:46:33.984,0.18,-0.125
2021-08-19 02:46:33.988,0.18,-0.12
2021-08-19 02:46:33.992,0.165,-0.12
2021-08-19 02:46:33.996,0.155,-0.13
2021-08-19 02:46:34.000,0.125,-0.15
2021-08-19 02:46:34.004,0.13,-0.2
2021-08-19 02:46:34.008,0.11,-0.24
2021-08-19 02:46:34.012,0.09,-0.26
2021-08-19 02:46:34.016,0.09,-0.24
2021-08-19 02:46:34.020,0.045,-0.21
2021-08-19 02:46:34.024,0.05,-0.175
2021-08-19 02:46:34.028,0.005,-0.14
2021-08-19 02:46:34.032,0.0,-0.15
2021-08-19 02:46:34.036,0.0,-0.145
2021-08-19 02:46:34.040,0.02,-0.17
2021-08-19 02:46:34.044,0.005,-0.18
2021-08-19 02:46:34.048,0.01,-0.17
2021-08-19 02:46:34.052,0.01,-0.17
2021-08-19 02:46:34.056,0.04,-0.19
2021-08-19 02:46:34.060,0.02,-0.21
2021-08-19 02:46:34.064,0.03,-0.22
2021-08-19 02:46:34.068,0.04,-0.22
2021-08-19 02:46:34.072,0.025,-0.23
2021-08-19 02:46:34.076,0.085,-0.25
2021-08-19 02:46:34.080,0.1,-0.21
2021-08-19 02:46:34.084,0.12,-0.225
2021-08-19 02:46:34.088,0.11,-0.23
2021-08-19 02:46:34.092,0.125,-0.24
2021-08-19 02:46:34.096,0.105,-0.225
2021-08-19 02:46:34.100,0.095,-0.215
2021-08-19 02:46:34.104,0.11,-0.235
2021-08-19 02:46:34.108,0.08,-0.21
2021-08-19 02:46:34.112,0.08,-0.195
2021-08-19 02:46:34.116,0.1,-0.175
2021-08-19 02:46:34.120,0.1,-0.165
2021-08-19 02:46:34.124,0.095,-0.145
2021-08-19 02:46:34.128,0.1,-0.08
2021-08-19 02:46:34.132,0.1,0.06
2021-08-19 02:46:34.136,0.1,0.325
2021-08-19 02:46:34.140,0.13,0.62
2021-08-19 02:46:34.144,0.135,0.855
2021-08-19 02:46:34.148,0.165,1.05
2021-08-19 02:46:34.152,0.13,1.16
2021-08-19 02:46:34.156,0.11,1.165
2021-08-19 02:46:34.160,0.08,1.01
2021-08-19 02:46:34.164,0.075,0.72
2021-08-19 02:46:34.168,0.01,0.31
2021-08-19 02:46:34.172,-0.175,0.0
2021-08-19 02:46:34.176,-0.465,-0.04
2021-08-19 02:46:34.180,-0.755,-0.01
2021-08-19 02:46:34.184,-0.995,-0.13
2021-08-19 02:46:34.188,-1.095,-0.36
2021-08-19 02:46:34.192,-1.075,-0.555
2021-08-19 02:46:34.196,-0.88,-0.67
2021-08-19 02:46:34.200,-0.56,-0.72
2021-08-19 02:46:34.204,-0.26,-0.675
2021-08-19 02:46:34.208,-0.135,-0.585
2021-08-19 02:46:34.212,-0.13,-0.495
2021-08-19 02:46:34.216,-0.1,-0.43
2021-08-19 02:46:34.220,-0.115,-0.43
2021-08-19 02:46:34.224,-0.095,-0.435
2021-08-19 02:46:34.228,-0.06,-0.445
2021-08-19 02:46:34.232,-0.01,-0.445
2021-08-19 02:46:34.236,0.05,-0.435
2021-08-19 02:46:34.240,0.09,-0.445
2021-08-19 02:46:34.244,0.115,-0.45
2021-08-19 02:46:34.248,0.135,-0.45
2021-08-19 02:46:34.252,0.14,-0.445
2021-08-19 02:46:34.256,0.13,-0.445
2021-08-19 02:46:34.260,0.155,-0.45
2021-08-19 02:46:34.264,0.16,-0.43
2021-08-19 02:46:34.268,0.195,-0.46
2021-08-19 02:46:34.272,0.155,-0.46
2021-08-19 02:46:34.276,0.165,-0.435
2021-08-19 02:46:34.280,0.16,-0.455
2021-08-19 02:46:34.284,0.19,-0.46
2021-08-19 02:46:34.288,0.17,-0.43
2021-08-19 02:46:34.292,0.165,-0.43
2021-08-19 02:46:34.296,0.18,-0.43
2021-08-19 02:46:34.300,0.165,-0.445
2021-08-19 02:46:34.304,0.17,-0.45
2021-08-19 02:46:34.308,0.165,-0.45
2021-08-19 02:46:34.312,0.17,-0.45
2021-08-19 02:46:34.316,0.16,-0.46
2021-08-19 02:46:34.320,0.165,-0.45
2021-08-19 02:46:34.324,0.165,-0.47
2021-08-19 02:46:34.328,0.17,-0.445
2021-08-19 02:46:34.332,0.155,-0.47
2021-08-19 02:46:34.336,0.14,-0.46
2021-08-19 02:46:34.340,0.165,-0.46
2021-08-19 02:46:34.344,0.17,-0.48
2021-08-19 02:46:34.348,0.15,-0.475
2021-08-19 02:46:34.352,0.165,-0.475
2021-08-19 02:46:34.356,0.14,-0.48
2021-08-19 02:46:34.360,0.145,-0.48
2021-08-19 02:46:34.364,0.145,-0.475
2021-08-19 02:46:34.368,0.14,-0.49
2021-08-19 02:46:34.372,0.135,-0.505
2021-08-19 02:46:34.376,0.15,-0.5
2021-08-19 02:46:34.380,0.15,-0.515
2021-08-19 02:46:34.384,0.135,-0.52
2021-08-19 02:46:34.388,0.145,-0.515
2021-08-19 02:46:34.392,0.145,-0.505
2021-08-19 02:46:34.396,0.14,-0.51
2021-08-19 02:46:34.400,0.14,-0.505
2021-08-19 02:46:34.404,0.125,-0.5
2021-08-19 02:46:34.408,0.125,-0.5
2021-08-19 02:46:34.412,0.12,-0.515
2021-08-19 02:46:34.416,0.13,-0.48
2021-08-19 02:46:34.420,0.11,-0.49
2021-08-19 02:46:34.424,0.13,-0.47
2021-08-19 02:46:34.428,0.12,-0.485
2021-08-19 02:46:34.432,0.105,-0.48
2021-08-19 02:46:34.436,0.11,-0.47
2021-08-19 02:46:34.440,0.095,-0.46
2021-08-19 02:46:34.444,0.1,-0.425
2021-08-19 02:46:34.448,0.08,-0.4
2021-08-19 02:46:34.452,0.08,-0.4
2021-08-19 02:46:34.456,0.07,-0.39
2021-08-19 02:46:34.460,0.075,-0.375
2021-08-19 02:46:34.464,0.08,-0.32
2021-08-19 02:46:34.468,0.08,-0.33
2021-08-19 02:46:34.472,0.09,-0.305
2021-08-19 02:46:34.476,0.1,-0.285
2021-08-19 02:46:34.480,0.045,-0.265
2021-08-19 02:46:34.484,0.07,-0.22
2021-08-19 02:46:34.488,0.065,-0.24
2021-08-19 02:46:34.492,0.08,-0.23
2021-08-19 02:46:34.496,0.075,-0.23
2021-08-19 02:46:34.500,0.06,-0.21
2021-08-19 02:46:34.504,0.095,-0.195
2021-08-19 02:46:34.508,0.075,-0.19
2021-08-19 02:46:34.512,0.09,-0.195
2021-08-19 02:46:34.516,0.085,-0.195
2021-08-19 02:46:34.520,0.08,-0.2
2021-08-19 02:46:34.524,0.105,-0.21
2021-08-19 02:46:34.528,0.115,-0.2
2021-08-19 02:46:34.532,0.12,-0.19
2021-08-19 02:46:34.536,0.12,-0.21
2021-08-19 02:46:34.540,0.115,-0.21
2021-08-19 02:46:34.544,0.125,-0.225
2021-08-19 02:46:34.548,0.125,-0.215
2021-08-19 02:46:34.552,0.13,-0.21
2021-08-19 02:46:34.556,0.14,-0.22
2021-08-19 02:46:34.560,0.16,-0.21
2021-08-19 02:46:34.564,0.15,-0.22
2021-08-19 02:46:34.568,0.135,-0.225
2021-08-19 02:46:34.572,0.13,-0.22
2021-08-19 02:46:34.576,0.155,-0.22
2021-08-19 02:46:34.580,0.16,-0.235
2021-08-19 02:46:34.584,0.155,-0.24
2021-08-19 02:46:34.588,0.14,-0.21
2021-08-19 02:46:34.592,0.15,-0.235
2021-08-19 02:46:34.596,0.155,-0.225
2021-08-19 02:46:34.600,0.165,-0.22
2021-08-19 02:46:34.604,0.155,-0.23
2021-08-19 02:46:34.608,0.155,-0.22
2021-08-19 02:46:34.612,0.175,-0.215
2021-08-19 02:46:34.616,0.17,-0.235
2021-08-19 02:46:34.620,0.17,-0.23
2021-08-19 02:46:34.624,0.16,-0.22
2021-08-19 02:46:34.628,0.175,-0.23
2021-08-19 02:46:34.632,0.165,-0.245
2021-08-19 02:46:34.636,0.17,-0.215
2021-08-19 02:46:34.640,0.155,-0.23
2021-08-19 02:46:34.644,0.165,-0.22
2021-08-19 02:46:34.648,0.18,-0.22
2021-08-19 02:46:34.652,0.18,-0.22
2021-08-19 02:46:34.656,0.17,-0.21
2021-08-19 02:46:34.660,0.165,-0.22
2021-08-19 02:46:34.664,0.17,-0.24
2021-08-19 02:46:34.668,0.165,-0.26
2021-08-19 02:46:34.672,0.18,-0.22
2021-08-19 02:46:34.676,0.17,-0.235
2021-08-19 02:46:34.680,0.16,-0.25
2021-08-19 02:46:34.684,0.16,-0.24
2021-08-19 02:46:34.688,0.165,-0.235
2021-08-19 02:46:34.692,0.18,-0.235
2021-08-19 02:46:34.696,0.16,-0.23
2021-08-19 02:46:34.700,0.18,-0.235
2021-08-19 02:46:34.704,0.17,-0.245
2021-08-19 02:46:34.708,0.16,-0.255
2021-08-19 02:46:34.712,0.165,-0.235
2021-08-19 02:46:34.716,0.16,-0.23
2021-08-19 02:46:34.720,0.185,-0.225
2021-08-19 02:46:34.724,0.17,-0.245
2021-08-19 02:46:34.728,0.165,-0.23
2021-08-19 02:46:34.732,0.145,-0.22
2021-08-19 02:46:34.736,0.16,-0.22
2021-08-19 02:46:34.740,0.165,-0.23
2021-08-19 02:46:34.744,0.155,-0.225
2021-08-19 02:46:34.748,0.13,-0.215
2021-08-19 02:46:34.752,0.155,-0.21
2021-08-19 02:46:34.756,0.14,-0.225
2021-08-19 02:46:34.760,0.17,-0.22
2021-08-19 02:46:34.764,0.155,-0.23
2021-08-19 02:46:34.768,0.18,-0.225
2021-08-19 02:46:34.772,0.155,-0.235
2021-08-19 02:46:34.776,0.155,-0.21
2021-08-19 02:46:34.780,0.17,-0.22
2021-08-19 02:46:34.784,0.15,-0.205
2021-08-19 02:46:34.788,0.155,-0.22
2021-08-19 02:46:34.792,0.16,-0.21
2021-08-19 02:46:34.796,0.16,-0.195
2021-08-19 02:46:34.800,0.15,-0.175
2021-08-19 02:46:34.804,0.165,-0.15
2021-08-19 02:46:34.808,0.16,-0.105
2021-08-19 02:46:34.812,0.15,-0.095
2021-08-19 02:46:34.816,0.165,-0.03
2021-08-19 02:46:34.820,0.155,-0.025
2021-08-19 02:46:34.824,0.18,-0.01
2021-08-19 02:46:34.828,0.195,-0.01
2021-08-19 02:46:34.832,0.215,-0.005
2021-08-19 02:46:34.836,0.235,0.0
2021-08-19 02:46:34.840,0.235,-0.005
2021-08-19 02:46:34.844,0.275,-0.02
2021-08-19 02:46:34.848,0.28,-0.03
2021-08-19 02:46:34.852,0.27,-0.02
2021-08-19 02:46:34.856,0.275,-0.01
2021-08-19 02:46:34.860,0.265,-0.02
2021-08-19 02:46:34.864,0.26,-0.04
2021-08-19 02:46:34.868,0.22,-0.065
2021-08-19 02:46:34.872,0.205,-0.145
2021-08-19 02:46:34.876,0.195,-0.16
2021-08-19 02:46:34.880,0.16,-0.17
2021-08-19 02:46:34.884,0.14,-0.19
2021-08-19 02:46:34.888,0.105,-0.165
2021-08-19 02:46:34.892,0.085,-0.14
2021-08-19 02:46:34.896,0.085,-0.14
2021-08-19 02:46:34.900,0.09,-0.13
2021-08-19 02:46:34.904,0.065,-0.145
2021-08-19 02:46:34.908,0.065,-0.15
2021-08-19 02:46:34.912,0.085,-0.16
2021-08-19 02:46:34.916,0.095,-0.16
2021-08-19 02:46:34.920,0.095,-0.155
2021-08-19 02:46:34.924,0.12,-0.19
2021-08-19 02:46:34.928,0.105,-0.22
2021-08-19 02:46:34.932,0.115,-0.23
2021-08-19 02:46:34.936,0.105,-0.235
2021-08-19 02:46:34.940,0.135,-0.24
2021-08-19 02:46:34.944,0.155,-0.255
2021-08-19 02:46:34.948,0.155,-0.245
2021-08-19 02:46:34.952,0.15,-0.225
2021-08-19 02:46:34.956,0.19,-0.23
2021-08-19 02:46:34.960,0.185,-0.22
2021-08-19 02:46:34.964,0.195,-0.23
2021-08-19 02:46:34.968,0.165,-0.22
2021-08-19 02:46:34.972,0.175,-0.205
2021-08-19 02:46:34.976,0.17,-0.205
2021-08-19 02:46:34.980,0.175,-0.215
2021-08-19 02:46:34.984,0.175,-0.21
2021-08-19 02:46:34.988,0.175,-0.215
2021-08-19 02:46:34.992,0.185,-0.175
2021-08-19 02:46:34.996,0.155,-0.155
2021-08-19 02:46:35.000,0.175,-0.12
2021-08-19 02:46:35.004,0.18,-0.095
2021-08-19 02:46:35.008,0.155,-0.06
2021-08-19 02:46:35.012,0.185,0.085
2021-08-19 02:46:35.016,0.165,0.355
2021-08-19 02:46:35.020,0.185,0.625
2021-08-19 02:46:35.024,0.22,0.835
2021-08-19 02:46:35.028,0.24,1.015
2021-08-19 02:46:35.032,0.225,1.08
2021-08-19 02:46:35.036,0.185,1.1
2021-08-19 02:46:35.040,0.17,0.99
2021-08-19 02:46:35.044,0.15,0.71
2021-08-19 02:46:35.048,0.045,0.31
2021-08-19 02:46:35.052,-0.13,-0.06
2021-08-19 02:46:35.056,-0.42,-0.14
2021-08-19 02:46:35.060,-0.735,-0.035
2021-08-19 02:46:35.064,-1.04,0.02
2021-08-19 02:46:35.068,-1.195,-0.17
2021-08-19 02:46:35.072,-1.24,-0.45
2021-08-19 02:46:35.076,-1.175,-0.61
2021-08-19 02:46:35.080,-0.895,-0.715
2021-08-19 02:46:35.084,-0.48,-0.725
2021-08-19 02:46:35.088,-0.2,-0.69
2021-08-19 02:46:35.092,-0.045,-0.585
2021-08-19 02:46:35.096,0.0,-0.48
2021-08-19 02:46:35.100,-0.015,-0.405
2021-08-19 02:46:35.104,0.005,-0.38
2021-08-19 02:46:35.108,-0.01,-0.37
2021-08-19 02:46:35.112,0.045,-0.38
2021-08-19 02:46:35.116,0.075,-0.38
2021-08-19 02:46:35.120,0.125,-0.38
2021-08-19 02:46:35.124,0.185,-0.36
2021-08-19 02:46:35.128,0.23,-0.38
2021-08-19 02:46:35.132,0.26,-0.365
2021-08-19 02:46:35.136,0.25,-0.365
2021-08-19 02:46:35.140,0.26,-0.37
2021-08-19 02:46:35.144,0.26,-0.385
2021-08-19 02:46:35.148,0.28,-0.355
2021-08-19 02:46:35.152,0.29,-0.345
2021-08-19 02:46:35.156,0.29,-0.34
2021-08-19 02:46:35.160,0.295,-0.355
2021-08-19 02:46:35.164,0.285,-0.355
2021-08-19 02:46:35.168,0.29,-0.35
2021-08-19 02:46:35.172,0.3,-0.34
2021-08-19 02:46:35.176,0.295,-0.335
2021-08-19 02:46:35.180,0.3,-0.33
2021-08-19 02:46:35.184,0.305,-0.33
2021-08-19 02:46:35.188,0.31,-0.345
2021-08-19 02:46:35.192,0.29,-0.335
2021-08-19 02:46:35.196,0.315,-0.355
2021-08-19 02:46:35.200,0.315,-0.34
2021-08-19 02:46:35.204,0.275,-0.345
2021-08-19 02:46:35.208,0.295,-0.355
2021-08-19 02:46:35.212,0.29,-0.36
2021-08-19 02:46:35.216,0.29,-0.36
2021-08-19 02:46:35.220,0.285,-0.355
2021-08-19 02:46:35.224,0.3,-0.33
2021-08-19 02:46:35.228,0.305,-0.34
2021-08-19 02:46:35.232,0.3,-0.355
2021-08-19 02:46:35.236,0.29,-0.35
2021-08-19 02:46:35.240,0.285,-0.375
2021-08-19 02:46:35.244,0.29,-0.365
2021-08-19 02:46:35.248,0.275,-0.37
2021-08-19 02:46:35.252,0.265,-0.35
2021-08-19 02:46:35.256,0.27,-0.365
2021-08-19 02:46:35.260,0.255,-0.365
2021-08-19 02:46:35.264,0.27,-0.365
2021-08-19 02:46:35.268,0.26,-0.365
2021-08-19 02:46:35.272,0.24,-0.36
2021-08-19 02:46:35.276,0.245,-0.36
2021-08-19 02:46:35.280,0.255,-0.37
2021-08-19 02:46:35.284,0.245,-0.37
2021-08-19 02:46:35.288,0.25,-0.35
2021-08-19 02:46:35.292,0.22,-0.345
2021-08-19 02:46:35.296,0.235,-0.355
2021-08-19 02:46:35.300,0.23,-0.345
2021-08-19 02:46:35.304,0.25,-0.33
2021-08-19 02:46:35.308,0.24,-0.32
2021-08-19 02:46:35.312,0.215,-0.315
2021-08-19 02:46:35.316,0.21,-0.3
2021-08-19 02:46:35.320,0.22,-0.285
2021-08-19 02:46:35.324,0.225,-0.27
2021-08-19 02:46:35.328,0.2,-0.245
2021-08-19 02:46:35.332,0.21,-0.235
2021-08-19 02:46:35.336,0.205,-0.22
2021-08-19 02:46:35.340,0.18,-0.22
2021-08-19 02:46:35.344,0.17,-0.205
2021-08-19 02:46:35.348,0.165,-0.205
2021-08-19 02:46:35.352,0.185,-0.195
2021-08-19 02:46:35.356,0.155,-0.19
2021-08-19 02:46:35.360,0.18,-0.17
2021-08-19 02:46:35.364,0.19,-0.165
2021-08-19 02:46:35.368,0.175,-0.17
2021-08-19 02:46:35.372,0.155,-0.16
2021-08-19 02:46:35.376,0.175,-0.165
2021-08-19 02:46:35.380,0.16,-0.18
2021-08-19 02:46:35.384,0.17,-0.16
2021-08-19 02:46:35.388,0.17,-0.18
2021-08-19 02:46:35.392,0.145,-0.18
2021-08-19 02:46:35.396,0.175,-0.195
2021-08-19 02:46:35.400,0.16,-0.19
2021-08-19 02:46:35.404,0.185,-0.2
2021-08-19 02:46:35.408,0.18,-0.195
2021-08-19 02:46:35.412,0.16,-0.215
2021-08-19 02:46:35.416,0.18,-0.215
2021-08-19 02:46:35.420,0.175,-0.22
2021-08-19 02:46:35.424,0.185,-0.225
2021-08-19 02:46:35.428,0.185,-0.225
2021-08-19 02:46:35.432,0.18,-0.23
2021-08-19 02:46:35.436,0.18,-0.23
2021-08-19 02:46:35.440,0.17,-0.225
2021-08-19 02:46:35.444,0.18,-0.24
2021-08-19 02:46:35.448,0.175,-0.24
2021-08-19 02:46:35.452,0.165,-0.24
2021-08-19 02:46:35.456,0.17,-0.235
2021-08-19 02:46:35.460,0.19,-0.24
2021-08-19 02:46:35.464,0.195,-0.245
2021-08-19 02:46:35.468,0.18,-0.24
2021-08-19 02:46:35.472,0.21,-0.24
2021-08-19 02:46:35.476,0.2,-0.24
2021-08-19 02:46:35.480,0.18,-0.24
2021-08-19 02:46:35.484,0.155,-0.235
2021-08-19 02:46:35.488,0.175,-0.23
2021-08-19 02:46:35.492,0.2,-0.245
2021-08-19 02:46:35.496,0.185,-0.245
2021-08-19 02:46:35.500,0.195,-0.23
2021-08-19 02:46:35.504,0.195,-0.235
2021-08-19 02:46:35.508,0.195,-0.24
2021-08-19 02:46:35.512,0.18,-0.22
2021-08-19 02:46:35.516,0.205,-0.22
2021-08-19 02:46:35.520,0.2,-0.22
2021-08-19 02:46:35.524,0.185,-0.215
2021-08-19 02:46:35.528,0.2,-0.205
2021-08-19 02:46:35.532,0.19,-0.225
2021-08-19 02:46:35.536,0.185,-0.215
2021-08-19 02:46:35.540,0.185,-0.205
2021-08-19 02:46:35.544,0.175,-0.215
2021-08-19 02:46:35.548,0.195,-0.24
2021-08-19 02:46:35.552,0.16,-0.21
2021-08-19 02:46:35.556,0.195,-0.225
2021-08-19 02:46:35.560,0.175,-0.225
2021-08-19 02:46:35.564,0.19,-0.22
2021-08-19 02:46:35.568,0.17,-0.215
2021-08-19 02:46:35.572,0.17,-0.21
2021-08-19 02:46:35.576,0.16,-0.225
2021-08-19 02:46:35.580,0.155,-0.21
2021-08-19 02:46:35.584,0.155,-0.2
2021-08-19 02:46:35.588,0.16,-0.23
2021-08-19 02:46:35.592,0.15,-0.21
2021-08-19 02:46:35.596,0.165,-0.2
2021-08-19 02:46:35.600,0.16,-0.205
2021-08-19 02:46:35.604,0.165,-0.21
2021-08-19 02:46:35.608,0.14,-0.2
2021-08-19 02:46:35.612,0.15,-0.225
2021-08-19 02:46:35.616,0.145,-0.21
2021-08-19 02:46:35.620,0.135,-0.195
2021-08-19 02:46:35.624,0.145,-0.2
2021-08-19 02:46:35.628,0.165,-0.205
2021-08-19 02:46:35.632,0.14,-0.2
2021-08-19 02:46:35.636,0.14,-0.195
2021-08-19 02:46:35.640,0.14,-0.2
2021-08-19 02:46:35.644,0.14,-0.2
2021-08-19 02:46:35.648,0.135,-0.22
2021-08-19 02:46:35.652,0.165,-0.225
2021-08-19 02:46:35.656,0.135,-0.22
2021-08-19 02:46:35.660,0.125,-0.21
2021-08-19 02:46:35.664,0.155,-0.215
2021-08-19 02:46:35.668,0.145,-0.195
2021-08-19 02:46:35.672,0.15,-0.2
2021-08-19 02:46:35.676,0.15,-0.21
2021-08-19 02:46:35.680,0.15,-0.205
2021-08-19 02:46:35.684,0.135,-0.205
2021-08-19 02:46:35.688,0.165,-0.21
2021-08-19 02:46:35.692,0.165,-0.19
2021-08-19 02:46:35.696,0.155,-0.16
2021-08-19 02:46:35.700,0.16,-0.135
2021-08-19 02:46:35.704,0.155,-0.085
2021-08-19 02:46:35.708,0.165,-0.05
2021-08-19 02:46:35.712,0.165,-0.015
2021-08-19 02:46:35.716,0.155,-0.01
2021-08-19 02:46:35.720,0.19,0.005
2021-08-19 02:46:35.724,0.19,0.005
2021-08-19 02:46:35.728,0.23,0.005
2021-08-19 02:46:35.732,0.25,0.02
2021-08-19 02:46:35.736,0.26,-0.005
2021-08-19 02:46:35.740,0.285,-0.01
2021-08-19 02:46:35.744,0.285,-0.02
2021-08-19 02:46:35.748,0.295,-0.005
2021-08-19 02:46:35.752,0.29,0.0
2021-08-19 02:46:35.756,0.275,-0.015
2021-08-19 02:46:35.760,0.26,-0.03
2021-08-19 02:46:35.764,0.22,-0.02
2021-08-19 02:46:35.768,0.23,-0.075
2021-08-19 02:46:35.772,0.215,-0.125
2021-08-19 02:46:35.776,0.19,-0.135
2021-08-19 02:46:35.780,0.15,-0.15
2021-08-19 02:46:35.784,0.12,-0.135
2021-08-19 02:46:35.788,0.11,-0.115
2021-08-19 02:46:35.792,0.095,-0.1
2021-08-19 02:46:35.796,0.105,-0.1
2021-08-19 02:46:35.800,0.1,-0.105
2021-08-19 02:46:35.804,0.085,-0.1
2021-08-19 02:46:35.808,0.09,-0.105
2021-08-19 02:46:35.812,0.09,-0.12
2021-08-19 02:46:35.816,0.105,-0.145
2021-08-19 02:46:35.820,0.11,-0.14
2021-08-19 02:46:35.824,0.135,-0.14
2021-08-19 02:46:35.828,0.155,-0.18
2021-08-19 02:46:35.832,0.135,-0.195
2021-08-19 02:46:35.836,0.13,-0.22
2021-08-19 02:46:35.840,0.16,-0.21
2021-08-19 02:46:35.844,0.18,-0.225
2021-08-19 02:46:35.848,0.205,-0.21
2021-08-19 02:46:35.852,0.22,-0.19
2021-08-19 02:46:35.856,0.225,-0.2
2021-08-19 02:46:35.860,0.21,-0.205
2021-08-19 02:46:35.864,0.19,-0.205
2021-08-19 02:46:35.868,0.2,-0.195
2021-08-19 02:46:35.872,0.195,-0.185
2021-08-19 02:46:35.876,0.18,-0.185
2021-08-19 02:46:35.880,0.19,-0.19
2021-08-19 02:46:35.884,0.205,-0.17
2021-08-19 02:46:35.888,0.195,-0.18
2021-08-19 02:46:35.892,0.21,-0.155
2021-08-19 02:46:35.896,0.195,-0.14
2021-08-19 02:46:35.900,0.18,-0.08
2021-08-19 02:46:35.904,0.185,-0.04
2021-08-19 02:46:35.908,0.2,-0.01
2021-08-19 02:46:35.912,0.185,0.15
2021-08-19 02:46:35.916,0.195,0.415
2021-08-19 02:46:35.920,0.2,0.695
2021-08-19 02:46:35.924,0.25,0.92
2021-08-19 02:46:35.928,0.245,1.045
2021-08-19 02:46:35.932,0.25,1.13
2021-08-19 02:46:35.936,0.2,1.1
2021-08-19 02:46:35.940,0.175,0.93
2021-08-19 02:46:35.944,0.155,0.615
2021-08-19 02:46:35.948,0.045,0.185
2021-08-19 02:46:35.952,-0.19,-0.15
2021-08-19 02:46:35.956,-0.485,-0.135
2021-08-19 02:46:35.960,-0.85,0.045
2021-08-19 02:46:35.964,-1.105,0.055
2021-08-19 02:46:35.968,-1.27,-0.175
2021-08-19 02:46:35.972,-1.33,-0.44
2021-08-19 02:46:35.976,-1.21,-0.61
2021-08-19 02:46:35.980,-0.845,-0.7
2021-08-19 02:46:35.984,-0.46,-0.695
2021-08-19 02:46:35.988,-0.16,-0.64
2021-08-19 02:46:35.992,-0.03,-0.525
2021-08-19 02:46:35.996,-0.01,-0.42
2021-08-19 02:46:36.000,-0.01,-0.345
2021-08-19 02:46:36.004,0.0,-0.315
2021-08-19 02:46:36.008,0.005,-0.32
2021-08-19 02:46:36.012,0.04,-0.31
2021-08-19 02:46:36.016,0.105,-0.325
2021-08-19 02:46:36.020,0.155,-0.33
2021-08-19 02:46:36.024,0.225,-0.32
2021-08-19 02:46:36.028,0.245,-0.335
2021-08-19 02:46:36.032,0.28,-0.34
2021-08-19 02:46:36.036,0.28,-0.335
2021-08-19 02:46:36.040,0.28,-0.31
2021-08-19 02:46:36.044,0.26,-0.305
2021-08-19 02:46:36.048,0.27,-0.32
2021-08-19 02:46:36.052,0.285,-0.3
2021-08-19 02:46:36.056,0.285,-0.29
2021-08-19 02:46:36.060,0.27,-0.305
2021-08-19 02:46:36.064,0.285,-0.295
2021-08-19 02:46:36.068,0.31,-0.295
2021-08-19 02:46:36.072,0.32,-0.3
2021-08-19 02:46:36.076,0.295,-0.295
2021-08-19 02:46:36.080,0.315,-0.3
2021-08-19 02:46:36.084,0.3,-0.285
2021-08-19 02:46:36.088,0.315,-0.28
2021-08-19 02:46:36.092,0.325,-0.27
2021-08-19 02:46:36.096,0.325,-0.285
2021-08-19 02:46:36.100,0.315,-0.295
2021-08-19 02:46:36.104,0.315,-0.28
2021-08-19 02:46:36.108,0.315,-0.285
2021-08-19 02:46:36.112,0.3,-0.285
2021-08-19 02:46:36.116,0.315,-0.295
2021-08-19 02:46:36.120,0.325,-0.29
2021-08-19 02:46:36.124,0.32,-0.29
2021-08-19 02:46:36.128,0.31,-0.305
2021-08-19 02:46:36.132,0.325,-0.285
2021-08-19 02:46:36.136,0.305,-0.28
2021-08-19 02:46:36.140,0.305,-0.27
2021-08-19 02:46:36.144,0.315,-0.285
2021-08-19 02:46:36.148,0.3,-0.3
2021-08-19 02:46:36.152,0.3,-0.31
2021-08-19 02:46:36.156,0.3,-0.29
2021-08-19 02:46:36.160,0.295,-0.29
2021-08-19 02:46:36.164,0.305,-0.28
2021-08-19 02:46:36.168,0.285,-0.285
2021-08-19 02:46:36.172,0.285,-0.285
2021-08-19 02:46:36.176,0.29,-0.26
2021-08-19 02:46:36.180,0.29,-0.26
2021-08-19 02:46:36.184,0.275,-0.26
2021-08-19 02:46:36.188,0.3,-0.26
2021-08-19 02:46:36.192,0.265,-0.245
2021-08-19 02:46:36.196,0.27,-0.235
2021-08-19 02:46:36.200,0.27,-0.24
2021-08-19 02:46:36.204,0.26,-0.225
2021-08-19 02:46:36.208,0.265,-0.225
2021-08-19 02:46:36.212,0.285,-0.23
2021-08-19 02:46:36.216,0.255,-0.185
2021-08-19 02:46:36.220,0.27,-0.165
2021-08-19 02:46:36.224,0.265,-0.155
2021-08-19 02:46:36.228,0.245,-0.14
2021-08-19 02:46:36.232,0.235,-0.115
2021-08-19 02:46:36.236,0.225,-0.12
2021-08-19 02:46:36.240,0.21,-0.11
2021-08-19 02:46:36.244,0.225,-0.115
2021-08-19 02:46:36.248,0.21,-0.1
2021-08-19 02:46:36.252,0.21,-0.105
2021-08-19 02:46:36.256,0.19,-0.09
2021-08-19 02:46:36.260,0.19,-0.07
2021-08-19 02:46:36.264,0.18,-0.095
2021-08-19 02:46:36.268,0.215,-0.09
2021-08-19 02:46:36.272,0.21,-0.09
2021-08-19 02:46:36.276,0.19,-0.09
2021-08-19 02:46:36.280,0.17,-0.095
2021-08-19 02:46:36.284,0.195,-0.095
2021-08-19 02:46:36.288,0.175,-0.1
2021-08-19 02:46:36.292,0.155,-0.11
2021-08-19 02:46:36.296,0.16,-0.13
2021-08-19 02:46:36.300,0.165,-0.13
2021-08-19 02:46:36.304,0.175,-0.16
2021-08-19 02:46:36.308,0.195,-0.15
2021-08-19 02:46:36.312,0.2,-0.155
2021-08-19 02:46:36.316,0.19,-0.18
2021-08-19 02:46:36.320,0.18,-0.16
2021-08-19 02:46:36.324,0.19,-0.185
2021-08-19 02:46:36.328,0.16,-0.195
2021-08-19 02:46:36.332,0.19,-0.2
2021-08-19 02:46:36.336,0.175,-0.205
2021-08-19 02:46:36.340,0.2,-0.205
2021-08-19 02:46:36.344,0.195,-0.205
2021-08-19 02:46:36.348,0.18,-0.21
2021-08-19 02:46:36.352,0.19,-0.21
2021-08-19 02:46:36.356,0.19,-0.215
2021-08-19 02:46:36.360,0.185,-0.225
2021-08-19 02:46:36.364,0.2,-0.22
2021-08-19 02:46:36.368,0.185,-0.19
2021-08-19 02:46:36.372,0.195,-0.21
2021-08-19 02:46:36.376,0.185,-0.22
2021-08-19 02:46:36.380,0.195,-0.22
2021-08-19 02:46:36.384,0.185,-0.22
2021-08-19 02:46:36.388,0.185,-0.225
2021-08-19 02:46:36.392,0.21,-0.215
2021-08-19 02:46:36.396,0.21,-0.225
2021-08-19 02:46:36.400,0.2,-0.235
2021-08-19 02:46:36.404,0.195,-0.22
2021-08-19 02:46:36.408,0.205,-0.235
2021-08-19 02:46:36.412,0.225,-0.215
2021-08-19 02:46:36.416,0.215,-0.23
2021-08-19 02:46:36.420,0.22,-0.205
2021-08-19 02:46:36.424,0.195,-0.205
2021-08-19 02:46:36.428,0.215,-0.2
2021-08-19 02:46:36.432,0.215,-0.215
2021-08-19 02:46:36.436,0.215,-0.195
2021-08-19 02:46:36.440,0.215,-0.205
2021-08-19 02:46:36.444,0.225,-0.215
2021-08-19 02:46:36.448,0.22,-0.195
2021-08-19 02:46:36.452,0.22,-0.2
2021-08-19 02:46:36.456,0.19,-0.195
2021-08-19 02:46:36.460,0.2,-0.195
2021-08-19 02:46:36.464,0.2,-0.185
2021-08-19 02:46:36.468,0.17,-0.195
2021-08-19 02:46:36.472,0.195,-0.175
2021-08-19 02:46:36.476,0.185,-0.2
2021-08-19 02:46:36.480,0.2,-0.205
2021-08-19 02:46:36.484,0.18,-0.195
2021-08-19 02:46:36.488,0.18,-0.195
2021-08-19 02:46:36.492,0.19,-0.18
2021-08-19 02:46:36.496,0.18,-0.19
2021-08-19 02:46:36.500,0.19,-0.195
2021-08-19 02:46:36.504,0.19,-0.195
2021-08-19 02:46:36.508,0.175,-0.19
2021-08-19 02:46:36.512,0.185,-0.21
2021-08-19 02:46:36.516,0.195,-0.19
2021-08-19 02:46:36.520,0.2,-0.21
2021-08-19 02:46:36.524,0.18,-0.19
2021-08-19 02:46:36.528,0.175,-0.19
2021-08-19 02:46:36.532,0.195,-0.185
2021-08-19 02:46:36.536,0.18,-0.185
2021-08-19 02:46:36.540,0.2,-0.185
2021-08-19 02:46:36.544,0.16,-0.18
2021-08-19 02:46:36.548,0.165,-0.17
2021-08-19 02:46:36.552,0.195,-0.205
2021-08-19 02:46:36.556,0.18,-0.17
2021-08-19 02:46:36.560,0.18,-0.2
2021-08-19 02:46:36.564,0.18,-0.18
2021-08-19 02:46:36.568,0.17,-0.195
2021-08-19 02:46:36.572,0.155,-0.19
2021-08-19 02:46:36.576,0.17,-0.205
2021-08-19 02:46:36.580,0.165,-0.16
2021-08-19 02:46:36.584,0.175,-0.155
2021-08-19 02:46:36.588,0.145,-0.14
2021-08-19 02:46:36.592,0.165,-0.105
2021-08-19 02:46:36.596,0.18,-0.06
2021-08-19 02:46:36.600,0.185,-0.035
2021-08-19 02:46:36.604,0.17,-0.005
2021-08-19 02:46:36.608,0.155,0.015
2021-08-19 02:46:36.612,0.175,0.015
2021-08-19 02:46:36.616,0.195,0.015
2021-08-19 02:46:36.620,0.22,-0.005
2021-08-19 02:46:36.624,0.265,0.0
2021-08-19 02:46:36.628,0.265,0.0
2021-08-19 02:46:36.632,0.28,0.0
2021-08-19 02:46:36.636,0.28,0.02
2021-08-19 02:46:36.640,0.275,0.005
2021-08-19 02:46:36.644,0.27,0.015
2021-08-19 02:46:36.648,0.265,0.0
2021-08-19 02:46:36.652,0.24,-0.03
2021-08-19 02:46:36.656,0.205,-0.055
2021-08-19 02:46:36.660,0.2,-0.09
2021-08-19 02:46:36.664,0.165,-0.125
2021-08-19 02:46:36.668,0.135,-0.12
2021-08-19 02:46:36.672,0.105,-0.125
2021-08-19 02:46:36.676,0.09,-0.11
2021-08-19 02:46:36.680,0.075,-0.095
2021-08-19 02:46:36.684,0.085,-0.085
2021-08-19 02:46:36.688,0.07,-0.08
2021-08-19 02:46:36.692,0.075,-0.07
2021-08-19 02:46:36.696,0.08,-0.1
2021-08-19 02:46:36.700,0.07,-0.11
2021-08-19 02:46:36.704,0.105,-0.115
2021-08-19 02:46:36.708,0.115,-0.12
2021-08-19 02:46:36.712,0.1,-0.155
2021-08-19 02:46:36.716,0.115,-0.16
2021-08-19 02:46:36.720,0.12,-0.175
2021-08-19 02:46:36.724,0.14,-0.18
2021-08-19 02:46:36.728,0.15,-0.18
2021-08-19 02:46:36.732,0.18,-0.15
2021-08-19 02:46:36.736,0.185,-0.15
2021-08-19 02:46:36.740,0.175,-0.145
2021-08-19 02:46:36.744,0.19,-0.165
2021-08-19 02:46:36.748,0.195,-0.155
2021-08-19 02:46:36.752,0.195,-0.14
2021-08-19 02:46:36.756,0.17,-0.12
2021-08-19 02:46:36.760,0.175,-0.13
2021-08-19 02:46:36.764,0.185,-0.125
2021-08-19 02:46:36.768,0.19,-0.115
2021-08-19 02:46:36.772,0.18,-0.115
2021-08-19 02:46:36.776,0.175,-0.1
2021-08-19 02:46:36.780,0.17,-0.045
2021-08-19 02:46:36.784,0.165,-0.02
2021-08-19 02:46:36.788,0.18,0.005
2021-08-19 02:46:36.792,0.175,0.105
2021-08-19 02:46:36.796,0.19,0.315
2021-08-19 02:46:36.800,0.19,0.605
2021-08-19 02:46:36.804,0.225,0.855
2021-08-19 02:46:36.808,0.255,0.995
2021-08-19 02:46:36.812,0.225,1.07
2021-08-19 02:46:36.816,0.19,1.07
2021-08-19 02:46:36.820,0.155,0.955
2021-08-19 02:46:36.824,0.13,0.715
2021-08-19 02:46:36.828,0.05,0.305
2021-08-19 02:46:36.832,-0.13,-0.045
2021-08-19 02:46:36.836,-0.425,-0.095
2021-08-19 02:46:36.840,-0.78,0.05
2021-08-19 02:46:36.844,-1.07,0.075
2021-08-19 02:46:36.848,-1.215,-0.085
2021-08-19 02:46:36.852,-1.28,-0.335
2021-08-19 02:46:36.856,-1.16,-0.48
2021-08-19 02:46:36.860,-0.81,-0.56
2021-08-19 02:46:36.864,-0.43,-0.61
2021-08-19 02:46:36.868,-0.15,-0.55
2021-08-19 02:46:36.872,-0.035,-0.44
2021-08-19 02:46:36.876,-0.02,-0.32
2021-08-19 02:46:36.880,-0.03,-0.275
2021-08-19 02:46:36.884,-0.015,-0.26
2021-08-19 02:46:36.888,0.005,-0.25
2021-08-19 02:46:36.892,0.015,-0.24
2021-08-19 02:46:36.896,0.09,-0.23
2021-08-19 02:46:36.900,0.145,-0.245
2021-08-19 02:46:36.904,0.19,-0.24
2021-08-19 02:46:36.908,0.22,-0.225
2021-08-19 02:46:36.912,0.23,-0.24
2021-08-19 02:46:36.916,0.255,-0.22
2021-08-19 02:46:36.920,0.255,-0.24
2021-08-19 02:46:36.924,0.25,-0.25
2021-08-19 02:46:36.928,0.27,-0.235
2021-08-19 02:46:36.932,0.265,-0.225
2021-08-19 02:46:36.936,0.255,-0.245
2021-08-19 02:46:36.940,0.245,-0.225
2021-08-19 02:46:36.944,0.27,-0.225
2021-08-19 02:46:36.948,0.28,-0.22
2021-08-19 02:46:36.952,0.265,-0.23
2021-08-19 02:46:36.956,0.27,-0.21
2021-08-19 02:46:36.960,0.27,-0.21
2021-08-19 02:46:36.964,0.27,-0.21
2021-08-19 02:46:36.968,0.245,-0.195
2021-08-19 02:46:36.972,0.27,-0.195
2021-08-19 02:46:36.976,0.28,-0.215
2021-08-19 02:46:36.980,0.28,-0.22
2021-08-19 02:46:36.984,0.27,-0.225
2021-08-19 02:46:36.988,0.25,-0.19
2021-08-19 02:46:36.992,0.265,-0.195
2021-08-19 02:46:36.996,0.265,-0.19
2021-08-19 02:46:37.000,0.285,-0.2
2021-08-19 02:46:37.004,0.265,-0.205
2021-08-19 02:46:37.008,0.29,-0.22
2021-08-19 02:46:37.012,0.27,-0.21
2021-08-19 02:46:37.016,0.275,-0.195
2021-08-19 02:46:37.020,0.255,-0.19
2021-08-19 02:46:37.024,0.28,-0.205
2021-08-19 02:46:37.028,0.265,-0.205
2021-08-19 02:46:37.032,0.235,-0.225
2021-08-19 02:46:37.036,0.27,-0.21
2021-08-19 02:46:37.040,0.245,-0.205
2021-08-19 02:46:37.044,0.25,-0.215
2021-08-19 02:46:37.048,0.25,-0.205
2021-08-19 02:46:37.052,0.245,-0.175
2021-08-19 02:46:37.056,0.23,-0.195
2021-08-19 02:46:37.060,0.215,-0.205
2021-08-19 02:46:37.064,0.22,-0.18
2021-08-19 02:46:37.068,0.235,-0.185
2021-08-19 02:46:37.072,0.22,-0.18
2021-08-19 02:46:37.076,0.21,-0.155
2021-08-19 02:46:37.080,0.225,-0.165
2021-08-19 02:46:37.084,0.2,-0.15
2021-08-19 02:46:37.088,0.215,-0.125
2021-08-19 02:46:37.092,0.175,-0.1
2021-08-19 02:46:37.096,0.175,-0.105
2021-08-19 02:46:37.100,0.21,-0.085
2021-08-19 02:46:37.104,0.18,-0.06
2021-08-19 02:46:37.108,0.18,-0.04
2021-08-19 02:46:37.112,0.185,-0.025
2021-08-19 02:46:37.116,0.175,-0.03
2021-08-19 02:46:37.120,0.175,-0.02
2021-08-19 02:46:37.124,0.165,-0.025
2021-08-19 02:46:37.128,0.18,-0.015
2021-08-19 02:46:37.132,0.155,0.01
2021-08-19 02:46:37.136,0.155,0.0
2021-08-19 02:46:37.140,0.165,0.0
2021-08-19 02:46:37.144,0.17,0.0
2021-08-19 02:46:37.148,0.155,0.0
2021-08-19 02:46:37.152,0.15,0.005
2021-08-19 02:46:37.156,0.15,0.0
2021-08-19 02:46:37.160,0.15,0.0
2021-08-19 02:46:37.164,0.15,0.0
2021-08-19 02:46:37.168,0.165,-0.02
2021-08-19 02:46:37.172,0.16,-0.03
2021-08-19 02:46:37.176,0.165,-0.04
2021-08-19 02:46:37.180,0.18,-0.045
2021-08-19 02:46:37.184,0.165,-0.04
2021-08-19 02:46:37.188,0.175,-0.03
2021-08-19 02:46:37.192,0.165,-0.065
2021-08-19 02:46:37.196,0.16,-0.055
2021-08-19 02:46:37.200,0.175,-0.07
2021-08-19 02:46:37.204,0.14,-0.065
2021-08-19 02:46:37.208,0.16,-0.075
2021-08-19 02:46:37.212,0.165,-0.065
2021-08-19 02:46:37.216,0.165,-0.08
2021-08-19 02:46:37.220,0.17,-0.085
2021-08-19 02:46:37.224,0.175,-0.1
2021-08-19 02:46:37.228,0.17,-0.1
2021-08-19 02:46:37.232,0.16,-0.095
2021-08-19 02:46:37.236,0.17,-0.115
2021-08-19 02:46:37.240,0.175,-0.1
2021-08-19 02:46:37.244,0.19,-0.09
2021-08-19 02:46:37.248,0.175,-0.1
2021-08-19 02:46:37.252,0.165,-0.095
2021-08-19 02:46:37.256,0.175,-0.105
2021-08-19 02:46:37.260,0.175,-0.105
2021-08-19 02:46:37.264,0.175,-0.11
2021-08-19 02:46:37.268,0.16,-0.125
2021-08-19 02:46:37.272,0.19,-0.09
2021-08-19 02:46:37.276,0.165,-0.095
2021-08-19 02:46:37.280,0.155,-0.115
2021-08-19 02:46:37.284,0.16,-0.09
2021-08-19 02:46:37.288,0.16,-0.095
2021-08-19 02:46:37.292,0.16,-0.11
2021-08-19 02:46:37.296,0.17,-0.09
2021-08-19 02:46:37.300,0.175,-0.085
2021-08-19 02:46:37.304,0.15,-0.11
2021-08-19 02:46:37.308,0.165,-0.1
2021-08-19 02:46:37.312,0.155,-0.09
2021-08-19 02:46:37.316,0.15,-0.085
2021-08-19 02:46:37.320,0.17,-0.09
2021-08-19 02:46:37.324,0.17,-0.105
2021-08-19 02:46:37.328,0.145,-0.09
2021-08-19 02:46:37.332,0.13,-0.11
2021-08-19 02:46:37.336,0.155,-0.105
2021-08-19 02:46:37.340,0.15,-0.115
2021-08-19 02:46:37.344,0.145,-0.09
2021-08-19 02:46:37.348,0.145,-0.11
2021-08-19 02:46:37.352,0.17,-0.09
2021-08-19 02:46:37.356,0.15,-0.11
2021-08-19 02:46:37.360,0.155,-0.11
2021-08-19 02:46:37.364,0.15,-0.105
2021-08-19 02:46:37.368,0.155,-0.11
2021-08-19 02:46:37.372,0.15,-0.095
2021-08-19 02:46:37.376,0.14,-0.105
2021-08-19 02:46:37.380,0.13,-0.1
2021-08-19 02:46:37.384,0.14,-0.09
2021-08-19 02:46:37.388,0.135,-0.105
2021-08-19 02:46:37.392,0.1,-0.11
2021-08-19 02:46:37.396,0.155,-0.105
2021-08-19 02:46:37.400,0.105,-0.08
2021-08-19 02:46:37.404,0.12,-0.1
2021-08-19 02:46:37.408,0.14,-0.105
2021-08-19 02:46:37.412,0.125,-0.105
2021-08-19 02:46:37.416,0.12,-0.105
2021-08-19 02:46:37.420,0.145,-0.095
2021-08-19 02:46:37.424,0.135,-0.085
2021-08-19 02:46:37.428,0.125,-0.095
2021-08-19 02:46:37.432,0.135,-0.115
2021-08-19 02:46:37.436,0.13,-0.105
2021-08-19 02:46:37.440,0.125,-0.105
2021-08-19 02:46:37.444,0.125,-0.095
2021-08-19 02:46:37.448,0.13,-0.1
2021-08-19 02:46:37.452,0.125,-0.085
2021-08-19 02:46:37.456,0.115,-0.07
2021-08-19 02:46:37.460,0.135,-0.03
2021-08-19 02:46:37.464,0.11,0.01
2021-08-19 02:46:37.468,0.12,0.045
2021-08-19 02:46:37.472,0.09,0.06
2021-08-19 02:46:37.476,0.14,0.08
2021-08-19 02:46:37.480,0.145,0.08
2021-08-19 02:46:37.484,0.17,0.075
2021-08-19 02:46:37.488,0.2,0.1
2021-08-19 02:46:37.492,0.215,0.09
2021-08-19 02:46:37.496,0.225,0.07
2021-08-19 02:46:37.500,0.25,0.085
2021-08-19 02:46:37.504,0.255,0.075
2021-08-19 02:46:37.508,0.24,0.08
2021-08-19 02:46:37.512,0.235,0.085
2021-08-19 02:46:37.516,0.22,0.065
2021-08-19 02:46:37.520,0.22,0.03
2021-08-19 02:46:37.524,0.185,-0.01
2021-08-19 02:46:37.528,0.15,-0.04
2021-08-19 02:46:37.532,0.145,-0.09
2021-08-19 02:46:37.536,0.09,-0.07
2021-08-19 02:46:37.540,0.1,-0.075
2021-08-19 02:46:37.544,0.07,-0.07
2021-08-19 02:46:37.548,0.065,-0.055
2021-08-19 02:46:37.552,0.06,-0.03
2021-08-19 02:46:37.556,0.05,-0.03
2021-08-19 02:46:37.560,0.06,-0.05
2021-08-19 02:46:37.564,0.065,-0.07
2021-08-19 02:46:37.568,0.06,-0.075
2021-08-19 02:46:37.572,0.065,-0.07
2021-08-19 02:46:37.576,0.085,-0.08
2021-08-19 02:46:37.580,0.1,-0.095
2021-08-19 02:46:37.584,0.11,-0.12
2021-08-19 02:46:37.588,0.11,-0.145
2021-08-19 02:46:37.592,0.105,-0.13
2021-08-19 02:46:37.596,0.135,-0.13
2021-08-19 02:46:37.600,0.15,-0.145
2021-08-19 02:46:37.604,0.175,-0.16
2021-08-19 02:46:37.608,0.145,-0.14
2021-08-19 02:46:37.612,0.135,-0.14
2021-08-19 02:46:37.616,0.165,-0.14
2021-08-19 02:46:37.620,0.155,-0.125
2021-08-19 02:46:37.624,0.155,-0.14
2021-08-19 02:46:37.628,0.145,-0.145
2021-08-19 02:46:37.632,0.15,-0.135
2021-08-19 02:46:37.636,0.155,-0.115
2021-08-19 02:46:37.640,0.145,-0.115
2021-08-19 02:46:37.644,0.15,-0.13
2021-08-19 02:46:37.648,0.15,-0.09
2021-08-19 02:46:37.652,0.14,-0.035
2021-08-19 02:46:37.656,0.17,-0.025
2021-08-19 02:46:37.660,0.15,0.01
2021-08-19 02:46:37.664,0.155,0.135
2021-08-19 02:46:37.668,0.135,0.375
2021-08-19 02:46:37.672,0.155,0.68
2021-08-19 02:46:37.676,0.215,0.92
2021-08-19 02:46:37.680,0.245,1.085
2021-08-19 02:46:37.684,0.21,1.17
2021-08-19 02:46:37.688,0.155,1.195
2021-08-19 02:46:37.692,0.125,1.09
2021-08-19 02:46:37.696,0.12,0.825
2021-08-19 02:46:37.700,0.02,0.4
2021-08-19 02:46:37.704,-0.17,0.015
2021-08-19 02:46:37.708,-0.455,-0.065
2021-08-19 02:46:37.712,-0.775,0.025
2021-08-19 02:46:37.716,-1.05,0.05
2021-08-19 02:46:37.720,-1.19,-0.145
2021-08-19 02:46:37.724,-1.245,-0.395
2021-08-19 02:46:37.728,-1.09,-0.535
2021-08-19 02:46:37.732,-0.79,-0.61
2021-08-19 02:46:37.736,-0.41,-0.61
2021-08-19 02:46:37.740,-0.15,-0.545
2021-08-19 02:46:37.744,-0.05,-0.415
2021-08-19 02:46:37.748,-0.035,-0.33
2021-08-19 02:46:37.752,-0.025,-0.275
2021-08-19 02:46:37.756,0.0,-0.25
2021-08-19 02:46:37.760,0.025,-0.265
2021-08-19 02:46:37.764,0.04,-0.27
2021-08-19 02:46:37.768,0.11,-0.26
2021-08-19 02:46:37.772,0.17,-0.235
2021-08-19 02:46:37.776,0.22,-0.255
2021-08-19 02:46:37.780,0.24,-0.26
2021-08-19 02:46:37.784,0.235,-0.23
2021-08-19 02:46:37.788,0.26,-0.245
2021-08-19 02:46:37.792,0.27,-0.245
2021-08-19 02:46:37.796,0.265,-0.245
2021-08-19 02:46:37.800,0.245,-0.24
2021-08-19 02:46:37.804,0.275,-0.24
2021-08-19 02:46:37.808,0.27,-0.24
2021-08-19 02:46:37.812,0.295,-0.225
2021-08-19 02:46:37.816,0.28,-0.23
2021-08-19 02:46:37.820,0.3,-0.22
2021-08-19 02:46:37.824,0.285,-0.225
2021-08-19 02:46:37.828,0.29,-0.215
2021-08-19 02:46:37.832,0.28,-0.22
2021-08-19 02:46:37.836,0.285,-0.22
2021-08-19 02:46:37.840,0.27,-0.22
2021-08-19 02:46:37.844,0.28,-0.23
2021-08-19 02:46:37.848,0.28,-0.23
2021-08-19 02:46:37.852,0.265,-0.235
2021-08-19 02:46:37.856,0.265,-0.22
2021-08-19 02:46:37.860,0.295,-0.22
2021-08-19 02:46:37.864,0.28,-0.215
2021-08-19 02:46:37.868,0.295,-0.235
2021-08-19 02:46:37.872,0.29,-0.235
2021-08-19 02:46:37.876,0.295,-0.22
2021-08-19 02:46:37.880,0.27,-0.25
2021-08-19 02:46:37.884,0.28,-0.24
2021-08-19 02:46:37.888,0.28,-0.24
2021-08-19 02:46:37.892,0.26,-0.24
2021-08-19 02:46:37.896,0.27,-0.22
2021-08-19 02:46:37.900,0.25,-0.24
2021-08-19 02:46:37.904,0.275,-0.24
2021-08-19 02:46:37.908,0.26,-0.24
2021-08-19 02:46:37.912,0.265,-0.23
2021-08-19 02:46:37.916,0.265,-0.235
2021-08-19 02:46:37.920,0.275,-0.225
2021-08-19 02:46:37.924,0.235,-0.22
2021-08-19 02:46:37.928,0.235,-0.225
2021-08-19 02:46:37.932,0.225,-0.245
2021-08-19 02:46:37.936,0.23,-0.215
2021-08-19 02:46:37.940,0.245,-0.205
2021-08-19 02:46:37.944,0.21,-0.205
2021-08-19 02:46:37.948,0.21,-0.2
2021-08-19 02:46:37.952,0.235,-0.205
2021-08-19 02:46:37.956,0.215,-0.18
2021-08-19 02:46:37.960,0.2,-0.165
2021-08-19 02:46:37.964,0.185,-0.15
2021-08-19 02:46:37.968,0.2,-0.12
2021-08-19 02:46:37.972,0.195,-0.125
2021-08-19 02:46:37.976,0.2,-0.125
2021-08-19 02:46:37.980,0.195,-0.1
2021-08-19 02:46:37.984,0.18,-0.085
2021-08-19 02:46:37.988,0.19,-0.07
2021-08-19 02:46:37.992,0.15,-0.07
2021-08-19 02:46:37.996,0.18,-0.03
2021-08-19 02:46:38.000,0.18,-0.045
2021-08-19 02:46:38.004,0.17,-0.04
2021-08-19 02:46:38.008,0.155,-0.035
2021-08-19 02:46:38.012,0.155,-0.01
2021-08-19 02:46:38.016,0.175,0.0
2021-08-19 02:46:38.020,0.15,-0.01
2021-08-19 02:46:38.024,0.17,-0.02
2021-08-19 02:46:38.028,0.17,-0.02
2021-08-19 02:46:38.032,0.155,-0.015
2021-08-19 02:46:38.036,0.165,-0.03
2021-08-19 02:46:38.040,0.175,-0.045
2021-08-19 02:46:38.044,0.18,-0.05
2021-08-19 02:46:38.048,0.165,-0.045
2021-08-19 02:46:38.052,0.17,-0.07
2021-08-19 02:46:38.056,0.17,-0.055
2021-08-19 02:46:38.060,0.16,-0.07
2021-08-19 02:46:38.064,0.17,-0.07
2021-08-19 02:46:38.068,0.19,-0.065
2021-08-19 02:46:38.072,0.18,-0.07
2021-08-19 02:46:38.076,0.2,-0.095
2021-08-19 02:46:38.080,0.185,-0.085
2021-08-19 02:46:38.084,0.195,-0.07
2021-08-19 02:46:38.088,0.2,-0.075
2021-08-19 02:46:38.092,0.205,-0.08
2021-08-19 02:46:38.096,0.18,-0.08
2021-08-19 02:46:38.100,0.19,-0.1
2021-08-19 02:46:38.104,0.215,-0.1
2021-08-19 02:46:38.108,0.2,-0.1
2021-08-19 02:46:38.112,0.19,-0.095
2021-08-19 02:46:38.116,0.2,-0.105
2021-08-19 02:46:38.120,0.205,-0.115
2021-08-19 02:46:38.124,0.22,-0.09
2021-08-19 02:46:38.128,0.21,-0.095
2021-08-19 02:46:38.132,0.22,-0.1
2021-08-19 02:46:38.136,0.215,-0.11
2021-08-19 02:46:38.140,0.18,-0.11
2021-08-19 02:46:38.144,0.195,-0.11
2021-08-19 02:46:38.148,0.2,-0.115
2021-08-19 02:46:38.152,0.205,-0.12
2021-08-19 02:46:38.156,0.19,-0.105
2021-08-19 02:46:38.160,0.19,-0.125
2021-08-19 02:46:38.164,0.205,-0.105
2021-08-19 02:46:38.168,0.205,-0.11
2021-08-19 02:46:38.172,0.205,-0.11
2021-08-19 02:46:38.176,0.195,-0.125
2021-08-19 02:46:38.180,0.225,-0.115
2021-08-19 02:46:38.184,0.205,-0.095
2021-08-19 02:46:38.188,0.18,-0.12
2021-08-19 02:46:38.192,0.195,-0.13
2021-08-19 02:46:38.196,0.19,-0.1
2021-08-19 02:46:38.200,0.175,-0.125
2021-08-19 02:46:38.204,0.18,-0.125
2021-08-19 02:46:38.208,0.18,-0.135
2021-08-19 02:46:38.212,0.17,-0.125
2021-08-19 02:46:38.216,0.205,-0.12
2021-08-19 02:46:38.220,0.17,-0.115
2021-08-19 02:46:38.224,0.165,-0.105
2021-08-19 02:46:38.228,0.175,-0.145
2021-08-19 02:46:38.232,0.165,-0.12
2021-08-19 02:46:38.236,0.17,-0.135
2021-08-19 02:46:38.240,0.16,-0.13
2021-08-19 02:46:38.244,0.175,-0.125
2021-08-19 02:46:38.248,0.16,-0.155
2021-08-19 02:46:38.252,0.16,-0.155
2021-08-19 02:46:38.256,0.17,-0.13
2021-08-19 02:46:38.260,0.16,-0.135
2021-08-19 02:46:38.264,0.16,-0.155
2021-08-19 02:46:38.268,0.14,-0.135
2021-08-19 02:46:38.272,0.16,-0.14
2021-08-19 02:46:38.276,0.155,-0.135
2021-08-19 02:46:38.280,0.15,-0.16
2021-08-19 02:46:38.284,0.14,-0.135
2021-08-19 02:46:38.288,0.135,-0.155
2021-08-19 02:46:38.292,0.15,-0.15
2021-08-19 02:46:38.296,0.14,-0.145
2021-08-19 02:46:38.300,0.155,-0.145
2021-08-19 02:46:38.304,0.135,-0.145
2021-08-19 02:46:38.308,0.105,-0.135
2021-08-19 02:46:38.312,0.145,-0.145
2021-08-19 02:46:38.316,0.135,-0.15
2021-08-19 02:46:38.320,0.15,-0.145
2021-08-19 02:46:38.324,0.145,-0.15
2021-08-19 02:46:38.328,0.155,-0.13
2021-08-19 02:46:38.332,0.125,-0.1
2021-08-19 02:46:38.336,0.13,-0.1
2021-08-19 02:46:38.340,0.135,-0.055
2021-08-19 02:46:38.344,0.125,-0.01
2021-08-19 02:46:38.348,0.125,0.01
2021-08-19 02:46:38.352,0.145,0.035
2021-08-19 02:46:38.356,0.165,0.06
2021-08-19 02:46:38.360,0.175,0.035
2021-08-19 02:46:38.364,0.195,0.045
2021-08-19 02:46:38.368,0.225,0.045
2021-08-19 02:46:38.372,0.23,0.055
2021-08-19 02:46:38.376,0.255,0.035
2021-08-19 02:46:38.380,0.255,0.03
2021-08-19 02:46:38.384,0.275,0.035
2021-08-19 02:46:38.388,0.245,0.005
2021-08-19 02:46:38.392,0.235,0.005
2021-08-19 02:46:38.396,0.22,0.015
2021-08-19 02:46:38.400,0.195,-0.035
2021-08-19 02:46:38.404,0.17,-0.085
2021-08-19 02:46:38.408,0.13,-0.12
2021-08-19 02:46:38.412,0.11,-0.14
2021-08-19 02:46:38.416,0.09,-0.125
2021-08-19 02:46:38.420,0.09,-0.11
2021-08-19 02:46:38.424,0.06,-0.11
2021-08-19 02:46:38.428,0.065,-0.105
2021-08-19 02:46:38.432,0.05,-0.08
2021-08-19 02:46:38.436,0.03,-0.08
2021-08-19 02:46:38.440,0.055,-0.075
2021-08-19 02:46:38.444,0.065,-0.12
2021-08-19 02:46:38.448,0.06,-0.12
2021-08-19 02:46:38.452,0.085,-0.13
2021-08-19 02:46:38.456,0.105,-0.155
2021-08-19 02:46:38.460,0.09,-0.19
2021-08-19 02:46:38.464,0.105,-0.2
2021-08-19 02:46:38.468,0.11,-0.215
2021-08-19 02:46:38.472,0.13,-0.195
2021-08-19 02:46:38.476,0.165,-0.18
2021-08-19 02:46:38.480,0.175,-0.21
2021-08-19 02:46:38.484,0.17,-0.195
2021-08-19 02:46:38.488,0.185,-0.195
2021-08-19 02:46:38.492,0.17,-0.185
2021-08-19 02:46:38.496,0.165,-0.19
2021-08-19 02:46:38.500,0.145,-0.19
2021-08-19 02:46:38.504,0.165,-0.195
2021-08-19 02:46:38.508,0.165,-0.185
2021-08-19 02:46:38.512,0.175,-0.175
2021-08-19 02:46:38.516,0.16,-0.17
2021-08-19 02:46:38.520,0.145,-0.15
2021-08-19 02:46:38.524,0.145,-0.12
2021-08-19 02:46:38.528,0.145,-0.07
2021-08-19 02:46:38.532,0.14,-0.025
2021-08-19 02:46:38.536,0.16,-0.01
2021-08-19 02:46:38.540,0.145,0.11
2021-08-19 02:46:38.544,0.16,0.37
2021-08-19 02:46:38.548,0.165,0.685
2021-08-19 02:46:38.552,0.2,0.935
2021-08-19 02:46:38.556,0.225,1.085
2021-08-19 02:46:38.560,0.215,1.165
2021-08-19 02:46:38.564,0.18,1.16
2021-08-19 02:46:38.568,0.125,1.02
2021-08-19 02:46:38.572,0.11,0.675
2021-08-19 02:46:38.576,0.03,0.195
2021-08-19 02:46:38.580,-0.2,-0.17
2021-08-19 02:46:38.584,-0.535,-0.18
2021-08-19 02:46:38.588,-0.875,0.0
2021-08-19 02:46:38.592,-1.155,0.035
2021-08-19 02:46:38.596,-1.32,-0.19
2021-08-19 02:46:38.600,-1.37,-0.46
2021-08-19 02:46:38.604,-1.22,-0.62
2021-08-19 02:46:38.608,-0.87,-0.685
2021-08-19 02:46:38.612,-0.45,-0.705
2021-08-19 02:46:38.616,-0.165,-0.61
2021-08-19 02:46:38.620,-0.05,-0.51
2021-08-19 02:46:38.624,-0.05,-0.4
2021-08-19 02:46:38.628,-0.045,-0.34
2021-08-19 02:46:38.632,-0.035,-0.33
2021-08-19 02:46:38.636,-0.025,-0.31
2021-08-19 02:46:38.640,0.02,-0.315
2021-08-19 02:46:38.644,0.04,-0.33
2021-08-19 02:46:38.648,0.115,-0.305
2021-08-19 02:46:38.652,0.205,-0.315
2021-08-19 02:46:38.656,0.21,-0.345
2021-08-19 02:46:38.660,0.25,-0.315
2021-08-19 02:46:38.664,0.245,-0.31
2021-08-19 02:46:38.668,0.24,-0.31
2021-08-19 02:46:38.672,0.24,-0.31
2021-08-19 02:46:38.676,0.25,-0.31
2021-08-19 02:46:38.680,0.24,-0.31
2021-08-19 02:46:38.684,0.26,-0.315
2021-08-19 02:46:38.688,0.24,-0.31
2021-08-19 02:46:38.692,0.275,-0.295
2021-08-19 02:46:38.696,0.265,-0.29
2021-08-19 02:46:38.700,0.275,-0.285
2021-08-19 02:46:38.704,0.285,-0.3
2021-08-19 02:46:38.708,0.285,-0.295
2021-08-19 02:46:38.712,0.265,-0.275
2021-08-19 02:46:38.716,0.265,-0.265
2021-08-19 02:46:38.720,0.275,-0.27
2021-08-19 02:46:38.724,0.27,-0.28
2021-08-19 02:46:38.728,0.27,-0.265
2021-08-19 02:46:38.732,0.295,-0.265
2021-08-19 02:46:38.736,0.28,-0.27
2021-08-19 02:46:38.740,0.295,-0.27
2021-08-19 02:46:38.744,0.275,-0.27
2021-08-19 02:46:38.748,0.28,-0.26
2021-08-19 02:46:38.752,0.275,-0.27
2021-08-19 02:46:38.756,0.27,-0.27
2021-08-19 02:46:38.760,0.275,-0.265
2021-08-19 02:46:38.764,0.285,-0.26
2021-08-19 02:46:38.768,0.265,-0.27
2021-08-19 02:46:38.772,0.265,-0.26
2021-08-19 02:46:38.776,0.265,-0.25
2021-08-19 02:46:38.780,0.27,-0.265
2021-08-19 02:46:38.784,0.26,-0.23
2021-08-19 02:46:38.788,0.245,-0.235
2021-08-19 02:46:38.792,0.26,-0.235
2021-08-19 02:46:38.796,0.245,-0.225
2021-08-19 02:46:38.800,0.265,-0.215
2021-08-19 02:46:38.804,0.25,-0.225
2021-08-19 02:46:38.808,0.25,-0.22
2021-08-19 02:46:38.812,0.24,-0.195
2021-08-19 02:46:38.816,0.26,-0.195
2021-08-19 02:46:38.820,0.24,-0.18
2021-08-19 02:46:38.824,0.24,-0.18
2021-08-19 02:46:38.828,0.24,-0.16
2021-08-19 02:46:38.832,0.22,-0.14
2021-08-19 02:46:38.836,0.215,-0.13
2021-08-19 02:46:38.840,0.235,-0.115
2021-08-19 02:46:38.844,0.21,-0.11
2021-08-19 02:46:38.848,0.205,-0.1
2021-08-19 02:46:38.852,0.2,-0.065
2021-08-19 02:46:38.856,0.18,-0.065
2021-08-19 02:46:38.860,0.215,-0.06
2021-08-19 02:46:38.864,0.185,-0.045
2021-08-19 02:46:38.868,0.175,-0.035
2021-08-19 02:46:38.872,0.18,-0.05
2021-08-19 02:46:38.876,0.165,-0.045
2021-08-19 02:46:38.880,0.165,-0.025
2021-08-19 02:46:38.884,0.18,-0.035
2021-08-19 02:46:38.888,0.18,-0.045
2021-08-19 02:46:38.892,0.17,-0.03
2021-08-19 02:46:38.896,0.15,-0.055
2021-08-19 02:46:38.900,0.165,-0.045
2021-08-19 02:46:38.904,0.175,-0.055
2021-08-19 02:46:38.908,0.17,-0.055
2021-08-19 02:46:38.912,0.17,-0.05
2021-08-19 02:46:38.916,0.18,-0.07
2021-08-19 02:46:38.920,0.175,-0.08
2021-08-19 02:46:38.924,0.185,-0.09
2021-08-19 02:46:38.928,0.16,-0.095
2021-08-19 02:46:38.932,0.16,-0.095
2021-08-19 02:46:38.936,0.18,-0.11
2021-08-19 02:46:38.940,0.15,-0.095
2021-08-19 02:46:38.944,0.18,-0.12
2021-08-19 02:46:38.948,0.185,-0.115
2021-08-19 02:46:38.952,0.165,-0.12
2021-08-19 02:46:38.956,0.175,-0.12
2021-08-19 02:46:38.960,0.16,-0.14
2021-08-19 02:46:38.964,0.17,-0.145
2021-08-19 02:46:38.968,0.17,-0.155
2021-08-19 02:46:38.972,0.17,-0.135
2021-08-19 02:46:38.976,0.17,-0.135
2021-08-19 02:46:38.980,0.17,-0.16
2021-08-19 02:46:38.984,0.18,-0.16
2021-08-19 02:46:38.988,0.175,-0.18
2021-08-19 02:46:38.992,0.19,-0.175
2021-08-19 02:46:38.996,0.185,-0.17
2021-08-19 02:46:39.000,0.185,-0.175
2021-08-19 02:46:39.004,0.195,-0.165
2021-08-19 02:46:39.008,0.195,-0.165
2021-08-19 02:46:39.012,0.18,-0.145
2021-08-19 02:46:39.016,0.2,-0.16
2021-08-19 02:46:39.020,0.185,-0.165
2021-08-19 02:46:39.024,0.19,-0.155
2021-08-19 02:46:39.028,0.18,-0.175
2021-08-19 02:46:39.032,0.185,-0.165
2021-08-19 02:46:39.036,0.18,-0.18
2021-08-19 02:46:39.040,0.19,-0.16
2021-08-19 02:46:39.044,0.18,-0.155
2021-08-19 02:46:39.048,0.185,-0.155
2021-08-19 02:46:39.052,0.195,-0.16
2021-08-19 02:46:39.056,0.195,-0.16
2021-08-19 02:46:39.060,0.195,-0.15
2021-08-19 02:46:39.064,0.2,-0.15
2021-08-19 02:46:39.068,0.185,-0.155
2021-08-19 02:46:39.072,0.205,-0.16
2021-08-19 02:46:39.076,0.195,-0.15
2021-08-19 02:46:39.080,0.185,-0.17
2021-08-19 02:46:39.084,0.16,-0.155
2021-08-19 02:46:39.088,0.16,-0.16
2021-08-19 02:46:39.092,0.175,-0.17
2021-08-19 02:46:39.096,0.18,-0.17
2021-08-19 02:46:39.100,0.175,-0.145
2021-08-19 02:46:39.104,0.16,-0.155
2021-08-19 02:46:39.108,0.13,-0.155
2021-08-19 02:46:39.112,0.15,-0.155
2021-08-19 02:46:39.116,0.165,-0.16
2021-08-19 02:46:39.120,0.155,-0.165
2021-08-19 02:46:39.124,0.15,-0.165
2021-08-19 02:46:39.128,0.155,-0.17
2021-08-19 02:46:39.132,0.15,-0.165
2021-08-19 02:46:39.136,0.145,-0.155
2021-08-19 02:46:39.140,0.14,-0.16
2021-08-19 02:46:39.144,0.145,-0.17
2021-08-19 02:46:39.148,0.15,-0.16
2021-08-19 02:46:39.152,0.155,-0.18
2021-08-19 02:46:39.156,0.13,-0.165
2021-08-19 02:46:39.160,0.145,-0.165
2021-08-19 02:46:39.164,0.15,-0.17
2021-08-19 02:46:39.168,0.15,-0.175
2021-08-19 02:46:39.172,0.135,-0.18
2021-08-19 02:46:39.176,0.135,-0.17
2021-08-19 02:46:39.180,0.125,-0.2
2021-08-19 02:46:39.184,0.14,-0.18
2021-08-19 02:46:39.188,0.155,-0.17
2021-08-19 02:46:39.192,0.16,-0.18
2021-08-19 02:46:39.196,0.14,-0.165
2021-08-19 02:46:39.200,0.13,-0.16
2021-08-19 02:46:39.204,0.14,-0.175
2021-08-19 02:46:39.208,0.125,-0.14
2021-08-19 02:46:39.212,0.15,-0.13
2021-08-19 02:46:39.216,0.135,-0.14
2021-08-19 02:46:39.220,0.145,-0.1
2021-08-19 02:46:39.224,0.13,-0.04
2021-08-19 02:46:39.228,0.135,-0.025
2021-08-19 02:46:39.232,0.12,0.005
2021-08-19 02:46:39.236,0.155,0.03
2021-08-19 02:46:39.240,0.15,0.025
2021-08-19 02:46:39.244,0.185,0.025
2021-08-19 02:46:39.248,0.21,0.03
2021-08-19 02:46:39.252,0.24,0.01
2021-08-19 02:46:39.256,0.235,0.0
2021-08-19 02:46:39.260,0.235,-0.015
2021-08-19 02:46:39.264,0.245,0.0
2021-08-19 02:46:39.268,0.245,-0.01
2021-08-19 02:46:39.272,0.22,-0.015
2021-08-19 02:46:39.276,0.19,-0.025
2021-08-19 02:46:39.280,0.18,-0.07
2021-08-19 02:46:39.284,0.16,-0.13
2021-08-19 02:46:39.288,0.105,-0.165
2021-08-19 02:46:39.292,0.095,-0.16
2021-08-19 02:46:39.296,0.065,-0.16
2021-08-19 02:46:39.300,0.055,-0.12
2021-08-19 02:46:39.304,0.065,-0.125
2021-08-19 02:46:39.308,0.035,-0.12
2021-08-19 02:46:39.312,0.04,-0.125
2021-08-19 02:46:39.316,0.03,-0.11
2021-08-19 02:46:39.320,0.02,-0.12
2021-08-19 02:46:39.324,0.05,-0.135
2021-08-19 02:46:39.328,0.06,-0.15
2021-08-19 02:46:39.332,0.075,-0.15
2021-08-19 02:46:39.336,0.07,-0.185
2021-08-19 02:46:39.340,0.045,-0.19
2021-08-19 02:46:39.344,0.08,-0.22
2021-08-19 02:46:39.348,0.075,-0.225
2021-08-19 02:46:39.352,0.105,-0.22
2021-08-19 02:46:39.356,0.145,-0.22
2021-08-19 02:46:39.360,0.15,-0.22
2021-08-19 02:46:39.364,0.13,-0.21
2021-08-19 02:46:39.368,0.145,-0.22
2021-08-19 02:46:39.372,0.12,-0.21
2021-08-19 02:46:39.376,0.115,-0.215
2021-08-19 02:46:39.380,0.11,-0.23
2021-08-19 02:46:39.384,0.125,-0.22
2021-08-19 02:46:39.388,0.125,-0.21
2021-08-19 02:46:39.392,0.13,-0.205
2021-08-19 02:46:39.396,0.12,-0.225
2021-08-19 02:46:39.400,0.13,-0.205
2021-08-19 02:46:39.404,0.125,-0.175
2021-08-19 02:46:39.408,0.13,-0.11
2021-08-19 02:46:39.412,0.105,-0.075
2021-08-19 02:46:39.416,0.11,-0.05
2021-08-19 02:46:39.420,0.125,0.075
2021-08-19 02:46:39.424,0.115,0.335
2021-08-19 02:46:39.428,0.12,0.625
2021-08-19 02:46:39.432,0.175,0.86
2021-08-19 02:46:39.436,0.195,1.025
2021-08-19 02:46:39.440,0.195,1.095
2021-08-19 02:46:39.444,0.15,1.075
2021-08-19 02:46:39.448,0.11,0.93
2021-08-19 02:46:39.452,0.075,0.64
2021-08-19 02:46:39.456,-0.01,0.17
2021-08-19 02:46:39.460,-0.22,-0.195
2021-08-19 02:46:39.464,-0.525,-0.22
2021-08-19 02:46:39.468,-0.905,-0.02
2021-08-19 02:46:39.472,-1.2,0.045
2021-08-19 02:46:39.476,-1.415,-0.16
2021-08-19 02:46:39.480,-1.455,-0.44
2021-08-19 02:46:39.484,-1.335,-0.62
2021-08-19 02:46:39.488,-0.995,-0.74
2021-08-19 02:46:39.492,-0.545,-0.72
2021-08-19 02:46:39.496,-0.225,-0.665
2021-08-19 02:46:39.500,-0.105,-0.54
2021-08-19 02:46:39.504,-0.08,-0.45
2021-08-19 02:46:39.508,-0.08,-0.365
2021-08-19 02:46:39.512,-0.065,-0.35
2021-08-19 02:46:39.516,-0.06,-0.345
2021-08-19 02:46:39.520,-0.01,-0.34
2021-08-19 02:46:39.524,0.035,-0.355
2021-08-19 02:46:39.528,0.09,-0.325
2021-08-19 02:46:39.532,0.145,-0.335
2021-08-19 02:46:39.536,0.215,-0.32
2021-08-19 02:46:39.540,0.205,-0.32
2021-08-19 02:46:39.544,0.235,-0.34
2021-08-19 02:46:39.548,0.235,-0.325
2021-08-19 02:46:39.552,0.205,-0.32
2021-08-19 02:46:39.556,0.23,-0.325
2021-08-19 02:46:39.560,0.26,-0.32
2021-08-19 02:46:39.564,0.225,-0.325
2021-08-19 02:46:39.568,0.24,-0.305
2021-08-19 02:46:39.572,0.255,-0.31
2021-08-19 02:46:39.576,0.23,-0.32
2021-08-19 02:46:39.580,0.24,-0.32
2021-08-19 02:46:39.584,0.27,-0.32
2021-08-19 02:46:39.588,0.235,-0.29
2021-08-19 02:46:39.592,0.27,-0.31
2021-08-19 02:46:39.596,0.25,-0.315
2021-08-19 02:46:39.600,0.265,-0.31
2021-08-19 02:46:39.604,0.26,-0.31
2021-08-19 02:46:39.608,0.255,-0.295
2021-08-19 02:46:39.612,0.25,-0.31
2021-08-19 02:46:39.616,0.245,-0.305
2021-08-19 02:46:39.620,0.255,-0.32
2021-08-19 02:46:39.624,0.255,-0.325
2021-08-19 02:46:39.628,0.265,-0.305
2021-08-19 02:46:39.632,0.26,-0.285
2021-08-19 02:46:39.636,0.25,-0.3
2021-08-19 02:46:39.640,0.26,-0.3
2021-08-19 02:46:39.644,0.255,-0.3
2021-08-19 02:46:39.648,0.255,-0.29
2021-08-19 02:46:39.652,0.24,-0.3
2021-08-19 02:46:39.656,0.25,-0.3
2021-08-19 02:46:39.660,0.24,-0.3
2021-08-19 02:46:39.664,0.225,-0.295
2021-08-19 02:46:39.668,0.245,-0.295
2021-08-19 02:46:39.672,0.255,-0.3
2021-08-19 02:46:39.676,0.235,-0.275
2021-08-19 02:46:39.680,0.225,-0.255
2021-08-19 02:46:39.684,0.235,-0.285
2021-08-19 02:46:39.688,0.255,-0.255
2021-08-19 02:46:39.692,0.225,-0.27
2021-08-19 02:46:39.696,0.22,-0.255
2021-08-19 02:46:39.700,0.23,-0.24
2021-08-19 02:46:39.704,0.22,-0.215
2021-08-19 02:46:39.708,0.25,-0.205
2021-08-19 02:46:39.712,0.235,-0.21
2021-08-19 02:46:39.716,0.235,-0.18
2021-08-19 02:46:39.720,0.215,-0.18
2021-08-19 02:46:39.724,0.225,-0.16
2021-08-19 02:46:39.728,0.21,-0.16
2021-08-19 02:46:39.732,0.215,-0.16
2021-08-19 02:46:39.736,0.22,-0.125
2021-08-19 02:46:39.740,0.215,-0.12
2021-08-19 02:46:39.744,0.2,-0.105
2021-08-19 02:46:39.748,0.205,-0.08
2021-08-19 02:46:39.752,0.19,-0.08
2021-08-19 02:46:39.756,0.19,-0.075
2021-08-19 02:46:39.760,0.17,-0.09
2021-08-19 02:46:39.764,0.18,-0.08
2021-08-19 02:46:39.768,0.18,-0.075
2021-08-19 02:46:39.772,0.19,-0.085
2021-08-19 02:46:39.776,0.165,-0.07
2021-08-19 02:46:39.780,0.165,-0.06
2021-08-19 02:46:39.784,0.165,-0.06
2021-08-19 02:46:39.788,0.17,-0.1
2021-08-19 02:46:39.792,0.17,-0.1
2021-08-19 02:46:39.796,0.175,-0.11
2021-08-19 02:46:39.800,0.2,-0.12
2021-08-19 02:46:39.804,0.18,-0.13
2021-08-19 02:46:39.808,0.17,-0.12
2021-08-19 02:46:39.812,0.17,-0.125
2021-08-19 02:46:39.816,0.2,-0.13
2021-08-19 02:46:39.820,0.195,-0.155
2021-08-19 02:46:39.824,0.185,-0.155
2021-08-19 02:46:39.828,0.185,-0.16
2021-08-19 02:46:39.832,0.175,-0.155
2021-08-19 02:46:39.836,0.18,-0.16
2021-08-19 02:46:39.840,0.175,-0.175
2021-08-19 02:46:39.844,0.175,-0.195
2021-08-19 02:46:39.848,0.19,-0.185
2021-08-19 02:46:39.852,0.2,-0.18
2021-08-19 02:46:39.856,0.2,-0.195
2021-08-19 02:46:39.860,0.19,-0.2
2021-08-19 02:46:39.864,0.205,-0.215
2021-08-19 02:46:39.868,0.195,-0.2
2021-08-19 02:46:39.872,0.205,-0.18
2021-08-19 02:46:39.876,0.22,-0.195
2021-08-19 02:46:39.880,0.19,-0.195
2021-08-19 02:46:39.884,0.185,-0.205
2021-08-19 02:46:39.888,0.205,-0.225
2021-08-19 02:46:39.892,0.165,-0.21
2021-08-19 02:46:39.896,0.185,-0.225
2021-08-19 02:46:39.900,0.2,-0.205
2021-08-19 02:46:39.904,0.2,-0.205
2021-08-19 02:46:39.908,0.195,-0.215
2021-08-19 02:46:39.912,0.195,-0.215
2021-08-19 02:46:39.916,0.2,-0.21
2021-08-19 02:46:39.920,0.215,-0.205
2021-08-19 02:46:39.924,0.195,-0.195
2021-08-19 02:46:39.928,0.185,-0.225
2021-08-19 02:46:39.932,0.175,-0.195
2021-08-19 02:46:39.936,0.185,-0.2
2021-08-19 02:46:39.940,0.205,-0.215
2021-08-19 02:46:39.944,0.185,-0.2
2021-08-19 02:46:39.948,0.175,-0.18
2021-08-19 02:46:39.952,0.205,-0.205
2021-08-19 02:46:39.956,0.2,-0.215
2021-08-19 02:46:39.960,0.18,-0.2
2021-08-19 02:46:39.964,0.19,-0.21
2021-08-19 02:46:39.968,0.195,-0.21
2021-08-19 02:46:39.972,0.175,-0.21
2021-08-19 02:46:39.976,0.185,-0.215
2021-08-19 02:46:39.980,0.18,-0.235
2021-08-19 02:46:39.984,0.17,-0.225
2021-08-19 02:46:39.988,0.18,-0.21
2021-08-19 02:46:39.992,0.17,-0.2
2021-08-19 02:46:39.996,0.18,-0.215
2021-08-19 02:46:40.000,0.19,-0.2
2021-08-19 02:46:40.004,0.195,-0.22
2021-08-19 02:46:40.008,0.175,-0.23
2021-08-19 02:46:40.012,0.19,-0.21
2021-08-19 02:46:40.016,0.17,-0.22
2021-08-19 02:46:40.020,0.18,-0.24
2021-08-19 02:46:40.024,0.185,-0.21
2021-08-19 02:46:40.028,0.17,-0.205
2021-08-19 02:46:40.032,0.18,-0.21
2021-08-19 02:46:40.036,0.165,-0.225
2021-08-19 02:46:40.040,0.16,-0.21
2021-08-19 02:46:40.044,0.17,-0.21
2021-08-19 02:46:40.048,0.175,-0.205
2021-08-19 02:46:40.052,0.165,-0.215
2021-08-19 02:46:40.056,0.15,-0.2
2021-08-19 02:46:40.060,0.15,-0.2
2021-08-19 02:46:40.064,0.16,-0.225
2021-08-19 02:46:40.068,0.145,-0.195
2021-08-19 02:46:40.072,0.18,-0.205
2021-08-19 02:46:40.076,0.15,-0.23
2021-08-19 02:46:40.080,0.135,-0.21
2021-08-19 02:46:40.084,0.175,-0.22
2021-08-19 02:46:40.088,0.175,-0.22
2021-08-19 02:46:40.092,0.165,-0.215
2021-08-19 02:46:40.096,0.15,-0.22
2021-08-19 02:46:40.100,0.14,-0.19
2021-08-19 02:46:40.104,0.145,-0.155
2021-08-19 02:46:40.108,0.155,-0.13
2021-08-19 02:46:40.112,0.155,-0.09
2021-08-19 02:46:40.116,0.14,-0.055
2021-08-19 02:46:40.120,0.155,-0.015
2021-08-19 02:46:40.124,0.155,0.0
2021-08-19 02:46:40.128,0.185,-0.015
2021-08-19 02:46:40.132,0.205,-0.02
2021-08-19 02:46:40.136,0.21,-0.03
2021-08-19 02:46:40.140,0.23,-0.01
2021-08-19 02:46:40.144,0.24,-0.015
2021-08-19 02:46:40.148,0.255,-0.035
2021-08-19 02:46:40.152,0.265,-0.015
2021-08-19 02:46:40.156,0.26,-0.02
2021-08-19 02:46:40.160,0.24,-0.01
2021-08-19 02:46:40.164,0.225,-0.005
2021-08-19 02:46:40.168,0.215,-0.05
2021-08-19 02:46:40.172,0.19,-0.095
2021-08-19 02:46:40.176,0.17,-0.14
2021-08-19 02:46:40.180,0.135,-0.17
2021-08-19 02:46:40.184,0.095,-0.185
2021-08-19 02:46:40.188,0.08,-0.18
2021-08-19 02:46:40.192,0.09,-0.175
2021-08-19 02:46:40.196,0.045,-0.15
2021-08-19 02:46:40.200,0.055,-0.15
2021-08-19 02:46:40.204,0.06,-0.14
2021-08-19 02:46:40.208,0.065,-0.145
2021-08-19 02:46:40.212,0.06,-0.16
2021-08-19 02:46:40.216,0.075,-0.16
2021-08-19 02:46:40.220,0.045,-0.17
2021-08-19 02:46:40.224,0.075,-0.185
2021-08-19 02:46:40.228,0.085,-0.22
2021-08-19 02:46:40.232,0.08,-0.22
2021-08-19 02:46:40.236,0.105,-0.225
2021-08-19 02:46:40.240,0.095,-0.22
2021-08-19 02:46:40.244,0.115,-0.235
2021-08-19 02:46:40.248,0.14,-0.235
2021-08-19 02:46:40.252,0.16,-0.23
2021-08-19 02:46:40.256,0.15,-0.22
2021-08-19 02:46:40.260,0.145,-0.225
2021-08-19 02:46:40.264,0.135,-0.215
2021-08-19 02:46:40.268,0.12,-0.225
2021-08-19 02:46:40.272,0.145,-0.215
2021-08-19 02:46:40.276,0.13,-0.23
2021-08-19 02:46:40.280,0.15,-0.225
2021-08-19 02:46:40.284,0.14,-0.235
2021-08-19 02:46:40.288,0.125,-0.225
2021-08-19 02:46:40.292,0.13,-0.23
2021-08-19 02:46:40.296,0.125,-0.195
2021-08-19 02:46:40.300,0.12,-0.15
2021-08-19 02:46:40.304,0.11,-0.11
2021-08-19 02:46:40.308,0.105,-0.115
2021-08-19 02:46:40.312,0.135,-0.05
2021-08-19 02:46:40.316,0.11,0.1
2021-08-19 02:46:40.320,0.13,0.36
2021-08-19 02:46:40.324,0.16,0.615
2021-08-19 02:46:40.328,0.18,0.84
2021-08-19 02:46:40.332,0.18,0.955
2021-08-19 02:46:40.336,0.145,1.0
2021-08-19 02:46:40.340,0.1,0.965
2021-08-19 02:46:40.344,0.1,0.815
2021-08-19 02:46:40.348,0.035,0.505
2021-08-19 02:46:40.352,-0.09,0.09
2021-08-19 02:46:40.356,-0.325,-0.195
2021-08-19 02:46:40.360,-0.65,-0.21
2021-08-19 02:46:40.364,-0.98,-0.06
2021-08-19 02:46:40.368,-1.22,-0.07
2021-08-19 02:46:40.372,-1.345,-0.265
2021-08-19 02:46:40.376,-1.34,-0.505
2021-08-19 02:46:40.380,-1.17,-0.645
2021-08-19 02:46:40.384,-0.775,-0.69
2021-08-19 02:46:40.388,-0.4,-0.71
2021-08-19 02:46:40.392,-0.16,-0.63
2021-08-19 02:46:40.396,-0.08,-0.53
2021-08-19 02:46:40.400,-0.085,-0.445
2021-08-19 02:46:40.404,-0.065,-0.38
2021-08-19 02:46:40.408,-0.045,-0.395
2021-08-19 02:46:40.412,-0.025,-0.4
2021-08-19 02:46:40.416,0.0,-0.38
2021-08-19 02:46:40.420,0.055,-0.385
2021-08-19 02:46:40.424,0.1,-0.38
2021-08-19 02:46:40.428,0.145,-0.39
2021-08-19 02:46:40.432,0.19,-0.375
2021-08-19 02:46:40.436,0.2,-0.375
2021-08-19 02:46:40.440,0.205,-0.37
2021-08-19 02:46:40.444,0.225,-0.38
2021-08-19 02:46:40.448,0.2,-0.365
2021-08-19 02:46:40.452,0.195,-0.37
2021-08-19 02:46:40.456,0.22,-0.365
2021-08-19 02:46:40.460,0.23,-0.37
2021-08-19 02:46:40.464,0.225,-0.375
2021-08-19 02:46:40.468,0.23,-0.365
2021-08-19 02:46:40.472,0.205,-0.37
2021-08-19 02:46:40.476,0.225,-0.365
2021-08-19 02:46:40.480,0.23,-0.355
2021-08-19 02:46:40.484,0.215,-0.35
2021-08-19 02:46:40.488,0.225,-0.35
2021-08-19 02:46:40.492,0.215,-0.36
2021-08-19 02:46:40.496,0.225,-0.385
2021-08-19 02:46:40.500,0.215,-0.365
2021-08-19 02:46:40.504,0.23,-0.36
2021-08-19 02:46:40.508,0.23,-0.34
2021-08-19 02:46:40.512,0.235,-0.345
2021-08-19 02:46:40.516,0.23,-0.37
2021-08-19 02:46:40.520,0.23,-0.375
2021-08-19 02:46:40.524,0.205,-0.36
2021-08-19 02:46:40.528,0.225,-0.365
2021-08-19 02:46:40.532,0.225,-0.37
2021-08-19 02:46:40.536,0.23,-0.38
2021-08-19 02:46:40.540,0.225,-0.36
2021-08-19 02:46:40.544,0.215,-0.375
2021-08-19 02:46:40.548,0.215,-0.37
2021-08-19 02:46:40.552,0.22,-0.355
2021-08-19 02:46:40.556,0.2,-0.35
2021-08-19 02:46:40.560,0.215,-0.38
2021-08-19 02:46:40.564,0.195,-0.35
2021-08-19 02:46:40.568,0.21,-0.335
2021-08-19 02:46:40.572,0.18,-0.34
2021-08-19 02:46:40.576,0.2,-0.345
2021-08-19 02:46:40.580,0.195,-0.33
2021-08-19 02:46:40.584,0.18,-0.345
2021-08-19 02:46:40.588,0.17,-0.355
2021-08-19 02:46:40.592,0.18,-0.34
2021-08-19 02:46:40.596,0.18,-0.32
2021-08-19 02:46:40.600,0.16,-0.315
2021-08-19 02:46:40.604,0.17,-0.31
2021-08-19 02:46:40.608,0.18,-0.295
2021-08-19 02:46:40.612,0.185,-0.285
2021-08-19 02:46:40.616,0.185,-0.27
2021-08-19 02:46:40.620,0.155,-0.25
2021-08-19 02:46:40.624,0.17,-0.25
2021-08-19 02:46:40.628,0.145,-0.215
2021-08-19 02:46:40.632,0.15,-0.225
2021-08-19 02:46:40.636,0.135,-0.2
2021-08-19 02:46:40.640,0.16,-0.19
2021-08-19 02:46:40.644,0.14,-0.18
2021-08-19 02:46:40.648,0.135,-0.16
2021-08-19 02:46:40.652,0.135,-0.14
2021-08-19 02:46:40.656,0.11,-0.155
2021-08-19 02:46:40.660,0.11,-0.15
2021-08-19 02:46:40.664,0.125,-0.13
2021-08-19 02:46:40.668,0.115,-0.125
2021-08-19 02:46:40.672,0.09,-0.125
2021-08-19 02:46:40.676,0.105,-0.12
2021-08-19 02:46:40.680,0.13,-0.125
2021-08-19 02:46:40.684,0.12,-0.125
2021-08-19 02:46:40.688,0.12,-0.16
2021-08-19 02:46:40.692,0.11,-0.12
2021-08-19 02:46:40.696,0.12,-0.16
2021-08-19 02:46:40.700,0.125,-0.15
2021-08-19 02:46:40.704,0.15,-0.155
2021-08-19 02:46:40.708,0.145,-0.17
2021-08-19 02:46:40.712,0.14,-0.155
2021-08-19 02:46:40.716,0.15,-0.17
2021-08-19 02:46:40.720,0.15,-0.19
2021-08-19 02:46:40.724,0.135,-0.205
2021-08-19 02:46:40.728,0.15,-0.195
2021-08-19 02:46:40.732,0.15,-0.17
2021-08-19 02:46:40.736,0.165,-0.19
2021-08-19 02:46:40.740,0.165,-0.2
2021-08-19 02:46:40.744,0.18,-0.2
2021-08-19 02:46:40.748,0.165,-0.2
2021-08-19 02:46:40.752,0.165,-0.205
2021-08-19 02:46:40.756,0.15,-0.2
2021-08-19 02:46:40.760,0.17,-0.2
2021-08-19 02:46:40.764,0.175,-0.2
2021-08-19 02:46:40.768,0.17,-0.21
2021-08-19 02:46:40.772,0.185,-0.205
2021-08-19 02:46:40.776,0.185,-0.23
2021-08-19 02:46:40.780,0.17,-0.215
2021-08-19 02:46:40.784,0.18,-0.225
2021-08-19 02:46:40.788,0.18,-0.195
2021-08-19 02:46:40.792,0.18,-0.19
2021-08-19 02:46:40.796,0.19,-0.215
2021-08-19 02:46:40.800,0.185,-0.195
2021-08-19 02:46:40.804,0.185,-0.21
2021-08-19 02:46:40.808,0.175,-0.215
2021-08-19 02:46:40.812,0.175,-0.2
2021-08-19 02:46:40.816,0.18,-0.185
2021-08-19 02:46:40.820,0.2,-0.215
2021-08-19 02:46:40.824,0.195,-0.21
2021-08-19 02:46:40.828,0.18,-0.21
2021-08-19 02:46:40.832,0.175,-0.21
2021-08-19 02:46:40.836,0.19,-0.205
2021-08-19 02:46:40.840,0.17,-0.185
2021-08-19 02:46:40.844,0.175,-0.2
2021-08-19 02:46:40.848,0.175,-0.195
2021-08-19 02:46:40.852,0.16,-0.19
2021-08-19 02:46:40.856,0.2,-0.19
2021-08-19 02:46:40.860,0.17,-0.2
2021-08-19 02:46:40.864,0.17,-0.205
2021-08-19 02:46:40.868,0.155,-0.2
2021-08-19 02:46:40.872,0.165,-0.205
2021-08-19 02:46:40.876,0.18,-0.18
2021-08-19 02:46:40.880,0.165,-0.19
2021-08-19 02:46:40.884,0.195,-0.205
2021-08-19 02:46:40.888,0.15,-0.21
2021-08-19 02:46:40.892,0.15,-0.215
2021-08-19 02:46:40.896,0.15,-0.2
2021-08-19 02:46:40.900,0.17,-0.225
2021-08-19 02:46:40.904,0.17,-0.21
2021-08-19 02:46:40.908,0.18,-0.23
2021-08-19 02:46:40.912,0.175,-0.23
2021-08-19 02:46:40.916,0.15,-0.23
2021-08-19 02:46:40.920,0.155,-0.2
2021-08-19 02:46:40.924,0.165,-0.21
2021-08-19 02:46:40.928,0.155,-0.2
2021-08-19 02:46:40.932,0.135,-0.23
2021-08-19 02:46:40.936,0.135,-0.225
2021-08-19 02:46:40.940,0.165,-0.235
2021-08-19 02:46:40.944,0.175,-0.225
2021-08-19 02:46:40.948,0.14,-0.225
2021-08-19 02:46:40.952,0.16,-0.23
2021-08-19 02:46:40.956,0.16,-0.225
2021-08-19 02:46:40.960,0.155,-0.225
2021-08-19 02:46:40.964,0.15,-0.21
2021-08-19 02:46:40.968,0.14,-0.225
2021-08-19 02:46:40.972,0.15,-0.22
2021-08-19 02:46:40.976,0.135,-0.2
2021-08-19 02:46:40.980,0.15,-0.205
2021-08-19 02:46:40.984,0.135,-0.185
2021-08-19 02:46:40.988,0.14,-0.15
2021-08-19 02:46:40.992,0.17,-0.1
2021-08-19 02:46:40.996,0.135,-0.06
2021-08-19 02:46:41.000,0.15,-0.04
2021-08-19 02:46:41.004,0.155,-0.02
2021-08-19 02:46:41.008,0.17,-0.035
2021-08-19 02:46:41.012,0.195,-0.025
2021-08-19 02:46:41.016,0.225,-0.02
2021-08-19 02:46:41.020,0.255,-0.01
2021-08-19 02:46:41.024,0.265,-0.03
2021-08-19 02:46:41.028,0.29,-0.03
2021-08-19 02:46:41.032,0.26,-0.025
2021-08-19 02:46:41.036,0.29,-0.025
2021-08-19 02:46:41.040,0.26,-0.015
2021-08-19 02:46:41.044,0.25,-0.015
2021-08-19 02:46:41.048,0.225,-0.045
2021-08-19 02:46:41.052,0.205,-0.09
2021-08-19 02:46:41.056,0.175,-0.17
2021-08-19 02:46:41.060,0.135,-0.17
2021-08-19 02:46:41.064,0.135,-0.185
2021-08-19 02:46:41.068,0.125,-0.18
2021-08-19 02:46:41.072,0.1,-0.165
2021-08-19 02:46:41.076,0.07,-0.145
2021-08-19 02:46:41.080,0.07,-0.14
2021-08-19 02:46:41.084,0.07,-0.16
2021-08-19 02:46:41.088,0.06,-0.165
2021-08-19 02:46:41.092,0.07,-0.16
2021-08-19 02:46:41.096,0.07,-0.16
2021-08-19 02:46:41.100,0.085,-0.18
2021-08-19 02:46:41.104,0.095,-0.205
2021-08-19 02:46:41.108,0.1,-0.24
2021-08-19 02:46:41.112,0.09,-0.235
2021-08-19 02:46:41.116,0.105,-0.26
2021-08-19 02:46:41.120,0.14,-0.25
2021-08-19 02:46:41.124,0.19,-0.255
2021-08-19 02:46:41.128,0.185,-0.27
2021-08-19 02:46:41.132,0.17,-0.27
2021-08-19 02:46:41.136,0.18,-0.23
2021-08-19 02:46:41.140,0.155,-0.24
2021-08-19 02:46:41.144,0.16,-0.25
2021-08-19 02:46:41.148,0.165,-0.255
2021-08-19 02:46:41.152,0.155,-0.265
2021-08-19 02:46:41.156,0.16,-0.25
2021-08-19 02:46:41.160,0.175,-0.235
2021-08-19 02:46:41.164,0.17,-0.215
2021-08-19 02:46:41.168,0.15,-0.22
2021-08-19 02:46:41.172,0.16,-0.2
2021-08-19 02:46:41.176,0.17,-0.16
2021-08-19 02:46:41.180,0.155,-0.145
2021-08-19 02:46:41.184,0.16,-0.1
2021-08-19 02:46:41.188,0.155,-0.015
2021-08-19 02:46:41.192,0.165,0.215
2021-08-19 02:46:41.196,0.165,0.515
2021-08-19 02:46:41.200,0.195,0.8
2021-08-19 02:46:41.204,0.235,1.005
2021-08-19 02:46:41.208,0.23,1.12
2021-08-19 02:46:41.212,0.205,1.185
2021-08-19 02:46:41.216,0.175,1.12
2021-08-19 02:46:41.220,0.145,0.89
2021-08-19 02:46:41.224,0.075,0.465
2021-08-19 02:46:41.228,-0.1,0.025
2021-08-19 02:46:41.232,-0.37,-0.15
2021-08-19 02:46:41.236,-0.7,-0.09
2021-08-19 02:46:41.240,-0.99,-0.08
2021-08-19 02:46:41.244,-1.175,-0.265
2021-08-19 02:46:41.248,-1.215,-0.495
2021-08-19 02:46:41.252,-1.145,-0.63
2021-08-19 02:46:41.256,-0.845,-0.735
2021-08-19 02:46:41.260,-0.47,-0.73
2021-08-19 02:46:41.264,-0.2,-0.695
2021-08-19 02:46:41.268,-0.11,-0.57
2021-08-19 02:46:41.272,-0.075,-0.47
2021-08-19 02:46:41.276,-0.045,-0.435
2021-08-19 02:46:41.280,-0.015,-0.41
2021-08-19 02:46:41.284,-0.025,-0.415
2021-08-19 02:46:41.288,0.03,-0.42
2021-08-19 02:46:41.292,0.075,-0.42
2021-08-19 02:46:41.296,0.15,-0.42
2021-08-19 02:46:41.300,0.18,-0.415
2021-08-19 02:46:41.304,0.23,-0.42
2021-08-19 02:46:41.308,0.21,-0.415
2021-08-19 02:46:41.312,0.215,-0.4
2021-08-19 02:46:41.316,0.235,-0.4
2021-08-19 02:46:41.320,0.235,-0.41
2021-08-19 02:46:41.324,0.225,-0.395
2021-08-19 02:46:41.328,0.25,-0.41
2021-08-19 02:46:41.332,0.245,-0.415
2021-08-19 02:46:41.336,0.22,-0.415
2021-08-19 02:46:41.340,0.235,-0.395
2021-08-19 02:46:41.344,0.23,-0.39
2021-08-19 02:46:41.348,0.245,-0.395
2021-08-19 02:46:41.352,0.22,-0.4
2021-08-19 02:46:41.356,0.225,-0.4
2021-08-19 02:46:41.360,0.235,-0.38
2021-08-19 02:46:41.364,0.235,-0.39
2021-08-19 02:46:41.368,0.235,-0.385
2021-08-19 02:46:41.372,0.245,-0.415
2021-08-19 02:46:41.376,0.225,-0.415
2021-08-19 02:46:41.380,0.225,-0.38
2021-08-19 02:46:41.384,0.235,-0.39
2021-08-19 02:46:41.388,0.225,-0.375
2021-08-19 02:46:41.392,0.24,-0.4
2021-08-19 02:46:41.396,0.215,-0.39
2021-08-19 02:46:41.400,0.2,-0.405
2021-08-19 02:46:41.404,0.21,-0.385
2021-08-19 02:46:41.408,0.205,-0.395
2021-08-19 02:46:41.412,0.21,-0.39
2021-08-19 02:46:41.416,0.21,-0.39
2021-08-19 02:46:41.420,0.205,-0.41
2021-08-19 02:46:41.424,0.215,-0.395
2021-08-19 02:46:41.428,0.21,-0.375
2021-08-19 02:46:41.432,0.215,-0.4
2021-08-19 02:46:41.436,0.2,-0.39
2021-08-19 02:46:41.440,0.185,-0.415
2021-08-19 02:46:41.444,0.19,-0.4
2021-08-19 02:46:41.448,0.185,-0.385
2021-08-19 02:46:41.452,0.205,-0.395
2021-08-19 02:46:41.456,0.19,-0.4
2021-08-19 02:46:41.460,0.18,-0.38
2021-08-19 02:46:41.464,0.17,-0.4
2021-08-19 02:46:41.468,0.175,-0.375
2021-08-19 02:46:41.472,0.175,-0.355
2021-08-19 02:46:41.476,0.16,-0.335
2021-08-19 02:46:41.480,0.175,-0.33
2021-08-19 02:46:41.484,0.17,-0.32
2021-08-19 02:46:41.488,0.165,-0.315
2021-08-19 02:46:41.492,0.17,-0.295
2021-08-19 02:46:41.496,0.14,-0.265
2021-08-19 02:46:41.500,0.14,-0.245
2021-08-19 02:46:41.504,0.14,-0.225
2021-08-19 02:46:41.508,0.135,-0.235
2021-08-19 02:46:41.512,0.14,-0.225
2021-08-19 02:46:41.516,0.125,-0.19
2021-08-19 02:46:41.520,0.13,-0.18
2021-08-19 02:46:41.524,0.13,-0.2
2021-08-19 02:46:41.528,0.135,-0.185
2021-08-19 02:46:41.532,0.13,-0.17
2021-08-19 02:46:41.536,0.125,-0.17
2021-08-19 02:46:41.540,0.155,-0.175
2021-08-19 02:46:41.544,0.125,-0.17
2021-08-19 02:46:41.548,0.13,-0.175
2021-08-19 02:46:41.552,0.115,-0.195
2021-08-19 02:46:41.556,0.12,-0.19
2021-08-19 02:46:41.560,0.125,-0.19
2021-08-19 02:46:41.564,0.155,-0.195
2021-08-19 02:46:41.568,0.135,-0.205
2021-08-19 02:46:41.572,0.14,-0.21
2021-08-19 02:46:41.576,0.145,-0.2
2021-08-19 02:46:41.580,0.15,-0.22
2021-08-19 02:46:41.584,0.18,-0.215
2021-08-19 02:46:41.588,0.175,-0.215
2021-08-19 02:46:41.592,0.165,-0.225
2021-08-19 02:46:41.596,0.165,-0.22
2021-08-19 02:46:41.600,0.17,-0.23
2021-08-19 02:46:41.604,0.17,-0.235
2021-08-19 02:46:41.608,0.18,-0.24
2021-08-19 02:46:41.612,0.175,-0.255
2021-08-19 02:46:41.616,0.17,-0.235
2021-08-19 02:46:41.620,0.175,-0.245
2021-08-19 02:46:41.624,0.18,-0.255
2021-08-19 02:46:41.628,0.17,-0.265
2021-08-19 02:46:41.632,0.19,-0.25
2021-08-19 02:46:41.636,0.18,-0.26
2021-08-19 02:46:41.640,0.205,-0.235
2021-08-19 02:46:41.644,0.22,-0.285
2021-08-19 02:46:41.648,0.195,-0.265
2021-08-19 02:46:41.652,0.185,-0.27
2021-08-19 02:46:41.656,0.175,-0.26
2021-08-19 02:46:41.660,0.18,-0.235
2021-08-19 02:46:41.664,0.195,-0.265
2021-08-19 02:46:41.668,0.195,-0.275
2021-08-19 02:46:41.672,0.19,-0.265
2021-08-19 02:46:41.676,0.205,-0.275
2021-08-19 02:46:41.680,0.19,-0.26
2021-08-19 02:46:41.684,0.165,-0.25
2021-08-19 02:46:41.688,0.17,-0.255
2021-08-19 02:46:41.692,0.17,-0.25
2021-08-19 02:46:41.696,0.19,-0.26
2021-08-19 02:46:41.700,0.185,-0.25
2021-08-19 02:46:41.704,0.195,-0.25
2021-08-19 02:46:41.708,0.175,-0.25
2021-08-19 02:46:41.712,0.165,-0.245
2021-08-19 02:46:41.716,0.175,-0.255
2021-08-19 02:46:41.720,0.17,-0.235
2021-08-19 02:46:41.724,0.175,-0.24
2021-08-19 02:46:41.728,0.17,-0.245
2021-08-19 02:46:41.732,0.16,-0.25
2021-08-19 02:46:41.736,0.16,-0.245
2021-08-19 02:46:41.740,0.19,-0.25
2021-08-19 02:46:41.744,0.17,-0.25
2021-08-19 02:46:41.748,0.15,-0.25
2021-08-19 02:46:41.752,0.155,-0.245
2021-08-19 02:46:41.756,0.155,-0.255
2021-08-19 02:46:41.760,0.175,-0.25
2021-08-19 02:46:41.764,0.175,-0.25
2021-08-19 02:46:41.768,0.165,-0.255
2021-08-19 02:46:41.772,0.165,-0.24
2021-08-19 02:46:41.776,0.165,-0.235
2021-08-19 02:46:41.780,0.155,-0.22
2021-08-19 02:46:41.784,0.18,-0.235
2021-08-19 02:46:41.788,0.145,-0.22
2021-08-19 02:46:41.792,0.185,-0.235
2021-08-19 02:46:41.796,0.155,-0.245
2021-08-19 02:46:41.800,0.17,-0.235
2021-08-19 02:46:41.804,0.18,-0.225
2021-08-19 02:46:41.808,0.175,-0.225
2021-08-19 02:46:41.812,0.17,-0.245
2021-08-19 02:46:41.816,0.17,-0.235
2021-08-19 02:46:41.820,0.145,-0.21
2021-08-19 02:46:41.824,0.155,-0.21
2021-08-19 02:46:41.828,0.145,-0.245
2021-08-19 02:46:41.832,0.15,-0.23
2021-08-19 02:46:41.836,0.14,-0.215
2021-08-19 02:46:41.840,0.155,-0.22
2021-08-19 02:46:41.844,0.14,-0.2
2021-08-19 02:46:41.848,0.155,-0.185
2021-08-19 02:46:41.852,0.165,-0.155
2021-08-19 02:46:41.856,0.155,-0.11
2021-08-19 02:46:41.860,0.175,-0.07
2021-08-19 02:46:41.864,0.16,-0.045
2021-08-19 02:46:41.868,0.175,-0.005
2021-08-19 02:46:41.872,0.19,-0.005
2021-08-19 02:46:41.876,0.23,-0.01
2021-08-19 02:46:41.880,0.225,0.0
2021-08-19 02:46:41.884,0.27,0.0
2021-08-19 02:46:41.888,0.27,-0.01
2021-08-19 02:46:41.892,0.285,-0.02
2021-08-19 02:46:41.896,0.31,-0.03
2021-08-19 02:46:41.900,0.31,-0.025
2021-08-19 02:46:41.904,0.275,-0.04
2021-08-19 02:46:41.908,0.245,-0.05
2021-08-19 02:46:41.912,0.235,-0.065
2021-08-19 02:46:41.916,0.185,-0.12
2021-08-19 02:46:41.920,0.155,-0.165
2021-08-19 02:46:41.924,0.115,-0.175
2021-08-19 02:46:41.928,0.1,-0.175
2021-08-19 02:46:41.932,0.085,-0.16
2021-08-19 02:46:41.936,0.075,-0.175
2021-08-19 02:46:41.940,0.055,-0.13
2021-08-19 02:46:41.944,0.045,-0.125
2021-08-19 02:46:41.948,0.04,-0.13
2021-08-19 02:46:41.952,0.055,-0.16
2021-08-19 02:46:41.956,0.035,-0.15
2021-08-19 02:46:41.960,0.07,-0.16
2021-08-19 02:46:41.964,0.085,-0.18
2021-08-19 02:46:41.968,0.07,-0.185
2021-08-19 02:46:41.972,0.085,-0.21
2021-08-19 02:46:41.976,0.075,-0.235
2021-08-19 02:46:41.980,0.09,-0.24
2021-08-19 02:46:41.984,0.115,-0.24
2021-08-19 02:46:41.988,0.13,-0.235
2021-08-19 02:46:41.992,0.145,-0.26
2021-08-19 02:46:41.996,0.165,-0.235
2021-08-19 02:46:42.000,0.135,-0.245
2021-08-19 02:46:42.004,0.145,-0.245
2021-08-19 02:46:42.008,0.145,-0.25
2021-08-19 02:46:42.012,0.14,-0.24
2021-08-19 02:46:42.016,0.155,-0.23
2021-08-19 02:46:42.020,0.125,-0.215
2021-08-19 02:46:42.024,0.145,-0.24
2021-08-19 02:46:42.028,0.12,-0.215
2021-08-19 02:46:42.032,0.135,-0.205
2021-08-19 02:46:42.036,0.135,-0.175
2021-08-19 02:46:42.040,0.135,-0.14
2021-08-19 02:46:42.044,0.12,-0.1
2021-08-19 02:46:42.048,0.14,-0.08
2021-08-19 02:46:42.052,0.135,-0.005
2021-08-19 02:46:42.056,0.13,0.16
2021-08-19 02:46:42.060,0.125,0.43
2021-08-19 02:46:42.064,0.135,0.755
2021-08-19 02:46:42.068,0.17,0.99
2021-08-19 02:46:42.072,0.195,1.14
2021-08-19 02:46:42.076,0.18,1.225
2021-08-19 02:46:42.080,0.13,1.23
2021-08-19 02:46:42.084,0.105,1.065
2021-08-19 02:46:42.088,0.065,0.72
2021-08-19 02:46:42.092,-0.025,0.22
2021-08-19 02:46:42.096,-0.26,-0.165
2021-08-19 02:46:42.100,-0.595,-0.195
2021-08-19 02:46:42.104,-0.945,0.015
2021-08-19 02:46:42.108,-1.215,0.02
2021-08-19 02:46:42.112,-1.375,-0.205
2021-08-19 02:46:42.116,-1.4,-0.465
2021-08-19 02:46:42.120,-1.25,-0.625
2021-08-19 02:46:42.124,-0.86,-0.705
2021-08-19 02:46:42.128,-0.485,-0.71
2021-08-19 02:46:42.132,-0.22,-0.66
2021-08-19 02:46:42.136,-0.12,-0.53
2021-08-19 02:46:42.140,-0.095,-0.415
2021-08-19 02:46:42.144,-0.09,-0.355
2021-08-19 02:46:42.148,-0.095,-0.345
2021-08-19 02:46:42.152,-0.06,-0.35
2021-08-19 02:46:42.156,-0.025,-0.355
2021-08-19 02:46:42.160,0.025,-0.33
2021-08-19 02:46:42.164,0.075,-0.32
2021-08-19 02:46:42.168,0.14,-0.32
2021-08-19 02:46:42.172,0.165,-0.305
2021-08-19 02:46:42.176,0.19,-0.305
2021-08-19 02:46:42.180,0.175,-0.31
2021-08-19 02:46:42.184,0.19,-0.29
2021-08-19 02:46:42.188,0.19,-0.295
2021-08-19 02:46:42.192,0.21,-0.275
2021-08-19 02:46:42.196,0.195,-0.285
2021-08-19 02:46:42.200,0.195,-0.27
2021-08-19 02:46:42.204,0.18,-0.28
2021-08-19 02:46:42.208,0.195,-0.29
2021-08-19 02:46:42.212,0.2,-0.285
2021-08-19 02:46:42.216,0.21,-0.275
2021-08-19 02:46:42.220,0.21,-0.265
2021-08-19 02:46:42.224,0.21,-0.26
2021-08-19 02:46:42.228,0.205,-0.26
2021-08-19 02:46:42.232,0.195,-0.25
2021-08-19 02:46:42.236,0.21,-0.265
2021-08-19 02:46:42.240,0.22,-0.265
2021-08-19 02:46:42.244,0.2,-0.26
2021-08-19 02:46:42.248,0.21,-0.265
2021-08-19 02:46:42.252,0.205,-0.265
2021-08-19 02:46:42.256,0.2,-0.27
2021-08-19 02:46:42.260,0.205,-0.25
2021-08-19 02:46:42.264,0.19,-0.28
2021-08-19 02:46:42.268,0.2,-0.255
2021-08-19 02:46:42.272,0.185,-0.25
2021-08-19 02:46:42.276,0.22,-0.23
2021-08-19 02:46:42.280,0.22,-0.235
2021-08-19 02:46:42.284,0.21,-0.26
2021-08-19 02:46:42.288,0.18,-0.265
2021-08-19 02:46:42.292,0.18,-0.255
2021-08-19 02:46:42.296,0.18,-0.255
2021-08-19 02:46:42.300,0.175,-0.255
2021-08-19 02:46:42.304,0.165,-0.26
2021-08-19 02:46:42.308,0.19,-0.24
2021-08-19 02:46:42.312,0.17,-0.21
2021-08-19 02:46:42.316,0.175,-0.225
2021-08-19 02:46:42.320,0.17,-0.22
2021-08-19 02:46:42.324,0.155,-0.215
2021-08-19 02:46:42.328,0.145,-0.195
2021-08-19 02:46:42.332,0.15,-0.215
2021-08-19 02:46:42.336,0.15,-0.21
2021-08-19 02:46:42.340,0.14,-0.19
2021-08-19 02:46:42.344,0.15,-0.16
2021-08-19 02:46:42.348,0.13,-0.155
2021-08-19 02:46:42.352,0.15,-0.135
2021-08-19 02:46:42.356,0.13,-0.125
2021-08-19 02:46:42.360,0.13,-0.105
2021-08-19 02:46:42.364,0.135,-0.075
2021-08-19 02:46:42.368,0.11,-0.075
2021-08-19 02:46:42.372,0.1,-0.08
2021-08-19 02:46:42.376,0.095,-0.06
2021-08-19 02:46:42.380,0.09,-0.04
2021-08-19 02:46:42.384,0.085,-0.04
2021-08-19 02:46:42.388,0.105,-0.06
2021-08-19 02:46:42.392,0.09,-0.025
2021-08-19 02:46:42.396,0.09,-0.035
2021-08-19 02:46:42.400,0.09,-0.025
2021-08-19 02:46:42.404,0.07,-0.015
2021-08-19 02:46:42.408,0.06,-0.045
2021-08-19 02:46:42.412,0.075,-0.035
2021-08-19 02:46:42.416,0.075,-0.05
2021-08-19 02:46:42.420,0.055,-0.01
2021-08-19 02:46:42.424,0.08,-0.06
2021-08-19 02:46:42.428,0.08,-0.06
2021-08-19 02:46:42.432,0.095,-0.06
2021-08-19 02:46:42.436,0.075,-0.075
2021-08-19 02:46:42.440,0.08,-0.085
2021-08-19 02:46:42.444,0.095,-0.08
2021-08-19 02:46:42.448,0.075,-0.105
2021-08-19 02:46:42.452,0.09,-0.095
2021-08-19 02:46:42.456,0.095,-0.095
2021-08-19 02:46:42.460,0.095,-0.1
2021-08-19 02:46:42.464,0.1,-0.12
2021-08-19 02:46:42.468,0.1,-0.125
2021-08-19 02:46:42.472,0.085,-0.115
2021-08-19 02:46:42.476,0.085,-0.135
2021-08-19 02:46:42.480,0.085,-0.12
2021-08-19 02:46:42.484,0.1,-0.12
2021-08-19 02:46:42.488,0.085,-0.135
2021-08-19 02:46:42.492,0.09,-0.14
2021-08-19 02:46:42.496,0.11,-0.16
2021-08-19 02:46:42.500,0.085,-0.155
2021-08-19 02:46:42.504,0.105,-0.135
2021-08-19 02:46:42.508,0.085,-0.155
2021-08-19 02:46:42.512,0.115,-0.16
2021-08-19 02:46:42.516,0.115,-0.175
2021-08-19 02:46:42.520,0.105,-0.17
2021-08-19 02:46:42.524,0.1,-0.17
2021-08-19 02:46:42.528,0.105,-0.19
2021-08-19 02:46:42.532,0.11,-0.19
2021-08-19 02:46:42.536,0.105,-0.195
2021-08-19 02:46:42.540,0.105,-0.19
2021-08-19 02:46:42.544,0.115,-0.175
2021-08-19 02:46:42.548,0.1,-0.195
2021-08-19 02:46:42.552,0.135,-0.19
2021-08-19 02:46:42.556,0.125,-0.18
2021-08-19 02:46:42.560,0.12,-0.19
2021-08-19 02:46:42.564,0.11,-0.175
2021-08-19 02:46:42.568,0.115,-0.18
2021-08-19 02:46:42.572,0.105,-0.19
2021-08-19 02:46:42.576,0.145,-0.165
2021-08-19 02:46:42.580,0.095,-0.18
2021-08-19 02:46:42.584,0.105,-0.18
2021-08-19 02:46:42.588,0.12,-0.17
2021-08-19 02:46:42.592,0.115,-0.165
2021-08-19 02:46:42.596,0.11,-0.175
2021-08-19 02:46:42.600,0.11,-0.155
2021-08-19 02:46:42.604,0.12,-0.175
2021-08-19 02:46:42.608,0.115,-0.18
2021-08-19 02:46:42.612,0.105,-0.155
2021-08-19 02:46:42.616,0.12,-0.165
2021-08-19 02:46:42.620,0.11,-0.185
2021-08-19 02:46:42.624,0.105,-0.165
2021-08-19 02:46:42.628,0.105,-0.18
2021-08-19 02:46:42.632,0.105,-0.195
2021-08-19 02:46:42.636,0.11,-0.18
2021-08-19 02:46:42.640,0.095,-0.165
2021-08-19 02:46:42.644,0.115,-0.175
2021-08-19 02:46:42.648,0.12,-0.175
2021-08-19 02:46:42.652,0.125,-0.155
2021-08-19 02:46:42.656,0.105,-0.16
2021-08-19 02:46:42.660,0.095,-0.175
2021-08-19 02:46:42.664,0.095,-0.185
2021-08-19 02:46:42.668,0.12,-0.175
2021-08-19 02:46:42.672,0.11,-0.175
2021-08-19 02:46:42.676,0.095,-0.19
2021-08-19 02:46:42.680,0.105,-0.2
2021-08-19 02:46:42.684,0.1,-0.19
2021-08-19 02:46:42.688,0.115,-0.18
2021-08-19 02:46:42.692,0.1,-0.185
2021-08-19 02:46:42.696,0.11,-0.185
2021-08-19 02:46:42.700,0.105,-0.18
2021-08-19 02:46:42.704,0.085,-0.185
2021-08-19 02:46:42.708,0.105,-0.18
2021-08-19 02:46:42.712,0.09,-0.17
2021-08-19 02:46:42.716,0.09,-0.15
2021-08-19 02:46:42.720,0.095,-0.12
2021-08-19 02:46:42.724,0.095,-0.1
2021-08-19 02:46:42.728,0.1,-0.065
2021-08-19 02:46:42.732,0.08,-0.03
2021-08-19 02:46:42.736,0.075,-0.005
2021-08-19 02:46:42.740,0.095,0.01
2021-08-19 02:46:42.744,0.095,0.03
2021-08-19 02:46:42.748,0.12,0.03
2021-08-19 02:46:42.752,0.135,0.025
2021-08-19 02:46:42.756,0.17,0.03
2021-08-19 02:46:42.760,0.185,0.045
2021-08-19 02:46:42.764,0.2,0.045
2021-08-19 02:46:42.768,0.195,0.015
2021-08-19 02:46:42.772,0.215,0.015
2021-08-19 02:46:42.776,0.2,0.02
2021-08-19 02:46:42.780,0.2,0.02
2021-08-19 02:46:42.784,0.16,0.0
2021-08-19 02:46:42.788,0.135,-0.015
2021-08-19 02:46:42.792,0.125,-0.07
2021-08-19 02:46:42.796,0.105,-0.115
2021-08-19 02:46:42.800,0.06,-0.16
2021-08-19 02:46:42.804,0.045,-0.15
2021-08-19 02:46:42.808,0.025,-0.12
2021-08-19 02:46:42.812,0.02,-0.1
2021-08-19 02:46:42.816,0.02,-0.12
2021-08-19 02:46:42.820,0.015,-0.11
2021-08-19 02:46:42.824,0.005,-0.11
2021-08-19 02:46:42.828,0.0,-0.105
2021-08-19 02:46:42.832,0.015,-0.115
2021-08-19 02:46:42.836,0.035,-0.11
2021-08-19 02:46:42.840,0.04,-0.115
2021-08-19 02:46:42.844,0.04,-0.135
2021-08-19 02:46:42.848,0.04,-0.175
2021-08-19 02:46:42.852,0.08,-0.2
2021-08-19 02:46:42.856,0.06,-0.215
2021-08-19 02:46:42.860,0.105,-0.2
2021-08-19 02:46:42.864,0.13,-0.19
2021-08-19 02:46:42.868,0.14,-0.21
2021-08-19 02:46:42.872,0.15,-0.21
2021-08-19 02:46:42.876,0.155,-0.205
2021-08-19 02:46:42.880,0.13,-0.2
2021-08-19 02:46:42.884,0.15,-0.195
2021-08-19 02:46:42.888,0.13,-0.22
2021-08-19 02:46:42.892,0.135,-0.215
2021-08-19 02:46:42.896,0.13,-0.195
2021-08-19 02:46:42.900,0.12,-0.19
2021-08-19 02:46:42.904,0.105,-0.18
2021-08-19 02:46:42.908,0.115,-0.195
2021-08-19 02:46:42.912,0.12,-0.16
2021-08-19 02:46:42.916,0.13,-0.14
2021-08-19 02:46:42.920,0.105,-0.085
2021-08-19 02:46:42.924,0.12,-0.06
2021-08-19 02:46:42.928,0.105,-0.015
2021-08-19 02:46:42.932,0.115,0.11
2021-08-19 02:46:42.936,0.125,0.36
2021-08-19 02:46:42.940,0.145,0.68
2021-08-19 02:46:42.944,0.165,0.925
2021-08-19 02:46:42.948,0.2,1.085
2021-08-19 02:46:42.952,0.18,1.175
2021-08-19 02:46:42.956,0.165,1.18
2021-08-19 02:46:42.960,0.125,1.075
2021-08-19 02:46:42.964,0.09,0.755
2021-08-19 02:46:42.968,0.01,0.29
2021-08-19 02:46:42.972,-0.205,-0.095
2021-08-19 02:46:42.976,-0.525,-0.185
2021-08-19 02:46:42.980,-0.91,-0.02
2021-08-19 02:46:42.984,-1.205,0.11
2021-08-19 02:46:42.988,-1.44,-0.07
2021-08-19 02:46:42.992,-1.5,-0.37
2021-08-19 02:46:42.996,-1.38,-0.61
2021-08-19 02:46:43.000,-1.075,-0.705
2021-08-19 02:46:43.004,-0.625,-0.715
2021-08-19 02:46:43.008,-0.265,-0.7
2021-08-19 02:46:43.012,-0.11,-0.575
2021-08-19 02:46:43.016,-0.065,-0.47
2021-08-19 02:46:43.020,-0.065,-0.395
2021-08-19 02:46:43.024,-0.085,-0.345
2021-08-19 02:46:43.028,-0.065,-0.34
2021-08-19 02:46:43.032,-0.035,-0.35
2021-08-19 02:46:43.036,0.01,-0.345
2021-08-19 02:46:43.040,0.065,-0.35
2021-08-19 02:46:43.044,0.135,-0.355
2021-08-19 02:46:43.048,0.18,-0.36
2021-08-19 02:46:43.052,0.21,-0.345
2021-08-19 02:46:43.056,0.205,-0.355
2021-08-19 02:46:43.060,0.22,-0.33
2021-08-19 02:46:43.064,0.22,-0.365
2021-08-19 02:46:43.068,0.2,-0.34
2021-08-19 02:46:43.072,0.23,-0.325
2021-08-19 02:46:43.076,0.23,-0.335
2021-08-19 02:46:43.080,0.24,-0.35
2021-08-19 02:46:43.084,0.225,-0.33
2021-08-19 02:46:43.088,0.235,-0.315
2021-08-19 02:46:43.092,0.235,-0.315
2021-08-19 02:46:43.096,0.245,-0.315
2021-08-19 02:46:43.100,0.235,-0.315
2021-08-19 02:46:43.104,0.255,-0.315
2021-08-19 02:46:43.108,0.245,-0.315
2021-08-19 02:46:43.112,0.255,-0.31
2021-08-19 02:46:43.116,0.265,-0.295
2021-08-19 02:46:43.120,0.25,-0.305
2021-08-19 02:46:43.124,0.245,-0.33
2021-08-19 02:46:43.128,0.245,-0.315
2021-08-19 02:46:43.132,0.26,-0.32
2021-08-19 02:46:43.136,0.24,-0.31
2021-08-19 02:46:43.140,0.25,-0.32
2021-08-19 02:46:43.144,0.24,-0.33
2021-08-19 02:46:43.148,0.235,-0.325
2021-08-19 02:46:43.152,0.25,-0.325
2021-08-19 02:46:43.156,0.25,-0.305
2021-08-19 02:46:43.160,0.235,-0.305
2021-08-19 02:46:43.164,0.245,-0.315
2021-08-19 02:46:43.168,0.255,-0.305
2021-08-19 02:46:43.172,0.22,-0.32
2021-08-19 02:46:43.176,0.225,-0.315
2021-08-19 02:46:43.180,0.23,-0.31
2021-08-19 02:46:43.184,0.24,-0.29
2021-08-19 02:46:43.188,0.235,-0.295
2021-08-19 02:46:43.192,0.22,-0.29
2021-08-19 02:46:43.196,0.21,-0.265
2021-08-19 02:46:43.200,0.24,-0.26
2021-08-19 02:46:43.204,0.215,-0.265
2021-08-19 02:46:43.208,0.205,-0.265
2021-08-19 02:46:43.212,0.215,-0.28
2021-08-19 02:46:43.216,0.205,-0.25
2021-08-19 02:46:43.220,0.2,-0.26
2021-08-19 02:46:43.224,0.21,-0.24
2021-08-19 02:46:43.228,0.22,-0.21
2021-08-19 02:46:43.232,0.225,-0.21
2021-08-19 02:46:43.236,0.215,-0.22
2021-08-19 02:46:43.240,0.195,-0.18
2021-08-19 02:46:43.244,0.205,-0.175
2021-08-19 02:46:43.248,0.205,-0.165
2021-08-19 02:46:43.252,0.195,-0.135
2021-08-19 02:46:43.256,0.2,-0.13
2021-08-19 02:46:43.260,0.175,-0.15
2021-08-19 02:46:43.264,0.18,-0.14
2021-08-19 02:46:43.268,0.175,-0.135
2021-08-19 02:46:43.272,0.135,-0.115
2021-08-19 02:46:43.276,0.165,-0.13
2021-08-19 02:46:43.280,0.165,-0.12
2021-08-19 02:46:43.284,0.145,-0.115
2021-08-19 02:46:43.288,0.145,-0.125
2021-08-19 02:46:43.292,0.14,-0.14
2021-08-19 02:46:43.296,0.12,-0.17
2021-08-19 02:46:43.300,0.125,-0.18
2021-08-19 02:46:43.304,0.14,-0.175
2021-08-19 02:46:43.308,0.135,-0.19
2021-08-19 02:46:43.312,0.115,-0.195
2021-08-19 02:46:43.316,0.115,-0.19
2021-08-19 02:46:43.320,0.12,-0.215
2021-08-19 02:46:43.324,0.11,-0.215
2021-08-19 02:46:43.328,0.13,-0.225
2021-08-19 02:46:43.332,0.11,-0.25
2021-08-19 02:46:43.336,0.13,-0.24
2021-08-19 02:46:43.340,0.135,-0.26
2021-08-19 02:46:43.344,0.12,-0.25
2021-08-19 02:46:43.348,0.13,-0.275
2021-08-19 02:46:43.352,0.11,-0.275
2021-08-19 02:46:43.356,0.12,-0.28
2021-08-19 02:46:43.360,0.125,-0.305
2021-08-19 02:46:43.364,0.135,-0.3
2021-08-19 02:46:43.368,0.135,-0.3
2021-08-19 02:46:43.372,0.13,-0.305
2021-08-19 02:46:43.376,0.145,-0.305
2021-08-19 02:46:43.380,0.115,-0.315
2021-08-19 02:46:43.384,0.145,-0.315
2021-08-19 02:46:43.388,0.115,-0.34
2021-08-19 02:46:43.392,0.13,-0.32
2021-08-19 02:46:43.396,0.125,-0.34
2021-08-19 02:46:43.400,0.125,-0.345
2021-08-19 02:46:43.404,0.12,-0.34
2021-08-19 02:46:43.408,0.14,-0.34
2021-08-19 02:46:43.412,0.12,-0.325
2021-08-19 02:46:43.416,0.125,-0.31
2021-08-19 02:46:43.420,0.135,-0.305
2021-08-19 02:46:43.424,0.115,-0.325
2021-08-19 02:46:43.428,0.12,-0.315
2021-08-19 02:46:43.432,0.13,-0.32
2021-08-19 02:46:43.436,0.13,-0.305
2021-08-19 02:46:43.440,0.13,-0.335
2021-08-19 02:46:43.444,0.115,-0.35
2021-08-19 02:46:43.448,0.115,-0.33
2021-08-19 02:46:43.452,0.12,-0.33
2021-08-19 02:46:43.456,0.11,-0.315
2021-08-19 02:46:43.460,0.13,-0.325
2021-08-19 02:46:43.464,0.15,-0.325
2021-08-19 02:46:43.468,0.125,-0.305
2021-08-19 02:46:43.472,0.145,-0.32
2021-08-19 02:46:43.476,0.13,-0.335
2021-08-19 02:46:43.480,0.12,-0.35
2021-08-19 02:46:43.484,0.12,-0.345
2021-08-19 02:46:43.488,0.115,-0.34
2021-08-19 02:46:43.492,0.09,-0.35
2021-08-19 02:46:43.496,0.095,-0.33
2021-08-19 02:46:43.500,0.11,-0.325
2021-08-19 02:46:43.504,0.095,-0.31
2021-08-19 02:46:43.508,0.095,-0.32
2021-08-19 02:46:43.512,0.11,-0.305
2021-08-19 02:46:43.516,0.12,-0.34
2021-08-19 02:46:43.520,0.11,-0.34
2021-08-19 02:46:43.524,0.1,-0.345
2021-08-19 02:46:43.528,0.1,-0.355
2021-08-19 02:46:43.532,0.09,-0.35
2021-08-19 02:46:43.536,0.085,-0.34
2021-08-19 02:46:43.540,0.09,-0.355
2021-08-19 02:46:43.544,0.09,-0.32
2021-08-19 02:46:43.548,0.095,-0.34
2021-08-19 02:46:43.552,0.09,-0.355
2021-08-19 02:46:43.556,0.075,-0.33
2021-08-19 02:46:43.560,0.095,-0.345
2021-08-19 02:46:43.564,0.09,-0.345
2021-08-19 02:46:43.568,0.07,-0.365
2021-08-19 02:46:43.572,0.07,-0.35
2021-08-19 02:46:43.576,0.08,-0.37
2021-08-19 02:46:43.580,0.085,-0.35
2021-08-19 02:46:43.584,0.09,-0.345
2021-08-19 02:46:43.588,0.1,-0.35
2021-08-19 02:46:43.592,0.075,-0.38
2021-08-19 02:46:43.596,0.07,-0.37
2021-08-19 02:46:43.600,0.085,-0.34
2021-08-19 02:46:43.604,0.08,-0.33
2021-08-19 02:46:43.608,0.095,-0.31
2021-08-19 02:46:43.612,0.095,-0.295
2021-08-19 02:46:43.616,0.095,-0.245
2021-08-19 02:46:43.620,0.095,-0.205
2021-08-19 02:46:43.624,0.11,-0.175
2021-08-19 02:46:43.628,0.08,-0.16
2021-08-19 02:46:43.632,0.11,-0.17
2021-08-19 02:46:43.636,0.135,-0.17
2021-08-19 02:46:43.640,0.14,-0.15
2021-08-19 02:46:43.644,0.18,-0.165
2021-08-19 02:46:43.648,0.18,-0.17
2021-08-19 02:46:43.652,0.19,-0.175
2021-08-19 02:46:43.656,0.215,-0.17
2021-08-19 02:46:43.660,0.19,-0.17
2021-08-19 02:46:43.664,0.17,-0.175
2021-08-19 02:46:43.668,0.155,-0.175
2021-08-19 02:46:43.672,0.16,-0.23
2021-08-19 02:46:43.676,0.12,-0.27
2021-08-19 02:46:43.680,0.11,-0.315
2021-08-19 02:46:43.684,0.075,-0.33
2021-08-19 02:46:43.688,0.055,-0.35
2021-08-19 02:46:43.692,0.04,-0.35
2021-08-19 02:46:43.696,0.015,-0.325
2021-08-19 02:46:43.700,0.01,-0.315
2021-08-19 02:46:43.704,0.01,-0.31
2021-08-19 02:46:43.708,0.0,-0.33
2021-08-19 02:46:43.712,-0.015,-0.335
2021-08-19 02:46:43.716,0.0,-0.34
2021-08-19 02:46:43.720,0.01,-0.34
2021-08-19 02:46:43.724,0.03,-0.34
2021-08-19 02:46:43.728,0.01,-0.36
2021-08-19 02:46:43.732,0.03,-0.395
2021-08-19 02:46:43.736,0.035,-0.415
2021-08-19 02:46:43.740,0.015,-0.425
2021-08-19 02:46:43.744,0.065,-0.415
2021-08-19 02:46:43.748,0.075,-0.4
2021-08-19 02:46:43.752,0.105,-0.39
2021-08-19 02:46:43.756,0.125,-0.41
2021-08-19 02:46:43.760,0.11,-0.385
2021-08-19 02:46:43.764,0.105,-0.395
2021-08-19 02:46:43.768,0.095,-0.405
2021-08-19 02:46:43.772,0.11,-0.42
2021-08-19 02:46:43.776,0.095,-0.405
2021-08-19 02:46:43.780,0.095,-0.405
2021-08-19 02:46:43.784,0.1,-0.395
2021-08-19 02:46:43.788,0.115,-0.385
2021-08-19 02:46:43.792,0.11,-0.38
2021-08-19 02:46:43.796,0.1,-0.36
2021-08-19 02:46:43.800,0.11,-0.33
2021-08-19 02:46:43.804,0.095,-0.28
2021-08-19 02:46:43.808,0.105,-0.265
2021-08-19 02:46:43.812,0.105,-0.22
2021-08-19 02:46:43.816,0.11,-0.09
2021-08-19 02:46:43.820,0.1,0.135
2021-08-19 02:46:43.824,0.11,0.42
2021-08-19 02:46:43.828,0.145,0.67
2021-08-19 02:46:43.832,0.175,0.835
2021-08-19 02:46:43.836,0.155,0.88
2021-08-19 02:46:43.840,0.1,0.88
2021-08-19 02:46:43.844,0.09,0.785
2021-08-19 02:46:43.848,0.07,0.5
2021-08-19 02:46:43.852,-0.045,0.07
2021-08-19 02:46:43.856,-0.24,-0.3
2021-08-19 02:46:43.860,-0.555,-0.395
2021-08-19 02:46:43.864,-0.91,-0.22
2021-08-19 02:46:43.868,-1.175,-0.14
2021-08-19 02:46:43.872,-1.35,-0.265
2021-08-19 02:46:43.876,-1.4,-0.545
2021-08-19 02:46:43.880,-1.3,-0.725
2021-08-19 02:46:43.884,-0.97,-0.83
2021-08-19 02:46:43.888,-0.555,-0.83
2021-08-19 02:46:43.892,-0.255,-0.82
2021-08-19 02:46:43.896,-0.125,-0.715
2021-08-19 02:46:43.900,-0.11,-0.61
2021-08-19 02:46:43.904,-0.06,-0.55
2021-08-19 02:46:43.908,-0.05,-0.535
2021-08-19 02:46:43.912,-0.045,-0.53
2021-08-19 02:46:43.916,-0.025,-0.525
2021-08-19 02:46:43.920,0.025,-0.495
2021-08-19 02:46:43.924,0.07,-0.53
2021-08-19 02:46:43.928,0.135,-0.51
2021-08-19 02:46:43.932,0.175,-0.525
2021-08-19 02:46:43.936,0.21,-0.51
2021-08-19 02:46:43.940,0.2,-0.5
2021-08-19 02:46:43.944,0.205,-0.48
2021-08-19 02:46:43.948,0.19,-0.49
2021-08-19 02:46:43.952,0.2,-0.51
2021-08-19 02:46:43.956,0.21,-0.51
2021-08-19 02:46:43.960,0.2,-0.505
2021-08-19 02:46:43.964,0.21,-0.505
2021-08-19 02:46:43.968,0.205,-0.5
2021-08-19 02:46:43.972,0.2,-0.51
2021-08-19 02:46:43.976,0.215,-0.49
2021-08-19 02:46:43.980,0.23,-0.485
2021-08-19 02:46:43.984,0.21,-0.495
2021-08-19 02:46:43.988,0.215,-0.48
2021-08-19 02:46:43.992,0.215,-0.48
2021-08-19 02:46:43.996,0.22,-0.49
2021-08-19 02:46:44.000,0.205,-0.5
2021-08-19 02:46:44.004,0.21,-0.475
2021-08-19 02:46:44.008,0.22,-0.48
2021-08-19 02:46:44.012,0.235,-0.475
2021-08-19 02:46:44.016,0.22,-0.485
2021-08-19 02:46:44.020,0.2,-0.47
2021-08-19 02:46:44.024,0.21,-0.48
2021-08-19 02:46:44.028,0.2,-0.475
2021-08-19 02:46:44.032,0.2,-0.48
2021-08-19 02:46:44.036,0.205,-0.485
2021-08-19 02:46:44.040,0.2,-0.48
2021-08-19 02:46:44.044,0.19,-0.48
2021-08-19 02:46:44.048,0.195,-0.48
2021-08-19 02:46:44.052,0.175,-0.47
2021-08-19 02:46:44.056,0.185,-0.49
2021-08-19 02:46:44.060,0.2,-0.48
2021-08-19 02:46:44.064,0.18,-0.455
2021-08-19 02:46:44.068,0.19,-0.485
2021-08-19 02:46:44.072,0.175,-0.48
2021-08-19 02:46:44.076,0.19,-0.485
2021-08-19 02:46:44.080,0.17,-0.46
2021-08-19 02:46:44.084,0.175,-0.45
2021-08-19 02:46:44.088,0.16,-0.445
2021-08-19 02:46:44.092,0.165,-0.44
2021-08-19 02:46:44.096,0.175,-0.46
2021-08-19 02:46:44.100,0.175,-0.43
2021-08-19 02:46:44.104,0.145,-0.425
2021-08-19 02:46:44.108,0.175,-0.38
2021-08-19 02:46:44.112,0.17,-0.38
2021-08-19 02:46:44.116,0.14,-0.38
2021-08-19 02:46:44.120,0.13,-0.365
2021-08-19 02:46:44.124,0.13,-0.355
2021-08-19 02:46:44.128,0.135,-0.335
2021-08-19 02:46:44.132,0.14,-0.32
2021-08-19 02:46:44.136,0.14,-0.31
2021-08-19 02:46:44.140,0.11,-0.295
2021-08-19 02:46:44.144,0.115,-0.285
2021-08-19 02:46:44.148,0.105,-0.285
2021-08-19 02:46:44.152,0.115,-0.275
2021-08-19 02:46:44.156,0.1,-0.28
2021-08-19 02:46:44.160,0.1,-0.27
2021-08-19 02:46:44.164,0.09,-0.265
2021-08-19 02:46:44.168,0.095,-0.275
2021-08-19 02:46:44.172,0.08,-0.275
2021-08-19 02:46:44.176,0.09,-0.28
2021-08-19 02:46:44.180,0.08,-0.27
2021-08-19 02:46:44.184,0.08,-0.275
2021-08-19 02:46:44.188,0.09,-0.295
2021-08-19 02:46:44.192,0.105,-0.315
2021-08-19 02:46:44.196,0.115,-0.305
2021-08-19 02:46:44.200,0.11,-0.32
2021-08-19 02:46:44.204,0.115,-0.305
2021-08-19 02:46:44.208,0.11,-0.31
2021-08-19 02:46:44.212,0.105,-0.315
2021-08-19 02:46:44.216,0.115,-0.325
2021-08-19 02:46:44.220,0.115,-0.34
2021-08-19 02:46:44.224,0.105,-0.34
2021-08-19 02:46:44.228,0.125,-0.365
2021-08-19 02:46:44.232,0.125,-0.355
2021-08-19 02:46:44.236,0.12,-0.35
2021-08-19 02:46:44.240,0.12,-0.345
2021-08-19 02:46:44.244,0.105,-0.36
2021-08-19 02:46:44.248,0.115,-0.34
2021-08-19 02:46:44.252,0.13,-0.36
2021-08-19 02:46:44.256,0.14,-0.36
2021-08-19 02:46:44.260,0.125,-0.365
2021-08-19 02:46:44.264,0.125,-0.38
2021-08-19 02:46:44.268,0.105,-0.37
2021-08-19 02:46:44.272,0.125,-0.37
2021-08-19 02:46:44.276,0.105,-0.395
2021-08-19 02:46:44.280,0.12,-0.36
2021-08-19 02:46:44.284,0.125,-0.375
2021-08-19 02:46:44.288,0.15,-0.39
2021-08-19 02:46:44.292,0.125,-0.38
2021-08-19 02:46:44.296,0.125,-0.39
2021-08-19 02:46:44.300,0.125,-0.4
2021-08-19 02:46:44.304,0.11,-0.4
2021-08-19 02:46:44.308,0.095,-0.4
2021-08-19 02:46:44.312,0.1,-0.41
2021-08-19 02:46:44.316,0.115,-0.4
2021-08-19 02:46:44.320,0.11,-0.425
2021-08-19 02:46:44.324,0.09,-0.43
2021-08-19 02:46:44.328,0.1,-0.42
2021-08-19 02:46:44.332,0.1,-0.42
2021-08-19 02:46:44.336,0.11,-0.41
2021-08-19 02:46:44.340,0.11,-0.395
2021-08-19 02:46:44.344,0.095,-0.42
2021-08-19 02:46:44.348,0.09,-0.415
2021-08-19 02:46:44.352,0.085,-0.435
2021-08-19 02:46:44.356,0.095,-0.41
2021-08-19 02:46:44.360,0.1,-0.41
2021-08-19 02:46:44.364,0.1,-0.43
2021-08-19 02:46:44.368,0.09,-0.41
2021-08-19 02:46:44.372,0.09,-0.43
2021-08-19 02:46:44.376,0.115,-0.41
2021-08-19 02:46:44.380,0.085,-0.405
2021-08-19 02:46:44.384,0.09,-0.395
2021-08-19 02:46:44.388,0.085,-0.415
2021-08-19 02:46:44.392,0.08,-0.435
2021-08-19 02:46:44.396,0.085,-0.42
2021-08-19 02:46:44.400,0.1,-0.41
2021-08-19 02:46:44.404,0.075,-0.42
2021-08-19 02:46:44.408,0.1,-0.425
2021-08-19 02:46:44.412,0.105,-0.425
2021-08-19 02:46:44.416,0.1,-0.41
2021-08-19 02:46:44.420,0.09,-0.405
2021-08-19 02:46:44.424,0.085,-0.395
2021-08-19 02:46:44.428,0.075,-0.415
2021-08-19 02:46:44.432,0.065,-0.41
2021-08-19 02:46:44.436,0.07,-0.425
2021-08-19 02:46:44.440,0.075,-0.425
2021-08-19 02:46:44.444,0.08,-0.425
2021-08-19 02:46:44.448,0.09,-0.435
2021-08-19 02:46:44.452,0.07,-0.425
2021-08-19 02:46:44.456,0.075,-0.425
2021-08-19 02:46:44.460,0.115,-0.435
2021-08-19 02:46:44.464,0.085,-0.42
2021-08-19 02:46:44.468,0.095,-0.41
2021-08-19 02:46:44.472,0.065,-0.415
2021-08-19 02:46:44.476,0.075,-0.435
2021-08-19 02:46:44.480,0.08,-0.415
2021-08-19 02:46:44.484,0.09,-0.375
2021-08-19 02:46:44.488,0.07,-0.355
2021-08-19 02:46:44.492,0.075,-0.345
2021-08-19 02:46:44.496,0.09,-0.285
2021-08-19 02:46:44.500,0.095,-0.265
2021-08-19 02:46:44.504,0.095,-0.25
2021-08-19 02:46:44.508,0.09,-0.245
2021-08-19 02:46:44.512,0.11,-0.245
2021-08-19 02:46:44.516,0.13,-0.24
2021-08-19 02:46:44.520,0.17,-0.235
2021-08-19 02:46:44.524,0.18,-0.225
2021-08-19 02:46:44.528,0.2,-0.24
2021-08-19 02:46:44.532,0.21,-0.255
2021-08-19 02:46:44.536,0.205,-0.25
2021-08-19 02:46:44.540,0.17,-0.245
2021-08-19 02:46:44.544,0.155,-0.26
2021-08-19 02:46:44.548,0.125,-0.27
2021-08-19 02:46:44.552,0.12,-0.3
2021-08-19 02:46:44.556,0.09,-0.355
2021-08-19 02:46:44.560,0.075,-0.405
2021-08-19 02:46:44.564,0.07,-0.415
2021-08-19 02:46:44.568,0.03,-0.4
2021-08-19 02:46:44.572,0.025,-0.39
2021-08-19 02:46:44.576,0.0,-0.37
2021-08-19 02:46:44.580,0.0,-0.37
2021-08-19 02:46:44.584,-0.02,-0.375
2021-08-19 02:46:44.588,-0.02,-0.38
2021-08-19 02:46:44.592,-0.005,-0.365
2021-08-19 02:46:44.596,-0.015,-0.375
2021-08-19 02:46:44.600,0.015,-0.365
2021-08-19 02:46:44.604,0.005,-0.39
2021-08-19 02:46:44.608,0.04,-0.415
2021-08-19 02:46:44.612,0.07,-0.445
2021-08-19 02:46:44.616,0.02,-0.44
2021-08-19 02:46:44.620,0.03,-0.475
2021-08-19 02:46:44.624,0.075,-0.465
2021-08-19 02:46:44.628,0.09,-0.475
2021-08-19 02:46:44.632,0.09,-0.48
2021-08-19 02:46:44.636,0.105,-0.465
2021-08-19 02:46:44.640,0.095,-0.46
2021-08-19 02:46:44.644,0.095,-0.445
2021-08-19 02:46:44.648,0.105,-0.45
2021-08-19 02:46:44.652,0.1,-0.46
2021-08-19 02:46:44.656,0.08,-0.45
2021-08-19 02:46:44.660,0.115,-0.465
2021-08-19 02:46:44.664,0.1,-0.445
2021-08-19 02:46:44.668,0.095,-0.44
2021-08-19 02:46:44.672,0.095,-0.44
2021-08-19 02:46:44.676,0.09,-0.42
2021-08-19 02:46:44.680,0.11,-0.39
2021-08-19 02:46:44.684,0.085,-0.36
2021-08-19 02:46:44.688,0.1,-0.315
2021-08-19 02:46:44.692,0.105,-0.28
2021-08-19 02:46:44.696,0.12,-0.165
2021-08-19 02:46:44.700,0.11,0.075
2021-08-19 02:46:44.704,0.125,0.4
2021-08-19 02:46:44.708,0.145,0.66
2021-08-19 02:46:44.712,0.18,0.865
2021-08-19 02:46:44.716,0.165,1.0
2021-08-19 02:46:44.720,0.105,1.05
2021-08-19 02:46:44.724,0.08,0.99
2021-08-19 02:46:44.728,0.085,0.76
2021-08-19 02:46:44.732,0.01,0.35
2021-08-19 02:46:44.736,-0.19,-0.12
2021-08-19 02:46:44.740,-0.495,-0.365
2021-08-19 02:46:44.744,-0.81,-0.305
2021-08-19 02:46:44.748,-1.08,-0.215
2021-08-19 02:46:44.752,-1.21,-0.33
2021-08-19 02:46:44.756,-1.265,-0.56
2021-08-19 02:46:44.760,-1.22,-0.785
2021-08-19 02:46:44.764,-0.93,-0.88
2021-08-19 02:46:44.768,-0.55,-0.93
2021-08-19 02:46:44.772,-0.24,-0.9
2021-08-19 02:46:44.776,-0.13,-0.785
2021-08-19 02:46:44.780,-0.11,-0.7
2021-08-19 02:46:44.784,-0.065,-0.62
2021-08-19 02:46:44.788,-0.08,-0.605
2021-08-19 02:46:44.792,-0.055,-0.57
2021-08-19 02:46:44.796,-0.015,-0.595
2021-08-19 02:46:44.800,0.025,-0.58
2021-08-19 02:46:44.804,0.075,-0.56
2021-08-19 02:46:44.808,0.14,-0.57
2021-08-19 02:46:44.812,0.16,-0.58
2021-08-19 02:46:44.816,0.195,-0.575
2021-08-19 02:46:44.820,0.18,-0.575
2021-08-19 02:46:44.824,0.22,-0.555
2021-08-19 02:46:44.828,0.22,-0.56
2021-08-19 02:46:44.832,0.23,-0.58
2021-08-19 02:46:44.836,0.215,-0.565
2021-08-19 02:46:44.840,0.22,-0.565
2021-08-19 02:46:44.844,0.225,-0.555
2021-08-19 02:46:44.848,0.225,-0.56
2021-08-19 02:46:44.852,0.24,-0.55
2021-08-19 02:46:44.856,0.215,-0.56
2021-08-19 02:46:44.860,0.22,-0.55
2021-08-19 02:46:44.864,0.24,-0.54
2021-08-19 02:46:44.868,0.225,-0.54
2021-08-19 02:46:44.872,0.23,-0.53
2021-08-19 02:46:44.876,0.245,-0.55
2021-08-19 02:46:44.880,0.225,-0.55
2021-08-19 02:46:44.884,0.255,-0.525
2021-08-19 02:46:44.888,0.24,-0.54
2021-08-19 02:46:44.892,0.245,-0.525
2021-08-19 02:46:44.896,0.25,-0.535
2021-08-19 02:46:44.900,0.24,-0.52
2021-08-19 02:46:44.904,0.235,-0.52
2021-08-19 02:46:44.908,0.225,-0.53
2021-08-19 02:46:44.912,0.25,-0.52
2021-08-19 02:46:44.916,0.24,-0.53
2021-08-19 02:46:44.920,0.23,-0.53
2021-08-19 02:46:44.924,0.22,-0.52
2021-08-19 02:46:44.928,0.225,-0.535
2021-08-19 02:46:44.932,0.215,-0.55
2021-08-19 02:46:44.936,0.23,-0.505
2021-08-19 02:46:44.940,0.215,-0.525
2021-08-19 02:46:44.944,0.235,-0.535
2021-08-19 02:46:44.948,0.22,-0.51
2021-08-19 02:46:44.952,0.215,-0.525
2021-08-19 02:46:44.956,0.21,-0.535
2021-08-19 02:46:44.960,0.195,-0.535
2021-08-19 02:46:44.964,0.19,-0.515
2021-08-19 02:46:44.968,0.185,-0.5
2021-08-19 02:46:44.972,0.2,-0.495
2021-08-19 02:46:44.976,0.205,-0.5
2021-08-19 02:46:44.980,0.19,-0.5
2021-08-19 02:46:44.984,0.185,-0.49
2021-08-19 02:46:44.988,0.165,-0.465
2021-08-19 02:46:44.992,0.195,-0.465
2021-08-19 02:46:44.996,0.18,-0.455
2021-08-19 02:46:45.000,0.165,-0.435
2021-08-19 02:46:45.004,0.155,-0.405
2021-08-19 02:46:45.008,0.18,-0.4
2021-08-19 02:46:45.012,0.155,-0.37
2021-08-19 02:46:45.016,0.16,-0.36
2021-08-19 02:46:45.020,0.16,-0.355
2021-08-19 02:46:45.024,0.145,-0.34
2021-08-19 02:46:45.028,0.14,-0.325
2021-08-19 02:46:45.032,0.14,-0.305
2021-08-19 02:46:45.036,0.125,-0.305
2021-08-19 02:46:45.040,0.13,-0.31
2021-08-19 02:46:45.044,0.125,-0.305
2021-08-19 02:46:45.048,0.135,-0.285
2021-08-19 02:46:45.052,0.135,-0.295
2021-08-19 02:46:45.056,0.135,-0.3
2021-08-19 02:46:45.060,0.12,-0.295
2021-08-19 02:46:45.064,0.135,-0.285
2021-08-19 02:46:45.068,0.11,-0.285
2021-08-19 02:46:45.072,0.115,-0.285
2021-08-19 02:46:45.076,0.135,-0.31
2021-08-19 02:46:45.080,0.155,-0.3
2021-08-19 02:46:45.084,0.155,-0.29
2021-08-19 02:46:45.088,0.155,-0.305
2021-08-19 02:46:45.092,0.15,-0.35
2021-08-19 02:46:45.096,0.145,-0.32
2021-08-19 02:46:45.100,0.17,-0.33
2021-08-19 02:46:45.104,0.17,-0.34
2021-08-19 02:46:45.108,0.18,-0.345
2021-08-19 02:46:45.112,0.18,-0.35
2021-08-19 02:46:45.116,0.19,-0.35
2021-08-19 02:46:45.120,0.18,-0.355
2021-08-19 02:46:45.124,0.2,-0.36
2021-08-19 02:46:45.128,0.19,-0.345
2021-08-19 02:46:45.132,0.185,-0.35
2021-08-19 02:46:45.136,0.185,-0.36
2021-08-19 02:46:45.140,0.185,-0.37
2021-08-19 02:46:45.144,0.18,-0.38
2021-08-19 02:46:45.148,0.16,-0.37
2021-08-19 02:46:45.152,0.185,-0.37
2021-08-19 02:46:45.156,0.19,-0.375
2021-08-19 02:46:45.160,0.175,-0.39
2021-08-19 02:46:45.164,0.195,-0.365
2021-08-19 02:46:45.168,0.195,-0.38
2021-08-19 02:46:45.172,0.2,-0.38
2021-08-19 02:46:45.176,0.21,-0.4
2021-08-19 02:46:45.180,0.19,-0.36
2021-08-19 02:46:45.184,0.18,-0.37
2021-08-19 02:46:45.188,0.185,-0.385
2021-08-19 02:46:45.192,0.205,-0.4
2021-08-19 02:46:45.196,0.185,-0.395
2021-08-19 02:46:45.200,0.175,-0.39
2021-08-19 02:46:45.204,0.18,-0.385
2021-08-19 02:46:45.208,0.19,-0.415
2021-08-19 02:46:45.212,0.17,-0.385
2021-08-19 02:46:45.216,0.175,-0.355
2021-08-19 02:46:45.220,0.17,-0.38
2021-08-19 02:46:45.224,0.165,-0.385
2021-08-19 02:46:45.228,0.175,-0.365
2021-08-19 02:46:45.232,0.17,-0.37
2021-08-19 02:46:45.236,0.16,-0.385
2021-08-19 02:46:45.240,0.17,-0.38
2021-08-19 02:46:45.244,0.16,-0.37
2021-08-19 02:46:45.248,0.175,-0.39
2021-08-19 02:46:45.252,0.175,-0.37
2021-08-19 02:46:45.256,0.14,-0.38
2021-08-19 02:46:45.260,0.15,-0.385
2021-08-19 02:46:45.264,0.145,-0.39
2021-08-19 02:46:45.268,0.17,-0.39
2021-08-19 02:46:45.272,0.155,-0.4
2021-08-19 02:46:45.276,0.155,-0.395
2021-08-19 02:46:45.280,0.14,-0.385
2021-08-19 02:46:45.284,0.13,-0.385
2021-08-19 02:46:45.288,0.135,-0.4
2021-08-19 02:46:45.292,0.14,-0.4
2021-08-19 02:46:45.296,0.155,-0.4
2021-08-19 02:46:45.300,0.145,-0.39
2021-08-19 02:46:45.304,0.14,-0.395
2021-08-19 02:46:45.308,0.15,-0.385
2021-08-19 02:46:45.312,0.135,-0.39
2021-08-19 02:46:45.316,0.15,-0.4
2021-08-19 02:46:45.320,0.14,-0.405
2021-08-19 02:46:45.324,0.135,-0.39
2021-08-19 02:46:45.328,0.13,-0.4
2021-08-19 02:46:45.332,0.105,-0.395
2021-08-19 02:46:45.336,0.12,-0.39
2021-08-19 02:46:45.340,0.115,-0.415
2021-08-19 02:46:45.344,0.115,-0.4
2021-08-19 02:46:45.348,0.13,-0.395
2021-08-19 02:46:45.352,0.13,-0.41
2021-08-19 02:46:45.356,0.115,-0.375
2021-08-19 02:46:45.360,0.125,-0.385
2021-08-19 02:46:45.364,0.12,-0.375
2021-08-19 02:46:45.368,0.13,-0.39
2021-08-19 02:46:45.372,0.125,-0.395
2021-08-19 02:46:45.376,0.12,-0.38
2021-08-19 02:46:45.380,0.105,-0.36
2021-08-19 02:46:45.384,0.125,-0.34
2021-08-19 02:46:45.388,0.135,-0.31
2021-08-19 02:46:45.392,0.12,-0.28
2021-08-19 02:46:45.396,0.135,-0.225
2021-08-19 02:46:45.400,0.13,-0.205
2021-08-19 02:46:45.404,0.12,-0.18
2021-08-19 02:46:45.408,0.16,-0.205
2021-08-19 02:46:45.412,0.175,-0.175
2021-08-19 02:46:45.416,0.22,-0.18
2021-08-19 02:46:45.420,0.22,-0.18
2021-08-19 02:46:45.424,0.23,-0.18
2021-08-19 02:46:45.428,0.255,-0.2
2021-08-19 02:46:45.432,0.25,-0.195
2021-08-19 02:46:45.436,0.22,-0.195
2021-08-19 02:46:45.440,0.23,-0.225
2021-08-19 02:46:45.444,0.21,-0.215
2021-08-19 02:46:45.448,0.175,-0.24
2021-08-19 02:46:45.452,0.16,-0.31
2021-08-19 02:46:45.456,0.125,-0.35
2021-08-19 02:46:45.460,0.095,-0.34
2021-08-19 02:46:45.464,0.075,-0.365
2021-08-19 02:46:45.468,0.06,-0.335
2021-08-19 02:46:45.472,0.06,-0.3
2021-08-19 02:46:45.476,0.045,-0.32
2021-08-19 02:46:45.480,0.02,-0.315
2021-08-19 02:46:45.484,0.03,-0.32
2021-08-19 02:46:45.488,0.035,-0.32
2021-08-19 02:46:45.492,0.045,-0.33
2021-08-19 02:46:45.496,0.07,-0.35
2021-08-19 02:46:45.500,0.07,-0.355
2021-08-19 02:46:45.504,0.085,-0.35
2021-08-19 02:46:45.508,0.085,-0.385
2021-08-19 02:46:45.512,0.1,-0.41
2021-08-19 02:46:45.516,0.105,-0.415
2021-08-19 02:46:45.520,0.125,-0.41
2021-08-19 02:46:45.524,0.15,-0.42
2021-08-19 02:46:45.528,0.17,-0.4
2021-08-19 02:46:45.532,0.17,-0.405
2021-08-19 02:46:45.536,0.16,-0.415
2021-08-19 02:46:45.540,0.14,-0.4
2021-08-19 02:46:45.544,0.145,-0.41
2021-08-19 02:46:45.548,0.14,-0.405
2021-08-19 02:46:45.552,0.16,-0.405
2021-08-19 02:46:45.556,0.145,-0.41
2021-08-19 02:46:45.560,0.145,-0.385
2021-08-19 02:46:45.564,0.14,-0.38
2021-08-19 02:46:45.568,0.16,-0.375
2021-08-19 02:46:45.572,0.13,-0.36
2021-08-19 02:46:45.576,0.135,-0.285
2021-08-19 02:46:45.580,0.145,-0.265
2021-08-19 02:46:45.584,0.145,-0.23
2021-08-19 02:46:45.588,0.145,-0.17
2021-08-19 02:46:45.592,0.15,0.04
2021-08-19 02:46:45.596,0.145,0.365
2021-08-19 02:46:45.600,0.195,0.67
2021-08-19 02:46:45.604,0.195,0.9
2021-08-19 02:46:45.608,0.225,1.04
2021-08-19 02:46:45.612,0.18,1.125
2021-08-19 02:46:45.616,0.145,1.08
2021-08-19 02:46:45.620,0.145,0.865
2021-08-19 02:46:45.624,0.07,0.47
2021-08-19 02:46:45.628,-0.08,-0.045
2021-08-19 02:46:45.632,-0.34,-0.345
2021-08-19 02:46:45.636,-0.71,-0.28
2021-08-19 02:46:45.640,-1.06,-0.105
2021-08-19 02:46:45.644,-1.295,-0.145
2021-08-19 02:46:45.648,-1.385,-0.42
2021-08-19 02:46:45.652,-1.37,-0.695
2021-08-19 02:46:45.656,-1.13,-0.835
2021-08-19 02:46:45.660,-0.705,-0.895
2021-08-19 02:46:45.664,-0.32,-0.87
2021-08-19 02:46:45.668,-0.11,-0.775
2021-08-19 02:46:45.672,-0.08,-0.65
2021-08-19 02:46:45.676,-0.07,-0.57
2021-08-19 02:46:45.680,-0.05,-0.54
2021-08-19 02:46:45.684,-0.045,-0.51
2021-08-19 02:46:45.688,-0.02,-0.53
2021-08-19 02:46:45.692,0.03,-0.51
2021-08-19 02:46:45.696,0.1,-0.525
2021-08-19 02:46:45.700,0.185,-0.51
2021-08-19 02:46:45.704,0.215,-0.51
2021-08-19 02:46:45.708,0.225,-0.53
2021-08-19 02:46:45.712,0.225,-0.515
2021-08-19 02:46:45.716,0.235,-0.51
2021-08-19 02:46:45.720,0.235,-0.5
2021-08-19 02:46:45.724,0.26,-0.49
2021-08-19 02:46:45.728,0.245,-0.49
2021-08-19 02:46:45.732,0.255,-0.48
2021-08-19 02:46:45.736,0.245,-0.48
2021-08-19 02:46:45.740,0.27,-0.48
2021-08-19 02:46:45.744,0.25,-0.465
2021-08-19 02:46:45.748,0.26,-0.46
2021-08-19 02:46:45.752,0.26,-0.45
2021-08-19 02:46:45.756,0.27,-0.455
2021-08-19 02:46:45.760,0.26,-0.475
2021-08-19 02:46:45.764,0.275,-0.455
2021-08-19 02:46:45.768,0.265,-0.445
2021-08-19 02:46:45.772,0.29,-0.45
2021-08-19 02:46:45.776,0.295,-0.46
2021-08-19 02:46:45.780,0.285,-0.455
2021-08-19 02:46:45.784,0.265,-0.445
2021-08-19 02:46:45.788,0.28,-0.42
2021-08-19 02:46:45.792,0.28,-0.435
2021-08-19 02:46:45.796,0.27,-0.435
2021-08-19 02:46:45.800,0.28,-0.44
2021-08-19 02:46:45.804,0.29,-0.455
2021-08-19 02:46:45.808,0.27,-0.44
2021-08-19 02:46:45.812,0.255,-0.44
2021-08-19 02:46:45.816,0.275,-0.42
2021-08-19 02:46:45.820,0.305,-0.43
2021-08-19 02:46:45.824,0.28,-0.42
2021-08-19 02:46:45.828,0.28,-0.42
2021-08-19 02:46:45.832,0.27,-0.41
2021-08-19 02:46:45.836,0.29,-0.4
2021-08-19 02:46:45.840,0.265,-0.4
2021-08-19 02:46:45.844,0.265,-0.405
2021-08-19 02:46:45.848,0.255,-0.4
2021-08-19 02:46:45.852,0.255,-0.37
2021-08-19 02:46:45.856,0.265,-0.395
2021-08-19 02:46:45.860,0.27,-0.385
2021-08-19 02:46:45.864,0.265,-0.36
2021-08-19 02:46:45.868,0.25,-0.345
2021-08-19 02:46:45.872,0.23,-0.34
2021-08-19 02:46:45.876,0.26,-0.33
2021-08-19 02:46:45.880,0.26,-0.31
2021-08-19 02:46:45.884,0.245,-0.305
2021-08-19 02:46:45.888,0.235,-0.27
2021-08-19 02:46:45.892,0.235,-0.27
2021-08-19 02:46:45.896,0.22,-0.26
2021-08-19 02:46:45.900,0.21,-0.22
2021-08-19 02:46:45.904,0.21,-0.245
2021-08-19 02:46:45.908,0.215,-0.21
