Time,ECG1,ECG2
2021-08-19 06:39:29.836,0.1,-0.295
2021-08-19 06:39:29.840,0.115,-0.27
2021-08-19 06:39:29.844,0.095,-0.255
2021-08-19 06:39:29.848,0.095,-0.21
2021-08-19 06:39:29.852,0.13,-0.21
2021-08-19 06:39:29.856,0.155,-0.215
2021-08-19 06:39:29.860,0.165,-0.205
2021-08-19 06:39:29.864,0.21,-0.195
2021-08-19 06:39:29.868,0.22,-0.185
2021-08-19 06:39:29.872,0.24,-0.21
2021-08-19 06:39:29.876,0.225,-0.23
2021-08-19 06:39:29.880,0.21,-0.225
2021-08-19 06:39:29.884,0.18,-0.22
2021-08-19 06:39:29.888,0.175,-0.23
2021-08-19 06:39:29.892,0.19,-0.235
2021-08-19 06:39:29.896,0.195,-0.24
2021-08-19 06:39:29.900,0.175,-0.265
2021-08-19 06:39:29.904,0.195,-0.265
2021-08-19 06:39:29.908,0.185,-0.295
2021-08-19 06:39:29.912,0.2,-0.3
2021-08-19 06:39:29.916,0.2,-0.3
2021-08-19 06:39:29.920,0.18,-0.305
2021-08-19 06:39:29.924,0.18,-0.315
2021-08-19 06:39:29.928,0.185,-0.32
2021-08-19 06:39:29.932,0.205,-0.32
2021-08-19 06:39:29.936,0.185,-0.33
2021-08-19 06:39:29.940,0.19,-0.33
2021-08-19 06:39:29.944,0.17,-0.325
2021-08-19 06:39:29.948,0.16,-0.31
2021-08-19 06:39:29.952,0.155,-0.33
2021-08-19 06:39:29.956,0.18,-0.335
2021-08-19 06:39:29.960,0.18,-0.345
2021-08-19 06:39:29.964,0.175,-0.345
2021-08-19 06:39:29.968,0.185,-0.355
2021-08-19 06:39:29.972,0.18,-0.32
2021-08-19 06:39:29.976,0.18,-0.325
2021-08-19 06:39:29.980,0.185,-0.35
2021-08-19 06:39:29.984,0.185,-0.34
2021-08-19 06:39:29.988,0.185,-0.375
2021-08-19 06:39:29.992,0.2,-0.36
2021-08-19 06:39:29.996,0.19,-0.335
2021-08-19 06:39:30.000,0.16,-0.31
2021-08-19 06:39:30.004,0.17,-0.29
2021-08-19 06:39:30.008,0.18,-0.23
2021-08-19 06:39:30.012,0.165,-0.155
2021-08-19 06:39:30.016,0.165,-0.08
2021-08-19 06:39:30.020,0.175,0.055
2021-08-19 06:39:30.024,0.175,0.19
2021-08-19 06:39:30.028,0.165,0.325
2021-08-19 06:39:30.032,0.185,0.475
2021-08-19 06:39:30.036,0.18,0.645
2021-08-19 06:39:30.040,0.23,0.82
2021-08-19 06:39:30.044,0.285,1.02
2021-08-19 06:39:30.048,0.34,1.165
2021-08-19 06:39:30.052,0.385,1.32
2021-08-19 06:39:30.056,0.465,1.435
2021-08-19 06:39:30.060,0.52,1.525
2021-08-19 06:39:30.064,0.63,1.635
2021-08-19 06:39:30.068,0.71,1.76
2021-08-19 06:39:30.072,0.77,1.915
2021-08-19 06:39:30.108,1.53,1.615
2021-08-19 06:39:30.112,1.71,1.145
2021-08-19 06:39:30.116,1.91,0.665
2021-08-19 06:39:30.140,1.945,-0.52
2021-08-19 06:39:30.144,1.79,-0.655
2021-08-19 06:39:30.148,1.63,-0.795
2021-08-19 06:39:30.152,1.485,-0.87
2021-08-19 06:39:30.156,1.41,-0.98
2021-08-19 06:39:30.160,1.325,-1.065
2021-08-19 06:39:30.164,1.245,-1.105
2021-08-19 06:39:30.168,1.125,-1.11
2021-08-19 06:39:30.172,0.96,-1.13
2021-08-19 06:39:30.176,0.79,-1.135
2021-08-19 06:39:30.180,0.62,-1.17
2021-08-19 06:39:30.184,0.44,-1.19
2021-08-19 06:39:30.188,0.185,-1.2
2021-08-19 06:39:30.192,-0.07,-1.195
2021-08-19 06:39:30.196,-0.21,-1.205
2021-08-19 06:39:30.200,-0.305,-1.24
2021-08-19 06:39:30.204,-0.335,-1.24
2021-08-19 06:39:30.208,-0.35,-1.265
2021-08-19 06:39:30.212,-0.38,-1.265
2021-08-19 06:39:30.216,-0.405,-1.27
2021-08-19 06:39:30.220,-0.41,-1.28
2021-08-19 06:39:30.224,-0.415,-1.29
2021-08-19 06:39:30.228,-0.455,-1.295
2021-08-19 06:39:30.232,-0.485,-1.315
2021-08-19 06:39:30.236,-0.485,-1.32
2021-08-19 06:39:30.240,-0.49,-1.34
2021-08-19 06:39:30.244,-0.51,-1.35
2021-08-19 06:39:30.248,-0.51,-1.375
2021-08-19 06:39:30.252,-0.515,-1.36
2021-08-19 06:39:30.256,-0.525,-1.39
2021-08-19 06:39:30.260,-0.545,-1.4
2021-08-19 06:39:30.264,-0.54,-1.425
2021-08-19 06:39:30.268,-0.575,-1.415
2021-08-19 06:39:30.272,-0.55,-1.435
2021-08-19 06:39:30.276,-0.57,-1.46
2021-08-19 06:39:30.280,-0.57,-1.45
2021-08-19 06:39:30.284,-0.6,-1.465
2021-08-19 06:39:30.288,-0.6,-1.47
2021-08-19 06:39:30.292,-0.62,-1.485
2021-08-19 06:39:30.296,-0.625,-1.47
2021-08-19 06:39:30.300,-0.635,-1.495
2021-08-19 06:39:30.304,-0.645,-1.49
2021-08-19 06:39:30.308,-0.66,-1.505
2021-08-19 06:39:30.312,-0.67,-1.46
2021-08-19 06:39:30.316,-0.685,-1.48
2021-08-19 06:39:30.320,-0.685,-1.475
2021-08-19 06:39:30.324,-0.67,-1.45
2021-08-19 06:39:30.328,-0.695,-1.455
2021-08-19 06:39:30.332,-0.705,-1.435
2021-08-19 06:39:30.336,-0.715,-1.415
2021-08-19 06:39:30.340,-0.73,-1.385
2021-08-19 06:39:30.344,-0.725,-1.37
2021-08-19 06:39:30.348,-0.745,-1.35
2021-08-19 06:39:30.352,-0.755,-1.33
2021-08-19 06:39:30.356,-0.75,-1.285
2021-08-19 06:39:30.360,-0.75,-1.245
2021-08-19 06:39:30.364,-0.77,-1.215
2021-08-19 06:39:30.368,-0.75,-1.18
2021-08-19 06:39:30.372,-0.74,-1.125
2021-08-19 06:39:30.376,-0.75,-1.075
2021-08-19 06:39:30.380,-0.74,-1.045
2021-08-19 06:39:30.384,-0.73,-0.985
2021-08-19 06:39:30.388,-0.705,-0.96
2021-08-19 06:39:30.392,-0.69,-0.92
2021-08-19 06:39:30.396,-0.675,-0.875
2021-08-19 06:39:30.400,-0.645,-0.83
2021-08-19 06:39:30.404,-0.62,-0.77
2021-08-19 06:39:30.408,-0.61,-0.745
2021-08-19 06:39:30.412,-0.58,-0.685
2021-08-19 06:39:30.416,-0.55,-0.68
2021-08-19 06:39:30.420,-0.495,-0.645
2021-08-19 06:39:30.424,-0.48,-0.61
2021-08-19 06:39:30.428,-0.445,-0.605
2021-08-19 06:39:30.432,-0.4,-0.565
2021-08-19 06:39:30.436,-0.39,-0.56
2021-08-19 06:39:30.440,-0.39,-0.54
2021-08-19 06:39:30.444,-0.34,-0.535
2021-08-19 06:39:30.448,-0.32,-0.52
2021-08-19 06:39:30.452,-0.29,-0.49
2021-08-19 06:39:30.456,-0.225,-0.485
2021-08-19 06:39:30.460,-0.205,-0.46
2021-08-19 06:39:30.464,-0.175,-0.44
2021-08-19 06:39:30.468,-0.14,-0.46
2021-08-19 06:39:30.472,-0.12,-0.445
2021-08-19 06:39:30.476,-0.1,-0.425
2021-08-19 06:39:30.480,-0.08,-0.425
2021-08-19 06:39:30.484,-0.035,-0.425
2021-08-19 06:39:30.488,-0.03,-0.405
2021-08-19 06:39:30.492,-0.01,-0.43
2021-08-19 06:39:30.496,-0.015,-0.43
2021-08-19 06:39:30.500,0.015,-0.425
2021-08-19 06:39:30.504,0.04,-0.4
2021-08-19 06:39:30.508,0.05,-0.405
2021-08-19 06:39:30.512,0.045,-0.405
2021-08-19 06:39:30.516,0.055,-0.4
2021-08-19 06:39:30.520,0.08,-0.39
2021-08-19 06:39:30.524,0.08,-0.4
2021-08-19 06:39:30.528,0.065,-0.4
2021-08-19 06:39:30.532,0.085,-0.4
2021-08-19 06:39:30.536,0.095,-0.425
2021-08-19 06:39:30.540,0.1,-0.39
2021-08-19 06:39:30.544,0.12,-0.42
2021-08-19 06:39:30.548,0.155,-0.415
2021-08-19 06:39:30.552,0.11,-0.415
2021-08-19 06:39:30.556,0.115,-0.425
2021-08-19 06:39:30.560,0.125,-0.405
2021-08-19 06:39:30.564,0.13,-0.4
2021-08-19 06:39:30.568,0.14,-0.405
2021-08-19 06:39:30.572,0.145,-0.395
2021-08-19 06:39:30.576,0.12,-0.41
2021-08-19 06:39:30.580,0.155,-0.415
2021-08-19 06:39:30.584,0.155,-0.395
2021-08-19 06:39:30.588,0.17,-0.4
2021-08-19 06:39:30.592,0.175,-0.405
2021-08-19 06:39:30.596,0.15,-0.41
2021-08-19 06:39:30.600,0.145,-0.415
2021-08-19 06:39:30.604,0.175,-0.39
2021-08-19 06:39:30.608,0.155,-0.41
2021-08-19 06:39:30.612,0.15,-0.38
2021-08-19 06:39:30.616,0.17,-0.4
2021-08-19 06:39:30.620,0.165,-0.395
2021-08-19 06:39:30.624,0.18,-0.41
2021-08-19 06:39:30.628,0.155,-0.405
2021-08-19 06:39:30.632,0.18,-0.395
2021-08-19 06:39:30.636,0.16,-0.4
2021-08-19 06:39:30.640,0.16,-0.39
2021-08-19 06:39:30.644,0.155,-0.395
2021-08-19 06:39:30.648,0.17,-0.405
2021-08-19 06:39:30.652,0.175,-0.385
2021-08-19 06:39:30.656,0.18,-0.4
2021-08-19 06:39:30.660,0.175,-0.385
2021-08-19 06:39:30.664,0.175,-0.385
2021-08-19 06:39:30.668,0.17,-0.395
2021-08-19 06:39:30.672,0.2,-0.38
2021-08-19 06:39:30.676,0.19,-0.38
2021-08-19 06:39:30.680,0.17,-0.39
2021-08-19 06:39:30.684,0.175,-0.385
2021-08-19 06:39:30.688,0.185,-0.375
2021-08-19 06:39:30.692,0.175,-0.38
2021-08-19 06:39:30.696,0.185,-0.365
2021-08-19 06:39:30.700,0.195,-0.36
2021-08-19 06:39:30.704,0.2,-0.37
2021-08-19 06:39:30.708,0.19,-0.38
2021-08-19 06:39:30.712,0.175,-0.39
2021-08-19 06:39:30.716,0.165,-0.4
2021-08-19 06:39:30.720,0.185,-0.4
2021-08-19 06:39:30.724,0.195,-0.38
2021-08-19 06:39:30.728,0.205,-0.385
2021-08-19 06:39:30.732,0.195,-0.38
2021-08-19 06:39:30.736,0.175,-0.395
2021-08-19 06:39:30.740,0.2,-0.385
2021-08-19 06:39:30.744,0.18,-0.4
2021-08-19 06:39:30.748,0.18,-0.385
2021-08-19 06:39:30.752,0.17,-0.36
2021-08-19 06:39:30.756,0.17,-0.355
2021-08-19 06:39:30.760,0.18,-0.36
2021-08-19 06:39:30.764,0.185,-0.375
2021-08-19 06:39:30.768,0.185,-0.375
2021-08-19 06:39:30.772,0.19,-0.39
2021-08-19 06:39:30.776,0.175,-0.39
2021-08-19 06:39:30.780,0.195,-0.395
2021-08-19 06:39:30.784,0.175,-0.375
2021-08-19 06:39:30.788,0.185,-0.375
2021-08-19 06:39:30.792,0.175,-0.375
2021-08-19 06:39:30.796,0.17,-0.35
2021-08-19 06:39:30.800,0.16,-0.365
2021-08-19 06:39:30.804,0.165,-0.36
2021-08-19 06:39:30.808,0.18,-0.39
2021-08-19 06:39:30.812,0.195,-0.385
2021-08-19 06:39:30.816,0.18,-0.41
2021-08-19 06:39:30.820,0.18,-0.405
2021-08-19 06:39:30.824,0.17,-0.365
2021-08-19 06:39:30.828,0.175,-0.37
2021-08-19 06:39:30.832,0.16,-0.375
2021-08-19 06:39:30.836,0.185,-0.37
2021-08-19 06:39:30.840,0.17,-0.375
2021-08-19 06:39:30.844,0.17,-0.37
2021-08-19 06:39:30.848,0.16,-0.355
2021-08-19 06:39:30.852,0.145,-0.385
2021-08-19 06:39:30.856,0.165,-0.39
2021-08-19 06:39:30.860,0.17,-0.37
2021-08-19 06:39:30.864,0.155,-0.38
2021-08-19 06:39:30.868,0.17,-0.36
2021-08-19 06:39:30.872,0.185,-0.365
2021-08-19 06:39:30.876,0.18,-0.34
2021-08-19 06:39:30.880,0.185,-0.36
2021-08-19 06:39:30.884,0.185,-0.355
2021-08-19 06:39:30.888,0.185,-0.355
2021-08-19 06:39:30.892,0.185,-0.38
2021-08-19 06:39:30.896,0.185,-0.38
2021-08-19 06:39:30.900,0.18,-0.36
2021-08-19 06:39:30.904,0.18,-0.38
2021-08-19 06:39:30.908,0.185,-0.35
2021-08-19 06:39:30.912,0.18,-0.335
2021-08-19 06:39:30.916,0.18,-0.295
2021-08-19 06:39:30.920,0.175,-0.28
2021-08-19 06:39:30.924,0.185,-0.22
2021-08-19 06:39:30.928,0.175,-0.205
2021-08-19 06:39:30.932,0.17,-0.195
2021-08-19 06:39:30.936,0.2,-0.18
2021-08-19 06:39:30.940,0.195,-0.17
2021-08-19 06:39:30.944,0.21,-0.16
2021-08-19 06:39:30.948,0.22,-0.19
2021-08-19 06:39:30.952,0.24,-0.18
2021-08-19 06:39:30.956,0.26,-0.195
2021-08-19 06:39:30.960,0.29,-0.19
2021-08-19 06:39:30.964,0.3,-0.2
2021-08-19 06:39:30.968,0.295,-0.175
2021-08-19 06:39:30.972,0.28,-0.17
2021-08-19 06:39:30.976,0.29,-0.2
2021-08-19 06:39:30.980,0.26,-0.235
2021-08-19 06:39:30.984,0.235,-0.275
2021-08-19 06:39:30.988,0.26,-0.31
2021-08-19 06:39:30.992,0.225,-0.305
2021-08-19 06:39:30.996,0.195,-0.275
2021-08-19 06:39:31.000,0.19,-0.285
2021-08-19 06:39:31.004,0.16,-0.285
2021-08-19 06:39:31.008,0.125,-0.26
2021-08-19 06:39:31.012,0.13,-0.29
2021-08-19 06:39:31.016,0.115,-0.305
2021-08-19 06:39:31.020,0.1,-0.295
2021-08-19 06:39:31.024,0.09,-0.315
2021-08-19 06:39:31.028,0.1,-0.34
2021-08-19 06:39:31.032,0.11,-0.34
2021-08-19 06:39:31.036,0.12,-0.325
2021-08-19 06:39:31.040,0.125,-0.34
2021-08-19 06:39:31.044,0.13,-0.37
2021-08-19 06:39:31.048,0.135,-0.4
2021-08-19 06:39:31.052,0.18,-0.37
2021-08-19 06:39:31.056,0.185,-0.35
2021-08-19 06:39:31.060,0.185,-0.355
2021-08-19 06:39:31.064,0.195,-0.375
2021-08-19 06:39:31.068,0.17,-0.39
2021-08-19 06:39:31.072,0.145,-0.4
2021-08-19 06:39:31.076,0.17,-0.42
2021-08-19 06:39:31.080,0.165,-0.42
2021-08-19 06:39:31.084,0.17,-0.395
2021-08-19 06:39:31.088,0.17,-0.375
2021-08-19 06:39:31.092,0.18,-0.375
2021-08-19 06:39:31.096,0.15,-0.38
2021-08-19 06:39:31.100,0.17,-0.395
2021-08-19 06:39:31.104,0.165,-0.33
2021-08-19 06:39:31.108,0.16,-0.275
2021-08-19 06:39:31.112,0.145,-0.215
2021-08-19 06:39:31.116,0.17,-0.12
2021-08-19 06:39:31.120,0.155,0.09
2021-08-19 06:39:31.124,0.155,0.395
2021-08-19 06:39:31.128,0.165,0.72
2021-08-19 06:39:31.132,0.195,1.005
2021-08-19 06:39:31.136,0.22,1.25
2021-08-19 06:39:31.140,0.205,1.39
2021-08-19 06:39:31.144,0.175,1.455
2021-08-19 06:39:31.148,0.165,1.37
2021-08-19 06:39:31.152,0.16,1.06
2021-08-19 06:39:31.156,0.13,0.54
2021-08-19 06:39:31.160,-0.025,-0.05
2021-08-19 06:39:31.164,-0.21,-0.425
2021-08-19 06:39:31.168,-0.475,-0.55
2021-08-19 06:39:31.172,-0.73,-0.565
2021-08-19 06:39:31.176,-0.9,-0.64
2021-08-19 06:39:31.180,-0.945,-0.78
2021-08-19 06:39:31.184,-0.96,-0.855
2021-08-19 06:39:31.188,-0.81,-0.88
2021-08-19 06:39:31.192,-0.57,-0.885
2021-08-19 06:39:31.196,-0.29,-0.85
2021-08-19 06:39:31.200,-0.14,-0.77
2021-08-19 06:39:31.204,-0.075,-0.71
2021-08-19 06:39:31.208,-0.095,-0.605
2021-08-19 06:39:31.212,-0.08,-0.605
2021-08-19 06:39:31.216,-0.02,-0.605
2021-08-19 06:39:31.220,-0.015,-0.61
2021-08-19 06:39:31.224,0.02,-0.615
2021-08-19 06:39:31.228,0.065,-0.61
2021-08-19 06:39:31.232,0.12,-0.605
2021-08-19 06:39:31.236,0.14,-0.615
2021-08-19 06:39:31.240,0.185,-0.61
2021-08-19 06:39:31.244,0.175,-0.64
2021-08-19 06:39:31.248,0.175,-0.62
2021-08-19 06:39:31.252,0.195,-0.62
2021-08-19 06:39:31.256,0.185,-0.605
2021-08-19 06:39:31.260,0.19,-0.61
2021-08-19 06:39:31.264,0.21,-0.635
2021-08-19 06:39:31.268,0.19,-0.6
2021-08-19 06:39:31.272,0.215,-0.61
2021-08-19 06:39:31.276,0.195,-0.605
2021-08-19 06:39:31.280,0.225,-0.585
2021-08-19 06:39:31.284,0.205,-0.58
2021-08-19 06:39:31.288,0.2,-0.58
2021-08-19 06:39:31.292,0.205,-0.56
2021-08-19 06:39:31.296,0.205,-0.565
2021-08-19 06:39:31.300,0.22,-0.58
2021-08-19 06:39:31.304,0.22,-0.57
2021-08-19 06:39:31.308,0.185,-0.59
2021-08-19 06:39:31.312,0.19,-0.585
2021-08-19 06:39:31.316,0.21,-0.59
2021-08-19 06:39:31.320,0.205,-0.565
2021-08-19 06:39:31.324,0.195,-0.595
2021-08-19 06:39:31.328,0.205,-0.595
2021-08-19 06:39:31.332,0.18,-0.59
2021-08-19 06:39:31.336,0.19,-0.59
2021-08-19 06:39:31.340,0.2,-0.575
2021-08-19 06:39:31.344,0.185,-0.59
2021-08-19 06:39:31.348,0.18,-0.585
2021-08-19 06:39:31.352,0.19,-0.58
2021-08-19 06:39:31.356,0.175,-0.57
2021-08-19 06:39:31.360,0.18,-0.585
2021-08-19 06:39:31.364,0.17,-0.58
2021-08-19 06:39:31.368,0.175,-0.605
2021-08-19 06:39:31.372,0.17,-0.57
2021-08-19 06:39:31.376,0.19,-0.575
2021-08-19 06:39:31.380,0.155,-0.58
2021-08-19 06:39:31.384,0.15,-0.59
2021-08-19 06:39:31.388,0.16,-0.58
2021-08-19 06:39:31.392,0.18,-0.57
2021-08-19 06:39:31.396,0.16,-0.58
2021-08-19 06:39:31.400,0.17,-0.575
2021-08-19 06:39:31.404,0.15,-0.57
2021-08-19 06:39:31.408,0.16,-0.56
2021-08-19 06:39:31.412,0.145,-0.56
2021-08-19 06:39:31.416,0.135,-0.54
2021-08-19 06:39:31.420,0.155,-0.575
2021-08-19 06:39:31.424,0.14,-0.54
2021-08-19 06:39:31.428,0.15,-0.5
2021-08-19 06:39:31.432,0.15,-0.48
2021-08-19 06:39:31.436,0.14,-0.465
2021-08-19 06:39:31.440,0.125,-0.45
2021-08-19 06:39:31.444,0.125,-0.43
2021-08-19 06:39:31.448,0.12,-0.42
2021-08-19 06:39:31.452,0.145,-0.405
2021-08-19 06:39:31.456,0.14,-0.395
2021-08-19 06:39:31.460,0.115,-0.355
2021-08-19 06:39:31.464,0.12,-0.32
2021-08-19 06:39:31.468,0.115,-0.28
2021-08-19 06:39:31.472,0.13,-0.27
2021-08-19 06:39:31.476,0.12,-0.28
2021-08-19 06:39:31.480,0.11,-0.27
2021-08-19 06:39:31.484,0.1,-0.265
2021-08-19 06:39:31.488,0.11,-0.24
2021-08-19 06:39:31.492,0.125,-0.26
2021-08-19 06:39:31.496,0.1,-0.265
2021-08-19 06:39:31.500,0.105,-0.255
2021-08-19 06:39:31.504,0.14,-0.25
2021-08-19 06:39:31.508,0.13,-0.235
2021-08-19 06:39:31.512,0.155,-0.245
2021-08-19 06:39:31.516,0.12,-0.245
2021-08-19 06:39:31.520,0.135,-0.245
2021-08-19 06:39:31.524,0.125,-0.245
2021-08-19 06:39:31.528,0.165,-0.26
2021-08-19 06:39:31.532,0.155,-0.245
2021-08-19 06:39:31.536,0.165,-0.27
2021-08-19 06:39:31.540,0.175,-0.27
2021-08-19 06:39:31.544,0.14,-0.285
2021-08-19 06:39:31.548,0.17,-0.275
2021-08-19 06:39:31.552,0.15,-0.26
2021-08-19 06:39:31.556,0.155,-0.245
2021-08-19 06:39:31.560,0.165,-0.245
2021-08-19 06:39:31.564,0.195,-0.245
2021-08-19 06:39:31.568,0.185,-0.275
2021-08-19 06:39:31.572,0.15,-0.29
2021-08-19 06:39:31.576,0.18,-0.3
2021-08-19 06:39:31.580,0.185,-0.275
2021-08-19 06:39:31.584,0.17,-0.3
2021-08-19 06:39:31.588,0.19,-0.285
2021-08-19 06:39:31.592,0.2,-0.28
2021-08-19 06:39:31.596,0.205,-0.285
2021-08-19 06:39:31.600,0.205,-0.29
2021-08-19 06:39:31.604,0.2,-0.28
2021-08-19 06:39:31.608,0.195,-0.28
2021-08-19 06:39:31.612,0.22,-0.28
2021-08-19 06:39:31.616,0.21,-0.285
2021-08-19 06:39:31.620,0.215,-0.27
2021-08-19 06:39:31.624,0.2,-0.285
2021-08-19 06:39:31.628,0.21,-0.27
2021-08-19 06:39:31.632,0.225,-0.26
2021-08-19 06:39:31.636,0.22,-0.27
2021-08-19 06:39:31.640,0.22,-0.26
2021-08-19 06:39:31.644,0.21,-0.26
2021-08-19 06:39:31.648,0.225,-0.26
2021-08-19 06:39:31.652,0.23,-0.265
2021-08-19 06:39:31.656,0.2,-0.27
2021-08-19 06:39:31.660,0.215,-0.25
2021-08-19 06:39:31.664,0.205,-0.245
2021-08-19 06:39:31.668,0.21,-0.25
2021-08-19 06:39:31.672,0.225,-0.25
2021-08-19 06:39:31.676,0.22,-0.26
2021-08-19 06:39:31.680,0.22,-0.28
2021-08-19 06:39:31.684,0.205,-0.27
2021-08-19 06:39:31.688,0.225,-0.275
2021-08-19 06:39:31.692,0.215,-0.29
2021-08-19 06:39:31.696,0.205,-0.26
2021-08-19 06:39:31.700,0.22,-0.275
2021-08-19 06:39:31.704,0.23,-0.27
2021-08-19 06:39:31.708,0.21,-0.29
2021-08-19 06:39:31.712,0.23,-0.285
2021-08-19 06:39:31.716,0.22,-0.305
2021-08-19 06:39:31.720,0.21,-0.275
2021-08-19 06:39:31.724,0.24,-0.295
2021-08-19 06:39:31.728,0.215,-0.285
2021-08-19 06:39:31.732,0.22,-0.3
2021-08-19 06:39:31.736,0.2,-0.29
2021-08-19 06:39:31.740,0.185,-0.29
2021-08-19 06:39:31.744,0.185,-0.285
2021-08-19 06:39:31.748,0.185,-0.3
2021-08-19 06:39:31.752,0.2,-0.3
2021-08-19 06:39:31.756,0.19,-0.3
2021-08-19 06:39:31.760,0.2,-0.305
2021-08-19 06:39:31.764,0.19,-0.29
2021-08-19 06:39:31.768,0.19,-0.29
2021-08-19 06:39:31.772,0.175,-0.29
2021-08-19 06:39:31.776,0.18,-0.275
2021-08-19 06:39:31.780,0.175,-0.29
2021-08-19 06:39:31.784,0.18,-0.285
2021-08-19 06:39:31.788,0.175,-0.29
2021-08-19 06:39:31.792,0.165,-0.305
2021-08-19 06:39:31.796,0.175,-0.3
2021-08-19 06:39:31.800,0.2,-0.32
2021-08-19 06:39:31.804,0.19,-0.3
2021-08-19 06:39:31.808,0.195,-0.33
2021-08-19 06:39:31.812,0.165,-0.3
2021-08-19 06:39:31.816,0.18,-0.3
2021-08-19 06:39:31.820,0.19,-0.3
2021-08-19 06:39:31.824,0.19,-0.29
2021-08-19 06:39:31.828,0.16,-0.29
2021-08-19 06:39:31.832,0.19,-0.285
2021-08-19 06:39:31.836,0.155,-0.305
2021-08-19 06:39:31.840,0.18,-0.31
2021-08-19 06:39:31.844,0.19,-0.3
2021-08-19 06:39:31.848,0.175,-0.275
2021-08-19 06:39:31.852,0.18,-0.275
2021-08-19 06:39:31.856,0.17,-0.285
2021-08-19 06:39:31.860,0.185,-0.28
2021-08-19 06:39:31.864,0.175,-0.27
2021-08-19 06:39:31.868,0.175,-0.275
2021-08-19 06:39:31.872,0.17,-0.26
2021-08-19 06:39:31.876,0.19,-0.27
2021-08-19 06:39:31.880,0.16,-0.275
2021-08-19 06:39:31.884,0.175,-0.26
2021-08-19 06:39:31.888,0.185,-0.225
2021-08-19 06:39:31.892,0.175,-0.19
2021-08-19 06:39:31.896,0.18,-0.15
2021-08-19 06:39:31.900,0.19,-0.13
2021-08-19 06:39:31.904,0.185,-0.12
2021-08-19 06:39:31.908,0.17,-0.11
2021-08-19 06:39:31.912,0.19,-0.07
2021-08-19 06:39:31.916,0.21,-0.08
2021-08-19 06:39:31.920,0.235,-0.065
2021-08-19 06:39:31.924,0.255,-0.06
2021-08-19 06:39:31.928,0.27,-0.09
2021-08-19 06:39:31.932,0.27,-0.09
2021-08-19 06:39:31.936,0.3,-0.09
2021-08-19 06:39:31.940,0.29,-0.09
2021-08-19 06:39:31.944,0.295,-0.08
2021-08-19 06:39:31.948,0.275,-0.1
2021-08-19 06:39:31.952,0.26,-0.13
2021-08-19 06:39:31.956,0.245,-0.175
2021-08-19 06:39:31.960,0.23,-0.205
2021-08-19 06:39:31.964,0.195,-0.22
2021-08-19 06:39:31.968,0.175,-0.205
2021-08-19 06:39:31.972,0.17,-0.22
2021-08-19 06:39:31.976,0.135,-0.205
2021-08-19 06:39:31.980,0.115,-0.19
2021-08-19 06:39:31.984,0.11,-0.205
2021-08-19 06:39:31.988,0.11,-0.215
2021-08-19 06:39:31.992,0.12,-0.22
2021-08-19 06:39:31.996,0.125,-0.22
2021-08-19 06:39:32.000,0.11,-0.23
2021-08-19 06:39:32.004,0.13,-0.235
2021-08-19 06:39:32.008,0.135,-0.24
2021-08-19 06:39:32.012,0.155,-0.265
2021-08-19 06:39:32.016,0.145,-0.28
2021-08-19 06:39:32.020,0.155,-0.305
2021-08-19 06:39:32.024,0.145,-0.28
2021-08-19 06:39:32.028,0.195,-0.28
2021-08-19 06:39:32.032,0.19,-0.285
2021-08-19 06:39:32.036,0.175,-0.305
2021-08-19 06:39:32.040,0.195,-0.295
2021-08-19 06:39:32.044,0.19,-0.295
2021-08-19 06:39:32.048,0.19,-0.3
2021-08-19 06:39:32.052,0.19,-0.285
2021-08-19 06:39:32.056,0.165,-0.28
2021-08-19 06:39:32.060,0.175,-0.29
2021-08-19 06:39:32.064,0.175,-0.28
2021-08-19 06:39:32.068,0.18,-0.275
2021-08-19 06:39:32.072,0.19,-0.25
2021-08-19 06:39:32.076,0.19,-0.225
2021-08-19 06:39:32.080,0.17,-0.185
2021-08-19 06:39:32.084,0.175,-0.15
2021-08-19 06:39:32.088,0.195,-0.08
2021-08-19 06:39:32.092,0.17,0.06
2021-08-19 06:39:32.096,0.19,0.335
2021-08-19 06:39:32.100,0.18,0.685
2021-08-19 06:39:32.104,0.2,1.01
2021-08-19 06:39:32.108,0.225,1.295
2021-08-19 06:39:32.112,0.25,1.5
2021-08-19 06:39:32.116,0.21,1.58
2021-08-19 06:39:32.120,0.195,1.545
2021-08-19 06:39:32.124,0.17,1.315
2021-08-19 06:39:32.128,0.155,0.83
2021-08-19 06:39:32.132,0.075,0.21
2021-08-19 06:39:32.136,-0.07,-0.24
2021-08-19 06:39:32.140,-0.355,-0.44
2021-08-19 06:39:32.144,-0.59,-0.45
2021-08-19 06:39:32.148,-0.82,-0.48
2021-08-19 06:39:32.152,-0.945,-0.59
2021-08-19 06:39:32.156,-0.985,-0.705
2021-08-19 06:39:32.160,-0.87,-0.775
2021-08-19 06:39:32.164,-0.66,-0.78
2021-08-19 06:39:32.168,-0.37,-0.73
2021-08-19 06:39:32.172,-0.18,-0.68
2021-08-19 06:39:32.176,-0.09,-0.565
2021-08-19 06:39:32.180,-0.05,-0.48
2021-08-19 06:39:32.184,-0.04,-0.47
2021-08-19 06:39:32.188,-0.05,-0.445
2021-08-19 06:39:32.192,-0.01,-0.455
2021-08-19 06:39:32.196,0.02,-0.47
2021-08-19 06:39:32.200,0.075,-0.47
2021-08-19 06:39:32.204,0.15,-0.46
2021-08-19 06:39:32.208,0.165,-0.47
2021-08-19 06:39:32.212,0.19,-0.445
2021-08-19 06:39:32.216,0.21,-0.45
2021-08-19 06:39:32.220,0.21,-0.44
2021-08-19 06:39:32.224,0.22,-0.45
2021-08-19 06:39:32.228,0.19,-0.44
2021-08-19 06:39:32.232,0.22,-0.45
2021-08-19 06:39:32.236,0.24,-0.455
2021-08-19 06:39:32.240,0.235,-0.455
2021-08-19 06:39:32.244,0.245,-0.475
2021-08-19 06:39:32.248,0.225,-0.45
2021-08-19 06:39:32.252,0.245,-0.42
2021-08-19 06:39:32.256,0.24,-0.41
2021-08-19 06:39:32.260,0.23,-0.42
2021-08-19 06:39:32.264,0.225,-0.405
2021-08-19 06:39:32.268,0.225,-0.42
2021-08-19 06:39:32.272,0.23,-0.42
2021-08-19 06:39:32.276,0.23,-0.43
2021-08-19 06:39:32.280,0.25,-0.41
2021-08-19 06:39:32.284,0.24,-0.405
2021-08-19 06:39:32.288,0.235,-0.405
2021-08-19 06:39:32.292,0.245,-0.42
2021-08-19 06:39:32.296,0.23,-0.42
2021-08-19 06:39:32.300,0.22,-0.45
2021-08-19 06:39:32.304,0.225,-0.47
2021-08-19 06:39:32.308,0.235,-0.475
2021-08-19 06:39:32.312,0.235,-0.485
2021-08-19 06:39:32.316,0.26,-0.455
2021-08-19 06:39:32.320,0.22,-0.435
2021-08-19 06:39:32.324,0.21,-0.435
2021-08-19 06:39:32.328,0.2,-0.455
2021-08-19 06:39:32.332,0.195,-0.455
2021-08-19 06:39:32.336,0.18,-0.44
2021-08-19 06:39:32.340,0.18,-0.45
2021-08-19 06:39:32.344,0.2,-0.45
2021-08-19 06:39:32.348,0.215,-0.46
2021-08-19 06:39:32.352,0.19,-0.45
2021-08-19 06:39:32.356,0.2,-0.465
2021-08-19 06:39:32.360,0.2,-0.47
2021-08-19 06:39:32.364,0.195,-0.485
2021-08-19 06:39:32.368,0.21,-0.485
2021-08-19 06:39:32.372,0.19,-0.45
2021-08-19 06:39:32.376,0.195,-0.45
2021-08-19 06:39:32.380,0.215,-0.43
2021-08-19 06:39:32.384,0.175,-0.445
2021-08-19 06:39:32.388,0.155,-0.45
2021-08-19 06:39:32.392,0.17,-0.435
2021-08-19 06:39:32.396,0.165,-0.405
2021-08-19 06:39:32.400,0.17,-0.365
2021-08-19 06:39:32.404,0.165,-0.355
2021-08-19 06:39:32.408,0.145,-0.32
2021-08-19 06:39:32.412,0.125,-0.335
2021-08-19 06:39:32.416,0.12,-0.31
2021-08-19 06:39:32.420,0.095,-0.275
2021-08-19 06:39:32.424,0.115,-0.24
2021-08-19 06:39:32.428,0.105,-0.2
2021-08-19 06:39:32.432,0.095,-0.175
2021-08-19 06:39:32.436,0.095,-0.18
2021-08-19 06:39:32.440,0.095,-0.215
2021-08-19 06:39:32.444,0.105,-0.235
2021-08-19 06:39:32.448,0.11,-0.21
2021-08-19 06:39:32.452,0.12,-0.18
2021-08-19 06:39:32.456,0.115,-0.165
2021-08-19 06:39:32.460,0.145,-0.155
2021-08-19 06:39:32.464,0.13,-0.135
2021-08-19 06:39:32.468,0.12,-0.145
2021-08-19 06:39:32.472,0.125,-0.155
2021-08-19 06:39:32.476,0.13,-0.215
2021-08-19 06:39:32.480,0.135,-0.205
2021-08-19 06:39:32.484,0.145,-0.235
2021-08-19 06:39:32.488,0.15,-0.245
2021-08-19 06:39:32.492,0.155,-0.225
2021-08-19 06:39:32.496,0.14,-0.205
2021-08-19 06:39:32.500,0.15,-0.17
2021-08-19 06:39:32.504,0.155,-0.215
2021-08-19 06:39:32.508,0.175,-0.245
2021-08-19 06:39:32.512,0.175,-0.25
2021-08-19 06:39:32.516,0.155,-0.225
2021-08-19 06:39:32.520,0.165,-0.19
2021-08-19 06:39:32.524,0.18,-0.18
2021-08-19 06:39:32.528,0.195,-0.23
2021-08-19 06:39:32.532,0.175,-0.265
2021-08-19 06:39:32.536,0.175,-0.265
2021-08-19 06:39:32.540,0.19,-0.265
2021-08-19 06:39:32.544,0.165,-0.245
2021-08-19 06:39:32.548,0.185,-0.185
2021-08-19 06:39:32.552,0.2,-0.195
2021-08-19 06:39:32.556,0.205,-0.235
2021-08-19 06:39:32.560,0.205,-0.27
2021-08-19 06:39:32.564,0.175,-0.265
2021-08-19 06:39:32.568,0.18,-0.215
2021-08-19 06:39:32.572,0.195,-0.19
2021-08-19 06:39:32.576,0.21,-0.16
2021-08-19 06:39:32.580,0.21,-0.17
2021-08-19 06:39:32.584,0.215,-0.185
2021-08-19 06:39:32.588,0.21,-0.16
2021-08-19 06:39:32.592,0.185,-0.195
2021-08-19 06:39:32.596,0.2,-0.19
2021-08-19 06:39:32.600,0.205,-0.18
2021-08-19 06:39:32.604,0.23,-0.165
2021-08-19 06:39:32.608,0.235,-0.19
2021-08-19 06:39:32.612,0.25,-0.22
2021-08-19 06:39:32.616,0.25,-0.235
2021-08-19 06:39:32.620,0.245,-0.245
2021-08-19 06:39:32.624,0.22,-0.2
2021-08-19 06:39:32.628,0.24,-0.16
2021-08-19 06:39:32.632,0.21,-0.15
2021-08-19 06:39:32.636,0.215,-0.16
2021-08-19 06:39:32.640,0.22,-0.215
2021-08-19 06:39:32.644,0.195,-0.205
2021-08-19 06:39:32.648,0.2,-0.17
2021-08-19 06:39:32.652,0.2,-0.15
2021-08-19 06:39:32.656,0.205,-0.145
2021-08-19 06:39:32.660,0.205,-0.18
2021-08-19 06:39:32.664,0.215,-0.235
2021-08-19 06:39:32.668,0.205,-0.195
2021-08-19 06:39:32.672,0.205,-0.165
2021-08-19 06:39:32.676,0.205,-0.15
2021-08-19 06:39:32.680,0.2,-0.145
2021-08-19 06:39:32.684,0.175,-0.14
2021-08-19 06:39:32.688,0.17,-0.13
2021-08-19 06:39:32.692,0.185,-0.16
2021-08-19 06:39:32.696,0.19,-0.225
2021-08-19 06:39:32.700,0.2,-0.2
2021-08-19 06:39:32.704,0.21,-0.17
2021-08-19 06:39:32.708,0.205,-0.115
2021-08-19 06:39:32.712,0.215,-0.07
2021-08-19 06:39:32.716,0.205,-0.04
2021-08-19 06:39:32.720,0.185,-0.1
2021-08-19 06:39:32.724,0.155,-0.135
2021-08-19 06:39:32.728,0.17,-0.19
2021-08-19 06:39:32.732,0.195,-0.215
2021-08-19 06:39:32.736,0.22,-0.23
2021-08-19 06:39:32.740,0.235,-0.2
2021-08-19 06:39:32.744,0.235,-0.165
2021-08-19 06:39:32.748,0.21,-0.155
2021-08-19 06:39:32.752,0.2,-0.135
2021-08-19 06:39:32.756,0.18,-0.15
2021-08-19 06:39:32.760,0.16,-0.135
2021-08-19 06:39:32.764,0.155,-0.16
2021-08-19 06:39:32.768,0.165,-0.14
2021-08-19 06:39:32.772,0.17,-0.09
2021-08-19 06:39:32.776,0.185,-0.02
2021-08-19 06:39:32.780,0.21,-0.02
2021-08-19 06:39:32.784,0.2,-0.09
2021-08-19 06:39:32.788,0.17,-0.165
2021-08-19 06:39:32.792,0.165,-0.21
2021-08-19 06:39:32.796,0.18,-0.16
2021-08-19 06:39:32.800,0.21,-0.09
2021-08-19 06:39:32.804,0.205,-0.045
2021-08-19 06:39:32.808,0.205,-0.06
2021-08-19 06:39:32.812,0.155,-0.105
2021-08-19 06:39:32.816,0.155,-0.14
2021-08-19 06:39:32.820,0.165,-0.16
2021-08-19 06:39:32.824,0.155,-0.145
2021-08-19 06:39:32.828,0.2,-0.115
2021-08-19 06:39:32.832,0.195,-0.065
2021-08-19 06:39:32.836,0.21,-0.04
2021-08-19 06:39:32.840,0.18,-0.025
2021-08-19 06:39:32.844,0.175,-0.06
2021-08-19 06:39:32.848,0.185,-0.01
2021-08-19 06:39:32.852,0.17,0.07
2021-08-19 06:39:32.856,0.17,0.155
2021-08-19 06:39:32.860,0.185,0.105
2021-08-19 06:39:32.864,0.2,0.065
2021-08-19 06:39:32.868,0.225,0.07
2021-08-19 06:39:32.872,0.22,0.115
2021-08-19 06:39:32.876,0.25,0.115
2021-08-19 06:39:32.880,0.315,0.095
2021-08-19 06:39:32.884,0.305,0.1
2021-08-19 06:39:32.888,0.315,0.135
2021-08-19 06:39:32.892,0.315,0.135
2021-08-19 06:39:32.896,0.29,0.12
2021-08-19 06:39:32.900,0.315,0.065
2021-08-19 06:39:32.904,0.295,0.03
2021-08-19 06:39:32.908,0.275,-0.01
2021-08-19 06:39:32.912,0.235,-0.04
2021-08-19 06:39:32.916,0.205,-0.065
2021-08-19 06:39:32.920,0.185,-0.06
2021-08-19 06:39:32.924,0.16,-0.025
2021-08-19 06:39:32.928,0.125,0.0
2021-08-19 06:39:32.932,0.11,0.0
2021-08-19 06:39:32.936,0.11,-0.035
2021-08-19 06:39:32.940,0.105,-0.095
2021-08-19 06:39:32.944,0.11,-0.09
2021-08-19 06:39:32.948,0.115,-0.07
2021-08-19 06:39:32.952,0.135,0.01
2021-08-19 06:39:32.956,0.16,0.01
2021-08-19 06:39:32.960,0.15,-0.01
2021-08-19 06:39:32.964,0.145,-0.05
2021-08-19 06:39:32.968,0.125,-0.075
2021-08-19 06:39:32.972,0.14,-0.105
2021-08-19 06:39:32.976,0.155,-0.145
2021-08-19 06:39:32.980,0.18,-0.13
2021-08-19 06:39:32.984,0.19,-0.155
2021-08-19 06:39:32.988,0.205,-0.115
2021-08-19 06:39:32.992,0.205,-0.1
2021-08-19 06:39:32.996,0.205,-0.13
2021-08-19 06:39:33.000,0.2,-0.17
2021-08-19 06:39:33.004,0.23,-0.18
2021-08-19 06:39:33.008,0.195,-0.175
2021-08-19 06:39:33.012,0.205,-0.145
2021-08-19 06:39:33.016,0.175,-0.125
2021-08-19 06:39:33.020,0.21,-0.135
2021-08-19 06:39:33.024,0.2,-0.085
2021-08-19 06:39:33.028,0.195,-0.05
2021-08-19 06:39:33.032,0.185,-0.055
2021-08-19 06:39:33.036,0.21,-0.045
2021-08-19 06:39:33.040,0.19,0.015
2021-08-19 06:39:33.044,0.185,0.065
2021-08-19 06:39:33.048,0.18,0.255
2021-08-19 06:39:33.052,0.225,0.6
2021-08-19 06:39:33.056,0.23,0.955
2021-08-19 06:39:33.060,0.23,1.25
2021-08-19 06:39:33.064,0.25,1.455
2021-08-19 06:39:33.068,0.26,1.595
2021-08-19 06:39:33.072,0.22,1.625
2021-08-19 06:39:33.076,0.235,1.49
2021-08-19 06:39:33.080,0.2,1.145
2021-08-19 06:39:33.084,0.155,0.645
2021-08-19 06:39:33.088,0.025,0.115
2021-08-19 06:39:33.092,-0.205,-0.23
2021-08-19 06:39:33.096,-0.49,-0.21
2021-08-19 06:39:33.100,-0.79,-0.11
2021-08-19 06:39:33.104,-1.0,-0.19
2021-08-19 06:39:33.108,-1.09,-0.38
2021-08-19 06:39:33.112,-1.095,-0.525
2021-08-19 06:39:33.116,-0.94,-0.63
2021-08-19 06:39:33.120,-0.65,-0.68
2021-08-19 06:39:33.124,-0.32,-0.69
2021-08-19 06:39:33.128,-0.13,-0.62
2021-08-19 06:39:33.132,-0.035,-0.415
2021-08-19 06:39:33.136,-0.02,-0.27
2021-08-19 06:39:33.140,-0.015,-0.205
2021-08-19 06:39:33.144,0.005,-0.255
2021-08-19 06:39:33.148,0.025,-0.305
2021-08-19 06:39:33.152,0.055,-0.315
2021-08-19 06:39:33.156,0.08,-0.305
2021-08-19 06:39:33.160,0.14,-0.27
2021-08-19 06:39:33.164,0.22,-0.275
2021-08-19 06:39:33.168,0.27,-0.28
2021-08-19 06:39:33.172,0.275,-0.26
2021-08-19 06:39:33.176,0.265,-0.29
2021-08-19 06:39:33.180,0.26,-0.34
2021-08-19 06:39:33.184,0.245,-0.33
2021-08-19 06:39:33.188,0.265,-0.225
2021-08-19 06:39:33.192,0.275,-0.17
2021-08-19 06:39:33.196,0.285,-0.26
2021-08-19 06:39:33.200,0.295,-0.335
2021-08-19 06:39:33.204,0.285,-0.33
2021-08-19 06:39:33.208,0.25,-0.3
2021-08-19 06:39:33.212,0.26,-0.28
2021-08-19 06:39:33.216,0.28,-0.235
2021-08-19 06:39:33.220,0.33,-0.2
2021-08-19 06:39:33.224,0.325,-0.21
2021-08-19 06:39:33.228,0.29,-0.285
2021-08-19 06:39:33.232,0.255,-0.31
2021-08-19 06:39:33.236,0.25,-0.285
2021-08-19 06:39:33.240,0.265,-0.22
2021-08-19 06:39:33.244,0.28,-0.165
2021-08-19 06:39:33.248,0.285,-0.2
2021-08-19 06:39:33.252,0.29,-0.245
2021-08-19 06:39:33.256,0.28,-0.255
2021-08-19 06:39:33.260,0.295,-0.255
2021-08-19 06:39:33.264,0.31,-0.29
2021-08-19 06:39:33.268,0.32,-0.32
2021-08-19 06:39:33.272,0.305,-0.285
2021-08-19 06:39:33.276,0.26,-0.295
2021-08-19 06:39:33.280,0.25,-0.27
2021-08-19 06:39:33.284,0.255,-0.26
2021-08-19 06:39:33.288,0.25,-0.255
2021-08-19 06:39:33.292,0.245,-0.29
2021-08-19 06:39:33.296,0.235,-0.315
2021-08-19 06:39:33.300,0.235,-0.28
2021-08-19 06:39:33.304,0.22,-0.255
2021-08-19 06:39:33.308,0.21,-0.275
2021-08-19 06:39:33.312,0.235,-0.28
2021-08-19 06:39:33.316,0.25,-0.255
2021-08-19 06:39:33.320,0.27,-0.215
2021-08-19 06:39:33.324,0.245,-0.24
2021-08-19 06:39:33.328,0.235,-0.255
2021-08-19 06:39:33.332,0.205,-0.245
2021-08-19 06:39:33.336,0.2,-0.275
2021-08-19 06:39:33.340,0.19,-0.31
2021-08-19 06:39:33.344,0.24,-0.32
2021-08-19 06:39:33.348,0.225,-0.285
2021-08-19 06:39:33.352,0.23,-0.18
2021-08-19 06:39:33.356,0.22,-0.11
2021-08-19 06:39:33.360,0.195,-0.075
2021-08-19 06:39:33.364,0.18,-0.09
2021-08-19 06:39:33.368,0.145,-0.135
2021-08-19 06:39:33.372,0.12,-0.13
2021-08-19 06:39:33.376,0.11,-0.095
2021-08-19 06:39:33.380,0.155,-0.1
2021-08-19 06:39:33.384,0.19,-0.145
2021-08-19 06:39:33.388,0.185,-0.18
2021-08-19 06:39:33.392,0.155,-0.115
2021-08-19 06:39:33.396,0.135,-0.045
2021-08-19 06:39:33.400,0.105,-0.095
2021-08-19 06:39:33.404,0.135,-0.16
2021-08-19 06:39:33.408,0.095,-0.19
2021-08-19 06:39:33.412,0.095,-0.145
2021-08-19 06:39:33.416,0.1,-0.125
2021-08-19 06:39:33.420,0.105,-0.135
2021-08-19 06:39:33.424,0.12,-0.17
2021-08-19 06:39:33.428,0.115,-0.16
2021-08-19 06:39:33.432,0.105,-0.14
2021-08-19 06:39:33.436,0.12,-0.11
2021-08-19 06:39:33.440,0.135,-0.16
2021-08-19 06:39:33.444,0.12,-0.17
2021-08-19 06:39:33.448,0.13,-0.16
2021-08-19 06:39:33.452,0.13,-0.16
2021-08-19 06:39:33.456,0.15,-0.18
2021-08-19 06:39:33.460,0.155,-0.23
2021-08-19 06:39:33.464,0.145,-0.19
2021-08-19 06:39:33.468,0.155,-0.15
2021-08-19 06:39:33.472,0.155,-0.105
2021-08-19 06:39:33.476,0.16,-0.135
2021-08-19 06:39:33.480,0.13,-0.2
2021-08-19 06:39:33.484,0.12,-0.255
2021-08-19 06:39:33.488,0.12,-0.285
2021-08-19 06:39:33.492,0.145,-0.255
2021-08-19 06:39:33.496,0.155,-0.17
2021-08-19 06:39:33.500,0.135,-0.14
2021-08-19 06:39:33.504,0.145,-0.22
2021-08-19 06:39:33.508,0.14,-0.29
2021-08-19 06:39:33.512,0.115,-0.295
2021-08-19 06:39:33.516,0.115,-0.26
2021-08-19 06:39:33.520,0.115,-0.26
2021-08-19 06:39:33.524,0.16,-0.28
2021-08-19 06:39:33.528,0.17,-0.235
2021-08-19 06:39:33.532,0.14,-0.195
2021-08-19 06:39:33.536,0.1,-0.2
2021-08-19 06:39:33.540,0.095,-0.255
2021-08-19 06:39:33.544,0.11,-0.27
2021-08-19 06:39:33.548,0.105,-0.235
2021-08-19 06:39:33.552,0.1,-0.23
2021-08-19 06:39:33.556,0.13,-0.295
2021-08-19 06:39:33.560,0.13,-0.31
2021-08-19 06:39:33.564,0.14,-0.29
2021-08-19 06:39:33.568,0.135,-0.21
2021-08-19 06:39:33.572,0.15,-0.195
2021-08-19 06:39:33.576,0.15,-0.19
2021-08-19 06:39:33.580,0.175,-0.25
2021-08-19 06:39:33.584,0.175,-0.285
2021-08-19 06:39:33.588,0.17,-0.265
2021-08-19 06:39:33.592,0.155,-0.24
2021-08-19 06:39:33.596,0.165,-0.23
2021-08-19 06:39:33.600,0.15,-0.225
2021-08-19 06:39:33.604,0.165,-0.23
2021-08-19 06:39:33.608,0.135,-0.235
2021-08-19 06:39:33.612,0.125,-0.25
2021-08-19 06:39:33.616,0.17,-0.255
2021-08-19 06:39:33.620,0.17,-0.29
2021-08-19 06:39:33.624,0.15,-0.29
2021-08-19 06:39:33.628,0.165,-0.3
2021-08-19 06:39:33.632,0.17,-0.33
2021-08-19 06:39:33.636,0.19,-0.285
2021-08-19 06:39:33.640,0.155,-0.225
2021-08-19 06:39:33.644,0.17,-0.2
2021-08-19 06:39:33.648,0.185,-0.215
2021-08-19 06:39:33.652,0.165,-0.275
2021-08-19 06:39:33.656,0.145,-0.265
2021-08-19 06:39:33.660,0.145,-0.255
2021-08-19 06:39:33.664,0.115,-0.225
2021-08-19 06:39:33.668,0.12,-0.265
2021-08-19 06:39:33.672,0.125,-0.27
2021-08-19 06:39:33.676,0.125,-0.245
2021-08-19 06:39:33.680,0.135,-0.215
2021-08-19 06:39:33.684,0.165,-0.19
2021-08-19 06:39:33.688,0.17,-0.24
2021-08-19 06:39:33.692,0.195,-0.265
2021-08-19 06:39:33.696,0.14,-0.24
2021-08-19 06:39:33.700,0.125,-0.19
2021-08-19 06:39:33.704,0.095,-0.155
2021-08-19 06:39:33.708,0.115,-0.19
2021-08-19 06:39:33.712,0.115,-0.235
2021-08-19 06:39:33.716,0.12,-0.245
2021-08-19 06:39:33.720,0.095,-0.26
2021-08-19 06:39:33.724,0.12,-0.28
2021-08-19 06:39:33.728,0.15,-0.31
2021-08-19 06:39:33.732,0.155,-0.285
2021-08-19 06:39:33.736,0.13,-0.275
2021-08-19 06:39:33.740,0.085,-0.235
2021-08-19 06:39:33.744,0.1,-0.235
2021-08-19 06:39:33.748,0.12,-0.225
2021-08-19 06:39:33.752,0.125,-0.25
2021-08-19 06:39:33.756,0.13,-0.23
2021-08-19 06:39:33.760,0.145,-0.18
2021-08-19 06:39:33.764,0.115,-0.17
2021-08-19 06:39:33.768,0.115,-0.23
2021-08-19 06:39:33.772,0.09,-0.245
2021-08-19 06:39:33.776,0.075,-0.225
2021-08-19 06:39:33.780,0.115,-0.185
2021-08-19 06:39:33.784,0.14,-0.16
2021-08-19 06:39:33.788,0.155,-0.09
2021-08-19 06:39:33.792,0.155,-0.08
2021-08-19 06:39:33.796,0.125,-0.045
2021-08-19 06:39:33.800,0.12,-0.045
2021-08-19 06:39:33.804,0.115,-0.01
2021-08-19 06:39:33.808,0.145,-0.02
2021-08-19 06:39:33.812,0.17,-0.015
2021-08-19 06:39:33.816,0.21,-0.035
2021-08-19 06:39:33.820,0.24,-0.065
2021-08-19 06:39:33.824,0.265,-0.09
2021-08-19 06:39:33.828,0.235,-0.04
2021-08-19 06:39:33.832,0.23,0.01
2021-08-19 06:39:33.836,0.235,0.03
2021-08-19 06:39:33.840,0.235,0.0
2021-08-19 06:39:33.844,0.215,-0.07
2021-08-19 06:39:33.848,0.18,-0.095
2021-08-19 06:39:33.852,0.18,-0.13
2021-08-19 06:39:33.856,0.155,-0.115
2021-08-19 06:39:33.860,0.13,-0.11
2021-08-19 06:39:33.864,0.13,-0.155
2021-08-19 06:39:33.868,0.125,-0.18
2021-08-19 06:39:33.872,0.115,-0.15
2021-08-19 06:39:33.876,0.09,-0.12
2021-08-19 06:39:33.880,0.105,-0.135
2021-08-19 06:39:33.884,0.095,-0.165
2021-08-19 06:39:33.888,0.09,-0.175
2021-08-19 06:39:33.892,0.07,-0.18
2021-08-19 06:39:33.896,0.09,-0.17
2021-08-19 06:39:33.900,0.09,-0.195
2021-08-19 06:39:33.904,0.115,-0.17
2021-08-19 06:39:33.908,0.12,-0.14
2021-08-19 06:39:33.912,0.12,-0.125
2021-08-19 06:39:33.916,0.105,-0.14
2021-08-19 06:39:33.920,0.12,-0.215
2021-08-19 06:39:33.924,0.135,-0.28
2021-08-19 06:39:33.928,0.145,-0.275
2021-08-19 06:39:33.932,0.15,-0.245
2021-08-19 06:39:33.936,0.165,-0.22
2021-08-19 06:39:33.940,0.185,-0.235
2021-08-19 06:39:33.944,0.185,-0.245
2021-08-19 06:39:33.948,0.175,-0.205
2021-08-19 06:39:33.952,0.165,-0.205
2021-08-19 06:39:33.956,0.17,-0.225
2021-08-19 06:39:33.960,0.16,-0.28
2021-08-19 06:39:33.964,0.155,-0.265
2021-08-19 06:39:33.968,0.175,-0.21
2021-08-19 06:39:33.972,0.175,-0.135
2021-08-19 06:39:33.976,0.145,-0.08
2021-08-19 06:39:33.980,0.115,-0.06
2021-08-19 06:39:33.984,0.13,0.0
2021-08-19 06:39:33.988,0.125,0.155
2021-08-19 06:39:33.992,0.145,0.44
2021-08-19 06:39:33.996,0.145,0.77
2021-08-19 06:39:34.000,0.195,1.04
2021-08-19 06:39:34.004,0.235,1.31
2021-08-19 06:39:34.008,0.235,1.555
2021-08-19 06:39:34.012,0.185,1.71
2021-08-19 06:39:34.016,0.165,1.59
2021-08-19 06:39:34.020,0.15,1.27
2021-08-19 06:39:34.024,0.11,0.73
2021-08-19 06:39:34.028,-0.02,0.12
2021-08-19 06:39:34.032,-0.24,-0.255
2021-08-19 06:39:34.036,-0.515,-0.325
2021-08-19 06:39:34.040,-0.785,-0.29
2021-08-19 06:39:34.044,-0.89,-0.4
2021-08-19 06:39:34.048,-0.98,-0.58
2021-08-19 06:39:34.052,-0.96,-0.67
2021-08-19 06:39:34.056,-0.82,-0.74
2021-08-19 06:39:34.060,-0.575,-0.75
2021-08-19 06:39:34.064,-0.295,-0.715
2021-08-19 06:39:34.068,-0.1,-0.62
2021-08-19 06:39:34.072,-0.02,-0.505
2021-08-19 06:39:34.076,0.02,-0.425
2021-08-19 06:39:34.080,0.005,-0.385
2021-08-19 06:39:34.084,-0.015,-0.375
2021-08-19 06:39:34.088,0.03,-0.355
2021-08-19 06:39:34.092,0.06,-0.35
2021-08-19 06:39:34.096,0.095,-0.345
2021-08-19 06:39:34.100,0.16,-0.345
2021-08-19 06:39:34.104,0.18,-0.405
2021-08-19 06:39:34.108,0.235,-0.425
2021-08-19 06:39:34.112,0.26,-0.42
2021-08-19 06:39:34.116,0.265,-0.42
2021-08-19 06:39:34.120,0.245,-0.41
2021-08-19 06:39:34.124,0.25,-0.41
2021-08-19 06:39:34.128,0.265,-0.405
2021-08-19 06:39:34.132,0.255,-0.365
2021-08-19 06:39:34.136,0.22,-0.375
2021-08-19 06:39:34.140,0.225,-0.405
2021-08-19 06:39:34.144,0.25,-0.465
2021-08-19 06:39:34.148,0.275,-0.455
2021-08-19 06:39:34.152,0.25,-0.405
2021-08-19 06:39:34.156,0.235,-0.345
2021-08-19 06:39:34.160,0.25,-0.29
2021-08-19 06:39:34.164,0.275,-0.29
2021-08-19 06:39:34.168,0.255,-0.34
2021-08-19 06:39:34.172,0.235,-0.395
2021-08-19 06:39:34.176,0.215,-0.38
2021-08-19 06:39:34.180,0.245,-0.335
2021-08-19 06:39:34.184,0.265,-0.36
2021-08-19 06:39:34.188,0.285,-0.375
2021-08-19 06:39:34.192,0.295,-0.37
2021-08-19 06:39:34.196,0.28,-0.39
2021-08-19 06:39:34.200,0.25,-0.375
2021-08-19 06:39:34.204,0.24,-0.32
2021-08-19 06:39:34.208,0.245,-0.305
2021-08-19 06:39:34.212,0.24,-0.335
2021-08-19 06:39:34.216,0.225,-0.35
2021-08-19 06:39:34.220,0.225,-0.365
2021-08-19 06:39:34.224,0.235,-0.395
2021-08-19 06:39:34.228,0.245,-0.41
2021-08-19 06:39:34.232,0.24,-0.4
2021-08-19 06:39:34.236,0.24,-0.395
2021-08-19 06:39:34.240,0.26,-0.375
2021-08-19 06:39:34.244,0.26,-0.385
2021-08-19 06:39:34.248,0.25,-0.37
2021-08-19 06:39:34.252,0.2,-0.355
2021-08-19 06:39:34.256,0.22,-0.35
2021-08-19 06:39:34.260,0.21,-0.395
2021-08-19 06:39:34.264,0.21,-0.4
2021-08-19 06:39:34.268,0.21,-0.325
2021-08-19 06:39:34.272,0.22,-0.27
2021-08-19 06:39:34.276,0.24,-0.25
2021-08-19 06:39:34.280,0.225,-0.285
2021-08-19 06:39:34.284,0.21,-0.35
2021-08-19 06:39:34.288,0.19,-0.36
2021-08-19 06:39:34.292,0.21,-0.305
2021-08-19 06:39:34.296,0.21,-0.225
2021-08-19 06:39:34.300,0.23,-0.175
2021-08-19 06:39:34.304,0.23,-0.155
2021-08-19 06:39:34.308,0.235,-0.14
2021-08-19 06:39:34.312,0.16,-0.125
2021-08-19 06:39:34.316,0.135,-0.105
2021-08-19 06:39:34.320,0.165,-0.115
2021-08-19 06:39:34.324,0.185,-0.115
2021-08-19 06:39:34.328,0.185,-0.135
2021-08-19 06:39:34.332,0.18,-0.15
2021-08-19 06:39:34.336,0.17,-0.135
2021-08-19 06:39:34.340,0.195,-0.13
2021-08-19 06:39:34.344,0.21,-0.135
2021-08-19 06:39:34.348,0.195,-0.11
2021-08-19 06:39:34.352,0.2,-0.13
2021-08-19 06:39:34.356,0.205,-0.11
2021-08-19 06:39:34.360,0.195,-0.105
2021-08-19 06:39:34.364,0.2,-0.08
2021-08-19 06:39:34.368,0.22,-0.12
2021-08-19 06:39:34.372,0.21,-0.135
2021-08-19 06:39:34.376,0.195,-0.105
2021-08-19 06:39:34.380,0.175,-0.13
2021-08-19 06:39:34.384,0.19,-0.15
2021-08-19 06:39:34.388,0.225,-0.175
2021-08-19 06:39:34.392,0.24,-0.165
2021-08-19 06:39:34.396,0.27,-0.08
2021-08-19 06:39:34.400,0.25,-0.11
2021-08-19 06:39:34.404,0.255,-0.125
2021-08-19 06:39:34.408,0.26,-0.185
2021-08-19 06:39:34.412,0.24,-0.25
2021-08-19 06:39:34.416,0.26,-0.295
2021-08-19 06:39:34.420,0.27,-0.22
2021-08-19 06:39:34.424,0.265,-0.15
2021-08-19 06:39:34.428,0.275,-0.115
2021-08-19 06:39:34.432,0.26,-0.15
2021-08-19 06:39:34.436,0.255,-0.215
2021-08-19 06:39:34.440,0.26,-0.295
2021-08-19 06:39:34.444,0.255,-0.315
2021-08-19 06:39:34.448,0.27,-0.235
2021-08-19 06:39:34.452,0.275,-0.135
2021-08-19 06:39:34.456,0.28,-0.09
2021-08-19 06:39:34.460,0.29,-0.105
2021-08-19 06:39:34.464,0.26,-0.145
2021-08-19 06:39:34.468,0.26,-0.16
2021-08-19 06:39:34.472,0.26,-0.195
2021-08-19 06:39:34.476,0.27,-0.255
2021-08-19 06:39:34.480,0.31,-0.25
2021-08-19 06:39:34.484,0.35,-0.19
2021-08-19 06:39:34.488,0.335,-0.115
2021-08-19 06:39:34.492,0.34,-0.1
2021-08-19 06:39:34.496,0.315,-0.15
2021-08-19 06:39:34.500,0.29,-0.185
2021-08-19 06:39:34.504,0.285,-0.215
2021-08-19 06:39:34.508,0.28,-0.29
2021-08-19 06:39:34.512,0.32,-0.285
2021-08-19 06:39:34.516,0.33,-0.22
2021-08-19 06:39:34.520,0.355,-0.135
2021-08-19 06:39:34.524,0.345,-0.12
2021-08-19 06:39:34.528,0.34,-0.155
2021-08-19 06:39:34.532,0.33,-0.145
2021-08-19 06:39:34.536,0.3,-0.14
2021-08-19 06:39:34.540,0.31,-0.14
2021-08-19 06:39:34.544,0.315,-0.18
2021-08-19 06:39:34.548,0.315,-0.22
2021-08-19 06:39:34.552,0.32,-0.235
2021-08-19 06:39:34.556,0.3,-0.225
2021-08-19 06:39:34.560,0.315,-0.18
2021-08-19 06:39:34.564,0.33,-0.19
2021-08-19 06:39:34.568,0.32,-0.2
2021-08-19 06:39:34.572,0.33,-0.215
2021-08-19 06:39:34.576,0.32,-0.21
2021-08-19 06:39:34.580,0.3,-0.205
2021-08-19 06:39:34.584,0.305,-0.215
2021-08-19 06:39:34.588,0.325,-0.19
2021-08-19 06:39:34.592,0.345,-0.145
2021-08-19 06:39:34.596,0.31,-0.12
2021-08-19 06:39:34.600,0.3,-0.155
2021-08-19 06:39:34.604,0.31,-0.165
2021-08-19 06:39:34.608,0.3,-0.16
2021-08-19 06:39:34.612,0.32,-0.19
2021-08-19 06:39:34.616,0.315,-0.225
2021-08-19 06:39:34.620,0.33,-0.235
2021-08-19 06:39:34.624,0.35,-0.2
2021-08-19 06:39:34.628,0.325,-0.19
2021-08-19 06:39:34.632,0.32,-0.18
2021-08-19 06:39:34.636,0.32,-0.195
2021-08-19 06:39:34.640,0.29,-0.215
2021-08-19 06:39:34.644,0.32,-0.215
2021-08-19 06:39:34.648,0.32,-0.195
2021-08-19 06:39:34.652,0.315,-0.225
2021-08-19 06:39:34.656,0.315,-0.28
2021-08-19 06:39:34.660,0.32,-0.315
2021-08-19 06:39:34.664,0.34,-0.29
2021-08-19 06:39:34.668,0.35,-0.195
2021-08-19 06:39:34.672,0.365,-0.13
2021-08-19 06:39:34.676,0.35,-0.115
2021-08-19 06:39:34.680,0.355,-0.125
2021-08-19 06:39:34.684,0.315,-0.155
2021-08-19 06:39:34.688,0.335,-0.165
2021-08-19 06:39:34.692,0.33,-0.2
2021-08-19 06:39:34.696,0.335,-0.23
2021-08-19 06:39:34.700,0.355,-0.23
2021-08-19 06:39:34.704,0.365,-0.2
2021-08-19 06:39:34.708,0.37,-0.135
2021-08-19 06:39:34.712,0.4,-0.1
2021-08-19 06:39:34.716,0.365,-0.015
2021-08-19 06:39:34.720,0.36,0.045
2021-08-19 06:39:34.724,0.38,0.045
2021-08-19 06:39:34.728,0.385,0.055
2021-08-19 06:39:34.732,0.41,0.04
2021-08-19 06:39:34.736,0.415,-0.02
2021-08-19 06:39:34.740,0.425,-0.06
2021-08-19 06:39:34.744,0.485,-0.015
2021-08-19 06:39:34.748,0.485,0.04
2021-08-19 06:39:34.752,0.505,0.035
2021-08-19 06:39:34.756,0.475,0.015
2021-08-19 06:39:34.760,0.455,-0.005
2021-08-19 06:39:34.764,0.435,-0.025
2021-08-19 06:39:34.768,0.41,-0.11
2021-08-19 06:39:34.772,0.415,-0.17
2021-08-19 06:39:34.776,0.41,-0.17
2021-08-19 06:39:34.780,0.36,-0.13
2021-08-19 06:39:34.784,0.35,-0.105
2021-08-19 06:39:34.788,0.36,-0.135
2021-08-19 06:39:34.792,0.35,-0.185
2021-08-19 06:39:34.796,0.335,-0.185
2021-08-19 06:39:34.800,0.295,-0.18
2021-08-19 06:39:34.804,0.305,-0.13
2021-08-19 06:39:34.808,0.31,-0.12
2021-08-19 06:39:34.812,0.295,-0.11
2021-08-19 06:39:34.816,0.305,-0.11
2021-08-19 06:39:34.820,0.3,-0.175
2021-08-19 06:39:34.824,0.315,-0.195
2021-08-19 06:39:34.828,0.315,-0.225
2021-08-19 06:39:34.832,0.33,-0.22
2021-08-19 06:39:34.836,0.34,-0.25
2021-08-19 06:39:34.840,0.39,-0.29
2021-08-19 06:39:34.844,0.4,-0.3
2021-08-19 06:39:34.848,0.415,-0.285
2021-08-19 06:39:34.852,0.395,-0.3
2021-08-19 06:39:34.856,0.365,-0.315
2021-08-19 06:39:34.860,0.38,-0.275
2021-08-19 06:39:34.864,0.385,-0.22
2021-08-19 06:39:34.868,0.4,-0.215
2021-08-19 06:39:34.872,0.395,-0.24
2021-08-19 06:39:34.876,0.37,-0.31
2021-08-19 06:39:34.880,0.35,-0.335
2021-08-19 06:39:34.884,0.365,-0.32
2021-08-19 06:39:34.888,0.385,-0.25
2021-08-19 06:39:34.892,0.375,-0.185
2021-08-19 06:39:34.896,0.42,-0.2
2021-08-19 06:39:34.900,0.405,-0.13
2021-08-19 06:39:34.904,0.395,0.08
2021-08-19 06:39:34.908,0.365,0.47
2021-08-19 06:39:34.912,0.37,0.935
2021-08-19 06:39:34.916,0.395,1.35
2021-08-19 06:39:34.920,0.485,1.68
2021-08-19 06:39:34.924,0.515,1.955
2021-08-19 06:39:34.936,0.375,1.64
2021-08-19 06:39:34.940,0.295,0.965
2021-08-19 06:39:34.944,0.215,0.275
2021-08-19 06:39:34.948,0.01,-0.215
2021-08-19 06:39:34.952,-0.245,-0.39
2021-08-19 06:39:34.956,-0.52,-0.415
2021-08-19 06:39:34.960,-0.63,-0.52
2021-08-19 06:39:34.964,-0.725,-0.64
2021-08-19 06:39:34.968,-0.715,-0.69
2021-08-19 06:39:34.972,-0.58,-0.715
2021-08-19 06:39:34.976,-0.335,-0.66
2021-08-19 06:39:34.980,-0.055,-0.605
2021-08-19 06:39:34.984,0.085,-0.53
2021-08-19 06:39:34.988,0.15,-0.49
2021-08-19 06:39:34.992,0.195,-0.44
2021-08-19 06:39:34.996,0.24,-0.415
2021-08-19 06:39:35.000,0.24,-0.46
2021-08-19 06:39:35.004,0.27,-0.43
2021-08-19 06:39:35.008,0.31,-0.34
2021-08-19 06:39:35.012,0.335,-0.32
2021-08-19 06:39:35.016,0.365,-0.38
2021-08-19 06:39:35.020,0.38,-0.47
2021-08-19 06:39:35.024,0.4,-0.52
2021-08-19 06:39:35.028,0.425,-0.49
2021-08-19 06:39:35.032,0.42,-0.45
2021-08-19 06:39:35.036,0.42,-0.42
2021-08-19 06:39:35.040,0.445,-0.45
2021-08-19 06:39:35.044,0.42,-0.495
2021-08-19 06:39:35.048,0.395,-0.5
2021-08-19 06:39:35.052,0.395,-0.47
2021-08-19 06:39:35.056,0.4,-0.5
2021-08-19 06:39:35.060,0.375,-0.5
2021-08-19 06:39:35.064,0.385,-0.5
2021-08-19 06:39:35.068,0.41,-0.475
2021-08-19 06:39:35.072,0.41,-0.425
2021-08-19 06:39:35.076,0.44,-0.42
2021-08-19 06:39:35.080,0.475,-0.445
2021-08-19 06:39:35.084,0.48,-0.405
2021-08-19 06:39:35.088,0.435,-0.32
2021-08-19 06:39:35.092,0.425,-0.34
2021-08-19 06:39:35.096,0.415,-0.41
2021-08-19 06:39:35.100,0.415,-0.465
2021-08-19 06:39:35.104,0.425,-0.45
2021-08-19 06:39:35.108,0.415,-0.45
2021-08-19 06:39:35.112,0.435,-0.46
2021-08-19 06:39:35.116,0.445,-0.495
2021-08-19 06:39:35.120,0.42,-0.56
2021-08-19 06:39:35.124,0.415,-0.6
2021-08-19 06:39:35.128,0.395,-0.61
2021-08-19 06:39:35.132,0.405,-0.575
2021-08-19 06:39:35.136,0.43,-0.595
2021-08-19 06:39:35.140,0.4,-0.595
2021-08-19 06:39:35.144,0.4,-0.595
2021-08-19 06:39:35.148,0.395,-0.54
2021-08-19 06:39:35.152,0.445,-0.55
2021-08-19 06:39:35.156,0.45,-0.605
2021-08-19 06:39:35.160,0.39,-0.64
2021-08-19 06:39:35.164,0.4,-0.55
2021-08-19 06:39:35.168,0.435,-0.465
2021-08-19 06:39:35.172,0.525,-0.415
2021-08-19 06:39:35.176,0.52,-0.45
2021-08-19 06:39:35.180,0.425,-0.465
2021-08-19 06:39:35.184,0.33,-0.515
2021-08-19 06:39:35.188,0.31,-0.605
2021-08-19 06:39:35.192,0.345,-0.655
2021-08-19 06:39:35.196,0.375,-0.625
2021-08-19 06:39:35.200,0.37,-0.555
2021-08-19 06:39:35.204,0.4,-0.505
2021-08-19 06:39:35.208,0.395,-0.45
2021-08-19 06:39:35.212,0.28,-0.365
2021-08-19 06:39:35.216,0.2,-0.3
2021-08-19 06:39:35.220,0.335,-0.26
2021-08-19 06:39:35.224,0.635,-0.23
2021-08-19 06:39:35.228,0.75,-0.18
2021-08-19 06:39:35.232,0.57,-0.17
2021-08-19 06:39:35.236,0.38,-0.16
2021-08-19 06:39:35.240,0.34,-0.155
2021-08-19 06:39:35.244,0.335,-0.12
2021-08-19 06:39:35.248,0.365,-0.105
2021-08-19 06:39:35.252,0.415,-0.145
2021-08-19 06:39:35.256,0.48,-0.185
2021-08-19 06:39:35.260,0.495,-0.22
2021-08-19 06:39:35.264,0.405,-0.25
2021-08-19 06:39:35.268,0.335,-0.305
2021-08-19 06:39:35.272,0.345,-0.325
2021-08-19 06:39:35.276,0.365,-0.275
2021-08-19 06:39:35.280,0.38,-0.19
2021-08-19 06:39:35.284,0.425,-0.135
2021-08-19 06:39:35.288,0.445,-0.13
2021-08-19 06:39:35.292,0.485,-0.18
2021-08-19 06:39:35.296,0.48,-0.23
2021-08-19 06:39:35.300,0.5,-0.265
2021-08-19 06:39:35.304,0.45,-0.32
2021-08-19 06:39:35.308,0.455,-0.355
2021-08-19 06:39:35.312,0.455,-0.365
2021-08-19 06:39:35.316,0.43,-0.315
2021-08-19 06:39:35.320,0.49,-0.34
2021-08-19 06:39:35.324,0.495,-0.4
2021-08-19 06:39:35.328,0.51,-0.44
2021-08-19 06:39:35.332,0.515,-0.475
2021-08-19 06:39:35.336,0.455,-0.405
2021-08-19 06:39:35.340,0.415,-0.32
2021-08-19 06:39:35.344,0.405,-0.235
2021-08-19 06:39:35.348,0.405,-0.22
2021-08-19 06:39:35.352,0.48,-0.23
2021-08-19 06:39:35.356,0.55,-0.28
2021-08-19 06:39:35.360,0.57,-0.3
2021-08-19 06:39:35.364,0.56,-0.29
2021-08-19 06:39:35.368,0.525,-0.29
2021-08-19 06:39:35.372,0.51,-0.265
2021-08-19 06:39:35.376,0.53,-0.255
2021-08-19 06:39:35.380,0.565,-0.3
2021-08-19 06:39:35.384,0.53,-0.32
2021-08-19 06:39:35.388,0.515,-0.325
2021-08-19 06:39:35.392,0.55,-0.38
2021-08-19 06:39:35.396,0.52,-0.375
2021-08-19 06:39:35.400,0.54,-0.355
2021-08-19 06:39:35.404,0.575,-0.33
2021-08-19 06:39:35.408,0.59,-0.32
2021-08-19 06:39:35.412,0.615,-0.345
2021-08-19 06:39:35.416,0.585,-0.315
2021-08-19 06:39:35.420,0.58,-0.26
2021-08-19 06:39:35.424,0.57,-0.28
2021-08-19 06:39:35.428,0.54,-0.335
2021-08-19 06:39:35.432,0.545,-0.425
2021-08-19 06:39:35.436,0.54,-0.53
2021-08-19 06:39:35.440,0.545,-0.52
2021-08-19 06:39:35.444,0.52,-0.425
2021-08-19 06:39:35.448,0.54,-0.31
2021-08-19 06:39:35.452,0.54,-0.21
2021-08-19 06:39:35.456,0.56,-0.21
2021-08-19 06:39:35.460,0.525,-0.245
2021-08-19 06:39:35.464,0.53,-0.27
2021-08-19 06:39:35.468,0.58,-0.27
2021-08-19 06:39:35.472,0.615,-0.27
2021-08-19 06:39:35.476,0.615,-0.29
2021-08-19 06:39:35.480,0.595,-0.32
2021-08-19 06:39:35.484,0.54,-0.36
2021-08-19 06:39:35.488,0.515,-0.38
2021-08-19 06:39:35.492,0.545,-0.35
2021-08-19 06:39:35.496,0.575,-0.325
2021-08-19 06:39:35.500,0.58,-0.29
2021-08-19 06:39:35.504,0.56,-0.305
2021-08-19 06:39:35.508,0.55,-0.345
2021-08-19 06:39:35.512,0.56,-0.4
2021-08-19 06:39:35.516,0.58,-0.44
2021-08-19 06:39:35.520,0.585,-0.445
2021-08-19 06:39:35.524,0.565,-0.39
2021-08-19 06:39:35.528,0.57,-0.27
2021-08-19 06:39:35.532,0.57,-0.19
2021-08-19 06:39:35.536,0.535,-0.195
2021-08-19 06:39:35.540,0.575,-0.23
2021-08-19 06:39:35.544,0.6,-0.29
2021-08-19 06:39:35.548,0.585,-0.32
2021-08-19 06:39:35.552,0.57,-0.32
2021-08-19 06:39:35.556,0.555,-0.345
2021-08-19 06:39:35.560,0.51,-0.305
2021-08-19 06:39:35.564,0.505,-0.265
2021-08-19 06:39:35.568,0.535,-0.245
2021-08-19 06:39:35.572,0.6,-0.265
2021-08-19 06:39:35.576,0.63,-0.335
2021-08-19 06:39:35.580,0.63,-0.4
2021-08-19 06:39:35.584,0.57,-0.445
2021-08-19 06:39:35.588,0.61,-0.455
2021-08-19 06:39:35.592,0.595,-0.415
2021-08-19 06:39:35.596,0.58,-0.33
2021-08-19 06:39:35.600,0.575,-0.235
2021-08-19 06:39:35.604,0.52,-0.23
2021-08-19 06:39:35.608,0.55,-0.325
2021-08-19 06:39:35.612,0.56,-0.385
2021-08-19 06:39:35.616,0.58,-0.425
2021-08-19 06:39:35.620,0.6,-0.385
2021-08-19 06:39:35.624,0.595,-0.335
2021-08-19 06:39:35.628,0.59,-0.34
2021-08-19 06:39:35.632,0.62,-0.425
2021-08-19 06:39:35.636,0.6,-0.375
2021-08-19 06:39:35.640,0.56,-0.26
2021-08-19 06:39:35.644,0.555,-0.095
2021-08-19 06:39:35.648,0.515,-0.04
2021-08-19 06:39:35.652,0.535,-0.04
2021-08-19 06:39:35.656,0.575,-0.065
2021-08-19 06:39:35.660,0.58,-0.07
2021-08-19 06:39:35.664,0.615,-0.07
2021-08-19 06:39:35.668,0.64,-0.06
2021-08-19 06:39:35.672,0.63,-0.05
2021-08-19 06:39:35.676,0.59,-0.04
2021-08-19 06:39:35.680,0.63,-0.1
2021-08-19 06:39:35.684,0.67,-0.135
2021-08-19 06:39:35.688,0.69,-0.12
2021-08-19 06:39:35.692,0.675,-0.095
2021-08-19 06:39:35.696,0.685,-0.05
2021-08-19 06:39:35.700,0.695,-0.065
2021-08-19 06:39:35.704,0.66,-0.125
2021-08-19 06:39:35.708,0.625,-0.195
2021-08-19 06:39:35.712,0.62,-0.25
2021-08-19 06:39:35.716,0.66,-0.27
2021-08-19 06:39:35.720,0.61,-0.28
2021-08-19 06:39:35.724,0.575,-0.255
2021-08-19 06:39:35.728,0.54,-0.255
2021-08-19 06:39:35.732,0.575,-0.26
2021-08-19 06:39:35.736,0.535,-0.31
2021-08-19 06:39:35.740,0.525,-0.355
2021-08-19 06:39:35.744,0.56,-0.4
2021-08-19 06:39:35.748,0.57,-0.435
2021-08-19 06:39:35.752,0.58,-0.365
2021-08-19 06:39:35.756,0.565,-0.265
2021-08-19 06:39:35.760,0.54,-0.185
2021-08-19 06:39:35.764,0.56,-0.165
2021-08-19 06:39:35.768,0.56,-0.195
2021-08-19 06:39:35.772,0.61,-0.235
2021-08-19 06:39:35.776,0.655,-0.3
2021-08-19 06:39:35.780,0.68,-0.39
2021-08-19 06:39:35.784,0.695,-0.435
2021-08-19 06:39:35.788,0.63,-0.43
2021-08-19 06:39:35.792,0.6,-0.42
2021-08-19 06:39:35.796,0.605,-0.425
2021-08-19 06:39:35.800,0.615,-0.425
2021-08-19 06:39:35.804,0.63,-0.395
2021-08-19 06:39:35.808,0.67,-0.395
2021-08-19 06:39:35.812,0.71,-0.44
2021-08-19 06:39:35.816,0.725,-0.515
2021-08-19 06:39:35.820,0.74,-0.505
2021-08-19 06:39:35.824,0.655,-0.44
2021-08-19 06:39:35.828,0.6,-0.375
2021-08-19 06:39:35.832,0.61,-0.315
2021-08-19 06:39:35.836,0.6,-0.26
2021-08-19 06:39:35.840,0.56,-0.24
2021-08-19 06:39:35.844,0.565,-0.16
2021-08-19 06:39:35.848,0.63,0.045
2021-08-19 06:39:35.852,0.675,0.465
2021-08-19 06:39:35.856,0.66,0.89
2021-08-19 06:39:35.860,0.62,1.26
2021-08-19 06:39:35.864,0.59,1.59
2021-08-19 06:39:35.868,0.58,1.885
2021-08-19 06:39:35.880,0.68,1.785
2021-08-19 06:39:35.884,0.625,1.2
2021-08-19 06:39:35.888,0.49,0.495
2021-08-19 06:39:35.892,0.245,0.02
2021-08-19 06:39:35.896,0.01,-0.15
2021-08-19 06:39:35.900,-0.225,-0.235
2021-08-19 06:39:35.904,-0.36,-0.385
2021-08-19 06:39:35.908,-0.43,-0.545
2021-08-19 06:39:35.912,-0.43,-0.655
2021-08-19 06:39:35.916,-0.305,-0.725
2021-08-19 06:39:35.920,-0.09,-0.745
2021-08-19 06:39:35.924,0.16,-0.805
2021-08-19 06:39:35.928,0.295,-0.845
2021-08-19 06:39:35.932,0.33,-0.825
2021-08-19 06:39:35.936,0.335,-0.775
2021-08-19 06:39:35.940,0.385,-0.69
2021-08-19 06:39:35.944,0.43,-0.665
2021-08-19 06:39:35.948,0.45,-0.65
2021-08-19 06:39:35.952,0.49,-0.62
2021-08-19 06:39:35.956,0.52,-0.61
2021-08-19 06:39:35.960,0.58,-0.6
2021-08-19 06:39:35.964,0.62,-0.575
2021-08-19 06:39:35.968,0.645,-0.585
2021-08-19 06:39:35.972,0.62,-0.66
2021-08-19 06:39:35.976,0.6,-0.67
2021-08-19 06:39:35.980,0.64,-0.63
2021-08-19 06:39:35.984,0.645,-0.615
2021-08-19 06:39:35.988,0.64,-0.635
2021-08-19 06:39:35.992,0.66,-0.665
2021-08-19 06:39:35.996,0.65,-0.63
2021-08-19 06:39:36.000,0.635,-0.575
2021-08-19 06:39:36.004,0.605,-0.535
2021-08-19 06:39:36.008,0.61,-0.5
2021-08-19 06:39:36.012,0.61,-0.49
2021-08-19 06:39:36.016,0.635,-0.495
2021-08-19 06:39:36.020,0.625,-0.505
2021-08-19 06:39:36.024,0.6,-0.57
2021-08-19 06:39:36.028,0.605,-0.615
2021-08-19 06:39:36.032,0.625,-0.6
2021-08-19 06:39:36.036,0.6,-0.595
2021-08-19 06:39:36.040,0.57,-0.615
2021-08-19 06:39:36.044,0.57,-0.61
2021-08-19 06:39:36.048,0.585,-0.57
2021-08-19 06:39:36.052,0.61,-0.515
2021-08-19 06:39:36.056,0.61,-0.5
2021-08-19 06:39:36.060,0.585,-0.53
2021-08-19 06:39:36.064,0.55,-0.565
2021-08-19 06:39:36.068,0.565,-0.605
2021-08-19 06:39:36.072,0.57,-0.605
2021-08-19 06:39:36.076,0.57,-0.58
2021-08-19 06:39:36.080,0.57,-0.565
2021-08-19 06:39:36.084,0.58,-0.56
2021-08-19 06:39:36.088,0.61,-0.545
2021-08-19 06:39:36.092,0.605,-0.545
2021-08-19 06:39:36.096,0.585,-0.54
2021-08-19 06:39:36.100,0.575,-0.55
2021-08-19 06:39:36.104,0.555,-0.56
2021-08-19 06:39:36.108,0.59,-0.595
2021-08-19 06:39:36.112,0.585,-0.625
2021-08-19 06:39:36.116,0.57,-0.6
2021-08-19 06:39:36.120,0.5,-0.55
2021-08-19 06:39:36.124,0.49,-0.48
2021-08-19 06:39:36.128,0.5,-0.405
2021-08-19 06:39:36.132,0.525,-0.385
2021-08-19 06:39:36.136,0.52,-0.48
2021-08-19 06:39:36.140,0.54,-0.585
2021-08-19 06:39:36.144,0.505,-0.63
2021-08-19 06:39:36.148,0.51,-0.575
2021-08-19 06:39:36.152,0.555,-0.51
2021-08-19 06:39:36.156,0.56,-0.485
2021-08-19 06:39:36.160,0.545,-0.475
2021-08-19 06:39:36.164,0.56,-0.47
2021-08-19 06:39:36.168,0.52,-0.41
2021-08-19 06:39:36.172,0.52,-0.31
2021-08-19 06:39:36.176,0.54,-0.275
2021-08-19 06:39:36.180,0.505,-0.275
2021-08-19 06:39:36.184,0.505,-0.285
2021-08-19 06:39:36.188,0.525,-0.28
2021-08-19 06:39:36.192,0.505,-0.305
2021-08-19 06:39:36.196,0.5,-0.34
2021-08-19 06:39:36.200,0.5,-0.38
2021-08-19 06:39:36.204,0.495,-0.42
2021-08-19 06:39:36.208,0.48,-0.34
2021-08-19 06:39:36.212,0.47,-0.32
2021-08-19 06:39:36.216,0.475,-0.3
2021-08-19 06:39:36.220,0.495,-0.275
2021-08-19 06:39:36.224,0.49,-0.24
2021-08-19 06:39:36.228,0.475,-0.235
2021-08-19 06:39:36.232,0.48,-0.3
2021-08-19 06:39:36.236,0.505,-0.36
2021-08-19 06:39:36.240,0.495,-0.375
2021-08-19 06:39:36.244,0.475,-0.36
2021-08-19 06:39:36.248,0.485,-0.315
2021-08-19 06:39:36.252,0.49,-0.285
2021-08-19 06:39:36.256,0.485,-0.31
2021-08-19 06:39:36.260,0.525,-0.39
2021-08-19 06:39:36.264,0.53,-0.46
2021-08-19 06:39:36.268,0.51,-0.54
2021-08-19 06:39:36.272,0.505,-0.575
2021-08-19 06:39:36.276,0.54,-0.55
2021-08-19 06:39:36.280,0.55,-0.44
2021-08-19 06:39:36.284,0.52,-0.36
2021-08-19 06:39:36.288,0.475,-0.34
2021-08-19 06:39:36.292,0.44,-0.35
2021-08-19 06:39:36.296,0.53,-0.38
2021-08-19 06:39:36.300,0.595,-0.42
2021-08-19 06:39:36.304,0.62,-0.465
2021-08-19 06:39:36.308,0.56,-0.445
2021-08-19 06:39:36.312,0.475,-0.395
2021-08-19 06:39:36.316,0.465,-0.375
2021-08-19 06:39:36.320,0.465,-0.375
2021-08-19 06:39:36.324,0.49,-0.385
2021-08-19 06:39:36.328,0.45,-0.41
2021-08-19 06:39:36.332,0.48,-0.505
2021-08-19 06:39:36.336,0.5,-0.52
2021-08-19 06:39:36.340,0.525,-0.525
2021-08-19 06:39:36.344,0.56,-0.53
2021-08-19 06:39:36.348,0.545,-0.505
2021-08-19 06:39:36.352,0.505,-0.53
2021-08-19 06:39:36.356,0.53,-0.58
2021-08-19 06:39:36.360,0.55,-0.64
2021-08-19 06:39:36.364,0.575,-0.665
2021-08-19 06:39:36.368,0.595,-0.58
2021-08-19 06:39:36.372,0.595,-0.54
2021-08-19 06:39:36.376,0.575,-0.49
2021-08-19 06:39:36.380,0.565,-0.42
2021-08-19 06:39:36.384,0.63,-0.36
2021-08-19 06:39:36.388,0.71,-0.32
2021-08-19 06:39:36.392,0.715,-0.275
2021-08-19 06:39:36.396,0.67,-0.26
2021-08-19 06:39:36.400,0.605,-0.255
2021-08-19 06:39:36.404,0.645,-0.285
2021-08-19 06:39:36.408,0.74,-0.39
2021-08-19 06:39:36.412,0.725,-0.5
2021-08-19 06:39:36.416,0.595,-0.565
2021-08-19 06:39:36.420,0.47,-0.51
2021-08-19 06:39:36.424,0.44,-0.43
2021-08-19 06:39:36.428,0.435,-0.36
2021-08-19 06:39:36.432,0.47,-0.38
2021-08-19 06:39:36.436,0.5,-0.48
2021-08-19 06:39:36.440,0.555,-0.54
2021-08-19 06:39:36.444,0.575,-0.565
2021-08-19 06:39:36.448,0.6,-0.505
2021-08-19 06:39:36.452,0.61,-0.455
2021-08-19 06:39:36.456,0.605,-0.395
2021-08-19 06:39:36.460,0.59,-0.33
2021-08-19 06:39:36.464,0.58,-0.26
2021-08-19 06:39:36.468,0.615,-0.225
2021-08-19 06:39:36.472,0.7,-0.245
2021-08-19 06:39:36.476,0.745,-0.3
2021-08-19 06:39:36.480,0.695,-0.355
2021-08-19 06:39:36.484,0.525,-0.42
2021-08-19 06:39:36.488,0.445,-0.465
2021-08-19 06:39:36.492,0.435,-0.54
2021-08-19 06:39:36.496,0.455,-0.66
2021-08-19 06:39:36.500,0.465,-0.72
2021-08-19 06:39:36.504,0.505,-0.68
2021-08-19 06:39:36.508,0.51,-0.59
2021-08-19 06:39:36.512,0.495,-0.525
2021-08-19 06:39:36.516,0.45,-0.445
2021-08-19 06:39:36.520,0.435,-0.345
2021-08-19 06:39:36.524,0.52,-0.21
2021-08-19 06:39:36.528,0.575,-0.17
2021-08-19 06:39:36.532,0.55,-0.16
2021-08-19 06:39:36.536,0.475,-0.24
2021-08-19 06:39:36.540,0.43,-0.27
2021-08-19 06:39:36.544,0.54,-0.29
2021-08-19 06:39:36.548,0.655,-0.365
2021-08-19 06:39:36.552,0.615,-0.42
2021-08-19 06:39:36.556,0.465,-0.41
2021-08-19 06:39:36.560,0.38,-0.375
2021-08-19 06:39:36.564,0.385,-0.345
2021-08-19 06:39:36.568,0.46,-0.37
2021-08-19 06:39:36.572,0.505,-0.435
2021-08-19 06:39:36.576,0.505,-0.49
2021-08-19 06:39:36.580,0.46,-0.515
2021-08-19 06:39:36.584,0.445,-0.52
2021-08-19 06:39:36.588,0.43,-0.495
2021-08-19 06:39:36.592,0.455,-0.485
2021-08-19 06:39:36.596,0.505,-0.5
2021-08-19 06:39:36.600,0.56,-0.5
2021-08-19 06:39:36.604,0.675,-0.42
2021-08-19 06:39:36.608,0.7,-0.265
2021-08-19 06:39:36.612,0.615,-0.135
2021-08-19 06:39:36.616,0.48,-0.105
2021-08-19 06:39:36.620,0.36,-0.105
2021-08-19 06:39:36.624,0.39,-0.12
2021-08-19 06:39:36.628,0.475,-0.145
2021-08-19 06:39:36.632,0.515,-0.16
2021-08-19 06:39:36.636,0.45,-0.185
2021-08-19 06:39:36.640,0.425,-0.17
2021-08-19 06:39:36.644,0.445,-0.185
2021-08-19 06:39:36.648,0.52,-0.25
2021-08-19 06:39:36.652,0.55,-0.32
2021-08-19 06:39:36.656,0.555,-0.31
2021-08-19 06:39:36.660,0.575,-0.245
2021-08-19 06:39:36.664,0.53,-0.16
2021-08-19 06:39:36.668,0.51,-0.18
2021-08-19 06:39:36.672,0.52,-0.28
2021-08-19 06:39:36.676,0.585,-0.4
2021-08-19 06:39:36.680,0.64,-0.475
2021-08-19 06:39:36.684,0.62,-0.525
2021-08-19 06:39:36.688,0.49,-0.435
2021-08-19 06:39:36.692,0.37,-0.325
2021-08-19 06:39:36.696,0.335,-0.265
2021-08-19 06:39:36.700,0.285,-0.325
2021-08-19 06:39:36.704,0.25,-0.395
2021-08-19 06:39:36.708,0.325,-0.42
2021-08-19 06:39:36.712,0.425,-0.375
2021-08-19 06:39:36.716,0.49,-0.34
2021-08-19 06:39:36.720,0.44,-0.385
2021-08-19 06:39:36.724,0.35,-0.42
2021-08-19 06:39:36.728,0.275,-0.39
2021-08-19 06:39:36.732,0.325,-0.34
2021-08-19 06:39:36.736,0.465,-0.355
2021-08-19 06:39:36.740,0.53,-0.405
2021-08-19 06:39:36.744,0.5,-0.45
2021-08-19 06:39:36.748,0.385,-0.495
2021-08-19 06:39:36.752,0.31,-0.585
2021-08-19 06:39:36.756,0.35,-0.675
2021-08-19 06:39:36.760,0.41,-0.625
2021-08-19 06:39:36.764,0.405,-0.55
2021-08-19 06:39:36.768,0.335,-0.475
2021-08-19 06:39:36.772,0.325,-0.47
2021-08-19 06:39:36.776,0.39,-0.47
2021-08-19 06:39:36.780,0.48,-0.46
2021-08-19 06:39:36.784,0.455,-0.42
2021-08-19 06:39:36.788,0.37,-0.32
2021-08-19 06:39:36.792,0.315,-0.19
2021-08-19 06:39:36.796,0.33,-0.115
2021-08-19 06:39:36.800,0.39,-0.115
2021-08-19 06:39:36.804,0.41,-0.155
2021-08-19 06:39:36.808,0.365,-0.085
2021-08-19 06:39:36.812,0.175,0.17
2021-08-19 06:39:36.816,0.025,0.585
2021-08-19 06:39:36.820,0.0,1.04
2021-08-19 06:39:36.824,0.105,1.43
2021-08-19 06:39:36.828,0.155,1.755
2021-08-19 06:39:36.832,0.15,1.995
2021-08-19 06:39:36.840,0.11,1.85
2021-08-19 06:39:36.844,0.13,1.255
2021-08-19 06:39:36.848,0.105,0.505
2021-08-19 06:39:36.852,-0.075,-0.14
2021-08-19 06:39:36.856,-0.265,-0.46
2021-08-19 06:39:36.860,-0.44,-0.46
2021-08-19 06:39:36.864,-0.66,-0.43
2021-08-19 06:39:36.868,-0.81,-0.565
2021-08-19 06:39:36.872,-0.795,-0.785
2021-08-19 06:39:36.876,-0.57,-0.97
2021-08-19 06:39:36.880,-0.28,-1.005
2021-08-19 06:39:36.884,-0.1,-0.94
2021-08-19 06:39:36.888,-0.15,-0.79
2021-08-19 06:39:36.892,-0.28,-0.705
2021-08-19 06:39:36.896,-0.32,-0.71
2021-08-19 06:39:36.900,-0.16,-0.755
2021-08-19 06:39:36.904,0.06,-0.725
2021-08-19 06:39:36.908,0.145,-0.745
2021-08-19 06:39:36.912,0.08,-0.735
2021-08-19 06:39:36.916,-0.01,-0.74
2021-08-19 06:39:36.920,-0.04,-0.675
2021-08-19 06:39:36.924,0.05,-0.61
2021-08-19 06:39:36.928,0.14,-0.62
2021-08-19 06:39:36.932,0.18,-0.67
2021-08-19 06:39:36.936,0.11,-0.7
2021-08-19 06:39:36.940,0.075,-0.755
2021-08-19 06:39:36.944,0.135,-0.81
2021-08-19 06:39:36.948,0.2,-0.81
2021-08-19 06:39:36.952,0.2,-0.73
2021-08-19 06:39:36.956,0.09,-0.615
2021-08-19 06:39:36.960,0.02,-0.565
2021-08-19 06:39:36.964,0.065,-0.625
2021-08-19 06:39:36.968,0.23,-0.69
2021-08-19 06:39:36.972,0.415,-0.715
2021-08-19 06:39:36.976,0.42,-0.73
2021-08-19 06:39:36.980,0.265,-0.735
2021-08-19 06:39:36.984,0.07,-0.68
2021-08-19 06:39:36.988,-0.045,-0.62
2021-08-19 06:39:36.992,-0.065,-0.665
2021-08-19 06:39:36.996,0.035,-0.76
2021-08-19 06:39:37.000,0.205,-0.815
2021-08-19 06:39:37.004,0.315,-0.74
2021-08-19 06:39:37.008,0.245,-0.64
2021-08-19 06:39:37.012,0.05,-0.625
2021-08-19 06:39:37.016,-0.055,-0.67
2021-08-19 06:39:37.020,-0.03,-0.785
2021-08-19 06:39:37.024,0.11,-0.815
2021-08-19 06:39:37.028,0.215,-0.765
2021-08-19 06:39:37.032,0.21,-0.675
2021-08-19 06:39:37.036,0.085,-0.67
2021-08-19 06:39:37.040,0.025,-0.78
2021-08-19 06:39:37.044,0.045,-0.85
2021-08-19 06:39:37.048,0.125,-0.815
2021-08-19 06:39:37.052,0.2,-0.765
2021-08-19 06:39:37.056,0.225,-0.745
2021-08-19 06:39:37.060,0.185,-0.87
2021-08-19 06:39:37.064,0.195,-0.945
2021-08-19 06:39:37.068,0.21,-0.89
2021-08-19 06:39:37.072,0.175,-0.775
2021-08-19 06:39:37.076,0.05,-0.635
2021-08-19 06:39:37.080,-0.085,-0.59
2021-08-19 06:39:37.084,-0.16,-0.675
2021-08-19 06:39:37.088,-0.01,-0.77
2021-08-19 06:39:37.092,0.27,-0.775
2021-08-19 06:39:37.096,0.345,-0.74
2021-08-19 06:39:37.100,0.105,-0.7
2021-08-19 06:39:37.104,-0.155,-0.68
2021-08-19 06:39:37.108,-0.23,-0.715
2021-08-19 06:39:37.112,-0.16,-0.81
2021-08-19 06:39:37.116,-0.11,-0.85
2021-08-19 06:39:37.120,-0.105,-0.77
2021-08-19 06:39:37.124,-0.09,-0.61
2021-08-19 06:39:37.128,-0.1,-0.63
2021-08-19 06:39:37.132,-0.07,-0.68
2021-08-19 06:39:37.136,-0.055,-0.74
2021-08-19 06:39:37.140,0.1,-0.635
2021-08-19 06:39:37.144,0.345,-0.36
2021-08-19 06:39:37.148,0.425,-0.085
2021-08-19 06:39:37.152,0.365,-0.005
2021-08-19 06:39:37.156,0.36,-0.1
2021-08-19 06:39:37.160,0.43,-0.295
2021-08-19 06:39:37.164,0.395,-0.41
2021-08-19 06:39:37.168,0.255,-0.475
2021-08-19 06:39:37.172,-0.02,-0.415
2021-08-19 06:39:37.176,-0.23,-0.39
2021-08-19 06:39:37.180,-0.235,-0.41
2021-08-19 06:39:37.184,-0.11,-0.55
2021-08-19 06:39:37.188,0.055,-0.69
2021-08-19 06:39:37.192,0.21,-0.76
2021-08-19 06:39:37.196,0.235,-0.695
2021-08-19 06:39:37.200,0.195,-0.555
2021-08-19 06:39:37.204,0.12,-0.475
2021-08-19 06:39:37.208,0.095,-0.425
2021-08-19 06:39:37.212,0.115,-0.365
2021-08-19 06:39:37.216,0.275,-0.355
2021-08-19 06:39:37.220,0.41,-0.415
2021-08-19 06:39:37.224,0.435,-0.58
2021-08-19 06:39:37.228,0.39,-0.71
2021-08-19 06:39:37.232,0.42,-0.86
2021-08-19 06:39:37.236,0.315,-0.95
2021-08-19 06:39:37.240,0.045,-0.945
2021-08-19 06:39:37.244,-0.195,-0.81
2021-08-19 06:39:37.248,-0.235,-0.64
2021-08-19 06:39:37.252,-0.105,-0.62
2021-08-19 06:39:37.256,-0.035,-0.74
2021-08-19 06:39:37.260,-0.05,-0.89
2021-08-19 06:39:37.264,-0.13,-0.93
2021-08-19 06:39:37.268,-0.225,-0.79
2021-08-19 06:39:37.272,-0.315,-0.69
2021-08-19 06:39:37.276,-0.29,-0.77
2021-08-19 06:39:37.280,-0.09,-0.93
2021-08-19 06:39:37.284,0.17,-1.03
2021-08-19 06:39:37.288,0.325,-1.065
2021-08-19 06:39:37.292,0.175,-1.08
2021-08-19 06:39:37.296,-0.115,-1.04
2021-08-19 06:39:37.300,-0.34,-0.995
2021-08-19 06:39:37.304,-0.375,-0.925
2021-08-19 06:39:37.308,-0.295,-0.88
2021-08-19 06:39:37.312,-0.195,-0.92
2021-08-19 06:39:37.316,-0.1,-0.995
2021-08-19 06:39:37.320,0.0,-1.07
2021-08-19 06:39:37.324,0.035,-1.095
2021-08-19 06:39:37.328,-0.045,-1.04
2021-08-19 06:39:37.332,-0.28,-1.07
2021-08-19 06:39:37.336,-0.445,-1.05
2021-08-19 06:39:37.340,-0.48,-0.995
2021-08-19 06:39:37.344,-0.415,-0.96
2021-08-19 06:39:37.348,-0.31,-0.975
2021-08-19 06:39:37.352,-0.32,-1.04
2021-08-19 06:39:37.356,-0.34,-1.06
2021-08-19 06:39:37.360,-0.38,-1.005
2021-08-19 06:39:37.364,-0.37,-1.025
2021-08-19 06:39:37.368,-0.33,-1.095
2021-08-19 06:39:37.372,-0.315,-1.21
2021-08-19 06:39:37.376,-0.315,-1.255
2021-08-19 06:39:37.380,-0.3,-1.255
2021-08-19 06:39:37.384,-0.335,-1.23
2021-08-19 06:39:37.388,-0.355,-1.26
2021-08-19 06:39:37.392,-0.37,-1.3
2021-08-19 06:39:37.396,-0.4,-1.275
2021-08-19 06:39:37.400,-0.44,-1.22
2021-08-19 06:39:37.404,-0.445,-1.195
2021-08-19 06:39:37.408,-0.42,-1.17
2021-08-19 06:39:37.412,-0.425,-1.2
2021-08-19 06:39:37.416,-0.41,-1.205
2021-08-19 06:39:37.420,-0.42,-1.25
2021-08-19 06:39:37.424,-0.485,-1.27
2021-08-19 06:39:37.428,-0.495,-1.285
2021-08-19 06:39:37.432,-0.475,-1.245
2021-08-19 06:39:37.436,-0.44,-1.195
2021-08-19 06:39:37.440,-0.385,-1.195
2021-08-19 06:39:37.444,-0.31,-1.325
2021-08-19 06:39:37.448,-0.33,-1.5
2021-08-19 06:39:37.452,-0.36,-1.525
2021-08-19 06:39:37.456,-0.405,-1.375
2021-08-19 06:39:37.460,-0.415,-1.155
2021-08-19 06:39:37.464,-0.38,-1.07
2021-08-19 06:39:37.468,-0.35,-1.095
2021-08-19 06:39:37.472,-0.4,-1.15
2021-08-19 06:39:37.476,-0.43,-1.2
2021-08-19 06:39:37.480,-0.42,-1.25
2021-08-19 06:39:37.484,-0.41,-1.29
2021-08-19 06:39:37.488,-0.345,-1.3
2021-08-19 06:39:37.492,-0.33,-1.35
2021-08-19 06:39:37.496,-0.35,-1.4
2021-08-19 06:39:37.500,-0.36,-1.455
2021-08-19 06:39:37.504,-0.41,-1.43
2021-08-19 06:39:37.508,-0.45,-1.38
2021-08-19 06:39:37.512,-0.535,-1.395
2021-08-19 06:39:37.516,-0.6,-1.415
2021-08-19 06:39:37.520,-0.685,-1.3
2021-08-19 06:39:37.524,-0.725,-1.08
2021-08-19 06:39:37.528,-0.72,-0.945
2021-08-19 06:39:37.532,-0.71,-0.83
2021-08-19 06:39:37.536,-0.685,-0.785
2021-08-19 06:39:37.540,-0.65,-0.85
2021-08-19 06:39:37.544,-0.7,-0.875
2021-08-19 06:39:37.548,-0.775,-0.775
2021-08-19 06:39:37.552,-0.79,-0.655
2021-08-19 06:39:37.556,-0.775,-0.71
2021-08-19 06:39:37.560,-0.715,-0.845
2021-08-19 06:39:37.564,-0.685,-0.865
2021-08-19 06:39:37.568,-0.63,-0.85
2021-08-19 06:39:37.572,-0.575,-0.715
2021-08-19 06:39:37.576,-0.52,-0.58
2021-08-19 06:39:37.580,-0.54,-0.44
2021-08-19 06:39:37.584,-0.615,-0.375
2021-08-19 06:39:37.588,-0.63,-0.445
2021-08-19 06:39:37.592,-0.65,-0.52
2021-08-19 06:39:37.596,-0.62,-0.565
2021-08-19 06:39:37.600,-0.595,-0.575
2021-08-19 06:39:37.604,-0.6,-0.62
2021-08-19 06:39:37.608,-0.63,-0.735
2021-08-19 06:39:37.612,-0.685,-0.725
2021-08-19 06:39:37.616,-0.73,-0.61
2021-08-19 06:39:37.620,-0.77,-0.495
2021-08-19 06:39:37.624,-0.76,-0.57
2021-08-19 06:39:37.628,-0.775,-0.685
2021-08-19 06:39:37.632,-0.805,-0.73
2021-08-19 06:39:37.636,-0.805,-0.52
2021-08-19 06:39:37.640,-0.81,-0.24
2021-08-19 06:39:37.644,-0.84,-0.09
2021-08-19 06:39:37.648,-0.87,-0.185
2021-08-19 06:39:37.652,-0.84,-0.345
2021-08-19 06:39:37.656,-0.765,-0.43
2021-08-19 06:39:37.660,-0.655,-0.51
2021-08-19 06:39:37.664,-0.61,-0.56
2021-08-19 06:39:37.668,-0.585,-0.555
2021-08-19 06:39:37.672,-0.6,-0.43
2021-08-19 06:39:37.676,-0.645,-0.3
2021-08-19 06:39:37.680,-0.735,-0.245
2021-08-19 06:39:37.684,-0.815,-0.295
2021-08-19 06:39:37.688,-0.825,-0.39
2021-08-19 06:39:37.692,-0.77,-0.355
2021-08-19 06:39:37.696,-0.78,-0.245
2021-08-19 06:39:37.700,-0.825,-0.14
2021-08-19 06:39:37.704,-0.86,-0.2
2021-08-19 06:39:37.708,-0.81,-0.235
2021-08-19 06:39:37.712,-0.72,-0.2
2021-08-19 06:39:37.716,-0.665,-0.235
2021-08-19 06:39:37.720,-0.7,-0.36
2021-08-19 06:39:37.724,-0.795,-0.425
2021-08-19 06:39:37.728,-0.875,-0.3
2021-08-19 06:39:37.732,-0.865,-0.005
2021-08-19 06:39:37.736,-0.81,0.355
2021-08-19 06:39:37.740,-0.705,0.74
2021-08-19 06:39:37.744,-0.655,1.145
2021-08-19 06:39:37.748,-0.685,1.485
2021-08-19 06:39:37.752,-0.79,1.725
2021-08-19 06:39:37.756,-0.92,1.645
2021-08-19 06:39:37.760,-0.995,1.27
2021-08-19 06:39:37.764,-1.01,0.805
2021-08-19 06:39:37.768,-1.03,0.41
2021-08-19 06:39:37.772,-1.125,0.055
2021-08-19 06:39:37.776,-1.365,-0.175
2021-08-19 06:39:37.780,-1.675,-0.28
2021-08-19 06:39:37.784,-1.995,-0.355
2021-08-19 06:39:37.804,-1.775,-0.625
2021-08-19 06:39:37.808,-1.29,-0.48
2021-08-19 06:39:37.812,-1.045,-0.39
2021-08-19 06:39:37.816,-1.025,-0.345
2021-08-19 06:39:37.820,-1.095,-0.35
2021-08-19 06:39:37.824,-1.205,-0.475
2021-08-19 06:39:37.828,-1.245,-0.695
2021-08-19 06:39:37.832,-1.225,-0.985
2021-08-19 06:39:37.836,-1.12,-1.03
2021-08-19 06:39:37.840,-1.045,-0.725
2021-08-19 06:39:37.844,-1.02,-0.305
2021-08-19 06:39:37.848,-0.965,-0.12
2021-08-19 06:39:37.852,-0.905,-0.17
2021-08-19 06:39:37.856,-0.91,-0.36
2021-08-19 06:39:37.860,-0.95,-0.52
2021-08-19 06:39:37.864,-0.98,-0.52
2021-08-19 06:39:37.868,-0.985,-0.39
2021-08-19 06:39:37.872,-0.945,-0.24
2021-08-19 06:39:37.876,-0.905,-0.315
2021-08-19 06:39:37.880,-0.9,-0.52
2021-08-19 06:39:37.884,-0.96,-0.71
2021-08-19 06:39:37.888,-1.02,-0.72
2021-08-19 06:39:37.892,-0.995,-0.61
2021-08-19 06:39:37.896,-0.96,-0.48
2021-08-19 06:39:37.900,-0.915,-0.34
2021-08-19 06:39:37.904,-0.9,-0.22
2021-08-19 06:39:37.908,-0.9,-0.15
2021-08-19 06:39:37.912,-0.9,-0.16
2021-08-19 06:39:37.916,-0.955,-0.235
2021-08-19 06:39:37.920,-1.02,-0.405
2021-08-19 06:39:37.924,-1.04,-0.56
2021-08-19 06:39:37.928,-1.01,-0.63
2021-08-19 06:39:37.932,-0.99,-0.58
2021-08-19 06:39:37.936,-0.935,-0.535
2021-08-19 06:39:37.940,-0.955,-0.455
2021-08-19 06:39:37.944,-0.955,-0.36
2021-08-19 06:39:37.948,-0.985,-0.26
2021-08-19 06:39:37.952,-0.965,-0.195
2021-08-19 06:39:37.956,-0.98,-0.225
2021-08-19 06:39:37.960,-1.08,-0.415
2021-08-19 06:39:37.964,-1.11,-0.525
2021-08-19 06:39:37.968,-1.11,-0.47
2021-08-19 06:39:37.972,-1.07,-0.44
2021-08-19 06:39:37.976,-1.045,-0.49
2021-08-19 06:39:37.980,-1.01,-0.425
2021-08-19 06:39:37.984,-1.0,-0.32
2021-08-19 06:39:37.988,-0.975,-0.22
2021-08-19 06:39:37.992,-0.97,-0.295
2021-08-19 06:39:37.996,-1.1,-0.505
2021-08-19 06:39:38.000,-1.15,-0.79
2021-08-19 06:39:38.004,-1.165,-0.855
2021-08-19 06:39:38.008,-1.12,-0.745
2021-08-19 06:39:38.012,-1.085,-0.59
2021-08-19 06:39:38.016,-1.12,-0.52
2021-08-19 06:39:38.020,-1.13,-0.47
2021-08-19 06:39:38.024,-1.115,-0.445
2021-08-19 06:39:38.028,-1.14,-0.49
2021-08-19 06:39:38.032,-1.175,-0.56
2021-08-19 06:39:38.036,-1.195,-0.505
2021-08-19 06:39:38.040,-1.21,-0.475
2021-08-19 06:39:38.044,-1.235,-0.62
2021-08-19 06:39:38.048,-1.255,-0.83
2021-08-19 06:39:38.052,-1.21,-0.77
2021-08-19 06:39:38.056,-1.175,-0.475
2021-08-19 06:39:38.060,-1.195,-0.195
2021-08-19 06:39:38.064,-1.25,-0.17
2021-08-19 06:39:38.068,-1.355,-0.28
2021-08-19 06:39:38.072,-1.45,-0.4
2021-08-19 06:39:38.076,-1.515,-0.265
2021-08-19 06:39:38.080,-1.52,-0.07
2021-08-19 06:39:38.084,-1.495,-0.02
2021-08-19 06:39:38.088,-1.48,-0.165
2021-08-19 06:39:38.092,-1.475,-0.26
2021-08-19 06:39:38.096,-1.48,-0.3
2021-08-19 06:39:38.100,-1.47,-0.24
2021-08-19 06:39:38.104,-1.47,-0.235
2021-08-19 06:39:38.108,-1.495,-0.315
2021-08-19 06:39:38.112,-1.5,-0.42
2021-08-19 06:39:38.116,-1.53,-0.48
2021-08-19 06:39:38.120,-1.52,-0.445
2021-08-19 06:39:38.124,-1.485,-0.415
2021-08-19 06:39:38.128,-1.475,-0.52
2021-08-19 06:39:38.132,-1.48,-0.68
2021-08-19 06:39:38.136,-1.48,-0.675
2021-08-19 06:39:38.140,-1.47,-0.485
2021-08-19 06:39:38.144,-1.47,-0.365
2021-08-19 06:39:38.148,-1.475,-0.305
2021-08-19 06:39:38.152,-1.495,-0.25
2021-08-19 06:39:38.156,-1.5,-0.205
2021-08-19 06:39:38.160,-1.49,-0.25
2021-08-19 06:39:38.164,-1.465,-0.32
2021-08-19 06:39:38.168,-1.415,-0.435
2021-08-19 06:39:38.172,-1.395,-0.595
2021-08-19 06:39:38.176,-1.38,-0.715
2021-08-19 06:39:38.180,-1.43,-0.66
2021-08-19 06:39:38.184,-1.465,-0.505
2021-08-19 06:39:38.188,-1.465,-0.335
2021-08-19 06:39:38.192,-1.43,-0.25
2021-08-19 06:39:38.196,-1.415,-0.275
2021-08-19 06:39:38.200,-1.47,-0.32
2021-08-19 06:39:38.204,-1.485,-0.36
2021-08-19 06:39:38.208,-1.465,-0.385
2021-08-19 06:39:38.212,-1.33,-0.4
2021-08-19 06:39:38.216,-1.19,-0.465
2021-08-19 06:39:38.220,-1.165,-0.56
2021-08-19 06:39:38.224,-1.36,-0.635
2021-08-19 06:39:38.228,-1.495,-0.71
2021-08-19 06:39:38.232,-1.505,-0.795
2021-08-19 06:39:38.236,-1.425,-0.895
2021-08-19 06:39:38.240,-1.34,-0.89
2021-08-19 06:39:38.244,-1.355,-0.78
2021-08-19 06:39:38.248,-1.355,-0.63
2021-08-19 06:39:38.252,-1.365,-0.45
2021-08-19 06:39:38.256,-1.445,-0.235
2021-08-19 06:39:38.260,-1.47,-0.105
2021-08-19 06:39:38.264,-1.365,-0.135
2021-08-19 06:39:38.268,-1.08,-0.305
2021-08-19 06:39:38.272,-0.81,-0.425
2021-08-19 06:39:38.276,-0.665,-0.475
2021-08-19 06:39:38.280,-0.815,-0.55
2021-08-19 06:39:38.284,-1.18,-0.595
2021-08-19 06:39:38.288,-1.575,-0.63
2021-08-19 06:39:38.292,-1.775,-0.525
2021-08-19 06:39:38.296,-1.8,-0.365
2021-08-19 06:39:38.300,-1.715,-0.275
2021-08-19 06:39:38.304,-1.675,-0.355
2021-08-19 06:39:38.308,-1.55,-0.495
2021-08-19 06:39:38.312,-1.385,-0.705
2021-08-19 06:39:38.316,-1.205,-0.84
2021-08-19 06:39:38.320,-1.13,-0.75
2021-08-19 06:39:38.324,-1.145,-0.48
2021-08-19 06:39:38.328,-1.225,-0.285
2021-08-19 06:39:38.332,-1.29,-0.23
2021-08-19 06:39:38.336,-1.24,-0.28
2021-08-19 06:39:38.340,-1.055,-0.4
2021-08-19 06:39:38.344,-0.915,-0.58
2021-08-19 06:39:38.348,-0.905,-0.755
2021-08-19 06:39:38.352,-0.945,-0.755
2021-08-19 06:39:38.356,-0.955,-0.535
2021-08-19 06:39:38.360,-0.92,-0.3
2021-08-19 06:39:38.364,-0.86,-0.25
2021-08-19 06:39:38.368,-0.76,-0.34
2021-08-19 06:39:38.372,-0.685,-0.53
2021-08-19 06:39:38.376,-0.68,-0.73
2021-08-19 06:39:38.380,-0.665,-0.76
2021-08-19 06:39:38.384,-0.685,-0.535
2021-08-19 06:39:38.388,-0.665,-0.23
2021-08-19 06:39:38.392,-0.665,-0.135
2021-08-19 06:39:38.396,-0.64,-0.2
2021-08-19 06:39:38.400,-0.58,-0.28
2021-08-19 06:39:38.404,-0.58,-0.365
2021-08-19 06:39:38.408,-0.565,-0.43
2021-08-19 06:39:38.412,-0.605,-0.47
2021-08-19 06:39:38.416,-0.62,-0.53
2021-08-19 06:39:38.420,-0.62,-0.59
2021-08-19 06:39:38.424,-0.63,-0.54
2021-08-19 06:39:38.428,-0.65,-0.435
2021-08-19 06:39:38.432,-0.64,-0.355
2021-08-19 06:39:38.436,-0.66,-0.3
2021-08-19 06:39:38.440,-0.67,-0.37
2021-08-19 06:39:38.444,-0.66,-0.44
2021-08-19 06:39:38.448,-0.64,-0.49
2021-08-19 06:39:38.452,-0.65,-0.465
2021-08-19 06:39:38.456,-0.715,-0.385
2021-08-19 06:39:38.460,-0.715,-0.285
2021-08-19 06:39:38.464,-0.725,-0.27
2021-08-19 06:39:38.468,-0.695,-0.32
2021-08-19 06:39:38.472,-0.675,-0.37
2021-08-19 06:39:38.476,-0.71,-0.365
2021-08-19 06:39:38.480,-0.705,-0.36
2021-08-19 06:39:38.484,-0.72,-0.365
2021-08-19 06:39:38.488,-0.705,-0.29
2021-08-19 06:39:38.492,-0.66,-0.2
2021-08-19 06:39:38.496,-0.645,-0.145
2021-08-19 06:39:38.500,-0.66,-0.105
2021-08-19 06:39:38.504,-0.68,-0.115
2021-08-19 06:39:38.508,-0.745,-0.09
2021-08-19 06:39:38.512,-0.725,-0.11
2021-08-19 06:39:38.516,-0.665,-0.08
2021-08-19 06:39:38.520,-0.62,-0.075
2021-08-19 06:39:38.524,-0.595,-0.1
2021-08-19 06:39:38.528,-0.615,-0.195
2021-08-19 06:39:38.532,-0.595,-0.335
2021-08-19 06:39:38.536,-0.6,-0.435
2021-08-19 06:39:38.540,-0.58,-0.385
2021-08-19 06:39:38.544,-0.585,-0.18
2021-08-19 06:39:38.548,-0.59,0.035
2021-08-19 06:39:38.552,-0.6,0.065
2021-08-19 06:39:38.556,-0.615,-0.04
2021-08-19 06:39:38.560,-0.615,-0.175
2021-08-19 06:39:38.564,-0.64,-0.225
2021-08-19 06:39:38.568,-0.655,-0.21
2021-08-19 06:39:38.572,-0.625,-0.225
2021-08-19 06:39:38.576,-0.625,-0.255
2021-08-19 06:39:38.580,-0.66,-0.32
2021-08-19 06:39:38.584,-0.675,-0.425
2021-08-19 06:39:38.588,-0.665,-0.4
2021-08-19 06:39:38.592,-0.64,-0.27
2021-08-19 06:39:38.596,-0.63,-0.12
2021-08-19 06:39:38.600,-0.65,-0.05
2021-08-19 06:39:38.604,-0.665,-0.05
2021-08-19 06:39:38.608,-0.65,-0.08
2021-08-19 06:39:38.612,-0.61,-0.19
2021-08-19 06:39:38.616,-0.615,-0.315
2021-08-19 06:39:38.620,-0.625,-0.365
2021-08-19 06:39:38.624,-0.635,-0.305
2021-08-19 06:39:38.628,-0.675,-0.21
2021-08-19 06:39:38.632,-0.68,-0.175
2021-08-19 06:39:38.636,-0.65,-0.2
2021-08-19 06:39:38.640,-0.67,-0.27
2021-08-19 06:39:38.644,-0.69,-0.345
2021-08-19 06:39:38.648,-0.675,-0.35
2021-08-19 06:39:38.652,-0.68,-0.32
2021-08-19 06:39:38.656,-0.685,-0.29
2021-08-19 06:39:38.660,-0.685,-0.295
2021-08-19 06:39:38.664,-0.68,-0.23
2021-08-19 06:39:38.668,-0.705,-0.115
2021-08-19 06:39:38.672,-0.72,-0.02
2021-08-19 06:39:38.676,-0.74,0.01
2021-08-19 06:39:38.680,-0.71,0.01
2021-08-19 06:39:38.684,-0.68,0.025
2021-08-19 06:39:38.688,-0.68,0.115
2021-08-19 06:39:38.692,-0.715,0.32
2021-08-19 06:39:38.696,-0.735,0.66
2021-08-19 06:39:38.700,-0.76,1.075
2021-08-19 06:39:38.704,-0.735,1.425
2021-08-19 06:39:38.708,-0.72,1.605
2021-08-19 06:39:38.712,-0.725,1.645
2021-08-19 06:39:38.716,-0.755,1.56
2021-08-19 06:39:38.720,-0.775,1.395
2021-08-19 06:39:38.724,-0.855,1.035
2021-08-19 06:39:38.728,-0.99,0.45
2021-08-19 06:39:38.732,-1.19,-0.025
2021-08-19 06:39:38.736,-1.465,-0.185
2021-08-19 06:39:38.740,-1.815,-0.135
2021-08-19 06:39:38.760,-1.89,-0.545
2021-08-19 06:39:38.764,-1.48,-0.475
2021-08-19 06:39:38.768,-1.185,-0.37
2021-08-19 06:39:38.772,-1.045,-0.285
2021-08-19 06:39:38.776,-1.035,-0.3
2021-08-19 06:39:38.780,-1.03,-0.35
2021-08-19 06:39:38.784,-1.03,-0.32
2021-08-19 06:39:38.788,-1.025,-0.245
2021-08-19 06:39:38.792,-0.985,-0.155
2021-08-19 06:39:38.796,-0.96,-0.14
2021-08-19 06:39:38.800,-0.89,-0.18
2021-08-19 06:39:38.804,-0.85,-0.26
2021-08-19 06:39:38.808,-0.81,-0.35
2021-08-19 06:39:38.812,-0.795,-0.36
2021-08-19 06:39:38.816,-0.775,-0.28
2021-08-19 06:39:38.820,-0.79,-0.16
2021-08-19 06:39:38.824,-0.765,-0.065
2021-08-19 06:39:38.828,-0.78,-0.04
2021-08-19 06:39:38.832,-0.79,-0.105
2021-08-19 06:39:38.836,-0.78,-0.17
2021-08-19 06:39:38.840,-0.77,-0.175
2021-08-19 06:39:38.844,-0.755,-0.15
2021-08-19 06:39:38.848,-0.745,-0.085
2021-08-19 06:39:38.852,-0.765,-0.075
2021-08-19 06:39:38.856,-0.755,-0.08
2021-08-19 06:39:38.860,-0.755,-0.135
2021-08-19 06:39:38.864,-0.74,-0.245
2021-08-19 06:39:38.868,-0.72,-0.3
2021-08-19 06:39:38.872,-0.735,-0.21
2021-08-19 06:39:38.876,-0.715,-0.07
2021-08-19 06:39:38.880,-0.71,0.04
2021-08-19 06:39:38.884,-0.725,0.06
2021-08-19 06:39:38.888,-0.74,-0.015
2021-08-19 06:39:38.892,-0.71,-0.16
2021-08-19 06:39:38.896,-0.695,-0.3
2021-08-19 06:39:38.900,-0.68,-0.375
2021-08-19 06:39:38.904,-0.69,-0.345
2021-08-19 06:39:38.908,-0.71,-0.27
2021-08-19 06:39:38.912,-0.71,-0.16
2021-08-19 06:39:38.916,-0.755,-0.06
2021-08-19 06:39:38.920,-0.745,-0.02
2021-08-19 06:39:38.924,-0.72,-0.02
2021-08-19 06:39:38.928,-0.695,-0.005
2021-08-19 06:39:38.932,-0.68,0.0
2021-08-19 06:39:38.936,-0.68,-0.095
2021-08-19 06:39:38.940,-0.7,-0.19
2021-08-19 06:39:38.944,-0.69,-0.245
2021-08-19 06:39:38.948,-0.67,-0.24
2021-08-19 06:39:38.952,-0.645,-0.215
2021-08-19 06:39:38.956,-0.64,-0.29
2021-08-19 06:39:38.960,-0.7,-0.31
2021-08-19 06:39:38.964,-0.72,-0.265
2021-08-19 06:39:38.968,-0.705,-0.125
2021-08-19 06:39:38.972,-0.675,0.04
2021-08-19 06:39:38.976,-0.69,0.085
2021-08-19 06:39:38.980,-0.71,0.035
2021-08-19 06:39:38.984,-0.745,-0.035
2021-08-19 06:39:38.988,-0.73,-0.1
2021-08-19 06:39:38.992,-0.71,-0.12
2021-08-19 06:39:38.996,-0.675,-0.125
2021-08-19 06:39:39.000,-0.655,-0.125
2021-08-19 06:39:39.004,-0.67,-0.14
2021-08-19 06:39:39.008,-0.69,-0.13
2021-08-19 06:39:39.012,-0.71,-0.025
2021-08-19 06:39:39.016,-0.72,0.105
2021-08-19 06:39:39.020,-0.715,0.2
2021-08-19 06:39:39.024,-0.665,0.2
2021-08-19 06:39:39.028,-0.67,0.15
2021-08-19 06:39:39.032,-0.66,0.05
2021-08-19 06:39:39.036,-0.69,0.04
2021-08-19 06:39:39.040,-0.685,0.04
2021-08-19 06:39:39.044,-0.685,0.08
2021-08-19 06:39:39.048,-0.675,0.04
2021-08-19 06:39:39.052,-0.65,-0.015
2021-08-19 06:39:39.056,-0.655,-0.025
2021-08-19 06:39:39.060,-0.71,0.085
2021-08-19 06:39:39.064,-0.745,0.215
2021-08-19 06:39:39.068,-0.73,0.28
2021-08-19 06:39:39.072,-0.695,0.285
2021-08-19 06:39:39.076,-0.65,0.25
2021-08-19 06:39:39.080,-0.655,0.115
2021-08-19 06:39:39.084,-0.625,0.005
2021-08-19 06:39:39.088,-0.63,-0.06
2021-08-19 06:39:39.092,-0.61,-0.045
2021-08-19 06:39:39.096,-0.64,0.04
2021-08-19 06:39:39.100,-0.64,0.125
2021-08-19 06:39:39.104,-0.635,0.125
2021-08-19 06:39:39.108,-0.64,0.08
2021-08-19 06:39:39.112,-0.655,0.015
2021-08-19 06:39:39.116,-0.645,0.0
2021-08-19 06:39:39.120,-0.65,0.03
2021-08-19 06:39:39.124,-0.62,0.1
2021-08-19 06:39:39.128,-0.605,0.175
2021-08-19 06:39:39.132,-0.585,0.225
2021-08-19 06:39:39.136,-0.58,0.215
2021-08-19 06:39:39.140,-0.55,0.15
2021-08-19 06:39:39.144,-0.54,0.105
2021-08-19 06:39:39.148,-0.57,0.085
2021-08-19 06:39:39.152,-0.605,0.06
2021-08-19 06:39:39.156,-0.585,0.035
2021-08-19 06:39:39.160,-0.555,0.0
2021-08-19 06:39:39.164,-0.55,-0.02
2021-08-19 06:39:39.168,-0.57,-0.04
2021-08-19 06:39:39.172,-0.56,0.045
2021-08-19 06:39:39.176,-0.56,0.17
2021-08-19 06:39:39.180,-0.545,0.265
2021-08-19 06:39:39.184,-0.535,0.295
2021-08-19 06:39:39.188,-0.53,0.265
2021-08-19 06:39:39.192,-0.52,0.19
2021-08-19 06:39:39.196,-0.515,0.115
2021-08-19 06:39:39.200,-0.55,0.03
2021-08-19 06:39:39.204,-0.55,-0.01
2021-08-19 06:39:39.208,-0.535,0.085
2021-08-19 06:39:39.212,-0.5,0.19
2021-08-19 06:39:39.216,-0.49,0.225
2021-08-19 06:39:39.220,-0.48,0.115
2021-08-19 06:39:39.224,-0.49,0.015
2021-08-19 06:39:39.228,-0.53,0.035
2021-08-19 06:39:39.232,-0.56,0.075
2021-08-19 06:39:39.236,-0.505,0.1
2021-08-19 06:39:39.240,-0.495,0.1
2021-08-19 06:39:39.244,-0.5,0.125
2021-08-19 06:39:39.248,-0.54,0.145
2021-08-19 06:39:39.252,-0.535,0.185
2021-08-19 06:39:39.256,-0.51,0.165
2021-08-19 06:39:39.260,-0.505,0.115
2021-08-19 06:39:39.264,-0.495,0.04
2021-08-19 06:39:39.268,-0.5,0.025
2021-08-19 06:39:39.272,-0.49,0.02
2021-08-19 06:39:39.276,-0.51,0.025
2021-08-19 06:39:39.280,-0.49,0.015
2021-08-19 06:39:39.284,-0.48,0.02
2021-08-19 06:39:39.288,-0.47,0.04
2021-08-19 06:39:39.292,-0.49,0.07
2021-08-19 06:39:39.296,-0.455,0.1
2021-08-19 06:39:39.300,-0.46,0.145
2021-08-19 06:39:39.304,-0.485,0.115
2021-08-19 06:39:39.308,-0.51,0.065
2021-08-19 06:39:39.312,-0.495,0.05
2021-08-19 06:39:39.316,-0.485,0.085
2021-08-19 06:39:39.320,-0.475,0.06
2021-08-19 06:39:39.324,-0.435,0.05
2021-08-19 06:39:39.328,-0.42,0.075
2021-08-19 06:39:39.332,-0.42,0.085
2021-08-19 06:39:39.336,-0.45,0.09
2021-08-19 06:39:39.340,-0.455,0.045
2021-08-19 06:39:39.344,-0.455,0.03
2021-08-19 06:39:39.348,-0.46,0.04
2021-08-19 06:39:39.352,-0.46,0.09
2021-08-19 06:39:39.356,-0.42,0.11
2021-08-19 06:39:39.360,-0.395,0.145
2021-08-19 06:39:39.364,-0.355,0.155
2021-08-19 06:39:39.368,-0.365,0.115
2021-08-19 06:39:39.372,-0.435,0.05
2021-08-19 06:39:39.376,-0.46,-0.025
2021-08-19 06:39:39.380,-0.465,-0.065
2021-08-19 06:39:39.384,-0.415,-0.02
2021-08-19 06:39:39.388,-0.4,0.11
2021-08-19 06:39:39.392,-0.375,0.19
2021-08-19 06:39:39.396,-0.365,0.215
2021-08-19 06:39:39.400,-0.415,0.19
2021-08-19 06:39:39.404,-0.41,0.1
2021-08-19 06:39:39.408,-0.405,-0.02
2021-08-19 06:39:39.412,-0.36,-0.07
2021-08-19 06:39:39.416,-0.335,0.01
2021-08-19 06:39:39.420,-0.35,0.165
2021-08-19 06:39:39.424,-0.365,0.285
2021-08-19 06:39:39.428,-0.35,0.355
2021-08-19 06:39:39.432,-0.365,0.36
2021-08-19 06:39:39.436,-0.355,0.28
2021-08-19 06:39:39.440,-0.39,0.22
2021-08-19 06:39:39.444,-0.38,0.18
2021-08-19 06:39:39.448,-0.35,0.225
2021-08-19 06:39:39.452,-0.315,0.275
2021-08-19 06:39:39.456,-0.315,0.34
2021-08-19 06:39:39.460,-0.235,0.36
2021-08-19 06:39:39.464,-0.24,0.355
2021-08-19 06:39:39.468,-0.255,0.325
2021-08-19 06:39:39.472,-0.3,0.285
2021-08-19 06:39:39.476,-0.29,0.24
2021-08-19 06:39:39.480,-0.3,0.16
2021-08-19 06:39:39.484,-0.295,0.115
2021-08-19 06:39:39.488,-0.295,0.105
2021-08-19 06:39:39.492,-0.29,0.105
2021-08-19 06:39:39.496,-0.32,0.085
2021-08-19 06:39:39.500,-0.365,0.095
2021-08-19 06:39:39.504,-0.405,0.115
2021-08-19 06:39:39.508,-0.42,0.075
2021-08-19 06:39:39.512,-0.41,0.06
2021-08-19 06:39:39.516,-0.395,0.15
2021-08-19 06:39:39.520,-0.37,0.21
2021-08-19 06:39:39.524,-0.36,0.24
2021-08-19 06:39:39.528,-0.32,0.22
2021-08-19 06:39:39.532,-0.335,0.19
2021-08-19 06:39:39.536,-0.35,0.15
2021-08-19 06:39:39.540,-0.37,0.1
2021-08-19 06:39:39.544,-0.35,0.065
2021-08-19 06:39:39.548,-0.31,0.03
2021-08-19 06:39:39.552,-0.29,-0.04
2021-08-19 06:39:39.556,-0.295,-0.065
2021-08-19 06:39:39.560,-0.3,-0.02
2021-08-19 06:39:39.564,-0.25,0.05
2021-08-19 06:39:39.568,-0.25,0.11
2021-08-19 06:39:39.572,-0.26,0.09
2021-08-19 06:39:39.576,-0.28,0.015
2021-08-19 06:39:39.580,-0.265,-0.025
2021-08-19 06:39:39.584,-0.295,-0.06
2021-08-19 06:39:39.588,-0.285,-0.05
2021-08-19 06:39:39.592,-0.3,0.03
2021-08-19 06:39:39.596,-0.305,0.08
2021-08-19 06:39:39.600,-0.255,0.205
2021-08-19 06:39:39.604,-0.255,0.225
2021-08-19 06:39:39.608,-0.245,0.215
2021-08-19 06:39:39.612,-0.255,0.245
2021-08-19 06:39:39.616,-0.28,0.345
2021-08-19 06:39:39.620,-0.27,0.57
2021-08-19 06:39:39.624,-0.225,0.895
2021-08-19 06:39:39.628,-0.21,1.22
2021-08-19 06:39:39.632,-0.165,1.525
2021-08-19 06:39:39.636,-0.18,1.69
2021-08-19 06:39:39.640,-0.205,1.72
2021-08-19 06:39:39.644,-0.28,1.63
2021-08-19 06:39:39.648,-0.26,1.4
2021-08-19 06:39:39.652,-0.31,1.015
2021-08-19 06:39:39.656,-0.355,0.495
2021-08-19 06:39:39.660,-0.48,0.035
2021-08-19 06:39:39.664,-0.7,-0.18
2021-08-19 06:39:39.668,-0.98,-0.135
2021-08-19 06:39:39.672,-1.275,-0.065
2021-08-19 06:39:39.676,-1.47,-0.16
2021-08-19 06:39:39.680,-1.585,-0.32
2021-08-19 06:39:39.684,-1.56,-0.375
2021-08-19 06:39:39.688,-1.3,-0.43
2021-08-19 06:39:39.692,-0.91,-0.515
2021-08-19 06:39:39.696,-0.555,-0.55
2021-08-19 06:39:39.700,-0.38,-0.41
2021-08-19 06:39:39.704,-0.32,-0.115
2021-08-19 06:39:39.708,-0.33,0.105
2021-08-19 06:39:39.712,-0.315,0.17
2021-08-19 06:39:39.716,-0.29,0.14
2021-08-19 06:39:39.720,-0.275,0.0
2021-08-19 06:39:39.724,-0.28,-0.1
2021-08-19 06:39:39.728,-0.265,-0.135
2021-08-19 06:39:39.732,-0.205,-0.11
2021-08-19 06:39:39.736,-0.13,-0.09
2021-08-19 06:39:39.740,-0.085,-0.06
2021-08-19 06:39:39.744,-0.095,-0.05
2021-08-19 06:39:39.748,-0.125,-0.05
2021-08-19 06:39:39.752,-0.145,-0.075
2021-08-19 06:39:39.756,-0.15,-0.115
2021-08-19 06:39:39.760,-0.115,-0.1
2021-08-19 06:39:39.764,-0.08,-0.045
2021-08-19 06:39:39.768,-0.09,0.035
2021-08-19 06:39:39.772,-0.09,0.08
2021-08-19 06:39:39.776,-0.075,0.1
2021-08-19 06:39:39.780,-0.09,0.105
2021-08-19 06:39:39.784,-0.07,0.015
2021-08-19 06:39:39.788,-0.07,-0.045
2021-08-19 06:39:39.792,-0.065,-0.025
2021-08-19 06:39:39.796,-0.05,-0.03
2021-08-19 06:39:39.800,-0.01,-0.025
2021-08-19 06:39:39.804,-0.04,-0.005
2021-08-19 06:39:39.808,-0.05,0.0
2021-08-19 06:39:39.812,-0.08,0.005
2021-08-19 06:39:39.816,-0.08,0.0
2021-08-19 06:39:39.820,-0.07,0.0
2021-08-19 06:39:39.824,-0.05,0.0
2021-08-19 06:39:39.828,-0.02,0.005
2021-08-19 06:39:39.832,0.005,-0.045
2021-08-19 06:39:39.836,-0.03,-0.185
2021-08-19 06:39:39.840,-0.085,-0.27
2021-08-19 06:39:39.844,-0.095,-0.24
2021-08-19 06:39:39.848,-0.08,-0.07
2021-08-19 06:39:39.852,-0.07,0.08
2021-08-19 06:39:39.856,-0.045,0.17
2021-08-19 06:39:39.860,-0.02,0.145
2021-08-19 06:39:39.864,-0.04,0.065
2021-08-19 06:39:39.868,-0.045,-0.02
2021-08-19 06:39:39.872,-0.075,-0.095
2021-08-19 06:39:39.876,-0.065,-0.13
2021-08-19 06:39:39.880,-0.075,-0.135
2021-08-19 06:39:39.884,-0.05,-0.09
2021-08-19 06:39:39.888,-0.06,-0.02
2021-08-19 06:39:39.892,-0.055,0.04
2021-08-19 06:39:39.896,-0.04,0.06
2021-08-19 06:39:39.900,-0.03,0.035
2021-08-19 06:39:39.904,-0.02,-0.015
2021-08-19 06:39:39.908,-0.06,-0.05
2021-08-19 06:39:39.912,-0.095,-0.09
2021-08-19 06:39:39.916,-0.08,-0.16
2021-08-19 06:39:39.920,-0.065,-0.225
2021-08-19 06:39:39.924,-0.055,-0.19
2021-08-19 06:39:39.928,-0.025,-0.1
2021-08-19 06:39:39.932,-0.005,0.0
2021-08-19 06:39:39.936,0.0,0.065
2021-08-19 06:39:39.940,-0.015,0.135
2021-08-19 06:39:39.944,-0.09,0.15
2021-08-19 06:39:39.948,-0.115,0.11
2021-08-19 06:39:39.952,-0.115,0.06
2021-08-19 06:39:39.956,-0.095,0.02
2021-08-19 06:39:39.960,-0.08,0.06
2021-08-19 06:39:39.964,-0.085,0.13
2021-08-19 06:39:39.968,-0.095,0.21
2021-08-19 06:39:39.972,-0.06,0.255
2021-08-19 06:39:39.976,-0.07,0.255
2021-08-19 06:39:39.980,-0.05,0.21
2021-08-19 06:39:39.984,-0.065,0.145
2021-08-19 06:39:39.988,-0.08,0.1
2021-08-19 06:39:39.992,-0.12,0.105
2021-08-19 06:39:39.996,-0.09,0.125
2021-08-19 06:39:40.000,-0.065,0.11
2021-08-19 06:39:40.004,-0.06,0.045
2021-08-19 06:39:40.008,-0.07,0.0
2021-08-19 06:39:40.012,-0.085,0.04
2021-08-19 06:39:40.016,-0.075,0.13
2021-08-19 06:39:40.020,-0.05,0.245
2021-08-19 06:39:40.024,-0.015,0.295
2021-08-19 06:39:40.028,-0.01,0.235
2021-08-19 06:39:40.032,0.0,0.09
2021-08-19 06:39:40.036,-0.06,-0.09
2021-08-19 06:39:40.040,-0.035,-0.1
2021-08-19 06:39:40.044,-0.025,0.1
2021-08-19 06:39:40.048,-0.02,0.27
2021-08-19 06:39:40.052,0.015,0.305
2021-08-19 06:39:40.056,0.035,0.25
2021-08-19 06:39:40.060,0.02,0.18
2021-08-19 06:39:40.064,-0.02,0.135
2021-08-19 06:39:40.068,-0.04,0.12
2021-08-19 06:39:40.072,-0.015,0.13
2021-08-19 06:39:40.076,0.015,0.12
2021-08-19 06:39:40.080,0.01,0.075
2021-08-19 06:39:40.084,0.04,-0.03
2021-08-19 06:39:40.088,0.04,-0.125
2021-08-19 06:39:40.092,0.06,-0.075
2021-08-19 06:39:40.096,0.03,0.055
2021-08-19 06:39:40.100,0.04,0.2
2021-08-19 06:39:40.104,0.035,0.25
2021-08-19 06:39:40.108,0.055,0.27
2021-08-19 06:39:40.112,0.06,0.255
2021-08-19 06:39:40.116,0.035,0.155
2021-08-19 06:39:40.120,0.015,0.09
2021-08-19 06:39:40.124,0.02,0.08
2021-08-19 06:39:40.128,0.035,0.155
2021-08-19 06:39:40.132,0.065,0.22
2021-08-19 06:39:40.136,0.05,0.175
2021-08-19 06:39:40.140,0.085,0.105
2021-08-19 06:39:40.144,0.09,0.02
2021-08-19 06:39:40.148,0.08,-0.01
2021-08-19 06:39:40.152,0.04,0.065
2021-08-19 06:39:40.156,0.025,0.14
2021-08-19 06:39:40.160,0.035,0.195
2021-08-19 06:39:40.164,0.05,0.215
2021-08-19 06:39:40.168,0.045,0.12
2021-08-19 06:39:40.172,0.065,0.05
2021-08-19 06:39:40.176,0.065,0.045
2021-08-19 06:39:40.180,0.065,0.07
2021-08-19 06:39:40.184,0.115,0.095
2021-08-19 06:39:40.188,0.135,0.01
2021-08-19 06:39:40.192,0.09,-0.02
2021-08-19 06:39:40.196,0.06,0.04
2021-08-19 06:39:40.200,0.03,0.2
2021-08-19 06:39:40.204,0.05,0.33
2021-08-19 06:39:40.208,0.08,0.35
2021-08-19 06:39:40.212,0.115,0.245
2021-08-19 06:39:40.216,0.085,0.075
2021-08-19 06:39:40.220,0.07,-0.06
2021-08-19 06:39:40.224,0.08,-0.055
2021-08-19 06:39:40.228,0.08,-0.03
2021-08-19 06:39:40.232,0.095,-0.07
2021-08-19 06:39:40.236,0.115,-0.055
2021-08-19 06:39:40.240,0.1,0.015
2021-08-19 06:39:40.244,0.085,0.105
2021-08-19 06:39:40.248,0.07,0.145
2021-08-19 06:39:40.252,0.095,0.16
2021-08-19 06:39:40.256,0.145,0.17
2021-08-19 06:39:40.260,0.115,0.115
2021-08-19 06:39:40.264,0.105,-0.04
2021-08-19 06:39:40.268,0.055,-0.17
2021-08-19 06:39:40.272,0.06,-0.135
2021-08-19 06:39:40.276,0.06,0.02
2021-08-19 06:39:40.280,0.095,0.215
2021-08-19 06:39:40.284,0.115,0.2
2021-08-19 06:39:40.288,0.11,0.045
2021-08-19 06:39:40.292,0.075,-0.16
2021-08-19 06:39:40.296,0.085,-0.295
2021-08-19 06:39:40.300,0.095,-0.265
2021-08-19 06:39:40.304,0.115,-0.1
2021-08-19 06:39:40.308,0.175,0.09
2021-08-19 06:39:40.312,0.14,0.22
2021-08-19 06:39:40.316,0.13,0.26
2021-08-19 06:39:40.320,0.105,0.24
2021-08-19 06:39:40.324,0.075,0.12
2021-08-19 06:39:40.328,0.095,-0.08
2021-08-19 06:39:40.332,0.1,-0.265
2021-08-19 06:39:40.336,0.095,-0.295
2021-08-19 06:39:40.340,0.1,-0.11
2021-08-19 06:39:40.344,0.14,0.155
2021-08-19 06:39:40.348,0.17,0.315
2021-08-19 06:39:40.352,0.145,0.255
2021-08-19 06:39:40.356,0.08,0.055
2021-08-19 06:39:40.360,0.04,-0.015
2021-08-19 06:39:40.364,0.03,-0.015
2021-08-19 06:39:40.368,0.105,0.04
2021-08-19 06:39:40.372,0.17,0.06
2021-08-19 06:39:40.376,0.145,0.065
2021-08-19 06:39:40.380,0.095,0.015
2021-08-19 06:39:40.384,0.055,-0.06
2021-08-19 06:39:40.388,0.09,-0.05
2021-08-19 06:39:40.392,0.125,0.015
2021-08-19 06:39:40.396,0.14,0.065
2021-08-19 06:39:40.400,0.15,0.03
2021-08-19 06:39:40.404,0.125,-0.015
2021-08-19 06:39:40.408,0.125,0.035
2021-08-19 06:39:40.412,0.125,0.07
2021-08-19 06:39:40.416,0.155,-0.005
2021-08-19 06:39:40.420,0.17,-0.035
2021-08-19 06:39:40.424,0.125,0.105
2021-08-19 06:39:40.428,0.11,0.315
2021-08-19 06:39:40.432,0.14,0.435
2021-08-19 06:39:40.436,0.22,0.37
2021-08-19 06:39:40.440,0.25,0.16
2021-08-19 06:39:40.444,0.21,-0.07
2021-08-19 06:39:40.448,0.185,-0.15
2021-08-19 06:39:40.452,0.175,-0.015
2021-08-19 06:39:40.456,0.23,0.125
2021-08-19 06:39:40.460,0.225,0.19
2021-08-19 06:39:40.464,0.195,0.155
2021-08-19 06:39:40.468,0.135,0.125
2021-08-19 06:39:40.472,0.08,0.095
2021-08-19 06:39:40.476,0.075,0.03
2021-08-19 06:39:40.480,0.07,-0.12
2021-08-19 06:39:40.484,0.095,-0.225
2021-08-19 06:39:40.488,0.125,-0.175
2021-08-19 06:39:40.492,0.125,-0.03
2021-08-19 06:39:40.496,0.095,0.135
2021-08-19 06:39:40.500,0.11,0.17
2021-08-19 06:39:40.504,0.11,0.015
2021-08-19 06:39:40.508,0.13,-0.2
2021-08-19 06:39:40.512,0.145,-0.23
2021-08-19 06:39:40.516,0.125,-0.11
2021-08-19 06:39:40.520,0.155,-0.015
2021-08-19 06:39:40.524,0.15,-0.01
2021-08-19 06:39:40.528,0.145,-0.03
2021-08-19 06:39:40.532,0.155,-0.005
2021-08-19 06:39:40.536,0.145,0.03
2021-08-19 06:39:40.540,0.18,0.05
2021-08-19 06:39:40.544,0.215,0.02
2021-08-19 06:39:40.548,0.22,-0.095
2021-08-19 06:39:40.552,0.22,-0.205
2021-08-19 06:39:40.556,0.205,-0.25
2021-08-19 06:39:40.560,0.215,-0.19
2021-08-19 06:39:40.564,0.22,-0.085
2021-08-19 06:39:40.568,0.245,-0.02
2021-08-19 06:39:40.572,0.195,0.015
2021-08-19 06:39:40.576,0.175,0.0
2021-08-19 06:39:40.580,0.155,-0.02
2021-08-19 06:39:40.584,0.165,0.02
2021-08-19 06:39:40.588,0.185,0.04
2021-08-19 06:39:40.592,0.21,-0.02
2021-08-19 06:39:40.596,0.235,-0.075
2021-08-19 06:39:40.600,0.225,0.085
2021-08-19 06:39:40.604,0.23,0.39
2021-08-19 06:39:40.608,0.235,0.75
2021-08-19 06:39:40.612,0.27,1.095
2021-08-19 06:39:40.616,0.285,1.32
2021-08-19 06:39:40.620,0.225,1.35
2021-08-19 06:39:40.624,0.18,1.215
2021-08-19 06:39:40.628,0.185,1.075
2021-08-19 06:39:40.632,0.17,0.94
2021-08-19 06:39:40.636,0.135,0.635
2021-08-19 06:39:40.640,0.015,0.155
2021-08-19 06:39:40.644,-0.195,-0.19
2021-08-19 06:39:40.648,-0.495,-0.28
2021-08-19 06:39:40.652,-0.775,-0.2
2021-08-19 06:39:40.656,-0.96,-0.215
2021-08-19 06:39:40.660,-1.06,-0.335
2021-08-19 06:39:40.664,-1.055,-0.465
2021-08-19 06:39:40.668,-0.875,-0.59
2021-08-19 06:39:40.672,-0.525,-0.63
2021-08-19 06:39:40.676,-0.14,-0.605
2021-08-19 06:39:40.680,0.105,-0.54
2021-08-19 06:39:40.684,0.165,-0.53
2021-08-19 06:39:40.688,0.12,-0.6
2021-08-19 06:39:40.692,0.145,-0.685
2021-08-19 06:39:40.696,0.165,-0.545
2021-08-19 06:39:40.700,0.2,-0.235
2021-08-19 06:39:40.704,0.205,0.0
2021-08-19 06:39:40.708,0.245,-0.075
2021-08-19 06:39:40.712,0.265,-0.235
2021-08-19 06:39:40.716,0.295,-0.36
2021-08-19 06:39:40.720,0.3,-0.33
2021-08-19 06:39:40.724,0.31,-0.295
2021-08-19 06:39:40.728,0.35,-0.34
2021-08-19 06:39:40.732,0.36,-0.44
2021-08-19 06:39:40.736,0.365,-0.46
2021-08-19 06:39:40.740,0.33,-0.42
2021-08-19 06:39:40.744,0.335,-0.39
2021-08-19 06:39:40.748,0.39,-0.36
2021-08-19 06:39:40.752,0.415,-0.285
2021-08-19 06:39:40.756,0.385,-0.21
2021-08-19 06:39:40.760,0.345,-0.17
2021-08-19 06:39:40.764,0.325,-0.15
2021-08-19 06:39:40.768,0.345,-0.16
2021-08-19 06:39:40.772,0.35,-0.26
2021-08-19 06:39:40.776,0.37,-0.435
2021-08-19 06:39:40.780,0.39,-0.62
2021-08-19 06:39:40.784,0.345,-0.665
2021-08-19 06:39:40.788,0.345,-0.545
2021-08-19 06:39:40.792,0.395,-0.34
2021-08-19 06:39:40.796,0.415,-0.165
2021-08-19 06:39:40.800,0.395,-0.16
2021-08-19 06:39:40.804,0.365,-0.275
2021-08-19 06:39:40.808,0.325,-0.395
2021-08-19 06:39:40.812,0.34,-0.505
2021-08-19 06:39:40.816,0.355,-0.405
2021-08-19 06:39:40.820,0.39,-0.22
2021-08-19 06:39:40.824,0.395,-0.16
2021-08-19 06:39:40.828,0.415,-0.23
2021-08-19 06:39:40.832,0.37,-0.315
2021-08-19 06:39:40.836,0.35,-0.36
2021-08-19 06:39:40.840,0.325,-0.34
2021-08-19 06:39:40.844,0.36,-0.38
2021-08-19 06:39:40.848,0.345,-0.42
2021-08-19 06:39:40.852,0.355,-0.505
2021-08-19 06:39:40.856,0.33,-0.64
2021-08-19 06:39:40.860,0.345,-0.585
2021-08-19 06:39:40.864,0.335,-0.43
2021-08-19 06:39:40.868,0.345,-0.315
2021-08-19 06:39:40.872,0.335,-0.34
2021-08-19 06:39:40.876,0.355,-0.395
2021-08-19 06:39:40.880,0.34,-0.37
2021-08-19 06:39:40.884,0.35,-0.355
2021-08-19 06:39:40.888,0.33,-0.34
2021-08-19 06:39:40.892,0.315,-0.385
2021-08-19 06:39:40.896,0.31,-0.455
2021-08-19 06:39:40.900,0.3,-0.5
2021-08-19 06:39:40.904,0.31,-0.525
2021-08-19 06:39:40.908,0.33,-0.545
2021-08-19 06:39:40.912,0.33,-0.555
2021-08-19 06:39:40.916,0.325,-0.46
2021-08-19 06:39:40.920,0.305,-0.29
2021-08-19 06:39:40.924,0.28,-0.16
2021-08-19 06:39:40.928,0.295,-0.195
2021-08-19 06:39:40.932,0.295,-0.265
2021-08-19 06:39:40.936,0.315,-0.32
2021-08-19 06:39:40.940,0.315,-0.38
2021-08-19 06:39:40.944,0.3,-0.35
2021-08-19 06:39:40.948,0.28,-0.31
2021-08-19 06:39:40.952,0.26,-0.23
2021-08-19 06:39:40.956,0.26,-0.145
2021-08-19 06:39:40.960,0.25,-0.055
2021-08-19 06:39:40.964,0.245,-0.06
2021-08-19 06:39:40.968,0.215,-0.125
2021-08-19 06:39:40.972,0.24,-0.15
2021-08-19 06:39:40.976,0.26,-0.185
2021-08-19 06:39:40.980,0.295,-0.205
2021-08-19 06:39:40.984,0.27,-0.19
2021-08-19 06:39:40.988,0.24,-0.185
2021-08-19 06:39:40.992,0.26,-0.195
2021-08-19 06:39:40.996,0.255,-0.245
2021-08-19 06:39:41.000,0.255,-0.305
2021-08-19 06:39:41.004,0.27,-0.375
2021-08-19 06:39:41.008,0.25,-0.365
2021-08-19 06:39:41.012,0.28,-0.27
2021-08-19 06:39:41.016,0.285,-0.175
2021-08-19 06:39:41.020,0.3,-0.105
2021-08-19 06:39:41.024,0.28,-0.105
2021-08-19 06:39:41.028,0.25,-0.105
2021-08-19 06:39:41.032,0.235,-0.105
2021-08-19 06:39:41.036,0.25,-0.135
2021-08-19 06:39:41.040,0.28,-0.16
2021-08-19 06:39:41.044,0.275,-0.215
2021-08-19 06:39:41.048,0.28,-0.275
2021-08-19 06:39:41.052,0.275,-0.305
2021-08-19 06:39:41.056,0.28,-0.27
2021-08-19 06:39:41.060,0.28,-0.19
2021-08-19 06:39:41.064,0.29,-0.15
2021-08-19 06:39:41.068,0.265,-0.13
2021-08-19 06:39:41.072,0.275,-0.165
2021-08-19 06:39:41.076,0.28,-0.215
2021-08-19 06:39:41.080,0.27,-0.23
2021-08-19 06:39:41.084,0.26,-0.24
2021-08-19 06:39:41.088,0.28,-0.22
2021-08-19 06:39:41.092,0.29,-0.175
2021-08-19 06:39:41.096,0.285,-0.11
2021-08-19 06:39:41.100,0.31,-0.09
2021-08-19 06:39:41.104,0.31,-0.115
2021-08-19 06:39:41.108,0.28,-0.14
2021-08-19 06:39:41.112,0.27,-0.16
2021-08-19 06:39:41.116,0.27,-0.13
2021-08-19 06:39:41.120,0.3,-0.135
2021-08-19 06:39:41.124,0.285,-0.13
2021-08-19 06:39:41.128,0.295,-0.18
2021-08-19 06:39:41.132,0.285,-0.21
2021-08-19 06:39:41.136,0.28,-0.21
2021-08-19 06:39:41.140,0.275,-0.205
2021-08-19 06:39:41.144,0.285,-0.175
2021-08-19 06:39:41.148,0.295,-0.16
2021-08-19 06:39:41.152,0.305,-0.16
2021-08-19 06:39:41.156,0.315,-0.2
2021-08-19 06:39:41.160,0.29,-0.225
2021-08-19 06:39:41.164,0.3,-0.2
2021-08-19 06:39:41.168,0.295,-0.175
2021-08-19 06:39:41.172,0.275,-0.165
2021-08-19 06:39:41.176,0.29,-0.205
2021-08-19 06:39:41.180,0.295,-0.245
2021-08-19 06:39:41.184,0.275,-0.27
2021-08-19 06:39:41.188,0.31,-0.25
2021-08-19 06:39:41.192,0.3,-0.19
2021-08-19 06:39:41.196,0.305,-0.085
2021-08-19 06:39:41.200,0.295,-0.075
2021-08-19 06:39:41.204,0.285,-0.075
2021-08-19 06:39:41.208,0.315,-0.08
2021-08-19 06:39:41.212,0.37,-0.1
2021-08-19 06:39:41.216,0.365,-0.14
2021-08-19 06:39:41.220,0.335,-0.205
2021-08-19 06:39:41.224,0.29,-0.255
2021-08-19 06:39:41.228,0.275,-0.24
2021-08-19 06:39:41.232,0.255,-0.17
2021-08-19 06:39:41.236,0.235,-0.16
2021-08-19 06:39:41.240,0.225,-0.145
2021-08-19 06:39:41.244,0.27,-0.155
2021-08-19 06:39:41.248,0.29,-0.22
2021-08-19 06:39:41.252,0.295,-0.285
2021-08-19 06:39:41.256,0.29,-0.285
2021-08-19 06:39:41.260,0.28,-0.25
2021-08-19 06:39:41.264,0.275,-0.19
2021-08-19 06:39:41.268,0.24,-0.135
2021-08-19 06:39:41.272,0.27,-0.135
2021-08-19 06:39:41.276,0.27,-0.15
2021-08-19 06:39:41.280,0.26,-0.155
2021-08-19 06:39:41.284,0.285,-0.15
2021-08-19 06:39:41.288,0.235,-0.21
2021-08-19 06:39:41.292,0.26,-0.29
2021-08-19 06:39:41.296,0.27,-0.36
2021-08-19 06:39:41.300,0.28,-0.36
2021-08-19 06:39:41.304,0.245,-0.32
2021-08-19 06:39:41.308,0.25,-0.245
2021-08-19 06:39:41.312,0.23,-0.19
2021-08-19 06:39:41.316,0.225,-0.115
2021-08-19 06:39:41.320,0.23,-0.115
2021-08-19 06:39:41.324,0.225,-0.15
2021-08-19 06:39:41.328,0.24,-0.19
2021-08-19 06:39:41.332,0.21,-0.25
2021-08-19 06:39:41.336,0.225,-0.24
2021-08-19 06:39:41.340,0.24,-0.22
2021-08-19 06:39:41.344,0.275,-0.175
2021-08-19 06:39:41.348,0.25,-0.16
2021-08-19 06:39:41.352,0.25,-0.155
2021-08-19 06:39:41.356,0.25,-0.105
2021-08-19 06:39:41.360,0.24,-0.1
2021-08-19 06:39:41.364,0.26,-0.095
2021-08-19 06:39:41.368,0.275,-0.165
2021-08-19 06:39:41.372,0.27,-0.18
2021-08-19 06:39:41.376,0.29,-0.13
2021-08-19 06:39:41.380,0.29,-0.08
2021-08-19 06:39:41.384,0.32,-0.075
2021-08-19 06:39:41.388,0.32,-0.06
2021-08-19 06:39:41.392,0.34,-0.02
2021-08-19 06:39:41.396,0.32,-0.02
2021-08-19 06:39:41.400,0.34,-0.02
2021-08-19 06:39:41.404,0.33,-0.04
2021-08-19 06:39:41.408,0.31,-0.05
2021-08-19 06:39:41.412,0.285,-0.085
2021-08-19 06:39:41.416,0.265,-0.185
2021-08-19 06:39:41.420,0.255,-0.225
2021-08-19 06:39:41.424,0.215,-0.245
2021-08-19 06:39:41.428,0.205,-0.235
2021-08-19 06:39:41.432,0.16,-0.225
2021-08-19 06:39:41.436,0.15,-0.2
2021-08-19 06:39:41.440,0.165,-0.165
2021-08-19 06:39:41.444,0.19,-0.145
2021-08-19 06:39:41.448,0.2,-0.2
2021-08-19 06:39:41.452,0.2,-0.285
2021-08-19 06:39:41.456,0.2,-0.34
2021-08-19 06:39:41.460,0.22,-0.33
2021-08-19 06:39:41.464,0.225,-0.27
2021-08-19 06:39:41.468,0.22,-0.17
2021-08-19 06:39:41.472,0.21,-0.16
2021-08-19 06:39:41.476,0.215,-0.16
2021-08-19 06:39:41.480,0.24,-0.205
2021-08-19 06:39:41.484,0.27,-0.205
2021-08-19 06:39:41.488,0.28,-0.235
2021-08-19 06:39:41.492,0.25,-0.305
2021-08-19 06:39:41.496,0.23,-0.37
2021-08-19 06:39:41.500,0.225,-0.425
2021-08-19 06:39:41.504,0.25,-0.41
2021-08-19 06:39:41.508,0.23,-0.335
2021-08-19 06:39:41.512,0.255,-0.21
2021-08-19 06:39:41.516,0.24,-0.16
2021-08-19 06:39:41.520,0.23,-0.15
2021-08-19 06:39:41.524,0.21,-0.18
2021-08-19 06:39:41.528,0.215,-0.18
2021-08-19 06:39:41.532,0.22,-0.11
2021-08-19 06:39:41.536,0.23,-0.07
2021-08-19 06:39:41.540,0.24,0.04
2021-08-19 06:39:41.544,0.235,0.23
2021-08-19 06:39:41.548,0.24,0.575
2021-08-19 06:39:41.552,0.26,0.925
2021-08-19 06:39:41.556,0.295,1.18
2021-08-19 06:39:41.560,0.305,1.3
2021-08-19 06:39:41.564,0.27,1.37
2021-08-19 06:39:41.568,0.205,1.37
2021-08-19 06:39:41.572,0.17,1.175
2021-08-19 06:39:41.576,0.155,0.715
2021-08-19 06:39:41.580,0.09,0.1
2021-08-19 06:39:41.584,-0.055,-0.405
2021-08-19 06:39:41.588,-0.32,-0.52
2021-08-19 06:39:41.592,-0.645,-0.415
2021-08-19 06:39:41.596,-0.885,-0.39
2021-08-19 06:39:41.600,-1.04,-0.515
2021-08-19 06:39:41.604,-1.11,-0.595
2021-08-19 06:39:41.608,-0.96,-0.65
2021-08-19 06:39:41.612,-0.62,-0.66
2021-08-19 06:39:41.616,-0.22,-0.695
2021-08-19 06:39:41.620,0.05,-0.685
2021-08-19 06:39:41.624,0.115,-0.65
2021-08-19 06:39:41.628,0.125,-0.555
2021-08-19 06:39:41.632,0.13,-0.46
2021-08-19 06:39:41.636,0.115,-0.39
2021-08-19 06:39:41.640,0.11,-0.31
2021-08-19 06:39:41.644,0.14,-0.3
2021-08-19 06:39:41.648,0.155,-0.255
2021-08-19 06:39:41.652,0.19,-0.255
2021-08-19 06:39:41.656,0.25,-0.28
2021-08-19 06:39:41.660,0.24,-0.32
2021-08-19 06:39:41.664,0.295,-0.36
2021-08-19 06:39:41.668,0.36,-0.4
2021-08-19 06:39:41.672,0.395,-0.44
2021-08-19 06:39:41.676,0.325,-0.505
2021-08-19 06:39:41.680,0.265,-0.485
2021-08-19 06:39:41.684,0.24,-0.395
2021-08-19 06:39:41.688,0.215,-0.305
2021-08-19 06:39:41.692,0.255,-0.29
2021-08-19 06:39:41.696,0.25,-0.28
2021-08-19 06:39:41.700,0.265,-0.305
2021-08-19 06:39:41.704,0.28,-0.32
2021-08-19 06:39:41.708,0.29,-0.35
2021-08-19 06:39:41.712,0.3,-0.355
2021-08-19 06:39:41.716,0.295,-0.38
2021-08-19 06:39:41.720,0.3,-0.375
2021-08-19 06:39:41.724,0.32,-0.335
2021-08-19 06:39:41.728,0.315,-0.335
2021-08-19 06:39:41.732,0.285,-0.37
2021-08-19 06:39:41.736,0.295,-0.4
2021-08-19 06:39:41.740,0.31,-0.39
2021-08-19 06:39:41.744,0.315,-0.285
2021-08-19 06:39:41.748,0.32,-0.17
2021-08-19 06:39:41.752,0.33,-0.09
2021-08-19 06:39:41.756,0.335,-0.085
2021-08-19 06:39:41.760,0.325,-0.045
2021-08-19 06:39:41.764,0.34,-0.02
2021-08-19 06:39:41.768,0.375,-0.045
2021-08-19 06:39:41.772,0.385,-0.09
2021-08-19 06:39:41.776,0.425,-0.155
2021-08-19 06:39:41.780,0.445,-0.215
2021-08-19 06:39:41.784,0.4,-0.23
2021-08-19 06:39:41.788,0.35,-0.24
2021-08-19 06:39:41.792,0.355,-0.19
2021-08-19 06:39:41.796,0.365,-0.145
2021-08-19 06:39:41.800,0.365,-0.125
2021-08-19 06:39:41.804,0.375,-0.165
2021-08-19 06:39:41.808,0.38,-0.26
2021-08-19 06:39:41.812,0.41,-0.325
2021-08-19 06:39:41.816,0.415,-0.39
2021-08-19 06:39:41.820,0.43,-0.45
2021-08-19 06:39:41.824,0.43,-0.52
2021-08-19 06:39:41.828,0.4,-0.53
2021-08-19 06:39:41.832,0.39,-0.48
2021-08-19 06:39:41.836,0.375,-0.415
2021-08-19 06:39:41.840,0.37,-0.37
2021-08-19 06:39:41.844,0.36,-0.36
2021-08-19 06:39:41.848,0.35,-0.34
2021-08-19 06:39:41.852,0.315,-0.325
2021-08-19 06:39:41.856,0.265,-0.29
2021-08-19 06:39:41.860,0.255,-0.27
