Time,ECG1,ECG2
2021-08-19 01:08:32.000,0.19,-0.29
2021-08-19 01:08:32.000,0.205,-0.29
2021-08-19 01:08:32.000,0.19,-0.29
2021-08-19 01:08:32.000,0.195,-0.295
2021-08-19 01:08:33.000,0.205,-0.3
2021-08-19 01:08:33.000,0.21,-0.29
2021-08-19 01:08:33.000,0.185,-0.31
2021-08-19 01:08:33.000,0.21,-0.31
2021-08-19 01:08:34.000,0.195,-0.29
2021-08-19 01:08:34.000,0.18,-0.31
2021-08-19 01:08:34.000,0.19,-0.31
2021-08-19 01:08:34.000,0.195,-0.325
2021-08-19 01:08:35.000,0.225,-0.32
2021-08-19 01:08:35.000,0.205,-0.32
2021-08-19 01:08:35.000,0.21,-0.32
2021-08-19 01:08:35.000,0.18,-0.33
2021-08-19 01:08:36.000,0.18,-0.35
2021-08-19 01:08:36.000,0.195,-0.33
2021-08-19 01:08:36.000,0.195,-0.35
2021-08-19 01:08:36.000,0.17,-0.355
2021-08-19 01:08:36.000,0.19,-0.39
2021-08-19 01:08:37.000,0.185,-0.375
2021-08-19 01:08:37.000,0.17,-0.365
2021-08-19 01:08:37.000,0.185,-0.375
2021-08-19 01:08:37.000,0.175,-0.36
2021-08-19 01:08:38.000,0.175,-0.38
2021-08-19 01:08:38.000,0.17,-0.355
2021-08-19 01:08:38.000,0.165,-0.365
2021-08-19 01:08:38.000,0.17,-0.375
2021-08-19 01:08:39.000,0.165,-0.365
2021-08-19 01:08:39.000,0.18,-0.36
2021-08-19 01:08:39.000,0.15,-0.37
2021-08-19 01:08:39.000,0.175,-0.38
2021-08-19 01:08:40.000,0.185,-0.355
2021-08-19 01:08:40.000,0.155,-0.36
2021-08-19 01:08:40.000,0.165,-0.355
2021-08-19 01:08:40.000,0.15,-0.35
2021-08-19 01:08:41.000,0.14,-0.34
2021-08-19 01:08:41.000,0.145,-0.325
2021-08-19 01:08:41.000,0.135,-0.34
2021-08-19 01:08:41.000,0.135,-0.33
2021-08-19 01:08:42.000,0.135,-0.32
2021-08-19 01:08:42.000,0.13,-0.295
2021-08-19 01:08:42.000,0.15,-0.305
2021-08-19 01:08:42.000,0.155,-0.29
2021-08-19 01:08:42.000,0.13,-0.27
2021-08-19 01:08:43.000,0.12,-0.24
2021-08-19 01:08:43.000,0.125,-0.22
2021-08-19 01:08:43.000,0.125,-0.2
2021-08-19 01:08:43.000,0.1,-0.19
2021-08-19 01:08:44.000,0.105,-0.17
2021-08-19 01:08:44.000,0.095,-0.155
2021-08-19 01:08:44.000,0.115,-0.15
2021-08-19 01:08:44.000,0.08,-0.14
2021-08-19 01:08:45.000,0.105,-0.155
2021-08-19 01:08:45.000,0.085,-0.13
2021-08-19 01:08:45.000,0.07,-0.115
2021-08-19 01:08:45.000,0.065,-0.115
2021-08-19 01:08:46.000,0.075,-0.13
2021-08-19 01:08:46.000,0.07,-0.115
2021-08-19 01:08:46.000,0.06,-0.095
2021-08-19 01:08:46.000,0.06,-0.095
2021-08-19 01:08:47.000,0.06,-0.1
2021-08-19 01:08:47.000,0.075,-0.1
2021-08-19 01:08:47.000,0.075,-0.08
2021-08-19 01:08:47.000,0.07,-0.09
2021-08-19 01:08:48.000,0.075,-0.095
2021-08-19 01:08:48.000,0.08,-0.105
2021-08-19 01:08:48.000,0.08,-0.11
2021-08-19 01:08:48.000,0.065,-0.1
2021-08-19 01:08:48.000,0.045,-0.1
2021-08-19 01:08:49.000,0.05,-0.12
2021-08-19 01:08:49.000,0.04,-0.12
2021-08-19 01:08:49.000,0.09,-0.125
2021-08-19 01:08:49.000,0.055,-0.115
2021-08-19 01:08:50.000,0.075,-0.12
2021-08-19 01:08:50.000,0.075,-0.115
2021-08-19 01:08:50.000,0.065,-0.125
2021-08-19 01:08:50.000,0.07,-0.13
2021-08-19 01:08:51.000,0.075,-0.15
2021-08-19 01:08:51.000,0.075,-0.13
2021-08-19 01:08:51.000,0.075,-0.125
2021-08-19 01:08:51.000,0.085,-0.125
2021-08-19 01:08:52.000,0.075,-0.125
2021-08-19 01:08:52.000,0.075,-0.15
2021-08-19 01:08:52.000,0.08,-0.145
2021-08-19 01:08:52.000,0.09,-0.155
2021-08-19 01:08:53.000,0.085,-0.145
2021-08-19 01:08:53.000,0.085,-0.155
2021-08-19 01:08:53.000,0.06,-0.14
2021-08-19 01:08:53.000,0.085,-0.13
2021-08-19 01:08:54.000,0.07,-0.13
2021-08-19 01:08:54.000,0.095,-0.14
2021-08-19 01:08:54.000,0.08,-0.155
2021-08-19 01:08:54.000,0.07,-0.16
2021-08-19 01:08:54.000,0.09,-0.175
2021-08-19 01:08:55.000,0.095,-0.15
2021-08-19 01:08:55.000,0.095,-0.16
2021-08-19 01:08:55.000,0.065,-0.17
2021-08-19 01:08:55.000,0.075,-0.15
2021-08-19 01:08:56.000,0.065,-0.15
2021-08-19 01:08:56.000,0.085,-0.18
2021-08-19 01:08:56.000,0.075,-0.18
2021-08-19 01:08:56.000,0.065,-0.2
2021-08-19 01:08:57.000,0.06,-0.195
2021-08-19 01:08:57.000,0.075,-0.185
2021-08-19 01:08:57.000,0.05,-0.185
2021-08-19 01:08:57.000,0.055,-0.175
2021-08-19 01:08:58.000,0.045,-0.175
2021-08-19 01:08:58.000,0.05,-0.185
2021-08-19 01:08:58.000,0.07,-0.185
2021-08-19 01:08:58.000,0.04,-0.17
2021-08-19 01:08:59.000,0.02,-0.19
2021-08-19 01:08:59.000,0.05,-0.17
2021-08-19 01:08:59.000,0.045,-0.18
2021-08-19 01:08:59.000,0.03,-0.165
2021-08-19 01:09:00.000,0.045,-0.18
2021-08-19 01:09:00.000,0.035,-0.18
2021-08-19 01:09:00.000,0.035,-0.19
2021-08-19 01:09:00.000,0.025,-0.185
2021-08-19 01:09:00.000,0.03,-0.195
2021-08-19 01:09:01.000,0.015,-0.205
2021-08-19 01:09:01.000,0.01,-0.19
2021-08-19 01:09:01.000,0.015,-0.18
2021-08-19 01:09:01.000,0.03,-0.185
2021-08-19 01:09:02.000,0.035,-0.195
2021-08-19 01:09:02.000,0.04,-0.185
2021-08-19 01:09:02.000,0.04,-0.175
2021-08-19 01:09:02.000,0.035,-0.18
2021-08-19 01:09:03.000,0.04,-0.18
2021-08-19 01:09:03.000,0.03,-0.195
2021-08-19 01:09:03.000,0.02,-0.175
2021-08-19 01:09:03.000,0.035,-0.18
2021-08-19 01:09:04.000,0.03,-0.185
2021-08-19 01:09:04.000,0.045,-0.18
2021-08-19 01:09:04.000,0.015,-0.185
2021-08-19 01:09:04.000,0.025,-0.175
2021-08-19 01:09:05.000,0.025,-0.18
2021-08-19 01:09:05.000,0.05,-0.19
2021-08-19 01:09:05.000,0.035,-0.16
2021-08-19 01:09:05.000,0.01,-0.175
2021-08-19 01:09:06.000,0.035,-0.17
2021-08-19 01:09:06.000,0.035,-0.15
2021-08-19 01:09:06.000,0.025,-0.135
2021-08-19 01:09:06.000,0.01,-0.105
2021-08-19 01:09:06.000,0.035,-0.055
2021-08-19 01:09:07.000,0.02,-0.045
2021-08-19 01:09:07.000,0.035,-0.025
2021-08-19 01:09:07.000,0.025,-0.01
2021-08-19 01:09:07.000,0.03,-0.015
2021-08-19 01:09:08.000,0.06,0.0
2021-08-19 01:09:08.000,0.07,0.005
2021-08-19 01:09:08.000,0.095,-0.01
2021-08-19 01:09:08.000,0.075,-0.03
2021-08-19 01:09:09.000,0.125,-0.02
2021-08-19 01:09:09.000,0.125,-0.015
2021-08-19 01:09:09.000,0.14,0.0
2021-08-19 01:09:09.000,0.11,-0.005
2021-08-19 01:09:10.000,0.1,0.0
2021-08-19 01:09:10.000,0.08,0.0
2021-08-19 01:09:10.000,0.055,-0.06
2021-08-19 01:09:10.000,0.045,-0.115
2021-08-19 01:09:11.000,0.025,-0.14
2021-08-19 01:09:11.000,-0.01,-0.135
2021-08-19 01:09:11.000,0.0,-0.12
2021-08-19 01:09:11.000,-0.025,-0.115
2021-08-19 01:09:12.000,-0.05,-0.1
2021-08-19 01:09:12.000,-0.04,-0.1
2021-08-19 01:09:12.000,-0.055,-0.095
2021-08-19 01:09:12.000,-0.04,-0.12
2021-08-19 01:09:12.000,-0.05,-0.105
2021-08-19 01:09:13.000,-0.03,-0.145
2021-08-19 01:09:13.000,-0.02,-0.14
2021-08-19 01:09:13.000,-0.01,-0.165
2021-08-19 01:09:13.000,0.0,-0.18
2021-08-19 01:09:14.000,0.0,-0.205
2021-08-19 01:09:14.000,0.005,-0.2
2021-08-19 01:09:14.000,0.005,-0.19
2021-08-19 01:09:14.000,0.035,-0.215
2021-08-19 01:09:15.000,0.045,-0.165
2021-08-19 01:09:15.000,0.055,-0.2
2021-08-19 01:09:15.000,0.06,-0.165
2021-08-19 01:09:15.000,0.065,-0.185
2021-08-19 01:09:16.000,0.05,-0.175
2021-08-19 01:09:16.000,0.065,-0.17
2021-08-19 01:09:16.000,0.04,-0.17
2021-08-19 01:09:16.000,0.055,-0.18
2021-08-19 01:09:17.000,0.06,-0.195
2021-08-19 01:09:17.000,0.055,-0.16
2021-08-19 01:09:17.000,0.06,-0.16
2021-08-19 01:09:17.000,0.055,-0.155
2021-08-19 01:09:18.000,0.05,-0.17
2021-08-19 01:09:18.000,0.065,-0.11
2021-08-19 01:09:18.000,0.05,-0.095
2021-08-19 01:09:18.000,0.045,-0.06
2021-08-19 01:09:18.000,0.04,-0.06
2021-08-19 01:09:19.000,0.05,-0.015
2021-08-19 01:09:19.000,0.03,0.09
2021-08-19 01:09:19.000,0.055,0.32
2021-08-19 01:09:19.000,0.045,0.56
2021-08-19 01:09:20.000,0.1,0.72
2021-08-19 01:09:20.000,0.1,0.83
2021-08-19 01:09:20.000,0.085,0.885
2021-08-19 01:09:20.000,0.025,0.855
2021-08-19 01:09:21.000,-0.005,0.74
2021-08-19 01:09:21.000,-0.06,0.51
2021-08-19 01:09:21.000,-0.16,0.24
2021-08-19 01:09:21.000,-0.37,0.085
2021-08-19 01:09:22.000,-0.69,0.175
2021-08-19 01:09:22.000,-1.02,0.32
2021-08-19 01:09:22.000,-1.3,0.28
2021-08-19 01:09:22.000,-1.425,0.005
2021-08-19 01:09:23.000,-1.455,-0.27
2021-08-19 01:09:23.000,-1.285,-0.485
2021-08-19 01:09:23.000,-0.895,-0.545
2021-08-19 01:09:23.000,-0.45,-0.55
2021-08-19 01:09:24.000,-0.135,-0.485
2021-08-19 01:09:24.000,-0.035,-0.355
2021-08-19 01:09:24.000,-0.06,-0.29
2021-08-19 01:09:24.000,-0.075,-0.275
2021-08-19 01:09:24.000,-0.075,-0.28
2021-08-19 01:09:25.000,-0.075,-0.27
2021-08-19 01:09:25.000,-0.03,-0.275
2021-08-19 01:09:25.000,0.01,-0.275
2021-08-19 01:09:25.000,0.045,-0.255
2021-08-19 01:09:26.000,0.1,-0.275
2021-08-19 01:09:26.000,0.14,-0.265
2021-08-19 01:09:26.000,0.135,-0.26
2021-08-19 01:09:26.000,0.12,-0.265
2021-08-19 01:09:27.000,0.145,-0.265
2021-08-19 01:09:27.000,0.135,-0.26
2021-08-19 01:09:27.000,0.145,-0.245
2021-08-19 01:09:27.000,0.17,-0.255
2021-08-19 01:09:28.000,0.165,-0.265
2021-08-19 01:09:28.000,0.175,-0.25
2021-08-19 01:09:28.000,0.17,-0.255
2021-08-19 01:09:28.000,0.17,-0.24
2021-08-19 01:09:29.000,0.17,-0.245
2021-08-19 01:09:29.000,0.15,-0.25
2021-08-19 01:09:29.000,0.18,-0.24
2021-08-19 01:09:29.000,0.17,-0.265
2021-08-19 01:09:30.000,0.18,-0.265
2021-08-19 01:09:30.000,0.155,-0.265
2021-08-19 01:09:30.000,0.175,-0.265
2021-08-19 01:09:30.000,0.17,-0.255
2021-08-19 01:09:30.000,0.17,-0.26
2021-08-19 01:09:31.000,0.175,-0.275
2021-08-19 01:09:31.000,0.17,-0.265
2021-08-19 01:09:31.000,0.15,-0.265
2021-08-19 01:09:31.000,0.15,-0.265
2021-08-19 01:09:32.000,0.165,-0.27
2021-08-19 01:09:32.000,0.18,-0.29
2021-08-19 01:09:32.000,0.15,-0.28
2021-08-19 01:09:32.000,0.16,-0.305
2021-08-19 01:09:33.000,0.155,-0.305
2021-08-19 01:09:33.000,0.155,-0.285
2021-08-19 01:09:33.000,0.165,-0.295
2021-08-19 01:09:33.000,0.15,-0.305
2021-08-19 01:09:34.000,0.155,-0.29
2021-08-19 01:09:34.000,0.145,-0.305
2021-08-19 01:09:34.000,0.16,-0.3
2021-08-19 01:09:34.000,0.145,-0.295
2021-08-19 01:09:35.000,0.155,-0.3
2021-08-19 01:09:35.000,0.15,-0.32
2021-08-19 01:09:35.000,0.115,-0.31
2021-08-19 01:09:35.000,0.145,-0.3
2021-08-19 01:09:36.000,0.125,-0.3
2021-08-19 01:09:36.000,0.125,-0.275
2021-08-19 01:09:36.000,0.135,-0.275
2021-08-19 01:09:36.000,0.145,-0.255
2021-08-19 01:09:36.000,0.14,-0.27
2021-08-19 01:09:37.000,0.125,-0.24
2021-08-19 01:09:37.000,0.125,-0.24
2021-08-19 01:09:37.000,0.11,-0.215
2021-08-19 01:09:37.000,0.115,-0.2
2021-08-19 01:09:38.000,0.095,-0.195
2021-08-19 01:09:38.000,0.095,-0.17
2021-08-19 01:09:38.000,0.105,-0.145
2021-08-19 01:09:38.000,0.08,-0.125
2021-08-19 01:09:39.000,0.075,-0.125
2021-08-19 01:09:39.000,0.07,-0.13
2021-08-19 01:09:39.000,0.07,-0.1
2021-08-19 01:09:39.000,0.02,-0.095
2021-08-19 01:09:40.000,0.05,-0.095
2021-08-19 01:09:40.000,0.025,-0.09
2021-08-19 01:09:40.000,0.04,-0.085
2021-08-19 01:09:40.000,0.03,-0.06
2021-08-19 01:09:41.000,0.03,-0.09
2021-08-19 01:09:41.000,0.02,-0.08
2021-08-19 01:09:41.000,0.04,-0.08
2021-08-19 01:09:41.000,0.03,-0.08
2021-08-19 01:09:42.000,0.02,-0.09
2021-08-19 01:09:42.000,0.005,-0.09
2021-08-19 01:09:42.000,0.015,-0.075
2021-08-19 01:09:42.000,0.005,-0.09
2021-08-19 01:09:42.000,0.025,-0.08
2021-08-19 01:09:43.000,0.05,-0.095
2021-08-19 01:09:43.000,0.03,-0.095
2021-08-19 01:09:43.000,0.01,-0.105
2021-08-19 01:09:43.000,0.02,-0.1
2021-08-19 01:09:44.000,0.04,-0.1
2021-08-19 01:09:44.000,0.03,-0.11
2021-08-19 01:09:44.000,0.02,-0.1
2021-08-19 01:09:44.000,0.025,-0.125
2021-08-19 01:09:45.000,0.025,-0.11
2021-08-19 01:09:45.000,0.03,-0.115
2021-08-19 01:09:45.000,0.035,-0.12
2021-08-19 01:09:45.000,0.04,-0.11
2021-08-19 01:09:46.000,0.02,-0.125
2021-08-19 01:09:46.000,0.035,-0.13
2021-08-19 01:09:46.000,0.02,-0.12
2021-08-19 01:09:46.000,0.015,-0.13
2021-08-19 01:09:47.000,0.035,-0.135
2021-08-19 01:09:47.000,0.02,-0.145
2021-08-19 01:09:47.000,0.025,-0.14
2021-08-19 01:09:47.000,0.015,-0.135
2021-08-19 01:09:48.000,0.05,-0.13
2021-08-19 01:09:48.000,0.035,-0.135
2021-08-19 01:09:48.000,0.02,-0.125
2021-08-19 01:09:48.000,0.035,-0.13
2021-08-19 01:09:48.000,0.045,-0.135
2021-08-19 01:09:49.000,0.035,-0.14
2021-08-19 01:09:49.000,0.0,-0.135
2021-08-19 01:09:49.000,0.015,-0.14
2021-08-19 01:09:49.000,0.005,-0.135
2021-08-19 01:09:50.000,0.04,-0.145
2021-08-19 01:09:50.000,0.03,-0.135
2021-08-19 01:09:50.000,0.005,-0.135
2021-08-19 01:09:50.000,0.005,-0.14
2021-08-19 01:09:51.000,0.01,-0.145
2021-08-19 01:09:51.000,0.005,-0.125
2021-08-19 01:09:51.000,0.015,-0.145
2021-08-19 01:09:51.000,0.005,-0.145
2021-08-19 01:09:52.000,0.0,-0.14
2021-08-19 01:09:52.000,0.015,-0.11
2021-08-19 01:09:52.000,0.005,-0.145
2021-08-19 01:09:52.000,0.0,-0.115
2021-08-19 01:09:53.000,-0.035,-0.13
2021-08-19 01:09:53.000,0.0,-0.12
2021-08-19 01:09:53.000,0.005,-0.13
2021-08-19 01:09:53.000,-0.005,-0.14
2021-08-19 01:09:54.000,0.005,-0.135
2021-08-19 01:09:54.000,0.0,-0.11
2021-08-19 01:09:54.000,0.015,-0.125
2021-08-19 01:09:54.000,0.0,-0.115
2021-08-19 01:09:54.000,0.005,-0.12
2021-08-19 01:09:55.000,-0.005,-0.12
2021-08-19 01:09:55.000,-0.01,-0.11
2021-08-19 01:09:55.000,0.005,-0.135
2021-08-19 01:09:55.000,0.0,-0.135
2021-08-19 01:09:56.000,0.01,-0.125
2021-08-19 01:09:56.000,-0.005,-0.13
2021-08-19 01:09:56.000,-0.01,-0.125
2021-08-19 01:09:56.000,-0.005,-0.145
2021-08-19 01:09:57.000,0.005,-0.1
2021-08-19 01:09:57.000,-0.02,-0.11
2021-08-19 01:09:57.000,0.0,-0.11
2021-08-19 01:09:57.000,0.005,-0.09
2021-08-19 01:09:58.000,-0.005,-0.09
2021-08-19 01:09:58.000,0.005,-0.11
2021-08-19 01:09:58.000,0.0,-0.105
2021-08-19 01:09:58.000,0.0,-0.105
2021-08-19 01:09:59.000,0.01,-0.115
2021-08-19 01:09:59.000,0.015,-0.09
2021-08-19 01:09:59.000,0.0,-0.08
2021-08-19 01:09:59.000,0.0,-0.065
2021-08-19 01:10:00.000,0.02,-0.04
2021-08-19 01:10:00.000,-0.005,-0.01
2021-08-19 01:10:00.000,0.0,0.035
2021-08-19 01:10:00.000,0.02,0.04
2021-08-19 01:10:00.000,0.015,0.045
2021-08-19 01:10:01.000,0.035,0.055
2021-08-19 01:10:01.000,0.06,0.045
2021-08-19 01:10:01.000,0.06,0.065
2021-08-19 01:10:01.000,0.095,0.04
2021-08-19 01:10:02.000,0.11,0.05
2021-08-19 01:10:02.000,0.125,0.035
2021-08-19 01:10:02.000,0.125,0.055
2021-08-19 01:10:02.000,0.105,0.055
2021-08-19 01:10:03.000,0.1,0.07
2021-08-19 01:10:03.000,0.085,0.04
2021-08-19 01:10:03.000,0.06,0.025
2021-08-19 01:10:03.000,0.035,-0.03
2021-08-19 01:10:04.000,0.035,-0.07
2021-08-19 01:10:04.000,0.015,-0.075
2021-08-19 01:10:04.000,-0.01,-0.07
2021-08-19 01:10:04.000,-0.035,-0.04
2021-08-19 01:10:05.000,-0.03,-0.01
2021-08-19 01:10:05.000,-0.065,-0.035
2021-08-19 01:10:05.000,-0.065,-0.045
2021-08-19 01:10:05.000,-0.04,-0.03
2021-08-19 01:10:06.000,-0.05,-0.045
2021-08-19 01:10:06.000,-0.055,-0.065
2021-08-19 01:10:06.000,-0.03,-0.075
2021-08-19 01:10:06.000,0.0,-0.1
2021-08-19 01:10:06.000,-0.035,-0.12
2021-08-19 01:10:07.000,-0.025,-0.14
2021-08-19 01:10:07.000,-0.005,-0.13
2021-08-19 01:10:07.000,0.0,-0.13
2021-08-19 01:10:07.000,0.035,-0.12
2021-08-19 01:10:08.000,0.05,-0.135
2021-08-19 01:10:08.000,0.035,-0.125
2021-08-19 01:10:08.000,0.035,-0.13
2021-08-19 01:10:08.000,0.045,-0.12
2021-08-19 01:10:09.000,0.03,-0.115
2021-08-19 01:10:09.000,0.035,-0.12
2021-08-19 01:10:09.000,0.05,-0.115
2021-08-19 01:10:09.000,0.015,-0.11
2021-08-19 01:10:10.000,0.015,-0.115
2021-08-19 01:10:10.000,0.025,-0.115
2021-08-19 01:10:10.000,0.02,-0.105
2021-08-19 01:10:10.000,0.025,-0.09
2021-08-19 01:10:11.000,0.025,-0.06
2021-08-19 01:10:11.000,0.04,-0.01
2021-08-19 01:10:11.000,0.04,0.0
2021-08-19 01:10:11.000,0.03,0.02
2021-08-19 01:10:12.000,0.02,0.08
2021-08-19 01:10:12.000,0.02,0.25
2021-08-19 01:10:12.000,0.025,0.505
2021-08-19 01:10:12.000,0.05,0.7
2021-08-19 01:10:12.000,0.09,0.835
2021-08-19 01:10:13.000,0.065,0.88
2021-08-19 01:10:13.000,0.015,0.855
2021-08-19 01:10:13.000,-0.04,0.765
2021-08-19 01:10:13.000,-0.045,0.575
2021-08-19 01:10:14.000,-0.17,0.295
2021-08-19 01:10:14.000,-0.36,0.12
2021-08-19 01:10:14.000,-0.64,0.205
2021-08-19 01:10:14.000,-0.995,0.37
2021-08-19 01:10:15.000,-1.28,0.33
2021-08-19 01:10:15.000,-1.45,0.065
2021-08-19 01:10:15.000,-1.475,-0.2
2021-08-19 01:10:15.000,-1.31,-0.44
2021-08-19 01:10:16.000,-0.91,-0.53
2021-08-19 01:10:16.000,-0.47,-0.505
2021-08-19 01:10:16.000,-0.125,-0.4
2021-08-19 01:10:16.000,-0.05,-0.28
2021-08-19 01:10:17.000,-0.085,-0.235
2021-08-19 01:10:17.000,-0.075,-0.225
2021-08-19 01:10:17.000,-0.095,-0.205
2021-08-19 01:10:17.000,-0.075,-0.225
2021-08-19 01:10:18.000,-0.055,-0.23
2021-08-19 01:10:18.000,0.0,-0.23
2021-08-19 01:10:18.000,0.07,-0.215
2021-08-19 01:10:18.000,0.11,-0.21
2021-08-19 01:10:18.000,0.135,-0.225
2021-08-19 01:10:19.000,0.15,-0.21
2021-08-19 01:10:19.000,0.14,-0.21
2021-08-19 01:10:19.000,0.14,-0.215
2021-08-19 01:10:19.000,0.13,-0.21
2021-08-19 01:10:20.000,0.145,-0.2
2021-08-19 01:10:20.000,0.15,-0.22
2021-08-19 01:10:20.000,0.165,-0.22
2021-08-19 01:10:20.000,0.16,-0.215
2021-08-19 01:10:21.000,0.175,-0.22
2021-08-19 01:10:21.000,0.16,-0.22
2021-08-19 01:10:21.000,0.18,-0.215
2021-08-19 01:10:21.000,0.155,-0.2
2021-08-19 01:10:22.000,0.15,-0.215
2021-08-19 01:10:22.000,0.16,-0.23
2021-08-19 01:10:22.000,0.15,-0.21
2021-08-19 01:10:22.000,0.18,-0.22
2021-08-19 01:10:23.000,0.165,-0.215
2021-08-19 01:10:23.000,0.155,-0.23
2021-08-19 01:10:23.000,0.19,-0.235
2021-08-19 01:10:23.000,0.165,-0.23
2021-08-19 01:10:24.000,0.155,-0.26
2021-08-19 01:10:24.000,0.16,-0.245
2021-08-19 01:10:24.000,0.13,-0.24
2021-08-19 01:10:24.000,0.145,-0.25
2021-08-19 01:10:24.000,0.155,-0.265
2021-08-19 01:10:25.000,0.145,-0.245
2021-08-19 01:10:25.000,0.145,-0.255
2021-08-19 01:10:25.000,0.155,-0.24
2021-08-19 01:10:25.000,0.135,-0.255
2021-08-19 01:10:26.000,0.14,-0.275
2021-08-19 01:10:26.000,0.135,-0.28
2021-08-19 01:10:26.000,0.15,-0.29
2021-08-19 01:10:26.000,0.14,-0.29
2021-08-19 01:10:27.000,0.125,-0.3
2021-08-19 01:10:27.000,0.12,-0.28
2021-08-19 01:10:27.000,0.13,-0.28
2021-08-19 01:10:27.000,0.13,-0.295
2021-08-19 01:10:28.000,0.145,-0.28
2021-08-19 01:10:28.000,0.175,-0.265
2021-08-19 01:10:28.000,0.135,-0.26
2021-08-19 01:10:28.000,0.14,-0.225
2021-08-19 01:10:29.000,0.12,-0.23
2021-08-19 01:10:29.000,0.11,-0.205
2021-08-19 01:10:29.000,0.14,-0.2
2021-08-19 01:10:29.000,0.1,-0.185
2021-08-19 01:10:30.000,0.11,-0.175
2021-08-19 01:10:30.000,0.1,-0.165
2021-08-19 01:10:30.000,0.095,-0.145
2021-08-19 01:10:30.000,0.075,-0.12
2021-08-19 01:10:30.000,0.08,-0.1
2021-08-19 01:10:31.000,0.07,-0.105
2021-08-19 01:10:31.000,0.05,-0.105
2021-08-19 01:10:31.000,0.04,-0.115
2021-08-19 01:10:31.000,0.035,-0.105
2021-08-19 01:10:32.000,0.035,-0.075
2021-08-19 01:10:32.000,0.04,-0.075
2021-08-19 01:10:32.000,0.025,-0.065
2021-08-19 01:10:32.000,0.005,-0.07
2021-08-19 01:10:33.000,0.015,-0.06
2021-08-19 01:10:33.000,0.025,-0.085
2021-08-19 01:10:33.000,0.01,-0.09
2021-08-19 01:10:33.000,0.03,-0.08
2021-08-19 01:10:34.000,0.02,-0.085
2021-08-19 01:10:34.000,0.025,-0.07
2021-08-19 01:10:34.000,0.015,-0.075
2021-08-19 01:10:34.000,0.035,-0.08
2021-08-19 01:10:35.000,0.045,-0.08
2021-08-19 01:10:35.000,0.04,-0.08
2021-08-19 01:10:35.000,0.045,-0.085
2021-08-19 01:10:35.000,0.06,-0.085
2021-08-19 01:10:36.000,0.025,-0.075
2021-08-19 01:10:36.000,0.025,-0.07
2021-08-19 01:10:36.000,0.04,-0.095
2021-08-19 01:10:36.000,0.025,-0.09
2021-08-19 01:10:36.000,0.03,-0.085
2021-08-19 01:10:37.000,0.03,-0.085
2021-08-19 01:10:37.000,0.03,-0.09
2021-08-19 01:10:37.000,0.03,-0.095
2021-08-19 01:10:37.000,0.035,-0.095
2021-08-19 01:10:38.000,0.06,-0.115
2021-08-19 01:10:38.000,0.03,-0.09
2021-08-19 01:10:38.000,0.03,-0.125
2021-08-19 01:10:38.000,0.055,-0.12
2021-08-19 01:10:39.000,0.065,-0.115
2021-08-19 01:10:39.000,0.03,-0.12
2021-08-19 01:10:39.000,0.04,-0.11
2021-08-19 01:10:39.000,0.055,-0.1
2021-08-19 01:10:40.000,0.06,-0.095
2021-08-19 01:10:40.000,0.04,-0.09
2021-08-19 01:10:40.000,0.055,-0.1
2021-08-19 01:10:40.000,0.045,-0.12
2021-08-19 01:10:41.000,0.045,-0.11
2021-08-19 01:10:41.000,0.03,-0.135
2021-08-19 01:10:41.000,0.04,-0.1
2021-08-19 01:10:41.000,0.03,-0.09
2021-08-19 01:10:42.000,0.025,-0.11
2021-08-19 01:10:42.000,0.02,-0.12
2021-08-19 01:10:42.000,0.02,-0.12
2021-08-19 01:10:42.000,0.015,-0.125
2021-08-19 01:10:42.000,0.03,-0.13
2021-08-19 01:10:43.000,0.025,-0.115
2021-08-19 01:10:43.000,0.02,-0.125
2021-08-19 01:10:43.000,0.03,-0.13
2021-08-19 01:10:43.000,0.02,-0.125
2021-08-19 01:10:44.000,-0.01,-0.135
2021-08-19 01:10:44.000,0.0,-0.14
2021-08-19 01:10:44.000,-0.01,-0.14
2021-08-19 01:10:44.000,-0.005,-0.13
2021-08-19 01:10:45.000,-0.01,-0.12
2021-08-19 01:10:45.000,0.01,-0.13
2021-08-19 01:10:45.000,-0.01,-0.14
2021-08-19 01:10:45.000,0.005,-0.145
2021-08-19 01:10:46.000,0.005,-0.155
2021-08-19 01:10:46.000,-0.005,-0.14
2021-08-19 01:10:46.000,0.0,-0.155
2021-08-19 01:10:46.000,0.0,-0.15
2021-08-19 01:10:47.000,-0.005,-0.18
2021-08-19 01:10:47.000,0.0,-0.155
2021-08-19 01:10:47.000,-0.015,-0.16
2021-08-19 01:10:47.000,-0.015,-0.14
2021-08-19 01:10:48.000,-0.01,-0.15
2021-08-19 01:10:48.000,-0.02,-0.135
2021-08-19 01:10:48.000,-0.01,-0.14
2021-08-19 01:10:48.000,-0.01,-0.15
2021-08-19 01:10:48.000,-0.035,-0.155
2021-08-19 01:10:49.000,-0.015,-0.17
2021-08-19 01:10:49.000,-0.025,-0.15
2021-08-19 01:10:49.000,-0.025,-0.14
2021-08-19 01:10:49.000,-0.02,-0.12
2021-08-19 01:10:50.000,-0.01,-0.105
2021-08-19 01:10:50.000,-0.015,-0.085
2021-08-19 01:10:50.000,-0.03,-0.04
2021-08-19 01:10:50.000,-0.02,-0.015
2021-08-19 01:10:51.000,-0.005,-0.005
2021-08-19 01:10:51.000,-0.02,0.01
2021-08-19 01:10:51.000,0.01,0.005
2021-08-19 01:10:51.000,0.015,0.0
2021-08-19 01:10:52.000,0.06,-0.01
2021-08-19 01:10:52.000,0.045,-0.005
2021-08-19 01:10:52.000,0.075,-0.02
2021-08-19 01:10:52.000,0.05,-0.005
2021-08-19 01:10:53.000,0.055,0.015
2021-08-19 01:10:53.000,0.075,0.02
2021-08-19 01:10:53.000,0.05,0.0
2021-08-19 01:10:53.000,0.03,-0.02
2021-08-19 01:10:54.000,0.015,-0.06
2021-08-19 01:10:54.000,-0.01,-0.095
2021-08-19 01:10:54.000,-0.025,-0.12
2021-08-19 01:10:54.000,-0.06,-0.145
2021-08-19 01:10:54.000,-0.07,-0.095
2021-08-19 01:10:55.000,-0.07,-0.08
2021-08-19 01:10:55.000,-0.095,-0.09
2021-08-19 01:10:55.000,-0.095,-0.105
2021-08-19 01:10:55.000,-0.11,-0.12
2021-08-19 01:10:56.000,-0.1,-0.12
2021-08-19 01:10:56.000,-0.09,-0.14
2021-08-19 01:10:56.000,-0.075,-0.145
2021-08-19 01:10:56.000,-0.085,-0.175
2021-08-19 01:10:57.000,-0.065,-0.19
2021-08-19 01:10:57.000,-0.08,-0.215
2021-08-19 01:10:57.000,-0.095,-0.19
2021-08-19 01:10:57.000,-0.07,-0.195
2021-08-19 01:10:58.000,-0.035,-0.2
2021-08-19 01:10:58.000,-0.035,-0.2
2021-08-19 01:10:58.000,-0.02,-0.205
2021-08-19 01:10:58.000,-0.025,-0.19
2021-08-19 01:10:59.000,-0.045,-0.18
2021-08-19 01:10:59.000,-0.03,-0.19
2021-08-19 01:10:59.000,-0.04,-0.205
2021-08-19 01:10:59.000,-0.025,-0.185
2021-08-19 01:11:00.000,-0.035,-0.205
2021-08-19 01:11:00.000,-0.045,-0.18
2021-08-19 01:11:00.000,-0.05,-0.19
2021-08-19 01:11:00.000,-0.05,-0.175
2021-08-19 01:11:00.000,-0.045,-0.175
2021-08-19 01:11:01.000,-0.035,-0.135
2021-08-19 01:11:01.000,-0.035,-0.115
2021-08-19 01:11:01.000,-0.06,-0.085
2021-08-19 01:11:01.000,-0.06,-0.07
2021-08-19 01:11:02.000,-0.045,0.06
2021-08-19 01:11:02.000,-0.04,0.26
2021-08-19 01:11:02.000,-0.03,0.51
2021-08-19 01:11:02.000,-0.045,0.7
2021-08-19 01:11:03.000,0.0,0.805
2021-08-19 01:11:03.000,-0.035,0.87
2021-08-19 01:11:03.000,-0.08,0.84
2021-08-19 01:11:03.000,-0.125,0.75
2021-08-19 01:11:04.000,-0.18,0.495
2021-08-19 01:11:04.000,-0.315,0.215
2021-08-19 01:11:04.000,-0.54,0.165
2021-08-19 01:11:04.000,-0.84,0.26
2021-08-19 01:11:05.000,-1.145,0.25
2021-08-19 01:11:05.000,-1.325,0.045
2021-08-19 01:11:05.000,-1.395,-0.225
2021-08-19 01:11:05.000,-1.295,-0.46
2021-08-19 01:11:06.000,-1.03,-0.59
2021-08-19 01:11:06.000,-0.62,-0.615
2021-08-19 01:11:06.000,-0.295,-0.535
2021-08-19 01:11:06.000,-0.14,-0.415
2021-08-19 01:11:06.000,-0.15,-0.34
2021-08-19 01:11:07.000,-0.18,-0.34
2021-08-19 01:11:07.000,-0.18,-0.32
2021-08-19 01:11:07.000,-0.18,-0.345
2021-08-19 01:11:07.000,-0.15,-0.36
2021-08-19 01:11:08.000,-0.11,-0.355
2021-08-19 01:11:08.000,-0.065,-0.345
2021-08-19 01:11:08.000,-0.02,-0.33
2021-08-19 01:11:08.000,0.015,-0.35
2021-08-19 01:11:09.000,0.015,-0.355
2021-08-19 01:11:09.000,0.015,-0.375
2021-08-19 01:11:09.000,0.04,-0.355
2021-08-19 01:11:09.000,0.03,-0.37
2021-08-19 01:11:10.000,0.035,-0.36
2021-08-19 01:11:10.000,0.03,-0.365
2021-08-19 01:11:10.000,0.03,-0.36
2021-08-19 01:11:10.000,0.04,-0.34
2021-08-19 01:11:11.000,0.045,-0.34
2021-08-19 01:11:11.000,0.04,-0.355
2021-08-19 01:11:11.000,0.04,-0.355
2021-08-19 01:11:11.000,0.055,-0.36
2021-08-19 01:11:12.000,0.04,-0.35
2021-08-19 01:11:12.000,0.035,-0.36
2021-08-19 01:11:12.000,0.03,-0.37
2021-08-19 01:11:12.000,0.03,-0.38
2021-08-19 01:11:12.000,0.04,-0.37
2021-08-19 01:11:13.000,0.03,-0.38
2021-08-19 01:11:13.000,0.04,-0.38
2021-08-19 01:11:13.000,0.03,-0.385
2021-08-19 01:11:13.000,0.035,-0.39
2021-08-19 01:11:14.000,0.025,-0.39
2021-08-19 01:11:14.000,0.03,-0.39
2021-08-19 01:11:14.000,0.04,-0.41
2021-08-19 01:11:14.000,0.03,-0.405
2021-08-19 01:11:15.000,0.03,-0.42
2021-08-19 01:11:15.000,0.035,-0.41
2021-08-19 01:11:15.000,0.04,-0.415
2021-08-19 01:11:15.000,0.02,-0.41
2021-08-19 01:11:16.000,0.02,-0.42
2021-08-19 01:11:16.000,0.02,-0.425
2021-08-19 01:11:16.000,0.03,-0.43
2021-08-19 01:11:16.000,0.01,-0.43
2021-08-19 01:11:17.000,0.035,-0.435
2021-08-19 01:11:17.000,0.035,-0.44
2021-08-19 01:11:17.000,0.02,-0.45
2021-08-19 01:11:17.000,0.02,-0.44
2021-08-19 01:11:18.000,0.015,-0.43
2021-08-19 01:11:18.000,0.01,-0.425
2021-08-19 01:11:18.000,0.04,-0.42
2021-08-19 01:11:18.000,0.01,-0.415
2021-08-19 01:11:18.000,0.02,-0.39
2021-08-19 01:11:19.000,0.02,-0.37
2021-08-19 01:11:19.000,0.0,-0.35
2021-08-19 01:11:19.000,0.015,-0.335
2021-08-19 01:11:19.000,-0.015,-0.315
2021-08-19 01:11:20.000,0.0,-0.29
2021-08-19 01:11:20.000,0.0,-0.275
2021-08-19 01:11:20.000,-0.015,-0.25
2021-08-19 01:11:20.000,-0.035,-0.255
2021-08-19 01:11:21.000,-0.025,-0.24
2021-08-19 01:11:21.000,-0.04,-0.235
2021-08-19 01:11:21.000,-0.05,-0.24
2021-08-19 01:11:21.000,-0.05,-0.215
2021-08-19 01:11:22.000,-0.065,-0.22
2021-08-19 01:11:22.000,-0.06,-0.2
2021-08-19 01:11:22.000,-0.055,-0.21
2021-08-19 01:11:22.000,-0.075,-0.19
2021-08-19 01:11:23.000,-0.055,-0.19
2021-08-19 01:11:23.000,-0.045,-0.195
2021-08-19 01:11:23.000,-0.05,-0.19
2021-08-19 01:11:23.000,-0.07,-0.175
2021-08-19 01:11:24.000,-0.065,-0.185
2021-08-19 01:11:24.000,-0.06,-0.2
2021-08-19 01:11:24.000,-0.06,-0.2
2021-08-19 01:11:24.000,-0.04,-0.205
2021-08-19 01:11:24.000,-0.055,-0.2
2021-08-19 01:11:25.000,-0.045,-0.205
2021-08-19 01:11:25.000,-0.065,-0.195
2021-08-19 01:11:25.000,-0.06,-0.19
2021-08-19 01:11:25.000,-0.05,-0.185
2021-08-19 01:11:26.000,-0.065,-0.19
2021-08-19 01:11:26.000,-0.045,-0.195
2021-08-19 01:11:26.000,-0.055,-0.195
2021-08-19 01:11:26.000,-0.03,-0.205
2021-08-19 01:11:27.000,-0.06,-0.19
2021-08-19 01:11:27.000,-0.04,-0.18
2021-08-19 01:11:27.000,-0.025,-0.22
2021-08-19 01:11:27.000,-0.035,-0.205
2021-08-19 01:11:28.000,-0.05,-0.225
2021-08-19 01:11:28.000,-0.055,-0.2
2021-08-19 01:11:28.000,-0.045,-0.21
2021-08-19 01:11:28.000,-0.05,-0.205
2021-08-19 01:11:29.000,-0.035,-0.195
2021-08-19 01:11:29.000,-0.055,-0.195
2021-08-19 01:11:29.000,-0.065,-0.18
2021-08-19 01:11:29.000,-0.06,-0.19
2021-08-19 01:11:30.000,-0.05,-0.22
2021-08-19 01:11:30.000,-0.045,-0.21
2021-08-19 01:11:30.000,-0.075,-0.2
2021-08-19 01:11:30.000,-0.08,-0.205
2021-08-19 01:11:30.000,-0.075,-0.21
2021-08-19 01:11:31.000,-0.08,-0.2
2021-08-19 01:11:31.000,-0.07,-0.205
2021-08-19 01:11:31.000,-0.06,-0.22
2021-08-19 01:11:31.000,-0.08,-0.195
2021-08-19 01:11:32.000,-0.065,-0.19
2021-08-19 01:11:32.000,-0.075,-0.21
2021-08-19 01:11:32.000,-0.09,-0.2
2021-08-19 01:11:32.000,-0.07,-0.195
2021-08-19 01:11:33.000,-0.08,-0.195
2021-08-19 01:11:33.000,-0.07,-0.215
2021-08-19 01:11:33.000,-0.07,-0.2
2021-08-19 01:11:33.000,-0.08,-0.2
2021-08-19 01:11:34.000,-0.08,-0.21
2021-08-19 01:11:34.000,-0.08,-0.22
2021-08-19 01:11:34.000,-0.08,-0.205
2021-08-19 01:11:34.000,-0.08,-0.21
2021-08-19 01:11:35.000,-0.08,-0.19
2021-08-19 01:11:35.000,-0.065,-0.205
2021-08-19 01:11:35.000,-0.08,-0.2
2021-08-19 01:11:35.000,-0.08,-0.2
2021-08-19 01:11:36.000,-0.09,-0.21
2021-08-19 01:11:36.000,-0.105,-0.19
2021-08-19 01:11:36.000,-0.075,-0.185
2021-08-19 01:11:36.000,-0.06,-0.21
2021-08-19 01:11:36.000,-0.085,-0.195
2021-08-19 01:11:37.000,-0.1,-0.195
2021-08-19 01:11:37.000,-0.11,-0.21
2021-08-19 01:11:37.000,-0.095,-0.21
2021-08-19 01:11:37.000,-0.08,-0.195
2021-08-19 01:11:38.000,-0.09,-0.22
2021-08-19 01:11:38.000,-0.1,-0.185
2021-08-19 01:11:38.000,-0.125,-0.205
2021-08-19 01:11:38.000,-0.105,-0.205
2021-08-19 01:11:39.000,-0.105,-0.19
2021-08-19 01:11:39.000,-0.11,-0.195
2021-08-19 01:11:39.000,-0.08,-0.205
2021-08-19 01:11:39.000,-0.085,-0.195
2021-08-19 01:11:40.000,-0.09,-0.19
2021-08-19 01:11:40.000,-0.12,-0.195
2021-08-19 01:11:40.000,-0.08,-0.195
2021-08-19 01:11:40.000,-0.09,-0.18
2021-08-19 01:11:41.000,-0.105,-0.17
2021-08-19 01:11:41.000,-0.09,-0.135
2021-08-19 01:11:41.000,-0.085,-0.115
2021-08-19 01:11:41.000,-0.115,-0.085
2021-08-19 01:11:42.000,-0.09,-0.07
2021-08-19 01:11:42.000,-0.095,-0.04
2021-08-19 01:11:42.000,-0.075,-0.03
2021-08-19 01:11:42.000,-0.07,-0.05
2021-08-19 01:11:42.000,-0.05,-0.03
2021-08-19 01:11:43.000,-0.02,-0.04
2021-08-19 01:11:43.000,0.0,-0.065
2021-08-19 01:11:43.000,0.0,-0.06
2021-08-19 01:11:43.000,0.025,-0.07
2021-08-19 01:11:44.000,-0.005,-0.05
2021-08-19 01:11:44.000,0.0,-0.04
2021-08-19 01:11:44.000,-0.015,-0.055
2021-08-19 01:11:44.000,-0.03,-0.06
2021-08-19 01:11:45.000,-0.04,-0.1
2021-08-19 01:11:45.000,-0.07,-0.135
2021-08-19 01:11:45.000,-0.08,-0.18
2021-08-19 01:11:45.000,-0.1,-0.16
2021-08-19 01:11:46.000,-0.14,-0.19
2021-08-19 01:11:46.000,-0.16,-0.165
2021-08-19 01:11:46.000,-0.16,-0.15
2021-08-19 01:11:46.000,-0.16,-0.175
2021-08-19 01:11:47.000,-0.165,-0.18
2021-08-19 01:11:47.000,-0.16,-0.185
2021-08-19 01:11:47.000,-0.16,-0.195
2021-08-19 01:11:47.000,-0.15,-0.2
2021-08-19 01:11:48.000,-0.15,-0.18
2021-08-19 01:11:48.000,-0.155,-0.19
2021-08-19 01:11:48.000,-0.145,-0.25
2021-08-19 01:11:48.000,-0.175,-0.24
2021-08-19 01:11:48.000,-0.15,-0.24
2021-08-19 01:11:49.000,-0.135,-0.245
2021-08-19 01:11:49.000,-0.11,-0.26
2021-08-19 01:11:49.000,-0.1,-0.245
2021-08-19 01:11:49.000,-0.09,-0.23
2021-08-19 01:11:50.000,-0.095,-0.235
2021-08-19 01:11:50.000,-0.1,-0.24
2021-08-19 01:11:50.000,-0.105,-0.245
2021-08-19 01:11:50.000,-0.115,-0.27
2021-08-19 01:11:51.000,-0.1,-0.25
2021-08-19 01:11:51.000,-0.11,-0.23
2021-08-19 01:11:51.000,-0.1,-0.24
2021-08-19 01:11:51.000,-0.11,-0.215
2021-08-19 01:11:52.000,-0.125,-0.215
2021-08-19 01:11:52.000,-0.11,-0.21
2021-08-19 01:11:52.000,-0.11,-0.18
2021-08-19 01:11:52.000,-0.105,-0.15
2021-08-19 01:11:53.000,-0.125,-0.14
2021-08-19 01:11:53.000,-0.13,-0.095
2021-08-19 01:11:53.000,-0.11,-0.09
2021-08-19 01:11:53.000,-0.12,0.06
2021-08-19 01:11:54.000,-0.09,0.305
2021-08-19 01:11:54.000,-0.085,0.54
2021-08-19 01:11:54.000,-0.06,0.745
2021-08-19 01:11:54.000,-0.065,0.885
2021-08-19 01:11:54.000,-0.095,0.98
2021-08-19 01:11:55.000,-0.155,0.99
2021-08-19 01:11:55.000,-0.17,0.885
2021-08-19 01:11:55.000,-0.2,0.655
2021-08-19 01:11:55.000,-0.305,0.355
2021-08-19 01:11:56.000,-0.505,0.15
2021-08-19 01:11:56.000,-0.78,0.17
2021-08-19 01:11:56.000,-1.105,0.26
2021-08-19 01:11:56.000,-1.335,0.165
2021-08-19 01:11:57.000,-1.44,-0.095
2021-08-19 01:11:57.000,-1.44,-0.355
2021-08-19 01:11:57.000,-1.29,-0.525
2021-08-19 01:11:57.000,-0.9,-0.62
2021-08-19 01:11:58.000,-0.53,-0.625
2021-08-19 01:11:58.000,-0.305,-0.52
2021-08-19 01:11:58.000,-0.24,-0.42
2021-08-19 01:11:58.000,-0.23,-0.4
2021-08-19 01:11:59.000,-0.23,-0.37
2021-08-19 01:11:59.000,-0.22,-0.36
2021-08-19 01:11:59.000,-0.245,-0.35
2021-08-19 01:11:59.000,-0.195,-0.36
2021-08-19 01:12:00.000,-0.16,-0.355
2021-08-19 01:12:00.000,-0.105,-0.34
2021-08-19 01:12:00.000,-0.05,-0.34
2021-08-19 01:12:00.000,-0.03,-0.35
2021-08-19 01:12:00.000,-0.05,-0.33
2021-08-19 01:12:01.000,-0.025,-0.345
2021-08-19 01:12:01.000,-0.025,-0.345
2021-08-19 01:12:01.000,-0.02,-0.34
2021-08-19 01:12:01.000,-0.02,-0.34
2021-08-19 01:12:02.000,0.0,-0.335
2021-08-19 01:12:02.000,0.0,-0.345
2021-08-19 01:12:02.000,0.015,-0.335
2021-08-19 01:12:02.000,0.005,-0.33
2021-08-19 01:12:03.000,0.005,-0.31
2021-08-19 01:12:03.000,0.03,-0.325
2021-08-19 01:12:03.000,0.02,-0.32
2021-08-19 01:12:03.000,0.01,-0.31
2021-08-19 01:12:04.000,0.015,-0.31
2021-08-19 01:12:04.000,0.01,-0.31
2021-08-19 01:12:04.000,0.015,-0.315
2021-08-19 01:12:04.000,0.015,-0.315
2021-08-19 01:12:05.000,0.02,-0.31
2021-08-19 01:12:05.000,0.0,-0.335
2021-08-19 01:12:05.000,0.015,-0.315
2021-08-19 01:12:05.000,0.045,-0.335
2021-08-19 01:12:06.000,0.025,-0.33
2021-08-19 01:12:06.000,0.0,-0.33
2021-08-19 01:12:06.000,0.025,-0.33
2021-08-19 01:12:06.000,0.01,-0.33
2021-08-19 01:12:06.000,0.02,-0.355
2021-08-19 01:12:07.000,0.01,-0.365
2021-08-19 01:12:07.000,0.01,-0.36
2021-08-19 01:12:07.000,0.025,-0.37
2021-08-19 01:12:07.000,0.035,-0.385
2021-08-19 01:12:08.000,0.015,-0.38
2021-08-19 01:12:08.000,0.005,-0.385
2021-08-19 01:12:08.000,0.025,-0.4
2021-08-19 01:12:08.000,-0.01,-0.385
2021-08-19 01:12:09.000,-0.01,-0.39
2021-08-19 01:12:09.000,0.0,-0.38
2021-08-19 01:12:09.000,0.0,-0.39
2021-08-19 01:12:09.000,0.0,-0.375
2021-08-19 01:12:10.000,-0.01,-0.375
2021-08-19 01:12:10.000,0.0,-0.385
2021-08-19 01:12:10.000,-0.01,-0.365
2021-08-19 01:12:10.000,-0.005,-0.365
2021-08-19 01:12:11.000,0.0,-0.355
2021-08-19 01:12:11.000,0.0,-0.34
2021-08-19 01:12:11.000,-0.025,-0.335
2021-08-19 01:12:11.000,-0.02,-0.3
2021-08-19 01:12:12.000,-0.02,-0.295
2021-08-19 01:12:12.000,-0.03,-0.28
2021-08-19 01:12:12.000,-0.03,-0.25
2021-08-19 01:12:12.000,-0.055,-0.24
2021-08-19 01:12:12.000,-0.04,-0.225
2021-08-19 01:12:13.000,-0.01,-0.2
2021-08-19 01:12:13.000,-0.08,-0.2
2021-08-19 01:12:13.000,-0.06,-0.185
2021-08-19 01:12:13.000,-0.075,-0.175
2021-08-19 01:12:14.000,-0.06,-0.155
2021-08-19 01:12:14.000,-0.06,-0.16
2021-08-19 01:12:14.000,-0.085,-0.145
2021-08-19 01:12:14.000,-0.09,-0.14
2021-08-19 01:12:15.000,-0.08,-0.13
2021-08-19 01:12:15.000,-0.06,-0.15
2021-08-19 01:12:15.000,-0.08,-0.15
2021-08-19 01:12:15.000,-0.075,-0.14
2021-08-19 01:12:16.000,-0.075,-0.13
2021-08-19 01:12:16.000,-0.06,-0.135
2021-08-19 01:12:16.000,-0.08,-0.145
2021-08-19 01:12:16.000,-0.065,-0.14
2021-08-19 01:12:17.000,-0.06,-0.135
2021-08-19 01:12:17.000,-0.035,-0.155
2021-08-19 01:12:17.000,-0.075,-0.145
2021-08-19 01:12:17.000,-0.05,-0.145
2021-08-19 01:12:18.000,-0.055,-0.155
2021-08-19 01:12:18.000,-0.05,-0.14
2021-08-19 01:12:18.000,-0.04,-0.14
2021-08-19 01:12:18.000,-0.02,-0.145
2021-08-19 01:12:18.000,-0.01,-0.14
2021-08-19 01:12:19.000,0.005,-0.14
2021-08-19 01:12:19.000,-0.02,-0.14
2021-08-19 01:12:19.000,-0.02,-0.145
2021-08-19 01:12:19.000,-0.025,-0.145
2021-08-19 01:12:20.000,-0.025,-0.155
2021-08-19 01:12:20.000,0.0,-0.155
2021-08-19 01:12:20.000,-0.015,-0.155
2021-08-19 01:12:20.000,-0.015,-0.14
2021-08-19 01:12:21.000,-0.025,-0.16
2021-08-19 01:12:21.000,-0.03,-0.16
2021-08-19 01:12:21.000,-0.015,-0.17
2021-08-19 01:12:21.000,-0.015,-0.145
2021-08-19 01:12:22.000,-0.015,-0.155
2021-08-19 01:12:22.000,-0.03,-0.14
2021-08-19 01:12:22.000,-0.045,-0.16
2021-08-19 01:12:22.000,-0.005,-0.15
2021-08-19 01:12:23.000,-0.025,-0.135
2021-08-19 01:12:23.000,-0.02,-0.16
2021-08-19 01:12:23.000,-0.045,-0.15
2021-08-19 01:12:23.000,-0.04,-0.14
2021-08-19 01:12:24.000,-0.035,-0.145
2021-08-19 01:12:24.000,-0.05,-0.15
2021-08-19 01:12:24.000,-0.04,-0.16
2021-08-19 01:12:24.000,-0.045,-0.175
2021-08-19 01:12:24.000,-0.045,-0.17
2021-08-19 01:12:25.000,-0.05,-0.17
2021-08-19 01:12:25.000,-0.035,-0.185
2021-08-19 01:12:25.000,-0.065,-0.15
2021-08-19 01:12:25.000,-0.035,-0.16
2021-08-19 01:12:26.000,-0.06,-0.16
2021-08-19 01:12:26.000,-0.055,-0.17
2021-08-19 01:12:26.000,-0.055,-0.16
2021-08-19 01:12:26.000,-0.05,-0.17
2021-08-19 01:12:27.000,-0.05,-0.155
2021-08-19 01:12:27.000,-0.055,-0.18
2021-08-19 01:12:27.000,-0.055,-0.185
2021-08-19 01:12:27.000,-0.06,-0.17
2021-08-19 01:12:28.000,-0.05,-0.18
2021-08-19 01:12:28.000,-0.06,-0.17
2021-08-19 01:12:28.000,-0.065,-0.16
2021-08-19 01:12:28.000,-0.07,-0.18
2021-08-19 01:12:29.000,-0.05,-0.175
2021-08-19 01:12:29.000,-0.065,-0.185
2021-08-19 01:12:29.000,-0.07,-0.165
2021-08-19 01:12:29.000,-0.07,-0.155
2021-08-19 01:12:30.000,-0.055,-0.17
2021-08-19 01:12:30.000,-0.035,-0.175
2021-08-19 01:12:30.000,-0.065,-0.165
2021-08-19 01:12:30.000,-0.05,-0.175
2021-08-19 01:12:30.000,-0.035,-0.17
2021-08-19 01:12:31.000,-0.04,-0.175
2021-08-19 01:12:31.000,-0.065,-0.16
2021-08-19 01:12:31.000,-0.075,-0.165
2021-08-19 01:12:31.000,-0.07,-0.16
2021-08-19 01:12:32.000,-0.07,-0.16
2021-08-19 01:12:32.000,-0.045,-0.175
2021-08-19 01:12:32.000,-0.065,-0.175
2021-08-19 01:12:32.000,-0.055,-0.175
2021-08-19 01:12:33.000,-0.055,-0.155
2021-08-19 01:12:33.000,-0.065,-0.15
2021-08-19 01:12:33.000,-0.06,-0.15
2021-08-19 01:12:33.000,-0.06,-0.155
2021-08-19 01:12:34.000,-0.045,-0.14
2021-08-19 01:12:34.000,-0.05,-0.125
2021-08-19 01:12:34.000,-0.06,-0.095
2021-08-19 01:12:34.000,-0.055,-0.06
2021-08-19 01:12:35.000,-0.04,-0.02
2021-08-19 01:12:35.000,-0.065,0.01
2021-08-19 01:12:35.000,-0.05,0.005
2021-08-19 01:12:35.000,-0.04,0.005
2021-08-19 01:12:36.000,-0.025,0.0
2021-08-19 01:12:36.000,-0.005,0.02
2021-08-19 01:12:36.000,0.015,0.005
2021-08-19 01:12:36.000,0.035,0.0
2021-08-19 01:12:36.000,0.04,0.01
2021-08-19 01:12:37.000,0.06,0.025
2021-08-19 01:12:37.000,0.055,0.025
2021-08-19 01:12:37.000,0.045,0.025
2021-08-19 01:12:37.000,0.03,0.005
2021-08-19 01:12:38.000,-0.01,-0.01
2021-08-19 01:12:38.000,-0.045,-0.065
2021-08-19 01:12:38.000,-0.04,-0.1
2021-08-19 01:12:38.000,-0.065,-0.11
2021-08-19 01:12:39.000,-0.075,-0.105
2021-08-19 01:12:39.000,-0.1,-0.115
2021-08-19 01:12:39.000,-0.1,-0.1
2021-08-19 01:12:39.000,-0.12,-0.065
2021-08-19 01:12:40.000,-0.15,-0.075
2021-08-19 01:12:40.000,-0.145,-0.1
2021-08-19 01:12:40.000,-0.16,-0.105
2021-08-19 01:12:40.000,-0.14,-0.105
2021-08-19 01:12:41.000,-0.12,-0.11
2021-08-19 01:12:41.000,-0.12,-0.13
2021-08-19 01:12:41.000,-0.085,-0.165
2021-08-19 01:12:41.000,-0.115,-0.195
2021-08-19 01:12:42.000,-0.1,-0.195
2021-08-19 01:12:42.000,-0.1,-0.195
2021-08-19 01:12:42.000,-0.085,-0.195
2021-08-19 01:12:42.000,-0.045,-0.205
2021-08-19 01:12:42.000,-0.035,-0.195
2021-08-19 01:12:43.000,-0.04,-0.19
2021-08-19 01:12:43.000,-0.07,-0.215
2021-08-19 01:12:43.000,-0.06,-0.215
2021-08-19 01:12:43.000,-0.04,-0.195
2021-08-19 01:12:44.000,-0.055,-0.215
2021-08-19 01:12:44.000,-0.035,-0.21
2021-08-19 01:12:44.000,-0.065,-0.2
2021-08-19 01:12:44.000,-0.08,-0.18
2021-08-19 01:12:45.000,-0.06,-0.2
2021-08-19 01:12:45.000,-0.055,-0.18
2021-08-19 01:12:45.000,-0.085,-0.16
2021-08-19 01:12:45.000,-0.05,-0.125
2021-08-19 01:12:46.000,-0.08,-0.08
2021-08-19 01:12:46.000,-0.08,-0.06
2021-08-19 01:12:46.000,-0.07,-0.045
2021-08-19 01:12:46.000,-0.07,0.06
2021-08-19 01:12:47.000,-0.085,0.295
2021-08-19 01:12:47.000,-0.065,0.57
2021-08-19 01:12:47.000,-0.045,0.76
2021-08-19 01:12:47.000,-0.015,0.915
2021-08-19 01:08:31.504,0.07,-0.085
2021-08-19 01:08:31.508,0.05,-0.095
2021-08-19 01:08:31.512,0.035,-0.1
2021-08-19 01:08:31.516,0.05,-0.09
2021-08-19 01:08:31.520,0.045,-0.075
2021-08-19 01:08:31.524,0.03,-0.085
2021-08-19 01:08:31.528,0.025,-0.08
2021-08-19 01:08:31.532,0.04,-0.08
2021-08-19 01:08:31.536,0.07,-0.08
2021-08-19 01:08:31.540,0.065,-0.08
2021-08-19 01:08:31.544,0.07,-0.085
2021-08-19 01:08:31.548,0.04,-0.08
2021-08-19 01:08:31.552,0.045,-0.08
2021-08-19 01:08:31.556,0.06,-0.09
2021-08-19 01:08:31.560,0.06,-0.095
2021-08-19 01:08:31.564,0.06,-0.075
2021-08-19 01:08:31.568,0.055,-0.085
2021-08-19 01:08:31.572,0.065,-0.085
2021-08-19 01:08:31.576,0.065,-0.08
2021-08-19 01:08:31.580,0.07,-0.09
2021-08-19 01:08:31.584,0.055,-0.095
2021-08-19 01:08:31.588,0.075,-0.095
2021-08-19 01:08:31.592,0.065,-0.095
2021-08-19 01:08:31.596,0.055,-0.09
2021-08-19 01:08:31.600,0.05,-0.08
2021-08-19 01:08:31.604,0.05,-0.09
2021-08-19 01:08:31.608,0.065,-0.09
2021-08-19 01:08:31.612,0.08,-0.085
2021-08-19 01:08:31.616,0.075,-0.085
2021-08-19 01:08:31.620,0.035,-0.07
2021-08-19 01:08:31.624,0.05,-0.08
2021-08-19 01:08:31.628,0.06,-0.075
2021-08-19 01:08:31.632,0.07,-0.065
2021-08-19 01:08:31.636,0.07,-0.09
2021-08-19 01:08:31.640,0.05,-0.06
2021-08-19 01:08:31.644,0.06,-0.06
2021-08-19 01:08:31.648,0.065,-0.075
2021-08-19 01:08:31.652,0.055,-0.07
2021-08-19 01:08:31.656,0.04,-0.075
2021-08-19 01:08:31.660,0.065,-0.075
2021-08-19 01:08:31.664,0.05,-0.05
2021-08-19 01:08:31.668,0.04,-0.07
2021-08-19 01:08:31.672,0.05,-0.075
2021-08-19 01:08:31.676,0.06,-0.065
2021-08-19 01:08:31.680,0.06,-0.06
2021-08-19 01:08:31.684,0.06,-0.075
2021-08-19 01:08:31.688,0.06,-0.06
2021-08-19 01:08:31.692,0.045,-0.075
2021-08-19 01:08:31.696,0.055,-0.06
2021-08-19 01:08:31.700,0.05,-0.04
2021-08-19 01:08:31.704,0.045,-0.06
2021-08-19 01:08:31.708,0.07,-0.055
2021-08-19 01:08:31.712,0.055,-0.05
2021-08-19 01:08:31.716,0.06,-0.04
2021-08-19 01:08:31.720,0.07,-0.06
2021-08-19 01:08:31.724,0.055,-0.055
2021-08-19 01:08:31.728,0.075,-0.03
2021-08-19 01:08:31.732,0.075,-0.045
2021-08-19 01:08:31.736,0.045,-0.035
2021-08-19 01:08:31.740,0.085,-0.05
2021-08-19 01:08:31.744,0.07,-0.035
2021-08-19 01:08:31.748,0.05,-0.045
2021-08-19 01:08:31.752,0.07,-0.045
2021-08-19 01:08:31.756,0.07,-0.04
2021-08-19 01:08:31.760,0.08,-0.04
2021-08-19 01:08:31.764,0.065,-0.025
2021-08-19 01:08:31.768,0.07,-0.035
2021-08-19 01:08:31.772,0.075,-0.02
2021-08-19 01:08:31.776,0.07,-0.03
2021-08-19 01:08:31.780,0.08,-0.02
2021-08-19 01:08:31.784,0.105,-0.035
2021-08-19 01:08:31.788,0.08,-0.03
2021-08-19 01:08:31.792,0.07,-0.02
2021-08-19 01:08:31.796,0.07,-0.025
2021-08-19 01:08:31.800,0.085,-0.02
2021-08-19 01:08:31.804,0.095,-0.02
2021-08-19 01:08:31.808,0.105,-0.02
2021-08-19 01:08:31.812,0.08,-0.01
2021-08-19 01:08:31.816,0.095,-0.005
2021-08-19 01:08:31.820,0.085,-0.01
2021-08-19 01:08:31.824,0.09,-0.015
2021-08-19 01:08:31.828,0.075,-0.01
2021-08-19 01:08:31.832,0.07,0.0
2021-08-19 01:08:31.836,0.085,-0.005
2021-08-19 01:08:31.840,0.09,0.01
2021-08-19 01:08:31.844,0.09,-0.005
2021-08-19 01:08:31.848,0.1,-0.015
2021-08-19 01:08:31.852,0.095,0.005
2021-08-19 01:08:31.856,0.095,0.0
2021-08-19 01:08:31.860,0.085,0.01
2021-08-19 01:08:31.864,0.12,0.0
2021-08-19 01:08:31.868,0.06,0.005
2021-08-19 01:08:31.872,0.09,-0.01
2021-08-19 01:08:31.876,0.07,-0.015
2021-08-19 01:08:31.880,0.095,0.01
2021-08-19 01:08:31.884,0.08,0.015
2021-08-19 01:08:31.888,0.08,0.0
2021-08-19 01:08:31.892,0.095,0.01
2021-08-19 01:08:31.896,0.085,0.015
2021-08-19 01:08:31.900,0.11,0.0
2021-08-19 01:08:31.904,0.1,0.005
2021-08-19 01:08:31.908,0.085,0.005
2021-08-19 01:08:31.912,0.075,0.0
2021-08-19 01:08:31.916,0.075,-0.015
2021-08-19 01:08:31.920,0.075,-0.01
2021-08-19 01:08:31.924,0.085,0.015
2021-08-19 01:08:31.928,0.07,0.005
2021-08-19 01:08:31.932,0.095,0.0
2021-08-19 01:08:31.936,0.085,0.015
2021-08-19 01:08:31.940,0.08,0.01
2021-08-19 01:08:31.944,0.09,0.0
2021-08-19 01:08:31.948,0.075,0.02
2021-08-19 01:08:31.952,0.085,0.005
2021-08-19 01:08:31.956,0.085,0.01
2021-08-19 01:08:31.960,0.07,0.015
2021-08-19 01:08:31.964,0.075,0.045
2021-08-19 01:08:31.968,0.09,0.05
2021-08-19 01:08:31.972,0.085,0.07
2021-08-19 01:08:31.976,0.065,0.08
2021-08-19 01:08:31.980,0.07,0.115
2021-08-19 01:08:31.984,0.075,0.12
2021-08-19 01:08:31.988,0.095,0.13
2021-08-19 01:08:31.992,0.085,0.145
2021-08-19 01:08:31.996,0.095,0.14
2021-08-19 01:08:32.000,0.11,0.135
2021-08-19 01:08:32.004,0.12,0.155
2021-08-19 01:08:32.008,0.145,0.135
2021-08-19 01:08:32.012,0.15,0.11
2021-08-19 01:08:32.016,0.155,0.09
2021-08-19 01:08:32.020,0.16,0.08
2021-08-19 01:08:32.024,0.16,0.105
2021-08-19 01:08:32.028,0.15,0.1
2021-08-19 01:08:32.032,0.145,0.09
2021-08-19 01:08:32.036,0.14,0.07
2021-08-19 01:08:32.040,0.12,0.045
2021-08-19 01:08:32.044,0.1,0.01
2021-08-19 01:08:32.048,0.07,0.015
2021-08-19 01:08:32.052,0.035,0.04
2021-08-19 01:08:32.056,0.03,0.045
2021-08-19 01:08:32.060,0.03,0.055
2021-08-19 01:08:32.064,-0.005,0.08
2021-08-19 01:08:32.068,0.015,0.055
2021-08-19 01:08:32.072,0.02,0.055
2021-08-19 01:08:32.076,0.04,0.04
2021-08-19 01:08:32.080,0.015,0.06
2021-08-19 01:08:32.084,0.035,0.055
2021-08-19 01:08:32.088,0.03,0.035
2021-08-19 01:08:32.092,0.04,0.05
2021-08-19 01:08:32.096,0.035,0.015
2021-08-19 01:08:32.100,0.025,-0.005
2021-08-19 01:08:32.104,0.055,-0.005
2021-08-19 01:08:32.108,0.05,0.02
2021-08-19 01:08:32.112,0.07,0.01
2021-08-19 01:08:32.116,0.085,0.0
2021-08-19 01:08:32.120,0.105,0.01
2021-08-19 01:08:32.124,0.105,0.01
2021-08-19 01:08:32.128,0.09,0.03
2021-08-19 01:08:32.132,0.095,0.015
2021-08-19 01:08:32.136,0.09,0.035
2021-08-19 01:08:32.140,0.065,0.035
2021-08-19 01:08:32.144,0.07,0.04
2021-08-19 01:08:32.148,0.095,0.03
2021-08-19 01:08:32.152,0.095,0.035
2021-08-19 01:08:32.156,0.1,0.025
2021-08-19 01:08:32.160,0.075,0.035
2021-08-19 01:08:32.164,0.085,0.035
2021-08-19 01:08:32.168,0.08,0.085
2021-08-19 01:08:32.172,0.09,0.11
2021-08-19 01:08:32.176,0.06,0.105
2021-08-19 01:08:32.180,0.095,0.135
2021-08-19 01:08:32.184,0.09,0.255
2021-08-19 01:08:32.188,0.095,0.505
2021-08-19 01:08:32.192,0.115,0.745
2021-08-19 01:08:32.196,0.15,0.945
2021-08-19 01:08:32.200,0.145,1.095
2021-08-19 01:08:32.204,0.11,1.21
2021-08-19 01:08:32.208,0.045,1.215
2021-08-19 01:08:32.212,0.01,1.145
2021-08-19 01:08:32.216,-0.03,0.91
2021-08-19 01:08:32.220,-0.16,0.585
2021-08-19 01:08:32.224,-0.39,0.335
2021-08-19 01:08:32.228,-0.73,0.355
2021-08-19 01:08:32.232,-1.055,0.475
2021-08-19 01:08:32.236,-1.28,0.405
2021-08-19 01:08:32.240,-1.36,0.11
2021-08-19 01:08:32.244,-1.365,-0.195
2021-08-19 01:08:32.248,-1.15,-0.395
2021-08-19 01:08:32.252,-0.765,-0.48
2021-08-19 01:08:32.256,-0.305,-0.49
2021-08-19 01:08:32.260,-0.045,-0.435
2021-08-19 01:08:32.264,-0.01,-0.32
2021-08-19 01:08:32.268,-0.03,-0.235
2021-08-19 01:08:32.272,-0.045,-0.19
2021-08-19 01:08:32.276,-0.065,-0.18
2021-08-19 01:08:32.280,-0.065,-0.17
2021-08-19 01:08:32.284,-0.03,-0.18
2021-08-19 01:08:32.288,0.015,-0.17
2021-08-19 01:08:32.292,0.08,-0.18
2021-08-19 01:08:32.296,0.13,-0.19
2021-08-19 01:08:32.300,0.14,-0.195
2021-08-19 01:08:32.304,0.175,-0.19
2021-08-19 01:08:32.308,0.16,-0.17
2021-08-19 01:08:32.312,0.175,-0.215
2021-08-19 01:08:32.316,0.175,-0.205
2021-08-19 01:08:32.320,0.17,-0.195
2021-08-19 01:08:32.324,0.175,-0.195
2021-08-19 01:08:32.328,0.17,-0.205
2021-08-19 01:08:32.332,0.145,-0.2
2021-08-19 01:08:32.336,0.16,-0.2
2021-08-19 01:08:32.340,0.185,-0.21
2021-08-19 01:08:32.344,0.19,-0.205
2021-08-19 01:08:32.348,0.185,-0.21
2021-08-19 01:08:32.352,0.155,-0.2
2021-08-19 01:08:32.356,0.19,-0.21
2021-08-19 01:08:32.360,0.17,-0.2
2021-08-19 01:08:32.364,0.175,-0.21
2021-08-19 01:08:32.368,0.18,-0.24
2021-08-19 01:08:32.372,0.155,-0.23
2021-08-19 01:08:32.376,0.155,-0.23
2021-08-19 01:08:32.380,0.155,-0.225
2021-08-19 01:08:32.384,0.155,-0.235
2021-08-19 01:08:32.388,0.16,-0.22
2021-08-19 01:08:32.392,0.14,-0.23
2021-08-19 01:08:32.396,0.15,-0.24
2021-08-19 01:08:32.400,0.145,-0.25
2021-08-19 01:08:32.404,0.17,-0.255
2021-08-19 01:08:32.408,0.13,-0.27
2021-08-19 01:08:32.412,0.13,-0.28
2021-08-19 01:08:32.416,0.13,-0.285
2021-08-19 01:08:32.420,0.135,-0.275
2021-08-19 01:08:32.424,0.14,-0.265
2021-08-19 01:08:32.428,0.135,-0.295
2021-08-19 01:08:32.432,0.14,-0.275
2021-08-19 01:08:32.436,0.125,-0.265
2021-08-19 01:08:32.440,0.13,-0.27
2021-08-19 01:08:32.444,0.145,-0.275
2021-08-19 01:08:32.448,0.12,-0.275
2021-08-19 01:08:32.452,0.115,-0.245
2021-08-19 01:08:32.456,0.11,-0.27
2021-08-19 01:08:32.460,0.11,-0.275
2021-08-19 01:08:32.464,0.115,-0.285
2021-08-19 01:08:32.468,0.125,-0.285
2021-08-19 01:08:32.472,0.1,-0.28
2021-08-19 01:08:32.476,0.09,-0.27
2021-08-19 01:08:32.480,0.095,-0.275
2021-08-19 01:08:32.484,0.095,-0.26
2021-08-19 01:08:32.488,0.105,-0.255
2021-08-19 01:08:32.492,0.095,-0.245
2021-08-19 01:08:32.496,0.105,-0.255
2021-08-19 01:08:32.500,0.085,-0.25
2021-08-19 01:08:32.504,0.1,-0.25
2021-08-19 01:08:32.508,0.095,-0.235
2021-08-19 01:08:32.512,0.105,-0.225
2021-08-19 01:08:32.516,0.09,-0.21
2021-08-19 01:08:32.520,0.095,-0.19
2021-08-19 01:08:32.524,0.07,-0.19
2021-08-19 01:08:32.528,0.05,-0.14
2021-08-19 01:08:32.532,0.055,-0.16
2021-08-19 01:08:32.536,0.04,-0.14
2021-08-19 01:08:32.540,0.06,-0.13
2021-08-19 01:08:32.544,0.05,-0.125
2021-08-19 01:08:32.548,0.03,-0.1
2021-08-19 01:08:32.552,0.05,-0.08
2021-08-19 01:08:32.556,0.05,-0.085
2021-08-19 01:08:32.560,0.065,-0.11
2021-08-19 01:08:32.564,0.04,-0.08
2021-08-19 01:08:32.568,0.025,-0.06
2021-08-19 01:08:32.572,0.03,-0.035
2021-08-19 01:08:32.576,0.04,-0.035
2021-08-19 01:08:32.580,0.01,-0.005
2021-08-19 01:08:32.584,0.035,-0.01
2021-08-19 01:08:32.588,0.03,-0.03
2021-08-19 01:08:32.592,0.035,-0.035
2021-08-19 01:08:32.596,0.045,-0.035
2021-08-19 01:08:32.600,0.05,-0.025
2021-08-19 01:08:32.604,0.02,-0.025
2021-08-19 01:08:32.608,0.01,-0.055
2021-08-19 01:08:32.612,0.035,-0.05
2021-08-19 01:08:32.616,0.035,-0.055
2021-08-19 01:08:32.620,0.005,-0.065
2021-08-19 01:08:32.624,0.03,-0.07
2021-08-19 01:08:32.628,0.035,-0.065
2021-08-19 01:08:32.632,0.04,-0.055
2021-08-19 01:08:32.636,0.065,-0.075
2021-08-19 01:08:32.640,0.05,-0.085
2021-08-19 01:08:32.644,0.05,-0.075
2021-08-19 01:08:32.648,0.055,-0.095
2021-08-19 01:08:32.652,0.06,-0.08
2021-08-19 01:08:32.656,0.05,-0.085
2021-08-19 01:08:32.660,0.08,-0.075
2021-08-19 01:08:32.664,0.07,-0.075
2021-08-19 01:08:32.668,0.06,-0.09
2021-08-19 01:08:32.672,0.085,-0.09
2021-08-19 01:08:32.676,0.09,-0.105
2021-08-19 01:08:32.680,0.075,-0.115
2021-08-19 01:08:32.684,0.07,-0.115
2021-08-19 01:08:32.688,0.08,-0.115
2021-08-19 01:08:32.692,0.1,-0.115
2021-08-19 01:08:32.696,0.09,-0.1
2021-08-19 01:08:32.700,0.11,-0.12
2021-08-19 01:08:32.704,0.095,-0.095
2021-08-19 01:08:32.708,0.09,-0.115
2021-08-19 01:08:32.712,0.085,-0.12
2021-08-19 01:08:32.716,0.095,-0.115
2021-08-19 01:08:32.720,0.085,-0.12
2021-08-19 01:08:32.724,0.08,-0.125
2021-08-19 01:08:32.728,0.08,-0.125
2021-08-19 01:08:32.732,0.085,-0.12
2021-08-19 01:08:32.736,0.075,-0.105
2021-08-19 01:08:32.740,0.095,-0.105
2021-08-19 01:08:32.744,0.09,-0.11
2021-08-19 01:08:32.748,0.08,-0.115
2021-08-19 01:08:32.752,0.075,-0.1
2021-08-19 01:08:32.756,0.095,-0.12
2021-08-19 01:08:32.760,0.07,-0.13
2021-08-19 01:08:32.764,0.08,-0.13
2021-08-19 01:08:32.768,0.085,-0.13
2021-08-19 01:08:32.772,0.075,-0.125
2021-08-19 01:08:32.776,0.085,-0.125
2021-08-19 01:08:32.780,0.04,-0.11
2021-08-19 01:08:32.784,0.07,-0.14
2021-08-19 01:08:32.788,0.07,-0.145
2021-08-19 01:08:32.792,0.075,-0.135
2021-08-19 01:08:32.796,0.07,-0.125
2021-08-19 01:08:32.800,0.075,-0.12
2021-08-19 01:08:32.804,0.06,-0.16
2021-08-19 01:08:32.808,0.06,-0.12
2021-08-19 01:08:32.812,0.065,-0.11
2021-08-19 01:08:32.816,0.085,-0.14
2021-08-19 01:08:32.820,0.085,-0.125
2021-08-19 01:08:32.824,0.085,-0.115
2021-08-19 01:08:32.828,0.065,-0.125
2021-08-19 01:08:32.832,0.08,-0.125
2021-08-19 01:08:32.836,0.065,-0.1
2021-08-19 01:08:32.840,0.075,-0.12
2021-08-19 01:08:32.844,0.05,-0.125
2021-08-19 01:08:32.848,0.08,-0.14
2021-08-19 01:08:32.852,0.065,-0.15
2021-08-19 01:08:32.856,0.065,-0.135
2021-08-19 01:08:32.860,0.085,-0.13
2021-08-19 01:08:32.864,0.085,-0.13
2021-08-19 01:08:32.868,0.065,-0.13
2021-08-19 01:08:32.872,0.075,-0.11
2021-08-19 01:08:32.876,0.075,-0.125
2021-08-19 01:08:32.880,0.095,-0.115
2021-08-19 01:08:32.884,0.07,-0.14
2021-08-19 01:08:32.888,0.08,-0.14
2021-08-19 01:08:32.892,0.08,-0.13
2021-08-19 01:08:32.896,0.075,-0.125
2021-08-19 01:08:32.900,0.08,-0.13
2021-08-19 01:08:32.904,0.075,-0.14
2021-08-19 01:08:32.908,0.085,-0.12
2021-08-19 01:08:32.912,0.075,-0.135
2021-08-19 01:08:32.916,0.075,-0.13
2021-08-19 01:08:32.920,0.07,-0.135
2021-08-19 01:08:32.924,0.055,-0.125
2021-08-19 01:08:32.928,0.085,-0.145
2021-08-19 01:08:32.932,0.05,-0.155
2021-08-19 01:08:32.936,0.055,-0.135
2021-08-19 01:08:32.940,0.08,-0.145
2021-08-19 01:08:32.944,0.065,-0.125
2021-08-19 01:08:32.948,0.055,-0.125
2021-08-19 01:08:32.952,0.07,-0.12
2021-08-19 01:08:32.956,0.06,-0.085
2021-08-19 01:08:32.960,0.075,-0.075
2021-08-19 01:08:32.964,0.065,-0.05
2021-08-19 01:08:32.968,0.06,-0.01
2021-08-19 01:08:32.972,0.08,0.0
2021-08-19 01:08:32.976,0.1,0.005
2021-08-19 01:08:32.980,0.11,0.0
2021-08-19 01:08:32.984,0.12,0.025
2021-08-19 01:08:32.988,0.13,0.0
2021-08-19 01:08:32.992,0.155,0.0
2021-08-19 01:08:32.996,0.16,0.0
2021-08-19 01:08:33.000,0.175,-0.01
2021-08-19 01:08:33.004,0.185,-0.005
2021-08-19 01:08:33.008,0.165,0.005
2021-08-19 01:08:33.012,0.135,0.025
2021-08-19 01:08:33.016,0.11,0.03
2021-08-19 01:08:33.020,0.12,0.005
2021-08-19 01:08:33.024,0.13,-0.055
2021-08-19 01:08:33.028,0.1,-0.095
2021-08-19 01:08:33.032,0.095,-0.11
2021-08-19 01:08:33.036,0.085,-0.11
2021-08-19 01:08:33.040,0.075,-0.08
2021-08-19 01:08:33.044,0.065,-0.09
2021-08-19 01:08:33.048,0.03,-0.08
2021-08-19 01:08:33.052,0.02,-0.08
2021-08-19 01:08:33.056,0.01,-0.08
2021-08-19 01:08:33.060,0.005,-0.095
2021-08-19 01:08:33.064,0.02,-0.11
2021-08-19 01:08:33.068,0.03,-0.11
2021-08-19 01:08:33.072,0.035,-0.115
2021-08-19 01:08:33.076,0.045,-0.115
2021-08-19 01:08:33.080,0.05,-0.145
2021-08-19 01:08:33.084,0.05,-0.165
2021-08-19 01:08:33.088,0.045,-0.16
2021-08-19 01:08:33.092,0.05,-0.155
2021-08-19 01:08:33.096,0.085,-0.17
2021-08-19 01:08:33.100,0.085,-0.175
2021-08-19 01:08:33.104,0.095,-0.16
2021-08-19 01:08:33.108,0.085,-0.155
2021-08-19 01:08:33.112,0.105,-0.16
2021-08-19 01:08:33.116,0.095,-0.16
2021-08-19 01:08:33.120,0.08,-0.145
2021-08-19 01:08:33.124,0.08,-0.165
2021-08-19 01:08:33.128,0.06,-0.175
2021-08-19 01:08:33.132,0.065,-0.155
2021-08-19 01:08:33.136,0.085,-0.15
2021-08-19 01:08:33.140,0.065,-0.165
2021-08-19 01:08:33.144,0.075,-0.165
2021-08-19 01:08:33.148,0.065,-0.155
2021-08-19 01:08:33.152,0.065,-0.135
2021-08-19 01:08:33.156,0.075,-0.115
2021-08-19 01:08:33.160,0.065,-0.095
2021-08-19 01:08:33.164,0.06,-0.09
2021-08-19 01:08:33.168,0.06,-0.08
2021-08-19 01:08:33.172,0.065,-0.08
2021-08-19 01:08:33.176,0.07,-0.015
2021-08-19 01:08:33.180,0.065,0.135
2021-08-19 01:08:33.184,0.09,0.375
2021-08-19 01:08:33.188,0.125,0.585
2021-08-19 01:08:33.192,0.12,0.78
2021-08-19 01:08:33.196,0.115,0.95
2021-08-19 01:08:33.200,0.07,1.025
2021-08-19 01:08:33.204,0.045,1.075
2021-08-19 01:08:33.208,0.005,0.985
2021-08-19 01:08:33.212,-0.03,0.725
2021-08-19 01:08:33.216,-0.16,0.46
2021-08-19 01:08:33.220,-0.42,0.33
2021-08-19 01:08:33.224,-0.715,0.33
2021-08-19 01:08:33.228,-0.985,0.23
2021-08-19 01:08:33.232,-1.11,-0.06
2021-08-19 01:08:33.236,-1.115,-0.35
2021-08-19 01:08:33.240,-0.965,-0.525
2021-08-19 01:08:33.244,-0.655,-0.645
2021-08-19 01:08:33.248,-0.3,-0.655
2021-08-19 01:08:33.252,-0.075,-0.575
2021-08-19 01:08:33.256,-0.025,-0.46
2021-08-19 01:08:33.260,-0.05,-0.375
2021-08-19 01:08:33.264,-0.08,-0.335
2021-08-19 01:08:33.268,-0.065,-0.335
2021-08-19 01:08:33.272,-0.06,-0.355
2021-08-19 01:08:33.276,-0.02,-0.355
2021-08-19 01:08:33.280,0.03,-0.345
2021-08-19 01:08:33.284,0.075,-0.36
2021-08-19 01:08:33.288,0.13,-0.365
2021-08-19 01:08:33.292,0.13,-0.365
2021-08-19 01:08:33.296,0.13,-0.36
2021-08-19 01:08:33.300,0.145,-0.36
2021-08-19 01:08:33.304,0.14,-0.365
2021-08-19 01:08:33.308,0.155,-0.36
2021-08-19 01:08:33.312,0.15,-0.355
2021-08-19 01:08:33.316,0.155,-0.365
2021-08-19 01:08:33.320,0.155,-0.355
2021-08-19 01:08:33.324,0.135,-0.355
2021-08-19 01:08:33.328,0.13,-0.355
2021-08-19 01:08:33.332,0.145,-0.35
2021-08-19 01:08:33.336,0.155,-0.34
2021-08-19 01:08:33.340,0.16,-0.355
2021-08-19 01:08:33.344,0.16,-0.38
2021-08-19 01:08:33.348,0.17,-0.35
2021-08-19 01:08:33.352,0.155,-0.355
2021-08-19 01:08:33.356,0.175,-0.355
2021-08-19 01:08:33.360,0.17,-0.35
2021-08-19 01:08:33.364,0.16,-0.345
2021-08-19 01:08:33.368,0.16,-0.36
2021-08-19 01:08:33.372,0.175,-0.35
2021-08-19 01:08:33.376,0.15,-0.36
2021-08-19 01:08:33.380,0.15,-0.36
2021-08-19 01:08:33.384,0.15,-0.385
2021-08-19 01:08:33.388,0.14,-0.39
2021-08-19 01:08:33.392,0.14,-0.38
2021-08-19 01:08:33.396,0.165,-0.38
2021-08-19 01:08:33.400,0.15,-0.39
2021-08-19 01:08:33.404,0.15,-0.4
2021-08-19 01:08:33.408,0.16,-0.39
2021-08-19 01:08:33.412,0.16,-0.4
2021-08-19 01:08:33.416,0.145,-0.415
2021-08-19 01:08:33.420,0.15,-0.395
2021-08-19 01:08:33.424,0.135,-0.415
2021-08-19 01:08:33.428,0.16,-0.415
2021-08-19 01:08:33.432,0.155,-0.415
2021-08-19 01:08:33.436,0.145,-0.405
2021-08-19 01:08:33.440,0.125,-0.405
2021-08-19 01:08:33.444,0.14,-0.4
2021-08-19 01:08:33.448,0.145,-0.405
2021-08-19 01:08:33.452,0.155,-0.395
2021-08-19 01:08:33.456,0.145,-0.39
2021-08-19 01:08:33.460,0.15,-0.385
2021-08-19 01:08:33.464,0.135,-0.385
2021-08-19 01:08:33.468,0.14,-0.385
2021-08-19 01:08:33.472,0.14,-0.375
2021-08-19 01:08:33.476,0.13,-0.35
2021-08-19 01:08:33.480,0.13,-0.335
2021-08-19 01:08:33.484,0.115,-0.33
2021-08-19 01:08:33.488,0.1,-0.3
2021-08-19 01:08:33.492,0.09,-0.295
2021-08-19 01:08:33.496,0.08,-0.29
2021-08-19 01:08:33.500,0.095,-0.255
2021-08-19 01:08:33.504,0.095,-0.245
2021-08-19 01:08:33.508,0.1,-0.225
2021-08-19 01:08:33.512,0.09,-0.215
2021-08-19 01:08:33.516,0.085,-0.19
2021-08-19 01:08:33.520,0.09,-0.19
2021-08-19 01:08:33.524,0.09,-0.165
2021-08-19 01:08:33.528,0.075,-0.155
2021-08-19 01:08:33.532,0.055,-0.14
2021-08-19 01:08:33.536,0.07,-0.145
2021-08-19 01:08:33.540,0.06,-0.125
2021-08-19 01:08:33.544,0.05,-0.11
2021-08-19 01:08:33.548,0.085,-0.11
2021-08-19 01:08:33.552,0.075,-0.115
2021-08-19 01:08:33.556,0.075,-0.11
2021-08-19 01:08:33.560,0.08,-0.11
2021-08-19 01:08:33.564,0.085,-0.115
2021-08-19 01:08:33.568,0.1,-0.115
2021-08-19 01:08:33.572,0.09,-0.12
2021-08-19 01:08:33.576,0.095,-0.115
2021-08-19 01:08:33.580,0.09,-0.125
2021-08-19 01:08:33.584,0.105,-0.11
2021-08-19 01:08:33.588,0.125,-0.125
2021-08-19 01:08:33.592,0.11,-0.12
2021-08-19 01:08:33.596,0.13,-0.14
2021-08-19 01:08:33.600,0.13,-0.13
2021-08-19 01:08:33.604,0.12,-0.135
2021-08-19 01:08:33.608,0.115,-0.135
2021-08-19 01:08:33.612,0.145,-0.125
2021-08-19 01:08:33.616,0.135,-0.14
2021-08-19 01:08:33.620,0.14,-0.14
2021-08-19 01:08:33.624,0.135,-0.14
2021-08-19 01:08:33.628,0.13,-0.13
2021-08-19 01:08:33.632,0.125,-0.135
2021-08-19 01:08:33.636,0.115,-0.14
2021-08-19 01:08:33.640,0.145,-0.13
2021-08-19 01:08:33.644,0.145,-0.125
2021-08-19 01:08:33.648,0.14,-0.15
2021-08-19 01:08:33.652,0.12,-0.155
2021-08-19 01:08:33.656,0.145,-0.165
2021-08-19 01:08:33.660,0.125,-0.135
2021-08-19 01:08:33.664,0.13,-0.145
2021-08-19 01:08:33.668,0.14,-0.15
2021-08-19 01:08:33.672,0.15,-0.13
2021-08-19 01:08:33.676,0.14,-0.145
2021-08-19 01:08:33.680,0.13,-0.16
2021-08-19 01:08:33.684,0.135,-0.16
2021-08-19 01:08:33.688,0.13,-0.16
2021-08-19 01:08:33.692,0.15,-0.16
2021-08-19 01:08:33.696,0.135,-0.145
2021-08-19 01:08:33.700,0.125,-0.155
2021-08-19 01:08:33.704,0.125,-0.145
2021-08-19 01:08:33.708,0.145,-0.155
2021-08-19 01:08:33.712,0.13,-0.155
2021-08-19 01:08:33.716,0.135,-0.165
2021-08-19 01:08:33.720,0.145,-0.17
2021-08-19 01:08:33.724,0.15,-0.155
2021-08-19 01:08:33.728,0.14,-0.135
2021-08-19 01:08:33.732,0.125,-0.145
2021-08-19 01:08:33.736,0.155,-0.155
2021-08-19 01:08:33.740,0.125,-0.14
2021-08-19 01:08:33.744,0.125,-0.155
2021-08-19 01:08:33.748,0.145,-0.145
2021-08-19 01:08:33.752,0.155,-0.14
2021-08-19 01:08:33.756,0.145,-0.15
2021-08-19 01:08:33.760,0.135,-0.15
2021-08-19 01:08:33.764,0.135,-0.145
2021-08-19 01:08:33.768,0.14,-0.14
2021-08-19 01:08:33.772,0.15,-0.13
2021-08-19 01:08:33.776,0.12,-0.145
2021-08-19 01:08:33.780,0.13,-0.15
2021-08-19 01:08:33.784,0.13,-0.14
2021-08-19 01:08:33.788,0.15,-0.13
2021-08-19 01:08:33.792,0.17,-0.14
2021-08-19 01:08:33.796,0.15,-0.145
2021-08-19 01:08:33.800,0.15,-0.135
2021-08-19 01:08:33.804,0.14,-0.15
2021-08-19 01:08:33.808,0.145,-0.145
2021-08-19 01:08:33.812,0.155,-0.14
2021-08-19 01:08:33.816,0.145,-0.145
2021-08-19 01:08:33.820,0.15,-0.13
2021-08-19 01:08:33.824,0.15,-0.145
2021-08-19 01:08:33.828,0.15,-0.13
2021-08-19 01:08:33.832,0.145,-0.15
2021-08-19 01:08:33.836,0.16,-0.13
2021-08-19 01:08:33.840,0.15,-0.135
2021-08-19 01:08:33.844,0.14,-0.135
2021-08-19 01:08:33.848,0.165,-0.12
2021-08-19 01:08:33.852,0.165,-0.13
2021-08-19 01:08:33.856,0.15,-0.12
2021-08-19 01:08:33.860,0.16,-0.12
2021-08-19 01:08:33.864,0.155,-0.12
2021-08-19 01:08:33.868,0.15,-0.105
2021-08-19 01:08:33.872,0.185,-0.11
2021-08-19 01:08:33.876,0.16,-0.11
2021-08-19 01:08:33.880,0.165,-0.115
2021-08-19 01:08:33.884,0.175,-0.105
2021-08-19 01:08:33.888,0.18,-0.115
2021-08-19 01:08:33.892,0.175,-0.1
2021-08-19 01:08:33.896,0.17,-0.1
2021-08-19 01:08:33.900,0.17,-0.1
2021-08-19 01:08:33.904,0.175,-0.11
2021-08-19 01:08:33.908,0.155,-0.095
2021-08-19 01:08:33.912,0.18,-0.11
2021-08-19 01:08:33.916,0.2,-0.105
2021-08-19 01:08:33.920,0.18,-0.08
2021-08-19 01:08:33.924,0.18,-0.08
2021-08-19 01:08:33.928,0.165,-0.04
2021-08-19 01:08:33.932,0.185,0.0
2021-08-19 01:08:33.936,0.165,0.03
2021-08-19 01:08:33.940,0.165,0.035
2021-08-19 01:08:33.944,0.18,0.05
2021-08-19 01:08:33.948,0.175,0.05
2021-08-19 01:08:33.952,0.225,0.075
2021-08-19 01:08:33.956,0.24,0.065
2021-08-19 01:08:33.960,0.245,0.07
2021-08-19 01:08:33.964,0.275,0.05
2021-08-19 01:08:33.968,0.3,0.055
2021-08-19 01:08:33.972,0.3,0.065
2021-08-19 01:08:33.976,0.28,0.085
2021-08-19 01:08:33.980,0.28,0.1
2021-08-19 01:08:33.984,0.24,0.07
2021-08-19 01:08:33.988,0.225,0.05
2021-08-19 01:08:33.992,0.195,0.0
2021-08-19 01:08:33.996,0.21,-0.03
2021-08-19 01:08:34.000,0.2,-0.05
2021-08-19 01:08:34.004,0.155,-0.06
2021-08-19 01:08:34.008,0.145,-0.04
2021-08-19 01:08:34.012,0.12,-0.02
2021-08-19 01:08:34.016,0.125,-0.025
2021-08-19 01:08:34.020,0.125,-0.015
2021-08-19 01:08:34.024,0.11,-0.01
2021-08-19 01:08:34.028,0.115,-0.04
2021-08-19 01:08:34.032,0.115,-0.055
2021-08-19 01:08:34.036,0.125,-0.06
2021-08-19 01:08:34.040,0.13,-0.06
2021-08-19 01:08:34.044,0.13,-0.08
2021-08-19 01:08:34.048,0.155,-0.095
2021-08-19 01:08:34.052,0.15,-0.1
2021-08-19 01:08:34.056,0.165,-0.11
2021-08-19 01:08:34.060,0.195,-0.11
2021-08-19 01:08:34.064,0.205,-0.11
2021-08-19 01:08:34.068,0.215,-0.1
2021-08-19 01:08:34.072,0.195,-0.105
2021-08-19 01:08:34.076,0.21,-0.085
2021-08-19 01:08:34.080,0.195,-0.105
2021-08-19 01:08:34.084,0.205,-0.1
2021-08-19 01:08:34.088,0.2,-0.09
2021-08-19 01:08:34.092,0.215,-0.105
2021-08-19 01:08:34.096,0.215,-0.075
2021-08-19 01:08:34.100,0.2,-0.085
2021-08-19 01:08:34.104,0.205,-0.085
2021-08-19 01:08:34.108,0.21,-0.085
2021-08-19 01:08:34.112,0.215,-0.06
2021-08-19 01:08:34.116,0.205,-0.06
2021-08-19 01:08:34.120,0.195,-0.05
2021-08-19 01:08:34.124,0.19,-0.02
2021-08-19 01:08:34.128,0.19,-0.005
2021-08-19 01:08:34.132,0.21,0.02
2021-08-19 01:08:34.136,0.19,0.04
2021-08-19 01:08:34.140,0.195,0.11
2021-08-19 01:08:34.144,0.215,0.315
2021-08-19 01:08:34.148,0.21,0.59
2021-08-19 01:08:34.152,0.255,0.83
2021-08-19 01:08:34.156,0.29,0.97
2021-08-19 01:08:34.160,0.235,1.085
2021-08-19 01:08:34.164,0.185,1.125
2021-08-19 01:08:34.168,0.17,1.06
2021-08-19 01:08:34.172,0.12,0.87
2021-08-19 01:08:34.176,0.0,0.525
2021-08-19 01:08:34.180,-0.235,0.26
2021-08-19 01:08:34.184,-0.54,0.285
2021-08-19 01:08:34.188,-0.865,0.395
2021-08-19 01:08:34.192,-1.1,0.285
2021-08-19 01:08:34.196,-1.225,-0.025
2021-08-19 01:08:34.200,-1.185,-0.32
2021-08-19 01:08:34.204,-0.985,-0.495
2021-08-19 01:08:34.208,-0.54,-0.585
2021-08-19 01:08:34.212,-0.11,-0.56
2021-08-19 01:08:34.216,0.09,-0.475
2021-08-19 01:08:34.220,0.115,-0.34
2021-08-19 01:08:34.224,0.085,-0.26
2021-08-19 01:08:34.228,0.09,-0.225
2021-08-19 01:08:34.232,0.09,-0.235
2021-08-19 01:08:34.236,0.11,-0.24
2021-08-19 01:08:34.240,0.15,-0.235
2021-08-19 01:08:34.244,0.215,-0.22
2021-08-19 01:08:34.248,0.255,-0.21
2021-08-19 01:08:34.252,0.295,-0.215
2021-08-19 01:08:34.256,0.31,-0.225
2021-08-19 01:08:34.260,0.295,-0.225
2021-08-19 01:08:34.264,0.325,-0.23
2021-08-19 01:08:34.268,0.325,-0.22
2021-08-19 01:08:34.272,0.35,-0.225
2021-08-19 01:08:34.276,0.345,-0.205
2021-08-19 01:08:34.280,0.355,-0.21
2021-08-19 01:08:34.284,0.335,-0.215
2021-08-19 01:08:34.288,0.33,-0.23
2021-08-19 01:08:34.292,0.345,-0.24
2021-08-19 01:08:34.296,0.35,-0.22
2021-08-19 01:08:34.300,0.355,-0.215
2021-08-19 01:08:34.304,0.35,-0.225
2021-08-19 01:08:34.308,0.355,-0.23
2021-08-19 01:08:34.312,0.365,-0.22
2021-08-19 01:08:34.316,0.35,-0.23
2021-08-19 01:08:34.320,0.35,-0.23
2021-08-19 01:08:34.324,0.355,-0.215
2021-08-19 01:08:34.328,0.35,-0.23
2021-08-19 01:08:34.332,0.335,-0.22
2021-08-19 01:08:34.336,0.34,-0.235
2021-08-19 01:08:34.340,0.34,-0.23
2021-08-19 01:08:34.344,0.335,-0.23
2021-08-19 01:08:34.348,0.325,-0.245
2021-08-19 01:08:34.352,0.34,-0.245
2021-08-19 01:08:34.356,0.345,-0.25
2021-08-19 01:08:34.360,0.335,-0.235
2021-08-19 01:08:34.364,0.335,-0.25
2021-08-19 01:08:34.368,0.34,-0.25
2021-08-19 01:08:34.372,0.35,-0.25
2021-08-19 01:08:34.376,0.33,-0.25
2021-08-19 01:08:34.380,0.32,-0.24
2021-08-19 01:08:34.384,0.32,-0.26
2021-08-19 01:08:34.388,0.33,-0.26
2021-08-19 01:08:34.392,0.32,-0.24
2021-08-19 01:08:34.396,0.31,-0.25
2021-08-19 01:08:34.400,0.31,-0.26
2021-08-19 01:08:34.404,0.315,-0.26
2021-08-19 01:08:34.408,0.33,-0.26
2021-08-19 01:08:34.412,0.325,-0.26
2021-08-19 01:08:34.416,0.315,-0.225
2021-08-19 01:08:34.420,0.34,-0.235
2021-08-19 01:08:34.424,0.335,-0.215
2021-08-19 01:08:34.428,0.325,-0.21
2021-08-19 01:08:34.432,0.305,-0.21
2021-08-19 01:08:34.436,0.315,-0.17
2021-08-19 01:08:34.440,0.295,-0.18
2021-08-19 01:08:34.444,0.285,-0.16
2021-08-19 01:08:34.448,0.315,-0.145
2021-08-19 01:08:34.452,0.285,-0.115
2021-08-19 01:08:34.456,0.28,-0.09
2021-08-19 01:08:34.460,0.265,-0.08
2021-08-19 01:08:34.464,0.295,-0.06
2021-08-19 01:08:34.468,0.29,-0.04
2021-08-19 01:08:34.472,0.255,-0.04
2021-08-19 01:08:34.476,0.245,-0.035
2021-08-19 01:08:34.480,0.255,-0.02
2021-08-19 01:08:34.484,0.25,-0.005
2021-08-19 01:08:34.488,0.25,0.0
2021-08-19 01:08:34.492,0.245,-0.005
2021-08-19 01:08:34.496,0.235,-0.005
2021-08-19 01:08:34.500,0.225,0.02
2021-08-19 01:08:34.504,0.235,0.015
2021-08-19 01:08:34.508,0.225,0.01
2021-08-19 01:08:34.512,0.23,0.01
2021-08-19 01:08:34.516,0.255,0.015
2021-08-19 01:08:34.520,0.25,0.015
2021-08-19 01:08:34.524,0.245,0.0
2021-08-19 01:08:34.528,0.25,0.0
2021-08-19 01:08:34.532,0.235,0.0
2021-08-19 01:08:34.536,0.23,-0.005
2021-08-19 01:08:34.540,0.24,-0.015
2021-08-19 01:08:34.544,0.24,-0.02
2021-08-19 01:08:34.548,0.26,0.0
2021-08-19 01:08:34.552,0.24,-0.005
2021-08-19 01:08:34.556,0.265,-0.01
2021-08-19 01:08:34.560,0.26,-0.02
2021-08-19 01:08:34.564,0.27,-0.015
2021-08-19 01:08:34.568,0.25,-0.04
2021-08-19 01:08:34.572,0.275,-0.03
2021-08-19 01:08:34.576,0.265,-0.02
2021-08-19 01:08:34.580,0.275,-0.02
2021-08-19 01:08:34.584,0.295,-0.035
2021-08-19 01:08:34.588,0.265,-0.035
2021-08-19 01:08:34.592,0.275,-0.03
2021-08-19 01:08:34.596,0.275,-0.05
2021-08-19 01:08:34.600,0.275,-0.05
2021-08-19 01:08:34.604,0.275,-0.05
2021-08-19 01:08:34.608,0.28,-0.035
2021-08-19 01:08:34.612,0.285,-0.06
2021-08-19 01:08:34.616,0.27,-0.07
2021-08-19 01:08:34.620,0.27,-0.07
2021-08-19 01:08:34.624,0.29,-0.055
2021-08-19 01:08:34.628,0.285,-0.06
2021-08-19 01:08:34.632,0.275,-0.055
2021-08-19 01:08:34.636,0.28,-0.07
2021-08-19 01:08:34.640,0.29,-0.08
2021-08-19 01:08:34.644,0.275,-0.055
2021-08-19 01:08:34.648,0.305,-0.08
2021-08-19 01:08:34.652,0.305,-0.06
2021-08-19 01:08:34.656,0.29,-0.06
2021-08-19 01:08:34.660,0.275,-0.055
2021-08-19 01:08:34.664,0.29,-0.07
2021-08-19 01:08:34.668,0.3,-0.055
2021-08-19 01:08:34.672,0.275,-0.065
2021-08-19 01:08:34.676,0.305,-0.065
2021-08-19 01:08:34.680,0.3,-0.05
2021-08-19 01:08:34.684,0.32,-0.065
2021-08-19 01:08:34.688,0.3,-0.045
2021-08-19 01:08:34.692,0.285,-0.045
2021-08-19 01:08:34.696,0.295,-0.045
2021-08-19 01:08:34.700,0.27,-0.06
2021-08-19 01:08:34.704,0.29,-0.055
2021-08-19 01:08:34.708,0.295,-0.05
2021-08-19 01:08:34.712,0.27,-0.065
2021-08-19 01:08:34.716,0.285,-0.075
2021-08-19 01:08:34.720,0.265,-0.065
2021-08-19 01:08:34.724,0.275,-0.07
2021-08-19 01:08:34.728,0.275,-0.08
2021-08-19 01:08:34.732,0.26,-0.05
2021-08-19 01:08:34.736,0.285,-0.055
2021-08-19 01:08:34.740,0.28,-0.065
2021-08-19 01:08:34.744,0.29,-0.06
2021-08-19 01:08:34.748,0.27,-0.06
2021-08-19 01:08:34.752,0.27,-0.06
2021-08-19 01:08:34.756,0.29,-0.055
2021-08-19 01:08:34.760,0.265,-0.075
2021-08-19 01:08:34.764,0.26,-0.065
2021-08-19 01:08:34.768,0.285,-0.06
2021-08-19 01:08:34.772,0.275,-0.055
2021-08-19 01:08:34.776,0.3,-0.055
2021-08-19 01:08:34.780,0.26,-0.05
2021-08-19 01:08:34.784,0.26,-0.04
2021-08-19 01:08:34.788,0.27,-0.045
2021-08-19 01:08:34.792,0.28,-0.05
2021-08-19 01:08:34.796,0.31,-0.045
2021-08-19 01:08:34.800,0.29,-0.06
2021-08-19 01:08:34.804,0.29,-0.045
2021-08-19 01:08:34.808,0.275,-0.05
2021-08-19 01:08:34.812,0.285,-0.04
2021-08-19 01:08:34.816,0.285,-0.055
2021-08-19 01:08:34.820,0.285,-0.03
2021-08-19 01:08:34.824,0.28,-0.03
2021-08-19 01:08:34.828,0.305,0.0
2021-08-19 01:08:34.832,0.27,0.025
2021-08-19 01:08:34.836,0.28,0.075
2021-08-19 01:08:34.840,0.305,0.075
2021-08-19 01:08:34.844,0.29,0.105
2021-08-19 01:08:34.848,0.305,0.13
2021-08-19 01:08:34.852,0.315,0.115
2021-08-19 01:08:34.856,0.34,0.115
2021-08-19 01:08:34.860,0.365,0.14
2021-08-19 01:08:34.864,0.385,0.125
2021-08-19 01:08:34.868,0.385,0.12
2021-08-19 01:08:34.872,0.4,0.105
2021-08-19 01:08:34.876,0.39,0.12
2021-08-19 01:08:34.880,0.39,0.135
2021-08-19 01:08:34.884,0.4,0.135
2021-08-19 01:08:34.888,0.39,0.14
2021-08-19 01:08:34.892,0.365,0.105
2021-08-19 01:08:34.896,0.345,0.06
2021-08-19 01:08:34.900,0.335,0.035
2021-08-19 01:08:34.904,0.315,0.0
2021-08-19 01:08:34.908,0.285,0.015
2021-08-19 01:08:34.912,0.245,0.015
2021-08-19 01:08:34.916,0.25,0.015
2021-08-19 01:08:34.920,0.235,0.015
2021-08-19 01:08:34.924,0.225,0.02
2021-08-19 01:08:34.928,0.215,0.03
2021-08-19 01:08:34.932,0.225,0.01
2021-08-19 01:08:34.936,0.225,0.005
2021-08-19 01:08:34.940,0.23,0.0
2021-08-19 01:08:34.944,0.26,0.0
2021-08-19 01:08:34.948,0.255,-0.015
2021-08-19 01:08:34.952,0.25,-0.045
2021-08-19 01:08:34.956,0.255,-0.05
2021-08-19 01:08:34.960,0.245,-0.065
2021-08-19 01:08:34.964,0.27,-0.07
2021-08-19 01:08:34.968,0.315,-0.06
2021-08-19 01:08:34.972,0.305,-0.065
2021-08-19 01:08:34.976,0.33,-0.045
2021-08-19 01:08:34.980,0.31,-0.06
2021-08-19 01:08:34.984,0.31,-0.05
2021-08-19 01:08:34.988,0.315,-0.03
2021-08-19 01:08:34.992,0.29,-0.04
2021-08-19 01:08:34.996,0.28,-0.05
2021-08-19 01:08:35.000,0.31,-0.05
2021-08-19 01:08:35.004,0.31,-0.04
2021-08-19 01:08:35.008,0.3,-0.06
2021-08-19 01:08:35.012,0.285,-0.04
2021-08-19 01:08:35.016,0.29,-0.045
2021-08-19 01:08:35.020,0.285,-0.045
2021-08-19 01:08:35.024,0.275,-0.05
2021-08-19 01:08:35.028,0.295,-0.02
2021-08-19 01:08:35.032,0.3,0.005
2021-08-19 01:08:35.036,0.295,0.05
2021-08-19 01:08:35.040,0.285,0.05
2021-08-19 01:08:35.044,0.29,0.075
2021-08-19 01:08:35.048,0.29,0.185
2021-08-19 01:08:35.052,0.315,0.405
2021-08-19 01:08:35.056,0.315,0.68
2021-08-19 01:08:35.060,0.355,0.84
2021-08-19 01:08:35.064,0.355,0.92
2021-08-19 01:08:35.068,0.285,1.0
2021-08-19 01:08:35.072,0.245,0.99
2021-08-19 01:08:35.076,0.22,0.89
2021-08-19 01:08:35.080,0.14,0.655
2021-08-19 01:08:35.084,-0.005,0.325
2021-08-19 01:08:35.088,-0.29,0.185
2021-08-19 01:08:35.092,-0.66,0.3
2021-08-19 01:08:35.096,-0.975,0.435
2021-08-19 01:08:35.100,-1.16,0.295
2021-08-19 01:08:35.104,-1.235,-0.035
2021-08-19 01:08:35.108,-1.185,-0.33
2021-08-19 01:08:35.112,-0.86,-0.505
2021-08-19 01:08:35.116,-0.4,-0.565
2021-08-19 01:08:35.120,0.005,-0.55
2021-08-19 01:08:35.124,0.2,-0.42
2021-08-19 01:08:35.128,0.195,-0.315
2021-08-19 01:08:35.132,0.17,-0.23
2021-08-19 01:08:35.136,0.165,-0.225
2021-08-19 01:08:35.140,0.155,-0.205
2021-08-19 01:08:35.144,0.18,-0.21
2021-08-19 01:08:35.148,0.215,-0.225
2021-08-19 01:08:35.152,0.3,-0.2
2021-08-19 01:08:35.156,0.33,-0.205
2021-08-19 01:08:35.160,0.38,-0.215
2021-08-19 01:08:35.164,0.37,-0.225
2021-08-19 01:08:35.168,0.39,-0.195
2021-08-19 01:08:35.172,0.39,-0.21
2021-08-19 01:08:35.176,0.405,-0.21
2021-08-19 01:08:35.180,0.41,-0.205
2021-08-19 01:08:35.184,0.39,-0.21
2021-08-19 01:08:35.188,0.395,-0.21
2021-08-19 01:08:35.192,0.405,-0.205
2021-08-19 01:08:35.196,0.41,-0.2
2021-08-19 01:08:35.200,0.42,-0.2
2021-08-19 01:08:35.204,0.425,-0.195
2021-08-19 01:08:35.208,0.405,-0.18
2021-08-19 01:08:35.212,0.42,-0.205
2021-08-19 01:08:35.216,0.405,-0.19
2021-08-19 01:08:35.220,0.42,-0.2
2021-08-19 01:08:35.224,0.4,-0.185
2021-08-19 01:08:35.228,0.39,-0.2
2021-08-19 01:08:35.232,0.425,-0.21
2021-08-19 01:08:35.236,0.415,-0.195
2021-08-19 01:08:35.240,0.395,-0.205
2021-08-19 01:08:35.244,0.405,-0.2
2021-08-19 01:08:35.248,0.405,-0.225
2021-08-19 01:08:35.252,0.42,-0.21
2021-08-19 01:08:35.256,0.4,-0.215
2021-08-19 01:08:35.260,0.405,-0.205
2021-08-19 01:08:35.264,0.4,-0.215
2021-08-19 01:08:35.268,0.41,-0.21
2021-08-19 01:08:35.272,0.39,-0.22
2021-08-19 01:08:35.276,0.4,-0.23
2021-08-19 01:08:35.280,0.405,-0.24
2021-08-19 01:08:35.284,0.4,-0.225
2021-08-19 01:08:35.288,0.38,-0.25
2021-08-19 01:08:35.292,0.37,-0.25
2021-08-19 01:08:35.296,0.385,-0.24
2021-08-19 01:08:35.300,0.375,-0.255
2021-08-19 01:08:35.304,0.38,-0.255
2021-08-19 01:08:35.308,0.375,-0.265
2021-08-19 01:08:35.312,0.365,-0.255
2021-08-19 01:08:35.316,0.36,-0.245
2021-08-19 01:08:35.320,0.39,-0.27
2021-08-19 01:08:35.324,0.35,-0.255
2021-08-19 01:08:35.328,0.345,-0.25
2021-08-19 01:08:35.332,0.355,-0.235
2021-08-19 01:08:35.336,0.335,-0.22
2021-08-19 01:08:35.340,0.345,-0.19
2021-08-19 01:08:35.344,0.34,-0.195
2021-08-19 01:08:35.348,0.34,-0.195
2021-08-19 01:08:35.352,0.345,-0.17
2021-08-19 01:08:35.356,0.315,-0.18
2021-08-19 01:08:35.360,0.33,-0.15
2021-08-19 01:08:35.364,0.325,-0.115
2021-08-19 01:08:35.368,0.29,-0.12
2021-08-19 01:08:35.372,0.305,-0.125
2021-08-19 01:08:35.376,0.3,-0.095
2021-08-19 01:08:35.380,0.29,-0.08
2021-08-19 01:08:35.384,0.275,-0.075
2021-08-19 01:08:35.388,0.27,-0.075
2021-08-19 01:08:35.392,0.26,-0.08
2021-08-19 01:08:35.396,0.245,-0.06
2021-08-19 01:08:35.400,0.265,-0.07
2021-08-19 01:08:35.404,0.265,-0.055
2021-08-19 01:08:35.408,0.245,-0.08
2021-08-19 01:08:35.412,0.255,-0.06
2021-08-19 01:08:35.416,0.225,-0.07
2021-08-19 01:08:35.420,0.22,-0.07
2021-08-19 01:08:35.424,0.26,-0.075
2021-08-19 01:08:35.428,0.24,-0.075
2021-08-19 01:08:35.432,0.25,-0.08
2021-08-19 01:08:35.436,0.255,-0.1
2021-08-19 01:08:35.440,0.265,-0.1
2021-08-19 01:08:35.444,0.255,-0.085
2021-08-19 01:08:35.448,0.26,-0.11
2021-08-19 01:08:35.452,0.24,-0.11
2021-08-19 01:08:35.456,0.265,-0.105
2021-08-19 01:08:35.460,0.26,-0.115
2021-08-19 01:08:35.464,0.25,-0.12
2021-08-19 01:08:35.468,0.27,-0.115
2021-08-19 01:08:35.472,0.26,-0.115
2021-08-19 01:08:35.476,0.27,-0.085
2021-08-19 01:08:35.480,0.27,-0.12
2021-08-19 01:08:35.484,0.235,-0.135
2021-08-19 01:08:35.488,0.245,-0.13
2021-08-19 01:08:35.492,0.275,-0.11
2021-08-19 01:08:35.496,0.255,-0.155
2021-08-19 01:08:35.500,0.26,-0.145
2021-08-19 01:08:35.504,0.25,-0.145
2021-08-19 01:08:35.508,0.25,-0.15
2021-08-19 01:08:35.512,0.25,-0.145
2021-08-19 01:08:35.516,0.27,-0.155
2021-08-19 01:08:35.520,0.27,-0.14
2021-08-19 01:08:35.524,0.265,-0.155
2021-08-19 01:08:35.528,0.25,-0.18
2021-08-19 01:08:35.532,0.265,-0.155
2021-08-19 01:08:35.536,0.275,-0.15
2021-08-19 01:08:35.540,0.28,-0.165
2021-08-19 01:08:35.544,0.26,-0.165
2021-08-19 01:08:35.548,0.24,-0.17
2021-08-19 01:08:35.552,0.27,-0.15
2021-08-19 01:08:35.556,0.265,-0.15
2021-08-19 01:08:35.560,0.27,-0.16
2021-08-19 01:08:35.564,0.26,-0.175
2021-08-19 01:08:35.568,0.255,-0.185
2021-08-19 01:08:35.572,0.23,-0.175
2021-08-19 01:08:35.576,0.24,-0.16
2021-08-19 01:08:35.580,0.24,-0.155
2021-08-19 01:08:35.584,0.25,-0.18
2021-08-19 01:08:35.588,0.245,-0.165
2021-08-19 01:08:35.592,0.235,-0.16
2021-08-19 01:08:35.596,0.24,-0.185
2021-08-19 01:08:35.600,0.235,-0.17
2021-08-19 01:08:35.604,0.23,-0.18
2021-08-19 01:08:35.608,0.23,-0.18
2021-08-19 01:08:35.612,0.235,-0.19
2021-08-19 01:08:35.616,0.235,-0.19
2021-08-19 01:08:35.620,0.245,-0.2
2021-08-19 01:08:35.624,0.23,-0.18
2021-08-19 01:08:35.628,0.235,-0.185
2021-08-19 01:08:35.632,0.21,-0.18
2021-08-19 01:08:35.636,0.215,-0.175
2021-08-19 01:08:35.640,0.22,-0.195
2021-08-19 01:08:35.644,0.22,-0.17
2021-08-19 01:08:35.648,0.215,-0.185
2021-08-19 01:08:35.652,0.235,-0.19
2021-08-19 01:08:35.656,0.23,-0.185
2021-08-19 01:08:35.660,0.2,-0.195
2021-08-19 01:08:35.664,0.19,-0.19
2021-08-19 01:08:35.668,0.21,-0.19
2021-08-19 01:08:35.672,0.215,-0.18
2021-08-19 01:08:35.676,0.21,-0.18
2021-08-19 01:08:35.680,0.2,-0.175
2021-08-19 01:08:35.684,0.22,-0.185
2021-08-19 01:08:35.688,0.22,-0.205
2021-08-19 01:08:35.692,0.21,-0.195
2021-08-19 01:08:35.696,0.215,-0.18
2021-08-19 01:08:35.700,0.21,-0.2
2021-08-19 01:08:35.704,0.2,-0.2
2021-08-19 01:08:35.708,0.195,-0.2
2021-08-19 01:08:35.712,0.195,-0.195
2021-08-19 01:08:35.716,0.175,-0.19
2021-08-19 01:08:35.720,0.2,-0.185
2021-08-19 01:08:35.724,0.195,-0.18
2021-08-19 01:08:35.728,0.205,-0.17
2021-08-19 01:08:35.732,0.2,-0.19
2021-08-19 01:08:35.736,0.195,-0.16
2021-08-19 01:08:35.740,0.2,-0.145
2021-08-19 01:08:35.744,0.195,-0.125
2021-08-19 01:08:35.748,0.205,-0.08
2021-08-19 01:08:35.752,0.19,-0.02
2021-08-19 01:08:35.756,0.215,-0.01
2021-08-19 01:08:35.760,0.205,-0.015
2021-08-19 01:08:35.764,0.2,-0.04
2021-08-19 01:08:35.768,0.25,-0.025
2021-08-19 01:08:35.772,0.275,-0.02
2021-08-19 01:08:35.776,0.265,-0.03
2021-08-19 01:08:35.780,0.305,-0.03
2021-08-19 01:08:35.784,0.3,-0.02
2021-08-19 01:08:35.788,0.33,-0.01
2021-08-19 01:08:35.792,0.3,-0.005
2021-08-19 01:08:35.796,0.29,0.0
2021-08-19 01:08:35.800,0.26,-0.01
2021-08-19 01:08:35.804,0.245,-0.055
2021-08-19 01:08:35.808,0.24,-0.12
2021-08-19 01:08:35.812,0.205,-0.13
2021-08-19 01:08:35.816,0.19,-0.14
2021-08-19 01:08:35.820,0.185,-0.13
2021-08-19 01:08:35.824,0.15,-0.125
2021-08-19 01:08:35.828,0.145,-0.13
2021-08-19 01:08:35.832,0.14,-0.15
2021-08-19 01:08:35.836,0.135,-0.145
2021-08-19 01:08:35.840,0.13,-0.145
2021-08-19 01:08:35.844,0.15,-0.165
2021-08-19 01:08:35.848,0.155,-0.155
2021-08-19 01:08:35.852,0.18,-0.16
2021-08-19 01:08:35.856,0.185,-0.19
2021-08-19 01:08:35.860,0.165,-0.205
2021-08-19 01:08:35.864,0.165,-0.23
2021-08-19 01:08:35.868,0.165,-0.225
2021-08-19 01:08:35.872,0.17,-0.225
2021-08-19 01:08:35.876,0.2,-0.215
2021-08-19 01:08:35.880,0.23,-0.215
2021-08-19 01:08:35.884,0.24,-0.195
2021-08-19 01:08:35.888,0.23,-0.195
2021-08-19 01:08:35.892,0.21,-0.2
2021-08-19 01:08:35.896,0.21,-0.205
2021-08-19 01:08:35.900,0.195,-0.19
2021-08-19 01:08:35.904,0.21,-0.19
2021-08-19 01:08:35.908,0.2,-0.19
2021-08-19 01:08:35.912,0.2,-0.19
2021-08-19 01:08:35.916,0.205,-0.2
2021-08-19 01:08:35.920,0.2,-0.2
2021-08-19 01:08:35.924,0.19,-0.19
2021-08-19 01:08:35.928,0.175,-0.18
2021-08-19 01:08:35.932,0.19,-0.155
2021-08-19 01:08:35.936,0.175,-0.12
2021-08-19 01:08:35.940,0.19,-0.1
2021-08-19 01:08:35.944,0.19,-0.1
2021-08-19 01:08:35.948,0.195,-0.035
2021-08-19 01:08:35.952,0.205,0.13
2021-08-19 01:08:35.956,0.205,0.37
2021-08-19 01:08:35.960,0.22,0.575
2021-08-19 01:08:35.964,0.255,0.72
2021-08-19 01:08:35.968,0.205,0.82
2021-08-19 01:08:35.972,0.14,0.865
2021-08-19 01:08:35.976,0.11,0.815
2021-08-19 01:08:35.980,0.075,0.67
2021-08-19 01:08:35.984,-0.03,0.36
2021-08-19 01:08:35.988,-0.245,0.155
2021-08-19 01:08:35.992,-0.555,0.17
2021-08-19 01:08:35.996,-0.885,0.26
2021-08-19 01:08:36.000,-1.11,0.16
2021-08-19 01:08:36.004,-1.215,-0.15
2021-08-19 01:08:36.008,-1.19,-0.44
2021-08-19 01:08:36.012,-1.0,-0.605
2021-08-19 01:08:36.016,-0.575,-0.66
2021-08-19 01:08:36.020,-0.15,-0.665
2021-08-19 01:08:36.024,0.04,-0.58
2021-08-19 01:08:36.028,0.07,-0.46
2021-08-19 01:08:36.032,0.05,-0.39
2021-08-19 01:08:36.036,0.05,-0.37
2021-08-19 01:08:36.040,0.03,-0.37
2021-08-19 01:08:36.044,0.05,-0.37
2021-08-19 01:08:36.048,0.08,-0.38
2021-08-19 01:08:36.052,0.14,-0.36
2021-08-19 01:08:36.056,0.21,-0.395
2021-08-19 01:08:36.060,0.255,-0.37
2021-08-19 01:08:36.064,0.265,-0.38
2021-08-19 01:08:36.068,0.255,-0.375
2021-08-19 01:08:36.072,0.26,-0.38
2021-08-19 01:08:36.076,0.265,-0.38
2021-08-19 01:08:36.080,0.265,-0.39
2021-08-19 01:08:36.084,0.28,-0.375
2021-08-19 01:08:36.088,0.255,-0.37
2021-08-19 01:08:36.092,0.26,-0.37
2021-08-19 01:08:36.096,0.265,-0.35
2021-08-19 01:08:36.100,0.27,-0.355
2021-08-19 01:08:36.104,0.25,-0.37
2021-08-19 01:08:36.108,0.245,-0.365
2021-08-19 01:08:36.112,0.255,-0.375
2021-08-19 01:08:36.116,0.255,-0.385
2021-08-19 01:08:36.120,0.24,-0.38
2021-08-19 01:08:36.124,0.255,-0.38
2021-08-19 01:08:36.128,0.25,-0.4
2021-08-19 01:08:36.132,0.275,-0.385
2021-08-19 01:08:36.136,0.27,-0.375
2021-08-19 01:08:36.140,0.26,-0.395
2021-08-19 01:08:36.144,0.27,-0.385
2021-08-19 01:08:36.148,0.265,-0.38
2021-08-19 01:08:36.152,0.27,-0.37
2021-08-19 01:08:36.156,0.275,-0.395
2021-08-19 01:08:36.160,0.245,-0.395
2021-08-19 01:08:36.164,0.25,-0.4
2021-08-19 01:08:36.168,0.265,-0.385
2021-08-19 01:08:36.172,0.22,-0.395
2021-08-19 01:08:36.176,0.255,-0.375
2021-08-19 01:08:36.180,0.255,-0.38
2021-08-19 01:08:36.184,0.245,-0.39
2021-08-19 01:08:36.188,0.24,-0.385
2021-08-19 01:08:36.192,0.245,-0.39
2021-08-19 01:08:36.196,0.23,-0.405
2021-08-19 01:08:36.200,0.215,-0.38
2021-08-19 01:08:36.204,0.21,-0.375
2021-08-19 01:08:36.208,0.215,-0.355
2021-08-19 01:08:36.212,0.215,-0.385
2021-08-19 01:08:36.216,0.255,-0.375
2021-08-19 01:08:36.220,0.23,-0.38
2021-08-19 01:08:36.224,0.215,-0.37
2021-08-19 01:08:36.228,0.205,-0.365
2021-08-19 01:08:36.232,0.25,-0.37
2021-08-19 01:08:36.236,0.195,-0.365
2021-08-19 01:08:36.240,0.215,-0.335
2021-08-19 01:08:36.244,0.2,-0.32
2021-08-19 01:08:36.248,0.185,-0.29
2021-08-19 01:08:36.252,0.185,-0.29
2021-08-19 01:08:36.256,0.2,-0.28
2021-08-19 01:08:36.260,0.175,-0.28
2021-08-19 01:08:36.264,0.155,-0.26
2021-08-19 01:08:36.268,0.165,-0.25
2021-08-19 01:08:36.272,0.135,-0.21
2021-08-19 01:08:36.276,0.135,-0.205
2021-08-19 01:08:36.280,0.11,-0.19
2021-08-19 01:08:36.284,0.125,-0.175
2021-08-19 01:08:36.288,0.11,-0.17
2021-08-19 01:08:36.292,0.11,-0.18
2021-08-19 01:08:36.296,0.115,-0.18
2021-08-19 01:08:36.300,0.12,-0.2
2021-08-19 01:08:36.304,0.125,-0.19
2021-08-19 01:08:36.308,0.135,-0.19
2021-08-19 01:08:36.312,0.115,-0.175
2021-08-19 01:08:36.316,0.105,-0.175
2021-08-19 01:08:36.320,0.135,-0.2
2021-08-19 01:08:36.324,0.105,-0.19
2021-08-19 01:08:36.328,0.08,-0.195
2021-08-19 01:08:36.332,0.12,-0.18
2021-08-19 01:08:36.336,0.115,-0.215
2021-08-19 01:08:36.340,0.1,-0.2
2021-08-19 01:08:36.344,0.11,-0.195
2021-08-19 01:08:36.348,0.11,-0.205
2021-08-19 01:08:36.352,0.12,-0.22
2021-08-19 01:08:36.356,0.14,-0.23
2021-08-19 01:08:36.360,0.105,-0.24
2021-08-19 01:08:36.364,0.11,-0.215
2021-08-19 01:08:36.368,0.11,-0.23
2021-08-19 01:08:36.372,0.125,-0.23
2021-08-19 01:08:36.376,0.14,-0.235
2021-08-19 01:08:36.380,0.12,-0.23
2021-08-19 01:08:36.384,0.105,-0.22
2021-08-19 01:08:36.388,0.105,-0.225
2021-08-19 01:08:36.392,0.12,-0.23
2021-08-19 01:08:36.396,0.12,-0.22
2021-08-19 01:08:36.400,0.125,-0.26
2021-08-19 01:08:36.404,0.12,-0.26
2021-08-19 01:08:36.408,0.12,-0.27
2021-08-19 01:08:36.412,0.125,-0.275
2021-08-19 01:08:36.416,0.125,-0.26
2021-08-19 01:08:36.420,0.11,-0.26
2021-08-19 01:08:36.424,0.115,-0.27
2021-08-19 01:08:36.428,0.11,-0.24
2021-08-19 01:08:36.432,0.13,-0.255
2021-08-19 01:08:36.436,0.125,-0.275
2021-08-19 01:08:36.440,0.11,-0.3
2021-08-19 01:08:36.444,0.11,-0.265
2021-08-19 01:08:36.448,0.125,-0.29
2021-08-19 01:08:36.452,0.115,-0.275
2021-08-19 01:08:36.456,0.1,-0.27
2021-08-19 01:08:36.460,0.1,-0.27
2021-08-19 01:08:36.464,0.105,-0.26
2021-08-19 01:08:36.468,0.13,-0.26
2021-08-19 01:08:36.472,0.12,-0.26
2021-08-19 01:08:36.476,0.1,-0.255
2021-08-19 01:08:36.480,0.09,-0.27
2021-08-19 01:08:36.484,0.1,-0.26
2021-08-19 01:08:36.488,0.095,-0.26
2021-08-19 01:08:36.492,0.09,-0.255
2021-08-19 01:08:36.496,0.115,-0.275
2021-08-19 01:08:36.500,0.105,-0.25
2021-08-19 01:08:36.504,0.085,-0.275
2021-08-19 01:08:36.508,0.11,-0.25
2021-08-19 01:08:36.512,0.1,-0.255
2021-08-19 01:08:36.516,0.09,-0.255
2021-08-19 01:08:36.520,0.11,-0.28
2021-08-19 01:08:36.524,0.12,-0.255
2021-08-19 01:08:36.528,0.075,-0.25
2021-08-19 01:08:36.532,0.1,-0.255
2021-08-19 01:08:36.536,0.095,-0.245
2021-08-19 01:08:36.540,0.115,-0.255
2021-08-19 01:08:36.544,0.115,-0.27
2021-08-19 01:08:36.548,0.085,-0.23
2021-08-19 01:08:36.552,0.095,-0.245
2021-08-19 01:08:36.556,0.105,-0.255
2021-08-19 01:08:36.560,0.08,-0.255
2021-08-19 01:08:36.564,0.095,-0.23
2021-08-19 01:08:36.568,0.07,-0.255
2021-08-19 01:08:36.572,0.08,-0.265
2021-08-19 01:08:36.576,0.075,-0.27
2021-08-19 01:08:36.580,0.09,-0.25
2021-08-19 01:08:36.584,0.09,-0.265
2021-08-19 01:08:36.588,0.075,-0.25
2021-08-19 01:08:36.592,0.06,-0.26
2021-08-19 01:08:36.596,0.075,-0.235
2021-08-19 01:08:36.600,0.07,-0.25
2021-08-19 01:08:36.604,0.06,-0.27
2021-08-19 01:08:36.608,0.07,-0.235
2021-08-19 01:08:36.612,0.07,-0.24
2021-08-19 01:08:36.616,0.07,-0.26
2021-08-19 01:08:36.620,0.07,-0.23
2021-08-19 01:08:36.624,0.08,-0.205
2021-08-19 01:08:36.628,0.08,-0.15
2021-08-19 01:08:36.632,0.075,-0.13
2021-08-19 01:08:36.636,0.055,-0.105
2021-08-19 01:08:36.640,0.055,-0.07
2021-08-19 01:08:36.644,0.065,-0.09
2021-08-19 01:08:36.648,0.095,-0.06
2021-08-19 01:08:36.652,0.11,-0.045
2021-08-19 01:08:36.656,0.14,-0.055
2021-08-19 01:08:36.660,0.14,-0.06
2021-08-19 01:08:36.664,0.16,-0.08
2021-08-19 01:08:36.668,0.185,-0.07
2021-08-19 01:08:36.672,0.185,-0.06
2021-08-19 01:08:36.676,0.155,-0.04
2021-08-19 01:08:36.680,0.15,-0.035
2021-08-19 01:08:36.684,0.14,-0.04
2021-08-19 01:08:36.688,0.145,-0.05
2021-08-19 01:08:36.692,0.115,-0.105
2021-08-19 01:08:36.696,0.1,-0.13
2021-08-19 01:08:36.700,0.08,-0.15
2021-08-19 01:08:36.704,0.065,-0.17
2021-08-19 01:08:36.708,0.045,-0.155
2021-08-19 01:08:36.712,0.045,-0.145
2021-08-19 01:08:36.716,0.025,-0.14
2021-08-19 01:08:36.720,0.01,-0.14
2021-08-19 01:08:36.724,-0.015,-0.15
2021-08-19 01:08:36.728,0.01,-0.16
2021-08-19 01:08:36.732,0.005,-0.15
2021-08-19 01:08:36.736,0.015,-0.16
2021-08-19 01:08:36.740,0.025,-0.17
2021-08-19 01:08:36.744,0.025,-0.19
2021-08-19 01:08:36.748,0.01,-0.22
2021-08-19 01:08:36.752,0.01,-0.23
2021-08-19 01:08:36.756,0.015,-0.24
2021-08-19 01:08:36.760,0.055,-0.215
2021-08-19 01:08:36.764,0.09,-0.21
2021-08-19 01:08:36.768,0.07,-0.21
2021-08-19 01:08:36.772,0.065,-0.215
2021-08-19 01:08:36.776,0.085,-0.225
2021-08-19 01:08:36.780,0.06,-0.21
2021-08-19 01:08:36.784,0.07,-0.205
2021-08-19 01:08:36.788,0.03,-0.205
2021-08-19 01:08:36.792,0.045,-0.21
2021-08-19 01:08:36.796,0.06,-0.2
2021-08-19 01:08:36.800,0.065,-0.19
2021-08-19 01:08:36.804,0.06,-0.19
2021-08-19 01:08:36.808,0.06,-0.165
2021-08-19 01:08:36.812,0.07,-0.175
2021-08-19 01:08:36.816,0.055,-0.155
2021-08-19 01:08:36.820,0.085,-0.13
2021-08-19 01:08:36.824,0.06,-0.105
2021-08-19 01:08:36.828,0.045,-0.07
2021-08-19 01:08:36.832,0.055,-0.07
2021-08-19 01:08:36.836,0.07,-0.03
2021-08-19 01:08:36.840,0.045,0.11
2021-08-19 01:08:36.844,0.05,0.37
2021-08-19 01:08:36.848,0.095,0.58
2021-08-19 01:08:36.852,0.12,0.795
2021-08-19 01:08:36.856,0.1,0.97
2021-08-19 01:08:36.860,0.065,1.105
2021-08-19 01:08:36.864,0.035,1.18
2021-08-19 01:08:36.868,0.015,1.13
2021-08-19 01:08:36.872,-0.01,0.895
2021-08-19 01:08:36.876,-0.13,0.57
2021-08-19 01:08:36.880,-0.33,0.315
2021-08-19 01:08:36.884,-0.63,0.285
2021-08-19 01:08:36.888,-0.92,0.275
2021-08-19 01:08:36.892,-1.07,0.115
2021-08-19 01:08:36.896,-1.13,-0.18
2021-08-19 01:08:36.900,-1.07,-0.44
2021-08-19 01:08:36.904,-0.87,-0.585
2021-08-19 01:08:36.908,-0.535,-0.635
2021-08-19 01:08:36.912,-0.2,-0.61
2021-08-19 01:08:36.916,-0.055,-0.525
2021-08-19 01:08:36.920,-0.06,-0.42
2021-08-19 01:08:36.924,-0.075,-0.315
2021-08-19 01:08:36.928,-0.09,-0.285
2021-08-19 01:08:36.932,-0.085,-0.28
2021-08-19 01:08:36.936,-0.05,-0.3
2021-08-19 01:08:36.940,-0.015,-0.29
2021-08-19 01:08:36.944,0.02,-0.29
2021-08-19 01:08:36.948,0.075,-0.31
2021-08-19 01:08:36.952,0.135,-0.3
2021-08-19 01:08:36.956,0.14,-0.3
2021-08-19 01:08:36.960,0.125,-0.29
2021-08-19 01:08:36.964,0.14,-0.285
2021-08-19 01:08:36.968,0.145,-0.295
2021-08-19 01:08:36.972,0.155,-0.29
2021-08-19 01:08:36.976,0.14,-0.265
2021-08-19 01:08:36.980,0.14,-0.275
2021-08-19 01:08:36.984,0.155,-0.28
2021-08-19 01:08:36.988,0.16,-0.28
2021-08-19 01:08:36.992,0.155,-0.29
2021-08-19 01:08:36.996,0.17,-0.285
2021-08-19 01:08:37.000,0.185,-0.265
2021-08-19 01:08:37.004,0.16,-0.29
2021-08-19 01:08:37.008,0.16,-0.27
2021-08-19 01:08:37.012,0.145,-0.265
2021-08-19 01:08:37.016,0.17,-0.27
2021-08-19 01:08:37.020,0.165,-0.275
2021-08-19 01:08:37.024,0.15,-0.255
2021-08-19 01:08:37.028,0.155,-0.26
2021-08-19 01:08:37.032,0.16,-0.245
2021-08-19 01:08:37.036,0.16,-0.245
2021-08-19 01:08:37.040,0.17,-0.265
2021-08-19 01:08:37.044,0.135,-0.26
2021-08-19 01:08:37.048,0.15,-0.275
2021-08-19 01:08:37.052,0.155,-0.26
2021-08-19 01:08:37.056,0.165,-0.26
2021-08-19 01:08:37.060,0.145,-0.265
2021-08-19 01:08:37.064,0.16,-0.28
2021-08-19 01:08:37.068,0.14,-0.275
2021-08-19 01:08:37.072,0.155,-0.27
2021-08-19 01:08:37.076,0.155,-0.275
2021-08-19 01:08:37.080,0.16,-0.27
2021-08-19 01:08:37.084,0.15,-0.27
2021-08-19 01:08:37.088,0.135,-0.265
2021-08-19 01:08:37.092,0.145,-0.27
2021-08-19 01:08:37.096,0.145,-0.255
2021-08-19 01:08:37.100,0.145,-0.265
2021-08-19 01:08:37.104,0.15,-0.255
2021-08-19 01:08:37.108,0.13,-0.25
2021-08-19 01:08:37.112,0.155,-0.25
2021-08-19 01:08:37.116,0.13,-0.24
2021-08-19 01:08:37.120,0.135,-0.235
2021-08-19 01:08:37.124,0.13,-0.215
2021-08-19 01:08:37.128,0.145,-0.215
2021-08-19 01:08:37.132,0.115,-0.195
2021-08-19 01:08:37.136,0.12,-0.18
2021-08-19 01:08:37.140,0.12,-0.16
2021-08-19 01:08:37.144,0.12,-0.14
2021-08-19 01:08:37.148,0.1,-0.15
2021-08-19 01:08:37.152,0.095,-0.105
2021-08-19 01:08:37.156,0.08,-0.08
2021-08-19 01:08:37.160,0.11,-0.09
2021-08-19 01:08:37.164,0.09,-0.055
2021-08-19 01:08:37.168,0.1,-0.045
2021-08-19 01:08:37.172,0.09,-0.02
2021-08-19 01:08:37.176,0.08,-0.01
2021-08-19 01:08:37.180,0.07,-0.01
2021-08-19 01:08:37.184,0.065,0.0
2021-08-19 01:08:37.188,0.08,-0.005
2021-08-19 01:08:37.192,0.06,0.03
2021-08-19 01:08:37.196,0.055,0.025
2021-08-19 01:08:37.200,0.07,0.02
2021-08-19 01:08:37.204,0.07,0.04
2021-08-19 01:08:37.208,0.05,0.04
2021-08-19 01:08:37.212,0.075,0.03
2021-08-19 01:08:37.216,0.085,0.03
2021-08-19 01:08:37.220,0.06,0.02
2021-08-19 01:08:37.224,0.07,0.03
2021-08-19 01:08:37.228,0.075,0.01
2021-08-19 01:08:37.232,0.065,0.005
2021-08-19 01:08:37.236,0.08,0.0
2021-08-19 01:08:37.240,0.095,0.015
2021-08-19 01:08:37.244,0.095,0.01
2021-08-19 01:08:37.248,0.095,0.01
2021-08-19 01:08:37.252,0.095,0.02
2021-08-19 01:08:37.256,0.095,-0.005
2021-08-19 01:08:37.260,0.09,-0.005
2021-08-19 01:08:37.264,0.1,0.0
2021-08-19 01:08:37.268,0.095,0.015
2021-08-19 01:08:37.272,0.11,0.005
2021-08-19 01:08:37.276,0.105,0.005
2021-08-19 01:08:37.280,0.11,-0.015
2021-08-19 01:08:37.284,0.1,0.01
2021-08-19 01:08:37.288,0.115,0.005
2021-08-19 01:08:37.292,0.11,-0.005
2021-08-19 01:08:37.296,0.11,-0.005
2021-08-19 01:08:37.300,0.12,-0.035
2021-08-19 01:08:37.304,0.12,-0.005
2021-08-19 01:08:37.308,0.105,-0.005
2021-08-19 01:08:37.312,0.1,-0.015
2021-08-19 01:08:37.316,0.125,-0.025
2021-08-19 01:08:37.320,0.11,-0.02
2021-08-19 01:08:37.324,0.1,-0.03
2021-08-19 01:08:37.328,0.11,-0.005
2021-08-19 01:08:37.332,0.105,-0.005
2021-08-19 01:08:37.336,0.11,-0.02
2021-08-19 01:08:37.340,0.105,-0.03
2021-08-19 01:08:37.344,0.09,-0.01
2021-08-19 01:08:37.348,0.07,-0.015
2021-08-19 01:08:37.352,0.085,-0.01
2021-08-19 01:08:37.356,0.095,-0.04
2021-08-19 01:08:37.360,0.09,-0.03
2021-08-19 01:08:37.364,0.095,-0.04
2021-08-19 01:08:37.368,0.125,-0.03
2021-08-19 01:08:37.372,0.105,-0.03
2021-08-19 01:08:37.376,0.11,-0.02
2021-08-19 01:08:37.380,0.085,-0.03
2021-08-19 01:08:37.384,0.08,-0.02
2021-08-19 01:08:37.388,0.085,-0.015
2021-08-19 01:08:37.392,0.075,-0.02
2021-08-19 01:08:37.396,0.065,-0.01
2021-08-19 01:08:37.400,0.08,-0.01
2021-08-19 01:08:37.404,0.06,-0.035
2021-08-19 01:08:37.408,0.055,-0.02
2021-08-19 01:08:37.412,0.06,-0.035
2021-08-19 01:08:37.416,0.065,-0.035
2021-08-19 01:08:37.420,0.065,-0.01
2021-08-19 01:08:37.424,0.07,-0.015
2021-08-19 01:08:37.428,0.065,-0.025
2021-08-19 01:08:37.432,0.065,-0.035
2021-08-19 01:08:37.436,0.055,-0.045
2021-08-19 01:08:37.440,0.045,-0.025
2021-08-19 01:08:37.444,0.06,-0.025
2021-08-19 01:08:37.448,0.06,-0.015
2021-08-19 01:08:37.452,0.09,-0.01
2021-08-19 01:08:37.456,0.065,-0.01
2021-08-19 01:08:37.460,0.07,-0.035
2021-08-19 01:08:37.464,0.065,-0.01
2021-08-19 01:08:37.468,0.09,-0.01
2021-08-19 01:08:37.472,0.075,-0.02
2021-08-19 01:08:37.476,0.075,-0.03
2021-08-19 01:08:37.480,0.065,-0.02
2021-08-19 01:08:37.484,0.065,-0.01
2021-08-19 01:08:37.488,0.055,-0.03
2021-08-19 01:08:37.492,0.075,-0.005
2021-08-19 01:08:37.496,0.05,-0.01
2021-08-19 01:08:37.500,0.055,0.005
2021-08-19 01:08:37.504,0.065,-0.015
2021-08-19 01:08:37.508,0.08,0.0
2021-08-19 01:08:37.512,0.07,-0.03
2021-08-19 01:08:37.516,0.075,-0.005
2021-08-19 01:08:37.520,0.065,-0.025
2021-08-19 01:08:37.524,0.08,-0.005
2021-08-19 01:08:37.528,0.075,-0.02
2021-08-19 01:08:37.532,0.07,-0.01
2021-08-19 01:08:37.536,0.075,-0.015
2021-08-19 01:08:37.540,0.085,0.005
2021-08-19 01:08:37.544,0.085,0.02
2021-08-19 01:08:37.548,0.08,0.01
2021-08-19 01:08:37.552,0.07,0.055
2021-08-19 01:08:37.556,0.085,0.075
2021-08-19 01:08:37.560,0.065,0.105
2021-08-19 01:08:37.564,0.08,0.15
2021-08-19 01:08:37.568,0.09,0.155
2021-08-19 01:08:37.572,0.095,0.155
2021-08-19 01:08:37.576,0.125,0.17
2021-08-19 01:08:37.580,0.14,0.165
2021-08-19 01:08:37.584,0.18,0.17
2021-08-19 01:08:37.588,0.19,0.165
2021-08-19 01:08:37.592,0.195,0.15
2021-08-19 01:08:37.596,0.21,0.165
2021-08-19 01:08:37.600,0.195,0.165
2021-08-19 01:08:37.604,0.19,0.19
2021-08-19 01:08:37.608,0.185,0.18
2021-08-19 01:08:37.612,0.155,0.175
2021-08-19 01:08:37.616,0.145,0.13
2021-08-19 01:08:37.620,0.125,0.08
2021-08-19 01:08:37.624,0.11,0.04
2021-08-19 01:08:37.628,0.075,0.05
2021-08-19 01:08:37.632,0.06,0.04
2021-08-19 01:08:37.636,0.07,0.06
2021-08-19 01:08:37.640,0.015,0.085
2021-08-19 01:08:37.644,0.03,0.1
2021-08-19 01:08:37.648,0.02,0.07
2021-08-19 01:08:37.652,0.015,0.075
2021-08-19 01:08:37.656,0.01,0.07
2021-08-19 01:08:37.660,0.05,0.055
2021-08-19 01:08:37.664,0.06,0.04
2021-08-19 01:08:37.668,0.04,0.03
2021-08-19 01:08:37.672,0.075,0.025
2021-08-19 01:08:37.676,0.06,0.0
2021-08-19 01:08:37.680,0.045,-0.02
2021-08-19 01:08:37.684,0.075,-0.02
2021-08-19 01:08:37.688,0.09,-0.02
2021-08-19 01:08:37.692,0.115,0.0
2021-08-19 01:08:37.696,0.115,0.0
2021-08-19 01:08:37.700,0.095,0.0
2021-08-19 01:08:37.704,0.065,0.005
2021-08-19 01:08:37.708,0.09,0.02
2021-08-19 01:08:37.712,0.09,0.02
2021-08-19 01:08:37.716,0.11,0.025
2021-08-19 01:08:37.720,0.115,0.02
2021-08-19 01:08:37.724,0.11,0.02
2021-08-19 01:08:37.728,0.1,0.02
2021-08-19 01:08:37.732,0.085,0.025
2021-08-19 01:08:37.736,0.075,0.045
2021-08-19 01:08:37.740,0.08,0.03
2021-08-19 01:08:37.744,0.09,0.055
2021-08-19 01:08:37.748,0.09,0.085
2021-08-19 01:08:37.752,0.09,0.11
2021-08-19 01:08:37.756,0.09,0.135
2021-08-19 01:08:37.760,0.075,0.155
2021-08-19 01:08:37.764,0.08,0.205
2021-08-19 01:08:37.768,0.09,0.405
2021-08-19 01:08:37.772,0.105,0.665
2021-08-19 01:08:37.776,0.15,0.925
2021-08-19 01:08:37.780,0.18,1.115
2021-08-19 01:08:37.784,0.15,1.235
2021-08-19 01:08:37.788,0.115,1.32
2021-08-19 01:08:37.792,0.06,1.29
2021-08-19 01:08:37.796,0.055,1.135
2021-08-19 01:08:37.800,-0.035,0.815
2021-08-19 01:08:37.804,-0.24,0.455
2021-08-19 01:08:37.808,-0.55,0.295
2021-08-19 01:08:37.812,-0.91,0.43
2021-08-19 01:08:37.816,-1.18,0.53
2021-08-19 01:08:37.820,-1.36,0.34
2021-08-19 01:08:37.824,-1.44,0.045
2021-08-19 01:08:37.828,-1.36,-0.245
2021-08-19 01:08:37.832,-1.03,-0.405
2021-08-19 01:08:37.836,-0.555,-0.445
2021-08-19 01:08:37.840,-0.185,-0.405
2021-08-19 01:08:37.844,-0.02,-0.315
2021-08-19 01:08:37.848,0.01,-0.185
2021-08-19 01:08:37.852,0.0,-0.1
2021-08-19 01:08:37.856,-0.02,-0.1
2021-08-19 01:08:37.860,-0.01,-0.09
2021-08-19 01:08:37.864,0.005,-0.095
2021-08-19 01:08:37.868,0.04,-0.095
2021-08-19 01:08:37.872,0.1,-0.1
2021-08-19 01:08:37.876,0.17,-0.1
2021-08-19 01:08:37.880,0.19,-0.105
2021-08-19 01:08:37.884,0.205,-0.09
2021-08-19 01:08:37.888,0.23,-0.08
2021-08-19 01:08:37.892,0.22,-0.085
2021-08-19 01:08:37.896,0.22,-0.08
2021-08-19 01:08:37.900,0.23,-0.065
2021-08-19 01:08:37.904,0.255,-0.075
2021-08-19 01:08:37.908,0.225,-0.07
2021-08-19 01:08:37.912,0.24,-0.06
2021-08-19 01:08:37.916,0.26,-0.06
2021-08-19 01:08:37.920,0.25,-0.055
2021-08-19 01:08:37.924,0.255,-0.075
2021-08-19 01:08:37.928,0.25,-0.065
2021-08-19 01:08:37.932,0.25,-0.07
2021-08-19 01:08:37.936,0.25,-0.045
2021-08-19 01:08:37.940,0.26,-0.06
2021-08-19 01:08:37.944,0.25,-0.06
2021-08-19 01:08:37.948,0.255,-0.055
2021-08-19 01:08:37.952,0.275,-0.04
2021-08-19 01:08:37.956,0.255,-0.04
2021-08-19 01:08:37.960,0.27,-0.06
2021-08-19 01:08:37.964,0.245,-0.07
2021-08-19 01:08:37.968,0.25,-0.07
2021-08-19 01:08:37.972,0.245,-0.075
2021-08-19 01:08:37.976,0.235,-0.08
2021-08-19 01:08:37.980,0.245,-0.085
2021-08-19 01:08:37.984,0.255,-0.06
2021-08-19 01:08:37.988,0.235,-0.085
2021-08-19 01:08:37.992,0.26,-0.075
2021-08-19 01:08:37.996,0.23,-0.08
2021-08-19 01:08:38.000,0.22,-0.07
2021-08-19 01:08:38.004,0.25,-0.08
2021-08-19 01:08:38.008,0.235,-0.065
2021-08-19 01:08:38.012,0.245,-0.075
2021-08-19 01:08:38.016,0.23,-0.08
2021-08-19 01:08:38.020,0.215,-0.09
2021-08-19 01:08:38.024,0.205,-0.08
2021-08-19 01:08:38.028,0.23,-0.07
2021-08-19 01:08:38.032,0.225,-0.065
2021-08-19 01:08:38.036,0.215,-0.055
2021-08-19 01:08:38.040,0.21,-0.055
2021-08-19 01:08:38.044,0.21,-0.045
2021-08-19 01:08:38.048,0.2,-0.02
2021-08-19 01:08:38.052,0.19,-0.01
2021-08-19 01:08:38.056,0.205,0.0
2021-08-19 01:08:38.060,0.215,0.0
2021-08-19 01:08:38.064,0.195,0.025
2021-08-19 01:08:38.068,0.185,0.04
2021-08-19 01:08:38.072,0.185,0.04
2021-08-19 01:08:38.076,0.175,0.075
2021-08-19 01:08:38.080,0.185,0.085
2021-08-19 01:08:38.084,0.18,0.09
2021-08-19 01:08:38.088,0.165,0.1
2021-08-19 01:08:38.092,0.175,0.12
2021-08-19 01:08:38.096,0.15,0.11
2021-08-19 01:08:38.100,0.15,0.115
2021-08-19 01:08:38.104,0.145,0.135
2021-08-19 01:08:38.108,0.15,0.155
2021-08-19 01:08:38.112,0.14,0.15
2021-08-19 01:08:38.116,0.13,0.145
2021-08-19 01:08:38.120,0.11,0.15
2021-08-19 01:08:38.124,0.11,0.155
2021-08-19 01:08:38.128,0.12,0.14
2021-08-19 01:08:38.132,0.125,0.155
2021-08-19 01:08:38.136,0.13,0.155
2021-08-19 01:08:38.140,0.125,0.14
2021-08-19 01:08:38.144,0.11,0.15
2021-08-19 01:08:38.148,0.135,0.14
2021-08-19 01:08:38.152,0.145,0.15
2021-08-19 01:08:38.156,0.13,0.16
2021-08-19 01:08:38.160,0.13,0.14
2021-08-19 01:08:38.164,0.15,0.135
2021-08-19 01:08:38.168,0.145,0.13
2021-08-19 01:08:38.172,0.14,0.125
2021-08-19 01:08:38.176,0.145,0.105
2021-08-19 01:08:38.180,0.15,0.115
2021-08-19 01:08:38.184,0.13,0.105
2021-08-19 01:08:38.188,0.155,0.095
2021-08-19 01:08:38.192,0.155,0.11
2021-08-19 01:08:38.196,0.155,0.095
2021-08-19 01:08:38.200,0.17,0.085
2021-08-19 01:08:38.204,0.195,0.09
2021-08-19 01:08:38.208,0.165,0.08
2021-08-19 01:08:38.212,0.165,0.085
2021-08-19 01:08:38.216,0.18,0.07
2021-08-19 01:08:38.220,0.155,0.085
2021-08-19 01:08:38.224,0.16,0.08
2021-08-19 01:08:38.228,0.175,0.08
2021-08-19 01:08:38.232,0.155,0.075
2021-08-19 01:08:38.236,0.19,0.06
2021-08-19 01:08:38.240,0.185,0.06
2021-08-19 01:08:38.244,0.185,0.07
2021-08-19 01:08:38.248,0.175,0.075
2021-08-19 01:08:38.252,0.165,0.085
2021-08-19 01:08:38.256,0.165,0.065
2021-08-19 01:08:38.260,0.17,0.08
2021-08-19 01:08:38.264,0.17,0.08
2021-08-19 01:08:38.268,0.165,0.09
2021-08-19 01:08:38.272,0.195,0.065
2021-08-19 01:08:38.276,0.175,0.085
2021-08-19 01:08:38.280,0.195,0.075
2021-08-19 01:08:38.284,0.16,0.075
2021-08-19 01:08:38.288,0.18,0.07
2021-08-19 01:08:38.292,0.17,0.095
2021-08-19 01:08:38.296,0.17,0.095
2021-08-19 01:08:38.300,0.135,0.08
2021-08-19 01:08:38.304,0.17,0.09
2021-08-19 01:08:38.308,0.155,0.095
2021-08-19 01:08:38.312,0.15,0.08
2021-08-19 01:08:38.316,0.16,0.09
2021-08-19 01:08:38.320,0.14,0.075
2021-08-19 01:08:38.324,0.165,0.075
2021-08-19 01:08:38.328,0.13,0.085
2021-08-19 01:08:38.332,0.13,0.085
2021-08-19 01:08:38.336,0.14,0.06
2021-08-19 01:08:38.340,0.135,0.08
2021-08-19 01:08:38.344,0.14,0.075
2021-08-19 01:08:38.348,0.15,0.08
2021-08-19 01:08:38.352,0.155,0.08
2021-08-19 01:08:38.356,0.14,0.09
2021-08-19 01:08:38.360,0.11,0.075
2021-08-19 01:08:38.364,0.13,0.075
2021-08-19 01:08:38.368,0.145,0.075
2021-08-19 01:08:38.372,0.14,0.08
2021-08-19 01:08:38.376,0.12,0.06
2021-08-19 01:08:38.380,0.125,0.095
2021-08-19 01:08:38.384,0.13,0.09
2021-08-19 01:08:38.388,0.115,0.09
2021-08-19 01:08:38.392,0.125,0.08
2021-08-19 01:08:38.396,0.1,0.07
2021-08-19 01:08:38.400,0.12,0.07
2021-08-19 01:08:38.404,0.105,0.08
2021-08-19 01:08:38.408,0.115,0.075
2021-08-19 01:08:38.412,0.11,0.08
2021-08-19 01:08:38.416,0.105,0.08
2021-08-19 01:08:38.420,0.13,0.07
2021-08-19 01:08:38.424,0.11,0.1
2021-08-19 01:08:38.428,0.105,0.065
2021-08-19 01:08:38.432,0.12,0.09
2021-08-19 01:08:38.436,0.115,0.09
2021-08-19 01:08:38.440,0.12,0.11
2021-08-19 01:08:38.444,0.1,0.125
2021-08-19 01:08:38.448,0.12,0.165
2021-08-19 01:08:38.452,0.11,0.2
2021-08-19 01:08:38.456,0.1,0.24
2021-08-19 01:08:38.460,0.125,0.27
2021-08-19 01:08:38.464,0.135,0.255
2021-08-19 01:08:38.468,0.13,0.275
2021-08-19 01:08:38.472,0.145,0.265
2021-08-19 01:08:38.476,0.18,0.275
2021-08-19 01:08:38.480,0.205,0.265
2021-08-19 01:08:38.484,0.225,0.25
2021-08-19 01:08:38.488,0.215,0.26
2021-08-19 01:08:38.492,0.205,0.26
2021-08-19 01:08:38.496,0.21,0.275
2021-08-19 01:08:38.500,0.2,0.28
2021-08-19 01:08:38.504,0.185,0.275
2021-08-19 01:08:38.508,0.18,0.265
2021-08-19 01:08:38.512,0.165,0.21
2021-08-19 01:08:38.516,0.14,0.17
2021-08-19 01:08:38.520,0.115,0.135
2021-08-19 01:08:38.524,0.1,0.14
2021-08-19 01:08:38.528,0.1,0.145
2021-08-19 01:08:38.532,0.1,0.16
2021-08-19 01:08:38.536,0.06,0.155
2021-08-19 01:08:38.540,0.045,0.155
2021-08-19 01:08:38.544,0.05,0.17
2021-08-19 01:08:38.548,0.03,0.15
2021-08-19 01:08:38.552,0.065,0.145
2021-08-19 01:08:38.556,0.07,0.14
2021-08-19 01:08:38.560,0.07,0.125
2021-08-19 01:08:38.564,0.1,0.115
2021-08-19 01:08:38.568,0.07,0.115
2021-08-19 01:08:38.572,0.07,0.085
2021-08-19 01:08:38.576,0.09,0.075
2021-08-19 01:08:38.580,0.095,0.09
2021-08-19 01:08:38.584,0.14,0.085
2021-08-19 01:08:38.588,0.145,0.095
2021-08-19 01:08:38.592,0.15,0.11
2021-08-19 01:08:38.596,0.14,0.1
2021-08-19 01:08:38.600,0.135,0.08
2021-08-19 01:08:38.604,0.14,0.1
2021-08-19 01:08:38.608,0.145,0.095
2021-08-19 01:08:38.612,0.14,0.105
2021-08-19 01:08:38.616,0.14,0.105
2021-08-19 01:08:38.620,0.135,0.11
2021-08-19 01:08:38.624,0.12,0.115
2021-08-19 01:08:38.628,0.135,0.105
2021-08-19 01:08:38.632,0.12,0.115
2021-08-19 01:08:38.636,0.125,0.125
2021-08-19 01:08:38.640,0.115,0.16
2021-08-19 01:08:38.644,0.145,0.185
2021-08-19 01:08:38.648,0.13,0.215
2021-08-19 01:08:38.652,0.135,0.22
2021-08-19 01:08:38.656,0.125,0.26
2021-08-19 01:08:38.660,0.14,0.42
2021-08-19 01:08:38.664,0.165,0.675
2021-08-19 01:08:38.668,0.18,0.905
2021-08-19 01:08:38.672,0.205,1.075
2021-08-19 01:08:38.676,0.18,1.185
2021-08-19 01:08:38.680,0.14,1.225
2021-08-19 01:08:38.684,0.09,1.18
2021-08-19 01:08:38.688,0.035,1.015
2021-08-19 01:08:38.692,-0.025,0.69
2021-08-19 01:08:38.696,-0.23,0.39
2021-08-19 01:08:38.700,-0.52,0.36
2021-08-19 01:08:38.704,-0.885,0.535
2021-08-19 01:08:38.708,-1.19,0.615
2021-08-19 01:08:38.712,-1.365,0.335
2021-08-19 01:08:38.716,-1.43,0.02
2021-08-19 01:08:38.720,-1.275,-0.235
2021-08-19 01:08:38.724,-0.935,-0.335
2021-08-19 01:08:38.728,-0.435,-0.355
2021-08-19 01:08:38.732,-0.055,-0.28
2021-08-19 01:08:38.736,0.045,-0.16
2021-08-19 01:08:38.740,0.04,-0.05
2021-08-19 01:08:38.744,0.035,-0.015
2021-08-19 01:08:38.748,-0.005,0.0
2021-08-19 01:08:38.752,0.01,-0.02
2021-08-19 01:08:38.756,0.055,-0.025
2021-08-19 01:08:38.760,0.09,-0.005
2021-08-19 01:08:38.764,0.18,0.005
2021-08-19 01:08:38.768,0.215,-0.01
2021-08-19 01:08:38.772,0.22,0.0
2021-08-19 01:08:38.776,0.25,0.02
2021-08-19 01:08:38.780,0.245,0.0
2021-08-19 01:08:38.784,0.25,0.005
2021-08-19 01:08:38.788,0.26,0.025
2021-08-19 01:08:38.792,0.255,0.02
2021-08-19 01:08:38.796,0.245,0.025
2021-08-19 01:08:38.800,0.245,0.03
2021-08-19 01:08:38.804,0.26,0.01
2021-08-19 01:08:38.808,0.275,0.01
2021-08-19 01:08:38.812,0.28,0.005
2021-08-19 01:08:38.816,0.27,0.03
2021-08-19 01:08:38.820,0.28,0.02
2021-08-19 01:08:38.824,0.295,0.02
2021-08-19 01:08:38.828,0.275,0.025
2021-08-19 01:08:38.832,0.275,0.025
2021-08-19 01:08:38.836,0.285,0.025
2021-08-19 01:08:38.840,0.29,0.02
2021-08-19 01:08:38.844,0.29,0.02
2021-08-19 01:08:38.848,0.295,0.015
2021-08-19 01:08:38.852,0.295,0.025
2021-08-19 01:08:38.856,0.285,0.05
2021-08-19 01:08:38.860,0.275,0.015
2021-08-19 01:08:38.864,0.305,0.015
2021-08-19 01:08:38.868,0.31,0.02
2021-08-19 01:08:38.872,0.265,0.015
2021-08-19 01:08:38.876,0.275,0.015
2021-08-19 01:08:38.880,0.29,-0.005
2021-08-19 01:08:38.884,0.27,0.015
2021-08-19 01:08:38.888,0.275,0.01
2021-08-19 01:08:38.892,0.285,0.01
2021-08-19 01:08:38.896,0.27,0.01
2021-08-19 01:08:38.900,0.28,0.025
2021-08-19 01:08:38.904,0.28,0.0
2021-08-19 01:08:38.908,0.27,0.0
2021-08-19 01:08:38.912,0.26,0.02
2021-08-19 01:08:38.916,0.28,0.02
2021-08-19 01:08:38.920,0.275,0.04
2021-08-19 01:08:38.924,0.265,0.05
2021-08-19 01:08:38.928,0.275,0.07
2021-08-19 01:08:38.932,0.26,0.065
2021-08-19 01:08:38.936,0.27,0.06
2021-08-19 01:08:38.940,0.25,0.085
2021-08-19 01:08:38.944,0.255,0.08
2021-08-19 01:08:38.948,0.225,0.115
2021-08-19 01:08:38.952,0.225,0.14
2021-08-19 01:08:38.956,0.235,0.14
2021-08-19 01:08:38.960,0.23,0.15
2021-08-19 01:08:38.964,0.25,0.15
2021-08-19 01:08:38.968,0.215,0.165
2021-08-19 01:08:38.972,0.215,0.185
2021-08-19 01:08:38.976,0.2,0.18
2021-08-19 01:08:38.980,0.185,0.19
2021-08-19 01:08:38.984,0.17,0.2
2021-08-19 01:08:38.988,0.17,0.22
2021-08-19 01:08:38.992,0.165,0.22
2021-08-19 01:08:38.996,0.15,0.215
2021-08-19 01:08:39.000,0.155,0.215
2021-08-19 01:08:39.004,0.145,0.225
2021-08-19 01:08:39.008,0.155,0.24
2021-08-19 01:08:39.012,0.125,0.23
2021-08-19 01:08:39.016,0.135,0.23
2021-08-19 01:08:39.020,0.15,0.245
2021-08-19 01:08:39.024,0.14,0.22
2021-08-19 01:08:39.028,0.135,0.205
2021-08-19 01:08:39.032,0.15,0.21
2021-08-19 01:08:39.036,0.165,0.225
2021-08-19 01:08:39.040,0.145,0.19
2021-08-19 01:08:39.044,0.155,0.185
2021-08-19 01:08:39.048,0.18,0.175
2021-08-19 01:08:39.052,0.17,0.175
2021-08-19 01:08:39.056,0.165,0.18
2021-08-19 01:08:39.060,0.17,0.17
2021-08-19 01:08:39.064,0.185,0.175
2021-08-19 01:08:39.068,0.17,0.175
2021-08-19 01:08:39.072,0.15,0.175
2021-08-19 01:08:39.076,0.175,0.185
2021-08-19 01:08:39.080,0.16,0.175
2021-08-19 01:08:39.084,0.165,0.145
2021-08-19 01:08:39.088,0.17,0.15
2021-08-19 01:08:39.092,0.17,0.155
2021-08-19 01:08:39.096,0.17,0.145
2021-08-19 01:08:39.100,0.195,0.14
2021-08-19 01:08:39.104,0.16,0.14
2021-08-19 01:08:39.108,0.18,0.13
2021-08-19 01:08:39.112,0.18,0.135
2021-08-19 01:08:39.116,0.175,0.13
2021-08-19 01:08:39.120,0.18,0.14
2021-08-19 01:08:39.124,0.185,0.13
2021-08-19 01:08:39.128,0.18,0.125
2021-08-19 01:08:39.132,0.195,0.13
2021-08-19 01:08:39.136,0.17,0.12
2021-08-19 01:08:39.140,0.19,0.125
2021-08-19 01:08:39.144,0.195,0.11
2021-08-19 01:08:39.148,0.195,0.14
2021-08-19 01:08:39.152,0.19,0.135
2021-08-19 01:08:39.156,0.21,0.12
2021-08-19 01:08:39.160,0.18,0.125
2021-08-19 01:08:39.164,0.185,0.115
2021-08-19 01:08:39.168,0.175,0.13
2021-08-19 01:08:39.172,0.155,0.125
2021-08-19 01:08:39.176,0.18,0.135
2021-08-19 01:08:39.180,0.17,0.125
2021-08-19 01:08:39.184,0.18,0.11
2021-08-19 01:08:39.188,0.165,0.135
2021-08-19 01:08:39.192,0.18,0.1
2021-08-19 01:08:39.196,0.165,0.11
2021-08-19 01:08:39.200,0.155,0.095
2021-08-19 01:08:39.204,0.165,0.11
2021-08-19 01:08:39.208,0.16,0.11
2021-08-19 01:08:39.212,0.15,0.135
2021-08-19 01:08:39.216,0.155,0.135
2021-08-19 01:08:39.220,0.15,0.12
2021-08-19 01:08:39.224,0.16,0.12
2021-08-19 01:08:39.228,0.125,0.125
2021-08-19 01:08:39.232,0.14,0.11
2021-08-19 01:08:39.236,0.15,0.11
2021-08-19 01:08:39.240,0.14,0.125
2021-08-19 01:08:39.244,0.145,0.12
2021-08-19 01:08:39.248,0.11,0.115
2021-08-19 01:08:39.252,0.145,0.115
2021-08-19 01:08:39.256,0.17,0.12
2021-08-19 01:08:39.260,0.135,0.12
2021-08-19 01:08:39.264,0.14,0.095
2021-08-19 01:08:39.268,0.145,0.11
2021-08-19 01:08:39.272,0.135,0.09
2021-08-19 01:08:39.276,0.13,0.09
2021-08-19 01:08:39.280,0.155,0.105
2021-08-19 01:08:39.284,0.15,0.11
2021-08-19 01:08:39.288,0.155,0.105
2021-08-19 01:08:39.292,0.14,0.095
2021-08-19 01:08:39.296,0.145,0.1
2021-08-19 01:08:39.300,0.15,0.095
2021-08-19 01:08:39.304,0.14,0.09
2021-08-19 01:08:39.308,0.135,0.09
2021-08-19 01:08:39.312,0.125,0.1
2021-08-19 01:08:39.316,0.115,0.095
2021-08-19 01:08:39.320,0.11,0.1
2021-08-19 01:08:39.324,0.12,0.09
2021-08-19 01:08:39.328,0.12,0.085
2021-08-19 01:08:39.332,0.125,0.085
2021-08-19 01:08:39.336,0.13,0.09
2021-08-19 01:08:39.340,0.115,0.1
2021-08-19 01:08:39.344,0.105,0.145
2021-08-19 01:08:39.348,0.1,0.165
2021-08-19 01:08:39.352,0.115,0.205
2021-08-19 01:08:39.356,0.105,0.22
2021-08-19 01:08:39.360,0.115,0.25
2021-08-19 01:08:39.364,0.13,0.24
2021-08-19 01:08:39.368,0.135,0.25
2021-08-19 01:08:39.372,0.16,0.255
2021-08-19 01:08:39.376,0.17,0.25
2021-08-19 01:08:39.380,0.18,0.235
2021-08-19 01:08:39.384,0.19,0.225
2021-08-19 01:08:39.388,0.205,0.235
2021-08-19 01:08:39.392,0.22,0.245
2021-08-19 01:08:39.396,0.2,0.265
2021-08-19 01:08:39.400,0.205,0.265
2021-08-19 01:08:39.404,0.155,0.245
2021-08-19 01:08:39.408,0.14,0.21
2021-08-19 01:08:39.412,0.135,0.125
2021-08-19 01:08:39.416,0.12,0.125
2021-08-19 01:08:39.420,0.1,0.095
2021-08-19 01:08:39.424,0.085,0.1
2021-08-19 01:08:39.428,0.08,0.125
2021-08-19 01:08:39.432,0.065,0.11
2021-08-19 01:08:39.436,0.045,0.125
2021-08-19 01:08:39.440,0.04,0.095
2021-08-19 01:08:39.444,0.04,0.075
2021-08-19 01:08:39.448,0.045,0.075
2021-08-19 01:08:39.452,0.045,0.055
2021-08-19 01:08:39.456,0.045,0.065
2021-08-19 01:08:39.460,0.055,0.04
2021-08-19 01:08:39.464,0.045,0.015
2021-08-19 01:08:39.468,0.065,0.005
2021-08-19 01:08:39.472,0.065,0.0
2021-08-19 01:08:39.476,0.065,0.015
2021-08-19 01:08:39.480,0.07,0.0
2021-08-19 01:08:39.484,0.105,0.01
2021-08-19 01:08:39.488,0.12,0.02
2021-08-19 01:08:39.492,0.115,0.01
2021-08-19 01:08:39.496,0.11,0.015
2021-08-19 01:08:39.500,0.1,0.015
2021-08-19 01:08:39.504,0.105,0.025
2021-08-19 01:08:39.508,0.1,0.025
2021-08-19 01:08:39.512,0.115,0.005
2021-08-19 01:08:39.516,0.1,0.01
2021-08-19 01:08:39.520,0.09,0.03
2021-08-19 01:08:39.524,0.075,0.02
2021-08-19 01:08:39.528,0.075,0.015
2021-08-19 01:08:39.532,0.095,0.03
2021-08-19 01:08:39.536,0.1,0.015
2021-08-19 01:08:39.540,0.085,0.055
2021-08-19 01:08:39.544,0.08,0.085
2021-08-19 01:08:39.548,0.09,0.115
2021-08-19 01:08:39.552,0.09,0.115
2021-08-19 01:08:39.556,0.075,0.135
2021-08-19 01:08:39.560,0.07,0.275
2021-08-19 01:08:39.564,0.11,0.495
2021-08-19 01:08:39.568,0.105,0.73
2021-08-19 01:08:39.572,0.13,0.9
2021-08-19 01:08:39.576,0.145,1.07
2021-08-19 01:08:39.580,0.085,1.145
2021-08-19 01:08:39.584,0.045,1.175
2021-08-19 01:08:39.588,-0.01,1.105
2021-08-19 01:08:39.592,-0.06,0.895
2021-08-19 01:08:39.596,-0.185,0.57
2021-08-19 01:08:39.600,-0.415,0.38
2021-08-19 01:08:39.604,-0.735,0.4
2021-08-19 01:08:39.608,-1.04,0.475
2021-08-19 01:08:39.612,-1.22,0.335
2021-08-19 01:08:39.616,-1.265,0.03
2021-08-19 01:08:39.620,-1.23,-0.245
2021-08-19 01:08:39.624,-0.975,-0.42
2021-08-19 01:08:39.628,-0.57,-0.485
2021-08-19 01:08:39.632,-0.195,-0.475
2021-08-19 01:08:39.636,0.0,-0.365
2021-08-19 01:08:39.640,0.0,-0.25
2021-08-19 01:08:39.644,-0.04,-0.19
2021-08-19 01:08:39.648,-0.05,-0.175
2021-08-19 01:08:39.652,-0.06,-0.165
2021-08-19 01:08:39.656,-0.035,-0.17
2021-08-19 01:08:39.660,-0.01,-0.17
2021-08-19 01:08:39.664,0.065,-0.18
2021-08-19 01:08:39.668,0.125,-0.185
2021-08-19 01:08:39.672,0.165,-0.175
2021-08-19 01:08:39.676,0.17,-0.19
2021-08-19 01:08:39.680,0.17,-0.195
2021-08-19 01:08:39.684,0.175,-0.19
2021-08-19 01:08:39.688,0.16,-0.215
2021-08-19 01:08:39.692,0.175,-0.21
2021-08-19 01:08:39.696,0.19,-0.195
2021-08-19 01:08:39.700,0.19,-0.185
2021-08-19 01:08:39.704,0.19,-0.185
2021-08-19 01:08:39.708,0.2,-0.195
2021-08-19 01:08:39.712,0.165,-0.195
2021-08-19 01:08:39.716,0.19,-0.19
2021-08-19 01:08:39.720,0.2,-0.19
2021-08-19 01:08:39.724,0.2,-0.2
2021-08-19 01:08:39.728,0.18,-0.19
2021-08-19 01:08:39.732,0.185,-0.195
2021-08-19 01:08:39.736,0.19,-0.19
2021-08-19 01:08:39.740,0.185,-0.205
2021-08-19 01:08:39.744,0.2,-0.185
2021-08-19 01:08:39.748,0.205,-0.21
2021-08-19 01:08:39.752,0.17,-0.2
2021-08-19 01:08:39.756,0.175,-0.19
2021-08-19 01:08:39.760,0.185,-0.21
2021-08-19 01:08:39.764,0.18,-0.21
2021-08-19 01:08:39.768,0.175,-0.21
2021-08-19 01:08:39.772,0.19,-0.22
2021-08-19 01:08:39.776,0.195,-0.215
2021-08-19 01:08:39.780,0.17,-0.235
2021-08-19 01:08:39.784,0.16,-0.22
2021-08-19 01:08:39.788,0.155,-0.225
2021-08-19 01:08:39.792,0.175,-0.225
2021-08-19 01:08:39.796,0.16,-0.225
2021-08-19 01:08:39.800,0.185,-0.215
2021-08-19 01:08:39.804,0.185,-0.21
2021-08-19 01:08:39.808,0.17,-0.225
2021-08-19 01:08:39.812,0.19,-0.24
2021-08-19 01:08:39.816,0.165,-0.235
2021-08-19 01:08:39.820,0.15,-0.21
2021-08-19 01:08:39.824,0.145,-0.215
2021-08-19 01:08:39.828,0.135,-0.215
2021-08-19 01:08:39.832,0.145,-0.215
2021-08-19 01:08:39.836,0.145,-0.2
2021-08-19 01:08:39.840,0.14,-0.18
2021-08-19 01:08:39.844,0.12,-0.18
2021-08-19 01:08:39.848,0.12,-0.185
2021-08-19 01:08:39.852,0.15,-0.16
2021-08-19 01:08:39.856,0.14,-0.165
2021-08-19 01:08:39.860,0.135,-0.15
2021-08-19 01:08:39.864,0.115,-0.12
2021-08-19 01:08:39.868,0.13,-0.085
2021-08-19 01:08:39.872,0.13,-0.075
2021-08-19 01:08:39.876,0.105,-0.07
2021-08-19 01:08:39.880,0.11,-0.06
2021-08-19 01:08:39.884,0.11,-0.05
2021-08-19 01:08:39.888,0.095,-0.03
2021-08-19 01:08:39.892,0.09,-0.025
2021-08-19 01:08:39.896,0.11,-0.02
2021-08-19 01:08:39.900,0.11,0.0
2021-08-19 01:08:39.904,0.09,0.005
2021-08-19 01:08:39.908,0.09,0.0
2021-08-19 01:08:39.912,0.085,0.015
2021-08-19 01:08:39.916,0.08,0.02
2021-08-19 01:08:39.920,0.085,0.02
2021-08-19 01:08:39.924,0.075,0.015
2021-08-19 01:08:39.928,0.09,0.03
2021-08-19 01:08:39.932,0.105,0.035
2021-08-19 01:08:39.936,0.11,0.005
2021-08-19 01:08:39.940,0.13,0.02
2021-08-19 01:08:39.944,0.105,0.0
2021-08-19 01:08:39.948,0.11,0.005
2021-08-19 01:08:39.952,0.1,-0.01
2021-08-19 01:08:39.956,0.115,-0.005
2021-08-19 01:08:39.960,0.1,-0.005
2021-08-19 01:08:39.964,0.11,-0.01
2021-08-19 01:08:39.968,0.115,0.0
2021-08-19 01:08:39.972,0.105,-0.025
2021-08-19 01:08:39.976,0.115,-0.025
2021-08-19 01:08:39.980,0.105,-0.035
2021-08-19 01:08:39.984,0.09,-0.025
2021-08-19 01:08:39.988,0.11,-0.035
2021-08-19 01:08:39.992,0.105,-0.035
2021-08-19 01:08:39.996,0.11,-0.025
2021-08-19 01:08:40.000,0.115,-0.045
2021-08-19 01:08:40.004,0.09,-0.05
2021-08-19 01:08:40.008,0.105,-0.06
2021-08-19 01:08:40.012,0.1,-0.055
2021-08-19 01:08:40.016,0.105,-0.04
2021-08-19 01:08:40.020,0.1,-0.05
2021-08-19 01:08:40.024,0.105,-0.055
2021-08-19 01:08:40.028,0.1,-0.07
2021-08-19 01:08:40.032,0.105,-0.08
2021-08-19 01:08:40.036,0.12,-0.08
2021-08-19 01:08:40.040,0.1,-0.065
2021-08-19 01:08:40.044,0.09,-0.06
2021-08-19 01:08:40.048,0.11,-0.07
2021-08-19 01:08:40.052,0.11,-0.04
2021-08-19 01:08:40.056,0.105,-0.075
2021-08-19 01:08:40.060,0.095,-0.085
2021-08-19 01:08:40.064,0.1,-0.08
2021-08-19 01:08:40.068,0.11,-0.075
2021-08-19 01:08:40.072,0.1,-0.07
2021-08-19 01:08:40.076,0.09,-0.08
2021-08-19 01:08:40.080,0.08,-0.08
2021-08-19 01:08:40.084,0.075,-0.065
2021-08-19 01:08:40.088,0.09,-0.06
2021-08-19 01:08:40.092,0.1,-0.08
2021-08-19 01:08:40.096,0.095,-0.07
2021-08-19 01:08:40.100,0.075,-0.075
2021-08-19 01:08:40.104,0.105,-0.09
2021-08-19 01:08:40.108,0.09,-0.08
2021-08-19 01:08:40.112,0.09,-0.09
2021-08-19 01:08:40.116,0.085,-0.075
2021-08-19 01:08:40.120,0.1,-0.09
2021-08-19 01:08:40.124,0.08,-0.075
2021-08-19 01:08:40.128,0.085,-0.08
2021-08-19 01:08:40.132,0.095,-0.08
2021-08-19 01:08:40.136,0.07,-0.08
2021-08-19 01:08:40.140,0.07,-0.08
2021-08-19 01:08:40.144,0.08,-0.065
2021-08-19 01:08:40.148,0.09,-0.08
2021-08-19 01:08:40.152,0.055,-0.075
2021-08-19 01:08:40.156,0.065,-0.075
2021-08-19 01:08:40.160,0.08,-0.065
2021-08-19 01:08:40.164,0.06,-0.08
2021-08-19 01:08:40.168,0.065,-0.08
2021-08-19 01:08:40.172,0.07,-0.08
2021-08-19 01:08:40.176,0.07,-0.07
2021-08-19 01:08:40.180,0.07,-0.07
2021-08-19 01:08:40.184,0.07,-0.08
2021-08-19 01:08:40.188,0.065,-0.075
2021-08-19 01:08:40.192,0.055,-0.075
2021-08-19 01:08:40.196,0.055,-0.075
2021-08-19 01:08:40.200,0.075,-0.075
2021-08-19 01:08:40.204,0.075,-0.07
2021-08-19 01:08:40.208,0.055,-0.09
2021-08-19 01:08:40.212,0.075,-0.08
2021-08-19 01:08:40.216,0.06,-0.08
2021-08-19 01:08:40.220,0.06,-0.095
2021-08-19 01:08:40.224,0.08,-0.065
2021-08-19 01:08:40.228,0.05,-0.085
2021-08-19 01:08:40.232,0.06,-0.1
2021-08-19 01:08:40.236,0.06,-0.07
2021-08-19 01:08:40.240,0.06,-0.055
2021-08-19 01:08:40.244,0.05,-0.075
2021-08-19 01:08:40.248,0.06,-0.035
2021-08-19 01:08:40.252,0.07,-0.01
2021-08-19 01:08:40.256,0.065,0.025
2021-08-19 01:08:40.260,0.035,0.06
2021-08-19 01:08:40.264,0.06,0.085
2021-08-19 01:08:40.268,0.06,0.08
2021-08-19 01:08:40.272,0.075,0.07
2021-08-19 01:08:40.276,0.105,0.085
2021-08-19 01:08:40.280,0.125,0.085
2021-08-19 01:08:40.284,0.12,0.08
2021-08-19 01:08:40.288,0.15,0.06
2021-08-19 01:08:40.292,0.185,0.07
