Time,ECG1,ECG2
2021-08-19 20:32:24.924,-0.21,-0.16
2021-08-19 20:32:24.928,-0.225,-0.16
2021-08-19 20:32:24.932,-0.22,-0.145
2021-08-19 20:32:24.936,-0.185,-0.145
2021-08-19 20:32:24.940,-0.175,-0.145
2021-08-19 20:32:24.944,-0.185,-0.16
2021-08-19 20:32:24.948,-0.205,-0.13
2021-08-19 20:32:24.952,-0.165,-0.08
2021-08-19 20:32:24.956,-0.19,-0.065
2021-08-19 20:32:24.960,-0.205,-0.06
2021-08-19 20:32:24.964,-0.18,-0.065
2021-08-19 20:32:24.968,-0.175,-0.095
2021-08-19 20:32:24.972,-0.205,-0.125
2021-08-19 20:32:24.976,-0.24,-0.175
2021-08-19 20:32:24.980,-0.255,-0.145
2021-08-19 20:32:24.984,-0.24,-0.15
2021-08-19 20:32:24.988,-0.23,-0.145
2021-08-19 20:32:24.992,-0.205,-0.185
2021-08-19 20:32:24.996,-0.24,-0.155
2021-08-19 20:32:25.000,-0.255,-0.13
2021-08-19 20:32:25.004,-0.26,-0.145
2021-08-19 20:32:25.008,-0.235,-0.185
2021-08-19 20:32:25.012,-0.23,-0.215
2021-08-19 20:32:25.016,-0.21,-0.21
2021-08-19 20:32:25.020,-0.195,-0.19
2021-08-19 20:32:25.024,-0.2,-0.16
2021-08-19 20:32:25.028,-0.2,-0.155
2021-08-19 20:32:25.032,-0.2,-0.16
2021-08-19 20:32:25.036,-0.19,-0.155
2021-08-19 20:32:25.040,-0.19,-0.145
2021-08-19 20:32:25.044,-0.205,-0.135
2021-08-19 20:32:25.048,-0.175,-0.145
2021-08-19 20:32:25.052,-0.16,-0.17
2021-08-19 20:32:25.056,-0.16,-0.14
2021-08-19 20:32:25.060,-0.13,-0.125
2021-08-19 20:32:25.064,-0.115,-0.13
2021-08-19 20:32:25.068,-0.16,-0.135
2021-08-19 20:32:25.072,-0.245,-0.08
2021-08-19 20:32:25.076,-0.3,-0.045
2021-08-19 20:32:25.080,-0.28,-0.01
2021-08-19 20:32:25.084,-0.24,-0.03
2021-08-19 20:32:25.088,-0.265,-0.03
2021-08-19 20:32:25.092,-0.26,-0.04
2021-08-19 20:32:25.096,-0.255,-0.15
2021-08-19 20:32:25.100,-0.255,-0.23
2021-08-19 20:32:25.104,-0.24,-0.25
2021-08-19 20:32:25.108,-0.22,-0.22
2021-08-19 20:32:25.112,-0.225,-0.2
2021-08-19 20:32:25.116,-0.245,-0.19
2021-08-19 20:32:25.120,-0.235,-0.17
2021-08-19 20:32:25.124,-0.22,-0.145
2021-08-19 20:32:25.128,-0.195,-0.13
2021-08-19 20:32:25.132,-0.2,-0.125
2021-08-19 20:32:25.136,-0.205,-0.155
2021-08-19 20:32:25.140,-0.23,-0.15
2021-08-19 20:32:25.144,-0.245,-0.16
2021-08-19 20:32:25.148,-0.22,-0.145
2021-08-19 20:32:25.152,-0.195,-0.13
2021-08-19 20:32:25.156,-0.215,-0.135
2021-08-19 20:32:25.160,-0.21,-0.145
2021-08-19 20:32:25.164,-0.225,-0.145
2021-08-19 20:32:25.168,-0.235,-0.135
2021-08-19 20:32:25.172,-0.24,-0.115
2021-08-19 20:32:25.176,-0.22,-0.14
2021-08-19 20:32:25.180,-0.21,-0.125
2021-08-19 20:32:25.184,-0.235,-0.135
2021-08-19 20:32:25.188,-0.23,-0.155
2021-08-19 20:32:25.192,-0.24,-0.15
2021-08-19 20:32:25.196,-0.225,-0.14
2021-08-19 20:32:25.200,-0.22,-0.14
2021-08-19 20:32:25.204,-0.22,-0.16
2021-08-19 20:32:25.208,-0.235,-0.125
2021-08-19 20:32:25.212,-0.24,-0.14
2021-08-19 20:32:25.216,-0.23,-0.15
2021-08-19 20:32:25.220,-0.19,-0.15
2021-08-19 20:32:25.224,-0.22,-0.14
2021-08-19 20:32:25.228,-0.25,-0.145
2021-08-19 20:32:25.232,-0.27,-0.15
2021-08-19 20:32:25.236,-0.26,-0.135
2021-08-19 20:32:25.240,-0.25,-0.125
2021-08-19 20:32:25.244,-0.22,-0.06
2021-08-19 20:32:25.248,-0.195,0.06
2021-08-19 20:32:25.252,-0.22,0.195
2021-08-19 20:32:25.256,-0.195,0.11
2021-08-19 20:32:25.260,-0.205,-0.13
2021-08-19 20:32:25.264,-0.225,-0.335
2021-08-19 20:32:25.268,-0.265,-0.36
2021-08-19 20:32:25.272,-0.26,-0.285
2021-08-19 20:32:25.276,-0.25,-0.255
2021-08-19 20:32:25.280,-0.23,-0.285
2021-08-19 20:32:25.284,-0.235,-0.28
2021-08-19 20:32:25.288,-0.23,-0.265
2021-08-19 20:32:25.292,-0.245,-0.255
2021-08-19 20:32:25.296,-0.245,-0.2
2021-08-19 20:32:25.300,-0.255,-0.2
2021-08-19 20:32:25.304,-0.265,-0.21
2021-08-19 20:32:25.308,-0.24,-0.19
2021-08-19 20:32:25.312,-0.185,-0.16
2021-08-19 20:32:25.316,-0.175,-0.17
2021-08-19 20:32:25.320,-0.19,-0.145
2021-08-19 20:32:25.324,-0.2,-0.15
2021-08-19 20:32:25.328,-0.205,-0.12
2021-08-19 20:32:25.332,-0.21,-0.115
2021-08-19 20:32:25.336,-0.205,-0.07
2021-08-19 20:32:25.340,-0.225,-0.07
2021-08-19 20:32:25.344,-0.24,-0.11
2021-08-19 20:32:25.348,-0.26,-0.115
2021-08-19 20:32:25.352,-0.265,-0.11
2021-08-19 20:32:25.356,-0.25,-0.1
2021-08-19 20:32:25.360,-0.245,-0.11
2021-08-19 20:32:25.364,-0.23,-0.14
2021-08-19 20:32:25.368,-0.24,-0.16
2021-08-19 20:32:25.372,-0.235,-0.225
2021-08-19 20:32:25.376,-0.235,-0.275
2021-08-19 20:32:25.380,-0.25,-0.28
2021-08-19 20:32:25.384,-0.245,-0.295
2021-08-19 20:32:25.388,-0.305,-0.27
2021-08-19 20:32:25.392,-0.305,-0.285
2021-08-19 20:32:25.396,-0.32,-0.265
2021-08-19 20:32:25.400,-0.31,-0.265
2021-08-19 20:32:25.404,-0.32,-0.22
2021-08-19 20:32:25.408,-0.345,-0.2
2021-08-19 20:32:25.412,-0.315,-0.235
2021-08-19 20:32:25.416,-0.305,-0.235
2021-08-19 20:32:25.420,-0.32,-0.215
2021-08-19 20:32:25.424,-0.31,-0.225
2021-08-19 20:32:25.428,-0.315,-0.2
2021-08-19 20:32:25.432,-0.32,-0.185
2021-08-19 20:32:25.436,-0.315,-0.205
2021-08-19 20:32:25.440,-0.275,-0.195
2021-08-19 20:32:25.444,-0.15,-0.17
2021-08-19 20:32:25.448,0.03,-0.13
2021-08-19 20:32:25.452,0.225,-0.085
2021-08-19 20:32:25.456,0.425,-0.035
2021-08-19 20:32:25.460,0.525,-0.01
2021-08-19 20:32:25.464,0.43,-0.005
2021-08-19 20:32:25.468,0.17,0.0
2021-08-19 20:32:25.472,-0.13,-0.045
2021-08-19 20:32:25.476,-0.355,-0.12
2021-08-19 20:32:25.480,-0.445,-0.09
2021-08-19 20:32:25.484,-0.51,-0.005
2021-08-19 20:32:25.488,-0.535,0.025
2021-08-19 20:32:25.492,-0.585,0.075
2021-08-19 20:32:25.496,-0.665,0.185
2021-08-19 20:32:25.500,-0.76,0.375
2021-08-19 20:32:25.504,-0.765,0.545
2021-08-19 20:32:25.508,-0.77,0.57
2021-08-19 20:32:25.512,-0.72,0.52
2021-08-19 20:32:25.516,-0.63,0.42
2021-08-19 20:32:25.520,-0.545,0.38
2021-08-19 20:32:25.524,-0.465,0.37
2021-08-19 20:32:25.528,-0.425,0.31
2021-08-19 20:32:25.532,-0.445,0.18
2021-08-19 20:32:25.536,-0.465,0.055
2021-08-19 20:32:25.540,-0.455,0.0
2021-08-19 20:32:25.544,-0.45,-0.06
2021-08-19 20:32:25.548,-0.445,-0.1
2021-08-19 20:32:25.552,-0.45,-0.11
2021-08-19 20:32:25.556,-0.42,-0.145
2021-08-19 20:32:25.560,-0.425,-0.18
2021-08-19 20:32:25.564,-0.415,-0.18
2021-08-19 20:32:25.568,-0.405,-0.185
2021-08-19 20:32:25.572,-0.42,-0.17
2021-08-19 20:32:25.576,-0.425,-0.21
2021-08-19 20:32:25.580,-0.42,-0.215
2021-08-19 20:32:25.584,-0.4,-0.175
2021-08-19 20:32:25.588,-0.41,-0.21
2021-08-19 20:32:25.592,-0.395,-0.18
2021-08-19 20:32:25.596,-0.345,-0.21
2021-08-19 20:32:25.600,-0.295,-0.205
2021-08-19 20:32:25.604,-0.285,-0.225
2021-08-19 20:32:25.608,-0.275,-0.225
2021-08-19 20:32:25.612,-0.275,-0.21
2021-08-19 20:32:25.616,-0.28,-0.215
2021-08-19 20:32:25.620,-0.285,-0.225
2021-08-19 20:32:25.624,-0.27,-0.255
2021-08-19 20:32:25.628,-0.29,-0.29
2021-08-19 20:32:25.632,-0.3,-0.265
2021-08-19 20:32:25.636,-0.28,-0.24
2021-08-19 20:32:25.640,-0.285,-0.225
2021-08-19 20:32:25.644,-0.25,-0.26
2021-08-19 20:32:25.648,-0.26,-0.29
2021-08-19 20:32:25.652,-0.29,-0.285
2021-08-19 20:32:25.656,-0.31,-0.335
2021-08-19 20:32:25.660,-0.31,-0.39
2021-08-19 20:32:25.664,-0.305,-0.4
2021-08-19 20:32:25.668,-0.33,-0.41
2021-08-19 20:32:25.672,-0.315,-0.4
2021-08-19 20:32:25.676,-0.325,-0.36
2021-08-19 20:32:25.680,-0.31,-0.385
2021-08-19 20:32:25.684,-0.295,-0.4
2021-08-19 20:32:25.688,-0.3,-0.41
2021-08-19 20:32:25.692,-0.3,-0.43
2021-08-19 20:32:25.696,-0.3,-0.43
2021-08-19 20:32:25.700,-0.31,-0.405
2021-08-19 20:32:25.704,-0.32,-0.415
2021-08-19 20:32:25.708,-0.335,-0.42
2021-08-19 20:32:25.712,-0.36,-0.41
2021-08-19 20:32:25.716,-0.355,-0.405
2021-08-19 20:32:25.720,-0.345,-0.395
2021-08-19 20:32:25.724,-0.355,-0.375
2021-08-19 20:32:25.728,-0.36,-0.385
2021-08-19 20:32:25.732,-0.375,-0.385
2021-08-19 20:32:25.736,-0.375,-0.37
2021-08-19 20:32:25.740,-0.375,-0.35
2021-08-19 20:32:25.744,-0.4,-0.36
2021-08-19 20:32:25.748,-0.42,-0.345
2021-08-19 20:32:25.752,-0.45,-0.3
2021-08-19 20:32:25.756,-0.46,-0.23
2021-08-19 20:32:25.760,-0.455,-0.19
2021-08-19 20:32:25.764,-0.49,-0.215
2021-08-19 20:32:25.768,-0.495,-0.26
2021-08-19 20:32:25.772,-0.505,-0.27
2021-08-19 20:32:25.776,-0.505,-0.225
2021-08-19 20:32:25.780,-0.535,-0.195
2021-08-19 20:32:25.784,-0.57,-0.175
2021-08-19 20:32:25.788,-0.565,-0.17
2021-08-19 20:32:25.792,-0.535,-0.195
2021-08-19 20:32:25.796,-0.545,-0.205
2021-08-19 20:32:25.800,-0.58,-0.205
2021-08-19 20:32:25.804,-0.605,-0.165
2021-08-19 20:32:25.808,-0.595,-0.185
2021-08-19 20:32:25.812,-0.585,-0.16
2021-08-19 20:32:25.816,-0.58,-0.14
2021-08-19 20:32:25.820,-0.6,-0.12
2021-08-19 20:32:25.824,-0.595,-0.145
2021-08-19 20:32:25.828,-0.575,-0.135
2021-08-19 20:32:25.832,-0.58,-0.12
2021-08-19 20:32:25.836,-0.57,-0.125
2021-08-19 20:32:25.840,-0.585,-0.125
2021-08-19 20:32:25.844,-0.585,-0.155
2021-08-19 20:32:25.848,-0.59,-0.145
2021-08-19 20:32:25.852,-0.575,-0.15
2021-08-19 20:32:25.856,-0.57,-0.12
2021-08-19 20:32:25.860,-0.585,-0.09
2021-08-19 20:32:25.864,-0.595,-0.04
2021-08-19 20:32:25.868,-0.615,-0.065
2021-08-19 20:32:25.872,-0.645,-0.125
2021-08-19 20:32:25.876,-0.645,-0.16
2021-08-19 20:32:25.880,-0.64,-0.2
2021-08-19 20:32:25.884,-0.635,-0.205
2021-08-19 20:32:25.888,-0.64,-0.195
2021-08-19 20:32:25.892,-0.655,-0.15
2021-08-19 20:32:25.896,-0.695,-0.135
2021-08-19 20:32:25.900,-0.68,-0.12
2021-08-19 20:32:25.904,-0.67,-0.14
2021-08-19 20:32:25.908,-0.665,-0.175
2021-08-19 20:32:25.912,-0.655,-0.175
2021-08-19 20:32:25.916,-0.7,-0.16
2021-08-19 20:32:25.920,-0.735,-0.13
2021-08-19 20:32:25.924,-0.75,-0.08
2021-08-19 20:32:25.928,-0.75,-0.05
2021-08-19 20:32:25.932,-0.74,-0.06
2021-08-19 20:32:25.936,-0.725,-0.125
2021-08-19 20:32:25.940,-0.72,-0.195
2021-08-19 20:32:25.944,-0.72,-0.155
2021-08-19 20:32:25.948,-0.74,-0.13
2021-08-19 20:32:25.952,-0.74,-0.12
2021-08-19 20:32:25.956,-0.73,-0.13
2021-08-19 20:32:25.960,-0.74,-0.175
2021-08-19 20:32:25.964,-0.715,-0.24
2021-08-19 20:32:25.968,-0.685,-0.225
2021-08-19 20:32:25.972,-0.66,-0.185
2021-08-19 20:32:25.976,-0.66,-0.18
2021-08-19 20:32:25.980,-0.655,-0.185
2021-08-19 20:32:25.984,-0.635,-0.16
2021-08-19 20:32:25.988,-0.625,-0.165
2021-08-19 20:32:25.992,-0.595,-0.155
2021-08-19 20:32:25.996,-0.595,-0.145
2021-08-19 20:32:26.000,-0.6,-0.155
2021-08-19 20:32:26.004,-0.58,-0.125
2021-08-19 20:32:26.008,-0.56,-0.125
2021-08-19 20:32:26.012,-0.56,-0.125
2021-08-19 20:32:26.016,-0.56,-0.135
2021-08-19 20:32:26.020,-0.59,-0.17
2021-08-19 20:32:26.024,-0.59,-0.155
2021-08-19 20:32:26.028,-0.575,-0.16
2021-08-19 20:32:26.032,-0.55,-0.17
2021-08-19 20:32:26.036,-0.54,-0.17
2021-08-19 20:32:26.040,-0.56,-0.175
2021-08-19 20:32:26.044,-0.55,-0.145
2021-08-19 20:32:26.048,-0.545,-0.15
2021-08-19 20:32:26.052,-0.555,-0.19
2021-08-19 20:32:26.056,-0.525,-0.185
2021-08-19 20:32:26.060,-0.54,-0.175
2021-08-19 20:32:26.064,-0.55,-0.16
2021-08-19 20:32:26.068,-0.57,-0.145
2021-08-19 20:32:26.072,-0.56,-0.14
2021-08-19 20:32:26.076,-0.565,-0.125
2021-08-19 20:32:26.080,-0.555,-0.12
2021-08-19 20:32:26.084,-0.575,-0.09
2021-08-19 20:32:26.088,-0.54,-0.075
2021-08-19 20:32:26.092,-0.515,-0.12
2021-08-19 20:32:26.096,-0.52,-0.165
2021-08-19 20:32:26.100,-0.51,-0.13
2021-08-19 20:32:26.104,-0.495,-0.11
2021-08-19 20:32:26.108,-0.49,-0.16
2021-08-19 20:32:26.112,-0.525,-0.22
2021-08-19 20:32:26.116,-0.57,-0.255
2021-08-19 20:32:26.120,-0.58,-0.22
2021-08-19 20:32:26.124,-0.57,-0.19
2021-08-19 20:32:26.128,-0.54,-0.19
2021-08-19 20:32:26.132,-0.52,-0.185
2021-08-19 20:32:26.136,-0.48,-0.2
2021-08-19 20:32:26.140,-0.5,-0.175
2021-08-19 20:32:26.144,-0.515,-0.185
2021-08-19 20:32:26.148,-0.495,-0.18
2021-08-19 20:32:26.152,-0.52,-0.17
2021-08-19 20:32:26.156,-0.49,-0.18
2021-08-19 20:32:26.160,-0.49,-0.18
2021-08-19 20:32:26.164,-0.475,-0.13
2021-08-19 20:32:26.168,-0.49,-0.1
2021-08-19 20:32:26.172,-0.495,-0.105
2021-08-19 20:32:26.176,-0.46,-0.145
2021-08-19 20:32:26.180,-0.45,-0.11
2021-08-19 20:32:26.184,-0.415,-0.1
2021-08-19 20:32:26.188,-0.385,-0.17
2021-08-19 20:32:26.192,-0.375,-0.21
2021-08-19 20:32:26.196,-0.435,-0.225
2021-08-19 20:32:26.200,-0.5,-0.225
2021-08-19 20:32:26.204,-0.515,-0.22
2021-08-19 20:32:26.208,-0.52,-0.225
2021-08-19 20:32:26.212,-0.5,-0.185
2021-08-19 20:32:26.216,-0.48,-0.18
2021-08-19 20:32:26.220,-0.45,-0.225
2021-08-19 20:32:26.224,-0.44,-0.225
2021-08-19 20:32:26.228,-0.425,-0.225
2021-08-19 20:32:26.232,-0.46,-0.175
2021-08-19 20:32:26.236,-0.48,-0.155
2021-08-19 20:32:26.240,-0.475,-0.13
2021-08-19 20:32:26.244,-0.405,-0.12
2021-08-19 20:32:26.248,-0.37,-0.125
2021-08-19 20:32:26.252,-0.4,-0.09
2021-08-19 20:32:26.256,-0.465,-0.075
2021-08-19 20:32:26.260,-0.46,-0.06
2021-08-19 20:32:26.264,-0.425,-0.115
2021-08-19 20:32:26.268,-0.415,-0.185
2021-08-19 20:32:26.272,-0.43,-0.215
2021-08-19 20:32:26.276,-0.43,-0.195
2021-08-19 20:32:26.280,-0.42,-0.2
2021-08-19 20:32:26.284,-0.445,-0.21
2021-08-19 20:32:26.288,-0.51,-0.24
2021-08-19 20:32:26.292,-0.565,-0.23
2021-08-19 20:32:26.296,-0.56,-0.21
2021-08-19 20:32:26.300,-0.54,-0.245
2021-08-19 20:32:26.304,-0.5,-0.235
2021-08-19 20:32:26.308,-0.475,-0.22
2021-08-19 20:32:26.312,-0.46,-0.205
2021-08-19 20:32:26.316,-0.49,-0.2
2021-08-19 20:32:26.320,-0.485,-0.2
2021-08-19 20:32:26.324,-0.455,-0.2
2021-08-19 20:32:26.328,-0.425,-0.21
2021-08-19 20:32:26.332,-0.46,-0.21
2021-08-19 20:32:26.336,-0.5,-0.23
2021-08-19 20:32:26.340,-0.515,-0.245
2021-08-19 20:32:26.344,-0.495,-0.235
2021-08-19 20:32:26.348,-0.41,-0.24
2021-08-19 20:32:26.352,-0.185,-0.205
2021-08-19 20:32:26.356,0.035,-0.16
2021-08-19 20:32:26.360,0.265,-0.125
2021-08-19 20:32:26.364,0.45,-0.1
2021-08-19 20:32:26.368,0.475,-0.1
2021-08-19 20:32:26.372,0.255,-0.115
2021-08-19 20:32:26.376,-0.075,-0.15
2021-08-19 20:32:26.380,-0.345,-0.245
2021-08-19 20:32:26.384,-0.52,-0.255
2021-08-19 20:32:26.388,-0.625,-0.155
2021-08-19 20:32:26.392,-0.675,-0.035
2021-08-19 20:32:26.396,-0.68,0.08
2021-08-19 20:32:26.400,-0.72,0.245
2021-08-19 20:32:26.404,-0.785,0.455
2021-08-19 20:32:26.408,-0.8,0.615
2021-08-19 20:32:26.412,-0.825,0.67
2021-08-19 20:32:26.416,-0.755,0.61
2021-08-19 20:32:26.420,-0.635,0.47
2021-08-19 20:32:26.424,-0.51,0.385
2021-08-19 20:32:26.428,-0.46,0.335
2021-08-19 20:32:26.432,-0.455,0.3
2021-08-19 20:32:26.436,-0.435,0.22
2021-08-19 20:32:26.440,-0.365,0.09
2021-08-19 20:32:26.444,-0.23,0.0
2021-08-19 20:32:26.448,-0.14,-0.08
2021-08-19 20:32:26.452,-0.24,-0.11
2021-08-19 20:32:26.456,-0.46,-0.16
2021-08-19 20:32:26.460,-0.58,-0.145
2021-08-19 20:32:26.464,-0.54,-0.145
2021-08-19 20:32:26.468,-0.445,-0.145
2021-08-19 20:32:26.472,-0.42,-0.185
2021-08-19 20:32:26.476,-0.4,-0.24
2021-08-19 20:32:26.480,-0.37,-0.27
2021-08-19 20:32:26.484,-0.385,-0.28
2021-08-19 20:32:26.488,-0.4,-0.25
2021-08-19 20:32:26.492,-0.41,-0.265
2021-08-19 20:32:26.496,-0.375,-0.235
2021-08-19 20:32:26.500,-0.36,-0.24
2021-08-19 20:32:26.504,-0.335,-0.265
2021-08-19 20:32:26.508,-0.34,-0.29
2021-08-19 20:32:26.512,-0.32,-0.285
2021-08-19 20:32:26.516,-0.325,-0.3
2021-08-19 20:32:26.520,-0.31,-0.29
2021-08-19 20:32:26.524,-0.32,-0.27
2021-08-19 20:32:26.528,-0.315,-0.28
2021-08-19 20:32:26.532,-0.305,-0.3
2021-08-19 20:32:26.536,-0.275,-0.33
2021-08-19 20:32:26.540,-0.315,-0.335
2021-08-19 20:32:26.544,-0.295,-0.35
2021-08-19 20:32:26.548,-0.255,-0.375
2021-08-19 20:32:26.552,-0.16,-0.385
2021-08-19 20:32:26.556,-0.125,-0.38
2021-08-19 20:32:26.560,-0.115,-0.405
2021-08-19 20:32:26.564,-0.14,-0.42
2021-08-19 20:32:26.568,-0.175,-0.4
2021-08-19 20:32:26.572,-0.36,-0.4
2021-08-19 20:32:26.576,-0.535,-0.335
2021-08-19 20:32:26.580,-0.555,-0.255
2021-08-19 20:32:26.584,-0.5,-0.255
2021-08-19 20:32:26.588,-0.44,-0.305
2021-08-19 20:32:26.592,-0.38,-0.425
2021-08-19 20:32:26.596,-0.385,-0.51
2021-08-19 20:32:26.600,-0.405,-0.56
2021-08-19 20:32:26.604,-0.4,-0.58
2021-08-19 20:32:26.608,-0.375,-0.525
2021-08-19 20:32:26.612,-0.34,-0.53
2021-08-19 20:32:26.616,-0.36,-0.54
2021-08-19 20:32:26.620,-0.35,-0.555
2021-08-19 20:32:26.624,-0.315,-0.54
2021-08-19 20:32:26.628,-0.305,-0.52
2021-08-19 20:32:26.632,-0.28,-0.5
2021-08-19 20:32:26.636,-0.3,-0.48
2021-08-19 20:32:26.640,-0.31,-0.44
2021-08-19 20:32:26.644,-0.285,-0.42
2021-08-19 20:32:26.648,-0.28,-0.39
2021-08-19 20:32:26.652,-0.285,-0.405
2021-08-19 20:32:26.656,-0.305,-0.345
2021-08-19 20:32:26.660,-0.31,-0.31
2021-08-19 20:32:26.664,-0.305,-0.3
2021-08-19 20:32:26.668,-0.305,-0.3
2021-08-19 20:32:26.672,-0.315,-0.305
2021-08-19 20:32:26.676,-0.31,-0.295
2021-08-19 20:32:26.680,-0.32,-0.27
2021-08-19 20:32:26.684,-0.31,-0.27
2021-08-19 20:32:26.688,-0.315,-0.25
2021-08-19 20:32:26.692,-0.3,-0.24
2021-08-19 20:32:26.696,-0.295,-0.215
2021-08-19 20:32:26.700,-0.29,-0.23
2021-08-19 20:32:26.704,-0.285,-0.22
2021-08-19 20:32:26.708,-0.29,-0.22
2021-08-19 20:32:26.712,-0.275,-0.23
2021-08-19 20:32:26.716,-0.245,-0.225
2021-08-19 20:32:26.720,-0.215,-0.2
2021-08-19 20:32:26.724,-0.23,-0.22
2021-08-19 20:32:26.728,-0.215,-0.23
2021-08-19 20:32:26.732,-0.135,-0.205
2021-08-19 20:32:26.736,-0.01,-0.195
2021-08-19 20:32:26.740,0.065,-0.195
2021-08-19 20:32:26.744,0.005,-0.185
2021-08-19 20:32:26.748,-0.115,-0.19
2021-08-19 20:32:26.752,-0.235,-0.22
2021-08-19 20:32:26.756,-0.35,-0.205
2021-08-19 20:32:26.760,-0.35,-0.185
2021-08-19 20:32:26.764,-0.33,-0.195
2021-08-19 20:32:26.768,-0.32,-0.16
2021-08-19 20:32:26.772,-0.29,-0.08
2021-08-19 20:32:26.776,-0.295,-0.05
2021-08-19 20:32:26.780,-0.255,-0.05
2021-08-19 20:32:26.784,-0.225,-0.105
2021-08-19 20:32:26.788,-0.225,-0.16
2021-08-19 20:32:26.792,-0.19,-0.22
2021-08-19 20:32:26.796,-0.18,-0.25
2021-08-19 20:32:26.800,-0.18,-0.275
2021-08-19 20:32:26.804,-0.185,-0.25
2021-08-19 20:32:26.808,-0.21,-0.26
2021-08-19 20:32:26.812,-0.225,-0.24
2021-08-19 20:32:26.816,-0.23,-0.235
2021-08-19 20:32:26.820,-0.22,-0.22
2021-08-19 20:32:26.824,-0.205,-0.215
2021-08-19 20:32:26.828,-0.21,-0.17
2021-08-19 20:32:26.832,-0.22,-0.185
2021-08-19 20:32:26.836,-0.23,-0.2
2021-08-19 20:32:26.840,-0.235,-0.19
2021-08-19 20:32:26.844,-0.245,-0.17
2021-08-19 20:32:26.848,-0.235,-0.12
2021-08-19 20:32:26.852,-0.205,-0.105
2021-08-19 20:32:26.856,-0.205,-0.165
2021-08-19 20:32:26.860,-0.2,-0.23
2021-08-19 20:32:26.864,-0.235,-0.235
2021-08-19 20:32:26.868,-0.245,-0.21
2021-08-19 20:32:26.872,-0.255,-0.18
2021-08-19 20:32:26.876,-0.27,-0.19
2021-08-19 20:32:26.880,-0.225,-0.205
2021-08-19 20:32:26.884,-0.175,-0.225
2021-08-19 20:32:26.888,-0.195,-0.19
2021-08-19 20:32:26.892,-0.25,-0.215
2021-08-19 20:32:26.896,-0.285,-0.2
2021-08-19 20:32:26.900,-0.305,-0.19
2021-08-19 20:32:26.904,-0.31,-0.195
2021-08-19 20:32:26.908,-0.33,-0.21
2021-08-19 20:32:26.912,-0.325,-0.16
2021-08-19 20:32:26.916,-0.32,-0.185
2021-08-19 20:32:26.920,-0.26,-0.19
2021-08-19 20:32:26.924,-0.225,-0.18
2021-08-19 20:32:26.928,-0.25,-0.185
2021-08-19 20:32:26.932,-0.27,-0.16
2021-08-19 20:32:26.936,-0.325,-0.165
2021-08-19 20:32:26.940,-0.325,-0.175
2021-08-19 20:32:26.944,-0.29,-0.17
2021-08-19 20:32:26.948,-0.25,-0.095
2021-08-19 20:32:26.952,-0.2,-0.09
2021-08-19 20:32:26.956,-0.19,-0.135
2021-08-19 20:32:26.960,-0.16,-0.215
2021-08-19 20:32:26.964,-0.205,-0.26
2021-08-19 20:32:26.968,-0.265,-0.255
2021-08-19 20:32:26.972,-0.295,-0.25
2021-08-19 20:32:26.976,-0.29,-0.24
2021-08-19 20:32:26.980,-0.305,-0.225
2021-08-19 20:32:26.984,-0.29,-0.2
2021-08-19 20:32:26.988,-0.285,-0.2
2021-08-19 20:32:26.992,-0.29,-0.185
2021-08-19 20:32:26.996,-0.32,-0.17
2021-08-19 20:32:27.000,-0.33,-0.175
2021-08-19 20:32:27.004,-0.345,-0.15
2021-08-19 20:32:27.008,-0.295,-0.16
2021-08-19 20:32:27.012,-0.26,-0.175
2021-08-19 20:32:27.016,-0.245,-0.145
2021-08-19 20:32:27.020,-0.235,-0.125
2021-08-19 20:32:27.024,-0.205,-0.11
2021-08-19 20:32:27.028,-0.2,-0.09
2021-08-19 20:32:27.032,-0.22,-0.045
2021-08-19 20:32:27.036,-0.22,0.025
2021-08-19 20:32:27.040,-0.18,0.01
2021-08-19 20:32:27.044,-0.165,-0.045
2021-08-19 20:32:27.048,-0.175,-0.095
2021-08-19 20:32:27.052,-0.185,-0.06
2021-08-19 20:32:27.056,-0.195,-0.075
2021-08-19 20:32:27.060,-0.195,-0.17
2021-08-19 20:32:27.064,-0.19,-0.27
2021-08-19 20:32:27.068,-0.19,-0.3
2021-08-19 20:32:27.072,-0.235,-0.285
2021-08-19 20:32:27.076,-0.21,-0.275
2021-08-19 20:32:27.080,-0.21,-0.275
2021-08-19 20:32:27.084,-0.205,-0.26
2021-08-19 20:32:27.088,-0.18,-0.275
2021-08-19 20:32:27.092,-0.21,-0.24
2021-08-19 20:32:27.096,-0.255,-0.24
2021-08-19 20:32:27.100,-0.24,-0.225
2021-08-19 20:32:27.104,-0.215,-0.22
2021-08-19 20:32:27.108,-0.245,-0.215
2021-08-19 20:32:27.112,-0.32,-0.215
2021-08-19 20:32:27.116,-0.395,-0.19
2021-08-19 20:32:27.120,-0.39,-0.175
2021-08-19 20:32:27.124,-0.37,-0.165
2021-08-19 20:32:27.128,-0.375,-0.175
2021-08-19 20:32:27.132,-0.38,-0.155
2021-08-19 20:32:27.136,-0.335,-0.155
2021-08-19 20:32:27.140,-0.325,-0.185
2021-08-19 20:32:27.144,-0.32,-0.22
2021-08-19 20:32:27.148,-0.29,-0.21
2021-08-19 20:32:27.152,-0.145,-0.195
2021-08-19 20:32:27.156,0.03,-0.145
2021-08-19 20:32:27.160,0.255,-0.105
2021-08-19 20:32:27.164,0.455,-0.04
2021-08-19 20:32:27.168,0.59,-0.025
2021-08-19 20:32:27.172,0.54,-0.04
2021-08-19 20:32:27.176,0.29,-0.075
2021-08-19 20:32:27.180,-0.03,-0.135
2021-08-19 20:32:27.184,-0.275,-0.21
2021-08-19 20:32:27.188,-0.415,-0.2
2021-08-19 20:32:27.192,-0.44,-0.115
2021-08-19 20:32:27.196,-0.475,0.03
2021-08-19 20:32:27.200,-0.495,0.2
2021-08-19 20:32:27.204,-0.605,0.375
2021-08-19 20:32:27.208,-0.7,0.555
2021-08-19 20:32:27.212,-0.74,0.705
2021-08-19 20:32:27.216,-0.69,0.735
2021-08-19 20:32:27.220,-0.555,0.67
2021-08-19 20:32:27.224,-0.415,0.58
2021-08-19 20:32:27.228,-0.335,0.565
2021-08-19 20:32:27.232,-0.315,0.71
2021-08-19 20:32:27.236,-0.32,0.565
2021-08-19 20:32:27.240,-0.34,0.19
2021-08-19 20:32:27.244,-0.345,-0.13
2021-08-19 20:32:27.248,-0.355,-0.215
2021-08-19 20:32:27.252,-0.32,-0.27
2021-08-19 20:32:27.256,-0.29,-0.27
2021-08-19 20:32:27.260,-0.24,-0.22
2021-08-19 20:32:27.264,-0.24,-0.2
2021-08-19 20:32:27.268,-0.255,-0.225
2021-08-19 20:32:27.272,-0.26,-0.235
2021-08-19 20:32:27.276,-0.255,-0.245
2021-08-19 20:32:27.280,-0.275,-0.25
2021-08-19 20:32:27.284,-0.25,-0.205
2021-08-19 20:32:27.288,-0.235,-0.2
2021-08-19 20:32:27.292,-0.205,-0.205
2021-08-19 20:32:27.296,-0.18,-0.225
2021-08-19 20:32:27.300,-0.165,-0.225
2021-08-19 20:32:27.304,-0.19,-0.24
2021-08-19 20:32:27.308,-0.2,-0.23
2021-08-19 20:32:27.312,-0.2,-0.245
2021-08-19 20:32:27.316,-0.155,-0.24
2021-08-19 20:32:27.320,-0.105,-0.25
2021-08-19 20:32:27.324,-0.105,-0.285
2021-08-19 20:32:27.328,-0.065,-0.25
2021-08-19 20:32:27.332,-0.065,-0.27
2021-08-19 20:32:27.336,-0.1,-0.32
2021-08-19 20:32:27.340,-0.145,-0.33
2021-08-19 20:32:27.344,-0.195,-0.29
2021-08-19 20:32:27.348,-0.22,-0.285
2021-08-19 20:32:27.352,-0.225,-0.25
2021-08-19 20:32:27.356,-0.215,-0.265
2021-08-19 20:32:27.360,-0.19,-0.32
2021-08-19 20:32:27.364,-0.175,-0.44
2021-08-19 20:32:27.368,-0.18,-0.49
2021-08-19 20:32:27.372,-0.15,-0.45
2021-08-19 20:32:27.376,-0.13,-0.39
2021-08-19 20:32:27.380,-0.15,-0.395
2021-08-19 20:32:27.384,-0.17,-0.445
2021-08-19 20:32:27.388,-0.155,-0.525
2021-08-19 20:32:27.392,-0.145,-0.545
2021-08-19 20:32:27.396,-0.13,-0.55
2021-08-19 20:32:27.400,-0.13,-0.555
2021-08-19 20:32:27.404,-0.135,-0.53
2021-08-19 20:32:27.408,-0.155,-0.545
2021-08-19 20:32:27.412,-0.175,-0.525
2021-08-19 20:32:27.416,-0.165,-0.515
2021-08-19 20:32:27.420,-0.145,-0.495
2021-08-19 20:32:27.424,-0.145,-0.49
2021-08-19 20:32:27.428,-0.14,-0.46
2021-08-19 20:32:27.432,-0.155,-0.395
2021-08-19 20:32:27.436,-0.175,-0.345
2021-08-19 20:32:27.440,-0.16,-0.32
2021-08-19 20:32:27.444,-0.165,-0.25
2021-08-19 20:32:27.448,-0.225,-0.21
2021-08-19 20:32:27.452,-0.3,-0.245
2021-08-19 20:32:27.456,-0.335,-0.295
2021-08-19 20:32:27.460,-0.31,-0.29
2021-08-19 20:32:27.464,-0.28,-0.3
2021-08-19 20:32:27.468,-0.26,-0.325
2021-08-19 20:32:27.472,-0.27,-0.365
2021-08-19 20:32:27.476,-0.25,-0.33
2021-08-19 20:32:27.480,-0.27,-0.295
2021-08-19 20:32:27.484,-0.28,-0.25
2021-08-19 20:32:27.488,-0.28,-0.24
2021-08-19 20:32:27.492,-0.285,-0.225
2021-08-19 20:32:27.496,-0.285,-0.255
2021-08-19 20:32:27.500,-0.28,-0.21
2021-08-19 20:32:27.504,-0.25,-0.215
2021-08-19 20:32:27.508,-0.275,-0.215
2021-08-19 20:32:27.512,-0.27,-0.2
2021-08-19 20:32:27.516,-0.27,-0.17
2021-08-19 20:32:27.520,-0.225,-0.16
2021-08-19 20:32:27.524,-0.21,-0.145
2021-08-19 20:32:27.528,-0.24,-0.1
2021-08-19 20:32:27.532,-0.275,-0.095
2021-08-19 20:32:27.536,-0.28,-0.16
2021-08-19 20:32:27.540,-0.255,-0.22
2021-08-19 20:32:27.544,-0.225,-0.195
2021-08-19 20:32:27.548,-0.2,-0.12
2021-08-19 20:32:27.552,-0.175,-0.12
2021-08-19 20:32:27.556,-0.145,-0.14
2021-08-19 20:32:27.560,-0.11,-0.185
2021-08-19 20:32:27.564,-0.145,-0.21
2021-08-19 20:32:27.568,-0.19,-0.17
2021-08-19 20:32:27.572,-0.19,-0.155
2021-08-19 20:32:27.576,-0.105,-0.145
2021-08-19 20:32:27.580,-0.04,-0.155
2021-08-19 20:32:27.584,-0.08,-0.155
2021-08-19 20:32:27.588,-0.115,-0.14
2021-08-19 20:32:27.592,-0.195,-0.105
2021-08-19 20:32:27.596,-0.29,0.0
2021-08-19 20:32:27.600,-0.315,0.215
2021-08-19 20:32:27.604,-0.28,0.24
2021-08-19 20:32:27.608,-0.265,-0.065
2021-08-19 20:32:27.612,-0.25,-0.37
2021-08-19 20:32:27.616,-0.245,-0.42
2021-08-19 20:32:27.620,-0.24,-0.37
2021-08-19 20:32:27.624,-0.235,-0.265
2021-08-19 20:32:27.628,-0.22,-0.23
2021-08-19 20:32:27.632,-0.23,-0.205
2021-08-19 20:32:27.636,-0.23,-0.195
2021-08-19 20:32:27.640,-0.25,-0.18
2021-08-19 20:32:27.644,-0.225,-0.195
2021-08-19 20:32:27.648,-0.215,-0.185
2021-08-19 20:32:27.652,-0.205,-0.18
2021-08-19 20:32:27.656,-0.205,-0.15
2021-08-19 20:32:27.660,-0.23,-0.16
2021-08-19 20:32:27.664,-0.225,-0.165
2021-08-19 20:32:27.668,-0.24,-0.165
2021-08-19 20:32:27.672,-0.245,-0.155
2021-08-19 20:32:27.676,-0.24,-0.14
2021-08-19 20:32:27.680,-0.245,-0.175
2021-08-19 20:32:27.684,-0.255,-0.16
2021-08-19 20:32:27.688,-0.245,-0.16
2021-08-19 20:32:27.692,-0.235,-0.175
2021-08-19 20:32:27.696,-0.24,-0.16
2021-08-19 20:32:27.700,-0.235,-0.14
2021-08-19 20:32:27.704,-0.23,-0.125
2021-08-19 20:32:27.708,-0.215,-0.15
2021-08-19 20:32:27.712,-0.21,-0.15
2021-08-19 20:32:27.716,-0.17,-0.18
2021-08-19 20:32:27.720,-0.095,-0.145
2021-08-19 20:32:27.724,-0.025,-0.105
2021-08-19 20:32:27.728,-0.025,-0.095
2021-08-19 20:32:27.732,-0.095,-0.1
2021-08-19 20:32:27.736,-0.24,-0.055
2021-08-19 20:32:27.740,-0.31,0.055
2021-08-19 20:32:27.744,-0.38,0.01
2021-08-19 20:32:27.748,-0.37,-0.135
2021-08-19 20:32:27.752,-0.33,-0.215
2021-08-19 20:32:27.756,-0.3,-0.24
2021-08-19 20:32:27.760,-0.26,-0.25
2021-08-19 20:32:27.764,-0.255,-0.265
2021-08-19 20:32:27.768,-0.235,-0.275
2021-08-19 20:32:27.772,-0.225,-0.26
2021-08-19 20:32:27.776,-0.21,-0.22
2021-08-19 20:32:27.780,-0.21,-0.205
2021-08-19 20:32:27.784,-0.22,-0.19
2021-08-19 20:32:27.788,-0.165,-0.17
2021-08-19 20:32:27.792,-0.18,-0.17
2021-08-19 20:32:27.796,-0.175,-0.15
2021-08-19 20:32:27.800,-0.15,-0.14
2021-08-19 20:32:27.804,-0.17,-0.125
2021-08-19 20:32:27.808,-0.12,-0.11
2021-08-19 20:32:27.812,-0.095,-0.075
2021-08-19 20:32:27.816,-0.095,-0.06
2021-08-19 20:32:27.820,-0.09,-0.02
2021-08-19 20:32:27.824,-0.09,0.06
2021-08-19 20:32:27.828,-0.06,0.1
2021-08-19 20:32:27.832,-0.1,0.035
2021-08-19 20:32:27.836,-0.125,-0.05
2021-08-19 20:32:27.840,-0.085,-0.05
2021-08-19 20:32:27.844,-0.045,0.05
2021-08-19 20:32:27.848,-0.065,0.075
2021-08-19 20:32:27.852,-0.125,-0.095
2021-08-19 20:32:27.856,-0.175,-0.355
2021-08-19 20:32:27.860,-0.24,-0.45
2021-08-19 20:32:27.864,-0.255,-0.335
2021-08-19 20:32:27.868,-0.275,-0.285
2021-08-19 20:32:27.872,-0.265,-0.305
2021-08-19 20:32:27.876,-0.255,-0.315
2021-08-19 20:32:27.880,-0.28,-0.29
2021-08-19 20:32:27.884,-0.27,-0.275
2021-08-19 20:32:27.888,-0.285,-0.23
2021-08-19 20:32:27.892,-0.28,-0.205
2021-08-19 20:32:27.896,-0.285,-0.195
2021-08-19 20:32:27.900,-0.265,-0.195
2021-08-19 20:32:27.904,-0.235,-0.175
2021-08-19 20:32:27.908,-0.25,-0.215
2021-08-19 20:32:27.912,-0.225,-0.205
2021-08-19 20:32:27.916,-0.24,-0.19
2021-08-19 20:32:27.920,-0.255,-0.175
2021-08-19 20:32:27.924,-0.24,-0.16
2021-08-19 20:32:27.928,-0.165,-0.18
2021-08-19 20:32:27.932,-0.03,-0.16
2021-08-19 20:32:27.936,0.19,-0.105
2021-08-19 20:32:27.940,0.38,-0.08
2021-08-19 20:32:27.944,0.545,-0.035
2021-08-19 20:32:27.948,0.605,-0.035
2021-08-19 20:32:27.952,0.445,-0.05
2021-08-19 20:32:27.956,0.12,-0.1
2021-08-19 20:32:27.960,-0.17,-0.195
2021-08-19 20:32:27.964,-0.34,-0.265
2021-08-19 20:32:27.968,-0.415,-0.205
2021-08-19 20:32:27.972,-0.435,-0.04
2021-08-19 20:32:27.976,-0.44,0.11
2021-08-19 20:32:27.980,-0.49,0.28
2021-08-19 20:32:27.984,-0.5,0.485
2021-08-19 20:32:27.988,-0.585,0.69
2021-08-19 20:32:27.992,-0.65,0.825
2021-08-19 20:32:27.996,-0.63,0.75
2021-08-19 20:32:28.000,-0.535,0.595
2021-08-19 20:32:28.004,-0.405,0.5
2021-08-19 20:32:28.008,-0.325,0.455
2021-08-19 20:32:28.012,-0.285,0.32
2021-08-19 20:32:28.016,-0.23,0.16
2021-08-19 20:32:28.020,-0.205,0.0
2021-08-19 20:32:28.024,-0.195,-0.105
2021-08-19 20:32:28.028,-0.195,-0.145
2021-08-19 20:32:28.032,-0.2,-0.17
2021-08-19 20:32:28.036,-0.17,-0.175
2021-08-19 20:32:28.040,-0.175,-0.195
2021-08-19 20:32:28.044,-0.17,-0.195
2021-08-19 20:32:28.048,-0.175,-0.2
2021-08-19 20:32:28.052,-0.15,-0.22
2021-08-19 20:32:28.056,-0.085,-0.18
2021-08-19 20:32:28.060,-0.075,-0.165
2021-08-19 20:32:28.064,-0.1,-0.19
2021-08-19 20:32:28.068,-0.13,-0.205
2021-08-19 20:32:28.072,-0.115,-0.19
2021-08-19 20:32:28.076,-0.08,-0.08
2021-08-19 20:32:28.080,-0.055,0.1
2021-08-19 20:32:28.084,-0.095,0.13
2021-08-19 20:32:28.088,-0.105,-0.035
2021-08-19 20:32:28.092,-0.105,-0.16
2021-08-19 20:32:28.096,-0.1,-0.32
2021-08-19 20:32:28.100,-0.08,-0.52
2021-08-19 20:32:28.104,-0.075,-0.56
2021-08-19 20:32:28.108,-0.03,-0.495
2021-08-19 20:32:28.112,-0.04,-0.425
2021-08-19 20:32:28.116,-0.04,-0.395
2021-08-19 20:32:28.120,-0.01,-0.4
2021-08-19 20:32:28.124,0.0,-0.395
2021-08-19 20:32:28.128,0.0,-0.405
2021-08-19 20:32:28.132,0.01,-0.405
2021-08-19 20:32:28.136,-0.015,-0.42
2021-08-19 20:32:28.140,-0.01,-0.455
2021-08-19 20:32:28.144,0.02,-0.47
2021-08-19 20:32:28.148,0.035,-0.485
2021-08-19 20:32:28.152,0.02,-0.5
2021-08-19 20:32:28.156,0.03,-0.505
2021-08-19 20:32:28.160,0.02,-0.525
2021-08-19 20:32:28.164,0.0,-0.52
2021-08-19 20:32:28.168,0.0,-0.52
2021-08-19 20:32:28.172,-0.03,-0.53
2021-08-19 20:32:28.176,-0.04,-0.535
2021-08-19 20:32:28.180,-0.025,-0.54
2021-08-19 20:32:28.184,0.015,-0.54
2021-08-19 20:32:28.188,0.03,-0.555
2021-08-19 20:32:28.192,0.02,-0.535
2021-08-19 20:32:28.196,-0.005,-0.51
2021-08-19 20:32:28.200,-0.04,-0.5
2021-08-19 20:32:28.204,-0.08,-0.47
2021-08-19 20:32:28.208,-0.14,-0.47
2021-08-19 20:32:28.212,-0.15,-0.47
2021-08-19 20:32:28.216,-0.14,-0.42
2021-08-19 20:32:28.220,-0.125,-0.41
2021-08-19 20:32:28.224,-0.12,-0.38
2021-08-19 20:32:28.228,-0.11,-0.335
2021-08-19 20:32:28.232,-0.13,-0.295
2021-08-19 20:32:28.236,-0.12,-0.275
2021-08-19 20:32:28.240,-0.15,-0.255
2021-08-19 20:32:28.244,-0.16,-0.265
2021-08-19 20:32:28.248,-0.145,-0.24
2021-08-19 20:32:28.252,-0.14,-0.19
2021-08-19 20:32:28.256,-0.165,-0.17
2021-08-19 20:32:28.260,-0.145,-0.195
2021-08-19 20:32:28.264,-0.15,-0.285
2021-08-19 20:32:28.268,-0.17,-0.3
2021-08-19 20:32:28.272,-0.19,-0.29
2021-08-19 20:32:28.276,-0.18,-0.26
2021-08-19 20:32:28.280,-0.155,-0.245
2021-08-19 20:32:28.284,-0.15,-0.235
2021-08-19 20:32:28.288,-0.15,-0.235
2021-08-19 20:32:28.292,-0.165,-0.215
2021-08-19 20:32:28.296,-0.18,-0.205
2021-08-19 20:32:28.300,-0.165,-0.21
2021-08-19 20:32:28.304,-0.155,-0.16
2021-08-19 20:32:28.308,-0.13,-0.145
2021-08-19 20:32:28.312,-0.11,-0.12
2021-08-19 20:32:28.316,-0.115,-0.16
2021-08-19 20:32:28.320,-0.13,-0.215
2021-08-19 20:32:28.324,-0.12,-0.24
2021-08-19 20:32:28.328,-0.11,-0.235
2021-08-19 20:32:28.332,-0.11,-0.195
2021-08-19 20:32:28.336,-0.13,-0.16
2021-08-19 20:32:28.340,-0.1,-0.165
2021-08-19 20:32:28.344,-0.1,-0.18
2021-08-19 20:32:28.348,-0.095,-0.175
2021-08-19 20:32:28.352,-0.08,-0.185
2021-08-19 20:32:28.356,-0.08,-0.175
2021-08-19 20:32:28.360,-0.085,-0.125
2021-08-19 20:32:28.364,-0.1,-0.13
2021-08-19 20:32:28.368,-0.105,-0.185
2021-08-19 20:32:28.372,-0.085,-0.215
2021-08-19 20:32:28.376,-0.07,-0.22
2021-08-19 20:32:28.380,-0.08,-0.225
2021-08-19 20:32:28.384,-0.08,-0.2
2021-08-19 20:32:28.388,-0.08,-0.18
2021-08-19 20:32:28.392,-0.085,-0.17
2021-08-19 20:32:28.396,-0.13,-0.2
2021-08-19 20:32:28.400,-0.17,-0.205
2021-08-19 20:32:28.404,-0.165,-0.22
2021-08-19 20:32:28.408,-0.18,-0.18
2021-08-19 20:32:28.412,-0.18,-0.17
2021-08-19 20:32:28.416,-0.18,-0.14
2021-08-19 20:32:28.420,-0.18,-0.135
2021-08-19 20:32:28.424,-0.15,-0.14
2021-08-19 20:32:28.428,-0.14,-0.2
2021-08-19 20:32:28.432,-0.14,-0.19
2021-08-19 20:32:28.436,-0.12,-0.145
2021-08-19 20:32:28.440,-0.14,-0.145
2021-08-19 20:32:28.444,-0.135,-0.205
2021-08-19 20:32:28.448,-0.135,-0.235
2021-08-19 20:32:28.452,-0.14,-0.26
2021-08-19 20:32:28.456,-0.12,-0.24
2021-08-19 20:32:28.460,-0.155,-0.245
2021-08-19 20:32:28.464,-0.175,-0.225
2021-08-19 20:32:28.468,-0.145,-0.235
2021-08-19 20:32:28.472,-0.13,-0.195
2021-08-19 20:32:28.476,-0.14,-0.17
2021-08-19 20:32:28.480,-0.115,-0.185
2021-08-19 20:32:28.484,-0.145,-0.215
2021-08-19 20:32:28.488,-0.19,-0.24
2021-08-19 20:32:28.492,-0.205,-0.24
2021-08-19 20:32:28.496,-0.22,-0.21
2021-08-19 20:32:28.500,-0.19,-0.19
2021-08-19 20:32:28.504,-0.2,-0.2
2021-08-19 20:32:28.508,-0.2,-0.17
2021-08-19 20:32:28.512,-0.19,-0.19
2021-08-19 20:32:28.516,-0.185,-0.195
2021-08-19 20:32:28.520,-0.16,-0.145
2021-08-19 20:32:28.524,-0.185,-0.075
2021-08-19 20:32:28.528,-0.165,-0.11
2021-08-19 20:32:28.532,-0.185,-0.16
2021-08-19 20:32:28.536,-0.175,-0.225
2021-08-19 20:32:28.540,-0.18,-0.265
2021-08-19 20:32:28.544,-0.17,-0.255
2021-08-19 20:32:28.548,-0.16,-0.24
2021-08-19 20:32:28.552,-0.155,-0.22
2021-08-19 20:32:28.556,-0.1,-0.245
2021-08-19 20:32:28.560,-0.1,-0.215
2021-08-19 20:32:28.564,-0.125,-0.235
2021-08-19 20:32:28.568,-0.135,-0.2
2021-08-19 20:32:28.572,-0.12,-0.19
2021-08-19 20:32:28.576,-0.065,-0.175
2021-08-19 20:32:28.580,-0.01,-0.15
2021-08-19 20:32:28.584,-0.02,-0.125
2021-08-19 20:32:28.588,-0.06,-0.12
2021-08-19 20:32:28.592,-0.15,-0.13
2021-08-19 20:32:28.596,-0.16,-0.16
2021-08-19 20:32:28.600,-0.19,-0.195
2021-08-19 20:32:28.604,-0.19,-0.22
2021-08-19 20:32:28.608,-0.16,-0.24
2021-08-19 20:32:28.612,-0.13,-0.24
2021-08-19 20:32:28.616,-0.14,-0.24
2021-08-19 20:32:28.620,-0.155,-0.24
2021-08-19 20:32:28.624,-0.175,-0.22
2021-08-19 20:32:28.628,-0.18,-0.2
2021-08-19 20:32:28.632,-0.2,-0.245
2021-08-19 20:32:28.636,-0.22,-0.275
2021-08-19 20:32:28.640,-0.245,-0.245
2021-08-19 20:32:28.644,-0.265,-0.285
2021-08-19 20:32:28.648,-0.26,-0.32
2021-08-19 20:32:28.652,-0.26,-0.275
2021-08-19 20:32:28.656,-0.26,-0.25
2021-08-19 20:32:28.660,-0.255,-0.26
2021-08-19 20:32:28.664,-0.27,-0.255
2021-08-19 20:32:28.668,-0.25,-0.255
2021-08-19 20:32:28.672,-0.24,-0.255
2021-08-19 20:32:28.676,-0.23,-0.26
2021-08-19 20:32:28.680,-0.25,-0.245
2021-08-19 20:32:28.684,-0.245,-0.245
2021-08-19 20:32:28.688,-0.16,-0.235
2021-08-19 20:32:28.692,-0.05,-0.22
2021-08-19 20:32:28.696,0.125,-0.15
2021-08-19 20:32:28.700,0.325,-0.085
2021-08-19 20:32:28.704,0.485,-0.04
2021-08-19 20:32:28.708,0.565,-0.05
2021-08-19 20:32:28.712,0.44,-0.055
2021-08-19 20:32:28.716,0.13,-0.13
2021-08-19 20:32:28.720,-0.185,-0.205
2021-08-19 20:32:28.724,-0.37,-0.27
2021-08-19 20:32:28.728,-0.43,-0.2
2021-08-19 20:32:28.732,-0.465,-0.045
2021-08-19 20:32:28.736,-0.485,0.06
2021-08-19 20:32:28.740,-0.525,0.26
2021-08-19 20:32:28.744,-0.58,0.5
2021-08-19 20:32:28.748,-0.64,0.74
2021-08-19 20:32:28.752,-0.68,0.81
2021-08-19 20:32:28.756,-0.665,0.765
2021-08-19 20:32:28.760,-0.58,0.57
2021-08-19 20:32:28.764,-0.465,0.4
2021-08-19 20:32:28.768,-0.365,0.31
2021-08-19 20:32:28.772,-0.27,0.3
2021-08-19 20:32:28.776,-0.235,0.29
2021-08-19 20:32:28.780,-0.235,0.165
2021-08-19 20:32:28.784,-0.23,0.045
2021-08-19 20:32:28.788,-0.24,-0.08
2021-08-19 20:32:28.792,-0.245,-0.13
2021-08-19 20:32:28.796,-0.235,-0.16
2021-08-19 20:32:28.800,-0.23,-0.175
2021-08-19 20:32:28.804,-0.215,-0.145
2021-08-19 20:32:28.808,-0.21,-0.17
2021-08-19 20:32:28.812,-0.19,-0.18
2021-08-19 20:32:28.816,-0.16,-0.195
2021-08-19 20:32:28.820,-0.185,-0.195
2021-08-19 20:32:28.824,-0.165,-0.2
2021-08-19 20:32:28.828,-0.155,-0.19
2021-08-19 20:32:28.832,-0.16,-0.2
2021-08-19 20:32:28.836,-0.17,-0.22
2021-08-19 20:32:28.840,-0.175,-0.205
2021-08-19 20:32:28.844,-0.14,-0.23
2021-08-19 20:32:28.848,-0.11,-0.225
2021-08-19 20:32:28.852,-0.1,-0.26
2021-08-19 20:32:28.856,-0.11,-0.265
2021-08-19 20:32:28.860,-0.12,-0.23
2021-08-19 20:32:28.864,-0.11,-0.255
2021-08-19 20:32:28.868,-0.1,-0.29
2021-08-19 20:32:28.872,-0.085,-0.335
2021-08-19 20:32:28.876,-0.04,-0.3
2021-08-19 20:32:28.880,-0.055,-0.26
2021-08-19 20:32:28.884,-0.035,-0.295
2021-08-19 20:32:28.888,-0.015,-0.35
2021-08-19 20:32:28.892,-0.02,-0.405
2021-08-19 20:32:28.896,0.0,-0.42
2021-08-19 20:32:28.900,0.005,-0.445
2021-08-19 20:32:28.904,-0.01,-0.465
2021-08-19 20:32:28.908,-0.025,-0.47
2021-08-19 20:32:28.912,-0.04,-0.455
2021-08-19 20:32:28.916,-0.045,-0.46
2021-08-19 20:32:28.920,-0.065,-0.465
2021-08-19 20:32:28.924,-0.055,-0.45
2021-08-19 20:32:28.928,-0.06,-0.485
2021-08-19 20:32:28.932,-0.06,-0.555
2021-08-19 20:32:28.936,-0.075,-0.625
2021-08-19 20:32:28.940,-0.08,-0.605
2021-08-19 20:32:28.944,-0.09,-0.595
2021-08-19 20:32:28.948,-0.1,-0.585
2021-08-19 20:32:28.952,-0.11,-0.55
2021-08-19 20:32:28.956,-0.135,-0.535
2021-08-19 20:32:28.960,-0.125,-0.545
2021-08-19 20:32:28.964,-0.15,-0.535
2021-08-19 20:32:28.968,-0.155,-0.525
2021-08-19 20:32:28.972,-0.16,-0.495
2021-08-19 20:32:28.976,-0.16,-0.46
2021-08-19 20:32:28.980,-0.18,-0.445
2021-08-19 20:32:28.984,-0.2,-0.42
2021-08-19 20:32:28.988,-0.215,-0.41
2021-08-19 20:32:28.992,-0.215,-0.39
2021-08-19 20:32:28.996,-0.22,-0.355
2021-08-19 20:32:29.000,-0.22,-0.33
2021-08-19 20:32:29.004,-0.225,-0.32
2021-08-19 20:32:29.008,-0.24,-0.29
2021-08-19 20:32:29.012,-0.24,-0.29
2021-08-19 20:32:29.016,-0.235,-0.27
2021-08-19 20:32:29.020,-0.26,-0.25
2021-08-19 20:32:29.024,-0.27,-0.205
2021-08-19 20:32:29.028,-0.3,-0.155
2021-08-19 20:32:29.032,-0.285,-0.1
2021-08-19 20:32:29.036,-0.28,-0.17
2021-08-19 20:32:29.040,-0.28,-0.22
2021-08-19 20:32:29.044,-0.27,-0.175
2021-08-19 20:32:29.048,-0.285,-0.075
2021-08-19 20:32:29.052,-0.3,-0.115
2021-08-19 20:32:29.056,-0.305,-0.25
2021-08-19 20:32:29.060,-0.305,-0.305
2021-08-19 20:32:29.064,-0.295,-0.275
2021-08-19 20:32:29.068,-0.29,-0.24
2021-08-19 20:32:29.072,-0.275,-0.24
2021-08-19 20:32:29.076,-0.27,-0.225
2021-08-19 20:32:29.080,-0.27,-0.19
2021-08-19 20:32:29.084,-0.27,-0.205
2021-08-19 20:32:29.088,-0.255,-0.22
2021-08-19 20:32:29.092,-0.265,-0.17
2021-08-19 20:32:29.096,-0.27,-0.16
2021-08-19 20:32:29.100,-0.25,-0.16
2021-08-19 20:32:29.104,-0.24,-0.15
2021-08-19 20:32:29.108,-0.23,-0.155
2021-08-19 20:32:29.112,-0.225,-0.145
2021-08-19 20:32:29.116,-0.23,-0.17
2021-08-19 20:32:29.120,-0.25,-0.15
2021-08-19 20:32:29.124,-0.23,-0.17
2021-08-19 20:32:29.128,-0.19,-0.18
2021-08-19 20:32:29.132,-0.195,-0.16
2021-08-19 20:32:29.136,-0.215,-0.16
2021-08-19 20:32:29.140,-0.255,-0.155
2021-08-19 20:32:29.144,-0.3,-0.17
2021-08-19 20:32:29.148,-0.32,-0.155
2021-08-19 20:32:29.152,-0.3,-0.145
2021-08-19 20:32:29.156,-0.285,-0.09
2021-08-19 20:32:29.160,-0.275,-0.095
2021-08-19 20:32:29.164,-0.29,-0.095
2021-08-19 20:32:29.168,-0.305,-0.095
2021-08-19 20:32:29.172,-0.285,-0.125
2021-08-19 20:32:29.176,-0.28,-0.12
2021-08-19 20:32:29.180,-0.3,-0.09
2021-08-19 20:32:29.184,-0.31,-0.15
2021-08-19 20:32:29.188,-0.295,-0.225
2021-08-19 20:32:29.192,-0.295,-0.3
2021-08-19 20:32:29.196,-0.305,-0.28
2021-08-19 20:32:29.200,-0.295,-0.26
2021-08-19 20:32:29.204,-0.305,-0.24
2021-08-19 20:32:29.208,-0.3,-0.23
2021-08-19 20:32:29.212,-0.315,-0.22
2021-08-19 20:32:29.216,-0.315,-0.215
2021-08-19 20:32:29.220,-0.32,-0.205
2021-08-19 20:32:29.224,-0.32,-0.215
2021-08-19 20:32:29.228,-0.305,-0.21
2021-08-19 20:32:29.232,-0.295,-0.195
2021-08-19 20:32:29.236,-0.295,-0.21
2021-08-19 20:32:29.240,-0.31,-0.22
2021-08-19 20:32:29.244,-0.315,-0.195
2021-08-19 20:32:29.248,-0.29,-0.185
2021-08-19 20:32:29.252,-0.245,-0.2
2021-08-19 20:32:29.256,-0.24,-0.17
2021-08-19 20:32:29.260,-0.305,-0.19
2021-08-19 20:32:29.264,-0.34,-0.2
2021-08-19 20:32:29.268,-0.365,-0.225
2021-08-19 20:32:29.272,-0.355,-0.21
2021-08-19 20:32:29.276,-0.35,-0.19
2021-08-19 20:32:29.280,-0.32,-0.165
2021-08-19 20:32:29.284,-0.335,-0.17
2021-08-19 20:32:29.288,-0.36,-0.16
2021-08-19 20:32:29.292,-0.37,-0.125
2021-08-19 20:32:29.296,-0.36,-0.17
2021-08-19 20:32:29.300,-0.36,-0.25
2021-08-19 20:32:29.304,-0.355,-0.295
2021-08-19 20:32:29.308,-0.335,-0.3
2021-08-19 20:32:29.312,-0.34,-0.29
2021-08-19 20:32:29.316,-0.33,-0.285
2021-08-19 20:32:29.320,-0.31,-0.25
2021-08-19 20:32:29.324,-0.3,-0.235
2021-08-19 20:32:29.328,-0.29,-0.235
2021-08-19 20:32:29.332,-0.295,-0.185
2021-08-19 20:32:29.336,-0.28,-0.19
2021-08-19 20:32:29.340,-0.26,-0.135
2021-08-19 20:32:29.344,-0.225,-0.11
2021-08-19 20:32:29.348,-0.225,-0.11
2021-08-19 20:32:29.352,-0.235,-0.115
2021-08-19 20:32:29.356,-0.24,-0.04
2021-08-19 20:32:29.360,-0.255,0.0
2021-08-19 20:32:29.364,-0.27,-0.105
2021-08-19 20:32:29.368,-0.285,-0.335
2021-08-19 20:32:29.372,-0.27,-0.445
2021-08-19 20:32:29.376,-0.28,-0.41
2021-08-19 20:32:29.380,-0.285,-0.385
2021-08-19 20:32:29.384,-0.275,-0.36
2021-08-19 20:32:29.388,-0.275,-0.32
2021-08-19 20:32:29.392,-0.315,-0.275
2021-08-19 20:32:29.396,-0.355,-0.235
2021-08-19 20:32:29.400,-0.37,-0.195
2021-08-19 20:32:29.404,-0.395,-0.22
2021-08-19 20:32:29.408,-0.4,-0.255
2021-08-19 20:32:29.412,-0.415,-0.28
2021-08-19 20:32:29.416,-0.43,-0.31
2021-08-19 20:32:29.420,-0.41,-0.325
2021-08-19 20:32:29.424,-0.405,-0.35
2021-08-19 20:32:29.428,-0.425,-0.33
2021-08-19 20:32:29.432,-0.425,-0.305
2021-08-19 20:32:29.436,-0.405,-0.285
2021-08-19 20:32:29.440,-0.395,-0.275
2021-08-19 20:32:29.444,-0.41,-0.26
2021-08-19 20:32:29.448,-0.42,-0.27
2021-08-19 20:32:29.452,-0.365,-0.265
2021-08-19 20:32:29.456,-0.245,-0.25
2021-08-19 20:32:29.460,-0.045,-0.19
2021-08-19 20:32:29.464,0.195,-0.16
2021-08-19 20:32:29.468,0.375,-0.11
2021-08-19 20:32:29.472,0.45,-0.095
2021-08-19 20:32:29.476,0.34,-0.11
2021-08-19 20:32:29.480,0.02,-0.145
2021-08-19 20:32:29.484,-0.31,-0.22
2021-08-19 20:32:29.488,-0.5,-0.305
2021-08-19 20:32:29.492,-0.6,-0.255
2021-08-19 20:32:29.496,-0.635,-0.1
2021-08-19 20:32:29.500,-0.675,0.035
2021-08-19 20:32:29.504,-0.71,0.225
2021-08-19 20:32:29.508,-0.77,0.415
2021-08-19 20:32:29.512,-0.805,0.565
2021-08-19 20:32:29.516,-0.815,0.655
2021-08-19 20:32:29.520,-0.79,0.63
2021-08-19 20:32:29.524,-0.68,0.54
2021-08-19 20:32:29.528,-0.595,0.4
2021-08-19 20:32:29.532,-0.525,0.335
2021-08-19 20:32:29.536,-0.455,0.345
2021-08-19 20:32:29.540,-0.41,0.245
2021-08-19 20:32:29.544,-0.415,0.11
2021-08-19 20:32:29.548,-0.41,0.015
2021-08-19 20:32:29.552,-0.4,-0.01
2021-08-19 20:32:29.556,-0.385,-0.075
2021-08-19 20:32:29.560,-0.385,-0.185
2021-08-19 20:32:29.564,-0.38,-0.265
2021-08-19 20:32:29.568,-0.39,-0.27
2021-08-19 20:32:29.572,-0.39,-0.265
2021-08-19 20:32:29.576,-0.385,-0.24
2021-08-19 20:32:29.580,-0.37,-0.215
2021-08-19 20:32:29.584,-0.355,-0.24
2021-08-19 20:32:29.588,-0.355,-0.265
2021-08-19 20:32:29.592,-0.335,-0.245
2021-08-19 20:32:29.596,-0.345,-0.275
2021-08-19 20:32:29.600,-0.365,-0.28
2021-08-19 20:32:29.604,-0.36,-0.295
2021-08-19 20:32:29.608,-0.37,-0.3
2021-08-19 20:32:29.612,-0.36,-0.31
2021-08-19 20:32:29.616,-0.355,-0.315
2021-08-19 20:32:29.620,-0.34,-0.315
2021-08-19 20:32:29.624,-0.325,-0.3
2021-08-19 20:32:29.628,-0.305,-0.295
2021-08-19 20:32:29.632,-0.295,-0.33
2021-08-19 20:32:29.636,-0.31,-0.31
2021-08-19 20:32:29.640,-0.3,-0.345
2021-08-19 20:32:29.644,-0.265,-0.34
2021-08-19 20:32:29.648,-0.27,-0.32
2021-08-19 20:32:29.652,-0.25,-0.33
2021-08-19 20:32:29.656,-0.245,-0.405
2021-08-19 20:32:29.660,-0.22,-0.475
2021-08-19 20:32:29.664,-0.23,-0.465
2021-08-19 20:32:29.668,-0.235,-0.46
2021-08-19 20:32:29.672,-0.215,-0.49
2021-08-19 20:32:29.676,-0.2,-0.55
2021-08-19 20:32:29.680,-0.21,-0.605
2021-08-19 20:32:29.684,-0.225,-0.57
2021-08-19 20:32:29.688,-0.23,-0.585
2021-08-19 20:32:29.692,-0.245,-0.565
2021-08-19 20:32:29.696,-0.255,-0.57
2021-08-19 20:32:29.700,-0.255,-0.58
2021-08-19 20:32:29.704,-0.27,-0.535
2021-08-19 20:32:29.708,-0.305,-0.57
2021-08-19 20:32:29.712,-0.315,-0.54
2021-08-19 20:32:29.716,-0.34,-0.54
2021-08-19 20:32:29.720,-0.325,-0.54
2021-08-19 20:32:29.724,-0.33,-0.49
2021-08-19 20:32:29.728,-0.33,-0.48
2021-08-19 20:32:29.732,-0.34,-0.455
2021-08-19 20:32:29.736,-0.345,-0.425
2021-08-19 20:32:29.740,-0.37,-0.38
2021-08-19 20:32:29.744,-0.37,-0.39
2021-08-19 20:32:29.748,-0.385,-0.38
2021-08-19 20:32:29.752,-0.38,-0.38
2021-08-19 20:32:29.756,-0.385,-0.325
2021-08-19 20:32:29.760,-0.38,-0.305
2021-08-19 20:32:29.764,-0.38,-0.275
2021-08-19 20:32:29.768,-0.38,-0.27
2021-08-19 20:32:29.772,-0.37,-0.32
2021-08-19 20:32:29.776,-0.4,-0.3
2021-08-19 20:32:29.780,-0.405,-0.28
2021-08-19 20:32:29.784,-0.405,-0.25
2021-08-19 20:32:29.788,-0.415,-0.24
2021-08-19 20:32:29.792,-0.43,-0.19
2021-08-19 20:32:29.796,-0.455,-0.185
2021-08-19 20:32:29.800,-0.45,-0.2
2021-08-19 20:32:29.804,-0.455,-0.21
2021-08-19 20:32:29.808,-0.46,-0.235
2021-08-19 20:32:29.812,-0.45,-0.22
2021-08-19 20:32:29.816,-0.44,-0.23
2021-08-19 20:32:29.820,-0.43,-0.225
2021-08-19 20:32:29.824,-0.42,-0.2
2021-08-19 20:32:29.828,-0.415,-0.18
2021-08-19 20:32:29.832,-0.41,-0.18
2021-08-19 20:32:29.836,-0.4,-0.19
2021-08-19 20:32:29.840,-0.39,-0.18
2021-08-19 20:32:29.844,-0.395,-0.19
2021-08-19 20:32:29.848,-0.38,-0.185
2021-08-19 20:32:29.852,-0.365,-0.155
2021-08-19 20:32:29.856,-0.355,-0.15
2021-08-19 20:32:29.860,-0.35,-0.105
2021-08-19 20:32:29.864,-0.34,-0.02
2021-08-19 20:32:29.868,-0.36,-0.025
2021-08-19 20:32:29.872,-0.335,-0.105
2021-08-19 20:32:29.876,-0.32,-0.155
2021-08-19 20:32:29.880,-0.32,-0.165
2021-08-19 20:32:29.884,-0.33,-0.18
2021-08-19 20:32:29.888,-0.345,-0.195
2021-08-19 20:32:29.892,-0.335,-0.195
2021-08-19 20:32:29.896,-0.34,-0.18
2021-08-19 20:32:29.900,-0.32,-0.13
2021-08-19 20:32:29.904,-0.33,-0.135
2021-08-19 20:32:29.908,-0.33,-0.16
2021-08-19 20:32:29.912,-0.335,-0.19
2021-08-19 20:32:29.916,-0.34,-0.2
2021-08-19 20:32:29.920,-0.34,-0.18
2021-08-19 20:32:29.924,-0.34,-0.14
2021-08-19 20:32:29.928,-0.33,-0.165
2021-08-19 20:32:29.932,-0.305,-0.17
2021-08-19 20:32:29.936,-0.335,-0.165
2021-08-19 20:32:29.940,-0.325,-0.19
2021-08-19 20:32:29.944,-0.34,-0.16
2021-08-19 20:32:29.948,-0.35,-0.16
2021-08-19 20:32:29.952,-0.34,-0.175
2021-08-19 20:32:29.956,-0.355,-0.17
2021-08-19 20:32:29.960,-0.33,-0.17
2021-08-19 20:32:29.964,-0.345,-0.195
2021-08-19 20:32:29.968,-0.35,-0.18
2021-08-19 20:32:29.972,-0.36,-0.175
2021-08-19 20:32:29.976,-0.365,-0.19
2021-08-19 20:32:29.980,-0.36,-0.2
2021-08-19 20:32:29.984,-0.36,-0.2
2021-08-19 20:32:29.988,-0.37,-0.2
2021-08-19 20:32:29.992,-0.365,-0.195
2021-08-19 20:32:29.996,-0.38,-0.215
2021-08-19 20:32:30.000,-0.385,-0.2
2021-08-19 20:32:30.004,-0.355,-0.2
2021-08-19 20:32:30.008,-0.375,-0.175
2021-08-19 20:32:30.012,-0.39,-0.175
2021-08-19 20:32:30.016,-0.375,-0.16
2021-08-19 20:32:30.020,-0.36,-0.185
2021-08-19 20:32:30.024,-0.385,-0.21
2021-08-19 20:32:30.028,-0.36,-0.235
2021-08-19 20:32:30.032,-0.365,-0.235
2021-08-19 20:32:30.036,-0.36,-0.225
2021-08-19 20:32:30.040,-0.365,-0.225
2021-08-19 20:32:30.044,-0.385,-0.215
2021-08-19 20:32:30.048,-0.385,-0.2
2021-08-19 20:32:30.052,-0.375,-0.215
2021-08-19 20:32:30.056,-0.39,-0.2
2021-08-19 20:32:30.060,-0.39,-0.23
2021-08-19 20:32:30.064,-0.395,-0.245
2021-08-19 20:32:30.068,-0.4,-0.225
2021-08-19 20:32:30.072,-0.38,-0.24
2021-08-19 20:32:30.076,-0.36,-0.22
2021-08-19 20:32:30.080,-0.345,-0.21
2021-08-19 20:32:30.084,-0.35,-0.22
2021-08-19 20:32:30.088,-0.335,-0.19
2021-08-19 20:32:30.092,-0.32,-0.19
2021-08-19 20:32:30.096,-0.32,-0.165
2021-08-19 20:32:30.100,-0.3,-0.15
2021-08-19 20:32:30.104,-0.3,-0.15
2021-08-19 20:32:30.108,-0.265,-0.145
2021-08-19 20:32:30.112,-0.31,-0.13
2021-08-19 20:32:30.116,-0.33,-0.125
2021-08-19 20:32:30.120,-0.335,-0.15
2021-08-19 20:32:30.124,-0.33,-0.17
2021-08-19 20:32:30.128,-0.33,-0.235
2021-08-19 20:32:30.132,-0.33,-0.28
2021-08-19 20:32:30.136,-0.34,-0.295
2021-08-19 20:32:30.140,-0.34,-0.3
2021-08-19 20:32:30.144,-0.33,-0.29
2021-08-19 20:32:30.148,-0.335,-0.31
2021-08-19 20:32:30.152,-0.355,-0.28
2021-08-19 20:32:30.156,-0.375,-0.29
2021-08-19 20:32:30.160,-0.39,-0.26
2021-08-19 20:32:30.164,-0.43,-0.255
2021-08-19 20:32:30.168,-0.44,-0.225
2021-08-19 20:32:30.172,-0.405,-0.24
2021-08-19 20:32:30.176,-0.405,-0.26
2021-08-19 20:32:30.180,-0.395,-0.265
2021-08-19 20:32:30.184,-0.38,-0.235
2021-08-19 20:32:30.188,-0.39,-0.19
2021-08-19 20:32:30.192,-0.4,-0.15
2021-08-19 20:32:30.196,-0.385,-0.165
2021-08-19 20:32:30.200,-0.43,-0.22
2021-08-19 20:32:30.204,-0.475,-0.24
2021-08-19 20:32:30.208,-0.505,-0.195
2021-08-19 20:32:30.212,-0.47,-0.22
2021-08-19 20:32:30.216,-0.36,-0.24
2021-08-19 20:32:30.220,-0.135,-0.28
2021-08-19 20:32:30.224,0.085,-0.205
2021-08-19 20:32:30.228,0.325,-0.145
2021-08-19 20:32:30.232,0.45,-0.125
2021-08-19 20:32:30.236,0.38,-0.13
2021-08-19 20:32:30.240,0.085,-0.17
2021-08-19 20:32:30.244,-0.265,-0.24
2021-08-19 20:32:30.248,-0.49,-0.295
2021-08-19 20:32:30.252,-0.57,-0.23
2021-08-19 20:32:30.256,-0.625,-0.11
2021-08-19 20:32:30.260,-0.64,0.02
2021-08-19 20:32:30.264,-0.665,0.195
2021-08-19 20:32:30.268,-0.72,0.395
2021-08-19 20:32:30.272,-0.74,0.565
2021-08-19 20:32:30.276,-0.78,0.67
2021-08-19 20:32:30.280,-0.765,0.675
2021-08-19 20:32:30.284,-0.66,0.565
2021-08-19 20:32:30.288,-0.54,0.425
2021-08-19 20:32:30.292,-0.46,0.39
2021-08-19 20:32:30.296,-0.405,0.34
2021-08-19 20:32:30.300,-0.38,0.275
2021-08-19 20:32:30.304,-0.37,0.14
2021-08-19 20:32:30.308,-0.355,0.015
2021-08-19 20:32:30.312,-0.34,-0.07
2021-08-19 20:32:30.316,-0.335,-0.145
2021-08-19 20:32:30.320,-0.315,-0.17
2021-08-19 20:32:30.324,-0.32,-0.185
2021-08-19 20:32:30.328,-0.305,-0.22
2021-08-19 20:32:30.332,-0.315,-0.225
2021-08-19 20:32:30.336,-0.305,-0.22
2021-08-19 20:32:30.340,-0.29,-0.2
2021-08-19 20:32:30.344,-0.29,-0.215
2021-08-19 20:32:30.348,-0.285,-0.215
2021-08-19 20:32:30.352,-0.275,-0.19
2021-08-19 20:32:30.356,-0.28,-0.165
2021-08-19 20:32:30.360,-0.27,-0.185
2021-08-19 20:32:30.364,-0.27,-0.29
2021-08-19 20:32:30.368,-0.245,-0.355
2021-08-19 20:32:30.372,-0.265,-0.38
2021-08-19 20:32:30.376,-0.24,-0.365
2021-08-19 20:32:30.380,-0.22,-0.34
2021-08-19 20:32:30.384,-0.21,-0.345
2021-08-19 20:32:30.388,-0.205,-0.36
2021-08-19 20:32:30.392,-0.19,-0.34
2021-08-19 20:32:30.396,-0.175,-0.365
2021-08-19 20:32:30.400,-0.17,-0.365
2021-08-19 20:32:30.404,-0.14,-0.395
2021-08-19 20:32:30.408,-0.13,-0.395
2021-08-19 20:32:30.412,-0.125,-0.42
2021-08-19 20:32:30.416,-0.11,-0.43
2021-08-19 20:32:30.420,-0.11,-0.445
2021-08-19 20:32:30.424,-0.1,-0.45
2021-08-19 20:32:30.428,-0.1,-0.49
2021-08-19 20:32:30.432,-0.1,-0.505
2021-08-19 20:32:30.436,-0.095,-0.495
2021-08-19 20:32:30.440,-0.1,-0.52
2021-08-19 20:32:30.444,-0.115,-0.55
2021-08-19 20:32:30.448,-0.13,-0.575
2021-08-19 20:32:30.452,-0.12,-0.6
2021-08-19 20:32:30.456,-0.135,-0.58
2021-08-19 20:32:30.460,-0.16,-0.57
2021-08-19 20:32:30.464,-0.16,-0.57
2021-08-19 20:32:30.468,-0.18,-0.54
2021-08-19 20:32:30.472,-0.2,-0.555
2021-08-19 20:32:30.476,-0.21,-0.56
2021-08-19 20:32:30.480,-0.215,-0.545
2021-08-19 20:32:30.484,-0.22,-0.54
2021-08-19 20:32:30.488,-0.25,-0.53
2021-08-19 20:32:30.492,-0.26,-0.51
2021-08-19 20:32:30.496,-0.27,-0.47
2021-08-19 20:32:30.500,-0.3,-0.42
2021-08-19 20:32:30.504,-0.305,-0.395
2021-08-19 20:32:30.508,-0.3,-0.42
2021-08-19 20:32:30.512,-0.32,-0.38
2021-08-19 20:32:30.516,-0.315,-0.34
2021-08-19 20:32:30.520,-0.33,-0.335
2021-08-19 20:32:30.524,-0.34,-0.325
2021-08-19 20:32:30.528,-0.315,-0.31
2021-08-19 20:32:30.532,-0.315,-0.295
2021-08-19 20:32:30.536,-0.3,-0.275
2021-08-19 20:32:30.540,-0.27,-0.26
2021-08-19 20:32:30.544,-0.265,-0.27
2021-08-19 20:32:30.548,-0.25,-0.255
2021-08-19 20:32:30.552,-0.26,-0.235
2021-08-19 20:32:30.556,-0.27,-0.22
2021-08-19 20:32:30.560,-0.28,-0.24
2021-08-19 20:32:30.564,-0.275,-0.265
2021-08-19 20:32:30.568,-0.28,-0.235
2021-08-19 20:32:30.572,-0.3,-0.26
2021-08-19 20:32:30.576,-0.285,-0.24
2021-08-19 20:32:30.580,-0.29,-0.26
2021-08-19 20:32:30.584,-0.3,-0.265
2021-08-19 20:32:30.588,-0.285,-0.24
2021-08-19 20:32:30.592,-0.295,-0.255
2021-08-19 20:32:30.596,-0.3,-0.235
2021-08-19 20:32:30.600,-0.295,-0.22
2021-08-19 20:32:30.604,-0.305,-0.21
2021-08-19 20:32:30.608,-0.295,-0.235
2021-08-19 20:32:30.612,-0.26,-0.25
2021-08-19 20:32:30.616,-0.26,-0.24
2021-08-19 20:32:30.620,-0.26,-0.2
2021-08-19 20:32:30.624,-0.245,-0.19
2021-08-19 20:32:30.628,-0.25,-0.19
2021-08-19 20:32:30.632,-0.25,-0.19
2021-08-19 20:32:30.636,-0.23,-0.17
2021-08-19 20:32:30.640,-0.245,-0.16
2021-08-19 20:32:30.644,-0.26,-0.16
2021-08-19 20:32:30.648,-0.26,-0.205
2021-08-19 20:32:30.652,-0.27,-0.24
2021-08-19 20:32:30.656,-0.255,-0.245
2021-08-19 20:32:30.660,-0.255,-0.26
2021-08-19 20:32:30.664,-0.265,-0.23
2021-08-19 20:32:30.668,-0.26,-0.2
2021-08-19 20:32:30.672,-0.265,-0.205
2021-08-19 20:32:30.676,-0.26,-0.22
2021-08-19 20:32:30.680,-0.255,-0.225
2021-08-19 20:32:30.684,-0.26,-0.22
2021-08-19 20:32:30.688,-0.24,-0.225
2021-08-19 20:32:30.692,-0.245,-0.22
2021-08-19 20:32:30.696,-0.25,-0.22
2021-08-19 20:32:30.700,-0.26,-0.24
2021-08-19 20:32:30.704,-0.25,-0.225
2021-08-19 20:32:30.708,-0.27,-0.245
2021-08-19 20:32:30.712,-0.26,-0.245
2021-08-19 20:32:30.716,-0.265,-0.245
2021-08-19 20:32:30.720,-0.26,-0.225
2021-08-19 20:32:30.724,-0.285,-0.24
2021-08-19 20:32:30.728,-0.29,-0.225
2021-08-19 20:32:30.732,-0.27,-0.255
2021-08-19 20:32:30.736,-0.27,-0.2
2021-08-19 20:32:30.740,-0.255,-0.215
2021-08-19 20:32:30.744,-0.265,-0.22
2021-08-19 20:32:30.748,-0.255,-0.225
2021-08-19 20:32:30.752,-0.295,-0.255
2021-08-19 20:32:30.756,-0.3,-0.215
2021-08-19 20:32:30.760,-0.32,-0.225
2021-08-19 20:32:30.764,-0.295,-0.215
2021-08-19 20:32:30.768,-0.315,-0.21
2021-08-19 20:32:30.772,-0.3,-0.23
2021-08-19 20:32:30.776,-0.3,-0.23
2021-08-19 20:32:30.780,-0.3,-0.185
2021-08-19 20:32:30.784,-0.29,-0.12
2021-08-19 20:32:30.788,-0.27,-0.125
2021-08-19 20:32:30.792,-0.26,-0.17
2021-08-19 20:32:30.796,-0.275,-0.245
2021-08-19 20:32:30.800,-0.29,-0.295
2021-08-19 20:32:30.804,-0.3,-0.32
2021-08-19 20:32:30.808,-0.29,-0.315
2021-08-19 20:32:30.812,-0.29,-0.295
2021-08-19 20:32:30.816,-0.27,-0.295
2021-08-19 20:32:30.820,-0.285,-0.255
2021-08-19 20:32:30.824,-0.28,-0.27
2021-08-19 20:32:30.828,-0.26,-0.255
2021-08-19 20:32:30.832,-0.23,-0.26
2021-08-19 20:32:30.836,-0.19,-0.255
2021-08-19 20:32:30.840,-0.155,-0.235
2021-08-19 20:32:30.844,-0.135,-0.235
2021-08-19 20:32:30.848,-0.17,-0.225
2021-08-19 20:32:30.852,-0.19,-0.205
2021-08-19 20:32:30.856,-0.205,-0.21
2021-08-19 20:32:30.860,-0.2,-0.19
2021-08-19 20:32:30.864,-0.185,-0.17
2021-08-19 20:32:30.868,-0.15,-0.16
2021-08-19 20:32:30.872,-0.15,-0.14
2021-08-19 20:32:30.876,-0.15,-0.14
2021-08-19 20:32:30.880,-0.16,-0.13
2021-08-19 20:32:30.884,-0.14,-0.185
2021-08-19 20:32:30.888,-0.155,-0.21
2021-08-19 20:32:30.892,-0.155,-0.25
2021-08-19 20:32:30.896,-0.14,-0.275
2021-08-19 20:32:30.900,-0.13,-0.275
2021-08-19 20:32:30.904,-0.125,-0.27
2021-08-19 20:32:30.908,-0.12,-0.28
2021-08-19 20:32:30.912,-0.125,-0.29
2021-08-19 20:32:30.916,-0.14,-0.285
2021-08-19 20:32:30.920,-0.16,-0.29
2021-08-19 20:32:30.924,-0.19,-0.255
2021-08-19 20:32:30.928,-0.195,-0.26
2021-08-19 20:32:30.932,-0.215,-0.28
2021-08-19 20:32:30.936,-0.215,-0.27
2021-08-19 20:32:30.940,-0.24,-0.24
2021-08-19 20:32:30.944,-0.225,-0.225
2021-08-19 20:32:30.948,-0.225,-0.26
2021-08-19 20:32:30.952,-0.2,-0.27
2021-08-19 20:32:30.956,-0.215,-0.265
2021-08-19 20:32:30.960,-0.205,-0.255
2021-08-19 20:32:30.964,-0.21,-0.26
2021-08-19 20:32:30.968,-0.23,-0.24
2021-08-19 20:32:30.972,-0.2,-0.27
2021-08-19 20:32:30.976,-0.12,-0.245
2021-08-19 20:32:30.980,0.04,-0.225
2021-08-19 20:32:30.984,0.255,-0.18
2021-08-19 20:32:30.988,0.455,-0.1
2021-08-19 20:32:30.992,0.62,-0.115
2021-08-19 20:32:30.996,0.58,-0.13
2021-08-19 20:32:31.000,0.355,-0.155
2021-08-19 20:32:31.004,-0.03,-0.22
2021-08-19 20:32:31.008,-0.27,-0.305
2021-08-19 20:32:31.012,-0.39,-0.32
2021-08-19 20:32:31.016,-0.455,-0.17
2021-08-19 20:32:31.020,-0.465,0.025
2021-08-19 20:32:31.024,-0.49,0.18
2021-08-19 20:32:31.028,-0.54,0.365
2021-08-19 20:32:31.032,-0.58,0.535
2021-08-19 20:32:31.036,-0.6,0.645
2021-08-19 20:32:31.040,-0.59,0.64
2021-08-19 20:32:31.044,-0.515,0.51
2021-08-19 20:32:31.048,-0.4,0.415
2021-08-19 20:32:31.052,-0.32,0.355
2021-08-19 20:32:31.056,-0.28,0.325
2021-08-19 20:32:31.060,-0.23,0.22
2021-08-19 20:32:31.064,-0.235,0.08
2021-08-19 20:32:31.068,-0.225,0.01
2021-08-19 20:32:31.072,-0.2,-0.045
2021-08-19 20:32:31.076,-0.2,-0.1
2021-08-19 20:32:31.080,-0.19,-0.19
2021-08-19 20:32:31.084,-0.17,-0.26
2021-08-19 20:32:31.088,-0.16,-0.29
2021-08-19 20:32:31.092,-0.16,-0.27
2021-08-19 20:32:31.096,-0.15,-0.27
2021-08-19 20:32:31.100,-0.13,-0.295
2021-08-19 20:32:31.104,-0.13,-0.26
2021-08-19 20:32:31.108,-0.135,-0.285
2021-08-19 20:32:31.112,-0.115,-0.275
2021-08-19 20:32:31.116,-0.105,-0.295
2021-08-19 20:32:31.120,-0.11,-0.295
2021-08-19 20:32:31.124,-0.085,-0.29
2021-08-19 20:32:31.128,-0.07,-0.3
2021-08-19 20:32:31.132,-0.065,-0.31
2021-08-19 20:32:31.136,-0.055,-0.33
2021-08-19 20:32:31.140,-0.02,-0.31
2021-08-19 20:32:31.144,-0.015,-0.25
2021-08-19 20:32:31.148,0.02,-0.21
2021-08-19 20:32:31.152,0.06,-0.28
2021-08-19 20:32:31.156,0.05,-0.39
2021-08-19 20:32:31.160,0.03,-0.445
2021-08-19 20:32:31.164,0.03,-0.43
2021-08-19 20:32:31.168,0.07,-0.43
2021-08-19 20:32:31.172,0.075,-0.405
2021-08-19 20:32:31.176,0.05,-0.45
2021-08-19 20:32:31.180,0.03,-0.515
2021-08-19 20:32:31.184,0.05,-0.56
2021-08-19 20:32:31.188,0.03,-0.56
2021-08-19 20:32:31.192,0.06,-0.55
2021-08-19 20:32:31.196,0.055,-0.565
2021-08-19 20:32:31.200,0.055,-0.58
2021-08-19 20:32:31.204,0.065,-0.56
2021-08-19 20:32:31.208,0.06,-0.555
2021-08-19 20:32:31.212,0.045,-0.585
2021-08-19 20:32:31.216,0.05,-0.58
2021-08-19 20:32:31.220,0.04,-0.56
2021-08-19 20:32:31.224,0.04,-0.59
2021-08-19 20:32:31.228,0.025,-0.62
2021-08-19 20:32:31.232,0.01,-0.6
2021-08-19 20:32:31.236,0.025,-0.6
2021-08-19 20:32:31.240,0.0,-0.57
2021-08-19 20:32:31.244,-0.01,-0.54
2021-08-19 20:32:31.248,-0.02,-0.535
2021-08-19 20:32:31.252,-0.02,-0.515
2021-08-19 20:32:31.256,-0.04,-0.495
2021-08-19 20:32:31.260,-0.08,-0.465
2021-08-19 20:32:31.264,-0.08,-0.445
2021-08-19 20:32:31.268,-0.08,-0.415
2021-08-19 20:32:31.272,-0.1,-0.395
2021-08-19 20:32:31.276,-0.105,-0.38
2021-08-19 20:32:31.280,-0.12,-0.345
2021-08-19 20:32:31.284,-0.125,-0.345
2021-08-19 20:32:31.288,-0.13,-0.315
2021-08-19 20:32:31.292,-0.13,-0.315
2021-08-19 20:32:31.296,-0.13,-0.305
2021-08-19 20:32:31.300,-0.14,-0.275
2021-08-19 20:32:31.304,-0.15,-0.285
2021-08-19 20:32:31.308,-0.18,-0.28
2021-08-19 20:32:31.312,-0.175,-0.29
2021-08-19 20:32:31.316,-0.175,-0.285
2021-08-19 20:32:31.320,-0.17,-0.275
2021-08-19 20:32:31.324,-0.18,-0.28
2021-08-19 20:32:31.328,-0.18,-0.265
2021-08-19 20:32:31.332,-0.18,-0.265
2021-08-19 20:32:31.336,-0.195,-0.275
2021-08-19 20:32:31.340,-0.19,-0.255
2021-08-19 20:32:31.344,-0.19,-0.25
2021-08-19 20:32:31.348,-0.2,-0.265
2021-08-19 20:32:31.352,-0.195,-0.275
2021-08-19 20:32:31.356,-0.19,-0.26
2021-08-19 20:32:31.360,-0.195,-0.285
2021-08-19 20:32:31.364,-0.18,-0.28
2021-08-19 20:32:31.368,-0.155,-0.245
2021-08-19 20:32:31.372,-0.13,-0.24
2021-08-19 20:32:31.376,-0.12,-0.255
2021-08-19 20:32:31.380,-0.16,-0.235
2021-08-19 20:32:31.384,-0.135,-0.23
2021-08-19 20:32:31.388,-0.08,-0.19
2021-08-19 20:32:31.392,-0.01,-0.18
2021-08-19 20:32:31.396,-0.01,-0.215
2021-08-19 20:32:31.400,-0.095,-0.265
2021-08-19 20:32:31.404,-0.215,-0.28
2021-08-19 20:32:31.408,-0.265,-0.26
2021-08-19 20:32:31.412,-0.23,-0.25
2021-08-19 20:32:31.416,-0.17,-0.23
2021-08-19 20:32:31.420,-0.175,-0.25
2021-08-19 20:32:31.424,-0.17,-0.305
2021-08-19 20:32:31.428,-0.175,-0.295
2021-08-19 20:32:31.432,-0.17,-0.305
2021-08-19 20:32:31.436,-0.15,-0.32
2021-08-19 20:32:31.440,-0.14,-0.3
2021-08-19 20:32:31.444,-0.15,-0.29
2021-08-19 20:32:31.448,-0.13,-0.28
2021-08-19 20:32:31.452,-0.115,-0.295
2021-08-19 20:32:31.456,-0.125,-0.295
2021-08-19 20:32:31.460,-0.125,-0.29
2021-08-19 20:32:31.464,-0.125,-0.295
2021-08-19 20:32:31.468,-0.08,-0.27
2021-08-19 20:32:31.472,-0.115,-0.26
2021-08-19 20:32:31.476,-0.13,-0.27
2021-08-19 20:32:31.480,-0.15,-0.29
2021-08-19 20:32:31.484,-0.165,-0.28
2021-08-19 20:32:31.488,-0.16,-0.275
2021-08-19 20:32:31.492,-0.14,-0.275
2021-08-19 20:32:31.496,-0.15,-0.285
2021-08-19 20:32:31.500,-0.16,-0.325
2021-08-19 20:32:31.504,-0.17,-0.33
2021-08-19 20:32:31.508,-0.195,-0.32
2021-08-19 20:32:31.512,-0.175,-0.315
2021-08-19 20:32:31.516,-0.195,-0.315
2021-08-19 20:32:31.520,-0.195,-0.31
2021-08-19 20:32:31.524,-0.185,-0.31
2021-08-19 20:32:31.528,-0.19,-0.32
2021-08-19 20:32:31.532,-0.195,-0.295
2021-08-19 20:32:31.536,-0.2,-0.305
2021-08-19 20:32:31.540,-0.2,-0.32
2021-08-19 20:32:31.544,-0.195,-0.305
2021-08-19 20:32:31.548,-0.185,-0.31
2021-08-19 20:32:31.552,-0.195,-0.31
2021-08-19 20:32:31.556,-0.165,-0.33
2021-08-19 20:32:31.560,-0.18,-0.31
2021-08-19 20:32:31.564,-0.22,-0.32
2021-08-19 20:32:31.568,-0.28,-0.32
2021-08-19 20:32:31.572,-0.305,-0.33
2021-08-19 20:32:31.576,-0.32,-0.34
2021-08-19 20:32:31.580,-0.305,-0.31
2021-08-19 20:32:31.584,-0.3,-0.295
2021-08-19 20:32:31.588,-0.29,-0.3
2021-08-19 20:32:31.592,-0.285,-0.315
2021-08-19 20:32:31.596,-0.28,-0.29
2021-08-19 20:32:31.600,-0.265,-0.285
2021-08-19 20:32:31.604,-0.255,-0.315
2021-08-19 20:32:31.608,-0.25,-0.315
2021-08-19 20:32:31.612,-0.23,-0.29
2021-08-19 20:32:31.616,-0.215,-0.3
2021-08-19 20:32:31.620,-0.23,-0.295
2021-08-19 20:32:31.624,-0.225,-0.24
2021-08-19 20:32:31.628,-0.2,-0.23
2021-08-19 20:32:31.632,-0.195,-0.23
2021-08-19 20:32:31.636,-0.205,-0.21
2021-08-19 20:32:31.640,-0.205,-0.215
2021-08-19 20:32:31.644,-0.205,-0.245
2021-08-19 20:32:31.648,-0.21,-0.3
2021-08-19 20:32:31.652,-0.225,-0.34
2021-08-19 20:32:31.656,-0.2,-0.37
2021-08-19 20:32:31.660,-0.18,-0.36
2021-08-19 20:32:31.664,-0.14,-0.355
2021-08-19 20:32:31.668,-0.11,-0.37
2021-08-19 20:32:31.672,-0.165,-0.335
2021-08-19 20:32:31.676,-0.275,-0.35
2021-08-19 20:32:31.680,-0.375,-0.335
2021-08-19 20:32:31.684,-0.365,-0.28
2021-08-19 20:32:31.688,-0.36,-0.295
2021-08-19 20:32:31.692,-0.355,-0.37
2021-08-19 20:32:31.696,-0.37,-0.36
2021-08-19 20:32:31.700,-0.385,-0.355
2021-08-19 20:32:31.704,-0.37,-0.365
2021-08-19 20:32:31.708,-0.355,-0.365
2021-08-19 20:32:31.712,-0.355,-0.33
2021-08-19 20:32:31.716,-0.345,-0.29
2021-08-19 20:32:31.720,-0.315,-0.26
2021-08-19 20:32:31.724,-0.315,-0.305
2021-08-19 20:32:31.728,-0.32,-0.345
2021-08-19 20:32:31.732,-0.31,-0.375
2021-08-19 20:32:31.736,-0.21,-0.37
2021-08-19 20:32:31.740,-0.03,-0.315
2021-08-19 20:32:31.744,0.19,-0.27
2021-08-19 20:32:31.748,0.385,-0.17
2021-08-19 20:32:31.752,0.525,-0.14
2021-08-19 20:32:31.756,0.5,-0.16
2021-08-19 20:32:31.760,0.29,-0.18
2021-08-19 20:32:31.764,-0.065,-0.25
2021-08-19 20:32:31.768,-0.31,-0.355
2021-08-19 20:32:31.772,-0.44,-0.345
2021-08-19 20:32:31.776,-0.5,-0.215
2021-08-19 20:32:31.780,-0.515,-0.065
2021-08-19 20:32:31.784,-0.52,0.07
2021-08-19 20:32:31.788,-0.6,0.27
2021-08-19 20:32:31.792,-0.67,0.49
2021-08-19 20:32:31.796,-0.705,0.635
2021-08-19 20:32:31.800,-0.7,0.66
2021-08-19 20:32:31.804,-0.67,0.545
2021-08-19 20:32:31.808,-0.565,0.46
2021-08-19 20:32:31.812,-0.435,0.36
2021-08-19 20:32:31.816,-0.325,0.335
2021-08-19 20:32:31.820,-0.28,0.29
2021-08-19 20:32:31.824,-0.275,0.195
2021-08-19 20:32:31.828,-0.255,0.06
2021-08-19 20:32:31.832,-0.225,-0.07
2021-08-19 20:32:31.836,-0.195,-0.135
2021-08-19 20:32:31.840,-0.2,-0.16
2021-08-19 20:32:31.844,-0.24,-0.205
2021-08-19 20:32:31.848,-0.265,-0.215
2021-08-19 20:32:31.852,-0.255,-0.23
2021-08-19 20:32:31.856,-0.24,-0.235
2021-08-19 20:32:31.860,-0.24,-0.235
2021-08-19 20:32:31.864,-0.23,-0.23
2021-08-19 20:32:31.868,-0.22,-0.26
2021-08-19 20:32:31.872,-0.22,-0.28
2021-08-19 20:32:31.876,-0.22,-0.295
2021-08-19 20:32:31.880,-0.21,-0.275
2021-08-19 20:32:31.884,-0.2,-0.305
2021-08-19 20:32:31.888,-0.19,-0.31
2021-08-19 20:32:31.892,-0.185,-0.3
2021-08-19 20:32:31.896,-0.155,-0.29
2021-08-19 20:32:31.900,-0.13,-0.295
2021-08-19 20:32:31.904,-0.11,-0.285
2021-08-19 20:32:31.908,-0.11,-0.31
2021-08-19 20:32:31.912,-0.08,-0.325
2021-08-19 20:32:31.916,-0.095,-0.345
2021-08-19 20:32:31.920,-0.09,-0.335
2021-08-19 20:32:31.924,-0.07,-0.35
2021-08-19 20:32:31.928,-0.035,-0.355
2021-08-19 20:32:31.932,-0.025,-0.35
2021-08-19 20:32:31.936,-0.02,-0.39
2021-08-19 20:32:31.940,-0.02,-0.43
2021-08-19 20:32:31.944,-0.025,-0.47
2021-08-19 20:32:31.948,-0.025,-0.48
2021-08-19 20:32:31.952,-0.005,-0.49
2021-08-19 20:32:31.956,-0.015,-0.52
2021-08-19 20:32:31.960,0.0,-0.52
2021-08-19 20:32:31.964,-0.035,-0.53
2021-08-19 20:32:31.968,-0.015,-0.555
2021-08-19 20:32:31.972,-0.03,-0.575
2021-08-19 20:32:31.976,-0.035,-0.58
2021-08-19 20:32:31.980,-0.045,-0.595
2021-08-19 20:32:31.984,-0.08,-0.59
2021-08-19 20:32:31.988,-0.065,-0.57
2021-08-19 20:32:31.992,-0.095,-0.6
2021-08-19 20:32:31.996,-0.115,-0.58
2021-08-19 20:32:32.000,-0.13,-0.6
2021-08-19 20:32:32.004,-0.14,-0.58
2021-08-19 20:32:32.008,-0.17,-0.55
2021-08-19 20:32:32.012,-0.16,-0.52
2021-08-19 20:32:32.016,-0.17,-0.525
2021-08-19 20:32:32.020,-0.18,-0.495
2021-08-19 20:32:32.024,-0.195,-0.47
2021-08-19 20:32:32.028,-0.22,-0.465
2021-08-19 20:32:32.032,-0.22,-0.445
2021-08-19 20:32:32.036,-0.245,-0.4
2021-08-19 20:32:32.040,-0.24,-0.365
2021-08-19 20:32:32.044,-0.24,-0.355
2021-08-19 20:32:32.048,-0.245,-0.325
2021-08-19 20:32:32.052,-0.265,-0.28
2021-08-19 20:32:32.056,-0.245,-0.285
2021-08-19 20:32:32.060,-0.25,-0.27
2021-08-19 20:32:32.064,-0.245,-0.27
2021-08-19 20:32:32.068,-0.25,-0.27
2021-08-19 20:32:32.072,-0.275,-0.245
2021-08-19 20:32:32.076,-0.28,-0.255
2021-08-19 20:32:32.080,-0.265,-0.24
2021-08-19 20:32:32.084,-0.26,-0.24
2021-08-19 20:32:32.088,-0.265,-0.235
2021-08-19 20:32:32.092,-0.28,-0.225
2021-08-19 20:32:32.096,-0.295,-0.23
2021-08-19 20:32:32.100,-0.295,-0.2
2021-08-19 20:32:32.104,-0.285,-0.23
2021-08-19 20:32:32.108,-0.29,-0.24
2021-08-19 20:32:32.112,-0.295,-0.205
2021-08-19 20:32:32.116,-0.275,-0.21
2021-08-19 20:32:32.120,-0.285,-0.225
2021-08-19 20:32:32.124,-0.265,-0.21
2021-08-19 20:32:32.128,-0.255,-0.23
2021-08-19 20:32:32.132,-0.25,-0.21
2021-08-19 20:32:32.136,-0.26,-0.225
2021-08-19 20:32:32.140,-0.255,-0.17
2021-08-19 20:32:32.144,-0.235,-0.2
2021-08-19 20:32:32.148,-0.24,-0.205
2021-08-19 20:32:32.152,-0.21,-0.185
2021-08-19 20:32:32.156,-0.22,-0.18
2021-08-19 20:32:32.160,-0.21,-0.18
2021-08-19 20:32:32.164,-0.23,-0.195
2021-08-19 20:32:32.168,-0.225,-0.175
2021-08-19 20:32:32.172,-0.22,-0.17
2021-08-19 20:32:32.176,-0.2,-0.17
2021-08-19 20:32:32.180,-0.19,-0.185
2021-08-19 20:32:32.184,-0.18,-0.175
2021-08-19 20:32:32.188,-0.19,-0.17
2021-08-19 20:32:32.192,-0.205,-0.16
2021-08-19 20:32:32.196,-0.17,-0.17
2021-08-19 20:32:32.200,-0.16,-0.19
2021-08-19 20:32:32.204,-0.18,-0.18
2021-08-19 20:32:32.208,-0.17,-0.185
2021-08-19 20:32:32.212,-0.19,-0.16
2021-08-19 20:32:32.216,-0.195,-0.2
2021-08-19 20:32:32.220,-0.215,-0.18
2021-08-19 20:32:32.224,-0.21,-0.2
2021-08-19 20:32:32.228,-0.215,-0.185
2021-08-19 20:32:32.232,-0.205,-0.185
2021-08-19 20:32:32.236,-0.21,-0.18
2021-08-19 20:32:32.240,-0.21,-0.16
2021-08-19 20:32:32.244,-0.23,-0.18
2021-08-19 20:32:32.248,-0.245,-0.2
2021-08-19 20:32:32.252,-0.26,-0.19
2021-08-19 20:32:32.256,-0.235,-0.19
2021-08-19 20:32:32.260,-0.23,-0.18
2021-08-19 20:32:32.264,-0.22,-0.18
2021-08-19 20:32:32.268,-0.215,-0.205
2021-08-19 20:32:32.272,-0.215,-0.175
2021-08-19 20:32:32.276,-0.21,-0.17
2021-08-19 20:32:32.280,-0.23,-0.19
2021-08-19 20:32:32.284,-0.225,-0.2
2021-08-19 20:32:32.288,-0.225,-0.195
2021-08-19 20:32:32.292,-0.24,-0.215
2021-08-19 20:32:32.296,-0.265,-0.18
2021-08-19 20:32:32.300,-0.235,-0.185
2021-08-19 20:32:32.304,-0.25,-0.2
2021-08-19 20:32:32.308,-0.24,-0.19
2021-08-19 20:32:32.312,-0.25,-0.18
2021-08-19 20:32:32.316,-0.235,-0.195
2021-08-19 20:32:32.320,-0.23,-0.19
2021-08-19 20:32:32.324,-0.205,-0.205
2021-08-19 20:32:32.328,-0.17,-0.195
2021-08-19 20:32:32.332,-0.13,-0.185
2021-08-19 20:32:32.336,-0.095,-0.2
2021-08-19 20:32:32.340,-0.08,-0.21
2021-08-19 20:32:32.344,-0.06,-0.21
2021-08-19 20:32:32.348,-0.02,-0.205
2021-08-19 20:32:32.352,0.01,-0.205
2021-08-19 20:32:32.356,0.045,-0.2
2021-08-19 20:32:32.360,0.075,-0.175
2021-08-19 20:32:32.364,0.07,-0.16
2021-08-19 20:32:32.368,0.04,-0.145
2021-08-19 20:32:32.372,0.025,-0.15
2021-08-19 20:32:32.376,0.005,-0.13
2021-08-19 20:32:32.380,-0.005,-0.11
2021-08-19 20:32:32.384,-0.045,-0.085
2021-08-19 20:32:32.388,-0.065,-0.05
2021-08-19 20:32:32.392,-0.055,-0.035
2021-08-19 20:32:32.396,-0.07,-0.02
2021-08-19 20:32:32.400,-0.085,0.0
2021-08-19 20:32:32.404,-0.105,-0.055
2021-08-19 20:32:32.408,-0.14,-0.08
2021-08-19 20:32:32.412,-0.16,-0.13
2021-08-19 20:32:32.416,-0.16,-0.145
2021-08-19 20:32:32.420,-0.17,-0.175
2021-08-19 20:32:32.424,-0.145,-0.17
2021-08-19 20:32:32.428,-0.13,-0.175
2021-08-19 20:32:32.432,-0.13,-0.17
2021-08-19 20:32:32.436,-0.135,-0.195
2021-08-19 20:32:32.440,-0.125,-0.19
2021-08-19 20:32:32.444,-0.14,-0.18
2021-08-19 20:32:32.448,-0.125,-0.17
2021-08-19 20:32:32.452,-0.14,-0.18
2021-08-19 20:32:32.456,-0.075,-0.165
2021-08-19 20:32:32.460,0.09,-0.14
2021-08-19 20:32:32.464,0.3,-0.11
2021-08-19 20:32:32.468,0.495,-0.065
2021-08-19 20:32:32.472,0.675,-0.02
2021-08-19 20:32:32.476,0.77,-0.02
2021-08-19 20:32:32.480,0.63,-0.07
2021-08-19 20:32:32.484,0.28,-0.095
2021-08-19 20:32:32.488,-0.04,-0.15
2021-08-19 20:32:32.492,-0.23,-0.195
2021-08-19 20:32:32.496,-0.335,-0.125
2021-08-19 20:32:32.500,-0.365,0.025
2021-08-19 20:32:32.504,-0.355,0.155
2021-08-19 20:32:32.508,-0.385,0.295
2021-08-19 20:32:32.512,-0.415,0.475
2021-08-19 20:32:32.516,-0.44,0.655
2021-08-19 20:32:32.520,-0.495,0.755
2021-08-19 20:32:32.524,-0.515,0.775
2021-08-19 20:32:32.528,-0.475,0.735
2021-08-19 20:32:32.532,-0.36,0.62
2021-08-19 20:32:32.536,-0.245,0.54
2021-08-19 20:32:32.540,-0.15,0.515
2021-08-19 20:32:32.544,-0.115,0.42
2021-08-19 20:32:32.548,-0.125,0.3
2021-08-19 20:32:32.552,-0.125,0.11
2021-08-19 20:32:32.556,-0.12,-0.005
2021-08-19 20:32:32.560,-0.125,-0.06
2021-08-19 20:32:32.564,-0.12,-0.05
2021-08-19 20:32:32.568,-0.095,-0.08
2021-08-19 20:32:32.572,-0.09,-0.11
2021-08-19 20:32:32.576,-0.075,-0.11
2021-08-19 20:32:32.580,-0.09,-0.14
2021-08-19 20:32:32.584,-0.1,-0.12
2021-08-19 20:32:32.588,-0.095,-0.15
2021-08-19 20:32:32.592,-0.055,-0.135
2021-08-19 20:32:32.596,-0.03,-0.16
2021-08-19 20:32:32.600,-0.04,-0.17
2021-08-19 20:32:32.604,-0.02,-0.15
2021-08-19 20:32:32.608,-0.02,-0.2
2021-08-19 20:32:32.612,0.0,-0.18
2021-08-19 20:32:32.616,0.0,-0.185
2021-08-19 20:32:32.620,0.015,-0.19
2021-08-19 20:32:32.624,0.03,-0.2
2021-08-19 20:32:32.628,0.035,-0.2
2021-08-19 20:32:32.632,0.065,-0.2
2021-08-19 20:32:32.636,0.095,-0.21
2021-08-19 20:32:32.640,0.135,-0.215
2021-08-19 20:32:32.644,0.185,-0.25
2021-08-19 20:32:32.648,0.205,-0.255
2021-08-19 20:32:32.652,0.22,-0.24
2021-08-19 20:32:32.656,0.235,-0.265
2021-08-19 20:32:32.660,0.25,-0.28
2021-08-19 20:32:32.664,0.27,-0.32
2021-08-19 20:32:32.668,0.28,-0.36
2021-08-19 20:32:32.672,0.29,-0.4
2021-08-19 20:32:32.676,0.275,-0.405
2021-08-19 20:32:32.680,0.245,-0.43
2021-08-19 20:32:32.684,0.265,-0.415
2021-08-19 20:32:32.688,0.245,-0.435
2021-08-19 20:32:32.692,0.235,-0.48
2021-08-19 20:32:32.696,0.235,-0.47
2021-08-19 20:32:32.700,0.225,-0.475
2021-08-19 20:32:32.704,0.205,-0.465
2021-08-19 20:32:32.708,0.19,-0.46
2021-08-19 20:32:32.712,0.195,-0.46
2021-08-19 20:32:32.716,0.175,-0.465
2021-08-19 20:32:32.720,0.155,-0.43
2021-08-19 20:32:32.724,0.175,-0.435
2021-08-19 20:32:32.728,0.145,-0.42
2021-08-19 20:32:32.732,0.135,-0.385
2021-08-19 20:32:32.736,0.115,-0.36
2021-08-19 20:32:32.740,0.085,-0.33
2021-08-19 20:32:32.744,0.075,-0.325
2021-08-19 20:32:32.748,0.07,-0.275
2021-08-19 20:32:32.752,0.05,-0.275
2021-08-19 20:32:32.756,0.045,-0.235
2021-08-19 20:32:32.760,0.02,-0.255
2021-08-19 20:32:32.764,0.02,-0.195
2021-08-19 20:32:32.768,0.0,-0.17
2021-08-19 20:32:32.772,0.015,-0.165
2021-08-19 20:32:32.776,0.025,-0.15
2021-08-19 20:32:32.780,0.025,-0.115
2021-08-19 20:32:32.784,0.015,-0.11
2021-08-19 20:32:32.788,0.025,-0.105
2021-08-19 20:32:32.792,0.0,-0.06
2021-08-19 20:32:32.796,0.0,-0.055
2021-08-19 20:32:32.800,0.02,-0.07
2021-08-19 20:32:32.804,0.02,-0.085
2021-08-19 20:32:32.808,-0.005,-0.065
2021-08-19 20:32:32.812,-0.025,-0.06
2021-08-19 20:32:32.816,-0.025,-0.015
2021-08-19 20:32:32.820,-0.035,-0.02
2021-08-19 20:32:32.824,-0.03,-0.07
2021-08-19 20:32:32.828,-0.03,-0.08
2021-08-19 20:32:32.832,-0.02,-0.08
2021-08-19 20:32:32.836,-0.01,-0.07
2021-08-19 20:32:32.840,-0.005,-0.06
2021-08-19 20:32:32.844,-0.01,-0.025
2021-08-19 20:32:32.848,0.0,-0.02
2021-08-19 20:32:32.852,0.0,-0.035
2021-08-19 20:32:32.856,0.035,-0.025
2021-08-19 20:32:32.860,0.015,-0.01
2021-08-19 20:32:32.864,0.045,0.01
2021-08-19 20:32:32.868,0.03,0.0
2021-08-19 20:32:32.872,0.005,-0.025
2021-08-19 20:32:32.876,0.0,0.015
2021-08-19 20:32:32.880,0.015,-0.005
2021-08-19 20:32:32.884,0.04,0.005
2021-08-19 20:32:32.888,0.025,0.0
2021-08-19 20:32:32.892,0.035,0.015
2021-08-19 20:32:32.896,0.05,0.01
2021-08-19 20:32:32.900,0.055,0.025
2021-08-19 20:32:32.904,0.035,0.025
2021-08-19 20:32:32.908,0.035,0.045
2021-08-19 20:32:32.912,0.025,0.05
2021-08-19 20:32:32.916,0.035,0.025
2021-08-19 20:32:32.920,0.03,0.03
2021-08-19 20:32:32.924,0.025,0.015
2021-08-19 20:32:32.928,0.05,0.0
2021-08-19 20:32:32.932,0.035,-0.04
2021-08-19 20:32:32.936,0.025,-0.015
2021-08-19 20:32:32.940,0.03,0.005
2021-08-19 20:32:32.944,0.05,0.03
2021-08-19 20:32:32.948,0.045,0.005
2021-08-19 20:32:32.952,0.035,-0.045
2021-08-19 20:32:32.956,0.045,-0.06
2021-08-19 20:32:32.960,0.035,-0.03
2021-08-19 20:32:32.964,0.045,-0.02
2021-08-19 20:32:32.968,0.05,-0.03
2021-08-19 20:32:32.972,0.04,-0.01
2021-08-19 20:32:32.976,0.03,0.0
2021-08-19 20:32:32.980,0.02,0.0
2021-08-19 20:32:32.984,0.025,0.0
2021-08-19 20:32:32.988,0.0,-0.035
2021-08-19 20:32:32.992,0.015,-0.055
2021-08-19 20:32:32.996,0.005,-0.045
2021-08-19 20:32:33.000,0.01,-0.05
2021-08-19 20:32:33.004,0.015,-0.015
2021-08-19 20:32:33.008,0.025,-0.015
2021-08-19 20:32:33.012,0.02,-0.035
2021-08-19 20:32:33.016,0.0,-0.06
2021-08-19 20:32:33.020,0.0,-0.06
2021-08-19 20:32:33.024,0.0,-0.05
2021-08-19 20:32:33.028,-0.005,-0.055
2021-08-19 20:32:33.032,0.005,-0.035
2021-08-19 20:32:33.036,0.0,-0.05
2021-08-19 20:32:33.040,0.01,-0.055
2021-08-19 20:32:33.044,0.01,-0.04
2021-08-19 20:32:33.048,0.045,-0.05
2021-08-19 20:32:33.052,0.03,-0.03
2021-08-19 20:32:33.056,0.015,-0.03
2021-08-19 20:32:33.060,0.035,-0.02
2021-08-19 20:32:33.064,0.015,-0.045
2021-08-19 20:32:33.068,0.025,-0.02
2021-08-19 20:32:33.072,0.045,-0.02
2021-08-19 20:32:33.076,0.055,-0.005
2021-08-19 20:32:33.080,0.02,0.005
2021-08-19 20:32:33.084,0.005,-0.035
2021-08-19 20:32:33.088,0.015,-0.02
2021-08-19 20:32:33.092,0.025,-0.035
2021-08-19 20:32:33.096,0.02,-0.03
2021-08-19 20:32:33.100,0.025,-0.03
2021-08-19 20:32:33.104,0.015,-0.04
2021-08-19 20:32:33.108,0.0,-0.025
2021-08-19 20:32:33.112,0.01,-0.025
2021-08-19 20:32:33.116,0.0,-0.04
2021-08-19 20:32:33.120,0.005,-0.05
2021-08-19 20:32:33.124,0.02,-0.045
2021-08-19 20:32:33.128,0.03,-0.05
2021-08-19 20:32:33.132,0.055,-0.03
2021-08-19 20:32:33.136,0.07,-0.04
2021-08-19 20:32:33.140,0.06,-0.045
2021-08-19 20:32:33.144,0.07,-0.05
2021-08-19 20:32:33.148,0.095,-0.045
2021-08-19 20:32:33.152,0.1,-0.005
2021-08-19 20:32:33.156,0.1,0.0
2021-08-19 20:32:33.160,0.1,-0.025
2021-08-19 20:32:33.164,0.115,0.025
2021-08-19 20:32:33.168,0.135,0.04
2021-08-19 20:32:33.172,0.135,0.04
2021-08-19 20:32:33.176,0.115,0.055
2021-08-19 20:32:33.180,0.105,0.045
2021-08-19 20:32:33.184,0.11,0.025
2021-08-19 20:32:33.188,0.075,0.0
2021-08-19 20:32:33.192,0.08,-0.035
2021-08-19 20:32:33.196,0.08,-0.015
2021-08-19 20:32:33.200,0.1,-0.075
2021-08-19 20:32:33.204,0.135,-0.14
2021-08-19 20:32:33.208,0.15,-0.15
2021-08-19 20:32:33.212,0.135,-0.135
2021-08-19 20:32:33.216,0.065,-0.125
2021-08-19 20:32:33.220,0.035,-0.095
2021-08-19 20:32:33.224,0.015,-0.07
2021-08-19 20:32:33.228,-0.015,-0.055
2021-08-19 20:32:33.232,-0.06,-0.06
2021-08-19 20:32:33.236,-0.12,-0.055
2021-08-19 20:32:33.240,-0.155,-0.055
2021-08-19 20:32:33.244,-0.185,-0.03
2021-08-19 20:32:33.248,-0.215,-0.04
2021-08-19 20:32:33.252,-0.205,-0.055
2021-08-19 20:32:33.256,-0.185,-0.065
2021-08-19 20:32:33.260,-0.12,0.0
2021-08-19 20:32:33.264,-0.155,0.055
2021-08-19 20:32:33.268,-0.2,0.025
2021-08-19 20:32:33.272,-0.24,-0.05
2021-08-19 20:32:33.276,-0.185,-0.115
2021-08-19 20:32:33.280,0.01,-0.1
2021-08-19 20:32:33.284,0.235,-0.06
2021-08-19 20:32:33.288,0.515,-0.005
2021-08-19 20:32:33.292,0.805,0.0
2021-08-19 20:32:33.296,0.995,0.045
2021-08-19 20:32:33.300,0.935,0.045
2021-08-19 20:32:33.304,0.625,0.04
2021-08-19 20:32:33.308,0.165,0.01
2021-08-19 20:32:33.312,-0.16,-0.055
2021-08-19 20:32:33.316,-0.365,-0.06
2021-08-19 20:32:33.320,-0.415,0.01
2021-08-19 20:32:33.324,-0.425,0.11
2021-08-19 20:32:33.328,-0.5,0.265
2021-08-19 20:32:33.332,-0.585,0.45
2021-08-19 20:32:33.336,-0.635,0.665
2021-08-19 20:32:33.340,-0.65,0.735
2021-08-19 20:32:33.344,-0.6,0.775
2021-08-19 20:32:33.348,-0.54,0.815
2021-08-19 20:32:33.352,-0.45,0.75
2021-08-19 20:32:33.356,-0.34,0.715
2021-08-19 20:32:33.360,-0.28,0.75
2021-08-19 20:32:33.364,-0.275,0.67
2021-08-19 20:32:33.368,-0.285,0.4
2021-08-19 20:32:33.372,-0.28,0.095
2021-08-19 20:32:33.376,-0.26,-0.05
2021-08-19 20:32:33.380,-0.25,-0.14
2021-08-19 20:32:33.384,-0.25,-0.15
2021-08-19 20:32:33.388,-0.265,-0.145
2021-08-19 20:32:33.392,-0.245,-0.145
2021-08-19 20:32:33.396,-0.225,-0.15
2021-08-19 20:32:33.400,-0.24,-0.14
2021-08-19 20:32:33.404,-0.23,-0.16
2021-08-19 20:32:33.408,-0.225,-0.16
2021-08-19 20:32:33.412,-0.225,-0.16
2021-08-19 20:32:33.416,-0.205,-0.155
2021-08-19 20:32:33.420,-0.19,-0.195
2021-08-19 20:32:33.424,-0.215,-0.17
2021-08-19 20:32:33.428,-0.21,-0.175
2021-08-19 20:32:33.432,-0.225,-0.15
2021-08-19 20:32:33.436,-0.27,-0.1
2021-08-19 20:32:33.440,-0.265,-0.1
2021-08-19 20:32:33.444,-0.215,-0.11
2021-08-19 20:32:33.448,-0.11,0.0
2021-08-19 20:32:33.452,-0.075,0.025
2021-08-19 20:32:33.456,-0.075,-0.105
2021-08-19 20:32:33.460,-0.09,-0.25
2021-08-19 20:32:33.464,-0.085,-0.24
2021-08-19 20:32:33.468,-0.055,-0.225
2021-08-19 20:32:33.472,-0.035,-0.3
2021-08-19 20:32:33.476,-0.01,-0.37
2021-08-19 20:32:33.480,0.005,-0.47
2021-08-19 20:32:33.484,-0.01,-0.495
2021-08-19 20:32:33.488,-0.015,-0.515
2021-08-19 20:32:33.492,-0.03,-0.53
2021-08-19 20:32:33.496,-0.025,-0.54
2021-08-19 20:32:33.500,0.035,-0.53
2021-08-19 20:32:33.504,0.06,-0.53
2021-08-19 20:32:33.508,-0.03,-0.525
2021-08-19 20:32:33.512,-0.095,-0.54
2021-08-19 20:32:33.516,-0.16,-0.515
2021-08-19 20:32:33.520,-0.16,-0.46
2021-08-19 20:32:33.524,-0.13,-0.455
2021-08-19 20:32:33.528,-0.11,-0.39
2021-08-19 20:32:33.532,-0.14,-0.31
2021-08-19 20:32:33.536,-0.11,-0.195
2021-08-19 20:32:33.540,-0.115,-0.17
2021-08-19 20:32:33.544,-0.115,-0.21
2021-08-19 20:32:33.548,-0.1,-0.325
2021-08-19 20:32:33.552,-0.08,-0.435
2021-08-19 20:32:33.556,-0.12,-0.425
2021-08-19 20:32:33.560,-0.24,-0.385
2021-08-19 20:32:33.564,-0.285,-0.495
2021-08-19 20:32:33.568,-0.27,-0.61
2021-08-19 20:32:33.572,-0.26,-0.66
2021-08-19 20:32:33.576,-0.275,-0.615
2021-08-19 20:32:33.580,-0.29,-0.59
2021-08-19 20:32:33.584,-0.28,-0.515
2021-08-19 20:32:33.588,-0.3,-0.5
2021-08-19 20:32:33.592,-0.31,-0.45
2021-08-19 20:32:33.596,-0.33,-0.395
2021-08-19 20:32:33.600,-0.32,-0.34
2021-08-19 20:32:33.604,-0.295,-0.335
2021-08-19 20:32:33.608,-0.31,-0.36
2021-08-19 20:32:33.612,-0.335,-0.35
2021-08-19 20:32:33.616,-0.34,-0.315
2021-08-19 20:32:33.620,-0.355,-0.3
2021-08-19 20:32:33.624,-0.365,-0.235
2021-08-19 20:32:33.628,-0.35,-0.215
2021-08-19 20:32:33.632,-0.305,-0.185
2021-08-19 20:32:33.636,-0.29,-0.17
2021-08-19 20:32:33.640,-0.32,-0.055
2021-08-19 20:32:33.644,-0.32,-0.055
2021-08-19 20:32:33.648,-0.315,-0.155
2021-08-19 20:32:33.652,-0.385,-0.295
2021-08-19 20:32:33.656,-0.405,-0.345
2021-08-19 20:32:33.660,-0.375,-0.38
2021-08-19 20:32:33.664,-0.295,-0.33
2021-08-19 20:32:33.668,-0.29,-0.295
2021-08-19 20:32:33.672,-0.345,-0.285
2021-08-19 20:32:33.676,-0.38,-0.265
2021-08-19 20:32:33.680,-0.365,-0.34
2021-08-19 20:32:33.684,-0.38,-0.365
2021-08-19 20:32:33.688,-0.36,-0.37
2021-08-19 20:32:33.692,-0.33,-0.35
2021-08-19 20:32:33.696,-0.335,-0.3
2021-08-19 20:32:33.700,-0.35,-0.215
2021-08-19 20:32:33.704,-0.32,-0.21
2021-08-19 20:32:33.708,-0.305,-0.25
2021-08-19 20:32:33.712,-0.32,-0.27
2021-08-19 20:32:33.716,-0.33,-0.265
2021-08-19 20:32:33.720,-0.32,-0.255
2021-08-19 20:32:33.724,-0.26,-0.265
2021-08-19 20:32:33.728,-0.24,-0.26
2021-08-19 20:32:33.732,-0.245,-0.21
2021-08-19 20:32:33.736,-0.28,-0.18
2021-08-19 20:32:33.740,-0.34,-0.205
2021-08-19 20:32:33.744,-0.325,-0.25
2021-08-19 20:32:33.748,-0.32,-0.275
2021-08-19 20:32:33.752,-0.29,-0.165
2021-08-19 20:32:33.756,-0.145,-0.035
2021-08-19 20:32:33.760,-0.095,-0.025
2021-08-19 20:32:33.764,-0.135,-0.045
2021-08-19 20:32:33.768,-0.205,-0.04
2021-08-19 20:32:33.772,-0.255,-0.17
2021-08-19 20:32:33.776,-0.26,-0.38
2021-08-19 20:32:33.780,-0.295,-0.51
2021-08-19 20:32:33.784,-0.305,-0.52
2021-08-19 20:32:33.788,-0.29,-0.465
2021-08-19 20:32:33.792,-0.26,-0.355
2021-08-19 20:32:33.796,-0.24,-0.28
2021-08-19 20:32:33.800,-0.24,-0.26
2021-08-19 20:32:33.804,-0.245,-0.275
2021-08-19 20:32:33.808,-0.255,-0.31
2021-08-19 20:32:33.812,-0.275,-0.29
2021-08-19 20:32:33.816,-0.295,-0.255
2021-08-19 20:32:33.820,-0.29,-0.225
2021-08-19 20:32:33.824,-0.28,-0.205
2021-08-19 20:32:33.828,-0.305,-0.195
2021-08-19 20:32:33.832,-0.295,-0.215
2021-08-19 20:32:33.836,-0.28,-0.255
2021-08-19 20:32:33.840,-0.285,-0.29
2021-08-19 20:32:33.844,-0.305,-0.28
2021-08-19 20:32:33.848,-0.3,-0.24
2021-08-19 20:32:33.852,-0.31,-0.2
2021-08-19 20:32:33.856,-0.29,-0.1
2021-08-19 20:32:33.860,-0.295,-0.06
2021-08-19 20:32:33.864,-0.32,-0.15
2021-08-19 20:32:33.868,-0.33,-0.215
2021-08-19 20:32:33.872,-0.285,-0.29
2021-08-19 20:32:33.876,-0.285,-0.285
2021-08-19 20:32:33.880,-0.28,-0.155
2021-08-19 20:32:33.884,-0.31,-0.075
2021-08-19 20:32:33.888,-0.365,-0.175
2021-08-19 20:32:33.892,-0.3,-0.275
2021-08-19 20:32:33.896,-0.235,-0.32
2021-08-19 20:32:33.900,-0.24,-0.255
2021-08-19 20:32:33.904,-0.22,-0.185
2021-08-19 20:32:33.908,-0.24,-0.155
2021-08-19 20:32:33.912,-0.275,-0.145
2021-08-19 20:32:33.916,-0.25,-0.15
2021-08-19 20:32:33.920,-0.25,-0.14
2021-08-19 20:32:33.924,-0.245,-0.095
2021-08-19 20:32:33.928,-0.25,-0.08
2021-08-19 20:32:33.932,-0.22,-0.07
2021-08-19 20:32:33.936,-0.195,-0.04
2021-08-19 20:32:33.940,-0.185,-0.04
2021-08-19 20:32:33.944,-0.18,-0.1
2021-08-19 20:32:33.948,-0.2,-0.205
2021-08-19 20:32:33.952,-0.215,-0.33
2021-08-19 20:32:33.956,-0.205,-0.38
2021-08-19 20:32:33.960,-0.22,-0.33
2021-08-19 20:32:33.964,-0.255,-0.24
2021-08-19 20:32:33.968,-0.315,-0.195
2021-08-19 20:32:33.972,-0.335,-0.21
2021-08-19 20:32:33.976,-0.365,-0.24
2021-08-19 20:32:33.980,-0.37,-0.25
2021-08-19 20:32:33.984,-0.36,-0.235
2021-08-19 20:32:33.988,-0.335,-0.215
2021-08-19 20:32:33.992,-0.35,-0.215
2021-08-19 20:32:33.996,-0.405,-0.215
2021-08-19 20:32:34.000,-0.4,-0.19
2021-08-19 20:32:34.004,-0.38,-0.15
2021-08-19 20:32:34.008,-0.33,-0.185
2021-08-19 20:32:34.012,-0.31,-0.185
2021-08-19 20:32:34.016,-0.35,-0.18
2021-08-19 20:32:34.020,-0.37,-0.165
2021-08-19 20:32:34.024,-0.275,-0.13
2021-08-19 20:32:34.028,-0.06,-0.1
2021-08-19 20:32:34.032,0.21,-0.025
2021-08-19 20:32:34.036,0.495,0.015
2021-08-19 20:32:34.040,0.79,0.035
2021-08-19 20:32:34.044,0.935,-0.035
2021-08-19 20:32:34.048,0.76,-0.09
2021-08-19 20:32:34.052,0.33,-0.12
2021-08-19 20:32:34.056,-0.125,-0.135
2021-08-19 20:32:34.060,-0.405,-0.135
2021-08-19 20:32:34.064,-0.55,-0.04
2021-08-19 20:32:34.068,-0.585,0.05
2021-08-19 20:32:34.072,-0.59,0.175
2021-08-19 20:32:34.076,-0.655,0.32
2021-08-19 20:32:34.080,-0.705,0.475
2021-08-19 20:32:34.084,-0.74,0.63
2021-08-19 20:32:34.088,-0.74,0.685
2021-08-19 20:32:34.092,-0.695,0.645
2021-08-19 20:32:34.096,-0.62,0.55
2021-08-19 20:32:34.100,-0.555,0.5
2021-08-19 20:32:34.104,-0.46,0.495
2021-08-19 20:32:34.108,-0.4,0.5
2021-08-19 20:32:34.112,-0.39,0.375
2021-08-19 20:32:34.116,-0.42,0.22
2021-08-19 20:32:34.120,-0.385,0.095
2021-08-19 20:32:34.124,-0.37,0.02
2021-08-19 20:32:34.128,-0.335,-0.005
2021-08-19 20:32:34.132,-0.335,-0.045
2021-08-19 20:32:34.136,-0.315,-0.06
2021-08-19 20:32:34.140,-0.285,-0.06
2021-08-19 20:32:34.144,-0.285,-0.06
2021-08-19 20:32:34.148,-0.305,-0.04
2021-08-19 20:32:34.152,-0.29,-0.065
2021-08-19 20:32:34.156,-0.29,-0.08
2021-08-19 20:32:34.160,-0.27,-0.07
2021-08-19 20:32:34.164,-0.26,-0.06
2021-08-19 20:32:34.168,-0.265,-0.07
2021-08-19 20:32:34.172,-0.27,-0.08
2021-08-19 20:32:34.176,-0.27,-0.07
2021-08-19 20:32:34.180,-0.265,-0.08
2021-08-19 20:32:34.184,-0.24,-0.06
2021-08-19 20:32:34.188,-0.205,-0.08
2021-08-19 20:32:34.192,-0.185,-0.08
2021-08-19 20:32:34.196,-0.175,-0.13
2021-08-19 20:32:34.200,-0.175,-0.125
2021-08-19 20:32:34.204,-0.175,-0.135
2021-08-19 20:32:34.208,-0.16,-0.12
2021-08-19 20:32:34.212,-0.11,-0.11
2021-08-19 20:32:34.216,-0.095,-0.15
2021-08-19 20:32:34.220,-0.08,-0.19
2021-08-19 20:32:34.224,-0.085,-0.21
2021-08-19 20:32:34.228,-0.07,-0.225
2021-08-19 20:32:34.232,-0.08,-0.22
2021-08-19 20:32:34.236,-0.075,-0.24
2021-08-19 20:32:34.240,-0.06,-0.26
2021-08-19 20:32:34.244,-0.055,-0.265
2021-08-19 20:32:34.248,-0.06,-0.3
2021-08-19 20:32:34.252,-0.11,-0.315
2021-08-19 20:32:34.256,-0.115,-0.305
2021-08-19 20:32:34.260,-0.095,-0.265
2021-08-19 20:32:34.264,-0.12,-0.28
2021-08-19 20:32:34.268,-0.145,-0.31
2021-08-19 20:32:34.272,-0.135,-0.31
2021-08-19 20:32:34.276,-0.16,-0.315
2021-08-19 20:32:34.280,-0.18,-0.3
2021-08-19 20:32:34.284,-0.185,-0.28
2021-08-19 20:32:34.288,-0.19,-0.285
2021-08-19 20:32:34.292,-0.225,-0.26
2021-08-19 20:32:34.296,-0.235,-0.25
2021-08-19 20:32:34.300,-0.23,-0.24
2021-08-19 20:32:34.304,-0.21,-0.24
2021-08-19 20:32:34.308,-0.2,-0.21
2021-08-19 20:32:34.312,-0.2,-0.21
2021-08-19 20:32:34.316,-0.24,-0.19
2021-08-19 20:32:34.320,-0.255,-0.17
2021-08-19 20:32:34.324,-0.28,-0.135
2021-08-19 20:32:34.328,-0.305,-0.125
2021-08-19 20:32:34.332,-0.32,-0.11
2021-08-19 20:32:34.336,-0.35,-0.115
2021-08-19 20:32:34.340,-0.32,-0.065
2021-08-19 20:32:34.344,-0.32,-0.095
2021-08-19 20:32:34.348,-0.315,-0.07
2021-08-19 20:32:34.352,-0.305,-0.07
2021-08-19 20:32:34.356,-0.31,-0.06
2021-08-19 20:32:34.360,-0.33,-0.025
2021-08-19 20:32:34.364,-0.355,-0.02
2021-08-19 20:32:34.368,-0.345,-0.025
2021-08-19 20:32:34.372,-0.365,-0.02
2021-08-19 20:32:34.376,-0.36,0.0
2021-08-19 20:32:34.380,-0.36,0.01
2021-08-19 20:32:34.384,-0.345,0.01
2021-08-19 20:32:34.388,-0.37,-0.01
2021-08-19 20:32:34.392,-0.37,-0.015
2021-08-19 20:32:34.396,-0.395,0.005
2021-08-19 20:32:34.400,-0.365,-0.01
2021-08-19 20:32:34.404,-0.37,-0.01
2021-08-19 20:32:34.408,-0.355,0.0
2021-08-19 20:32:34.412,-0.34,-0.01
2021-08-19 20:32:34.416,-0.35,0.005
2021-08-19 20:32:34.420,-0.36,-0.03
2021-08-19 20:32:34.424,-0.355,0.005
2021-08-19 20:32:34.428,-0.34,-0.01
2021-08-19 20:32:34.432,-0.32,-0.005
2021-08-19 20:32:34.436,-0.33,-0.01
2021-08-19 20:32:34.440,-0.32,-0.02
2021-08-19 20:32:34.444,-0.36,-0.01
2021-08-19 20:32:34.448,-0.43,-0.025
2021-08-19 20:32:34.452,-0.445,-0.01
2021-08-19 20:32:34.456,-0.395,-0.015
2021-08-19 20:32:34.460,-0.33,0.0
2021-08-19 20:32:34.464,-0.3,0.0
2021-08-19 20:32:34.468,-0.315,-0.005
2021-08-19 20:32:34.472,-0.32,-0.01
2021-08-19 20:32:34.476,-0.3,-0.015
2021-08-19 20:32:34.480,-0.32,-0.015
2021-08-19 20:32:34.484,-0.315,0.0
2021-08-19 20:32:34.488,-0.32,-0.01
2021-08-19 20:32:34.492,-0.32,-0.015
2021-08-19 20:32:34.496,-0.32,-0.01
2021-08-19 20:32:34.500,-0.34,-0.02
2021-08-19 20:32:34.504,-0.33,-0.03
2021-08-19 20:32:34.508,-0.36,-0.03
2021-08-19 20:32:34.512,-0.36,-0.03
2021-08-19 20:32:34.516,-0.335,-0.045
2021-08-19 20:32:34.520,-0.34,-0.065
2021-08-19 20:32:34.524,-0.355,-0.025
2021-08-19 20:32:34.528,-0.365,-0.03
2021-08-19 20:32:34.532,-0.375,-0.04
2021-08-19 20:32:34.536,-0.39,-0.045
2021-08-19 20:32:34.540,-0.385,-0.02
2021-08-19 20:32:34.544,-0.4,0.0
2021-08-19 20:32:34.548,-0.425,0.005
2021-08-19 20:32:34.552,-0.43,-0.025
2021-08-19 20:32:34.556,-0.42,-0.015
2021-08-19 20:32:34.560,-0.42,0.0
2021-08-19 20:32:34.564,-0.43,0.0
2021-08-19 20:32:34.568,-0.42,-0.04
2021-08-19 20:32:34.572,-0.435,-0.015
2021-08-19 20:32:34.576,-0.435,0.005
2021-08-19 20:32:34.580,-0.45,0.005
2021-08-19 20:32:34.584,-0.42,-0.025
2021-08-19 20:32:34.588,-0.41,-0.015
2021-08-19 20:32:34.592,-0.435,-0.025
2021-08-19 20:32:34.596,-0.465,-0.02
2021-08-19 20:32:34.600,-0.465,-0.01
2021-08-19 20:32:34.604,-0.435,-0.005
2021-08-19 20:32:34.608,-0.415,-0.01
2021-08-19 20:32:34.612,-0.42,0.0
2021-08-19 20:32:34.616,-0.435,-0.02
2021-08-19 20:32:34.620,-0.42,-0.03
2021-08-19 20:32:34.624,-0.42,-0.015
2021-08-19 20:32:34.628,-0.43,-0.02
2021-08-19 20:32:34.632,-0.43,-0.03
2021-08-19 20:32:34.636,-0.42,-0.045
2021-08-19 20:32:34.640,-0.41,0.0
2021-08-19 20:32:34.644,-0.43,-0.015
2021-08-19 20:32:34.648,-0.4,-0.01
2021-08-19 20:32:34.652,-0.395,0.01
2021-08-19 20:32:34.656,-0.4,0.01
2021-08-19 20:32:34.660,-0.41,0.015
2021-08-19 20:32:34.664,-0.39,0.005
2021-08-19 20:32:34.668,-0.38,0.025
2021-08-19 20:32:34.672,-0.345,0.035
2021-08-19 20:32:34.676,-0.335,0.035
2021-08-19 20:32:34.680,-0.34,0.035
2021-08-19 20:32:34.684,-0.35,0.015
2021-08-19 20:32:34.688,-0.355,0.015
2021-08-19 20:32:34.692,-0.35,-0.05
2021-08-19 20:32:34.696,-0.345,-0.075
2021-08-19 20:32:34.700,-0.35,-0.08
2021-08-19 20:32:34.704,-0.345,-0.115
2021-08-19 20:32:34.708,-0.34,-0.14
2021-08-19 20:32:34.712,-0.36,-0.125
2021-08-19 20:32:34.716,-0.355,-0.125
2021-08-19 20:32:34.720,-0.365,-0.125
2021-08-19 20:32:34.724,-0.39,-0.145
2021-08-19 20:32:34.728,-0.39,-0.1
2021-08-19 20:32:34.732,-0.415,-0.095
2021-08-19 20:32:34.736,-0.45,-0.095
2021-08-19 20:32:34.740,-0.455,-0.095
2021-08-19 20:32:34.744,-0.46,-0.09
2021-08-19 20:32:34.748,-0.47,-0.085
2021-08-19 20:32:34.752,-0.45,-0.09
2021-08-19 20:32:34.756,-0.445,-0.075
2021-08-19 20:32:34.760,-0.42,-0.1
2021-08-19 20:32:34.764,-0.425,-0.12
2021-08-19 20:32:34.768,-0.42,-0.1
2021-08-19 20:32:34.772,-0.44,-0.1
2021-08-19 20:32:34.776,-0.425,-0.11
2021-08-19 20:32:34.780,-0.36,-0.07
2021-08-19 20:32:34.784,-0.215,-0.05
2021-08-19 20:32:34.788,0.03,-0.01
2021-08-19 20:32:34.792,0.295,0.04
2021-08-19 20:32:34.796,0.535,0.07
2021-08-19 20:32:34.800,0.645,0.035
2021-08-19 20:32:34.804,0.55,0.015
2021-08-19 20:32:34.808,0.25,-0.045
2021-08-19 20:32:34.812,-0.135,-0.115
2021-08-19 20:32:34.816,-0.39,-0.145
2021-08-19 20:32:34.820,-0.52,-0.045
2021-08-19 20:32:34.824,-0.565,0.055
2021-08-19 20:32:34.828,-0.575,0.17
2021-08-19 20:32:34.832,-0.65,0.31
2021-08-19 20:32:34.836,-0.71,0.485
2021-08-19 20:32:34.840,-0.765,0.63
2021-08-19 20:32:34.844,-0.77,0.745
2021-08-19 20:32:34.848,-0.78,0.735
2021-08-19 20:32:34.852,-0.74,0.645
2021-08-19 20:32:34.856,-0.625,0.52
2021-08-19 20:32:34.860,-0.52,0.455
2021-08-19 20:32:34.864,-0.44,0.45
2021-08-19 20:32:34.868,-0.4,0.41
2021-08-19 20:32:34.872,-0.39,0.27
2021-08-19 20:32:34.876,-0.37,0.125
2021-08-19 20:32:34.880,-0.355,0.04
2021-08-19 20:32:34.884,-0.33,0.0
2021-08-19 20:32:34.888,-0.33,-0.03
2021-08-19 20:32:34.892,-0.32,-0.035
2021-08-19 20:32:34.896,-0.33,-0.055
2021-08-19 20:32:34.900,-0.32,-0.055
2021-08-19 20:32:34.904,-0.3,-0.085
2021-08-19 20:32:34.908,-0.255,-0.085
2021-08-19 20:32:34.912,-0.235,-0.1
2021-08-19 20:32:34.916,-0.23,-0.115
2021-08-19 20:32:34.920,-0.275,-0.095
2021-08-19 20:32:34.924,-0.28,-0.115
2021-08-19 20:32:34.928,-0.25,-0.115
2021-08-19 20:32:34.932,-0.19,-0.145
2021-08-19 20:32:34.936,-0.22,-0.11
2021-08-19 20:32:34.940,-0.265,-0.13
2021-08-19 20:32:34.944,-0.315,-0.13
2021-08-19 20:32:34.948,-0.285,-0.13
2021-08-19 20:32:34.952,-0.28,-0.135
2021-08-19 20:32:34.956,-0.275,-0.115
2021-08-19 20:32:34.960,-0.24,-0.135
2021-08-19 20:32:34.964,-0.24,-0.145
2021-08-19 20:32:34.968,-0.24,-0.15
2021-08-19 20:32:34.972,-0.225,-0.17
2021-08-19 20:32:34.976,-0.225,-0.185
2021-08-19 20:32:34.980,-0.19,-0.175
2021-08-19 20:32:34.984,-0.175,-0.21
2021-08-19 20:32:34.988,-0.16,-0.22
2021-08-19 20:32:34.992,-0.165,-0.24
2021-08-19 20:32:34.996,-0.145,-0.255
2021-08-19 20:32:35.000,-0.145,-0.255
2021-08-19 20:32:35.004,-0.14,-0.275
2021-08-19 20:32:35.008,-0.155,-0.295
2021-08-19 20:32:35.012,-0.18,-0.295
2021-08-19 20:32:35.016,-0.2,-0.32
2021-08-19 20:32:35.020,-0.21,-0.34
2021-08-19 20:32:35.024,-0.21,-0.34
2021-08-19 20:32:35.028,-0.225,-0.34
2021-08-19 20:32:35.032,-0.24,-0.36
2021-08-19 20:32:35.036,-0.26,-0.36
2021-08-19 20:32:35.040,-0.27,-0.34
2021-08-19 20:32:35.044,-0.3,-0.305
2021-08-19 20:32:35.048,-0.335,-0.32
2021-08-19 20:32:35.052,-0.335,-0.31
2021-08-19 20:32:35.056,-0.325,-0.265
2021-08-19 20:32:35.060,-0.355,-0.26
2021-08-19 20:32:35.064,-0.355,-0.26
2021-08-19 20:32:35.068,-0.35,-0.235
2021-08-19 20:32:35.072,-0.345,-0.21
2021-08-19 20:32:35.076,-0.36,-0.17
2021-08-19 20:32:35.080,-0.37,-0.15
2021-08-19 20:32:35.084,-0.39,-0.135
2021-08-19 20:32:35.088,-0.385,-0.12
2021-08-19 20:32:35.092,-0.405,-0.085
2021-08-19 20:32:35.096,-0.37,-0.075
2021-08-19 20:32:35.100,-0.375,-0.09
2021-08-19 20:32:35.104,-0.39,-0.08
2021-08-19 20:32:35.108,-0.405,-0.085
2021-08-19 20:32:35.112,-0.415,-0.06
2021-08-19 20:32:35.116,-0.39,-0.065
2021-08-19 20:32:35.120,-0.435,-0.045
2021-08-19 20:32:35.124,-0.48,-0.07
2021-08-19 20:32:35.128,-0.495,-0.07
2021-08-19 20:32:35.132,-0.415,-0.075
2021-08-19 20:32:35.136,-0.375,-0.065
2021-08-19 20:32:35.140,-0.415,-0.055
2021-08-19 20:32:35.144,-0.45,-0.05
2021-08-19 20:32:35.148,-0.51,-0.05
2021-08-19 20:32:35.152,-0.54,-0.02
2021-08-19 20:32:35.156,-0.53,-0.03
2021-08-19 20:32:35.160,-0.53,-0.04
2021-08-19 20:32:35.164,-0.5,-0.055
2021-08-19 20:32:35.168,-0.48,-0.035
2021-08-19 20:32:35.172,-0.465,-0.035
2021-08-19 20:32:35.176,-0.44,-0.025
2021-08-19 20:32:35.180,-0.42,-0.04
2021-08-19 20:32:35.184,-0.405,-0.055
2021-08-19 20:32:35.188,-0.4,-0.055
2021-08-19 20:32:35.192,-0.38,-0.045
2021-08-19 20:32:35.196,-0.4,-0.06
2021-08-19 20:32:35.200,-0.405,-0.055
2021-08-19 20:32:35.204,-0.4,-0.04
2021-08-19 20:32:35.208,-0.375,-0.055
2021-08-19 20:32:35.212,-0.375,-0.065
2021-08-19 20:32:35.216,-0.375,-0.07
2021-08-19 20:32:35.220,-0.38,-0.055
2021-08-19 20:32:35.224,-0.38,-0.055
2021-08-19 20:32:35.228,-0.38,-0.08
2021-08-19 20:32:35.232,-0.36,-0.06
2021-08-19 20:32:35.236,-0.345,-0.055
2021-08-19 20:32:35.240,-0.365,-0.075
2021-08-19 20:32:35.244,-0.375,-0.045
2021-08-19 20:32:35.248,-0.39,-0.06
2021-08-19 20:32:35.252,-0.355,-0.07
2021-08-19 20:32:35.256,-0.38,-0.09
2021-08-19 20:32:35.260,-0.345,-0.1
2021-08-19 20:32:35.264,-0.27,-0.12
2021-08-19 20:32:35.268,-0.315,-0.105
2021-08-19 20:32:35.272,-0.48,-0.08
2021-08-19 20:32:35.276,-0.58,-0.12
2021-08-19 20:32:35.280,-0.63,-0.135
2021-08-19 20:32:35.284,-0.635,-0.11
2021-08-19 20:32:35.288,-0.605,-0.125
2021-08-19 20:32:35.292,-0.625,-0.12
2021-08-19 20:32:35.296,-0.65,-0.08
2021-08-19 20:32:35.300,-0.67,-0.095
2021-08-19 20:32:35.304,-0.655,-0.085
2021-08-19 20:32:35.308,-0.635,-0.1
2021-08-19 20:32:35.312,-0.625,-0.11
2021-08-19 20:32:35.316,-0.625,-0.115
2021-08-19 20:32:35.320,-0.605,-0.09
2021-08-19 20:32:35.324,-0.62,-0.08
2021-08-19 20:32:35.328,-0.6,-0.09
2021-08-19 20:32:35.332,-0.59,-0.12
2021-08-19 20:32:35.336,-0.585,-0.11
2021-08-19 20:32:35.340,-0.585,-0.105
2021-08-19 20:32:35.344,-0.59,-0.115
2021-08-19 20:32:35.348,-0.61,-0.13
2021-08-19 20:32:35.352,-0.595,-0.105
2021-08-19 20:32:35.356,-0.57,-0.14
2021-08-19 20:32:35.360,-0.575,-0.13
2021-08-19 20:32:35.364,-0.565,-0.14
2021-08-19 20:32:35.368,-0.56,-0.16
2021-08-19 20:32:35.372,-0.515,-0.14
2021-08-19 20:32:35.376,-0.42,-0.14
2021-08-19 20:32:35.380,-0.315,-0.14
2021-08-19 20:32:35.384,-0.37,-0.13
2021-08-19 20:32:35.388,-0.605,-0.13
2021-08-19 20:32:35.392,-0.78,-0.15
2021-08-19 20:32:35.396,-0.8,-0.19
2021-08-19 20:32:35.400,-0.685,-0.235
2021-08-19 20:32:35.404,-0.59,-0.18
2021-08-19 20:32:35.408,-0.6,-0.11
2021-08-19 20:32:35.412,-0.605,-0.1
2021-08-19 20:32:35.416,-0.605,-0.11
2021-08-19 20:32:35.420,-0.595,-0.12
2021-08-19 20:32:35.424,-0.575,-0.14
2021-08-19 20:32:35.428,-0.575,-0.12
2021-08-19 20:32:35.432,-0.545,-0.065
2021-08-19 20:32:35.436,-0.52,-0.05
2021-08-19 20:32:35.440,-0.52,-0.03
2021-08-19 20:32:35.444,-0.52,-0.025
2021-08-19 20:32:35.448,-0.51,-0.035
2021-08-19 20:32:35.452,-0.525,-0.08
2021-08-19 20:32:35.456,-0.51,-0.13
2021-08-19 20:32:35.460,-0.53,-0.2
2021-08-19 20:32:35.464,-0.5,-0.215
2021-08-19 20:32:35.468,-0.46,-0.225
2021-08-19 20:32:35.472,-0.41,-0.215
2021-08-19 20:32:35.476,-0.39,-0.22
2021-08-19 20:32:35.480,-0.42,-0.19
2021-08-19 20:32:35.484,-0.5,-0.24
2021-08-19 20:32:35.488,-0.56,-0.255
2021-08-19 20:32:35.492,-0.59,-0.28
2021-08-19 20:32:35.496,-0.615,-0.24
2021-08-19 20:32:35.500,-0.64,-0.225
2021-08-19 20:32:35.504,-0.7,-0.185
2021-08-19 20:32:35.508,-0.705,-0.165
2021-08-19 20:32:35.512,-0.68,-0.175
2021-08-19 20:32:35.516,-0.65,-0.2
2021-08-19 20:32:35.520,-0.675,-0.19
2021-08-19 20:32:35.524,-0.65,-0.2
2021-08-19 20:32:35.528,-0.63,-0.19
2021-08-19 20:32:35.532,-0.62,-0.165
2021-08-19 20:32:35.536,-0.625,-0.185
2021-08-19 20:32:35.540,-0.625,-0.16
2021-08-19 20:32:35.544,-0.585,-0.155
2021-08-19 20:32:35.548,-0.415,-0.135
2021-08-19 20:32:35.552,-0.185,-0.095
2021-08-19 20:32:35.556,0.08,-0.05
2021-08-19 20:32:35.560,0.285,-0.045
2021-08-19 20:32:35.564,0.365,-0.05
2021-08-19 20:32:35.568,0.225,-0.075
2021-08-19 20:32:35.572,-0.12,-0.105
2021-08-19 20:32:35.576,-0.455,-0.19
2021-08-19 20:32:35.580,-0.66,-0.175
2021-08-19 20:32:35.584,-0.755,-0.07
2021-08-19 20:32:35.588,-0.75,0.05
2021-08-19 20:32:35.592,-0.815,0.19
2021-08-19 20:32:35.596,-0.89,0.375
2021-08-19 20:32:35.600,-0.945,0.58
2021-08-19 20:32:35.604,-1.005,0.675
2021-08-19 20:32:35.608,-1.025,0.645
2021-08-19 20:32:35.612,-0.96,0.53
2021-08-19 20:32:35.616,-0.835,0.425
2021-08-19 20:32:35.620,-0.72,0.33
2021-08-19 20:32:35.624,-0.65,0.305
2021-08-19 20:32:35.628,-0.585,0.255
2021-08-19 20:32:35.632,-0.565,0.14
2021-08-19 20:32:35.636,-0.56,0.05
2021-08-19 20:32:35.640,-0.54,-0.035
2021-08-19 20:32:35.644,-0.535,-0.075
2021-08-19 20:32:35.648,-0.535,-0.105
2021-08-19 20:32:35.652,-0.505,-0.135
2021-08-19 20:32:35.656,-0.505,-0.185
2021-08-19 20:32:35.660,-0.49,-0.18
2021-08-19 20:32:35.664,-0.49,-0.205
2021-08-19 20:32:35.668,-0.505,-0.18
2021-08-19 20:32:35.672,-0.515,-0.15
2021-08-19 20:32:35.676,-0.495,-0.175
2021-08-19 20:32:35.680,-0.49,-0.18
2021-08-19 20:32:35.684,-0.52,-0.185
2021-08-19 20:32:35.688,-0.505,-0.2
2021-08-19 20:32:35.692,-0.51,-0.2
2021-08-19 20:32:35.696,-0.49,-0.22
2021-08-19 20:32:35.700,-0.495,-0.225
2021-08-19 20:32:35.704,-0.46,-0.235
2021-08-19 20:32:35.708,-0.485,-0.225
2021-08-19 20:32:35.712,-0.475,-0.235
2021-08-19 20:32:35.716,-0.435,-0.23
2021-08-19 20:32:35.720,-0.395,-0.24
2021-08-19 20:32:35.724,-0.375,-0.24
2021-08-19 20:32:35.728,-0.385,-0.255
2021-08-19 20:32:35.732,-0.385,-0.275
2021-08-19 20:32:35.736,-0.365,-0.295
2021-08-19 20:32:35.740,-0.36,-0.27
2021-08-19 20:32:35.744,-0.345,-0.33
2021-08-19 20:32:35.748,-0.34,-0.34
2021-08-19 20:32:35.752,-0.35,-0.36
2021-08-19 20:32:35.756,-0.325,-0.37
2021-08-19 20:32:35.760,-0.305,-0.385
2021-08-19 20:32:35.764,-0.3,-0.4
2021-08-19 20:32:35.768,-0.3,-0.435
2021-08-19 20:32:35.772,-0.29,-0.46
2021-08-19 20:32:35.776,-0.3,-0.48
2021-08-19 20:32:35.780,-0.31,-0.475
2021-08-19 20:32:35.784,-0.31,-0.455
2021-08-19 20:32:35.788,-0.355,-0.45
2021-08-19 20:32:35.792,-0.355,-0.455
2021-08-19 20:32:35.796,-0.35,-0.45
2021-08-19 20:32:35.800,-0.37,-0.48
2021-08-19 20:32:35.804,-0.395,-0.46
2021-08-19 20:32:35.808,-0.435,-0.455
2021-08-19 20:32:35.812,-0.405,-0.435
2021-08-19 20:32:35.816,-0.44,-0.4
2021-08-19 20:32:35.820,-0.465,-0.445
2021-08-19 20:32:35.824,-0.48,-0.405
2021-08-19 20:32:35.828,-0.5,-0.4
2021-08-19 20:32:35.832,-0.525,-0.355
2021-08-19 20:32:35.836,-0.505,-0.32
2021-08-19 20:32:35.840,-0.51,-0.3
2021-08-19 20:32:35.844,-0.505,-0.285
2021-08-19 20:32:35.848,-0.46,-0.28
2021-08-19 20:32:35.852,-0.46,-0.27
2021-08-19 20:32:35.856,-0.445,-0.25
2021-08-19 20:32:35.860,-0.415,-0.235
2021-08-19 20:32:35.864,-0.36,-0.19
2021-08-19 20:32:35.868,-0.36,-0.18
2021-08-19 20:32:35.872,-0.445,-0.225
2021-08-19 20:32:35.876,-0.565,-0.265
2021-08-19 20:32:35.880,-0.64,-0.245
2021-08-19 20:32:35.884,-0.685,-0.19
2021-08-19 20:32:35.888,-0.665,-0.16
2021-08-19 20:32:35.892,-0.6,-0.135
2021-08-19 20:32:35.896,-0.575,-0.14
2021-08-19 20:32:35.900,-0.575,-0.13
2021-08-19 20:32:35.904,-0.605,-0.14
2021-08-19 20:32:35.908,-0.58,-0.15
2021-08-19 20:32:35.912,-0.575,-0.16
2021-08-19 20:32:35.916,-0.595,-0.16
2021-08-19 20:32:35.920,-0.575,-0.13
2021-08-19 20:32:35.924,-0.52,-0.115
2021-08-19 20:32:35.928,-0.51,-0.135
2021-08-19 20:32:35.932,-0.495,-0.155
2021-08-19 20:32:35.936,-0.52,-0.155
2021-08-19 20:32:35.940,-0.51,-0.165
2021-08-19 20:32:35.944,-0.52,-0.17
2021-08-19 20:32:35.948,-0.5,-0.15
2021-08-19 20:32:35.952,-0.485,-0.15
2021-08-19 20:32:35.956,-0.485,-0.16
2021-08-19 20:32:35.960,-0.475,-0.145
2021-08-19 20:32:35.964,-0.47,-0.175
2021-08-19 20:32:35.968,-0.455,-0.17
2021-08-19 20:32:35.972,-0.455,-0.16
2021-08-19 20:32:35.976,-0.425,-0.13
2021-08-19 20:32:35.980,-0.415,-0.155
2021-08-19 20:32:35.984,-0.42,-0.17
2021-08-19 20:32:35.988,-0.44,-0.165
2021-08-19 20:32:35.992,-0.475,-0.16
2021-08-19 20:32:35.996,-0.47,-0.16
2021-08-19 20:32:36.000,-0.42,-0.19
2021-08-19 20:32:36.004,-0.415,-0.195
2021-08-19 20:32:36.008,-0.425,-0.18
2021-08-19 20:32:36.012,-0.435,-0.16
2021-08-19 20:32:36.016,-0.465,-0.175
2021-08-19 20:32:36.020,-0.475,-0.175
2021-08-19 20:32:36.024,-0.455,-0.17
2021-08-19 20:32:36.028,-0.445,-0.17
2021-08-19 20:32:36.032,-0.47,-0.2
2021-08-19 20:32:36.036,-0.505,-0.195
2021-08-19 20:32:36.040,-0.495,-0.165
2021-08-19 20:32:36.044,-0.495,-0.185
2021-08-19 20:32:36.048,-0.465,-0.19
2021-08-19 20:32:36.052,-0.505,-0.19
2021-08-19 20:32:36.056,-0.56,-0.185
2021-08-19 20:32:36.060,-0.56,-0.175
2021-08-19 20:32:36.064,-0.545,-0.19
2021-08-19 20:32:36.068,-0.55,-0.225
2021-08-19 20:32:36.072,-0.535,-0.215
2021-08-19 20:32:36.076,-0.53,-0.2
2021-08-19 20:32:36.080,-0.52,-0.16
2021-08-19 20:32:36.084,-0.51,-0.18
2021-08-19 20:32:36.088,-0.49,-0.185
2021-08-19 20:32:36.092,-0.525,-0.185
2021-08-19 20:32:36.096,-0.52,-0.205
2021-08-19 20:32:36.100,-0.525,-0.185
2021-08-19 20:32:36.104,-0.49,-0.165
2021-08-19 20:32:36.108,-0.45,-0.16
2021-08-19 20:32:36.112,-0.39,-0.18
2021-08-19 20:32:36.116,-0.345,-0.195
2021-08-19 20:32:36.120,-0.375,-0.18
2021-08-19 20:32:36.124,-0.46,-0.185
2021-08-19 20:32:36.128,-0.54,-0.195
2021-08-19 20:32:36.132,-0.54,-0.24
2021-08-19 20:32:36.136,-0.51,-0.25
2021-08-19 20:32:36.140,-0.475,-0.23
2021-08-19 20:32:36.144,-0.505,-0.18
2021-08-19 20:32:36.148,-0.52,-0.16
2021-08-19 20:32:36.152,-0.525,-0.195
2021-08-19 20:32:36.156,-0.52,-0.215
2021-08-19 20:32:36.160,-0.475,-0.23
2021-08-19 20:32:36.164,-0.425,-0.185
2021-08-19 20:32:36.168,-0.365,-0.205
2021-08-19 20:32:36.172,-0.38,-0.205
2021-08-19 20:32:36.176,-0.46,-0.18
2021-08-19 20:32:36.180,-0.49,-0.18
2021-08-19 20:32:36.184,-0.485,-0.185
2021-08-19 20:32:36.188,-0.445,-0.215
2021-08-19 20:32:36.192,-0.4,-0.21
2021-08-19 20:32:36.196,-0.255,-0.145
2021-08-19 20:32:36.200,-0.07,-0.11
2021-08-19 20:32:36.204,-0.07,-0.105
2021-08-19 20:32:36.208,-0.28,-0.115
2021-08-19 20:32:36.212,-0.515,-0.14
2021-08-19 20:32:36.216,-0.565,-0.185
2021-08-19 20:32:36.220,-0.53,-0.3
2021-08-19 20:32:36.224,-0.46,-0.335
2021-08-19 20:32:36.228,-0.44,-0.25
2021-08-19 20:32:36.232,-0.445,-0.21
2021-08-19 20:32:36.236,-0.43,-0.2
2021-08-19 20:32:36.240,-0.44,-0.235
2021-08-19 20:32:36.244,-0.41,-0.26
2021-08-19 20:32:36.248,-0.415,-0.28
2021-08-19 20:32:36.252,-0.4,-0.285
2021-08-19 20:32:36.256,-0.41,-0.265
2021-08-19 20:32:36.260,-0.45,-0.25
2021-08-19 20:32:36.264,-0.475,-0.27
2021-08-19 20:32:36.268,-0.45,-0.255
2021-08-19 20:32:36.272,-0.46,-0.275
2021-08-19 20:32:36.276,-0.45,-0.265
2021-08-19 20:32:36.280,-0.44,-0.28
2021-08-19 20:32:36.284,-0.415,-0.27
2021-08-19 20:32:36.288,-0.415,-0.235
2021-08-19 20:32:36.292,-0.43,-0.26
2021-08-19 20:32:36.296,-0.44,-0.26
2021-08-19 20:32:36.300,-0.43,-0.255
2021-08-19 20:32:36.304,-0.43,-0.26
2021-08-19 20:32:36.308,-0.425,-0.26
2021-08-19 20:32:36.312,-0.36,-0.25
2021-08-19 20:32:36.316,-0.21,-0.21
2021-08-19 20:32:36.320,0.0,-0.155
2021-08-19 20:32:36.324,0.26,-0.075
2021-08-19 20:32:36.328,0.45,-0.06
2021-08-19 20:32:36.332,0.6,-0.105
2021-08-19 20:32:36.336,0.54,-0.115
2021-08-19 20:32:36.340,0.205,-0.155
2021-08-19 20:32:36.344,-0.16,-0.235
2021-08-19 20:32:36.348,-0.375,-0.26
2021-08-19 20:32:36.352,-0.47,-0.165
2021-08-19 20:32:36.356,-0.565,-0.05
2021-08-19 20:32:36.360,-0.63,0.045
2021-08-19 20:32:36.364,-0.71,0.24
2021-08-19 20:32:36.368,-0.765,0.435
2021-08-19 20:32:36.372,-0.815,0.61
2021-08-19 20:32:36.376,-0.835,0.62
2021-08-19 20:32:36.380,-0.795,0.535
2021-08-19 20:32:36.384,-0.69,0.385
2021-08-19 20:32:36.388,-0.59,0.285
2021-08-19 20:32:36.392,-0.49,0.275
2021-08-19 20:32:36.396,-0.435,0.255
2021-08-19 20:32:36.400,-0.38,0.155
2021-08-19 20:32:36.404,-0.38,0.025
2021-08-19 20:32:36.408,-0.38,-0.065
2021-08-19 20:32:36.412,-0.365,-0.13
2021-08-19 20:32:36.416,-0.35,-0.17
2021-08-19 20:32:36.420,-0.33,-0.2
2021-08-19 20:32:36.424,-0.325,-0.2
2021-08-19 20:32:36.428,-0.31,-0.235
2021-08-19 20:32:36.432,-0.31,-0.24
2021-08-19 20:32:36.436,-0.315,-0.23
2021-08-19 20:32:36.440,-0.34,-0.245
2021-08-19 20:32:36.444,-0.345,-0.235
2021-08-19 20:32:36.448,-0.315,-0.255
2021-08-19 20:32:36.452,-0.305,-0.25
2021-08-19 20:32:36.456,-0.3,-0.28
2021-08-19 20:32:36.460,-0.275,-0.285
2021-08-19 20:32:36.464,-0.26,-0.29
2021-08-19 20:32:36.468,-0.265,-0.285
2021-08-19 20:32:36.472,-0.26,-0.295
2021-08-19 20:32:36.476,-0.28,-0.285
2021-08-19 20:32:36.480,-0.265,-0.29
2021-08-19 20:32:36.484,-0.24,-0.295
2021-08-19 20:32:36.488,-0.195,-0.32
2021-08-19 20:32:36.492,-0.195,-0.315
2021-08-19 20:32:36.496,-0.175,-0.32
2021-08-19 20:32:36.500,-0.175,-0.34
2021-08-19 20:32:36.504,-0.17,-0.365
2021-08-19 20:32:36.508,-0.185,-0.35
2021-08-19 20:32:36.512,-0.15,-0.39
2021-08-19 20:32:36.516,-0.145,-0.4
2021-08-19 20:32:36.520,-0.13,-0.43
2021-08-19 20:32:36.524,-0.13,-0.43
2021-08-19 20:32:36.528,-0.13,-0.45
2021-08-19 20:32:36.532,-0.13,-0.475
2021-08-19 20:32:36.536,-0.12,-0.47
2021-08-19 20:32:36.540,-0.125,-0.48
2021-08-19 20:32:36.544,-0.11,-0.49
2021-08-19 20:32:36.548,-0.14,-0.495
2021-08-19 20:32:36.552,-0.16,-0.505
2021-08-19 20:32:36.556,-0.165,-0.505
2021-08-19 20:32:36.560,-0.2,-0.53
2021-08-19 20:32:36.564,-0.195,-0.515
2021-08-19 20:32:36.568,-0.205,-0.52
2021-08-19 20:32:36.572,-0.235,-0.52
2021-08-19 20:32:36.576,-0.265,-0.495
2021-08-19 20:32:36.580,-0.265,-0.5
2021-08-19 20:32:36.584,-0.29,-0.48
2021-08-19 20:32:36.588,-0.305,-0.48
2021-08-19 20:32:36.592,-0.32,-0.455
2021-08-19 20:32:36.596,-0.33,-0.43
2021-08-19 20:32:36.600,-0.36,-0.41
2021-08-19 20:32:36.604,-0.36,-0.38
2021-08-19 20:32:36.608,-0.355,-0.375
2021-08-19 20:32:36.612,-0.38,-0.35
2021-08-19 20:32:36.616,-0.41,-0.34
2021-08-19 20:32:36.620,-0.43,-0.305
2021-08-19 20:32:36.624,-0.425,-0.3
2021-08-19 20:32:36.628,-0.44,-0.265
2021-08-19 20:32:36.632,-0.43,-0.275
2021-08-19 20:32:36.636,-0.43,-0.265
2021-08-19 20:32:36.640,-0.44,-0.255
2021-08-19 20:32:36.644,-0.455,-0.23
2021-08-19 20:32:36.648,-0.465,-0.225
2021-08-19 20:32:36.652,-0.47,-0.225
2021-08-19 20:32:36.656,-0.475,-0.24
2021-08-19 20:32:36.660,-0.465,-0.235
2021-08-19 20:32:36.664,-0.48,-0.25
2021-08-19 20:32:36.668,-0.495,-0.26
2021-08-19 20:32:36.672,-0.46,-0.255
2021-08-19 20:32:36.676,-0.47,-0.23
2021-08-19 20:32:36.680,-0.48,-0.21
2021-08-19 20:32:36.684,-0.485,-0.215
2021-08-19 20:32:36.688,-0.455,-0.21
2021-08-19 20:32:36.692,-0.455,-0.225
2021-08-19 20:32:36.696,-0.455,-0.24
2021-08-19 20:32:36.700,-0.435,-0.23
2021-08-19 20:32:36.704,-0.45,-0.23
2021-08-19 20:32:36.708,-0.425,-0.225
2021-08-19 20:32:36.712,-0.42,-0.21
2021-08-19 20:32:36.716,-0.415,-0.215
2021-08-19 20:32:36.720,-0.39,-0.185
2021-08-19 20:32:36.724,-0.395,-0.2
2021-08-19 20:32:36.728,-0.385,-0.2
2021-08-19 20:32:36.732,-0.39,-0.21
2021-08-19 20:32:36.736,-0.37,-0.215
2021-08-19 20:32:36.740,-0.38,-0.205
2021-08-19 20:32:36.744,-0.36,-0.22
2021-08-19 20:32:36.748,-0.35,-0.215
2021-08-19 20:32:36.752,-0.345,-0.215
2021-08-19 20:32:36.756,-0.355,-0.235
2021-08-19 20:32:36.760,-0.35,-0.225
2021-08-19 20:32:36.764,-0.335,-0.2
2021-08-19 20:32:36.768,-0.355,-0.21
2021-08-19 20:32:36.772,-0.355,-0.225
2021-08-19 20:32:36.776,-0.34,-0.23
2021-08-19 20:32:36.780,-0.35,-0.215
2021-08-19 20:32:36.784,-0.365,-0.205
2021-08-19 20:32:36.788,-0.37,-0.225
2021-08-19 20:32:36.792,-0.375,-0.235
2021-08-19 20:32:36.796,-0.355,-0.235
2021-08-19 20:32:36.800,-0.37,-0.225
2021-08-19 20:32:36.804,-0.385,-0.24
2021-08-19 20:32:36.808,-0.385,-0.22
2021-08-19 20:32:36.812,-0.39,-0.23
2021-08-19 20:32:36.816,-0.37,-0.255
2021-08-19 20:32:36.820,-0.355,-0.25
2021-08-19 20:32:36.824,-0.36,-0.23
2021-08-19 20:32:36.828,-0.355,-0.25
2021-08-19 20:32:36.832,-0.35,-0.255
2021-08-19 20:32:36.836,-0.35,-0.22
2021-08-19 20:32:36.840,-0.37,-0.245
2021-08-19 20:32:36.844,-0.39,-0.235
2021-08-19 20:32:36.848,-0.405,-0.255
2021-08-19 20:32:36.852,-0.4,-0.255
2021-08-19 20:32:36.856,-0.425,-0.25
2021-08-19 20:32:36.860,-0.395,-0.26
2021-08-19 20:32:36.864,-0.35,-0.265
2021-08-19 20:32:36.868,-0.34,-0.245
2021-08-19 20:32:36.872,-0.345,-0.245
2021-08-19 20:32:36.876,-0.345,-0.245
2021-08-19 20:32:36.880,-0.36,-0.255
2021-08-19 20:32:36.884,-0.375,-0.25
2021-08-19 20:32:36.888,-0.385,-0.245
2021-08-19 20:32:36.892,-0.385,-0.235
2021-08-19 20:32:36.896,-0.395,-0.225
2021-08-19 20:32:36.900,-0.39,-0.24
2021-08-19 20:32:36.904,-0.4,-0.235
2021-08-19 20:32:36.908,-0.385,-0.255
2021-08-19 20:32:36.912,-0.39,-0.25
2021-08-19 20:32:36.916,-0.39,-0.27
2021-08-19 20:32:36.920,-0.385,-0.23
2021-08-19 20:32:36.924,-0.38,-0.235
2021-08-19 20:32:36.928,-0.385,-0.235
2021-08-19 20:32:36.932,-0.39,-0.265
2021-08-19 20:32:36.936,-0.395,-0.225
2021-08-19 20:32:36.940,-0.395,-0.245
2021-08-19 20:32:36.944,-0.395,-0.255
2021-08-19 20:32:36.948,-0.35,-0.25
2021-08-19 20:32:36.952,-0.335,-0.23
2021-08-19 20:32:36.956,-0.34,-0.2
2021-08-19 20:32:36.960,-0.36,-0.19
2021-08-19 20:32:36.964,-0.345,-0.19
2021-08-19 20:32:36.968,-0.325,-0.175
2021-08-19 20:32:36.972,-0.305,-0.16
2021-08-19 20:32:36.976,-0.265,-0.16
2021-08-19 20:32:36.980,-0.26,-0.135
2021-08-19 20:32:36.984,-0.275,-0.13
2021-08-19 20:32:36.988,-0.295,-0.175
2021-08-19 20:32:36.992,-0.31,-0.215
2021-08-19 20:32:36.996,-0.32,-0.26
2021-08-19 20:32:37.000,-0.325,-0.28
2021-08-19 20:32:37.004,-0.305,-0.295
2021-08-19 20:32:37.008,-0.315,-0.32
2021-08-19 20:32:37.012,-0.305,-0.31
2021-08-19 20:32:37.016,-0.32,-0.3
2021-08-19 20:32:37.020,-0.325,-0.305
2021-08-19 20:32:37.024,-0.34,-0.305
2021-08-19 20:32:37.028,-0.39,-0.29
2021-08-19 20:32:37.032,-0.405,-0.29
2021-08-19 20:32:37.036,-0.4,-0.28
2021-08-19 20:32:37.040,-0.4,-0.275
2021-08-19 20:32:37.044,-0.4,-0.28
2021-08-19 20:32:37.048,-0.37,-0.28
2021-08-19 20:32:37.052,-0.405,-0.3
2021-08-19 20:32:37.056,-0.39,-0.275
2021-08-19 20:32:37.060,-0.375,-0.295
2021-08-19 20:32:37.064,-0.395,-0.28
2021-08-19 20:32:37.068,-0.425,-0.28
2021-08-19 20:32:37.072,-0.405,-0.28
2021-08-19 20:32:37.076,-0.36,-0.25
2021-08-19 20:32:37.080,-0.23,-0.265
2021-08-19 20:32:37.084,-0.045,-0.22
2021-08-19 20:32:37.088,0.185,-0.185
2021-08-19 20:32:37.092,0.41,-0.13
2021-08-19 20:32:37.096,0.605,-0.115
2021-08-19 20:32:37.100,0.625,-0.115
2021-08-19 20:32:37.104,0.385,-0.16
2021-08-19 20:32:37.108,-0.015,-0.225
2021-08-19 20:32:37.112,-0.3,-0.3
2021-08-19 20:32:37.116,-0.49,-0.24
2021-08-19 20:32:37.120,-0.56,-0.11
2021-08-19 20:32:37.124,-0.585,-0.04
2021-08-19 20:32:37.128,-0.645,0.14
2021-08-19 20:32:37.132,-0.715,0.335
2021-08-19 20:32:37.136,-0.79,0.505
2021-08-19 20:32:37.140,-0.81,0.575
2021-08-19 20:32:37.144,-0.8,0.515
2021-08-19 20:32:37.148,-0.73,0.385
2021-08-19 20:32:37.152,-0.605,0.285
2021-08-19 20:32:37.156,-0.51,0.24
2021-08-19 20:32:37.160,-0.445,0.245
2021-08-19 20:32:37.164,-0.395,0.17
2021-08-19 20:32:37.168,-0.405,0.015
2021-08-19 20:32:37.172,-0.42,-0.105
2021-08-19 20:32:37.176,-0.385,-0.165
2021-08-19 20:32:37.180,-0.38,-0.195
2021-08-19 20:32:37.184,-0.37,-0.24
2021-08-19 20:32:37.188,-0.335,-0.27
2021-08-19 20:32:37.192,-0.345,-0.26
2021-08-19 20:32:37.196,-0.38,-0.27
2021-08-19 20:32:37.200,-0.385,-0.275
2021-08-19 20:32:37.204,-0.38,-0.28
2021-08-19 20:32:37.208,-0.375,-0.315
2021-08-19 20:32:37.212,-0.355,-0.325
2021-08-19 20:32:37.216,-0.34,-0.32
2021-08-19 20:32:37.220,-0.36,-0.31
2021-08-19 20:32:37.224,-0.34,-0.295
2021-08-19 20:32:37.228,-0.34,-0.295
2021-08-19 20:32:37.232,-0.315,-0.295
2021-08-19 20:32:37.236,-0.3,-0.295
2021-08-19 20:32:37.240,-0.275,-0.31
2021-08-19 20:32:37.244,-0.25,-0.315
2021-08-19 20:32:37.248,-0.265,-0.34
2021-08-19 20:32:37.252,-0.275,-0.33
2021-08-19 20:32:37.256,-0.265,-0.335
2021-08-19 20:32:37.260,-0.24,-0.36
2021-08-19 20:32:37.264,-0.19,-0.35
2021-08-19 20:32:37.268,-0.175,-0.355
2021-08-19 20:32:37.272,-0.15,-0.4
2021-08-19 20:32:37.276,-0.16,-0.4
2021-08-19 20:32:37.280,-0.165,-0.4
2021-08-19 20:32:37.284,-0.16,-0.41
2021-08-19 20:32:37.288,-0.15,-0.435
2021-08-19 20:32:37.292,-0.15,-0.43
2021-08-19 20:32:37.296,-0.12,-0.46
2021-08-19 20:32:37.300,-0.105,-0.46
2021-08-19 20:32:37.304,-0.1,-0.49
2021-08-19 20:32:37.308,-0.11,-0.5
2021-08-19 20:32:37.312,-0.145,-0.525
2021-08-19 20:32:37.316,-0.16,-0.5
2021-08-19 20:32:37.320,-0.15,-0.52
2021-08-19 20:32:37.324,-0.17,-0.525
2021-08-19 20:32:37.328,-0.175,-0.54
2021-08-19 20:32:37.332,-0.17,-0.535
2021-08-19 20:32:37.336,-0.17,-0.54
2021-08-19 20:32:37.340,-0.205,-0.53
2021-08-19 20:32:37.344,-0.22,-0.53
2021-08-19 20:32:37.348,-0.265,-0.5
2021-08-19 20:32:37.352,-0.265,-0.49
2021-08-19 20:32:37.356,-0.27,-0.485
2021-08-19 20:32:37.360,-0.29,-0.48
2021-08-19 20:32:37.364,-0.31,-0.455
2021-08-19 20:32:37.368,-0.3,-0.44
2021-08-19 20:32:37.372,-0.31,-0.42
2021-08-19 20:32:37.376,-0.33,-0.39
2021-08-19 20:32:37.380,-0.33,-0.38
2021-08-19 20:32:37.384,-0.32,-0.365
2021-08-19 20:32:37.388,-0.33,-0.36
2021-08-19 20:32:37.392,-0.32,-0.355
2021-08-19 20:32:37.396,-0.34,-0.335
2021-08-19 20:32:37.400,-0.365,-0.315
2021-08-19 20:32:37.404,-0.38,-0.315
2021-08-19 20:32:37.408,-0.365,-0.28
2021-08-19 20:32:37.412,-0.375,-0.285
2021-08-19 20:32:37.416,-0.37,-0.285
2021-08-19 20:32:37.420,-0.335,-0.305
2021-08-19 20:32:37.424,-0.34,-0.28
2021-08-19 20:32:37.428,-0.37,-0.29
2021-08-19 20:32:37.432,-0.37,-0.285
2021-08-19 20:32:37.436,-0.385,-0.28
2021-08-19 20:32:37.440,-0.375,-0.275
2021-08-19 20:32:37.444,-0.345,-0.27
2021-08-19 20:32:37.448,-0.36,-0.3
2021-08-19 20:32:37.452,-0.33,-0.28
2021-08-19 20:32:37.456,-0.305,-0.28
2021-08-19 20:32:37.460,-0.295,-0.275
2021-08-19 20:32:37.464,-0.295,-0.295
2021-08-19 20:32:37.468,-0.325,-0.275
2021-08-19 20:32:37.472,-0.36,-0.295
2021-08-19 20:32:37.476,-0.385,-0.31
2021-08-19 20:32:37.480,-0.375,-0.3
2021-08-19 20:32:37.484,-0.38,-0.285
2021-08-19 20:32:37.488,-0.385,-0.285
2021-08-19 20:32:37.492,-0.365,-0.305
2021-08-19 20:32:37.496,-0.345,-0.29
2021-08-19 20:32:37.500,-0.345,-0.26
2021-08-19 20:32:37.504,-0.315,-0.295
2021-08-19 20:32:37.508,-0.315,-0.275
2021-08-19 20:32:37.512,-0.295,-0.28
2021-08-19 20:32:37.516,-0.29,-0.295
2021-08-19 20:32:37.520,-0.305,-0.275
2021-08-19 20:32:37.524,-0.285,-0.275
2021-08-19 20:32:37.528,-0.265,-0.28
2021-08-19 20:32:37.532,-0.275,-0.29
2021-08-19 20:32:37.536,-0.255,-0.26
2021-08-19 20:32:37.540,-0.26,-0.285
2021-08-19 20:32:37.544,-0.28,-0.295
2021-08-19 20:32:37.548,-0.26,-0.285
2021-08-19 20:32:37.552,-0.25,-0.29
2021-08-19 20:32:37.556,-0.26,-0.305
2021-08-19 20:32:37.560,-0.275,-0.305
2021-08-19 20:32:37.564,-0.26,-0.29
2021-08-19 20:32:37.568,-0.27,-0.295
2021-08-19 20:32:37.572,-0.265,-0.305
2021-08-19 20:32:37.576,-0.25,-0.3
2021-08-19 20:32:37.580,-0.27,-0.3
2021-08-19 20:32:37.584,-0.265,-0.32
2021-08-19 20:32:37.588,-0.27,-0.31
2021-08-19 20:32:37.592,-0.255,-0.295
2021-08-19 20:32:37.596,-0.255,-0.315
2021-08-19 20:32:37.600,-0.275,-0.305
2021-08-19 20:32:37.604,-0.27,-0.305
2021-08-19 20:32:37.608,-0.255,-0.305
2021-08-19 20:32:37.612,-0.27,-0.315
2021-08-19 20:32:37.616,-0.265,-0.31
2021-08-19 20:32:37.620,-0.295,-0.31
2021-08-19 20:32:37.624,-0.275,-0.305
2021-08-19 20:32:37.628,-0.275,-0.315
2021-08-19 20:32:37.632,-0.29,-0.295
2021-08-19 20:32:37.636,-0.285,-0.3
2021-08-19 20:32:37.640,-0.305,-0.325
2021-08-19 20:32:37.644,-0.285,-0.32
2021-08-19 20:32:37.648,-0.265,-0.3
2021-08-19 20:32:37.652,-0.255,-0.315
2021-08-19 20:32:37.656,-0.28,-0.3
2021-08-19 20:32:37.660,-0.29,-0.32
2021-08-19 20:32:37.664,-0.29,-0.31
2021-08-19 20:32:37.668,-0.29,-0.31
2021-08-19 20:32:37.672,-0.285,-0.325
2021-08-19 20:32:37.676,-0.3,-0.335
2021-08-19 20:32:37.680,-0.315,-0.31
