Time,ECG1,ECG2
2021-08-19 20:14:12.956,0.05,-0.265
2021-08-19 20:14:12.960,0.075,-0.245
2021-08-19 20:14:12.964,0.06,-0.25
2021-08-19 20:14:12.968,0.05,-0.26
2021-08-19 20:14:12.972,0.04,-0.265
2021-08-19 20:14:12.976,0.045,-0.265
2021-08-19 20:14:12.980,0.05,-0.26
2021-08-19 20:14:12.984,0.06,-0.275
2021-08-19 20:14:12.988,0.07,-0.255
2021-08-19 20:14:12.992,0.055,-0.265
2021-08-19 20:14:12.996,0.05,-0.28
2021-08-19 20:14:13.000,0.04,-0.27
2021-08-19 20:14:13.004,0.055,-0.28
2021-08-19 20:14:13.008,0.065,-0.29
2021-08-19 20:14:13.012,0.02,-0.295
2021-08-19 20:14:13.016,0.035,-0.295
2021-08-19 20:14:13.020,0.035,-0.31
2021-08-19 20:14:13.024,0.055,-0.31
2021-08-19 20:14:13.028,0.045,-0.295
2021-08-19 20:14:13.032,0.055,-0.295
2021-08-19 20:14:13.036,0.025,-0.27
2021-08-19 20:14:13.040,0.035,-0.275
2021-08-19 20:14:13.044,0.045,-0.265
2021-08-19 20:14:13.048,0.045,-0.265
2021-08-19 20:14:13.052,0.03,-0.275
2021-08-19 20:14:13.056,0.05,-0.285
2021-08-19 20:14:13.060,0.03,-0.275
2021-08-19 20:14:13.064,0.05,-0.275
2021-08-19 20:14:13.068,0.015,-0.265
2021-08-19 20:14:13.072,0.045,-0.27
2021-08-19 20:14:13.076,0.03,-0.265
2021-08-19 20:14:13.080,0.045,-0.27
2021-08-19 20:14:13.084,0.035,-0.275
2021-08-19 20:14:13.088,0.055,-0.275
2021-08-19 20:14:13.092,0.055,-0.265
2021-08-19 20:14:13.096,0.065,-0.28
2021-08-19 20:14:13.100,0.05,-0.28
2021-08-19 20:14:13.104,0.06,-0.285
2021-08-19 20:14:13.108,0.075,-0.26
2021-08-19 20:14:13.112,0.075,-0.265
2021-08-19 20:14:13.116,0.06,-0.265
2021-08-19 20:14:13.120,0.055,-0.255
2021-08-19 20:14:13.124,0.065,-0.25
2021-08-19 20:14:13.128,0.09,-0.255
2021-08-19 20:14:13.132,0.085,-0.225
2021-08-19 20:14:13.136,0.11,-0.245
2021-08-19 20:14:13.140,0.085,-0.24
2021-08-19 20:14:13.144,0.075,-0.235
2021-08-19 20:14:13.148,0.085,-0.25
2021-08-19 20:14:13.152,0.09,-0.245
2021-08-19 20:14:13.156,0.085,-0.25
2021-08-19 20:14:13.160,0.07,-0.24
2021-08-19 20:14:13.164,0.08,-0.23
2021-08-19 20:14:13.168,0.07,-0.235
2021-08-19 20:14:13.172,0.09,-0.235
2021-08-19 20:14:13.176,0.075,-0.245
2021-08-19 20:14:13.180,0.075,-0.235
2021-08-19 20:14:13.184,0.09,-0.23
2021-08-19 20:14:13.188,0.085,-0.22
2021-08-19 20:14:13.192,0.095,-0.25
2021-08-19 20:14:13.196,0.085,-0.25
2021-08-19 20:14:13.200,0.08,-0.245
2021-08-19 20:14:13.204,0.1,-0.255
2021-08-19 20:14:13.208,0.095,-0.26
2021-08-19 20:14:13.212,0.095,-0.245
2021-08-19 20:14:13.216,0.09,-0.25
2021-08-19 20:14:13.220,0.085,-0.245
2021-08-19 20:14:13.224,0.105,-0.24
2021-08-19 20:14:13.228,0.095,-0.24
2021-08-19 20:14:13.232,0.075,-0.245
2021-08-19 20:14:13.236,0.045,-0.245
2021-08-19 20:14:13.240,0.06,-0.25
2021-08-19 20:14:13.244,0.06,-0.24
2021-08-19 20:14:13.248,0.07,-0.24
2021-08-19 20:14:13.252,0.1,-0.255
2021-08-19 20:14:13.256,0.085,-0.25
2021-08-19 20:14:13.260,0.105,-0.26
2021-08-19 20:14:13.264,0.075,-0.255
2021-08-19 20:14:13.268,0.075,-0.245
2021-08-19 20:14:13.272,0.09,-0.255
2021-08-19 20:14:13.276,0.095,-0.27
2021-08-19 20:14:13.280,0.075,-0.26
2021-08-19 20:14:13.284,0.09,-0.25
2021-08-19 20:14:13.288,0.09,-0.245
2021-08-19 20:14:13.292,0.09,-0.265
2021-08-19 20:14:13.296,0.11,-0.265
2021-08-19 20:14:13.300,0.075,-0.24
2021-08-19 20:14:13.304,0.075,-0.23
2021-08-19 20:14:13.308,0.095,-0.22
2021-08-19 20:14:13.312,0.075,-0.22
2021-08-19 20:14:13.316,0.1,-0.22
2021-08-19 20:14:13.320,0.085,-0.205
2021-08-19 20:14:13.324,0.075,-0.23
2021-08-19 20:14:13.328,0.085,-0.245
2021-08-19 20:14:13.332,0.095,-0.24
2021-08-19 20:14:13.336,0.085,-0.23
2021-08-19 20:14:13.340,0.095,-0.235
2021-08-19 20:14:13.344,0.1,-0.235
2021-08-19 20:14:13.348,0.1,-0.235
2021-08-19 20:14:13.352,0.11,-0.21
2021-08-19 20:14:13.356,0.1,-0.24
2021-08-19 20:14:13.360,0.08,-0.23
2021-08-19 20:14:13.364,0.095,-0.23
2021-08-19 20:14:13.368,0.08,-0.235
2021-08-19 20:14:13.372,0.085,-0.21
2021-08-19 20:14:13.376,0.08,-0.215
2021-08-19 20:14:13.380,0.095,-0.225
2021-08-19 20:14:13.384,0.09,-0.235
2021-08-19 20:14:13.388,0.1,-0.24
2021-08-19 20:14:13.392,0.095,-0.225
2021-08-19 20:14:13.396,0.095,-0.22
2021-08-19 20:14:13.400,0.085,-0.215
2021-08-19 20:14:13.404,0.08,-0.205
2021-08-19 20:14:13.408,0.1,-0.19
2021-08-19 20:14:13.412,0.1,-0.185
2021-08-19 20:14:13.416,0.1,-0.175
2021-08-19 20:14:13.420,0.115,-0.18
2021-08-19 20:14:13.424,0.125,-0.155
2021-08-19 20:14:13.428,0.16,-0.17
2021-08-19 20:14:13.432,0.17,-0.19
2021-08-19 20:14:13.436,0.19,-0.19
2021-08-19 20:14:13.440,0.19,-0.215
2021-08-19 20:14:13.444,0.155,-0.185
2021-08-19 20:14:13.448,0.13,-0.22
2021-08-19 20:14:13.452,0.13,-0.225
2021-08-19 20:14:13.456,0.12,-0.23
2021-08-19 20:14:13.460,0.12,-0.225
2021-08-19 20:14:13.464,0.105,-0.21
2021-08-19 20:14:13.468,0.115,-0.21
2021-08-19 20:14:13.472,0.135,-0.215
2021-08-19 20:14:13.476,0.13,-0.22
2021-08-19 20:14:13.480,0.125,-0.21
2021-08-19 20:14:13.484,0.125,-0.235
2021-08-19 20:14:13.488,0.115,-0.21
2021-08-19 20:14:13.492,0.12,-0.22
2021-08-19 20:14:13.496,0.12,-0.21
2021-08-19 20:14:13.500,0.11,-0.23
2021-08-19 20:14:13.504,0.105,-0.245
2021-08-19 20:14:13.508,0.09,-0.27
2021-08-19 20:14:13.512,0.09,-0.24
2021-08-19 20:14:13.516,0.085,-0.255
2021-08-19 20:14:13.520,0.1,-0.26
2021-08-19 20:14:13.524,0.105,-0.255
2021-08-19 20:14:13.528,0.09,-0.255
2021-08-19 20:14:13.532,0.085,-0.265
2021-08-19 20:14:13.536,0.095,-0.255
2021-08-19 20:14:13.540,0.095,-0.245
2021-08-19 20:14:13.544,0.1,-0.18
2021-08-19 20:14:13.548,0.13,-0.07
2021-08-19 20:14:13.552,0.17,0.1
2021-08-19 20:14:13.556,0.205,0.29
2021-08-19 20:14:13.560,0.235,0.52
2021-08-19 20:14:13.564,0.315,0.71
2021-08-19 20:14:13.568,0.31,0.845
2021-08-19 20:14:13.572,0.285,0.785
2021-08-19 20:14:13.576,0.265,0.515
2021-08-19 20:14:13.580,0.185,0.14
2021-08-19 20:14:13.584,0.025,-0.165
2021-08-19 20:14:13.588,-0.215,-0.34
2021-08-19 20:14:13.592,-0.465,-0.385
2021-08-19 20:14:13.596,-0.575,-0.345
2021-08-19 20:14:13.600,-0.565,-0.32
2021-08-19 20:14:13.604,-0.505,-0.295
2021-08-19 20:14:13.608,-0.38,-0.285
2021-08-19 20:14:13.612,-0.23,-0.285
2021-08-19 20:14:13.616,-0.105,-0.29
2021-08-19 20:14:13.620,0.0,-0.29
2021-08-19 20:14:13.624,0.025,-0.29
2021-08-19 20:14:13.628,0.045,-0.29
2021-08-19 20:14:13.632,0.055,-0.3
2021-08-19 20:14:13.636,0.04,-0.3
2021-08-19 20:14:13.640,0.04,-0.29
2021-08-19 20:14:13.644,0.04,-0.29
2021-08-19 20:14:13.648,0.08,-0.285
2021-08-19 20:14:13.652,0.1,-0.305
2021-08-19 20:14:13.656,0.085,-0.295
2021-08-19 20:14:13.660,0.06,-0.285
2021-08-19 20:14:13.664,0.075,-0.27
2021-08-19 20:14:13.668,0.095,-0.265
2021-08-19 20:14:13.672,0.115,-0.25
2021-08-19 20:14:13.676,0.13,-0.26
2021-08-19 20:14:13.680,0.115,-0.265
2021-08-19 20:14:13.684,0.115,-0.255
2021-08-19 20:14:13.688,0.135,-0.255
2021-08-19 20:14:13.692,0.115,-0.225
2021-08-19 20:14:13.696,0.125,-0.25
2021-08-19 20:14:13.700,0.13,-0.235
2021-08-19 20:14:13.704,0.135,-0.255
2021-08-19 20:14:13.708,0.1,-0.27
2021-08-19 20:14:13.712,0.125,-0.255
2021-08-19 20:14:13.716,0.14,-0.26
2021-08-19 20:14:13.720,0.135,-0.255
2021-08-19 20:14:13.724,0.15,-0.24
2021-08-19 20:14:13.728,0.135,-0.23
2021-08-19 20:14:13.732,0.15,-0.235
2021-08-19 20:14:13.736,0.16,-0.24
2021-08-19 20:14:13.740,0.18,-0.245
2021-08-19 20:14:13.744,0.17,-0.26
2021-08-19 20:14:13.748,0.18,-0.255
2021-08-19 20:14:13.752,0.175,-0.255
2021-08-19 20:14:13.756,0.17,-0.255
2021-08-19 20:14:13.760,0.195,-0.255
2021-08-19 20:14:13.764,0.165,-0.25
2021-08-19 20:14:13.768,0.175,-0.225
2021-08-19 20:14:13.772,0.175,-0.225
2021-08-19 20:14:13.776,0.175,-0.23
2021-08-19 20:14:13.780,0.18,-0.225
2021-08-19 20:14:13.784,0.165,-0.225
2021-08-19 20:14:13.788,0.16,-0.22
2021-08-19 20:14:13.792,0.135,-0.235
2021-08-19 20:14:13.796,0.135,-0.22
2021-08-19 20:14:13.800,0.145,-0.23
2021-08-19 20:14:13.804,0.15,-0.23
2021-08-19 20:14:13.808,0.15,-0.235
2021-08-19 20:14:13.812,0.175,-0.25
2021-08-19 20:14:13.816,0.17,-0.265
2021-08-19 20:14:13.820,0.175,-0.24
2021-08-19 20:14:13.824,0.175,-0.21
2021-08-19 20:14:13.828,0.155,-0.215
2021-08-19 20:14:13.832,0.19,-0.205
2021-08-19 20:14:13.836,0.21,-0.19
2021-08-19 20:14:13.840,0.2,-0.185
2021-08-19 20:14:13.844,0.23,-0.175
2021-08-19 20:14:13.848,0.195,-0.185
2021-08-19 20:14:13.852,0.19,-0.155
2021-08-19 20:14:13.856,0.21,-0.145
2021-08-19 20:14:13.860,0.2,-0.14
2021-08-19 20:14:13.864,0.2,-0.16
2021-08-19 20:14:13.868,0.21,-0.145
2021-08-19 20:14:13.872,0.2,-0.15
2021-08-19 20:14:13.876,0.22,-0.16
2021-08-19 20:14:13.880,0.195,-0.175
2021-08-19 20:14:13.884,0.225,-0.18
2021-08-19 20:14:13.888,0.245,-0.155
2021-08-19 20:14:13.892,0.24,-0.165
2021-08-19 20:14:13.896,0.225,-0.175
2021-08-19 20:14:13.900,0.205,-0.18
2021-08-19 20:14:13.904,0.215,-0.18
2021-08-19 20:14:13.908,0.215,-0.18
2021-08-19 20:14:13.912,0.21,-0.19
2021-08-19 20:14:13.916,0.2,-0.2
2021-08-19 20:14:13.920,0.205,-0.2
2021-08-19 20:14:13.924,0.18,-0.195
2021-08-19 20:14:13.928,0.185,-0.205
2021-08-19 20:14:13.932,0.19,-0.205
2021-08-19 20:14:13.936,0.175,-0.22
2021-08-19 20:14:13.940,0.175,-0.24
2021-08-19 20:14:13.944,0.18,-0.23
2021-08-19 20:14:13.948,0.185,-0.22
2021-08-19 20:14:13.952,0.155,-0.215
2021-08-19 20:14:13.956,0.17,-0.22
2021-08-19 20:14:13.960,0.17,-0.23
2021-08-19 20:14:13.964,0.165,-0.235
2021-08-19 20:14:13.968,0.175,-0.255
2021-08-19 20:14:13.972,0.17,-0.23
2021-08-19 20:14:13.976,0.165,-0.23
2021-08-19 20:14:13.980,0.155,-0.25
2021-08-19 20:14:13.984,0.16,-0.24
2021-08-19 20:14:13.988,0.18,-0.23
2021-08-19 20:14:13.992,0.2,-0.25
2021-08-19 20:14:13.996,0.175,-0.25
2021-08-19 20:14:14.000,0.185,-0.235
2021-08-19 20:14:14.004,0.15,-0.23
2021-08-19 20:14:14.008,0.15,-0.235
2021-08-19 20:14:14.012,0.145,-0.235
2021-08-19 20:14:14.016,0.17,-0.23
2021-08-19 20:14:14.020,0.19,-0.245
2021-08-19 20:14:14.024,0.145,-0.23
2021-08-19 20:14:14.028,0.145,-0.225
2021-08-19 20:14:14.032,0.15,-0.23
2021-08-19 20:14:14.036,0.18,-0.23
2021-08-19 20:14:14.040,0.145,-0.245
2021-08-19 20:14:14.044,0.175,-0.21
2021-08-19 20:14:14.048,0.16,-0.24
2021-08-19 20:14:14.052,0.13,-0.23
2021-08-19 20:14:14.056,0.145,-0.24
2021-08-19 20:14:14.060,0.175,-0.24
2021-08-19 20:14:14.064,0.155,-0.24
2021-08-19 20:14:14.068,0.13,-0.23
2021-08-19 20:14:14.072,0.135,-0.245
2021-08-19 20:14:14.076,0.155,-0.235
2021-08-19 20:14:14.080,0.13,-0.255
2021-08-19 20:14:14.084,0.15,-0.235
2021-08-19 20:14:14.088,0.14,-0.235
2021-08-19 20:14:14.092,0.15,-0.23
2021-08-19 20:14:14.096,0.15,-0.24
2021-08-19 20:14:14.100,0.155,-0.235
2021-08-19 20:14:14.104,0.135,-0.25
2021-08-19 20:14:14.108,0.155,-0.24
2021-08-19 20:14:14.112,0.14,-0.255
2021-08-19 20:14:14.116,0.135,-0.255
2021-08-19 20:14:14.120,0.165,-0.24
2021-08-19 20:14:14.124,0.145,-0.245
2021-08-19 20:14:14.128,0.14,-0.235
2021-08-19 20:14:14.132,0.15,-0.24
2021-08-19 20:14:14.136,0.13,-0.23
2021-08-19 20:14:14.140,0.155,-0.265
2021-08-19 20:14:14.144,0.135,-0.245
2021-08-19 20:14:14.148,0.14,-0.25
2021-08-19 20:14:14.152,0.14,-0.265
2021-08-19 20:14:14.156,0.155,-0.23
2021-08-19 20:14:14.160,0.13,-0.23
2021-08-19 20:14:14.164,0.13,-0.23
2021-08-19 20:14:14.168,0.11,-0.23
2021-08-19 20:14:14.172,0.14,-0.225
2021-08-19 20:14:14.176,0.14,-0.24
2021-08-19 20:14:14.180,0.145,-0.235
2021-08-19 20:14:14.184,0.115,-0.23
2021-08-19 20:14:14.188,0.1,-0.23
2021-08-19 20:14:14.192,0.115,-0.23
2021-08-19 20:14:14.196,0.11,-0.24
2021-08-19 20:14:14.200,0.115,-0.22
2021-08-19 20:14:14.204,0.125,-0.22
2021-08-19 20:14:14.208,0.145,-0.22
2021-08-19 20:14:14.212,0.16,-0.22
2021-08-19 20:14:14.216,0.155,-0.22
2021-08-19 20:14:14.220,0.135,-0.215
2021-08-19 20:14:14.224,0.125,-0.19
2021-08-19 20:14:14.228,0.135,-0.215
2021-08-19 20:14:14.232,0.12,-0.21
2021-08-19 20:14:14.236,0.145,-0.205
2021-08-19 20:14:14.240,0.13,-0.21
2021-08-19 20:14:14.244,0.145,-0.2
2021-08-19 20:14:14.248,0.155,-0.23
2021-08-19 20:14:14.252,0.14,-0.21
2021-08-19 20:14:14.256,0.16,-0.22
2021-08-19 20:14:14.260,0.15,-0.205
2021-08-19 20:14:14.264,0.18,-0.205
2021-08-19 20:14:14.268,0.175,-0.215
2021-08-19 20:14:14.272,0.15,-0.23
2021-08-19 20:14:14.276,0.145,-0.235
2021-08-19 20:14:14.280,0.135,-0.25
2021-08-19 20:14:14.284,0.15,-0.23
2021-08-19 20:14:14.288,0.155,-0.21
2021-08-19 20:14:14.292,0.14,-0.22
2021-08-19 20:14:14.296,0.145,-0.245
2021-08-19 20:14:14.300,0.165,-0.24
2021-08-19 20:14:14.304,0.13,-0.24
2021-08-19 20:14:14.308,0.12,-0.255
2021-08-19 20:14:14.312,0.105,-0.235
2021-08-19 20:14:14.316,0.105,-0.24
2021-08-19 20:14:14.320,0.105,-0.235
2021-08-19 20:14:14.324,0.105,-0.24
2021-08-19 20:14:14.328,0.13,-0.23
2021-08-19 20:14:14.332,0.13,-0.23
2021-08-19 20:14:14.336,0.135,-0.22
2021-08-19 20:14:14.340,0.15,-0.23
2021-08-19 20:14:14.344,0.125,-0.21
2021-08-19 20:14:14.348,0.13,-0.23
2021-08-19 20:14:14.352,0.135,-0.22
2021-08-19 20:14:14.356,0.135,-0.225
2021-08-19 20:14:14.360,0.15,-0.215
2021-08-19 20:14:14.364,0.13,-0.225
2021-08-19 20:14:14.368,0.155,-0.205
2021-08-19 20:14:14.372,0.125,-0.195
2021-08-19 20:14:14.376,0.135,-0.22
2021-08-19 20:14:14.380,0.12,-0.215
2021-08-19 20:14:14.384,0.125,-0.19
2021-08-19 20:14:14.388,0.13,-0.185
2021-08-19 20:14:14.392,0.135,-0.19
2021-08-19 20:14:14.396,0.15,-0.195
2021-08-19 20:14:14.400,0.135,-0.185
2021-08-19 20:14:14.404,0.175,-0.2
2021-08-19 20:14:14.408,0.13,-0.19
2021-08-19 20:14:14.412,0.145,-0.205
2021-08-19 20:14:14.416,0.15,-0.215
2021-08-19 20:14:14.420,0.14,-0.22
2021-08-19 20:14:14.424,0.11,-0.22
2021-08-19 20:14:14.428,0.115,-0.195
2021-08-19 20:14:14.432,0.145,-0.19
2021-08-19 20:14:14.436,0.135,-0.215
2021-08-19 20:14:14.440,0.12,-0.2
2021-08-19 20:14:14.444,0.13,-0.2
2021-08-19 20:14:14.448,0.155,-0.215
2021-08-19 20:14:14.452,0.15,-0.215
2021-08-19 20:14:14.456,0.135,-0.215
2021-08-19 20:14:14.460,0.135,-0.215
2021-08-19 20:14:14.464,0.13,-0.23
2021-08-19 20:14:14.468,0.165,-0.23
2021-08-19 20:14:14.472,0.145,-0.22
2021-08-19 20:14:14.476,0.13,-0.195
2021-08-19 20:14:14.480,0.13,-0.18
2021-08-19 20:14:14.484,0.145,-0.19
2021-08-19 20:14:14.488,0.155,-0.165
2021-08-19 20:14:14.492,0.19,-0.155
2021-08-19 20:14:14.496,0.195,-0.145
2021-08-19 20:14:14.500,0.205,-0.135
2021-08-19 20:14:14.504,0.215,-0.14
2021-08-19 20:14:14.508,0.225,-0.175
2021-08-19 20:14:14.512,0.24,-0.195
2021-08-19 20:14:14.516,0.195,-0.19
2021-08-19 20:14:14.520,0.15,-0.195
2021-08-19 20:14:14.524,0.155,-0.195
2021-08-19 20:14:14.528,0.14,-0.195
2021-08-19 20:14:14.532,0.14,-0.2
2021-08-19 20:14:14.536,0.14,-0.215
2021-08-19 20:14:14.540,0.135,-0.19
2021-08-19 20:14:14.544,0.12,-0.2
2021-08-19 20:14:14.548,0.14,-0.175
2021-08-19 20:14:14.552,0.15,-0.18
2021-08-19 20:14:14.556,0.14,-0.2
2021-08-19 20:14:14.560,0.16,-0.22
2021-08-19 20:14:14.564,0.15,-0.22
2021-08-19 20:14:14.568,0.14,-0.225
2021-08-19 20:14:14.572,0.155,-0.205
2021-08-19 20:14:14.576,0.14,-0.205
2021-08-19 20:14:14.580,0.135,-0.21
2021-08-19 20:14:14.584,0.12,-0.21
2021-08-19 20:14:14.588,0.115,-0.22
2021-08-19 20:14:14.592,0.1,-0.22
2021-08-19 20:14:14.596,0.115,-0.255
2021-08-19 20:14:14.600,0.09,-0.235
2021-08-19 20:14:14.604,0.08,-0.23
2021-08-19 20:14:14.608,0.075,-0.2
2021-08-19 20:14:14.612,0.1,-0.125
2021-08-19 20:14:14.616,0.135,0.03
2021-08-19 20:14:14.620,0.17,0.235
2021-08-19 20:14:14.624,0.2,0.45
2021-08-19 20:14:14.628,0.29,0.615
2021-08-19 20:14:14.632,0.34,0.79
2021-08-19 20:14:14.636,0.35,0.885
2021-08-19 20:14:14.640,0.34,0.78
2021-08-19 20:14:14.644,0.305,0.445
2021-08-19 20:14:14.648,0.25,0.035
2021-08-19 20:14:14.652,0.12,-0.27
2021-08-19 20:14:14.656,-0.135,-0.375
2021-08-19 20:14:14.660,-0.38,-0.335
2021-08-19 20:14:14.664,-0.555,-0.3
2021-08-19 20:14:14.668,-0.58,-0.275
2021-08-19 20:14:14.672,-0.52,-0.285
2021-08-19 20:14:14.676,-0.385,-0.25
2021-08-19 20:14:14.680,-0.235,-0.275
2021-08-19 20:14:14.684,-0.105,-0.29
2021-08-19 20:14:14.688,-0.005,-0.27
2021-08-19 20:14:14.692,0.04,-0.25
2021-08-19 20:14:14.696,0.05,-0.24
2021-08-19 20:14:14.700,0.075,-0.24
2021-08-19 20:14:14.704,0.085,-0.24
2021-08-19 20:14:14.708,0.095,-0.26
2021-08-19 20:14:14.712,0.11,-0.255
2021-08-19 20:14:14.716,0.105,-0.255
2021-08-19 20:14:14.720,0.1,-0.245
2021-08-19 20:14:14.724,0.09,-0.25
2021-08-19 20:14:14.728,0.125,-0.25
2021-08-19 20:14:14.732,0.115,-0.245
2021-08-19 20:14:14.736,0.115,-0.255
2021-08-19 20:14:14.740,0.15,-0.255
2021-08-19 20:14:14.744,0.13,-0.24
2021-08-19 20:14:14.748,0.14,-0.24
2021-08-19 20:14:14.752,0.15,-0.245
2021-08-19 20:14:14.756,0.165,-0.26
2021-08-19 20:14:14.760,0.135,-0.225
2021-08-19 20:14:14.764,0.16,-0.215
2021-08-19 20:14:14.768,0.165,-0.225
2021-08-19 20:14:14.772,0.18,-0.24
2021-08-19 20:14:14.776,0.16,-0.23
2021-08-19 20:14:14.780,0.175,-0.21
2021-08-19 20:14:14.784,0.18,-0.215
2021-08-19 20:14:14.788,0.175,-0.215
2021-08-19 20:14:14.792,0.165,-0.205
2021-08-19 20:14:14.796,0.155,-0.205
2021-08-19 20:14:14.800,0.155,-0.22
2021-08-19 20:14:14.804,0.185,-0.22
2021-08-19 20:14:14.808,0.175,-0.215
2021-08-19 20:14:14.812,0.175,-0.225
2021-08-19 20:14:14.816,0.19,-0.24
2021-08-19 20:14:14.820,0.19,-0.23
2021-08-19 20:14:14.824,0.2,-0.23
2021-08-19 20:14:14.828,0.205,-0.225
2021-08-19 20:14:14.832,0.205,-0.22
2021-08-19 20:14:14.836,0.21,-0.205
2021-08-19 20:14:14.840,0.19,-0.18
2021-08-19 20:14:14.844,0.205,-0.19
2021-08-19 20:14:14.848,0.21,-0.205
2021-08-19 20:14:14.852,0.18,-0.195
2021-08-19 20:14:14.856,0.18,-0.205
2021-08-19 20:14:14.860,0.17,-0.19
2021-08-19 20:14:14.864,0.17,-0.205
2021-08-19 20:14:14.868,0.185,-0.22
2021-08-19 20:14:14.872,0.165,-0.2
2021-08-19 20:14:14.876,0.18,-0.2
2021-08-19 20:14:14.880,0.195,-0.2
2021-08-19 20:14:14.884,0.19,-0.19
2021-08-19 20:14:14.888,0.18,-0.17
2021-08-19 20:14:14.892,0.2,-0.18
2021-08-19 20:14:14.896,0.17,-0.19
2021-08-19 20:14:14.900,0.195,-0.175
2021-08-19 20:14:14.904,0.205,-0.16
2021-08-19 20:14:14.908,0.2,-0.155
2021-08-19 20:14:14.912,0.21,-0.145
2021-08-19 20:14:14.916,0.195,-0.135
2021-08-19 20:14:14.920,0.2,-0.145
2021-08-19 20:14:14.924,0.205,-0.155
2021-08-19 20:14:14.928,0.235,-0.155
2021-08-19 20:14:14.932,0.23,-0.155
2021-08-19 20:14:14.936,0.21,-0.165
2021-08-19 20:14:14.940,0.215,-0.15
2021-08-19 20:14:14.944,0.225,-0.14
2021-08-19 20:14:14.948,0.215,-0.145
2021-08-19 20:14:14.952,0.195,-0.165
2021-08-19 20:14:14.956,0.19,-0.165
2021-08-19 20:14:14.960,0.18,-0.155
2021-08-19 20:14:14.964,0.21,-0.19
2021-08-19 20:14:14.968,0.2,-0.18
2021-08-19 20:14:14.972,0.195,-0.16
2021-08-19 20:14:14.976,0.185,-0.17
2021-08-19 20:14:14.980,0.185,-0.175
2021-08-19 20:14:14.984,0.17,-0.185
2021-08-19 20:14:14.988,0.175,-0.165
2021-08-19 20:14:14.992,0.185,-0.21
2021-08-19 20:14:14.996,0.18,-0.205
2021-08-19 20:14:15.000,0.185,-0.2
2021-08-19 20:14:15.004,0.19,-0.21
2021-08-19 20:14:15.008,0.18,-0.195
2021-08-19 20:14:15.012,0.18,-0.2
2021-08-19 20:14:15.016,0.175,-0.2
2021-08-19 20:14:15.020,0.165,-0.23
2021-08-19 20:14:15.024,0.165,-0.22
2021-08-19 20:14:15.028,0.19,-0.215
2021-08-19 20:14:15.032,0.185,-0.22
2021-08-19 20:14:15.036,0.18,-0.215
2021-08-19 20:14:15.040,0.185,-0.21
2021-08-19 20:14:15.044,0.195,-0.23
2021-08-19 20:14:15.048,0.2,-0.215
2021-08-19 20:14:15.052,0.175,-0.205
2021-08-19 20:14:15.056,0.18,-0.22
2021-08-19 20:14:15.060,0.16,-0.215
2021-08-19 20:14:15.064,0.18,-0.215
2021-08-19 20:14:15.068,0.165,-0.21
2021-08-19 20:14:15.072,0.165,-0.23
2021-08-19 20:14:15.076,0.18,-0.22
2021-08-19 20:14:15.080,0.195,-0.215
2021-08-19 20:14:15.084,0.19,-0.205
2021-08-19 20:14:15.088,0.2,-0.225
2021-08-19 20:14:15.092,0.185,-0.21
2021-08-19 20:14:15.096,0.205,-0.205
2021-08-19 20:14:15.100,0.175,-0.195
2021-08-19 20:14:15.104,0.18,-0.195
2021-08-19 20:14:15.108,0.2,-0.19
2021-08-19 20:14:15.112,0.2,-0.195
2021-08-19 20:14:15.116,0.17,-0.2
2021-08-19 20:14:15.120,0.18,-0.215
2021-08-19 20:14:15.124,0.165,-0.22
2021-08-19 20:14:15.128,0.175,-0.21
2021-08-19 20:14:15.132,0.16,-0.19
2021-08-19 20:14:15.136,0.155,-0.185
2021-08-19 20:14:15.140,0.15,-0.18
2021-08-19 20:14:15.144,0.165,-0.185
2021-08-19 20:14:15.148,0.195,-0.2
2021-08-19 20:14:15.152,0.175,-0.2
2021-08-19 20:14:15.156,0.19,-0.205
2021-08-19 20:14:15.160,0.155,-0.2
2021-08-19 20:14:15.164,0.145,-0.2
2021-08-19 20:14:15.168,0.155,-0.205
2021-08-19 20:14:15.172,0.18,-0.21
2021-08-19 20:14:15.176,0.185,-0.195
2021-08-19 20:14:15.180,0.19,-0.2
2021-08-19 20:14:15.184,0.175,-0.2
2021-08-19 20:14:15.188,0.165,-0.195
2021-08-19 20:14:15.192,0.175,-0.215
2021-08-19 20:14:15.196,0.19,-0.21
2021-08-19 20:14:15.200,0.185,-0.18
2021-08-19 20:14:15.204,0.175,-0.17
2021-08-19 20:14:15.208,0.21,-0.205
2021-08-19 20:14:15.212,0.175,-0.19
2021-08-19 20:14:15.216,0.2,-0.195
2021-08-19 20:14:15.220,0.185,-0.21
2021-08-19 20:14:15.224,0.19,-0.2
2021-08-19 20:14:15.228,0.17,-0.185
2021-08-19 20:14:15.232,0.175,-0.19
2021-08-19 20:14:15.236,0.185,-0.195
2021-08-19 20:14:15.240,0.185,-0.185
2021-08-19 20:14:15.244,0.17,-0.195
2021-08-19 20:14:15.248,0.18,-0.2
2021-08-19 20:14:15.252,0.18,-0.19
2021-08-19 20:14:15.256,0.19,-0.19
2021-08-19 20:14:15.260,0.195,-0.18
2021-08-19 20:14:15.264,0.185,-0.165
2021-08-19 20:14:15.268,0.195,-0.125
2021-08-19 20:14:15.272,0.19,-0.155
2021-08-19 20:14:15.276,0.185,-0.15
2021-08-19 20:14:15.280,0.185,-0.165
2021-08-19 20:14:15.284,0.195,-0.165
2021-08-19 20:14:15.288,0.22,-0.175
2021-08-19 20:14:15.292,0.185,-0.19
2021-08-19 20:14:15.296,0.18,-0.18
2021-08-19 20:14:15.300,0.195,-0.195
2021-08-19 20:14:15.304,0.175,-0.17
2021-08-19 20:14:15.308,0.205,-0.175
2021-08-19 20:14:15.312,0.21,-0.18
2021-08-19 20:14:15.316,0.2,-0.18
2021-08-19 20:14:15.320,0.185,-0.18
2021-08-19 20:14:15.324,0.165,-0.175
2021-08-19 20:14:15.328,0.18,-0.175
2021-08-19 20:14:15.332,0.175,-0.185
2021-08-19 20:14:15.336,0.17,-0.175
2021-08-19 20:14:15.340,0.205,-0.19
2021-08-19 20:14:15.344,0.195,-0.19
2021-08-19 20:14:15.348,0.165,-0.175
2021-08-19 20:14:15.352,0.175,-0.2
2021-08-19 20:14:15.356,0.155,-0.2
2021-08-19 20:14:15.360,0.185,-0.18
2021-08-19 20:14:15.364,0.205,-0.22
2021-08-19 20:14:15.368,0.165,-0.19
2021-08-19 20:14:15.372,0.17,-0.185
2021-08-19 20:14:15.376,0.17,-0.195
2021-08-19 20:14:15.380,0.165,-0.19
2021-08-19 20:14:15.384,0.18,-0.2
2021-08-19 20:14:15.388,0.18,-0.185
2021-08-19 20:14:15.392,0.185,-0.19
2021-08-19 20:14:15.396,0.175,-0.19
2021-08-19 20:14:15.400,0.155,-0.175
2021-08-19 20:14:15.404,0.16,-0.18
2021-08-19 20:14:15.408,0.16,-0.17
2021-08-19 20:14:15.412,0.175,-0.195
2021-08-19 20:14:15.416,0.175,-0.175
2021-08-19 20:14:15.420,0.19,-0.19
2021-08-19 20:14:15.424,0.195,-0.19
2021-08-19 20:14:15.428,0.2,-0.18
2021-08-19 20:14:15.432,0.17,-0.195
2021-08-19 20:14:15.436,0.2,-0.185
2021-08-19 20:14:15.440,0.19,-0.19
2021-08-19 20:14:15.444,0.18,-0.185
2021-08-19 20:14:15.448,0.165,-0.18
2021-08-19 20:14:15.452,0.18,-0.19
2021-08-19 20:14:15.456,0.18,-0.18
2021-08-19 20:14:15.460,0.19,-0.17
2021-08-19 20:14:15.464,0.17,-0.185
2021-08-19 20:14:15.468,0.19,-0.18
2021-08-19 20:14:15.472,0.2,-0.165
2021-08-19 20:14:15.476,0.19,-0.16
2021-08-19 20:14:15.480,0.205,-0.175
2021-08-19 20:14:15.484,0.19,-0.17
2021-08-19 20:14:15.488,0.175,-0.18
2021-08-19 20:14:15.492,0.2,-0.195
2021-08-19 20:14:15.496,0.2,-0.19
2021-08-19 20:14:15.500,0.195,-0.175
2021-08-19 20:14:15.504,0.2,-0.18
2021-08-19 20:14:15.508,0.165,-0.17
2021-08-19 20:14:15.512,0.175,-0.16
2021-08-19 20:14:15.516,0.18,-0.19
2021-08-19 20:14:15.520,0.18,-0.185
2021-08-19 20:14:15.524,0.21,-0.185
2021-08-19 20:14:15.528,0.21,-0.19
2021-08-19 20:14:15.532,0.235,-0.18
2021-08-19 20:14:15.536,0.21,-0.17
2021-08-19 20:14:15.540,0.205,-0.16
2021-08-19 20:14:15.544,0.205,-0.135
2021-08-19 20:14:15.548,0.225,-0.125
2021-08-19 20:14:15.552,0.27,-0.125
2021-08-19 20:14:15.556,0.265,-0.145
2021-08-19 20:14:15.560,0.27,-0.14
2021-08-19 20:14:15.564,0.26,-0.155
2021-08-19 20:14:15.568,0.285,-0.16
2021-08-19 20:14:15.572,0.26,-0.18
2021-08-19 20:14:15.576,0.28,-0.175
2021-08-19 20:14:15.580,0.265,-0.18
2021-08-19 20:14:15.584,0.23,-0.17
2021-08-19 20:14:15.588,0.19,-0.195
2021-08-19 20:14:15.592,0.18,-0.21
2021-08-19 20:14:15.596,0.19,-0.195
2021-08-19 20:14:15.600,0.2,-0.19
2021-08-19 20:14:15.604,0.18,-0.195
2021-08-19 20:14:15.608,0.19,-0.205
2021-08-19 20:14:15.612,0.185,-0.205
2021-08-19 20:14:15.616,0.205,-0.205
2021-08-19 20:14:15.620,0.205,-0.23
2021-08-19 20:14:15.624,0.21,-0.235
2021-08-19 20:14:15.628,0.2,-0.215
2021-08-19 20:14:15.632,0.19,-0.215
2021-08-19 20:14:15.636,0.17,-0.225
2021-08-19 20:14:15.640,0.185,-0.235
2021-08-19 20:14:15.644,0.185,-0.23
2021-08-19 20:14:15.648,0.175,-0.23
2021-08-19 20:14:15.652,0.19,-0.23
2021-08-19 20:14:15.656,0.175,-0.245
2021-08-19 20:14:15.660,0.18,-0.235
2021-08-19 20:14:15.664,0.185,-0.17
2021-08-19 20:14:15.668,0.215,-0.06
2021-08-19 20:14:15.672,0.24,0.12
2021-08-19 20:14:15.676,0.27,0.315
2021-08-19 20:14:15.680,0.3,0.525
2021-08-19 20:14:15.684,0.375,0.735
2021-08-19 20:14:15.688,0.415,0.855
2021-08-19 20:14:15.692,0.41,0.865
2021-08-19 20:14:15.696,0.37,0.635
2021-08-19 20:14:15.700,0.32,0.26
2021-08-19 20:14:15.704,0.22,-0.105
2021-08-19 20:14:15.708,-0.005,-0.325
2021-08-19 20:14:15.712,-0.285,-0.365
2021-08-19 20:14:15.716,-0.45,-0.32
2021-08-19 20:14:15.720,-0.5,-0.285
2021-08-19 20:14:15.724,-0.425,-0.27
2021-08-19 20:14:15.728,-0.35,-0.27
2021-08-19 20:14:15.732,-0.22,-0.28
2021-08-19 20:14:15.736,-0.065,-0.28
2021-08-19 20:14:15.740,0.035,-0.28
2021-08-19 20:14:15.744,0.105,-0.27
2021-08-19 20:14:15.748,0.13,-0.265
2021-08-19 20:14:15.752,0.145,-0.26
2021-08-19 20:14:15.756,0.145,-0.26
2021-08-19 20:14:15.760,0.175,-0.265
2021-08-19 20:14:15.764,0.165,-0.26
2021-08-19 20:14:15.768,0.15,-0.235
2021-08-19 20:14:15.772,0.175,-0.25
2021-08-19 20:14:15.776,0.18,-0.25
2021-08-19 20:14:15.780,0.17,-0.265
2021-08-19 20:14:15.784,0.165,-0.275
2021-08-19 20:14:15.788,0.2,-0.275
2021-08-19 20:14:15.792,0.18,-0.255
2021-08-19 20:14:15.796,0.19,-0.245
2021-08-19 20:14:15.800,0.2,-0.235
2021-08-19 20:14:15.804,0.21,-0.245
2021-08-19 20:14:15.808,0.22,-0.23
2021-08-19 20:14:15.812,0.235,-0.235
2021-08-19 20:14:15.816,0.235,-0.225
2021-08-19 20:14:15.820,0.225,-0.235
2021-08-19 20:14:15.824,0.22,-0.23
2021-08-19 20:14:15.828,0.23,-0.2
2021-08-19 20:14:15.832,0.21,-0.195
2021-08-19 20:14:15.836,0.235,-0.185
2021-08-19 20:14:15.840,0.255,-0.21
2021-08-19 20:14:15.844,0.24,-0.205
2021-08-19 20:14:15.848,0.225,-0.205
2021-08-19 20:14:15.852,0.245,-0.22
2021-08-19 20:14:15.856,0.245,-0.215
2021-08-19 20:14:15.860,0.255,-0.21
2021-08-19 20:14:15.864,0.265,-0.2
2021-08-19 20:14:15.868,0.265,-0.205
2021-08-19 20:14:15.872,0.27,-0.19
2021-08-19 20:14:15.876,0.27,-0.205
2021-08-19 20:14:15.880,0.255,-0.215
2021-08-19 20:14:15.884,0.27,-0.205
2021-08-19 20:14:15.888,0.28,-0.215
2021-08-19 20:14:15.892,0.28,-0.2
2021-08-19 20:14:15.896,0.27,-0.225
2021-08-19 20:14:15.900,0.275,-0.22
2021-08-19 20:14:15.904,0.29,-0.215
2021-08-19 20:14:15.908,0.265,-0.235
2021-08-19 20:14:15.912,0.275,-0.22
2021-08-19 20:14:15.916,0.27,-0.21
2021-08-19 20:14:15.920,0.28,-0.2
2021-08-19 20:14:15.924,0.24,-0.225
2021-08-19 20:14:15.928,0.25,-0.215
2021-08-19 20:14:15.932,0.27,-0.21
2021-08-19 20:14:15.936,0.26,-0.215
2021-08-19 20:14:15.940,0.235,-0.21
2021-08-19 20:14:15.944,0.235,-0.205
2021-08-19 20:14:15.948,0.245,-0.205
2021-08-19 20:14:15.952,0.26,-0.205
2021-08-19 20:14:15.956,0.26,-0.185
2021-08-19 20:14:15.960,0.29,-0.205
2021-08-19 20:14:15.964,0.285,-0.195
2021-08-19 20:14:15.968,0.29,-0.175
2021-08-19 20:14:15.972,0.31,-0.16
2021-08-19 20:14:15.976,0.295,-0.16
2021-08-19 20:14:15.980,0.295,-0.155
2021-08-19 20:14:15.984,0.295,-0.175
2021-08-19 20:14:15.988,0.31,-0.175
2021-08-19 20:14:15.992,0.3,-0.175
2021-08-19 20:14:15.996,0.3,-0.165
2021-08-19 20:14:16.000,0.3,-0.165
2021-08-19 20:14:16.004,0.31,-0.195
2021-08-19 20:14:16.008,0.275,-0.19
2021-08-19 20:14:16.012,0.285,-0.18
2021-08-19 20:14:16.016,0.265,-0.185
2021-08-19 20:14:16.020,0.265,-0.195
2021-08-19 20:14:16.024,0.255,-0.215
2021-08-19 20:14:16.028,0.245,-0.2
2021-08-19 20:14:16.032,0.235,-0.2
2021-08-19 20:14:16.036,0.255,-0.225
2021-08-19 20:14:16.040,0.27,-0.245
2021-08-19 20:14:16.044,0.255,-0.23
2021-08-19 20:14:16.048,0.235,-0.235
2021-08-19 20:14:16.052,0.225,-0.24
2021-08-19 20:14:16.056,0.245,-0.245
2021-08-19 20:14:16.060,0.24,-0.24
2021-08-19 20:14:16.064,0.24,-0.235
2021-08-19 20:14:16.068,0.235,-0.23
2021-08-19 20:14:16.072,0.255,-0.225
2021-08-19 20:14:16.076,0.23,-0.225
2021-08-19 20:14:16.080,0.27,-0.23
2021-08-19 20:14:16.084,0.25,-0.225
2021-08-19 20:14:16.088,0.26,-0.26
2021-08-19 20:14:16.092,0.235,-0.255
2021-08-19 20:14:16.096,0.2,-0.25
2021-08-19 20:14:16.100,0.195,-0.26
2021-08-19 20:14:16.104,0.21,-0.25
2021-08-19 20:14:16.108,0.23,-0.265
2021-08-19 20:14:16.112,0.235,-0.26
2021-08-19 20:14:16.116,0.23,-0.26
2021-08-19 20:14:16.120,0.235,-0.255
2021-08-19 20:14:16.124,0.23,-0.255
2021-08-19 20:14:16.128,0.23,-0.26
2021-08-19 20:14:16.132,0.23,-0.26
2021-08-19 20:14:16.136,0.22,-0.255
2021-08-19 20:14:16.140,0.23,-0.245
2021-08-19 20:14:16.144,0.23,-0.24
2021-08-19 20:14:16.148,0.23,-0.255
2021-08-19 20:14:16.152,0.24,-0.25
2021-08-19 20:14:16.156,0.27,-0.245
2021-08-19 20:14:16.160,0.255,-0.245
2021-08-19 20:14:16.164,0.235,-0.245
2021-08-19 20:14:16.168,0.22,-0.25
2021-08-19 20:14:16.172,0.225,-0.255
2021-08-19 20:14:16.176,0.22,-0.23
2021-08-19 20:14:16.180,0.25,-0.23
2021-08-19 20:14:16.184,0.255,-0.24
2021-08-19 20:14:16.188,0.225,-0.235
2021-08-19 20:14:16.192,0.225,-0.235
2021-08-19 20:14:16.196,0.22,-0.225
2021-08-19 20:14:16.200,0.225,-0.245
2021-08-19 20:14:16.204,0.23,-0.235
2021-08-19 20:14:16.208,0.215,-0.215
2021-08-19 20:14:16.212,0.25,-0.22
2021-08-19 20:14:16.216,0.25,-0.23
2021-08-19 20:14:16.220,0.26,-0.215
2021-08-19 20:14:16.224,0.225,-0.24
2021-08-19 20:14:16.228,0.21,-0.235
2021-08-19 20:14:16.232,0.205,-0.235
2021-08-19 20:14:16.236,0.22,-0.25
2021-08-19 20:14:16.240,0.235,-0.23
2021-08-19 20:14:16.244,0.21,-0.225
2021-08-19 20:14:16.248,0.225,-0.245
2021-08-19 20:14:16.252,0.205,-0.255
2021-08-19 20:14:16.256,0.22,-0.265
2021-08-19 20:14:16.260,0.225,-0.26
2021-08-19 20:14:16.264,0.22,-0.24
2021-08-19 20:14:16.268,0.23,-0.22
2021-08-19 20:14:16.272,0.22,-0.245
2021-08-19 20:14:16.276,0.235,-0.255
2021-08-19 20:14:16.280,0.245,-0.235
2021-08-19 20:14:16.284,0.22,-0.245
2021-08-19 20:14:16.288,0.21,-0.225
2021-08-19 20:14:16.292,0.22,-0.24
2021-08-19 20:14:16.296,0.22,-0.24
2021-08-19 20:14:16.300,0.25,-0.25
2021-08-19 20:14:16.304,0.245,-0.265
2021-08-19 20:14:16.308,0.215,-0.255
2021-08-19 20:14:16.312,0.22,-0.235
2021-08-19 20:14:16.316,0.215,-0.245
2021-08-19 20:14:16.320,0.21,-0.24
2021-08-19 20:14:16.324,0.195,-0.255
2021-08-19 20:14:16.328,0.19,-0.24
2021-08-19 20:14:16.332,0.205,-0.26
2021-08-19 20:14:16.336,0.2,-0.26
2021-08-19 20:14:16.340,0.225,-0.245
2021-08-19 20:14:16.344,0.215,-0.25
2021-08-19 20:14:16.348,0.21,-0.26
2021-08-19 20:14:16.352,0.2,-0.255
2021-08-19 20:14:16.356,0.195,-0.265
2021-08-19 20:14:16.360,0.195,-0.235
2021-08-19 20:14:16.364,0.21,-0.245
2021-08-19 20:14:16.368,0.215,-0.235
2021-08-19 20:14:16.372,0.225,-0.24
2021-08-19 20:14:16.376,0.22,-0.235
2021-08-19 20:14:16.380,0.24,-0.255
2021-08-19 20:14:16.384,0.2,-0.265
2021-08-19 20:14:16.388,0.215,-0.255
2021-08-19 20:14:16.392,0.2,-0.2
2021-08-19 20:14:16.396,0.23,-0.22
2021-08-19 20:14:16.400,0.22,-0.23
2021-08-19 20:14:16.404,0.225,-0.23
2021-08-19 20:14:16.408,0.21,-0.25
2021-08-19 20:14:16.412,0.21,-0.245
2021-08-19 20:14:16.416,0.205,-0.25
2021-08-19 20:14:16.420,0.21,-0.22
2021-08-19 20:14:16.424,0.21,-0.23
2021-08-19 20:14:16.428,0.23,-0.235
2021-08-19 20:14:16.432,0.21,-0.23
2021-08-19 20:14:16.436,0.205,-0.245
2021-08-19 20:14:16.440,0.19,-0.255
2021-08-19 20:14:16.444,0.185,-0.265
2021-08-19 20:14:16.448,0.165,-0.255
2021-08-19 20:14:16.452,0.16,-0.27
2021-08-19 20:14:16.456,0.19,-0.24
2021-08-19 20:14:16.460,0.175,-0.265
2021-08-19 20:14:16.464,0.18,-0.255
2021-08-19 20:14:16.468,0.185,-0.255
2021-08-19 20:14:16.472,0.165,-0.255
2021-08-19 20:14:16.476,0.175,-0.235
2021-08-19 20:14:16.480,0.185,-0.225
2021-08-19 20:14:16.484,0.195,-0.215
2021-08-19 20:14:16.488,0.175,-0.25
2021-08-19 20:14:16.492,0.175,-0.23
2021-08-19 20:14:16.496,0.17,-0.24
2021-08-19 20:14:16.500,0.175,-0.24
2021-08-19 20:14:16.504,0.175,-0.26
2021-08-19 20:14:16.508,0.19,-0.255
2021-08-19 20:14:16.512,0.185,-0.275
2021-08-19 20:14:16.516,0.17,-0.245
2021-08-19 20:14:16.520,0.175,-0.255
2021-08-19 20:14:16.524,0.175,-0.255
2021-08-19 20:14:16.528,0.2,-0.25
2021-08-19 20:14:16.532,0.185,-0.235
2021-08-19 20:14:16.536,0.19,-0.22
2021-08-19 20:14:16.540,0.205,-0.22
2021-08-19 20:14:16.544,0.19,-0.23
2021-08-19 20:14:16.548,0.185,-0.21
2021-08-19 20:14:16.552,0.2,-0.235
2021-08-19 20:14:16.556,0.195,-0.24
2021-08-19 20:14:16.560,0.19,-0.22
2021-08-19 20:14:16.564,0.195,-0.225
2021-08-19 20:14:16.568,0.195,-0.21
2021-08-19 20:14:16.572,0.2,-0.225
2021-08-19 20:14:16.576,0.19,-0.22
2021-08-19 20:14:16.580,0.175,-0.23
2021-08-19 20:14:16.584,0.165,-0.235
2021-08-19 20:14:16.588,0.17,-0.24
2021-08-19 20:14:16.592,0.17,-0.22
2021-08-19 20:14:16.596,0.175,-0.235
2021-08-19 20:14:16.600,0.185,-0.22
2021-08-19 20:14:16.604,0.215,-0.21
2021-08-19 20:14:16.608,0.215,-0.195
2021-08-19 20:14:16.612,0.215,-0.175
2021-08-19 20:14:16.616,0.23,-0.18
2021-08-19 20:14:16.620,0.255,-0.17
2021-08-19 20:14:16.624,0.23,-0.16
2021-08-19 20:14:16.628,0.255,-0.135
2021-08-19 20:14:16.632,0.27,-0.155
2021-08-19 20:14:16.636,0.285,-0.19
2021-08-19 20:14:16.640,0.265,-0.215
2021-08-19 20:14:16.644,0.25,-0.22
2021-08-19 20:14:16.648,0.22,-0.21
2021-08-19 20:14:16.652,0.21,-0.2
2021-08-19 20:14:16.656,0.205,-0.215
2021-08-19 20:14:16.660,0.205,-0.21
2021-08-19 20:14:16.664,0.2,-0.225
2021-08-19 20:14:16.668,0.175,-0.235
2021-08-19 20:14:16.672,0.215,-0.22
2021-08-19 20:14:16.676,0.195,-0.255
2021-08-19 20:14:16.680,0.21,-0.245
2021-08-19 20:14:16.684,0.19,-0.235
2021-08-19 20:14:16.688,0.23,-0.27
2021-08-19 20:14:16.692,0.21,-0.285
2021-08-19 20:14:16.696,0.185,-0.29
2021-08-19 20:14:16.700,0.19,-0.265
2021-08-19 20:14:16.704,0.195,-0.265
2021-08-19 20:14:16.708,0.195,-0.255
2021-08-19 20:14:16.712,0.145,-0.29
2021-08-19 20:14:16.716,0.155,-0.27
2021-08-19 20:14:16.720,0.145,-0.27
2021-08-19 20:14:16.724,0.16,-0.285
2021-08-19 20:14:16.728,0.18,-0.285
2021-08-19 20:14:16.732,0.145,-0.24
2021-08-19 20:14:16.736,0.15,-0.185
2021-08-19 20:14:16.740,0.18,-0.09
2021-08-19 20:14:16.744,0.21,0.065
2021-08-19 20:14:16.748,0.28,0.255
2021-08-19 20:14:16.752,0.315,0.455
2021-08-19 20:14:16.756,0.375,0.655
2021-08-19 20:14:16.760,0.43,0.775
2021-08-19 20:14:16.764,0.41,0.775
2021-08-19 20:14:16.768,0.35,0.535
2021-08-19 20:14:16.772,0.26,0.195
2021-08-19 20:14:16.776,0.17,-0.125
2021-08-19 20:14:16.780,-0.04,-0.325
2021-08-19 20:14:16.784,-0.31,-0.395
2021-08-19 20:14:16.788,-0.475,-0.355
2021-08-19 20:14:16.792,-0.53,-0.305
2021-08-19 20:14:16.796,-0.495,-0.285
2021-08-19 20:14:16.800,-0.375,-0.28
2021-08-19 20:14:16.804,-0.24,-0.29
2021-08-19 20:14:16.808,-0.095,-0.315
2021-08-19 20:14:16.812,0.025,-0.305
2021-08-19 20:14:16.816,0.1,-0.3
2021-08-19 20:14:16.820,0.11,-0.28
2021-08-19 20:14:16.824,0.13,-0.29
2021-08-19 20:14:16.828,0.14,-0.28
2021-08-19 20:14:16.832,0.13,-0.29
2021-08-19 20:14:16.836,0.135,-0.29
2021-08-19 20:14:16.840,0.155,-0.28
2021-08-19 20:14:16.844,0.15,-0.27
2021-08-19 20:14:16.848,0.18,-0.285
2021-08-19 20:14:16.852,0.19,-0.295
2021-08-19 20:14:16.856,0.185,-0.29
2021-08-19 20:14:16.860,0.175,-0.295
2021-08-19 20:14:16.864,0.185,-0.265
2021-08-19 20:14:16.868,0.18,-0.275
2021-08-19 20:14:16.872,0.175,-0.285
2021-08-19 20:14:16.876,0.17,-0.275
2021-08-19 20:14:16.880,0.18,-0.275
2021-08-19 20:14:16.884,0.19,-0.28
2021-08-19 20:14:16.888,0.2,-0.29
2021-08-19 20:14:16.892,0.195,-0.29
2021-08-19 20:14:16.896,0.215,-0.265
2021-08-19 20:14:16.900,0.215,-0.24
2021-08-19 20:14:16.904,0.21,-0.24
2021-08-19 20:14:16.908,0.21,-0.22
2021-08-19 20:14:16.912,0.225,-0.23
2021-08-19 20:14:16.916,0.21,-0.24
2021-08-19 20:14:16.920,0.23,-0.25
2021-08-19 20:14:16.924,0.25,-0.24
2021-08-19 20:14:16.928,0.25,-0.21
2021-08-19 20:14:16.932,0.23,-0.23
2021-08-19 20:14:16.936,0.25,-0.235
2021-08-19 20:14:16.940,0.235,-0.225
2021-08-19 20:14:16.944,0.25,-0.21
2021-08-19 20:14:16.948,0.245,-0.21
2021-08-19 20:14:16.952,0.26,-0.22
2021-08-19 20:14:16.956,0.25,-0.2
2021-08-19 20:14:16.960,0.265,-0.215
2021-08-19 20:14:16.964,0.28,-0.22
2021-08-19 20:14:16.968,0.29,-0.23
2021-08-19 20:14:16.972,0.26,-0.24
2021-08-19 20:14:16.976,0.26,-0.24
2021-08-19 20:14:16.980,0.27,-0.23
2021-08-19 20:14:16.984,0.265,-0.245
2021-08-19 20:14:16.988,0.255,-0.245
2021-08-19 20:14:16.992,0.245,-0.225
2021-08-19 20:14:16.996,0.26,-0.245
2021-08-19 20:14:17.000,0.27,-0.24
2021-08-19 20:14:17.004,0.285,-0.22
2021-08-19 20:14:17.008,0.275,-0.235
2021-08-19 20:14:17.012,0.295,-0.21
2021-08-19 20:14:17.016,0.26,-0.225
2021-08-19 20:14:17.020,0.245,-0.2
2021-08-19 20:14:17.024,0.24,-0.205
2021-08-19 20:14:17.028,0.24,-0.22
2021-08-19 20:14:17.032,0.25,-0.2
2021-08-19 20:14:17.036,0.265,-0.205
2021-08-19 20:14:17.040,0.265,-0.185
2021-08-19 20:14:17.044,0.265,-0.185
2021-08-19 20:14:17.048,0.26,-0.185
2021-08-19 20:14:17.052,0.25,-0.19
2021-08-19 20:14:17.056,0.25,-0.185
2021-08-19 20:14:17.060,0.255,-0.195
2021-08-19 20:14:17.064,0.24,-0.2
2021-08-19 20:14:17.068,0.25,-0.205
2021-08-19 20:14:17.072,0.255,-0.21
2021-08-19 20:14:17.076,0.245,-0.2
2021-08-19 20:14:17.080,0.25,-0.21
2021-08-19 20:14:17.084,0.265,-0.21
2021-08-19 20:14:17.088,0.24,-0.215
2021-08-19 20:14:17.092,0.265,-0.225
2021-08-19 20:14:17.096,0.235,-0.23
2021-08-19 20:14:17.100,0.235,-0.23
2021-08-19 20:14:17.104,0.23,-0.24
2021-08-19 20:14:17.108,0.22,-0.215
2021-08-19 20:14:17.112,0.215,-0.2
2021-08-19 20:14:17.116,0.245,-0.2
2021-08-19 20:14:17.120,0.22,-0.215
2021-08-19 20:14:17.124,0.21,-0.225
2021-08-19 20:14:17.128,0.24,-0.225
2021-08-19 20:14:17.132,0.225,-0.235
2021-08-19 20:14:17.136,0.22,-0.22
2021-08-19 20:14:17.140,0.205,-0.24
2021-08-19 20:14:17.144,0.23,-0.22
2021-08-19 20:14:17.148,0.21,-0.24
2021-08-19 20:14:17.152,0.205,-0.235
2021-08-19 20:14:17.156,0.215,-0.245
2021-08-19 20:14:17.160,0.22,-0.24
2021-08-19 20:14:17.164,0.21,-0.24
2021-08-19 20:14:17.168,0.23,-0.25
2021-08-19 20:14:17.172,0.225,-0.27
2021-08-19 20:14:17.176,0.24,-0.265
2021-08-19 20:14:17.180,0.25,-0.27
2021-08-19 20:14:17.184,0.25,-0.255
2021-08-19 20:14:17.188,0.27,-0.27
2021-08-19 20:14:17.192,0.255,-0.27
2021-08-19 20:14:17.196,0.23,-0.26
2021-08-19 20:14:17.200,0.24,-0.26
2021-08-19 20:14:17.204,0.225,-0.25
2021-08-19 20:14:17.208,0.225,-0.245
2021-08-19 20:14:17.212,0.25,-0.23
2021-08-19 20:14:17.216,0.23,-0.25
2021-08-19 20:14:17.220,0.235,-0.265
2021-08-19 20:14:17.224,0.245,-0.265
2021-08-19 20:14:17.228,0.255,-0.255
2021-08-19 20:14:17.232,0.255,-0.24
2021-08-19 20:14:17.236,0.245,-0.24
2021-08-19 20:14:17.240,0.25,-0.24
2021-08-19 20:14:17.244,0.26,-0.25
2021-08-19 20:14:17.248,0.25,-0.25
2021-08-19 20:14:17.252,0.275,-0.26
2021-08-19 20:14:17.256,0.25,-0.26
2021-08-19 20:14:17.260,0.26,-0.255
2021-08-19 20:14:17.264,0.24,-0.265
2021-08-19 20:14:17.268,0.245,-0.235
2021-08-19 20:14:17.272,0.24,-0.225
2021-08-19 20:14:17.276,0.23,-0.245
2021-08-19 20:14:17.280,0.255,-0.23
2021-08-19 20:14:17.284,0.24,-0.245
2021-08-19 20:14:17.288,0.23,-0.235
2021-08-19 20:14:17.292,0.235,-0.245
2021-08-19 20:14:17.296,0.245,-0.235
2021-08-19 20:14:17.300,0.27,-0.23
2021-08-19 20:14:17.304,0.24,-0.25
2021-08-19 20:14:17.308,0.215,-0.25
2021-08-19 20:14:17.312,0.215,-0.23
2021-08-19 20:14:17.316,0.225,-0.23
2021-08-19 20:14:17.320,0.225,-0.225
2021-08-19 20:14:17.324,0.22,-0.215
2021-08-19 20:14:17.328,0.21,-0.22
2021-08-19 20:14:17.332,0.235,-0.225
2021-08-19 20:14:17.336,0.24,-0.245
2021-08-19 20:14:17.340,0.245,-0.25
2021-08-19 20:14:17.344,0.25,-0.245
2021-08-19 20:14:17.348,0.23,-0.215
2021-08-19 20:14:17.352,0.24,-0.23
2021-08-19 20:14:17.356,0.25,-0.23
2021-08-19 20:14:17.360,0.24,-0.23
2021-08-19 20:14:17.364,0.25,-0.22
2021-08-19 20:14:17.368,0.25,-0.22
2021-08-19 20:14:17.372,0.265,-0.235
2021-08-19 20:14:17.376,0.265,-0.23
2021-08-19 20:14:17.380,0.25,-0.23
2021-08-19 20:14:17.384,0.24,-0.23
2021-08-19 20:14:17.388,0.265,-0.24
2021-08-19 20:14:17.392,0.255,-0.215
2021-08-19 20:14:17.396,0.24,-0.225
2021-08-19 20:14:17.400,0.245,-0.245
2021-08-19 20:14:17.404,0.245,-0.235
2021-08-19 20:14:17.408,0.24,-0.22
2021-08-19 20:14:17.412,0.255,-0.225
2021-08-19 20:14:17.416,0.26,-0.23
2021-08-19 20:14:17.420,0.26,-0.24
2021-08-19 20:14:17.424,0.25,-0.225
2021-08-19 20:14:17.428,0.24,-0.23
2021-08-19 20:14:17.432,0.25,-0.21
2021-08-19 20:14:17.436,0.235,-0.215
2021-08-19 20:14:17.440,0.25,-0.22
2021-08-19 20:14:17.444,0.24,-0.22
2021-08-19 20:14:17.448,0.255,-0.205
2021-08-19 20:14:17.452,0.235,-0.21
2021-08-19 20:14:17.456,0.235,-0.19
2021-08-19 20:14:17.460,0.25,-0.195
2021-08-19 20:14:17.464,0.26,-0.21
2021-08-19 20:14:17.468,0.255,-0.195
2021-08-19 20:14:17.472,0.245,-0.2
2021-08-19 20:14:17.476,0.24,-0.225
2021-08-19 20:14:17.480,0.215,-0.21
2021-08-19 20:14:17.484,0.25,-0.21
2021-08-19 20:14:17.488,0.26,-0.225
2021-08-19 20:14:17.492,0.245,-0.215
2021-08-19 20:14:17.496,0.25,-0.205
2021-08-19 20:14:17.500,0.235,-0.225
2021-08-19 20:14:17.504,0.25,-0.235
2021-08-19 20:14:17.508,0.23,-0.215
2021-08-19 20:14:17.512,0.22,-0.205
2021-08-19 20:14:17.516,0.245,-0.225
2021-08-19 20:14:17.520,0.215,-0.225
2021-08-19 20:14:17.524,0.205,-0.225
2021-08-19 20:14:17.528,0.21,-0.22
2021-08-19 20:14:17.532,0.22,-0.22
2021-08-19 20:14:17.536,0.22,-0.24
2021-08-19 20:14:17.540,0.225,-0.225
2021-08-19 20:14:17.544,0.2,-0.255
2021-08-19 20:14:17.548,0.19,-0.25
2021-08-19 20:14:17.552,0.185,-0.235
2021-08-19 20:14:17.556,0.195,-0.23
2021-08-19 20:14:17.560,0.195,-0.24
2021-08-19 20:14:17.564,0.195,-0.255
2021-08-19 20:14:17.568,0.18,-0.235
2021-08-19 20:14:17.572,0.185,-0.215
2021-08-19 20:14:17.576,0.2,-0.24
2021-08-19 20:14:17.580,0.2,-0.24
2021-08-19 20:14:17.584,0.205,-0.235
2021-08-19 20:14:17.588,0.16,-0.225
2021-08-19 20:14:17.592,0.185,-0.225
2021-08-19 20:14:17.596,0.2,-0.25
2021-08-19 20:14:17.600,0.2,-0.25
2021-08-19 20:14:17.604,0.19,-0.23
2021-08-19 20:14:17.608,0.18,-0.22
2021-08-19 20:14:17.612,0.175,-0.225
2021-08-19 20:14:17.616,0.185,-0.215
2021-08-19 20:14:17.620,0.19,-0.24
2021-08-19 20:14:17.624,0.205,-0.235
2021-08-19 20:14:17.628,0.225,-0.215
2021-08-19 20:14:17.632,0.22,-0.2
2021-08-19 20:14:17.636,0.22,-0.21
2021-08-19 20:14:17.640,0.215,-0.21
2021-08-19 20:14:17.644,0.225,-0.22
2021-08-19 20:14:17.648,0.21,-0.215
2021-08-19 20:14:17.652,0.215,-0.255
2021-08-19 20:14:17.656,0.225,-0.26
2021-08-19 20:14:17.660,0.215,-0.25
2021-08-19 20:14:17.664,0.22,-0.25
2021-08-19 20:14:17.668,0.22,-0.225
2021-08-19 20:14:17.672,0.255,-0.24
2021-08-19 20:14:17.676,0.27,-0.225
2021-08-19 20:14:17.680,0.275,-0.21
2021-08-19 20:14:17.684,0.29,-0.205
2021-08-19 20:14:17.688,0.3,-0.2
2021-08-19 20:14:17.692,0.315,-0.185
2021-08-19 20:14:17.696,0.32,-0.21
2021-08-19 20:14:17.700,0.31,-0.25
2021-08-19 20:14:17.704,0.3,-0.265
2021-08-19 20:14:17.708,0.285,-0.29
2021-08-19 20:14:17.712,0.27,-0.255
2021-08-19 20:14:17.716,0.265,-0.235
2021-08-19 20:14:17.720,0.235,-0.27
2021-08-19 20:14:17.724,0.225,-0.24
2021-08-19 20:14:17.728,0.2,-0.245
2021-08-19 20:14:17.732,0.18,-0.255
2021-08-19 20:14:17.736,0.16,-0.265
2021-08-19 20:14:17.740,0.145,-0.265
2021-08-19 20:14:17.744,0.145,-0.265
2021-08-19 20:14:17.748,0.125,-0.285
2021-08-19 20:14:17.752,0.12,-0.275
2021-08-19 20:14:17.756,0.145,-0.305
2021-08-19 20:14:17.760,0.15,-0.295
2021-08-19 20:14:17.764,0.125,-0.275
2021-08-19 20:14:17.768,0.11,-0.27
2021-08-19 20:14:17.772,0.115,-0.285
2021-08-19 20:14:17.776,0.075,-0.265
2021-08-19 20:14:17.780,0.085,-0.265
2021-08-19 20:14:17.784,0.075,-0.28
2021-08-19 20:14:17.788,0.095,-0.26
2021-08-19 20:14:17.792,0.09,-0.265
2021-08-19 20:14:17.796,0.125,-0.22
2021-08-19 20:14:17.800,0.14,-0.13
2021-08-19 20:14:17.804,0.17,0.005
2021-08-19 20:14:17.808,0.2,0.18
2021-08-19 20:14:17.812,0.275,0.38
2021-08-19 20:14:17.816,0.315,0.56
2021-08-19 20:14:17.820,0.39,0.72
2021-08-19 20:14:17.824,0.46,0.805
2021-08-19 20:14:17.828,0.455,0.675
2021-08-19 20:14:17.832,0.43,0.375
2021-08-19 20:14:17.836,0.41,0.02
2021-08-19 20:14:17.840,0.3,-0.245
2021-08-19 20:14:17.844,0.015,-0.345
2021-08-19 20:14:17.848,-0.32,-0.32
2021-08-19 20:14:17.852,-0.51,-0.27
2021-08-19 20:14:17.856,-0.54,-0.24
2021-08-19 20:14:17.860,-0.455,-0.24
2021-08-19 20:14:17.864,-0.34,-0.245
2021-08-19 20:14:17.868,-0.2,-0.25
2021-08-19 20:14:17.872,-0.065,-0.25
2021-08-19 20:14:17.876,0.03,-0.275
2021-08-19 20:14:17.880,0.095,-0.265
2021-08-19 20:14:17.884,0.12,-0.26
2021-08-19 20:14:17.888,0.155,-0.28
2021-08-19 20:14:17.892,0.14,-0.285
2021-08-19 20:14:17.896,0.14,-0.27
2021-08-19 20:14:17.900,0.165,-0.26
2021-08-19 20:14:17.904,0.165,-0.24
2021-08-19 20:14:17.908,0.14,-0.25
2021-08-19 20:14:17.912,0.165,-0.245
2021-08-19 20:14:17.916,0.15,-0.28
2021-08-19 20:14:17.920,0.135,-0.275
2021-08-19 20:14:17.924,0.17,-0.27
2021-08-19 20:14:17.928,0.185,-0.275
2021-08-19 20:14:17.932,0.18,-0.28
2021-08-19 20:14:17.936,0.21,-0.27
2021-08-19 20:14:17.940,0.215,-0.25
2021-08-19 20:14:17.944,0.225,-0.25
2021-08-19 20:14:17.948,0.22,-0.245
2021-08-19 20:14:17.952,0.22,-0.225
2021-08-19 20:14:17.956,0.24,-0.23
2021-08-19 20:14:17.960,0.22,-0.22
2021-08-19 20:14:17.964,0.22,-0.215
2021-08-19 20:14:17.968,0.225,-0.235
2021-08-19 20:14:17.972,0.23,-0.215
2021-08-19 20:14:17.976,0.24,-0.2
2021-08-19 20:14:17.980,0.24,-0.2
2021-08-19 20:14:17.984,0.23,-0.195
2021-08-19 20:14:17.988,0.255,-0.21
2021-08-19 20:14:17.992,0.265,-0.21
2021-08-19 20:14:17.996,0.26,-0.19
2021-08-19 20:14:18.000,0.26,-0.2
2021-08-19 20:14:18.004,0.26,-0.2
2021-08-19 20:14:18.008,0.265,-0.195
2021-08-19 20:14:18.012,0.275,-0.21
2021-08-19 20:14:18.016,0.285,-0.2
2021-08-19 20:14:18.020,0.275,-0.2
2021-08-19 20:14:18.024,0.275,-0.195
2021-08-19 20:14:18.028,0.27,-0.18
2021-08-19 20:14:18.032,0.31,-0.19
2021-08-19 20:14:18.036,0.3,-0.17
2021-08-19 20:14:18.040,0.31,-0.175
2021-08-19 20:14:18.044,0.285,-0.18
2021-08-19 20:14:18.048,0.285,-0.165
2021-08-19 20:14:18.052,0.295,-0.16
2021-08-19 20:14:18.056,0.305,-0.175
2021-08-19 20:14:18.060,0.285,-0.165
2021-08-19 20:14:18.064,0.295,-0.165
2021-08-19 20:14:18.068,0.295,-0.19
2021-08-19 20:14:18.072,0.275,-0.205
2021-08-19 20:14:18.076,0.295,-0.2
2021-08-19 20:14:18.080,0.29,-0.18
2021-08-19 20:14:18.084,0.295,-0.155
2021-08-19 20:14:18.088,0.295,-0.175
2021-08-19 20:14:18.092,0.3,-0.18
2021-08-19 20:14:18.096,0.315,-0.175
2021-08-19 20:14:18.100,0.3,-0.18
2021-08-19 20:14:18.104,0.295,-0.185
2021-08-19 20:14:18.108,0.305,-0.165
2021-08-19 20:14:18.112,0.305,-0.175
2021-08-19 20:14:18.116,0.29,-0.18
2021-08-19 20:14:18.120,0.3,-0.205
2021-08-19 20:14:18.124,0.27,-0.215
2021-08-19 20:14:18.128,0.3,-0.2
2021-08-19 20:14:18.132,0.295,-0.185
2021-08-19 20:14:18.136,0.275,-0.205
2021-08-19 20:14:18.140,0.275,-0.21
2021-08-19 20:14:18.144,0.275,-0.21
2021-08-19 20:14:18.148,0.25,-0.225
2021-08-19 20:14:18.152,0.245,-0.205
2021-08-19 20:14:18.156,0.26,-0.2
2021-08-19 20:14:18.160,0.23,-0.185
2021-08-19 20:14:18.164,0.24,-0.18
2021-08-19 20:14:18.168,0.24,-0.195
2021-08-19 20:14:18.172,0.24,-0.19
2021-08-19 20:14:18.176,0.225,-0.205
2021-08-19 20:14:18.180,0.215,-0.22
2021-08-19 20:14:18.184,0.255,-0.205
2021-08-19 20:14:18.188,0.235,-0.19
2021-08-19 20:14:18.192,0.185,-0.205
2021-08-19 20:14:18.196,0.205,-0.185
2021-08-19 20:14:18.200,0.21,-0.21
2021-08-19 20:14:18.204,0.23,-0.215
2021-08-19 20:14:18.208,0.255,-0.22
2021-08-19 20:14:18.212,0.25,-0.22
2021-08-19 20:14:18.216,0.22,-0.24
2021-08-19 20:14:18.220,0.24,-0.225
2021-08-19 20:14:18.224,0.24,-0.225
2021-08-19 20:14:18.228,0.26,-0.215
2021-08-19 20:14:18.232,0.23,-0.23
2021-08-19 20:14:18.236,0.24,-0.215
2021-08-19 20:14:18.240,0.255,-0.235
2021-08-19 20:14:18.244,0.275,-0.22
2021-08-19 20:14:18.248,0.255,-0.235
2021-08-19 20:14:18.252,0.275,-0.225
2021-08-19 20:14:18.256,0.265,-0.225
2021-08-19 20:14:18.260,0.25,-0.23
2021-08-19 20:14:18.264,0.23,-0.23
2021-08-19 20:14:18.268,0.255,-0.2
2021-08-19 20:14:18.272,0.25,-0.215
2021-08-19 20:14:18.276,0.24,-0.215
2021-08-19 20:14:18.280,0.24,-0.21
2021-08-19 20:14:18.284,0.22,-0.205
2021-08-19 20:14:18.288,0.225,-0.19
2021-08-19 20:14:18.292,0.25,-0.205
2021-08-19 20:14:18.296,0.235,-0.21
2021-08-19 20:14:18.300,0.235,-0.205
2021-08-19 20:14:18.304,0.245,-0.205
2021-08-19 20:14:18.308,0.255,-0.185
2021-08-19 20:14:18.312,0.225,-0.185
2021-08-19 20:14:18.316,0.25,-0.18
2021-08-19 20:14:18.320,0.21,-0.165
2021-08-19 20:14:18.324,0.23,-0.175
2021-08-19 20:14:18.328,0.23,-0.16
2021-08-19 20:14:18.332,0.245,-0.165
2021-08-19 20:14:18.336,0.245,-0.155
2021-08-19 20:14:18.340,0.24,-0.165
2021-08-19 20:14:18.344,0.22,-0.17
2021-08-19 20:14:18.348,0.24,-0.18
2021-08-19 20:14:18.352,0.25,-0.16
2021-08-19 20:14:18.356,0.245,-0.15
2021-08-19 20:14:18.360,0.265,-0.17
2021-08-19 20:14:18.364,0.235,-0.175
2021-08-19 20:14:18.368,0.22,-0.175
2021-08-19 20:14:18.372,0.235,-0.21
2021-08-19 20:14:18.376,0.245,-0.19
2021-08-19 20:14:18.380,0.225,-0.155
2021-08-19 20:14:18.384,0.215,-0.16
2021-08-19 20:14:18.388,0.19,-0.17
2021-08-19 20:14:18.392,0.21,-0.145
2021-08-19 20:14:18.396,0.2,-0.155
2021-08-19 20:14:18.400,0.17,-0.13
2021-08-19 20:14:18.404,0.195,-0.125
2021-08-19 20:14:18.408,0.165,-0.14
2021-08-19 20:14:18.412,0.185,-0.155
2021-08-19 20:14:18.416,0.185,-0.14
2021-08-19 20:14:18.420,0.175,-0.15
2021-08-19 20:14:18.424,0.17,-0.135
2021-08-19 20:14:18.428,0.175,-0.16
2021-08-19 20:14:18.432,0.155,-0.17
2021-08-19 20:14:18.436,0.175,-0.185
2021-08-19 20:14:18.440,0.165,-0.16
2021-08-19 20:14:18.444,0.18,-0.15
2021-08-19 20:14:18.448,0.155,-0.175
2021-08-19 20:14:18.452,0.17,-0.16
2021-08-19 20:14:18.456,0.145,-0.16
2021-08-19 20:14:18.460,0.15,-0.17
2021-08-19 20:14:18.464,0.15,-0.14
2021-08-19 20:14:18.468,0.14,-0.15
2021-08-19 20:14:18.472,0.14,-0.145
2021-08-19 20:14:18.476,0.115,-0.175
2021-08-19 20:14:18.480,0.115,-0.19
2021-08-19 20:14:18.484,0.11,-0.185
2021-08-19 20:14:18.488,0.125,-0.195
2021-08-19 20:14:18.492,0.135,-0.17
2021-08-19 20:14:18.496,0.145,-0.19
2021-08-19 20:14:18.500,0.15,-0.195
2021-08-19 20:14:18.504,0.12,-0.195
2021-08-19 20:14:18.508,0.13,-0.175
2021-08-19 20:14:18.512,0.12,-0.18
2021-08-19 20:14:18.516,0.125,-0.195
2021-08-19 20:14:18.520,0.125,-0.19
2021-08-19 20:14:18.524,0.145,-0.19
2021-08-19 20:14:18.528,0.145,-0.17
2021-08-19 20:14:18.532,0.12,-0.155
2021-08-19 20:14:18.536,0.13,-0.155
2021-08-19 20:14:18.540,0.115,-0.155
2021-08-19 20:14:18.544,0.135,-0.16
2021-08-19 20:14:18.548,0.125,-0.155
2021-08-19 20:14:18.552,0.12,-0.165
2021-08-19 20:14:18.556,0.115,-0.16
2021-08-19 20:14:18.560,0.13,-0.175
2021-08-19 20:14:18.564,0.12,-0.2
2021-08-19 20:14:18.568,0.125,-0.195
2021-08-19 20:14:18.572,0.14,-0.16
2021-08-19 20:14:18.576,0.155,-0.155
2021-08-19 20:14:18.580,0.15,-0.18
2021-08-19 20:14:18.584,0.14,-0.195
2021-08-19 20:14:18.588,0.13,-0.195
2021-08-19 20:14:18.592,0.13,-0.19
2021-08-19 20:14:18.596,0.14,-0.19
2021-08-19 20:14:18.600,0.125,-0.22
2021-08-19 20:14:18.604,0.105,-0.21
2021-08-19 20:14:18.608,0.11,-0.17
2021-08-19 20:14:18.612,0.11,-0.15
2021-08-19 20:14:18.616,0.12,-0.15
2021-08-19 20:14:18.620,0.1,-0.16
2021-08-19 20:14:18.624,0.105,-0.16
2021-08-19 20:14:18.628,0.105,-0.18
2021-08-19 20:14:18.632,0.095,-0.195
2021-08-19 20:14:18.636,0.11,-0.205
2021-08-19 20:14:18.640,0.11,-0.225
2021-08-19 20:14:18.644,0.115,-0.205
2021-08-19 20:14:18.648,0.11,-0.215
2021-08-19 20:14:18.652,0.115,-0.23
2021-08-19 20:14:18.656,0.115,-0.225
2021-08-19 20:14:18.660,0.125,-0.23
2021-08-19 20:14:18.664,0.09,-0.21
2021-08-19 20:14:18.668,0.085,-0.25
2021-08-19 20:14:18.672,0.12,-0.22
2021-08-19 20:14:18.676,0.12,-0.235
2021-08-19 20:14:18.680,0.125,-0.235
2021-08-19 20:14:18.684,0.14,-0.22
2021-08-19 20:14:18.688,0.12,-0.22
2021-08-19 20:14:18.692,0.145,-0.205
2021-08-19 20:14:18.696,0.165,-0.17
2021-08-19 20:14:18.700,0.165,-0.145
2021-08-19 20:14:18.704,0.145,-0.13
2021-08-19 20:14:18.708,0.165,-0.115
2021-08-19 20:14:18.712,0.18,-0.135
2021-08-19 20:14:18.716,0.18,-0.16
2021-08-19 20:14:18.720,0.165,-0.17
2021-08-19 20:14:18.724,0.185,-0.185
2021-08-19 20:14:18.728,0.195,-0.18
2021-08-19 20:14:18.732,0.17,-0.17
2021-08-19 20:14:18.736,0.125,-0.165
2021-08-19 20:14:18.740,0.12,-0.16
2021-08-19 20:14:18.744,0.11,-0.19
2021-08-19 20:14:18.748,0.115,-0.2
2021-08-19 20:14:18.752,0.105,-0.215
2021-08-19 20:14:18.756,0.115,-0.205
2021-08-19 20:14:18.760,0.11,-0.215
2021-08-19 20:14:18.764,0.11,-0.235
2021-08-19 20:14:18.768,0.095,-0.21
2021-08-19 20:14:18.772,0.07,-0.245
2021-08-19 20:14:18.776,0.095,-0.265
2021-08-19 20:14:18.780,0.075,-0.255
2021-08-19 20:14:18.784,0.045,-0.245
2021-08-19 20:14:18.788,0.055,-0.25
2021-08-19 20:14:18.792,0.045,-0.27
2021-08-19 20:14:18.796,0.035,-0.285
2021-08-19 20:14:18.800,0.045,-0.305
2021-08-19 20:14:18.804,0.075,-0.285
2021-08-19 20:14:18.808,0.065,-0.265
2021-08-19 20:14:18.812,0.07,-0.215
2021-08-19 20:14:18.816,0.09,-0.1
2021-08-19 20:14:18.820,0.135,0.02
2021-08-19 20:14:18.824,0.145,0.195
2021-08-19 20:14:18.828,0.215,0.41
2021-08-19 20:14:18.832,0.28,0.57
2021-08-19 20:14:18.836,0.33,0.69
2021-08-19 20:14:18.840,0.32,0.69
2021-08-19 20:14:18.844,0.315,0.47
2021-08-19 20:14:18.848,0.24,0.14
2021-08-19 20:14:18.852,0.16,-0.155
2021-08-19 20:14:18.856,-0.04,-0.32
2021-08-19 20:14:18.860,-0.34,-0.365
2021-08-19 20:14:18.864,-0.53,-0.33
2021-08-19 20:14:18.868,-0.58,-0.295
2021-08-19 20:14:18.872,-0.51,-0.255
2021-08-19 20:14:18.876,-0.425,-0.245
2021-08-19 20:14:18.880,-0.31,-0.24
2021-08-19 20:14:18.884,-0.14,-0.265
2021-08-19 20:14:18.888,-0.01,-0.25
2021-08-19 20:14:18.892,0.04,-0.25
2021-08-19 20:14:18.896,0.1,-0.26
2021-08-19 20:14:18.900,0.095,-0.25
2021-08-19 20:14:18.904,0.1,-0.24
2021-08-19 20:14:18.908,0.1,-0.225
2021-08-19 20:14:18.912,0.105,-0.21
2021-08-19 20:14:18.916,0.12,-0.21
2021-08-19 20:14:18.920,0.115,-0.185
2021-08-19 20:14:18.924,0.12,-0.185
2021-08-19 20:14:18.928,0.135,-0.185
2021-08-19 20:14:18.932,0.145,-0.195
2021-08-19 20:14:18.936,0.14,-0.19
2021-08-19 20:14:18.940,0.155,-0.155
2021-08-19 20:14:18.944,0.15,-0.165
2021-08-19 20:14:18.948,0.165,-0.165
2021-08-19 20:14:18.952,0.17,-0.17
2021-08-19 20:14:18.956,0.175,-0.18
2021-08-19 20:14:18.960,0.17,-0.17
2021-08-19 20:14:18.964,0.155,-0.16
2021-08-19 20:14:18.968,0.15,-0.175
2021-08-19 20:14:18.972,0.17,-0.155
2021-08-19 20:14:18.976,0.16,-0.165
2021-08-19 20:14:18.980,0.16,-0.15
2021-08-19 20:14:18.984,0.165,-0.165
2021-08-19 20:14:18.988,0.17,-0.175
2021-08-19 20:14:18.992,0.175,-0.17
2021-08-19 20:14:18.996,0.155,-0.16
2021-08-19 20:14:19.000,0.155,-0.15
2021-08-19 20:14:19.004,0.175,-0.16
2021-08-19 20:14:19.008,0.175,-0.16
2021-08-19 20:14:19.012,0.155,-0.175
2021-08-19 20:14:19.016,0.175,-0.155
2021-08-19 20:14:19.020,0.175,-0.14
2021-08-19 20:14:19.024,0.185,-0.15
2021-08-19 20:14:19.028,0.195,-0.145
2021-08-19 20:14:19.032,0.19,-0.155
2021-08-19 20:14:19.036,0.185,-0.15
2021-08-19 20:14:19.040,0.205,-0.16
2021-08-19 20:14:19.044,0.175,-0.17
2021-08-19 20:14:19.048,0.16,-0.135
2021-08-19 20:14:19.052,0.17,-0.13
2021-08-19 20:14:19.056,0.18,-0.12
2021-08-19 20:14:19.060,0.2,-0.135
2021-08-19 20:14:19.064,0.205,-0.12
2021-08-19 20:14:19.068,0.19,-0.125
2021-08-19 20:14:19.072,0.185,-0.125
2021-08-19 20:14:19.076,0.175,-0.13
2021-08-19 20:14:19.080,0.18,-0.12
2021-08-19 20:14:19.084,0.18,-0.12
2021-08-19 20:14:19.088,0.195,-0.11
2021-08-19 20:14:19.092,0.195,-0.115
2021-08-19 20:14:19.096,0.18,-0.105
2021-08-19 20:14:19.100,0.19,-0.12
2021-08-19 20:14:19.104,0.15,-0.1
2021-08-19 20:14:19.108,0.2,-0.1
2021-08-19 20:14:19.112,0.16,-0.095
2021-08-19 20:14:19.116,0.18,-0.105
2021-08-19 20:14:19.120,0.19,-0.11
2021-08-19 20:14:19.124,0.18,-0.11
2021-08-19 20:14:19.128,0.2,-0.105
2021-08-19 20:14:19.132,0.195,-0.105
2021-08-19 20:14:19.136,0.18,-0.115
2021-08-19 20:14:19.140,0.18,-0.14
2021-08-19 20:14:19.144,0.175,-0.15
2021-08-19 20:14:19.148,0.17,-0.16
2021-08-19 20:14:19.152,0.17,-0.155
2021-08-19 20:14:19.156,0.185,-0.135
2021-08-19 20:14:19.160,0.155,-0.16
2021-08-19 20:14:19.164,0.155,-0.15
2021-08-19 20:14:19.168,0.145,-0.19
2021-08-19 20:14:19.172,0.155,-0.185
2021-08-19 20:14:19.176,0.13,-0.175
2021-08-19 20:14:19.180,0.1,-0.18
2021-08-19 20:14:19.184,0.1,-0.185
2021-08-19 20:14:19.188,0.095,-0.165
2021-08-19 20:14:19.192,0.12,-0.18
2021-08-19 20:14:19.196,0.12,-0.17
2021-08-19 20:14:19.200,0.08,-0.15
2021-08-19 20:14:19.204,0.095,-0.15
2021-08-19 20:14:19.208,0.085,-0.15
2021-08-19 20:14:19.212,0.085,-0.15
2021-08-19 20:14:19.216,0.095,-0.16
2021-08-19 20:14:19.220,0.105,-0.2
2021-08-19 20:14:19.224,0.095,-0.195
2021-08-19 20:14:19.228,0.1,-0.18
2021-08-19 20:14:19.232,0.095,-0.195
2021-08-19 20:14:19.236,0.095,-0.185
2021-08-19 20:14:19.240,0.095,-0.18
2021-08-19 20:14:19.244,0.11,-0.175
2021-08-19 20:14:19.248,0.105,-0.185
2021-08-19 20:14:19.252,0.105,-0.18
2021-08-19 20:14:19.256,0.12,-0.18
2021-08-19 20:14:19.260,0.14,-0.18
2021-08-19 20:14:19.264,0.125,-0.155
2021-08-19 20:14:19.268,0.13,-0.16
2021-08-19 20:14:19.272,0.16,-0.17
2021-08-19 20:14:19.276,0.175,-0.165
2021-08-19 20:14:19.280,0.19,-0.195
2021-08-19 20:14:19.284,0.175,-0.16
2021-08-19 20:14:19.288,0.19,-0.155
2021-08-19 20:14:19.292,0.22,-0.16
2021-08-19 20:14:19.296,0.205,-0.165
2021-08-19 20:14:19.300,0.205,-0.18
2021-08-19 20:14:19.304,0.19,-0.18
2021-08-19 20:14:19.308,0.2,-0.21
2021-08-19 20:14:19.312,0.19,-0.2
2021-08-19 20:14:19.316,0.185,-0.18
2021-08-19 20:14:19.320,0.19,-0.19
2021-08-19 20:14:19.324,0.19,-0.195
2021-08-19 20:14:19.328,0.2,-0.18
2021-08-19 20:14:19.332,0.17,-0.175
2021-08-19 20:14:19.336,0.2,-0.185
2021-08-19 20:14:19.340,0.21,-0.185
2021-08-19 20:14:19.344,0.18,-0.18
2021-08-19 20:14:19.348,0.185,-0.195
2021-08-19 20:14:19.352,0.17,-0.185
2021-08-19 20:14:19.356,0.155,-0.18
2021-08-19 20:14:19.360,0.17,-0.16
2021-08-19 20:14:19.364,0.16,-0.165
2021-08-19 20:14:19.368,0.18,-0.155
2021-08-19 20:14:19.372,0.17,-0.185
2021-08-19 20:14:19.376,0.165,-0.165
2021-08-19 20:14:19.380,0.175,-0.17
2021-08-19 20:14:19.384,0.15,-0.15
2021-08-19 20:14:19.388,0.16,-0.16
2021-08-19 20:14:19.392,0.14,-0.17
2021-08-19 20:14:19.396,0.15,-0.175
2021-08-19 20:14:19.400,0.13,-0.195
2021-08-19 20:14:19.404,0.115,-0.19
2021-08-19 20:14:19.408,0.11,-0.175
2021-08-19 20:14:19.412,0.11,-0.15
2021-08-19 20:14:19.416,0.115,-0.13
2021-08-19 20:14:19.420,0.08,-0.145
2021-08-19 20:14:19.424,0.085,-0.12
2021-08-19 20:14:19.428,0.095,-0.125
2021-08-19 20:14:19.432,0.125,-0.12
2021-08-19 20:14:19.436,0.11,-0.15
2021-08-19 20:14:19.440,0.115,-0.15
2021-08-19 20:14:19.444,0.08,-0.14
2021-08-19 20:14:19.448,0.1,-0.14
2021-08-19 20:14:19.452,0.115,-0.14
2021-08-19 20:14:19.456,0.13,-0.145
2021-08-19 20:14:19.460,0.105,-0.15
2021-08-19 20:14:19.464,0.13,-0.15
2021-08-19 20:14:19.468,0.13,-0.155
2021-08-19 20:14:19.472,0.11,-0.175
2021-08-19 20:14:19.476,0.12,-0.16
2021-08-19 20:14:19.480,0.115,-0.15
2021-08-19 20:14:19.484,0.115,-0.16
2021-08-19 20:14:19.488,0.12,-0.15
2021-08-19 20:14:19.492,0.115,-0.14
2021-08-19 20:14:19.496,0.115,-0.13
2021-08-19 20:14:19.500,0.11,-0.165
2021-08-19 20:14:19.504,0.09,-0.165
2021-08-19 20:14:19.508,0.105,-0.175
2021-08-19 20:14:19.512,0.1,-0.18
2021-08-19 20:14:19.516,0.1,-0.17
2021-08-19 20:14:19.520,0.105,-0.18
2021-08-19 20:14:19.524,0.105,-0.165
2021-08-19 20:14:19.528,0.11,-0.135
2021-08-19 20:14:19.532,0.13,-0.15
2021-08-19 20:14:19.536,0.11,-0.16
2021-08-19 20:14:19.540,0.1,-0.155
2021-08-19 20:14:19.544,0.13,-0.155
2021-08-19 20:14:19.548,0.13,-0.15
2021-08-19 20:14:19.552,0.12,-0.16
2021-08-19 20:14:19.556,0.115,-0.18
2021-08-19 20:14:19.560,0.12,-0.17
2021-08-19 20:14:19.564,0.125,-0.18
2021-08-19 20:14:19.568,0.115,-0.17
2021-08-19 20:14:19.572,0.12,-0.15
2021-08-19 20:14:19.576,0.12,-0.135
2021-08-19 20:14:19.580,0.125,-0.14
2021-08-19 20:14:19.584,0.115,-0.15
2021-08-19 20:14:19.588,0.13,-0.15
2021-08-19 20:14:19.592,0.125,-0.18
2021-08-19 20:14:19.596,0.1,-0.18
2021-08-19 20:14:19.600,0.12,-0.16
2021-08-19 20:14:19.604,0.13,-0.15
2021-08-19 20:14:19.608,0.125,-0.165
2021-08-19 20:14:19.612,0.14,-0.145
2021-08-19 20:14:19.616,0.145,-0.15
2021-08-19 20:14:19.620,0.145,-0.155
2021-08-19 20:14:19.624,0.15,-0.175
2021-08-19 20:14:19.628,0.125,-0.185
2021-08-19 20:14:19.632,0.12,-0.2
2021-08-19 20:14:19.636,0.16,-0.18
2021-08-19 20:14:19.640,0.15,-0.17
2021-08-19 20:14:19.644,0.14,-0.175
2021-08-19 20:14:19.648,0.14,-0.195
2021-08-19 20:14:19.652,0.14,-0.18
2021-08-19 20:14:19.656,0.125,-0.19
2021-08-19 20:14:19.660,0.14,-0.18
2021-08-19 20:14:19.664,0.14,-0.195
2021-08-19 20:14:19.668,0.13,-0.17
2021-08-19 20:14:19.672,0.12,-0.17
2021-08-19 20:14:19.676,0.13,-0.19
2021-08-19 20:14:19.680,0.115,-0.19
2021-08-19 20:14:19.684,0.11,-0.19
2021-08-19 20:14:19.688,0.12,-0.205
2021-08-19 20:14:19.692,0.135,-0.215
2021-08-19 20:14:19.696,0.13,-0.22
2021-08-19 20:14:19.700,0.11,-0.205
2021-08-19 20:14:19.704,0.125,-0.22
2021-08-19 20:14:19.708,0.12,-0.205
2021-08-19 20:14:19.712,0.125,-0.19
2021-08-19 20:14:19.716,0.125,-0.21
2021-08-19 20:14:19.720,0.15,-0.25
2021-08-19 20:14:19.724,0.13,-0.24
2021-08-19 20:14:19.728,0.14,-0.23
2021-08-19 20:14:19.732,0.155,-0.18
2021-08-19 20:14:19.736,0.17,-0.175
2021-08-19 20:14:19.740,0.18,-0.14
2021-08-19 20:14:19.744,0.17,-0.16
2021-08-19 20:14:19.748,0.185,-0.155
2021-08-19 20:14:19.752,0.2,-0.14
2021-08-19 20:14:19.756,0.21,-0.14
2021-08-19 20:14:19.760,0.22,-0.14
2021-08-19 20:14:19.764,0.205,-0.18
2021-08-19 20:14:19.768,0.185,-0.2
2021-08-19 20:14:19.772,0.21,-0.2
2021-08-19 20:14:19.776,0.15,-0.19
2021-08-19 20:14:19.780,0.165,-0.205
2021-08-19 20:14:19.784,0.155,-0.2
2021-08-19 20:14:19.788,0.15,-0.23
2021-08-19 20:14:19.792,0.16,-0.22
2021-08-19 20:14:19.796,0.17,-0.215
2021-08-19 20:14:19.800,0.17,-0.215
2021-08-19 20:14:19.804,0.17,-0.22
2021-08-19 20:14:19.808,0.18,-0.21
2021-08-19 20:14:19.812,0.195,-0.19
2021-08-19 20:14:19.816,0.18,-0.215
2021-08-19 20:14:19.820,0.175,-0.205
2021-08-19 20:14:19.824,0.155,-0.205
2021-08-19 20:14:19.828,0.14,-0.23
2021-08-19 20:14:19.832,0.155,-0.23
2021-08-19 20:14:19.836,0.13,-0.22
2021-08-19 20:14:19.840,0.115,-0.25
2021-08-19 20:14:19.844,0.105,-0.27
2021-08-19 20:14:19.848,0.11,-0.29
2021-08-19 20:14:19.852,0.125,-0.265
2021-08-19 20:14:19.856,0.13,-0.215
2021-08-19 20:14:19.860,0.15,-0.11
2021-08-19 20:14:19.864,0.195,0.035
2021-08-19 20:14:19.868,0.225,0.22
2021-08-19 20:14:19.872,0.265,0.43
2021-08-19 20:14:19.876,0.31,0.61
2021-08-19 20:14:19.880,0.385,0.72
2021-08-19 20:14:19.884,0.395,0.745
2021-08-19 20:14:19.888,0.39,0.6
2021-08-19 20:14:19.892,0.355,0.29
2021-08-19 20:14:19.896,0.34,-0.08
2021-08-19 20:14:19.900,0.25,-0.335
2021-08-19 20:14:19.904,0.015,-0.42
2021-08-19 20:14:19.908,-0.31,-0.395
2021-08-19 20:14:19.912,-0.525,-0.3
2021-08-19 20:14:19.916,-0.58,-0.295
2021-08-19 20:14:19.920,-0.53,-0.285
2021-08-19 20:14:19.924,-0.425,-0.29
2021-08-19 20:14:19.928,-0.32,-0.27
2021-08-19 20:14:19.932,-0.165,-0.305
2021-08-19 20:14:19.936,-0.025,-0.28
2021-08-19 20:14:19.940,0.05,-0.265
2021-08-19 20:14:19.944,0.085,-0.285
2021-08-19 20:14:19.948,0.095,-0.295
2021-08-19 20:14:19.952,0.1,-0.285
2021-08-19 20:14:19.956,0.115,-0.265
2021-08-19 20:14:19.960,0.11,-0.25
2021-08-19 20:14:19.964,0.115,-0.25
2021-08-19 20:14:19.968,0.14,-0.245
2021-08-19 20:14:19.972,0.135,-0.245
2021-08-19 20:14:19.976,0.14,-0.235
2021-08-19 20:14:19.980,0.165,-0.22
2021-08-19 20:14:19.984,0.165,-0.215
2021-08-19 20:14:19.988,0.185,-0.22
2021-08-19 20:14:19.992,0.18,-0.23
2021-08-19 20:14:19.996,0.195,-0.25
2021-08-19 20:14:20.000,0.185,-0.215
2021-08-19 20:14:20.004,0.19,-0.23
2021-08-19 20:14:20.008,0.2,-0.23
2021-08-19 20:14:20.012,0.2,-0.23
2021-08-19 20:14:20.016,0.21,-0.24
2021-08-19 20:14:20.020,0.19,-0.26
2021-08-19 20:14:20.024,0.195,-0.25
2021-08-19 20:14:20.028,0.18,-0.225
2021-08-19 20:14:20.032,0.16,-0.225
2021-08-19 20:14:20.036,0.175,-0.205
2021-08-19 20:14:20.040,0.17,-0.205
2021-08-19 20:14:20.044,0.155,-0.195
2021-08-19 20:14:20.048,0.15,-0.225
2021-08-19 20:14:20.052,0.155,-0.23
2021-08-19 20:14:20.056,0.18,-0.2
2021-08-19 20:14:20.060,0.18,-0.215
2021-08-19 20:14:20.064,0.19,-0.22
2021-08-19 20:14:20.068,0.19,-0.21
2021-08-19 20:14:20.072,0.185,-0.21
2021-08-19 20:14:20.076,0.165,-0.23
2021-08-19 20:14:20.080,0.19,-0.225
2021-08-19 20:14:20.084,0.185,-0.215
2021-08-19 20:14:20.088,0.195,-0.225
2021-08-19 20:14:20.092,0.185,-0.235
2021-08-19 20:14:20.096,0.175,-0.21
2021-08-19 20:14:20.100,0.185,-0.225
2021-08-19 20:14:20.104,0.21,-0.235
2021-08-19 20:14:20.108,0.195,-0.21
2021-08-19 20:14:20.112,0.215,-0.215
2021-08-19 20:14:20.116,0.215,-0.235
2021-08-19 20:14:20.120,0.205,-0.22
2021-08-19 20:14:20.124,0.2,-0.245
2021-08-19 20:14:20.128,0.215,-0.24
2021-08-19 20:14:20.132,0.185,-0.21
2021-08-19 20:14:20.136,0.21,-0.21
2021-08-19 20:14:20.140,0.205,-0.205
2021-08-19 20:14:20.144,0.21,-0.205
2021-08-19 20:14:20.148,0.23,-0.205
2021-08-19 20:14:20.152,0.195,-0.215
2021-08-19 20:14:20.156,0.195,-0.18
2021-08-19 20:14:20.160,0.2,-0.175
2021-08-19 20:14:20.164,0.215,-0.16
2021-08-19 20:14:20.168,0.2,-0.155
2021-08-19 20:14:20.172,0.2,-0.16
2021-08-19 20:14:20.176,0.19,-0.14
2021-08-19 20:14:20.180,0.195,-0.17
2021-08-19 20:14:20.184,0.205,-0.16
2021-08-19 20:14:20.188,0.205,-0.155
2021-08-19 20:14:20.192,0.225,-0.165
2021-08-19 20:14:20.196,0.225,-0.17
2021-08-19 20:14:20.200,0.225,-0.185
2021-08-19 20:14:20.204,0.2,-0.195
2021-08-19 20:14:20.208,0.205,-0.21
2021-08-19 20:14:20.212,0.185,-0.195
2021-08-19 20:14:20.216,0.165,-0.205
2021-08-19 20:14:20.220,0.15,-0.2
2021-08-19 20:14:20.224,0.155,-0.24
2021-08-19 20:14:20.228,0.165,-0.225
2021-08-19 20:14:20.232,0.165,-0.225
2021-08-19 20:14:20.236,0.175,-0.225
2021-08-19 20:14:20.240,0.175,-0.24
2021-08-19 20:14:20.244,0.185,-0.255
2021-08-19 20:14:20.248,0.175,-0.245
2021-08-19 20:14:20.252,0.175,-0.235
2021-08-19 20:14:20.256,0.155,-0.235
2021-08-19 20:14:20.260,0.165,-0.235
2021-08-19 20:14:20.264,0.16,-0.235
2021-08-19 20:14:20.268,0.16,-0.24
2021-08-19 20:14:20.272,0.165,-0.215
2021-08-19 20:14:20.276,0.145,-0.23
2021-08-19 20:14:20.280,0.16,-0.245
2021-08-19 20:14:20.284,0.18,-0.24
2021-08-19 20:14:20.288,0.155,-0.245
2021-08-19 20:14:20.292,0.16,-0.245
2021-08-19 20:14:20.296,0.165,-0.255
2021-08-19 20:14:20.300,0.18,-0.24
2021-08-19 20:14:20.304,0.165,-0.24
2021-08-19 20:14:20.308,0.19,-0.26
2021-08-19 20:14:20.312,0.185,-0.255
2021-08-19 20:14:20.316,0.16,-0.255
2021-08-19 20:14:20.320,0.15,-0.245
2021-08-19 20:14:20.324,0.16,-0.22
2021-08-19 20:14:20.328,0.165,-0.22
2021-08-19 20:14:20.332,0.17,-0.205
2021-08-19 20:14:20.336,0.19,-0.22
2021-08-19 20:14:20.340,0.19,-0.22
2021-08-19 20:14:20.344,0.18,-0.21
2021-08-19 20:14:20.348,0.165,-0.2
2021-08-19 20:14:20.352,0.175,-0.195
2021-08-19 20:14:20.356,0.17,-0.2
2021-08-19 20:14:20.360,0.16,-0.195
2021-08-19 20:14:20.364,0.15,-0.215
2021-08-19 20:14:20.368,0.14,-0.205
2021-08-19 20:14:20.372,0.13,-0.215
2021-08-19 20:14:20.376,0.16,-0.2
2021-08-19 20:14:20.380,0.145,-0.205
2021-08-19 20:14:20.384,0.155,-0.185
2021-08-19 20:14:20.388,0.13,-0.2
2021-08-19 20:14:20.392,0.14,-0.205
2021-08-19 20:14:20.396,0.115,-0.23
2021-08-19 20:14:20.400,0.115,-0.21
2021-08-19 20:14:20.404,0.11,-0.21
2021-08-19 20:14:20.408,0.12,-0.21
2021-08-19 20:14:20.412,0.115,-0.2
2021-08-19 20:14:20.416,0.12,-0.235
2021-08-19 20:14:20.420,0.105,-0.215
2021-08-19 20:14:20.424,0.115,-0.23
2021-08-19 20:14:20.428,0.115,-0.25
2021-08-19 20:14:20.432,0.085,-0.255
2021-08-19 20:14:20.436,0.09,-0.255
2021-08-19 20:14:20.440,0.105,-0.225
2021-08-19 20:14:20.444,0.09,-0.215
2021-08-19 20:14:20.448,0.1,-0.21
2021-08-19 20:14:20.452,0.07,-0.24
2021-08-19 20:14:20.456,0.085,-0.205
2021-08-19 20:14:20.460,0.075,-0.215
2021-08-19 20:14:20.464,0.09,-0.22
2021-08-19 20:14:20.468,0.09,-0.205
2021-08-19 20:14:20.472,0.07,-0.22
2021-08-19 20:14:20.476,0.085,-0.23
2021-08-19 20:14:20.480,0.08,-0.25
2021-08-19 20:14:20.484,0.085,-0.225
2021-08-19 20:14:20.488,0.09,-0.225
2021-08-19 20:14:20.492,0.085,-0.22
2021-08-19 20:14:20.496,0.09,-0.225
2021-08-19 20:14:20.500,0.105,-0.215
2021-08-19 20:14:20.504,0.08,-0.235
2021-08-19 20:14:20.508,0.08,-0.24
2021-08-19 20:14:20.512,0.1,-0.235
2021-08-19 20:14:20.516,0.085,-0.215
2021-08-19 20:14:20.520,0.075,-0.225
2021-08-19 20:14:20.524,0.09,-0.21
2021-08-19 20:14:20.528,0.12,-0.21
2021-08-19 20:14:20.532,0.09,-0.205
2021-08-19 20:14:20.536,0.075,-0.23
2021-08-19 20:14:20.540,0.085,-0.22
2021-08-19 20:14:20.544,0.1,-0.235
2021-08-19 20:14:20.548,0.12,-0.24
2021-08-19 20:14:20.552,0.105,-0.21
2021-08-19 20:14:20.556,0.105,-0.22
2021-08-19 20:14:20.560,0.13,-0.225
2021-08-19 20:14:20.564,0.13,-0.215
2021-08-19 20:14:20.568,0.115,-0.22
2021-08-19 20:14:20.572,0.105,-0.22
2021-08-19 20:14:20.576,0.125,-0.22
2021-08-19 20:14:20.580,0.125,-0.205
2021-08-19 20:14:20.584,0.12,-0.22
2021-08-19 20:14:20.588,0.14,-0.225
2021-08-19 20:14:20.592,0.115,-0.235
2021-08-19 20:14:20.596,0.11,-0.24
2021-08-19 20:14:20.600,0.105,-0.25
2021-08-19 20:14:20.604,0.11,-0.235
2021-08-19 20:14:20.608,0.085,-0.23
2021-08-19 20:14:20.612,0.1,-0.235
2021-08-19 20:14:20.616,0.09,-0.23
2021-08-19 20:14:20.620,0.095,-0.24
2021-08-19 20:14:20.624,0.09,-0.215
2021-08-19 20:14:20.628,0.09,-0.225
2021-08-19 20:14:20.632,0.1,-0.235
2021-08-19 20:14:20.636,0.09,-0.25
2021-08-19 20:14:20.640,0.095,-0.24
2021-08-19 20:14:20.644,0.09,-0.255
2021-08-19 20:14:20.648,0.105,-0.26
2021-08-19 20:14:20.652,0.105,-0.26
2021-08-19 20:14:20.656,0.1,-0.255
2021-08-19 20:14:20.660,0.08,-0.245
2021-08-19 20:14:20.664,0.09,-0.255
2021-08-19 20:14:20.668,0.085,-0.255
2021-08-19 20:14:20.672,0.075,-0.265
2021-08-19 20:14:20.676,0.1,-0.24
2021-08-19 20:14:20.680,0.09,-0.24
2021-08-19 20:14:20.684,0.095,-0.255
2021-08-19 20:14:20.688,0.095,-0.28
2021-08-19 20:14:20.692,0.115,-0.255
2021-08-19 20:14:20.696,0.1,-0.26
2021-08-19 20:14:20.700,0.085,-0.265
2021-08-19 20:14:20.704,0.105,-0.25
2021-08-19 20:14:20.708,0.095,-0.245
2021-08-19 20:14:20.712,0.09,-0.245
2021-08-19 20:14:20.716,0.1,-0.26
2021-08-19 20:14:20.720,0.09,-0.25
2021-08-19 20:14:20.724,0.07,-0.25
2021-08-19 20:14:20.728,0.07,-0.23
2021-08-19 20:14:20.732,0.07,-0.25
2021-08-19 20:14:20.736,0.095,-0.255
2021-08-19 20:14:20.740,0.11,-0.27
2021-08-19 20:14:20.744,0.1,-0.26
2021-08-19 20:14:20.748,0.1,-0.255
2021-08-19 20:14:20.752,0.085,-0.24
2021-08-19 20:14:20.756,0.095,-0.25
2021-08-19 20:14:20.760,0.11,-0.215
2021-08-19 20:14:20.764,0.14,-0.225
2021-08-19 20:14:20.768,0.145,-0.215
2021-08-19 20:14:20.772,0.18,-0.195
2021-08-19 20:14:20.776,0.16,-0.205
2021-08-19 20:14:20.780,0.16,-0.205
2021-08-19 20:14:20.784,0.16,-0.175
2021-08-19 20:14:20.788,0.165,-0.19
2021-08-19 20:14:20.792,0.165,-0.21
2021-08-19 20:14:20.796,0.165,-0.245
2021-08-19 20:14:20.800,0.145,-0.26
2021-08-19 20:14:20.804,0.145,-0.255
2021-08-19 20:14:20.808,0.125,-0.235
2021-08-19 20:14:20.812,0.12,-0.25
2021-08-19 20:14:20.816,0.125,-0.255
2021-08-19 20:14:20.820,0.095,-0.26
2021-08-19 20:14:20.824,0.085,-0.26
2021-08-19 20:14:20.828,0.065,-0.255
2021-08-19 20:14:20.832,0.095,-0.275
2021-08-19 20:14:20.836,0.065,-0.28
2021-08-19 20:14:20.840,0.11,-0.275
2021-08-19 20:14:20.844,0.075,-0.28
2021-08-19 20:14:20.848,0.09,-0.28
2021-08-19 20:14:20.852,0.07,-0.26
2021-08-19 20:14:20.856,0.075,-0.29
2021-08-19 20:14:20.860,0.06,-0.29
2021-08-19 20:14:20.864,0.06,-0.29
2021-08-19 20:14:20.868,0.045,-0.3
2021-08-19 20:14:20.872,0.05,-0.275
2021-08-19 20:14:20.876,0.035,-0.285
2021-08-19 20:14:20.880,0.045,-0.31
2021-08-19 20:14:20.884,0.055,-0.3
2021-08-19 20:14:20.888,0.055,-0.255
2021-08-19 20:14:20.892,0.06,-0.21
2021-08-19 20:14:20.896,0.09,-0.065
2021-08-19 20:14:20.900,0.14,0.11
2021-08-19 20:14:20.904,0.155,0.315
2021-08-19 20:14:20.908,0.23,0.495
2021-08-19 20:14:20.912,0.31,0.655
2021-08-19 20:14:20.916,0.34,0.755
2021-08-19 20:14:20.920,0.315,0.69
2021-08-19 20:14:20.924,0.255,0.405
2021-08-19 20:14:20.928,0.195,0.055
2021-08-19 20:14:20.932,0.09,-0.25
2021-08-19 20:14:20.936,-0.15,-0.38
2021-08-19 20:14:20.940,-0.44,-0.425
2021-08-19 20:14:20.944,-0.605,-0.355
2021-08-19 20:14:20.948,-0.61,-0.32
2021-08-19 20:14:20.952,-0.565,-0.31
2021-08-19 20:14:20.956,-0.46,-0.33
2021-08-19 20:14:20.960,-0.31,-0.31
2021-08-19 20:14:20.964,-0.175,-0.32
2021-08-19 20:14:20.968,-0.055,-0.32
2021-08-19 20:14:20.972,0.005,-0.31
2021-08-19 20:14:20.976,0.035,-0.33
2021-08-19 20:14:20.980,0.065,-0.325
2021-08-19 20:14:20.984,0.085,-0.335
2021-08-19 20:14:20.988,0.07,-0.335
2021-08-19 20:14:20.992,0.08,-0.32
2021-08-19 20:14:20.996,0.075,-0.29
2021-08-19 20:14:21.000,0.08,-0.305
2021-08-19 20:14:21.004,0.09,-0.3
2021-08-19 20:14:21.008,0.095,-0.3
2021-08-19 20:14:21.012,0.09,-0.28
2021-08-19 20:14:21.016,0.07,-0.255
2021-08-19 20:14:21.020,0.08,-0.295
2021-08-19 20:14:21.024,0.115,-0.285
2021-08-19 20:14:21.028,0.12,-0.305
2021-08-19 20:14:21.032,0.09,-0.28
2021-08-19 20:14:21.036,0.105,-0.275
2021-08-19 20:14:21.040,0.11,-0.275
2021-08-19 20:14:21.044,0.1,-0.285
2021-08-19 20:14:21.048,0.11,-0.285
2021-08-19 20:14:21.052,0.125,-0.27
2021-08-19 20:14:21.056,0.125,-0.285
2021-08-19 20:14:21.060,0.125,-0.295
2021-08-19 20:14:21.064,0.115,-0.275
2021-08-19 20:14:21.068,0.12,-0.27
2021-08-19 20:14:21.072,0.13,-0.25
2021-08-19 20:14:21.076,0.13,-0.26
2021-08-19 20:14:21.080,0.12,-0.255
2021-08-19 20:14:21.084,0.13,-0.25
2021-08-19 20:14:21.088,0.15,-0.25
2021-08-19 20:14:21.092,0.135,-0.25
2021-08-19 20:14:21.096,0.145,-0.255
2021-08-19 20:14:21.100,0.155,-0.255
2021-08-19 20:14:21.104,0.145,-0.235
2021-08-19 20:14:21.108,0.15,-0.23
2021-08-19 20:14:21.112,0.135,-0.23
2021-08-19 20:14:21.116,0.145,-0.235
2021-08-19 20:14:21.120,0.18,-0.22
2021-08-19 20:14:21.124,0.165,-0.23
2021-08-19 20:14:21.128,0.165,-0.23
2021-08-19 20:14:21.132,0.145,-0.225
2021-08-19 20:14:21.136,0.14,-0.205
2021-08-19 20:14:21.140,0.175,-0.22
2021-08-19 20:14:21.144,0.155,-0.22
2021-08-19 20:14:21.148,0.17,-0.2
2021-08-19 20:14:21.152,0.175,-0.21
2021-08-19 20:14:21.156,0.17,-0.2
2021-08-19 20:14:21.160,0.15,-0.215
2021-08-19 20:14:21.164,0.155,-0.225
2021-08-19 20:14:21.168,0.17,-0.21
2021-08-19 20:14:21.172,0.165,-0.23
2021-08-19 20:14:21.176,0.165,-0.22
2021-08-19 20:14:21.180,0.18,-0.205
2021-08-19 20:14:21.184,0.15,-0.22
2021-08-19 20:14:21.188,0.17,-0.21
2021-08-19 20:14:21.192,0.165,-0.19
2021-08-19 20:14:21.196,0.17,-0.195
2021-08-19 20:14:21.200,0.175,-0.205
2021-08-19 20:14:21.204,0.16,-0.195
2021-08-19 20:14:21.208,0.175,-0.18
2021-08-19 20:14:21.212,0.185,-0.175
2021-08-19 20:14:21.216,0.185,-0.185
2021-08-19 20:14:21.220,0.17,-0.19
2021-08-19 20:14:21.224,0.16,-0.2
2021-08-19 20:14:21.228,0.2,-0.205
2021-08-19 20:14:21.232,0.175,-0.21
2021-08-19 20:14:21.236,0.195,-0.21
2021-08-19 20:14:21.240,0.17,-0.205
2021-08-19 20:14:21.244,0.175,-0.225
2021-08-19 20:14:21.248,0.165,-0.22
2021-08-19 20:14:21.252,0.16,-0.23
2021-08-19 20:14:21.256,0.18,-0.23
2021-08-19 20:14:21.260,0.155,-0.23
2021-08-19 20:14:21.264,0.18,-0.225
2021-08-19 20:14:21.268,0.18,-0.235
2021-08-19 20:14:21.272,0.165,-0.23
2021-08-19 20:14:21.276,0.16,-0.235
2021-08-19 20:14:21.280,0.15,-0.23
2021-08-19 20:14:21.284,0.145,-0.23
2021-08-19 20:14:21.288,0.15,-0.24
2021-08-19 20:14:21.292,0.135,-0.24
2021-08-19 20:14:21.296,0.135,-0.235
2021-08-19 20:14:21.300,0.15,-0.25
2021-08-19 20:14:21.304,0.14,-0.26
2021-08-19 20:14:21.308,0.14,-0.24
2021-08-19 20:14:21.312,0.155,-0.255
2021-08-19 20:14:21.316,0.14,-0.245
2021-08-19 20:14:21.320,0.145,-0.255
2021-08-19 20:14:21.324,0.14,-0.245
2021-08-19 20:14:21.328,0.13,-0.245
2021-08-19 20:14:21.332,0.14,-0.255
2021-08-19 20:14:21.336,0.135,-0.235
2021-08-19 20:14:21.340,0.135,-0.235
2021-08-19 20:14:21.344,0.105,-0.245
2021-08-19 20:14:21.348,0.105,-0.245
2021-08-19 20:14:21.352,0.115,-0.245
2021-08-19 20:14:21.356,0.125,-0.26
2021-08-19 20:14:21.360,0.12,-0.25
2021-08-19 20:14:21.364,0.125,-0.235
2021-08-19 20:14:21.368,0.125,-0.255
2021-08-19 20:14:21.372,0.12,-0.245
2021-08-19 20:14:21.376,0.095,-0.255
2021-08-19 20:14:21.380,0.11,-0.25
2021-08-19 20:14:21.384,0.11,-0.28
2021-08-19 20:14:21.388,0.11,-0.28
2021-08-19 20:14:21.392,0.12,-0.26
2021-08-19 20:14:21.396,0.095,-0.255
2021-08-19 20:14:21.400,0.11,-0.25
2021-08-19 20:14:21.404,0.125,-0.26
2021-08-19 20:14:21.408,0.115,-0.265
2021-08-19 20:14:21.412,0.1,-0.26
2021-08-19 20:14:21.416,0.11,-0.27
2021-08-19 20:14:21.420,0.12,-0.28
2021-08-19 20:14:21.424,0.11,-0.265
2021-08-19 20:14:21.428,0.09,-0.265
2021-08-19 20:14:21.432,0.14,-0.265
2021-08-19 20:14:21.436,0.115,-0.255
2021-08-19 20:14:21.440,0.085,-0.255
2021-08-19 20:14:21.444,0.095,-0.24
2021-08-19 20:14:21.448,0.11,-0.235
2021-08-19 20:14:21.452,0.1,-0.245
2021-08-19 20:14:21.456,0.115,-0.245
2021-08-19 20:14:21.460,0.095,-0.255
2021-08-19 20:14:21.464,0.105,-0.24
2021-08-19 20:14:21.468,0.095,-0.245
2021-08-19 20:14:21.472,0.085,-0.25
2021-08-19 20:14:21.476,0.085,-0.245
2021-08-19 20:14:21.480,0.08,-0.255
2021-08-19 20:14:21.484,0.09,-0.265
2021-08-19 20:14:21.488,0.09,-0.265
2021-08-19 20:14:21.492,0.075,-0.26
2021-08-19 20:14:21.496,0.085,-0.25
2021-08-19 20:14:21.500,0.09,-0.26
2021-08-19 20:14:21.504,0.1,-0.255
2021-08-19 20:14:21.508,0.1,-0.255
2021-08-19 20:14:21.512,0.09,-0.245
2021-08-19 20:14:21.516,0.1,-0.26
2021-08-19 20:14:21.520,0.1,-0.255
2021-08-19 20:14:21.524,0.105,-0.27
2021-08-19 20:14:21.528,0.105,-0.275
2021-08-19 20:14:21.532,0.115,-0.27
2021-08-19 20:14:21.536,0.105,-0.29
2021-08-19 20:14:21.540,0.115,-0.26
2021-08-19 20:14:21.544,0.125,-0.295
2021-08-19 20:14:21.548,0.13,-0.28
2021-08-19 20:14:21.552,0.11,-0.26
2021-08-19 20:14:21.556,0.085,-0.275
2021-08-19 20:14:21.560,0.1,-0.295
2021-08-19 20:14:21.564,0.105,-0.29
2021-08-19 20:14:21.568,0.105,-0.295
2021-08-19 20:14:21.572,0.11,-0.275
2021-08-19 20:14:21.576,0.095,-0.275
2021-08-19 20:14:21.580,0.085,-0.275
2021-08-19 20:14:21.584,0.105,-0.27
2021-08-19 20:14:21.588,0.095,-0.275
2021-08-19 20:14:21.592,0.105,-0.29
2021-08-19 20:14:21.596,0.09,-0.275
2021-08-19 20:14:21.600,0.1,-0.29
2021-08-19 20:14:21.604,0.085,-0.275
2021-08-19 20:14:21.608,0.11,-0.28
2021-08-19 20:14:21.612,0.115,-0.29
2021-08-19 20:14:21.616,0.11,-0.275
2021-08-19 20:14:21.620,0.115,-0.29
2021-08-19 20:14:21.624,0.13,-0.275
2021-08-19 20:14:21.628,0.125,-0.275
2021-08-19 20:14:21.632,0.13,-0.275
2021-08-19 20:14:21.636,0.115,-0.26
2021-08-19 20:14:21.640,0.125,-0.255
2021-08-19 20:14:21.644,0.12,-0.27
2021-08-19 20:14:21.648,0.14,-0.255
2021-08-19 20:14:21.652,0.135,-0.26
2021-08-19 20:14:21.656,0.125,-0.27
2021-08-19 20:14:21.660,0.135,-0.275
2021-08-19 20:14:21.664,0.135,-0.27
2021-08-19 20:14:21.668,0.115,-0.29
2021-08-19 20:14:21.672,0.11,-0.27
2021-08-19 20:14:21.676,0.095,-0.27
2021-08-19 20:14:21.680,0.115,-0.28
2021-08-19 20:14:21.684,0.1,-0.285
2021-08-19 20:14:21.688,0.105,-0.29
2021-08-19 20:14:21.692,0.115,-0.285
2021-08-19 20:14:21.696,0.1,-0.29
2021-08-19 20:14:21.700,0.11,-0.28
2021-08-19 20:14:21.704,0.115,-0.29
2021-08-19 20:14:21.708,0.11,-0.305
2021-08-19 20:14:21.712,0.085,-0.29
2021-08-19 20:14:21.716,0.11,-0.305
2021-08-19 20:14:21.720,0.1,-0.295
2021-08-19 20:14:21.724,0.095,-0.285
2021-08-19 20:14:21.728,0.105,-0.32
2021-08-19 20:14:21.732,0.105,-0.3
2021-08-19 20:14:21.736,0.09,-0.28
2021-08-19 20:14:21.740,0.1,-0.31
2021-08-19 20:14:21.744,0.085,-0.305
2021-08-19 20:14:21.748,0.08,-0.29
2021-08-19 20:14:21.752,0.08,-0.315
2021-08-19 20:14:21.756,0.095,-0.295
2021-08-19 20:14:21.760,0.095,-0.28
2021-08-19 20:14:21.764,0.09,-0.285
2021-08-19 20:14:21.768,0.1,-0.29
2021-08-19 20:14:21.772,0.115,-0.29
2021-08-19 20:14:21.776,0.085,-0.29
2021-08-19 20:14:21.780,0.085,-0.3
2021-08-19 20:14:21.784,0.09,-0.3
2021-08-19 20:14:21.788,0.11,-0.305
2021-08-19 20:14:21.792,0.07,-0.26
2021-08-19 20:14:21.796,0.1,-0.27
2021-08-19 20:14:21.800,0.12,-0.255
2021-08-19 20:14:21.804,0.165,-0.255
2021-08-19 20:14:21.808,0.155,-0.23
2021-08-19 20:14:21.812,0.15,-0.24
2021-08-19 20:14:21.816,0.165,-0.22
2021-08-19 20:14:21.820,0.165,-0.21
2021-08-19 20:14:21.824,0.18,-0.225
2021-08-19 20:14:21.828,0.19,-0.24
2021-08-19 20:14:21.832,0.18,-0.265
2021-08-19 20:14:21.836,0.19,-0.275
2021-08-19 20:14:21.840,0.175,-0.255
2021-08-19 20:14:21.844,0.155,-0.25
2021-08-19 20:14:21.848,0.155,-0.26
2021-08-19 20:14:21.852,0.13,-0.275
2021-08-19 20:14:21.856,0.13,-0.265
2021-08-19 20:14:21.860,0.115,-0.275
2021-08-19 20:14:21.864,0.145,-0.285
2021-08-19 20:14:21.868,0.13,-0.295
2021-08-19 20:14:21.872,0.135,-0.285
2021-08-19 20:14:21.876,0.125,-0.3
2021-08-19 20:14:21.880,0.11,-0.315
2021-08-19 20:14:21.884,0.125,-0.31
2021-08-19 20:14:21.888,0.105,-0.33
2021-08-19 20:14:21.892,0.095,-0.32
2021-08-19 20:14:21.896,0.075,-0.315
2021-08-19 20:14:21.900,0.08,-0.335
2021-08-19 20:14:21.904,0.095,-0.335
2021-08-19 20:14:21.908,0.08,-0.33
2021-08-19 20:14:21.912,0.075,-0.345
2021-08-19 20:14:21.916,0.09,-0.32
2021-08-19 20:14:21.920,0.085,-0.315
2021-08-19 20:14:21.924,0.105,-0.255
2021-08-19 20:14:21.928,0.115,-0.185
2021-08-19 20:14:21.932,0.135,-0.035
2021-08-19 20:14:21.936,0.19,0.145
2021-08-19 20:14:21.940,0.245,0.36
2021-08-19 20:14:21.944,0.31,0.535
2021-08-19 20:14:21.948,0.335,0.66
2021-08-19 20:14:21.952,0.32,0.635
2021-08-19 20:14:21.956,0.28,0.42
2021-08-19 20:14:21.960,0.18,0.08
2021-08-19 20:14:21.964,0.095,-0.2
2021-08-19 20:14:21.968,-0.095,-0.405
2021-08-19 20:14:21.972,-0.385,-0.45
2021-08-19 20:14:21.976,-0.61,-0.4
2021-08-19 20:14:21.980,-0.63,-0.375
2021-08-19 20:14:21.984,-0.555,-0.365
2021-08-19 20:14:21.988,-0.465,-0.33
2021-08-19 20:14:21.992,-0.325,-0.33
2021-08-19 20:14:21.996,-0.16,-0.35
2021-08-19 20:14:22.000,-0.07,-0.335
2021-08-19 20:14:22.004,0.015,-0.35
2021-08-19 20:14:22.008,0.085,-0.35
2021-08-19 20:14:22.012,0.1,-0.345
2021-08-19 20:14:22.016,0.085,-0.335
2021-08-19 20:14:22.020,0.11,-0.365
2021-08-19 20:14:22.024,0.11,-0.35
2021-08-19 20:14:22.028,0.1,-0.35
2021-08-19 20:14:22.032,0.1,-0.34
2021-08-19 20:14:22.036,0.12,-0.34
2021-08-19 20:14:22.040,0.13,-0.335
2021-08-19 20:14:22.044,0.135,-0.32
2021-08-19 20:14:22.048,0.135,-0.35
2021-08-19 20:14:22.052,0.11,-0.325
2021-08-19 20:14:22.056,0.13,-0.305
2021-08-19 20:14:22.060,0.14,-0.325
2021-08-19 20:14:22.064,0.135,-0.305
2021-08-19 20:14:22.068,0.14,-0.31
2021-08-19 20:14:22.072,0.13,-0.33
2021-08-19 20:14:22.076,0.15,-0.335
2021-08-19 20:14:22.080,0.15,-0.325
2021-08-19 20:14:22.084,0.155,-0.32
2021-08-19 20:14:22.088,0.13,-0.315
2021-08-19 20:14:22.092,0.135,-0.315
2021-08-19 20:14:22.096,0.14,-0.32
2021-08-19 20:14:22.100,0.16,-0.315
2021-08-19 20:14:22.104,0.135,-0.31
2021-08-19 20:14:22.108,0.115,-0.295
2021-08-19 20:14:22.112,0.14,-0.305
2021-08-19 20:14:22.116,0.155,-0.285
2021-08-19 20:14:22.120,0.155,-0.3
2021-08-19 20:14:22.124,0.155,-0.315
2021-08-19 20:14:22.128,0.16,-0.3
2021-08-19 20:14:22.132,0.15,-0.3
2021-08-19 20:14:22.136,0.175,-0.3
2021-08-19 20:14:22.140,0.195,-0.29
2021-08-19 20:14:22.144,0.19,-0.295
2021-08-19 20:14:22.148,0.2,-0.28
2021-08-19 20:14:22.152,0.2,-0.275
2021-08-19 20:14:22.156,0.205,-0.275
2021-08-19 20:14:22.160,0.19,-0.265
2021-08-19 20:14:22.164,0.205,-0.25
2021-08-19 20:14:22.168,0.195,-0.245
2021-08-19 20:14:22.172,0.185,-0.26
2021-08-19 20:14:22.176,0.2,-0.26
2021-08-19 20:14:22.180,0.18,-0.245
2021-08-19 20:14:22.184,0.2,-0.22
2021-08-19 20:14:22.188,0.215,-0.24
2021-08-19 20:14:22.192,0.2,-0.24
2021-08-19 20:14:22.196,0.21,-0.25
2021-08-19 20:14:22.200,0.225,-0.245
2021-08-19 20:14:22.204,0.22,-0.23
2021-08-19 20:14:22.208,0.21,-0.25
2021-08-19 20:14:22.212,0.225,-0.23
2021-08-19 20:14:22.216,0.205,-0.215
2021-08-19 20:14:22.220,0.23,-0.21
2021-08-19 20:14:22.224,0.235,-0.215
2021-08-19 20:14:22.228,0.23,-0.21
2021-08-19 20:14:22.232,0.23,-0.205
2021-08-19 20:14:22.236,0.235,-0.21
2021-08-19 20:14:22.240,0.225,-0.235
2021-08-19 20:14:22.244,0.24,-0.22
2021-08-19 20:14:22.248,0.225,-0.225
2021-08-19 20:14:22.252,0.23,-0.225
2021-08-19 20:14:22.256,0.22,-0.23
2021-08-19 20:14:22.260,0.22,-0.24
2021-08-19 20:14:22.264,0.22,-0.25
2021-08-19 20:14:22.268,0.22,-0.255
2021-08-19 20:14:22.272,0.215,-0.275
2021-08-19 20:14:22.276,0.195,-0.285
2021-08-19 20:14:22.280,0.195,-0.29
2021-08-19 20:14:22.284,0.18,-0.29
2021-08-19 20:14:22.288,0.175,-0.275
2021-08-19 20:14:22.292,0.17,-0.285
2021-08-19 20:14:22.296,0.185,-0.275
2021-08-19 20:14:22.300,0.165,-0.3
2021-08-19 20:14:22.304,0.185,-0.27
2021-08-19 20:14:22.308,0.16,-0.265
2021-08-19 20:14:22.312,0.155,-0.285
2021-08-19 20:14:22.316,0.155,-0.28
2021-08-19 20:14:22.320,0.18,-0.29
2021-08-19 20:14:22.324,0.175,-0.29
2021-08-19 20:14:22.328,0.165,-0.285
2021-08-19 20:14:22.332,0.195,-0.3
2021-08-19 20:14:22.336,0.185,-0.28
2021-08-19 20:14:22.340,0.155,-0.31
2021-08-19 20:14:22.344,0.16,-0.29
2021-08-19 20:14:22.348,0.14,-0.28
2021-08-19 20:14:22.352,0.18,-0.27
2021-08-19 20:14:22.356,0.18,-0.265
2021-08-19 20:14:22.360,0.19,-0.275
2021-08-19 20:14:22.364,0.165,-0.28
2021-08-19 20:14:22.368,0.155,-0.27
2021-08-19 20:14:22.372,0.16,-0.265
2021-08-19 20:14:22.376,0.175,-0.27
2021-08-19 20:14:22.380,0.145,-0.275
2021-08-19 20:14:22.384,0.165,-0.275
2021-08-19 20:14:22.388,0.165,-0.29
2021-08-19 20:14:22.392,0.165,-0.285
2021-08-19 20:14:22.396,0.19,-0.285
2021-08-19 20:14:22.400,0.165,-0.295
2021-08-19 20:14:22.404,0.165,-0.28
2021-08-19 20:14:22.408,0.17,-0.265
2021-08-19 20:14:22.412,0.15,-0.275
2021-08-19 20:14:22.416,0.16,-0.28
2021-08-19 20:14:22.420,0.135,-0.265
2021-08-19 20:14:22.424,0.12,-0.26
2021-08-19 20:14:22.428,0.15,-0.275
2021-08-19 20:14:22.432,0.135,-0.28
2021-08-19 20:14:22.436,0.15,-0.28
2021-08-19 20:14:22.440,0.115,-0.28
2021-08-19 20:14:22.444,0.145,-0.28
2021-08-19 20:14:22.448,0.12,-0.26
2021-08-19 20:14:22.452,0.135,-0.265
2021-08-19 20:14:22.456,0.135,-0.27
2021-08-19 20:14:22.460,0.12,-0.285
2021-08-19 20:14:22.464,0.12,-0.27
2021-08-19 20:14:22.468,0.125,-0.275
2021-08-19 20:14:22.472,0.12,-0.27
2021-08-19 20:14:22.476,0.12,-0.26
2021-08-19 20:14:22.480,0.13,-0.29
2021-08-19 20:14:22.484,0.085,-0.285
2021-08-19 20:14:22.488,0.095,-0.28
2021-08-19 20:14:22.492,0.095,-0.275
2021-08-19 20:14:22.496,0.11,-0.28
2021-08-19 20:14:22.500,0.125,-0.285
2021-08-19 20:14:22.504,0.095,-0.27
2021-08-19 20:14:22.508,0.1,-0.285
2021-08-19 20:14:22.512,0.11,-0.28
2021-08-19 20:14:22.516,0.105,-0.305
2021-08-19 20:14:22.520,0.1,-0.275
2021-08-19 20:14:22.524,0.1,-0.26
2021-08-19 20:14:22.528,0.1,-0.265
2021-08-19 20:14:22.532,0.1,-0.27
2021-08-19 20:14:22.536,0.09,-0.255
2021-08-19 20:14:22.540,0.115,-0.265
2021-08-19 20:14:22.544,0.1,-0.27
2021-08-19 20:14:22.548,0.11,-0.28
2021-08-19 20:14:22.552,0.105,-0.29
2021-08-19 20:14:22.556,0.12,-0.275
2021-08-19 20:14:22.560,0.105,-0.255
2021-08-19 20:14:22.564,0.135,-0.275
2021-08-19 20:14:22.568,0.13,-0.275
2021-08-19 20:14:22.572,0.12,-0.275
2021-08-19 20:14:22.576,0.14,-0.27
2021-08-19 20:14:22.580,0.115,-0.275
2021-08-19 20:14:22.584,0.115,-0.29
2021-08-19 20:14:22.588,0.13,-0.265
2021-08-19 20:14:22.592,0.115,-0.28
2021-08-19 20:14:22.596,0.11,-0.285
2021-08-19 20:14:22.600,0.13,-0.29
2021-08-19 20:14:22.604,0.12,-0.28
2021-08-19 20:14:22.608,0.145,-0.3
2021-08-19 20:14:22.612,0.13,-0.3
2021-08-19 20:14:22.616,0.145,-0.305
2021-08-19 20:14:22.620,0.135,-0.295
2021-08-19 20:14:22.624,0.145,-0.305
2021-08-19 20:14:22.628,0.13,-0.29
2021-08-19 20:14:22.632,0.14,-0.3
2021-08-19 20:14:22.636,0.145,-0.295
2021-08-19 20:14:22.640,0.14,-0.3
2021-08-19 20:14:22.644,0.13,-0.295
2021-08-19 20:14:22.648,0.14,-0.295
2021-08-19 20:14:22.652,0.135,-0.275
2021-08-19 20:14:22.656,0.125,-0.29
2021-08-19 20:14:22.660,0.115,-0.295
2021-08-19 20:14:22.664,0.14,-0.31
2021-08-19 20:14:22.668,0.145,-0.295
2021-08-19 20:14:22.672,0.125,-0.3
2021-08-19 20:14:22.676,0.13,-0.315
2021-08-19 20:14:22.680,0.12,-0.315
2021-08-19 20:14:22.684,0.13,-0.3
2021-08-19 20:14:22.688,0.125,-0.305
2021-08-19 20:14:22.692,0.12,-0.305
2021-08-19 20:14:22.696,0.11,-0.295
2021-08-19 20:14:22.700,0.105,-0.3
2021-08-19 20:14:22.704,0.115,-0.295
2021-08-19 20:14:22.708,0.115,-0.28
2021-08-19 20:14:22.712,0.11,-0.29
2021-08-19 20:14:22.716,0.11,-0.29
2021-08-19 20:14:22.720,0.13,-0.26
2021-08-19 20:14:22.724,0.11,-0.28
2021-08-19 20:14:22.728,0.12,-0.305
2021-08-19 20:14:22.732,0.12,-0.285
2021-08-19 20:14:22.736,0.105,-0.295
2021-08-19 20:14:22.740,0.12,-0.295
2021-08-19 20:14:22.744,0.1,-0.29
2021-08-19 20:14:22.748,0.115,-0.305
2021-08-19 20:14:22.752,0.12,-0.305
2021-08-19 20:14:22.756,0.115,-0.305
2021-08-19 20:14:22.760,0.11,-0.3
2021-08-19 20:14:22.764,0.115,-0.32
2021-08-19 20:14:22.768,0.12,-0.29
2021-08-19 20:14:22.772,0.13,-0.29
2021-08-19 20:14:22.776,0.13,-0.295
2021-08-19 20:14:22.780,0.13,-0.305
2021-08-19 20:14:22.784,0.125,-0.305
2021-08-19 20:14:22.788,0.1,-0.33
2021-08-19 20:14:22.792,0.12,-0.33
2021-08-19 20:14:22.796,0.115,-0.325
2021-08-19 20:14:22.800,0.12,-0.315
2021-08-19 20:14:22.804,0.1,-0.33
2021-08-19 20:14:22.808,0.115,-0.315
2021-08-19 20:14:22.812,0.135,-0.315
2021-08-19 20:14:22.816,0.155,-0.305
2021-08-19 20:14:22.820,0.155,-0.3
2021-08-19 20:14:22.824,0.185,-0.28
2021-08-19 20:14:22.828,0.17,-0.27
2021-08-19 20:14:22.832,0.19,-0.235
2021-08-19 20:14:22.836,0.18,-0.255
2021-08-19 20:14:22.840,0.2,-0.25
2021-08-19 20:14:22.844,0.215,-0.26
2021-08-19 20:14:22.848,0.205,-0.25
2021-08-19 20:14:22.852,0.21,-0.285
2021-08-19 20:14:22.856,0.22,-0.295
2021-08-19 20:14:22.860,0.19,-0.295
2021-08-19 20:14:22.864,0.18,-0.295
2021-08-19 20:14:22.868,0.155,-0.315
2021-08-19 20:14:22.872,0.19,-0.305
2021-08-19 20:14:22.876,0.17,-0.305
2021-08-19 20:14:22.880,0.155,-0.315
2021-08-19 20:14:22.884,0.165,-0.33
2021-08-19 20:14:22.888,0.195,-0.345
2021-08-19 20:14:22.892,0.175,-0.335
2021-08-19 20:14:22.896,0.165,-0.32
2021-08-19 20:14:22.900,0.155,-0.295
2021-08-19 20:14:22.904,0.175,-0.31
2021-08-19 20:14:22.908,0.175,-0.305
2021-08-19 20:14:22.912,0.165,-0.33
2021-08-19 20:14:22.916,0.16,-0.34
2021-08-19 20:14:22.920,0.155,-0.315
2021-08-19 20:14:22.924,0.135,-0.33
2021-08-19 20:14:22.928,0.135,-0.335
2021-08-19 20:14:22.932,0.125,-0.345
2021-08-19 20:14:22.936,0.125,-0.32
2021-08-19 20:14:22.940,0.125,-0.305
2021-08-19 20:14:22.944,0.13,-0.26
2021-08-19 20:14:22.948,0.17,-0.18
2021-08-19 20:14:22.952,0.185,-0.03
2021-08-19 20:14:22.956,0.25,0.145
2021-08-19 20:14:22.960,0.31,0.35
2021-08-19 20:14:22.964,0.385,0.525
2021-08-19 20:14:22.968,0.39,0.63
2021-08-19 20:14:22.972,0.4,0.545
2021-08-19 20:14:22.976,0.325,0.28
2021-08-19 20:14:22.980,0.24,-0.045
2021-08-19 20:14:22.984,0.115,-0.315
2021-08-19 20:14:22.988,-0.125,-0.46
2021-08-19 20:14:22.992,-0.41,-0.47
2021-08-19 20:14:22.996,-0.56,-0.425
2021-08-19 20:14:23.000,-0.57,-0.395
2021-08-19 20:14:23.004,-0.475,-0.38
2021-08-19 20:14:23.008,-0.365,-0.38
2021-08-19 20:14:23.012,-0.2,-0.37
2021-08-19 20:14:23.016,-0.095,-0.38
2021-08-19 20:14:23.020,0.015,-0.37
2021-08-19 20:14:23.024,0.075,-0.365
2021-08-19 20:14:23.028,0.145,-0.39
2021-08-19 20:14:23.032,0.145,-0.39
2021-08-19 20:14:23.036,0.165,-0.385
2021-08-19 20:14:23.040,0.15,-0.385
2021-08-19 20:14:23.044,0.15,-0.365
2021-08-19 20:14:23.048,0.175,-0.365
2021-08-19 20:14:23.052,0.165,-0.365
2021-08-19 20:14:23.056,0.17,-0.325
2021-08-19 20:14:23.060,0.175,-0.335
2021-08-19 20:14:23.064,0.17,-0.35
2021-08-19 20:14:23.068,0.175,-0.34
2021-08-19 20:14:23.072,0.17,-0.345
2021-08-19 20:14:23.076,0.16,-0.33
2021-08-19 20:14:23.080,0.145,-0.33
2021-08-19 20:14:23.084,0.17,-0.31
2021-08-19 20:14:23.088,0.19,-0.315
2021-08-19 20:14:23.092,0.2,-0.31
2021-08-19 20:14:23.096,0.195,-0.32
2021-08-19 20:14:23.100,0.19,-0.31
2021-08-19 20:14:23.104,0.185,-0.315
2021-08-19 20:14:23.108,0.19,-0.305
2021-08-19 20:14:23.112,0.185,-0.325
2021-08-19 20:14:23.116,0.18,-0.32
2021-08-19 20:14:23.120,0.185,-0.305
2021-08-19 20:14:23.124,0.19,-0.32
2021-08-19 20:14:23.128,0.175,-0.295
2021-08-19 20:14:23.132,0.19,-0.315
2021-08-19 20:14:23.136,0.215,-0.3
2021-08-19 20:14:23.140,0.22,-0.31
2021-08-19 20:14:23.144,0.225,-0.305
2021-08-19 20:14:23.148,0.24,-0.3
2021-08-19 20:14:23.152,0.23,-0.305
2021-08-19 20:14:23.156,0.23,-0.3
2021-08-19 20:14:23.160,0.255,-0.295
2021-08-19 20:14:23.164,0.245,-0.29
2021-08-19 20:14:23.168,0.2,-0.305
2021-08-19 20:14:23.172,0.19,-0.305
2021-08-19 20:14:23.176,0.235,-0.3
2021-08-19 20:14:23.180,0.23,-0.29
2021-08-19 20:14:23.184,0.255,-0.305
2021-08-19 20:14:23.188,0.24,-0.29
2021-08-19 20:14:23.192,0.23,-0.27
2021-08-19 20:14:23.196,0.23,-0.265
2021-08-19 20:14:23.200,0.25,-0.29
2021-08-19 20:14:23.204,0.24,-0.29
2021-08-19 20:14:23.208,0.25,-0.28
2021-08-19 20:14:23.212,0.28,-0.265
2021-08-19 20:14:23.216,0.25,-0.27
2021-08-19 20:14:23.220,0.24,-0.275
2021-08-19 20:14:23.224,0.245,-0.28
2021-08-19 20:14:23.228,0.225,-0.285
2021-08-19 20:14:23.232,0.235,-0.285
2021-08-19 20:14:23.236,0.26,-0.26
2021-08-19 20:14:23.240,0.25,-0.265
2021-08-19 20:14:23.244,0.255,-0.25
2021-08-19 20:14:23.248,0.245,-0.22
2021-08-19 20:14:23.252,0.26,-0.22
2021-08-19 20:14:23.256,0.27,-0.24
2021-08-19 20:14:23.260,0.29,-0.22
2021-08-19 20:14:23.264,0.28,-0.245
2021-08-19 20:14:23.268,0.27,-0.255
2021-08-19 20:14:23.272,0.26,-0.255
2021-08-19 20:14:23.276,0.255,-0.24
2021-08-19 20:14:23.280,0.25,-0.25
2021-08-19 20:14:23.284,0.26,-0.26
2021-08-19 20:14:23.288,0.265,-0.285
2021-08-19 20:14:23.292,0.27,-0.29
2021-08-19 20:14:23.296,0.24,-0.305
2021-08-19 20:14:23.300,0.255,-0.3
2021-08-19 20:14:23.304,0.235,-0.3
2021-08-19 20:14:23.308,0.235,-0.305
2021-08-19 20:14:23.312,0.225,-0.315
2021-08-19 20:14:23.316,0.21,-0.34
2021-08-19 20:14:23.320,0.22,-0.34
2021-08-19 20:14:23.324,0.215,-0.33
2021-08-19 20:14:23.328,0.215,-0.365
2021-08-19 20:14:23.332,0.205,-0.335
2021-08-19 20:14:23.336,0.205,-0.315
2021-08-19 20:14:23.340,0.2,-0.305
2021-08-19 20:14:23.344,0.215,-0.32
2021-08-19 20:14:23.348,0.22,-0.315
2021-08-19 20:14:23.352,0.23,-0.32
2021-08-19 20:14:23.356,0.2,-0.335
2021-08-19 20:14:23.360,0.195,-0.32
2021-08-19 20:14:23.364,0.195,-0.34
2021-08-19 20:14:23.368,0.205,-0.32
2021-08-19 20:14:23.372,0.195,-0.335
2021-08-19 20:14:23.376,0.19,-0.32
2021-08-19 20:14:23.380,0.19,-0.32
2021-08-19 20:14:23.384,0.21,-0.33
2021-08-19 20:14:23.388,0.23,-0.32
2021-08-19 20:14:23.392,0.225,-0.315
2021-08-19 20:14:23.396,0.2,-0.315
2021-08-19 20:14:23.400,0.205,-0.325
2021-08-19 20:14:23.404,0.195,-0.33
2021-08-19 20:14:23.408,0.205,-0.33
2021-08-19 20:14:23.412,0.2,-0.315
2021-08-19 20:14:23.416,0.2,-0.295
2021-08-19 20:14:23.420,0.195,-0.31
2021-08-19 20:14:23.424,0.195,-0.31
2021-08-19 20:14:23.428,0.2,-0.32
2021-08-19 20:14:23.432,0.185,-0.315
2021-08-19 20:14:23.436,0.18,-0.32
2021-08-19 20:14:23.440,0.18,-0.305
2021-08-19 20:14:23.444,0.19,-0.315
2021-08-19 20:14:23.448,0.21,-0.29
2021-08-19 20:14:23.452,0.21,-0.295
2021-08-19 20:14:23.456,0.22,-0.305
2021-08-19 20:14:23.460,0.21,-0.305
2021-08-19 20:14:23.464,0.215,-0.315
2021-08-19 20:14:23.468,0.22,-0.305
2021-08-19 20:14:23.472,0.225,-0.3
2021-08-19 20:14:23.476,0.2,-0.3
2021-08-19 20:14:23.480,0.215,-0.31
2021-08-19 20:14:23.484,0.195,-0.29
2021-08-19 20:14:23.488,0.195,-0.29
2021-08-19 20:14:23.492,0.205,-0.31
2021-08-19 20:14:23.496,0.19,-0.31
2021-08-19 20:14:23.500,0.185,-0.295
2021-08-19 20:14:23.504,0.17,-0.325
2021-08-19 20:14:23.508,0.195,-0.32
2021-08-19 20:14:23.512,0.205,-0.32
2021-08-19 20:14:23.516,0.185,-0.34
2021-08-19 20:14:23.520,0.185,-0.32
2021-08-19 20:14:23.524,0.195,-0.315
2021-08-19 20:14:23.528,0.22,-0.325
2021-08-19 20:14:23.532,0.19,-0.335
2021-08-19 20:14:23.536,0.18,-0.33
2021-08-19 20:14:23.540,0.18,-0.33
2021-08-19 20:14:23.544,0.175,-0.33
2021-08-19 20:14:23.548,0.18,-0.305
2021-08-19 20:14:23.552,0.195,-0.315
2021-08-19 20:14:23.556,0.185,-0.32
2021-08-19 20:14:23.560,0.185,-0.315
2021-08-19 20:14:23.564,0.19,-0.32
2021-08-19 20:14:23.568,0.175,-0.33
2021-08-19 20:14:23.572,0.19,-0.32
2021-08-19 20:14:23.576,0.175,-0.315
2021-08-19 20:14:23.580,0.19,-0.325
2021-08-19 20:14:23.584,0.195,-0.33
2021-08-19 20:14:23.588,0.2,-0.32
2021-08-19 20:14:23.592,0.215,-0.3
2021-08-19 20:14:23.596,0.22,-0.3
2021-08-19 20:14:23.600,0.235,-0.3
2021-08-19 20:14:23.604,0.195,-0.29
2021-08-19 20:14:23.608,0.2,-0.295
2021-08-19 20:14:23.612,0.19,-0.295
2021-08-19 20:14:23.616,0.195,-0.315
2021-08-19 20:14:23.620,0.21,-0.32
2021-08-19 20:14:23.624,0.19,-0.31
2021-08-19 20:14:23.628,0.19,-0.31
2021-08-19 20:14:23.632,0.17,-0.305
2021-08-19 20:14:23.636,0.19,-0.285
2021-08-19 20:14:23.640,0.175,-0.295
2021-08-19 20:14:23.644,0.2,-0.285
2021-08-19 20:14:23.648,0.21,-0.3
2021-08-19 20:14:23.652,0.185,-0.305
2021-08-19 20:14:23.656,0.185,-0.295
2021-08-19 20:14:23.660,0.185,-0.305
2021-08-19 20:14:23.664,0.175,-0.3
2021-08-19 20:14:23.668,0.175,-0.295
2021-08-19 20:14:23.672,0.18,-0.32
2021-08-19 20:14:23.676,0.18,-0.32
2021-08-19 20:14:23.680,0.205,-0.33
2021-08-19 20:14:23.684,0.195,-0.33
2021-08-19 20:14:23.688,0.19,-0.335
2021-08-19 20:14:23.692,0.195,-0.345
2021-08-19 20:14:23.696,0.185,-0.35
2021-08-19 20:14:23.700,0.18,-0.32
2021-08-19 20:14:23.704,0.19,-0.335
2021-08-19 20:14:23.708,0.185,-0.32
2021-08-19 20:14:23.712,0.18,-0.335
2021-08-19 20:14:23.716,0.165,-0.325
2021-08-19 20:14:23.720,0.155,-0.31
2021-08-19 20:14:23.724,0.155,-0.32
2021-08-19 20:14:23.728,0.175,-0.335
2021-08-19 20:14:23.732,0.19,-0.32
2021-08-19 20:14:23.736,0.195,-0.33
2021-08-19 20:14:23.740,0.165,-0.335
2021-08-19 20:14:23.744,0.17,-0.33
2021-08-19 20:14:23.748,0.175,-0.34
2021-08-19 20:14:23.752,0.195,-0.345
2021-08-19 20:14:23.756,0.175,-0.35
2021-08-19 20:14:23.760,0.175,-0.33
2021-08-19 20:14:23.764,0.195,-0.33
2021-08-19 20:14:23.768,0.17,-0.3
2021-08-19 20:14:23.772,0.195,-0.31
2021-08-19 20:14:23.776,0.18,-0.3
2021-08-19 20:14:23.780,0.2,-0.305
2021-08-19 20:14:23.784,0.175,-0.31
2021-08-19 20:14:23.788,0.19,-0.31
2021-08-19 20:14:23.792,0.19,-0.32
2021-08-19 20:14:23.796,0.2,-0.3
2021-08-19 20:14:23.800,0.19,-0.325
2021-08-19 20:14:23.804,0.205,-0.32
2021-08-19 20:14:23.808,0.215,-0.32
2021-08-19 20:14:23.812,0.195,-0.325
2021-08-19 20:14:23.816,0.18,-0.315
2021-08-19 20:14:23.820,0.15,-0.32
2021-08-19 20:14:23.824,0.165,-0.29
2021-08-19 20:14:23.828,0.205,-0.28
2021-08-19 20:14:23.832,0.22,-0.26
2021-08-19 20:14:23.836,0.215,-0.265
2021-08-19 20:14:23.840,0.21,-0.25
2021-08-19 20:14:23.844,0.235,-0.235
2021-08-19 20:14:23.848,0.245,-0.24
2021-08-19 20:14:23.852,0.25,-0.225
2021-08-19 20:14:23.856,0.255,-0.265
2021-08-19 20:14:23.860,0.23,-0.295
2021-08-19 20:14:23.864,0.265,-0.305
2021-08-19 20:14:23.868,0.28,-0.31
2021-08-19 20:14:23.872,0.275,-0.3
2021-08-19 20:14:23.876,0.24,-0.295
2021-08-19 20:14:23.880,0.235,-0.29
2021-08-19 20:14:23.884,0.22,-0.295
2021-08-19 20:14:23.888,0.22,-0.3
2021-08-19 20:14:23.892,0.21,-0.28
2021-08-19 20:14:23.896,0.195,-0.295
2021-08-19 20:14:23.900,0.2,-0.32
2021-08-19 20:14:23.904,0.195,-0.32
2021-08-19 20:14:23.908,0.205,-0.32
2021-08-19 20:14:23.912,0.175,-0.325
2021-08-19 20:14:23.916,0.165,-0.31
2021-08-19 20:14:23.920,0.17,-0.32
2021-08-19 20:14:23.924,0.175,-0.31
2021-08-19 20:14:23.928,0.16,-0.315
2021-08-19 20:14:23.932,0.165,-0.32
2021-08-19 20:14:23.936,0.185,-0.335
2021-08-19 20:14:23.940,0.17,-0.34
2021-08-19 20:14:23.944,0.165,-0.345
2021-08-19 20:14:23.948,0.155,-0.345
2021-08-19 20:14:23.952,0.155,-0.32
2021-08-19 20:14:23.956,0.185,-0.265
2021-08-19 20:14:23.960,0.215,-0.17
2021-08-19 20:14:23.964,0.225,-0.035
2021-08-19 20:14:23.968,0.26,0.15
2021-08-19 20:14:23.972,0.28,0.375
2021-08-19 20:14:23.976,0.36,0.545
2021-08-19 20:14:23.980,0.435,0.67
2021-08-19 20:14:23.984,0.445,0.69
2021-08-19 20:14:23.988,0.41,0.5
2021-08-19 20:14:23.992,0.345,0.18
2021-08-19 20:14:23.996,0.26,-0.17
2021-08-19 20:14:24.000,0.1,-0.39
2021-08-19 20:14:24.004,-0.16,-0.46
2021-08-19 20:14:24.008,-0.435,-0.425
2021-08-19 20:14:24.012,-0.525,-0.37
2021-08-19 20:14:24.016,-0.51,-0.355
2021-08-19 20:14:24.020,-0.435,-0.35
2021-08-19 20:14:24.024,-0.305,-0.345
2021-08-19 20:14:24.028,-0.155,-0.355
2021-08-19 20:14:24.032,-0.025,-0.365
2021-08-19 20:14:24.036,0.07,-0.345
2021-08-19 20:14:24.040,0.1,-0.34
2021-08-19 20:14:24.044,0.165,-0.36
2021-08-19 20:14:24.048,0.185,-0.36
2021-08-19 20:14:24.052,0.17,-0.345
2021-08-19 20:14:24.056,0.16,-0.35
2021-08-19 20:14:24.060,0.17,-0.355
2021-08-19 20:14:24.064,0.155,-0.34
2021-08-19 20:14:24.068,0.165,-0.35
2021-08-19 20:14:24.072,0.18,-0.34
2021-08-19 20:14:24.076,0.19,-0.345
2021-08-19 20:14:24.080,0.18,-0.345
2021-08-19 20:14:24.084,0.185,-0.335
2021-08-19 20:14:24.088,0.19,-0.315
2021-08-19 20:14:24.092,0.185,-0.345
2021-08-19 20:14:24.096,0.21,-0.32
2021-08-19 20:14:24.100,0.225,-0.33
2021-08-19 20:14:24.104,0.205,-0.32
2021-08-19 20:14:24.108,0.225,-0.305
2021-08-19 20:14:24.112,0.225,-0.31
2021-08-19 20:14:24.116,0.21,-0.32
2021-08-19 20:14:24.120,0.225,-0.31
2021-08-19 20:14:24.124,0.2,-0.32
2021-08-19 20:14:24.128,0.215,-0.335
2021-08-19 20:14:24.132,0.21,-0.335
2021-08-19 20:14:24.136,0.22,-0.305
2021-08-19 20:14:24.140,0.24,-0.29
2021-08-19 20:14:24.144,0.25,-0.3
2021-08-19 20:14:24.148,0.245,-0.275
2021-08-19 20:14:24.152,0.255,-0.28
2021-08-19 20:14:24.156,0.255,-0.265
2021-08-19 20:14:24.160,0.24,-0.26
2021-08-19 20:14:24.164,0.26,-0.265
2021-08-19 20:14:24.168,0.235,-0.26
2021-08-19 20:14:24.172,0.26,-0.26
2021-08-19 20:14:24.176,0.265,-0.26
2021-08-19 20:14:24.180,0.24,-0.27
2021-08-19 20:14:24.184,0.255,-0.27
2021-08-19 20:14:24.188,0.265,-0.24
2021-08-19 20:14:24.192,0.27,-0.24
2021-08-19 20:14:24.196,0.285,-0.26
2021-08-19 20:14:24.200,0.27,-0.265
2021-08-19 20:14:24.204,0.285,-0.245
2021-08-19 20:14:24.208,0.26,-0.24
2021-08-19 20:14:24.212,0.265,-0.23
2021-08-19 20:14:24.216,0.3,-0.245
2021-08-19 20:14:24.220,0.28,-0.25
2021-08-19 20:14:24.224,0.275,-0.23
2021-08-19 20:14:24.228,0.26,-0.25
2021-08-19 20:14:24.232,0.255,-0.27
2021-08-19 20:14:24.236,0.265,-0.26
2021-08-19 20:14:24.240,0.26,-0.245
2021-08-19 20:14:24.244,0.26,-0.235
2021-08-19 20:14:24.248,0.255,-0.245
2021-08-19 20:14:24.252,0.24,-0.23
2021-08-19 20:14:24.256,0.255,-0.215
2021-08-19 20:14:24.260,0.26,-0.23
2021-08-19 20:14:24.264,0.26,-0.2
2021-08-19 20:14:24.268,0.265,-0.2
2021-08-19 20:14:24.272,0.275,-0.215
2021-08-19 20:14:24.276,0.285,-0.2
2021-08-19 20:14:24.280,0.285,-0.205
2021-08-19 20:14:24.284,0.3,-0.175
2021-08-19 20:14:24.288,0.295,-0.21
2021-08-19 20:14:24.292,0.28,-0.22
2021-08-19 20:14:24.296,0.285,-0.22
2021-08-19 20:14:24.300,0.285,-0.23
2021-08-19 20:14:24.304,0.275,-0.235
2021-08-19 20:14:24.308,0.27,-0.22
2021-08-19 20:14:24.312,0.28,-0.21
2021-08-19 20:14:24.316,0.27,-0.21
2021-08-19 20:14:24.320,0.27,-0.225
2021-08-19 20:14:24.324,0.275,-0.23
2021-08-19 20:14:24.328,0.27,-0.23
2021-08-19 20:14:24.332,0.26,-0.245
2021-08-19 20:14:24.336,0.265,-0.23
2021-08-19 20:14:24.340,0.235,-0.26
2021-08-19 20:14:24.344,0.225,-0.24
2021-08-19 20:14:24.348,0.22,-0.245
2021-08-19 20:14:24.352,0.255,-0.245
2021-08-19 20:14:24.356,0.25,-0.225
2021-08-19 20:14:24.360,0.245,-0.25
2021-08-19 20:14:24.364,0.245,-0.26
2021-08-19 20:14:24.368,0.23,-0.25
2021-08-19 20:14:24.372,0.26,-0.25
2021-08-19 20:14:24.376,0.235,-0.25
2021-08-19 20:14:24.380,0.265,-0.26
2021-08-19 20:14:24.384,0.25,-0.255
2021-08-19 20:14:24.388,0.27,-0.275
2021-08-19 20:14:24.392,0.255,-0.25
2021-08-19 20:14:24.396,0.245,-0.255
2021-08-19 20:14:24.400,0.24,-0.255
2021-08-19 20:14:24.404,0.255,-0.26
2021-08-19 20:14:24.408,0.25,-0.265
2021-08-19 20:14:24.412,0.225,-0.245
2021-08-19 20:14:24.416,0.255,-0.265
2021-08-19 20:14:24.420,0.23,-0.275
2021-08-19 20:14:24.424,0.205,-0.27
2021-08-19 20:14:24.428,0.215,-0.265
2021-08-19 20:14:24.432,0.22,-0.275
2021-08-19 20:14:24.436,0.22,-0.265
2021-08-19 20:14:24.440,0.225,-0.255
2021-08-19 20:14:24.444,0.24,-0.255
2021-08-19 20:14:24.448,0.225,-0.275
2021-08-19 20:14:24.452,0.2,-0.265
2021-08-19 20:14:24.456,0.225,-0.25
2021-08-19 20:14:24.460,0.225,-0.26
2021-08-19 20:14:24.464,0.215,-0.265
2021-08-19 20:14:24.468,0.225,-0.255
2021-08-19 20:14:24.472,0.22,-0.265
2021-08-19 20:14:24.476,0.235,-0.265
2021-08-19 20:14:24.480,0.245,-0.265
2021-08-19 20:14:24.484,0.205,-0.255
2021-08-19 20:14:24.488,0.22,-0.235
2021-08-19 20:14:24.492,0.22,-0.255
2021-08-19 20:14:24.496,0.23,-0.25
2021-08-19 20:14:24.500,0.25,-0.26
2021-08-19 20:14:24.504,0.23,-0.245
2021-08-19 20:14:24.508,0.22,-0.23
2021-08-19 20:14:24.512,0.225,-0.225
2021-08-19 20:14:24.516,0.22,-0.245
2021-08-19 20:14:24.520,0.225,-0.26
2021-08-19 20:14:24.524,0.225,-0.235
2021-08-19 20:14:24.528,0.215,-0.245
2021-08-19 20:14:24.532,0.225,-0.24
2021-08-19 20:14:24.536,0.235,-0.225
2021-08-19 20:14:24.540,0.225,-0.225
2021-08-19 20:14:24.544,0.23,-0.24
2021-08-19 20:14:24.548,0.215,-0.24
2021-08-19 20:14:24.552,0.215,-0.25
2021-08-19 20:14:24.556,0.225,-0.26
2021-08-19 20:14:24.560,0.235,-0.24
2021-08-19 20:14:24.564,0.225,-0.255
2021-08-19 20:14:24.568,0.215,-0.235
2021-08-19 20:14:24.572,0.22,-0.25
2021-08-19 20:14:24.576,0.225,-0.24
2021-08-19 20:14:24.580,0.2,-0.26
2021-08-19 20:14:24.584,0.2,-0.25
2021-08-19 20:14:24.588,0.205,-0.255
2021-08-19 20:14:24.592,0.21,-0.265
2021-08-19 20:14:24.596,0.205,-0.275
2021-08-19 20:14:24.600,0.18,-0.26
2021-08-19 20:14:24.604,0.19,-0.27
2021-08-19 20:14:24.608,0.185,-0.25
2021-08-19 20:14:24.612,0.18,-0.255
2021-08-19 20:14:24.616,0.2,-0.255
2021-08-19 20:14:24.620,0.21,-0.25
2021-08-19 20:14:24.624,0.225,-0.255
2021-08-19 20:14:24.628,0.185,-0.26
2021-08-19 20:14:24.632,0.195,-0.285
2021-08-19 20:14:24.636,0.175,-0.265
2021-08-19 20:14:24.640,0.185,-0.265
2021-08-19 20:14:24.644,0.195,-0.25
2021-08-19 20:14:24.648,0.195,-0.265
2021-08-19 20:14:24.652,0.2,-0.24
2021-08-19 20:14:24.656,0.215,-0.26
2021-08-19 20:14:24.660,0.195,-0.26
2021-08-19 20:14:24.664,0.205,-0.245
2021-08-19 20:14:24.668,0.19,-0.25
2021-08-19 20:14:24.672,0.205,-0.27
2021-08-19 20:14:24.676,0.21,-0.25
2021-08-19 20:14:24.680,0.2,-0.25
2021-08-19 20:14:24.684,0.2,-0.25
2021-08-19 20:14:24.688,0.19,-0.245
2021-08-19 20:14:24.692,0.195,-0.25
2021-08-19 20:14:24.696,0.22,-0.25
2021-08-19 20:14:24.700,0.205,-0.255
2021-08-19 20:14:24.704,0.2,-0.265
2021-08-19 20:14:24.708,0.215,-0.26
2021-08-19 20:14:24.712,0.205,-0.25
2021-08-19 20:14:24.716,0.22,-0.23
2021-08-19 20:14:24.720,0.185,-0.23
2021-08-19 20:14:24.724,0.18,-0.235
2021-08-19 20:14:24.728,0.205,-0.25
2021-08-19 20:14:24.732,0.18,-0.26
2021-08-19 20:14:24.736,0.19,-0.27
2021-08-19 20:14:24.740,0.19,-0.275
2021-08-19 20:14:24.744,0.205,-0.25
2021-08-19 20:14:24.748,0.205,-0.26
2021-08-19 20:14:24.752,0.19,-0.26
2021-08-19 20:14:24.756,0.215,-0.275
2021-08-19 20:14:24.760,0.215,-0.26
2021-08-19 20:14:24.764,0.215,-0.26
2021-08-19 20:14:24.768,0.215,-0.255
2021-08-19 20:14:24.772,0.205,-0.265
2021-08-19 20:14:24.776,0.18,-0.26
2021-08-19 20:14:24.780,0.17,-0.26
2021-08-19 20:14:24.784,0.185,-0.26
2021-08-19 20:14:24.788,0.185,-0.295
2021-08-19 20:14:24.792,0.18,-0.27
2021-08-19 20:14:24.796,0.175,-0.26
2021-08-19 20:14:24.800,0.185,-0.28
2021-08-19 20:14:24.804,0.16,-0.285
2021-08-19 20:14:24.808,0.16,-0.26
2021-08-19 20:14:24.812,0.155,-0.265
2021-08-19 20:14:24.816,0.15,-0.27
2021-08-19 20:14:24.820,0.145,-0.275
2021-08-19 20:14:24.824,0.16,-0.265
2021-08-19 20:14:24.828,0.16,-0.29
2021-08-19 20:14:24.832,0.16,-0.285
2021-08-19 20:14:24.836,0.14,-0.29
2021-08-19 20:14:24.840,0.15,-0.285
2021-08-19 20:14:24.844,0.18,-0.285
2021-08-19 20:14:24.848,0.18,-0.31
2021-08-19 20:14:24.852,0.19,-0.315
2021-08-19 20:14:24.856,0.195,-0.28
2021-08-19 20:14:24.860,0.19,-0.245
2021-08-19 20:14:24.864,0.21,-0.25
2021-08-19 20:14:24.868,0.235,-0.23
2021-08-19 20:14:24.872,0.255,-0.205
2021-08-19 20:14:24.876,0.255,-0.215
2021-08-19 20:14:24.880,0.255,-0.21
2021-08-19 20:14:24.884,0.265,-0.2
2021-08-19 20:14:24.888,0.255,-0.205
2021-08-19 20:14:24.892,0.275,-0.205
2021-08-19 20:14:24.896,0.29,-0.23
2021-08-19 20:14:24.900,0.255,-0.225
2021-08-19 20:14:24.904,0.275,-0.235
2021-08-19 20:14:24.908,0.245,-0.24
2021-08-19 20:14:24.912,0.24,-0.24
2021-08-19 20:14:24.916,0.24,-0.245
2021-08-19 20:14:24.920,0.2,-0.255
2021-08-19 20:14:24.924,0.215,-0.25
2021-08-19 20:14:24.928,0.195,-0.27
2021-08-19 20:14:24.932,0.21,-0.27
2021-08-19 20:14:24.936,0.19,-0.3
2021-08-19 20:14:24.940,0.21,-0.28
2021-08-19 20:14:24.944,0.23,-0.29
2021-08-19 20:14:24.948,0.2,-0.3
2021-08-19 20:14:24.952,0.22,-0.3
2021-08-19 20:14:24.956,0.2,-0.31
2021-08-19 20:14:24.960,0.17,-0.3
2021-08-19 20:14:24.964,0.155,-0.3
2021-08-19 20:14:24.968,0.185,-0.3
2021-08-19 20:14:24.972,0.15,-0.31
2021-08-19 20:14:24.976,0.16,-0.32
2021-08-19 20:14:24.980,0.135,-0.31
2021-08-19 20:14:24.984,0.155,-0.31
2021-08-19 20:14:24.988,0.145,-0.265
2021-08-19 20:14:24.992,0.155,-0.185
2021-08-19 20:14:24.996,0.2,-0.075
2021-08-19 20:14:25.000,0.235,0.1
2021-08-19 20:14:25.004,0.295,0.29
2021-08-19 20:14:25.008,0.33,0.495
2021-08-19 20:14:25.012,0.395,0.655
2021-08-19 20:14:25.016,0.42,0.75
2021-08-19 20:14:25.020,0.425,0.675
2021-08-19 20:14:25.024,0.375,0.39
2021-08-19 20:14:25.028,0.33,0.05
2021-08-19 20:14:25.032,0.215,-0.265
2021-08-19 20:14:25.036,-0.01,-0.44
2021-08-19 20:14:25.040,-0.305,-0.45
2021-08-19 20:14:25.044,-0.49,-0.405
2021-08-19 20:14:25.048,-0.53,-0.375
2021-08-19 20:14:25.052,-0.445,-0.34
2021-08-19 20:14:25.056,-0.345,-0.33
2021-08-19 20:14:25.060,-0.24,-0.325
2021-08-19 20:14:25.064,-0.075,-0.32
2021-08-19 20:14:25.068,0.05,-0.33
2021-08-19 20:14:25.072,0.11,-0.33
2021-08-19 20:14:25.076,0.14,-0.31
2021-08-19 20:14:25.080,0.175,-0.305
2021-08-19 20:14:25.084,0.15,-0.295
2021-08-19 20:14:25.088,0.19,-0.31
2021-08-19 20:14:25.092,0.18,-0.315
2021-08-19 20:14:25.096,0.18,-0.305
2021-08-19 20:14:25.100,0.19,-0.33
2021-08-19 20:14:25.104,0.175,-0.33
2021-08-19 20:14:25.108,0.18,-0.305
2021-08-19 20:14:25.112,0.205,-0.285
2021-08-19 20:14:25.116,0.215,-0.27
2021-08-19 20:14:25.120,0.205,-0.29
2021-08-19 20:14:25.124,0.205,-0.28
2021-08-19 20:14:25.128,0.225,-0.29
2021-08-19 20:14:25.132,0.23,-0.3
2021-08-19 20:14:25.136,0.215,-0.31
2021-08-19 20:14:25.140,0.24,-0.3
2021-08-19 20:14:25.144,0.23,-0.3
2021-08-19 20:14:25.148,0.23,-0.285
2021-08-19 20:14:25.152,0.225,-0.27
2021-08-19 20:14:25.156,0.23,-0.285
2021-08-19 20:14:25.160,0.225,-0.305
2021-08-19 20:14:25.164,0.225,-0.305
2021-08-19 20:14:25.168,0.245,-0.29
2021-08-19 20:14:25.172,0.265,-0.305
2021-08-19 20:14:25.176,0.26,-0.29
2021-08-19 20:14:25.180,0.25,-0.28
2021-08-19 20:14:25.184,0.255,-0.29
2021-08-19 20:14:25.188,0.265,-0.265
2021-08-19 20:14:25.192,0.26,-0.255
2021-08-19 20:14:25.196,0.245,-0.275
2021-08-19 20:14:25.200,0.23,-0.26
2021-08-19 20:14:25.204,0.25,-0.25
2021-08-19 20:14:25.208,0.25,-0.255
2021-08-19 20:14:25.212,0.265,-0.265
2021-08-19 20:14:25.216,0.25,-0.245
2021-08-19 20:14:25.220,0.25,-0.25
2021-08-19 20:14:25.224,0.26,-0.22
2021-08-19 20:14:25.228,0.26,-0.245
2021-08-19 20:14:25.232,0.26,-0.24
2021-08-19 20:14:25.236,0.27,-0.235
2021-08-19 20:14:25.240,0.275,-0.23
2021-08-19 20:14:25.244,0.285,-0.245
2021-08-19 20:14:25.248,0.285,-0.235
2021-08-19 20:14:25.252,0.285,-0.22
2021-08-19 20:14:25.256,0.275,-0.185
2021-08-19 20:14:25.260,0.3,-0.205
2021-08-19 20:14:25.264,0.3,-0.2
2021-08-19 20:14:25.268,0.315,-0.195
2021-08-19 20:14:25.272,0.3,-0.19
2021-08-19 20:14:25.276,0.305,-0.2
2021-08-19 20:14:25.280,0.315,-0.19
2021-08-19 20:14:25.284,0.285,-0.205
2021-08-19 20:14:25.288,0.315,-0.205
2021-08-19 20:14:25.292,0.31,-0.19
2021-08-19 20:14:25.296,0.33,-0.19
2021-08-19 20:14:25.300,0.295,-0.185
2021-08-19 20:14:25.304,0.3,-0.17
2021-08-19 20:14:25.308,0.29,-0.155
2021-08-19 20:14:25.312,0.28,-0.17
2021-08-19 20:14:25.316,0.295,-0.175
2021-08-19 20:14:25.320,0.315,-0.175
2021-08-19 20:14:25.324,0.31,-0.185
2021-08-19 20:14:25.328,0.305,-0.18
2021-08-19 20:14:25.332,0.295,-0.19
2021-08-19 20:14:25.336,0.305,-0.22
2021-08-19 20:14:25.340,0.29,-0.21
2021-08-19 20:14:25.344,0.285,-0.195
2021-08-19 20:14:25.348,0.265,-0.23
2021-08-19 20:14:25.352,0.27,-0.225
2021-08-19 20:14:25.356,0.27,-0.215
2021-08-19 20:14:25.360,0.26,-0.24
2021-08-19 20:14:25.364,0.235,-0.25
2021-08-19 20:14:25.368,0.265,-0.26
2021-08-19 20:14:25.372,0.245,-0.24
2021-08-19 20:14:25.376,0.24,-0.25
2021-08-19 20:14:25.380,0.235,-0.245
2021-08-19 20:14:25.384,0.23,-0.245
2021-08-19 20:14:25.388,0.255,-0.235
2021-08-19 20:14:25.392,0.245,-0.255
2021-08-19 20:14:25.396,0.24,-0.26
2021-08-19 20:14:25.400,0.24,-0.25
2021-08-19 20:14:25.404,0.25,-0.25
2021-08-19 20:14:25.408,0.245,-0.24
2021-08-19 20:14:25.412,0.255,-0.255
2021-08-19 20:14:25.416,0.255,-0.245
2021-08-19 20:14:25.420,0.23,-0.255
2021-08-19 20:14:25.424,0.24,-0.26
2021-08-19 20:14:25.428,0.235,-0.24
2021-08-19 20:14:25.432,0.225,-0.265
2021-08-19 20:14:25.436,0.24,-0.25
2021-08-19 20:14:25.440,0.21,-0.255
2021-08-19 20:14:25.444,0.22,-0.235
2021-08-19 20:14:25.448,0.195,-0.23
2021-08-19 20:14:25.452,0.23,-0.21
2021-08-19 20:14:25.456,0.235,-0.225
2021-08-19 20:14:25.460,0.24,-0.235
2021-08-19 20:14:25.464,0.25,-0.22
2021-08-19 20:14:25.468,0.245,-0.215
2021-08-19 20:14:25.472,0.23,-0.22
2021-08-19 20:14:25.476,0.25,-0.22
2021-08-19 20:14:25.480,0.23,-0.225
2021-08-19 20:14:25.484,0.24,-0.23
2021-08-19 20:14:25.488,0.27,-0.235
2021-08-19 20:14:25.492,0.245,-0.25
2021-08-19 20:14:25.496,0.25,-0.245
2021-08-19 20:14:25.500,0.26,-0.24
2021-08-19 20:14:25.504,0.225,-0.245
2021-08-19 20:14:25.508,0.24,-0.23
2021-08-19 20:14:25.512,0.235,-0.25
2021-08-19 20:14:25.516,0.22,-0.26
2021-08-19 20:14:25.520,0.245,-0.22
2021-08-19 20:14:25.524,0.235,-0.255
2021-08-19 20:14:25.528,0.22,-0.25
2021-08-19 20:14:25.532,0.225,-0.265
2021-08-19 20:14:25.536,0.225,-0.25
2021-08-19 20:14:25.540,0.205,-0.25
2021-08-19 20:14:25.544,0.205,-0.245
2021-08-19 20:14:25.548,0.195,-0.255
2021-08-19 20:14:25.552,0.22,-0.265
2021-08-19 20:14:25.556,0.195,-0.27
2021-08-19 20:14:25.560,0.2,-0.275
2021-08-19 20:14:25.564,0.22,-0.25
2021-08-19 20:14:25.568,0.22,-0.24
2021-08-19 20:14:25.572,0.225,-0.23
2021-08-19 20:14:25.576,0.225,-0.24
2021-08-19 20:14:25.580,0.215,-0.255
2021-08-19 20:14:25.584,0.215,-0.265
2021-08-19 20:14:25.588,0.215,-0.255
2021-08-19 20:14:25.592,0.22,-0.255
2021-08-19 20:14:25.596,0.225,-0.26
2021-08-19 20:14:25.600,0.21,-0.245
2021-08-19 20:14:25.604,0.175,-0.235
2021-08-19 20:14:25.608,0.18,-0.27
2021-08-19 20:14:25.612,0.2,-0.255
2021-08-19 20:14:25.616,0.215,-0.255
2021-08-19 20:14:25.620,0.21,-0.25
2021-08-19 20:14:25.624,0.225,-0.24
2021-08-19 20:14:25.628,0.195,-0.235
2021-08-19 20:14:25.632,0.2,-0.24
2021-08-19 20:14:25.636,0.2,-0.23
2021-08-19 20:14:25.640,0.215,-0.245
2021-08-19 20:14:25.644,0.2,-0.24
2021-08-19 20:14:25.648,0.225,-0.25
2021-08-19 20:14:25.652,0.215,-0.22
2021-08-19 20:14:25.656,0.215,-0.255
2021-08-19 20:14:25.660,0.215,-0.255
2021-08-19 20:14:25.664,0.195,-0.26
2021-08-19 20:14:25.668,0.195,-0.23
2021-08-19 20:14:25.672,0.195,-0.24
2021-08-19 20:14:25.676,0.2,-0.23
2021-08-19 20:14:25.680,0.21,-0.255
2021-08-19 20:14:25.684,0.205,-0.26
2021-08-19 20:14:25.688,0.21,-0.26
2021-08-19 20:14:25.692,0.2,-0.27
2021-08-19 20:14:25.696,0.215,-0.26
2021-08-19 20:14:25.700,0.23,-0.25
2021-08-19 20:14:25.704,0.21,-0.26
2021-08-19 20:14:25.708,0.205,-0.265
2021-08-19 20:14:25.712,0.215,-0.28
2021-08-19 20:14:25.716,0.205,-0.275
2021-08-19 20:14:25.720,0.21,-0.27
2021-08-19 20:14:25.724,0.205,-0.275
2021-08-19 20:14:25.728,0.205,-0.28
2021-08-19 20:14:25.732,0.195,-0.255
2021-08-19 20:14:25.736,0.2,-0.28
2021-08-19 20:14:25.740,0.195,-0.275
2021-08-19 20:14:25.744,0.195,-0.265
2021-08-19 20:14:25.748,0.205,-0.27
2021-08-19 20:14:25.752,0.195,-0.27
2021-08-19 20:14:25.756,0.165,-0.285
2021-08-19 20:14:25.760,0.205,-0.29
2021-08-19 20:14:25.764,0.185,-0.28
2021-08-19 20:14:25.768,0.19,-0.28
2021-08-19 20:14:25.772,0.19,-0.28
2021-08-19 20:14:25.776,0.205,-0.29
2021-08-19 20:14:25.780,0.19,-0.295
2021-08-19 20:14:25.784,0.195,-0.295
2021-08-19 20:14:25.788,0.195,-0.305
2021-08-19 20:14:25.792,0.185,-0.29
2021-08-19 20:14:25.796,0.2,-0.285
2021-08-19 20:14:25.800,0.215,-0.275
2021-08-19 20:14:25.804,0.195,-0.28
2021-08-19 20:14:25.808,0.205,-0.27
2021-08-19 20:14:25.812,0.205,-0.245
2021-08-19 20:14:25.816,0.185,-0.265
2021-08-19 20:14:25.820,0.215,-0.26
2021-08-19 20:14:25.824,0.215,-0.26
2021-08-19 20:14:25.828,0.2,-0.26
2021-08-19 20:14:25.832,0.205,-0.26
2021-08-19 20:14:25.836,0.185,-0.275
2021-08-19 20:14:25.840,0.21,-0.27
2021-08-19 20:14:25.844,0.21,-0.28
2021-08-19 20:14:25.848,0.195,-0.28
2021-08-19 20:14:25.852,0.19,-0.27
2021-08-19 20:14:25.856,0.185,-0.275
2021-08-19 20:14:25.860,0.205,-0.275
2021-08-19 20:14:25.864,0.195,-0.28
2021-08-19 20:14:25.868,0.205,-0.27
2021-08-19 20:14:25.872,0.195,-0.275
2021-08-19 20:14:25.876,0.22,-0.255
2021-08-19 20:14:25.880,0.21,-0.25
2021-08-19 20:14:25.884,0.2,-0.25
2021-08-19 20:14:25.888,0.23,-0.255
2021-08-19 20:14:25.892,0.245,-0.235
2021-08-19 20:14:25.896,0.255,-0.235
2021-08-19 20:14:25.900,0.26,-0.23
2021-08-19 20:14:25.904,0.275,-0.21
2021-08-19 20:14:25.908,0.255,-0.215
2021-08-19 20:14:25.912,0.285,-0.2
2021-08-19 20:14:25.916,0.275,-0.235
2021-08-19 20:14:25.920,0.27,-0.24
2021-08-19 20:14:25.924,0.275,-0.245
2021-08-19 20:14:25.928,0.275,-0.235
2021-08-19 20:14:25.932,0.24,-0.245
2021-08-19 20:14:25.936,0.225,-0.265
2021-08-19 20:14:25.940,0.215,-0.25
2021-08-19 20:14:25.944,0.195,-0.265
2021-08-19 20:14:25.948,0.21,-0.26
2021-08-19 20:14:25.952,0.225,-0.26
2021-08-19 20:14:25.956,0.235,-0.275
2021-08-19 20:14:25.960,0.21,-0.29
2021-08-19 20:14:25.964,0.24,-0.275
2021-08-19 20:14:25.968,0.235,-0.295
