Time,ECG1,ECG2
2021-08-19 22:06:58.376,-0.25,-0.19
2021-08-19 22:06:58.380,-0.21,-0.185
2021-08-19 22:06:58.384,-0.24,-0.205
2021-08-19 22:06:58.388,-0.24,-0.19
2021-08-19 22:06:58.392,-0.22,-0.185
2021-08-19 22:06:58.396,-0.21,-0.19
2021-08-19 22:06:58.400,-0.225,-0.195
2021-08-19 22:06:58.404,-0.22,-0.2
2021-08-19 22:06:58.408,-0.215,-0.205
2021-08-19 22:06:58.412,-0.21,-0.185
2021-08-19 22:06:58.416,-0.195,-0.18
2021-08-19 22:06:58.420,-0.195,-0.165
2021-08-19 22:06:58.424,-0.21,-0.18
2021-08-19 22:06:58.428,-0.18,-0.18
2021-08-19 22:06:58.432,-0.19,-0.185
2021-08-19 22:06:58.436,-0.18,-0.19
2021-08-19 22:06:58.440,-0.205,-0.17
2021-08-19 22:06:58.444,-0.18,-0.18
2021-08-19 22:06:58.448,-0.19,-0.165
2021-08-19 22:06:58.452,-0.21,-0.15
2021-08-19 22:06:58.456,-0.19,-0.165
2021-08-19 22:06:58.460,-0.18,-0.175
2021-08-19 22:06:58.464,-0.2,-0.18
2021-08-19 22:06:58.468,-0.225,-0.14
2021-08-19 22:06:58.472,-0.215,-0.17
2021-08-19 22:06:58.476,-0.2,-0.19
2021-08-19 22:06:58.480,-0.21,-0.17
2021-08-19 22:06:58.484,-0.205,-0.19
2021-08-19 22:06:58.488,-0.22,-0.185
2021-08-19 22:06:58.492,-0.205,-0.17
2021-08-19 22:06:58.496,-0.21,-0.19
2021-08-19 22:06:58.500,-0.19,-0.175
2021-08-19 22:06:58.504,-0.21,-0.155
2021-08-19 22:06:58.508,-0.195,-0.17
2021-08-19 22:06:58.512,-0.2,-0.195
2021-08-19 22:06:58.516,-0.215,-0.185
2021-08-19 22:06:58.520,-0.185,-0.18
2021-08-19 22:06:58.524,-0.21,-0.18
2021-08-19 22:06:58.528,-0.18,-0.175
2021-08-19 22:06:58.532,-0.18,-0.165
2021-08-19 22:06:58.536,-0.205,-0.165
2021-08-19 22:06:58.540,-0.19,-0.165
2021-08-19 22:06:58.544,-0.19,-0.15
2021-08-19 22:06:58.548,-0.195,-0.155
2021-08-19 22:06:58.552,-0.185,-0.175
2021-08-19 22:06:58.556,-0.205,-0.16
2021-08-19 22:06:58.560,-0.19,-0.165
2021-08-19 22:06:58.564,-0.185,-0.16
2021-08-19 22:06:58.568,-0.21,-0.17
2021-08-19 22:06:58.572,-0.22,-0.165
2021-08-19 22:06:58.576,-0.22,-0.19
2021-08-19 22:06:58.580,-0.2,-0.17
2021-08-19 22:06:58.584,-0.21,-0.18
2021-08-19 22:06:58.588,-0.215,-0.16
2021-08-19 22:06:58.592,-0.22,-0.155
2021-08-19 22:06:58.596,-0.215,-0.18
2021-08-19 22:06:58.600,-0.215,-0.16
2021-08-19 22:06:58.604,-0.205,-0.175
2021-08-19 22:06:58.608,-0.215,-0.175
2021-08-19 22:06:58.612,-0.22,-0.185
2021-08-19 22:06:58.616,-0.215,-0.19
2021-08-19 22:06:58.620,-0.205,-0.185
2021-08-19 22:06:58.624,-0.205,-0.18
2021-08-19 22:06:58.628,-0.195,-0.16
2021-08-19 22:06:58.632,-0.195,-0.18
2021-08-19 22:06:58.636,-0.18,-0.16
2021-08-19 22:06:58.640,-0.19,-0.155
2021-08-19 22:06:58.644,-0.185,-0.17
2021-08-19 22:06:58.648,-0.205,-0.18
2021-08-19 22:06:58.652,-0.185,-0.135
2021-08-19 22:06:58.656,-0.19,-0.145
2021-08-19 22:06:58.660,-0.185,-0.18
2021-08-19 22:06:58.664,-0.185,-0.145
2021-08-19 22:06:58.668,-0.175,-0.145
2021-08-19 22:06:58.672,-0.175,-0.15
2021-08-19 22:06:58.676,-0.17,-0.15
2021-08-19 22:06:58.680,-0.19,-0.15
2021-08-19 22:06:58.684,-0.19,-0.185
2021-08-19 22:06:58.688,-0.2,-0.145
2021-08-19 22:06:58.692,-0.195,-0.16
2021-08-19 22:06:58.696,-0.185,-0.17
2021-08-19 22:06:58.700,-0.195,-0.145
2021-08-19 22:06:58.704,-0.185,-0.155
2021-08-19 22:06:58.708,-0.175,-0.145
2021-08-19 22:06:58.712,-0.14,-0.135
2021-08-19 22:06:58.716,-0.17,-0.145
2021-08-19 22:06:58.720,-0.135,-0.14
2021-08-19 22:06:58.724,-0.155,-0.14
2021-08-19 22:06:58.728,-0.13,-0.14
2021-08-19 22:06:58.732,-0.145,-0.12
2021-08-19 22:06:58.736,-0.13,-0.09
2021-08-19 22:06:58.740,-0.1,-0.1
2021-08-19 22:06:58.744,-0.09,-0.095
2021-08-19 22:06:58.748,-0.065,-0.1
2021-08-19 22:06:58.752,-0.03,-0.055
2021-08-19 22:06:58.756,-0.015,-0.065
2021-08-19 22:06:58.760,0.0,-0.085
2021-08-19 22:06:58.764,0.02,-0.06
2021-08-19 22:06:58.768,0.04,-0.055
2021-08-19 22:06:58.772,0.055,-0.115
2021-08-19 22:06:58.776,0.065,-0.11
2021-08-19 22:06:58.780,0.025,-0.14
2021-08-19 22:06:58.784,-0.01,-0.15
2021-08-19 22:06:58.788,-0.04,-0.14
2021-08-19 22:06:58.792,-0.085,-0.16
2021-08-19 22:06:58.796,-0.155,-0.135
2021-08-19 22:06:58.800,-0.185,-0.15
2021-08-19 22:06:58.804,-0.235,-0.12
2021-08-19 22:06:58.808,-0.26,-0.115
2021-08-19 22:06:58.812,-0.27,-0.11
2021-08-19 22:06:58.816,-0.295,-0.12
2021-08-19 22:06:58.820,-0.29,-0.11
2021-08-19 22:06:58.824,-0.275,-0.12
2021-08-19 22:06:58.828,-0.275,-0.135
2021-08-19 22:06:58.832,-0.28,-0.145
2021-08-19 22:06:58.836,-0.275,-0.15
2021-08-19 22:06:58.840,-0.29,-0.15
2021-08-19 22:06:58.844,-0.265,-0.155
2021-08-19 22:06:58.848,-0.26,-0.145
2021-08-19 22:06:58.852,-0.265,-0.165
2021-08-19 22:06:58.856,-0.255,-0.15
2021-08-19 22:06:58.860,-0.24,-0.145
2021-08-19 22:06:58.864,-0.25,-0.16
2021-08-19 22:06:58.868,-0.255,-0.15
2021-08-19 22:06:58.872,-0.255,-0.15
2021-08-19 22:06:58.876,-0.27,-0.15
2021-08-19 22:06:58.880,-0.29,-0.13
2021-08-19 22:06:58.884,-0.26,-0.13
2021-08-19 22:06:58.888,-0.27,-0.14
2021-08-19 22:06:58.892,-0.26,-0.15
2021-08-19 22:06:58.896,-0.26,-0.14
2021-08-19 22:06:58.900,-0.285,-0.13
2021-08-19 22:06:58.904,-0.28,-0.15
2021-08-19 22:06:58.908,-0.255,-0.155
2021-08-19 22:06:58.912,-0.27,-0.16
2021-08-19 22:06:58.916,-0.265,-0.15
2021-08-19 22:06:58.920,-0.24,-0.16
2021-08-19 22:06:58.924,-0.24,-0.17
2021-08-19 22:06:58.928,-0.235,-0.165
2021-08-19 22:06:58.932,-0.17,-0.165
2021-08-19 22:06:58.936,-0.09,-0.16
2021-08-19 22:06:58.940,0.01,-0.17
2021-08-19 22:06:58.944,0.08,-0.16
2021-08-19 22:06:58.948,0.14,-0.19
2021-08-19 22:06:58.952,0.15,-0.21
2021-08-19 22:06:58.956,0.14,-0.24
2021-08-19 22:06:58.960,0.14,-0.255
2021-08-19 22:06:58.964,0.11,-0.275
2021-08-19 22:06:58.968,0.1,-0.335
2021-08-19 22:06:58.972,0.12,-0.43
2021-08-19 22:06:58.976,0.285,-0.59
2021-08-19 22:06:58.980,0.525,-0.735
2021-08-19 22:06:58.984,0.8,-0.975
2021-08-19 22:06:58.988,1.045,-1.205
2021-08-19 22:06:58.992,1.19,-1.4
2021-08-19 22:06:58.996,1.155,-1.405
2021-08-19 22:06:59.000,0.905,-1.215
2021-08-19 22:06:59.004,0.455,-0.87
2021-08-19 22:06:59.008,0.07,-0.505
2021-08-19 22:06:59.012,-0.14,-0.25
2021-08-19 22:06:59.016,-0.225,-0.08
2021-08-19 22:06:59.020,-0.295,-0.04
2021-08-19 22:06:59.024,-0.33,0.0
2021-08-19 22:06:59.028,-0.32,0.01
2021-08-19 22:06:59.032,-0.335,0.005
2021-08-19 22:06:59.036,-0.35,0.0
2021-08-19 22:06:59.040,-0.35,-0.015
2021-08-19 22:06:59.044,-0.38,-0.01
2021-08-19 22:06:59.048,-0.36,0.0
2021-08-19 22:06:59.052,-0.37,-0.02
2021-08-19 22:06:59.056,-0.37,-0.025
2021-08-19 22:06:59.060,-0.37,-0.03
2021-08-19 22:06:59.064,-0.38,-0.03
2021-08-19 22:06:59.068,-0.38,-0.03
2021-08-19 22:06:59.072,-0.365,-0.035
2021-08-19 22:06:59.076,-0.36,-0.025
2021-08-19 22:06:59.080,-0.345,-0.02
2021-08-19 22:06:59.084,-0.34,-0.03
2021-08-19 22:06:59.088,-0.35,-0.025
2021-08-19 22:06:59.092,-0.35,-0.005
2021-08-19 22:06:59.096,-0.365,-0.015
2021-08-19 22:06:59.100,-0.365,-0.005
2021-08-19 22:06:59.104,-0.355,-0.005
2021-08-19 22:06:59.108,-0.355,0.01
2021-08-19 22:06:59.112,-0.355,0.005
2021-08-19 22:06:59.116,-0.36,0.005
2021-08-19 22:06:59.120,-0.35,-0.01
2021-08-19 22:06:59.124,-0.35,-0.02
2021-08-19 22:06:59.128,-0.365,-0.01
2021-08-19 22:06:59.132,-0.37,-0.025
2021-08-19 22:06:59.136,-0.37,0.0
2021-08-19 22:06:59.140,-0.345,-0.015
2021-08-19 22:06:59.144,-0.355,-0.02
2021-08-19 22:06:59.148,-0.335,-0.025
2021-08-19 22:06:59.152,-0.325,-0.015
2021-08-19 22:06:59.156,-0.315,0.0
2021-08-19 22:06:59.160,-0.325,-0.005
2021-08-19 22:06:59.164,-0.305,-0.005
2021-08-19 22:06:59.168,-0.3,-0.01
2021-08-19 22:06:59.172,-0.31,-0.01
2021-08-19 22:06:59.176,-0.28,-0.02
2021-08-19 22:06:59.180,-0.265,-0.005
2021-08-19 22:06:59.184,-0.26,-0.015
2021-08-19 22:06:59.188,-0.245,0.0
2021-08-19 22:06:59.192,-0.235,-0.005
2021-08-19 22:06:59.196,-0.22,0.0
2021-08-19 22:06:59.200,-0.21,0.0
2021-08-19 22:06:59.204,-0.21,-0.005
2021-08-19 22:06:59.208,-0.215,-0.025
2021-08-19 22:06:59.212,-0.215,0.015
2021-08-19 22:06:59.216,-0.19,0.0
2021-08-19 22:06:59.220,-0.19,0.0
2021-08-19 22:06:59.224,-0.205,-0.005
2021-08-19 22:06:59.228,-0.2,-0.005
2021-08-19 22:06:59.232,-0.19,-0.025
2021-08-19 22:06:59.236,-0.225,-0.01
2021-08-19 22:06:59.240,-0.255,0.0
2021-08-19 22:06:59.244,-0.285,-0.02
2021-08-19 22:06:59.248,-0.275,-0.025
2021-08-19 22:06:59.252,-0.29,-0.055
2021-08-19 22:06:59.256,-0.355,-0.045
2021-08-19 22:06:59.260,-0.38,-0.02
2021-08-19 22:06:59.264,-0.39,-0.05
2021-08-19 22:06:59.268,-0.35,-0.07
2021-08-19 22:06:59.272,-0.26,-0.08
2021-08-19 22:06:59.276,-0.12,-0.04
2021-08-19 22:06:59.280,0.025,0.005
2021-08-19 22:06:59.284,0.19,0.11
2021-08-19 22:06:59.288,0.305,0.28
2021-08-19 22:06:59.292,0.325,0.52
2021-08-19 22:06:59.296,0.29,0.77
2021-08-19 22:06:59.300,0.23,0.98
2021-08-19 22:06:59.304,0.18,1.235
2021-08-19 22:06:59.308,0.105,1.44
2021-08-19 22:06:59.312,0.05,1.57
2021-08-19 22:06:59.316,-0.05,1.61
2021-08-19 22:06:59.320,-0.175,1.555
2021-08-19 22:06:59.324,-0.33,1.45
2021-08-19 22:06:59.328,-0.42,1.355
2021-08-19 22:06:59.332,-0.485,1.265
2021-08-19 22:06:59.336,-0.47,1.23
2021-08-19 22:06:59.340,-0.44,1.19
2021-08-19 22:06:59.344,-0.41,1.205
2021-08-19 22:06:59.348,-0.445,1.24
2021-08-19 22:06:59.352,-0.45,1.23
2021-08-19 22:06:59.356,-0.43,1.185
2021-08-19 22:06:59.360,-0.365,1.06
2021-08-19 22:06:59.364,-0.32,0.835
2021-08-19 22:06:59.368,-0.3,0.54
2021-08-19 22:06:59.372,-0.325,0.215
2021-08-19 22:06:59.376,-0.3,-0.05
2021-08-19 22:06:59.380,-0.295,-0.185
2021-08-19 22:06:59.384,-0.29,-0.26
2021-08-19 22:06:59.388,-0.295,-0.3
2021-08-19 22:06:59.392,-0.31,-0.35
2021-08-19 22:06:59.396,-0.285,-0.33
2021-08-19 22:06:59.400,-0.275,-0.34
2021-08-19 22:06:59.404,-0.265,-0.345
2021-08-19 22:06:59.408,-0.265,-0.34
2021-08-19 22:06:59.412,-0.245,-0.34
2021-08-19 22:06:59.416,-0.255,-0.38
2021-08-19 22:06:59.420,-0.265,-0.385
2021-08-19 22:06:59.424,-0.26,-0.395
2021-08-19 22:06:59.428,-0.26,-0.42
2021-08-19 22:06:59.432,-0.245,-0.415
2021-08-19 22:06:59.436,-0.265,-0.43
2021-08-19 22:06:59.440,-0.255,-0.435
2021-08-19 22:06:59.444,-0.255,-0.465
2021-08-19 22:06:59.448,-0.295,-0.48
2021-08-19 22:06:59.452,-0.295,-0.495
2021-08-19 22:06:59.456,-0.29,-0.52
2021-08-19 22:06:59.460,-0.31,-0.52
2021-08-19 22:06:59.464,-0.33,-0.545
2021-08-19 22:06:59.468,-0.34,-0.565
2021-08-19 22:06:59.472,-0.355,-0.58
2021-08-19 22:06:59.476,-0.36,-0.58
2021-08-19 22:06:59.480,-0.345,-0.62
2021-08-19 22:06:59.484,-0.345,-0.62
2021-08-19 22:06:59.488,-0.34,-0.63
2021-08-19 22:06:59.492,-0.335,-0.645
2021-08-19 22:06:59.496,-0.34,-0.64
2021-08-19 22:06:59.500,-0.31,-0.63
2021-08-19 22:06:59.504,-0.265,-0.635
2021-08-19 22:06:59.508,-0.25,-0.59
2021-08-19 22:06:59.512,-0.235,-0.59
2021-08-19 22:06:59.516,-0.225,-0.555
2021-08-19 22:06:59.520,-0.23,-0.53
2021-08-19 22:06:59.524,-0.22,-0.52
2021-08-19 22:06:59.528,-0.22,-0.49
2021-08-19 22:06:59.532,-0.22,-0.47
2021-08-19 22:06:59.536,-0.21,-0.435
2021-08-19 22:06:59.540,-0.225,-0.405
2021-08-19 22:06:59.544,-0.23,-0.4
2021-08-19 22:06:59.548,-0.255,-0.37
2021-08-19 22:06:59.552,-0.26,-0.36
2021-08-19 22:06:59.556,-0.28,-0.32
2021-08-19 22:06:59.560,-0.245,-0.29
2021-08-19 22:06:59.564,-0.255,-0.275
2021-08-19 22:06:59.568,-0.25,-0.23
2021-08-19 22:06:59.572,-0.25,-0.215
2021-08-19 22:06:59.576,-0.25,-0.165
2021-08-19 22:06:59.580,-0.245,-0.17
2021-08-19 22:06:59.584,-0.235,-0.145
2021-08-19 22:06:59.588,-0.26,-0.1
2021-08-19 22:06:59.592,-0.26,-0.095
2021-08-19 22:06:59.596,-0.245,-0.075
2021-08-19 22:06:59.600,-0.225,-0.03
2021-08-19 22:06:59.604,-0.245,-0.025
2021-08-19 22:06:59.608,-0.255,-0.035
2021-08-19 22:06:59.612,-0.22,-0.005
2021-08-19 22:06:59.616,-0.25,0.045
2021-08-19 22:06:59.620,-0.23,0.04
2021-08-19 22:06:59.624,-0.2,0.06
2021-08-19 22:06:59.628,-0.2,0.055
2021-08-19 22:06:59.632,-0.22,0.08
2021-08-19 22:06:59.636,-0.21,0.09
2021-08-19 22:06:59.640,-0.21,0.09
2021-08-19 22:06:59.644,-0.22,0.12
2021-08-19 22:06:59.648,-0.21,0.11
2021-08-19 22:06:59.652,-0.225,0.13
2021-08-19 22:06:59.656,-0.215,0.135
2021-08-19 22:06:59.660,-0.21,0.125
2021-08-19 22:06:59.664,-0.225,0.105
2021-08-19 22:06:59.668,-0.2,0.125
2021-08-19 22:06:59.672,-0.21,0.12
2021-08-19 22:06:59.676,-0.225,0.145
2021-08-19 22:06:59.680,-0.26,0.14
2021-08-19 22:06:59.684,-0.25,0.135
2021-08-19 22:06:59.688,-0.245,0.15
2021-08-19 22:06:59.692,-0.255,0.16
2021-08-19 22:06:59.696,-0.26,0.145
2021-08-19 22:06:59.700,-0.25,0.17
2021-08-19 22:06:59.704,-0.23,0.15
2021-08-19 22:06:59.708,-0.24,0.155
2021-08-19 22:06:59.712,-0.24,0.15
2021-08-19 22:06:59.716,-0.245,0.16
2021-08-19 22:06:59.720,-0.24,0.185
2021-08-19 22:06:59.724,-0.22,0.19
2021-08-19 22:06:59.728,-0.22,0.175
2021-08-19 22:06:59.732,-0.215,0.175
2021-08-19 22:06:59.736,-0.2,0.185
2021-08-19 22:06:59.740,-0.215,0.185
2021-08-19 22:06:59.744,-0.22,0.205
2021-08-19 22:06:59.748,-0.21,0.17
2021-08-19 22:06:59.752,-0.215,0.18
2021-08-19 22:06:59.756,-0.21,0.18
2021-08-19 22:06:59.760,-0.2,0.195
2021-08-19 22:06:59.764,-0.205,0.2
2021-08-19 22:06:59.768,-0.2,0.21
2021-08-19 22:06:59.772,-0.235,0.215
2021-08-19 22:06:59.776,-0.215,0.19
2021-08-19 22:06:59.780,-0.215,0.195
2021-08-19 22:06:59.784,-0.235,0.19
2021-08-19 22:06:59.788,-0.215,0.195
2021-08-19 22:06:59.792,-0.205,0.19
2021-08-19 22:06:59.796,-0.23,0.195
2021-08-19 22:06:59.800,-0.245,0.21
2021-08-19 22:06:59.804,-0.24,0.195
2021-08-19 22:06:59.808,-0.24,0.19
2021-08-19 22:06:59.812,-0.225,0.21
2021-08-19 22:06:59.816,-0.225,0.2
2021-08-19 22:06:59.820,-0.23,0.205
2021-08-19 22:06:59.824,-0.225,0.195
2021-08-19 22:06:59.828,-0.23,0.215
2021-08-19 22:06:59.832,-0.23,0.215
2021-08-19 22:06:59.836,-0.205,0.245
2021-08-19 22:06:59.840,-0.21,0.22
2021-08-19 22:06:59.844,-0.205,0.225
2021-08-19 22:06:59.848,-0.205,0.23
2021-08-19 22:06:59.852,-0.215,0.205
2021-08-19 22:06:59.856,-0.19,0.21
2021-08-19 22:06:59.860,-0.21,0.22
2021-08-19 22:06:59.864,-0.22,0.24
2021-08-19 22:06:59.868,-0.215,0.24
2021-08-19 22:06:59.872,-0.19,0.225
2021-08-19 22:06:59.876,-0.2,0.235
2021-08-19 22:06:59.880,-0.185,0.21
2021-08-19 22:06:59.884,-0.21,0.23
2021-08-19 22:06:59.888,-0.23,0.235
2021-08-19 22:06:59.892,-0.21,0.245
2021-08-19 22:06:59.896,-0.22,0.23
2021-08-19 22:06:59.900,-0.23,0.22
2021-08-19 22:06:59.904,-0.245,0.235
2021-08-19 22:06:59.908,-0.25,0.21
2021-08-19 22:06:59.912,-0.24,0.23
2021-08-19 22:06:59.916,-0.23,0.215
2021-08-19 22:06:59.920,-0.235,0.225
2021-08-19 22:06:59.924,-0.23,0.225
2021-08-19 22:06:59.928,-0.21,0.245
2021-08-19 22:06:59.932,-0.21,0.24
2021-08-19 22:06:59.936,-0.205,0.23
2021-08-19 22:06:59.940,-0.195,0.22
2021-08-19 22:06:59.944,-0.21,0.23
2021-08-19 22:06:59.948,-0.22,0.24
2021-08-19 22:06:59.952,-0.205,0.235
2021-08-19 22:06:59.956,-0.205,0.235
2021-08-19 22:06:59.960,-0.19,0.23
2021-08-19 22:06:59.964,-0.215,0.25
2021-08-19 22:06:59.968,-0.2,0.23
2021-08-19 22:06:59.972,-0.215,0.25
2021-08-19 22:06:59.976,-0.205,0.26
2021-08-19 22:06:59.980,-0.215,0.255
2021-08-19 22:06:59.984,-0.18,0.245
2021-08-19 22:06:59.988,-0.205,0.255
2021-08-19 22:06:59.992,-0.21,0.24
2021-08-19 22:06:59.996,-0.21,0.265
2021-08-19 22:15:00.000,-0.245,-0.11
2021-08-19 22:15:00.004,-0.235,-0.095
2021-08-19 22:15:00.008,-0.22,-0.095
2021-08-19 22:15:00.012,-0.22,-0.11
2021-08-19 22:15:00.016,-0.185,-0.11
2021-08-19 22:15:00.020,-0.135,-0.115
2021-08-19 22:15:00.024,-0.125,-0.095
2021-08-19 22:15:00.028,-0.08,-0.085
2021-08-19 22:15:00.032,-0.05,-0.075
2021-08-19 22:15:00.036,-0.025,-0.07
2021-08-19 22:15:00.040,0.015,-0.05
2021-08-19 22:15:00.044,0.065,-0.045
2021-08-19 22:15:00.048,0.09,-0.04
2021-08-19 22:15:00.052,0.095,-0.04
2021-08-19 22:15:00.056,0.045,-0.06
2021-08-19 22:15:00.060,0.0,-0.085
2021-08-19 22:15:00.064,-0.06,-0.11
2021-08-19 22:15:00.068,-0.115,-0.14
2021-08-19 22:15:00.072,-0.16,-0.15
2021-08-19 22:15:00.076,-0.225,-0.14
2021-08-19 22:15:00.080,-0.265,-0.13
2021-08-19 22:15:00.084,-0.315,-0.13
2021-08-19 22:15:00.088,-0.36,-0.1
2021-08-19 22:15:00.092,-0.38,-0.105
2021-08-19 22:15:00.096,-0.365,-0.11
2021-08-19 22:15:00.100,-0.365,-0.125
2021-08-19 22:15:00.104,-0.365,-0.13
2021-08-19 22:15:00.108,-0.36,-0.13
2021-08-19 22:15:00.112,-0.345,-0.14
2021-08-19 22:15:00.116,-0.345,-0.135
2021-08-19 22:15:00.120,-0.335,-0.16
2021-08-19 22:15:00.124,-0.33,-0.16
2021-08-19 22:15:00.128,-0.33,-0.17
2021-08-19 22:15:00.132,-0.325,-0.16
2021-08-19 22:15:00.136,-0.32,-0.155
2021-08-19 22:15:00.140,-0.34,-0.165
2021-08-19 22:15:00.144,-0.34,-0.16
2021-08-19 22:15:00.148,-0.32,-0.175
2021-08-19 22:15:00.152,-0.3,-0.17
2021-08-19 22:15:00.156,-0.285,-0.16
2021-08-19 22:15:00.160,-0.28,-0.175
2021-08-19 22:15:00.164,-0.285,-0.175
2021-08-19 22:15:00.168,-0.29,-0.17
2021-08-19 22:15:00.172,-0.28,-0.16
2021-08-19 22:15:00.176,-0.295,-0.16
2021-08-19 22:15:00.180,-0.295,-0.16
2021-08-19 22:15:00.184,-0.275,-0.17
2021-08-19 22:15:00.188,-0.275,-0.155
2021-08-19 22:15:00.192,-0.255,-0.16
2021-08-19 22:15:00.196,-0.215,-0.17
2021-08-19 22:15:00.200,-0.16,-0.17
2021-08-19 22:15:00.204,-0.1,-0.16
2021-08-19 22:15:00.208,-0.02,-0.21
2021-08-19 22:15:00.212,0.08,-0.215
2021-08-19 22:15:00.216,0.135,-0.26
2021-08-19 22:15:00.220,0.185,-0.295
2021-08-19 22:15:00.224,0.245,-0.32
2021-08-19 22:15:00.228,0.3,-0.335
2021-08-19 22:15:00.232,0.265,-0.39
2021-08-19 22:15:00.236,0.26,-0.44
2021-08-19 22:15:00.240,0.345,-0.535
2021-08-19 22:15:00.244,0.57,-0.67
2021-08-19 22:15:00.248,0.88,-0.895
2021-08-19 22:15:00.252,1.085,-1.1
2021-08-19 22:15:00.256,1.045,-1.3
2021-08-19 22:15:00.260,0.69,-1.31
2021-08-19 22:15:00.264,0.215,-1.08
2021-08-19 22:15:00.268,-0.105,-0.705
2021-08-19 22:15:00.272,-0.25,-0.45
2021-08-19 22:15:00.276,-0.325,-0.31
2021-08-19 22:15:00.280,-0.34,-0.195
2021-08-19 22:15:00.284,-0.345,-0.095
2021-08-19 22:15:00.288,-0.375,-0.035
2021-08-19 22:15:00.292,-0.435,0.0
2021-08-19 22:15:00.296,-0.435,-0.005
2021-08-19 22:15:00.300,-0.455,0.0
2021-08-19 22:15:00.304,-0.45,-0.02
2021-08-19 22:15:00.308,-0.44,-0.025
2021-08-19 22:15:00.312,-0.445,-0.06
2021-08-19 22:15:00.316,-0.46,-0.045
2021-08-19 22:15:00.320,-0.47,-0.07
2021-08-19 22:15:00.324,-0.48,-0.065
2021-08-19 22:15:00.328,-0.49,-0.09
2021-08-19 22:15:00.332,-0.495,-0.09
2021-08-19 22:15:00.336,-0.49,-0.045
2021-08-19 22:15:00.340,-0.48,-0.08
2021-08-19 22:15:00.344,-0.47,-0.08
2021-08-19 22:15:00.348,-0.5,-0.075
2021-08-19 22:15:00.352,-0.495,-0.075
2021-08-19 22:15:00.356,-0.5,-0.055
2021-08-19 22:15:00.360,-0.48,-0.085
2021-08-19 22:15:00.364,-0.505,-0.06
2021-08-19 22:15:00.368,-0.52,-0.07
2021-08-19 22:15:00.372,-0.505,-0.03
2021-08-19 22:15:00.376,-0.51,-0.03
2021-08-19 22:15:00.380,-0.51,-0.035
2021-08-19 22:15:00.384,-0.505,-0.065
2021-08-19 22:15:00.388,-0.48,-0.03
2021-08-19 22:15:00.392,-0.48,-0.03
2021-08-19 22:15:00.396,-0.495,-0.05
2021-08-19 22:15:00.400,-0.495,-0.01
2021-08-19 22:15:00.404,-0.495,0.0
2021-08-19 22:15:00.408,-0.495,0.0
2021-08-19 22:15:00.412,-0.51,0.0
2021-08-19 22:15:00.416,-0.49,0.01
2021-08-19 22:15:00.420,-0.49,0.01
2021-08-19 22:15:00.424,-0.49,0.005
2021-08-19 22:15:00.428,-0.505,0.0
2021-08-19 22:15:00.432,-0.5,0.0
2021-08-19 22:15:00.436,-0.495,0.005
2021-08-19 22:15:00.440,-0.49,0.005
2021-08-19 22:15:00.444,-0.49,0.0
2021-08-19 22:15:00.448,-0.48,0.0
2021-08-19 22:15:00.452,-0.465,0.0
2021-08-19 22:15:00.456,-0.45,-0.02
2021-08-19 22:15:00.460,-0.44,-0.025
2021-08-19 22:15:00.464,-0.46,-0.02
2021-08-19 22:15:00.468,-0.425,-0.025
2021-08-19 22:15:00.472,-0.415,-0.05
2021-08-19 22:15:00.476,-0.39,-0.04
2021-08-19 22:15:00.480,-0.395,-0.05
2021-08-19 22:15:00.484,-0.395,-0.04
2021-08-19 22:15:00.488,-0.365,-0.05
2021-08-19 22:15:00.492,-0.345,-0.05
2021-08-19 22:15:00.496,-0.305,-0.075
2021-08-19 22:15:00.500,-0.3,-0.08
2021-08-19 22:15:00.504,-0.295,-0.08
2021-08-19 22:15:00.508,-0.285,-0.07
2021-08-19 22:15:00.512,-0.265,-0.055
2021-08-19 22:15:00.516,-0.265,-0.06
2021-08-19 22:15:00.520,-0.25,-0.06
2021-08-19 22:15:00.524,-0.24,-0.075
2021-08-19 22:15:00.528,-0.24,-0.075
2021-08-19 22:15:00.532,-0.24,-0.085
2021-08-19 22:15:00.536,-0.23,-0.08
2021-08-19 22:15:00.540,-0.235,-0.07
2021-08-19 22:15:00.544,-0.235,-0.065
2021-08-19 22:15:00.548,-0.22,-0.07
2021-08-19 22:15:00.552,-0.245,-0.07
2021-08-19 22:15:00.556,-0.23,-0.07
2021-08-19 22:15:00.560,-0.225,-0.075
2021-08-19 22:15:00.564,-0.22,-0.075
2021-08-19 22:15:00.568,-0.21,-0.085
2021-08-19 22:15:00.572,-0.205,-0.095
2021-08-19 22:15:00.576,-0.215,-0.085
2021-08-19 22:15:00.580,-0.215,-0.07
2021-08-19 22:15:00.584,-0.2,-0.085
2021-08-19 22:15:00.588,-0.21,-0.07
2021-08-19 22:15:00.592,-0.225,-0.065
2021-08-19 22:15:00.596,-0.22,-0.06
2021-08-19 22:15:00.600,-0.21,-0.045
2021-08-19 22:15:00.604,-0.2,-0.07
2021-08-19 22:15:00.608,-0.185,-0.045
2021-08-19 22:15:00.612,-0.18,-0.055
2021-08-19 22:15:00.616,-0.195,-0.03
2021-08-19 22:15:00.620,-0.195,-0.03
2021-08-19 22:15:00.624,-0.165,-0.025
2021-08-19 22:15:00.628,-0.155,-0.03
2021-08-19 22:15:00.632,-0.14,-0.02
2021-08-19 22:15:00.636,-0.12,-0.04
2021-08-19 22:15:00.640,-0.12,-0.025
2021-08-19 22:15:00.644,-0.105,-0.005
2021-08-19 22:15:00.648,-0.075,-0.03
2021-08-19 22:15:00.652,-0.05,-0.02
2021-08-19 22:15:00.656,0.0,-0.015
2021-08-19 22:15:00.660,0.04,-0.01
2021-08-19 22:15:00.664,0.055,0.025
2021-08-19 22:15:00.668,0.075,0.0
2021-08-19 22:15:00.672,0.095,0.015
2021-08-19 22:15:00.676,0.085,0.025
2021-08-19 22:15:00.680,0.1,0.04
2021-08-19 22:15:00.684,0.08,0.0
2021-08-19 22:15:00.688,0.055,-0.05
2021-08-19 22:15:00.692,0.025,-0.07
2021-08-19 22:15:00.696,-0.035,-0.065
2021-08-19 22:15:00.700,-0.1,-0.08
2021-08-19 22:15:00.704,-0.155,-0.065
2021-08-19 22:15:00.708,-0.21,-0.055
2021-08-19 22:15:00.712,-0.245,-0.02
2021-08-19 22:15:00.716,-0.26,-0.015
2021-08-19 22:15:00.720,-0.27,-0.015
2021-08-19 22:15:00.724,-0.25,-0.02
2021-08-19 22:15:00.728,-0.26,-0.02
2021-08-19 22:15:00.732,-0.25,0.0
2021-08-19 22:15:00.736,-0.23,-0.025
2021-08-19 22:15:00.740,-0.24,-0.02
2021-08-19 22:15:00.744,-0.235,0.0
2021-08-19 22:15:00.748,-0.225,-0.04
2021-08-19 22:15:00.752,-0.21,-0.05
2021-08-19 22:15:00.756,-0.225,-0.045
2021-08-19 22:15:00.760,-0.23,-0.03
2021-08-19 22:15:00.764,-0.21,-0.04
2021-08-19 22:15:00.768,-0.215,-0.055
2021-08-19 22:15:00.772,-0.205,-0.05
2021-08-19 22:15:00.776,-0.245,-0.05
2021-08-19 22:15:00.780,-0.235,-0.065
2021-08-19 22:15:00.784,-0.23,-0.06
2021-08-19 22:15:00.788,-0.225,-0.06
2021-08-19 22:15:00.792,-0.225,-0.07
2021-08-19 22:15:00.796,-0.225,-0.085
2021-08-19 22:15:00.800,-0.21,-0.08
2021-08-19 22:15:00.804,-0.225,-0.07
2021-08-19 22:15:00.808,-0.21,-0.08
2021-08-19 22:15:00.812,-0.215,-0.08
2021-08-19 22:15:00.816,-0.205,-0.06
2021-08-19 22:15:00.820,-0.205,-0.11
2021-08-19 22:15:00.824,-0.185,-0.09
2021-08-19 22:15:00.828,-0.13,-0.09
2021-08-19 22:15:00.832,-0.055,-0.075
2021-08-19 22:15:00.836,0.035,-0.095
2021-08-19 22:15:00.840,0.105,-0.1
2021-08-19 22:15:00.844,0.175,-0.13
2021-08-19 22:15:00.848,0.23,-0.15
2021-08-19 22:15:00.852,0.265,-0.2
2021-08-19 22:15:00.856,0.29,-0.255
2021-08-19 22:15:00.860,0.29,-0.23
2021-08-19 22:15:00.864,0.28,-0.295
2021-08-19 22:15:00.868,0.28,-0.415
2021-08-19 22:15:00.872,0.45,-0.58
2021-08-19 22:15:00.876,0.74,-0.79
2021-08-19 22:15:00.880,1.02,-1.035
2021-08-19 22:15:00.884,1.185,-1.23
2021-08-19 22:15:00.888,1.06,-1.38
2021-08-19 22:15:00.892,0.63,-1.29
2021-08-19 22:15:00.896,0.15,-0.93
2021-08-19 22:15:00.900,-0.16,-0.565
2021-08-19 22:15:00.904,-0.29,-0.305
2021-08-19 22:15:00.908,-0.33,-0.17
2021-08-19 22:15:00.912,-0.33,-0.07
2021-08-19 22:15:00.916,-0.355,-0.005
2021-08-19 22:15:00.920,-0.37,0.055
2021-08-19 22:15:00.924,-0.36,0.065
2021-08-19 22:15:00.928,-0.38,0.07
2021-08-19 22:15:00.932,-0.37,0.06
2021-08-19 22:15:00.936,-0.39,0.06
2021-08-19 22:15:00.940,-0.385,0.065
2021-08-19 22:15:00.944,-0.39,0.055
2021-08-19 22:15:00.948,-0.36,0.04
2021-08-19 22:15:00.952,-0.38,0.06
2021-08-19 22:15:00.956,-0.37,0.04
2021-08-19 22:15:00.960,-0.375,0.05
2021-08-19 22:15:00.964,-0.365,0.06
2021-08-19 22:15:00.968,-0.365,0.08
2021-08-19 22:15:00.972,-0.36,0.06
2021-08-19 22:15:00.976,-0.37,0.05
2021-08-19 22:15:00.980,-0.36,0.06
2021-08-19 22:15:00.984,-0.37,0.065
2021-08-19 22:15:00.988,-0.38,0.045
2021-08-19 22:15:00.992,-0.375,0.035
2021-08-19 22:15:00.996,-0.405,0.03
2021-08-19 22:15:01.000,-0.41,0.04
2021-08-19 22:15:01.004,-0.41,0.045
2021-08-19 22:15:01.008,-0.435,0.06
2021-08-19 22:15:01.012,-0.44,0.055
2021-08-19 22:15:01.016,-0.435,0.035
2021-08-19 22:15:01.020,-0.42,0.04
2021-08-19 22:15:01.024,-0.43,0.03
2021-08-19 22:15:01.028,-0.425,0.02
2021-08-19 22:15:01.032,-0.42,0.025
2021-08-19 22:15:01.036,-0.425,0.02
2021-08-19 22:15:01.040,-0.45,0.03
2021-08-19 22:15:01.044,-0.455,0.03
2021-08-19 22:15:01.048,-0.44,0.03
2021-08-19 22:15:01.052,-0.44,0.04
2021-08-19 22:15:01.056,-0.435,0.04
2021-08-19 22:15:01.060,-0.43,0.05
2021-08-19 22:15:01.064,-0.4,0.045
2021-08-19 22:15:01.068,-0.39,0.04
2021-08-19 22:15:01.072,-0.39,0.06
2021-08-19 22:15:01.076,-0.4,0.045
2021-08-19 22:15:01.080,-0.38,0.045
2021-08-19 22:15:01.084,-0.37,0.025
2021-08-19 22:15:01.088,-0.345,0.04
2021-08-19 22:15:01.092,-0.36,0.055
2021-08-19 22:15:01.096,-0.33,0.025
2021-08-19 22:15:01.100,-0.33,0.02
2021-08-19 22:15:01.104,-0.325,0.005
2021-08-19 22:15:01.108,-0.31,0.0
2021-08-19 22:15:01.112,-0.315,-0.01
2021-08-19 22:15:01.116,-0.3,-0.035
2021-08-19 22:15:01.120,-0.3,-0.04
2021-08-19 22:15:01.124,-0.3,-0.055
2021-08-19 22:15:01.128,-0.285,-0.055
2021-08-19 22:15:01.132,-0.26,-0.07
2021-08-19 22:15:01.136,-0.27,-0.08
2021-08-19 22:15:01.140,-0.26,-0.08
2021-08-19 22:15:01.144,-0.265,-0.09
2021-08-19 22:15:01.148,-0.235,-0.09
2021-08-19 22:15:01.152,-0.235,-0.09
2021-08-19 22:15:01.156,-0.24,-0.07
2021-08-19 22:15:01.160,-0.215,-0.1
2021-08-19 22:15:01.164,-0.22,-0.08
2021-08-19 22:15:01.168,-0.24,-0.095
2021-08-19 22:15:01.172,-0.205,-0.08
2021-08-19 22:15:01.176,-0.175,-0.09
2021-08-19 22:15:01.180,-0.185,-0.075
2021-08-19 22:15:01.184,-0.18,-0.07
2021-08-19 22:15:01.188,-0.19,-0.095
2021-08-19 22:15:01.192,-0.18,-0.055
2021-08-19 22:15:01.196,-0.18,-0.04
2021-08-19 22:15:01.200,-0.165,-0.045
2021-08-19 22:15:01.204,-0.185,-0.06
2021-08-19 22:15:01.208,-0.19,-0.05
2021-08-19 22:15:01.212,-0.185,-0.065
2021-08-19 22:15:01.216,-0.195,-0.045
2021-08-19 22:15:01.220,-0.18,-0.065
2021-08-19 22:15:01.224,-0.205,-0.05
2021-08-19 22:15:01.228,-0.205,-0.05
2021-08-19 22:15:01.232,-0.22,-0.055
2021-08-19 22:15:01.236,-0.225,-0.06
2021-08-19 22:15:01.240,-0.185,-0.06
2021-08-19 22:15:01.244,-0.16,-0.07
2021-08-19 22:15:01.248,-0.165,-0.06
2021-08-19 22:15:01.252,-0.16,-0.07
2021-08-19 22:15:01.256,-0.16,-0.065
2021-08-19 22:15:01.260,-0.13,-0.05
2021-08-19 22:15:01.264,-0.1,-0.055
2021-08-19 22:15:01.268,-0.03,-0.045
2021-08-19 22:15:01.272,-0.005,-0.03
2021-08-19 22:15:01.276,0.0,-0.01
2021-08-19 22:15:01.280,0.03,-0.005
2021-08-19 22:15:01.284,0.07,0.005
2021-08-19 22:15:01.288,0.09,0.0
2021-08-19 22:15:01.292,0.11,0.01
2021-08-19 22:15:01.296,0.11,-0.005
2021-08-19 22:15:01.300,0.075,-0.025
2021-08-19 22:15:01.304,0.05,-0.06
2021-08-19 22:15:01.308,0.0,-0.07
2021-08-19 22:15:01.312,-0.06,-0.085
2021-08-19 22:15:01.316,-0.14,-0.07
2021-08-19 22:15:01.320,-0.165,-0.08
2021-08-19 22:15:01.324,-0.21,-0.065
2021-08-19 22:15:01.328,-0.26,-0.04
2021-08-19 22:15:01.332,-0.3,-0.04
2021-08-19 22:15:01.336,-0.295,-0.025
2021-08-19 22:15:01.340,-0.32,-0.02
2021-08-19 22:15:01.344,-0.3,-0.05
2021-08-19 22:15:01.348,-0.32,-0.045
2021-08-19 22:15:01.352,-0.32,-0.04
2021-08-19 22:15:01.356,-0.305,-0.05
2021-08-19 22:15:01.360,-0.285,-0.06
2021-08-19 22:15:01.364,-0.32,-0.06
2021-08-19 22:15:01.368,-0.3,-0.075
2021-08-19 22:15:01.372,-0.285,-0.08
2021-08-19 22:15:01.376,-0.27,-0.065
2021-08-19 22:15:01.380,-0.29,-0.09
2021-08-19 22:15:01.384,-0.3,-0.1
2021-08-19 22:15:01.388,-0.28,-0.09
2021-08-19 22:15:01.392,-0.27,-0.085
2021-08-19 22:15:01.396,-0.28,-0.08
2021-08-19 22:15:01.400,-0.27,-0.065
2021-08-19 22:15:01.404,-0.265,-0.08
2021-08-19 22:15:01.408,-0.22,-0.08
2021-08-19 22:15:01.412,-0.24,-0.07
2021-08-19 22:15:01.416,-0.26,-0.08
2021-08-19 22:15:01.420,-0.25,-0.09
2021-08-19 22:15:01.424,-0.25,-0.065
2021-08-19 22:15:01.428,-0.235,-0.08
2021-08-19 22:15:01.432,-0.24,-0.08
2021-08-19 22:15:01.436,-0.235,-0.07
2021-08-19 22:15:01.440,-0.18,-0.085
2021-08-19 22:15:01.444,-0.15,-0.095
2021-08-19 22:15:01.448,-0.075,-0.105
2021-08-19 22:15:01.452,-0.025,-0.09
2021-08-19 22:15:01.456,0.065,-0.11
2021-08-19 22:15:01.460,0.14,-0.145
2021-08-19 22:15:01.464,0.175,-0.205
2021-08-19 22:15:01.468,0.18,-0.265
2021-08-19 22:15:01.472,0.21,-0.29
2021-08-19 22:15:01.476,0.215,-0.305
2021-08-19 22:15:01.480,0.21,-0.405
2021-08-19 22:15:01.484,0.27,-0.53
2021-08-19 22:15:01.488,0.485,-0.695
2021-08-19 22:15:01.492,0.83,-0.93
2021-08-19 22:15:01.496,1.08,-1.165
2021-08-19 22:15:01.500,1.125,-1.355
2021-08-19 22:15:01.504,0.855,-1.405
2021-08-19 22:15:01.508,0.365,-1.18
2021-08-19 22:15:01.512,-0.03,-0.765
2021-08-19 22:15:01.516,-0.235,-0.41
2021-08-19 22:15:01.520,-0.315,-0.235
2021-08-19 22:15:01.524,-0.325,-0.125
2021-08-19 22:15:01.528,-0.32,-0.025
2021-08-19 22:15:01.532,-0.35,0.04
2021-08-19 22:15:01.536,-0.36,0.055
2021-08-19 22:15:01.540,-0.37,0.065
2021-08-19 22:15:01.544,-0.375,0.045
2021-08-19 22:15:01.548,-0.375,0.06
2021-08-19 22:15:01.552,-0.365,0.055
2021-08-19 22:15:01.556,-0.39,0.045
2021-08-19 22:15:01.560,-0.39,0.025
2021-08-19 22:15:01.564,-0.405,0.03
2021-08-19 22:15:01.568,-0.43,0.025
2021-08-19 22:15:01.572,-0.42,0.035
2021-08-19 22:15:01.576,-0.41,0.025
2021-08-19 22:15:01.580,-0.41,0.025
2021-08-19 22:15:01.584,-0.435,0.025
2021-08-19 22:15:01.588,-0.41,0.01
2021-08-19 22:15:01.592,-0.435,0.015
2021-08-19 22:15:01.596,-0.445,0.03
2021-08-19 22:15:01.600,-0.44,0.025
2021-08-19 22:15:01.604,-0.435,0.015
2021-08-19 22:15:01.608,-0.43,0.035
2021-08-19 22:15:01.612,-0.455,0.02
2021-08-19 22:15:01.616,-0.46,0.04
2021-08-19 22:15:01.620,-0.44,0.045
2021-08-19 22:15:01.624,-0.43,0.06
2021-08-19 22:15:01.628,-0.435,0.045
2021-08-19 22:15:01.632,-0.445,0.055
2021-08-19 22:15:01.636,-0.465,0.07
2021-08-19 22:15:01.640,-0.485,0.045
2021-08-19 22:15:01.644,-0.48,0.06
2021-08-19 22:15:01.648,-0.47,0.065
2021-08-19 22:15:01.652,-0.47,0.05
2021-08-19 22:15:01.656,-0.465,0.09
2021-08-19 22:15:01.660,-0.47,0.08
2021-08-19 22:15:01.664,-0.465,0.06
2021-08-19 22:15:01.668,-0.455,0.045
2021-08-19 22:15:01.672,-0.47,0.045
2021-08-19 22:15:01.676,-0.47,0.08
2021-08-19 22:15:01.680,-0.455,0.06
2021-08-19 22:15:01.684,-0.46,0.08
2021-08-19 22:15:01.688,-0.445,0.065
2021-08-19 22:15:01.692,-0.44,0.065
2021-08-19 22:15:01.696,-0.43,0.04
2021-08-19 22:15:01.700,-0.42,0.045
2021-08-19 22:15:01.704,-0.4,0.02
2021-08-19 22:15:01.708,-0.4,0.02
2021-08-19 22:15:01.712,-0.385,0.02
2021-08-19 22:15:01.716,-0.38,0.01
2021-08-19 22:15:01.720,-0.38,0.005
2021-08-19 22:15:01.724,-0.35,-0.015
2021-08-19 22:15:01.728,-0.35,-0.015
2021-08-19 22:15:01.732,-0.34,-0.02
2021-08-19 22:15:01.736,-0.325,-0.02
2021-08-19 22:15:01.740,-0.29,-0.015
2021-08-19 22:15:01.744,-0.3,-0.025
2021-08-19 22:15:01.748,-0.275,-0.045
2021-08-19 22:15:01.752,-0.27,-0.035
2021-08-19 22:15:01.756,-0.255,-0.05
2021-08-19 22:15:01.760,-0.275,-0.035
2021-08-19 22:15:01.764,-0.255,-0.01
2021-08-19 22:15:01.768,-0.26,-0.025
2021-08-19 22:15:01.772,-0.255,-0.015
2021-08-19 22:15:01.776,-0.245,-0.03
2021-08-19 22:15:01.780,-0.245,-0.035
2021-08-19 22:15:01.784,-0.225,-0.025
2021-08-19 22:15:01.788,-0.235,-0.03
2021-08-19 22:15:01.792,-0.24,-0.025
2021-08-19 22:15:01.796,-0.245,-0.04
2021-08-19 22:15:01.800,-0.255,-0.035
2021-08-19 22:15:01.804,-0.26,-0.01
2021-08-19 22:15:01.808,-0.245,-0.035
2021-08-19 22:15:01.812,-0.235,-0.025
2021-08-19 22:15:01.816,-0.23,-0.035
2021-08-19 22:15:01.820,-0.235,-0.025
2021-08-19 22:15:01.824,-0.24,-0.01
2021-08-19 22:15:01.828,-0.225,-0.025
2021-08-19 22:15:01.832,-0.23,-0.035
2021-08-19 22:15:01.836,-0.24,-0.03
2021-08-19 22:15:01.840,-0.245,-0.02
2021-08-19 22:15:01.844,-0.235,-0.05
2021-08-19 22:15:01.848,-0.225,-0.04
2021-08-19 22:15:01.852,-0.22,-0.05
2021-08-19 22:15:01.856,-0.205,-0.025
2021-08-19 22:15:01.860,-0.215,-0.035
2021-08-19 22:15:01.864,-0.19,-0.03
2021-08-19 22:15:01.868,-0.17,-0.025
2021-08-19 22:15:01.872,-0.165,-0.02
2021-08-19 22:15:01.876,-0.185,-0.025
2021-08-19 22:15:01.880,-0.165,-0.025
2021-08-19 22:15:01.884,-0.15,-0.03
2021-08-19 22:15:01.888,-0.13,-0.015
2021-08-19 22:15:01.892,-0.08,0.005
2021-08-19 22:15:01.896,-0.03,0.0
2021-08-19 22:15:01.900,-0.01,0.01
2021-08-19 22:15:01.904,0.015,-0.005
2021-08-19 22:15:01.908,0.05,0.005
2021-08-19 22:15:01.912,0.09,-0.005
2021-08-19 22:15:01.916,0.095,0.0
2021-08-19 22:15:01.920,0.12,0.005
2021-08-19 22:15:01.924,0.1,-0.01
2021-08-19 22:15:01.928,0.065,-0.04
2021-08-19 22:15:01.932,0.035,-0.07
2021-08-19 22:15:01.936,-0.045,-0.085
2021-08-19 22:15:01.940,-0.105,-0.075
2021-08-19 22:15:01.944,-0.165,-0.085
2021-08-19 22:15:01.948,-0.2,-0.09
2021-08-19 22:15:01.952,-0.26,-0.06
2021-08-19 22:15:01.956,-0.29,-0.045
2021-08-19 22:15:01.960,-0.3,-0.055
2021-08-19 22:15:01.964,-0.28,-0.045
2021-08-19 22:15:01.968,-0.275,-0.04
2021-08-19 22:15:01.972,-0.265,-0.05
2021-08-19 22:15:01.976,-0.255,-0.04
2021-08-19 22:15:01.980,-0.255,-0.045
2021-08-19 22:15:01.984,-0.26,-0.05
2021-08-19 22:15:01.988,-0.26,-0.04
2021-08-19 22:15:01.992,-0.25,-0.03
2021-08-19 22:15:01.996,-0.24,-0.06
2021-08-19 22:15:02.000,-0.245,-0.04
2021-08-19 22:15:02.004,-0.265,-0.065
2021-08-19 22:15:02.008,-0.25,-0.08
2021-08-19 22:15:02.012,-0.25,-0.085
2021-08-19 22:15:02.016,-0.26,-0.08
2021-08-19 22:15:02.020,-0.26,-0.08
2021-08-19 22:15:02.024,-0.25,-0.085
2021-08-19 22:15:02.028,-0.23,-0.09
2021-08-19 22:15:02.032,-0.24,-0.075
2021-08-19 22:15:02.036,-0.23,-0.1
2021-08-19 22:15:02.040,-0.235,-0.11
2021-08-19 22:15:02.044,-0.25,-0.11
2021-08-19 22:15:02.048,-0.24,-0.12
2021-08-19 22:15:02.052,-0.255,-0.12
2021-08-19 22:15:02.056,-0.24,-0.1
2021-08-19 22:15:02.060,-0.22,-0.09
2021-08-19 22:15:02.064,-0.155,-0.09
2021-08-19 22:15:02.068,-0.125,-0.125
2021-08-19 22:15:02.072,-0.02,-0.115
2021-08-19 22:15:02.076,0.06,-0.105
2021-08-19 22:15:02.080,0.16,-0.13
2021-08-19 22:15:02.084,0.225,-0.155
2021-08-19 22:15:02.088,0.27,-0.21
2021-08-19 22:15:02.092,0.335,-0.255
2021-08-19 22:15:02.096,0.365,-0.235
2021-08-19 22:15:02.100,0.36,-0.27
2021-08-19 22:15:02.104,0.34,-0.345
2021-08-19 22:15:02.108,0.43,-0.435
2021-08-19 22:15:02.112,0.65,-0.595
2021-08-19 22:15:02.116,0.95,-0.815
2021-08-19 22:15:02.120,1.17,-1.065
2021-08-19 22:15:02.124,1.13,-1.22
2021-08-19 22:15:02.128,0.795,-1.24
2021-08-19 22:15:02.132,0.3,-0.995
2021-08-19 22:15:02.136,-0.045,-0.64
2021-08-19 22:15:02.140,-0.205,-0.4
2021-08-19 22:15:02.144,-0.27,-0.265
2021-08-19 22:15:02.148,-0.29,-0.15
2021-08-19 22:15:02.152,-0.295,-0.065
2021-08-19 22:15:02.156,-0.33,-0.02
2021-08-19 22:15:02.160,-0.375,0.01
2021-08-19 22:15:02.164,-0.39,0.015
2021-08-19 22:15:02.168,-0.39,0.03
2021-08-19 22:15:02.172,-0.4,0.0
2021-08-19 22:15:02.176,-0.405,0.005
2021-08-19 22:15:02.180,-0.39,-0.015
2021-08-19 22:15:02.184,-0.41,-0.005
2021-08-19 22:15:02.188,-0.4,-0.015
2021-08-19 22:15:02.192,-0.39,-0.01
2021-08-19 22:15:02.196,-0.37,-0.025
2021-08-19 22:15:02.200,-0.4,-0.01
2021-08-19 22:15:02.204,-0.405,-0.025
2021-08-19 22:15:02.208,-0.395,-0.02
2021-08-19 22:15:02.212,-0.41,0.0
2021-08-19 22:15:02.216,-0.405,0.01
2021-08-19 22:15:02.220,-0.42,-0.02
2021-08-19 22:15:02.224,-0.43,-0.005
2021-08-19 22:15:02.228,-0.43,0.0
2021-08-19 22:15:02.232,-0.455,-0.01
2021-08-19 22:15:02.236,-0.465,0.0
2021-08-19 22:15:02.240,-0.45,-0.01
2021-08-19 22:15:02.244,-0.47,0.0
2021-08-19 22:15:02.248,-0.475,0.005
2021-08-19 22:15:02.252,-0.47,-0.02
2021-08-19 22:15:02.256,-0.48,-0.015
2021-08-19 22:15:02.260,-0.48,-0.02
2021-08-19 22:15:02.264,-0.48,-0.01
2021-08-19 22:15:02.268,-0.475,0.0
2021-08-19 22:15:02.272,-0.46,-0.01
2021-08-19 22:15:02.276,-0.48,-0.01
2021-08-19 22:15:02.280,-0.48,-0.005
2021-08-19 22:15:02.284,-0.48,0.0
2021-08-19 22:15:02.288,-0.475,0.02
2021-08-19 22:15:02.292,-0.47,0.02
2021-08-19 22:15:02.296,-0.465,0.01
2021-08-19 22:15:02.300,-0.46,0.025
2021-08-19 22:15:02.304,-0.44,0.01
2021-08-19 22:15:02.308,-0.445,0.03
2021-08-19 22:15:02.312,-0.435,0.01
2021-08-19 22:15:02.316,-0.42,0.025
2021-08-19 22:15:02.320,-0.41,0.02
2021-08-19 22:15:02.324,-0.41,0.03
2021-08-19 22:15:02.328,-0.41,0.03
2021-08-19 22:15:02.332,-0.385,0.02
2021-08-19 22:15:02.336,-0.385,0.005
2021-08-19 22:15:02.340,-0.355,-0.015
2021-08-19 22:15:02.344,-0.36,-0.025
2021-08-19 22:15:02.348,-0.35,-0.035
2021-08-19 22:15:02.352,-0.35,-0.03
2021-08-19 22:15:02.356,-0.33,-0.045
2021-08-19 22:15:02.360,-0.305,-0.055
2021-08-19 22:15:02.364,-0.3,-0.08
2021-08-19 22:15:02.368,-0.28,-0.07
2021-08-19 22:15:02.372,-0.275,-0.065
2021-08-19 22:15:02.376,-0.26,-0.115
2021-08-19 22:15:02.380,-0.245,-0.11
2021-08-19 22:15:02.384,-0.25,-0.1
2021-08-19 22:15:02.388,-0.23,-0.085
2021-08-19 22:15:02.392,-0.235,-0.08
2021-08-19 22:15:02.396,-0.23,-0.08
2021-08-19 22:15:02.400,-0.23,-0.08
2021-08-19 22:15:02.404,-0.2,-0.1
2021-08-19 22:15:02.408,-0.19,-0.07
2021-08-19 22:15:02.412,-0.17,-0.075
2021-08-19 22:15:02.416,-0.17,-0.095
2021-08-19 22:15:02.420,-0.16,-0.09
2021-08-19 22:15:02.424,-0.185,-0.08
2021-08-19 22:15:02.428,-0.18,-0.075
2021-08-19 22:15:02.432,-0.15,-0.055
2021-08-19 22:15:02.436,-0.15,-0.06
2021-08-19 22:15:02.440,-0.16,-0.04
2021-08-19 22:15:02.444,-0.17,-0.05
2021-08-19 22:15:02.448,-0.175,-0.07
2021-08-19 22:15:02.452,-0.175,-0.065
2021-08-19 22:15:02.456,-0.195,-0.06
2021-08-19 22:15:02.460,-0.19,-0.06
2021-08-19 22:15:02.464,-0.185,-0.05
2021-08-19 22:15:02.468,-0.19,-0.04
2021-08-19 22:15:02.472,-0.2,-0.04
2021-08-19 22:15:02.476,-0.19,-0.045
2021-08-19 22:15:02.480,-0.18,-0.045
2021-08-19 22:15:02.484,-0.16,-0.055
2021-08-19 22:15:02.488,-0.155,-0.045
2021-08-19 22:15:02.492,-0.155,-0.05
2021-08-19 22:15:02.496,-0.13,-0.035
2021-08-19 22:15:02.500,-0.12,-0.045
2021-08-19 22:15:02.504,-0.135,-0.04
2021-08-19 22:15:02.508,-0.11,-0.025
2021-08-19 22:15:02.512,-0.03,-0.04
2021-08-19 22:15:02.516,0.0,-0.015
2021-08-19 22:15:02.520,0.035,-0.02
2021-08-19 22:15:02.524,0.055,0.03
2021-08-19 22:15:02.528,0.09,0.0
2021-08-19 22:15:02.532,0.13,0.0
2021-08-19 22:15:02.536,0.145,0.0
2021-08-19 22:15:02.540,0.13,-0.005
2021-08-19 22:15:02.544,0.12,-0.015
2021-08-19 22:15:02.548,0.08,-0.01
2021-08-19 22:15:02.552,0.03,-0.075
2021-08-19 22:15:02.556,-0.01,-0.075
2021-08-19 22:15:02.560,-0.06,-0.11
2021-08-19 22:15:02.564,-0.1,-0.085
2021-08-19 22:15:02.568,-0.185,-0.075
2021-08-19 22:15:02.572,-0.235,-0.065
2021-08-19 22:15:02.576,-0.28,-0.035
2021-08-19 22:15:02.580,-0.27,-0.04
2021-08-19 22:15:02.584,-0.29,-0.045
2021-08-19 22:15:02.588,-0.275,-0.02
2021-08-19 22:15:02.592,-0.27,-0.045
2021-08-19 22:15:02.596,-0.25,-0.075
2021-08-19 22:15:02.600,-0.27,-0.07
2021-08-19 22:15:02.604,-0.25,-0.055
2021-08-19 22:15:02.608,-0.26,-0.055
2021-08-19 22:15:02.612,-0.24,-0.07
2021-08-19 22:15:02.616,-0.245,-0.07
2021-08-19 22:15:02.620,-0.23,-0.065
2021-08-19 22:15:02.624,-0.23,-0.065
2021-08-19 22:15:02.628,-0.22,-0.065
2021-08-19 22:15:02.632,-0.2,-0.06
2021-08-19 22:15:02.636,-0.205,-0.045
2021-08-19 22:15:02.640,-0.215,-0.06
2021-08-19 22:15:02.644,-0.195,-0.06
2021-08-19 22:15:02.648,-0.21,-0.08
2021-08-19 22:15:02.652,-0.2,-0.06
2021-08-19 22:15:02.656,-0.19,-0.075
2021-08-19 22:15:02.660,-0.215,-0.05
2021-08-19 22:15:02.664,-0.2,-0.04
2021-08-19 22:15:02.668,-0.225,-0.05
2021-08-19 22:15:02.672,-0.19,-0.06
2021-08-19 22:15:02.676,-0.18,-0.075
2021-08-19 22:15:02.680,-0.19,-0.075
2021-08-19 22:15:02.684,-0.18,-0.055
2021-08-19 22:15:02.688,-0.135,-0.045
2021-08-19 22:15:02.692,-0.065,-0.07
2021-08-19 22:15:02.696,0.02,-0.095
2021-08-19 22:15:02.700,0.1,-0.095
2021-08-19 22:15:02.704,0.185,-0.12
2021-08-19 22:15:02.708,0.235,-0.16
2021-08-19 22:15:02.712,0.24,-0.22
2021-08-19 22:15:02.716,0.27,-0.27
2021-08-19 22:15:02.720,0.29,-0.27
2021-08-19 22:15:02.724,0.275,-0.355
2021-08-19 22:15:02.728,0.325,-0.475
2021-08-19 22:15:02.732,0.49,-0.635
2021-08-19 22:15:02.736,0.79,-0.825
2021-08-19 22:15:02.740,1.08,-1.075
2021-08-19 22:15:02.744,1.225,-1.29
2021-08-19 22:15:02.748,1.045,-1.39
2021-08-19 22:15:02.752,0.59,-1.265
2021-08-19 22:15:02.756,0.125,-0.87
2021-08-19 22:15:02.760,-0.135,-0.53
2021-08-19 22:15:02.764,-0.25,-0.275
2021-08-19 22:15:02.768,-0.29,-0.13
2021-08-19 22:15:02.772,-0.295,-0.045
2021-08-19 22:15:02.776,-0.31,0.02
2021-08-19 22:15:02.780,-0.335,0.045
2021-08-19 22:15:02.784,-0.345,0.08
2021-08-19 22:15:02.788,-0.32,0.07
2021-08-19 22:15:02.792,-0.345,0.05
2021-08-19 22:15:02.796,-0.365,0.05
2021-08-19 22:15:02.800,-0.37,0.035
2021-08-19 22:15:02.804,-0.375,0.035
2021-08-19 22:15:02.808,-0.36,0.025
2021-08-19 22:15:02.812,-0.375,0.035
2021-08-19 22:15:02.816,-0.365,0.03
2021-08-19 22:15:02.820,-0.37,0.04
2021-08-19 22:15:02.824,-0.365,0.055
2021-08-19 22:15:02.828,-0.395,0.035
2021-08-19 22:15:02.832,-0.36,0.05
2021-08-19 22:15:02.836,-0.385,0.035
2021-08-19 22:15:02.840,-0.38,0.03
2021-08-19 22:15:02.844,-0.38,0.015
2021-08-19 22:15:02.848,-0.38,0.035
2021-08-19 22:15:02.852,-0.375,0.03
2021-08-19 22:15:02.856,-0.37,0.025
2021-08-19 22:15:02.860,-0.385,0.045
2021-08-19 22:15:02.864,-0.39,0.05
2021-08-19 22:15:02.868,-0.39,0.055
2021-08-19 22:15:02.872,-0.37,0.055
2021-08-19 22:15:02.876,-0.395,0.07
2021-08-19 22:15:02.880,-0.41,0.045
2021-08-19 22:15:02.884,-0.41,0.08
2021-08-19 22:15:02.888,-0.405,0.065
2021-08-19 22:15:02.892,-0.405,0.085
2021-08-19 22:15:02.896,-0.415,0.09
2021-08-19 22:15:02.900,-0.44,0.07
2021-08-19 22:15:02.904,-0.43,0.045
2021-08-19 22:15:02.908,-0.415,0.065
2021-08-19 22:15:02.912,-0.42,0.055
2021-08-19 22:15:02.916,-0.44,0.075
2021-08-19 22:15:02.920,-0.42,0.09
2021-08-19 22:15:02.924,-0.42,0.055
2021-08-19 22:15:02.928,-0.42,0.06
2021-08-19 22:15:02.932,-0.4,0.055
2021-08-19 22:15:02.936,-0.395,0.045
2021-08-19 22:15:02.940,-0.375,0.06
2021-08-19 22:15:02.944,-0.38,0.065
2021-08-19 22:15:02.948,-0.38,0.035
2021-08-19 22:15:02.952,-0.36,0.05
2021-08-19 22:15:02.956,-0.345,0.03
2021-08-19 22:15:02.960,-0.325,0.025
2021-08-19 22:15:02.964,-0.31,0.02
2021-08-19 22:15:02.968,-0.305,0.005
2021-08-19 22:15:02.972,-0.28,-0.01
2021-08-19 22:15:02.976,-0.27,-0.01
2021-08-19 22:15:02.980,-0.275,-0.02
2021-08-19 22:15:02.984,-0.26,-0.025
2021-08-19 22:15:02.988,-0.24,-0.02
2021-08-19 22:15:02.992,-0.24,-0.035
2021-08-19 22:15:02.996,-0.225,-0.025
2021-08-19 22:15:03.000,-0.22,-0.04
2021-08-19 22:15:03.004,-0.21,-0.04
2021-08-19 22:15:03.008,-0.195,-0.05
2021-08-19 22:15:03.012,-0.195,-0.045
2021-08-19 22:15:03.016,-0.2,-0.035
2021-08-19 22:15:03.020,-0.2,-0.07
2021-08-19 22:15:03.024,-0.19,-0.05
2021-08-19 22:15:03.028,-0.18,-0.075
2021-08-19 22:15:03.032,-0.185,-0.08
2021-08-19 22:15:03.036,-0.19,-0.08
2021-08-19 22:15:03.040,-0.195,-0.06
2021-08-19 22:15:03.044,-0.18,-0.065
2021-08-19 22:15:03.048,-0.195,-0.07
2021-08-19 22:15:03.052,-0.18,-0.065
2021-08-19 22:15:03.056,-0.185,-0.08
2021-08-19 22:15:03.060,-0.19,-0.04
2021-08-19 22:15:03.064,-0.175,-0.055
2021-08-19 22:15:03.068,-0.145,-0.055
2021-08-19 22:15:03.072,-0.18,-0.07
2021-08-19 22:15:03.076,-0.18,-0.035
2021-08-19 22:15:03.080,-0.165,-0.055
2021-08-19 22:15:03.084,-0.14,-0.035
2021-08-19 22:15:03.088,-0.135,-0.02
2021-08-19 22:15:03.092,-0.17,-0.02
2021-08-19 22:15:03.096,-0.14,-0.025
2021-08-19 22:15:03.100,-0.125,-0.03
2021-08-19 22:15:03.104,-0.105,-0.03
2021-08-19 22:15:03.108,-0.12,-0.03
2021-08-19 22:15:03.112,-0.1,-0.035
2021-08-19 22:15:03.116,-0.085,-0.04
2021-08-19 22:15:03.120,-0.055,-0.02
2021-08-19 22:15:03.124,-0.01,-0.02
2021-08-19 22:15:03.128,0.015,0.015
2021-08-19 22:15:03.132,0.035,0.0
2021-08-19 22:15:03.136,0.065,0.005
2021-08-19 22:15:03.140,0.09,-0.005
2021-08-19 22:15:03.144,0.1,0.005
2021-08-19 22:15:03.148,0.115,-0.01
2021-08-19 22:15:03.152,0.11,-0.03
2021-08-19 22:15:03.156,0.075,-0.065
2021-08-19 22:15:03.160,0.015,-0.09
2021-08-19 22:15:03.164,-0.01,-0.095
2021-08-19 22:15:03.168,-0.07,-0.11
2021-08-19 22:15:03.172,-0.135,-0.12
2021-08-19 22:15:03.176,-0.185,-0.08
2021-08-19 22:15:03.180,-0.2,-0.09
2021-08-19 22:15:03.184,-0.23,-0.07
2021-08-19 22:15:03.188,-0.24,-0.05
2021-08-19 22:15:03.192,-0.255,-0.04
2021-08-19 22:15:03.196,-0.26,-0.04
2021-08-19 22:15:03.200,-0.24,-0.035
2021-08-19 22:15:03.204,-0.245,-0.04
2021-08-19 22:15:03.208,-0.255,-0.055
2021-08-19 22:15:03.212,-0.25,-0.065
2021-08-19 22:15:03.216,-0.24,-0.06
2021-08-19 22:15:03.220,-0.22,-0.085
2021-08-19 22:15:03.224,-0.24,-0.085
2021-08-19 22:15:03.228,-0.24,-0.095
2021-08-19 22:15:03.232,-0.255,-0.1
2021-08-19 22:15:03.236,-0.255,-0.1
2021-08-19 22:15:03.240,-0.255,-0.095
2021-08-19 22:15:03.244,-0.245,-0.105
2021-08-19 22:15:03.248,-0.255,-0.11
2021-08-19 22:15:03.252,-0.24,-0.13
2021-08-19 22:15:03.256,-0.24,-0.14
2021-08-19 22:15:03.260,-0.24,-0.115
2021-08-19 22:15:03.264,-0.245,-0.115
2021-08-19 22:15:03.268,-0.24,-0.13
2021-08-19 22:15:03.272,-0.245,-0.125
2021-08-19 22:15:03.276,-0.23,-0.115
2021-08-19 22:15:03.280,-0.23,-0.12
2021-08-19 22:15:03.284,-0.25,-0.12
2021-08-19 22:15:03.288,-0.215,-0.1
2021-08-19 22:15:03.292,-0.215,-0.11
2021-08-19 22:15:03.296,-0.165,-0.125
2021-08-19 22:15:03.300,-0.11,-0.13
2021-08-19 22:15:03.304,-0.065,-0.125
2021-08-19 22:15:03.308,0.015,-0.11
2021-08-19 22:15:03.312,0.085,-0.12
2021-08-19 22:15:03.316,0.14,-0.165
2021-08-19 22:15:03.320,0.19,-0.215
2021-08-19 22:15:03.324,0.2,-0.24
2021-08-19 22:15:03.328,0.24,-0.285
2021-08-19 22:15:03.332,0.26,-0.33
2021-08-19 22:15:03.336,0.235,-0.4
2021-08-19 22:15:03.340,0.265,-0.515
2021-08-19 22:15:03.344,0.485,-0.68
2021-08-19 22:15:03.348,0.76,-0.895
2021-08-19 22:15:03.352,1.04,-1.16
2021-08-19 22:15:03.356,1.15,-1.355
2021-08-19 22:15:03.360,0.92,-1.455
2021-08-19 22:15:03.364,0.465,-1.295
2021-08-19 22:15:03.368,0.025,-0.91
2021-08-19 22:15:03.372,-0.24,-0.53
2021-08-19 22:15:03.376,-0.3,-0.295
2021-08-19 22:15:03.380,-0.315,-0.18
2021-08-19 22:15:03.384,-0.335,-0.085
2021-08-19 22:15:03.388,-0.38,-0.02
2021-08-19 22:15:03.392,-0.37,0.01
2021-08-19 22:15:03.396,-0.36,0.005
2021-08-19 22:15:03.400,-0.37,0.035
2021-08-19 22:15:03.404,-0.38,0.01
2021-08-19 22:15:03.408,-0.355,0.0
2021-08-19 22:15:03.412,-0.355,0.0
2021-08-19 22:15:03.416,-0.37,-0.005
2021-08-19 22:15:03.420,-0.36,0.0
2021-08-19 22:15:03.424,-0.37,0.0
2021-08-19 22:15:03.428,-0.36,0.015
2021-08-19 22:15:03.432,-0.36,0.01
2021-08-19 22:15:03.436,-0.375,0.02
2021-08-19 22:15:03.440,-0.375,0.025
2021-08-19 22:15:03.444,-0.365,0.0
2021-08-19 22:15:03.448,-0.39,0.01
2021-08-19 22:15:03.452,-0.405,0.02
2021-08-19 22:15:03.456,-0.4,0.005
2021-08-19 22:15:03.460,-0.42,0.01
2021-08-19 22:15:03.464,-0.43,0.0
2021-08-19 22:15:03.468,-0.445,0.005
2021-08-19 22:15:03.472,-0.44,0.0
2021-08-19 22:15:03.476,-0.45,-0.005
2021-08-19 22:15:03.480,-0.455,0.01
2021-08-19 22:15:03.484,-0.46,-0.015
2021-08-19 22:15:03.488,-0.465,0.01
2021-08-19 22:15:03.492,-0.46,0.005
2021-08-19 22:15:03.496,-0.475,0.01
2021-08-19 22:15:03.500,-0.47,-0.005
2021-08-19 22:15:03.504,-0.45,0.0
2021-08-19 22:15:03.508,-0.47,0.0
2021-08-19 22:15:03.512,-0.475,0.005
2021-08-19 22:15:03.516,-0.475,0.005
2021-08-19 22:15:03.520,-0.48,0.025
2021-08-19 22:15:03.524,-0.48,0.025
2021-08-19 22:15:03.528,-0.45,0.05
2021-08-19 22:15:03.532,-0.44,0.035
2021-08-19 22:15:03.536,-0.445,0.045
2021-08-19 22:15:03.540,-0.44,0.05
2021-08-19 22:15:03.544,-0.43,0.05
2021-08-19 22:15:03.548,-0.405,0.05
2021-08-19 22:15:03.552,-0.415,0.05
2021-08-19 22:15:03.556,-0.42,0.035
2021-08-19 22:15:03.560,-0.39,0.05
2021-08-19 22:15:03.564,-0.4,0.015
2021-08-19 22:15:03.568,-0.395,0.005
2021-08-19 22:15:03.572,-0.4,0.0
2021-08-19 22:15:03.576,-0.375,-0.02
2021-08-19 22:15:03.580,-0.38,-0.03
2021-08-19 22:15:03.584,-0.365,-0.015
2021-08-19 22:15:03.588,-0.345,-0.06
2021-08-19 22:15:03.592,-0.315,-0.04
2021-08-19 22:15:03.596,-0.31,-0.065
2021-08-19 22:15:03.600,-0.3,-0.05
2021-08-19 22:15:03.604,-0.3,-0.07
2021-08-19 22:15:03.608,-0.28,-0.065
2021-08-19 22:15:03.612,-0.275,-0.06
2021-08-19 22:15:03.616,-0.28,-0.08
2021-08-19 22:15:03.620,-0.28,-0.065
2021-08-19 22:15:03.624,-0.25,-0.085
2021-08-19 22:15:03.628,-0.245,-0.08
2021-08-19 22:15:03.632,-0.245,-0.075
2021-08-19 22:15:03.636,-0.23,-0.055
2021-08-19 22:15:03.640,-0.24,-0.05
2021-08-19 22:15:03.644,-0.21,-0.06
2021-08-19 22:15:03.648,-0.235,-0.05
2021-08-19 22:15:03.652,-0.19,-0.045
2021-08-19 22:15:03.656,-0.195,-0.05
2021-08-19 22:15:03.660,-0.205,-0.045
2021-08-19 22:15:03.664,-0.225,-0.055
2021-08-19 22:15:03.668,-0.225,-0.035
2021-08-19 22:15:03.672,-0.22,-0.035
2021-08-19 22:15:03.676,-0.225,-0.025
2021-08-19 22:15:03.680,-0.23,-0.03
2021-08-19 22:15:03.684,-0.255,-0.035
2021-08-19 22:15:03.688,-0.235,-0.03
2021-08-19 22:15:03.692,-0.225,-0.03
2021-08-19 22:15:03.696,-0.23,-0.03
2021-08-19 22:15:03.700,-0.24,-0.03
2021-08-19 22:15:03.704,-0.225,-0.04
2021-08-19 22:15:03.708,-0.225,-0.04
2021-08-19 22:15:03.712,-0.205,-0.025
2021-08-19 22:15:03.716,-0.195,-0.03
2021-08-19 22:15:03.720,-0.19,-0.025
2021-08-19 22:15:03.724,-0.16,-0.04
2021-08-19 22:15:03.728,-0.155,-0.045
2021-08-19 22:15:03.732,-0.155,-0.025
2021-08-19 22:15:03.736,-0.13,-0.02
2021-08-19 22:15:03.740,-0.045,-0.03
2021-08-19 22:15:03.744,-0.015,0.0
2021-08-19 22:15:03.748,0.04,0.01
2021-08-19 22:15:03.752,0.035,0.005
2021-08-19 22:15:03.756,0.095,0.03
2021-08-19 22:15:03.760,0.145,0.015
2021-08-19 22:15:03.764,0.13,0.01
2021-08-19 22:15:03.768,0.125,0.035
2021-08-19 22:15:03.772,0.11,-0.01
2021-08-19 22:15:03.776,0.055,-0.035
2021-08-19 22:15:03.780,-0.005,-0.055
2021-08-19 22:15:03.784,-0.05,-0.075
2021-08-19 22:15:03.788,-0.1,-0.09
2021-08-19 22:15:03.792,-0.175,-0.085
2021-08-19 22:15:03.796,-0.24,-0.075
2021-08-19 22:15:03.800,-0.285,-0.05
2021-08-19 22:15:03.804,-0.305,-0.05
2021-08-19 22:15:03.808,-0.305,-0.04
2021-08-19 22:15:03.812,-0.31,-0.05
2021-08-19 22:15:03.816,-0.32,-0.04
2021-08-19 22:15:03.820,-0.3,-0.055
2021-08-19 22:15:03.824,-0.285,-0.1
2021-08-19 22:15:03.828,-0.28,-0.08
2021-08-19 22:15:03.832,-0.295,-0.1
2021-08-19 22:15:03.836,-0.275,-0.09
2021-08-19 22:15:03.840,-0.285,-0.08
2021-08-19 22:15:03.844,-0.275,-0.07
2021-08-19 22:15:03.848,-0.28,-0.065
2021-08-19 22:15:03.852,-0.25,-0.08
2021-08-19 22:15:03.856,-0.245,-0.095
2021-08-19 22:15:03.860,-0.25,-0.105
2021-08-19 22:15:03.864,-0.245,-0.125
2021-08-19 22:15:03.868,-0.245,-0.105
2021-08-19 22:15:03.872,-0.235,-0.1
2021-08-19 22:15:03.876,-0.23,-0.105
2021-08-19 22:15:03.880,-0.23,-0.08
2021-08-19 22:15:03.884,-0.23,-0.115
2021-08-19 22:15:03.888,-0.245,-0.09
2021-08-19 22:15:03.892,-0.23,-0.09
2021-08-19 22:15:03.896,-0.215,-0.095
2021-08-19 22:15:03.900,-0.22,-0.1
2021-08-19 22:15:03.904,-0.2,-0.105
2021-08-19 22:15:03.908,-0.21,-0.095
2021-08-19 22:15:03.912,-0.21,-0.095
2021-08-19 22:15:03.916,-0.185,-0.115
2021-08-19 22:15:03.920,-0.12,-0.105
2021-08-19 22:15:03.924,-0.02,-0.12
2021-08-19 22:15:03.928,0.05,-0.135
2021-08-19 22:15:03.932,0.125,-0.155
2021-08-19 22:15:03.936,0.215,-0.2
2021-08-19 22:15:03.940,0.255,-0.255
2021-08-19 22:15:03.944,0.295,-0.265
2021-08-19 22:15:03.948,0.31,-0.265
2021-08-19 22:15:03.952,0.31,-0.295
2021-08-19 22:15:03.956,0.29,-0.375
2021-08-19 22:15:03.960,0.37,-0.48
2021-08-19 22:15:03.964,0.63,-0.635
2021-08-19 22:15:03.968,0.94,-0.83
2021-08-19 22:15:03.972,1.145,-1.06
2021-08-19 22:15:03.976,1.14,-1.245
2021-08-19 22:15:03.980,0.79,-1.285
2021-08-19 22:15:03.984,0.355,-1.015
2021-08-19 22:15:03.988,0.01,-0.68
2021-08-19 22:15:03.992,-0.15,-0.405
2021-08-19 22:15:03.996,-0.23,-0.26
2021-08-19 22:15:04.000,-0.27,-0.15
2021-08-19 22:15:04.004,-0.27,-0.065
2021-08-19 22:15:04.008,-0.31,0.005
2021-08-19 22:15:04.012,-0.34,0.02
2021-08-19 22:15:04.016,-0.38,0.03
2021-08-19 22:15:04.020,-0.415,0.005
2021-08-19 22:15:04.024,-0.395,0.005
2021-08-19 22:15:04.028,-0.41,0.0
2021-08-19 22:15:04.032,-0.4,-0.02
2021-08-19 22:15:04.036,-0.39,-0.02
2021-08-19 22:15:04.040,-0.4,-0.04
2021-08-19 22:15:04.044,-0.425,-0.03
2021-08-19 22:15:04.048,-0.4,-0.025
2021-08-19 22:15:04.052,-0.405,-0.045
2021-08-19 22:15:04.056,-0.41,-0.045
2021-08-19 22:15:04.060,-0.44,-0.05
2021-08-19 22:15:04.064,-0.43,-0.04
2021-08-19 22:15:04.068,-0.415,-0.065
2021-08-19 22:15:04.072,-0.415,-0.04
2021-08-19 22:15:04.076,-0.44,-0.03
2021-08-19 22:15:04.080,-0.41,-0.035
2021-08-19 22:15:04.084,-0.41,-0.045
2021-08-19 22:15:04.088,-0.43,-0.03
2021-08-19 22:15:04.092,-0.435,-0.035
2021-08-19 22:15:04.096,-0.43,-0.03
2021-08-19 22:15:04.100,-0.44,-0.035
2021-08-19 22:15:04.104,-0.435,-0.02
2021-08-19 22:15:04.108,-0.44,-0.02
2021-08-19 22:15:04.112,-0.45,-0.015
2021-08-19 22:15:04.116,-0.44,-0.02
2021-08-19 22:15:04.120,-0.44,-0.025
2021-08-19 22:15:04.124,-0.45,-0.01
2021-08-19 22:15:04.128,-0.45,-0.01
2021-08-19 22:15:04.132,-0.47,-0.015
2021-08-19 22:15:04.136,-0.45,0.0
2021-08-19 22:15:04.140,-0.475,-0.015
2021-08-19 22:15:04.144,-0.465,0.0
2021-08-19 22:15:04.148,-0.46,-0.035
2021-08-19 22:15:04.152,-0.44,-0.01
2021-08-19 22:15:04.156,-0.445,-0.03
2021-08-19 22:15:04.160,-0.455,-0.015
2021-08-19 22:15:04.164,-0.44,-0.02
2021-08-19 22:15:04.168,-0.42,-0.025
2021-08-19 22:15:04.172,-0.425,-0.03
2021-08-19 22:15:04.176,-0.42,-0.035
2021-08-19 22:15:04.180,-0.41,-0.035
2021-08-19 22:15:04.184,-0.39,-0.055
2021-08-19 22:15:04.188,-0.37,-0.06
2021-08-19 22:15:04.192,-0.365,-0.005
2021-08-19 22:15:04.196,-0.34,-0.06
2021-08-19 22:15:04.200,-0.315,-0.06
2021-08-19 22:15:04.204,-0.325,-0.075
2021-08-19 22:15:04.208,-0.315,-0.065
2021-08-19 22:15:04.212,-0.305,-0.09
2021-08-19 22:15:04.216,-0.265,-0.09
2021-08-19 22:15:04.220,-0.255,-0.07
2021-08-19 22:15:04.224,-0.26,-0.08
2021-08-19 22:15:04.228,-0.26,-0.105
2021-08-19 22:15:04.232,-0.235,-0.085
2021-08-19 22:15:04.236,-0.245,-0.1
2021-08-19 22:15:04.240,-0.245,-0.1
2021-08-19 22:15:04.244,-0.235,-0.105
2021-08-19 22:15:04.248,-0.22,-0.1
2021-08-19 22:15:04.252,-0.23,-0.085
2021-08-19 22:15:04.256,-0.225,-0.105
2021-08-19 22:15:04.260,-0.225,-0.095
2021-08-19 22:15:04.264,-0.2,-0.115
2021-08-19 22:15:04.268,-0.19,-0.1
2021-08-19 22:15:04.272,-0.21,-0.12
2021-08-19 22:15:04.276,-0.23,-0.095
2021-08-19 22:15:04.280,-0.215,-0.105
2021-08-19 22:15:04.284,-0.19,-0.095
2021-08-19 22:15:04.288,-0.2,-0.11
2021-08-19 22:15:04.292,-0.21,-0.08
2021-08-19 22:15:04.296,-0.2,-0.09
2021-08-19 22:15:04.300,-0.2,-0.07
2021-08-19 22:15:04.304,-0.19,-0.065
2021-08-19 22:15:04.308,-0.185,-0.07
2021-08-19 22:15:04.312,-0.165,-0.065
2021-08-19 22:15:04.316,-0.17,-0.075
2021-08-19 22:15:04.320,-0.19,-0.055
2021-08-19 22:15:04.324,-0.185,-0.045
2021-08-19 22:15:04.328,-0.195,-0.06
2021-08-19 22:15:04.332,-0.185,-0.05
2021-08-19 22:15:04.336,-0.16,-0.04
2021-08-19 22:15:04.340,-0.185,-0.04
2021-08-19 22:15:04.344,-0.15,-0.04
2021-08-19 22:15:04.348,-0.14,-0.03
2021-08-19 22:15:04.352,-0.125,-0.055
2021-08-19 22:15:04.356,-0.15,-0.045
2021-08-19 22:15:04.360,-0.155,-0.045
2021-08-19 22:15:04.364,-0.08,-0.055
2021-08-19 22:15:04.368,-0.055,-0.03
2021-08-19 22:15:04.372,-0.01,0.0
2021-08-19 22:15:04.376,0.025,0.0
2021-08-19 22:15:04.380,0.07,0.0
2021-08-19 22:15:04.384,0.105,-0.02
2021-08-19 22:15:04.388,0.12,-0.015
2021-08-19 22:15:04.392,0.135,-0.02
2021-08-19 22:15:04.396,0.115,-0.005
2021-08-19 22:15:04.400,0.125,-0.045
2021-08-19 22:15:04.404,0.065,-0.07
2021-08-19 22:15:04.408,0.01,-0.105
2021-08-19 22:15:04.412,-0.005,-0.115
2021-08-19 22:15:04.416,-0.065,-0.115
2021-08-19 22:15:04.420,-0.11,-0.115
2021-08-19 22:15:04.424,-0.19,-0.105
2021-08-19 22:15:04.428,-0.205,-0.095
2021-08-19 22:15:04.432,-0.24,-0.045
2021-08-19 22:15:04.436,-0.275,-0.05
2021-08-19 22:15:04.440,-0.26,-0.035
2021-08-19 22:15:04.444,-0.24,-0.06
2021-08-19 22:15:04.448,-0.25,-0.055
2021-08-19 22:15:04.452,-0.24,-0.06
2021-08-19 22:15:04.456,-0.26,-0.08
2021-08-19 22:15:04.460,-0.235,-0.06
2021-08-19 22:15:04.464,-0.225,-0.085
2021-08-19 22:15:04.468,-0.24,-0.08
2021-08-19 22:15:04.472,-0.24,-0.1
2021-08-19 22:15:04.476,-0.25,-0.1
2021-08-19 22:15:04.480,-0.23,-0.08
2021-08-19 22:15:04.484,-0.23,-0.075
2021-08-19 22:15:04.488,-0.22,-0.1
2021-08-19 22:15:04.492,-0.225,-0.08
2021-08-19 22:15:04.496,-0.215,-0.085
2021-08-19 22:15:04.500,-0.23,-0.105
2021-08-19 22:15:04.504,-0.225,-0.09
2021-08-19 22:15:04.508,-0.21,-0.1
2021-08-19 22:15:04.512,-0.19,-0.115
2021-08-19 22:15:04.516,-0.225,-0.11
2021-08-19 22:15:04.520,-0.2,-0.105
2021-08-19 22:15:04.524,-0.2,-0.11
2021-08-19 22:15:04.528,-0.195,-0.1
2021-08-19 22:15:04.532,-0.17,-0.085
2021-08-19 22:15:04.536,-0.18,-0.09
2021-08-19 22:15:04.540,-0.15,-0.105
2021-08-19 22:15:04.544,-0.115,-0.095
2021-08-19 22:15:04.548,-0.035,-0.12
2021-08-19 22:15:04.552,0.015,-0.105
2021-08-19 22:15:04.556,0.085,-0.115
2021-08-19 22:15:04.560,0.18,-0.13
2021-08-19 22:15:04.564,0.235,-0.16
2021-08-19 22:15:04.568,0.255,-0.23
2021-08-19 22:15:04.572,0.305,-0.26
2021-08-19 22:15:04.576,0.315,-0.285
2021-08-19 22:15:04.580,0.305,-0.34
2021-08-19 22:15:04.584,0.31,-0.47
2021-08-19 22:15:04.588,0.42,-0.59
2021-08-19 22:15:04.592,0.67,-0.77
2021-08-19 22:15:04.596,0.99,-1.02
2021-08-19 22:15:04.600,1.185,-1.23
2021-08-19 22:15:04.604,1.11,-1.395
2021-08-19 22:15:04.608,0.75,-1.38
2021-08-19 22:15:04.612,0.27,-1.075
2021-08-19 22:15:04.616,-0.095,-0.67
2021-08-19 22:15:04.620,-0.24,-0.4
2021-08-19 22:15:04.624,-0.29,-0.23
2021-08-19 22:15:04.628,-0.315,-0.13
2021-08-19 22:15:04.632,-0.335,-0.045
2021-08-19 22:15:04.636,-0.345,-0.005
2021-08-19 22:15:04.640,-0.34,0.05
2021-08-19 22:15:04.644,-0.355,0.05
2021-08-19 22:15:04.648,-0.33,0.055
2021-08-19 22:15:04.652,-0.345,0.05
2021-08-19 22:15:04.656,-0.34,0.025
2021-08-19 22:15:04.660,-0.32,0.005
2021-08-19 22:15:04.664,-0.32,0.055
2021-08-19 22:15:04.668,-0.33,0.045
2021-08-19 22:15:04.672,-0.335,0.04
2021-08-19 22:15:04.676,-0.315,0.045
2021-08-19 22:15:04.680,-0.32,0.035
2021-08-19 22:15:04.684,-0.335,0.045
2021-08-19 22:15:04.688,-0.32,0.065
2021-08-19 22:15:04.692,-0.34,0.02
2021-08-19 22:15:04.696,-0.34,0.045
2021-08-19 22:15:04.700,-0.355,0.035
2021-08-19 22:15:04.704,-0.355,0.045
2021-08-19 22:15:04.708,-0.375,0.025
2021-08-19 22:15:04.712,-0.355,0.035
2021-08-19 22:15:04.716,-0.385,0.045
2021-08-19 22:15:04.720,-0.395,0.045
2021-08-19 22:15:04.724,-0.365,0.02
2021-08-19 22:15:04.728,-0.375,0.04
2021-08-19 22:15:04.732,-0.395,0.04
2021-08-19 22:15:04.736,-0.395,0.06
2021-08-19 22:15:04.740,-0.39,0.04
2021-08-19 22:15:04.744,-0.395,0.045
2021-08-19 22:15:04.748,-0.395,0.06
2021-08-19 22:15:04.752,-0.4,0.06
2021-08-19 22:15:04.756,-0.385,0.045
2021-08-19 22:15:04.760,-0.375,0.055
2021-08-19 22:15:04.764,-0.36,0.055
2021-08-19 22:15:04.768,-0.375,0.08
2021-08-19 22:15:04.772,-0.37,0.065
2021-08-19 22:15:04.776,-0.345,0.05
2021-08-19 22:15:04.780,-0.355,0.075
2021-08-19 22:15:04.784,-0.37,0.065
2021-08-19 22:15:04.788,-0.345,0.065
2021-08-19 22:15:04.792,-0.32,0.06
2021-08-19 22:15:04.796,-0.32,0.05
2021-08-19 22:15:04.800,-0.31,0.07
2021-08-19 22:15:04.804,-0.29,0.06
2021-08-19 22:15:04.808,-0.305,0.04
2021-08-19 22:15:04.812,-0.3,0.015
2021-08-19 22:15:04.816,-0.3,0.015
2021-08-19 22:15:04.820,-0.28,0.015
2021-08-19 22:15:04.824,-0.28,0.0
2021-08-19 22:15:04.828,-0.255,-0.015
2021-08-19 22:15:04.832,-0.27,-0.03
2021-08-19 22:15:04.836,-0.255,-0.04
2021-08-19 22:15:04.840,-0.225,-0.05
2021-08-19 22:15:04.844,-0.23,-0.065
2021-08-19 22:15:04.848,-0.22,-0.035
2021-08-19 22:15:04.852,-0.195,-0.05
2021-08-19 22:15:04.856,-0.175,-0.06
2021-08-19 22:15:04.860,-0.175,-0.075
2021-08-19 22:15:04.864,-0.16,-0.07
2021-08-19 22:15:04.868,-0.16,-0.06
2021-08-19 22:15:04.872,-0.14,-0.065
2021-08-19 22:15:04.876,-0.13,-0.07
2021-08-19 22:15:04.880,-0.12,-0.06
2021-08-19 22:15:04.884,-0.11,-0.06
2021-08-19 22:15:04.888,-0.12,-0.065
2021-08-19 22:15:04.892,-0.115,-0.05
2021-08-19 22:15:04.896,-0.105,-0.06
2021-08-19 22:15:04.900,-0.11,-0.03
2021-08-19 22:15:04.904,-0.095,-0.035
2021-08-19 22:15:04.908,-0.09,-0.045
2021-08-19 22:15:04.912,-0.115,-0.02
2021-08-19 22:15:04.916,-0.11,-0.03
2021-08-19 22:15:04.920,-0.115,-0.025
2021-08-19 22:15:04.924,-0.12,-0.03
2021-08-19 22:15:04.928,-0.14,-0.03
2021-08-19 22:15:04.932,-0.12,-0.03
2021-08-19 22:15:04.936,-0.115,-0.055
2021-08-19 22:15:04.940,-0.12,-0.01
2021-08-19 22:15:04.944,-0.105,-0.025
2021-08-19 22:15:04.948,-0.1,-0.025
2021-08-19 22:15:04.952,-0.08,-0.04
2021-08-19 22:15:04.956,-0.065,-0.035
2021-08-19 22:15:04.960,-0.065,-0.03
2021-08-19 22:15:04.964,-0.065,-0.025
2021-08-19 22:15:04.968,-0.015,-0.015
2021-08-19 22:15:04.972,0.015,0.0
2021-08-19 22:15:04.976,0.09,-0.015
2021-08-19 22:15:04.980,0.125,0.0
2021-08-19 22:15:04.984,0.145,0.015
2021-08-19 22:15:04.988,0.19,0.03
2021-08-19 22:15:04.992,0.19,0.025
2021-08-19 22:15:04.996,0.195,0.015
2021-08-19 22:15:05.000,0.205,0.015
2021-08-19 22:15:05.004,0.175,0.005
2021-08-19 22:15:05.008,0.135,0.0
2021-08-19 22:15:05.012,0.085,-0.02
2021-08-19 22:15:05.016,0.025,-0.075
2021-08-19 22:15:05.020,-0.015,-0.06
2021-08-19 22:15:05.024,-0.08,-0.05
2021-08-19 22:15:05.028,-0.145,-0.03
2021-08-19 22:15:05.032,-0.175,-0.05
2021-08-19 22:15:05.036,-0.21,-0.015
2021-08-19 22:15:05.040,-0.235,0.0
2021-08-19 22:15:05.044,-0.24,0.0
2021-08-19 22:15:05.048,-0.25,-0.025
2021-08-19 22:15:05.052,-0.23,-0.03
2021-08-19 22:15:05.056,-0.225,-0.015
2021-08-19 22:15:05.060,-0.21,-0.05
2021-08-19 22:15:05.064,-0.2,-0.04
2021-08-19 22:15:05.068,-0.175,-0.06
2021-08-19 22:15:05.072,-0.18,-0.075
2021-08-19 22:15:05.076,-0.17,-0.085
2021-08-19 22:15:05.080,-0.18,-0.065
2021-08-19 22:15:05.084,-0.18,-0.07
2021-08-19 22:15:05.088,-0.17,-0.07
2021-08-19 22:15:05.092,-0.18,-0.07
2021-08-19 22:15:05.096,-0.155,-0.07
2021-08-19 22:15:05.100,-0.16,-0.1
2021-08-19 22:15:05.104,-0.145,-0.065
2021-08-19 22:15:05.108,-0.155,-0.06
2021-08-19 22:15:05.112,-0.16,-0.06
2021-08-19 22:15:05.116,-0.155,-0.04
2021-08-19 22:15:05.120,-0.145,-0.06
2021-08-19 22:15:05.124,-0.16,-0.08
2021-08-19 22:15:05.128,-0.16,-0.06
2021-08-19 22:15:05.132,-0.15,-0.08
2021-08-19 22:15:05.136,-0.165,-0.08
2021-08-19 22:15:05.140,-0.155,-0.07
2021-08-19 22:15:05.144,-0.16,-0.095
2021-08-19 22:15:05.148,-0.105,-0.08
2021-08-19 22:15:05.152,-0.065,-0.1
2021-08-19 22:15:05.156,0.015,-0.1
2021-08-19 22:15:05.160,0.095,-0.095
2021-08-19 22:15:05.164,0.195,-0.12
2021-08-19 22:15:05.168,0.25,-0.19
2021-08-19 22:15:05.172,0.26,-0.24
2021-08-19 22:15:05.176,0.275,-0.27
2021-08-19 22:15:05.180,0.295,-0.31
2021-08-19 22:15:05.184,0.265,-0.35
2021-08-19 22:15:05.188,0.29,-0.485
2021-08-19 22:15:05.192,0.44,-0.6
2021-08-19 22:15:05.196,0.75,-0.81
2021-08-19 22:15:05.200,1.05,-1.045
2021-08-19 22:15:05.204,1.225,-1.27
2021-08-19 22:15:05.208,1.105,-1.41
2021-08-19 22:15:05.212,0.715,-1.35
2021-08-19 22:15:05.216,0.24,-0.99
2021-08-19 22:15:05.220,-0.085,-0.585
2021-08-19 22:15:05.224,-0.22,-0.32
2021-08-19 22:15:05.228,-0.26,-0.19
2021-08-19 22:15:05.232,-0.265,-0.07
2021-08-19 22:15:05.236,-0.295,-0.015
2021-08-19 22:15:05.240,-0.315,0.025
2021-08-19 22:15:05.244,-0.3,0.07
2021-08-19 22:15:05.248,-0.3,0.055
2021-08-19 22:15:05.252,-0.305,0.065
2021-08-19 22:15:05.256,-0.34,0.055
2021-08-19 22:15:05.260,-0.35,0.035
2021-08-19 22:15:05.264,-0.35,0.005
2021-08-19 22:15:05.268,-0.355,0.005
2021-08-19 22:15:05.272,-0.355,0.02
2021-08-19 22:15:05.276,-0.37,0.015
2021-08-19 22:15:05.280,-0.355,0.01
2021-08-19 22:15:05.284,-0.355,0.015
2021-08-19 22:15:05.288,-0.36,0.01
2021-08-19 22:15:05.292,-0.36,0.0
2021-08-19 22:15:05.296,-0.35,0.005
2021-08-19 22:15:05.300,-0.355,0.01
2021-08-19 22:15:05.304,-0.365,0.025
2021-08-19 22:15:05.308,-0.37,0.045
2021-08-19 22:15:05.312,-0.365,0.035
2021-08-19 22:15:05.316,-0.345,0.025
2021-08-19 22:15:05.320,-0.355,0.02
2021-08-19 22:15:05.324,-0.36,0.03
2021-08-19 22:15:05.328,-0.36,0.04
2021-08-19 22:15:05.332,-0.385,0.05
2021-08-19 22:15:05.336,-0.375,0.055
2021-08-19 22:15:05.340,-0.39,0.05
2021-08-19 22:15:05.344,-0.39,0.055
2021-08-19 22:15:05.348,-0.395,0.045
2021-08-19 22:15:05.352,-0.4,0.06
2021-08-19 22:15:05.356,-0.41,0.05
2021-08-19 22:15:05.360,-0.355,0.04
2021-08-19 22:15:05.364,-0.39,0.065
2021-08-19 22:15:05.368,-0.39,0.06
2021-08-19 22:15:05.372,-0.385,0.045
2021-08-19 22:15:05.376,-0.39,0.045
2021-08-19 22:15:05.380,-0.375,0.025
2021-08-19 22:15:05.384,-0.38,0.055
2021-08-19 22:15:05.388,-0.36,0.03
2021-08-19 22:15:05.392,-0.375,0.015
2021-08-19 22:15:05.396,-0.35,0.025
2021-08-19 22:15:05.400,-0.36,0.035
2021-08-19 22:15:05.404,-0.34,0.01
2021-08-19 22:15:05.408,-0.32,0.015
2021-08-19 22:15:05.412,-0.285,0.005
2021-08-19 22:15:05.416,-0.28,0.02
2021-08-19 22:15:05.420,-0.285,-0.005
2021-08-19 22:15:05.424,-0.265,0.0
2021-08-19 22:15:05.428,-0.265,-0.015
2021-08-19 22:15:05.432,-0.24,-0.02
2021-08-19 22:15:05.436,-0.225,-0.035
2021-08-19 22:15:05.440,-0.225,-0.03
2021-08-19 22:15:05.444,-0.2,-0.01
2021-08-19 22:15:05.448,-0.19,-0.045
2021-08-19 22:15:05.452,-0.215,-0.04
2021-08-19 22:15:05.456,-0.2,-0.04
2021-08-19 22:15:05.460,-0.185,-0.055
2021-08-19 22:15:05.464,-0.17,-0.075
2021-08-19 22:15:05.468,-0.19,-0.05
2021-08-19 22:15:05.472,-0.185,-0.035
2021-08-19 22:15:05.476,-0.16,-0.055
2021-08-19 22:15:05.480,-0.195,-0.05
2021-08-19 22:15:05.484,-0.195,-0.055
2021-08-19 22:15:05.488,-0.18,-0.065
2021-08-19 22:15:05.492,-0.17,-0.05
2021-08-19 22:15:05.496,-0.175,-0.04
2021-08-19 22:15:05.500,-0.155,-0.035
2021-08-19 22:15:05.504,-0.185,-0.04
2021-08-19 22:15:05.508,-0.15,-0.06
2021-08-19 22:15:05.512,-0.185,-0.04
2021-08-19 22:15:05.516,-0.16,-0.04
2021-08-19 22:15:05.520,-0.175,-0.025
2021-08-19 22:15:05.524,-0.165,-0.025
2021-08-19 22:15:05.528,-0.16,-0.035
2021-08-19 22:15:05.532,-0.175,-0.025
2021-08-19 22:15:05.536,-0.19,-0.005
2021-08-19 22:15:05.540,-0.17,0.0
2021-08-19 22:15:05.544,-0.165,-0.02
2021-08-19 22:15:05.548,-0.18,-0.025
2021-08-19 22:15:05.552,-0.15,-0.01
2021-08-19 22:15:05.556,-0.15,-0.02
2021-08-19 22:15:05.560,-0.135,0.0
2021-08-19 22:15:05.564,-0.115,0.0
2021-08-19 22:15:05.568,-0.095,0.0
2021-08-19 22:15:05.572,-0.105,0.005
2021-08-19 22:15:05.576,-0.11,-0.005
2021-08-19 22:15:05.580,-0.065,-0.005
2021-08-19 22:15:05.584,-0.025,0.0
2021-08-19 22:15:05.588,0.0,0.005
2021-08-19 22:15:05.592,0.02,0.0
2021-08-19 22:15:05.596,0.025,0.015
2021-08-19 22:15:05.600,0.07,0.02
2021-08-19 22:15:05.604,0.085,0.005
2021-08-19 22:15:05.608,0.12,0.005
2021-08-19 22:15:05.612,0.105,0.03
2021-08-19 22:15:05.616,0.12,-0.01
2021-08-19 22:15:05.620,0.085,-0.045
2021-08-19 22:15:05.624,0.06,-0.075
2021-08-19 22:15:05.628,0.005,-0.08
2021-08-19 22:15:05.632,-0.06,-0.09
2021-08-19 22:15:05.636,-0.105,-0.07
2021-08-19 22:15:05.640,-0.175,-0.08
2021-08-19 22:15:05.644,-0.21,-0.07
2021-08-19 22:15:05.648,-0.245,-0.035
2021-08-19 22:15:05.652,-0.245,-0.02
2021-08-19 22:15:05.656,-0.23,-0.025
2021-08-19 22:15:05.660,-0.235,-0.02
2021-08-19 22:15:05.664,-0.225,-0.04
2021-08-19 22:15:05.668,-0.24,-0.035
2021-08-19 22:15:05.672,-0.19,-0.03
2021-08-19 22:15:05.676,-0.215,-0.025
2021-08-19 22:15:05.680,-0.2,-0.025
2021-08-19 22:15:05.684,-0.205,-0.025
2021-08-19 22:15:05.688,-0.205,-0.05
2021-08-19 22:15:05.692,-0.17,-0.055
2021-08-19 22:15:05.696,-0.195,-0.055
2021-08-19 22:15:05.700,-0.18,-0.045
2021-08-19 22:15:05.704,-0.17,-0.06
2021-08-19 22:15:05.708,-0.205,-0.075
2021-08-19 22:15:05.712,-0.2,-0.03
2021-08-19 22:15:05.716,-0.2,-0.07
2021-08-19 22:15:05.720,-0.175,-0.07
2021-08-19 22:15:05.724,-0.17,-0.08
2021-08-19 22:15:05.728,-0.175,-0.075
2021-08-19 22:15:05.732,-0.17,-0.075
2021-08-19 22:15:05.736,-0.165,-0.08
2021-08-19 22:15:05.740,-0.185,-0.07
2021-08-19 22:15:05.744,-0.155,-0.08
2021-08-19 22:15:05.748,-0.18,-0.065
2021-08-19 22:15:05.752,-0.135,-0.075
2021-08-19 22:15:05.756,-0.125,-0.08
2021-08-19 22:15:05.760,-0.08,-0.065
2021-08-19 22:15:05.764,-0.02,-0.07
2021-08-19 22:15:05.768,0.1,-0.06
2021-08-19 22:15:05.772,0.205,-0.08
2021-08-19 22:15:05.776,0.255,-0.09
2021-08-19 22:15:05.780,0.32,-0.13
2021-08-19 22:15:05.784,0.35,-0.18
2021-08-19 22:15:05.788,0.395,-0.215
2021-08-19 22:15:05.792,0.415,-0.215
2021-08-19 22:15:05.796,0.38,-0.26
2021-08-19 22:15:05.800,0.405,-0.375
2021-08-19 22:15:05.804,0.53,-0.52
2021-08-19 22:15:05.808,0.795,-0.705
2021-08-19 22:15:05.812,1.095,-0.945
2021-08-19 22:15:05.816,1.23,-1.165
2021-08-19 22:15:05.820,1.075,-1.28
2021-08-19 22:15:05.824,0.64,-1.185
2021-08-19 22:15:05.828,0.205,-0.83
2021-08-19 22:15:05.832,-0.03,-0.5
2021-08-19 22:15:05.836,-0.13,-0.28
2021-08-19 22:15:05.840,-0.21,-0.14
2021-08-19 22:15:05.844,-0.22,-0.065
2021-08-19 22:15:05.848,-0.225,0.02
2021-08-19 22:15:05.852,-0.26,0.035
2021-08-19 22:15:05.856,-0.29,0.06
2021-08-19 22:15:05.860,-0.31,0.06
2021-08-19 22:15:05.864,-0.325,0.04
2021-08-19 22:15:05.868,-0.315,0.035
2021-08-19 22:15:05.872,-0.31,0.04
2021-08-19 22:15:05.876,-0.31,0.025
2021-08-19 22:15:05.880,-0.31,0.03
2021-08-19 22:15:05.884,-0.295,0.015
2021-08-19 22:15:05.888,-0.295,0.02
2021-08-19 22:15:05.892,-0.305,0.035
2021-08-19 22:15:05.896,-0.32,0.025
2021-08-19 22:15:05.900,-0.32,0.01
2021-08-19 22:15:05.904,-0.325,0.03
2021-08-19 22:15:05.908,-0.34,0.035
2021-08-19 22:15:05.912,-0.335,0.04
2021-08-19 22:15:05.916,-0.34,0.005
2021-08-19 22:15:05.920,-0.32,0.04
2021-08-19 22:15:05.924,-0.325,0.025
2021-08-19 22:15:05.928,-0.345,0.01
2021-08-19 22:15:05.932,-0.355,0.01
2021-08-19 22:15:05.936,-0.37,0.005
2021-08-19 22:15:05.940,-0.385,0.01
2021-08-19 22:15:05.944,-0.365,0.005
2021-08-19 22:15:05.948,-0.395,0.0
2021-08-19 22:15:05.952,-0.395,0.005
2021-08-19 22:15:05.956,-0.385,-0.01
2021-08-19 22:15:05.960,-0.395,-0.015
2021-08-19 22:15:05.964,-0.385,-0.005
2021-08-19 22:15:05.968,-0.39,0.005
2021-08-19 22:15:05.972,-0.375,0.025
2021-08-19 22:15:05.976,-0.39,0.01
2021-08-19 22:15:05.980,-0.38,0.0
2021-08-19 22:15:05.984,-0.39,0.0
2021-08-19 22:15:05.988,-0.36,0.0
2021-08-19 22:15:05.992,-0.34,0.0
2021-08-19 22:15:05.996,-0.35,0.01
2021-08-19 22:15:06.000,-0.345,0.005
2021-08-19 22:15:06.004,-0.33,-0.01
2021-08-19 22:15:06.008,-0.34,-0.005
2021-08-19 22:15:06.012,-0.305,-0.005
2021-08-19 22:15:06.016,-0.3,-0.01
2021-08-19 22:15:06.020,-0.3,0.0
2021-08-19 22:15:06.024,-0.275,0.01
2021-08-19 22:15:06.028,-0.27,-0.02
2021-08-19 22:15:06.032,-0.26,-0.035
2021-08-19 22:15:06.036,-0.265,-0.025
2021-08-19 22:15:06.040,-0.265,-0.02
2021-08-19 22:15:06.044,-0.235,-0.06
2021-08-19 22:15:06.048,-0.235,-0.075
2021-08-19 22:15:06.052,-0.23,-0.08
2021-08-19 22:15:06.056,-0.205,-0.065
2021-08-19 22:15:06.060,-0.205,-0.09
2021-08-19 22:15:06.064,-0.19,-0.105
2021-08-19 22:15:06.068,-0.18,-0.105
2021-08-19 22:15:06.072,-0.17,-0.1
2021-08-19 22:15:06.076,-0.17,-0.085
2021-08-19 22:15:06.080,-0.155,-0.105
2021-08-19 22:15:06.084,-0.16,-0.125
2021-08-19 22:15:06.088,-0.155,-0.11
2021-08-19 22:15:06.092,-0.13,-0.105
2021-08-19 22:15:06.096,-0.145,-0.1
2021-08-19 22:15:06.100,-0.14,-0.095
2021-08-19 22:15:06.104,-0.105,-0.095
2021-08-19 22:15:06.108,-0.105,-0.11
2021-08-19 22:15:06.112,-0.105,-0.1
2021-08-19 22:15:06.116,-0.115,-0.1
2021-08-19 22:15:06.120,-0.1,-0.095
2021-08-19 22:15:06.124,-0.095,-0.08
2021-08-19 22:15:06.128,-0.085,-0.09
2021-08-19 22:15:06.132,-0.085,-0.09
2021-08-19 22:15:06.136,-0.12,-0.085
2021-08-19 22:15:06.140,-0.1,-0.09
2021-08-19 22:15:06.144,-0.09,-0.075
2021-08-19 22:15:06.148,-0.11,-0.06
2021-08-19 22:15:06.152,-0.12,-0.07
2021-08-19 22:15:06.156,-0.105,-0.08
2021-08-19 22:15:06.160,-0.14,-0.065
2021-08-19 22:15:06.164,-0.145,-0.075
2021-08-19 22:15:06.168,-0.15,-0.06
2021-08-19 22:15:06.172,-0.15,-0.065
2021-08-19 22:15:06.176,-0.145,-0.07
2021-08-19 22:15:06.180,-0.135,-0.095
2021-08-19 22:15:06.184,-0.145,-0.07
2021-08-19 22:15:06.188,-0.14,-0.07
2021-08-19 22:15:06.192,-0.13,-0.075
2021-08-19 22:15:06.196,-0.16,-0.07
2021-08-19 22:15:06.200,-0.16,-0.07
2021-08-19 22:15:06.204,-0.135,-0.09
2021-08-19 22:15:06.208,-0.13,-0.065
2021-08-19 22:15:06.212,-0.115,-0.07
2021-08-19 22:15:06.216,-0.11,-0.065
2021-08-19 22:15:06.220,-0.065,-0.08
2021-08-19 22:15:06.224,-0.055,-0.065
2021-08-19 22:15:06.228,-0.04,-0.08
2021-08-19 22:15:06.232,-0.045,-0.06
2021-08-19 22:15:06.236,-0.01,-0.055
2021-08-19 22:15:06.240,0.04,-0.04
2021-08-19 22:15:06.244,0.07,-0.025
2021-08-19 22:15:06.248,0.1,-0.045
2021-08-19 22:15:06.252,0.13,-0.02
2021-08-19 22:15:06.256,0.175,-0.01
2021-08-19 22:15:06.260,0.21,-0.025
2021-08-19 22:15:06.264,0.2,-0.02
2021-08-19 22:15:06.268,0.175,-0.03
2021-08-19 22:15:06.272,0.155,-0.02
2021-08-19 22:15:06.276,0.135,-0.05
2021-08-19 22:15:06.280,0.055,-0.07
2021-08-19 22:15:06.284,0.015,-0.1
2021-08-19 22:15:06.288,-0.015,-0.11
2021-08-19 22:15:06.292,-0.06,-0.09
2021-08-19 22:15:06.296,-0.14,-0.11
2021-08-19 22:15:06.300,-0.17,-0.075
2021-08-19 22:15:06.304,-0.195,-0.07
2021-08-19 22:15:06.308,-0.205,-0.09
2021-08-19 22:15:06.312,-0.23,-0.065
2021-08-19 22:15:06.316,-0.205,-0.065
2021-08-19 22:15:06.320,-0.2,-0.07
2021-08-19 22:15:06.324,-0.185,-0.085
2021-08-19 22:15:06.328,-0.175,-0.09
2021-08-19 22:15:06.332,-0.17,-0.085
2021-08-19 22:15:06.336,-0.165,-0.08
2021-08-19 22:15:06.340,-0.16,-0.07
2021-08-19 22:15:06.344,-0.16,-0.07
2021-08-19 22:15:06.348,-0.16,-0.055
2021-08-19 22:15:06.352,-0.165,-0.065
2021-08-19 22:15:06.356,-0.16,-0.075
2021-08-19 22:15:06.360,-0.17,-0.075
2021-08-19 22:15:06.364,-0.17,-0.07
2021-08-19 22:15:06.368,-0.165,-0.08
2021-08-19 22:15:06.372,-0.175,-0.07
2021-08-19 22:15:06.376,-0.165,-0.07
2021-08-19 22:15:06.380,-0.16,-0.08
2021-08-19 22:15:06.384,-0.165,-0.095
2021-08-19 22:15:06.388,-0.15,-0.07
2021-08-19 22:15:06.392,-0.16,-0.09
2021-08-19 22:15:06.396,-0.16,-0.08
2021-08-19 22:15:06.400,-0.15,-0.07
2021-08-19 22:15:06.404,-0.15,-0.115
2021-08-19 22:15:06.408,-0.14,-0.11
2021-08-19 22:15:06.412,-0.095,-0.1
2021-08-19 22:15:06.416,-0.045,-0.11
2021-08-19 22:15:06.420,0.045,-0.11
2021-08-19 22:15:06.424,0.145,-0.11
2021-08-19 22:15:06.428,0.22,-0.13
2021-08-19 22:15:06.432,0.27,-0.16
2021-08-19 22:15:06.436,0.32,-0.235
2021-08-19 22:15:06.440,0.365,-0.27
2021-08-19 22:15:06.444,0.385,-0.285
2021-08-19 22:15:06.448,0.38,-0.32
2021-08-19 22:15:06.452,0.4,-0.44
2021-08-19 22:15:06.456,0.535,-0.58
2021-08-19 22:15:06.460,0.815,-0.76
2021-08-19 22:15:06.464,1.115,-1.03
2021-08-19 22:15:06.468,1.28,-1.24
2021-08-19 22:15:06.472,1.14,-1.395
2021-08-19 22:15:06.476,0.715,-1.275
2021-08-19 22:15:06.480,0.225,-0.945
2021-08-19 22:15:06.484,-0.07,-0.565
2021-08-19 22:15:06.488,-0.205,-0.305
2021-08-19 22:15:06.492,-0.265,-0.175
2021-08-19 22:15:06.496,-0.275,-0.085
2021-08-19 22:15:06.500,-0.265,-0.03
2021-08-19 22:15:06.504,-0.3,0.005
2021-08-19 22:15:06.508,-0.315,0.045
2021-08-19 22:15:06.512,-0.315,0.04
2021-08-19 22:15:06.516,-0.325,0.015
2021-08-19 22:15:06.520,-0.335,0.02
2021-08-19 22:15:06.524,-0.32,0.015
2021-08-19 22:15:06.528,-0.33,0.0
2021-08-19 22:15:06.532,-0.34,0.0
2021-08-19 22:15:06.536,-0.33,-0.005
2021-08-19 22:15:06.540,-0.34,0.0
2021-08-19 22:15:06.544,-0.32,0.01
2021-08-19 22:15:06.548,-0.32,0.01
2021-08-19 22:15:06.552,-0.3,0.02
2021-08-19 22:15:06.556,-0.3,0.025
2021-08-19 22:15:06.560,-0.305,0.035
2021-08-19 22:15:06.564,-0.315,0.02
2021-08-19 22:15:06.568,-0.295,0.01
2021-08-19 22:15:06.572,-0.32,0.01
2021-08-19 22:15:06.576,-0.345,0.03
2021-08-19 22:15:06.580,-0.35,0.02
2021-08-19 22:15:06.584,-0.34,0.0
2021-08-19 22:15:06.588,-0.355,0.025
2021-08-19 22:15:06.592,-0.365,0.025
2021-08-19 22:15:06.596,-0.36,0.025
2021-08-19 22:15:06.600,-0.37,0.005
2021-08-19 22:15:06.604,-0.38,0.02
2021-08-19 22:15:06.608,-0.375,0.02
2021-08-19 22:15:06.612,-0.365,0.025
2021-08-19 22:15:06.616,-0.39,0.03
2021-08-19 22:15:06.620,-0.385,0.025
2021-08-19 22:15:06.624,-0.38,0.03
2021-08-19 22:15:06.628,-0.37,0.025
2021-08-19 22:15:06.632,-0.38,0.015
2021-08-19 22:15:06.636,-0.375,0.025
2021-08-19 22:15:06.640,-0.34,0.03
2021-08-19 22:15:06.644,-0.365,0.025
2021-08-19 22:15:06.648,-0.345,0.05
2021-08-19 22:15:06.652,-0.335,0.03
2021-08-19 22:15:06.656,-0.335,0.05
2021-08-19 22:15:06.660,-0.315,0.04
2021-08-19 22:15:06.664,-0.315,0.03
2021-08-19 22:15:06.668,-0.29,0.035
2021-08-19 22:15:06.672,-0.28,0.045
2021-08-19 22:15:06.676,-0.265,0.035
2021-08-19 22:15:06.680,-0.255,0.02
2021-08-19 22:15:06.684,-0.26,0.025
2021-08-19 22:15:06.688,-0.25,0.015
2021-08-19 22:15:06.692,-0.23,0.0
2021-08-19 22:15:06.696,-0.21,-0.015
2021-08-19 22:15:06.700,-0.225,-0.02
2021-08-19 22:15:06.704,-0.195,-0.02
2021-08-19 22:15:06.708,-0.195,-0.025
2021-08-19 22:15:06.712,-0.185,-0.045
2021-08-19 22:15:06.716,-0.185,-0.025
2021-08-19 22:15:06.720,-0.17,-0.075
2021-08-19 22:15:06.724,-0.17,-0.045
2021-08-19 22:15:06.728,-0.155,-0.055
2021-08-19 22:15:06.732,-0.13,-0.04
2021-08-19 22:15:06.736,-0.12,-0.045
2021-08-19 22:15:06.740,-0.115,-0.055
2021-08-19 22:15:06.744,-0.105,-0.05
2021-08-19 22:15:06.748,-0.1,-0.04
2021-08-19 22:15:06.752,-0.105,-0.05
2021-08-19 22:15:06.756,-0.11,-0.065
2021-08-19 22:15:06.760,-0.095,-0.055
2021-08-19 22:15:06.764,-0.07,-0.065
2021-08-19 22:15:06.768,-0.095,-0.045
2021-08-19 22:15:06.772,-0.08,-0.04
2021-08-19 22:15:06.776,-0.07,-0.045
2021-08-19 22:15:06.780,-0.085,-0.02
2021-08-19 22:15:06.784,-0.065,-0.025
2021-08-19 22:15:06.788,-0.075,-0.035
2021-08-19 22:15:06.792,-0.08,-0.025
2021-08-19 22:15:06.796,-0.08,0.0
2021-08-19 22:15:06.800,-0.09,0.0
2021-08-19 22:15:06.804,-0.09,-0.005
2021-08-19 22:15:06.808,-0.085,-0.01
2021-08-19 22:15:06.812,-0.08,0.005
2021-08-19 22:15:06.816,-0.1,0.005
2021-08-19 22:15:06.820,-0.125,0.0
2021-08-19 22:15:06.824,-0.1,0.01
2021-08-19 22:15:06.828,-0.115,-0.01
2021-08-19 22:15:06.832,-0.125,-0.015
2021-08-19 22:15:06.836,-0.08,0.0
2021-08-19 22:15:06.840,-0.055,-0.015
2021-08-19 22:15:06.844,-0.05,-0.02
2021-08-19 22:15:06.848,-0.05,-0.03
2021-08-19 22:15:06.852,-0.055,-0.015
2021-08-19 22:15:06.856,-0.025,-0.01
2021-08-19 22:15:06.860,0.005,-0.01
2021-08-19 22:15:06.864,0.025,-0.01
2021-08-19 22:15:06.868,0.085,0.01
2021-08-19 22:15:06.872,0.115,0.02
2021-08-19 22:15:06.876,0.15,0.015
2021-08-19 22:15:06.880,0.16,0.025
2021-08-19 22:15:06.884,0.195,0.05
2021-08-19 22:15:06.888,0.215,0.035
2021-08-19 22:15:06.892,0.215,0.025
2021-08-19 22:15:06.896,0.19,0.015
2021-08-19 22:15:06.900,0.13,-0.035
2021-08-19 22:15:06.904,0.09,-0.055
2021-08-19 22:15:06.908,0.05,-0.055
2021-08-19 22:15:06.912,-0.015,-0.05
2021-08-19 22:15:06.916,-0.075,-0.06
2021-08-19 22:15:06.920,-0.105,-0.055
2021-08-19 22:15:06.924,-0.13,-0.025
2021-08-19 22:15:06.928,-0.155,-0.025
2021-08-19 22:15:06.932,-0.195,-0.015
2021-08-19 22:15:06.936,-0.205,-0.025
2021-08-19 22:15:06.940,-0.185,-0.025
2021-08-19 22:15:06.944,-0.185,-0.02
2021-08-19 22:15:06.948,-0.185,-0.025
2021-08-19 22:15:06.952,-0.17,-0.045
2021-08-19 22:15:06.956,-0.165,-0.055
2021-08-19 22:15:06.960,-0.16,-0.07
2021-08-19 22:15:06.964,-0.17,-0.065
2021-08-19 22:15:06.968,-0.15,-0.05
2021-08-19 22:15:06.972,-0.15,-0.065
2021-08-19 22:15:06.976,-0.14,-0.08
2021-08-19 22:15:06.980,-0.15,-0.07
2021-08-19 22:15:06.984,-0.155,-0.065
2021-08-19 22:15:06.988,-0.145,-0.07
2021-08-19 22:15:06.992,-0.14,-0.07
2021-08-19 22:15:06.996,-0.125,-0.06
2021-08-19 22:15:07.000,-0.11,-0.065
2021-08-19 22:15:07.004,-0.125,-0.055
2021-08-19 22:15:07.008,-0.125,-0.085
2021-08-19 22:15:07.012,-0.135,-0.045
2021-08-19 22:15:07.016,-0.11,-0.045
2021-08-19 22:15:07.020,-0.105,-0.07
2021-08-19 22:15:07.024,-0.11,-0.055
2021-08-19 22:15:07.028,-0.12,-0.065
2021-08-19 22:15:07.032,-0.1,-0.085
2021-08-19 22:15:07.036,-0.065,-0.07
2021-08-19 22:15:07.040,0.0,-0.07
2021-08-19 22:15:07.044,0.065,-0.08
2021-08-19 22:15:07.048,0.145,-0.085
2021-08-19 22:15:07.052,0.215,-0.12
2021-08-19 22:15:07.056,0.29,-0.16
2021-08-19 22:15:07.060,0.325,-0.19
2021-08-19 22:15:07.064,0.36,-0.25
2021-08-19 22:15:07.068,0.39,-0.285
2021-08-19 22:15:07.072,0.365,-0.34
2021-08-19 22:15:07.076,0.37,-0.44
2021-08-19 22:15:07.080,0.46,-0.6
2021-08-19 22:15:07.084,0.74,-0.795
2021-08-19 22:15:07.088,1.035,-1.035
2021-08-19 22:15:07.092,1.23,-1.235
2021-08-19 22:15:07.096,1.175,-1.405
2021-08-19 22:15:07.100,0.84,-1.41
2021-08-19 22:15:07.104,0.34,-1.13
2021-08-19 22:15:07.108,0.01,-0.695
2021-08-19 22:15:07.112,-0.155,-0.39
2021-08-19 22:15:07.116,-0.205,-0.21
2021-08-19 22:15:07.120,-0.205,-0.09
2021-08-19 22:15:07.124,-0.245,-0.03
2021-08-19 22:15:07.128,-0.25,0.035
2021-08-19 22:15:07.132,-0.265,0.05
2021-08-19 22:15:07.136,-0.255,0.07
2021-08-19 22:15:07.140,-0.265,0.065
2021-08-19 22:15:07.144,-0.28,0.055
2021-08-19 22:15:07.148,-0.275,0.045
2021-08-19 22:15:07.152,-0.295,0.055
2021-08-19 22:15:07.156,-0.295,0.025
2021-08-19 22:15:07.160,-0.295,0.02
2021-08-19 22:15:07.164,-0.31,0.04
2021-08-19 22:15:07.168,-0.315,0.035
2021-08-19 22:15:07.172,-0.3,0.055
2021-08-19 22:15:07.176,-0.315,0.015
2021-08-19 22:15:07.180,-0.3,0.0
2021-08-19 22:15:07.184,-0.305,-0.005
2021-08-19 22:15:07.188,-0.3,0.01
2021-08-19 22:15:07.192,-0.315,0.01
2021-08-19 22:15:07.196,-0.295,0.0
2021-08-19 22:15:07.200,-0.31,-0.005
2021-08-19 22:15:07.204,-0.325,0.0
2021-08-19 22:15:07.208,-0.345,0.0
2021-08-19 22:15:07.212,-0.33,0.015
2021-08-19 22:15:07.216,-0.335,0.0
2021-08-19 22:15:07.220,-0.355,0.0
2021-08-19 22:15:07.224,-0.34,0.02
2021-08-19 22:15:07.228,-0.34,0.005
2021-08-19 22:15:07.232,-0.34,0.005
2021-08-19 22:15:07.236,-0.355,-0.015
2021-08-19 22:15:07.240,-0.345,0.025
2021-08-19 22:15:07.244,-0.345,0.0
2021-08-19 22:15:07.248,-0.345,0.005
2021-08-19 22:15:07.252,-0.35,0.005
2021-08-19 22:15:07.256,-0.365,0.01
2021-08-19 22:15:07.260,-0.355,0.015
2021-08-19 22:15:07.264,-0.35,0.03
2021-08-19 22:15:07.268,-0.36,0.015
2021-08-19 22:15:07.272,-0.36,0.015
2021-08-19 22:15:07.276,-0.365,0.015
2021-08-19 22:15:07.280,-0.365,0.015
2021-08-19 22:15:07.284,-0.36,0.0
2021-08-19 22:15:07.288,-0.335,0.005
2021-08-19 22:15:07.292,-0.32,0.0
2021-08-19 22:15:07.296,-0.32,-0.005
2021-08-19 22:15:07.300,-0.32,-0.025
2021-08-19 22:15:07.304,-0.32,-0.035
2021-08-19 22:15:07.308,-0.29,-0.04
2021-08-19 22:15:07.312,-0.28,-0.06
2021-08-19 22:15:07.316,-0.28,-0.06
2021-08-19 22:15:07.320,-0.26,-0.065
2021-08-19 22:15:07.324,-0.26,-0.075
2021-08-19 22:15:07.328,-0.245,-0.06
2021-08-19 22:15:07.332,-0.235,-0.085
2021-08-19 22:15:07.336,-0.2,-0.09
2021-08-19 22:15:07.340,-0.18,-0.085
2021-08-19 22:15:07.344,-0.185,-0.08
2021-08-19 22:15:07.348,-0.16,-0.09
2021-08-19 22:15:07.352,-0.17,-0.08
2021-08-19 22:15:07.356,-0.155,-0.085
2021-08-19 22:15:07.360,-0.125,-0.105
2021-08-19 22:15:07.364,-0.145,-0.08
2021-08-19 22:15:07.368,-0.14,-0.07
2021-08-19 22:15:07.372,-0.15,-0.07
2021-08-19 22:15:07.376,-0.125,-0.075
2021-08-19 22:15:07.380,-0.125,-0.08
2021-08-19 22:15:07.384,-0.145,-0.065
2021-08-19 22:15:07.388,-0.14,-0.08
2021-08-19 22:15:07.392,-0.145,-0.065
2021-08-19 22:15:07.396,-0.135,-0.075
2021-08-19 22:15:07.400,-0.145,-0.08
2021-08-19 22:15:07.404,-0.145,-0.08
2021-08-19 22:15:07.408,-0.16,-0.04
2021-08-19 22:15:07.412,-0.13,-0.075
2021-08-19 22:15:07.416,-0.14,-0.06
2021-08-19 22:15:07.420,-0.145,-0.04
2021-08-19 22:15:07.424,-0.155,-0.06
2021-08-19 22:15:07.428,-0.16,-0.075
2021-08-19 22:15:07.432,-0.17,-0.065
2021-08-19 22:15:07.436,-0.155,-0.04
2021-08-19 22:15:07.440,-0.15,-0.055
2021-08-19 22:15:07.444,-0.155,-0.045
2021-08-19 22:15:07.448,-0.14,-0.065
2021-08-19 22:15:07.452,-0.09,-0.055
2021-08-19 22:15:07.456,-0.12,-0.035
2021-08-19 22:15:07.460,-0.1,-0.045
2021-08-19 22:15:07.464,-0.08,-0.03
2021-08-19 22:15:07.468,-0.075,-0.03
2021-08-19 22:15:07.472,-0.07,-0.005
2021-08-19 22:15:07.476,0.0,-0.02
2021-08-19 22:15:07.480,0.035,0.0
2021-08-19 22:15:07.484,0.065,0.025
2021-08-19 22:15:07.488,0.08,0.015
2021-08-19 22:15:07.492,0.1,0.02
2021-08-19 22:15:07.496,0.125,0.015
2021-08-19 22:15:07.500,0.13,0.03
2021-08-19 22:15:07.504,0.13,0.03
2021-08-19 22:15:07.508,0.12,0.0
2021-08-19 22:15:07.512,0.075,-0.015
2021-08-19 22:15:07.516,0.05,-0.06
2021-08-19 22:15:07.520,-0.01,-0.07
2021-08-19 22:15:07.524,-0.05,-0.095
2021-08-19 22:15:07.528,-0.11,-0.09
2021-08-19 22:15:07.532,-0.18,-0.085
2021-08-19 22:15:07.536,-0.23,-0.045
2021-08-19 22:15:07.540,-0.24,-0.045
2021-08-19 22:15:07.544,-0.26,-0.02
2021-08-19 22:15:07.548,-0.275,-0.03
2021-08-19 22:15:07.552,-0.26,-0.03
2021-08-19 22:15:07.556,-0.245,-0.04
2021-08-19 22:15:07.560,-0.225,-0.05
2021-08-19 22:15:07.564,-0.225,-0.045
2021-08-19 22:15:07.568,-0.22,-0.07
2021-08-19 22:15:07.572,-0.22,-0.05
2021-08-19 22:15:07.576,-0.215,-0.055
2021-08-19 22:15:07.580,-0.225,-0.04
2021-08-19 22:15:07.584,-0.225,-0.05
2021-08-19 22:15:07.588,-0.235,-0.06
2021-08-19 22:15:07.592,-0.22,-0.065
2021-08-19 22:15:07.596,-0.22,-0.05
2021-08-19 22:15:07.600,-0.21,-0.06
2021-08-19 22:15:07.604,-0.215,-0.055
2021-08-19 22:15:07.608,-0.245,-0.085
2021-08-19 22:15:07.612,-0.245,-0.075
2021-08-19 22:15:07.616,-0.255,-0.075
2021-08-19 22:15:07.620,-0.23,-0.075
2021-08-19 22:15:07.624,-0.25,-0.08
2021-08-19 22:15:07.628,-0.2,-0.09
2021-08-19 22:15:07.632,-0.22,-0.085
2021-08-19 22:15:07.636,-0.22,-0.125
2021-08-19 22:15:07.640,-0.21,-0.115
2021-08-19 22:15:07.644,-0.185,-0.085
2021-08-19 22:15:07.648,-0.185,-0.06
2021-08-19 22:15:07.652,-0.15,-0.1
2021-08-19 22:15:07.656,-0.065,-0.11
2021-08-19 22:15:07.660,0.02,-0.105
2021-08-19 22:15:07.664,0.115,-0.125
2021-08-19 22:15:07.668,0.195,-0.15
2021-08-19 22:15:07.672,0.265,-0.18
2021-08-19 22:15:07.676,0.31,-0.245
2021-08-19 22:15:07.680,0.335,-0.255
2021-08-19 22:15:07.684,0.35,-0.28
2021-08-19 22:15:07.688,0.325,-0.315
2021-08-19 22:15:07.692,0.33,-0.415
2021-08-19 22:15:07.696,0.47,-0.54
2021-08-19 22:15:07.700,0.735,-0.76
2021-08-19 22:15:07.704,1.045,-0.985
2021-08-19 22:15:07.708,1.195,-1.22
2021-08-19 22:15:07.712,1.055,-1.355
2021-08-19 22:15:07.716,0.65,-1.275
2021-08-19 22:15:07.720,0.2,-0.92
2021-08-19 22:15:07.724,-0.08,-0.555
2021-08-19 22:15:07.728,-0.22,-0.33
2021-08-19 22:15:07.732,-0.27,-0.195
2021-08-19 22:15:07.736,-0.28,-0.095
2021-08-19 22:15:07.740,-0.295,-0.015
2021-08-19 22:15:07.744,-0.325,0.02
2021-08-19 22:15:07.748,-0.325,0.04
2021-08-19 22:15:07.752,-0.355,0.035
2021-08-19 22:15:07.756,-0.355,0.02
2021-08-19 22:15:07.760,-0.35,0.025
2021-08-19 22:15:07.764,-0.345,0.015
2021-08-19 22:15:07.768,-0.345,0.015
2021-08-19 22:15:07.772,-0.345,-0.005
2021-08-19 22:15:07.776,-0.345,0.01
2021-08-19 22:15:07.780,-0.35,0.005
2021-08-19 22:15:07.784,-0.335,0.015
2021-08-19 22:15:07.788,-0.345,0.0
2021-08-19 22:15:07.792,-0.345,0.015
2021-08-19 22:15:07.796,-0.355,0.005
2021-08-19 22:15:07.800,-0.34,0.0
2021-08-19 22:15:07.804,-0.34,0.015
2021-08-19 22:15:07.808,-0.365,0.01
2021-08-19 22:15:07.812,-0.36,0.02
2021-08-19 22:15:07.816,-0.36,0.01
2021-08-19 22:15:07.820,-0.37,0.01
2021-08-19 22:15:07.824,-0.35,0.005
2021-08-19 22:15:07.828,-0.385,0.0
2021-08-19 22:15:07.832,-0.39,-0.01
2021-08-19 22:15:07.836,-0.405,-0.005
2021-08-19 22:15:07.840,-0.41,-0.01
2021-08-19 22:15:07.844,-0.405,0.005
2021-08-19 22:15:07.848,-0.39,0.0
2021-08-19 22:15:07.852,-0.4,-0.02
2021-08-19 22:15:07.856,-0.42,-0.02
2021-08-19 22:15:07.860,-0.405,-0.035
2021-08-19 22:15:07.864,-0.42,-0.03
2021-08-19 22:15:07.868,-0.425,-0.03
2021-08-19 22:15:07.872,-0.415,-0.025
2021-08-19 22:15:07.876,-0.425,-0.025
2021-08-19 22:15:07.880,-0.415,0.0
2021-08-19 22:15:07.884,-0.405,-0.035
2021-08-19 22:15:07.888,-0.375,-0.025
2021-08-19 22:15:07.892,-0.37,0.0
2021-08-19 22:15:07.896,-0.37,-0.025
2021-08-19 22:15:07.900,-0.37,-0.015
2021-08-19 22:15:07.904,-0.365,-0.015
2021-08-19 22:15:07.908,-0.36,-0.025
2021-08-19 22:15:07.912,-0.36,-0.03
2021-08-19 22:15:07.916,-0.32,0.0
2021-08-19 22:15:07.920,-0.305,-0.025
2021-08-19 22:15:07.924,-0.3,-0.04
2021-08-19 22:15:07.928,-0.305,-0.045
2021-08-19 22:15:07.932,-0.28,-0.035
2021-08-19 22:15:07.936,-0.28,-0.055
2021-08-19 22:15:07.940,-0.27,-0.045
2021-08-19 22:15:07.944,-0.25,-0.05
2021-08-19 22:15:07.948,-0.25,-0.065
2021-08-19 22:15:07.952,-0.23,-0.095
2021-08-19 22:15:07.956,-0.235,-0.08
2021-08-19 22:15:07.960,-0.225,-0.11
2021-08-19 22:15:07.964,-0.205,-0.07
2021-08-19 22:15:07.968,-0.195,-0.11
2021-08-19 22:15:07.972,-0.175,-0.105
2021-08-19 22:15:07.976,-0.17,-0.105
2021-08-19 22:15:07.980,-0.175,-0.115
2021-08-19 22:15:07.984,-0.16,-0.105
2021-08-19 22:15:07.988,-0.16,-0.12
2021-08-19 22:15:07.992,-0.17,-0.085
2021-08-19 22:15:07.996,-0.16,-0.09
2021-08-19 22:15:08.000,-0.135,-0.09
2021-08-19 22:15:08.004,-0.155,-0.11
2021-08-19 22:15:08.008,-0.16,-0.1
2021-08-19 22:15:08.012,-0.12,-0.07
2021-08-19 22:15:08.016,-0.13,-0.1
2021-08-19 22:15:08.020,-0.12,-0.095
2021-08-19 22:15:08.024,-0.125,-0.075
2021-08-19 22:15:08.028,-0.13,-0.07
2021-08-19 22:15:08.032,-0.12,-0.055
2021-08-19 22:15:08.036,-0.135,-0.065
2021-08-19 22:15:08.040,-0.15,-0.075
2021-08-19 22:15:08.044,-0.15,-0.065
2021-08-19 22:15:08.048,-0.15,-0.055
2021-08-19 22:15:08.052,-0.15,-0.06
2021-08-19 22:15:08.056,-0.14,-0.065
2021-08-19 22:15:08.060,-0.17,-0.05
2021-08-19 22:15:08.064,-0.155,-0.065
2021-08-19 22:15:08.068,-0.16,-0.065
2021-08-19 22:15:08.072,-0.145,-0.07
2021-08-19 22:15:08.076,-0.155,-0.065
2021-08-19 22:15:08.080,-0.14,-0.06
2021-08-19 22:15:08.084,-0.11,-0.06
2021-08-19 22:15:08.088,-0.11,-0.075
2021-08-19 22:15:08.092,-0.105,-0.075
2021-08-19 22:15:08.096,-0.08,-0.055
2021-08-19 22:15:08.100,-0.065,-0.04
2021-08-19 22:15:08.104,-0.03,-0.045
2021-08-19 22:15:08.108,0.015,-0.06
2021-08-19 22:15:08.112,0.065,-0.01
2021-08-19 22:15:08.116,0.09,-0.005
2021-08-19 22:15:08.120,0.135,0.005
2021-08-19 22:15:08.124,0.165,0.01
2021-08-19 22:15:08.128,0.175,0.015
2021-08-19 22:15:08.132,0.185,-0.01
2021-08-19 22:15:08.136,0.175,0.005
2021-08-19 22:15:08.140,0.175,-0.01
2021-08-19 22:15:08.144,0.12,-0.045
2021-08-19 22:15:08.148,0.07,-0.08
2021-08-19 22:15:08.152,0.025,-0.07
2021-08-19 22:15:08.156,-0.035,-0.085
2021-08-19 22:15:08.160,-0.1,-0.07
2021-08-19 22:15:08.164,-0.155,-0.1
2021-08-19 22:15:08.168,-0.195,-0.06
2021-08-19 22:15:08.172,-0.225,-0.035
2021-08-19 22:15:08.176,-0.25,-0.05
2021-08-19 22:15:08.180,-0.235,-0.025
2021-08-19 22:15:08.184,-0.235,-0.065
2021-08-19 22:15:08.188,-0.24,-0.075
2021-08-19 22:15:08.192,-0.24,-0.095
2021-08-19 22:15:08.196,-0.22,-0.08
2021-08-19 22:15:08.200,-0.22,-0.075
2021-08-19 22:15:08.204,-0.22,-0.07
2021-08-19 22:15:08.208,-0.235,-0.105
2021-08-19 22:15:08.212,-0.205,-0.105
2021-08-19 22:15:08.216,-0.215,-0.095
2021-08-19 22:15:08.220,-0.21,-0.095
2021-08-19 22:15:08.224,-0.205,-0.1
2021-08-19 22:15:08.228,-0.205,-0.095
2021-08-19 22:15:08.232,-0.2,-0.095
2021-08-19 22:15:08.236,-0.2,-0.085
2021-08-19 22:15:08.240,-0.195,-0.08
2021-08-19 22:15:08.244,-0.19,-0.075
2021-08-19 22:15:08.248,-0.185,-0.095
2021-08-19 22:15:08.252,-0.18,-0.09
2021-08-19 22:15:08.256,-0.195,-0.085
2021-08-19 22:15:08.260,-0.205,-0.08
2021-08-19 22:15:08.264,-0.195,-0.08
2021-08-19 22:15:08.268,-0.185,-0.08
2021-08-19 22:15:08.272,-0.195,-0.11
2021-08-19 22:15:08.276,-0.19,-0.11
2021-08-19 22:15:08.280,-0.16,-0.12
2021-08-19 22:15:08.284,-0.12,-0.105
2021-08-19 22:15:08.288,-0.06,-0.12
2021-08-19 22:15:08.292,0.0,-0.105
2021-08-19 22:15:08.296,0.09,-0.14
2021-08-19 22:15:08.300,0.165,-0.16
2021-08-19 22:15:08.304,0.225,-0.21
2021-08-19 22:15:08.308,0.265,-0.265
2021-08-19 22:15:08.312,0.305,-0.275
2021-08-19 22:15:08.316,0.33,-0.3
2021-08-19 22:15:08.320,0.33,-0.345
2021-08-19 22:15:08.324,0.33,-0.425
2021-08-19 22:15:08.328,0.46,-0.6
2021-08-19 22:15:08.332,0.73,-0.795
2021-08-19 22:15:08.336,1.065,-1.02
2021-08-19 22:15:08.340,1.24,-1.245
2021-08-19 22:15:08.344,1.15,-1.39
2021-08-19 22:15:08.348,0.765,-1.36
2021-08-19 22:15:08.352,0.29,-1.05
2021-08-19 22:15:08.356,-0.045,-0.625
2021-08-19 22:15:08.360,-0.17,-0.365
2021-08-19 22:15:08.364,-0.235,-0.215
2021-08-19 22:15:08.368,-0.27,-0.105
2021-08-19 22:15:08.372,-0.305,-0.02
2021-08-19 22:15:08.376,-0.305,0.025
2021-08-19 22:15:08.380,-0.34,0.03
2021-08-19 22:15:08.384,-0.32,0.045
2021-08-19 22:15:08.388,-0.34,0.055
2021-08-19 22:15:08.392,-0.375,0.045
2021-08-19 22:15:08.396,-0.365,0.02
2021-08-19 22:15:08.400,-0.36,0.01
2021-08-19 22:15:08.404,-0.38,0.0
2021-08-19 22:15:08.408,-0.36,0.005
2021-08-19 22:15:08.412,-0.35,0.0
2021-08-19 22:15:08.416,-0.365,-0.02
2021-08-19 22:15:08.420,-0.36,0.0
2021-08-19 22:15:08.424,-0.355,0.015
2021-08-19 22:15:08.428,-0.375,0.0
2021-08-19 22:15:08.432,-0.38,0.01
2021-08-19 22:15:08.436,-0.38,0.02
2021-08-19 22:15:08.440,-0.38,0.0
2021-08-19 22:15:08.444,-0.38,0.015
2021-08-19 22:15:08.448,-0.355,0.005
2021-08-19 22:15:08.452,-0.39,0.005
2021-08-19 22:15:08.456,-0.375,0.0
2021-08-19 22:15:08.460,-0.36,0.01
2021-08-19 22:15:08.464,-0.38,0.005
2021-08-19 22:15:08.468,-0.37,0.0
2021-08-19 22:15:08.472,-0.385,0.005
2021-08-19 22:15:08.476,-0.395,-0.01
2021-08-19 22:15:08.480,-0.385,0.0
2021-08-19 22:15:08.484,-0.41,0.015
2021-08-19 22:15:08.488,-0.41,0.04
2021-08-19 22:15:08.492,-0.4,0.015
2021-08-19 22:15:08.496,-0.41,-0.015
2021-08-19 22:15:08.500,-0.42,0.015
2021-08-19 22:15:08.504,-0.43,0.02
2021-08-19 22:15:08.508,-0.42,0.025
2021-08-19 22:15:08.512,-0.41,0.015
2021-08-19 22:15:08.516,-0.415,0.01
2021-08-19 22:15:08.520,-0.41,0.03
2021-08-19 22:15:08.524,-0.415,0.02
2021-08-19 22:15:08.528,-0.405,0.015
2021-08-19 22:15:08.532,-0.37,0.005
2021-08-19 22:15:08.536,-0.405,0.005
2021-08-19 22:15:08.540,-0.4,0.025
2021-08-19 22:15:08.544,-0.37,0.005
2021-08-19 22:15:08.548,-0.36,0.0
2021-08-19 22:15:08.552,-0.35,0.0
2021-08-19 22:15:08.556,-0.345,-0.01
2021-08-19 22:15:08.560,-0.31,-0.02
2021-08-19 22:15:08.564,-0.295,-0.02
2021-08-19 22:15:08.568,-0.285,-0.02
2021-08-19 22:15:08.572,-0.28,-0.04
2021-08-19 22:15:08.576,-0.27,-0.045
2021-08-19 22:15:08.580,-0.25,-0.055
2021-08-19 22:15:08.584,-0.26,-0.065
2021-08-19 22:15:08.588,-0.23,-0.05
2021-08-19 22:15:08.592,-0.225,-0.07
2021-08-19 22:15:08.596,-0.22,-0.06
2021-08-19 22:15:08.600,-0.215,-0.075
2021-08-19 22:15:08.604,-0.22,-0.06
2021-08-19 22:15:08.608,-0.195,-0.09
2021-08-19 22:15:08.612,-0.18,-0.085
2021-08-19 22:15:08.616,-0.19,-0.105
2021-08-19 22:15:08.620,-0.175,-0.105
2021-08-19 22:15:08.624,-0.17,-0.1
2021-08-19 22:15:08.628,-0.165,-0.1
2021-08-19 22:15:08.632,-0.19,-0.095
2021-08-19 22:15:08.636,-0.185,-0.08
2021-08-19 22:15:08.640,-0.16,-0.1
2021-08-19 22:15:08.644,-0.16,-0.07
2021-08-19 22:15:08.648,-0.155,-0.075
2021-08-19 22:15:08.652,-0.165,-0.075
2021-08-19 22:15:08.656,-0.16,-0.06
2021-08-19 22:15:08.660,-0.15,-0.065
2021-08-19 22:15:08.664,-0.16,-0.085
2021-08-19 22:15:08.668,-0.15,-0.055
2021-08-19 22:15:08.672,-0.125,-0.065
2021-08-19 22:15:08.676,-0.15,-0.065
2021-08-19 22:15:08.680,-0.155,-0.055
2021-08-19 22:15:08.684,-0.155,-0.04
2021-08-19 22:15:08.688,-0.14,-0.045
2021-08-19 22:15:08.692,-0.135,-0.035
2021-08-19 22:15:08.696,-0.14,-0.045
2021-08-19 22:15:08.700,-0.14,-0.045
2021-08-19 22:15:08.704,-0.135,-0.005
2021-08-19 22:15:08.708,-0.11,-0.04
2021-08-19 22:15:08.712,-0.08,-0.045
2021-08-19 22:15:08.716,-0.1,-0.05
2021-08-19 22:15:08.720,-0.1,-0.045
2021-08-19 22:15:08.724,-0.09,-0.045
2021-08-19 22:15:08.728,-0.06,-0.03
2021-08-19 22:15:08.732,-0.015,-0.035
2021-08-19 22:15:08.736,0.02,0.01
2021-08-19 22:15:08.740,0.075,-0.005
2021-08-19 22:15:08.744,0.1,0.0
2021-08-19 22:15:08.748,0.1,0.005
2021-08-19 22:15:08.752,0.125,0.015
2021-08-19 22:15:08.756,0.145,0.005
2021-08-19 22:15:08.760,0.16,0.0
2021-08-19 22:15:08.764,0.125,-0.04
2021-08-19 22:15:08.768,0.095,-0.06
2021-08-19 22:15:08.772,0.025,-0.095
2021-08-19 22:15:08.776,-0.015,-0.085
2021-08-19 22:15:08.780,-0.07,-0.09
2021-08-19 22:15:08.784,-0.105,-0.085
2021-08-19 22:15:08.788,-0.165,-0.055
2021-08-19 22:15:08.792,-0.195,-0.05
2021-08-19 22:15:08.796,-0.22,-0.04
2021-08-19 22:15:08.800,-0.235,-0.02
2021-08-19 22:15:08.804,-0.235,0.0
2021-08-19 22:15:08.808,-0.22,-0.05
2021-08-19 22:15:08.812,-0.215,-0.035
2021-08-19 22:15:08.816,-0.225,-0.05
2021-08-19 22:15:08.820,-0.235,-0.055
2021-08-19 22:15:08.824,-0.22,-0.055
2021-08-19 22:15:08.828,-0.235,-0.055
2021-08-19 22:15:08.832,-0.23,-0.05
2021-08-19 22:15:08.836,-0.22,-0.05
2021-08-19 22:15:08.840,-0.21,-0.07
2021-08-19 22:15:08.844,-0.21,-0.07
2021-08-19 22:15:08.848,-0.225,-0.05
2021-08-19 22:15:08.852,-0.23,-0.06
2021-08-19 22:15:08.856,-0.21,-0.07
2021-08-19 22:15:08.860,-0.21,-0.095
2021-08-19 22:15:08.864,-0.22,-0.07
2021-08-19 22:15:08.868,-0.21,-0.085
2021-08-19 22:15:08.872,-0.22,-0.095
2021-08-19 22:15:08.876,-0.205,-0.11
2021-08-19 22:15:08.880,-0.205,-0.095
2021-08-19 22:15:08.884,-0.215,-0.11
2021-08-19 22:15:08.888,-0.215,-0.095
2021-08-19 22:15:08.892,-0.16,-0.1
2021-08-19 22:15:08.896,-0.18,-0.12
2021-08-19 22:15:08.900,-0.16,-0.11
2021-08-19 22:15:08.904,-0.12,-0.13
2021-08-19 22:15:08.908,-0.085,-0.1
2021-08-19 22:15:08.912,-0.025,-0.105
2021-08-19 22:15:08.916,0.035,-0.1
2021-08-19 22:15:08.920,0.135,-0.125
2021-08-19 22:15:08.924,0.18,-0.155
2021-08-19 22:15:08.928,0.235,-0.205
2021-08-19 22:15:08.932,0.26,-0.245
2021-08-19 22:15:08.936,0.305,-0.26
2021-08-19 22:15:08.940,0.3,-0.32
2021-08-19 22:15:08.944,0.29,-0.395
2021-08-19 22:15:08.948,0.315,-0.505
2021-08-19 22:15:08.952,0.5,-0.66
2021-08-19 22:15:08.956,0.785,-0.905
2021-08-19 22:15:08.960,1.065,-1.15
2021-08-19 22:15:08.964,1.175,-1.34
2021-08-19 22:15:08.968,0.995,-1.445
2021-08-19 22:15:08.972,0.535,-1.295
2021-08-19 22:15:08.976,0.07,-0.93
2021-08-19 22:15:08.980,-0.175,-0.545
2021-08-19 22:15:08.984,-0.27,-0.33
2021-08-19 22:15:08.988,-0.315,-0.185
2021-08-19 22:15:08.992,-0.33,-0.09
2021-08-19 22:15:08.996,-0.355,-0.04
2021-08-19 22:15:09.000,-0.36,0.01
2021-08-19 22:15:09.004,-0.355,0.02
2021-08-19 22:15:09.008,-0.35,0.045
2021-08-19 22:15:09.012,-0.385,0.055
2021-08-19 22:15:09.016,-0.36,0.04
2021-08-19 22:15:09.020,-0.355,0.005
2021-08-19 22:15:09.024,-0.36,0.02
2021-08-19 22:15:09.028,-0.375,0.015
2021-08-19 22:15:09.032,-0.375,0.015
2021-08-19 22:15:09.036,-0.36,0.02
2021-08-19 22:15:09.040,-0.385,0.01
2021-08-19 22:15:09.044,-0.365,0.015
2021-08-19 22:15:09.048,-0.37,0.01
2021-08-19 22:15:09.052,-0.36,0.01
2021-08-19 22:15:09.056,-0.39,0.0
2021-08-19 22:15:09.060,-0.385,-0.015
2021-08-19 22:15:09.064,-0.405,-0.01
2021-08-19 22:15:09.068,-0.415,0.0
2021-08-19 22:15:09.072,-0.42,-0.02
2021-08-19 22:15:09.076,-0.43,-0.03
2021-08-19 22:15:09.080,-0.43,-0.025
2021-08-19 22:15:09.084,-0.43,-0.02
2021-08-19 22:15:09.088,-0.405,-0.005
2021-08-19 22:15:09.092,-0.415,-0.02
2021-08-19 22:15:09.096,-0.43,-0.025
2021-08-19 22:15:09.100,-0.42,-0.02
2021-08-19 22:15:09.104,-0.435,0.005
2021-08-19 22:15:09.108,-0.435,-0.015
2021-08-19 22:15:09.112,-0.445,-0.01
2021-08-19 22:15:09.116,-0.44,-0.01
2021-08-19 22:15:09.120,-0.43,0.0
2021-08-19 22:15:09.124,-0.435,0.0
2021-08-19 22:15:09.128,-0.44,0.025
2021-08-19 22:15:09.132,-0.43,0.005
2021-08-19 22:15:09.136,-0.42,0.025
2021-08-19 22:15:09.140,-0.43,0.035
2021-08-19 22:15:09.144,-0.415,0.01
2021-08-19 22:15:09.148,-0.405,0.0
2021-08-19 22:15:09.152,-0.4,0.0
2021-08-19 22:15:09.156,-0.395,0.0
2021-08-19 22:15:09.160,-0.405,-0.01
2021-08-19 22:15:09.164,-0.38,-0.02
2021-08-19 22:15:09.168,-0.39,-0.015
2021-08-19 22:15:09.172,-0.39,-0.04
2021-08-19 22:15:09.176,-0.375,-0.045
2021-08-19 22:15:09.180,-0.355,-0.035
2021-08-19 22:15:09.184,-0.345,-0.035
2021-08-19 22:15:09.188,-0.325,-0.055
2021-08-19 22:15:09.192,-0.315,-0.07
2021-08-19 22:15:09.196,-0.305,-0.1
2021-08-19 22:15:09.200,-0.29,-0.11
2021-08-19 22:15:09.204,-0.28,-0.105
2021-08-19 22:15:09.208,-0.285,-0.095
2021-08-19 22:15:09.212,-0.285,-0.11
2021-08-19 22:15:09.216,-0.25,-0.11
2021-08-19 22:15:09.220,-0.25,-0.12
2021-08-19 22:15:09.224,-0.24,-0.105
2021-08-19 22:15:09.228,-0.24,-0.125
2021-08-19 22:15:09.232,-0.23,-0.115
2021-08-19 22:15:09.236,-0.205,-0.12
2021-08-19 22:15:09.240,-0.2,-0.11
2021-08-19 22:15:09.244,-0.205,-0.12
2021-08-19 22:15:09.248,-0.2,-0.105
2021-08-19 22:15:09.252,-0.185,-0.105
2021-08-19 22:15:09.256,-0.21,-0.105
2021-08-19 22:15:09.260,-0.2,-0.105
2021-08-19 22:15:09.264,-0.175,-0.11
2021-08-19 22:15:09.268,-0.2,-0.1
2021-08-19 22:15:09.272,-0.2,-0.105
2021-08-19 22:15:09.276,-0.2,-0.1
2021-08-19 22:15:09.280,-0.2,-0.115
2021-08-19 22:15:09.284,-0.225,-0.085
2021-08-19 22:15:09.288,-0.225,-0.1
2021-08-19 22:15:09.292,-0.235,-0.12
2021-08-19 22:15:09.296,-0.235,-0.11
2021-08-19 22:15:09.300,-0.225,-0.1
2021-08-19 22:15:09.304,-0.22,-0.095
2021-08-19 22:15:09.308,-0.23,-0.095
2021-08-19 22:15:09.312,-0.215,-0.085
2021-08-19 22:15:09.316,-0.195,-0.1
2021-08-19 22:15:09.320,-0.18,-0.105
2021-08-19 22:15:09.324,-0.2,-0.085
2021-08-19 22:15:09.328,-0.19,-0.07
2021-08-19 22:15:09.332,-0.165,-0.1
2021-08-19 22:15:09.336,-0.125,-0.085
2021-08-19 22:15:09.340,-0.06,-0.08
2021-08-19 22:15:09.344,-0.035,-0.04
2021-08-19 22:15:09.348,0.01,-0.04
2021-08-19 22:15:09.352,0.03,-0.035
2021-08-19 22:15:09.356,0.06,-0.025
2021-08-19 22:15:09.360,0.06,-0.015
2021-08-19 22:15:09.364,0.075,-0.01
2021-08-19 22:15:09.368,0.055,-0.045
2021-08-19 22:15:09.372,0.02,-0.065
2021-08-19 22:15:09.376,-0.03,-0.115
2021-08-19 22:15:09.380,-0.1,-0.12
2021-08-19 22:15:09.384,-0.15,-0.145
2021-08-19 22:15:09.388,-0.225,-0.115
2021-08-19 22:15:09.392,-0.265,-0.105
2021-08-19 22:15:09.396,-0.325,-0.075
2021-08-19 22:15:09.400,-0.355,-0.1
2021-08-19 22:15:09.404,-0.38,-0.1
2021-08-19 22:15:09.408,-0.375,-0.065
2021-08-19 22:15:09.412,-0.35,-0.1
2021-08-19 22:15:09.416,-0.34,-0.12
2021-08-19 22:15:09.420,-0.365,-0.12
2021-08-19 22:15:09.424,-0.33,-0.095
2021-08-19 22:15:09.428,-0.35,-0.14
2021-08-19 22:15:09.432,-0.345,-0.13
2021-08-19 22:15:09.436,-0.345,-0.135
2021-08-19 22:15:09.440,-0.33,-0.11
2021-08-19 22:15:09.444,-0.34,-0.125
2021-08-19 22:15:09.448,-0.325,-0.12
2021-08-19 22:15:09.452,-0.3,-0.12
2021-08-19 22:15:09.456,-0.295,-0.125
2021-08-19 22:15:09.460,-0.285,-0.11
2021-08-19 22:15:09.464,-0.28,-0.11
2021-08-19 22:15:09.468,-0.275,-0.11
2021-08-19 22:15:09.472,-0.28,-0.12
2021-08-19 22:15:09.476,-0.285,-0.115
2021-08-19 22:15:09.480,-0.3,-0.15
2021-08-19 22:15:09.484,-0.29,-0.12
2021-08-19 22:15:09.488,-0.275,-0.135
2021-08-19 22:15:09.492,-0.27,-0.12
2021-08-19 22:15:09.496,-0.275,-0.12
2021-08-19 22:15:09.500,-0.285,-0.13
2021-08-19 22:15:09.504,-0.28,-0.13
2021-08-19 22:15:09.508,-0.265,-0.145
2021-08-19 22:15:09.512,-0.21,-0.145
2021-08-19 22:15:09.516,-0.145,-0.15
2021-08-19 22:15:09.520,-0.05,-0.16
2021-08-19 22:15:09.524,0.035,-0.18
2021-08-19 22:15:09.528,0.12,-0.2
2021-08-19 22:15:09.532,0.16,-0.26
2021-08-19 22:15:09.536,0.18,-0.285
2021-08-19 22:15:09.540,0.22,-0.32
2021-08-19 22:15:09.544,0.205,-0.355
2021-08-19 22:15:09.548,0.185,-0.43
2021-08-19 22:15:09.552,0.245,-0.535
2021-08-19 22:15:09.556,0.455,-0.71
2021-08-19 22:15:09.560,0.765,-0.93
2021-08-19 22:15:09.564,1.025,-1.165
2021-08-19 22:15:09.568,1.075,-1.365
2021-08-19 22:15:09.572,0.81,-1.44
2021-08-19 22:15:09.576,0.325,-1.22
2021-08-19 22:15:09.580,-0.08,-0.815
2021-08-19 22:15:09.584,-0.255,-0.495
2021-08-19 22:15:09.588,-0.305,-0.3
2021-08-19 22:15:09.592,-0.345,-0.185
2021-08-19 22:15:09.596,-0.37,-0.09
2021-08-19 22:15:09.600,-0.385,-0.015
2021-08-19 22:15:09.604,-0.405,0.0
2021-08-19 22:15:09.608,-0.425,-0.01
2021-08-19 22:15:09.612,-0.44,0.0
2021-08-19 22:15:09.616,-0.44,-0.005
2021-08-19 22:15:09.620,-0.475,-0.02
2021-08-19 22:15:09.624,-0.455,-0.07
2021-08-19 22:15:09.628,-0.47,-0.05
2021-08-19 22:15:09.632,-0.485,-0.045
2021-08-19 22:15:09.636,-0.48,-0.055
2021-08-19 22:15:09.640,-0.46,-0.075
2021-08-19 22:15:09.644,-0.47,-0.065
2021-08-19 22:15:09.648,-0.485,-0.09
2021-08-19 22:15:09.652,-0.49,-0.08
2021-08-19 22:15:09.656,-0.465,-0.06
2021-08-19 22:15:09.660,-0.485,-0.075
2021-08-19 22:15:09.664,-0.475,-0.06
2021-08-19 22:15:09.668,-0.47,-0.07
2021-08-19 22:15:09.672,-0.455,-0.07
2021-08-19 22:15:09.676,-0.46,-0.065
2021-08-19 22:15:09.680,-0.45,-0.07
2021-08-19 22:15:09.684,-0.44,-0.035
2021-08-19 22:15:09.688,-0.46,-0.06
2021-08-19 22:15:09.692,-0.48,-0.06
2021-08-19 22:15:09.696,-0.495,-0.04
2021-08-19 22:15:09.700,-0.5,-0.035
2021-08-19 22:15:09.704,-0.495,-0.055
2021-08-19 22:15:09.708,-0.495,-0.045
2021-08-19 22:15:09.712,-0.515,-0.05
2021-08-19 22:15:09.716,-0.5,-0.04
2021-08-19 22:15:09.720,-0.495,-0.06
2021-08-19 22:15:09.724,-0.505,-0.035
2021-08-19 22:15:09.728,-0.52,-0.045
2021-08-19 22:15:09.732,-0.53,-0.05
2021-08-19 22:15:09.736,-0.505,-0.05
2021-08-19 22:15:09.740,-0.5,-0.045
2021-08-19 22:15:09.744,-0.49,-0.03
2021-08-19 22:15:09.748,-0.475,-0.065
2021-08-19 22:15:09.752,-0.49,-0.045
2021-08-19 22:15:09.756,-0.49,-0.07
2021-08-19 22:15:09.760,-0.47,-0.075
2021-08-19 22:15:09.764,-0.445,-0.09
2021-08-19 22:15:09.768,-0.445,-0.075
2021-08-19 22:15:09.772,-0.435,-0.08
2021-08-19 22:15:09.776,-0.415,-0.08
2021-08-19 22:15:09.780,-0.38,-0.06
2021-08-19 22:15:09.784,-0.385,-0.105
2021-08-19 22:15:09.788,-0.345,-0.085
2021-08-19 22:15:09.792,-0.35,-0.09
2021-08-19 22:15:09.796,-0.345,-0.11
2021-08-19 22:15:09.800,-0.345,-0.1
2021-08-19 22:15:09.804,-0.305,-0.13
2021-08-19 22:15:09.808,-0.31,-0.115
2021-08-19 22:15:09.812,-0.295,-0.115
2021-08-19 22:15:09.816,-0.28,-0.14
2021-08-19 22:15:09.820,-0.26,-0.14
2021-08-19 22:15:09.824,-0.255,-0.13
2021-08-19 22:15:09.828,-0.265,-0.135
2021-08-19 22:15:09.832,-0.24,-0.15
2021-08-19 22:15:09.836,-0.265,-0.13
2021-08-19 22:15:09.840,-0.28,-0.14
2021-08-19 22:15:09.844,-0.275,-0.14
2021-08-19 22:15:09.848,-0.275,-0.13
2021-08-19 22:15:09.852,-0.24,-0.14
2021-08-19 22:15:09.856,-0.245,-0.13
2021-08-19 22:15:09.860,-0.245,-0.13
2021-08-19 22:15:09.864,-0.24,-0.14
2021-08-19 22:15:09.868,-0.23,-0.145
2021-08-19 22:15:09.872,-0.24,-0.13
2021-08-19 22:15:09.876,-0.26,-0.135
2021-08-19 22:15:09.880,-0.255,-0.12
2021-08-19 22:15:09.884,-0.24,-0.125
2021-08-19 22:15:09.888,-0.24,-0.11
2021-08-19 22:15:09.892,-0.245,-0.14
2021-08-19 22:15:09.896,-0.215,-0.14
2021-08-19 22:15:09.900,-0.22,-0.13
2021-08-19 22:15:09.904,-0.23,-0.115
2021-08-19 22:15:09.908,-0.23,-0.125
2021-08-19 22:15:09.912,-0.23,-0.11
2021-08-19 22:15:09.916,-0.24,-0.095
2021-08-19 22:15:09.920,-0.25,-0.1
2021-08-19 22:15:09.924,-0.255,-0.085
2021-08-19 22:15:09.928,-0.235,-0.1
2021-08-19 22:15:09.932,-0.22,-0.105
2021-08-19 22:15:09.936,-0.22,-0.105
2021-08-19 22:15:09.940,-0.18,-0.125
2021-08-19 22:15:09.944,-0.215,-0.1
2021-08-19 22:15:09.948,-0.215,-0.105
2021-08-19 22:15:09.952,-0.185,-0.105
2021-08-19 22:15:09.956,-0.16,-0.075
2021-08-19 22:15:09.960,-0.075,-0.09
2021-08-19 22:15:09.964,-0.04,-0.08
2021-08-19 22:15:09.968,0.0,-0.07
2021-08-19 22:15:09.972,0.035,-0.06
2021-08-19 22:15:09.976,0.06,-0.065
2021-08-19 22:15:09.980,0.08,-0.08
2021-08-19 22:15:09.984,0.115,-0.06
2021-08-19 22:15:09.988,0.1,-0.065
2021-08-19 22:15:09.992,0.065,-0.09
2021-08-19 22:15:09.996,0.0,-0.135
2021-08-19 22:15:10.000,-0.025,-0.16
2021-08-19 22:15:10.004,-0.075,-0.16
2021-08-19 22:15:10.008,-0.14,-0.17
2021-08-19 22:15:10.012,-0.18,-0.155
2021-08-19 22:15:10.016,-0.24,-0.13
2021-08-19 22:15:10.020,-0.29,-0.105
2021-08-19 22:15:10.024,-0.295,-0.1
2021-08-19 22:15:10.028,-0.32,-0.095
2021-08-19 22:15:10.032,-0.33,-0.105
2021-08-19 22:15:10.036,-0.31,-0.1
2021-08-19 22:15:10.040,-0.305,-0.11
2021-08-19 22:15:10.044,-0.295,-0.125
2021-08-19 22:15:10.048,-0.295,-0.12
2021-08-19 22:15:10.052,-0.3,-0.125
2021-08-19 22:15:10.056,-0.315,-0.115
2021-08-19 22:15:10.060,-0.315,-0.125
2021-08-19 22:15:10.064,-0.315,-0.125
2021-08-19 22:15:10.068,-0.3,-0.11
2021-08-19 22:15:10.072,-0.315,-0.13
2021-08-19 22:15:10.076,-0.29,-0.13
2021-08-19 22:15:10.080,-0.29,-0.14
2021-08-19 22:15:10.084,-0.27,-0.145
2021-08-19 22:15:10.088,-0.3,-0.145
2021-08-19 22:15:10.092,-0.28,-0.14
2021-08-19 22:15:10.096,-0.28,-0.145
2021-08-19 22:15:10.100,-0.275,-0.13
2021-08-19 22:15:10.104,-0.3,-0.145
2021-08-19 22:15:10.108,-0.27,-0.14
2021-08-19 22:15:10.112,-0.265,-0.145
2021-08-19 22:15:10.116,-0.25,-0.14
2021-08-19 22:15:10.120,-0.255,-0.135
2021-08-19 22:15:10.124,-0.25,-0.13
2021-08-19 22:15:10.128,-0.21,-0.145
2021-08-19 22:15:10.132,-0.175,-0.14
2021-08-19 22:15:10.136,-0.12,-0.145
2021-08-19 22:15:10.140,-0.03,-0.155
2021-08-19 22:15:10.144,0.035,-0.165
2021-08-19 22:15:10.148,0.115,-0.185
2021-08-19 22:15:10.152,0.155,-0.215
2021-08-19 22:15:10.156,0.205,-0.26
2021-08-19 22:15:10.160,0.25,-0.32
2021-08-19 22:15:10.164,0.26,-0.33
2021-08-19 22:15:10.168,0.265,-0.36
2021-08-19 22:15:10.172,0.26,-0.485
2021-08-19 22:15:10.176,0.38,-0.64
2021-08-19 22:15:10.180,0.61,-0.815
2021-08-19 22:15:10.184,0.92,-1.045
2021-08-19 22:15:10.188,1.15,-1.27
2021-08-19 22:15:10.192,1.055,-1.42
2021-08-19 22:15:10.196,0.68,-1.37
2021-08-19 22:15:10.200,0.19,-1.065
2021-08-19 22:15:10.204,-0.12,-0.655
2021-08-19 22:15:10.208,-0.275,-0.44
2021-08-19 22:15:10.212,-0.34,-0.3
2021-08-19 22:15:10.216,-0.38,-0.185
2021-08-19 22:15:10.220,-0.375,-0.09
2021-08-19 22:15:10.224,-0.41,-0.045
2021-08-19 22:15:10.228,-0.43,-0.04
2021-08-19 22:15:10.232,-0.425,-0.03
2021-08-19 22:15:10.236,-0.435,-0.04
2021-08-19 22:15:10.240,-0.435,-0.06
2021-08-19 22:15:10.244,-0.425,-0.065
2021-08-19 22:15:10.248,-0.445,-0.045
2021-08-19 22:15:10.252,-0.44,-0.055
2021-08-19 22:15:10.256,-0.425,-0.085
2021-08-19 22:15:10.260,-0.435,-0.06
2021-08-19 22:15:10.264,-0.445,-0.065
2021-08-19 22:15:10.268,-0.46,-0.065
2021-08-19 22:15:10.272,-0.45,-0.065
2021-08-19 22:15:10.276,-0.445,-0.065
2021-08-19 22:15:10.280,-0.465,-0.065
2021-08-19 22:15:10.284,-0.475,-0.075
2021-08-19 22:15:10.288,-0.48,-0.07
2021-08-19 22:15:10.292,-0.475,-0.06
2021-08-19 22:15:10.296,-0.485,-0.085
2021-08-19 22:15:10.300,-0.495,-0.085
2021-08-19 22:15:10.304,-0.485,-0.085
2021-08-19 22:15:10.308,-0.5,-0.105
2021-08-19 22:15:10.312,-0.5,-0.105
2021-08-19 22:15:10.316,-0.51,-0.06
2021-08-19 22:15:10.320,-0.49,-0.085
2021-08-19 22:15:10.324,-0.52,-0.055
2021-08-19 22:15:10.328,-0.52,-0.105
2021-08-19 22:15:10.332,-0.535,-0.095
2021-08-19 22:15:10.336,-0.515,-0.07
2021-08-19 22:15:10.340,-0.515,-0.06
2021-08-19 22:15:10.344,-0.495,-0.055
2021-08-19 22:15:10.348,-0.505,-0.05
2021-08-19 22:15:10.352,-0.505,-0.07
2021-08-19 22:15:10.356,-0.49,-0.055
2021-08-19 22:15:10.360,-0.49,-0.035
2021-08-19 22:15:10.364,-0.505,-0.03
2021-08-19 22:15:10.368,-0.49,-0.035
2021-08-19 22:15:10.372,-0.47,-0.055
2021-08-19 22:15:10.376,-0.475,-0.055
2021-08-19 22:15:10.380,-0.485,-0.045
2021-08-19 22:15:10.384,-0.47,-0.045
2021-08-19 22:15:10.388,-0.455,-0.085
2021-08-19 22:15:10.392,-0.46,-0.05
2021-08-19 22:15:10.396,-0.465,-0.06
2021-08-19 22:15:10.400,-0.45,-0.075
2021-08-19 22:15:10.404,-0.43,-0.075
2021-08-19 22:15:10.408,-0.42,-0.1
2021-08-19 22:15:10.412,-0.4,-0.1
2021-08-19 22:15:10.416,-0.39,-0.125
2021-08-19 22:15:10.420,-0.375,-0.145
2021-08-19 22:15:10.424,-0.37,-0.16
2021-08-19 22:15:10.428,-0.36,-0.175
2021-08-19 22:15:10.432,-0.355,-0.175
2021-08-19 22:15:10.436,-0.345,-0.175
2021-08-19 22:15:10.440,-0.335,-0.15
2021-08-19 22:15:10.444,-0.32,-0.17
2021-08-19 22:15:10.448,-0.305,-0.17
2021-08-19 22:15:10.452,-0.29,-0.195
2021-08-19 22:15:10.456,-0.275,-0.205
2021-08-19 22:15:10.460,-0.285,-0.17
2021-08-19 22:15:10.464,-0.275,-0.19
2021-08-19 22:15:10.468,-0.28,-0.175
2021-08-19 22:15:10.472,-0.27,-0.16
2021-08-19 22:15:10.476,-0.265,-0.175
2021-08-19 22:15:10.480,-0.25,-0.17
2021-08-19 22:15:10.484,-0.26,-0.16
2021-08-19 22:15:10.488,-0.25,-0.165
2021-08-19 22:15:10.492,-0.265,-0.16
2021-08-19 22:15:10.496,-0.265,-0.16
2021-08-19 22:15:10.500,-0.235,-0.14
2021-08-19 22:15:10.504,-0.255,-0.155
2021-08-19 22:15:10.508,-0.265,-0.15
2021-08-19 22:15:10.512,-0.275,-0.14
2021-08-19 22:15:10.516,-0.26,-0.16
2021-08-19 22:15:10.520,-0.28,-0.16
2021-08-19 22:15:10.524,-0.27,-0.145
2021-08-19 22:15:10.528,-0.27,-0.145
2021-08-19 22:15:10.532,-0.28,-0.135
2021-08-19 22:15:10.536,-0.265,-0.13
2021-08-19 22:15:10.540,-0.285,-0.155
2021-08-19 22:15:10.544,-0.3,-0.135
2021-08-19 22:15:10.548,-0.285,-0.135
2021-08-19 22:15:10.552,-0.285,-0.155
2021-08-19 22:15:10.556,-0.28,-0.15
2021-08-19 22:15:10.560,-0.275,-0.115
2021-08-19 22:15:10.564,-0.26,-0.145
2021-08-19 22:15:10.568,-0.215,-0.14
2021-08-19 22:15:10.572,-0.22,-0.13
2021-08-19 22:15:10.576,-0.205,-0.1
2021-08-19 22:15:10.580,-0.195,-0.135
2021-08-19 22:15:10.584,-0.19,-0.12
2021-08-19 22:15:10.588,-0.155,-0.1
2021-08-19 22:15:10.592,-0.105,-0.08
2021-08-19 22:15:10.596,-0.065,-0.11
2021-08-19 22:15:10.600,-0.04,-0.08
2021-08-19 22:15:10.604,-0.01,-0.1
2021-08-19 22:15:10.608,0.0,-0.095
2021-08-19 22:15:10.612,0.01,-0.09
2021-08-19 22:15:10.616,0.035,-0.08
2021-08-19 22:15:10.620,0.02,-0.08
2021-08-19 22:15:10.624,-0.005,-0.105
2021-08-19 22:15:10.628,-0.06,-0.145
2021-08-19 22:15:10.632,-0.09,-0.17
2021-08-19 22:15:10.636,-0.15,-0.205
2021-08-19 22:15:10.640,-0.195,-0.19
2021-08-19 22:15:10.644,-0.24,-0.185
2021-08-19 22:15:10.648,-0.295,-0.17
2021-08-19 22:15:10.652,-0.32,-0.175
2021-08-19 22:15:10.656,-0.35,-0.145
2021-08-19 22:15:10.660,-0.375,-0.12
2021-08-19 22:15:10.664,-0.365,-0.16
2021-08-19 22:15:10.668,-0.355,-0.155
2021-08-19 22:15:10.672,-0.34,-0.125
2021-08-19 22:15:10.676,-0.34,-0.16
2021-08-19 22:15:10.680,-0.335,-0.185
2021-08-19 22:15:10.684,-0.325,-0.155
2021-08-19 22:15:10.688,-0.325,-0.145
2021-08-19 22:15:10.692,-0.305,-0.145
2021-08-19 22:15:10.696,-0.315,-0.14
2021-08-19 22:15:10.700,-0.305,-0.145
2021-08-19 22:15:10.704,-0.31,-0.145
2021-08-19 22:15:10.708,-0.3,-0.14
2021-08-19 22:15:10.712,-0.285,-0.155
2021-08-19 22:15:10.716,-0.295,-0.155
2021-08-19 22:15:10.720,-0.295,-0.125
2021-08-19 22:15:10.724,-0.315,-0.14
2021-08-19 22:15:10.728,-0.31,-0.155
2021-08-19 22:15:10.732,-0.31,-0.165
2021-08-19 22:15:10.736,-0.315,-0.165
2021-08-19 22:15:10.740,-0.31,-0.135
2021-08-19 22:15:10.744,-0.3,-0.16
2021-08-19 22:15:10.748,-0.295,-0.155
2021-08-19 22:15:10.752,-0.29,-0.155
2021-08-19 22:15:10.756,-0.285,-0.17
2021-08-19 22:15:10.760,-0.275,-0.17
2021-08-19 22:15:10.764,-0.24,-0.175
2021-08-19 22:15:10.768,-0.17,-0.175
2021-08-19 22:15:10.772,-0.13,-0.145
2021-08-19 22:15:10.776,-0.01,-0.185
2021-08-19 22:15:10.780,0.08,-0.205
2021-08-19 22:15:10.784,0.14,-0.235
2021-08-19 22:15:10.788,0.19,-0.265
2021-08-19 22:15:10.792,0.205,-0.33
2021-08-19 22:15:10.796,0.245,-0.35
2021-08-19 22:15:10.800,0.235,-0.385
2021-08-19 22:15:10.804,0.215,-0.465
2021-08-19 22:15:10.808,0.3,-0.58
2021-08-19 22:15:10.812,0.525,-0.75
2021-08-19 22:15:10.816,0.85,-1.005
2021-08-19 22:15:10.820,1.06,-1.24
2021-08-19 22:15:10.824,1.105,-1.42
2021-08-19 22:15:10.828,0.85,-1.45
2021-08-19 22:15:10.832,0.375,-1.215
2021-08-19 22:15:10.836,-0.05,-0.81
2021-08-19 22:15:10.840,-0.26,-0.475
2021-08-19 22:15:10.844,-0.355,-0.3
2021-08-19 22:15:10.848,-0.375,-0.18
2021-08-19 22:15:10.852,-0.405,-0.105
2021-08-19 22:15:10.856,-0.4,-0.04
2021-08-19 22:15:10.860,-0.41,-0.005
2021-08-19 22:15:10.864,-0.43,-0.005
2021-08-19 22:15:10.868,-0.435,-0.025
2021-08-19 22:15:10.872,-0.425,-0.04
2021-08-19 22:15:10.876,-0.45,-0.04
2021-08-19 22:15:10.880,-0.43,-0.055
2021-08-19 22:15:10.884,-0.47,-0.055
2021-08-19 22:15:10.888,-0.45,-0.045
2021-08-19 22:15:10.892,-0.44,-0.065
2021-08-19 22:15:10.896,-0.435,-0.055
2021-08-19 22:15:10.900,-0.41,-0.055
2021-08-19 22:15:10.904,-0.415,-0.05
2021-08-19 22:15:10.908,-0.405,-0.05
2021-08-19 22:15:10.912,-0.4,-0.04
2021-08-19 22:15:10.916,-0.415,-0.025
2021-08-19 22:15:10.920,-0.42,-0.045
2021-08-19 22:15:10.924,-0.42,-0.03
2021-08-19 22:15:10.928,-0.425,-0.04
2021-08-19 22:15:10.932,-0.435,-0.025
2021-08-19 22:15:10.936,-0.455,-0.03
2021-08-19 22:15:10.940,-0.44,-0.035
2021-08-19 22:15:10.944,-0.45,-0.03
2021-08-19 22:15:10.948,-0.44,-0.045
2021-08-19 22:15:10.952,-0.465,-0.045
2021-08-19 22:15:10.956,-0.48,-0.055
2021-08-19 22:15:10.960,-0.465,-0.06
2021-08-19 22:15:10.964,-0.49,-0.03
2021-08-19 22:15:10.968,-0.49,-0.03
2021-08-19 22:15:10.972,-0.48,-0.04
2021-08-19 22:15:10.976,-0.47,-0.05
2021-08-19 22:15:10.980,-0.48,-0.055
2021-08-19 22:15:10.984,-0.475,-0.045
2021-08-19 22:15:10.988,-0.465,-0.045
2021-08-19 22:15:10.992,-0.485,-0.03
2021-08-19 22:15:10.996,-0.46,-0.02
2021-08-19 22:15:11.000,-0.46,-0.03
2021-08-19 22:15:11.004,-0.455,-0.025
2021-08-19 22:15:11.008,-0.435,-0.045
2021-08-19 22:15:11.012,-0.43,-0.07
2021-08-19 22:15:11.016,-0.42,-0.04
2021-08-19 22:15:11.020,-0.43,-0.04
2021-08-19 22:15:11.024,-0.4,-0.03
2021-08-19 22:15:11.028,-0.385,-0.055
2021-08-19 22:15:11.032,-0.375,-0.07
2021-08-19 22:15:11.036,-0.38,-0.06
2021-08-19 22:15:11.040,-0.355,-0.1
2021-08-19 22:15:11.044,-0.355,-0.09
2021-08-19 22:15:11.048,-0.34,-0.085
2021-08-19 22:15:11.052,-0.355,-0.095
2021-08-19 22:15:11.056,-0.325,-0.11
2021-08-19 22:15:11.060,-0.31,-0.12
2021-08-19 22:15:11.064,-0.31,-0.12
2021-08-19 22:15:11.068,-0.315,-0.135
2021-08-19 22:15:11.072,-0.295,-0.155
2021-08-19 22:15:11.076,-0.305,-0.165
2021-08-19 22:15:11.080,-0.27,-0.16
2021-08-19 22:15:11.084,-0.275,-0.16
2021-08-19 22:15:11.088,-0.26,-0.17
2021-08-19 22:15:11.092,-0.255,-0.175
2021-08-19 22:15:11.096,-0.25,-0.17
2021-08-19 22:15:11.100,-0.26,-0.185
2021-08-19 22:15:11.104,-0.225,-0.175
2021-08-19 22:15:11.108,-0.235,-0.175
2021-08-19 22:15:11.112,-0.24,-0.18
2021-08-19 22:15:11.116,-0.23,-0.155
2021-08-19 22:15:11.120,-0.22,-0.155
2021-08-19 22:15:11.124,-0.2,-0.165
2021-08-19 22:15:11.128,-0.205,-0.16
2021-08-19 22:15:11.132,-0.19,-0.16
2021-08-19 22:15:11.136,-0.195,-0.16
2021-08-19 22:15:11.140,-0.2,-0.13
2021-08-19 22:15:11.144,-0.21,-0.15
2021-08-19 22:15:11.148,-0.19,-0.13
2021-08-19 22:15:11.152,-0.205,-0.12
2021-08-19 22:15:11.156,-0.205,-0.14
2021-08-19 22:15:11.160,-0.2,-0.135
2021-08-19 22:15:11.164,-0.21,-0.11
2021-08-19 22:15:11.168,-0.2,-0.14
2021-08-19 22:15:11.172,-0.21,-0.135
2021-08-19 22:15:11.176,-0.21,-0.105
2021-08-19 22:15:11.180,-0.22,-0.14
2021-08-19 22:15:11.184,-0.19,-0.11
2021-08-19 22:15:11.188,-0.19,-0.12
2021-08-19 22:15:11.192,-0.185,-0.13
2021-08-19 22:15:11.196,-0.17,-0.145
2021-08-19 22:15:11.200,-0.145,-0.11
2021-08-19 22:15:11.204,-0.115,-0.135
