Time,ECG1,ECG2
2021-08-19 19:35:41.820,-0.35,0.075
2021-08-19 19:35:41.824,-0.355,0.075
2021-08-19 19:35:41.828,-0.345,0.08
2021-08-19 19:35:41.832,-0.34,0.065
2021-08-19 19:35:41.836,-0.34,0.085
2021-08-19 19:35:41.840,-0.345,0.07
2021-08-19 19:35:41.844,-0.36,0.06
2021-08-19 19:35:41.848,-0.355,0.06
2021-08-19 19:35:41.852,-0.36,0.03
2021-08-19 19:35:41.856,-0.36,0.07
2021-08-19 19:35:41.860,-0.34,0.08
2021-08-19 19:35:41.864,-0.34,0.07
2021-08-19 19:35:41.868,-0.33,0.055
2021-08-19 19:35:41.872,-0.325,0.06
2021-08-19 19:35:41.876,-0.32,0.09
2021-08-19 19:35:41.880,-0.325,0.065
2021-08-19 19:35:41.884,-0.335,0.08
2021-08-19 19:35:41.888,-0.325,0.075
2021-08-19 19:35:41.892,-0.34,0.09
2021-08-19 19:35:41.896,-0.335,0.065
2021-08-19 19:35:41.900,-0.325,0.095
2021-08-19 19:35:41.904,-0.34,0.075
2021-08-19 19:35:41.908,-0.335,0.075
2021-08-19 19:35:41.912,-0.32,0.085
2021-08-19 19:35:41.916,-0.34,0.085
2021-08-19 19:35:41.920,-0.34,0.085
2021-08-19 19:35:41.924,-0.375,0.075
2021-08-19 19:35:41.928,-0.365,0.08
2021-08-19 19:35:41.932,-0.365,0.08
2021-08-19 19:35:41.936,-0.36,0.045
2021-08-19 19:35:41.940,-0.325,0.085
2021-08-19 19:35:41.944,-0.32,0.075
2021-08-19 19:35:41.948,-0.295,0.095
2021-08-19 19:35:41.952,-0.29,0.075
2021-08-19 19:35:41.956,-0.295,0.09
2021-08-19 19:35:41.960,-0.275,0.06
2021-08-19 19:35:41.964,-0.255,0.06
2021-08-19 19:35:41.968,-0.265,0.08
2021-08-19 19:35:41.972,-0.225,0.09
2021-08-19 19:35:41.976,-0.19,0.135
2021-08-19 19:35:41.980,-0.16,0.125
2021-08-19 19:35:41.984,-0.125,0.135
2021-08-19 19:35:41.988,-0.125,0.15
2021-08-19 19:35:41.992,-0.08,0.13
2021-08-19 19:35:41.996,-0.06,0.145
2021-08-19 19:35:42.000,-0.065,0.15
2021-08-19 19:35:42.004,-0.045,0.135
2021-08-19 19:35:42.008,-0.065,0.12
2021-08-19 19:35:42.012,-0.08,0.11
2021-08-19 19:35:42.016,-0.135,0.1
2021-08-19 19:35:42.020,-0.18,0.075
2021-08-19 19:35:42.024,-0.225,0.07
2021-08-19 19:35:42.028,-0.28,0.06
2021-08-19 19:35:42.032,-0.32,0.06
2021-08-19 19:35:42.036,-0.36,0.055
2021-08-19 19:35:42.040,-0.4,0.075
2021-08-19 19:35:42.044,-0.435,0.095
2021-08-19 19:35:42.048,-0.445,0.095
2021-08-19 19:35:42.052,-0.43,0.11
2021-08-19 19:35:42.056,-0.43,0.115
2021-08-19 19:35:42.060,-0.43,0.08
2021-08-19 19:35:42.064,-0.425,0.095
2021-08-19 19:35:42.068,-0.44,0.08
2021-08-19 19:35:42.072,-0.435,0.075
2021-08-19 19:35:42.076,-0.42,0.06
2021-08-19 19:35:42.080,-0.42,0.045
2021-08-19 19:35:42.084,-0.415,0.045
2021-08-19 19:35:42.088,-0.43,0.06
2021-08-19 19:35:42.092,-0.435,0.07
2021-08-19 19:35:42.096,-0.41,0.055
2021-08-19 19:35:42.100,-0.39,0.065
2021-08-19 19:35:42.104,-0.39,0.065
2021-08-19 19:35:42.108,-0.4,0.06
2021-08-19 19:35:42.112,-0.38,0.06
2021-08-19 19:35:42.116,-0.39,0.06
2021-08-19 19:35:42.120,-0.375,0.065
2021-08-19 19:35:42.124,-0.375,0.055
2021-08-19 19:35:42.128,-0.38,0.05
2021-08-19 19:35:42.132,-0.395,0.055
2021-08-19 19:35:42.136,-0.39,0.04
2021-08-19 19:35:42.140,-0.375,0.05
2021-08-19 19:35:42.144,-0.385,0.045
2021-08-19 19:35:42.148,-0.375,0.05
2021-08-19 19:35:42.152,-0.34,0.045
2021-08-19 19:35:42.156,-0.32,0.055
2021-08-19 19:35:42.160,-0.27,0.055
2021-08-19 19:35:42.164,-0.2,0.05
2021-08-19 19:35:42.168,-0.13,0.025
2021-08-19 19:35:42.172,-0.045,0.01
2021-08-19 19:35:42.176,0.0,-0.01
2021-08-19 19:35:42.180,0.02,-0.05
2021-08-19 19:35:42.184,0.055,-0.12
2021-08-19 19:35:42.188,0.03,-0.13
2021-08-19 19:35:42.192,0.01,-0.185
2021-08-19 19:35:42.196,-0.01,-0.27
2021-08-19 19:35:42.200,0.055,-0.38
2021-08-19 19:35:42.204,0.275,-0.55
2021-08-19 19:35:42.208,0.615,-0.78
2021-08-19 19:35:42.212,0.885,-1.04
2021-08-19 19:35:42.216,1.01,-1.25
2021-08-19 19:35:42.220,0.91,-1.34
2021-08-19 19:35:42.224,0.505,-1.195
2021-08-19 19:35:42.228,0.075,-0.78
2021-08-19 19:35:42.232,-0.22,-0.38
2021-08-19 19:35:42.236,-0.39,-0.115
2021-08-19 19:35:42.240,-0.435,0.025
2021-08-19 19:35:42.244,-0.455,0.105
2021-08-19 19:35:42.248,-0.495,0.16
2021-08-19 19:35:42.252,-0.515,0.17
2021-08-19 19:35:42.256,-0.53,0.19
2021-08-19 19:35:42.260,-0.535,0.205
2021-08-19 19:35:42.264,-0.535,0.21
2021-08-19 19:35:42.268,-0.53,0.195
2021-08-19 19:35:42.272,-0.56,0.175
2021-08-19 19:35:42.276,-0.54,0.16
2021-08-19 19:35:42.280,-0.56,0.14
2021-08-19 19:35:42.284,-0.575,0.135
2021-08-19 19:35:42.288,-0.555,0.145
2021-08-19 19:35:42.292,-0.57,0.145
2021-08-19 19:35:42.296,-0.565,0.145
2021-08-19 19:35:42.300,-0.57,0.14
2021-08-19 19:35:42.304,-0.585,0.115
2021-08-19 19:35:42.308,-0.575,0.12
2021-08-19 19:35:42.312,-0.585,0.115
2021-08-19 19:35:42.316,-0.58,0.125
2021-08-19 19:35:42.320,-0.585,0.115
2021-08-19 19:35:42.324,-0.585,0.115
2021-08-19 19:35:42.328,-0.6,0.125
2021-08-19 19:35:42.332,-0.595,0.12
2021-08-19 19:35:42.336,-0.61,0.13
2021-08-19 19:35:42.340,-0.595,0.125
2021-08-19 19:35:42.344,-0.585,0.135
2021-08-19 19:35:42.348,-0.565,0.125
2021-08-19 19:35:42.352,-0.555,0.125
2021-08-19 19:35:42.356,-0.575,0.115
2021-08-19 19:35:42.360,-0.575,0.125
2021-08-19 19:35:42.364,-0.58,0.135
2021-08-19 19:35:42.368,-0.57,0.13
2021-08-19 19:35:42.372,-0.59,0.135
2021-08-19 19:35:42.376,-0.585,0.125
2021-08-19 19:35:42.380,-0.575,0.14
2021-08-19 19:35:42.384,-0.56,0.13
2021-08-19 19:35:42.388,-0.555,0.135
2021-08-19 19:35:42.392,-0.56,0.12
2021-08-19 19:35:42.396,-0.545,0.11
2021-08-19 19:35:42.400,-0.555,0.125
2021-08-19 19:35:42.404,-0.575,0.125
2021-08-19 19:35:42.408,-0.55,0.125
2021-08-19 19:35:42.412,-0.555,0.11
2021-08-19 19:35:42.416,-0.54,0.115
2021-08-19 19:35:42.420,-0.52,0.09
2021-08-19 19:35:42.424,-0.5,0.105
2021-08-19 19:35:42.428,-0.53,0.08
2021-08-19 19:35:42.432,-0.525,0.07
2021-08-19 19:35:42.436,-0.5,0.045
2021-08-19 19:35:42.440,-0.495,0.075
2021-08-19 19:35:42.444,-0.495,0.035
2021-08-19 19:35:42.448,-0.48,0.055
2021-08-19 19:35:42.452,-0.48,0.045
2021-08-19 19:35:42.456,-0.46,0.035
2021-08-19 19:35:42.460,-0.445,0.035
2021-08-19 19:35:42.464,-0.44,0.045
2021-08-19 19:35:42.468,-0.425,0.045
2021-08-19 19:35:42.472,-0.4,0.03
2021-08-19 19:35:42.476,-0.39,0.02
2021-08-19 19:35:42.480,-0.4,0.015
2021-08-19 19:35:42.484,-0.38,0.02
2021-08-19 19:35:42.488,-0.37,0.035
2021-08-19 19:35:42.492,-0.375,0.015
2021-08-19 19:35:42.496,-0.36,0.04
2021-08-19 19:35:42.500,-0.355,0.035
2021-08-19 19:35:42.504,-0.365,0.055
2021-08-19 19:35:42.508,-0.35,0.05
2021-08-19 19:35:42.512,-0.33,0.04
2021-08-19 19:35:42.516,-0.355,0.055
2021-08-19 19:35:42.520,-0.355,0.05
2021-08-19 19:35:42.524,-0.375,0.055
2021-08-19 19:35:42.528,-0.36,0.035
2021-08-19 19:35:42.532,-0.36,0.07
2021-08-19 19:35:42.536,-0.355,0.06
2021-08-19 19:35:42.540,-0.35,0.06
2021-08-19 19:35:42.544,-0.355,0.05
2021-08-19 19:35:42.548,-0.35,0.07
2021-08-19 19:35:42.552,-0.335,0.065
2021-08-19 19:35:42.556,-0.34,0.08
2021-08-19 19:35:42.560,-0.345,0.06
2021-08-19 19:35:42.564,-0.33,0.06
2021-08-19 19:35:42.568,-0.335,0.08
2021-08-19 19:35:42.572,-0.32,0.095
2021-08-19 19:35:42.576,-0.32,0.075
2021-08-19 19:35:42.580,-0.295,0.08
2021-08-19 19:35:42.584,-0.265,0.085
2021-08-19 19:35:42.588,-0.255,0.095
2021-08-19 19:35:42.592,-0.255,0.095
2021-08-19 19:35:42.596,-0.255,0.1
2021-08-19 19:35:42.600,-0.24,0.1
2021-08-19 19:35:42.604,-0.22,0.105
2021-08-19 19:35:42.608,-0.215,0.13
2021-08-19 19:35:42.612,-0.165,0.125
2021-08-19 19:35:42.616,-0.14,0.155
2021-08-19 19:35:42.620,-0.13,0.175
2021-08-19 19:35:42.624,-0.115,0.155
2021-08-19 19:35:42.628,-0.08,0.14
2021-08-19 19:35:42.632,-0.065,0.165
2021-08-19 19:35:42.636,-0.06,0.175
2021-08-19 19:35:42.640,-0.05,0.15
2021-08-19 19:35:42.644,-0.075,0.13
2021-08-19 19:35:42.648,-0.08,0.11
2021-08-19 19:35:42.652,-0.13,0.065
2021-08-19 19:35:42.656,-0.175,0.05
2021-08-19 19:35:42.660,-0.245,0.045
2021-08-19 19:35:42.664,-0.295,0.03
2021-08-19 19:35:42.668,-0.34,0.055
2021-08-19 19:35:42.672,-0.38,0.06
2021-08-19 19:35:42.676,-0.405,0.06
2021-08-19 19:35:42.680,-0.405,0.075
2021-08-19 19:35:42.684,-0.42,0.08
2021-08-19 19:35:42.688,-0.435,0.085
2021-08-19 19:35:42.692,-0.415,0.075
2021-08-19 19:35:42.696,-0.415,0.105
2021-08-19 19:35:42.700,-0.405,0.07
2021-08-19 19:35:42.704,-0.39,0.07
2021-08-19 19:35:42.708,-0.39,0.05
2021-08-19 19:35:42.712,-0.365,0.075
2021-08-19 19:35:42.716,-0.37,0.075
2021-08-19 19:35:42.720,-0.365,0.075
2021-08-19 19:35:42.724,-0.355,0.095
2021-08-19 19:35:42.728,-0.36,0.07
2021-08-19 19:35:42.732,-0.335,0.075
2021-08-19 19:35:42.736,-0.355,0.065
2021-08-19 19:35:42.740,-0.355,0.06
2021-08-19 19:35:42.744,-0.355,0.065
2021-08-19 19:35:42.748,-0.355,0.065
2021-08-19 19:35:42.752,-0.35,0.05
2021-08-19 19:35:42.756,-0.34,0.06
2021-08-19 19:35:42.760,-0.345,0.07
2021-08-19 19:35:42.764,-0.35,0.05
2021-08-19 19:35:42.768,-0.36,0.04
2021-08-19 19:35:42.772,-0.335,0.035
2021-08-19 19:35:42.776,-0.335,0.05
2021-08-19 19:35:42.780,-0.32,0.04
2021-08-19 19:35:42.784,-0.32,0.02
2021-08-19 19:35:42.788,-0.32,0.035
2021-08-19 19:35:42.792,-0.275,0.025
2021-08-19 19:35:42.796,-0.245,0.02
2021-08-19 19:35:42.800,-0.175,0.005
2021-08-19 19:35:42.804,-0.095,0.015
2021-08-19 19:35:42.808,-0.025,0.0
2021-08-19 19:35:42.812,0.07,-0.015
2021-08-19 19:35:42.816,0.145,-0.035
2021-08-19 19:35:42.820,0.18,-0.085
2021-08-19 19:35:42.824,0.21,-0.135
2021-08-19 19:35:42.828,0.21,-0.16
2021-08-19 19:35:42.832,0.165,-0.2
2021-08-19 19:35:42.836,0.15,-0.295
2021-08-19 19:35:42.840,0.265,-0.39
2021-08-19 19:35:42.844,0.52,-0.605
2021-08-19 19:35:42.848,0.845,-0.855
2021-08-19 19:35:42.852,1.045,-1.09
2021-08-19 19:35:42.856,1.0,-1.295
2021-08-19 19:35:42.860,0.695,-1.315
2021-08-19 19:35:42.864,0.27,-1.035
2021-08-19 19:35:42.868,-0.08,-0.62
2021-08-19 19:35:42.872,-0.23,-0.29
2021-08-19 19:35:42.876,-0.3,-0.11
2021-08-19 19:35:42.880,-0.34,0.0
2021-08-19 19:35:42.884,-0.35,0.075
2021-08-19 19:35:42.888,-0.395,0.145
2021-08-19 19:35:42.892,-0.415,0.135
2021-08-19 19:35:42.896,-0.4,0.13
2021-08-19 19:35:42.900,-0.42,0.135
2021-08-19 19:35:42.904,-0.44,0.105
2021-08-19 19:35:42.908,-0.46,0.115
2021-08-19 19:35:42.912,-0.445,0.08
2021-08-19 19:35:42.916,-0.445,0.085
2021-08-19 19:35:42.920,-0.45,0.08
2021-08-19 19:35:42.924,-0.45,0.1
2021-08-19 19:35:42.928,-0.46,0.08
2021-08-19 19:35:42.932,-0.475,0.075
2021-08-19 19:35:42.936,-0.465,0.105
2021-08-19 19:35:42.940,-0.455,0.1
2021-08-19 19:35:42.944,-0.44,0.085
2021-08-19 19:35:42.948,-0.44,0.08
2021-08-19 19:35:42.952,-0.43,0.1
2021-08-19 19:35:42.956,-0.435,0.1
2021-08-19 19:35:42.960,-0.435,0.085
2021-08-19 19:35:42.964,-0.45,0.09
2021-08-19 19:35:42.968,-0.455,0.09
2021-08-19 19:35:42.972,-0.475,0.095
2021-08-19 19:35:42.976,-0.475,0.09
2021-08-19 19:35:42.980,-0.46,0.1
2021-08-19 19:35:42.984,-0.48,0.09
2021-08-19 19:35:42.988,-0.44,0.095
2021-08-19 19:35:42.992,-0.455,0.105
2021-08-19 19:35:42.996,-0.455,0.075
2021-08-19 19:35:43.000,-0.465,0.075
2021-08-19 19:35:43.004,-0.455,0.105
2021-08-19 19:35:43.008,-0.44,0.065
2021-08-19 19:35:43.012,-0.445,0.055
2021-08-19 19:35:43.016,-0.435,0.08
2021-08-19 19:35:43.020,-0.43,0.045
2021-08-19 19:35:43.024,-0.435,0.055
2021-08-19 19:35:43.028,-0.44,0.045
2021-08-19 19:35:43.032,-0.405,0.07
2021-08-19 19:35:43.036,-0.425,0.065
2021-08-19 19:35:43.040,-0.41,0.055
2021-08-19 19:35:43.044,-0.405,0.04
2021-08-19 19:35:43.048,-0.4,0.055
2021-08-19 19:35:43.052,-0.375,0.04
2021-08-19 19:35:43.056,-0.33,0.065
2021-08-19 19:35:43.060,-0.345,0.06
2021-08-19 19:35:43.064,-0.345,0.045
2021-08-19 19:35:43.068,-0.315,0.025
2021-08-19 19:35:43.072,-0.325,0.015
2021-08-19 19:35:43.076,-0.29,0.02
2021-08-19 19:35:43.080,-0.285,0.015
2021-08-19 19:35:43.084,-0.285,0.0
2021-08-19 19:35:43.088,-0.27,-0.005
2021-08-19 19:35:43.092,-0.265,-0.015
2021-08-19 19:35:43.096,-0.255,-0.025
2021-08-19 19:35:43.100,-0.235,-0.025
2021-08-19 19:35:43.104,-0.22,-0.03
2021-08-19 19:35:43.108,-0.225,-0.035
2021-08-19 19:35:43.112,-0.22,-0.05
2021-08-19 19:35:43.116,-0.23,-0.055
2021-08-19 19:35:43.120,-0.21,-0.065
2021-08-19 19:35:43.124,-0.2,-0.075
2021-08-19 19:35:43.128,-0.19,-0.05
2021-08-19 19:35:43.132,-0.2,-0.055
2021-08-19 19:35:43.136,-0.2,-0.06
2021-08-19 19:35:43.140,-0.185,-0.075
2021-08-19 19:35:43.144,-0.185,-0.055
2021-08-19 19:35:43.148,-0.18,-0.055
2021-08-19 19:35:43.152,-0.185,-0.06
2021-08-19 19:35:43.156,-0.185,-0.055
2021-08-19 19:35:43.160,-0.19,-0.025
2021-08-19 19:35:43.164,-0.175,-0.035
2021-08-19 19:35:43.168,-0.16,-0.035
2021-08-19 19:35:43.172,-0.165,-0.03
2021-08-19 19:35:43.176,-0.155,-0.04
2021-08-19 19:35:43.180,-0.17,-0.02
2021-08-19 19:35:43.184,-0.155,-0.03
2021-08-19 19:35:43.188,-0.16,-0.02
2021-08-19 19:35:43.192,-0.175,-0.02
2021-08-19 19:35:43.196,-0.15,-0.02
2021-08-19 19:35:43.200,-0.16,-0.02
2021-08-19 19:35:43.204,-0.17,0.0
2021-08-19 19:35:43.208,-0.17,0.0
2021-08-19 19:35:43.212,-0.2,0.0
2021-08-19 19:35:43.216,-0.17,0.015
2021-08-19 19:35:43.220,-0.17,-0.005
2021-08-19 19:35:43.224,-0.165,0.0
2021-08-19 19:35:43.228,-0.17,-0.005
2021-08-19 19:35:43.232,-0.175,-0.025
2021-08-19 19:35:43.236,-0.17,-0.015
2021-08-19 19:35:43.240,-0.18,-0.015
2021-08-19 19:35:43.244,-0.17,-0.015
2021-08-19 19:35:43.248,-0.155,-0.025
2021-08-19 19:35:43.252,-0.135,-0.02
2021-08-19 19:35:43.256,-0.12,-0.025
2021-08-19 19:35:43.260,-0.11,-0.01
2021-08-19 19:35:43.264,-0.12,-0.015
2021-08-19 19:35:43.268,-0.12,-0.01
2021-08-19 19:35:43.272,-0.105,-0.015
2021-08-19 19:35:43.276,-0.1,-0.03
2021-08-19 19:35:43.280,-0.095,-0.065
2021-08-19 19:35:43.284,-0.115,-0.08
2021-08-19 19:35:43.288,-0.145,-0.125
2021-08-19 19:35:43.292,-0.175,-0.13
2021-08-19 19:35:43.296,-0.2,-0.135
2021-08-19 19:35:43.300,-0.215,-0.105
2021-08-19 19:35:43.304,-0.235,-0.085
2021-08-19 19:35:43.308,-0.25,-0.07
2021-08-19 19:35:43.312,-0.245,-0.05
2021-08-19 19:35:43.316,-0.24,-0.015
2021-08-19 19:35:43.320,-0.23,-0.015
2021-08-19 19:35:43.324,-0.23,-0.01
2021-08-19 19:35:43.328,-0.22,-0.01
2021-08-19 19:35:43.332,-0.215,-0.015
2021-08-19 19:35:43.336,-0.23,-0.02
2021-08-19 19:35:43.340,-0.22,-0.01
2021-08-19 19:35:43.344,-0.235,-0.045
2021-08-19 19:35:43.348,-0.24,-0.05
2021-08-19 19:35:43.352,-0.26,-0.03
2021-08-19 19:35:43.356,-0.255,-0.05
2021-08-19 19:35:43.360,-0.265,-0.065
2021-08-19 19:35:43.364,-0.24,-0.035
2021-08-19 19:35:43.368,-0.25,-0.05
2021-08-19 19:35:43.372,-0.25,-0.04
2021-08-19 19:35:43.376,-0.245,-0.04
2021-08-19 19:35:43.380,-0.255,-0.045
2021-08-19 19:35:43.384,-0.265,-0.075
2021-08-19 19:35:43.388,-0.25,-0.055
2021-08-19 19:35:43.392,-0.24,-0.075
2021-08-19 19:35:43.396,-0.25,-0.05
2021-08-19 19:35:43.400,-0.23,-0.065
2021-08-19 19:35:43.404,-0.22,-0.055
2021-08-19 19:35:43.408,-0.185,-0.045
2021-08-19 19:35:43.412,-0.09,-0.06
2021-08-19 19:35:43.416,0.0,-0.055
2021-08-19 19:35:43.420,0.075,-0.065
2021-08-19 19:35:43.424,0.175,-0.09
2021-08-19 19:35:43.428,0.195,-0.135
2021-08-19 19:35:43.432,0.245,-0.205
2021-08-19 19:35:43.436,0.265,-0.235
2021-08-19 19:35:43.440,0.26,-0.26
2021-08-19 19:35:43.444,0.25,-0.34
2021-08-19 19:35:43.448,0.305,-0.46
2021-08-19 19:35:43.452,0.515,-0.585
2021-08-19 19:35:43.456,0.8,-0.815
2021-08-19 19:35:43.460,1.05,-1.07
2021-08-19 19:35:43.464,1.125,-1.275
2021-08-19 19:35:43.468,0.885,-1.35
2021-08-19 19:35:43.472,0.405,-1.18
2021-08-19 19:35:43.476,-0.015,-0.79
2021-08-19 19:35:43.480,-0.24,-0.445
2021-08-19 19:35:43.484,-0.34,-0.265
2021-08-19 19:35:43.488,-0.385,-0.145
2021-08-19 19:35:43.492,-0.405,-0.045
2021-08-19 19:35:43.496,-0.415,0.04
2021-08-19 19:35:43.500,-0.465,0.04
2021-08-19 19:35:43.504,-0.48,0.055
2021-08-19 19:35:43.508,-0.49,0.05
2021-08-19 19:35:43.512,-0.505,0.06
2021-08-19 19:35:43.516,-0.525,0.035
2021-08-19 19:35:43.520,-0.52,0.03
2021-08-19 19:35:43.524,-0.545,0.01
2021-08-19 19:35:43.528,-0.52,0.02
2021-08-19 19:35:43.532,-0.515,0.03
2021-08-19 19:35:43.536,-0.545,0.03
2021-08-19 19:35:43.540,-0.535,0.02
2021-08-19 19:35:43.544,-0.55,0.02
2021-08-19 19:35:43.548,-0.525,0.035
2021-08-19 19:35:43.552,-0.535,0.02
2021-08-19 19:35:43.556,-0.54,0.03
2021-08-19 19:35:43.560,-0.56,0.02
2021-08-19 19:35:43.564,-0.545,0.04
2021-08-19 19:35:43.568,-0.555,0.05
2021-08-19 19:35:43.572,-0.55,0.04
2021-08-19 19:35:43.576,-0.56,0.035
2021-08-19 19:35:43.580,-0.575,0.03
2021-08-19 19:35:43.584,-0.595,0.03
2021-08-19 19:35:43.588,-0.585,0.03
2021-08-19 19:35:43.592,-0.62,0.045
2021-08-19 19:35:43.596,-0.605,0.03
2021-08-19 19:35:43.600,-0.61,0.04
2021-08-19 19:35:43.604,-0.605,0.025
2021-08-19 19:35:43.608,-0.605,0.055
2021-08-19 19:35:43.612,-0.62,0.06
2021-08-19 19:35:43.616,-0.605,0.04
2021-08-19 19:35:43.620,-0.6,0.06
2021-08-19 19:35:43.624,-0.615,0.04
2021-08-19 19:35:43.628,-0.61,0.045
2021-08-19 19:35:43.632,-0.59,0.06
2021-08-19 19:35:43.636,-0.59,0.03
2021-08-19 19:35:43.640,-0.6,0.06
2021-08-19 19:35:43.644,-0.58,0.03
2021-08-19 19:35:43.648,-0.575,0.02
2021-08-19 19:35:43.652,-0.57,0.03
2021-08-19 19:35:43.656,-0.55,0.03
2021-08-19 19:35:43.660,-0.53,0.005
2021-08-19 19:35:43.664,-0.525,0.015
2021-08-19 19:35:43.668,-0.515,-0.01
2021-08-19 19:35:43.672,-0.51,-0.005
2021-08-19 19:35:43.676,-0.48,-0.01
2021-08-19 19:35:43.680,-0.48,-0.015
2021-08-19 19:35:43.684,-0.465,-0.025
2021-08-19 19:35:43.688,-0.465,-0.035
2021-08-19 19:35:43.692,-0.45,-0.03
2021-08-19 19:35:43.696,-0.445,-0.04
2021-08-19 19:35:43.700,-0.445,-0.03
2021-08-19 19:35:43.704,-0.405,-0.04
2021-08-19 19:35:43.708,-0.4,-0.045
2021-08-19 19:35:43.712,-0.425,-0.03
2021-08-19 19:35:43.716,-0.42,-0.05
2021-08-19 19:35:43.720,-0.41,-0.055
2021-08-19 19:35:43.724,-0.37,-0.04
2021-08-19 19:35:43.728,-0.365,-0.03
2021-08-19 19:35:43.732,-0.37,-0.045
2021-08-19 19:35:43.736,-0.375,-0.065
2021-08-19 19:35:43.740,-0.37,-0.04
2021-08-19 19:35:43.744,-0.365,-0.04
2021-08-19 19:35:43.748,-0.365,-0.04
2021-08-19 19:35:43.752,-0.385,-0.03
2021-08-19 19:35:43.756,-0.375,-0.02
2021-08-19 19:35:43.760,-0.37,-0.015
2021-08-19 19:35:43.764,-0.36,-0.01
2021-08-19 19:35:43.768,-0.37,0.0
2021-08-19 19:35:43.772,-0.36,-0.005
2021-08-19 19:35:43.776,-0.345,0.025
2021-08-19 19:35:43.780,-0.355,0.035
2021-08-19 19:35:43.784,-0.355,0.025
2021-08-19 19:35:43.788,-0.35,0.03
2021-08-19 19:35:43.792,-0.35,0.02
2021-08-19 19:35:43.796,-0.34,0.04
2021-08-19 19:35:43.800,-0.355,0.06
2021-08-19 19:35:43.804,-0.345,0.06
2021-08-19 19:35:43.808,-0.375,0.04
2021-08-19 19:35:43.812,-0.355,0.055
2021-08-19 19:35:43.816,-0.36,0.05
2021-08-19 19:35:43.820,-0.36,0.055
2021-08-19 19:35:43.824,-0.345,0.025
2021-08-19 19:35:43.828,-0.345,0.045
2021-08-19 19:35:43.832,-0.355,0.05
2021-08-19 19:35:43.836,-0.32,0.03
2021-08-19 19:35:43.840,-0.32,0.025
2021-08-19 19:35:43.844,-0.3,0.055
2021-08-19 19:35:43.848,-0.305,0.05
2021-08-19 19:35:43.852,-0.285,0.03
2021-08-19 19:35:43.856,-0.28,0.045
2021-08-19 19:35:43.860,-0.285,0.03
2021-08-19 19:35:43.864,-0.24,0.03
2021-08-19 19:35:43.868,-0.215,0.07
2021-08-19 19:35:43.872,-0.195,0.075
2021-08-19 19:35:43.876,-0.18,0.09
2021-08-19 19:35:43.880,-0.14,0.11
2021-08-19 19:35:43.884,-0.12,0.07
2021-08-19 19:35:43.888,-0.08,0.09
2021-08-19 19:35:43.892,-0.065,0.095
2021-08-19 19:35:43.896,-0.065,0.1
2021-08-19 19:35:43.900,-0.075,0.095
2021-08-19 19:35:43.904,-0.11,0.065
2021-08-19 19:35:43.908,-0.14,0.025
2021-08-19 19:35:43.912,-0.2,0.005
2021-08-19 19:35:43.916,-0.26,0.02
2021-08-19 19:35:43.920,-0.3,0.02
2021-08-19 19:35:43.924,-0.345,0.0
2021-08-19 19:35:43.928,-0.4,0.04
2021-08-19 19:35:43.932,-0.425,0.065
2021-08-19 19:35:43.936,-0.445,0.08
2021-08-19 19:35:43.940,-0.47,0.085
2021-08-19 19:35:43.944,-0.48,0.1
2021-08-19 19:35:43.948,-0.48,0.08
2021-08-19 19:35:43.952,-0.485,0.07
2021-08-19 19:35:43.956,-0.485,0.065
2021-08-19 19:35:43.960,-0.465,0.07
2021-08-19 19:35:43.964,-0.465,0.05
2021-08-19 19:35:43.968,-0.46,0.04
2021-08-19 19:35:43.972,-0.45,0.03
2021-08-19 19:35:43.976,-0.455,0.02
2021-08-19 19:35:43.980,-0.44,0.035
2021-08-19 19:35:43.984,-0.44,0.01
2021-08-19 19:35:43.988,-0.43,0.015
2021-08-19 19:35:43.992,-0.415,0.03
2021-08-19 19:35:43.996,-0.42,0.02
2021-08-19 19:35:44.000,-0.435,0.02
2021-08-19 19:35:44.004,-0.415,0.01
2021-08-19 19:35:44.008,-0.41,0.025
2021-08-19 19:35:44.012,-0.395,0.03
2021-08-19 19:35:44.016,-0.395,0.03
2021-08-19 19:35:44.020,-0.41,0.055
2021-08-19 19:35:44.024,-0.395,0.02
2021-08-19 19:35:44.028,-0.39,0.045
2021-08-19 19:35:44.032,-0.385,0.045
2021-08-19 19:35:44.036,-0.385,0.05
2021-08-19 19:35:44.040,-0.36,0.055
2021-08-19 19:35:44.044,-0.365,0.025
2021-08-19 19:35:44.048,-0.325,0.035
2021-08-19 19:35:44.052,-0.275,0.035
2021-08-19 19:35:44.056,-0.205,0.05
2021-08-19 19:35:44.060,-0.14,0.04
2021-08-19 19:35:44.064,-0.06,0.025
2021-08-19 19:35:44.068,-0.02,-0.015
2021-08-19 19:35:44.072,0.02,-0.045
2021-08-19 19:35:44.076,0.045,-0.125
2021-08-19 19:35:44.080,0.055,-0.13
2021-08-19 19:35:44.084,0.04,-0.215
2021-08-19 19:35:44.088,0.035,-0.29
2021-08-19 19:35:44.092,0.105,-0.415
2021-08-19 19:35:44.096,0.34,-0.58
2021-08-19 19:35:44.100,0.635,-0.82
2021-08-19 19:35:44.104,0.895,-1.085
2021-08-19 19:35:44.108,0.94,-1.265
2021-08-19 19:35:44.112,0.73,-1.33
2021-08-19 19:35:44.116,0.29,-1.13
2021-08-19 19:35:44.120,-0.115,-0.71
2021-08-19 19:35:44.124,-0.34,-0.325
2021-08-19 19:35:44.128,-0.44,-0.1
2021-08-19 19:35:44.132,-0.46,0.02
2021-08-19 19:35:44.136,-0.47,0.1
2021-08-19 19:35:44.140,-0.5,0.14
2021-08-19 19:35:44.144,-0.53,0.19
2021-08-19 19:35:44.148,-0.535,0.21
2021-08-19 19:35:44.152,-0.535,0.195
2021-08-19 19:35:44.156,-0.545,0.2
2021-08-19 19:35:44.160,-0.55,0.19
2021-08-19 19:35:44.164,-0.565,0.175
2021-08-19 19:35:44.168,-0.55,0.16
2021-08-19 19:35:44.172,-0.555,0.16
2021-08-19 19:35:44.176,-0.585,0.15
2021-08-19 19:35:44.180,-0.57,0.165
2021-08-19 19:35:44.184,-0.585,0.17
2021-08-19 19:35:44.188,-0.59,0.15
2021-08-19 19:35:44.192,-0.59,0.135
2021-08-19 19:35:44.196,-0.6,0.13
2021-08-19 19:35:44.200,-0.585,0.145
2021-08-19 19:35:44.204,-0.6,0.155
2021-08-19 19:35:44.208,-0.6,0.145
2021-08-19 19:35:44.212,-0.615,0.14
2021-08-19 19:35:44.216,-0.605,0.115
2021-08-19 19:35:44.220,-0.615,0.125
2021-08-19 19:35:44.224,-0.62,0.125
2021-08-19 19:35:44.228,-0.63,0.125
2021-08-19 19:35:44.232,-0.625,0.12
2021-08-19 19:35:44.236,-0.62,0.15
2021-08-19 19:35:44.240,-0.615,0.135
2021-08-19 19:35:44.244,-0.6,0.15
2021-08-19 19:35:44.248,-0.62,0.13
2021-08-19 19:35:44.252,-0.615,0.155
2021-08-19 19:35:44.256,-0.605,0.15
2021-08-19 19:35:44.260,-0.62,0.14
2021-08-19 19:35:44.264,-0.61,0.125
2021-08-19 19:35:44.268,-0.615,0.14
2021-08-19 19:35:44.272,-0.6,0.165
2021-08-19 19:35:44.276,-0.615,0.16
2021-08-19 19:35:44.280,-0.61,0.175
2021-08-19 19:35:44.284,-0.585,0.14
2021-08-19 19:35:44.288,-0.585,0.145
2021-08-19 19:35:44.292,-0.57,0.135
2021-08-19 19:35:44.296,-0.57,0.14
2021-08-19 19:35:44.300,-0.58,0.135
2021-08-19 19:35:44.304,-0.57,0.105
2021-08-19 19:35:44.308,-0.56,0.11
2021-08-19 19:35:44.312,-0.555,0.11
2021-08-19 19:35:44.316,-0.545,0.095
2021-08-19 19:35:44.320,-0.525,0.1
2021-08-19 19:35:44.324,-0.52,0.075
2021-08-19 19:35:44.328,-0.5,0.065
2021-08-19 19:35:44.332,-0.505,0.06
2021-08-19 19:35:44.336,-0.485,0.055
2021-08-19 19:35:44.340,-0.49,0.055
2021-08-19 19:35:44.344,-0.48,0.05
2021-08-19 19:35:44.348,-0.455,0.04
2021-08-19 19:35:44.352,-0.465,0.045
2021-08-19 19:35:44.356,-0.435,0.06
2021-08-19 19:35:44.360,-0.43,0.025
2021-08-19 19:35:44.364,-0.415,0.03
2021-08-19 19:35:44.368,-0.39,0.035
2021-08-19 19:35:44.372,-0.4,0.05
2021-08-19 19:35:44.376,-0.395,0.03
2021-08-19 19:35:44.380,-0.39,0.06
2021-08-19 19:35:44.384,-0.385,0.06
2021-08-19 19:35:44.388,-0.38,0.06
2021-08-19 19:35:44.392,-0.36,0.07
2021-08-19 19:35:44.396,-0.37,0.075
2021-08-19 19:35:44.400,-0.395,0.055
2021-08-19 19:35:44.404,-0.385,0.06
2021-08-19 19:35:44.408,-0.38,0.075
2021-08-19 19:35:44.412,-0.38,0.075
2021-08-19 19:35:44.416,-0.395,0.085
2021-08-19 19:35:44.420,-0.41,0.075
2021-08-19 19:35:44.424,-0.385,0.09
2021-08-19 19:35:44.428,-0.375,0.05
2021-08-19 19:35:44.432,-0.385,0.08
2021-08-19 19:35:44.436,-0.4,0.09
2021-08-19 19:35:44.440,-0.4,0.07
2021-08-19 19:35:44.444,-0.385,0.08
2021-08-19 19:35:44.448,-0.39,0.07
2021-08-19 19:35:44.452,-0.38,0.07
2021-08-19 19:35:44.456,-0.4,0.08
2021-08-19 19:35:44.460,-0.35,0.09
2021-08-19 19:35:44.464,-0.365,0.07
2021-08-19 19:35:44.468,-0.36,0.075
2021-08-19 19:35:44.472,-0.345,0.085
2021-08-19 19:35:44.476,-0.34,0.095
2021-08-19 19:35:44.480,-0.35,0.105
2021-08-19 19:35:44.484,-0.345,0.12
2021-08-19 19:35:44.488,-0.3,0.12
2021-08-19 19:35:44.492,-0.265,0.125
2021-08-19 19:35:44.496,-0.245,0.135
2021-08-19 19:35:44.500,-0.21,0.145
2021-08-19 19:35:44.504,-0.2,0.14
2021-08-19 19:35:44.508,-0.18,0.11
2021-08-19 19:35:44.512,-0.16,0.115
2021-08-19 19:35:44.516,-0.17,0.12
2021-08-19 19:35:44.520,-0.18,0.12
2021-08-19 19:35:44.524,-0.21,0.1
2021-08-19 19:35:44.528,-0.275,0.085
2021-08-19 19:35:44.532,-0.33,0.04
2021-08-19 19:35:44.536,-0.375,0.025
2021-08-19 19:35:44.540,-0.395,0.0
2021-08-19 19:35:44.544,-0.425,0.005
2021-08-19 19:35:44.548,-0.465,0.03
2021-08-19 19:35:44.552,-0.475,0.05
2021-08-19 19:35:44.556,-0.5,0.075
2021-08-19 19:35:44.560,-0.505,0.07
2021-08-19 19:35:44.564,-0.495,0.09
2021-08-19 19:35:44.568,-0.505,0.09
2021-08-19 19:35:44.572,-0.49,0.09
2021-08-19 19:35:44.576,-0.505,0.07
2021-08-19 19:35:44.580,-0.5,0.055
2021-08-19 19:35:44.584,-0.5,0.05
2021-08-19 19:35:44.588,-0.49,0.045
2021-08-19 19:35:44.592,-0.495,0.055
2021-08-19 19:35:44.596,-0.48,0.07
2021-08-19 19:35:44.600,-0.435,0.05
2021-08-19 19:35:44.604,-0.465,0.065
2021-08-19 19:35:44.608,-0.455,0.055
2021-08-19 19:35:44.612,-0.455,0.045
2021-08-19 19:35:44.616,-0.455,0.05
2021-08-19 19:35:44.620,-0.435,0.055
2021-08-19 19:35:44.624,-0.435,0.06
2021-08-19 19:35:44.628,-0.44,0.07
2021-08-19 19:35:44.632,-0.46,0.065
2021-08-19 19:35:44.636,-0.43,0.04
2021-08-19 19:35:44.640,-0.44,0.055
2021-08-19 19:35:44.644,-0.42,0.055
2021-08-19 19:35:44.648,-0.43,0.055
2021-08-19 19:35:44.652,-0.42,0.07
2021-08-19 19:35:44.656,-0.42,0.055
2021-08-19 19:35:44.660,-0.39,0.06
2021-08-19 19:35:44.664,-0.38,0.07
2021-08-19 19:35:44.668,-0.33,0.035
2021-08-19 19:35:44.672,-0.275,0.035
2021-08-19 19:35:44.676,-0.17,0.04
2021-08-19 19:35:44.680,-0.08,0.015
2021-08-19 19:35:44.684,-0.015,0.005
2021-08-19 19:35:44.688,0.02,-0.065
2021-08-19 19:35:44.692,0.04,-0.1
2021-08-19 19:35:44.696,0.035,-0.135
2021-08-19 19:35:44.700,0.0,-0.19
2021-08-19 19:35:44.704,-0.025,-0.26
2021-08-19 19:35:44.708,0.03,-0.39
2021-08-19 19:35:44.712,0.255,-0.535
2021-08-19 19:35:44.716,0.6,-0.77
2021-08-19 19:35:44.720,0.875,-1.035
2021-08-19 19:35:44.724,0.95,-1.24
2021-08-19 19:35:44.728,0.77,-1.335
2021-08-19 19:35:44.732,0.335,-1.155
2021-08-19 19:35:44.736,-0.085,-0.73
2021-08-19 19:35:44.740,-0.325,-0.345
2021-08-19 19:35:44.744,-0.44,-0.09
2021-08-19 19:35:44.748,-0.475,0.05
2021-08-19 19:35:44.752,-0.47,0.12
2021-08-19 19:35:44.756,-0.49,0.185
2021-08-19 19:35:44.760,-0.505,0.205
2021-08-19 19:35:44.764,-0.515,0.225
2021-08-19 19:35:44.768,-0.535,0.22
2021-08-19 19:35:44.772,-0.55,0.225
2021-08-19 19:35:44.776,-0.555,0.205
2021-08-19 19:35:44.780,-0.565,0.17
2021-08-19 19:35:44.784,-0.57,0.17
2021-08-19 19:35:44.788,-0.565,0.175
2021-08-19 19:35:44.792,-0.545,0.185
2021-08-19 19:35:44.796,-0.57,0.155
2021-08-19 19:35:44.800,-0.56,0.165
2021-08-19 19:35:44.804,-0.575,0.145
2021-08-19 19:35:44.808,-0.59,0.155
2021-08-19 19:35:44.812,-0.58,0.13
2021-08-19 19:35:44.816,-0.585,0.14
2021-08-19 19:35:44.820,-0.58,0.135
2021-08-19 19:35:44.824,-0.58,0.145
2021-08-19 19:35:44.828,-0.595,0.145
2021-08-19 19:35:44.832,-0.605,0.155
2021-08-19 19:35:44.836,-0.58,0.16
2021-08-19 19:35:44.840,-0.58,0.145
2021-08-19 19:35:44.844,-0.575,0.135
2021-08-19 19:35:44.848,-0.58,0.15
2021-08-19 19:35:44.852,-0.585,0.15
2021-08-19 19:35:44.856,-0.565,0.14
2021-08-19 19:35:44.860,-0.585,0.155
2021-08-19 19:35:44.864,-0.575,0.155
2021-08-19 19:35:44.868,-0.58,0.15
2021-08-19 19:35:44.872,-0.57,0.13
2021-08-19 19:35:44.876,-0.56,0.155
2021-08-19 19:35:44.880,-0.555,0.165
2021-08-19 19:35:44.884,-0.555,0.155
2021-08-19 19:35:44.888,-0.55,0.15
2021-08-19 19:35:44.892,-0.565,0.14
2021-08-19 19:35:44.896,-0.565,0.165
2021-08-19 19:35:44.900,-0.54,0.13
2021-08-19 19:35:44.904,-0.565,0.125
2021-08-19 19:35:44.908,-0.55,0.11
2021-08-19 19:35:44.912,-0.53,0.125
2021-08-19 19:35:44.916,-0.515,0.125
2021-08-19 19:35:44.920,-0.495,0.1
2021-08-19 19:35:44.924,-0.495,0.095
2021-08-19 19:35:44.928,-0.48,0.1
2021-08-19 19:35:44.932,-0.485,0.085
2021-08-19 19:35:44.936,-0.45,0.09
2021-08-19 19:35:44.940,-0.44,0.065
2021-08-19 19:35:44.944,-0.43,0.055
2021-08-19 19:35:44.948,-0.41,0.05
2021-08-19 19:35:44.952,-0.385,0.04
2021-08-19 19:35:44.956,-0.38,0.045
2021-08-19 19:35:44.960,-0.365,0.04
2021-08-19 19:35:44.964,-0.355,0.025
2021-08-19 19:35:44.968,-0.35,0.03
2021-08-19 19:35:44.972,-0.315,0.045
2021-08-19 19:35:44.976,-0.315,0.04
2021-08-19 19:35:44.980,-0.315,0.03
2021-08-19 19:35:44.984,-0.29,0.035
2021-08-19 19:35:44.988,-0.295,0.015
2021-08-19 19:35:44.992,-0.28,0.04
2021-08-19 19:35:44.996,-0.285,0.035
2021-08-19 19:35:45.000,-0.295,0.03
2021-08-19 19:35:45.004,-0.285,0.035
2021-08-19 19:35:45.008,-0.275,0.035
2021-08-19 19:35:45.012,-0.285,0.02
2021-08-19 19:35:45.016,-0.295,0.025
2021-08-19 19:35:45.020,-0.285,0.02
2021-08-19 19:35:45.024,-0.255,0.025
2021-08-19 19:35:45.028,-0.285,0.04
2021-08-19 19:35:45.032,-0.28,0.015
2021-08-19 19:35:45.036,-0.28,0.035
2021-08-19 19:35:45.040,-0.265,0.03
2021-08-19 19:35:45.044,-0.265,0.025
2021-08-19 19:35:45.048,-0.275,0.03
2021-08-19 19:35:45.052,-0.27,0.045
2021-08-19 19:35:45.056,-0.255,0.02
2021-08-19 19:35:45.060,-0.25,0.035
2021-08-19 19:35:45.064,-0.27,0.035
2021-08-19 19:35:45.068,-0.27,0.04
2021-08-19 19:35:45.072,-0.275,0.055
2021-08-19 19:35:45.076,-0.25,0.03
2021-08-19 19:35:45.080,-0.23,0.02
2021-08-19 19:35:45.084,-0.235,0.05
2021-08-19 19:35:45.088,-0.23,0.035
2021-08-19 19:35:45.092,-0.22,0.04
2021-08-19 19:35:45.096,-0.205,0.06
2021-08-19 19:35:45.100,-0.18,0.06
2021-08-19 19:35:45.104,-0.205,0.05
2021-08-19 19:35:45.108,-0.18,0.065
2021-08-19 19:35:45.112,-0.175,0.06
2021-08-19 19:35:45.116,-0.185,0.06
2021-08-19 19:35:45.120,-0.175,0.06
2021-08-19 19:35:45.124,-0.155,0.055
2021-08-19 19:35:45.128,-0.175,0.05
2021-08-19 19:35:45.132,-0.14,0.015
2021-08-19 19:35:45.136,-0.185,-0.02
2021-08-19 19:35:45.140,-0.215,-0.055
2021-08-19 19:35:45.144,-0.245,-0.085
2021-08-19 19:35:45.148,-0.265,-0.085
2021-08-19 19:35:45.152,-0.295,-0.07
2021-08-19 19:35:45.156,-0.295,-0.08
2021-08-19 19:35:45.160,-0.33,-0.04
2021-08-19 19:35:45.164,-0.33,-0.035
2021-08-19 19:35:45.168,-0.325,-0.03
2021-08-19 19:35:45.172,-0.315,0.0
2021-08-19 19:35:45.176,-0.3,-0.005
2021-08-19 19:35:45.180,-0.3,0.005
2021-08-19 19:35:45.184,-0.32,0.0
2021-08-19 19:35:45.188,-0.3,-0.015
2021-08-19 19:35:45.192,-0.305,0.0
2021-08-19 19:35:45.196,-0.295,0.0
2021-08-19 19:35:45.200,-0.27,0.0
2021-08-19 19:35:45.204,-0.265,0.0
2021-08-19 19:35:45.208,-0.265,-0.01
2021-08-19 19:35:45.212,-0.265,-0.01
2021-08-19 19:35:45.216,-0.255,-0.015
2021-08-19 19:35:45.220,-0.26,-0.005
2021-08-19 19:35:45.224,-0.275,0.0
2021-08-19 19:35:45.228,-0.26,-0.02
2021-08-19 19:35:45.232,-0.265,-0.02
2021-08-19 19:35:45.236,-0.27,-0.015
2021-08-19 19:35:45.240,-0.265,-0.01
2021-08-19 19:35:45.244,-0.26,-0.02
2021-08-19 19:35:45.248,-0.245,-0.025
2021-08-19 19:35:45.252,-0.255,-0.035
2021-08-19 19:35:45.256,-0.235,-0.015
2021-08-19 19:35:45.260,-0.18,-0.03
2021-08-19 19:35:45.264,-0.135,-0.03
2021-08-19 19:35:45.268,-0.04,-0.04
2021-08-19 19:35:45.272,0.025,-0.05
2021-08-19 19:35:45.276,0.125,-0.085
2021-08-19 19:35:45.280,0.175,-0.13
2021-08-19 19:35:45.284,0.23,-0.195
2021-08-19 19:35:45.288,0.26,-0.205
2021-08-19 19:35:45.292,0.245,-0.225
2021-08-19 19:35:45.296,0.215,-0.295
2021-08-19 19:35:45.300,0.245,-0.375
2021-08-19 19:35:45.304,0.4,-0.54
2021-08-19 19:35:45.308,0.69,-0.765
2021-08-19 19:35:45.312,0.97,-0.99
2021-08-19 19:35:45.316,1.08,-1.22
2021-08-19 19:35:45.320,0.93,-1.345
2021-08-19 19:35:45.324,0.545,-1.23
2021-08-19 19:35:45.328,0.105,-0.88
2021-08-19 19:35:45.332,-0.155,-0.515
2021-08-19 19:35:45.336,-0.28,-0.26
2021-08-19 19:35:45.340,-0.305,-0.1
2021-08-19 19:35:45.344,-0.335,0.01
2021-08-19 19:35:45.348,-0.375,0.065
2021-08-19 19:35:45.352,-0.395,0.1
2021-08-19 19:35:45.356,-0.42,0.135
2021-08-19 19:35:45.360,-0.425,0.135
2021-08-19 19:35:45.364,-0.445,0.1
2021-08-19 19:35:45.368,-0.46,0.09
2021-08-19 19:35:45.372,-0.48,0.06
2021-08-19 19:35:45.376,-0.51,0.065
2021-08-19 19:35:45.380,-0.52,0.06
2021-08-19 19:35:45.384,-0.53,0.06
2021-08-19 19:35:45.388,-0.525,0.065
2021-08-19 19:35:45.392,-0.54,0.06
2021-08-19 19:35:45.396,-0.535,0.08
2021-08-19 19:35:45.400,-0.535,0.055
2021-08-19 19:35:45.404,-0.535,0.055
2021-08-19 19:35:45.408,-0.55,0.06
2021-08-19 19:35:45.412,-0.56,0.06
2021-08-19 19:35:45.416,-0.575,0.07
2021-08-19 19:35:45.420,-0.585,0.075
2021-08-19 19:35:45.424,-0.575,0.06
2021-08-19 19:35:45.428,-0.575,0.08
2021-08-19 19:35:45.432,-0.605,0.06
2021-08-19 19:35:45.436,-0.62,0.085
2021-08-19 19:35:45.440,-0.585,0.095
2021-08-19 19:35:45.444,-0.6,0.075
2021-08-19 19:35:45.448,-0.605,0.085
2021-08-19 19:35:45.452,-0.605,0.095
2021-08-19 19:35:45.456,-0.635,0.095
2021-08-19 19:35:45.460,-0.625,0.095
2021-08-19 19:35:45.464,-0.625,0.115
2021-08-19 19:35:45.468,-0.615,0.095
2021-08-19 19:35:45.472,-0.635,0.08
2021-08-19 19:35:45.476,-0.625,0.075
2021-08-19 19:35:45.480,-0.605,0.095
2021-08-19 19:35:45.484,-0.625,0.095
2021-08-19 19:35:45.488,-0.61,0.085
2021-08-19 19:35:45.492,-0.615,0.1
2021-08-19 19:35:45.496,-0.615,0.095
2021-08-19 19:35:45.500,-0.61,0.085
2021-08-19 19:35:45.504,-0.61,0.085
2021-08-19 19:35:45.508,-0.58,0.065
2021-08-19 19:35:45.512,-0.59,0.06
2021-08-19 19:35:45.516,-0.595,0.055
2021-08-19 19:35:45.520,-0.565,0.045
2021-08-19 19:35:45.524,-0.54,0.03
2021-08-19 19:35:45.528,-0.545,0.02
2021-08-19 19:35:45.532,-0.53,0.03
2021-08-19 19:35:45.536,-0.53,0.02
2021-08-19 19:35:45.540,-0.515,0.035
2021-08-19 19:35:45.544,-0.5,0.01
2021-08-19 19:35:45.548,-0.49,0.005
2021-08-19 19:35:45.552,-0.47,-0.015
2021-08-19 19:35:45.556,-0.475,0.0
2021-08-19 19:35:45.560,-0.425,0.01
2021-08-19 19:35:45.564,-0.415,0.015
2021-08-19 19:35:45.568,-0.42,-0.015
2021-08-19 19:35:45.572,-0.41,0.0
2021-08-19 19:35:45.576,-0.405,0.0
2021-08-19 19:35:45.580,-0.4,0.0
2021-08-19 19:35:45.584,-0.405,0.01
2021-08-19 19:35:45.588,-0.4,0.02
2021-08-19 19:35:45.592,-0.41,0.025
2021-08-19 19:35:45.596,-0.41,0.025
2021-08-19 19:35:45.600,-0.42,0.025
2021-08-19 19:35:45.604,-0.4,0.035
2021-08-19 19:35:45.608,-0.42,0.015
2021-08-19 19:35:45.612,-0.435,0.03
2021-08-19 19:35:45.616,-0.445,0.03
2021-08-19 19:35:45.620,-0.435,0.04
2021-08-19 19:35:45.624,-0.43,0.04
2021-08-19 19:35:45.628,-0.435,0.035
2021-08-19 19:35:45.632,-0.425,0.04
2021-08-19 19:35:45.636,-0.42,0.04
2021-08-19 19:35:45.640,-0.43,0.02
2021-08-19 19:35:45.644,-0.42,0.04
2021-08-19 19:35:45.648,-0.435,0.03
2021-08-19 19:35:45.652,-0.41,0.045
2021-08-19 19:35:45.656,-0.425,0.045
2021-08-19 19:35:45.660,-0.425,0.04
2021-08-19 19:35:45.664,-0.43,0.065
2021-08-19 19:35:45.668,-0.44,0.055
2021-08-19 19:35:45.672,-0.43,0.055
2021-08-19 19:35:45.676,-0.41,0.07
2021-08-19 19:35:45.680,-0.365,0.085
2021-08-19 19:35:45.684,-0.385,0.085
2021-08-19 19:35:45.688,-0.375,0.08
2021-08-19 19:35:45.692,-0.37,0.07
2021-08-19 19:35:45.696,-0.35,0.09
2021-08-19 19:35:45.700,-0.355,0.08
2021-08-19 19:35:45.704,-0.335,0.115
2021-08-19 19:35:45.708,-0.33,0.09
2021-08-19 19:35:45.712,-0.335,0.105
2021-08-19 19:35:45.716,-0.335,0.105
2021-08-19 19:35:45.720,-0.34,0.11
2021-08-19 19:35:45.724,-0.355,0.095
2021-08-19 19:35:45.728,-0.335,0.08
2021-08-19 19:35:45.732,-0.325,0.075
2021-08-19 19:35:45.736,-0.32,0.045
2021-08-19 19:35:45.740,-0.335,0.015
2021-08-19 19:35:45.744,-0.38,0.0
2021-08-19 19:35:45.748,-0.405,-0.05
2021-08-19 19:35:45.752,-0.45,-0.03
2021-08-19 19:35:45.756,-0.46,-0.005
2021-08-19 19:35:45.760,-0.465,-0.03
2021-08-19 19:35:45.764,-0.475,0.025
2021-08-19 19:35:45.768,-0.475,0.06
2021-08-19 19:35:45.772,-0.485,0.085
2021-08-19 19:35:45.776,-0.48,0.09
2021-08-19 19:35:45.780,-0.46,0.095
2021-08-19 19:35:45.784,-0.47,0.065
2021-08-19 19:35:45.788,-0.46,0.095
2021-08-19 19:35:45.792,-0.44,0.08
2021-08-19 19:35:45.796,-0.445,0.065
2021-08-19 19:35:45.800,-0.44,0.07
2021-08-19 19:35:45.804,-0.425,0.055
2021-08-19 19:35:45.808,-0.44,0.075
2021-08-19 19:35:45.812,-0.445,0.07
2021-08-19 19:35:45.816,-0.42,0.06
2021-08-19 19:35:45.820,-0.43,0.07
2021-08-19 19:35:45.824,-0.435,0.035
2021-08-19 19:35:45.828,-0.44,0.06
2021-08-19 19:35:45.832,-0.44,0.065
2021-08-19 19:35:45.836,-0.445,0.06
2021-08-19 19:35:45.840,-0.425,0.065
2021-08-19 19:35:45.844,-0.42,0.05
2021-08-19 19:35:45.848,-0.435,0.045
2021-08-19 19:35:45.852,-0.425,0.045
2021-08-19 19:35:45.856,-0.415,0.035
2021-08-19 19:35:45.860,-0.38,0.055
2021-08-19 19:35:45.864,-0.32,0.04
2021-08-19 19:35:45.868,-0.245,0.045
2021-08-19 19:35:45.872,-0.165,0.03
2021-08-19 19:35:45.876,-0.095,0.005
2021-08-19 19:35:45.880,-0.045,-0.025
2021-08-19 19:35:45.884,-0.03,-0.08
2021-08-19 19:35:45.888,0.0,-0.125
2021-08-19 19:35:45.892,-0.01,-0.165
2021-08-19 19:35:45.896,-0.04,-0.22
2021-08-19 19:35:45.900,-0.02,-0.31
2021-08-19 19:35:45.904,0.11,-0.435
2021-08-19 19:35:45.908,0.37,-0.6
2021-08-19 19:35:45.912,0.69,-0.835
2021-08-19 19:35:45.916,0.88,-1.11
2021-08-19 19:35:45.920,0.855,-1.29
2021-08-19 19:35:45.924,0.55,-1.295
2021-08-19 19:35:45.928,0.09,-1.005
2021-08-19 19:35:45.932,-0.265,-0.57
2021-08-19 19:35:45.936,-0.425,-0.24
2021-08-19 19:35:45.940,-0.495,-0.04
2021-08-19 19:35:45.944,-0.52,0.05
2021-08-19 19:35:45.948,-0.525,0.135
2021-08-19 19:35:45.952,-0.545,0.165
2021-08-19 19:35:45.956,-0.56,0.2
2021-08-19 19:35:45.960,-0.57,0.2
2021-08-19 19:35:45.964,-0.575,0.21
2021-08-19 19:35:45.968,-0.595,0.19
2021-08-19 19:35:45.972,-0.61,0.175
2021-08-19 19:35:45.976,-0.62,0.175
2021-08-19 19:35:45.980,-0.61,0.165
2021-08-19 19:35:45.984,-0.62,0.175
2021-08-19 19:35:45.988,-0.61,0.16
2021-08-19 19:35:45.992,-0.625,0.15
2021-08-19 19:35:45.996,-0.625,0.155
2021-08-19 19:35:46.000,-0.63,0.17
2021-08-19 19:35:46.004,-0.63,0.165
2021-08-19 19:35:46.008,-0.64,0.16
2021-08-19 19:35:46.012,-0.65,0.17
2021-08-19 19:35:46.016,-0.64,0.18
2021-08-19 19:35:46.020,-0.64,0.18
2021-08-19 19:35:46.024,-0.635,0.165
2021-08-19 19:35:46.028,-0.63,0.19
2021-08-19 19:35:46.032,-0.645,0.16
2021-08-19 19:35:46.036,-0.655,0.18
2021-08-19 19:35:46.040,-0.625,0.155
2021-08-19 19:35:46.044,-0.625,0.16
2021-08-19 19:35:46.048,-0.62,0.175
2021-08-19 19:35:46.052,-0.625,0.18
2021-08-19 19:35:46.056,-0.655,0.2
2021-08-19 19:35:46.060,-0.66,0.185
2021-08-19 19:35:46.064,-0.66,0.17
2021-08-19 19:35:46.068,-0.655,0.185
2021-08-19 19:35:46.072,-0.665,0.185
2021-08-19 19:35:46.076,-0.66,0.185
2021-08-19 19:35:46.080,-0.65,0.18
2021-08-19 19:35:46.084,-0.64,0.18
2021-08-19 19:35:46.088,-0.655,0.2
2021-08-19 19:35:46.092,-0.655,0.2
2021-08-19 19:35:46.096,-0.65,0.17
2021-08-19 19:35:46.100,-0.635,0.195
2021-08-19 19:35:46.104,-0.635,0.19
2021-08-19 19:35:46.108,-0.625,0.17
2021-08-19 19:35:46.112,-0.63,0.16
2021-08-19 19:35:46.116,-0.63,0.135
2021-08-19 19:35:46.120,-0.605,0.145
2021-08-19 19:35:46.124,-0.585,0.12
2021-08-19 19:35:46.128,-0.59,0.12
2021-08-19 19:35:46.132,-0.575,0.115
2021-08-19 19:35:46.136,-0.555,0.105
2021-08-19 19:35:46.140,-0.525,0.09
2021-08-19 19:35:46.144,-0.54,0.105
2021-08-19 19:35:46.148,-0.515,0.105
2021-08-19 19:35:46.152,-0.505,0.09
2021-08-19 19:35:46.156,-0.48,0.085
2021-08-19 19:35:46.160,-0.48,0.1
2021-08-19 19:35:46.164,-0.45,0.095
2021-08-19 19:35:46.168,-0.45,0.095
2021-08-19 19:35:46.172,-0.43,0.1
2021-08-19 19:35:46.176,-0.43,0.085
2021-08-19 19:35:46.180,-0.425,0.07
2021-08-19 19:35:46.184,-0.415,0.1
2021-08-19 19:35:46.188,-0.435,0.095
2021-08-19 19:35:46.192,-0.41,0.085
2021-08-19 19:35:46.196,-0.415,0.08
2021-08-19 19:35:46.200,-0.43,0.105
2021-08-19 19:35:46.204,-0.42,0.1
2021-08-19 19:35:46.208,-0.41,0.1
2021-08-19 19:35:46.212,-0.425,0.095
2021-08-19 19:35:46.216,-0.43,0.09
2021-08-19 19:35:46.220,-0.415,0.1
2021-08-19 19:35:46.224,-0.42,0.1
2021-08-19 19:35:46.228,-0.41,0.115
2021-08-19 19:35:46.232,-0.4,0.11
2021-08-19 19:35:46.236,-0.41,0.12
2021-08-19 19:35:46.240,-0.4,0.1
2021-08-19 19:35:46.244,-0.415,0.115
2021-08-19 19:35:46.248,-0.42,0.11
2021-08-19 19:35:46.252,-0.41,0.08
2021-08-19 19:35:46.256,-0.415,0.095
2021-08-19 19:35:46.260,-0.4,0.125
2021-08-19 19:35:46.264,-0.405,0.115
2021-08-19 19:35:46.268,-0.415,0.12
2021-08-19 19:35:46.272,-0.405,0.12
2021-08-19 19:35:46.276,-0.38,0.12
2021-08-19 19:35:46.280,-0.35,0.145
2021-08-19 19:35:46.284,-0.355,0.13
2021-08-19 19:35:46.288,-0.35,0.135
2021-08-19 19:35:46.292,-0.355,0.13
2021-08-19 19:35:46.296,-0.335,0.16
2021-08-19 19:35:46.300,-0.335,0.135
2021-08-19 19:35:46.304,-0.32,0.15
2021-08-19 19:35:46.308,-0.295,0.15
2021-08-19 19:35:46.312,-0.31,0.155
2021-08-19 19:35:46.316,-0.32,0.16
2021-08-19 19:35:46.320,-0.315,0.145
2021-08-19 19:35:46.324,-0.315,0.15
2021-08-19 19:35:46.328,-0.305,0.145
2021-08-19 19:35:46.332,-0.29,0.135
2021-08-19 19:35:46.336,-0.29,0.085
2021-08-19 19:35:46.340,-0.31,0.07
2021-08-19 19:35:46.344,-0.35,0.04
2021-08-19 19:35:46.348,-0.38,0.025
2021-08-19 19:35:46.352,-0.4,0.045
2021-08-19 19:35:46.356,-0.41,0.015
2021-08-19 19:35:46.360,-0.43,0.025
2021-08-19 19:35:46.364,-0.445,0.055
2021-08-19 19:35:46.368,-0.455,0.1
2021-08-19 19:35:46.372,-0.445,0.115
2021-08-19 19:35:46.376,-0.45,0.11
2021-08-19 19:35:46.380,-0.47,0.145
2021-08-19 19:35:46.384,-0.45,0.13
2021-08-19 19:35:46.388,-0.43,0.135
2021-08-19 19:35:46.392,-0.425,0.12
2021-08-19 19:35:46.396,-0.43,0.115
2021-08-19 19:35:46.400,-0.41,0.12
2021-08-19 19:35:46.404,-0.405,0.115
2021-08-19 19:35:46.408,-0.405,0.1
2021-08-19 19:35:46.412,-0.39,0.1
2021-08-19 19:35:46.416,-0.4,0.115
2021-08-19 19:35:46.420,-0.39,0.13
2021-08-19 19:35:46.424,-0.42,0.105
2021-08-19 19:35:46.428,-0.405,0.125
2021-08-19 19:35:46.432,-0.42,0.1
2021-08-19 19:35:46.436,-0.415,0.1
2021-08-19 19:35:46.440,-0.405,0.09
2021-08-19 19:35:46.444,-0.4,0.075
2021-08-19 19:35:46.448,-0.42,0.075
2021-08-19 19:35:46.452,-0.41,0.08
2021-08-19 19:35:46.456,-0.38,0.07
2021-08-19 19:35:46.460,-0.34,0.055
2021-08-19 19:35:46.464,-0.28,0.07
2021-08-19 19:35:46.468,-0.185,0.055
2021-08-19 19:35:46.472,-0.125,0.04
2021-08-19 19:35:46.476,-0.06,0.035
2021-08-19 19:35:46.480,-0.015,-0.025
2021-08-19 19:35:46.484,0.01,-0.1
2021-08-19 19:35:46.488,0.025,-0.1
2021-08-19 19:35:46.492,0.02,-0.15
2021-08-19 19:35:46.496,-0.015,-0.19
2021-08-19 19:35:46.500,-0.005,-0.295
2021-08-19 19:35:46.504,0.145,-0.415
2021-08-19 19:35:46.508,0.44,-0.59
2021-08-19 19:35:46.512,0.71,-0.88
2021-08-19 19:35:46.516,0.93,-1.12
2021-08-19 19:35:46.520,0.84,-1.305
2021-08-19 19:35:46.524,0.54,-1.275
2021-08-19 19:35:46.528,0.065,-0.93
2021-08-19 19:35:46.532,-0.24,-0.505
2021-08-19 19:35:46.536,-0.395,-0.2
2021-08-19 19:35:46.540,-0.465,-0.035
2021-08-19 19:35:46.544,-0.48,0.055
2021-08-19 19:35:46.548,-0.48,0.13
2021-08-19 19:35:46.552,-0.51,0.175
2021-08-19 19:35:46.556,-0.515,0.175
2021-08-19 19:35:46.560,-0.545,0.18
2021-08-19 19:35:46.564,-0.57,0.17
2021-08-19 19:35:46.568,-0.57,0.185
2021-08-19 19:35:46.572,-0.55,0.15
2021-08-19 19:35:46.576,-0.58,0.16
2021-08-19 19:35:46.580,-0.58,0.13
2021-08-19 19:35:46.584,-0.58,0.155
2021-08-19 19:35:46.588,-0.59,0.13
2021-08-19 19:35:46.592,-0.59,0.135
2021-08-19 19:35:46.596,-0.58,0.13
2021-08-19 19:35:46.600,-0.58,0.13
2021-08-19 19:35:46.604,-0.6,0.13
2021-08-19 19:35:46.608,-0.6,0.145
2021-08-19 19:35:46.612,-0.61,0.115
2021-08-19 19:35:46.616,-0.625,0.14
2021-08-19 19:35:46.620,-0.62,0.115
2021-08-19 19:35:46.624,-0.62,0.12
2021-08-19 19:35:46.628,-0.605,0.145
2021-08-19 19:35:46.632,-0.59,0.13
2021-08-19 19:35:46.636,-0.615,0.14
2021-08-19 19:35:46.640,-0.6,0.145
2021-08-19 19:35:46.644,-0.61,0.155
2021-08-19 19:35:46.648,-0.615,0.155
2021-08-19 19:35:46.652,-0.61,0.17
2021-08-19 19:35:46.656,-0.605,0.165
2021-08-19 19:35:46.660,-0.625,0.135
2021-08-19 19:35:46.664,-0.615,0.16
2021-08-19 19:35:46.668,-0.605,0.18
2021-08-19 19:35:46.672,-0.605,0.16
2021-08-19 19:35:46.676,-0.615,0.165
2021-08-19 19:35:46.680,-0.615,0.17
2021-08-19 19:35:46.684,-0.615,0.17
2021-08-19 19:35:46.688,-0.615,0.17
2021-08-19 19:35:46.692,-0.585,0.16
2021-08-19 19:35:46.696,-0.59,0.175
2021-08-19 19:35:46.700,-0.595,0.155
2021-08-19 19:35:46.704,-0.59,0.145
2021-08-19 19:35:46.708,-0.57,0.15
2021-08-19 19:35:46.712,-0.575,0.16
2021-08-19 19:35:46.716,-0.545,0.135
2021-08-19 19:35:46.720,-0.53,0.115
2021-08-19 19:35:46.724,-0.52,0.12
2021-08-19 19:35:46.728,-0.515,0.12
2021-08-19 19:35:46.732,-0.485,0.09
2021-08-19 19:35:46.736,-0.49,0.105
2021-08-19 19:35:46.740,-0.475,0.095
2021-08-19 19:35:46.744,-0.45,0.115
2021-08-19 19:35:46.748,-0.43,0.085
2021-08-19 19:35:46.752,-0.415,0.075
2021-08-19 19:35:46.756,-0.41,0.095
2021-08-19 19:35:46.760,-0.405,0.075
2021-08-19 19:35:46.764,-0.375,0.085
2021-08-19 19:35:46.768,-0.355,0.075
2021-08-19 19:35:46.772,-0.35,0.095
2021-08-19 19:35:46.776,-0.35,0.085
2021-08-19 19:35:46.780,-0.345,0.08
2021-08-19 19:35:46.784,-0.32,0.09
2021-08-19 19:35:46.788,-0.33,0.06
2021-08-19 19:35:46.792,-0.34,0.065
2021-08-19 19:35:46.796,-0.325,0.065
2021-08-19 19:35:46.800,-0.34,0.095
2021-08-19 19:35:46.804,-0.345,0.09
2021-08-19 19:35:46.808,-0.345,0.075
2021-08-19 19:35:46.812,-0.325,0.07
2021-08-19 19:35:46.816,-0.305,0.075
2021-08-19 19:35:46.820,-0.315,0.075
2021-08-19 19:35:46.824,-0.32,0.085
2021-08-19 19:35:46.828,-0.31,0.085
2021-08-19 19:35:46.832,-0.31,0.075
2021-08-19 19:35:46.836,-0.315,0.085
2021-08-19 19:35:46.840,-0.33,0.105
2021-08-19 19:35:46.844,-0.31,0.08
2021-08-19 19:35:46.848,-0.32,0.075
2021-08-19 19:35:46.852,-0.32,0.075
2021-08-19 19:35:46.856,-0.315,0.09
2021-08-19 19:35:46.860,-0.3,0.09
2021-08-19 19:35:46.864,-0.3,0.07
2021-08-19 19:35:46.868,-0.3,0.1
2021-08-19 19:35:46.872,-0.3,0.095
2021-08-19 19:35:46.876,-0.26,0.1
2021-08-19 19:35:46.880,-0.27,0.11
2021-08-19 19:35:46.884,-0.28,0.105
2021-08-19 19:35:46.888,-0.27,0.115
2021-08-19 19:35:46.892,-0.26,0.115
2021-08-19 19:35:46.896,-0.245,0.1
2021-08-19 19:35:46.900,-0.24,0.105
2021-08-19 19:35:46.904,-0.2,0.1
2021-08-19 19:35:46.908,-0.2,0.12
2021-08-19 19:35:46.912,-0.19,0.12
2021-08-19 19:35:46.916,-0.2,0.11
2021-08-19 19:35:46.920,-0.225,0.1
2021-08-19 19:35:46.924,-0.205,0.095
2021-08-19 19:35:46.928,-0.19,0.1
2021-08-19 19:35:46.932,-0.19,0.07
2021-08-19 19:35:46.936,-0.19,0.03
2021-08-19 19:35:46.940,-0.235,0.005
2021-08-19 19:35:46.944,-0.235,-0.035
2021-08-19 19:35:46.948,-0.265,-0.015
2021-08-19 19:35:46.952,-0.305,-0.025
2021-08-19 19:35:46.956,-0.315,-0.03
2021-08-19 19:35:46.960,-0.31,0.01
2021-08-19 19:35:46.964,-0.315,0.035
2021-08-19 19:35:46.968,-0.335,0.055
2021-08-19 19:35:46.972,-0.3,0.07
2021-08-19 19:35:46.976,-0.305,0.065
2021-08-19 19:35:46.980,-0.295,0.07
2021-08-19 19:35:46.984,-0.285,0.075
2021-08-19 19:35:46.988,-0.29,0.055
2021-08-19 19:35:46.992,-0.275,0.07
2021-08-19 19:35:46.996,-0.26,0.05
2021-08-19 19:35:47.000,-0.26,0.045
2021-08-19 19:35:47.004,-0.25,0.05
2021-08-19 19:35:47.008,-0.26,0.055
2021-08-19 19:35:47.012,-0.245,0.045
2021-08-19 19:35:47.016,-0.26,0.06
2021-08-19 19:35:47.020,-0.26,0.02
2021-08-19 19:35:47.024,-0.24,0.02
2021-08-19 19:35:47.028,-0.25,0.025
2021-08-19 19:35:47.032,-0.25,0.005
2021-08-19 19:35:47.036,-0.29,0.03
2021-08-19 19:35:47.040,-0.275,0.03
2021-08-19 19:35:47.044,-0.26,0.015
2021-08-19 19:35:47.048,-0.23,0.0
2021-08-19 19:35:47.052,-0.235,0.005
2021-08-19 19:35:47.056,-0.165,0.005
2021-08-19 19:35:47.060,-0.14,0.0
2021-08-19 19:35:47.064,-0.065,-0.01
2021-08-19 19:35:47.068,0.025,0.01
2021-08-19 19:35:47.072,0.115,-0.035
2021-08-19 19:35:47.076,0.17,-0.075
2021-08-19 19:35:47.080,0.215,-0.115
2021-08-19 19:35:47.084,0.27,-0.175
2021-08-19 19:35:47.088,0.3,-0.205
2021-08-19 19:35:47.092,0.29,-0.225
2021-08-19 19:35:47.096,0.275,-0.3
2021-08-19 19:35:47.100,0.36,-0.39
2021-08-19 19:35:47.104,0.585,-0.575
2021-08-19 19:35:47.108,0.88,-0.815
2021-08-19 19:35:47.112,1.09,-1.035
2021-08-19 19:35:47.116,1.095,-1.235
2021-08-19 19:35:47.120,0.83,-1.28
2021-08-19 19:35:47.124,0.39,-1.055
2021-08-19 19:35:47.128,0.025,-0.65
2021-08-19 19:35:47.132,-0.145,-0.34
2021-08-19 19:35:47.136,-0.225,-0.155
2021-08-19 19:35:47.140,-0.26,-0.065
2021-08-19 19:35:47.144,-0.27,0.04
2021-08-19 19:35:47.148,-0.31,0.09
2021-08-19 19:35:47.152,-0.34,0.14
2021-08-19 19:35:47.156,-0.37,0.115
2021-08-19 19:35:47.160,-0.39,0.125
2021-08-19 19:35:47.164,-0.39,0.105
2021-08-19 19:35:47.168,-0.39,0.08
2021-08-19 19:35:47.172,-0.385,0.08
2021-08-19 19:35:47.176,-0.415,0.06
2021-08-19 19:35:47.180,-0.43,0.045
2021-08-19 19:35:47.184,-0.41,0.05
2021-08-19 19:35:47.188,-0.415,0.045
2021-08-19 19:35:47.192,-0.405,0.05
2021-08-19 19:35:47.196,-0.44,0.05
2021-08-19 19:35:47.200,-0.435,0.055
2021-08-19 19:35:47.204,-0.43,0.04
2021-08-19 19:35:47.208,-0.435,0.055
2021-08-19 19:35:47.212,-0.445,0.055
2021-08-19 19:35:47.216,-0.44,0.06
2021-08-19 19:35:47.220,-0.445,0.07
2021-08-19 19:35:47.224,-0.41,0.065
2021-08-19 19:35:47.228,-0.415,0.06
2021-08-19 19:35:47.232,-0.405,0.06
2021-08-19 19:35:47.236,-0.435,0.05
2021-08-19 19:35:47.240,-0.45,0.065
2021-08-19 19:35:47.244,-0.44,0.05
2021-08-19 19:35:47.248,-0.44,0.055
2021-08-19 19:35:47.252,-0.45,0.075
2021-08-19 19:35:47.256,-0.445,0.045
2021-08-19 19:35:47.260,-0.455,0.065
2021-08-19 19:35:47.264,-0.44,0.05
2021-08-19 19:35:47.268,-0.46,0.06
2021-08-19 19:35:47.272,-0.445,0.06
2021-08-19 19:35:47.276,-0.45,0.06
2021-08-19 19:35:47.280,-0.46,0.07
2021-08-19 19:35:47.284,-0.46,0.05
2021-08-19 19:35:47.288,-0.465,0.04
2021-08-19 19:35:47.292,-0.46,0.06
2021-08-19 19:35:47.296,-0.43,0.04
2021-08-19 19:35:47.300,-0.44,0.02
2021-08-19 19:35:47.304,-0.395,0.025
2021-08-19 19:35:47.308,-0.39,0.015
2021-08-19 19:35:47.312,-0.38,0.01
2021-08-19 19:35:47.316,-0.38,0.005
2021-08-19 19:35:47.320,-0.38,0.005
2021-08-19 19:35:47.324,-0.34,0.01
2021-08-19 19:35:47.328,-0.35,0.005
2021-08-19 19:35:47.332,-0.315,0.0
2021-08-19 19:35:47.336,-0.31,-0.015
2021-08-19 19:35:47.340,-0.295,-0.015
2021-08-19 19:35:47.344,-0.285,-0.005
2021-08-19 19:35:47.348,-0.275,-0.025
2021-08-19 19:35:47.352,-0.27,-0.015
2021-08-19 19:35:47.356,-0.24,-0.025
2021-08-19 19:35:47.360,-0.25,-0.035
2021-08-19 19:35:47.364,-0.24,-0.005
2021-08-19 19:35:47.368,-0.22,-0.02
2021-08-19 19:35:47.372,-0.23,-0.02
2021-08-19 19:35:47.376,-0.235,-0.02
2021-08-19 19:35:47.380,-0.24,-0.025
2021-08-19 19:35:47.384,-0.225,-0.04
2021-08-19 19:35:47.388,-0.22,-0.025
2021-08-19 19:35:47.392,-0.23,-0.03
2021-08-19 19:35:47.396,-0.24,-0.015
2021-08-19 19:35:47.400,-0.23,-0.04
2021-08-19 19:35:47.404,-0.25,-0.02
2021-08-19 19:35:47.408,-0.235,-0.02
2021-08-19 19:35:47.412,-0.24,-0.01
2021-08-19 19:35:47.416,-0.24,-0.005
2021-08-19 19:35:47.420,-0.235,0.0
2021-08-19 19:35:47.424,-0.215,-0.02
2021-08-19 19:35:47.428,-0.24,-0.005
2021-08-19 19:35:47.432,-0.24,-0.01
2021-08-19 19:35:47.436,-0.25,-0.01
2021-08-19 19:35:47.440,-0.245,-0.015
2021-08-19 19:35:47.444,-0.265,-0.02
2021-08-19 19:35:47.448,-0.27,-0.015
2021-08-19 19:35:47.452,-0.24,0.0
2021-08-19 19:35:47.456,-0.25,-0.015
2021-08-19 19:35:47.460,-0.275,-0.005
2021-08-19 19:35:47.464,-0.265,0.0
2021-08-19 19:35:47.468,-0.23,0.0
2021-08-19 19:35:47.472,-0.265,0.015
2021-08-19 19:35:47.476,-0.24,0.02
2021-08-19 19:35:47.480,-0.245,0.0
2021-08-19 19:35:47.484,-0.24,0.0
2021-08-19 19:35:47.488,-0.23,0.015
2021-08-19 19:35:47.492,-0.225,0.025
2021-08-19 19:35:47.496,-0.215,0.04
2021-08-19 19:35:47.500,-0.2,0.04
2021-08-19 19:35:47.504,-0.22,0.025
2021-08-19 19:35:47.508,-0.215,0.04
2021-08-19 19:35:47.512,-0.23,0.03
2021-08-19 19:35:47.516,-0.225,0.03
2021-08-19 19:35:47.520,-0.22,0.015
2021-08-19 19:35:47.524,-0.21,0.0
2021-08-19 19:35:47.528,-0.23,-0.025
2021-08-19 19:35:47.532,-0.27,-0.075
2021-08-19 19:35:47.536,-0.28,-0.1
2021-08-19 19:35:47.540,-0.315,-0.1
2021-08-19 19:35:47.544,-0.34,-0.08
2021-08-19 19:35:47.548,-0.36,-0.065
2021-08-19 19:35:47.552,-0.36,-0.045
2021-08-19 19:35:47.556,-0.385,-0.025
2021-08-19 19:35:47.560,-0.385,0.0
2021-08-19 19:35:47.564,-0.375,0.01
2021-08-19 19:35:47.568,-0.39,0.035
2021-08-19 19:35:47.572,-0.37,0.035
2021-08-19 19:35:47.576,-0.37,-0.005
2021-08-19 19:35:47.580,-0.36,0.01
2021-08-19 19:35:47.584,-0.36,0.02
2021-08-19 19:35:47.588,-0.36,0.01
2021-08-19 19:35:47.592,-0.35,0.015
2021-08-19 19:35:47.596,-0.37,0.01
2021-08-19 19:35:47.600,-0.355,0.005
2021-08-19 19:35:47.604,-0.37,0.02
2021-08-19 19:35:47.608,-0.36,0.005
2021-08-19 19:35:47.612,-0.355,-0.005
2021-08-19 19:35:47.616,-0.345,-0.005
2021-08-19 19:35:47.620,-0.355,0.0
2021-08-19 19:35:47.624,-0.36,0.0
2021-08-19 19:35:47.628,-0.35,-0.02
2021-08-19 19:35:47.632,-0.37,-0.005
2021-08-19 19:35:47.636,-0.35,-0.01
2021-08-19 19:35:47.640,-0.345,0.0
2021-08-19 19:35:47.644,-0.335,-0.02
2021-08-19 19:35:47.648,-0.28,-0.02
2021-08-19 19:35:47.652,-0.21,-0.03
2021-08-19 19:35:47.656,-0.15,-0.045
2021-08-19 19:35:47.660,-0.055,-0.04
2021-08-19 19:35:47.664,0.0,-0.075
2021-08-19 19:35:47.668,0.055,-0.105
2021-08-19 19:35:47.672,0.11,-0.16
2021-08-19 19:35:47.676,0.115,-0.21
2021-08-19 19:35:47.680,0.115,-0.24
2021-08-19 19:35:47.684,0.125,-0.285
2021-08-19 19:35:47.688,0.125,-0.385
2021-08-19 19:35:47.692,0.23,-0.53
2021-08-19 19:35:47.696,0.51,-0.705
2021-08-19 19:35:47.700,0.815,-0.96
2021-08-19 19:35:47.704,0.99,-1.2
2021-08-19 19:35:47.708,0.95,-1.39
2021-08-19 19:35:47.712,0.61,-1.35
2021-08-19 19:35:47.716,0.13,-1.01
2021-08-19 19:35:47.720,-0.205,-0.61
2021-08-19 19:35:47.724,-0.35,-0.29
2021-08-19 19:35:47.728,-0.435,-0.12
2021-08-19 19:35:47.732,-0.435,0.0
2021-08-19 19:35:47.736,-0.44,0.065
2021-08-19 19:35:47.740,-0.475,0.095
2021-08-19 19:35:47.744,-0.5,0.12
2021-08-19 19:35:47.748,-0.505,0.135
2021-08-19 19:35:47.752,-0.53,0.15
2021-08-19 19:35:47.756,-0.52,0.12
2021-08-19 19:35:47.760,-0.535,0.13
2021-08-19 19:35:47.764,-0.54,0.14
2021-08-19 19:35:47.768,-0.54,0.11
2021-08-19 19:35:47.772,-0.535,0.09
2021-08-19 19:35:47.776,-0.54,0.11
2021-08-19 19:35:47.780,-0.53,0.105
2021-08-19 19:35:47.784,-0.56,0.09
2021-08-19 19:35:47.788,-0.57,0.105
2021-08-19 19:35:47.792,-0.575,0.105
2021-08-19 19:35:47.796,-0.57,0.12
2021-08-19 19:35:47.800,-0.57,0.09
2021-08-19 19:35:47.804,-0.585,0.095
2021-08-19 19:35:47.808,-0.57,0.09
2021-08-19 19:35:47.812,-0.54,0.085
2021-08-19 19:35:47.816,-0.545,0.12
2021-08-19 19:35:47.820,-0.56,0.09
2021-08-19 19:35:47.824,-0.56,0.115
2021-08-19 19:35:47.828,-0.58,0.09
2021-08-19 19:35:47.832,-0.585,0.105
2021-08-19 19:35:47.836,-0.595,0.115
2021-08-19 19:35:47.840,-0.575,0.125
2021-08-19 19:35:47.844,-0.58,0.105
2021-08-19 19:35:47.848,-0.59,0.09
2021-08-19 19:35:47.852,-0.585,0.11
2021-08-19 19:35:47.856,-0.59,0.11
2021-08-19 19:35:47.860,-0.6,0.12
2021-08-19 19:35:47.864,-0.6,0.12
2021-08-19 19:35:47.868,-0.615,0.11
2021-08-19 19:35:47.872,-0.6,0.13
2021-08-19 19:35:47.876,-0.59,0.12
2021-08-19 19:35:47.880,-0.58,0.125
2021-08-19 19:35:47.884,-0.585,0.115
2021-08-19 19:35:47.888,-0.575,0.085
2021-08-19 19:35:47.892,-0.55,0.095
2021-08-19 19:35:47.896,-0.56,0.08
2021-08-19 19:35:47.900,-0.56,0.08
2021-08-19 19:35:47.904,-0.555,0.07
2021-08-19 19:35:47.908,-0.54,0.075
2021-08-19 19:35:47.912,-0.525,0.05
2021-08-19 19:35:47.916,-0.525,0.045
2021-08-19 19:35:47.920,-0.5,0.02
2021-08-19 19:35:47.924,-0.49,0.04
2021-08-19 19:35:47.928,-0.48,0.05
2021-08-19 19:35:47.932,-0.44,0.03
2021-08-19 19:35:47.936,-0.43,0.04
2021-08-19 19:35:47.940,-0.415,0.035
2021-08-19 19:35:47.944,-0.405,0.035
2021-08-19 19:35:47.948,-0.39,0.025
2021-08-19 19:35:47.952,-0.37,0.03
2021-08-19 19:35:47.956,-0.37,0.03
2021-08-19 19:35:47.960,-0.36,0.025
2021-08-19 19:35:47.964,-0.37,0.03
2021-08-19 19:35:47.968,-0.34,0.045
2021-08-19 19:35:47.972,-0.34,0.025
2021-08-19 19:35:47.976,-0.345,0.03
2021-08-19 19:35:47.980,-0.33,0.04
2021-08-19 19:35:47.984,-0.335,0.055
2021-08-19 19:35:47.988,-0.35,0.035
2021-08-19 19:35:47.992,-0.36,0.06
2021-08-19 19:35:47.996,-0.37,0.05
2021-08-19 19:35:48.000,-0.355,0.04
2021-08-19 19:35:48.004,-0.355,0.055
2021-08-19 19:35:48.008,-0.35,0.05
2021-08-19 19:35:48.012,-0.35,0.06
2021-08-19 19:35:48.016,-0.325,0.06
2021-08-19 19:35:48.020,-0.345,0.07
2021-08-19 19:35:48.024,-0.335,0.06
2021-08-19 19:35:48.028,-0.34,0.06
2021-08-19 19:35:48.032,-0.345,0.08
2021-08-19 19:35:48.036,-0.33,0.1
2021-08-19 19:35:48.040,-0.33,0.1
2021-08-19 19:35:48.044,-0.315,0.085
2021-08-19 19:35:48.048,-0.355,0.07
2021-08-19 19:35:48.052,-0.33,0.08
2021-08-19 19:35:48.056,-0.315,0.09
2021-08-19 19:35:48.060,-0.3,0.1
2021-08-19 19:35:48.064,-0.305,0.12
2021-08-19 19:35:48.068,-0.315,0.095
2021-08-19 19:35:48.072,-0.305,0.135
2021-08-19 19:35:48.076,-0.3,0.125
2021-08-19 19:35:48.080,-0.29,0.1
2021-08-19 19:35:48.084,-0.265,0.12
2021-08-19 19:35:48.088,-0.26,0.135
2021-08-19 19:35:48.092,-0.27,0.15
2021-08-19 19:35:48.096,-0.26,0.13
2021-08-19 19:35:48.100,-0.28,0.15
2021-08-19 19:35:48.104,-0.27,0.145
2021-08-19 19:35:48.108,-0.285,0.14
2021-08-19 19:35:48.112,-0.27,0.135
2021-08-19 19:35:48.116,-0.265,0.135
2021-08-19 19:35:48.120,-0.245,0.085
2021-08-19 19:35:48.124,-0.27,0.06
2021-08-19 19:35:48.128,-0.3,0.04
2021-08-19 19:35:48.132,-0.325,0.0
2021-08-19 19:35:48.136,-0.36,0.0
2021-08-19 19:35:48.140,-0.39,0.02
2021-08-19 19:35:48.144,-0.395,0.025
2021-08-19 19:35:48.148,-0.405,0.025
2021-08-19 19:35:48.152,-0.41,0.08
2021-08-19 19:35:48.156,-0.41,0.1
2021-08-19 19:35:48.160,-0.4,0.095
2021-08-19 19:35:48.164,-0.39,0.09
2021-08-19 19:35:48.168,-0.4,0.1
2021-08-19 19:35:48.172,-0.375,0.08
2021-08-19 19:35:48.176,-0.36,0.075
2021-08-19 19:35:48.180,-0.365,0.09
2021-08-19 19:35:48.184,-0.355,0.075
2021-08-19 19:35:48.188,-0.355,0.07
2021-08-19 19:35:48.192,-0.36,0.08
2021-08-19 19:35:48.196,-0.35,0.05
2021-08-19 19:35:48.200,-0.35,0.065
2021-08-19 19:35:48.204,-0.37,0.055
2021-08-19 19:35:48.208,-0.365,0.05
2021-08-19 19:35:48.212,-0.34,0.065
2021-08-19 19:35:48.216,-0.35,0.04
2021-08-19 19:35:48.220,-0.35,0.05
2021-08-19 19:35:48.224,-0.345,0.045
2021-08-19 19:35:48.228,-0.355,0.055
2021-08-19 19:35:48.232,-0.355,0.035
2021-08-19 19:35:48.236,-0.34,0.05
2021-08-19 19:35:48.240,-0.32,0.06
2021-08-19 19:35:48.244,-0.27,0.04
2021-08-19 19:35:48.248,-0.205,0.025
2021-08-19 19:35:48.252,-0.125,0.04
2021-08-19 19:35:48.256,-0.05,0.02
2021-08-19 19:35:48.260,-0.005,0.0
2021-08-19 19:35:48.264,0.05,-0.05
2021-08-19 19:35:48.268,0.08,-0.08
2021-08-19 19:35:48.272,0.085,-0.145
2021-08-19 19:35:48.276,0.09,-0.18
2021-08-19 19:35:48.280,0.06,-0.235
2021-08-19 19:35:48.284,0.09,-0.35
2021-08-19 19:35:48.288,0.235,-0.49
2021-08-19 19:35:48.292,0.53,-0.685
2021-08-19 19:35:48.296,0.83,-0.95
2021-08-19 19:35:48.300,0.995,-1.2
2021-08-19 19:35:48.304,0.915,-1.325
2021-08-19 19:35:48.308,0.59,-1.25
2021-08-19 19:35:48.312,0.14,-0.88
2021-08-19 19:35:48.316,-0.19,-0.475
2021-08-19 19:35:48.320,-0.33,-0.185
2021-08-19 19:35:48.324,-0.38,-0.04
2021-08-19 19:35:48.328,-0.415,0.055
2021-08-19 19:35:48.332,-0.41,0.12
2021-08-19 19:35:48.336,-0.44,0.15
2021-08-19 19:35:48.340,-0.475,0.175
2021-08-19 19:35:48.344,-0.48,0.175
2021-08-19 19:35:48.348,-0.495,0.145
2021-08-19 19:35:48.352,-0.525,0.155
2021-08-19 19:35:48.356,-0.535,0.165
2021-08-19 19:35:48.360,-0.51,0.14
2021-08-19 19:35:48.364,-0.515,0.14
2021-08-19 19:35:48.368,-0.52,0.135
2021-08-19 19:35:48.372,-0.51,0.125
2021-08-19 19:35:48.376,-0.52,0.125
2021-08-19 19:35:48.380,-0.525,0.13
2021-08-19 19:35:48.384,-0.53,0.12
2021-08-19 19:35:48.388,-0.53,0.125
2021-08-19 19:35:48.392,-0.535,0.14
2021-08-19 19:35:48.396,-0.545,0.14
2021-08-19 19:35:48.400,-0.55,0.135
2021-08-19 19:35:48.404,-0.54,0.14
2021-08-19 19:35:48.408,-0.55,0.125
2021-08-19 19:35:48.412,-0.54,0.135
2021-08-19 19:35:48.416,-0.525,0.13
2021-08-19 19:35:48.420,-0.525,0.135
2021-08-19 19:35:48.424,-0.545,0.14
2021-08-19 19:35:48.428,-0.535,0.12
2021-08-19 19:35:48.432,-0.565,0.13
2021-08-19 19:35:48.436,-0.575,0.145
2021-08-19 19:35:48.440,-0.57,0.125
2021-08-19 19:35:48.444,-0.55,0.135
2021-08-19 19:35:48.448,-0.58,0.135
2021-08-19 19:35:48.452,-0.575,0.15
2021-08-19 19:35:48.456,-0.575,0.145
2021-08-19 19:35:48.460,-0.575,0.12
2021-08-19 19:35:48.464,-0.595,0.105
2021-08-19 19:35:48.468,-0.58,0.13
2021-08-19 19:35:48.472,-0.585,0.125
2021-08-19 19:35:48.476,-0.565,0.12
2021-08-19 19:35:48.480,-0.545,0.105
2021-08-19 19:35:48.484,-0.545,0.09
2021-08-19 19:35:48.488,-0.55,0.09
2021-08-19 19:35:48.492,-0.535,0.08
2021-08-19 19:35:48.496,-0.515,0.065
2021-08-19 19:35:48.500,-0.52,0.095
2021-08-19 19:35:48.504,-0.515,0.06
2021-08-19 19:35:48.508,-0.485,0.055
2021-08-19 19:35:48.512,-0.495,0.04
2021-08-19 19:35:48.516,-0.465,0.045
2021-08-19 19:35:48.520,-0.455,0.035
2021-08-19 19:35:48.524,-0.455,0.035
2021-08-19 19:35:48.528,-0.415,0.03
2021-08-19 19:35:48.532,-0.425,0.015
2021-08-19 19:35:48.536,-0.375,0.02
2021-08-19 19:35:48.540,-0.39,0.03
2021-08-19 19:35:48.544,-0.37,0.025
2021-08-19 19:35:48.548,-0.365,0.0
2021-08-19 19:35:48.552,-0.36,0.02
2021-08-19 19:35:48.556,-0.34,0.005
2021-08-19 19:35:48.560,-0.315,0.015
2021-08-19 19:35:48.564,-0.345,0.045
2021-08-19 19:35:48.568,-0.345,0.02
2021-08-19 19:35:48.572,-0.335,0.04
2021-08-19 19:35:48.576,-0.345,0.035
2021-08-19 19:35:48.580,-0.32,0.02
2021-08-19 19:35:48.584,-0.335,0.03
2021-08-19 19:35:48.588,-0.355,0.025
2021-08-19 19:35:48.592,-0.345,0.045
2021-08-19 19:35:48.596,-0.335,0.02
2021-08-19 19:35:48.600,-0.32,0.025
2021-08-19 19:35:48.604,-0.345,0.03
2021-08-19 19:35:48.608,-0.335,0.04
2021-08-19 19:35:48.612,-0.335,0.025
2021-08-19 19:35:48.616,-0.345,0.045
2021-08-19 19:35:48.620,-0.33,0.05
2021-08-19 19:35:48.624,-0.32,0.035
2021-08-19 19:35:48.628,-0.345,0.06
2021-08-19 19:35:48.632,-0.355,0.055
2021-08-19 19:35:48.636,-0.345,0.055
2021-08-19 19:35:48.640,-0.33,0.045
2021-08-19 19:35:48.644,-0.345,0.08
2021-08-19 19:35:48.648,-0.33,0.06
2021-08-19 19:35:48.652,-0.33,0.065
2021-08-19 19:35:48.656,-0.31,0.08
2021-08-19 19:35:48.660,-0.315,0.085
2021-08-19 19:35:48.664,-0.315,0.1
2021-08-19 19:35:48.668,-0.31,0.085
2021-08-19 19:35:48.672,-0.295,0.095
2021-08-19 19:35:48.676,-0.29,0.095
2021-08-19 19:35:48.680,-0.26,0.11
2021-08-19 19:35:48.684,-0.255,0.095
2021-08-19 19:35:48.688,-0.25,0.115
2021-08-19 19:35:48.692,-0.265,0.125
2021-08-19 19:35:48.696,-0.245,0.11
2021-08-19 19:35:48.700,-0.265,0.11
2021-08-19 19:35:48.704,-0.295,0.105
2021-08-19 19:35:48.708,-0.255,0.12
2021-08-19 19:35:48.712,-0.22,0.085
2021-08-19 19:35:48.716,-0.24,0.065
2021-08-19 19:35:48.720,-0.275,0.01
2021-08-19 19:35:48.724,-0.3,-0.025
2021-08-19 19:35:48.728,-0.32,-0.035
2021-08-19 19:35:48.732,-0.34,-0.02
2021-08-19 19:35:48.736,-0.37,-0.03
2021-08-19 19:35:48.740,-0.395,-0.005
2021-08-19 19:35:48.744,-0.39,0.01
2021-08-19 19:35:48.748,-0.395,0.055
2021-08-19 19:35:48.752,-0.395,0.085
2021-08-19 19:35:48.756,-0.385,0.085
2021-08-19 19:35:48.760,-0.39,0.065
2021-08-19 19:35:48.764,-0.39,0.08
2021-08-19 19:35:48.768,-0.355,0.06
2021-08-19 19:35:48.772,-0.355,0.055
2021-08-19 19:35:48.776,-0.355,0.03
2021-08-19 19:35:48.780,-0.345,0.045
2021-08-19 19:35:48.784,-0.33,0.025
2021-08-19 19:35:48.788,-0.34,0.04
2021-08-19 19:35:48.792,-0.35,0.045
2021-08-19 19:35:48.796,-0.355,0.05
2021-08-19 19:35:48.800,-0.335,0.045
2021-08-19 19:35:48.804,-0.35,0.045
2021-08-19 19:35:48.808,-0.355,0.03
2021-08-19 19:35:48.812,-0.36,0.015
2021-08-19 19:35:48.816,-0.325,0.05
2021-08-19 19:35:48.820,-0.345,0.04
2021-08-19 19:35:48.824,-0.35,0.025
2021-08-19 19:35:48.828,-0.345,0.015
2021-08-19 19:35:48.832,-0.33,0.015
2021-08-19 19:35:48.836,-0.31,0.01
2021-08-19 19:35:48.840,-0.26,0.025
2021-08-19 19:35:48.844,-0.185,0.005
2021-08-19 19:35:48.848,-0.1,0.0
2021-08-19 19:35:48.852,-0.04,-0.025
2021-08-19 19:35:48.856,0.015,-0.035
2021-08-19 19:35:48.860,0.055,-0.095
2021-08-19 19:35:48.864,0.085,-0.155
2021-08-19 19:35:48.868,0.1,-0.14
2021-08-19 19:35:48.872,0.055,-0.215
2021-08-19 19:35:48.876,0.04,-0.27
2021-08-19 19:35:48.880,0.145,-0.39
2021-08-19 19:35:48.884,0.35,-0.54
2021-08-19 19:35:48.888,0.675,-0.775
2021-08-19 19:35:48.892,0.93,-1.04
2021-08-19 19:35:48.896,0.995,-1.275
2021-08-19 19:35:48.900,0.81,-1.315
2021-08-19 19:35:48.904,0.385,-1.135
2021-08-19 19:35:48.908,-0.015,-0.71
2021-08-19 19:35:48.912,-0.27,-0.32
2021-08-19 19:35:48.916,-0.35,-0.095
2021-08-19 19:35:48.920,-0.385,0.015
2021-08-19 19:35:48.924,-0.41,0.11
2021-08-19 19:35:48.928,-0.42,0.155
2021-08-19 19:35:48.932,-0.44,0.17
2021-08-19 19:35:48.936,-0.465,0.175
2021-08-19 19:35:48.940,-0.465,0.165
2021-08-19 19:35:48.944,-0.485,0.165
2021-08-19 19:35:48.948,-0.495,0.155
2021-08-19 19:35:48.952,-0.485,0.165
2021-08-19 19:35:48.956,-0.475,0.15
2021-08-19 19:35:48.960,-0.49,0.115
2021-08-19 19:35:48.964,-0.505,0.115
2021-08-19 19:35:48.968,-0.49,0.13
2021-08-19 19:35:48.972,-0.49,0.14
2021-08-19 19:35:48.976,-0.505,0.15
2021-08-19 19:35:48.980,-0.505,0.14
2021-08-19 19:35:48.984,-0.51,0.14
2021-08-19 19:35:48.988,-0.495,0.13
2021-08-19 19:35:48.992,-0.495,0.14
2021-08-19 19:35:48.996,-0.525,0.145
2021-08-19 19:35:49.000,-0.53,0.145
2021-08-19 19:35:49.004,-0.53,0.15
2021-08-19 19:35:49.008,-0.515,0.15
2021-08-19 19:35:49.012,-0.505,0.155
2021-08-19 19:35:49.016,-0.5,0.165
2021-08-19 19:35:49.020,-0.505,0.175
2021-08-19 19:35:49.024,-0.495,0.16
2021-08-19 19:35:49.028,-0.515,0.175
2021-08-19 19:35:49.032,-0.53,0.17
2021-08-19 19:35:49.036,-0.51,0.185
2021-08-19 19:35:49.040,-0.515,0.175
2021-08-19 19:35:49.044,-0.49,0.17
2021-08-19 19:35:49.048,-0.505,0.155
2021-08-19 19:35:49.052,-0.5,0.155
2021-08-19 19:35:49.056,-0.5,0.175
2021-08-19 19:35:49.060,-0.51,0.18
2021-08-19 19:35:49.064,-0.5,0.15
2021-08-19 19:35:49.068,-0.48,0.155
2021-08-19 19:35:49.072,-0.475,0.15
2021-08-19 19:35:49.076,-0.46,0.15
2021-08-19 19:35:49.080,-0.465,0.16
2021-08-19 19:35:49.084,-0.42,0.125
2021-08-19 19:35:49.088,-0.435,0.12
2021-08-19 19:35:49.092,-0.42,0.1
2021-08-19 19:35:49.096,-0.425,0.1
2021-08-19 19:35:49.100,-0.405,0.1
2021-08-19 19:35:49.104,-0.4,0.075
2021-08-19 19:35:49.108,-0.405,0.075
2021-08-19 19:35:49.112,-0.375,0.065
2021-08-19 19:35:49.116,-0.355,0.06
2021-08-19 19:35:49.120,-0.335,0.05
2021-08-19 19:35:49.124,-0.315,0.05
2021-08-19 19:35:49.128,-0.31,0.05
2021-08-19 19:35:49.132,-0.31,0.045
2021-08-19 19:35:49.136,-0.28,0.035
2021-08-19 19:35:49.140,-0.28,0.045
2021-08-19 19:35:49.144,-0.245,0.055
2021-08-19 19:35:49.148,-0.23,0.035
2021-08-19 19:35:49.152,-0.24,0.06
2021-08-19 19:35:49.156,-0.24,0.045
2021-08-19 19:35:49.160,-0.225,0.04
2021-08-19 19:35:49.164,-0.21,0.05
2021-08-19 19:35:49.168,-0.21,0.045
2021-08-19 19:35:49.172,-0.205,0.035
2021-08-19 19:35:49.176,-0.215,0.025
2021-08-19 19:35:49.180,-0.22,0.02
2021-08-19 19:35:49.184,-0.215,0.035
2021-08-19 19:35:49.188,-0.23,0.04
2021-08-19 19:35:49.192,-0.23,0.03
2021-08-19 19:35:49.196,-0.215,0.035
2021-08-19 19:35:49.200,-0.21,0.045
2021-08-19 19:35:49.204,-0.21,0.025
2021-08-19 19:35:49.208,-0.195,0.025
2021-08-19 19:35:49.212,-0.215,0.03
2021-08-19 19:35:49.216,-0.195,0.02
2021-08-19 19:35:49.220,-0.205,0.02
2021-08-19 19:35:49.224,-0.19,0.025
2021-08-19 19:35:49.228,-0.21,0.045
2021-08-19 19:35:49.232,-0.21,0.05
2021-08-19 19:35:49.236,-0.215,0.07
2021-08-19 19:35:49.240,-0.21,0.08
2021-08-19 19:35:49.244,-0.215,0.065
2021-08-19 19:35:49.248,-0.185,0.04
2021-08-19 19:35:49.252,-0.18,0.06
2021-08-19 19:35:49.256,-0.16,0.06
2021-08-19 19:35:49.260,-0.15,0.06
2021-08-19 19:35:49.264,-0.16,0.07
2021-08-19 19:35:49.268,-0.16,0.065
2021-08-19 19:35:49.272,-0.14,0.07
2021-08-19 19:35:49.276,-0.115,0.075
2021-08-19 19:35:49.280,-0.14,0.09
2021-08-19 19:35:49.284,-0.125,0.095
2021-08-19 19:35:49.288,-0.11,0.09
2021-08-19 19:35:49.292,-0.11,0.075
2021-08-19 19:35:49.296,-0.085,0.07
2021-08-19 19:35:49.300,-0.08,0.06
2021-08-19 19:35:49.304,-0.07,0.04
2021-08-19 19:35:49.308,-0.105,0.0
2021-08-19 19:35:49.312,-0.125,-0.02
2021-08-19 19:35:49.316,-0.16,-0.045
2021-08-19 19:35:49.320,-0.19,-0.08
2021-08-19 19:35:49.324,-0.21,-0.06
2021-08-19 19:35:49.328,-0.225,-0.05
2021-08-19 19:35:49.332,-0.24,-0.035
2021-08-19 19:35:49.336,-0.26,-0.04
2021-08-19 19:35:49.340,-0.255,-0.01
2021-08-19 19:35:49.344,-0.255,0.005
2021-08-19 19:35:49.348,-0.255,0.0
2021-08-19 19:35:49.352,-0.245,0.0
2021-08-19 19:35:49.356,-0.24,0.0
2021-08-19 19:35:49.360,-0.24,-0.005
2021-08-19 19:35:49.364,-0.21,-0.01
2021-08-19 19:35:49.368,-0.205,0.005
2021-08-19 19:35:49.372,-0.195,-0.02
2021-08-19 19:35:49.376,-0.205,-0.015
2021-08-19 19:35:49.380,-0.22,-0.025
2021-08-19 19:35:49.384,-0.225,-0.005
2021-08-19 19:35:49.388,-0.21,-0.035
2021-08-19 19:35:49.392,-0.195,-0.03
2021-08-19 19:35:49.396,-0.19,-0.04
2021-08-19 19:35:49.400,-0.175,-0.025
2021-08-19 19:35:49.404,-0.2,-0.055
2021-08-19 19:35:49.408,-0.205,-0.055
2021-08-19 19:35:49.412,-0.2,-0.055
2021-08-19 19:35:49.416,-0.195,-0.05
2021-08-19 19:35:49.420,-0.17,-0.07
2021-08-19 19:35:49.424,-0.18,-0.055
2021-08-19 19:35:49.428,-0.155,-0.075
2021-08-19 19:35:49.432,-0.125,-0.07
2021-08-19 19:35:49.436,-0.05,-0.065
2021-08-19 19:35:49.440,0.035,-0.08
2021-08-19 19:35:49.444,0.135,-0.1
2021-08-19 19:35:49.448,0.195,-0.14
2021-08-19 19:35:49.452,0.26,-0.195
2021-08-19 19:35:49.456,0.305,-0.245
2021-08-19 19:35:49.460,0.33,-0.265
2021-08-19 19:35:49.464,0.33,-0.275
2021-08-19 19:35:49.468,0.315,-0.37
2021-08-19 19:35:49.472,0.315,-0.46
2021-08-19 19:35:49.476,0.455,-0.59
2021-08-19 19:35:49.480,0.725,-0.775
2021-08-19 19:35:49.484,1.015,-1.04
2021-08-19 19:35:49.488,1.155,-1.27
2021-08-19 19:35:49.492,1.03,-1.4
2021-08-19 19:35:49.496,0.665,-1.31
2021-08-19 19:35:49.500,0.22,-0.945
2021-08-19 19:35:49.504,-0.05,-0.56
2021-08-19 19:35:49.508,-0.155,-0.305
2021-08-19 19:35:49.512,-0.21,-0.16
2021-08-19 19:35:49.516,-0.25,-0.09
2021-08-19 19:35:49.520,-0.26,-0.01
2021-08-19 19:35:49.524,-0.295,0.03
2021-08-19 19:35:49.528,-0.32,0.055
2021-08-19 19:35:49.532,-0.335,0.055
2021-08-19 19:35:49.536,-0.34,0.025
2021-08-19 19:35:49.540,-0.38,0.015
2021-08-19 19:35:49.544,-0.4,-0.015
2021-08-19 19:35:49.548,-0.4,0.005
2021-08-19 19:35:49.552,-0.385,0.01
2021-08-19 19:35:49.556,-0.385,-0.01
2021-08-19 19:35:49.560,-0.4,-0.02
2021-08-19 19:35:49.564,-0.39,-0.03
2021-08-19 19:35:49.568,-0.39,-0.03
2021-08-19 19:35:49.572,-0.4,-0.03
2021-08-19 19:35:49.576,-0.4,-0.025
2021-08-19 19:35:49.580,-0.41,-0.025
2021-08-19 19:35:49.584,-0.41,-0.035
2021-08-19 19:35:49.588,-0.425,-0.035
2021-08-19 19:35:49.592,-0.43,-0.035
2021-08-19 19:35:49.596,-0.44,-0.04
2021-08-19 19:35:49.600,-0.435,-0.02
2021-08-19 19:35:49.604,-0.445,-0.03
2021-08-19 19:35:49.608,-0.42,-0.025
2021-08-19 19:35:49.612,-0.42,-0.025
2021-08-19 19:35:49.616,-0.415,-0.04
2021-08-19 19:35:49.620,-0.43,-0.01
2021-08-19 19:35:49.624,-0.445,-0.02
2021-08-19 19:35:49.628,-0.42,-0.02
2021-08-19 19:35:49.632,-0.445,-0.01
2021-08-19 19:35:49.636,-0.445,0.0
2021-08-19 19:35:49.640,-0.445,-0.005
2021-08-19 19:35:49.644,-0.435,-0.015
2021-08-19 19:35:49.648,-0.44,0.0
2021-08-19 19:35:49.652,-0.435,0.0
2021-08-19 19:35:49.656,-0.445,-0.01
2021-08-19 19:35:49.660,-0.445,-0.02
2021-08-19 19:35:49.664,-0.43,-0.01
2021-08-19 19:35:49.668,-0.415,-0.01
2021-08-19 19:35:49.672,-0.415,-0.04
2021-08-19 19:35:49.676,-0.415,-0.04
2021-08-19 19:35:49.680,-0.395,-0.06
2021-08-19 19:35:49.684,-0.375,-0.05
2021-08-19 19:35:49.688,-0.365,-0.045
2021-08-19 19:35:49.692,-0.36,-0.065
2021-08-19 19:35:49.696,-0.36,-0.06
2021-08-19 19:35:49.700,-0.33,-0.09
2021-08-19 19:35:49.704,-0.335,-0.08
2021-08-19 19:35:49.708,-0.325,-0.08
2021-08-19 19:35:49.712,-0.29,-0.115
2021-08-19 19:35:49.716,-0.29,-0.095
2021-08-19 19:35:49.720,-0.28,-0.12
2021-08-19 19:35:49.724,-0.255,-0.115
2021-08-19 19:35:49.728,-0.235,-0.085
2021-08-19 19:35:49.732,-0.245,-0.11
2021-08-19 19:35:49.736,-0.215,-0.11
2021-08-19 19:35:49.740,-0.215,-0.11
2021-08-19 19:35:49.744,-0.21,-0.105
2021-08-19 19:35:49.748,-0.21,-0.095
2021-08-19 19:35:49.752,-0.195,-0.105
2021-08-19 19:35:49.756,-0.195,-0.125
2021-08-19 19:35:49.760,-0.16,-0.12
2021-08-19 19:35:49.764,-0.185,-0.11
2021-08-19 19:35:49.768,-0.17,-0.11
2021-08-19 19:35:49.772,-0.16,-0.1
2021-08-19 19:35:49.776,-0.18,-0.115
2021-08-19 19:35:49.780,-0.185,-0.1
2021-08-19 19:35:49.784,-0.19,-0.085
2021-08-19 19:35:49.788,-0.215,-0.075
2021-08-19 19:35:49.792,-0.18,-0.11
2021-08-19 19:35:49.796,-0.2,-0.09
2021-08-19 19:35:49.800,-0.18,-0.075
2021-08-19 19:35:49.804,-0.18,-0.07
2021-08-19 19:35:49.808,-0.195,-0.095
2021-08-19 19:35:49.812,-0.195,-0.085
2021-08-19 19:35:49.816,-0.18,-0.08
2021-08-19 19:35:49.820,-0.18,-0.075
2021-08-19 19:35:49.824,-0.205,-0.065
2021-08-19 19:35:49.828,-0.2,-0.055
2021-08-19 19:35:49.832,-0.19,-0.075
2021-08-19 19:35:49.836,-0.195,-0.07
2021-08-19 19:35:49.840,-0.18,-0.06
2021-08-19 19:35:49.844,-0.165,-0.04
2021-08-19 19:35:49.848,-0.17,-0.025
2021-08-19 19:35:49.852,-0.145,-0.03
2021-08-19 19:35:49.856,-0.145,-0.035
2021-08-19 19:35:49.860,-0.14,-0.04
2021-08-19 19:35:49.864,-0.13,-0.02
2021-08-19 19:35:49.868,-0.145,-0.01
2021-08-19 19:35:49.872,-0.14,0.005
2021-08-19 19:35:49.876,-0.115,0.01
2021-08-19 19:35:49.880,-0.115,0.0
2021-08-19 19:35:49.884,-0.12,-0.01
2021-08-19 19:35:49.888,-0.12,0.005
2021-08-19 19:35:49.892,-0.09,0.0
2021-08-19 19:35:49.896,-0.09,-0.005
2021-08-19 19:35:49.900,-0.095,-0.045
2021-08-19 19:35:49.904,-0.115,-0.085
2021-08-19 19:35:49.908,-0.16,-0.11
2021-08-19 19:35:49.912,-0.215,-0.11
2021-08-19 19:35:49.916,-0.235,-0.095
2021-08-19 19:35:49.920,-0.255,-0.125
2021-08-19 19:35:49.924,-0.265,-0.07
2021-08-19 19:35:49.928,-0.26,-0.05
2021-08-19 19:35:49.932,-0.275,-0.025
2021-08-19 19:35:49.936,-0.275,-0.005
2021-08-19 19:35:49.940,-0.265,0.005
2021-08-19 19:35:49.944,-0.25,0.015
2021-08-19 19:35:49.948,-0.25,-0.005
2021-08-19 19:35:49.952,-0.255,0.0
2021-08-19 19:35:49.956,-0.25,0.0
2021-08-19 19:35:49.960,-0.245,0.01
2021-08-19 19:35:49.964,-0.24,0.0
2021-08-19 19:35:49.968,-0.225,0.005
2021-08-19 19:35:49.972,-0.26,0.01
2021-08-19 19:35:49.976,-0.22,0.0
2021-08-19 19:35:49.980,-0.22,-0.005
2021-08-19 19:35:49.984,-0.23,-0.005
2021-08-19 19:35:49.988,-0.24,0.015
2021-08-19 19:35:49.992,-0.24,0.01
2021-08-19 19:35:49.996,-0.23,0.0
2021-08-19 19:35:50.000,-0.235,0.02
2021-08-19 19:35:50.004,-0.255,0.005
2021-08-19 19:35:50.008,-0.24,0.015
2021-08-19 19:35:50.012,-0.225,0.015
2021-08-19 19:35:50.016,-0.22,0.01
2021-08-19 19:35:50.020,-0.22,0.02
2021-08-19 19:35:50.024,-0.16,0.015
2021-08-19 19:35:50.028,-0.11,0.01
2021-08-19 19:35:50.032,-0.025,0.0
2021-08-19 19:35:50.036,0.07,-0.03
2021-08-19 19:35:50.040,0.145,-0.035
2021-08-19 19:35:50.044,0.195,-0.095
2021-08-19 19:35:50.048,0.23,-0.16
2021-08-19 19:35:50.052,0.27,-0.17
2021-08-19 19:35:50.056,0.275,-0.2
2021-08-19 19:35:50.060,0.245,-0.285
2021-08-19 19:35:50.064,0.315,-0.385
2021-08-19 19:35:50.068,0.495,-0.555
2021-08-19 19:35:50.072,0.79,-0.79
2021-08-19 19:35:50.076,1.065,-1.045
2021-08-19 19:35:50.080,1.15,-1.25
2021-08-19 19:35:50.084,0.92,-1.335
2021-08-19 19:35:50.088,0.48,-1.135
2021-08-19 19:35:50.092,0.065,-0.745
2021-08-19 19:35:50.096,-0.16,-0.345
2021-08-19 19:35:50.100,-0.28,-0.16
2021-08-19 19:35:50.104,-0.32,-0.035
2021-08-19 19:35:50.108,-0.35,0.05
2021-08-19 19:35:50.112,-0.365,0.115
2021-08-19 19:35:50.116,-0.4,0.145
2021-08-19 19:35:50.120,-0.4,0.16
2021-08-19 19:35:50.124,-0.415,0.155
2021-08-19 19:35:50.128,-0.435,0.145
2021-08-19 19:35:50.132,-0.44,0.105
2021-08-19 19:35:50.136,-0.475,0.12
2021-08-19 19:35:50.140,-0.455,0.115
2021-08-19 19:35:50.144,-0.48,0.125
2021-08-19 19:35:50.148,-0.485,0.125
2021-08-19 19:35:50.152,-0.495,0.125
2021-08-19 19:35:50.156,-0.51,0.11
2021-08-19 19:35:50.160,-0.5,0.1
2021-08-19 19:35:50.164,-0.515,0.1
2021-08-19 19:35:50.168,-0.515,0.125
2021-08-19 19:35:50.172,-0.52,0.11
2021-08-19 19:35:50.176,-0.52,0.105
2021-08-19 19:35:50.180,-0.53,0.11
2021-08-19 19:35:50.184,-0.535,0.1
2021-08-19 19:35:50.188,-0.545,0.095
2021-08-19 19:35:50.192,-0.565,0.1
2021-08-19 19:35:50.196,-0.565,0.105
2021-08-19 19:35:50.200,-0.555,0.12
2021-08-19 19:35:50.204,-0.545,0.105
2021-08-19 19:35:50.208,-0.55,0.12
2021-08-19 19:35:50.212,-0.555,0.13
2021-08-19 19:35:50.216,-0.57,0.11
2021-08-19 19:35:50.220,-0.585,0.12
2021-08-19 19:35:50.224,-0.555,0.11
2021-08-19 19:35:50.228,-0.575,0.125
2021-08-19 19:35:50.232,-0.55,0.13
2021-08-19 19:35:50.236,-0.58,0.14
2021-08-19 19:35:50.240,-0.58,0.11
2021-08-19 19:35:50.244,-0.565,0.13
2021-08-19 19:35:50.248,-0.56,0.13
2021-08-19 19:35:50.252,-0.56,0.115
2021-08-19 19:35:50.256,-0.57,0.115
2021-08-19 19:35:50.260,-0.575,0.11
2021-08-19 19:35:50.264,-0.55,0.105
2021-08-19 19:35:50.268,-0.535,0.085
2021-08-19 19:35:50.272,-0.54,0.085
2021-08-19 19:35:50.276,-0.515,0.07
2021-08-19 19:35:50.280,-0.52,0.065
2021-08-19 19:35:50.284,-0.515,0.055
2021-08-19 19:35:50.288,-0.5,0.05
2021-08-19 19:35:50.292,-0.475,0.04
2021-08-19 19:35:50.296,-0.49,0.015
2021-08-19 19:35:50.300,-0.445,0.01
2021-08-19 19:35:50.304,-0.43,0.0
2021-08-19 19:35:50.308,-0.43,-0.01
2021-08-19 19:35:50.312,-0.435,-0.005
2021-08-19 19:35:50.316,-0.405,-0.015
2021-08-19 19:35:50.320,-0.39,0.0
2021-08-19 19:35:50.324,-0.385,0.01
2021-08-19 19:35:50.328,-0.37,-0.005
2021-08-19 19:35:50.332,-0.375,-0.02
2021-08-19 19:35:50.336,-0.38,0.025
2021-08-19 19:35:50.340,-0.34,0.02
2021-08-19 19:35:50.344,-0.345,0.015
2021-08-19 19:35:50.348,-0.345,0.0
2021-08-19 19:35:50.352,-0.355,0.03
2021-08-19 19:35:50.356,-0.35,0.03
2021-08-19 19:35:50.360,-0.34,0.01
2021-08-19 19:35:50.364,-0.35,0.025
2021-08-19 19:35:50.368,-0.345,0.015
2021-08-19 19:35:50.372,-0.34,0.02
2021-08-19 19:35:50.376,-0.355,0.015
2021-08-19 19:35:50.380,-0.37,0.025
2021-08-19 19:35:50.384,-0.36,0.01
2021-08-19 19:35:50.388,-0.365,0.02
2021-08-19 19:35:50.392,-0.355,0.03
2021-08-19 19:35:50.396,-0.335,0.015
2021-08-19 19:35:50.400,-0.33,0.01
2021-08-19 19:35:50.404,-0.345,0.02
2021-08-19 19:35:50.408,-0.34,0.015
2021-08-19 19:35:50.412,-0.325,0.025
2021-08-19 19:35:50.416,-0.35,0.01
2021-08-19 19:35:50.420,-0.345,0.025
2021-08-19 19:35:50.424,-0.355,0.05
2021-08-19 19:35:50.428,-0.365,0.035
2021-08-19 19:35:50.432,-0.355,0.035
2021-08-19 19:35:50.436,-0.34,0.06
2021-08-19 19:35:50.440,-0.32,0.05
2021-08-19 19:35:50.444,-0.315,0.055
2021-08-19 19:35:50.448,-0.315,0.045
2021-08-19 19:35:50.452,-0.305,0.065
2021-08-19 19:35:50.456,-0.3,0.045
2021-08-19 19:35:50.460,-0.295,0.05
2021-08-19 19:35:50.464,-0.275,0.09
2021-08-19 19:35:50.468,-0.27,0.08
2021-08-19 19:35:50.472,-0.255,0.13
2021-08-19 19:35:50.476,-0.26,0.105
2021-08-19 19:35:50.480,-0.28,0.1
2021-08-19 19:35:50.484,-0.285,0.08
2021-08-19 19:35:50.488,-0.275,0.065
2021-08-19 19:35:50.492,-0.24,0.075
2021-08-19 19:35:50.496,-0.25,0.03
2021-08-19 19:35:50.500,-0.28,-0.02
2021-08-19 19:35:50.504,-0.325,-0.015
2021-08-19 19:35:50.508,-0.365,-0.055
2021-08-19 19:35:50.512,-0.39,-0.025
2021-08-19 19:35:50.516,-0.395,-0.035
2021-08-19 19:35:50.520,-0.43,-0.01
2021-08-19 19:35:50.524,-0.43,0.0
2021-08-19 19:35:50.528,-0.43,0.0
2021-08-19 19:35:50.532,-0.43,0.04
2021-08-19 19:35:50.536,-0.41,0.07
2021-08-19 19:35:50.540,-0.43,0.075
2021-08-19 19:35:50.544,-0.425,0.05
2021-08-19 19:35:50.548,-0.42,0.05
2021-08-19 19:35:50.552,-0.41,0.04
2021-08-19 19:35:50.556,-0.4,0.045
2021-08-19 19:35:50.560,-0.4,0.04
2021-08-19 19:35:50.564,-0.4,0.04
2021-08-19 19:35:50.568,-0.395,0.035
2021-08-19 19:35:50.572,-0.395,0.05
2021-08-19 19:35:50.576,-0.405,0.055
2021-08-19 19:35:50.580,-0.39,0.04
2021-08-19 19:35:50.584,-0.39,0.035
2021-08-19 19:35:50.588,-0.38,0.015
2021-08-19 19:35:50.592,-0.39,0.035
2021-08-19 19:35:50.596,-0.375,-0.005
2021-08-19 19:35:50.600,-0.39,-0.005
2021-08-19 19:35:50.604,-0.395,0.0
2021-08-19 19:35:50.608,-0.38,0.005
2021-08-19 19:35:50.612,-0.365,0.0
2021-08-19 19:35:50.616,-0.375,-0.025
2021-08-19 19:35:50.620,-0.35,-0.015
2021-08-19 19:35:50.624,-0.29,-0.02
2021-08-19 19:35:50.628,-0.21,-0.025
2021-08-19 19:35:50.632,-0.135,-0.005
2021-08-19 19:35:50.636,-0.07,-0.04
2021-08-19 19:35:50.640,-0.02,-0.08
2021-08-19 19:35:50.644,0.025,-0.13
2021-08-19 19:35:50.648,0.035,-0.17
2021-08-19 19:35:50.652,0.035,-0.205
2021-08-19 19:35:50.656,0.0,-0.255
2021-08-19 19:35:50.660,0.005,-0.335
2021-08-19 19:35:50.664,0.09,-0.495
2021-08-19 19:35:50.668,0.295,-0.675
2021-08-19 19:35:50.672,0.6,-0.9
2021-08-19 19:35:50.676,0.87,-1.14
2021-08-19 19:35:50.680,0.93,-1.33
2021-08-19 19:35:50.684,0.695,-1.385
2021-08-19 19:35:50.688,0.26,-1.14
2021-08-19 19:35:50.692,-0.14,-0.725
2021-08-19 19:35:50.696,-0.36,-0.33
2021-08-19 19:35:50.700,-0.45,-0.13
2021-08-19 19:35:50.704,-0.48,-0.01
2021-08-19 19:35:50.708,-0.485,0.035
2021-08-19 19:35:50.712,-0.51,0.115
2021-08-19 19:35:50.716,-0.53,0.135
2021-08-19 19:35:50.720,-0.56,0.15
2021-08-19 19:35:50.724,-0.555,0.15
2021-08-19 19:35:50.728,-0.555,0.14
2021-08-19 19:35:50.732,-0.56,0.13
2021-08-19 19:35:50.736,-0.595,0.1
2021-08-19 19:35:50.740,-0.59,0.1
2021-08-19 19:35:50.744,-0.62,0.1
2021-08-19 19:35:50.748,-0.59,0.095
2021-08-19 19:35:50.752,-0.61,0.105
2021-08-19 19:35:50.756,-0.625,0.095
2021-08-19 19:35:50.760,-0.61,0.095
2021-08-19 19:35:50.764,-0.595,0.095
2021-08-19 19:35:50.768,-0.61,0.065
2021-08-19 19:35:50.772,-0.61,0.065
2021-08-19 19:35:50.776,-0.63,0.075
2021-08-19 19:35:50.780,-0.61,0.08
2021-08-19 19:35:50.784,-0.635,0.07
2021-08-19 19:35:50.788,-0.645,0.075
2021-08-19 19:35:50.792,-0.65,0.085
2021-08-19 19:35:50.796,-0.65,0.075
2021-08-19 19:35:50.800,-0.65,0.065
2021-08-19 19:35:50.804,-0.66,0.08
2021-08-19 19:35:50.808,-0.64,0.06
2021-08-19 19:35:50.812,-0.65,0.06
2021-08-19 19:35:50.816,-0.665,0.07
2021-08-19 19:35:50.820,-0.65,0.07
2021-08-19 19:35:50.824,-0.65,0.075
2021-08-19 19:35:50.828,-0.66,0.075
2021-08-19 19:35:50.832,-0.65,0.08
2021-08-19 19:35:50.836,-0.66,0.075
2021-08-19 19:35:50.840,-0.66,0.085
2021-08-19 19:35:50.844,-0.635,0.085
2021-08-19 19:35:50.848,-0.655,0.09
2021-08-19 19:35:50.852,-0.65,0.065
2021-08-19 19:35:50.856,-0.635,0.085
2021-08-19 19:35:50.860,-0.64,0.075
2021-08-19 19:35:50.864,-0.635,0.055
2021-08-19 19:35:50.868,-0.615,0.045
2021-08-19 19:35:50.872,-0.62,0.04
2021-08-19 19:35:50.876,-0.61,0.04
2021-08-19 19:35:50.880,-0.62,0.02
2021-08-19 19:35:50.884,-0.585,0.02
2021-08-19 19:35:50.888,-0.59,0.025
2021-08-19 19:35:50.892,-0.58,0.015
2021-08-19 19:35:50.896,-0.555,0.005
2021-08-19 19:35:50.900,-0.535,0.0
2021-08-19 19:35:50.904,-0.54,-0.01
2021-08-19 19:35:50.908,-0.51,-0.035
2021-08-19 19:35:50.912,-0.51,-0.03
2021-08-19 19:35:50.916,-0.48,-0.035
2021-08-19 19:35:50.920,-0.47,-0.03
2021-08-19 19:35:50.924,-0.465,-0.015
2021-08-19 19:35:50.928,-0.47,-0.03
2021-08-19 19:35:50.932,-0.435,-0.02
2021-08-19 19:35:50.936,-0.45,-0.005
2021-08-19 19:35:50.940,-0.44,-0.005
2021-08-19 19:35:50.944,-0.415,-0.025
2021-08-19 19:35:50.948,-0.415,-0.02
2021-08-19 19:35:50.952,-0.43,0.0
2021-08-19 19:35:50.956,-0.43,-0.01
2021-08-19 19:35:50.960,-0.395,-0.015
2021-08-19 19:35:50.964,-0.39,-0.01
2021-08-19 19:35:50.968,-0.41,0.01
2021-08-19 19:35:50.972,-0.415,0.0
2021-08-19 19:35:50.976,-0.41,-0.005
2021-08-19 19:35:50.980,-0.41,0.005
2021-08-19 19:35:50.984,-0.43,0.0
2021-08-19 19:35:50.988,-0.425,-0.01
2021-08-19 19:35:50.992,-0.415,-0.005
2021-08-19 19:35:50.996,-0.41,0.005
2021-08-19 19:35:51.000,-0.415,0.04
2021-08-19 19:35:51.004,-0.39,0.02
2021-08-19 19:35:51.008,-0.4,0.02
2021-08-19 19:35:51.012,-0.39,0.0
2021-08-19 19:35:51.016,-0.41,0.015
2021-08-19 19:35:51.020,-0.405,0.0
2021-08-19 19:35:51.024,-0.4,0.02
2021-08-19 19:35:51.028,-0.42,0.02
2021-08-19 19:35:51.032,-0.4,0.055
2021-08-19 19:35:51.036,-0.37,0.03
2021-08-19 19:35:51.040,-0.37,0.055
2021-08-19 19:35:51.044,-0.355,0.045
2021-08-19 19:35:51.048,-0.37,0.045
2021-08-19 19:35:51.052,-0.345,0.075
2021-08-19 19:35:51.056,-0.35,0.06
2021-08-19 19:35:51.060,-0.315,0.075
2021-08-19 19:35:51.064,-0.315,0.095
2021-08-19 19:35:51.068,-0.33,0.095
2021-08-19 19:35:51.072,-0.33,0.115
2021-08-19 19:35:51.076,-0.32,0.085
2021-08-19 19:35:51.080,-0.32,0.095
2021-08-19 19:35:51.084,-0.32,0.085
2021-08-19 19:35:51.088,-0.315,0.09
2021-08-19 19:35:51.092,-0.29,0.07
2021-08-19 19:35:51.096,-0.305,0.04
2021-08-19 19:35:51.100,-0.355,0.0
2021-08-19 19:35:51.104,-0.38,-0.035
2021-08-19 19:35:51.108,-0.425,-0.02
2021-08-19 19:35:51.112,-0.43,-0.015
2021-08-19 19:35:51.116,-0.46,-0.01
2021-08-19 19:35:51.120,-0.465,0.0
2021-08-19 19:35:51.124,-0.46,0.04
2021-08-19 19:35:51.128,-0.47,0.055
2021-08-19 19:35:51.132,-0.475,0.03
2021-08-19 19:35:51.136,-0.46,0.05
2021-08-19 19:35:51.140,-0.45,0.03
2021-08-19 19:35:51.144,-0.46,0.04
2021-08-19 19:35:51.148,-0.45,0.03
2021-08-19 19:35:51.152,-0.45,0.055
2021-08-19 19:35:51.156,-0.425,0.035
2021-08-19 19:35:51.160,-0.435,0.015
2021-08-19 19:35:51.164,-0.43,0.015
2021-08-19 19:35:51.168,-0.42,0.015
2021-08-19 19:35:51.172,-0.42,0.01
2021-08-19 19:35:51.176,-0.4,0.0
2021-08-19 19:35:51.180,-0.425,0.005
2021-08-19 19:35:51.184,-0.415,0.01
2021-08-19 19:35:51.188,-0.415,0.01
2021-08-19 19:35:51.192,-0.405,0.005
2021-08-19 19:35:51.196,-0.42,0.0
2021-08-19 19:35:51.200,-0.42,-0.005
2021-08-19 19:35:51.204,-0.415,0.01
2021-08-19 19:35:51.208,-0.4,0.0
2021-08-19 19:35:51.212,-0.38,0.0
2021-08-19 19:35:51.216,-0.365,-0.005
2021-08-19 19:35:51.220,-0.315,-0.03
2021-08-19 19:35:51.224,-0.235,-0.02
2021-08-19 19:35:51.228,-0.13,-0.045
2021-08-19 19:35:51.232,-0.075,-0.07
2021-08-19 19:35:51.236,-0.04,-0.1
2021-08-19 19:35:51.240,-0.005,-0.15
2021-08-19 19:35:51.244,0.025,-0.215
2021-08-19 19:35:51.248,0.025,-0.25
2021-08-19 19:35:51.252,0.005,-0.305
2021-08-19 19:35:51.256,-0.005,-0.4
2021-08-19 19:35:51.260,0.105,-0.525
2021-08-19 19:35:51.264,0.38,-0.695
2021-08-19 19:35:51.268,0.695,-0.955
2021-08-19 19:35:51.272,0.9,-1.17
2021-08-19 19:35:51.276,0.89,-1.39
2021-08-19 19:35:51.280,0.61,-1.38
2021-08-19 19:35:51.284,0.165,-1.075
2021-08-19 19:35:51.288,-0.21,-0.62
2021-08-19 19:35:51.292,-0.385,-0.3
2021-08-19 19:35:51.296,-0.44,-0.105
2021-08-19 19:35:51.300,-0.47,-0.005
2021-08-19 19:35:51.304,-0.48,0.045
2021-08-19 19:35:51.308,-0.51,0.08
2021-08-19 19:35:51.312,-0.545,0.12
2021-08-19 19:35:51.316,-0.53,0.135
2021-08-19 19:35:51.320,-0.535,0.115
2021-08-19 19:35:51.324,-0.545,0.115
2021-08-19 19:35:51.328,-0.565,0.09
2021-08-19 19:35:51.332,-0.585,0.08
2021-08-19 19:35:51.336,-0.59,0.065
2021-08-19 19:35:51.340,-0.6,0.085
2021-08-19 19:35:51.344,-0.6,0.09
2021-08-19 19:35:51.348,-0.59,0.08
2021-08-19 19:35:51.352,-0.595,0.085
2021-08-19 19:35:51.356,-0.605,0.06
2021-08-19 19:35:51.360,-0.595,0.07
2021-08-19 19:35:51.364,-0.595,0.075
2021-08-19 19:35:51.368,-0.595,0.07
2021-08-19 19:35:51.372,-0.595,0.065
2021-08-19 19:35:51.376,-0.595,0.055
2021-08-19 19:35:51.380,-0.605,0.055
2021-08-19 19:35:51.384,-0.61,0.065
2021-08-19 19:35:51.388,-0.62,0.065
2021-08-19 19:35:51.392,-0.615,0.07
2021-08-19 19:35:51.396,-0.61,0.07
2021-08-19 19:35:51.400,-0.595,0.06
2021-08-19 19:35:51.404,-0.625,0.07
2021-08-19 19:35:51.408,-0.59,0.08
2021-08-19 19:35:51.412,-0.6,0.07
2021-08-19 19:35:51.416,-0.6,0.075
2021-08-19 19:35:51.420,-0.595,0.09
2021-08-19 19:35:51.424,-0.595,0.08
2021-08-19 19:35:51.428,-0.585,0.09
2021-08-19 19:35:51.432,-0.57,0.075
2021-08-19 19:35:51.436,-0.58,0.075
2021-08-19 19:35:51.440,-0.565,0.075
2021-08-19 19:35:51.444,-0.575,0.075
2021-08-19 19:35:51.448,-0.565,0.055
2021-08-19 19:35:51.452,-0.585,0.075
2021-08-19 19:35:51.456,-0.58,0.07
2021-08-19 19:35:51.460,-0.55,0.045
2021-08-19 19:35:51.464,-0.545,0.045
2021-08-19 19:35:51.468,-0.555,0.06
2021-08-19 19:35:51.472,-0.525,0.035
2021-08-19 19:35:51.476,-0.515,0.02
2021-08-19 19:35:51.480,-0.505,0.03
2021-08-19 19:35:51.484,-0.495,0.0
2021-08-19 19:35:51.488,-0.485,-0.01
2021-08-19 19:35:51.492,-0.495,-0.01
2021-08-19 19:35:51.496,-0.455,-0.025
2021-08-19 19:35:51.500,-0.465,-0.025
2021-08-19 19:35:51.504,-0.45,-0.02
2021-08-19 19:35:51.508,-0.44,-0.035
2021-08-19 19:35:51.512,-0.405,-0.055
2021-08-19 19:35:51.516,-0.39,-0.055
2021-08-19 19:35:51.520,-0.395,-0.065
2021-08-19 19:35:51.524,-0.385,-0.045
2021-08-19 19:35:51.528,-0.36,-0.05
2021-08-19 19:35:51.532,-0.365,-0.045
2021-08-19 19:35:51.536,-0.35,-0.055
2021-08-19 19:35:51.540,-0.35,-0.065
2021-08-19 19:35:51.544,-0.345,-0.04
2021-08-19 19:35:51.548,-0.34,-0.035
2021-08-19 19:35:51.552,-0.32,-0.045
2021-08-19 19:35:51.556,-0.325,-0.055
2021-08-19 19:35:51.560,-0.345,-0.06
2021-08-19 19:35:51.564,-0.335,-0.055
2021-08-19 19:35:51.568,-0.34,-0.07
2021-08-19 19:35:51.572,-0.35,-0.06
2021-08-19 19:35:51.576,-0.345,-0.06
2021-08-19 19:35:51.580,-0.33,-0.055
2021-08-19 19:35:51.584,-0.32,-0.05
2021-08-19 19:35:51.588,-0.345,-0.055
2021-08-19 19:35:51.592,-0.32,-0.055
2021-08-19 19:35:51.596,-0.33,-0.06
2021-08-19 19:35:51.600,-0.315,-0.08
2021-08-19 19:35:51.604,-0.34,-0.075
2021-08-19 19:35:51.608,-0.335,-0.03
2021-08-19 19:35:51.612,-0.34,-0.04
2021-08-19 19:35:51.616,-0.34,-0.06
2021-08-19 19:35:51.620,-0.355,-0.05
2021-08-19 19:35:51.624,-0.335,-0.055
2021-08-19 19:35:51.628,-0.315,-0.04
2021-08-19 19:35:51.632,-0.315,-0.02
2021-08-19 19:35:51.636,-0.295,-0.04
2021-08-19 19:35:51.640,-0.3,-0.035
2021-08-19 19:35:51.644,-0.275,-0.045
2021-08-19 19:35:51.648,-0.275,-0.05
2021-08-19 19:35:51.652,-0.26,-0.05
2021-08-19 19:35:51.656,-0.24,-0.01
2021-08-19 19:35:51.660,-0.24,0.0
2021-08-19 19:35:51.664,-0.235,-0.01
2021-08-19 19:35:51.668,-0.24,-0.02
2021-08-19 19:35:51.672,-0.235,-0.035
2021-08-19 19:35:51.676,-0.215,-0.06
2021-08-19 19:35:51.680,-0.2,-0.065
2021-08-19 19:35:51.684,-0.205,-0.09
2021-08-19 19:35:51.688,-0.25,-0.13
2021-08-19 19:35:51.692,-0.27,-0.17
2021-08-19 19:35:51.696,-0.32,-0.18
2021-08-19 19:35:51.700,-0.365,-0.18
2021-08-19 19:35:51.704,-0.38,-0.16
2021-08-19 19:35:51.708,-0.385,-0.155
2021-08-19 19:35:51.712,-0.38,-0.145
2021-08-19 19:35:51.716,-0.385,-0.125
2021-08-19 19:35:51.720,-0.37,-0.08
2021-08-19 19:35:51.724,-0.365,-0.1
2021-08-19 19:35:51.728,-0.35,-0.115
2021-08-19 19:35:51.732,-0.37,-0.1
2021-08-19 19:35:51.736,-0.375,-0.085
2021-08-19 19:35:51.740,-0.38,-0.085
2021-08-19 19:35:51.744,-0.365,-0.095
2021-08-19 19:35:51.748,-0.36,-0.1
2021-08-19 19:35:51.752,-0.345,-0.12
2021-08-19 19:35:51.756,-0.345,-0.14
2021-08-19 19:35:51.760,-0.345,-0.115
2021-08-19 19:35:51.764,-0.335,-0.105
2021-08-19 19:35:51.768,-0.33,-0.125
2021-08-19 19:35:51.772,-0.325,-0.115
2021-08-19 19:35:51.776,-0.33,-0.13
2021-08-19 19:35:51.780,-0.32,-0.145
2021-08-19 19:35:51.784,-0.325,-0.125
2021-08-19 19:35:51.788,-0.32,-0.135
2021-08-19 19:35:51.792,-0.335,-0.14
2021-08-19 19:35:51.796,-0.305,-0.14
2021-08-19 19:35:51.800,-0.305,-0.145
2021-08-19 19:35:51.804,-0.29,-0.135
2021-08-19 19:35:51.808,-0.23,-0.15
2021-08-19 19:35:51.812,-0.175,-0.15
2021-08-19 19:35:51.816,-0.08,-0.175
2021-08-19 19:35:51.820,0.03,-0.185
2021-08-19 19:35:51.824,0.125,-0.225
2021-08-19 19:35:51.828,0.19,-0.26
2021-08-19 19:35:51.832,0.25,-0.32
2021-08-19 19:35:51.836,0.3,-0.345
2021-08-19 19:35:51.840,0.255,-0.375
2021-08-19 19:35:51.844,0.21,-0.42
2021-08-19 19:35:51.848,0.255,-0.52
2021-08-19 19:35:51.852,0.4,-0.66
2021-08-19 19:35:51.856,0.695,-0.865
2021-08-19 19:35:51.860,0.985,-1.1
2021-08-19 19:35:51.864,1.095,-1.305
2021-08-19 19:35:51.868,0.92,-1.42
2021-08-19 19:35:51.872,0.49,-1.28
2021-08-19 19:35:51.876,0.07,-0.92
2021-08-19 19:35:51.880,-0.18,-0.57
2021-08-19 19:35:51.884,-0.31,-0.37
2021-08-19 19:35:51.888,-0.335,-0.245
2021-08-19 19:35:51.892,-0.36,-0.145
2021-08-19 19:35:51.896,-0.365,-0.065
2021-08-19 19:35:51.900,-0.405,-0.035
2021-08-19 19:35:51.904,-0.425,-0.015
2021-08-19 19:35:51.908,-0.45,-0.025
2021-08-19 19:35:51.912,-0.49,-0.075
2021-08-19 19:35:51.916,-0.48,-0.06
2021-08-19 19:35:51.920,-0.49,-0.08
2021-08-19 19:35:51.924,-0.505,-0.075
2021-08-19 19:35:51.928,-0.5,-0.07
2021-08-19 19:35:51.932,-0.515,-0.055
2021-08-19 19:35:51.936,-0.52,-0.08
2021-08-19 19:35:51.940,-0.505,-0.07
2021-08-19 19:35:51.944,-0.54,-0.08
2021-08-19 19:35:51.948,-0.53,-0.095
2021-08-19 19:35:51.952,-0.505,-0.075
2021-08-19 19:35:51.956,-0.51,-0.095
2021-08-19 19:35:51.960,-0.505,-0.115
2021-08-19 19:35:51.964,-0.51,-0.095
2021-08-19 19:35:51.968,-0.515,-0.105
2021-08-19 19:35:51.972,-0.54,-0.08
2021-08-19 19:35:51.976,-0.53,-0.105
2021-08-19 19:35:51.980,-0.555,-0.09
2021-08-19 19:35:51.984,-0.535,-0.11
2021-08-19 19:35:51.988,-0.52,-0.09
2021-08-19 19:35:51.992,-0.53,-0.09
2021-08-19 19:35:51.996,-0.525,-0.08
2021-08-19 19:35:52.000,-0.515,-0.09
2021-08-19 19:35:52.004,-0.53,-0.075
2021-08-19 19:35:52.008,-0.53,-0.065
2021-08-19 19:35:52.012,-0.52,-0.075
2021-08-19 19:35:52.016,-0.52,-0.06
2021-08-19 19:35:52.020,-0.52,-0.07
2021-08-19 19:35:52.024,-0.52,-0.075
2021-08-19 19:35:52.028,-0.52,-0.06
2021-08-19 19:35:52.032,-0.525,-0.05
2021-08-19 19:35:52.036,-0.515,-0.04
2021-08-19 19:35:52.040,-0.535,-0.05
2021-08-19 19:35:52.044,-0.52,-0.07
2021-08-19 19:35:52.048,-0.51,-0.06
2021-08-19 19:35:52.052,-0.49,-0.07
2021-08-19 19:35:52.056,-0.49,-0.055
2021-08-19 19:35:52.060,-0.5,-0.095
2021-08-19 19:35:52.064,-0.485,-0.1
2021-08-19 19:35:52.068,-0.46,-0.095
2021-08-19 19:35:52.072,-0.44,-0.1
2021-08-19 19:35:52.076,-0.44,-0.1
2021-08-19 19:35:52.080,-0.435,-0.12
2021-08-19 19:35:52.084,-0.43,-0.105
2021-08-19 19:35:52.088,-0.395,-0.115
2021-08-19 19:35:52.092,-0.395,-0.13
2021-08-19 19:35:52.096,-0.365,-0.13
2021-08-19 19:35:52.100,-0.375,-0.14
2021-08-19 19:35:52.104,-0.365,-0.13
2021-08-19 19:35:52.108,-0.35,-0.13
2021-08-19 19:35:52.112,-0.335,-0.13
2021-08-19 19:35:52.116,-0.32,-0.135
2021-08-19 19:35:52.120,-0.31,-0.13
2021-08-19 19:35:52.124,-0.32,-0.12
2021-08-19 19:35:52.128,-0.31,-0.105
2021-08-19 19:35:52.132,-0.315,-0.105
2021-08-19 19:35:52.136,-0.325,-0.11
2021-08-19 19:35:52.140,-0.32,-0.115
2021-08-19 19:35:52.144,-0.32,-0.1
2021-08-19 19:35:52.148,-0.335,-0.1
2021-08-19 19:35:52.152,-0.345,-0.08
2021-08-19 19:35:52.156,-0.345,-0.085
2021-08-19 19:35:52.160,-0.335,-0.095
2021-08-19 19:35:52.164,-0.345,-0.09
2021-08-19 19:35:52.168,-0.345,-0.075
2021-08-19 19:35:52.172,-0.355,-0.095
2021-08-19 19:35:52.176,-0.335,-0.09
2021-08-19 19:35:52.180,-0.335,-0.115
2021-08-19 19:35:52.184,-0.345,-0.09
2021-08-19 19:35:52.188,-0.36,-0.09
2021-08-19 19:35:52.192,-0.355,-0.105
2021-08-19 19:35:52.196,-0.36,-0.095
2021-08-19 19:35:52.200,-0.38,-0.07
2021-08-19 19:35:52.204,-0.38,-0.09
2021-08-19 19:35:52.208,-0.355,-0.08
2021-08-19 19:35:52.212,-0.345,-0.065
2021-08-19 19:35:52.216,-0.355,-0.09
2021-08-19 19:35:52.220,-0.355,-0.08
2021-08-19 19:35:52.224,-0.35,-0.065
2021-08-19 19:35:52.228,-0.325,-0.06
2021-08-19 19:35:52.232,-0.285,-0.065
2021-08-19 19:35:52.236,-0.27,-0.05
2021-08-19 19:35:52.240,-0.275,-0.055
2021-08-19 19:35:52.244,-0.29,-0.045
2021-08-19 19:35:52.248,-0.305,-0.035
2021-08-19 19:35:52.252,-0.3,-0.02
2021-08-19 19:35:52.256,-0.285,-0.04
2021-08-19 19:35:52.260,-0.27,-0.025
2021-08-19 19:35:52.264,-0.255,-0.04
2021-08-19 19:35:52.268,-0.26,-0.08
2021-08-19 19:35:52.272,-0.305,-0.115
2021-08-19 19:35:52.276,-0.325,-0.155
2021-08-19 19:35:52.280,-0.375,-0.15
2021-08-19 19:35:52.284,-0.405,-0.125
2021-08-19 19:35:52.288,-0.44,-0.115
2021-08-19 19:35:52.292,-0.45,-0.08
2021-08-19 19:35:52.296,-0.44,-0.055
2021-08-19 19:35:52.300,-0.425,-0.03
2021-08-19 19:35:52.304,-0.44,-0.015
2021-08-19 19:35:52.308,-0.43,-0.03
2021-08-19 19:35:52.312,-0.425,-0.03
2021-08-19 19:35:52.316,-0.405,-0.03
2021-08-19 19:35:52.320,-0.425,-0.035
2021-08-19 19:35:52.324,-0.425,-0.045
2021-08-19 19:35:52.328,-0.44,-0.03
2021-08-19 19:35:52.332,-0.43,-0.06
2021-08-19 19:35:52.336,-0.425,-0.055
2021-08-19 19:35:52.340,-0.43,-0.06
2021-08-19 19:35:52.344,-0.415,-0.055
2021-08-19 19:35:52.348,-0.41,-0.065
2021-08-19 19:35:52.352,-0.405,-0.03
2021-08-19 19:35:52.356,-0.43,-0.035
2021-08-19 19:35:52.360,-0.4,-0.05
2021-08-19 19:35:52.364,-0.375,-0.04
2021-08-19 19:35:52.368,-0.4,-0.04
2021-08-19 19:35:52.372,-0.395,-0.035
2021-08-19 19:35:52.376,-0.405,-0.045
2021-08-19 19:35:52.380,-0.38,-0.035
2021-08-19 19:35:52.384,-0.375,-0.045
2021-08-19 19:35:52.388,-0.37,-0.045
2021-08-19 19:35:52.392,-0.295,-0.055
2021-08-19 19:35:52.396,-0.21,-0.07
2021-08-19 19:35:52.400,-0.14,-0.07
2021-08-19 19:35:52.404,-0.075,-0.09
2021-08-19 19:35:52.408,-0.02,-0.12
2021-08-19 19:35:52.412,0.025,-0.18
2021-08-19 19:35:52.416,0.05,-0.23
2021-08-19 19:35:52.420,0.035,-0.255
2021-08-19 19:35:52.424,0.025,-0.32
2021-08-19 19:35:52.428,0.01,-0.415
2021-08-19 19:35:52.432,0.11,-0.53
2021-08-19 19:35:52.436,0.355,-0.72
2021-08-19 19:35:52.440,0.675,-0.955
2021-08-19 19:35:52.444,0.89,-1.205
2021-08-19 19:35:52.448,0.895,-1.4
2021-08-19 19:35:52.452,0.62,-1.425
2021-08-19 19:35:52.456,0.165,-1.165
2021-08-19 19:35:52.460,-0.215,-0.73
2021-08-19 19:35:52.464,-0.395,-0.4
2021-08-19 19:35:52.468,-0.48,-0.2
2021-08-19 19:35:52.472,-0.485,-0.08
2021-08-19 19:35:52.476,-0.495,0.0
2021-08-19 19:35:52.480,-0.535,0.055
2021-08-19 19:35:52.484,-0.53,0.085
2021-08-19 19:35:52.488,-0.545,0.08
2021-08-19 19:35:52.492,-0.56,0.1
2021-08-19 19:35:52.496,-0.565,0.11
2021-08-19 19:35:52.500,-0.555,0.05
2021-08-19 19:35:52.504,-0.57,0.05
2021-08-19 19:35:52.508,-0.585,0.07
2021-08-19 19:35:52.512,-0.6,0.03
2021-08-19 19:35:52.516,-0.595,0.06
2021-08-19 19:35:52.520,-0.605,0.03
2021-08-19 19:35:52.524,-0.605,0.035
2021-08-19 19:35:52.528,-0.62,0.03
2021-08-19 19:35:52.532,-0.62,0.03
2021-08-19 19:35:52.536,-0.63,0.025
2021-08-19 19:35:52.540,-0.635,0.015
2021-08-19 19:35:52.544,-0.635,0.025
2021-08-19 19:35:52.548,-0.63,0.025
2021-08-19 19:35:52.552,-0.64,0.025
2021-08-19 19:35:52.556,-0.655,0.015
2021-08-19 19:35:52.560,-0.665,0.025
2021-08-19 19:35:52.564,-0.66,0.005
2021-08-19 19:35:52.568,-0.665,0.015
2021-08-19 19:35:52.572,-0.66,0.0
2021-08-19 19:35:52.576,-0.65,0.02
2021-08-19 19:35:52.580,-0.65,0.035
2021-08-19 19:35:52.584,-0.64,0.02
2021-08-19 19:35:52.588,-0.64,0.035
2021-08-19 19:35:52.592,-0.665,0.015
2021-08-19 19:35:52.596,-0.665,0.015
2021-08-19 19:35:52.600,-0.67,0.045
2021-08-19 19:35:52.604,-0.65,0.035
2021-08-19 19:35:52.608,-0.655,0.035
2021-08-19 19:35:52.612,-0.65,0.035
2021-08-19 19:35:52.616,-0.65,0.015
2021-08-19 19:35:52.620,-0.625,0.015
2021-08-19 19:35:52.624,-0.64,0.025
2021-08-19 19:35:52.628,-0.62,0.02
2021-08-19 19:35:52.632,-0.62,0.0
2021-08-19 19:35:52.636,-0.615,0.0
2021-08-19 19:35:52.640,-0.625,0.01
2021-08-19 19:35:52.644,-0.62,0.005
2021-08-19 19:35:52.648,-0.605,-0.005
2021-08-19 19:35:52.652,-0.57,-0.025
2021-08-19 19:35:52.656,-0.58,-0.01
2021-08-19 19:35:52.660,-0.54,-0.04
2021-08-19 19:35:52.664,-0.55,-0.05
2021-08-19 19:35:52.668,-0.55,-0.07
2021-08-19 19:35:52.672,-0.525,-0.06
2021-08-19 19:35:52.676,-0.515,-0.04
2021-08-19 19:35:52.680,-0.5,-0.065
2021-08-19 19:35:52.684,-0.49,-0.075
2021-08-19 19:35:52.688,-0.49,-0.07
2021-08-19 19:35:52.692,-0.48,-0.065
2021-08-19 19:35:52.696,-0.47,-0.065
2021-08-19 19:35:52.700,-0.44,-0.07
2021-08-19 19:35:52.704,-0.44,-0.065
2021-08-19 19:35:52.708,-0.455,-0.03
2021-08-19 19:35:52.712,-0.435,-0.03
2021-08-19 19:35:52.716,-0.435,-0.025
2021-08-19 19:35:52.720,-0.395,-0.045
2021-08-19 19:35:52.724,-0.395,-0.03
2021-08-19 19:35:52.728,-0.405,-0.035
2021-08-19 19:35:52.732,-0.405,-0.035
2021-08-19 19:35:52.736,-0.4,-0.025
2021-08-19 19:35:52.740,-0.41,-0.02
2021-08-19 19:35:52.744,-0.415,-0.015
2021-08-19 19:35:52.748,-0.415,-0.03
2021-08-19 19:35:52.752,-0.435,-0.025
2021-08-19 19:35:52.756,-0.425,-0.01
2021-08-19 19:35:52.760,-0.43,-0.02
2021-08-19 19:35:52.764,-0.415,-0.025
2021-08-19 19:35:52.768,-0.42,0.0
2021-08-19 19:35:52.772,-0.41,0.0
2021-08-19 19:35:52.776,-0.42,-0.015
2021-08-19 19:35:52.780,-0.425,-0.015
2021-08-19 19:35:52.784,-0.425,-0.01
2021-08-19 19:35:52.788,-0.435,0.0
2021-08-19 19:35:52.792,-0.425,-0.01
2021-08-19 19:35:52.796,-0.42,-0.01
2021-08-19 19:35:52.800,-0.4,0.005
2021-08-19 19:35:52.804,-0.41,0.01
2021-08-19 19:35:52.808,-0.405,0.025
2021-08-19 19:35:52.812,-0.365,0.0
2021-08-19 19:35:52.816,-0.365,0.01
2021-08-19 19:35:52.820,-0.375,0.01
2021-08-19 19:35:52.824,-0.35,0.03
2021-08-19 19:35:52.828,-0.33,0.025
2021-08-19 19:35:52.832,-0.33,0.03
2021-08-19 19:35:52.836,-0.325,0.05
2021-08-19 19:35:52.840,-0.335,0.055
2021-08-19 19:35:52.844,-0.335,0.035
2021-08-19 19:35:52.848,-0.34,0.04
2021-08-19 19:35:52.852,-0.325,0.04
2021-08-19 19:35:52.856,-0.3,0.015
2021-08-19 19:35:52.860,-0.315,-0.005
2021-08-19 19:35:52.864,-0.335,-0.05
2021-08-19 19:35:52.868,-0.38,-0.09
2021-08-19 19:35:52.872,-0.43,-0.075
2021-08-19 19:35:52.876,-0.435,-0.055
2021-08-19 19:35:52.880,-0.445,-0.055
2021-08-19 19:35:52.884,-0.46,-0.045
2021-08-19 19:35:52.888,-0.46,-0.015
2021-08-19 19:35:52.892,-0.47,0.015
2021-08-19 19:35:52.896,-0.46,0.005
2021-08-19 19:35:52.900,-0.46,-0.015
2021-08-19 19:35:52.904,-0.455,0.0
2021-08-19 19:35:52.908,-0.45,0.01
2021-08-19 19:35:52.912,-0.44,0.005
2021-08-19 19:35:52.916,-0.45,-0.01
2021-08-19 19:35:52.920,-0.47,-0.005
2021-08-19 19:35:52.924,-0.435,-0.01
2021-08-19 19:35:52.928,-0.43,-0.01
2021-08-19 19:35:52.932,-0.425,0.0
2021-08-19 19:35:52.936,-0.415,-0.015
2021-08-19 19:35:52.940,-0.42,0.0
2021-08-19 19:35:52.944,-0.415,-0.005
2021-08-19 19:35:52.948,-0.42,0.015
2021-08-19 19:35:52.952,-0.425,0.01
2021-08-19 19:35:52.956,-0.41,-0.005
2021-08-19 19:35:52.960,-0.4,-0.005
2021-08-19 19:35:52.964,-0.4,0.0
2021-08-19 19:35:52.968,-0.385,-0.005
2021-08-19 19:35:52.972,-0.4,-0.015
2021-08-19 19:35:52.976,-0.36,-0.015
2021-08-19 19:35:52.980,-0.35,-0.005
2021-08-19 19:35:52.984,-0.3,-0.015
2021-08-19 19:35:52.988,-0.24,-0.005
2021-08-19 19:35:52.992,-0.17,-0.025
2021-08-19 19:35:52.996,-0.09,-0.04
2021-08-19 19:35:53.000,-0.02,-0.095
2021-08-19 19:35:53.004,0.015,-0.145
2021-08-19 19:35:53.008,0.03,-0.215
2021-08-19 19:35:53.012,0.045,-0.22
2021-08-19 19:35:53.016,0.005,-0.295
2021-08-19 19:35:53.020,0.0,-0.36
2021-08-19 19:35:53.024,0.075,-0.475
2021-08-19 19:35:53.028,0.34,-0.67
2021-08-19 19:35:53.032,0.64,-0.925
2021-08-19 19:35:53.036,0.87,-1.17
2021-08-19 19:35:53.040,0.91,-1.355
2021-08-19 19:35:53.044,0.65,-1.38
2021-08-19 19:35:53.048,0.21,-1.105
2021-08-19 19:35:53.052,-0.16,-0.67
2021-08-19 19:35:53.056,-0.355,-0.315
2021-08-19 19:35:53.060,-0.43,-0.13
2021-08-19 19:35:53.064,-0.47,-0.02
2021-08-19 19:35:53.068,-0.485,0.065
2021-08-19 19:35:53.072,-0.495,0.105
2021-08-19 19:35:53.076,-0.53,0.125
2021-08-19 19:35:53.080,-0.525,0.125
2021-08-19 19:35:53.084,-0.54,0.14
2021-08-19 19:35:53.088,-0.545,0.13
2021-08-19 19:35:53.092,-0.545,0.115
2021-08-19 19:35:53.096,-0.56,0.1
2021-08-19 19:35:53.100,-0.565,0.1
2021-08-19 19:35:53.104,-0.58,0.095
2021-08-19 19:35:53.108,-0.58,0.09
2021-08-19 19:35:53.112,-0.585,0.095
2021-08-19 19:35:53.116,-0.595,0.075
2021-08-19 19:35:53.120,-0.57,0.09
2021-08-19 19:35:53.124,-0.59,0.065
2021-08-19 19:35:53.128,-0.595,0.075
2021-08-19 19:35:53.132,-0.595,0.06
2021-08-19 19:35:53.136,-0.6,0.09
2021-08-19 19:35:53.140,-0.6,0.065
2021-08-19 19:35:53.144,-0.605,0.075
2021-08-19 19:35:53.148,-0.625,0.075
2021-08-19 19:35:53.152,-0.625,0.075
2021-08-19 19:35:53.156,-0.625,0.075
2021-08-19 19:35:53.160,-0.61,0.085
2021-08-19 19:35:53.164,-0.625,0.095
2021-08-19 19:35:53.168,-0.615,0.09
2021-08-19 19:35:53.172,-0.61,0.1
2021-08-19 19:35:53.176,-0.625,0.09
2021-08-19 19:35:53.180,-0.625,0.09
2021-08-19 19:35:53.184,-0.61,0.065
2021-08-19 19:35:53.188,-0.625,0.08
2021-08-19 19:35:53.192,-0.64,0.075
2021-08-19 19:35:53.196,-0.64,0.09
2021-08-19 19:35:53.200,-0.62,0.085
2021-08-19 19:35:53.204,-0.625,0.075
2021-08-19 19:35:53.208,-0.625,0.065
2021-08-19 19:35:53.212,-0.6,0.07
2021-08-19 19:35:53.216,-0.625,0.065
2021-08-19 19:35:53.220,-0.595,0.07
2021-08-19 19:35:53.224,-0.6,0.07
2021-08-19 19:35:53.228,-0.595,0.06
2021-08-19 19:35:53.232,-0.59,0.045
2021-08-19 19:35:53.236,-0.585,0.06
2021-08-19 19:35:53.240,-0.57,0.035
2021-08-19 19:35:53.244,-0.56,0.015
2021-08-19 19:35:53.248,-0.55,0.03
2021-08-19 19:35:53.252,-0.545,0.0
2021-08-19 19:35:53.256,-0.525,0.015
2021-08-19 19:35:53.260,-0.5,-0.01
2021-08-19 19:35:53.264,-0.48,0.0
2021-08-19 19:35:53.268,-0.465,0.0
2021-08-19 19:35:53.272,-0.455,-0.01
2021-08-19 19:35:53.276,-0.46,-0.03
2021-08-19 19:35:53.280,-0.45,-0.03
2021-08-19 19:35:53.284,-0.44,-0.03
2021-08-19 19:35:53.288,-0.41,-0.01
2021-08-19 19:35:53.292,-0.4,-0.005
2021-08-19 19:35:53.296,-0.39,-0.01
2021-08-19 19:35:53.300,-0.38,-0.015
2021-08-19 19:35:53.304,-0.37,-0.035
2021-08-19 19:35:53.308,-0.37,-0.035
2021-08-19 19:35:53.312,-0.36,-0.015
2021-08-19 19:35:53.316,-0.35,-0.005
2021-08-19 19:35:53.320,-0.35,-0.01
2021-08-19 19:35:53.324,-0.335,-0.02
2021-08-19 19:35:53.328,-0.34,0.0
2021-08-19 19:35:53.332,-0.355,0.005
2021-08-19 19:35:53.336,-0.345,0.005
2021-08-19 19:35:53.340,-0.35,0.0
2021-08-19 19:35:53.344,-0.38,-0.005
2021-08-19 19:35:53.348,-0.36,0.005
2021-08-19 19:35:53.352,-0.37,0.0
2021-08-19 19:35:53.356,-0.365,-0.005
2021-08-19 19:35:53.360,-0.385,0.0
2021-08-19 19:35:53.364,-0.375,0.0
2021-08-19 19:35:53.368,-0.35,0.015
2021-08-19 19:35:53.372,-0.365,0.0
2021-08-19 19:35:53.376,-0.36,0.0
2021-08-19 19:35:53.380,-0.37,-0.005
2021-08-19 19:35:53.384,-0.38,0.02
2021-08-19 19:35:53.388,-0.375,0.02
2021-08-19 19:35:53.392,-0.36,0.005
2021-08-19 19:35:53.396,-0.385,0.01
2021-08-19 19:35:53.400,-0.39,0.025
2021-08-19 19:35:53.404,-0.345,-0.01
2021-08-19 19:35:53.408,-0.345,0.015
2021-08-19 19:35:53.412,-0.34,0.015
2021-08-19 19:35:53.416,-0.32,0.015
2021-08-19 19:35:53.420,-0.32,0.005
2021-08-19 19:35:53.424,-0.315,0.025
2021-08-19 19:35:53.428,-0.285,0.03
2021-08-19 19:35:53.432,-0.28,0.025
2021-08-19 19:35:53.436,-0.265,0.04
2021-08-19 19:35:53.440,-0.27,0.05
2021-08-19 19:35:53.444,-0.275,0.055
2021-08-19 19:35:53.448,-0.275,0.05
2021-08-19 19:35:53.452,-0.27,0.03
2021-08-19 19:35:53.456,-0.275,0.025
2021-08-19 19:35:53.460,-0.275,0.02
2021-08-19 19:35:53.464,-0.275,-0.01
2021-08-19 19:35:53.468,-0.285,-0.045
2021-08-19 19:35:53.472,-0.315,-0.06
2021-08-19 19:35:53.476,-0.34,-0.09
2021-08-19 19:35:53.480,-0.37,-0.07
2021-08-19 19:35:53.484,-0.405,-0.075
2021-08-19 19:35:53.488,-0.43,-0.055
2021-08-19 19:35:53.492,-0.43,-0.045
2021-08-19 19:35:53.496,-0.415,0.0
2021-08-19 19:35:53.500,-0.42,0.0
2021-08-19 19:35:53.504,-0.42,0.005
2021-08-19 19:35:53.508,-0.41,0.025
2021-08-19 19:35:53.512,-0.42,0.015
2021-08-19 19:35:53.516,-0.395,0.015
2021-08-19 19:35:53.520,-0.38,0.0
2021-08-19 19:35:53.524,-0.375,-0.005
2021-08-19 19:35:53.528,-0.385,0.0
2021-08-19 19:35:53.532,-0.37,-0.015
2021-08-19 19:35:53.536,-0.375,-0.045
2021-08-19 19:35:53.540,-0.385,-0.01
2021-08-19 19:35:53.544,-0.375,0.0
2021-08-19 19:35:53.548,-0.385,-0.015
2021-08-19 19:35:53.552,-0.385,-0.04
2021-08-19 19:35:53.556,-0.375,-0.04
2021-08-19 19:35:53.560,-0.37,-0.02
2021-08-19 19:35:53.564,-0.355,-0.01
2021-08-19 19:35:53.568,-0.355,-0.015
2021-08-19 19:35:53.572,-0.375,-0.01
2021-08-19 19:35:53.576,-0.38,-0.02
2021-08-19 19:35:53.580,-0.355,-0.025
2021-08-19 19:35:53.584,-0.345,-0.03
2021-08-19 19:35:53.588,-0.28,-0.015
2021-08-19 19:35:53.592,-0.235,-0.045
2021-08-19 19:35:53.596,-0.15,-0.04
2021-08-19 19:35:53.600,-0.07,-0.08
2021-08-19 19:35:53.604,-0.015,-0.12
2021-08-19 19:35:53.608,0.035,-0.14
2021-08-19 19:35:53.612,0.06,-0.205
2021-08-19 19:35:53.616,0.06,-0.25
2021-08-19 19:35:53.620,0.05,-0.28
2021-08-19 19:35:53.624,0.045,-0.365
2021-08-19 19:35:53.628,0.07,-0.455
2021-08-19 19:35:53.632,0.27,-0.62
2021-08-19 19:35:53.636,0.535,-0.84
2021-08-19 19:35:53.640,0.835,-1.095
2021-08-19 19:35:53.644,0.975,-1.32
2021-08-19 19:35:53.648,0.835,-1.43
2021-08-19 19:35:53.652,0.47,-1.265
2021-08-19 19:35:53.656,0.045,-0.875
2021-08-19 19:35:53.660,-0.245,-0.48
2021-08-19 19:35:53.664,-0.36,-0.2
2021-08-19 19:35:53.668,-0.425,-0.085
2021-08-19 19:35:53.672,-0.435,0.005
2021-08-19 19:35:53.676,-0.445,0.07
2021-08-19 19:35:53.680,-0.47,0.095
2021-08-19 19:35:53.684,-0.48,0.12
2021-08-19 19:35:53.688,-0.495,0.12
2021-08-19 19:35:53.692,-0.53,0.1
2021-08-19 19:35:53.696,-0.52,0.1
2021-08-19 19:35:53.700,-0.52,0.085
2021-08-19 19:35:53.704,-0.515,0.08
2021-08-19 19:35:53.708,-0.525,0.075
2021-08-19 19:35:53.712,-0.515,0.065
2021-08-19 19:35:53.716,-0.53,0.09
2021-08-19 19:35:53.720,-0.525,0.07
2021-08-19 19:35:53.724,-0.54,0.06
2021-08-19 19:35:53.728,-0.515,0.075
2021-08-19 19:35:53.732,-0.535,0.075
2021-08-19 19:35:53.736,-0.545,0.065
2021-08-19 19:35:53.740,-0.535,0.065
2021-08-19 19:35:53.744,-0.54,0.07
2021-08-19 19:35:53.748,-0.56,0.065
2021-08-19 19:35:53.752,-0.55,0.07
2021-08-19 19:35:53.756,-0.535,0.095
2021-08-19 19:35:53.760,-0.535,0.075
2021-08-19 19:35:53.764,-0.545,0.08
2021-08-19 19:35:53.768,-0.535,0.09
2021-08-19 19:35:53.772,-0.53,0.085
2021-08-19 19:35:53.776,-0.535,0.07
2021-08-19 19:35:53.780,-0.53,0.075
2021-08-19 19:35:53.784,-0.555,0.09
2021-08-19 19:35:53.788,-0.54,0.09
2021-08-19 19:35:53.792,-0.54,0.075
2021-08-19 19:35:53.796,-0.545,0.085
2021-08-19 19:35:53.800,-0.53,0.085
2021-08-19 19:35:53.804,-0.535,0.095
2021-08-19 19:35:53.808,-0.535,0.06
2021-08-19 19:35:53.812,-0.515,0.065
2021-08-19 19:35:53.816,-0.54,0.065
2021-08-19 19:35:53.820,-0.525,0.05
2021-08-19 19:35:53.824,-0.53,0.06
2021-08-19 19:35:53.828,-0.495,0.055
2021-08-19 19:35:53.832,-0.505,0.035
2021-08-19 19:35:53.836,-0.475,0.03
2021-08-19 19:35:53.840,-0.46,0.04
2021-08-19 19:35:53.844,-0.445,0.035
2021-08-19 19:35:53.848,-0.43,0.005
2021-08-19 19:35:53.852,-0.44,0.0
2021-08-19 19:35:53.856,-0.405,-0.02
2021-08-19 19:35:53.860,-0.41,-0.01
2021-08-19 19:35:53.864,-0.39,0.015
2021-08-19 19:35:53.868,-0.395,0.01
2021-08-19 19:35:53.872,-0.365,-0.03
2021-08-19 19:35:53.876,-0.36,-0.01
2021-08-19 19:35:53.880,-0.32,-0.035
2021-08-19 19:35:53.884,-0.33,-0.05
2021-08-19 19:35:53.888,-0.3,-0.05
2021-08-19 19:35:53.892,-0.305,-0.06
2021-08-19 19:35:53.896,-0.29,-0.035
2021-08-19 19:35:53.900,-0.265,-0.015
2021-08-19 19:35:53.904,-0.27,-0.045
2021-08-19 19:35:53.908,-0.255,-0.05
2021-08-19 19:35:53.912,-0.255,-0.025
2021-08-19 19:35:53.916,-0.265,-0.035
2021-08-19 19:35:53.920,-0.235,-0.045
2021-08-19 19:35:53.924,-0.24,-0.06
2021-08-19 19:35:53.928,-0.23,-0.045
2021-08-19 19:35:53.932,-0.245,-0.04
2021-08-19 19:35:53.936,-0.25,-0.035
2021-08-19 19:35:53.940,-0.23,-0.04
2021-08-19 19:35:53.944,-0.22,-0.025
2021-08-19 19:35:53.948,-0.22,-0.04
2021-08-19 19:35:53.952,-0.23,-0.04
2021-08-19 19:35:53.956,-0.225,-0.06
2021-08-19 19:35:53.960,-0.235,-0.045
2021-08-19 19:35:53.964,-0.235,-0.065
2021-08-19 19:35:53.968,-0.215,-0.05
2021-08-19 19:35:53.972,-0.225,-0.05
2021-08-19 19:35:53.976,-0.215,-0.06
2021-08-19 19:35:53.980,-0.245,-0.04
2021-08-19 19:35:53.984,-0.22,-0.055
2021-08-19 19:35:53.988,-0.235,-0.04
2021-08-19 19:35:53.992,-0.22,-0.04
2021-08-19 19:35:53.996,-0.22,-0.025
2021-08-19 19:35:54.000,-0.21,-0.025
2021-08-19 19:35:54.004,-0.205,-0.03
2021-08-19 19:35:54.008,-0.205,0.0
2021-08-19 19:35:54.012,-0.185,-0.01
2021-08-19 19:35:54.016,-0.19,-0.015
2021-08-19 19:35:54.020,-0.205,-0.04
2021-08-19 19:35:54.024,-0.2,0.0
2021-08-19 19:35:54.028,-0.21,0.0
2021-08-19 19:35:54.032,-0.21,-0.025
2021-08-19 19:35:54.036,-0.16,-0.03
2021-08-19 19:35:54.040,-0.175,-0.04
2021-08-19 19:35:54.044,-0.175,-0.04
2021-08-19 19:35:54.048,-0.16,-0.035
2021-08-19 19:35:54.052,-0.165,-0.04
2021-08-19 19:35:54.056,-0.14,-0.045
2021-08-19 19:35:54.060,-0.13,-0.04
2021-08-19 19:35:54.064,-0.13,-0.015
2021-08-19 19:35:54.068,-0.105,-0.03
2021-08-19 19:35:54.072,-0.11,-0.03
2021-08-19 19:35:54.076,-0.1,-0.035
2021-08-19 19:35:54.080,-0.09,-0.025
2021-08-19 19:35:54.084,-0.075,-0.05
2021-08-19 19:35:54.088,-0.085,-0.075
2021-08-19 19:35:54.092,-0.095,-0.11
2021-08-19 19:35:54.096,-0.125,-0.125
2021-08-19 19:35:54.100,-0.15,-0.145
2021-08-19 19:35:54.104,-0.18,-0.16
2021-08-19 19:35:54.108,-0.225,-0.135
2021-08-19 19:35:54.112,-0.225,-0.125
2021-08-19 19:35:54.116,-0.235,-0.115
2021-08-19 19:35:54.120,-0.235,-0.105
2021-08-19 19:35:54.124,-0.215,-0.08
2021-08-19 19:35:54.128,-0.21,-0.05
2021-08-19 19:35:54.132,-0.21,-0.045
2021-08-19 19:35:54.136,-0.195,-0.03
2021-08-19 19:35:54.140,-0.22,-0.05
2021-08-19 19:35:54.144,-0.235,-0.055
2021-08-19 19:35:54.148,-0.215,-0.065
2021-08-19 19:35:54.152,-0.205,-0.065
2021-08-19 19:35:54.156,-0.195,-0.07
2021-08-19 19:35:54.160,-0.18,-0.075
2021-08-19 19:35:54.164,-0.185,-0.085
2021-08-19 19:35:54.168,-0.175,-0.085
2021-08-19 19:35:54.172,-0.205,-0.08
2021-08-19 19:35:54.176,-0.22,-0.1
2021-08-19 19:35:54.180,-0.205,-0.095
2021-08-19 19:35:54.184,-0.195,-0.08
2021-08-19 19:35:54.188,-0.19,-0.11
2021-08-19 19:35:54.192,-0.21,-0.12
2021-08-19 19:35:54.196,-0.215,-0.115
2021-08-19 19:35:54.200,-0.195,-0.125
2021-08-19 19:35:54.204,-0.18,-0.125
2021-08-19 19:35:54.208,-0.16,-0.125
2021-08-19 19:35:54.212,-0.145,-0.12
2021-08-19 19:35:54.216,-0.075,-0.12
2021-08-19 19:35:54.220,-0.015,-0.12
2021-08-19 19:35:54.224,0.09,-0.12
2021-08-19 19:35:54.228,0.185,-0.14
2021-08-19 19:35:54.232,0.255,-0.18
2021-08-19 19:35:54.236,0.33,-0.25
2021-08-19 19:35:54.240,0.39,-0.295
2021-08-19 19:35:54.244,0.41,-0.295
2021-08-19 19:35:54.248,0.4,-0.335
2021-08-19 19:35:54.252,0.37,-0.405
2021-08-19 19:35:54.256,0.415,-0.505
2021-08-19 19:35:54.260,0.595,-0.64
2021-08-19 19:35:54.264,0.88,-0.86
2021-08-19 19:35:54.268,1.125,-1.115
2021-08-19 19:35:54.272,1.205,-1.31
2021-08-19 19:35:54.276,1.015,-1.385
2021-08-19 19:35:54.280,0.57,-1.205
2021-08-19 19:35:54.284,0.155,-0.815
2021-08-19 19:35:54.288,-0.06,-0.515
2021-08-19 19:35:54.292,-0.16,-0.325
2021-08-19 19:35:54.296,-0.21,-0.2
2021-08-19 19:35:54.300,-0.24,-0.105
2021-08-19 19:35:54.304,-0.265,-0.035
2021-08-19 19:35:54.308,-0.295,0.0
2021-08-19 19:35:54.312,-0.305,0.02
2021-08-19 19:35:54.316,-0.31,0.005
2021-08-19 19:35:54.320,-0.36,-0.01
2021-08-19 19:35:54.324,-0.36,-0.04
2021-08-19 19:35:54.328,-0.355,-0.03
2021-08-19 19:35:54.332,-0.38,-0.025
2021-08-19 19:35:54.336,-0.375,-0.04
2021-08-19 19:35:54.340,-0.365,-0.06
2021-08-19 19:35:54.344,-0.35,-0.035
2021-08-19 19:35:54.348,-0.39,-0.05
2021-08-19 19:35:54.352,-0.38,-0.02
2021-08-19 19:35:54.356,-0.37,-0.04
2021-08-19 19:35:54.360,-0.37,-0.02
2021-08-19 19:35:54.364,-0.355,-0.05
2021-08-19 19:35:54.368,-0.39,-0.05
2021-08-19 19:35:54.372,-0.365,-0.04
2021-08-19 19:35:54.376,-0.395,-0.035
2021-08-19 19:35:54.380,-0.395,-0.03
2021-08-19 19:35:54.384,-0.4,-0.015
2021-08-19 19:35:54.388,-0.415,-0.01
2021-08-19 19:35:54.392,-0.415,-0.005
2021-08-19 19:35:54.396,-0.435,-0.02
2021-08-19 19:35:54.400,-0.435,-0.015
2021-08-19 19:35:54.404,-0.41,-0.02
2021-08-19 19:35:54.408,-0.425,-0.025
2021-08-19 19:35:54.412,-0.445,-0.02
2021-08-19 19:35:54.416,-0.44,-0.025
2021-08-19 19:35:54.420,-0.44,-0.005
2021-08-19 19:35:54.424,-0.45,-0.03
2021-08-19 19:35:54.428,-0.46,-0.02
2021-08-19 19:35:54.432,-0.46,-0.035
2021-08-19 19:35:54.436,-0.425,-0.025
2021-08-19 19:35:54.440,-0.445,-0.02
2021-08-19 19:35:54.444,-0.445,-0.015
2021-08-19 19:35:54.448,-0.435,-0.01
2021-08-19 19:35:54.452,-0.425,-0.03
2021-08-19 19:35:54.456,-0.42,-0.03
2021-08-19 19:35:54.460,-0.43,-0.025
2021-08-19 19:35:54.464,-0.42,-0.02
2021-08-19 19:35:54.468,-0.42,-0.035
2021-08-19 19:35:54.472,-0.395,-0.04
2021-08-19 19:35:54.476,-0.39,-0.025
2021-08-19 19:35:54.480,-0.385,-0.065
2021-08-19 19:35:54.484,-0.37,-0.075
2021-08-19 19:35:54.488,-0.355,-0.045
2021-08-19 19:35:54.492,-0.35,-0.055
2021-08-19 19:35:54.496,-0.33,-0.075
2021-08-19 19:35:54.500,-0.31,-0.065
2021-08-19 19:35:54.504,-0.335,-0.06
2021-08-19 19:35:54.508,-0.3,-0.07
2021-08-19 19:35:54.512,-0.32,-0.075
2021-08-19 19:35:54.516,-0.275,-0.09
2021-08-19 19:35:54.520,-0.29,-0.115
2021-08-19 19:35:54.524,-0.3,-0.08
2021-08-19 19:35:54.528,-0.28,-0.09
2021-08-19 19:35:54.532,-0.275,-0.085
2021-08-19 19:35:54.536,-0.265,-0.085
2021-08-19 19:35:54.540,-0.275,-0.08
2021-08-19 19:35:54.544,-0.28,-0.085
2021-08-19 19:35:54.548,-0.28,-0.105
2021-08-19 19:35:54.552,-0.275,-0.085
2021-08-19 19:35:54.556,-0.29,-0.125
2021-08-19 19:35:54.560,-0.27,-0.13
2021-08-19 19:35:54.564,-0.29,-0.09
2021-08-19 19:35:54.568,-0.29,-0.08
2021-08-19 19:35:54.572,-0.29,-0.085
2021-08-19 19:35:54.576,-0.3,-0.085
2021-08-19 19:35:54.580,-0.28,-0.08
2021-08-19 19:35:54.584,-0.265,-0.06
2021-08-19 19:35:54.588,-0.285,-0.06
2021-08-19 19:35:54.592,-0.28,-0.06
2021-08-19 19:35:54.596,-0.295,-0.065
2021-08-19 19:35:54.600,-0.29,-0.045
2021-08-19 19:35:54.604,-0.295,-0.05
2021-08-19 19:35:54.608,-0.28,-0.055
2021-08-19 19:35:54.612,-0.275,-0.07
2021-08-19 19:35:54.616,-0.26,-0.045
2021-08-19 19:35:54.620,-0.285,-0.06
2021-08-19 19:35:54.624,-0.28,-0.035
2021-08-19 19:35:54.628,-0.29,-0.035
2021-08-19 19:35:54.632,-0.3,-0.045
2021-08-19 19:35:54.636,-0.3,-0.045
2021-08-19 19:35:54.640,-0.29,-0.04
2021-08-19 19:35:54.644,-0.28,-0.05
2021-08-19 19:35:54.648,-0.27,-0.055
2021-08-19 19:35:54.652,-0.29,-0.07
2021-08-19 19:35:54.656,-0.3,-0.065
2021-08-19 19:35:54.660,-0.32,-0.05
2021-08-19 19:35:54.664,-0.31,-0.045
2021-08-19 19:35:54.668,-0.305,-0.035
2021-08-19 19:35:54.672,-0.315,-0.045
2021-08-19 19:35:54.676,-0.285,-0.04
2021-08-19 19:35:54.680,-0.285,-0.035
2021-08-19 19:35:54.684,-0.275,-0.035
2021-08-19 19:35:54.688,-0.285,-0.045
2021-08-19 19:35:54.692,-0.27,-0.02
2021-08-19 19:35:54.696,-0.275,-0.04
2021-08-19 19:35:54.700,-0.26,-0.03
2021-08-19 19:35:54.704,-0.245,-0.015
2021-08-19 19:35:54.708,-0.24,0.0
2021-08-19 19:35:54.712,-0.25,0.015
2021-08-19 19:35:54.716,-0.225,0.01
2021-08-19 19:35:54.720,-0.2,0.005
2021-08-19 19:35:54.724,-0.215,0.0
2021-08-19 19:35:54.728,-0.205,-0.005
2021-08-19 19:35:54.732,-0.2,-0.02
2021-08-19 19:35:54.736,-0.19,-0.065
2021-08-19 19:35:54.740,-0.24,-0.08
