Time,ECG1,ECG2
2021-08-01 00:58:45.144,-0.96,0.83
2021-08-01 00:58:45.148,-0.95,0.83
2021-08-01 00:58:45.152,-0.96,0.82
2021-08-01 00:58:45.156,-0.955,0.825
2021-08-01 00:58:45.160,-0.95,0.815
2021-08-01 00:58:45.164,-0.945,0.81
2021-08-01 00:58:45.168,-0.935,0.815
2021-08-01 00:58:45.172,-0.95,0.835
2021-08-01 00:58:45.176,-0.94,0.82
2021-08-01 00:58:45.180,-0.945,0.79
2021-08-01 00:58:45.184,-0.915,0.805
2021-08-01 00:58:45.188,-0.94,0.805
2021-08-01 00:58:45.192,-0.93,0.825
2021-08-01 00:58:45.196,-0.925,0.82
2021-08-01 00:58:45.200,-0.93,0.805
2021-08-01 00:58:45.204,-0.94,0.805
2021-08-01 00:58:45.208,-0.935,0.79
2021-08-01 00:58:45.212,-0.945,0.805
2021-08-01 00:58:45.216,-0.955,0.8
2021-08-01 00:58:45.220,-0.98,0.755
2021-08-01 00:58:45.224,-0.965,0.795
2021-08-01 00:58:45.228,-0.96,0.78
2021-08-01 00:58:45.232,-0.95,0.77
2021-08-01 00:58:45.236,-0.96,0.78
2021-08-01 00:58:45.240,-0.965,0.77
2021-08-01 00:58:45.244,-0.955,0.75
2021-08-01 00:58:45.248,-0.955,0.75
2021-08-01 00:58:45.252,-0.95,0.77
2021-08-01 00:58:45.256,-0.985,0.765
2021-08-01 00:58:45.260,-0.955,0.765
2021-08-01 00:58:45.264,-0.945,0.77
2021-08-01 00:58:45.268,-0.945,0.75
2021-08-01 00:58:45.272,-0.93,0.745
2021-08-01 00:58:45.276,-0.91,0.76
2021-08-01 00:58:45.280,-0.935,0.77
2021-08-01 00:58:45.284,-0.925,0.765
2021-08-01 00:58:45.288,-0.925,0.76
2021-08-01 00:58:45.292,-0.93,0.74
2021-08-01 00:58:45.296,-0.92,0.75
2021-08-01 00:58:45.300,-0.92,0.755
2021-08-01 00:58:45.304,-0.905,0.755
2021-08-01 00:58:45.308,-0.905,0.735
2021-08-01 00:58:45.312,-0.925,0.76
2021-08-01 00:58:45.316,-0.915,0.755
2021-08-01 00:58:45.320,-0.925,0.775
2021-08-01 00:58:45.324,-0.91,0.76
2021-08-01 00:58:45.328,-0.935,0.78
2021-08-01 00:58:45.332,-0.925,0.78
2021-08-01 00:58:45.336,-0.88,0.755
2021-08-01 00:58:45.340,-0.875,0.755
2021-08-01 00:58:45.344,-0.85,0.755
2021-08-01 00:58:45.348,-0.83,0.735
2021-08-01 00:58:45.352,-0.83,0.705
2021-08-01 00:58:45.356,-0.84,0.685
2021-08-01 00:58:45.360,-0.88,0.66
2021-08-01 00:58:45.364,-0.9,0.655
2021-08-01 00:58:45.368,-0.9,0.66
2021-08-01 00:58:45.372,-0.935,0.675
2021-08-01 00:58:45.376,-0.935,0.7
2021-08-01 00:58:45.380,-0.955,0.695
2021-08-01 00:58:45.384,-0.96,0.715
2021-08-01 00:58:45.388,-0.955,0.725
2021-08-01 00:58:45.392,-0.95,0.72
2021-08-01 00:58:45.396,-0.935,0.72
2021-08-01 00:58:45.400,-0.93,0.72
2021-08-01 00:58:45.404,-0.92,0.715
2021-08-01 00:58:45.408,-0.905,0.69
2021-08-01 00:58:45.412,-0.9,0.7
2021-08-01 00:58:45.416,-0.915,0.715
2021-08-01 00:58:45.420,-0.92,0.695
2021-08-01 00:58:45.424,-0.92,0.685
2021-08-01 00:58:45.428,-0.945,0.685
2021-08-01 00:58:45.432,-0.93,0.69
2021-08-01 00:58:45.436,-0.945,0.695
2021-08-01 00:58:45.440,-0.94,0.665
2021-08-01 00:58:45.444,-0.955,0.665
2021-08-01 00:58:45.448,-0.94,0.66
2021-08-01 00:58:45.452,-0.925,0.64
2021-08-01 00:58:45.456,-0.905,0.645
2021-08-01 00:58:45.460,-0.88,0.645
2021-08-01 00:58:45.464,-0.84,0.64
2021-08-01 00:58:45.468,-0.775,0.635
2021-08-01 00:58:45.472,-0.68,0.625
2021-08-01 00:58:45.476,-0.6,0.6
2021-08-01 00:58:45.480,-0.52,0.56
2021-08-01 00:58:45.484,-0.485,0.5
2021-08-01 00:58:45.488,-0.43,0.51
2021-08-01 00:58:45.492,-0.415,0.51
2021-08-01 00:58:45.496,-0.415,0.44
2021-08-01 00:58:45.500,-0.405,0.33
2021-08-01 00:58:45.504,-0.33,0.2
2021-08-01 00:58:45.508,-0.075,0.015
2021-08-01 00:58:45.512,0.26,-0.245
2021-08-01 00:58:45.516,0.63,-0.52
2021-08-01 00:58:45.520,0.88,-0.68
2021-08-01 00:58:45.524,0.85,-0.65
2021-08-01 00:58:45.528,0.495,-0.38
2021-08-01 00:58:45.532,-0.08,0.015
2021-08-01 00:58:45.536,-0.59,0.38
2021-08-01 00:58:45.540,-0.84,0.595
2021-08-01 00:58:45.544,-0.955,0.68
2021-08-01 00:58:45.548,-1.01,0.72
2021-08-01 00:58:45.552,-1.055,0.75
2021-08-01 00:58:45.556,-1.1,0.73
2021-08-01 00:58:45.560,-1.1,0.77
2021-08-01 00:58:45.564,-1.09,0.725
2021-08-01 00:58:45.568,-1.105,0.71
2021-08-01 00:58:45.572,-1.13,0.705
2021-08-01 00:58:45.576,-1.135,0.685
2021-08-01 00:58:45.580,-1.14,0.685
2021-08-01 00:58:45.584,-1.145,0.69
2021-08-01 00:58:45.588,-1.155,0.675
2021-08-01 00:58:45.592,-1.125,0.685
2021-08-01 00:58:45.596,-1.135,0.675
2021-08-01 00:58:45.600,-1.135,0.675
2021-08-01 00:58:45.604,-1.135,0.66
2021-08-01 00:58:45.608,-1.135,0.665
2021-08-01 00:58:45.612,-1.14,0.675
2021-08-01 00:58:45.616,-1.145,0.665
2021-08-01 00:58:45.620,-1.165,0.645
2021-08-01 00:58:45.624,-1.155,0.655
2021-08-01 00:58:45.628,-1.175,0.645
2021-08-01 00:58:45.632,-1.17,0.645
2021-08-01 00:58:45.636,-1.185,0.64
2021-08-01 00:58:45.640,-1.205,0.64
2021-08-01 00:58:45.644,-1.21,0.625
2021-08-01 00:58:45.648,-1.205,0.6
2021-08-01 00:58:45.652,-1.215,0.61
2021-08-01 00:58:45.656,-1.22,0.61
2021-08-01 00:58:45.660,-1.21,0.61
2021-08-01 00:58:45.664,-1.23,0.585
2021-08-01 00:58:45.668,-1.21,0.575
2021-08-01 00:58:45.672,-1.205,0.605
2021-08-01 00:58:45.676,-1.22,0.595
2021-08-01 00:58:45.680,-1.2,0.605
2021-08-01 00:58:45.684,-1.21,0.575
2021-08-01 00:58:45.688,-1.23,0.58
2021-08-01 00:58:45.692,-1.225,0.58
2021-08-01 00:58:45.696,-1.2,0.575
2021-08-01 00:58:45.700,-1.18,0.585
2021-08-01 00:58:45.704,-1.155,0.575
2021-08-01 00:58:45.708,-1.14,0.58
2021-08-01 00:58:45.712,-1.135,0.59
2021-08-01 00:58:45.716,-1.125,0.565
2021-08-01 00:58:45.720,-1.13,0.57
2021-08-01 00:58:45.724,-1.105,0.59
2021-08-01 00:58:45.728,-1.095,0.57
2021-08-01 00:58:45.732,-1.115,0.56
2021-08-01 00:58:45.736,-1.11,0.525
2021-08-01 00:58:45.740,-1.11,0.52
2021-08-01 00:58:45.744,-1.1,0.525
2021-08-01 00:58:45.748,-1.1,0.5
2021-08-01 00:58:45.752,-1.075,0.52
2021-08-01 00:58:45.756,-1.06,0.495
2021-08-01 00:58:45.760,-1.045,0.5
2021-08-01 00:58:45.764,-1.035,0.465
2021-08-01 00:58:45.768,-1.035,0.485
2021-08-01 00:58:45.772,-1.02,0.47
2021-08-01 00:58:45.776,-1.02,0.46
2021-08-01 00:58:45.780,-1.005,0.465
2021-08-01 00:58:45.784,-0.995,0.47
2021-08-01 00:58:45.788,-1.0,0.44
2021-08-01 00:58:45.792,-0.99,0.475
2021-08-01 00:58:45.796,-0.97,0.46
2021-08-01 00:58:45.800,-0.96,0.465
2021-08-01 00:58:45.804,-0.94,0.48
2021-08-01 00:58:45.808,-0.94,0.465
2021-08-01 00:58:45.812,-0.945,0.465
2021-08-01 00:58:45.816,-0.95,0.47
2021-08-01 00:58:45.820,-0.945,0.475
2021-08-01 00:58:45.824,-0.935,0.48
2021-08-01 00:58:45.828,-0.93,0.47
2021-08-01 00:58:45.832,-0.95,0.46
2021-08-01 00:58:45.836,-0.945,0.47
2021-08-01 00:58:45.840,-0.945,0.475
2021-08-01 00:58:45.844,-0.96,0.465
2021-08-01 00:58:45.848,-0.955,0.455
2021-08-01 00:58:45.852,-0.955,0.48
2021-08-01 00:58:45.856,-0.97,0.485
2021-08-01 00:58:45.860,-0.975,0.465
2021-08-01 00:58:45.864,-0.975,0.475
2021-08-01 00:58:45.868,-0.985,0.46
2021-08-01 00:58:45.872,-0.98,0.46
2021-08-01 00:58:45.876,-0.945,0.43
2021-08-01 00:58:45.880,-0.985,0.445
2021-08-01 00:58:45.884,-0.995,0.445
2021-08-01 00:58:45.888,-1.0,0.43
2021-08-01 00:58:45.892,-0.995,0.43
2021-08-01 00:58:45.896,-1.005,0.43
2021-08-01 00:58:45.900,-0.985,0.45
2021-08-01 00:58:45.904,-0.995,0.475
2021-08-01 00:58:45.908,-0.985,0.465
2021-08-01 00:58:45.912,-0.985,0.46
2021-08-01 00:58:45.916,-0.98,0.435
2021-08-01 00:58:45.920,-0.985,0.42
2021-08-01 00:58:45.924,-0.975,0.44
2021-08-01 00:58:45.928,-0.96,0.445
2021-08-01 00:58:45.932,-0.96,0.45
2021-08-01 00:58:45.936,-0.95,0.425
2021-08-01 00:58:45.940,-0.955,0.43
2021-08-01 00:58:45.944,-0.96,0.41
2021-08-01 00:58:45.948,-0.965,0.415
2021-08-01 00:58:45.952,-0.975,0.42
2021-08-01 00:58:45.956,-0.975,0.425
2021-08-01 00:58:45.960,-0.96,0.405
2021-08-01 00:58:45.964,-0.945,0.42
2021-08-01 00:58:45.968,-0.955,0.41
2021-08-01 00:58:45.972,-0.955,0.38
2021-08-01 00:58:45.976,-0.93,0.43
2021-08-01 00:58:45.980,-0.955,0.395
2021-08-01 00:58:45.984,-0.96,0.4
2021-08-01 00:58:45.988,-0.955,0.4
2021-08-01 00:58:45.992,-0.945,0.395
2021-08-01 00:58:45.996,-0.94,0.4
2021-08-01 00:58:46.000,-0.92,0.4
2021-08-01 00:58:46.004,-0.9,0.425
2021-08-01 00:58:46.008,-0.92,0.4
2021-08-01 00:58:46.012,-0.9,0.405
2021-08-01 00:58:46.016,-0.925,0.41
2021-08-01 00:58:46.020,-0.91,0.42
2021-08-01 00:58:46.024,-0.865,0.43
2021-08-01 00:58:46.028,-0.86,0.445
2021-08-01 00:58:46.032,-0.865,0.435
2021-08-01 00:58:46.036,-0.88,0.42
2021-08-01 00:58:46.040,-0.87,0.415
2021-08-01 00:58:46.044,-0.87,0.42
2021-08-01 00:58:46.048,-0.82,0.405
2021-08-01 00:58:46.052,-0.835,0.385
2021-08-01 00:58:46.056,-0.84,0.365
2021-08-01 00:58:46.060,-0.835,0.35
2021-08-01 00:58:46.064,-0.885,0.315
2021-08-01 00:58:46.068,-0.93,0.295
2021-08-01 00:58:46.072,-0.925,0.29
2021-08-01 00:58:46.076,-0.925,0.29
2021-08-01 00:58:46.080,-0.96,0.31
2021-08-01 00:58:46.084,-0.96,0.315
2021-08-01 00:58:46.088,-0.97,0.35
2021-08-01 00:58:46.092,-0.955,0.355
2021-08-01 00:58:46.096,-0.955,0.34
2021-08-01 00:58:46.100,-0.94,0.36
2021-08-01 00:58:46.104,-0.98,0.34
2021-08-01 00:58:46.108,-0.935,0.335
2021-08-01 00:58:46.112,-0.925,0.345
2021-08-01 00:58:46.116,-0.91,0.34
2021-08-01 00:58:46.120,-0.925,0.34
2021-08-01 00:58:46.124,-0.895,0.325
2021-08-01 00:58:46.128,-0.92,0.345
2021-08-01 00:58:46.132,-0.9,0.37
2021-08-01 00:58:46.136,-0.895,0.345
2021-08-01 00:58:46.140,-0.88,0.345
2021-08-01 00:58:46.144,-0.91,0.33
2021-08-01 00:58:46.148,-0.88,0.315
2021-08-01 00:58:46.152,-0.88,0.315
2021-08-01 00:58:46.156,-0.895,0.295
2021-08-01 00:58:46.160,-0.885,0.315
2021-08-01 00:58:46.164,-0.88,0.305
2021-08-01 00:58:46.168,-0.855,0.295
2021-08-01 00:58:46.172,-0.81,0.28
2021-08-01 00:58:46.176,-0.74,0.3
2021-08-01 00:58:46.180,-0.67,0.28
2021-08-01 00:58:46.184,-0.565,0.265
2021-08-01 00:58:46.188,-0.495,0.24
2021-08-01 00:58:46.192,-0.44,0.19
2021-08-01 00:58:46.196,-0.415,0.17
2021-08-01 00:58:46.200,-0.365,0.15
2021-08-01 00:58:46.204,-0.375,0.14
2021-08-01 00:58:46.208,-0.39,0.055
2021-08-01 00:58:46.212,-0.355,-0.07
2021-08-01 00:58:46.216,-0.175,-0.245
2021-08-01 00:58:46.220,0.125,-0.5
2021-08-01 00:58:46.224,0.515,-0.76
2021-08-01 00:58:46.228,0.835,-0.975
2021-08-01 00:58:46.232,0.93,-1.045
2021-08-01 00:58:46.236,0.75,-0.865
2021-08-01 00:58:46.240,0.265,-0.445
2021-08-01 00:58:46.244,-0.27,-0.03
2021-08-01 00:58:46.248,-0.62,0.215
2021-08-01 00:58:46.252,-0.775,0.335
2021-08-01 00:58:46.256,-0.845,0.405
2021-08-01 00:58:46.260,-0.935,0.45
2021-08-01 00:58:46.264,-0.95,0.445
2021-08-01 00:58:46.268,-0.98,0.445
2021-08-01 00:58:46.272,-0.99,0.425
2021-08-01 00:58:46.276,-1.0,0.39
2021-08-01 00:58:46.280,-0.985,0.395
2021-08-01 00:58:46.284,-0.99,0.38
2021-08-01 00:58:46.288,-1.015,0.345
2021-08-01 00:58:46.292,-1.005,0.325
2021-08-01 00:58:46.296,-1.01,0.325
2021-08-01 00:58:46.300,-1.015,0.315
2021-08-01 00:58:46.304,-1.015,0.345
2021-08-01 00:58:46.308,-1.03,0.35
2021-08-01 00:58:46.312,-1.035,0.32
2021-08-01 00:58:46.316,-1.02,0.34
2021-08-01 00:58:46.320,-1.025,0.325
2021-08-01 00:58:46.324,-1.0,0.32
2021-08-01 00:58:46.328,-1.005,0.33
2021-08-01 00:58:46.332,-0.99,0.305
2021-08-01 00:58:46.336,-0.995,0.315
2021-08-01 00:58:46.340,-1.01,0.3
2021-08-01 00:58:46.344,-1.01,0.295
2021-08-01 00:58:46.348,-0.995,0.295
2021-08-01 00:58:46.352,-0.985,0.305
2021-08-01 00:58:46.356,-1.0,0.315
2021-08-01 00:58:46.360,-1.01,0.285
2021-08-01 00:58:46.364,-1.035,0.285
2021-08-01 00:58:46.368,-1.03,0.285
2021-08-01 00:58:46.372,-1.015,0.29
2021-08-01 00:58:46.376,-1.03,0.27
2021-08-01 00:58:46.380,-1.01,0.24
2021-08-01 00:58:46.384,-1.0,0.26
2021-08-01 00:58:46.388,-1.005,0.26
2021-08-01 00:58:46.392,-0.98,0.24
2021-08-01 00:58:46.396,-0.97,0.25
2021-08-01 00:58:46.400,-0.96,0.225
2021-08-01 00:58:46.404,-0.955,0.22
2021-08-01 00:58:46.408,-0.96,0.215
2021-08-01 00:58:46.412,-0.93,0.21
2021-08-01 00:58:46.416,-0.92,0.22
2021-08-01 00:58:46.420,-0.895,0.205
2021-08-01 00:58:46.424,-0.9,0.21
2021-08-01 00:58:46.428,-0.855,0.215
2021-08-01 00:58:46.432,-0.865,0.195
2021-08-01 00:58:46.436,-0.85,0.205
2021-08-01 00:58:46.440,-0.835,0.2
2021-08-01 00:58:46.444,-0.83,0.195
2021-08-01 00:58:46.448,-0.805,0.175
2021-08-01 00:58:46.452,-0.795,0.155
2021-08-01 00:58:46.456,-0.79,0.185
2021-08-01 00:58:46.460,-0.79,0.15
2021-08-01 00:58:46.464,-0.775,0.15
2021-08-01 00:58:46.468,-0.77,0.135
2021-08-01 00:58:46.472,-0.745,0.145
2021-08-01 00:58:46.476,-0.745,0.13
2021-08-01 00:58:46.480,-0.735,0.135
2021-08-01 00:58:46.484,-0.73,0.13
2021-08-01 00:58:46.488,-0.72,0.15
2021-08-01 00:58:46.492,-0.695,0.135
2021-08-01 00:58:46.496,-0.695,0.13
2021-08-01 00:58:46.500,-0.69,0.13
2021-08-01 00:58:46.504,-0.695,0.12
2021-08-01 00:58:46.508,-0.685,0.14
2021-08-01 00:58:46.512,-0.675,0.14
2021-08-01 00:58:46.516,-0.67,0.14
2021-08-01 00:58:46.520,-0.67,0.13
2021-08-01 00:58:46.524,-0.635,0.15
2021-08-01 00:58:46.528,-0.62,0.125
2021-08-01 00:58:46.532,-0.61,0.15
2021-08-01 00:58:46.536,-0.63,0.155
2021-08-01 00:58:46.540,-0.615,0.16
2021-08-01 00:58:46.544,-0.615,0.15
2021-08-01 00:58:46.548,-0.605,0.145
2021-08-01 00:58:46.552,-0.62,0.15
2021-08-01 00:58:46.556,-0.635,0.16
2021-08-01 00:58:46.560,-0.63,0.14
2021-08-01 00:58:46.564,-0.635,0.135
2021-08-01 00:58:46.568,-0.65,0.145
2021-08-01 00:58:46.572,-0.655,0.145
2021-08-01 00:58:46.576,-0.665,0.145
2021-08-01 00:58:46.580,-0.67,0.125
2021-08-01 00:58:46.584,-0.66,0.14
2021-08-01 00:58:46.588,-0.64,0.125
2021-08-01 00:58:46.592,-0.66,0.13
2021-08-01 00:58:46.596,-0.66,0.11
2021-08-01 00:58:46.600,-0.645,0.11
2021-08-01 00:58:46.604,-0.605,0.095
2021-08-01 00:58:46.608,-0.63,0.105
2021-08-01 00:58:46.612,-0.645,0.105
2021-08-01 00:58:46.616,-0.64,0.11
2021-08-01 00:58:46.620,-0.63,0.115
2021-08-01 00:58:46.624,-0.625,0.09
2021-08-01 00:58:46.628,-0.62,0.105
2021-08-01 00:58:46.632,-0.615,0.105
2021-08-01 00:58:46.636,-0.59,0.105
2021-08-01 00:58:46.640,-0.58,0.12
2021-08-01 00:58:46.644,-0.585,0.105
2021-08-01 00:58:46.648,-0.58,0.085
2021-08-01 00:58:46.652,-0.565,0.085
2021-08-01 00:58:46.656,-0.56,0.09
2021-08-01 00:58:46.660,-0.55,0.1
2021-08-01 00:58:46.664,-0.545,0.07
2021-08-01 00:58:46.668,-0.54,0.07
2021-08-01 00:58:46.672,-0.53,0.06
2021-08-01 00:58:46.676,-0.515,0.075
2021-08-01 00:58:46.680,-0.485,0.09
2021-08-01 00:58:46.684,-0.44,0.095
2021-08-01 00:58:46.688,-0.41,0.11
2021-08-01 00:58:46.692,-0.41,0.085
2021-08-01 00:58:46.696,-0.37,0.12
2021-08-01 00:58:46.700,-0.315,0.1
2021-08-01 00:58:46.704,-0.3,0.09
2021-08-01 00:58:46.708,-0.285,0.115
2021-08-01 00:58:46.712,-0.275,0.085
2021-08-01 00:58:46.716,-0.26,0.065
2021-08-01 00:58:46.720,-0.29,0.04
2021-08-01 00:58:46.724,-0.34,0.02
2021-08-01 00:58:46.728,-0.39,0.0
2021-08-01 00:58:46.732,-0.44,0.02
2021-08-01 00:58:46.736,-0.495,0.0
2021-08-01 00:58:46.740,-0.51,0.0
2021-08-01 00:58:46.744,-0.54,0.0
2021-08-01 00:58:46.748,-0.54,0.02
2021-08-01 00:58:46.752,-0.555,0.025
2021-08-01 00:58:46.756,-0.56,0.05
2021-08-01 00:58:46.760,-0.555,0.025
2021-08-01 00:58:46.764,-0.54,0.03
2021-08-01 00:58:46.768,-0.545,0.015
2021-08-01 00:58:46.772,-0.555,0.015
2021-08-01 00:58:46.776,-0.555,0.0
2021-08-01 00:58:46.780,-0.54,0.0
2021-08-01 00:58:46.784,-0.56,0.0
2021-08-01 00:58:46.788,-0.525,0.0
2021-08-01 00:58:46.792,-0.535,0.0
2021-08-01 00:58:46.796,-0.52,-0.01
2021-08-01 00:58:46.800,-0.515,-0.025
2021-08-01 00:58:46.804,-0.505,-0.025
2021-08-01 00:58:46.808,-0.495,-0.04
2021-08-01 00:58:46.812,-0.495,-0.025
2021-08-01 00:58:46.816,-0.495,-0.045
2021-08-01 00:58:46.820,-0.5,-0.015
2021-08-01 00:58:46.824,-0.49,-0.045
2021-08-01 00:58:46.828,-0.485,-0.02
2021-08-01 00:58:46.832,-0.45,-0.03
2021-08-01 00:58:46.836,-0.45,-0.02
2021-08-01 00:58:46.840,-0.43,-0.035
2021-08-01 00:58:46.844,-0.45,-0.01
2021-08-01 00:58:46.848,-0.44,-0.025
2021-08-01 00:58:46.852,-0.4,-0.015
2021-08-01 00:58:46.856,-0.39,-0.025
2021-08-01 00:58:46.860,-0.36,-0.03
2021-08-01 00:58:46.864,-0.31,-0.045
2021-08-01 00:58:46.868,-0.225,-0.065
2021-08-01 00:58:46.872,-0.125,-0.075
2021-08-01 00:58:46.876,-0.03,-0.1
2021-08-01 00:58:46.880,0.035,-0.17
2021-08-01 00:58:46.884,0.09,-0.185
2021-08-01 00:58:46.888,0.14,-0.17
2021-08-01 00:58:46.892,0.13,-0.185
2021-08-01 00:58:46.896,0.09,-0.265
2021-08-01 00:58:46.900,0.155,-0.38
2021-08-01 00:58:46.904,0.38,-0.57
2021-08-01 00:58:46.908,0.69,-0.83
2021-08-01 00:58:46.912,1.03,-1.07
2021-08-01 00:58:46.916,1.17,-1.23
2021-08-01 00:58:46.920,1.07,-1.175
2021-08-01 00:58:46.924,0.635,-0.88
2021-08-01 00:58:46.928,0.095,-0.47
2021-08-01 00:58:46.932,-0.205,-0.22
2021-08-01 00:58:46.936,-0.31,-0.11
2021-08-01 00:58:46.940,-0.4,-0.005
2021-08-01 00:58:46.944,-0.42,0.065
2021-08-01 00:58:46.948,-0.45,0.085
2021-08-01 00:58:46.952,-0.48,0.085
2021-08-01 00:58:46.956,-0.53,0.08
2021-08-01 00:58:46.960,-0.54,0.075
2021-08-01 00:58:46.964,-0.585,0.055
2021-08-01 00:58:46.968,-0.59,0.05
2021-08-01 00:58:46.972,-0.59,0.025
2021-08-01 00:58:46.976,-0.615,0.05
2021-08-01 00:58:46.980,-0.605,0.055
2021-08-01 00:58:46.984,-0.62,0.05
2021-08-01 00:58:46.988,-0.615,0.03
2021-08-01 00:58:46.992,-0.62,0.035
2021-08-01 00:58:46.996,-0.605,0.015
2021-08-01 00:58:47.000,-0.605,0.01
2021-08-01 00:58:47.004,-0.635,0.02
2021-08-01 00:58:47.008,-0.635,0.0
2021-08-01 00:58:47.012,-0.665,0.0
2021-08-01 00:58:47.016,-0.64,0.0
2021-08-01 00:58:47.020,-0.64,0.0
2021-08-01 00:58:47.024,-0.66,0.01
2021-08-01 00:58:47.028,-0.655,0.0
2021-08-01 00:58:47.032,-0.64,0.025
2021-08-01 00:58:47.036,-0.625,0.005
2021-08-01 00:58:47.040,-0.645,0.015
2021-08-01 00:58:47.044,-0.64,0.02
2021-08-01 00:58:47.048,-0.655,0.02
2021-08-01 00:58:47.052,-0.65,0.025
2021-08-01 00:58:47.056,-0.66,0.01
2021-08-01 00:58:47.060,-0.67,0.03
2021-08-01 00:58:47.064,-0.685,0.03
2021-08-01 00:58:47.068,-0.68,0.025
2021-08-01 00:58:47.072,-0.675,0.01
2021-08-01 00:58:47.076,-0.67,0.025
2021-08-01 00:58:47.080,-0.705,0.035
2021-08-01 00:58:47.084,-0.7,0.02
2021-08-01 00:58:47.088,-0.68,0.035
2021-08-01 00:58:47.092,-0.675,0.025
2021-08-01 00:58:47.096,-0.67,0.04
2021-08-01 00:58:47.100,-0.66,0.035
2021-08-01 00:58:47.104,-0.67,0.035
2021-08-01 00:58:47.108,-0.66,0.01
2021-08-01 00:58:47.112,-0.65,0.01
2021-08-01 00:58:47.116,-0.625,0.015
2021-08-01 00:58:47.120,-0.6,0.025
2021-08-01 00:58:47.124,-0.6,0.02
2021-08-01 00:58:47.128,-0.6,0.02
2021-08-01 00:58:47.132,-0.59,0.01
2021-08-01 00:58:47.136,-0.565,0.01
2021-08-01 00:58:47.140,-0.56,0.02
2021-08-01 00:58:47.144,-0.545,0.005
2021-08-01 00:58:47.148,-0.53,0.015
2021-08-01 00:58:47.152,-0.53,0.0
2021-08-01 00:58:47.156,-0.535,0.005
2021-08-01 00:58:47.160,-0.515,0.01
2021-08-01 00:58:47.164,-0.5,0.005
2021-08-01 00:58:47.168,-0.48,0.02
2021-08-01 00:58:47.172,-0.465,0.01
2021-08-01 00:58:47.176,-0.48,0.0
2021-08-01 00:58:47.180,-0.46,0.0
2021-08-01 00:58:47.184,-0.485,0.02
2021-08-01 00:58:47.188,-0.485,0.0
2021-08-01 00:58:47.192,-0.48,0.025
2021-08-01 00:58:47.196,-0.46,0.025
2021-08-01 00:58:47.200,-0.48,0.015
2021-08-01 00:58:47.204,-0.485,0.035
2021-08-01 00:58:47.208,-0.485,0.02
2021-08-01 00:58:47.212,-0.49,0.01
2021-08-01 00:58:47.216,-0.49,0.03
2021-08-01 00:58:47.220,-0.495,0.025
2021-08-01 00:58:47.224,-0.49,0.055
2021-08-01 00:58:47.228,-0.51,0.055
2021-08-01 00:58:47.232,-0.495,0.05
2021-08-01 00:58:47.236,-0.48,0.05
2021-08-01 00:58:47.240,-0.48,0.05
2021-08-01 00:58:47.244,-0.475,0.07
2021-08-01 00:58:47.248,-0.455,0.055
2021-08-01 00:58:47.252,-0.485,0.075
2021-08-01 00:58:47.256,-0.455,0.08
2021-08-01 00:58:47.260,-0.485,0.065
2021-08-01 00:58:47.264,-0.49,0.095
2021-08-01 00:58:47.268,-0.47,0.075
2021-08-01 00:58:47.272,-0.48,0.1
2021-08-01 00:58:47.276,-0.495,0.09
2021-08-01 00:58:47.280,-0.49,0.065
2021-08-01 00:58:47.284,-0.52,0.075
2021-08-01 00:58:47.288,-0.505,0.085
2021-08-01 00:58:47.292,-0.49,0.085
2021-08-01 00:58:47.296,-0.5,0.09
2021-08-01 00:58:47.300,-0.475,0.075
2021-08-01 00:58:47.304,-0.45,0.065
2021-08-01 00:58:47.308,-0.44,0.07
2021-08-01 00:58:47.312,-0.44,0.06
2021-08-01 00:58:47.316,-0.45,0.08
2021-08-01 00:58:47.320,-0.445,0.08
2021-08-01 00:58:47.324,-0.425,0.09
2021-08-01 00:58:47.328,-0.385,0.11
2021-08-01 00:58:47.332,-0.34,0.105
2021-08-01 00:58:47.336,-0.31,0.13
2021-08-01 00:58:47.340,-0.275,0.145
2021-08-01 00:58:47.344,-0.235,0.145
2021-08-01 00:58:47.348,-0.215,0.145
2021-08-01 00:58:47.352,-0.19,0.145
2021-08-01 00:58:47.356,-0.18,0.14
2021-08-01 00:58:47.360,-0.14,0.14
2021-08-01 00:58:47.364,-0.16,0.095
2021-08-01 00:58:47.368,-0.21,0.07
2021-08-01 00:58:47.372,-0.24,0.075
2021-08-01 00:58:47.376,-0.285,0.055
2021-08-01 00:58:47.380,-0.33,0.03
2021-08-01 00:58:47.384,-0.385,0.02
2021-08-01 00:58:47.388,-0.44,0.06
2021-08-01 00:58:47.392,-0.495,0.075
2021-08-01 00:58:47.396,-0.505,0.06
2021-08-01 00:58:47.400,-0.53,0.075
2021-08-01 00:58:47.404,-0.53,0.065
2021-08-01 00:58:47.408,-0.52,0.05
2021-08-01 00:58:47.412,-0.525,0.055
2021-08-01 00:58:47.416,-0.51,0.04
2021-08-01 00:58:47.420,-0.52,0.045
2021-08-01 00:58:47.424,-0.495,0.04
2021-08-01 00:58:47.428,-0.495,0.04
2021-08-01 00:58:47.432,-0.48,0.035
2021-08-01 00:58:47.436,-0.485,0.035
2021-08-01 00:58:47.440,-0.495,0.045
2021-08-01 00:58:47.444,-0.48,0.045
2021-08-01 00:58:47.448,-0.465,0.045
2021-08-01 00:58:47.452,-0.47,0.06
2021-08-01 00:58:47.456,-0.48,0.03
2021-08-01 00:58:47.460,-0.46,0.05
2021-08-01 00:58:47.464,-0.45,0.06
2021-08-01 00:58:47.468,-0.46,0.05
2021-08-01 00:58:47.472,-0.47,0.02
2021-08-01 00:58:47.476,-0.435,0.035
2021-08-01 00:58:47.480,-0.455,0.03
2021-08-01 00:58:47.484,-0.435,0.03
2021-08-01 00:58:47.488,-0.445,0.04
2021-08-01 00:58:47.492,-0.455,0.025
2021-08-01 00:58:47.496,-0.455,0.035
2021-08-01 00:58:47.500,-0.44,0.015
2021-08-01 00:58:47.504,-0.41,0.02
2021-08-01 00:58:47.508,-0.355,0.015
2021-08-01 00:58:47.512,-0.28,0.015
2021-08-01 00:58:47.516,-0.215,0.01
2021-08-01 00:58:47.520,-0.11,-0.01
2021-08-01 00:58:47.524,-0.03,-0.035
2021-08-01 00:58:47.528,0.02,-0.1
2021-08-01 00:58:47.532,0.065,-0.085
2021-08-01 00:58:47.536,0.095,-0.085
2021-08-01 00:58:47.540,0.11,-0.145
2021-08-01 00:58:47.544,0.13,-0.24
2021-08-01 00:58:47.548,0.25,-0.43
2021-08-01 00:58:47.552,0.515,-0.665
2021-08-01 00:58:47.556,0.895,-0.93
2021-08-01 00:58:47.560,1.265,-1.155
2021-08-01 00:58:47.564,1.47,-1.29
2021-08-01 00:58:47.568,1.355,-1.21
2021-08-01 00:58:47.572,0.935,-0.885
2021-08-01 00:58:47.576,0.32,-0.445
2021-08-01 00:58:47.580,-0.12,-0.12
2021-08-01 00:58:47.584,-0.32,0.035
2021-08-01 00:58:47.588,-0.435,0.12
2021-08-01 00:58:47.592,-0.465,0.155
2021-08-01 00:58:47.596,-0.53,0.15
2021-08-01 00:58:47.600,-0.55,0.16
2021-08-01 00:58:47.604,-0.545,0.15
2021-08-01 00:58:47.608,-0.55,0.165
2021-08-01 00:58:47.612,-0.555,0.135
2021-08-01 00:58:47.616,-0.575,0.125
2021-08-01 00:58:47.620,-0.585,0.115
2021-08-01 00:58:47.624,-0.59,0.095
2021-08-01 00:58:47.628,-0.6,0.085
2021-08-01 00:58:47.632,-0.6,0.12
2021-08-01 00:58:47.636,-0.605,0.115
2021-08-01 00:58:47.640,-0.605,0.11
2021-08-01 00:58:47.644,-0.62,0.135
2021-08-01 00:58:47.648,-0.585,0.13
2021-08-01 00:58:47.652,-0.59,0.12
2021-08-01 00:58:47.656,-0.595,0.14
2021-08-01 00:58:47.660,-0.59,0.125
2021-08-01 00:58:47.664,-0.57,0.13
2021-08-01 00:58:47.668,-0.595,0.135
2021-08-01 00:58:47.672,-0.595,0.12
2021-08-01 00:58:47.676,-0.605,0.115
2021-08-01 00:58:47.680,-0.59,0.125
2021-08-01 00:58:47.684,-0.595,0.125
2021-08-01 00:58:47.688,-0.59,0.13
2021-08-01 00:58:47.692,-0.635,0.125
2021-08-01 00:58:47.696,-0.635,0.105
2021-08-01 00:58:47.700,-0.625,0.11
2021-08-01 00:58:47.704,-0.62,0.105
2021-08-01 00:58:47.708,-0.625,0.105
2021-08-01 00:58:47.712,-0.62,0.115
2021-08-01 00:58:47.716,-0.62,0.095
2021-08-01 00:58:47.720,-0.615,0.09
2021-08-01 00:58:47.724,-0.61,0.075
2021-08-01 00:58:47.728,-0.615,0.09
2021-08-01 00:58:47.732,-0.6,0.075
2021-08-01 00:58:47.736,-0.58,0.075
2021-08-01 00:58:47.740,-0.585,0.085
2021-08-01 00:58:47.744,-0.57,0.085
2021-08-01 00:58:47.748,-0.545,0.075
2021-08-01 00:58:47.752,-0.545,0.075
2021-08-01 00:58:47.756,-0.535,0.075
2021-08-01 00:58:47.760,-0.525,0.08
2021-08-01 00:58:47.764,-0.505,0.07
2021-08-01 00:58:47.768,-0.495,0.065
2021-08-01 00:58:47.772,-0.48,0.07
2021-08-01 00:58:47.776,-0.475,0.075
2021-08-01 00:58:47.780,-0.465,0.055
2021-08-01 00:58:47.784,-0.435,0.065
2021-08-01 00:58:47.788,-0.44,0.04
2021-08-01 00:58:47.792,-0.42,0.03
2021-08-01 00:58:47.796,-0.425,0.035
2021-08-01 00:58:47.800,-0.415,0.04
2021-08-01 00:58:47.804,-0.4,0.04
2021-08-01 00:58:47.808,-0.37,0.01
2021-08-01 00:58:47.812,-0.375,0.025
2021-08-01 00:58:47.816,-0.36,0.01
2021-08-01 00:58:47.820,-0.37,0.0
2021-08-01 00:58:47.824,-0.35,0.01
2021-08-01 00:58:47.828,-0.33,0.005
2021-08-01 00:58:47.832,-0.33,0.005
2021-08-01 00:58:47.836,-0.335,0.005
2021-08-01 00:58:47.840,-0.325,0.03
2021-08-01 00:58:47.844,-0.325,0.025
2021-08-01 00:58:47.848,-0.315,0.02
2021-08-01 00:58:47.852,-0.3,0.015
2021-08-01 00:58:47.856,-0.28,0.015
2021-08-01 00:58:47.860,-0.265,0.03
2021-08-01 00:58:47.864,-0.26,0.055
2021-08-01 00:58:47.868,-0.29,0.05
2021-08-01 00:58:47.872,-0.295,0.05
2021-08-01 00:58:47.876,-0.285,0.055
2021-08-01 00:58:47.880,-0.285,0.035
2021-08-01 00:58:47.884,-0.3,0.035
2021-08-01 00:58:47.888,-0.29,0.075
2021-08-01 00:58:47.892,-0.3,0.05
2021-08-01 00:58:47.896,-0.29,0.04
2021-08-01 00:58:47.900,-0.31,0.05
2021-08-01 00:58:47.904,-0.3,0.04
2021-08-01 00:58:47.908,-0.3,0.045
2021-08-01 00:58:47.912,-0.285,0.04
2021-08-01 00:58:47.916,-0.275,0.06
2021-08-01 00:58:47.920,-0.315,0.03
2021-08-01 00:58:47.924,-0.29,0.035
2021-08-01 00:58:47.928,-0.305,0.05
2021-08-01 00:58:47.932,-0.3,0.035
2021-08-01 00:58:47.936,-0.295,0.035
2021-08-01 00:58:47.940,-0.285,0.035
2021-08-01 00:58:47.944,-0.29,0.045
2021-08-01 00:58:47.948,-0.25,0.035
2021-08-01 00:58:47.952,-0.2,0.05
2021-08-01 00:58:47.956,-0.2,0.04
2021-08-01 00:58:47.960,-0.21,0.04
2021-08-01 00:58:47.964,-0.21,0.055
2021-08-01 00:58:47.968,-0.18,0.07
2021-08-01 00:58:47.972,-0.14,0.075
2021-08-01 00:58:47.976,-0.095,0.065
2021-08-01 00:58:47.980,-0.07,0.085
2021-08-01 00:58:47.984,-0.06,0.09
2021-08-01 00:58:47.988,-0.035,0.08
2021-08-01 00:58:47.992,0.015,0.07
2021-08-01 00:58:47.996,0.035,0.09
2021-08-01 00:58:48.000,0.04,0.07
2021-08-01 00:58:48.004,0.04,0.07
2021-08-01 00:58:48.008,0.01,0.015
2021-08-01 00:58:48.012,-0.035,0.005
2021-08-01 00:58:48.016,-0.08,0.0
2021-08-01 00:58:48.020,-0.11,-0.01
2021-08-01 00:58:48.024,-0.16,-0.005
2021-08-01 00:58:48.028,-0.225,0.0
2021-08-01 00:58:48.032,-0.275,0.01
2021-08-01 00:58:48.036,-0.29,0.02
2021-08-01 00:58:48.040,-0.34,0.025
2021-08-01 00:58:48.044,-0.345,0.025
2021-08-01 00:58:48.048,-0.355,0.025
2021-08-01 00:58:48.052,-0.335,0.03
2021-08-01 00:58:48.056,-0.305,0.025
2021-08-01 00:58:48.060,-0.305,0.01
2021-08-01 00:58:48.064,-0.295,0.0
2021-08-01 00:58:48.068,-0.285,-0.015
2021-08-01 00:58:48.072,-0.27,0.005
2021-08-01 00:58:48.076,-0.285,0.02
2021-08-01 00:58:48.080,-0.285,0.015
2021-08-01 00:58:48.084,-0.27,0.005
2021-08-01 00:58:48.088,-0.27,0.02
2021-08-01 00:58:48.092,-0.28,0.005
2021-08-01 00:58:48.096,-0.275,0.005
2021-08-01 00:58:48.100,-0.27,-0.01
2021-08-01 00:58:48.104,-0.255,-0.025
2021-08-01 00:58:48.108,-0.27,-0.02
2021-08-01 00:58:48.112,-0.245,0.0
2021-08-01 00:58:48.116,-0.255,-0.02
2021-08-01 00:58:48.120,-0.245,-0.025
2021-08-01 00:58:48.124,-0.26,-0.02
2021-08-01 00:58:48.128,-0.245,0.0
2021-08-01 00:58:48.132,-0.225,0.0
2021-08-01 00:58:48.136,-0.23,-0.025
2021-08-01 00:58:48.140,-0.235,-0.04
2021-08-01 00:58:48.144,-0.215,-0.01
2021-08-01 00:58:48.148,-0.19,-0.025
2021-08-01 00:58:48.152,-0.105,-0.01
2021-08-01 00:58:48.156,-0.03,-0.015
2021-08-01 00:58:48.160,0.065,-0.035
2021-08-01 00:58:48.164,0.17,-0.055
2021-08-01 00:58:48.168,0.215,-0.105
2021-08-01 00:58:48.172,0.275,-0.095
2021-08-01 00:58:48.176,0.285,-0.125
2021-08-01 00:58:48.180,0.31,-0.115
2021-08-01 00:58:48.184,0.305,-0.175
2021-08-01 00:58:48.188,0.285,-0.31
2021-08-01 00:58:48.192,0.41,-0.475
2021-08-01 00:58:48.196,0.7,-0.7
2021-08-01 00:58:48.200,1.075,-0.975
2021-08-01 00:58:48.204,1.43,-1.245
2021-08-01 00:58:48.208,1.61,-1.37
2021-08-01 00:58:48.212,1.515,-1.265
2021-08-01 00:58:48.216,1.095,-0.905
2021-08-01 00:58:48.220,0.55,-0.455
2021-08-01 00:58:48.224,0.145,-0.135
2021-08-01 00:58:48.228,-0.065,-0.005
2021-08-01 00:58:48.232,-0.165,0.07
2021-08-01 00:58:48.236,-0.21,0.105
2021-08-01 00:58:48.240,-0.235,0.11
2021-08-01 00:58:48.244,-0.26,0.11
2021-08-01 00:58:48.248,-0.27,0.125
2021-08-01 00:58:48.252,-0.3,0.13
2021-08-01 00:58:48.256,-0.305,0.11
2021-08-01 00:58:48.260,-0.3,0.085
2021-08-01 00:58:48.264,-0.29,0.08
2021-08-01 00:58:48.268,-0.285,0.07
2021-08-01 00:58:48.272,-0.265,0.07
2021-08-01 00:58:48.276,-0.29,0.075
2021-08-01 00:58:48.280,-0.285,0.085
2021-08-01 00:58:48.284,-0.28,0.09
2021-08-01 00:58:48.288,-0.28,0.095
2021-08-01 00:58:48.292,-0.26,0.075
2021-08-01 00:58:48.296,-0.27,0.065
2021-08-01 00:58:48.300,-0.265,0.08
2021-08-01 00:58:48.304,-0.275,0.065
2021-08-01 00:58:48.308,-0.295,0.095
2021-08-01 00:58:48.312,-0.275,0.07
2021-08-01 00:58:48.316,-0.28,0.07
2021-08-01 00:58:48.320,-0.275,0.07
2021-08-01 00:58:48.324,-0.29,0.075
2021-08-01 00:58:48.328,-0.29,0.06
2021-08-01 00:58:48.332,-0.285,0.03
2021-08-01 00:58:48.336,-0.28,0.055
2021-08-01 00:58:48.340,-0.275,0.06
2021-08-01 00:58:48.344,-0.285,0.045
2021-08-01 00:58:48.348,-0.275,0.055
2021-08-01 00:58:48.352,-0.295,0.05
2021-08-01 00:58:48.356,-0.28,0.06
2021-08-01 00:58:48.360,-0.25,0.075
2021-08-01 00:58:48.364,-0.235,0.07
2021-08-01 00:58:48.368,-0.225,0.08
2021-08-01 00:58:48.372,-0.22,0.08
2021-08-01 00:58:48.376,-0.205,0.08
2021-08-01 00:58:48.380,-0.22,0.075
2021-08-01 00:58:48.384,-0.18,0.08
2021-08-01 00:58:48.388,-0.18,0.07
2021-08-01 00:58:48.392,-0.17,0.055
2021-08-01 00:58:48.396,-0.155,0.06
2021-08-01 00:58:48.400,-0.135,0.055
2021-08-01 00:58:48.404,-0.14,0.075
2021-08-01 00:58:48.408,-0.135,0.055
2021-08-01 00:58:48.412,-0.135,0.055
2021-08-01 00:58:48.416,-0.08,0.045
2021-08-01 00:58:48.420,-0.065,0.035
2021-08-01 00:58:48.424,-0.05,0.035
2021-08-01 00:58:48.428,-0.01,0.035
2021-08-01 00:58:48.432,0.0,0.005
2021-08-01 00:58:48.436,0.03,0.005
2021-08-01 00:58:48.440,0.04,0.01
2021-08-01 00:58:48.444,0.035,0.015
2021-08-01 00:58:48.448,0.055,0.0
2021-08-01 00:58:48.452,0.07,-0.01
2021-08-01 00:58:48.456,0.075,0.005
2021-08-01 00:58:48.460,0.12,0.005
2021-08-01 00:58:48.464,0.15,-0.005
2021-08-01 00:58:48.468,0.16,0.0
2021-08-01 00:58:48.472,0.18,0.005
2021-08-01 00:58:48.476,0.205,0.02
2021-08-01 00:58:48.480,0.23,0.0
2021-08-01 00:58:48.484,0.225,0.005
2021-08-01 00:58:48.488,0.25,0.005
2021-08-01 00:58:48.492,0.23,0.03
2021-08-01 00:58:48.496,0.24,0.01
2021-08-01 00:58:48.500,0.265,0.01
2021-08-01 00:58:48.504,0.27,0.01
2021-08-01 00:58:48.508,0.295,-0.005
2021-08-01 00:58:48.512,0.295,0.025
2021-08-01 00:58:48.516,0.31,0.01
2021-08-01 00:58:48.520,0.305,0.015
2021-08-01 00:58:48.524,0.345,0.005
2021-08-01 00:58:48.528,0.355,0.015
2021-08-01 00:58:48.532,0.35,-0.005
2021-08-01 00:58:48.536,0.345,0.01
2021-08-01 00:58:48.540,0.355,0.025
2021-08-01 00:58:48.544,0.38,0.015
2021-08-01 00:58:48.548,0.4,0.025
2021-08-01 00:58:48.552,0.4,0.01
2021-08-01 00:58:48.556,0.42,0.015
2021-08-01 00:58:48.560,0.45,0.025
2021-08-01 00:58:48.564,0.47,0.015
2021-08-01 00:58:48.568,0.485,0.015
2021-08-01 00:58:48.572,0.485,0.02
2021-08-01 00:58:48.576,0.5,0.005
2021-08-01 00:58:48.580,0.49,0.035
2021-08-01 00:58:48.584,0.505,0.035
2021-08-01 00:58:48.588,0.52,0.03
2021-08-01 00:58:48.592,0.555,0.005
2021-08-01 00:58:48.596,0.59,0.0
2021-08-01 00:58:48.600,0.62,0.0
2021-08-01 00:58:48.604,0.635,-0.01
2021-08-01 00:58:48.608,0.675,-0.005
2021-08-01 00:58:48.612,0.7,-0.01
2021-08-01 00:58:48.616,0.735,-0.005
2021-08-01 00:58:48.620,0.74,-0.015
2021-08-01 00:58:48.624,0.74,-0.02
2021-08-01 00:58:48.628,0.78,-0.025
2021-08-01 00:58:48.632,0.86,-0.01
2021-08-01 00:58:48.636,0.88,-0.01
2021-08-01 00:58:48.640,0.955,-0.02
2021-08-01 00:58:48.644,1.015,0.005
2021-08-01 00:58:48.648,1.05,0.005
2021-08-01 00:58:48.652,1.105,0.015
2021-08-01 00:58:48.656,1.14,0.0
2021-08-01 00:58:48.660,1.21,0.005
2021-08-01 00:58:48.664,1.24,0.015
2021-08-01 00:58:48.668,1.235,0.005
2021-08-01 00:58:48.672,1.235,-0.02
2021-08-01 00:58:48.676,1.205,-0.045
2021-08-01 00:58:48.680,1.15,-0.065
2021-08-01 00:58:48.684,1.11,-0.055
2021-08-01 00:58:48.688,1.065,-0.085
2021-08-01 00:58:48.692,1.01,-0.065
2021-08-01 00:58:48.696,0.975,-0.05
2021-08-01 00:58:48.700,0.95,-0.03
2021-08-01 00:58:48.704,0.935,-0.04
2021-08-01 00:58:48.708,0.945,-0.045
2021-08-01 00:58:48.712,0.935,-0.05
2021-08-01 00:58:48.716,0.95,-0.055
2021-08-01 00:58:48.720,0.955,-0.055
2021-08-01 00:58:48.724,0.98,-0.07
2021-08-01 00:58:48.728,0.965,-0.08
2021-08-01 00:58:48.732,0.995,-0.08
2021-08-01 00:58:48.736,1.01,-0.08
2021-08-01 00:58:48.740,1.025,-0.105
2021-08-01 00:58:48.744,1.025,-0.08
2021-08-01 00:58:48.748,1.035,-0.075
2021-08-01 00:58:48.752,1.05,-0.09
2021-08-01 00:58:48.756,1.07,-0.095
2021-08-01 00:58:48.760,1.08,-0.08
2021-08-01 00:58:48.764,1.1,-0.095
2021-08-01 00:58:48.768,1.105,-0.1
2021-08-01 00:58:48.772,1.1,-0.08
2021-08-01 00:58:48.776,1.125,-0.075
2021-08-01 00:58:48.780,1.14,-0.1
2021-08-01 00:58:48.784,1.135,-0.095
2021-08-01 00:58:48.788,1.105,-0.08
2021-08-01 00:58:48.792,1.125,-0.07
2021-08-01 00:58:48.796,1.115,-0.075
2021-08-01 00:58:48.800,1.13,-0.075
2021-08-01 00:58:48.804,1.14,-0.08
2021-08-01 00:58:48.808,1.16,-0.095
2021-08-01 00:58:48.812,1.19,-0.09
2021-08-01 00:58:48.816,1.235,-0.1
2021-08-01 00:58:48.820,1.305,-0.13
2021-08-01 00:58:48.824,1.415,-0.145
2021-08-01 00:58:48.828,1.51,-0.17
2021-08-01 00:58:48.832,1.565,-0.18
2021-08-01 00:58:48.836,1.62,-0.235
2021-08-01 00:58:48.840,1.695,-0.23
2021-08-01 00:58:48.844,1.7,-0.22
2021-08-01 00:58:48.848,1.695,-0.275
2021-08-01 00:58:48.852,1.665,-0.395
2021-08-01 00:58:48.856,1.775,-0.535
2021-08-01 00:58:48.884,1.68,-0.47
2021-08-01 00:58:48.888,1.375,-0.25
2021-08-01 00:58:48.892,1.225,-0.11
2021-08-01 00:58:48.896,1.195,-0.03
2021-08-01 00:58:48.900,1.175,0.0
2021-08-01 00:58:48.904,1.135,0.015
2021-08-01 00:58:48.908,1.11,0.0
2021-08-01 00:58:48.912,1.055,0.005
2021-08-01 00:58:48.916,1.055,-0.005
2021-08-01 00:58:48.920,1.01,-0.04
2021-08-01 00:58:48.924,0.98,-0.04
2021-08-01 00:58:48.928,0.995,-0.07
2021-08-01 00:58:48.932,0.98,-0.055
2021-08-01 00:58:48.936,0.98,-0.06
2021-08-01 00:58:48.940,0.985,-0.085
2021-08-01 00:58:48.944,0.96,-0.065
2021-08-01 00:58:48.948,0.97,-0.105
2021-08-01 00:58:48.952,0.995,-0.08
2021-08-01 00:58:48.956,0.985,-0.095
2021-08-01 00:58:48.960,0.955,-0.08
2021-08-01 00:58:48.964,0.94,-0.1
2021-08-01 00:58:48.968,0.92,-0.075
2021-08-01 00:58:48.972,0.935,-0.07
2021-08-01 00:58:48.976,0.95,-0.095
2021-08-01 00:58:48.980,0.925,-0.085
2021-08-01 00:58:48.984,0.92,-0.09
2021-08-01 00:58:48.988,0.89,-0.06
2021-08-01 00:58:48.992,0.875,-0.07
2021-08-01 00:58:48.996,0.86,-0.095
2021-08-01 00:58:49.000,0.835,-0.095
2021-08-01 00:58:49.004,0.83,-0.1
2021-08-01 00:58:49.008,0.85,-0.09
2021-08-01 00:58:49.012,0.83,-0.09
2021-08-01 00:58:49.016,0.82,-0.08
2021-08-01 00:58:49.020,0.795,-0.105
2021-08-01 00:58:49.024,0.795,-0.09
2021-08-01 00:58:49.028,0.775,-0.095
2021-08-01 00:58:49.032,0.765,-0.11
2021-08-01 00:58:49.036,0.75,-0.1
2021-08-01 00:58:49.040,0.75,-0.115
2021-08-01 00:58:49.044,0.76,-0.105
2021-08-01 00:58:49.048,0.76,-0.135
2021-08-01 00:58:49.052,0.77,-0.135
2021-08-01 00:58:49.056,0.77,-0.12
2021-08-01 00:58:49.060,0.75,-0.12
2021-08-01 00:58:49.064,0.74,-0.125
2021-08-01 00:58:49.068,0.745,-0.13
2021-08-01 00:58:49.072,0.765,-0.135
2021-08-01 00:58:49.076,0.76,-0.13
2021-08-01 00:58:49.080,0.77,-0.125
2021-08-01 00:58:49.084,0.765,-0.13
2021-08-01 00:58:49.088,0.78,-0.12
2021-08-01 00:58:49.092,0.765,-0.12
2021-08-01 00:58:49.096,0.75,-0.13
2021-08-01 00:58:49.100,0.765,-0.13
2021-08-01 00:58:49.104,0.765,-0.125
2021-08-01 00:58:49.108,0.755,-0.14
2021-08-01 00:58:49.112,0.74,-0.15
2021-08-01 00:58:49.116,0.755,-0.155
2021-08-01 00:58:49.120,0.755,-0.155
2021-08-01 00:58:49.124,0.745,-0.135
2021-08-01 00:58:49.128,0.745,-0.15
2021-08-01 00:58:49.132,0.715,-0.16
2021-08-01 00:58:49.136,0.715,-0.16
2021-08-01 00:58:49.140,0.73,-0.17
2021-08-01 00:58:49.144,0.74,-0.17
2021-08-01 00:58:49.148,0.73,-0.15
2021-08-01 00:58:49.152,0.74,-0.155
2021-08-01 00:58:49.156,0.73,-0.155
2021-08-01 00:58:49.160,0.72,-0.145
2021-08-01 00:58:49.164,0.73,-0.155
2021-08-01 00:58:49.168,0.72,-0.135
2021-08-01 00:58:49.172,0.7,-0.14
2021-08-01 00:58:49.176,0.73,-0.135
2021-08-01 00:58:49.180,0.71,-0.125
2021-08-01 00:58:49.184,0.695,-0.12
2021-08-01 00:58:49.188,0.68,-0.13
2021-08-01 00:58:49.192,0.695,-0.13
2021-08-01 00:58:49.196,0.68,-0.13
2021-08-01 00:58:49.200,0.665,-0.125
2021-08-01 00:58:49.204,0.66,-0.135
2021-08-01 00:58:49.208,0.64,-0.11
2021-08-01 00:58:49.212,0.655,-0.12
2021-08-01 00:58:49.216,0.63,-0.105
2021-08-01 00:58:49.220,0.645,-0.12
2021-08-01 00:58:49.224,0.625,-0.1
2021-08-01 00:58:49.228,0.595,-0.12
2021-08-01 00:58:49.232,0.57,-0.125
2021-08-01 00:58:49.236,0.585,-0.12
2021-08-01 00:58:49.240,0.585,-0.12
2021-08-01 00:58:49.244,0.585,-0.105
2021-08-01 00:58:49.248,0.57,-0.12
2021-08-01 00:58:49.252,0.57,-0.115
2021-08-01 00:58:49.256,0.58,-0.115
2021-08-01 00:58:49.260,0.58,-0.115
2021-08-01 00:58:49.264,0.575,-0.125
2021-08-01 00:58:49.268,0.595,-0.105
2021-08-01 00:58:49.272,0.635,-0.12
2021-08-01 00:58:49.276,0.655,-0.105
2021-08-01 00:58:49.280,0.63,-0.1
2021-08-01 00:58:49.284,0.625,-0.095
2021-08-01 00:58:49.288,0.655,-0.095
2021-08-01 00:58:49.292,0.685,-0.095
2021-08-01 00:58:49.296,0.715,-0.095
2021-08-01 00:58:49.300,0.765,-0.05
2021-08-01 00:58:49.304,0.785,-0.025
2021-08-01 00:58:49.308,0.795,-0.04
2021-08-01 00:58:49.312,0.825,-0.015
2021-08-01 00:58:49.316,0.86,-0.03
2021-08-01 00:58:49.320,0.885,-0.045
2021-08-01 00:58:49.324,0.905,-0.045
2021-08-01 00:58:49.328,0.88,-0.075
2021-08-01 00:58:49.332,0.845,-0.11
2021-08-01 00:58:49.336,0.755,-0.13
2021-08-01 00:58:49.340,0.73,-0.14
2021-08-01 00:58:49.344,0.67,-0.13
2021-08-01 00:58:49.348,0.61,-0.14
2021-08-01 00:58:49.352,0.545,-0.135
2021-08-01 00:58:49.356,0.49,-0.12
2021-08-01 00:58:49.360,0.44,-0.12
2021-08-01 00:58:49.364,0.415,-0.12
2021-08-01 00:58:49.368,0.395,-0.105
2021-08-01 00:58:49.372,0.405,-0.11
2021-08-01 00:58:49.376,0.395,-0.13
2021-08-01 00:58:49.380,0.4,-0.135
2021-08-01 00:58:49.384,0.415,-0.13
2021-08-01 00:58:49.388,0.405,-0.13
2021-08-01 00:58:49.392,0.41,-0.125
2021-08-01 00:58:49.396,0.41,-0.115
2021-08-01 00:58:49.400,0.395,-0.115
2021-08-01 00:58:49.404,0.41,-0.11
2021-08-01 00:58:49.408,0.37,-0.115
2021-08-01 00:58:49.412,0.375,-0.1
2021-08-01 00:58:49.416,0.39,-0.09
2021-08-01 00:58:49.420,0.39,-0.085
2021-08-01 00:58:49.424,0.37,-0.1
2021-08-01 00:58:49.428,0.365,-0.115
2021-08-01 00:58:49.432,0.355,-0.1
2021-08-01 00:58:49.436,0.34,-0.12
2021-08-01 00:58:49.440,0.335,-0.115
2021-08-01 00:58:49.444,0.325,-0.105
2021-08-01 00:58:49.448,0.32,-0.125
2021-08-01 00:58:49.452,0.335,-0.105
2021-08-01 00:58:49.456,0.33,-0.12
2021-08-01 00:58:49.460,0.3,-0.11
2021-08-01 00:58:49.464,0.33,-0.13
2021-08-01 00:58:49.468,0.32,-0.12
2021-08-01 00:58:49.472,0.35,-0.1
2021-08-01 00:58:49.476,0.39,-0.13
2021-08-01 00:58:49.480,0.475,-0.12
2021-08-01 00:58:49.484,0.58,-0.12
2021-08-01 00:58:49.488,0.665,-0.145
2021-08-01 00:58:49.492,0.725,-0.21
2021-08-01 00:58:49.496,0.765,-0.24
2021-08-01 00:58:49.500,0.82,-0.245
2021-08-01 00:58:49.504,0.83,-0.23
2021-08-01 00:58:49.508,0.805,-0.285
2021-08-01 00:58:49.512,0.785,-0.415
2021-08-01 00:58:49.516,0.935,-0.56
2021-08-01 00:58:49.520,1.19,-0.765
2021-08-01 00:58:49.524,1.52,-1.04
2021-08-01 00:58:49.528,1.8,-1.25
2021-08-01 00:58:49.532,1.9,-1.34
2021-08-01 00:58:49.536,1.685,-1.19
2021-08-01 00:58:49.540,1.16,-0.81
2021-08-01 00:58:49.544,0.63,-0.425
2021-08-01 00:58:49.548,0.31,-0.205
2021-08-01 00:58:49.552,0.155,-0.08
2021-08-01 00:58:49.556,0.055,-0.015
2021-08-01 00:58:49.560,0.03,0.015
2021-08-01 00:58:49.564,-0.02,0.035
2021-08-01 00:58:49.568,-0.055,0.045
2021-08-01 00:58:49.572,-0.08,0.04
2021-08-01 00:58:49.576,-0.1,0.045
2021-08-01 00:58:49.580,-0.145,0.0
2021-08-01 00:58:49.584,-0.16,0.03
2021-08-01 00:58:49.588,-0.16,0.025
2021-08-01 00:58:49.592,-0.18,0.03
2021-08-01 00:58:49.596,-0.165,0.035
2021-08-01 00:58:49.600,-0.18,0.02
2021-08-01 00:58:49.604,-0.175,0.045
2021-08-01 00:58:49.608,-0.18,0.035
2021-08-01 00:58:49.612,-0.205,0.03
2021-08-01 00:58:49.616,-0.19,0.035
2021-08-01 00:58:49.620,-0.215,0.04
2021-08-01 00:58:49.624,-0.225,0.05
2021-08-01 00:58:49.628,-0.24,0.05
2021-08-01 00:58:49.632,-0.245,0.045
2021-08-01 00:58:49.636,-0.27,0.035
2021-08-01 00:58:49.640,-0.305,0.06
2021-08-01 00:58:49.644,-0.32,0.055
2021-08-01 00:58:49.648,-0.325,0.03
2021-08-01 00:58:49.652,-0.345,0.045
2021-08-01 00:58:49.656,-0.355,0.045
2021-08-01 00:58:49.660,-0.355,0.035
2021-08-01 00:58:49.664,-0.37,0.045
2021-08-01 00:58:49.668,-0.39,0.02
2021-08-01 00:58:49.672,-0.395,0.03
2021-08-01 00:58:49.676,-0.4,0.035
2021-08-01 00:58:49.680,-0.39,0.03
2021-08-01 00:58:49.684,-0.42,0.015
2021-08-01 00:58:49.688,-0.4,0.025
2021-08-01 00:58:49.692,-0.44,0.02
2021-08-01 00:58:49.696,-0.415,0.02
2021-08-01 00:58:49.700,-0.39,0.035
2021-08-01 00:58:49.704,-0.39,0.045
2021-08-01 00:58:49.708,-0.39,0.035
2021-08-01 00:58:49.712,-0.4,0.035
2021-08-01 00:58:49.716,-0.375,0.045
2021-08-01 00:58:49.720,-0.36,0.035
2021-08-01 00:58:49.724,-0.34,0.04
2021-08-01 00:58:49.728,-0.365,0.025
2021-08-01 00:58:49.732,-0.345,0.02
2021-08-01 00:58:49.736,-0.345,0.01
2021-08-01 00:58:49.740,-0.345,0.0
2021-08-01 00:58:49.744,-0.345,0.01
2021-08-01 00:58:49.748,-0.345,0.005
2021-08-01 00:58:49.752,-0.34,0.0
2021-08-01 00:58:49.756,-0.315,0.0
2021-08-01 00:58:49.760,-0.3,-0.03
2021-08-01 00:58:49.764,-0.3,-0.02
2021-08-01 00:58:49.768,-0.3,-0.04
2021-08-01 00:58:49.772,-0.29,-0.035
2021-08-01 00:58:49.776,-0.265,-0.05
2021-08-01 00:58:49.780,-0.245,-0.05
2021-08-01 00:58:49.784,-0.24,-0.05
2021-08-01 00:58:49.788,-0.26,-0.045
2021-08-01 00:58:49.792,-0.24,-0.02
2021-08-01 00:58:49.796,-0.23,-0.06
2021-08-01 00:58:49.800,-0.205,-0.03
2021-08-01 00:58:49.804,-0.21,-0.03
2021-08-01 00:58:49.808,-0.215,-0.025
2021-08-01 00:58:49.812,-0.225,-0.025
2021-08-01 00:58:49.816,-0.205,-0.03
2021-08-01 00:58:49.820,-0.21,-0.01
2021-08-01 00:58:49.824,-0.21,-0.035
2021-08-01 00:58:49.828,-0.215,-0.01
2021-08-01 00:58:49.832,-0.22,-0.035
2021-08-01 00:58:49.836,-0.225,-0.03
2021-08-01 00:58:49.840,-0.23,-0.005
2021-08-01 00:58:49.844,-0.24,-0.015
2021-08-01 00:58:49.848,-0.245,-0.015
2021-08-01 00:58:49.852,-0.25,-0.02
2021-08-01 00:58:49.856,-0.25,-0.02
2021-08-01 00:58:49.860,-0.25,-0.015
2021-08-01 00:58:49.864,-0.24,-0.02
2021-08-01 00:58:49.868,-0.27,-0.015
2021-08-01 00:58:49.872,-0.27,-0.02
2021-08-01 00:58:49.876,-0.255,-0.025
2021-08-01 00:58:49.880,-0.275,-0.04
2021-08-01 00:58:49.884,-0.3,-0.025
2021-08-01 00:58:49.888,-0.28,-0.015
2021-08-01 00:58:49.892,-0.285,-0.02
2021-08-01 00:58:49.896,-0.28,-0.015
2021-08-01 00:58:49.900,-0.3,-0.025
2021-08-01 00:58:49.904,-0.295,-0.02
2021-08-01 00:58:49.908,-0.265,-0.005
2021-08-01 00:58:49.912,-0.235,-0.01
2021-08-01 00:58:49.916,-0.24,-0.01
2021-08-01 00:58:49.920,-0.255,-0.005
2021-08-01 00:58:49.924,-0.245,-0.01
2021-08-01 00:58:49.928,-0.245,0.0
2021-08-01 00:58:49.932,-0.23,0.015
2021-08-01 00:58:49.936,-0.21,0.0
2021-08-01 00:58:49.940,-0.175,0.01
2021-08-01 00:58:49.944,-0.15,0.03
2021-08-01 00:58:49.948,-0.13,0.04
2021-08-01 00:58:49.952,-0.085,0.025
2021-08-01 00:58:49.956,-0.085,0.025
2021-08-01 00:58:49.960,-0.05,0.035
2021-08-01 00:58:49.964,-0.06,0.025
2021-08-01 00:58:49.968,-0.005,0.015
2021-08-01 00:58:49.972,-0.03,-0.005
2021-08-01 00:58:49.976,-0.06,-0.025
2021-08-01 00:58:49.980,-0.105,-0.055
2021-08-01 00:58:49.984,-0.135,-0.055
2021-08-01 00:58:49.988,-0.19,-0.065
2021-08-01 00:58:49.992,-0.25,-0.055
2021-08-01 00:58:49.996,-0.315,-0.04
2021-08-01 00:58:50.000,-0.34,-0.045
2021-08-01 00:58:50.004,-0.395,-0.02
2021-08-01 00:58:50.008,-0.42,-0.005
2021-08-01 00:58:50.012,-0.41,0.005
2021-08-01 00:58:50.016,-0.4,-0.01
2021-08-01 00:58:50.020,-0.395,-0.025
2021-08-01 00:58:50.024,-0.395,0.005
2021-08-01 00:58:50.028,-0.385,-0.005
2021-08-01 00:58:50.032,-0.39,-0.015
2021-08-01 00:58:50.036,-0.395,-0.015
2021-08-01 00:58:50.040,-0.405,-0.005
2021-08-01 00:58:50.044,-0.395,-0.04
2021-08-01 00:58:50.048,-0.385,-0.045
2021-08-01 00:58:50.052,-0.4,-0.05
2021-08-01 00:58:50.056,-0.405,-0.04
2021-08-01 00:58:50.060,-0.41,-0.04
2021-08-01 00:58:50.064,-0.41,-0.035
2021-08-01 00:58:50.068,-0.41,-0.06
2021-08-01 00:58:50.072,-0.4,-0.045
2021-08-01 00:58:50.076,-0.385,-0.03
2021-08-01 00:58:50.080,-0.405,-0.06
2021-08-01 00:58:50.084,-0.385,-0.065
2021-08-01 00:58:50.088,-0.39,-0.05
2021-08-01 00:58:50.092,-0.38,-0.05
2021-08-01 00:58:50.096,-0.395,-0.05
2021-08-01 00:58:50.100,-0.41,-0.055
2021-08-01 00:58:50.104,-0.41,-0.07
2021-08-01 00:58:50.108,-0.36,-0.05
2021-08-01 00:58:50.112,-0.34,-0.02
2021-08-01 00:58:50.116,-0.31,-0.045
2021-08-01 00:58:50.120,-0.255,-0.035
2021-08-01 00:58:50.124,-0.155,-0.06
2021-08-01 00:58:50.128,-0.065,-0.08
2021-08-01 00:58:50.132,0.015,-0.075
2021-08-01 00:58:50.136,0.055,-0.11
2021-08-01 00:58:50.140,0.09,-0.17
2021-08-01 00:58:50.144,0.105,-0.15
2021-08-01 00:58:50.148,0.145,-0.16
2021-08-01 00:58:50.152,0.11,-0.26
2021-08-01 00:58:50.156,0.125,-0.385
2021-08-01 00:58:50.160,0.32,-0.56
2021-08-01 00:58:50.164,0.61,-0.81
2021-08-01 00:58:50.168,1.015,-1.1
2021-08-01 00:58:50.172,1.305,-1.305
2021-08-01 00:58:50.176,1.41,-1.36
2021-08-01 00:58:50.180,1.18,-1.115
2021-08-01 00:58:50.184,0.64,-0.675
2021-08-01 00:58:50.188,0.12,-0.315
2021-08-01 00:58:50.192,-0.21,-0.085
2021-08-01 00:58:50.196,-0.36,0.005
2021-08-01 00:58:50.200,-0.42,0.065
2021-08-01 00:58:50.204,-0.46,0.08
2021-08-01 00:58:50.208,-0.48,0.09
2021-08-01 00:58:50.212,-0.5,0.11
2021-08-01 00:58:50.216,-0.515,0.09
2021-08-01 00:58:50.220,-0.54,0.07
2021-08-01 00:58:50.224,-0.535,0.055
2021-08-01 00:58:50.228,-0.535,0.075
2021-08-01 00:58:50.232,-0.55,0.06
2021-08-01 00:58:50.236,-0.565,0.065
2021-08-01 00:58:50.240,-0.57,0.055
2021-08-01 00:58:50.244,-0.575,0.04
2021-08-01 00:58:50.248,-0.595,0.05
2021-08-01 00:58:50.252,-0.58,0.035
2021-08-01 00:58:50.256,-0.565,0.05
2021-08-01 00:58:50.260,-0.585,0.065
2021-08-01 00:58:50.264,-0.585,0.06
2021-08-01 00:58:50.268,-0.61,0.07
2021-08-01 00:58:50.272,-0.61,0.055
2021-08-01 00:58:50.276,-0.6,0.045
2021-08-01 00:58:50.280,-0.61,0.055
2021-08-01 00:58:50.284,-0.605,0.055
2021-08-01 00:58:50.288,-0.59,0.035
2021-08-01 00:58:50.292,-0.61,0.03
2021-08-01 00:58:50.296,-0.615,0.04
2021-08-01 00:58:50.300,-0.64,0.02
2021-08-01 00:58:50.304,-0.64,0.035
2021-08-01 00:58:50.308,-0.62,0.035
2021-08-01 00:58:50.312,-0.625,0.035
2021-08-01 00:58:50.316,-0.615,0.045
2021-08-01 00:58:50.320,-0.625,0.065
2021-08-01 00:58:50.324,-0.595,0.05
2021-08-01 00:58:50.328,-0.595,0.035
2021-08-01 00:58:50.332,-0.6,0.06
2021-08-01 00:58:50.336,-0.59,0.04
2021-08-01 00:58:50.340,-0.59,0.045
2021-08-01 00:58:50.344,-0.58,0.05
2021-08-01 00:58:50.348,-0.58,0.04
2021-08-01 00:58:50.352,-0.58,0.035
2021-08-01 00:58:50.356,-0.56,0.035
2021-08-01 00:58:50.360,-0.56,0.04
2021-08-01 00:58:50.364,-0.57,0.035
2021-08-01 00:58:50.368,-0.54,0.0
2021-08-01 00:58:50.372,-0.525,0.045
2021-08-01 00:58:50.376,-0.535,0.035
2021-08-01 00:58:50.380,-0.515,0.025
2021-08-01 00:58:50.384,-0.51,0.005
2021-08-01 00:58:50.388,-0.515,0.005
2021-08-01 00:58:50.392,-0.485,-0.005
2021-08-01 00:58:50.396,-0.47,-0.005
2021-08-01 00:58:50.400,-0.44,-0.005
2021-08-01 00:58:50.404,-0.44,0.01
2021-08-01 00:58:50.408,-0.445,-0.02
2021-08-01 00:58:50.412,-0.425,-0.01
2021-08-01 00:58:50.416,-0.405,-0.04
2021-08-01 00:58:50.420,-0.375,0.0
2021-08-01 00:58:50.424,-0.375,0.005
2021-08-01 00:58:50.428,-0.38,0.0
2021-08-01 00:58:50.432,-0.37,-0.02
2021-08-01 00:58:50.436,-0.35,0.01
2021-08-01 00:58:50.440,-0.335,-0.015
2021-08-01 00:58:50.444,-0.345,0.0
2021-08-01 00:58:50.448,-0.345,0.0
2021-08-01 00:58:50.452,-0.32,-0.005
2021-08-01 00:58:50.456,-0.345,0.0
2021-08-01 00:58:50.460,-0.35,-0.015
2021-08-01 00:58:50.464,-0.34,0.015
2021-08-01 00:58:50.468,-0.355,0.0
2021-08-01 00:58:50.472,-0.35,0.015
2021-08-01 00:58:50.476,-0.365,0.015
2021-08-01 00:58:50.480,-0.375,0.035
2021-08-01 00:58:50.484,-0.36,0.01
2021-08-01 00:58:50.488,-0.345,0.015
2021-08-01 00:58:50.492,-0.34,0.01
2021-08-01 00:58:50.496,-0.365,0.0
2021-08-01 00:58:50.500,-0.365,0.01
2021-08-01 00:58:50.504,-0.345,0.005
2021-08-01 00:58:50.508,-0.35,0.015
2021-08-01 00:58:50.512,-0.365,0.0
2021-08-01 00:58:50.516,-0.36,0.025
2021-08-01 00:58:50.520,-0.36,0.03
2021-08-01 00:58:50.524,-0.365,0.01
2021-08-01 00:58:50.528,-0.37,0.015
2021-08-01 00:58:50.532,-0.37,0.025
2021-08-01 00:58:50.536,-0.375,0.03
2021-08-01 00:58:50.540,-0.375,0.025
2021-08-01 00:58:50.544,-0.36,0.015
2021-08-01 00:58:50.548,-0.35,0.035
2021-08-01 00:58:50.552,-0.335,0.03
2021-08-01 00:58:50.556,-0.335,0.02
2021-08-01 00:58:50.560,-0.33,0.015
2021-08-01 00:58:50.564,-0.345,0.03
2021-08-01 00:58:50.568,-0.345,0.035
2021-08-01 00:58:50.572,-0.31,0.035
2021-08-01 00:58:50.576,-0.28,0.06
2021-08-01 00:58:50.580,-0.225,0.05
2021-08-01 00:58:50.584,-0.185,0.075
2021-08-01 00:58:50.588,-0.175,0.055
2021-08-01 00:58:50.592,-0.15,0.04
2021-08-01 00:58:50.596,-0.11,0.055
2021-08-01 00:58:50.600,-0.095,0.045
2021-08-01 00:58:50.604,-0.09,0.025
2021-08-01 00:58:50.608,-0.1,0.02
2021-08-01 00:58:50.612,-0.12,0.0
2021-08-01 00:58:50.616,-0.155,-0.005
2021-08-01 00:58:50.620,-0.205,-0.025
2021-08-01 00:58:50.624,-0.245,-0.03
2021-08-01 00:58:50.628,-0.315,-0.025
2021-08-01 00:58:50.632,-0.35,-0.005
2021-08-01 00:58:50.636,-0.41,-0.005
2021-08-01 00:58:50.640,-0.44,0.0
2021-08-01 00:58:50.644,-0.48,0.01
2021-08-01 00:58:50.648,-0.475,0.025
2021-08-01 00:58:50.652,-0.48,0.015
2021-08-01 00:58:50.656,-0.475,0.005
2021-08-01 00:58:50.660,-0.485,-0.005
2021-08-01 00:58:50.664,-0.485,-0.015
2021-08-01 00:58:50.668,-0.49,-0.01
2021-08-01 00:58:50.672,-0.485,-0.02
2021-08-01 00:58:50.676,-0.485,-0.02
2021-08-01 00:58:50.680,-0.48,-0.02
2021-08-01 00:58:50.684,-0.46,-0.045
2021-08-01 00:58:50.688,-0.46,-0.05
2021-08-01 00:58:50.692,-0.47,-0.035
2021-08-01 00:58:50.696,-0.465,-0.04
2021-08-01 00:58:50.700,-0.455,-0.035
2021-08-01 00:58:50.704,-0.445,-0.04
2021-08-01 00:58:50.708,-0.45,-0.055
2021-08-01 00:58:50.712,-0.445,-0.04
2021-08-01 00:58:50.716,-0.45,-0.04
2021-08-01 00:58:50.720,-0.46,-0.035
2021-08-01 00:58:50.724,-0.45,-0.04
2021-08-01 00:58:50.728,-0.425,-0.03
2021-08-01 00:58:50.732,-0.38,-0.055
2021-08-01 00:58:50.736,-0.405,-0.05
2021-08-01 00:58:50.740,-0.405,-0.02
2021-08-01 00:58:50.744,-0.41,-0.015
2021-08-01 00:58:50.748,-0.375,-0.03
2021-08-01 00:58:50.752,-0.335,-0.05
2021-08-01 00:58:50.756,-0.275,-0.055
2021-08-01 00:58:50.760,-0.16,-0.05
2021-08-01 00:58:50.764,-0.06,-0.07
2021-08-01 00:58:50.768,-0.015,-0.14
2021-08-01 00:58:50.772,0.035,-0.175
2021-08-01 00:58:50.776,0.065,-0.18
2021-08-01 00:58:50.780,0.075,-0.18
2021-08-01 00:58:50.784,0.075,-0.21
2021-08-01 00:58:50.788,0.015,-0.315
2021-08-01 00:58:50.792,0.11,-0.475
2021-08-01 00:58:50.796,0.36,-0.7
2021-08-01 00:58:50.800,0.735,-0.97
2021-08-01 00:58:50.804,1.07,-1.225
2021-08-01 00:58:50.808,1.295,-1.37
2021-08-01 00:58:50.812,1.23,-1.295
2021-08-01 00:58:50.816,0.84,-0.935
2021-08-01 00:58:50.820,0.295,-0.49
2021-08-01 00:58:50.824,-0.08,-0.225
2021-08-01 00:58:50.828,-0.29,-0.06
2021-08-01 00:58:50.832,-0.38,0.005
2021-08-01 00:58:50.836,-0.435,0.03
2021-08-01 00:58:50.840,-0.44,0.045
2021-08-01 00:58:50.844,-0.47,0.025
2021-08-01 00:58:50.848,-0.505,0.05
2021-08-01 00:58:50.852,-0.53,0.03
2021-08-01 00:58:50.856,-0.535,0.0
2021-08-01 00:58:50.860,-0.53,-0.005
2021-08-01 00:58:50.864,-0.555,-0.02
2021-08-01 00:58:50.868,-0.58,-0.04
2021-08-01 00:58:50.872,-0.575,-0.035
2021-08-01 00:58:50.876,-0.6,-0.04
2021-08-01 00:58:50.880,-0.595,-0.085
2021-08-01 00:58:50.884,-0.585,-0.05
2021-08-01 00:58:50.888,-0.57,-0.055
2021-08-01 00:58:50.892,-0.565,-0.05
2021-08-01 00:58:50.896,-0.58,-0.055
2021-08-01 00:58:50.900,-0.56,-0.055
2021-08-01 00:58:50.904,-0.575,-0.08
2021-08-01 00:58:50.908,-0.56,-0.08
2021-08-01 00:58:50.912,-0.56,-0.085
2021-08-01 00:58:50.916,-0.57,-0.08
2021-08-01 00:58:50.920,-0.59,-0.08
2021-08-01 00:58:50.924,-0.58,-0.085
2021-08-01 00:58:50.928,-0.565,-0.09
2021-08-01 00:58:50.932,-0.57,-0.105
2021-08-01 00:58:50.936,-0.555,-0.085
2021-08-01 00:58:50.940,-0.565,-0.075
2021-08-01 00:58:50.944,-0.57,-0.085
2021-08-01 00:58:50.948,-0.55,-0.085
2021-08-01 00:58:50.952,-0.555,-0.09
2021-08-01 00:58:50.956,-0.57,-0.095
2021-08-01 00:58:50.960,-0.55,-0.065
2021-08-01 00:58:50.964,-0.56,-0.085
2021-08-01 00:58:50.968,-0.57,-0.075
2021-08-01 00:58:50.972,-0.565,-0.09
2021-08-01 00:58:50.976,-0.545,-0.105
2021-08-01 00:58:50.980,-0.545,-0.115
2021-08-01 00:58:50.984,-0.52,-0.085
2021-08-01 00:58:50.988,-0.51,-0.08
2021-08-01 00:58:50.992,-0.5,-0.08
2021-08-01 00:58:50.996,-0.5,-0.11
2021-08-01 00:58:51.000,-0.47,-0.115
2021-08-01 00:58:51.004,-0.49,-0.13
2021-08-01 00:58:51.008,-0.48,-0.135
2021-08-01 00:58:51.012,-0.445,-0.12
2021-08-01 00:58:51.016,-0.46,-0.12
2021-08-01 00:58:51.020,-0.43,-0.125
2021-08-01 00:58:51.024,-0.41,-0.12
2021-08-01 00:58:51.028,-0.395,-0.1
2021-08-01 00:58:51.032,-0.365,-0.115
2021-08-01 00:58:51.036,-0.34,-0.125
2021-08-01 00:58:51.040,-0.35,-0.115
2021-08-01 00:58:51.044,-0.35,-0.125
2021-08-01 00:58:51.048,-0.33,-0.145
2021-08-01 00:58:51.052,-0.305,-0.105
2021-08-01 00:58:51.056,-0.28,-0.115
2021-08-01 00:58:51.060,-0.31,-0.115
2021-08-01 00:58:51.064,-0.31,-0.125
2021-08-01 00:58:51.068,-0.31,-0.145
2021-08-01 00:58:51.072,-0.305,-0.15
2021-08-01 00:58:51.076,-0.3,-0.135
2021-08-01 00:58:51.080,-0.3,-0.12
2021-08-01 00:58:51.084,-0.28,-0.125
2021-08-01 00:58:51.088,-0.265,-0.115
2021-08-01 00:58:51.092,-0.265,-0.13
2021-08-01 00:58:51.096,-0.275,-0.125
2021-08-01 00:58:51.100,-0.27,-0.125
2021-08-01 00:58:51.104,-0.27,-0.14
2021-08-01 00:58:51.108,-0.255,-0.135
2021-08-01 00:58:51.112,-0.255,-0.12
2021-08-01 00:58:51.116,-0.255,-0.11
2021-08-01 00:58:51.120,-0.255,-0.105
2021-08-01 00:58:51.124,-0.26,-0.11
2021-08-01 00:58:51.128,-0.26,-0.115
2021-08-01 00:58:51.132,-0.235,-0.11
2021-08-01 00:58:51.136,-0.23,-0.125
2021-08-01 00:58:51.140,-0.245,-0.105
2021-08-01 00:58:51.144,-0.255,-0.095
2021-08-01 00:58:51.148,-0.24,-0.11
2021-08-01 00:58:51.152,-0.27,-0.12
2021-08-01 00:58:51.156,-0.28,-0.11
2021-08-01 00:58:51.160,-0.285,-0.12
2021-08-01 00:58:51.164,-0.275,-0.095
2021-08-01 00:58:51.168,-0.285,-0.125
2021-08-01 00:58:51.172,-0.27,-0.105
2021-08-01 00:58:51.176,-0.265,-0.105
2021-08-01 00:58:51.180,-0.28,-0.1
2021-08-01 00:58:51.184,-0.29,-0.12
2021-08-01 00:58:51.188,-0.275,-0.125
2021-08-01 00:58:51.192,-0.255,-0.11
2021-08-01 00:58:51.196,-0.245,-0.13
2021-08-01 00:58:51.200,-0.225,-0.1
2021-08-01 00:58:51.204,-0.2,-0.145
2021-08-01 00:58:51.208,-0.21,-0.12
2021-08-01 00:58:51.212,-0.185,-0.125
2021-08-01 00:58:51.216,-0.17,-0.12
2021-08-01 00:58:51.220,-0.18,-0.1
2021-08-01 00:58:51.224,-0.13,-0.09
2021-08-01 00:58:51.228,-0.09,-0.07
2021-08-01 00:58:51.232,-0.02,-0.08
2021-08-01 00:58:51.236,-0.005,-0.06
2021-08-01 00:58:51.240,0.04,-0.055
2021-08-01 00:58:51.244,0.07,-0.045
2021-08-01 00:58:51.248,0.085,-0.03
2021-08-01 00:58:51.252,0.115,-0.04
2021-08-01 00:58:51.256,0.11,-0.1
2021-08-01 00:58:51.260,0.035,-0.125
2021-08-01 00:58:51.264,-0.015,-0.14
2021-08-01 00:58:51.268,-0.075,-0.15
2021-08-01 00:58:51.272,-0.11,-0.155
2021-08-01 00:58:51.276,-0.17,-0.155
2021-08-01 00:58:51.280,-0.205,-0.14
2021-08-01 00:58:51.284,-0.28,-0.115
2021-08-01 00:58:51.288,-0.315,-0.14
2021-08-01 00:58:51.292,-0.335,-0.155
2021-08-01 00:58:51.296,-0.35,-0.135
2021-08-01 00:58:51.300,-0.335,-0.145
2021-08-01 00:58:51.304,-0.315,-0.16
2021-08-01 00:58:51.308,-0.325,-0.16
2021-08-01 00:58:51.312,-0.32,-0.16
2021-08-01 00:58:51.316,-0.28,-0.145
2021-08-01 00:58:51.320,-0.3,-0.165
2021-08-01 00:58:51.324,-0.285,-0.165
2021-08-01 00:58:51.328,-0.275,-0.17
2021-08-01 00:58:51.332,-0.27,-0.17
2021-08-01 00:58:51.336,-0.28,-0.17
2021-08-01 00:58:51.340,-0.26,-0.14
2021-08-01 00:58:51.344,-0.25,-0.155
2021-08-01 00:58:51.348,-0.255,-0.13
2021-08-01 00:58:51.352,-0.27,-0.15
2021-08-01 00:58:51.356,-0.28,-0.15
2021-08-01 00:58:51.360,-0.285,-0.145
2021-08-01 00:58:51.364,-0.27,-0.14
2021-08-01 00:58:51.368,-0.28,-0.145
2021-08-01 00:58:51.372,-0.27,-0.13
2021-08-01 00:58:51.376,-0.29,-0.16
2021-08-01 00:58:51.380,-0.29,-0.15
2021-08-01 00:58:51.384,-0.295,-0.145
2021-08-01 00:58:51.388,-0.3,-0.145
2021-08-01 00:58:51.392,-0.27,-0.14
2021-08-01 00:58:51.396,-0.22,-0.14
2021-08-01 00:58:51.400,-0.145,-0.17
2021-08-01 00:58:51.404,-0.06,-0.16
2021-08-01 00:58:51.408,0.02,-0.16
2021-08-01 00:58:51.412,0.105,-0.2
2021-08-01 00:58:51.416,0.17,-0.24
2021-08-01 00:58:51.420,0.23,-0.25
2021-08-01 00:58:51.424,0.29,-0.255
2021-08-01 00:58:51.428,0.335,-0.225
2021-08-01 00:58:51.432,0.31,-0.34
2021-08-01 00:58:51.436,0.29,-0.425
2021-08-01 00:58:51.440,0.38,-0.55
2021-08-01 00:58:51.444,0.63,-0.75
2021-08-01 00:58:51.448,0.94,-1.02
2021-08-01 00:58:51.452,1.225,-1.24
2021-08-01 00:58:51.456,1.315,-1.34
2021-08-01 00:58:51.460,1.14,-1.21
2021-08-01 00:58:51.464,0.68,-0.85
2021-08-01 00:58:51.468,0.165,-0.485
2021-08-01 00:58:51.472,-0.12,-0.27
2021-08-01 00:58:51.476,-0.235,-0.165
2021-08-01 00:58:51.480,-0.3,-0.07
2021-08-01 00:58:51.484,-0.345,-0.005
2021-08-01 00:58:51.488,-0.365,0.0
2021-08-01 00:58:51.492,-0.4,0.0
2021-08-01 00:58:51.496,-0.41,0.005
2021-08-01 00:58:51.500,-0.45,-0.02
2021-08-01 00:58:51.504,-0.45,-0.02
2021-08-01 00:58:51.508,-0.49,-0.055
2021-08-01 00:58:51.512,-0.49,-0.05
2021-08-01 00:58:51.516,-0.5,-0.05
2021-08-01 00:58:51.520,-0.5,-0.07
2021-08-01 00:58:51.524,-0.48,-0.06
2021-08-01 00:58:51.528,-0.49,-0.04
2021-08-01 00:58:51.532,-0.495,-0.03
2021-08-01 00:58:51.536,-0.485,-0.04
2021-08-01 00:58:51.540,-0.5,-0.055
2021-08-01 00:58:51.544,-0.51,-0.04
2021-08-01 00:58:51.548,-0.51,-0.055
2021-08-01 00:58:51.552,-0.51,-0.04
2021-08-01 00:58:51.556,-0.495,-0.03
2021-08-01 00:58:51.560,-0.515,-0.04
2021-08-01 00:58:51.564,-0.54,-0.03
2021-08-01 00:58:51.568,-0.53,-0.03
2021-08-01 00:58:51.572,-0.55,-0.055
2021-08-01 00:58:51.576,-0.545,-0.01
2021-08-01 00:58:51.580,-0.575,-0.045
2021-08-01 00:58:51.584,-0.575,-0.03
2021-08-01 00:58:51.588,-0.565,-0.025
2021-08-01 00:58:51.592,-0.585,-0.035
2021-08-01 00:58:51.596,-0.595,-0.055
2021-08-01 00:58:51.600,-0.58,-0.05
2021-08-01 00:58:51.604,-0.57,-0.04
2021-08-01 00:58:51.608,-0.59,-0.055
2021-08-01 00:58:51.612,-0.585,-0.07
2021-08-01 00:58:51.616,-0.58,-0.05
2021-08-01 00:58:51.620,-0.59,-0.03
2021-08-01 00:58:51.624,-0.58,-0.03
2021-08-01 00:58:51.628,-0.585,-0.035
2021-08-01 00:58:51.632,-0.56,-0.035
2021-08-01 00:58:51.636,-0.54,-0.035
2021-08-01 00:58:51.640,-0.53,-0.03
2021-08-01 00:58:51.644,-0.53,-0.025
2021-08-01 00:58:51.648,-0.54,-0.02
2021-08-01 00:58:51.652,-0.51,-0.04
2021-08-01 00:58:51.656,-0.51,-0.04
2021-08-01 00:58:51.660,-0.505,-0.045
2021-08-01 00:58:51.664,-0.505,-0.06
2021-08-01 00:58:51.668,-0.495,-0.04
2021-08-01 00:58:51.672,-0.49,-0.06
2021-08-01 00:58:51.676,-0.495,-0.07
2021-08-01 00:58:51.680,-0.49,-0.065
2021-08-01 00:58:51.684,-0.465,-0.055
2021-08-01 00:58:51.688,-0.475,-0.045
2021-08-01 00:58:51.692,-0.45,-0.07
2021-08-01 00:58:51.696,-0.43,-0.075
2021-08-01 00:58:51.700,-0.44,-0.08
2021-08-01 00:58:51.704,-0.425,-0.07
2021-08-01 00:58:51.708,-0.415,-0.075
2021-08-01 00:58:51.712,-0.41,-0.07
2021-08-01 00:58:51.716,-0.41,-0.06
2021-08-01 00:58:51.720,-0.4,-0.06
2021-08-01 00:58:51.724,-0.41,-0.065
2021-08-01 00:58:51.728,-0.415,-0.065
2021-08-01 00:58:51.732,-0.39,-0.04
2021-08-01 00:58:51.736,-0.37,-0.05
2021-08-01 00:58:51.740,-0.37,-0.035
2021-08-01 00:58:51.744,-0.38,-0.06
2021-08-01 00:58:51.748,-0.36,-0.055
2021-08-01 00:58:51.752,-0.375,-0.035
2021-08-01 00:58:51.756,-0.36,-0.015
2021-08-01 00:58:51.760,-0.37,-0.02
2021-08-01 00:58:51.764,-0.385,-0.03
2021-08-01 00:58:51.768,-0.38,-0.025
2021-08-01 00:58:51.772,-0.415,-0.03
2021-08-01 00:58:51.776,-0.405,-0.02
2021-08-01 00:58:51.780,-0.41,-0.015
2021-08-01 00:58:51.784,-0.41,-0.01
2021-08-01 00:58:51.788,-0.42,-0.02
2021-08-01 00:58:51.792,-0.44,-0.03
2021-08-01 00:58:51.796,-0.415,0.0
2021-08-01 00:58:51.800,-0.42,-0.01
2021-08-01 00:58:51.804,-0.43,-0.04
2021-08-01 00:58:51.808,-0.46,-0.03
2021-08-01 00:58:51.812,-0.46,-0.03
2021-08-01 00:58:51.816,-0.435,-0.05
2021-08-01 00:58:51.820,-0.455,-0.025
2021-08-01 00:58:51.824,-0.47,-0.025
2021-08-01 00:58:51.828,-0.46,-0.04
2021-08-01 00:58:51.832,-0.43,-0.02
2021-08-01 00:58:51.836,-0.425,0.0
2021-08-01 00:58:51.840,-0.4,-0.02
2021-08-01 00:58:51.844,-0.4,-0.035
2021-08-01 00:58:51.848,-0.38,-0.005
2021-08-01 00:58:51.852,-0.395,0.0
2021-08-01 00:58:51.856,-0.4,0.005
2021-08-01 00:58:51.860,-0.38,0.0
2021-08-01 00:58:51.864,-0.35,0.0
2021-08-01 00:58:51.868,-0.305,0.0
2021-08-01 00:58:51.872,-0.27,0.015
2021-08-01 00:58:51.876,-0.26,0.03
2021-08-01 00:58:51.880,-0.24,0.025
2021-08-01 00:58:51.884,-0.21,0.025
2021-08-01 00:58:51.888,-0.185,0.04
2021-08-01 00:58:51.892,-0.19,0.01
2021-08-01 00:58:51.896,-0.145,0.015
2021-08-01 00:58:51.900,-0.19,-0.015
2021-08-01 00:58:51.904,-0.24,-0.06
2021-08-01 00:58:51.908,-0.265,-0.06
2021-08-01 00:58:51.912,-0.32,-0.085
2021-08-01 00:58:51.916,-0.36,-0.055
2021-08-01 00:58:51.920,-0.415,-0.065
2021-08-01 00:58:51.924,-0.475,-0.05
2021-08-01 00:58:51.928,-0.535,-0.02
2021-08-01 00:58:51.932,-0.565,-0.02
2021-08-01 00:58:51.936,-0.57,-0.035
2021-08-01 00:58:51.940,-0.56,-0.04
2021-08-01 00:58:51.944,-0.54,-0.005
2021-08-01 00:58:51.948,-0.54,-0.035
2021-08-01 00:58:51.952,-0.56,-0.01
2021-08-01 00:58:51.956,-0.535,-0.045
2021-08-01 00:58:51.960,-0.53,-0.035
2021-08-01 00:58:51.964,-0.535,-0.045
2021-08-01 00:58:51.968,-0.53,-0.04
2021-08-01 00:58:51.972,-0.525,-0.03
2021-08-01 00:58:51.976,-0.54,-0.03
2021-08-01 00:58:51.980,-0.54,-0.035
2021-08-01 00:58:51.984,-0.52,-0.05
2021-08-01 00:58:51.988,-0.535,-0.04
2021-08-01 00:58:51.992,-0.54,-0.05
2021-08-01 00:58:51.996,-0.55,-0.04
2021-08-01 00:58:52.000,-0.52,-0.06
2021-08-01 00:58:52.004,-0.53,-0.055
2021-08-01 00:58:52.008,-0.53,-0.08
2021-08-01 00:58:52.012,-0.52,-0.09
2021-08-01 00:58:52.016,-0.555,-0.08
2021-08-01 00:58:52.020,-0.54,-0.075
2021-08-01 00:58:52.024,-0.53,-0.07
2021-08-01 00:58:52.028,-0.515,-0.07
2021-08-01 00:58:52.032,-0.5,-0.04
2021-08-01 00:58:52.036,-0.495,-0.045
2021-08-01 00:58:52.040,-0.46,-0.06
2021-08-01 00:58:52.044,-0.385,-0.06
2021-08-01 00:58:52.048,-0.29,-0.06
2021-08-01 00:58:52.052,-0.22,-0.06
2021-08-01 00:58:52.056,-0.12,-0.1
2021-08-01 00:58:52.060,-0.08,-0.13
2021-08-01 00:58:52.064,-0.06,-0.18
2021-08-01 00:58:52.068,0.01,-0.17
2021-08-01 00:58:52.072,0.02,-0.2
2021-08-01 00:58:52.076,0.025,-0.28
2021-08-01 00:58:52.080,0.06,-0.41
2021-08-01 00:58:52.084,0.245,-0.615
2021-08-01 00:58:52.088,0.575,-0.86
2021-08-01 00:58:52.092,0.96,-1.12
2021-08-01 00:58:52.096,1.25,-1.34
2021-08-01 00:58:52.100,1.32,-1.38
2021-08-01 00:58:52.104,1.065,-1.11
2021-08-01 00:58:52.108,0.5,-0.685
2021-08-01 00:58:52.112,-0.01,-0.305
2021-08-01 00:58:52.116,-0.345,-0.11
2021-08-01 00:58:52.120,-0.51,-0.025
2021-08-01 00:58:52.124,-0.585,0.04
2021-08-01 00:58:52.128,-0.61,0.06
2021-08-01 00:58:52.132,-0.64,0.06
2021-08-01 00:58:52.136,-0.65,0.065
2021-08-01 00:58:52.140,-0.665,0.08
2021-08-01 00:58:52.144,-0.675,0.06
2021-08-01 00:58:52.148,-0.695,0.05
2021-08-01 00:58:52.152,-0.7,0.05
2021-08-01 00:58:52.156,-0.7,0.04
2021-08-01 00:58:52.160,-0.705,0.04
2021-08-01 00:58:52.164,-0.705,0.05
2021-08-01 00:58:52.168,-0.685,0.05
2021-08-01 00:58:52.172,-0.695,0.055
2021-08-01 00:58:52.176,-0.7,0.07
2021-08-01 00:58:52.180,-0.705,0.05
2021-08-01 00:58:52.184,-0.715,0.045
2021-08-01 00:58:52.188,-0.735,0.045
2021-08-01 00:58:52.192,-0.72,0.03
2021-08-01 00:58:52.196,-0.73,0.05
2021-08-01 00:58:52.200,-0.74,0.035
2021-08-01 00:58:52.204,-0.725,0.025
2021-08-01 00:58:52.208,-0.725,0.02
2021-08-01 00:58:52.212,-0.74,0.025
2021-08-01 00:58:52.216,-0.75,0.03
2021-08-01 00:58:52.220,-0.74,0.03
2021-08-01 00:58:52.224,-0.735,0.025
2021-08-01 00:58:52.228,-0.74,0.02
2021-08-01 00:58:52.232,-0.76,0.02
2021-08-01 00:58:52.236,-0.75,0.025
2021-08-01 00:58:52.240,-0.735,0.03
2021-08-01 00:58:52.244,-0.73,0.03
2021-08-01 00:58:52.248,-0.715,0.025
2021-08-01 00:58:52.252,-0.715,0.03
2021-08-01 00:58:52.256,-0.71,0.02
2021-08-01 00:58:52.260,-0.725,0.03
2021-08-01 00:58:52.264,-0.71,0.03
2021-08-01 00:58:52.268,-0.71,0.035
2021-08-01 00:58:52.272,-0.7,0.035
2021-08-01 00:58:52.276,-0.685,0.02
2021-08-01 00:58:52.280,-0.68,0.03
2021-08-01 00:58:52.284,-0.685,0.03
2021-08-01 00:58:52.288,-0.665,0.01
2021-08-01 00:58:52.292,-0.67,0.015
2021-08-01 00:58:52.296,-0.64,-0.005
2021-08-01 00:58:52.300,-0.64,0.0
2021-08-01 00:58:52.304,-0.62,-0.005
2021-08-01 00:58:52.308,-0.61,-0.02
2021-08-01 00:58:52.312,-0.6,-0.025
2021-08-01 00:58:52.316,-0.585,-0.045
2021-08-01 00:58:52.320,-0.57,-0.06
2021-08-01 00:58:52.324,-0.55,-0.04
2021-08-01 00:58:52.328,-0.565,-0.03
2021-08-01 00:58:52.332,-0.535,-0.025
2021-08-01 00:58:52.336,-0.515,-0.035
2021-08-01 00:58:52.340,-0.49,-0.03
2021-08-01 00:58:52.344,-0.48,-0.035
2021-08-01 00:58:52.348,-0.48,-0.03
2021-08-01 00:58:52.352,-0.46,-0.025
2021-08-01 00:58:52.356,-0.45,-0.025
2021-08-01 00:58:52.360,-0.445,-0.03
2021-08-01 00:58:52.364,-0.43,0.0
2021-08-01 00:58:52.368,-0.445,-0.015
2021-08-01 00:58:52.372,-0.425,-0.005
2021-08-01 00:58:52.376,-0.425,-0.04
2021-08-01 00:58:52.380,-0.435,0.005
2021-08-01 00:58:52.384,-0.425,-0.025
2021-08-01 00:58:52.388,-0.405,-0.025
2021-08-01 00:58:52.392,-0.41,0.0
2021-08-01 00:58:52.396,-0.43,-0.01
2021-08-01 00:58:52.400,-0.42,0.0
2021-08-01 00:58:52.404,-0.405,-0.01
2021-08-01 00:58:52.408,-0.39,-0.01
2021-08-01 00:58:52.412,-0.4,0.0
2021-08-01 00:58:52.416,-0.425,-0.01
2021-08-01 00:58:52.420,-0.41,0.0
2021-08-01 00:58:52.424,-0.4,-0.005
2021-08-01 00:58:52.428,-0.425,0.0
2021-08-01 00:58:52.432,-0.42,0.01
2021-08-01 00:58:52.436,-0.42,0.01
2021-08-01 00:58:52.440,-0.415,0.03
2021-08-01 00:58:52.444,-0.43,0.04
2021-08-01 00:58:52.448,-0.41,0.025
2021-08-01 00:58:52.452,-0.405,0.015
2021-08-01 00:58:52.456,-0.405,0.05
2021-08-01 00:58:52.460,-0.4,0.025
2021-08-01 00:58:52.464,-0.385,0.04
2021-08-01 00:58:52.468,-0.39,0.035
2021-08-01 00:58:52.472,-0.38,0.05
2021-08-01 00:58:52.476,-0.37,0.025
2021-08-01 00:58:52.480,-0.34,0.055
2021-08-01 00:58:52.484,-0.355,0.04
2021-08-01 00:58:52.488,-0.38,0.03
2021-08-01 00:58:52.492,-0.35,0.04
2021-08-01 00:58:52.496,-0.365,0.045
2021-08-01 00:58:52.500,-0.32,0.06
2021-08-01 00:58:52.504,-0.285,0.055
2021-08-01 00:58:52.508,-0.26,0.065
2021-08-01 00:58:52.512,-0.215,0.075
2021-08-01 00:58:52.516,-0.205,0.06
2021-08-01 00:58:52.520,-0.145,0.075
2021-08-01 00:58:52.524,-0.15,0.06
2021-08-01 00:58:52.528,-0.11,0.035
2021-08-01 00:58:52.532,-0.1,0.015
2021-08-01 00:58:52.536,-0.125,-0.005
2021-08-01 00:58:52.540,-0.15,-0.05
2021-08-01 00:58:52.544,-0.205,-0.035
2021-08-01 00:58:52.548,-0.25,-0.04
2021-08-01 00:58:52.552,-0.26,-0.04
2021-08-01 00:58:52.556,-0.32,-0.025
2021-08-01 00:58:52.560,-0.385,-0.01
2021-08-01 00:58:52.564,-0.445,-0.015
2021-08-01 00:58:52.568,-0.465,0.015
2021-08-01 00:58:52.572,-0.495,0.0
2021-08-01 00:58:52.576,-0.5,0.02
2021-08-01 00:58:52.580,-0.49,-0.005
2021-08-01 00:58:52.584,-0.46,-0.02
2021-08-01 00:58:52.588,-0.475,0.0
2021-08-01 00:58:52.592,-0.485,-0.015
2021-08-01 00:58:52.596,-0.47,-0.02
2021-08-01 00:58:52.600,-0.465,-0.025
2021-08-01 00:58:52.604,-0.47,-0.03
2021-08-01 00:58:52.608,-0.455,-0.02
2021-08-01 00:58:52.612,-0.465,-0.045
2021-08-01 00:58:52.616,-0.46,-0.05
2021-08-01 00:58:52.620,-0.46,-0.04
2021-08-01 00:58:52.624,-0.46,-0.055
2021-08-01 00:58:52.628,-0.45,-0.05
2021-08-01 00:58:52.632,-0.44,-0.035
2021-08-01 00:58:52.636,-0.435,-0.03
2021-08-01 00:58:52.640,-0.435,-0.03
2021-08-01 00:58:52.644,-0.43,-0.055
2021-08-01 00:58:52.648,-0.41,-0.03
2021-08-01 00:58:52.652,-0.395,-0.035
2021-08-01 00:58:52.656,-0.405,-0.015
2021-08-01 00:58:52.660,-0.415,-0.03
2021-08-01 00:58:52.664,-0.41,-0.025
2021-08-01 00:58:52.668,-0.43,-0.04
2021-08-01 00:58:52.672,-0.38,-0.04
2021-08-01 00:58:52.676,-0.365,-0.03
2021-08-01 00:58:52.680,-0.315,-0.06
2021-08-01 00:58:52.684,-0.25,-0.05
2021-08-01 00:58:52.688,-0.175,-0.05
2021-08-01 00:58:52.692,-0.065,-0.09
2021-08-01 00:58:52.696,-0.015,-0.14
2021-08-01 00:58:52.700,0.03,-0.165
2021-08-01 00:58:52.704,0.055,-0.185
2021-08-01 00:58:52.708,0.075,-0.16
2021-08-01 00:58:52.712,0.075,-0.225
2021-08-01 00:58:52.716,0.07,-0.36
2021-08-01 00:58:52.720,0.18,-0.51
2021-08-01 00:58:52.724,0.44,-0.715
2021-08-01 00:58:52.728,0.8,-0.98
2021-08-01 00:58:52.732,1.18,-1.25
2021-08-01 00:58:52.736,1.38,-1.37
2021-08-01 00:58:52.740,1.305,-1.27
2021-08-01 00:58:52.744,0.91,-0.895
2021-08-01 00:58:52.748,0.35,-0.46
2021-08-01 00:58:52.752,-0.065,-0.16
2021-08-01 00:58:52.756,-0.275,-0.02
2021-08-01 00:58:52.760,-0.375,0.045
2021-08-01 00:58:52.764,-0.415,0.09
2021-08-01 00:58:52.768,-0.455,0.095
2021-08-01 00:58:52.772,-0.505,0.095
2021-08-01 00:58:52.776,-0.51,0.09
2021-08-01 00:58:52.780,-0.515,0.085
2021-08-01 00:58:52.784,-0.55,0.055
2021-08-01 00:58:52.788,-0.54,0.03
2021-08-01 00:58:52.792,-0.56,0.03
2021-08-01 00:58:52.796,-0.555,0.025
2021-08-01 00:58:52.800,-0.555,0.025
2021-08-01 00:58:52.804,-0.585,0.03
2021-08-01 00:58:52.808,-0.585,0.01
2021-08-01 00:58:52.812,-0.565,0.015
2021-08-01 00:58:52.816,-0.57,0.005
2021-08-01 00:58:52.820,-0.57,0.005
2021-08-01 00:58:52.824,-0.58,-0.02
2021-08-01 00:58:52.828,-0.575,-0.035
2021-08-01 00:58:52.832,-0.56,-0.025
2021-08-01 00:58:52.836,-0.575,-0.03
2021-08-01 00:58:52.840,-0.595,-0.035
2021-08-01 00:58:52.844,-0.61,-0.03
2021-08-01 00:58:52.848,-0.605,0.0
2021-08-01 00:58:52.852,-0.575,-0.025
2021-08-01 00:58:52.856,-0.57,-0.025
2021-08-01 00:58:52.860,-0.575,-0.035
2021-08-01 00:58:52.864,-0.59,-0.035
2021-08-01 00:58:52.868,-0.575,-0.04
2021-08-01 00:58:52.872,-0.585,-0.04
2021-08-01 00:58:52.876,-0.585,-0.04
2021-08-01 00:58:52.880,-0.585,-0.045
2021-08-01 00:58:52.884,-0.61,-0.035
2021-08-01 00:58:52.888,-0.595,-0.035
2021-08-01 00:58:52.892,-0.6,-0.06
2021-08-01 00:58:52.896,-0.595,-0.075
2021-08-01 00:58:52.900,-0.59,-0.06
2021-08-01 00:58:52.904,-0.58,-0.05
2021-08-01 00:58:52.908,-0.585,-0.06
2021-08-01 00:58:52.912,-0.575,-0.065
2021-08-01 00:58:52.916,-0.56,-0.09
2021-08-01 00:58:52.920,-0.555,-0.065
2021-08-01 00:58:52.924,-0.555,-0.095
2021-08-01 00:58:52.928,-0.555,-0.075
2021-08-01 00:58:52.932,-0.54,-0.105
2021-08-01 00:58:52.936,-0.52,-0.12
2021-08-01 00:58:52.940,-0.49,-0.095
2021-08-01 00:58:52.944,-0.47,-0.105
2021-08-01 00:58:52.948,-0.445,-0.12
2021-08-01 00:58:52.952,-0.465,-0.125
2021-08-01 00:58:52.956,-0.45,-0.12
2021-08-01 00:58:52.960,-0.425,-0.105
2021-08-01 00:58:52.964,-0.42,-0.13
2021-08-01 00:58:52.968,-0.4,-0.135
2021-08-01 00:58:52.972,-0.385,-0.125
2021-08-01 00:58:52.976,-0.36,-0.135
2021-08-01 00:58:52.980,-0.34,-0.12
2021-08-01 00:58:52.984,-0.36,-0.12
2021-08-01 00:58:52.988,-0.355,-0.12
2021-08-01 00:58:52.992,-0.34,-0.11
2021-08-01 00:58:52.996,-0.32,-0.1
2021-08-01 00:58:53.000,-0.31,-0.105
2021-08-01 00:58:53.004,-0.325,-0.125
2021-08-01 00:58:53.008,-0.315,-0.115
2021-08-01 00:58:53.012,-0.345,-0.1
2021-08-01 00:58:53.016,-0.315,-0.13
2021-08-01 00:58:53.020,-0.3,-0.13
2021-08-01 00:58:53.024,-0.29,-0.12
2021-08-01 00:58:53.028,-0.29,-0.135
2021-08-01 00:58:53.032,-0.3,-0.13
2021-08-01 00:58:53.036,-0.28,-0.14
2021-08-01 00:58:53.040,-0.29,-0.135
2021-08-01 00:58:53.044,-0.27,-0.12
2021-08-01 00:58:53.048,-0.29,-0.11
2021-08-01 00:58:53.052,-0.295,-0.095
2021-08-01 00:58:53.056,-0.285,-0.11
2021-08-01 00:58:53.060,-0.275,-0.12
2021-08-01 00:58:53.064,-0.275,-0.105
2021-08-01 00:58:53.068,-0.245,-0.1
2021-08-01 00:58:53.072,-0.27,-0.09
2021-08-01 00:58:53.076,-0.265,-0.095
2021-08-01 00:58:53.080,-0.26,-0.06
2021-08-01 00:58:53.084,-0.26,-0.05
2021-08-01 00:58:53.088,-0.275,-0.055
2021-08-01 00:58:53.092,-0.28,-0.075
2021-08-01 00:58:53.096,-0.265,-0.065
2021-08-01 00:58:53.100,-0.275,-0.07
2021-08-01 00:58:53.104,-0.27,-0.085
2021-08-01 00:58:53.108,-0.275,-0.08
2021-08-01 00:58:53.112,-0.29,-0.075
2021-08-01 00:58:53.116,-0.295,-0.1
2021-08-01 00:58:53.120,-0.285,-0.08
2021-08-01 00:58:53.124,-0.29,-0.1
2021-08-01 00:58:53.128,-0.285,-0.11
2021-08-01 00:58:53.132,-0.275,-0.095
2021-08-01 00:58:53.136,-0.25,-0.11
2021-08-01 00:58:53.140,-0.24,-0.1
2021-08-01 00:58:53.144,-0.22,-0.11
2021-08-01 00:58:53.148,-0.21,-0.08
2021-08-01 00:58:53.152,-0.18,-0.09
2021-08-01 00:58:53.156,-0.14,-0.085
2021-08-01 00:58:53.160,-0.07,-0.1
2021-08-01 00:58:53.164,-0.05,-0.065
2021-08-01 00:58:53.168,-0.02,-0.055
2021-08-01 00:58:53.172,-0.01,-0.05
2021-08-01 00:58:53.176,0.005,-0.05
2021-08-01 00:58:53.180,0.035,-0.05
2021-08-01 00:58:53.184,0.055,-0.07
2021-08-01 00:58:53.188,0.1,-0.075
2021-08-01 00:58:53.192,0.085,-0.095
2021-08-01 00:58:53.196,0.03,-0.14
2021-08-01 00:58:53.200,-0.045,-0.14
2021-08-01 00:58:53.204,-0.1,-0.145
2021-08-01 00:58:53.208,-0.14,-0.145
2021-08-01 00:58:53.212,-0.175,-0.135
2021-08-01 00:58:53.216,-0.25,-0.13
2021-08-01 00:58:53.220,-0.305,-0.12
2021-08-01 00:58:53.224,-0.325,-0.12
2021-08-01 00:58:53.228,-0.335,-0.14
2021-08-01 00:58:53.232,-0.32,-0.135
2021-08-01 00:58:53.236,-0.315,-0.14
2021-08-01 00:58:53.240,-0.315,-0.16
2021-08-01 00:58:53.244,-0.32,-0.15
2021-08-01 00:58:53.248,-0.335,-0.155
2021-08-01 00:58:53.252,-0.32,-0.155
2021-08-01 00:58:53.256,-0.305,-0.14
2021-08-01 00:58:53.260,-0.28,-0.155
2021-08-01 00:58:53.264,-0.275,-0.16
2021-08-01 00:58:53.268,-0.285,-0.145
2021-08-01 00:58:53.272,-0.265,-0.15
2021-08-01 00:58:53.276,-0.26,-0.145
2021-08-01 00:58:53.280,-0.25,-0.135
2021-08-01 00:58:53.284,-0.245,-0.135
2021-08-01 00:58:53.288,-0.25,-0.14
2021-08-01 00:58:53.292,-0.235,-0.14
2021-08-01 00:58:53.296,-0.235,-0.14
2021-08-01 00:58:53.300,-0.24,-0.15
2021-08-01 00:58:53.304,-0.23,-0.15
2021-08-01 00:58:53.308,-0.24,-0.15
2021-08-01 00:58:53.312,-0.265,-0.135
2021-08-01 00:58:53.316,-0.275,-0.135
2021-08-01 00:58:53.320,-0.265,-0.14
2021-08-01 00:58:53.324,-0.255,-0.155
2021-08-01 00:58:53.328,-0.235,-0.165
2021-08-01 00:58:53.332,-0.2,-0.16
2021-08-01 00:58:53.336,-0.14,-0.165
2021-08-01 00:58:53.340,-0.08,-0.16
2021-08-01 00:58:53.344,0.045,-0.16
2021-08-01 00:58:53.348,0.16,-0.19
2021-08-01 00:58:53.352,0.24,-0.25
2021-08-01 00:58:53.356,0.325,-0.28
2021-08-01 00:58:53.360,0.36,-0.275
2021-08-01 00:58:53.364,0.375,-0.24
2021-08-01 00:58:53.368,0.35,-0.31
2021-08-01 00:58:53.372,0.31,-0.405
2021-08-01 00:58:53.376,0.435,-0.545
2021-08-01 00:58:53.380,0.7,-0.755
2021-08-01 00:58:53.384,1.035,-1.005
2021-08-01 00:58:53.388,1.335,-1.25
2021-08-01 00:58:53.392,1.41,-1.335
2021-08-01 00:58:53.396,1.185,-1.19
2021-08-01 00:58:53.400,0.695,-0.79
2021-08-01 00:58:53.404,0.21,-0.44
2021-08-01 00:58:53.408,-0.015,-0.24
2021-08-01 00:58:53.412,-0.13,-0.15
2021-08-01 00:58:53.416,-0.2,-0.05
2021-08-01 00:58:53.420,-0.22,-0.015
2021-08-01 00:58:53.424,-0.26,0.015
2021-08-01 00:58:53.428,-0.28,0.025
2021-08-01 00:58:53.432,-0.285,0.005
2021-08-01 00:58:53.436,-0.31,0.0
2021-08-01 00:58:53.440,-0.33,-0.01
2021-08-01 00:58:53.444,-0.345,-0.03
2021-08-01 00:58:53.448,-0.37,-0.05
2021-08-01 00:58:53.452,-0.365,-0.04
2021-08-01 00:58:53.456,-0.365,-0.04
2021-08-01 00:58:53.460,-0.375,-0.045
2021-08-01 00:58:53.464,-0.35,-0.015
2021-08-01 00:58:53.468,-0.35,-0.02
2021-08-01 00:58:53.472,-0.37,-0.01
2021-08-01 00:58:53.476,-0.38,-0.025
2021-08-01 00:58:53.480,-0.38,-0.035
2021-08-01 00:58:53.484,-0.385,-0.02
2021-08-01 00:58:53.488,-0.365,-0.045
2021-08-01 00:58:53.492,-0.385,-0.03
2021-08-01 00:58:53.496,-0.38,-0.04
2021-08-01 00:58:53.500,-0.4,-0.03
2021-08-01 00:58:53.504,-0.385,-0.03
2021-08-01 00:58:53.508,-0.4,-0.015
2021-08-01 00:58:53.512,-0.415,-0.02
2021-08-01 00:58:53.516,-0.41,-0.025
2021-08-01 00:58:53.520,-0.435,-0.015
2021-08-01 00:58:53.524,-0.45,-0.05
2021-08-01 00:58:53.528,-0.45,-0.035
2021-08-01 00:58:53.532,-0.45,-0.045
2021-08-01 00:58:53.536,-0.465,-0.05
2021-08-01 00:58:53.540,-0.465,-0.05
2021-08-01 00:58:53.544,-0.475,-0.055
2021-08-01 00:58:53.548,-0.46,-0.05
2021-08-01 00:58:53.552,-0.475,-0.06
2021-08-01 00:58:53.556,-0.455,-0.035
2021-08-01 00:58:53.560,-0.45,-0.05
2021-08-01 00:58:53.564,-0.46,-0.055
2021-08-01 00:58:53.568,-0.45,-0.05
2021-08-01 00:58:53.572,-0.43,-0.045
2021-08-01 00:58:53.576,-0.435,-0.03
2021-08-01 00:58:53.580,-0.42,-0.025
2021-08-01 00:58:53.584,-0.42,0.0
2021-08-01 00:58:53.588,-0.4,-0.035
2021-08-01 00:58:53.592,-0.41,-0.045
2021-08-01 00:58:53.596,-0.38,-0.055
2021-08-01 00:58:53.600,-0.37,-0.03
2021-08-01 00:58:53.604,-0.355,-0.035
2021-08-01 00:58:53.608,-0.355,-0.045
2021-08-01 00:58:53.612,-0.35,-0.04
2021-08-01 00:58:53.616,-0.345,-0.04
2021-08-01 00:58:53.620,-0.315,-0.04
2021-08-01 00:58:53.624,-0.32,-0.075
2021-08-01 00:58:53.628,-0.3,-0.08
2021-08-01 00:58:53.632,-0.3,-0.085
2021-08-01 00:58:53.636,-0.295,-0.07
2021-08-01 00:58:53.640,-0.285,-0.07
2021-08-01 00:58:53.644,-0.285,-0.075
2021-08-01 00:58:53.648,-0.28,-0.065
2021-08-01 00:58:53.652,-0.255,-0.065
2021-08-01 00:58:53.656,-0.245,-0.08
2021-08-01 00:58:53.660,-0.25,-0.08
2021-08-01 00:58:53.664,-0.23,-0.065
2021-08-01 00:58:53.668,-0.25,-0.07
2021-08-01 00:58:53.672,-0.23,-0.075
2021-08-01 00:58:53.676,-0.24,-0.04
2021-08-01 00:58:53.680,-0.235,-0.055
2021-08-01 00:58:53.684,-0.23,-0.045
2021-08-01 00:58:53.688,-0.225,-0.03
2021-08-01 00:58:53.692,-0.23,-0.03
2021-08-01 00:58:53.696,-0.21,-0.015
2021-08-01 00:58:53.700,-0.215,-0.02
2021-08-01 00:58:53.704,-0.22,-0.015
2021-08-01 00:58:53.708,-0.24,-0.01
2021-08-01 00:58:53.712,-0.225,-0.02
2021-08-01 00:58:53.716,-0.25,-0.01
2021-08-01 00:58:53.720,-0.24,0.0
2021-08-01 00:58:53.724,-0.235,0.0
2021-08-01 00:58:53.728,-0.255,-0.01
2021-08-01 00:58:53.732,-0.28,0.01
2021-08-01 00:58:53.736,-0.27,-0.015
2021-08-01 00:58:53.740,-0.28,-0.02
2021-08-01 00:58:53.744,-0.285,-0.025
2021-08-01 00:58:53.748,-0.27,-0.02
2021-08-01 00:58:53.752,-0.275,-0.025
2021-08-01 00:58:53.756,-0.27,-0.03
2021-08-01 00:58:53.760,-0.275,-0.03
2021-08-01 00:58:53.764,-0.28,-0.03
2021-08-01 00:58:53.768,-0.265,-0.01
2021-08-01 00:58:53.772,-0.28,-0.005
2021-08-01 00:58:53.776,-0.275,-0.02
2021-08-01 00:58:53.780,-0.225,0.0
2021-08-01 00:58:53.784,-0.2,-0.015
2021-08-01 00:58:53.788,-0.21,0.0
2021-08-01 00:58:53.792,-0.225,0.015
2021-08-01 00:58:53.796,-0.215,0.005
2021-08-01 00:58:53.800,-0.2,0.01
2021-08-01 00:58:53.804,-0.16,0.035
2021-08-01 00:58:53.808,-0.13,0.045
2021-08-01 00:58:53.812,-0.085,0.055
2021-08-01 00:58:53.816,-0.055,0.07
2021-08-01 00:58:53.820,-0.03,0.065
2021-08-01 00:58:53.824,-0.01,0.055
2021-08-01 00:58:53.828,-0.01,0.025
2021-08-01 00:58:53.832,0.045,0.045
2021-08-01 00:58:53.836,0.055,0.015
2021-08-01 00:58:53.840,0.015,-0.005
2021-08-01 00:58:53.844,-0.025,-0.025
2021-08-01 00:58:53.848,-0.065,-0.045
2021-08-01 00:58:53.852,-0.1,-0.07
2021-08-01 00:58:53.856,-0.17,-0.05
2021-08-01 00:58:53.860,-0.22,-0.055
2021-08-01 00:58:53.864,-0.265,-0.035
2021-08-01 00:58:53.868,-0.31,-0.04
2021-08-01 00:58:53.872,-0.355,0.0
2021-08-01 00:58:53.876,-0.375,-0.005
2021-08-01 00:58:53.880,-0.385,-0.015
2021-08-01 00:58:53.884,-0.365,-0.02
2021-08-01 00:58:53.888,-0.355,-0.035
2021-08-01 00:58:53.892,-0.345,-0.025
2021-08-01 00:58:53.896,-0.345,-0.04
2021-08-01 00:58:53.900,-0.355,-0.035
2021-08-01 00:58:53.904,-0.345,-0.02
2021-08-01 00:58:53.908,-0.345,-0.04
2021-08-01 00:58:53.912,-0.34,-0.035
2021-08-01 00:58:53.916,-0.33,-0.035
2021-08-01 00:58:53.920,-0.32,-0.055
2021-08-01 00:58:53.924,-0.33,-0.055
2021-08-01 00:58:53.928,-0.325,-0.04
2021-08-01 00:58:53.932,-0.345,-0.05
2021-08-01 00:58:53.936,-0.37,-0.045
2021-08-01 00:58:53.940,-0.345,-0.03
2021-08-01 00:58:53.944,-0.32,-0.03
2021-08-01 00:58:53.948,-0.345,-0.06
2021-08-01 00:58:53.952,-0.345,-0.05
2021-08-01 00:58:53.956,-0.34,-0.06
2021-08-01 00:58:53.960,-0.32,-0.06
2021-08-01 00:58:53.964,-0.315,-0.045
2021-08-01 00:58:53.968,-0.32,-0.035
2021-08-01 00:58:53.972,-0.32,-0.035
2021-08-01 00:58:53.976,-0.315,-0.07
2021-08-01 00:58:53.980,-0.25,-0.06
2021-08-01 00:58:53.984,-0.19,-0.055
2021-08-01 00:58:53.988,-0.1,-0.05
2021-08-01 00:58:53.992,0.025,-0.055
2021-08-01 00:58:53.996,0.085,-0.095
2021-08-01 00:58:54.000,0.145,-0.14
2021-08-01 00:58:54.004,0.19,-0.16
2021-08-01 00:58:54.008,0.22,-0.155
2021-08-01 00:58:54.012,0.24,-0.185
2021-08-01 00:58:54.016,0.235,-0.285
2021-08-01 00:58:54.020,0.29,-0.44
2021-08-01 00:58:54.024,0.525,-0.655
2021-08-01 00:58:54.028,0.855,-0.915
2021-08-01 00:58:54.032,1.225,-1.175
2021-08-01 00:58:54.036,1.49,-1.34
2021-08-01 00:58:54.040,1.46,-1.32
2021-08-01 00:58:54.044,1.135,-1.01
2021-08-01 00:58:54.048,0.545,-0.56
2021-08-01 00:58:54.052,0.025,-0.22
2021-08-01 00:58:54.056,-0.205,-0.055
2021-08-01 00:58:54.060,-0.315,0.02
2021-08-01 00:58:54.064,-0.375,0.06
2021-08-01 00:58:54.068,-0.405,0.075
2021-08-01 00:58:54.072,-0.44,0.085
2021-08-01 00:58:54.076,-0.44,0.085
2021-08-01 00:58:54.080,-0.46,0.08
2021-08-01 00:58:54.084,-0.485,0.08
2021-08-01 00:58:54.088,-0.5,0.05
2021-08-01 00:58:54.092,-0.5,0.095
2021-08-01 00:58:54.096,-0.49,0.065
2021-08-01 00:58:54.100,-0.52,0.045
2021-08-01 00:58:54.104,-0.51,0.065
2021-08-01 00:58:54.108,-0.505,0.065
2021-08-01 00:58:54.112,-0.515,0.075
2021-08-01 00:58:54.116,-0.525,0.065
2021-08-01 00:58:54.120,-0.545,0.06
2021-08-01 00:58:54.124,-0.53,0.04
2021-08-01 00:58:54.128,-0.525,0.055
2021-08-01 00:58:54.132,-0.54,0.06
2021-08-01 00:58:54.136,-0.555,0.05
2021-08-01 00:58:54.140,-0.54,0.05
2021-08-01 00:58:54.144,-0.545,0.065
2021-08-01 00:58:54.148,-0.55,0.075
2021-08-01 00:58:54.152,-0.57,0.065
2021-08-01 00:58:54.156,-0.565,0.055
2021-08-01 00:58:54.160,-0.565,0.045
2021-08-01 00:58:54.164,-0.575,0.04
2021-08-01 00:58:54.168,-0.58,0.035
2021-08-01 00:58:54.172,-0.565,0.02
2021-08-01 00:58:54.176,-0.565,0.05
2021-08-01 00:58:54.180,-0.575,0.06
2021-08-01 00:58:54.184,-0.57,0.04
2021-08-01 00:58:54.188,-0.565,0.055
2021-08-01 00:58:54.192,-0.545,0.045
2021-08-01 00:58:54.196,-0.55,0.035
2021-08-01 00:58:54.200,-0.555,0.05
2021-08-01 00:58:54.204,-0.54,0.06
2021-08-01 00:58:54.208,-0.54,0.065
2021-08-01 00:58:54.212,-0.51,0.07
2021-08-01 00:58:54.216,-0.525,0.045
2021-08-01 00:58:54.220,-0.485,0.03
2021-08-01 00:58:54.224,-0.485,0.045
2021-08-01 00:58:54.228,-0.475,0.025
2021-08-01 00:58:54.232,-0.48,0.02
2021-08-01 00:58:54.236,-0.48,0.03
2021-08-01 00:58:54.240,-0.47,0.02
2021-08-01 00:58:54.244,-0.48,0.0
2021-08-01 00:58:54.248,-0.465,0.0
2021-08-01 00:58:54.252,-0.45,0.005
2021-08-01 00:58:54.256,-0.41,-0.01
2021-08-01 00:58:54.260,-0.42,-0.01
2021-08-01 00:58:54.264,-0.41,-0.02
2021-08-01 00:58:54.268,-0.385,0.0
2021-08-01 00:58:54.272,-0.365,-0.03
2021-08-01 00:58:54.276,-0.355,-0.045
2021-08-01 00:58:54.280,-0.35,-0.03
2021-08-01 00:58:54.284,-0.34,-0.025
2021-08-01 00:58:54.288,-0.34,-0.025
2021-08-01 00:58:54.292,-0.31,-0.02
2021-08-01 00:58:54.296,-0.29,-0.01
2021-08-01 00:58:54.300,-0.295,-0.015
2021-08-01 00:58:54.304,-0.27,-0.005
2021-08-01 00:58:54.308,-0.27,0.01
2021-08-01 00:58:54.312,-0.27,0.0
2021-08-01 00:58:54.316,-0.27,0.005
2021-08-01 00:58:54.320,-0.26,0.0
2021-08-01 00:58:54.324,-0.25,0.0
2021-08-01 00:58:54.328,-0.235,0.0
2021-08-01 00:58:54.332,-0.24,0.01
2021-08-01 00:58:54.336,-0.245,0.0
2021-08-01 00:58:54.340,-0.24,0.005
2021-08-01 00:58:54.344,-0.255,0.005
2021-08-01 00:58:54.348,-0.265,0.02
2021-08-01 00:58:54.352,-0.255,0.02
2021-08-01 00:58:54.356,-0.26,0.005
2021-08-01 00:58:54.360,-0.255,0.01
2021-08-01 00:58:54.364,-0.255,0.015
2021-08-01 00:58:54.368,-0.255,-0.005
2021-08-01 00:58:54.372,-0.255,0.0
2021-08-01 00:58:54.376,-0.26,0.0
2021-08-01 00:58:54.380,-0.24,0.005
2021-08-01 00:58:54.384,-0.235,0.03
2021-08-01 00:58:54.388,-0.265,0.02
2021-08-01 00:58:54.392,-0.24,0.03
2021-08-01 00:58:54.396,-0.24,0.005
2021-08-01 00:58:54.400,-0.23,0.025
2021-08-01 00:58:54.404,-0.22,0.02
2021-08-01 00:58:54.408,-0.23,0.045
2021-08-01 00:58:54.412,-0.23,0.04
2021-08-01 00:58:54.416,-0.19,0.035
2021-08-01 00:58:54.420,-0.165,0.045
2021-08-01 00:58:54.424,-0.185,0.035
2021-08-01 00:58:54.428,-0.19,0.045
2021-08-01 00:58:54.432,-0.18,0.025
2021-08-01 00:58:54.436,-0.17,0.03
2021-08-01 00:58:54.440,-0.135,0.045
2021-08-01 00:58:54.444,-0.095,0.055
2021-08-01 00:58:54.448,-0.08,0.06
2021-08-01 00:58:54.452,-0.035,0.065
2021-08-01 00:58:54.456,0.005,0.07
2021-08-01 00:58:54.460,0.035,0.055
2021-08-01 00:58:54.464,0.045,0.065
2021-08-01 00:58:54.468,0.08,0.04
2021-08-01 00:58:54.472,0.075,0.055
2021-08-01 00:58:54.476,0.035,0.005
2021-08-01 00:58:54.480,0.015,-0.01
2021-08-01 00:58:54.484,-0.04,-0.01
2021-08-01 00:58:54.488,-0.08,-0.005
2021-08-01 00:58:54.492,-0.14,0.0
2021-08-01 00:58:54.496,-0.185,-0.005
2021-08-01 00:58:54.500,-0.24,-0.01
2021-08-01 00:58:54.504,-0.295,0.015
2021-08-01 00:58:54.508,-0.305,0.025
2021-08-01 00:58:54.512,-0.34,0.025
2021-08-01 00:58:54.516,-0.335,0.04
2021-08-01 00:58:54.520,-0.32,0.0
2021-08-01 00:58:54.524,-0.325,0.015
2021-08-01 00:58:54.528,-0.305,0.025
2021-08-01 00:58:54.532,-0.305,0.0
2021-08-01 00:58:54.536,-0.29,0.015
2021-08-01 00:58:54.540,-0.29,0.0
2021-08-01 00:58:54.544,-0.32,-0.01
2021-08-01 00:58:54.548,-0.3,-0.005
2021-08-01 00:58:54.552,-0.315,-0.005
2021-08-01 00:58:54.556,-0.3,-0.025
2021-08-01 00:58:54.560,-0.3,-0.02
2021-08-01 00:58:54.564,-0.305,-0.01
2021-08-01 00:58:54.568,-0.275,-0.015
2021-08-01 00:58:54.572,-0.275,-0.02
2021-08-01 00:58:54.576,-0.255,-0.02
2021-08-01 00:58:54.580,-0.255,-0.045
2021-08-01 00:58:54.584,-0.26,-0.035
2021-08-01 00:58:54.588,-0.295,-0.03
2021-08-01 00:58:54.592,-0.27,-0.015
2021-08-01 00:58:54.596,-0.265,-0.02
2021-08-01 00:58:54.600,-0.235,-0.035
2021-08-01 00:58:54.604,-0.24,-0.02
2021-08-01 00:58:54.608,-0.23,-0.015
2021-08-01 00:58:54.612,-0.2,-0.01
2021-08-01 00:58:54.616,-0.175,0.005
2021-08-01 00:58:54.620,-0.12,-0.015
2021-08-01 00:58:54.624,-0.03,-0.03
2021-08-01 00:58:54.628,0.06,-0.045
2021-08-01 00:58:54.632,0.135,-0.08
2021-08-01 00:58:54.636,0.175,-0.11
2021-08-01 00:58:54.640,0.215,-0.15
2021-08-01 00:58:54.644,0.225,-0.125
2021-08-01 00:58:54.648,0.23,-0.165
2021-08-01 00:58:54.652,0.195,-0.28
2021-08-01 00:58:54.656,0.225,-0.415
2021-08-01 00:58:54.660,0.44,-0.59
2021-08-01 00:58:54.664,0.785,-0.86
2021-08-01 00:58:54.668,1.15,-1.13
2021-08-01 00:58:54.672,1.42,-1.33
2021-08-01 00:58:54.676,1.49,-1.34
2021-08-01 00:58:54.680,1.24,-1.07
2021-08-01 00:58:54.684,0.7,-0.6
2021-08-01 00:58:54.688,0.195,-0.24
2021-08-01 00:58:54.692,-0.095,-0.07
2021-08-01 00:58:54.696,-0.24,0.045
2021-08-01 00:58:54.700,-0.28,0.09
2021-08-01 00:58:54.704,-0.32,0.11
2021-08-01 00:58:54.708,-0.335,0.14
2021-08-01 00:58:54.712,-0.35,0.115
2021-08-01 00:58:54.716,-0.38,0.1
2021-08-01 00:58:54.720,-0.415,0.1
2021-08-01 00:58:54.724,-0.445,0.08
2021-08-01 00:58:54.728,-0.44,0.05
2021-08-01 00:58:54.732,-0.43,0.075
2021-08-01 00:58:54.736,-0.43,0.05
2021-08-01 00:58:54.740,-0.45,0.05
2021-08-01 00:58:54.744,-0.45,0.04
2021-08-01 00:58:54.748,-0.46,0.065
2021-08-01 00:58:54.752,-0.43,0.04
2021-08-01 00:58:54.756,-0.445,0.025
2021-08-01 00:58:54.760,-0.46,0.04
2021-08-01 00:58:54.764,-0.455,0.015
2021-08-01 00:58:54.768,-0.46,0.02
2021-08-01 00:58:54.772,-0.45,0.02
2021-08-01 00:58:54.776,-0.445,0.015
2021-08-01 00:58:54.780,-0.44,0.02
2021-08-01 00:58:54.784,-0.44,0.01
2021-08-01 00:58:54.788,-0.46,0.0
2021-08-01 00:58:54.792,-0.46,0.0
2021-08-01 00:58:54.796,-0.46,0.025
2021-08-01 00:58:54.800,-0.445,0.015
2021-08-01 00:58:54.804,-0.46,0.005
2021-08-01 00:58:54.808,-0.45,0.01
2021-08-01 00:58:54.812,-0.455,0.005
2021-08-01 00:58:54.816,-0.43,0.005
2021-08-01 00:58:54.820,-0.455,0.0
2021-08-01 00:58:54.824,-0.47,0.0
2021-08-01 00:58:54.828,-0.465,0.005
2021-08-01 00:58:54.832,-0.46,0.005
2021-08-01 00:58:54.836,-0.45,-0.01
2021-08-01 00:58:54.840,-0.45,-0.01
2021-08-01 00:58:54.844,-0.45,-0.005
2021-08-01 00:58:54.848,-0.455,-0.015
2021-08-01 00:58:54.852,-0.445,-0.03
2021-08-01 00:58:54.856,-0.42,-0.03
2021-08-01 00:58:54.860,-0.4,-0.04
2021-08-01 00:58:54.864,-0.395,-0.035
2021-08-01 00:58:54.868,-0.39,-0.04
2021-08-01 00:58:54.872,-0.415,-0.06
2021-08-01 00:58:54.876,-0.395,-0.06
2021-08-01 00:58:54.880,-0.38,-0.055
2021-08-01 00:58:54.884,-0.385,-0.075
2021-08-01 00:58:54.888,-0.34,-0.08
2021-08-01 00:58:54.892,-0.325,-0.095
2021-08-01 00:58:54.896,-0.3,-0.09
2021-08-01 00:58:54.900,-0.3,-0.08
2021-08-01 00:58:54.904,-0.285,-0.1
2021-08-01 00:58:54.908,-0.245,-0.09
2021-08-01 00:58:54.912,-0.265,-0.1
2021-08-01 00:58:54.916,-0.275,-0.095
2021-08-01 00:58:54.920,-0.265,-0.1
2021-08-01 00:58:54.924,-0.23,-0.07
2021-08-01 00:58:54.928,-0.225,-0.08
2021-08-01 00:58:54.932,-0.21,-0.08
2021-08-01 00:58:54.936,-0.185,-0.1
2021-08-01 00:58:54.940,-0.185,-0.09
2021-08-01 00:58:54.944,-0.195,-0.08
2021-08-01 00:58:54.948,-0.185,-0.095
2021-08-01 00:58:54.952,-0.225,-0.095
2021-08-01 00:58:54.956,-0.23,-0.105
2021-08-01 00:58:54.960,-0.225,-0.09
2021-08-01 00:58:54.964,-0.21,-0.11
2021-08-01 00:58:54.968,-0.205,-0.09
2021-08-01 00:58:54.972,-0.185,-0.1
2021-08-01 00:58:54.976,-0.18,-0.08
2021-08-01 00:58:54.980,-0.19,-0.09
2021-08-01 00:58:54.984,-0.185,-0.08
2021-08-01 00:58:54.988,-0.17,-0.075
2021-08-01 00:58:54.992,-0.165,-0.075
2021-08-01 00:58:54.996,-0.17,-0.07
2021-08-01 00:58:55.000,-0.185,-0.085
2021-08-01 00:58:55.004,-0.175,-0.08
2021-08-01 00:58:55.008,-0.155,-0.08
2021-08-01 00:58:55.012,-0.16,-0.075
2021-08-01 00:58:55.016,-0.175,-0.075
2021-08-01 00:58:55.020,-0.165,-0.065
2021-08-01 00:58:55.024,-0.16,-0.055
2021-08-01 00:58:55.028,-0.155,-0.05
2021-08-01 00:58:55.032,-0.17,-0.065
2021-08-01 00:58:55.036,-0.17,-0.075
2021-08-01 00:58:55.040,-0.17,-0.075
2021-08-01 00:58:55.044,-0.18,-0.075
2021-08-01 00:58:55.048,-0.185,-0.085
2021-08-01 00:58:55.052,-0.185,-0.075
2021-08-01 00:58:55.056,-0.2,-0.08
2021-08-01 00:58:55.060,-0.18,-0.095
2021-08-01 00:58:55.064,-0.175,-0.08
2021-08-01 00:58:55.068,-0.13,-0.075
2021-08-01 00:58:55.072,-0.105,-0.085
2021-08-01 00:58:55.076,-0.12,-0.09
2021-08-01 00:58:55.080,-0.12,-0.075
2021-08-01 00:58:55.084,-0.115,-0.06
2021-08-01 00:58:55.088,-0.1,-0.09
2021-08-01 00:58:55.092,-0.05,-0.085
2021-08-01 00:58:55.096,-0.01,-0.04
2021-08-01 00:58:55.100,0.01,-0.04
2021-08-01 00:58:55.104,0.05,-0.03
2021-08-01 00:58:55.108,0.105,-0.03
2021-08-01 00:58:55.112,0.135,-0.04
2021-08-01 00:58:55.116,0.165,-0.02
2021-08-01 00:58:55.120,0.185,-0.04
2021-08-01 00:58:55.124,0.165,-0.065
2021-08-01 00:58:55.128,0.135,-0.075
2021-08-01 00:58:55.132,0.095,-0.11
2021-08-01 00:58:55.136,0.045,-0.115
2021-08-01 00:58:55.140,-0.01,-0.115
2021-08-01 00:58:55.144,-0.06,-0.115
2021-08-01 00:58:55.148,-0.12,-0.11
2021-08-01 00:58:55.152,-0.175,-0.1
2021-08-01 00:58:55.156,-0.24,-0.105
2021-08-01 00:58:55.160,-0.27,-0.09
2021-08-01 00:58:55.164,-0.27,-0.105
2021-08-01 00:58:55.168,-0.255,-0.1
2021-08-01 00:58:55.172,-0.25,-0.11
2021-08-01 00:58:55.176,-0.26,-0.1
2021-08-01 00:58:55.180,-0.225,-0.14
2021-08-01 00:58:55.184,-0.225,-0.12
2021-08-01 00:58:55.188,-0.215,-0.135
2021-08-01 00:58:55.192,-0.225,-0.11
2021-08-01 00:58:55.196,-0.23,-0.13
2021-08-01 00:58:55.200,-0.215,-0.13
2021-08-01 00:58:55.204,-0.185,-0.135
2021-08-01 00:58:55.208,-0.2,-0.145
2021-08-01 00:58:55.212,-0.225,-0.12
2021-08-01 00:58:55.216,-0.195,-0.13
2021-08-01 00:58:55.220,-0.19,-0.12
2021-08-01 00:58:55.224,-0.17,-0.12
2021-08-01 00:58:55.228,-0.155,-0.12
2021-08-01 00:58:55.232,-0.185,-0.125
2021-08-01 00:58:55.236,-0.17,-0.115
2021-08-01 00:58:55.240,-0.19,-0.12
2021-08-01 00:58:55.244,-0.205,-0.12
2021-08-01 00:58:55.248,-0.175,-0.115
2021-08-01 00:58:55.252,-0.175,-0.14
2021-08-01 00:58:55.256,-0.17,-0.15
2021-08-01 00:58:55.260,-0.17,-0.14
2021-08-01 00:58:55.264,-0.14,-0.13
2021-08-01 00:58:55.268,-0.07,-0.14
2021-08-01 00:58:55.272,-0.02,-0.145
2021-08-01 00:58:55.276,0.135,-0.17
2021-08-01 00:58:55.280,0.24,-0.195
2021-08-01 00:58:55.284,0.32,-0.23
2021-08-01 00:58:55.288,0.38,-0.285
2021-08-01 00:58:55.292,0.41,-0.27
2021-08-01 00:58:55.296,0.43,-0.245
2021-08-01 00:58:55.300,0.39,-0.29
2021-08-01 00:58:55.304,0.365,-0.395
2021-08-01 00:58:55.308,0.475,-0.53
2021-08-01 00:58:55.312,0.735,-0.765
2021-08-01 00:58:55.316,1.08,-1.05
2021-08-01 00:58:55.320,1.365,-1.245
2021-08-01 00:58:55.324,1.445,-1.32
2021-08-01 00:58:55.328,1.24,-1.16
2021-08-01 00:58:55.332,0.72,-0.775
2021-08-01 00:58:55.336,0.24,-0.415
2021-08-01 00:58:55.340,0.0,-0.23
2021-08-01 00:58:55.344,-0.065,-0.125
2021-08-01 00:58:55.348,-0.125,-0.035
2021-08-01 00:58:55.352,-0.175,-0.015
2021-08-01 00:58:55.356,-0.205,0.0
2021-08-01 00:58:55.360,-0.255,0.005
2021-08-01 00:58:55.364,-0.25,-0.005
2021-08-01 00:58:55.368,-0.28,-0.01
2021-08-01 00:58:55.372,-0.32,-0.025
2021-08-01 00:58:55.376,-0.335,-0.045
2021-08-01 00:58:55.380,-0.32,-0.065
2021-08-01 00:58:55.384,-0.29,-0.025
2021-08-01 00:58:55.388,-0.31,-0.065
2021-08-01 00:58:55.392,-0.32,-0.07
2021-08-01 00:58:55.396,-0.3,-0.08
2021-08-01 00:58:55.400,-0.325,-0.065
2021-08-01 00:58:55.404,-0.325,-0.055
2021-08-01 00:58:55.408,-0.33,-0.05
2021-08-01 00:58:55.412,-0.305,-0.055
2021-08-01 00:58:55.416,-0.32,-0.06
2021-08-01 00:58:55.420,-0.315,-0.035
2021-08-01 00:58:55.424,-0.3,-0.04
2021-08-01 00:58:55.428,-0.325,-0.025
2021-08-01 00:58:55.432,-0.31,-0.03
2021-08-01 00:58:55.436,-0.32,-0.03
2021-08-01 00:58:55.440,-0.33,-0.02
2021-08-01 00:58:55.444,-0.33,-0.01
2021-08-01 00:58:55.448,-0.32,-0.02
2021-08-01 00:58:55.452,-0.34,-0.02
2021-08-01 00:58:55.456,-0.365,-0.04
2021-08-01 00:58:55.460,-0.375,-0.04
2021-08-01 00:58:55.464,-0.38,-0.035
2021-08-01 00:58:55.468,-0.37,-0.03
2021-08-01 00:58:55.472,-0.385,-0.045
2021-08-01 00:58:55.476,-0.36,-0.04
2021-08-01 00:58:55.480,-0.385,-0.045
2021-08-01 00:58:55.484,-0.375,-0.05
2021-08-01 00:58:55.488,-0.37,-0.055
2021-08-01 00:58:55.492,-0.35,-0.07
2021-08-01 00:58:55.496,-0.34,-0.05
2021-08-01 00:58:55.500,-0.34,-0.04
2021-08-01 00:58:55.504,-0.345,-0.04
2021-08-01 00:58:55.508,-0.32,-0.045
2021-08-01 00:58:55.512,-0.325,-0.04
2021-08-01 00:58:55.516,-0.31,-0.04
2021-08-01 00:58:55.520,-0.3,-0.05
2021-08-01 00:58:55.524,-0.3,-0.045
2021-08-01 00:58:55.528,-0.295,-0.045
2021-08-01 00:58:55.532,-0.28,-0.05
2021-08-01 00:58:55.536,-0.27,-0.075
2021-08-01 00:58:55.540,-0.275,-0.05
2021-08-01 00:58:55.544,-0.255,-0.065
2021-08-01 00:58:55.548,-0.25,-0.08
2021-08-01 00:58:55.552,-0.235,-0.07
2021-08-01 00:58:55.556,-0.215,-0.08
2021-08-01 00:58:55.560,-0.205,-0.085
2021-08-01 00:58:55.564,-0.23,-0.085
2021-08-01 00:58:55.568,-0.23,-0.105
2021-08-01 00:58:55.572,-0.215,-0.095
2021-08-01 00:58:55.576,-0.19,-0.09
2021-08-01 00:58:55.580,-0.205,-0.1
2021-08-01 00:58:55.584,-0.195,-0.1
2021-08-01 00:58:55.588,-0.18,-0.1
2021-08-01 00:58:55.592,-0.175,-0.07
2021-08-01 00:58:55.596,-0.175,-0.075
2021-08-01 00:58:55.600,-0.195,-0.075
2021-08-01 00:58:55.604,-0.18,-0.07
2021-08-01 00:58:55.608,-0.18,-0.09
2021-08-01 00:58:55.612,-0.165,-0.075
2021-08-01 00:58:55.616,-0.175,-0.085
2021-08-01 00:58:55.620,-0.16,-0.045
2021-08-01 00:58:55.624,-0.15,-0.045
2021-08-01 00:58:55.628,-0.165,-0.055
2021-08-01 00:58:55.632,-0.155,-0.045
2021-08-01 00:58:55.636,-0.175,-0.04
2021-08-01 00:58:55.640,-0.155,-0.055
2021-08-01 00:58:55.644,-0.16,-0.035
2021-08-01 00:58:55.648,-0.165,-0.04
2021-08-01 00:58:55.652,-0.195,-0.02
2021-08-01 00:58:55.656,-0.19,-0.045
2021-08-01 00:58:55.660,-0.18,-0.03
2021-08-01 00:58:55.664,-0.19,-0.03
2021-08-01 00:58:55.668,-0.21,-0.04
2021-08-01 00:58:55.672,-0.21,-0.04
2021-08-01 00:58:55.676,-0.2,-0.02
2021-08-01 00:58:55.680,-0.21,-0.02
2021-08-01 00:58:55.684,-0.205,-0.045
2021-08-01 00:58:55.688,-0.22,-0.045
2021-08-01 00:58:55.692,-0.215,-0.02
2021-08-01 00:58:55.696,-0.22,-0.025
2021-08-01 00:58:55.700,-0.21,-0.04
2021-08-01 00:58:55.704,-0.195,-0.045
2021-08-01 00:58:55.708,-0.2,-0.02
2021-08-01 00:58:55.712,-0.18,-0.02
2021-08-01 00:58:55.716,-0.185,-0.025
2021-08-01 00:58:55.720,-0.17,-0.035
2021-08-01 00:58:55.724,-0.175,-0.01
2021-08-01 00:58:55.728,-0.13,-0.01
2021-08-01 00:58:55.732,-0.08,0.025
2021-08-01 00:58:55.736,-0.07,0.035
2021-08-01 00:58:55.740,-0.045,0.045
2021-08-01 00:58:55.744,-0.005,0.06
2021-08-01 00:58:55.748,0.015,0.045
2021-08-01 00:58:55.752,0.055,0.055
2021-08-01 00:58:55.756,0.08,0.045
2021-08-01 00:58:55.760,0.08,0.04
2021-08-01 00:58:55.764,0.08,0.025
2021-08-01 00:58:55.768,0.055,-0.005
2021-08-01 00:58:55.772,0.01,-0.04
2021-08-01 00:58:55.776,-0.015,-0.06
2021-08-01 00:58:55.780,-0.09,-0.065
2021-08-01 00:58:55.784,-0.125,-0.055
2021-08-01 00:58:55.788,-0.185,-0.05
2021-08-01 00:58:55.792,-0.26,-0.045
2021-08-01 00:58:55.796,-0.315,-0.02
2021-08-01 00:58:55.800,-0.33,0.0
2021-08-01 00:58:55.804,-0.36,-0.005
2021-08-01 00:58:55.808,-0.36,-0.015
2021-08-01 00:58:55.812,-0.355,-0.01
2021-08-01 00:58:55.816,-0.345,-0.02
2021-08-01 00:58:55.820,-0.33,-0.035
2021-08-01 00:58:55.824,-0.325,-0.03
2021-08-01 00:58:55.828,-0.31,-0.03
2021-08-01 00:58:55.832,-0.3,-0.035
2021-08-01 00:58:55.836,-0.305,-0.025
2021-08-01 00:58:55.840,-0.31,-0.04
2021-08-01 00:58:55.844,-0.295,-0.035
2021-08-01 00:58:55.848,-0.305,-0.03
2021-08-01 00:58:55.852,-0.3,-0.05
2021-08-01 00:58:55.856,-0.29,-0.04
2021-08-01 00:58:55.860,-0.325,-0.045
2021-08-01 00:58:55.864,-0.31,-0.045
2021-08-01 00:58:55.868,-0.315,-0.035
2021-08-01 00:58:55.872,-0.33,-0.025
2021-08-01 00:58:55.876,-0.33,-0.04
2021-08-01 00:58:55.880,-0.32,-0.05
2021-08-01 00:58:55.884,-0.305,-0.07
2021-08-01 00:58:55.888,-0.325,-0.065
2021-08-01 00:58:55.892,-0.31,-0.06
2021-08-01 00:58:55.896,-0.32,-0.06
2021-08-01 00:58:55.900,-0.3,-0.04
2021-08-01 00:58:55.904,-0.28,-0.08
2021-08-01 00:58:55.908,-0.265,-0.065
2021-08-01 00:58:55.912,-0.17,-0.075
2021-08-01 00:58:55.916,-0.09,-0.09
2021-08-01 00:58:55.920,0.015,-0.08
2021-08-01 00:58:55.924,0.095,-0.13
2021-08-01 00:58:55.928,0.145,-0.17
2021-08-01 00:58:55.932,0.195,-0.19
2021-08-01 00:58:55.936,0.215,-0.185
2021-08-01 00:58:55.940,0.23,-0.22
2021-08-01 00:58:55.944,0.22,-0.325
2021-08-01 00:58:55.948,0.295,-0.495
2021-08-01 00:58:55.952,0.55,-0.7
2021-08-01 00:58:55.956,0.875,-0.98
2021-08-01 00:58:55.960,1.26,-1.215
2021-08-01 00:58:55.964,1.505,-1.365
2021-08-01 00:58:55.968,1.455,-1.295
2021-08-01 00:58:55.972,1.015,-0.96
2021-08-01 00:58:55.976,0.39,-0.56
2021-08-01 00:58:55.980,-0.04,-0.23
2021-08-01 00:58:55.984,-0.26,-0.105
2021-08-01 00:58:55.988,-0.36,-0.02
2021-08-01 00:58:55.992,-0.41,0.04
2021-08-01 00:58:55.996,-0.435,0.045
2021-08-01 00:58:56.000,-0.475,0.055
2021-08-01 00:58:56.004,-0.475,0.045
2021-08-01 00:58:56.008,-0.5,0.045
2021-08-01 00:58:56.012,-0.53,0.02
2021-08-01 00:58:56.016,-0.53,0.03
2021-08-01 00:58:56.020,-0.55,0.015
2021-08-01 00:58:56.024,-0.525,0.005
2021-08-01 00:58:56.028,-0.515,0.025
2021-08-01 00:58:56.032,-0.51,0.04
2021-08-01 00:58:56.036,-0.54,0.05
2021-08-01 00:58:56.040,-0.525,0.05
2021-08-01 00:58:56.044,-0.52,0.04
2021-08-01 00:58:56.048,-0.505,0.05
2021-08-01 00:58:56.052,-0.515,0.03
2021-08-01 00:58:56.056,-0.52,0.055
2021-08-01 00:58:56.060,-0.52,0.03
2021-08-01 00:58:56.064,-0.525,0.015
2021-08-01 00:58:56.068,-0.53,0.05
2021-08-01 00:58:56.072,-0.565,0.015
2021-08-01 00:58:56.076,-0.56,0.015
2021-08-01 00:58:56.080,-0.555,0.015
2021-08-01 00:58:56.084,-0.57,0.005
2021-08-01 00:58:56.088,-0.57,0.0
2021-08-01 00:58:56.092,-0.575,0.02
2021-08-01 00:58:56.096,-0.58,0.0
2021-08-01 00:58:56.100,-0.57,0.0
2021-08-01 00:58:56.104,-0.58,0.01
2021-08-01 00:58:56.108,-0.595,0.03
2021-08-01 00:58:56.112,-0.585,0.025
2021-08-01 00:58:56.116,-0.58,0.01
2021-08-01 00:58:56.120,-0.61,0.005
2021-08-01 00:58:56.124,-0.6,0.015
2021-08-01 00:58:56.128,-0.56,0.02
2021-08-01 00:58:56.132,-0.57,0.025
2021-08-01 00:58:56.136,-0.57,0.0
2021-08-01 00:58:56.140,-0.565,0.015
2021-08-01 00:58:56.144,-0.545,0.015
2021-08-01 00:58:56.148,-0.54,0.015
2021-08-01 00:58:56.152,-0.535,0.01
2021-08-01 00:58:56.156,-0.5,0.0
2021-08-01 00:58:56.160,-0.505,0.0
2021-08-01 00:58:56.164,-0.485,0.0
2021-08-01 00:58:56.168,-0.495,-0.025
2021-08-01 00:58:56.172,-0.475,-0.025
2021-08-01 00:58:56.176,-0.48,-0.02
2021-08-01 00:58:56.180,-0.475,-0.02
2021-08-01 00:58:56.184,-0.475,-0.045
2021-08-01 00:58:56.188,-0.45,-0.08
2021-08-01 00:58:56.192,-0.425,-0.05
2021-08-01 00:58:56.196,-0.41,-0.06
2021-08-01 00:58:56.200,-0.39,-0.07
2021-08-01 00:58:56.204,-0.385,-0.08
2021-08-01 00:58:56.208,-0.38,-0.08
2021-08-01 00:58:56.212,-0.37,-0.07
2021-08-01 00:58:56.216,-0.37,-0.07
2021-08-01 00:58:56.220,-0.36,-0.065
2021-08-01 00:58:56.224,-0.34,-0.065
2021-08-01 00:58:56.228,-0.335,-0.045
2021-08-01 00:58:56.232,-0.3,-0.04
2021-08-01 00:58:56.236,-0.29,-0.055
2021-08-01 00:58:56.240,-0.295,-0.045
2021-08-01 00:58:56.244,-0.27,-0.035
2021-08-01 00:58:56.248,-0.275,-0.025
2021-08-01 00:58:56.252,-0.28,-0.03
2021-08-01 00:58:56.256,-0.27,-0.03
2021-08-01 00:58:56.260,-0.26,-0.02
2021-08-01 00:58:56.264,-0.28,-0.04
2021-08-01 00:58:56.268,-0.27,-0.01
2021-08-01 00:58:56.272,-0.255,-0.025
2021-08-01 00:58:56.276,-0.265,-0.025
2021-08-01 00:58:56.280,-0.27,-0.025
2021-08-01 00:58:56.284,-0.27,-0.015
2021-08-01 00:58:56.288,-0.305,-0.015
2021-08-01 00:58:56.292,-0.29,0.0
2021-08-01 00:58:56.296,-0.305,-0.02
2021-08-01 00:58:56.300,-0.3,-0.02
2021-08-01 00:58:56.304,-0.295,-0.015
2021-08-01 00:58:56.308,-0.265,0.0
2021-08-01 00:58:56.312,-0.29,-0.035
2021-08-01 00:58:56.316,-0.305,0.01
2021-08-01 00:58:56.320,-0.305,-0.005
2021-08-01 00:58:56.324,-0.285,-0.015
2021-08-01 00:58:56.328,-0.28,-0.005
2021-08-01 00:58:56.332,-0.265,-0.02
2021-08-01 00:58:56.336,-0.265,-0.015
2021-08-01 00:58:56.340,-0.25,0.0
2021-08-01 00:58:56.344,-0.23,0.0
2021-08-01 00:58:56.348,-0.24,0.0
2021-08-01 00:58:56.352,-0.255,0.005
2021-08-01 00:58:56.356,-0.235,0.01
2021-08-01 00:58:56.360,-0.2,0.0
2021-08-01 00:58:56.364,-0.185,0.015
2021-08-01 00:58:56.368,-0.16,0.035
2021-08-01 00:58:56.372,-0.125,0.025
2021-08-01 00:58:56.376,-0.09,0.04
2021-08-01 00:58:56.380,-0.085,0.06
2021-08-01 00:58:56.384,-0.05,0.045
2021-08-01 00:58:56.388,-0.02,0.045
2021-08-01 00:58:56.392,0.02,0.02
2021-08-01 00:58:56.396,0.01,0.035
2021-08-01 00:58:56.400,0.015,-0.01
2021-08-01 00:58:56.404,0.0,-0.015
2021-08-01 00:58:56.408,-0.025,-0.06
2021-08-01 00:58:56.412,-0.08,-0.045
2021-08-01 00:58:56.416,-0.14,-0.07
2021-08-01 00:58:56.420,-0.21,-0.05
2021-08-01 00:58:56.424,-0.25,-0.04
2021-08-01 00:58:56.428,-0.295,-0.01
2021-08-01 00:58:56.432,-0.33,-0.01
2021-08-01 00:58:56.436,-0.345,0.0
2021-08-01 00:58:56.440,-0.345,0.005
2021-08-01 00:58:56.444,-0.35,-0.005
2021-08-01 00:58:56.448,-0.355,-0.015
2021-08-01 00:58:56.452,-0.345,-0.005
2021-08-01 00:58:56.456,-0.33,-0.015
2021-08-01 00:58:56.460,-0.345,-0.045
2021-08-01 00:58:56.464,-0.34,-0.035
2021-08-01 00:58:56.468,-0.33,-0.03
2021-08-01 00:58:56.472,-0.335,-0.035
2021-08-01 00:58:56.476,-0.33,-0.025
2021-08-01 00:58:56.480,-0.35,-0.035
2021-08-01 00:58:56.484,-0.31,-0.025
2021-08-01 00:58:56.488,-0.325,-0.01
2021-08-01 00:58:56.492,-0.33,-0.03
2021-08-01 00:58:56.496,-0.32,-0.055
2021-08-01 00:58:56.500,-0.31,-0.06
2021-08-01 00:58:56.504,-0.32,-0.08
2021-08-01 00:58:56.508,-0.32,-0.045
2021-08-01 00:58:56.512,-0.32,-0.055
2021-08-01 00:58:56.516,-0.32,-0.055
2021-08-01 00:58:56.520,-0.295,-0.035
2021-08-01 00:58:56.524,-0.31,-0.07
2021-08-01 00:58:56.528,-0.315,-0.055
2021-08-01 00:58:56.532,-0.295,-0.065
2021-08-01 00:58:56.536,-0.285,-0.055
2021-08-01 00:58:56.540,-0.275,-0.05
2021-08-01 00:58:56.544,-0.205,-0.055
2021-08-01 00:58:56.548,-0.135,-0.05
2021-08-01 00:58:56.552,-0.025,-0.045
2021-08-01 00:58:56.556,0.055,-0.065
2021-08-01 00:58:56.560,0.115,-0.13
2021-08-01 00:58:56.564,0.155,-0.165
2021-08-01 00:58:56.568,0.19,-0.16
2021-08-01 00:58:56.572,0.19,-0.17
2021-08-01 00:58:56.576,0.185,-0.23
2021-08-01 00:58:56.580,0.15,-0.34
2021-08-01 00:58:56.584,0.25,-0.495
2021-08-01 00:58:56.588,0.51,-0.715
2021-08-01 00:58:56.592,0.87,-1.0
2021-08-01 00:58:56.596,1.23,-1.265
2021-08-01 00:58:56.600,1.44,-1.39
2021-08-01 00:58:56.604,1.39,-1.28
2021-08-01 00:58:56.608,1.015,-0.92
2021-08-01 00:58:56.612,0.455,-0.485
2021-08-01 00:58:56.616,0.03,-0.18
2021-08-01 00:58:56.620,-0.19,-0.05
2021-08-01 00:58:56.624,-0.31,0.03
2021-08-01 00:58:56.628,-0.35,0.07
2021-08-01 00:58:56.632,-0.375,0.075
2021-08-01 00:58:56.636,-0.405,0.1
2021-08-01 00:58:56.640,-0.415,0.1
2021-08-01 00:58:56.644,-0.44,0.085
2021-08-01 00:58:56.648,-0.455,0.08
2021-08-01 00:58:56.652,-0.445,0.065
2021-08-01 00:58:56.656,-0.45,0.02
2021-08-01 00:58:56.660,-0.475,0.04
2021-08-01 00:58:56.664,-0.47,0.035
2021-08-01 00:58:56.668,-0.485,0.015
2021-08-01 00:58:56.672,-0.505,0.04
2021-08-01 00:58:56.676,-0.495,0.035
2021-08-01 00:58:56.680,-0.495,0.01
2021-08-01 00:58:56.684,-0.485,0.03
2021-08-01 00:58:56.688,-0.505,0.035
2021-08-01 00:58:56.692,-0.5,0.02
2021-08-01 00:58:56.696,-0.5,0.01
2021-08-01 00:58:56.700,-0.505,0.005
2021-08-01 00:58:56.704,-0.52,-0.01
2021-08-01 00:58:56.708,-0.515,-0.01
2021-08-01 00:58:56.712,-0.53,-0.025
2021-08-01 00:58:56.716,-0.51,-0.035
2021-08-01 00:58:56.720,-0.53,-0.035
2021-08-01 00:58:56.724,-0.535,-0.025
2021-08-01 00:58:56.728,-0.555,-0.015
2021-08-01 00:58:56.732,-0.545,-0.01
2021-08-01 00:58:56.736,-0.52,-0.025
2021-08-01 00:58:56.740,-0.53,-0.03
2021-08-01 00:58:56.744,-0.505,-0.035
2021-08-01 00:58:56.748,-0.525,-0.02
2021-08-01 00:58:56.752,-0.515,-0.02
2021-08-01 00:58:56.756,-0.515,-0.02
2021-08-01 00:58:56.760,-0.52,-0.025
2021-08-01 00:58:56.764,-0.515,-0.025
2021-08-01 00:58:56.768,-0.51,-0.02
2021-08-01 00:58:56.772,-0.51,-0.025
2021-08-01 00:58:56.776,-0.49,-0.045
2021-08-01 00:58:56.780,-0.47,-0.05
2021-08-01 00:58:56.784,-0.49,-0.06
2021-08-01 00:58:56.788,-0.505,-0.065
2021-08-01 00:58:56.792,-0.49,-0.055
2021-08-01 00:58:56.796,-0.465,-0.05
2021-08-01 00:58:56.800,-0.475,-0.07
2021-08-01 00:58:56.804,-0.45,-0.08
2021-08-01 00:58:56.808,-0.425,-0.09
2021-08-01 00:58:56.812,-0.41,-0.095
2021-08-01 00:58:56.816,-0.41,-0.105
2021-08-01 00:58:56.820,-0.395,-0.1
2021-08-01 00:58:56.824,-0.385,-0.12
2021-08-01 00:58:56.828,-0.385,-0.12
2021-08-01 00:58:56.832,-0.36,-0.115
2021-08-01 00:58:56.836,-0.36,-0.12
2021-08-01 00:58:56.840,-0.345,-0.13
2021-08-01 00:58:56.844,-0.325,-0.115
2021-08-01 00:58:56.848,-0.32,-0.115
2021-08-01 00:58:56.852,-0.3,-0.125
2021-08-01 00:58:56.856,-0.295,-0.12
2021-08-01 00:58:56.860,-0.26,-0.1
2021-08-01 00:58:56.864,-0.26,-0.08
2021-08-01 00:58:56.868,-0.28,-0.11
2021-08-01 00:58:56.872,-0.26,-0.11
2021-08-01 00:58:56.876,-0.265,-0.11
2021-08-01 00:58:56.880,-0.24,-0.1
2021-08-01 00:58:56.884,-0.26,-0.095
2021-08-01 00:58:56.888,-0.285,-0.125
2021-08-01 00:58:56.892,-0.26,-0.11
2021-08-01 00:58:56.896,-0.28,-0.115
2021-08-01 00:58:56.900,-0.26,-0.115
2021-08-01 00:58:56.904,-0.25,-0.105
2021-08-01 00:58:56.908,-0.245,-0.14
2021-08-01 00:58:56.912,-0.23,-0.115
2021-08-01 00:58:56.916,-0.225,-0.14
2021-08-01 00:58:56.920,-0.22,-0.12
2021-08-01 00:58:56.924,-0.245,-0.1
2021-08-01 00:58:56.928,-0.245,-0.115
2021-08-01 00:58:56.932,-0.24,-0.095
2021-08-01 00:58:56.936,-0.25,-0.09
2021-08-01 00:58:56.940,-0.26,-0.1
2021-08-01 00:58:56.944,-0.265,-0.095
2021-08-01 00:58:56.948,-0.25,-0.085
2021-08-01 00:58:56.952,-0.22,-0.1
2021-08-01 00:58:56.956,-0.225,-0.075
2021-08-01 00:58:56.960,-0.25,-0.085
2021-08-01 00:58:56.964,-0.26,-0.09
2021-08-01 00:58:56.968,-0.27,-0.075
2021-08-01 00:58:56.972,-0.25,-0.095
2021-08-01 00:58:56.976,-0.28,-0.08
2021-08-01 00:58:56.980,-0.265,-0.08
2021-08-01 00:58:56.984,-0.26,-0.09
2021-08-01 00:58:56.988,-0.255,-0.11
2021-08-01 00:58:56.992,-0.28,-0.09
2021-08-01 00:58:56.996,-0.265,-0.105
2021-08-01 00:58:57.000,-0.27,-0.11
2021-08-01 00:58:57.004,-0.26,-0.095
2021-08-01 00:58:57.008,-0.255,-0.105
2021-08-01 00:58:57.012,-0.225,-0.125
2021-08-01 00:58:57.016,-0.205,-0.14
2021-08-01 00:58:57.020,-0.21,-0.125
2021-08-01 00:58:57.024,-0.205,-0.115
2021-08-01 00:58:57.028,-0.16,-0.12
2021-08-01 00:58:57.032,-0.11,-0.095
2021-08-01 00:58:57.036,-0.065,-0.095
2021-08-01 00:58:57.040,-0.05,-0.065
2021-08-01 00:58:57.044,0.005,-0.07
2021-08-01 00:58:57.048,0.035,-0.04
2021-08-01 00:58:57.052,0.075,-0.065
2021-08-01 00:58:57.056,0.095,-0.065
2021-08-01 00:58:57.060,0.11,-0.08
2021-08-01 00:58:57.064,0.1,-0.095
2021-08-01 00:58:57.068,0.04,-0.115
2021-08-01 00:58:57.072,0.0,-0.125
2021-08-01 00:58:57.076,-0.055,-0.155
2021-08-01 00:58:57.080,-0.09,-0.175
2021-08-01 00:58:57.084,-0.16,-0.16
2021-08-01 00:58:57.088,-0.225,-0.14
2021-08-01 00:58:57.092,-0.275,-0.125
2021-08-01 00:58:57.096,-0.3,-0.135
2021-08-01 00:58:57.100,-0.345,-0.13
2021-08-01 00:58:57.104,-0.355,-0.16
2021-08-01 00:58:57.108,-0.345,-0.15
2021-08-01 00:58:57.112,-0.345,-0.15
2021-08-01 00:58:57.116,-0.345,-0.185
2021-08-01 00:58:57.120,-0.34,-0.18
2021-08-01 00:58:57.124,-0.325,-0.16
2021-08-01 00:58:57.128,-0.3,-0.185
2021-08-01 00:58:57.132,-0.325,-0.175
2021-08-01 00:58:57.136,-0.32,-0.185
2021-08-01 00:58:57.140,-0.345,-0.18
2021-08-01 00:58:57.144,-0.3,-0.185
2021-08-01 00:58:57.148,-0.305,-0.19
2021-08-01 00:58:57.152,-0.295,-0.16
2021-08-01 00:58:57.156,-0.31,-0.18
2021-08-01 00:58:57.160,-0.29,-0.19
2021-08-01 00:58:57.164,-0.28,-0.17
2021-08-01 00:58:57.168,-0.28,-0.14
2021-08-01 00:58:57.172,-0.29,-0.16
2021-08-01 00:58:57.176,-0.29,-0.17
2021-08-01 00:58:57.180,-0.3,-0.17
2021-08-01 00:58:57.184,-0.3,-0.17
2021-08-01 00:58:57.188,-0.29,-0.145
2021-08-01 00:58:57.192,-0.27,-0.185
2021-08-01 00:58:57.196,-0.265,-0.18
2021-08-01 00:58:57.200,-0.245,-0.185
2021-08-01 00:58:57.204,-0.245,-0.18
2021-08-01 00:58:57.208,-0.2,-0.195
2021-08-01 00:58:57.212,-0.09,-0.19
2021-08-01 00:58:57.216,0.005,-0.2
2021-08-01 00:58:57.220,0.1,-0.24
2021-08-01 00:58:57.224,0.185,-0.275
2021-08-01 00:58:57.228,0.235,-0.33
2021-08-01 00:58:57.232,0.28,-0.305
2021-08-01 00:58:57.236,0.305,-0.31
2021-08-01 00:58:57.240,0.27,-0.33
2021-08-01 00:58:57.244,0.265,-0.4
2021-08-01 00:58:57.248,0.31,-0.53
2021-08-01 00:58:57.252,0.55,-0.715
2021-08-01 00:58:57.256,0.9,-0.985
2021-08-01 00:58:57.260,1.2,-1.22
2021-08-01 00:58:57.264,1.36,-1.34
2021-08-01 00:58:57.268,1.22,-1.265
2021-08-01 00:58:57.272,0.805,-0.93
2021-08-01 00:58:57.276,0.315,-0.54
2021-08-01 00:58:57.280,-0.005,-0.3
2021-08-01 00:58:57.284,-0.14,-0.2
2021-08-01 00:58:57.288,-0.235,-0.12
2021-08-01 00:58:57.292,-0.265,-0.06
2021-08-01 00:58:57.296,-0.32,-0.02
2021-08-01 00:58:57.300,-0.365,-0.02
2021-08-01 00:58:57.304,-0.38,-0.035
2021-08-01 00:58:57.308,-0.415,-0.045
2021-08-01 00:58:57.312,-0.43,-0.05
2021-08-01 00:58:57.316,-0.445,-0.075
2021-08-01 00:58:57.320,-0.44,-0.09
2021-08-01 00:58:57.324,-0.44,-0.105
2021-08-01 00:58:57.328,-0.44,-0.1
2021-08-01 00:58:57.332,-0.46,-0.1
2021-08-01 00:58:57.336,-0.45,-0.095
2021-08-01 00:58:57.340,-0.465,-0.115
2021-08-01 00:58:57.344,-0.46,-0.09
2021-08-01 00:58:57.348,-0.465,-0.11
2021-08-01 00:58:57.352,-0.455,-0.095
2021-08-01 00:58:57.356,-0.455,-0.085
2021-08-01 00:58:57.360,-0.44,-0.065
2021-08-01 00:58:57.364,-0.465,-0.08
2021-08-01 00:58:57.368,-0.48,-0.085
2021-08-01 00:58:57.372,-0.495,-0.065
2021-08-01 00:58:57.376,-0.49,-0.06
2021-08-01 00:58:57.380,-0.49,-0.05
2021-08-01 00:58:57.384,-0.49,-0.07
2021-08-01 00:58:57.388,-0.505,-0.06
2021-08-01 00:58:57.392,-0.515,-0.075
2021-08-01 00:58:57.396,-0.53,-0.075
2021-08-01 00:58:57.400,-0.54,-0.07
2021-08-01 00:58:57.404,-0.545,-0.055
2021-08-01 00:58:57.408,-0.53,-0.07
2021-08-01 00:58:57.412,-0.525,-0.08
2021-08-01 00:58:57.416,-0.52,-0.09
2021-08-01 00:58:57.420,-0.535,-0.08
2021-08-01 00:58:57.424,-0.505,-0.065
2021-08-01 00:58:57.428,-0.525,-0.08
2021-08-01 00:58:57.432,-0.53,-0.08
2021-08-01 00:58:57.436,-0.52,-0.055
2021-08-01 00:58:57.440,-0.5,-0.07
2021-08-01 00:58:57.444,-0.495,-0.055
2021-08-01 00:58:57.448,-0.49,-0.06
2021-08-01 00:58:57.452,-0.49,-0.07
2021-08-01 00:58:57.456,-0.495,-0.075
2021-08-01 00:58:57.460,-0.48,-0.075
2021-08-01 00:58:57.464,-0.455,-0.055
2021-08-01 00:58:57.468,-0.46,-0.04
2021-08-01 00:58:57.472,-0.425,-0.055
2021-08-01 00:58:57.476,-0.42,-0.06
2021-08-01 00:58:57.480,-0.405,-0.065
2021-08-01 00:58:57.484,-0.405,-0.065
2021-08-01 00:58:57.488,-0.42,-0.065
2021-08-01 00:58:57.492,-0.4,-0.075
2021-08-01 00:58:57.496,-0.385,-0.06
2021-08-01 00:58:57.500,-0.395,-0.09
2021-08-01 00:58:57.504,-0.385,-0.075
2021-08-01 00:58:57.508,-0.365,-0.075
2021-08-01 00:58:57.512,-0.38,-0.06
2021-08-01 00:58:57.516,-0.37,-0.085
2021-08-01 00:58:57.520,-0.35,-0.09
2021-08-01 00:58:57.524,-0.34,-0.09
2021-08-01 00:58:57.528,-0.345,-0.08
2021-08-01 00:58:57.532,-0.32,-0.095
2021-08-01 00:58:57.536,-0.305,-0.08
2021-08-01 00:58:57.540,-0.295,-0.1
2021-08-01 00:58:57.544,-0.305,-0.075
2021-08-01 00:58:57.548,-0.3,-0.085
2021-08-01 00:58:57.552,-0.315,-0.06
2021-08-01 00:58:57.556,-0.305,-0.055
2021-08-01 00:58:57.560,-0.305,-0.08
2021-08-01 00:58:57.564,-0.3,-0.07
2021-08-01 00:58:57.568,-0.3,-0.065
2021-08-01 00:58:57.572,-0.295,-0.08
2021-08-01 00:58:57.576,-0.295,-0.06
2021-08-01 00:58:57.580,-0.31,-0.025
2021-08-01 00:58:57.584,-0.3,-0.035
2021-08-01 00:58:57.588,-0.29,-0.035
2021-08-01 00:58:57.592,-0.29,-0.065
2021-08-01 00:58:57.596,-0.305,-0.035
2021-08-01 00:58:57.600,-0.3,-0.04
2021-08-01 00:58:57.604,-0.31,-0.06
2021-08-01 00:58:57.608,-0.32,-0.03
2021-08-01 00:58:57.612,-0.335,-0.035
2021-08-01 00:58:57.616,-0.35,-0.03
2021-08-01 00:58:57.620,-0.34,-0.04
2021-08-01 00:58:57.624,-0.35,-0.025
2021-08-01 00:58:57.628,-0.36,-0.02
2021-08-01 00:58:57.632,-0.35,-0.035
2021-08-01 00:58:57.636,-0.36,-0.055
2021-08-01 00:58:57.640,-0.355,-0.04
2021-08-01 00:58:57.644,-0.365,-0.045
2021-08-01 00:58:57.648,-0.36,-0.02
2021-08-01 00:58:57.652,-0.34,-0.04
2021-08-01 00:58:57.656,-0.315,-0.03
2021-08-01 00:58:57.660,-0.305,-0.04
2021-08-01 00:58:57.664,-0.31,-0.02
2021-08-01 00:58:57.668,-0.3,-0.035
2021-08-01 00:58:57.672,-0.265,-0.025
2021-08-01 00:58:57.676,-0.28,-0.01
2021-08-01 00:58:57.680,-0.25,0.0
2021-08-01 00:58:57.684,-0.195,0.0
2021-08-01 00:58:57.688,-0.155,0.0
2021-08-01 00:58:57.692,-0.13,0.03
2021-08-01 00:58:57.696,-0.125,0.03
2021-08-01 00:58:57.700,-0.08,0.06
2021-08-01 00:58:57.704,-0.04,0.05
2021-08-01 00:58:57.708,-0.03,0.04
2021-08-01 00:58:57.712,-0.02,0.005
2021-08-01 00:58:57.716,-0.03,-0.02
2021-08-01 00:58:57.720,-0.07,-0.06
2021-08-01 00:58:57.724,-0.115,-0.07
2021-08-01 00:58:57.728,-0.16,-0.075
2021-08-01 00:58:57.732,-0.21,-0.08
2021-08-01 00:58:57.736,-0.25,-0.08
2021-08-01 00:58:57.740,-0.325,-0.08
2021-08-01 00:58:57.744,-0.38,-0.07
2021-08-01 00:58:57.748,-0.44,-0.07
2021-08-01 00:58:57.752,-0.445,-0.06
2021-08-01 00:58:57.756,-0.44,-0.06
2021-08-01 00:58:57.760,-0.44,-0.09
2021-08-01 00:58:57.764,-0.45,-0.06
2021-08-01 00:58:57.768,-0.405,-0.085
2021-08-01 00:58:57.772,-0.405,-0.07
2021-08-01 00:58:57.776,-0.42,-0.055
2021-08-01 00:58:57.780,-0.4,-0.075
2021-08-01 00:58:57.784,-0.385,-0.075
2021-08-01 00:58:57.788,-0.395,-0.06
2021-08-01 00:58:57.792,-0.405,-0.055
2021-08-01 00:58:57.796,-0.395,-0.06
2021-08-01 00:58:57.800,-0.4,-0.075
2021-08-01 00:58:57.804,-0.37,-0.075
2021-08-01 00:58:57.808,-0.385,-0.09
2021-08-01 00:58:57.812,-0.395,-0.08
2021-08-01 00:58:57.816,-0.37,-0.07
2021-08-01 00:58:57.820,-0.41,-0.095
2021-08-01 00:58:57.824,-0.405,-0.1
2021-08-01 00:58:57.828,-0.4,-0.08
2021-08-01 00:58:57.832,-0.4,-0.1
2021-08-01 00:58:57.836,-0.395,-0.115
2021-08-01 00:58:57.840,-0.4,-0.105
2021-08-01 00:58:57.844,-0.4,-0.105
2021-08-01 00:58:57.848,-0.39,-0.115
2021-08-01 00:58:57.852,-0.37,-0.11
2021-08-01 00:58:57.856,-0.355,-0.095
2021-08-01 00:58:57.860,-0.285,-0.095
2021-08-01 00:58:57.864,-0.23,-0.09
2021-08-01 00:58:57.868,-0.125,-0.115
2021-08-01 00:58:57.872,-0.035,-0.15
2021-08-01 00:58:57.876,0.035,-0.17
2021-08-01 00:58:57.880,0.1,-0.24
2021-08-01 00:58:57.884,0.125,-0.24
2021-08-01 00:58:57.888,0.17,-0.205
2021-08-01 00:58:57.892,0.145,-0.27
2021-08-01 00:58:57.896,0.125,-0.365
2021-08-01 00:58:57.900,0.21,-0.5
2021-08-01 00:58:57.904,0.455,-0.715
2021-08-01 00:58:57.908,0.77,-1.005
2021-08-01 00:58:57.912,1.135,-1.23
2021-08-01 00:58:57.916,1.4,-1.4
2021-08-01 00:58:57.920,1.395,-1.375
2021-08-01 00:58:57.924,1.045,-1.06
2021-08-01 00:58:57.928,0.46,-0.635
2021-08-01 00:58:57.932,-0.025,-0.29
2021-08-01 00:58:57.936,-0.295,-0.155
2021-08-01 00:58:57.940,-0.395,-0.075
2021-08-01 00:58:57.944,-0.47,0.005
2021-08-01 00:58:57.948,-0.5,0.0
2021-08-01 00:58:57.952,-0.52,0.03
2021-08-01 00:58:57.956,-0.53,-0.01
2021-08-01 00:58:57.960,-0.56,0.01
2021-08-01 00:58:57.964,-0.56,0.005
2021-08-01 00:58:57.968,-0.58,-0.015
2021-08-01 00:58:57.972,-0.58,0.0
2021-08-01 00:58:57.976,-0.59,-0.02
2021-08-01 00:58:57.980,-0.595,-0.035
2021-08-01 00:58:57.984,-0.605,-0.015
2021-08-01 00:58:57.988,-0.61,-0.01
2021-08-01 00:58:57.992,-0.6,-0.02
2021-08-01 00:58:57.996,-0.615,-0.015
2021-08-01 00:58:58.000,-0.62,-0.015
2021-08-01 00:58:58.004,-0.615,0.005
2021-08-01 00:58:58.008,-0.615,0.0
2021-08-01 00:58:58.012,-0.62,0.0
2021-08-01 00:58:58.016,-0.615,-0.025
2021-08-01 00:58:58.020,-0.63,-0.02
2021-08-01 00:58:58.024,-0.64,-0.02
2021-08-01 00:58:58.028,-0.665,-0.025
2021-08-01 00:58:58.032,-0.645,-0.025
2021-08-01 00:58:58.036,-0.635,-0.01
2021-08-01 00:58:58.040,-0.645,-0.03
2021-08-01 00:58:58.044,-0.66,-0.025
2021-08-01 00:58:58.048,-0.67,-0.045
2021-08-01 00:58:58.052,-0.67,-0.035
2021-08-01 00:58:58.056,-0.67,-0.05
2021-08-01 00:58:58.060,-0.68,-0.045
