Time,ECG1,ECG2
2021-08-19 05:40:41.444,0.085,-0.265
2021-08-19 05:40:41.448,0.08,-0.275
2021-08-19 05:40:41.452,0.06,-0.26
2021-08-19 05:40:41.456,0.065,-0.27
2021-08-19 05:40:41.460,0.105,-0.265
2021-08-19 05:40:41.464,0.07,-0.26
2021-08-19 05:40:41.468,0.085,-0.275
2021-08-19 05:40:41.472,0.095,-0.27
2021-08-19 05:40:41.476,0.07,-0.265
2021-08-19 05:40:41.480,0.06,-0.26
2021-08-19 05:40:41.484,0.07,-0.26
2021-08-19 05:40:41.488,0.06,-0.26
2021-08-19 05:40:41.492,0.08,-0.27
2021-08-19 05:40:41.496,0.075,-0.28
2021-08-19 05:40:41.500,0.06,-0.26
2021-08-19 05:40:41.504,0.075,-0.275
2021-08-19 05:40:41.508,0.065,-0.27
2021-08-19 05:40:41.512,0.06,-0.28
2021-08-19 05:40:41.516,0.065,-0.265
2021-08-19 05:40:41.520,0.075,-0.275
2021-08-19 05:40:41.524,0.075,-0.26
2021-08-19 05:40:41.528,0.05,-0.275
2021-08-19 05:40:41.532,0.07,-0.285
2021-08-19 05:40:41.536,0.07,-0.29
2021-08-19 05:40:41.540,0.065,-0.275
2021-08-19 05:40:41.544,0.1,-0.275
2021-08-19 05:40:41.548,0.07,-0.28
2021-08-19 05:40:41.552,0.055,-0.275
2021-08-19 05:40:41.556,0.055,-0.285
2021-08-19 05:40:41.560,0.045,-0.275
2021-08-19 05:40:41.564,0.07,-0.26
2021-08-19 05:40:41.568,0.08,-0.28
2021-08-19 05:40:41.572,0.075,-0.28
2021-08-19 05:40:41.576,0.05,-0.27
2021-08-19 05:40:41.580,0.055,-0.265
2021-08-19 05:40:41.584,0.07,-0.28
2021-08-19 05:40:41.588,0.065,-0.275
2021-08-19 05:40:41.592,0.085,-0.265
2021-08-19 05:40:41.596,0.065,-0.27
2021-08-19 05:40:41.600,0.075,-0.28
2021-08-19 05:40:41.604,0.07,-0.285
2021-08-19 05:40:41.608,0.05,-0.28
2021-08-19 05:40:41.612,0.075,-0.275
2021-08-19 05:40:41.616,0.075,-0.27
2021-08-19 05:40:41.620,0.055,-0.265
2021-08-19 05:40:41.624,0.075,-0.265
2021-08-19 05:40:41.628,0.08,-0.285
2021-08-19 05:40:41.632,0.055,-0.28
2021-08-19 05:40:41.636,0.08,-0.28
2021-08-19 05:40:41.640,0.08,-0.285
2021-08-19 05:40:41.644,0.08,-0.29
2021-08-19 05:40:41.648,0.065,-0.255
2021-08-19 05:40:41.652,0.07,-0.285
2021-08-19 05:40:41.656,0.055,-0.295
2021-08-19 05:40:41.660,0.075,-0.28
2021-08-19 05:40:41.664,0.07,-0.285
2021-08-19 05:40:41.668,0.08,-0.285
2021-08-19 05:40:41.672,0.085,-0.27
2021-08-19 05:40:41.676,0.08,-0.285
2021-08-19 05:40:41.680,0.1,-0.29
2021-08-19 05:40:41.684,0.055,-0.275
2021-08-19 05:40:41.688,0.055,-0.25
2021-08-19 05:40:41.692,0.07,-0.285
2021-08-19 05:40:41.696,0.085,-0.28
2021-08-19 05:40:41.700,0.075,-0.275
2021-08-19 05:40:41.704,0.07,-0.28
2021-08-19 05:40:41.708,0.07,-0.275
2021-08-19 05:40:41.712,0.07,-0.26
2021-08-19 05:40:41.716,0.07,-0.26
2021-08-19 05:40:41.720,0.07,-0.28
2021-08-19 05:40:41.724,0.1,-0.29
2021-08-19 05:40:41.728,0.065,-0.27
2021-08-19 05:40:41.732,0.07,-0.285
2021-08-19 05:40:41.736,0.09,-0.26
2021-08-19 05:40:41.740,0.065,-0.275
2021-08-19 05:40:41.744,0.075,-0.28
2021-08-19 05:40:41.748,0.075,-0.285
2021-08-19 05:40:41.752,0.07,-0.26
2021-08-19 05:40:41.756,0.065,-0.275
2021-08-19 05:40:41.760,0.055,-0.285
2021-08-19 05:40:41.764,0.06,-0.27
2021-08-19 05:40:41.768,0.075,-0.29
2021-08-19 05:40:41.772,0.085,-0.28
2021-08-19 05:40:41.776,0.075,-0.28
2021-08-19 05:40:41.780,0.07,-0.28
2021-08-19 05:40:41.784,0.06,-0.28
2021-08-19 05:40:41.788,0.065,-0.265
2021-08-19 05:40:41.792,0.065,-0.28
2021-08-19 05:40:41.796,0.06,-0.265
2021-08-19 05:40:41.800,0.065,-0.27
2021-08-19 05:40:41.804,0.07,-0.27
2021-08-19 05:40:41.808,0.065,-0.27
2021-08-19 05:40:41.812,0.065,-0.275
2021-08-19 05:40:41.816,0.035,-0.26
2021-08-19 05:40:41.820,0.06,-0.265
2021-08-19 05:40:41.824,0.06,-0.255
2021-08-19 05:40:41.828,0.075,-0.25
2021-08-19 05:40:41.832,0.06,-0.265
2021-08-19 05:40:41.836,0.06,-0.275
2021-08-19 05:40:41.840,0.06,-0.285
2021-08-19 05:40:41.844,0.075,-0.265
2021-08-19 05:40:41.848,0.07,-0.26
2021-08-19 05:40:41.852,0.08,-0.26
2021-08-19 05:40:41.856,0.07,-0.26
2021-08-19 05:40:41.860,0.08,-0.265
2021-08-19 05:40:41.864,0.07,-0.27
2021-08-19 05:40:41.868,0.1,-0.255
2021-08-19 05:40:41.872,0.075,-0.25
2021-08-19 05:40:41.876,0.075,-0.255
2021-08-19 05:40:41.880,0.04,-0.25
2021-08-19 05:40:41.884,0.075,-0.245
2021-08-19 05:40:41.888,0.07,-0.22
2021-08-19 05:40:41.892,0.065,-0.245
2021-08-19 05:40:41.896,0.065,-0.24
2021-08-19 05:40:41.900,0.06,-0.23
2021-08-19 05:40:41.904,0.055,-0.235
2021-08-19 05:40:41.908,0.055,-0.22
2021-08-19 05:40:41.912,0.05,-0.25
2021-08-19 05:40:41.916,0.085,-0.235
2021-08-19 05:40:41.920,0.07,-0.245
2021-08-19 05:40:41.924,0.07,-0.235
2021-08-19 05:40:41.928,0.075,-0.225
2021-08-19 05:40:41.932,0.07,-0.235
2021-08-19 05:40:41.936,0.07,-0.245
2021-08-19 05:40:41.940,0.09,-0.245
2021-08-19 05:40:41.944,0.07,-0.235
2021-08-19 05:40:41.948,0.075,-0.225
2021-08-19 05:40:41.952,0.09,-0.235
2021-08-19 05:40:41.956,0.075,-0.23
2021-08-19 05:40:41.960,0.08,-0.22
2021-08-19 05:40:41.964,0.095,-0.225
2021-08-19 05:40:41.968,0.095,-0.225
2021-08-19 05:40:41.972,0.08,-0.23
2021-08-19 05:40:41.976,0.07,-0.225
2021-08-19 05:40:41.980,0.07,-0.205
2021-08-19 05:40:41.984,0.1,-0.2
2021-08-19 05:40:41.988,0.08,-0.22
2021-08-19 05:40:41.992,0.08,-0.23
2021-08-19 05:40:41.996,0.06,-0.2
2021-08-19 05:40:42.000,0.085,-0.215
2021-08-19 05:40:42.004,0.095,-0.22
2021-08-19 05:40:42.008,0.08,-0.22
2021-08-19 05:40:42.012,0.075,-0.225
2021-08-19 05:40:42.016,0.09,-0.225
2021-08-19 05:40:42.020,0.08,-0.23
2021-08-19 05:40:42.024,0.065,-0.215
2021-08-19 05:40:42.028,0.08,-0.22
2021-08-19 05:40:42.032,0.08,-0.215
2021-08-19 05:40:42.036,0.075,-0.23
2021-08-19 05:40:42.040,0.095,-0.24
2021-08-19 05:40:42.044,0.08,-0.21
2021-08-19 05:40:42.048,0.055,-0.22
2021-08-19 05:40:42.052,0.07,-0.235
2021-08-19 05:40:42.056,0.09,-0.23
2021-08-19 05:40:42.060,0.055,-0.2
2021-08-19 05:40:42.064,0.095,-0.22
2021-08-19 05:40:42.068,0.055,-0.225
2021-08-19 05:40:42.072,0.08,-0.24
2021-08-19 05:40:42.076,0.085,-0.215
2021-08-19 05:40:42.080,0.075,-0.23
2021-08-19 05:40:42.084,0.09,-0.24
2021-08-19 05:40:42.088,0.08,-0.24
2021-08-19 05:40:42.092,0.065,-0.24
2021-08-19 05:40:42.096,0.06,-0.245
2021-08-19 05:40:42.100,0.07,-0.245
2021-08-19 05:40:42.104,0.055,-0.25
2021-08-19 05:40:42.108,0.07,-0.25
2021-08-19 05:40:42.112,0.065,-0.22
2021-08-19 05:40:42.116,0.065,-0.24
2021-08-19 05:40:42.120,0.055,-0.245
2021-08-19 05:40:42.124,0.055,-0.245
2021-08-19 05:40:42.128,0.055,-0.25
2021-08-19 05:40:42.132,0.05,-0.25
2021-08-19 05:40:42.136,0.065,-0.25
2021-08-19 05:40:42.140,0.055,-0.245
2021-08-19 05:40:42.144,0.065,-0.24
2021-08-19 05:40:42.148,0.065,-0.24
2021-08-19 05:40:42.152,0.065,-0.24
2021-08-19 05:40:42.156,0.065,-0.245
2021-08-19 05:40:42.160,0.065,-0.22
2021-08-19 05:40:42.164,0.07,-0.24
2021-08-19 05:40:42.168,0.09,-0.24
2021-08-19 05:40:42.172,0.055,-0.215
2021-08-19 05:40:42.176,0.075,-0.215
2021-08-19 05:40:42.180,0.075,-0.175
2021-08-19 05:40:42.184,0.075,-0.155
2021-08-19 05:40:42.188,0.075,-0.105
2021-08-19 05:40:42.192,0.07,-0.055
2021-08-19 05:40:42.196,0.075,-0.025
2021-08-19 05:40:42.200,0.08,-0.025
2021-08-19 05:40:42.204,0.095,-0.015
2021-08-19 05:40:42.208,0.13,-0.04
2021-08-19 05:40:42.212,0.135,-0.045
2021-08-19 05:40:42.216,0.14,-0.06
2021-08-19 05:40:42.220,0.155,-0.08
2021-08-19 05:40:42.224,0.175,-0.08
2021-08-19 05:40:42.228,0.19,-0.075
2021-08-19 05:40:42.232,0.16,-0.07
2021-08-19 05:40:42.236,0.165,-0.065
2021-08-19 05:40:42.240,0.15,-0.09
2021-08-19 05:40:42.244,0.115,-0.115
2021-08-19 05:40:42.248,0.115,-0.14
2021-08-19 05:40:42.252,0.115,-0.16
2021-08-19 05:40:42.256,0.09,-0.16
2021-08-19 05:40:42.260,0.045,-0.165
2021-08-19 05:40:42.264,0.035,-0.175
2021-08-19 05:40:42.268,0.025,-0.15
2021-08-19 05:40:42.272,-0.005,-0.16
2021-08-19 05:40:42.276,-0.005,-0.155
2021-08-19 05:40:42.280,0.01,-0.18
2021-08-19 05:40:42.284,0.01,-0.195
2021-08-19 05:40:42.288,-0.02,-0.185
2021-08-19 05:40:42.292,0.015,-0.195
2021-08-19 05:40:42.296,0.005,-0.19
2021-08-19 05:40:42.300,0.005,-0.215
2021-08-19 05:40:42.304,0.01,-0.225
2021-08-19 05:40:42.308,0.005,-0.235
2021-08-19 05:40:42.312,0.015,-0.23
2021-08-19 05:40:42.316,0.05,-0.24
2021-08-19 05:40:42.320,0.09,-0.225
2021-08-19 05:40:42.324,0.075,-0.245
2021-08-19 05:40:42.328,0.1,-0.215
2021-08-19 05:40:42.332,0.09,-0.205
2021-08-19 05:40:42.336,0.105,-0.21
2021-08-19 05:40:42.340,0.1,-0.225
2021-08-19 05:40:42.344,0.085,-0.22
2021-08-19 05:40:42.348,0.075,-0.195
2021-08-19 05:40:42.352,0.11,-0.195
2021-08-19 05:40:42.356,0.08,-0.205
2021-08-19 05:40:42.360,0.075,-0.2
2021-08-19 05:40:42.364,0.075,-0.165
2021-08-19 05:40:42.368,0.075,-0.125
2021-08-19 05:40:42.372,0.075,-0.1
2021-08-19 05:40:42.376,0.085,-0.07
2021-08-19 05:40:42.380,0.08,0.03
2021-08-19 05:40:42.384,0.09,0.255
2021-08-19 05:40:42.388,0.095,0.515
2021-08-19 05:40:42.392,0.105,0.75
2021-08-19 05:40:42.396,0.155,0.9
2021-08-19 05:40:42.400,0.125,0.925
2021-08-19 05:40:42.404,0.065,0.875
2021-08-19 05:40:42.408,0.015,0.715
2021-08-19 05:40:42.412,0.015,0.435
2021-08-19 05:40:42.416,-0.075,0.095
2021-08-19 05:40:42.420,-0.21,-0.245
2021-08-19 05:40:42.424,-0.505,-0.26
2021-08-19 05:40:42.428,-0.815,-0.08
2021-08-19 05:40:42.432,-1.105,0.0
2021-08-19 05:40:42.436,-1.275,-0.155
2021-08-19 05:40:42.440,-1.335,-0.415
2021-08-19 05:40:42.444,-1.245,-0.565
2021-08-19 05:40:42.448,-0.93,-0.67
2021-08-19 05:40:42.452,-0.52,-0.67
2021-08-19 05:40:42.456,-0.18,-0.63
2021-08-19 05:40:42.460,-0.055,-0.515
2021-08-19 05:40:42.464,-0.065,-0.455
2021-08-19 05:40:42.468,-0.085,-0.415
2021-08-19 05:40:42.472,-0.095,-0.425
2021-08-19 05:40:42.476,-0.1,-0.41
2021-08-19 05:40:42.480,-0.04,-0.425
2021-08-19 05:40:42.484,0.0,-0.42
2021-08-19 05:40:42.488,0.035,-0.425
2021-08-19 05:40:42.492,0.08,-0.415
2021-08-19 05:40:42.496,0.095,-0.4
2021-08-19 05:40:42.500,0.145,-0.395
2021-08-19 05:40:42.504,0.155,-0.42
2021-08-19 05:40:42.508,0.155,-0.44
2021-08-19 05:40:42.512,0.145,-0.43
2021-08-19 05:40:42.516,0.14,-0.405
2021-08-19 05:40:42.520,0.14,-0.4
2021-08-19 05:40:42.524,0.16,-0.415
2021-08-19 05:40:42.528,0.17,-0.4
2021-08-19 05:40:42.532,0.165,-0.41
2021-08-19 05:40:42.536,0.175,-0.41
2021-08-19 05:40:42.540,0.185,-0.415
2021-08-19 05:40:42.544,0.18,-0.43
2021-08-19 05:40:42.548,0.195,-0.39
2021-08-19 05:40:42.552,0.2,-0.405
2021-08-19 05:40:42.556,0.215,-0.41
2021-08-19 05:40:42.560,0.195,-0.41
2021-08-19 05:40:42.564,0.2,-0.4
2021-08-19 05:40:42.568,0.185,-0.375
2021-08-19 05:40:42.572,0.175,-0.39
2021-08-19 05:40:42.576,0.19,-0.395
2021-08-19 05:40:42.580,0.19,-0.385
2021-08-19 05:40:42.584,0.175,-0.385
2021-08-19 05:40:42.588,0.17,-0.395
2021-08-19 05:40:42.592,0.165,-0.41
2021-08-19 05:40:42.596,0.175,-0.4
2021-08-19 05:40:42.600,0.17,-0.39
2021-08-19 05:40:42.604,0.175,-0.39
2021-08-19 05:40:42.608,0.17,-0.4
2021-08-19 05:40:42.612,0.19,-0.405
2021-08-19 05:40:42.616,0.175,-0.4
2021-08-19 05:40:42.620,0.16,-0.4
2021-08-19 05:40:42.624,0.155,-0.41
2021-08-19 05:40:42.628,0.155,-0.41
2021-08-19 05:40:42.632,0.155,-0.4
2021-08-19 05:40:42.636,0.15,-0.395
2021-08-19 05:40:42.640,0.15,-0.415
2021-08-19 05:40:42.644,0.145,-0.405
2021-08-19 05:40:42.648,0.14,-0.4
2021-08-19 05:40:42.652,0.16,-0.4
2021-08-19 05:40:42.656,0.17,-0.395
2021-08-19 05:40:42.660,0.145,-0.38
2021-08-19 05:40:42.664,0.14,-0.4
2021-08-19 05:40:42.668,0.13,-0.41
2021-08-19 05:40:42.672,0.14,-0.37
2021-08-19 05:40:42.676,0.135,-0.4
2021-08-19 05:40:42.680,0.115,-0.38
2021-08-19 05:40:42.684,0.12,-0.395
2021-08-19 05:40:42.688,0.13,-0.39
2021-08-19 05:40:42.692,0.125,-0.395
2021-08-19 05:40:42.696,0.12,-0.38
2021-08-19 05:40:42.700,0.13,-0.36
2021-08-19 05:40:42.704,0.13,-0.35
2021-08-19 05:40:42.708,0.11,-0.355
2021-08-19 05:40:42.712,0.11,-0.34
2021-08-19 05:40:42.716,0.11,-0.315
2021-08-19 05:40:42.720,0.105,-0.315
2021-08-19 05:40:42.724,0.095,-0.305
2021-08-19 05:40:42.728,0.095,-0.27
2021-08-19 05:40:42.732,0.09,-0.25
2021-08-19 05:40:42.736,0.095,-0.22
2021-08-19 05:40:42.740,0.105,-0.2
2021-08-19 05:40:42.744,0.095,-0.175
2021-08-19 05:40:42.748,0.095,-0.17
2021-08-19 05:40:42.752,0.095,-0.17
2021-08-19 05:40:42.756,0.095,-0.16
2021-08-19 05:40:42.760,0.095,-0.14
2021-08-19 05:40:42.764,0.09,-0.12
2021-08-19 05:40:42.768,0.075,-0.11
2021-08-19 05:40:42.772,0.095,-0.11
2021-08-19 05:40:42.776,0.08,-0.115
2021-08-19 05:40:42.780,0.075,-0.09
2021-08-19 05:40:42.784,0.075,-0.095
2021-08-19 05:40:42.788,0.07,-0.095
2021-08-19 05:40:42.792,0.08,-0.09
2021-08-19 05:40:42.796,0.06,-0.1
2021-08-19 05:40:42.800,0.085,-0.095
2021-08-19 05:40:42.804,0.07,-0.095
2021-08-19 05:40:42.808,0.075,-0.1
2021-08-19 05:40:42.812,0.095,-0.105
2021-08-19 05:40:42.816,0.09,-0.095
2021-08-19 05:40:42.820,0.095,-0.12
2021-08-19 05:40:42.824,0.095,-0.11
2021-08-19 05:40:42.828,0.105,-0.135
2021-08-19 05:40:42.832,0.105,-0.12
2021-08-19 05:40:42.836,0.1,-0.14
2021-08-19 05:40:42.840,0.11,-0.14
2021-08-19 05:40:42.844,0.115,-0.145
2021-08-19 05:40:42.848,0.1,-0.13
2021-08-19 05:40:42.852,0.11,-0.125
2021-08-19 05:40:42.856,0.11,-0.14
2021-08-19 05:40:42.860,0.125,-0.135
2021-08-19 05:40:42.864,0.125,-0.13
2021-08-19 05:40:42.868,0.15,-0.15
2021-08-19 05:40:42.872,0.125,-0.155
2021-08-19 05:40:42.876,0.115,-0.13
2021-08-19 05:40:42.880,0.115,-0.14
2021-08-19 05:40:42.884,0.135,-0.15
2021-08-19 05:40:42.888,0.125,-0.14
2021-08-19 05:40:42.892,0.125,-0.14
2021-08-19 05:40:42.896,0.145,-0.13
2021-08-19 05:40:42.900,0.155,-0.125
2021-08-19 05:40:42.904,0.145,-0.125
2021-08-19 05:40:42.908,0.165,-0.13
2021-08-19 05:40:42.912,0.15,-0.15
2021-08-19 05:40:42.916,0.145,-0.14
2021-08-19 05:40:42.920,0.17,-0.125
2021-08-19 05:40:42.924,0.16,-0.15
2021-08-19 05:40:42.928,0.16,-0.125
2021-08-19 05:40:42.932,0.175,-0.125
2021-08-19 05:40:42.936,0.165,-0.14
2021-08-19 05:40:42.940,0.17,-0.13
2021-08-19 05:40:42.944,0.16,-0.135
2021-08-19 05:40:42.948,0.155,-0.135
2021-08-19 05:40:42.952,0.16,-0.145
2021-08-19 05:40:42.956,0.145,-0.145
2021-08-19 05:40:42.960,0.16,-0.155
2021-08-19 05:40:42.964,0.15,-0.17
2021-08-19 05:40:42.968,0.165,-0.15
2021-08-19 05:40:42.972,0.135,-0.15
2021-08-19 05:40:42.976,0.15,-0.14
2021-08-19 05:40:42.980,0.13,-0.15
2021-08-19 05:40:42.984,0.155,-0.15
2021-08-19 05:40:42.988,0.15,-0.155
2021-08-19 05:40:42.992,0.15,-0.145
2021-08-19 05:40:42.996,0.165,-0.135
2021-08-19 05:40:43.000,0.125,-0.155
2021-08-19 05:40:43.004,0.13,-0.17
2021-08-19 05:40:43.008,0.13,-0.17
2021-08-19 05:40:43.012,0.145,-0.17
2021-08-19 05:40:43.016,0.135,-0.15
2021-08-19 05:40:43.020,0.15,-0.145
2021-08-19 05:40:43.024,0.155,-0.145
2021-08-19 05:40:43.028,0.135,-0.17
2021-08-19 05:40:43.032,0.14,-0.16
2021-08-19 05:40:43.036,0.14,-0.16
2021-08-19 05:40:43.040,0.15,-0.175
2021-08-19 05:40:43.044,0.14,-0.16
2021-08-19 05:40:43.048,0.145,-0.15
2021-08-19 05:40:43.052,0.135,-0.16
2021-08-19 05:40:43.056,0.125,-0.165
2021-08-19 05:40:43.060,0.115,-0.17
2021-08-19 05:40:43.064,0.135,-0.175
2021-08-19 05:40:43.068,0.13,-0.18
2021-08-19 05:40:43.072,0.105,-0.185
2021-08-19 05:40:43.076,0.105,-0.18
2021-08-19 05:40:43.080,0.12,-0.185
2021-08-19 05:40:43.084,0.145,-0.175
2021-08-19 05:40:43.088,0.14,-0.185
2021-08-19 05:40:43.092,0.125,-0.175
2021-08-19 05:40:43.096,0.125,-0.195
2021-08-19 05:40:43.100,0.14,-0.18
2021-08-19 05:40:43.104,0.135,-0.215
2021-08-19 05:40:43.108,0.13,-0.2
2021-08-19 05:40:43.112,0.105,-0.185
2021-08-19 05:40:43.116,0.11,-0.175
2021-08-19 05:40:43.120,0.135,-0.185
2021-08-19 05:40:43.124,0.125,-0.17
2021-08-19 05:40:43.128,0.125,-0.19
2021-08-19 05:40:43.132,0.115,-0.19
2021-08-19 05:40:43.136,0.135,-0.175
2021-08-19 05:40:43.140,0.14,-0.16
2021-08-19 05:40:43.144,0.12,-0.19
2021-08-19 05:40:43.148,0.115,-0.185
2021-08-19 05:40:43.152,0.125,-0.17
2021-08-19 05:40:43.156,0.125,-0.17
2021-08-19 05:40:43.160,0.115,-0.175
2021-08-19 05:40:43.164,0.12,-0.185
2021-08-19 05:40:43.168,0.115,-0.19
2021-08-19 05:40:43.172,0.11,-0.17
2021-08-19 05:40:43.176,0.15,-0.165
2021-08-19 05:40:43.180,0.135,-0.185
2021-08-19 05:40:43.184,0.115,-0.18
2021-08-19 05:40:43.188,0.115,-0.195
2021-08-19 05:40:43.192,0.12,-0.18
2021-08-19 05:40:43.196,0.12,-0.2
2021-08-19 05:40:43.200,0.125,-0.19
2021-08-19 05:40:43.204,0.125,-0.185
2021-08-19 05:40:43.208,0.15,-0.175
2021-08-19 05:40:43.212,0.14,-0.165
2021-08-19 05:40:43.216,0.13,-0.16
2021-08-19 05:40:43.220,0.12,-0.17
2021-08-19 05:40:43.224,0.12,-0.19
2021-08-19 05:40:43.228,0.15,-0.16
2021-08-19 05:40:43.232,0.135,-0.17
2021-08-19 05:40:43.236,0.13,-0.175
2021-08-19 05:40:43.240,0.125,-0.175
2021-08-19 05:40:43.244,0.12,-0.17
2021-08-19 05:40:43.248,0.125,-0.16
2021-08-19 05:40:43.252,0.14,-0.16
2021-08-19 05:40:43.256,0.13,-0.165
2021-08-19 05:40:43.260,0.12,-0.185
2021-08-19 05:40:43.264,0.12,-0.17
2021-08-19 05:40:43.268,0.105,-0.165
2021-08-19 05:40:43.272,0.135,-0.175
2021-08-19 05:40:43.276,0.11,-0.18
2021-08-19 05:40:43.280,0.14,-0.19
2021-08-19 05:40:43.284,0.12,-0.165
2021-08-19 05:40:43.288,0.125,-0.18
2021-08-19 05:40:43.292,0.11,-0.165
2021-08-19 05:40:43.296,0.125,-0.195
2021-08-19 05:40:43.300,0.115,-0.17
2021-08-19 05:40:43.304,0.135,-0.17
2021-08-19 05:40:43.308,0.14,-0.18
2021-08-19 05:40:43.312,0.135,-0.165
2021-08-19 05:40:43.316,0.105,-0.16
2021-08-19 05:40:43.320,0.13,-0.16
2021-08-19 05:40:43.324,0.125,-0.185
2021-08-19 05:40:43.328,0.12,-0.185
2021-08-19 05:40:43.332,0.12,-0.165
2021-08-19 05:40:43.336,0.11,-0.18
2021-08-19 05:40:43.340,0.105,-0.165
2021-08-19 05:40:43.344,0.105,-0.155
2021-08-19 05:40:43.348,0.135,-0.125
2021-08-19 05:40:43.352,0.13,-0.115
2021-08-19 05:40:43.356,0.13,-0.055
2021-08-19 05:40:43.360,0.13,-0.01
2021-08-19 05:40:43.364,0.135,-0.01
2021-08-19 05:40:43.368,0.145,0.015
2021-08-19 05:40:43.372,0.125,0.035
2021-08-19 05:40:43.376,0.135,0.015
2021-08-19 05:40:43.380,0.165,0.02
2021-08-19 05:40:43.384,0.17,0.0
2021-08-19 05:40:43.388,0.195,-0.02
2021-08-19 05:40:43.392,0.215,-0.02
2021-08-19 05:40:43.396,0.22,-0.005
2021-08-19 05:40:43.400,0.225,-0.01
2021-08-19 05:40:43.404,0.255,-0.015
2021-08-19 05:40:43.408,0.205,-0.015
2021-08-19 05:40:43.412,0.2,-0.025
2021-08-19 05:40:43.416,0.165,-0.05
2021-08-19 05:40:43.420,0.175,-0.07
2021-08-19 05:40:43.424,0.16,-0.115
2021-08-19 05:40:43.428,0.12,-0.13
2021-08-19 05:40:43.432,0.115,-0.125
2021-08-19 05:40:43.436,0.09,-0.125
2021-08-19 05:40:43.440,0.095,-0.13
2021-08-19 05:40:43.444,0.08,-0.155
2021-08-19 05:40:43.448,0.06,-0.155
2021-08-19 05:40:43.452,0.065,-0.16
2021-08-19 05:40:43.456,0.055,-0.15
2021-08-19 05:40:43.460,0.065,-0.16
2021-08-19 05:40:43.464,0.05,-0.15
2021-08-19 05:40:43.468,0.07,-0.18
2021-08-19 05:40:43.472,0.06,-0.195
2021-08-19 05:40:43.476,0.075,-0.195
2021-08-19 05:40:43.480,0.085,-0.2
2021-08-19 05:40:43.484,0.095,-0.2
2021-08-19 05:40:43.488,0.125,-0.2
2021-08-19 05:40:43.492,0.14,-0.205
2021-08-19 05:40:43.496,0.135,-0.195
2021-08-19 05:40:43.500,0.125,-0.19
2021-08-19 05:40:43.504,0.115,-0.18
2021-08-19 05:40:43.508,0.125,-0.195
2021-08-19 05:40:43.512,0.13,-0.17
2021-08-19 05:40:43.516,0.12,-0.195
2021-08-19 05:40:43.520,0.125,-0.19
2021-08-19 05:40:43.524,0.09,-0.175
2021-08-19 05:40:43.528,0.14,-0.17
2021-08-19 05:40:43.532,0.115,-0.175
2021-08-19 05:40:43.536,0.115,-0.155
2021-08-19 05:40:43.540,0.11,-0.13
2021-08-19 05:40:43.544,0.115,-0.085
2021-08-19 05:40:43.548,0.105,-0.07
2021-08-19 05:40:43.552,0.135,-0.02
2021-08-19 05:40:43.556,0.145,0.1
2021-08-19 05:40:43.560,0.13,0.33
2021-08-19 05:40:43.564,0.14,0.615
2021-08-19 05:40:43.568,0.175,0.84
2021-08-19 05:40:43.572,0.21,1.0
2021-08-19 05:40:43.576,0.185,1.06
2021-08-19 05:40:43.580,0.13,1.03
2021-08-19 05:40:43.584,0.11,0.89
2021-08-19 05:40:43.588,0.08,0.65
2021-08-19 05:40:43.592,0.015,0.29
2021-08-19 05:40:43.596,-0.125,-0.025
2021-08-19 05:40:43.600,-0.37,-0.115
2021-08-19 05:40:43.604,-0.685,0.0
2021-08-19 05:40:43.608,-0.95,0.03
2021-08-19 05:40:43.612,-1.1,-0.155
2021-08-19 05:40:43.616,-1.155,-0.35
2021-08-19 05:40:43.620,-1.055,-0.525
2021-08-19 05:40:43.624,-0.76,-0.595
2021-08-19 05:40:43.628,-0.375,-0.605
2021-08-19 05:40:43.632,-0.1,-0.535
2021-08-19 05:40:43.636,-0.015,-0.45
2021-08-19 05:40:43.640,0.01,-0.385
2021-08-19 05:40:43.644,-0.035,-0.335
2021-08-19 05:40:43.648,0.0,-0.345
2021-08-19 05:40:43.652,0.0,-0.355
2021-08-19 05:40:43.656,0.015,-0.365
2021-08-19 05:40:43.660,0.07,-0.36
2021-08-19 05:40:43.664,0.14,-0.36
2021-08-19 05:40:43.668,0.17,-0.34
2021-08-19 05:40:43.672,0.185,-0.345
2021-08-19 05:40:43.676,0.21,-0.345
2021-08-19 05:40:43.680,0.215,-0.34
2021-08-19 05:40:43.684,0.215,-0.34
2021-08-19 05:40:43.688,0.225,-0.345
2021-08-19 05:40:43.692,0.205,-0.345
2021-08-19 05:40:43.696,0.225,-0.33
2021-08-19 05:40:43.700,0.215,-0.32
2021-08-19 05:40:43.704,0.23,-0.32
2021-08-19 05:40:43.708,0.22,-0.315
2021-08-19 05:40:43.712,0.225,-0.335
2021-08-19 05:40:43.716,0.235,-0.33
2021-08-19 05:40:43.720,0.225,-0.315
2021-08-19 05:40:43.724,0.225,-0.31
2021-08-19 05:40:43.728,0.255,-0.3
2021-08-19 05:40:43.732,0.215,-0.295
2021-08-19 05:40:43.736,0.225,-0.31
2021-08-19 05:40:43.740,0.23,-0.31
2021-08-19 05:40:43.744,0.23,-0.31
2021-08-19 05:40:43.748,0.225,-0.315
2021-08-19 05:40:43.752,0.22,-0.32
2021-08-19 05:40:43.756,0.24,-0.305
2021-08-19 05:40:43.760,0.235,-0.31
2021-08-19 05:40:43.764,0.235,-0.32
2021-08-19 05:40:43.768,0.255,-0.33
2021-08-19 05:40:43.772,0.235,-0.32
2021-08-19 05:40:43.776,0.215,-0.325
2021-08-19 05:40:43.780,0.21,-0.34
2021-08-19 05:40:43.784,0.24,-0.325
2021-08-19 05:40:43.788,0.25,-0.335
2021-08-19 05:40:43.792,0.255,-0.34
2021-08-19 05:40:43.796,0.225,-0.325
2021-08-19 05:40:43.800,0.235,-0.33
2021-08-19 05:40:43.804,0.21,-0.35
2021-08-19 05:40:43.808,0.22,-0.355
2021-08-19 05:40:43.812,0.23,-0.345
2021-08-19 05:40:43.816,0.235,-0.345
2021-08-19 05:40:43.820,0.22,-0.345
2021-08-19 05:40:43.824,0.235,-0.345
2021-08-19 05:40:43.828,0.235,-0.345
2021-08-19 05:40:43.832,0.22,-0.36
2021-08-19 05:40:43.836,0.205,-0.365
2021-08-19 05:40:43.840,0.22,-0.35
2021-08-19 05:40:43.844,0.21,-0.37
2021-08-19 05:40:43.848,0.205,-0.35
2021-08-19 05:40:43.852,0.235,-0.345
2021-08-19 05:40:43.856,0.19,-0.335
2021-08-19 05:40:43.860,0.185,-0.32
2021-08-19 05:40:43.864,0.21,-0.32
2021-08-19 05:40:43.868,0.205,-0.3
2021-08-19 05:40:43.872,0.205,-0.3
2021-08-19 05:40:43.876,0.2,-0.275
2021-08-19 05:40:43.880,0.205,-0.255
2021-08-19 05:40:43.884,0.185,-0.26
2021-08-19 05:40:43.888,0.185,-0.23
2021-08-19 05:40:43.892,0.17,-0.225
2021-08-19 05:40:43.896,0.17,-0.2
2021-08-19 05:40:43.900,0.165,-0.18
2021-08-19 05:40:43.904,0.175,-0.145
2021-08-19 05:40:43.908,0.155,-0.13
2021-08-19 05:40:43.912,0.145,-0.135
2021-08-19 05:40:43.916,0.145,-0.12
2021-08-19 05:40:43.920,0.155,-0.1
2021-08-19 05:40:43.924,0.155,-0.095
2021-08-19 05:40:43.928,0.17,-0.075
2021-08-19 05:40:43.932,0.16,-0.085
2021-08-19 05:40:43.936,0.155,-0.07
2021-08-19 05:40:43.940,0.18,-0.075
2021-08-19 05:40:43.944,0.165,-0.075
2021-08-19 05:40:43.948,0.155,-0.065
2021-08-19 05:40:43.952,0.165,-0.085
2021-08-19 05:40:43.956,0.185,-0.065
2021-08-19 05:40:43.960,0.17,-0.08
2021-08-19 05:40:43.964,0.19,-0.065
2021-08-19 05:40:43.968,0.17,-0.07
2021-08-19 05:40:43.972,0.195,-0.08
2021-08-19 05:40:43.976,0.185,-0.075
2021-08-19 05:40:43.980,0.215,-0.085
2021-08-19 05:40:43.984,0.19,-0.07
2021-08-19 05:40:43.988,0.19,-0.09
2021-08-19 05:40:43.992,0.19,-0.08
2021-08-19 05:40:43.996,0.195,-0.09
2021-08-19 05:40:44.000,0.21,-0.085
2021-08-19 05:40:44.004,0.185,-0.08
2021-08-19 05:40:44.008,0.195,-0.095
2021-08-19 05:40:44.012,0.22,-0.08
2021-08-19 05:40:44.016,0.2,-0.09
2021-08-19 05:40:44.020,0.205,-0.09
2021-08-19 05:40:44.024,0.225,-0.1
2021-08-19 05:40:44.028,0.21,-0.08
2021-08-19 05:40:44.032,0.205,-0.105
2021-08-19 05:40:44.036,0.225,-0.08
2021-08-19 05:40:44.040,0.205,-0.1
2021-08-19 05:40:44.044,0.21,-0.075
2021-08-19 05:40:44.048,0.205,-0.095
2021-08-19 05:40:44.052,0.215,-0.095
2021-08-19 05:40:44.056,0.205,-0.08
2021-08-19 05:40:44.060,0.21,-0.11
2021-08-19 05:40:44.064,0.205,-0.095
2021-08-19 05:40:44.068,0.21,-0.08
2021-08-19 05:40:44.072,0.205,-0.115
2021-08-19 05:40:44.076,0.19,-0.1
2021-08-19 05:40:44.080,0.2,-0.105
2021-08-19 05:40:44.084,0.195,-0.085
2021-08-19 05:40:44.088,0.185,-0.085
2021-08-19 05:40:44.092,0.21,-0.105
2021-08-19 05:40:44.096,0.21,-0.11
2021-08-19 05:40:44.100,0.195,-0.11
2021-08-19 05:40:44.104,0.2,-0.115
2021-08-19 05:40:44.108,0.185,-0.11
2021-08-19 05:40:44.112,0.185,-0.115
2021-08-19 05:40:44.116,0.19,-0.125
2021-08-19 05:40:44.120,0.2,-0.12
2021-08-19 05:40:44.124,0.185,-0.105
2021-08-19 05:40:44.128,0.185,-0.11
2021-08-19 05:40:44.132,0.175,-0.125
2021-08-19 05:40:44.136,0.2,-0.11
2021-08-19 05:40:44.140,0.195,-0.12
2021-08-19 05:40:44.144,0.17,-0.095
2021-08-19 05:40:44.148,0.18,-0.1
2021-08-19 05:40:44.152,0.19,-0.13
2021-08-19 05:40:44.156,0.19,-0.14
2021-08-19 05:40:44.160,0.175,-0.125
2021-08-19 05:40:44.164,0.185,-0.125
2021-08-19 05:40:44.168,0.2,-0.125
2021-08-19 05:40:44.172,0.17,-0.115
2021-08-19 05:40:44.176,0.165,-0.115
2021-08-19 05:40:44.180,0.175,-0.125
2021-08-19 05:40:44.184,0.2,-0.12
2021-08-19 05:40:44.188,0.175,-0.14
2021-08-19 05:40:44.192,0.21,-0.135
2021-08-19 05:40:44.196,0.22,-0.135
2021-08-19 05:40:44.200,0.195,-0.125
2021-08-19 05:40:44.204,0.205,-0.13
2021-08-19 05:40:44.208,0.155,-0.125
2021-08-19 05:40:44.212,0.185,-0.125
2021-08-19 05:40:44.216,0.19,-0.13
2021-08-19 05:40:44.220,0.175,-0.135
2021-08-19 05:40:44.224,0.19,-0.11
2021-08-19 05:40:44.228,0.195,-0.115
2021-08-19 05:40:44.232,0.185,-0.115
2021-08-19 05:40:44.236,0.185,-0.105
2021-08-19 05:40:44.240,0.19,-0.12
2021-08-19 05:40:44.244,0.18,-0.11
2021-08-19 05:40:44.248,0.17,-0.1
2021-08-19 05:40:44.252,0.19,-0.11
2021-08-19 05:40:44.256,0.175,-0.115
2021-08-19 05:40:44.260,0.175,-0.13
2021-08-19 05:40:44.264,0.165,-0.115
2021-08-19 05:40:44.268,0.18,-0.125
2021-08-19 05:40:44.272,0.17,-0.135
2021-08-19 05:40:44.276,0.195,-0.12
2021-08-19 05:40:44.280,0.175,-0.125
2021-08-19 05:40:44.284,0.17,-0.12
2021-08-19 05:40:44.288,0.18,-0.13
2021-08-19 05:40:44.292,0.18,-0.135
2021-08-19 05:40:44.296,0.18,-0.13
2021-08-19 05:40:44.300,0.195,-0.135
2021-08-19 05:40:44.304,0.165,-0.145
2021-08-19 05:40:44.308,0.18,-0.15
2021-08-19 05:40:44.312,0.17,-0.12
2021-08-19 05:40:44.316,0.18,-0.125
2021-08-19 05:40:44.320,0.18,-0.12
2021-08-19 05:40:44.324,0.175,-0.125
2021-08-19 05:40:44.328,0.17,-0.12
2021-08-19 05:40:44.332,0.165,-0.135
2021-08-19 05:40:44.336,0.16,-0.13
2021-08-19 05:40:44.340,0.185,-0.13
2021-08-19 05:40:44.344,0.19,-0.135
2021-08-19 05:40:44.348,0.18,-0.125
2021-08-19 05:40:44.352,0.19,-0.13
2021-08-19 05:40:44.356,0.175,-0.145
2021-08-19 05:40:44.360,0.17,-0.15
2021-08-19 05:40:44.364,0.195,-0.135
2021-08-19 05:40:44.368,0.18,-0.135
2021-08-19 05:40:44.372,0.165,-0.135
2021-08-19 05:40:44.376,0.175,-0.14
2021-08-19 05:40:44.380,0.17,-0.125
2021-08-19 05:40:44.384,0.17,-0.115
2021-08-19 05:40:44.388,0.185,-0.16
2021-08-19 05:40:44.392,0.18,-0.145
2021-08-19 05:40:44.396,0.185,-0.12
2021-08-19 05:40:44.400,0.175,-0.145
2021-08-19 05:40:44.404,0.165,-0.12
2021-08-19 05:40:44.408,0.165,-0.105
2021-08-19 05:40:44.412,0.16,-0.13
2021-08-19 05:40:44.416,0.155,-0.15
2021-08-19 05:40:44.420,0.17,-0.145
2021-08-19 05:40:44.424,0.175,-0.145
2021-08-19 05:40:44.428,0.185,-0.145
2021-08-19 05:40:44.432,0.14,-0.15
2021-08-19 05:40:44.436,0.155,-0.12
2021-08-19 05:40:44.440,0.165,-0.135
2021-08-19 05:40:44.444,0.175,-0.115
2021-08-19 05:40:44.448,0.16,-0.13
2021-08-19 05:40:44.452,0.16,-0.125
2021-08-19 05:40:44.456,0.17,-0.135
2021-08-19 05:40:44.460,0.17,-0.13
2021-08-19 05:40:44.464,0.165,-0.105
2021-08-19 05:40:44.468,0.17,-0.085
2021-08-19 05:40:44.472,0.16,-0.04
2021-08-19 05:40:44.476,0.15,0.0
2021-08-19 05:40:44.480,0.155,0.015
2021-08-19 05:40:44.484,0.16,0.065
2021-08-19 05:40:44.488,0.185,0.04
2021-08-19 05:40:44.492,0.19,0.055
2021-08-19 05:40:44.496,0.21,0.055
2021-08-19 05:40:44.500,0.245,0.04
2021-08-19 05:40:44.504,0.255,0.015
2021-08-19 05:40:44.508,0.255,0.015
2021-08-19 05:40:44.512,0.275,0.01
2021-08-19 05:40:44.516,0.275,0.01
2021-08-19 05:40:44.520,0.265,0.025
2021-08-19 05:40:44.524,0.265,0.02
2021-08-19 05:40:44.528,0.25,-0.005
2021-08-19 05:40:44.532,0.21,-0.04
2021-08-19 05:40:44.536,0.205,-0.07
2021-08-19 05:40:44.540,0.2,-0.095
2021-08-19 05:40:44.544,0.135,-0.11
2021-08-19 05:40:44.548,0.125,-0.12
2021-08-19 05:40:44.552,0.09,-0.105
2021-08-19 05:40:44.556,0.075,-0.085
2021-08-19 05:40:44.560,0.085,-0.105
2021-08-19 05:40:44.564,0.055,-0.09
2021-08-19 05:40:44.568,0.085,-0.12
2021-08-19 05:40:44.572,0.1,-0.13
2021-08-19 05:40:44.576,0.09,-0.13
2021-08-19 05:40:44.580,0.1,-0.145
2021-08-19 05:40:44.584,0.1,-0.14
2021-08-19 05:40:44.588,0.085,-0.145
2021-08-19 05:40:44.592,0.105,-0.16
2021-08-19 05:40:44.596,0.125,-0.17
2021-08-19 05:40:44.600,0.14,-0.175
2021-08-19 05:40:44.604,0.135,-0.18
2021-08-19 05:40:44.608,0.155,-0.185
2021-08-19 05:40:44.612,0.185,-0.17
2021-08-19 05:40:44.616,0.2,-0.175
2021-08-19 05:40:44.620,0.19,-0.14
2021-08-19 05:40:44.624,0.2,-0.185
2021-08-19 05:40:44.628,0.18,-0.185
2021-08-19 05:40:44.632,0.185,-0.17
2021-08-19 05:40:44.636,0.165,-0.16
2021-08-19 05:40:44.640,0.205,-0.175
2021-08-19 05:40:44.644,0.18,-0.17
2021-08-19 05:40:44.648,0.2,-0.165
2021-08-19 05:40:44.652,0.2,-0.14
2021-08-19 05:40:44.656,0.19,-0.13
2021-08-19 05:40:44.660,0.21,-0.06
2021-08-19 05:40:44.664,0.205,-0.035
2021-08-19 05:40:44.668,0.18,0.025
2021-08-19 05:40:44.672,0.195,0.135
2021-08-19 05:40:44.676,0.19,0.39
2021-08-19 05:40:44.680,0.215,0.66
2021-08-19 05:40:44.684,0.235,0.86
2021-08-19 05:40:44.688,0.26,0.98
2021-08-19 05:40:44.692,0.25,0.96
2021-08-19 05:40:44.696,0.185,0.88
2021-08-19 05:40:44.700,0.15,0.685
2021-08-19 05:40:44.704,0.125,0.37
2021-08-19 05:40:44.708,0.05,-0.02
2021-08-19 05:40:44.712,-0.155,-0.3
2021-08-19 05:40:44.716,-0.44,-0.235
2021-08-19 05:40:44.720,-0.77,-0.02
2021-08-19 05:40:44.724,-1.07,0.06
2021-08-19 05:40:44.728,-1.26,-0.145
2021-08-19 05:40:44.732,-1.295,-0.395
2021-08-19 05:40:44.736,-1.195,-0.545
2021-08-19 05:40:44.740,-0.89,-0.62
2021-08-19 05:40:44.744,-0.435,-0.655
2021-08-19 05:40:44.748,-0.085,-0.58
2021-08-19 05:40:44.752,0.055,-0.465
2021-08-19 05:40:44.756,0.05,-0.395
2021-08-19 05:40:44.760,0.015,-0.36
2021-08-19 05:40:44.764,0.0,-0.355
2021-08-19 05:40:44.768,0.02,-0.36
2021-08-19 05:40:44.772,0.04,-0.33
2021-08-19 05:40:44.776,0.12,-0.31
2021-08-19 05:40:44.780,0.17,-0.34
2021-08-19 05:40:44.784,0.225,-0.325
2021-08-19 05:40:44.788,0.255,-0.32
2021-08-19 05:40:44.792,0.285,-0.33
2021-08-19 05:40:44.796,0.3,-0.32
2021-08-19 05:40:44.800,0.295,-0.325
2021-08-19 05:40:44.804,0.29,-0.315
2021-08-19 05:40:44.808,0.29,-0.3
2021-08-19 05:40:44.812,0.305,-0.315
2021-08-19 05:40:44.816,0.3,-0.3
2021-08-19 05:40:44.820,0.29,-0.305
2021-08-19 05:40:44.824,0.29,-0.29
2021-08-19 05:40:44.828,0.3,-0.29
2021-08-19 05:40:44.832,0.315,-0.295
2021-08-19 05:40:44.836,0.31,-0.305
2021-08-19 05:40:44.840,0.29,-0.285
2021-08-19 05:40:44.844,0.305,-0.29
2021-08-19 05:40:44.848,0.3,-0.29
2021-08-19 05:40:44.852,0.29,-0.295
2021-08-19 05:40:44.856,0.29,-0.265
2021-08-19 05:40:44.860,0.315,-0.295
2021-08-19 05:40:44.864,0.32,-0.295
2021-08-19 05:40:44.868,0.325,-0.285
2021-08-19 05:40:44.872,0.32,-0.29
2021-08-19 05:40:44.876,0.335,-0.275
2021-08-19 05:40:44.880,0.31,-0.28
2021-08-19 05:40:44.884,0.31,-0.29
2021-08-19 05:40:44.888,0.32,-0.295
2021-08-19 05:40:44.892,0.3,-0.275
2021-08-19 05:40:44.896,0.32,-0.29
2021-08-19 05:40:44.900,0.3,-0.295
2021-08-19 05:40:44.904,0.315,-0.3
2021-08-19 05:40:44.908,0.315,-0.315
2021-08-19 05:40:44.912,0.31,-0.315
2021-08-19 05:40:44.916,0.31,-0.32
2021-08-19 05:40:44.920,0.31,-0.31
2021-08-19 05:40:44.924,0.325,-0.3
2021-08-19 05:40:44.928,0.295,-0.3
2021-08-19 05:40:44.932,0.305,-0.3
2021-08-19 05:40:44.936,0.31,-0.315
2021-08-19 05:40:44.940,0.305,-0.315
2021-08-19 05:40:44.944,0.285,-0.29
2021-08-19 05:40:44.948,0.315,-0.295
2021-08-19 05:40:44.952,0.295,-0.29
2021-08-19 05:40:44.956,0.31,-0.295
2021-08-19 05:40:44.960,0.3,-0.3
2021-08-19 05:40:44.964,0.31,-0.305
2021-08-19 05:40:44.968,0.32,-0.29
2021-08-19 05:40:44.972,0.3,-0.275
2021-08-19 05:40:44.976,0.3,-0.27
2021-08-19 05:40:44.980,0.31,-0.28
2021-08-19 05:40:44.984,0.32,-0.25
2021-08-19 05:40:44.988,0.285,-0.24
2021-08-19 05:40:44.992,0.29,-0.24
2021-08-19 05:40:44.996,0.305,-0.225
2021-08-19 05:40:45.000,0.31,-0.2
2021-08-19 05:40:45.004,0.305,-0.195
2021-08-19 05:40:45.008,0.3,-0.195
2021-08-19 05:40:45.012,0.285,-0.155
2021-08-19 05:40:45.016,0.29,-0.155
2021-08-19 05:40:45.020,0.29,-0.125
2021-08-19 05:40:45.024,0.265,-0.115
2021-08-19 05:40:45.028,0.28,-0.11
2021-08-19 05:40:45.032,0.265,-0.095
2021-08-19 05:40:45.036,0.265,-0.095
2021-08-19 05:40:45.040,0.25,-0.09
2021-08-19 05:40:45.044,0.225,-0.085
2021-08-19 05:40:45.048,0.23,-0.075
2021-08-19 05:40:45.052,0.215,-0.075
2021-08-19 05:40:45.056,0.22,-0.085
2021-08-19 05:40:45.060,0.23,-0.08
2021-08-19 05:40:45.064,0.21,-0.08
2021-08-19 05:40:45.068,0.19,-0.07
2021-08-19 05:40:45.072,0.22,-0.085
2021-08-19 05:40:45.076,0.23,-0.07
2021-08-19 05:40:45.080,0.23,-0.09
2021-08-19 05:40:45.084,0.22,-0.085
2021-08-19 05:40:45.088,0.24,-0.09
2021-08-19 05:40:45.092,0.25,-0.095
2021-08-19 05:40:45.096,0.25,-0.09
2021-08-19 05:40:45.100,0.25,-0.105
2021-08-19 05:40:45.104,0.24,-0.095
2021-08-19 05:40:45.108,0.25,-0.11
2021-08-19 05:40:45.112,0.23,-0.095
2021-08-19 05:40:45.116,0.24,-0.115
2021-08-19 05:40:45.120,0.245,-0.13
2021-08-19 05:40:45.124,0.24,-0.08
2021-08-19 05:40:45.128,0.22,-0.1
2021-08-19 05:40:45.132,0.245,-0.125
2021-08-19 05:40:45.136,0.245,-0.12
2021-08-19 05:40:45.140,0.255,-0.13
2021-08-19 05:40:45.144,0.25,-0.145
2021-08-19 05:40:45.148,0.25,-0.135
2021-08-19 05:40:45.152,0.255,-0.14
2021-08-19 05:40:45.156,0.26,-0.14
2021-08-19 05:40:45.160,0.255,-0.145
2021-08-19 05:40:45.164,0.26,-0.135
2021-08-19 05:40:45.168,0.245,-0.145
2021-08-19 05:40:45.172,0.255,-0.13
2021-08-19 05:40:45.176,0.24,-0.15
2021-08-19 05:40:45.180,0.275,-0.15
2021-08-19 05:40:45.184,0.265,-0.14
2021-08-19 05:40:45.188,0.235,-0.15
2021-08-19 05:40:45.192,0.25,-0.165
2021-08-19 05:40:45.196,0.255,-0.145
2021-08-19 05:40:45.200,0.28,-0.14
2021-08-19 05:40:45.204,0.27,-0.15
2021-08-19 05:40:45.208,0.275,-0.17
2021-08-19 05:40:45.212,0.26,-0.15
2021-08-19 05:40:45.216,0.26,-0.15
2021-08-19 05:40:45.220,0.265,-0.145
2021-08-19 05:40:45.224,0.23,-0.15
2021-08-19 05:40:45.228,0.265,-0.175
2021-08-19 05:40:45.232,0.265,-0.155
2021-08-19 05:40:45.236,0.245,-0.16
2021-08-19 05:40:45.240,0.26,-0.16
2021-08-19 05:40:45.244,0.255,-0.155
2021-08-19 05:40:45.248,0.23,-0.155
2021-08-19 05:40:45.252,0.235,-0.16
2021-08-19 05:40:45.256,0.245,-0.145
2021-08-19 05:40:45.260,0.24,-0.16
2021-08-19 05:40:45.264,0.22,-0.17
2021-08-19 05:40:45.268,0.245,-0.195
2021-08-19 05:40:45.272,0.24,-0.17
2021-08-19 05:40:45.276,0.21,-0.17
2021-08-19 05:40:45.280,0.24,-0.17
2021-08-19 05:40:45.284,0.23,-0.18
2021-08-19 05:40:45.288,0.235,-0.185
2021-08-19 05:40:45.292,0.235,-0.18
2021-08-19 05:40:45.296,0.215,-0.19
2021-08-19 05:40:45.300,0.235,-0.185
2021-08-19 05:40:45.304,0.22,-0.19
2021-08-19 05:40:45.308,0.22,-0.2
2021-08-19 05:40:45.312,0.2,-0.2
2021-08-19 05:40:45.316,0.25,-0.21
2021-08-19 05:40:45.320,0.22,-0.21
2021-08-19 05:40:45.324,0.195,-0.205
2021-08-19 05:40:45.328,0.2,-0.215
2021-08-19 05:40:45.332,0.22,-0.21
2021-08-19 05:40:45.336,0.23,-0.205
2021-08-19 05:40:45.340,0.22,-0.21
2021-08-19 05:40:45.344,0.215,-0.205
2021-08-19 05:40:45.348,0.205,-0.205
2021-08-19 05:40:45.352,0.215,-0.205
2021-08-19 05:40:45.356,0.215,-0.225
2021-08-19 05:40:45.360,0.215,-0.215
2021-08-19 05:40:45.364,0.21,-0.21
2021-08-19 05:40:45.368,0.205,-0.24
2021-08-19 05:40:45.372,0.21,-0.215
2021-08-19 05:40:45.376,0.21,-0.23
2021-08-19 05:40:45.380,0.205,-0.235
2021-08-19 05:40:45.384,0.195,-0.21
2021-08-19 05:40:45.388,0.195,-0.21
2021-08-19 05:40:45.392,0.195,-0.24
2021-08-19 05:40:45.396,0.195,-0.235
2021-08-19 05:40:45.400,0.19,-0.22
2021-08-19 05:40:45.404,0.21,-0.23
2021-08-19 05:40:45.408,0.19,-0.225
2021-08-19 05:40:45.412,0.195,-0.225
2021-08-19 05:40:45.416,0.215,-0.235
2021-08-19 05:40:45.420,0.195,-0.23
2021-08-19 05:40:45.424,0.19,-0.25
2021-08-19 05:40:45.428,0.195,-0.245
2021-08-19 05:40:45.432,0.19,-0.24
2021-08-19 05:40:45.436,0.19,-0.25
2021-08-19 05:40:45.440,0.21,-0.24
2021-08-19 05:40:45.444,0.19,-0.225
2021-08-19 05:40:45.448,0.19,-0.24
2021-08-19 05:40:45.452,0.19,-0.23
2021-08-19 05:40:45.456,0.17,-0.23
2021-08-19 05:40:45.460,0.185,-0.245
2021-08-19 05:40:45.464,0.195,-0.255
2021-08-19 05:40:45.468,0.19,-0.245
2021-08-19 05:40:45.472,0.2,-0.24
2021-08-19 05:40:45.476,0.18,-0.26
2021-08-19 05:40:45.480,0.2,-0.25
2021-08-19 05:40:45.484,0.185,-0.25
2021-08-19 05:40:45.488,0.185,-0.27
2021-08-19 05:40:45.492,0.17,-0.24
2021-08-19 05:40:45.496,0.18,-0.245
2021-08-19 05:40:45.500,0.18,-0.26
2021-08-19 05:40:45.504,0.165,-0.265
2021-08-19 05:40:45.508,0.165,-0.25
2021-08-19 05:40:45.512,0.19,-0.255
2021-08-19 05:40:45.516,0.175,-0.25
2021-08-19 05:40:45.520,0.17,-0.255
2021-08-19 05:40:45.524,0.16,-0.27
2021-08-19 05:40:45.528,0.16,-0.255
2021-08-19 05:40:45.532,0.155,-0.27
2021-08-19 05:40:45.536,0.165,-0.27
2021-08-19 05:40:45.540,0.175,-0.255
2021-08-19 05:40:45.544,0.15,-0.27
2021-08-19 05:40:45.548,0.165,-0.285
2021-08-19 05:40:45.552,0.175,-0.28
2021-08-19 05:40:45.556,0.18,-0.295
2021-08-19 05:40:45.560,0.165,-0.275
2021-08-19 05:40:45.564,0.16,-0.27
2021-08-19 05:40:45.568,0.165,-0.25
2021-08-19 05:40:45.572,0.185,-0.26
2021-08-19 05:40:45.576,0.155,-0.25
2021-08-19 05:40:45.580,0.175,-0.195
2021-08-19 05:40:45.584,0.16,-0.17
2021-08-19 05:40:45.588,0.175,-0.12
2021-08-19 05:40:45.592,0.17,-0.07
2021-08-19 05:40:45.596,0.17,-0.075
2021-08-19 05:40:45.600,0.2,-0.07
2021-08-19 05:40:45.604,0.225,-0.055
2021-08-19 05:40:45.608,0.23,-0.07
2021-08-19 05:40:45.612,0.26,-0.07
2021-08-19 05:40:45.616,0.26,-0.09
2021-08-19 05:40:45.620,0.28,-0.11
2021-08-19 05:40:45.624,0.27,-0.12
2021-08-19 05:40:45.628,0.275,-0.11
2021-08-19 05:40:45.632,0.27,-0.11
2021-08-19 05:40:45.636,0.265,-0.11
2021-08-19 05:40:45.640,0.25,-0.13
2021-08-19 05:40:45.644,0.23,-0.15
2021-08-19 05:40:45.648,0.23,-0.21
2021-08-19 05:40:45.652,0.205,-0.235
2021-08-19 05:40:45.656,0.19,-0.24
2021-08-19 05:40:45.660,0.155,-0.23
2021-08-19 05:40:45.664,0.15,-0.245
2021-08-19 05:40:45.668,0.11,-0.22
2021-08-19 05:40:45.672,0.09,-0.205
2021-08-19 05:40:45.676,0.095,-0.23
2021-08-19 05:40:45.680,0.115,-0.225
2021-08-19 05:40:45.684,0.105,-0.235
2021-08-19 05:40:45.688,0.13,-0.25
2021-08-19 05:40:45.692,0.105,-0.28
2021-08-19 05:40:45.696,0.11,-0.25
2021-08-19 05:40:45.700,0.1,-0.28
2021-08-19 05:40:45.704,0.125,-0.285
2021-08-19 05:40:45.708,0.125,-0.295
2021-08-19 05:40:45.712,0.135,-0.28
2021-08-19 05:40:45.716,0.19,-0.28
2021-08-19 05:40:45.720,0.19,-0.285
2021-08-19 05:40:45.724,0.205,-0.29
2021-08-19 05:40:45.728,0.2,-0.285
2021-08-19 05:40:45.732,0.21,-0.29
2021-08-19 05:40:45.736,0.2,-0.29
2021-08-19 05:40:45.740,0.185,-0.285
2021-08-19 05:40:45.744,0.19,-0.315
2021-08-19 05:40:45.748,0.215,-0.29
2021-08-19 05:40:45.752,0.205,-0.28
2021-08-19 05:40:45.756,0.2,-0.29
2021-08-19 05:40:45.760,0.195,-0.26
2021-08-19 05:40:45.764,0.2,-0.255
2021-08-19 05:40:45.768,0.195,-0.215
2021-08-19 05:40:45.772,0.19,-0.185
2021-08-19 05:40:45.776,0.175,-0.155
2021-08-19 05:40:45.780,0.18,-0.115
2021-08-19 05:40:45.784,0.2,0.025
2021-08-19 05:40:45.788,0.215,0.295
2021-08-19 05:40:45.792,0.225,0.55
2021-08-19 05:40:45.796,0.27,0.72
2021-08-19 05:40:45.800,0.265,0.745
2021-08-19 05:40:45.804,0.215,0.725
2021-08-19 05:40:45.808,0.15,0.615
2021-08-19 05:40:45.812,0.11,0.48
2021-08-19 05:40:45.816,0.075,0.175
2021-08-19 05:40:45.820,-0.04,-0.19
2021-08-19 05:40:45.824,-0.26,-0.375
2021-08-19 05:40:45.828,-0.57,-0.265
2021-08-19 05:40:45.832,-0.9,-0.08
2021-08-19 05:40:45.836,-1.125,-0.13
2021-08-19 05:40:45.840,-1.195,-0.31
2021-08-19 05:40:45.844,-1.2,-0.525
2021-08-19 05:40:45.848,-1.015,-0.665
2021-08-19 05:40:45.852,-0.645,-0.71
2021-08-19 05:40:45.856,-0.225,-0.7
2021-08-19 05:40:45.860,0.015,-0.61
2021-08-19 05:40:45.864,0.055,-0.53
2021-08-19 05:40:45.868,0.04,-0.465
2021-08-19 05:40:45.872,0.015,-0.445
2021-08-19 05:40:45.876,0.03,-0.44
2021-08-19 05:40:45.880,0.055,-0.43
2021-08-19 05:40:45.884,0.08,-0.415
2021-08-19 05:40:45.888,0.14,-0.425
2021-08-19 05:40:45.892,0.185,-0.425
2021-08-19 05:40:45.896,0.23,-0.455
2021-08-19 05:40:45.900,0.28,-0.44
2021-08-19 05:40:45.904,0.265,-0.44
2021-08-19 05:40:45.908,0.265,-0.445
2021-08-19 05:40:45.912,0.27,-0.445
2021-08-19 05:40:45.916,0.28,-0.455
2021-08-19 05:40:45.920,0.285,-0.43
2021-08-19 05:40:45.924,0.27,-0.44
2021-08-19 05:40:45.928,0.3,-0.42
2021-08-19 05:40:45.932,0.305,-0.415
2021-08-19 05:40:45.936,0.3,-0.41
2021-08-19 05:40:45.940,0.31,-0.41
2021-08-19 05:40:45.944,0.295,-0.395
2021-08-19 05:40:45.948,0.31,-0.395
2021-08-19 05:40:45.952,0.31,-0.395
2021-08-19 05:40:45.956,0.315,-0.39
2021-08-19 05:40:45.960,0.33,-0.375
2021-08-19 05:40:45.964,0.335,-0.385
2021-08-19 05:40:45.968,0.33,-0.405
2021-08-19 05:40:45.972,0.305,-0.4
2021-08-19 05:40:45.976,0.325,-0.4
2021-08-19 05:40:45.980,0.325,-0.41
2021-08-19 05:40:45.984,0.335,-0.395
2021-08-19 05:40:45.988,0.315,-0.405
2021-08-19 05:40:45.992,0.32,-0.39
2021-08-19 05:40:45.996,0.32,-0.395
2021-08-19 05:40:46.000,0.325,-0.38
2021-08-19 05:40:46.004,0.32,-0.405
2021-08-19 05:40:46.008,0.335,-0.41
2021-08-19 05:40:46.012,0.32,-0.42
2021-08-19 05:40:46.016,0.31,-0.4
2021-08-19 05:40:46.020,0.305,-0.415
2021-08-19 05:40:46.024,0.32,-0.43
2021-08-19 05:40:46.028,0.32,-0.42
2021-08-19 05:40:46.032,0.315,-0.435
2021-08-19 05:40:46.036,0.31,-0.425
2021-08-19 05:40:46.040,0.335,-0.41
2021-08-19 05:40:46.044,0.315,-0.42
2021-08-19 05:40:46.048,0.33,-0.415
2021-08-19 05:40:46.052,0.325,-0.415
2021-08-19 05:40:46.056,0.315,-0.4
2021-08-19 05:40:46.060,0.315,-0.415
2021-08-19 05:40:46.064,0.315,-0.4
2021-08-19 05:40:46.068,0.33,-0.405
2021-08-19 05:40:46.072,0.315,-0.41
2021-08-19 05:40:46.076,0.305,-0.39
2021-08-19 05:40:46.080,0.295,-0.375
2021-08-19 05:40:46.084,0.295,-0.375
2021-08-19 05:40:46.088,0.31,-0.375
2021-08-19 05:40:46.092,0.295,-0.37
2021-08-19 05:40:46.096,0.28,-0.35
2021-08-19 05:40:46.100,0.305,-0.34
2021-08-19 05:40:46.104,0.29,-0.315
2021-08-19 05:40:46.108,0.285,-0.32
2021-08-19 05:40:46.112,0.275,-0.3
2021-08-19 05:40:46.116,0.29,-0.295
2021-08-19 05:40:46.120,0.27,-0.265
2021-08-19 05:40:46.124,0.25,-0.255
2021-08-19 05:40:46.128,0.255,-0.225
2021-08-19 05:40:46.132,0.24,-0.215
2021-08-19 05:40:46.136,0.245,-0.215
2021-08-19 05:40:46.140,0.245,-0.215
2021-08-19 05:40:46.144,0.24,-0.19
2021-08-19 05:40:46.148,0.25,-0.21
2021-08-19 05:40:46.152,0.24,-0.18
2021-08-19 05:40:46.156,0.24,-0.17
2021-08-19 05:40:46.160,0.225,-0.185
2021-08-19 05:40:46.164,0.235,-0.18
2021-08-19 05:40:46.168,0.23,-0.175
2021-08-19 05:40:46.172,0.23,-0.175
2021-08-19 05:40:46.176,0.235,-0.17
2021-08-19 05:40:46.180,0.24,-0.195
2021-08-19 05:40:46.184,0.26,-0.2
2021-08-19 05:40:46.188,0.22,-0.185
2021-08-19 05:40:46.192,0.235,-0.205
2021-08-19 05:40:46.196,0.235,-0.205
2021-08-19 05:40:46.200,0.265,-0.205
2021-08-19 05:40:46.204,0.26,-0.205
2021-08-19 05:40:46.208,0.245,-0.235
2021-08-19 05:40:46.212,0.265,-0.21
2021-08-19 05:40:46.216,0.265,-0.21
2021-08-19 05:40:46.220,0.28,-0.21
2021-08-19 05:40:46.224,0.26,-0.21
2021-08-19 05:40:46.228,0.28,-0.19
2021-08-19 05:40:46.232,0.29,-0.195
2021-08-19 05:40:46.236,0.27,-0.215
2021-08-19 05:40:46.240,0.285,-0.22
2021-08-19 05:40:46.244,0.28,-0.215
2021-08-19 05:40:46.248,0.265,-0.225
2021-08-19 05:40:46.252,0.29,-0.22
2021-08-19 05:40:46.256,0.255,-0.205
2021-08-19 05:40:46.260,0.27,-0.225
2021-08-19 05:40:46.264,0.275,-0.23
2021-08-19 05:40:46.268,0.26,-0.215
2021-08-19 05:40:46.272,0.27,-0.22
2021-08-19 05:40:46.276,0.275,-0.22
2021-08-19 05:40:46.280,0.28,-0.22
2021-08-19 05:40:46.284,0.28,-0.215
2021-08-19 05:40:46.288,0.28,-0.215
2021-08-19 05:40:46.292,0.265,-0.22
2021-08-19 05:40:46.296,0.28,-0.23
2021-08-19 05:40:46.300,0.27,-0.235
2021-08-19 05:40:46.304,0.28,-0.235
2021-08-19 05:40:46.308,0.265,-0.24
2021-08-19 05:40:46.312,0.275,-0.23
2021-08-19 05:40:46.316,0.295,-0.22
2021-08-19 05:40:46.320,0.285,-0.235
2021-08-19 05:40:46.324,0.28,-0.225
2021-08-19 05:40:46.328,0.285,-0.25
2021-08-19 05:40:46.332,0.26,-0.235
2021-08-19 05:40:46.336,0.275,-0.235
2021-08-19 05:40:46.340,0.275,-0.235
2021-08-19 05:40:46.344,0.265,-0.245
2021-08-19 05:40:46.348,0.255,-0.245
2021-08-19 05:40:46.352,0.265,-0.24
2021-08-19 05:40:46.356,0.255,-0.24
2021-08-19 05:40:46.360,0.28,-0.25
2021-08-19 05:40:46.364,0.26,-0.22
2021-08-19 05:40:46.368,0.255,-0.235
2021-08-19 05:40:46.372,0.275,-0.23
2021-08-19 05:40:46.376,0.245,-0.235
2021-08-19 05:40:46.380,0.25,-0.26
2021-08-19 05:40:46.384,0.26,-0.255
2021-08-19 05:40:46.388,0.275,-0.255
2021-08-19 05:40:46.392,0.235,-0.26
2021-08-19 05:40:46.396,0.275,-0.245
2021-08-19 05:40:46.400,0.28,-0.245
2021-08-19 05:40:46.404,0.275,-0.26
2021-08-19 05:40:46.408,0.275,-0.245
2021-08-19 05:40:46.412,0.24,-0.265
2021-08-19 05:40:46.416,0.245,-0.265
2021-08-19 05:40:46.420,0.255,-0.24
2021-08-19 05:40:46.424,0.25,-0.235
2021-08-19 05:40:46.428,0.245,-0.25
2021-08-19 05:40:46.432,0.25,-0.27
2021-08-19 05:40:46.436,0.245,-0.28
2021-08-19 05:40:46.440,0.265,-0.26
2021-08-19 05:40:46.444,0.245,-0.275
2021-08-19 05:40:46.448,0.22,-0.29
2021-08-19 05:40:46.452,0.225,-0.3
2021-08-19 05:40:46.456,0.24,-0.285
2021-08-19 05:40:46.460,0.235,-0.285
2021-08-19 05:40:46.464,0.24,-0.3
2021-08-19 05:40:46.468,0.205,-0.295
2021-08-19 05:40:46.472,0.225,-0.275
2021-08-19 05:40:46.476,0.235,-0.28
2021-08-19 05:40:46.480,0.23,-0.275
2021-08-19 05:40:46.484,0.22,-0.29
2021-08-19 05:40:46.488,0.23,-0.285
2021-08-19 05:40:46.492,0.235,-0.28
2021-08-19 05:40:46.496,0.235,-0.285
2021-08-19 05:40:46.500,0.215,-0.28
2021-08-19 05:40:46.504,0.235,-0.275
2021-08-19 05:40:46.508,0.215,-0.285
2021-08-19 05:40:46.512,0.245,-0.285
2021-08-19 05:40:46.516,0.22,-0.28
2021-08-19 05:40:46.520,0.24,-0.28
2021-08-19 05:40:46.524,0.24,-0.265
2021-08-19 05:40:46.528,0.235,-0.28
2021-08-19 05:40:46.532,0.225,-0.295
2021-08-19 05:40:46.536,0.24,-0.295
2021-08-19 05:40:46.540,0.245,-0.27
2021-08-19 05:40:46.544,0.23,-0.285
2021-08-19 05:40:46.548,0.215,-0.28
2021-08-19 05:40:46.552,0.215,-0.265
2021-08-19 05:40:46.556,0.22,-0.285
2021-08-19 05:40:46.560,0.22,-0.29
2021-08-19 05:40:46.564,0.22,-0.265
2021-08-19 05:40:46.568,0.225,-0.27
2021-08-19 05:40:46.572,0.215,-0.27
2021-08-19 05:40:46.576,0.225,-0.28
2021-08-19 05:40:46.580,0.23,-0.285
2021-08-19 05:40:46.584,0.225,-0.26
2021-08-19 05:40:46.588,0.205,-0.265
2021-08-19 05:40:46.592,0.205,-0.27
2021-08-19 05:40:46.596,0.22,-0.27
2021-08-19 05:40:46.600,0.22,-0.26
2021-08-19 05:40:46.604,0.23,-0.255
2021-08-19 05:40:46.608,0.24,-0.27
2021-08-19 05:40:46.612,0.22,-0.27
2021-08-19 05:40:46.616,0.235,-0.28
2021-08-19 05:40:46.620,0.21,-0.28
2021-08-19 05:40:46.624,0.22,-0.275
2021-08-19 05:40:46.628,0.215,-0.25
2021-08-19 05:40:46.632,0.225,-0.26
2021-08-19 05:40:46.636,0.21,-0.27
2021-08-19 05:40:46.640,0.235,-0.26
2021-08-19 05:40:46.644,0.225,-0.265
2021-08-19 05:40:46.648,0.23,-0.22
2021-08-19 05:40:46.652,0.215,-0.19
2021-08-19 05:40:46.656,0.215,-0.155
2021-08-19 05:40:46.660,0.22,-0.11
2021-08-19 05:40:46.664,0.225,-0.09
2021-08-19 05:40:46.668,0.225,-0.07
2021-08-19 05:40:46.672,0.265,-0.065
2021-08-19 05:40:46.676,0.28,-0.075
2021-08-19 05:40:46.680,0.3,-0.075
2021-08-19 05:40:46.684,0.315,-0.07
2021-08-19 05:40:46.688,0.335,-0.085
2021-08-19 05:40:46.692,0.355,-0.11
2021-08-19 05:40:46.696,0.345,-0.12
2021-08-19 05:40:46.700,0.325,-0.105
2021-08-19 05:40:46.704,0.33,-0.095
2021-08-19 05:40:46.708,0.315,-0.11
2021-08-19 05:40:46.712,0.315,-0.155
2021-08-19 05:40:46.716,0.31,-0.17
2021-08-19 05:40:46.720,0.275,-0.215
2021-08-19 05:40:46.724,0.25,-0.205
2021-08-19 05:40:46.728,0.235,-0.22
2021-08-19 05:40:46.732,0.205,-0.23
2021-08-19 05:40:46.736,0.185,-0.21
2021-08-19 05:40:46.740,0.17,-0.195
2021-08-19 05:40:46.744,0.15,-0.22
2021-08-19 05:40:46.748,0.165,-0.2
2021-08-19 05:40:46.752,0.175,-0.225
2021-08-19 05:40:46.756,0.175,-0.225
2021-08-19 05:40:46.760,0.145,-0.21
2021-08-19 05:40:46.764,0.16,-0.23
2021-08-19 05:40:46.768,0.18,-0.245
2021-08-19 05:40:46.772,0.165,-0.26
2021-08-19 05:40:46.776,0.18,-0.28
2021-08-19 05:40:46.780,0.195,-0.28
2021-08-19 05:40:46.784,0.225,-0.255
2021-08-19 05:40:46.788,0.24,-0.265
2021-08-19 05:40:46.792,0.255,-0.265
2021-08-19 05:40:46.796,0.275,-0.26
2021-08-19 05:40:46.800,0.26,-0.265
2021-08-19 05:40:46.804,0.265,-0.27
2021-08-19 05:40:46.808,0.235,-0.26
2021-08-19 05:40:46.812,0.255,-0.26
2021-08-19 05:40:46.816,0.255,-0.26
2021-08-19 05:40:46.820,0.245,-0.26
2021-08-19 05:40:46.824,0.23,-0.26
2021-08-19 05:40:46.828,0.245,-0.235
2021-08-19 05:40:46.832,0.245,-0.205
2021-08-19 05:40:46.836,0.255,-0.175
2021-08-19 05:40:46.840,0.245,-0.155
2021-08-19 05:40:46.844,0.26,-0.12
2021-08-19 05:40:46.848,0.215,-0.015
2021-08-19 05:40:46.852,0.255,0.21
2021-08-19 05:40:46.856,0.26,0.49
2021-08-19 05:40:46.860,0.27,0.71
2021-08-19 05:40:46.864,0.29,0.86
2021-08-19 05:40:46.868,0.285,0.9
2021-08-19 05:40:46.872,0.25,0.885
2021-08-19 05:40:46.876,0.2,0.76
2021-08-19 05:40:46.880,0.185,0.48
2021-08-19 05:40:46.884,0.115,0.07
2021-08-19 05:40:46.888,-0.025,-0.22
2021-08-19 05:40:46.892,-0.275,-0.245
2021-08-19 05:40:46.896,-0.58,-0.095
2021-08-19 05:40:46.900,-0.825,-0.085
2021-08-19 05:40:46.904,-0.985,-0.265
2021-08-19 05:40:46.908,-1.005,-0.47
2021-08-19 05:40:46.912,-0.905,-0.615
2021-08-19 05:40:46.916,-0.605,-0.665
2021-08-19 05:40:46.920,-0.23,-0.665
2021-08-19 05:40:46.924,0.01,-0.585
2021-08-19 05:40:46.928,0.13,-0.49
2021-08-19 05:40:46.932,0.11,-0.42
2021-08-19 05:40:46.936,0.095,-0.405
2021-08-19 05:40:46.940,0.085,-0.38
2021-08-19 05:40:46.944,0.12,-0.39
2021-08-19 05:40:46.948,0.155,-0.415
2021-08-19 05:40:46.952,0.205,-0.41
2021-08-19 05:40:46.956,0.265,-0.395
2021-08-19 05:40:46.960,0.305,-0.4
2021-08-19 05:40:46.964,0.31,-0.395
2021-08-19 05:40:46.968,0.315,-0.385
2021-08-19 05:40:46.972,0.36,-0.385
2021-08-19 05:40:46.976,0.335,-0.405
2021-08-19 05:40:46.980,0.345,-0.38
2021-08-19 05:40:46.984,0.36,-0.38
2021-08-19 05:40:46.988,0.33,-0.36
2021-08-19 05:40:46.992,0.34,-0.37
2021-08-19 05:40:46.996,0.35,-0.37
2021-08-19 05:40:47.000,0.365,-0.38
2021-08-19 05:40:47.004,0.345,-0.36
2021-08-19 05:40:47.008,0.37,-0.37
2021-08-19 05:40:47.012,0.35,-0.375
2021-08-19 05:40:47.016,0.375,-0.36
2021-08-19 05:40:47.020,0.36,-0.365
2021-08-19 05:40:47.024,0.38,-0.345
2021-08-19 05:40:47.028,0.375,-0.345
2021-08-19 05:40:47.032,0.385,-0.34
2021-08-19 05:40:47.036,0.38,-0.345
2021-08-19 05:40:47.040,0.395,-0.34
2021-08-19 05:40:47.044,0.39,-0.335
2021-08-19 05:40:47.048,0.375,-0.35
2021-08-19 05:40:47.052,0.39,-0.32
2021-08-19 05:40:47.056,0.395,-0.36
2021-08-19 05:40:47.060,0.375,-0.375
2021-08-19 05:40:47.064,0.37,-0.35
2021-08-19 05:40:47.068,0.385,-0.34
2021-08-19 05:40:47.072,0.38,-0.34
2021-08-19 05:40:47.076,0.39,-0.345
2021-08-19 05:40:47.080,0.4,-0.36
2021-08-19 05:40:47.084,0.37,-0.355
2021-08-19 05:40:47.088,0.365,-0.35
2021-08-19 05:40:47.092,0.375,-0.355
2021-08-19 05:40:47.096,0.365,-0.355
2021-08-19 05:40:47.100,0.37,-0.355
2021-08-19 05:40:47.104,0.37,-0.365
2021-08-19 05:40:47.108,0.365,-0.345
2021-08-19 05:40:47.112,0.37,-0.35
2021-08-19 05:40:47.116,0.385,-0.355
2021-08-19 05:40:47.120,0.365,-0.35
2021-08-19 05:40:47.124,0.37,-0.35
2021-08-19 05:40:47.128,0.35,-0.36
2021-08-19 05:40:47.132,0.37,-0.34
2021-08-19 05:40:47.136,0.36,-0.34
2021-08-19 05:40:47.140,0.35,-0.345
2021-08-19 05:40:47.144,0.335,-0.34
2021-08-19 05:40:47.148,0.345,-0.325
2021-08-19 05:40:47.152,0.33,-0.32
2021-08-19 05:40:47.156,0.34,-0.31
2021-08-19 05:40:47.160,0.32,-0.275
2021-08-19 05:40:47.164,0.325,-0.275
2021-08-19 05:40:47.168,0.335,-0.265
2021-08-19 05:40:47.172,0.325,-0.245
2021-08-19 05:40:47.176,0.335,-0.225
2021-08-19 05:40:47.180,0.315,-0.205
2021-08-19 05:40:47.184,0.295,-0.195
2021-08-19 05:40:47.188,0.315,-0.19
2021-08-19 05:40:47.192,0.3,-0.175
2021-08-19 05:40:47.196,0.295,-0.145
2021-08-19 05:40:47.200,0.285,-0.13
2021-08-19 05:40:47.204,0.315,-0.13
2021-08-19 05:40:47.208,0.295,-0.13
2021-08-19 05:40:47.212,0.275,-0.11
2021-08-19 05:40:47.216,0.29,-0.11
2021-08-19 05:40:47.220,0.27,-0.12
2021-08-19 05:40:47.224,0.295,-0.12
2021-08-19 05:40:47.228,0.305,-0.115
2021-08-19 05:40:47.232,0.29,-0.115
2021-08-19 05:40:47.236,0.29,-0.105
2021-08-19 05:40:47.240,0.275,-0.13
2021-08-19 05:40:47.244,0.285,-0.125
2021-08-19 05:40:47.248,0.27,-0.115
2021-08-19 05:40:47.252,0.295,-0.125
2021-08-19 05:40:47.256,0.315,-0.115
2021-08-19 05:40:47.260,0.285,-0.12
2021-08-19 05:40:47.264,0.31,-0.125
2021-08-19 05:40:47.268,0.29,-0.135
2021-08-19 05:40:47.272,0.3,-0.14
2021-08-19 05:40:47.276,0.295,-0.135
2021-08-19 05:40:47.280,0.31,-0.12
2021-08-19 05:40:47.284,0.315,-0.135
2021-08-19 05:40:47.288,0.325,-0.14
2021-08-19 05:40:47.292,0.32,-0.135
2021-08-19 05:40:47.296,0.315,-0.155
2021-08-19 05:40:47.300,0.315,-0.145
2021-08-19 05:40:47.304,0.34,-0.155
2021-08-19 05:40:47.308,0.35,-0.145
2021-08-19 05:40:47.312,0.31,-0.155
2021-08-19 05:40:47.316,0.3,-0.15
2021-08-19 05:40:47.320,0.31,-0.17
2021-08-19 05:40:47.324,0.315,-0.16
2021-08-19 05:40:47.328,0.315,-0.16
2021-08-19 05:40:47.332,0.33,-0.16
2021-08-19 05:40:47.336,0.33,-0.16
2021-08-19 05:40:47.340,0.325,-0.16
2021-08-19 05:40:47.344,0.315,-0.155
2021-08-19 05:40:47.348,0.33,-0.15
2021-08-19 05:40:47.352,0.335,-0.165
2021-08-19 05:40:47.356,0.32,-0.15
2021-08-19 05:40:47.360,0.325,-0.165
2021-08-19 05:40:47.364,0.335,-0.16
2021-08-19 05:40:47.368,0.325,-0.155
2021-08-19 05:40:47.372,0.335,-0.165
2021-08-19 05:40:47.376,0.34,-0.155
2021-08-19 05:40:47.380,0.31,-0.165
2021-08-19 05:40:47.384,0.325,-0.155
2021-08-19 05:40:47.388,0.32,-0.17
2021-08-19 05:40:47.392,0.305,-0.19
2021-08-19 05:40:47.396,0.31,-0.165
2021-08-19 05:40:47.400,0.31,-0.16
2021-08-19 05:40:47.404,0.335,-0.17
2021-08-19 05:40:47.408,0.3,-0.18
2021-08-19 05:40:47.412,0.34,-0.19
2021-08-19 05:40:47.416,0.325,-0.18
2021-08-19 05:40:47.420,0.3,-0.185
2021-08-19 05:40:47.424,0.315,-0.18
2021-08-19 05:40:47.428,0.325,-0.17
2021-08-19 05:40:47.432,0.305,-0.17
2021-08-19 05:40:47.436,0.31,-0.185
2021-08-19 05:40:47.440,0.305,-0.185
2021-08-19 05:40:47.444,0.3,-0.195
2021-08-19 05:40:47.448,0.295,-0.195
2021-08-19 05:40:47.452,0.295,-0.195
2021-08-19 05:40:47.456,0.295,-0.195
2021-08-19 05:40:47.460,0.305,-0.19
2021-08-19 05:40:47.464,0.295,-0.19
2021-08-19 05:40:47.468,0.28,-0.175
2021-08-19 05:40:47.472,0.3,-0.195
2021-08-19 05:40:47.476,0.285,-0.195
2021-08-19 05:40:47.480,0.29,-0.21
2021-08-19 05:40:47.484,0.305,-0.205
2021-08-19 05:40:47.488,0.305,-0.21
2021-08-19 05:40:47.492,0.295,-0.215
2021-08-19 05:40:47.496,0.29,-0.19
2021-08-19 05:40:47.500,0.295,-0.205
2021-08-19 05:40:47.504,0.295,-0.225
2021-08-19 05:40:47.508,0.29,-0.205
2021-08-19 05:40:47.512,0.285,-0.21
2021-08-19 05:40:47.516,0.29,-0.22
2021-08-19 05:40:47.520,0.285,-0.2
2021-08-19 05:40:47.524,0.27,-0.195
2021-08-19 05:40:47.528,0.275,-0.215
2021-08-19 05:40:47.532,0.29,-0.195
2021-08-19 05:40:47.536,0.295,-0.225
2021-08-19 05:40:47.540,0.29,-0.2
2021-08-19 05:40:47.544,0.29,-0.2
2021-08-19 05:40:47.548,0.29,-0.21
2021-08-19 05:40:47.552,0.3,-0.2
2021-08-19 05:40:47.556,0.295,-0.2
2021-08-19 05:40:47.560,0.29,-0.205
2021-08-19 05:40:47.564,0.285,-0.2
2021-08-19 05:40:47.568,0.27,-0.2
2021-08-19 05:40:47.572,0.28,-0.225
2021-08-19 05:40:47.576,0.305,-0.235
2021-08-19 05:40:47.580,0.275,-0.21
2021-08-19 05:40:47.584,0.295,-0.205
2021-08-19 05:40:47.588,0.3,-0.21
2021-08-19 05:40:47.592,0.29,-0.205
2021-08-19 05:40:47.596,0.28,-0.2
2021-08-19 05:40:47.600,0.31,-0.205
2021-08-19 05:40:47.604,0.295,-0.195
2021-08-19 05:40:47.608,0.32,-0.2
2021-08-19 05:40:47.612,0.29,-0.205
2021-08-19 05:40:47.616,0.3,-0.2
2021-08-19 05:40:47.620,0.31,-0.215
2021-08-19 05:40:47.624,0.3,-0.195
2021-08-19 05:40:47.628,0.295,-0.2
2021-08-19 05:40:47.632,0.295,-0.2
2021-08-19 05:40:47.636,0.285,-0.235
2021-08-19 05:40:47.640,0.305,-0.18
2021-08-19 05:40:47.644,0.305,-0.19
2021-08-19 05:40:47.648,0.29,-0.195
2021-08-19 05:40:47.652,0.28,-0.19
2021-08-19 05:40:47.656,0.315,-0.2
2021-08-19 05:40:47.660,0.33,-0.195
2021-08-19 05:40:47.664,0.295,-0.195
2021-08-19 05:40:47.668,0.3,-0.175
2021-08-19 05:40:47.672,0.295,-0.205
2021-08-19 05:40:47.676,0.29,-0.215
2021-08-19 05:40:47.680,0.29,-0.21
2021-08-19 05:40:47.684,0.305,-0.205
2021-08-19 05:40:47.688,0.315,-0.205
2021-08-19 05:40:47.692,0.31,-0.2
2021-08-19 05:40:47.696,0.31,-0.2
2021-08-19 05:40:47.700,0.295,-0.2
2021-08-19 05:40:47.704,0.315,-0.19
2021-08-19 05:40:47.708,0.295,-0.205
2021-08-19 05:40:47.712,0.28,-0.21
2021-08-19 05:40:47.716,0.305,-0.16
2021-08-19 05:40:47.720,0.3,-0.14
2021-08-19 05:40:47.724,0.3,-0.125
2021-08-19 05:40:47.728,0.295,-0.07
2021-08-19 05:40:47.732,0.305,-0.045
2021-08-19 05:40:47.736,0.31,-0.03
2021-08-19 05:40:47.740,0.305,0.0
2021-08-19 05:40:47.744,0.335,0.005
2021-08-19 05:40:47.748,0.365,-0.015
2021-08-19 05:40:47.752,0.38,-0.005
2021-08-19 05:40:47.756,0.415,-0.015
2021-08-19 05:40:47.760,0.405,-0.015
2021-08-19 05:40:47.764,0.41,-0.045
2021-08-19 05:40:47.768,0.42,-0.03
2021-08-19 05:40:47.772,0.42,-0.045
2021-08-19 05:40:47.776,0.415,-0.06
2021-08-19 05:40:47.780,0.39,-0.065
2021-08-19 05:40:47.784,0.38,-0.08
2021-08-19 05:40:47.788,0.35,-0.135
2021-08-19 05:40:47.792,0.335,-0.155
2021-08-19 05:40:47.796,0.31,-0.175
2021-08-19 05:40:47.800,0.27,-0.16
2021-08-19 05:40:47.804,0.265,-0.17
2021-08-19 05:40:47.808,0.235,-0.16
2021-08-19 05:40:47.812,0.22,-0.155
2021-08-19 05:40:47.816,0.205,-0.135
2021-08-19 05:40:47.820,0.23,-0.125
2021-08-19 05:40:47.824,0.235,-0.135
2021-08-19 05:40:47.828,0.26,-0.155
2021-08-19 05:40:47.832,0.245,-0.165
2021-08-19 05:40:47.836,0.26,-0.175
2021-08-19 05:40:47.840,0.27,-0.18
2021-08-19 05:40:47.844,0.26,-0.21
2021-08-19 05:40:47.848,0.26,-0.22
2021-08-19 05:40:47.852,0.28,-0.235
2021-08-19 05:40:47.856,0.27,-0.225
2021-08-19 05:40:47.860,0.31,-0.225
2021-08-19 05:40:47.864,0.34,-0.24
2021-08-19 05:40:47.868,0.355,-0.225
2021-08-19 05:40:47.872,0.335,-0.215
2021-08-19 05:40:47.876,0.335,-0.225
2021-08-19 05:40:47.880,0.33,-0.21
2021-08-19 05:40:47.884,0.33,-0.21
2021-08-19 05:40:47.888,0.34,-0.225
2021-08-19 05:40:47.892,0.33,-0.21
2021-08-19 05:40:47.896,0.34,-0.21
2021-08-19 05:40:47.900,0.33,-0.205
2021-08-19 05:40:47.904,0.325,-0.195
2021-08-19 05:40:47.908,0.345,-0.17
2021-08-19 05:40:47.912,0.33,-0.135
2021-08-19 05:40:47.916,0.34,-0.075
2021-08-19 05:40:47.920,0.335,-0.06
2021-08-19 05:40:47.924,0.335,-0.03
2021-08-19 05:40:47.928,0.34,0.1
2021-08-19 05:40:47.932,0.345,0.35
2021-08-19 05:40:47.936,0.35,0.635
2021-08-19 05:40:47.940,0.39,0.865
2021-08-19 05:40:47.944,0.405,0.955
2021-08-19 05:40:47.948,0.415,0.945
2021-08-19 05:40:47.952,0.35,0.85
2021-08-19 05:40:47.956,0.29,0.675
2021-08-19 05:40:47.960,0.285,0.355
2021-08-19 05:40:47.964,0.21,-0.065
2021-08-19 05:40:47.968,0.015,-0.34
2021-08-19 05:40:47.972,-0.245,-0.31
2021-08-19 05:40:47.976,-0.58,-0.065
2021-08-19 05:40:47.980,-0.88,0.04
2021-08-19 05:40:47.984,-1.075,-0.12
2021-08-19 05:40:47.988,-1.14,-0.36
2021-08-19 05:40:47.992,-1.055,-0.55
2021-08-19 05:40:47.996,-0.745,-0.64
2021-08-19 05:40:48.000,-0.32,-0.64
2021-08-19 05:40:48.004,0.025,-0.58
2021-08-19 05:40:48.008,0.185,-0.475
2021-08-19 05:40:48.012,0.195,-0.38
2021-08-19 05:40:48.016,0.18,-0.33
2021-08-19 05:40:48.020,0.19,-0.33
2021-08-19 05:40:48.024,0.19,-0.345
2021-08-19 05:40:48.028,0.215,-0.34
2021-08-19 05:40:48.032,0.26,-0.34
2021-08-19 05:40:48.036,0.33,-0.33
2021-08-19 05:40:48.040,0.4,-0.32
2021-08-19 05:40:48.044,0.415,-0.32
2021-08-19 05:40:48.048,0.435,-0.315
2021-08-19 05:40:48.052,0.425,-0.32
2021-08-19 05:40:48.056,0.46,-0.32
2021-08-19 05:40:48.060,0.46,-0.305
2021-08-19 05:40:48.064,0.465,-0.32
2021-08-19 05:40:48.068,0.47,-0.3
2021-08-19 05:40:48.072,0.465,-0.315
2021-08-19 05:40:48.076,0.47,-0.305
2021-08-19 05:40:48.080,0.465,-0.32
2021-08-19 05:40:48.084,0.475,-0.305
2021-08-19 05:40:48.088,0.475,-0.29
2021-08-19 05:40:48.092,0.48,-0.295
2021-08-19 05:40:48.096,0.47,-0.305
2021-08-19 05:40:48.100,0.485,-0.28
2021-08-19 05:40:48.104,0.475,-0.28
2021-08-19 05:40:48.108,0.48,-0.275
2021-08-19 05:40:48.112,0.49,-0.275
2021-08-19 05:40:48.116,0.485,-0.275
2021-08-19 05:40:48.120,0.48,-0.29
2021-08-19 05:40:48.124,0.48,-0.3
2021-08-19 05:40:48.128,0.47,-0.28
2021-08-19 05:40:48.132,0.485,-0.285
2021-08-19 05:40:48.136,0.48,-0.285
2021-08-19 05:40:48.140,0.5,-0.28
2021-08-19 05:40:48.144,0.48,-0.28
2021-08-19 05:40:48.148,0.47,-0.285
2021-08-19 05:40:48.152,0.48,-0.3
2021-08-19 05:40:48.156,0.475,-0.285
2021-08-19 05:40:48.160,0.485,-0.295
2021-08-19 05:40:48.164,0.48,-0.29
2021-08-19 05:40:48.168,0.48,-0.3
2021-08-19 05:40:48.172,0.475,-0.3
2021-08-19 05:40:48.176,0.47,-0.3
2021-08-19 05:40:48.180,0.47,-0.31
2021-08-19 05:40:48.184,0.455,-0.3
2021-08-19 05:40:48.188,0.46,-0.3
2021-08-19 05:40:48.192,0.48,-0.305
2021-08-19 05:40:48.196,0.465,-0.3
2021-08-19 05:40:48.200,0.45,-0.29
2021-08-19 05:40:48.204,0.46,-0.295
2021-08-19 05:40:48.208,0.43,-0.275
2021-08-19 05:40:48.212,0.465,-0.305
2021-08-19 05:40:48.216,0.46,-0.29
2021-08-19 05:40:48.220,0.465,-0.295
2021-08-19 05:40:48.224,0.47,-0.26
2021-08-19 05:40:48.228,0.455,-0.28
2021-08-19 05:40:48.232,0.465,-0.265
2021-08-19 05:40:48.236,0.475,-0.265
2021-08-19 05:40:48.240,0.455,-0.225
2021-08-19 05:40:48.244,0.435,-0.235
2021-08-19 05:40:48.248,0.45,-0.2
2021-08-19 05:40:48.252,0.45,-0.205
2021-08-19 05:40:48.256,0.465,-0.185
2021-08-19 05:40:48.260,0.455,-0.16
2021-08-19 05:40:48.264,0.44,-0.17
2021-08-19 05:40:48.268,0.415,-0.15
2021-08-19 05:40:48.272,0.42,-0.13
2021-08-19 05:40:48.276,0.41,-0.12
2021-08-19 05:40:48.280,0.41,-0.1
2021-08-19 05:40:48.284,0.41,-0.095
2021-08-19 05:40:48.288,0.39,-0.105
2021-08-19 05:40:48.292,0.4,-0.09
2021-08-19 05:40:48.296,0.415,-0.09
2021-08-19 05:40:48.300,0.39,-0.09
2021-08-19 05:40:48.304,0.36,-0.1
2021-08-19 05:40:48.308,0.37,-0.09
2021-08-19 05:40:48.312,0.385,-0.1
2021-08-19 05:40:48.316,0.365,-0.105
2021-08-19 05:40:48.320,0.35,-0.09
2021-08-19 05:40:48.324,0.37,-0.09
2021-08-19 05:40:48.328,0.37,-0.07
2021-08-19 05:40:48.332,0.365,-0.1
2021-08-19 05:40:48.336,0.385,-0.105
2021-08-19 05:40:48.340,0.365,-0.125
2021-08-19 05:40:48.344,0.36,-0.11
2021-08-19 05:40:48.348,0.355,-0.115
2021-08-19 05:40:48.352,0.38,-0.1
2021-08-19 05:40:48.356,0.39,-0.125
2021-08-19 05:40:48.360,0.395,-0.14
2021-08-19 05:40:48.364,0.41,-0.14
2021-08-19 05:40:48.368,0.39,-0.13
2021-08-19 05:40:48.372,0.4,-0.125
2021-08-19 05:40:48.376,0.395,-0.135
2021-08-19 05:40:48.380,0.4,-0.15
2021-08-19 05:40:48.384,0.395,-0.14
2021-08-19 05:40:48.388,0.42,-0.145
2021-08-19 05:40:48.392,0.42,-0.14
2021-08-19 05:40:48.396,0.415,-0.16
2021-08-19 05:40:48.400,0.405,-0.15
2021-08-19 05:40:48.404,0.4,-0.15
2021-08-19 05:40:48.408,0.43,-0.14
2021-08-19 05:40:48.412,0.415,-0.15
2021-08-19 05:40:48.416,0.41,-0.17
2021-08-19 05:40:48.420,0.405,-0.14
2021-08-19 05:40:48.424,0.395,-0.125
2021-08-19 05:40:48.428,0.405,-0.14
2021-08-19 05:40:48.432,0.405,-0.145
2021-08-19 05:40:48.436,0.41,-0.155
2021-08-19 05:40:48.440,0.415,-0.155
2021-08-19 05:40:48.444,0.415,-0.155
2021-08-19 05:40:48.448,0.41,-0.14
2021-08-19 05:40:48.452,0.41,-0.14
2021-08-19 05:40:48.456,0.41,-0.15
2021-08-19 05:40:48.460,0.41,-0.145
2021-08-19 05:40:48.464,0.4,-0.145
2021-08-19 05:40:48.468,0.405,-0.145
2021-08-19 05:40:48.472,0.425,-0.15
2021-08-19 05:40:48.476,0.42,-0.155
2021-08-19 05:40:48.480,0.41,-0.145
2021-08-19 05:40:48.484,0.42,-0.15
2021-08-19 05:40:48.488,0.405,-0.16
2021-08-19 05:40:48.492,0.41,-0.17
2021-08-19 05:40:48.496,0.385,-0.16
2021-08-19 05:40:48.500,0.385,-0.16
2021-08-19 05:40:48.504,0.365,-0.17
2021-08-19 05:40:48.508,0.375,-0.18
2021-08-19 05:40:48.512,0.375,-0.16
2021-08-19 05:40:48.516,0.36,-0.17
2021-08-19 05:40:48.520,0.395,-0.17
2021-08-19 05:40:48.524,0.37,-0.17
2021-08-19 05:40:48.528,0.38,-0.175
2021-08-19 05:40:48.532,0.37,-0.17
2021-08-19 05:40:48.536,0.375,-0.185
2021-08-19 05:40:48.540,0.39,-0.18
2021-08-19 05:40:48.544,0.39,-0.19
2021-08-19 05:40:48.548,0.35,-0.19
2021-08-19 05:40:48.552,0.37,-0.19
2021-08-19 05:40:48.556,0.355,-0.2
2021-08-19 05:40:48.560,0.36,-0.195
2021-08-19 05:40:48.564,0.36,-0.19
2021-08-19 05:40:48.568,0.36,-0.2
2021-08-19 05:40:48.572,0.375,-0.195
2021-08-19 05:40:48.576,0.375,-0.185
2021-08-19 05:40:48.580,0.355,-0.185
2021-08-19 05:40:48.584,0.365,-0.18
2021-08-19 05:40:48.588,0.36,-0.19
2021-08-19 05:40:48.592,0.345,-0.185
2021-08-19 05:40:48.596,0.34,-0.2
2021-08-19 05:40:48.600,0.355,-0.195
2021-08-19 05:40:48.604,0.345,-0.2
2021-08-19 05:40:48.608,0.34,-0.19
2021-08-19 05:40:48.612,0.345,-0.195
2021-08-19 05:40:48.616,0.355,-0.185
2021-08-19 05:40:48.620,0.355,-0.195
2021-08-19 05:40:48.624,0.355,-0.18
2021-08-19 05:40:48.628,0.36,-0.2
2021-08-19 05:40:48.632,0.345,-0.19
2021-08-19 05:40:48.636,0.36,-0.195
2021-08-19 05:40:48.640,0.335,-0.19
2021-08-19 05:40:48.644,0.325,-0.2
2021-08-19 05:40:48.648,0.335,-0.19
2021-08-19 05:40:48.652,0.34,-0.22
2021-08-19 05:40:48.656,0.34,-0.21
2021-08-19 05:40:48.660,0.35,-0.2
2021-08-19 05:40:48.664,0.34,-0.225
2021-08-19 05:40:48.668,0.355,-0.215
2021-08-19 05:40:48.672,0.34,-0.22
2021-08-19 05:40:48.676,0.33,-0.22
2021-08-19 05:40:48.680,0.35,-0.21
2021-08-19 05:40:48.684,0.335,-0.215
2021-08-19 05:40:48.688,0.34,-0.21
2021-08-19 05:40:48.692,0.335,-0.21
2021-08-19 05:40:48.696,0.345,-0.21
2021-08-19 05:40:48.700,0.335,-0.205
2021-08-19 05:40:48.704,0.355,-0.21
2021-08-19 05:40:48.708,0.33,-0.225
2021-08-19 05:40:48.712,0.345,-0.22
2021-08-19 05:40:48.716,0.34,-0.22
2021-08-19 05:40:48.720,0.34,-0.21
2021-08-19 05:40:48.724,0.315,-0.21
2021-08-19 05:40:48.728,0.34,-0.22
2021-08-19 05:40:48.732,0.33,-0.2
2021-08-19 05:40:48.736,0.34,-0.21
2021-08-19 05:40:48.740,0.34,-0.22
2021-08-19 05:40:48.744,0.33,-0.19
2021-08-19 05:40:48.748,0.34,-0.195
2021-08-19 05:40:48.752,0.335,-0.21
2021-08-19 05:40:48.756,0.33,-0.205
2021-08-19 05:40:48.760,0.335,-0.16
2021-08-19 05:40:48.764,0.335,-0.13
2021-08-19 05:40:48.768,0.34,-0.09
2021-08-19 05:40:48.772,0.325,-0.07
2021-08-19 05:40:48.776,0.34,-0.03
2021-08-19 05:40:48.780,0.375,-0.03
2021-08-19 05:40:48.784,0.36,-0.02
2021-08-19 05:40:48.788,0.395,-0.025
2021-08-19 05:40:48.792,0.42,-0.025
2021-08-19 05:40:48.796,0.435,-0.015
2021-08-19 05:40:48.800,0.425,-0.03
2021-08-19 05:40:48.804,0.46,-0.025
2021-08-19 05:40:48.808,0.45,-0.015
2021-08-19 05:40:48.812,0.455,-0.025
2021-08-19 05:40:48.816,0.45,-0.01
2021-08-19 05:40:48.820,0.43,-0.015
2021-08-19 05:40:48.824,0.425,-0.045
2021-08-19 05:40:48.828,0.395,-0.1
2021-08-19 05:40:48.832,0.375,-0.135
2021-08-19 05:40:48.836,0.35,-0.165
2021-08-19 05:40:48.840,0.32,-0.19
2021-08-19 05:40:48.844,0.3,-0.175
2021-08-19 05:40:48.848,0.26,-0.17
2021-08-19 05:40:48.852,0.28,-0.16
2021-08-19 05:40:48.856,0.26,-0.175
2021-08-19 05:40:48.860,0.255,-0.175
2021-08-19 05:40:48.864,0.265,-0.15
2021-08-19 05:40:48.868,0.255,-0.165
2021-08-19 05:40:48.872,0.29,-0.2
2021-08-19 05:40:48.876,0.265,-0.19
2021-08-19 05:40:48.880,0.275,-0.225
2021-08-19 05:40:48.884,0.28,-0.26
2021-08-19 05:40:48.888,0.28,-0.265
2021-08-19 05:40:48.892,0.275,-0.27
2021-08-19 05:40:48.896,0.305,-0.265
2021-08-19 05:40:48.900,0.315,-0.26
2021-08-19 05:40:48.904,0.36,-0.26
2021-08-19 05:40:48.908,0.355,-0.26
2021-08-19 05:40:48.912,0.35,-0.26
2021-08-19 05:40:48.916,0.355,-0.275
2021-08-19 05:40:48.920,0.36,-0.26
2021-08-19 05:40:48.924,0.345,-0.265
2021-08-19 05:40:48.928,0.36,-0.235
2021-08-19 05:40:48.932,0.35,-0.235
2021-08-19 05:40:48.936,0.34,-0.225
2021-08-19 05:40:48.940,0.34,-0.24
2021-08-19 05:40:48.944,0.34,-0.215
2021-08-19 05:40:48.948,0.345,-0.2
2021-08-19 05:40:48.952,0.345,-0.14
2021-08-19 05:40:48.956,0.35,-0.13
2021-08-19 05:40:48.960,0.345,-0.115
2021-08-19 05:40:48.964,0.36,-0.02
2021-08-19 05:40:48.968,0.36,0.165
2021-08-19 05:40:48.972,0.36,0.435
2021-08-19 05:40:48.976,0.39,0.675
2021-08-19 05:40:48.980,0.425,0.78
2021-08-19 05:40:48.984,0.42,0.815
2021-08-19 05:40:48.988,0.365,0.755
2021-08-19 05:40:48.992,0.315,0.59
2021-08-19 05:40:48.996,0.28,0.34
2021-08-19 05:40:49.000,0.22,-0.005
2021-08-19 05:40:49.004,0.08,-0.305
2021-08-19 05:40:49.008,-0.15,-0.355
2021-08-19 05:40:49.012,-0.475,-0.18
2021-08-19 05:40:49.016,-0.795,-0.03
2021-08-19 05:40:49.020,-1.0,-0.13
2021-08-19 05:40:49.024,-1.09,-0.36
2021-08-19 05:40:49.028,-1.05,-0.52
2021-08-19 05:40:49.032,-0.815,-0.625
2021-08-19 05:40:49.036,-0.395,-0.665
2021-08-19 05:40:49.040,-0.025,-0.61
2021-08-19 05:40:49.044,0.18,-0.5
2021-08-19 05:40:49.048,0.21,-0.445
2021-08-19 05:40:49.052,0.205,-0.4
2021-08-19 05:40:49.056,0.19,-0.375
2021-08-19 05:40:49.060,0.18,-0.375
2021-08-19 05:40:49.064,0.225,-0.365
2021-08-19 05:40:49.068,0.265,-0.365
2021-08-19 05:40:49.072,0.325,-0.38
2021-08-19 05:40:49.076,0.365,-0.37
2021-08-19 05:40:49.080,0.45,-0.355
2021-08-19 05:40:49.084,0.45,-0.36
2021-08-19 05:40:49.088,0.455,-0.365
2021-08-19 05:40:49.092,0.455,-0.37
2021-08-19 05:40:49.096,0.45,-0.365
2021-08-19 05:40:49.100,0.455,-0.39
2021-08-19 05:40:49.104,0.455,-0.36
2021-08-19 05:40:49.108,0.47,-0.35
2021-08-19 05:40:49.112,0.48,-0.34
2021-08-19 05:40:49.116,0.46,-0.34
2021-08-19 05:40:49.120,0.465,-0.35
2021-08-19 05:40:49.124,0.45,-0.33
2021-08-19 05:40:49.128,0.47,-0.33
2021-08-19 05:40:49.132,0.47,-0.345
2021-08-19 05:40:49.136,0.47,-0.34
2021-08-19 05:40:49.140,0.445,-0.335
2021-08-19 05:40:49.144,0.465,-0.33
2021-08-19 05:40:49.148,0.47,-0.33
2021-08-19 05:40:49.152,0.44,-0.34
2021-08-19 05:40:49.156,0.475,-0.35
2021-08-19 05:40:49.160,0.455,-0.35
2021-08-19 05:40:49.164,0.47,-0.355
2021-08-19 05:40:49.168,0.45,-0.345
2021-08-19 05:40:49.172,0.45,-0.34
2021-08-19 05:40:49.176,0.46,-0.35
2021-08-19 05:40:49.180,0.45,-0.35
2021-08-19 05:40:49.184,0.46,-0.355
2021-08-19 05:40:49.188,0.455,-0.345
2021-08-19 05:40:49.192,0.45,-0.34
2021-08-19 05:40:49.196,0.44,-0.345
2021-08-19 05:40:49.200,0.44,-0.35
2021-08-19 05:40:49.204,0.445,-0.36
2021-08-19 05:40:49.208,0.435,-0.355
2021-08-19 05:40:49.212,0.46,-0.36
2021-08-19 05:40:49.216,0.45,-0.37
2021-08-19 05:40:49.220,0.435,-0.355
2021-08-19 05:40:49.224,0.445,-0.36
2021-08-19 05:40:49.228,0.455,-0.355
2021-08-19 05:40:49.232,0.435,-0.365
2021-08-19 05:40:49.236,0.45,-0.34
2021-08-19 05:40:49.240,0.43,-0.34
2021-08-19 05:40:49.244,0.415,-0.365
2021-08-19 05:40:49.248,0.435,-0.345
2021-08-19 05:40:49.252,0.425,-0.33
2021-08-19 05:40:49.256,0.435,-0.34
2021-08-19 05:40:49.260,0.43,-0.335
2021-08-19 05:40:49.264,0.43,-0.32
2021-08-19 05:40:49.268,0.44,-0.32
2021-08-19 05:40:49.272,0.415,-0.31
2021-08-19 05:40:49.276,0.44,-0.29
2021-08-19 05:40:49.280,0.43,-0.28
2021-08-19 05:40:49.284,0.425,-0.27
2021-08-19 05:40:49.288,0.43,-0.25
2021-08-19 05:40:49.292,0.42,-0.25
2021-08-19 05:40:49.296,0.425,-0.22
2021-08-19 05:40:49.300,0.375,-0.25
2021-08-19 05:40:49.304,0.38,-0.22
2021-08-19 05:40:49.308,0.37,-0.195
2021-08-19 05:40:49.312,0.37,-0.185
2021-08-19 05:40:49.316,0.39,-0.18
2021-08-19 05:40:49.320,0.355,-0.19
2021-08-19 05:40:49.324,0.37,-0.195
2021-08-19 05:40:49.328,0.36,-0.17
2021-08-19 05:40:49.332,0.345,-0.145
2021-08-19 05:40:49.336,0.34,-0.125
2021-08-19 05:40:49.340,0.355,-0.15
2021-08-19 05:40:49.344,0.345,-0.155
2021-08-19 05:40:49.348,0.355,-0.165
2021-08-19 05:40:49.352,0.32,-0.16
2021-08-19 05:40:49.356,0.32,-0.155
2021-08-19 05:40:49.360,0.34,-0.175
2021-08-19 05:40:49.364,0.345,-0.17
2021-08-19 05:40:49.368,0.345,-0.165
2021-08-19 05:40:49.372,0.345,-0.18
2021-08-19 05:40:49.376,0.38,-0.16
2021-08-19 05:40:49.380,0.365,-0.19
2021-08-19 05:40:49.384,0.38,-0.175
2021-08-19 05:40:49.388,0.38,-0.175
2021-08-19 05:40:49.392,0.37,-0.195
2021-08-19 05:40:49.396,0.35,-0.18
2021-08-19 05:40:49.400,0.345,-0.18
2021-08-19 05:40:49.404,0.36,-0.19
2021-08-19 05:40:49.408,0.38,-0.19
2021-08-19 05:40:49.412,0.36,-0.185
2021-08-19 05:40:49.416,0.38,-0.175
2021-08-19 05:40:49.420,0.355,-0.175
2021-08-19 05:40:49.424,0.39,-0.19
2021-08-19 05:40:49.428,0.385,-0.18
2021-08-19 05:40:49.432,0.4,-0.195
2021-08-19 05:40:49.436,0.375,-0.18
2021-08-19 05:40:49.440,0.385,-0.185
2021-08-19 05:40:49.444,0.37,-0.21
2021-08-19 05:40:49.448,0.39,-0.195
2021-08-19 05:40:49.452,0.375,-0.19
2021-08-19 05:40:49.456,0.37,-0.19
2021-08-19 05:40:49.460,0.38,-0.195
2021-08-19 05:40:49.464,0.39,-0.195
2021-08-19 05:40:49.468,0.38,-0.18
2021-08-19 05:40:49.472,0.405,-0.205
2021-08-19 05:40:49.476,0.39,-0.19
2021-08-19 05:40:49.480,0.39,-0.185
2021-08-19 05:40:49.484,0.375,-0.185
2021-08-19 05:40:49.488,0.395,-0.225
2021-08-19 05:40:49.492,0.37,-0.225
2021-08-19 05:40:49.496,0.355,-0.23
2021-08-19 05:40:49.500,0.37,-0.24
2021-08-19 05:40:49.504,0.365,-0.2
2021-08-19 05:40:49.508,0.375,-0.21
2021-08-19 05:40:49.512,0.36,-0.235
2021-08-19 05:40:49.516,0.365,-0.205
2021-08-19 05:40:49.520,0.345,-0.215
2021-08-19 05:40:49.524,0.35,-0.215
2021-08-19 05:40:49.528,0.37,-0.205
2021-08-19 05:40:49.532,0.335,-0.225
2021-08-19 05:40:49.536,0.35,-0.21
2021-08-19 05:40:49.540,0.355,-0.215
2021-08-19 05:40:49.544,0.35,-0.22
2021-08-19 05:40:49.548,0.36,-0.225
2021-08-19 05:40:49.552,0.345,-0.225
2021-08-19 05:40:49.556,0.355,-0.22
2021-08-19 05:40:49.560,0.35,-0.215
2021-08-19 05:40:49.564,0.355,-0.225
2021-08-19 05:40:49.568,0.34,-0.255
2021-08-19 05:40:49.572,0.34,-0.225
2021-08-19 05:40:49.576,0.325,-0.245
2021-08-19 05:40:49.580,0.34,-0.25
2021-08-19 05:40:49.584,0.325,-0.245
2021-08-19 05:40:49.588,0.315,-0.25
2021-08-19 05:40:49.592,0.315,-0.24
2021-08-19 05:40:49.596,0.35,-0.24
2021-08-19 05:40:49.600,0.355,-0.265
2021-08-19 05:40:49.604,0.33,-0.255
2021-08-19 05:40:49.608,0.335,-0.255
2021-08-19 05:40:49.612,0.33,-0.25
2021-08-19 05:40:49.616,0.335,-0.26
2021-08-19 05:40:49.620,0.325,-0.25
2021-08-19 05:40:49.624,0.33,-0.24
2021-08-19 05:40:49.628,0.345,-0.24
2021-08-19 05:40:49.632,0.335,-0.255
2021-08-19 05:40:49.636,0.34,-0.265
2021-08-19 05:40:49.640,0.34,-0.26
2021-08-19 05:40:49.644,0.315,-0.26
2021-08-19 05:40:49.648,0.32,-0.27
2021-08-19 05:40:49.652,0.345,-0.245
2021-08-19 05:40:49.656,0.325,-0.265
2021-08-19 05:40:49.660,0.33,-0.255
2021-08-19 05:40:49.664,0.33,-0.26
2021-08-19 05:40:49.668,0.325,-0.25
2021-08-19 05:40:49.672,0.335,-0.275
2021-08-19 05:40:49.676,0.34,-0.25
2021-08-19 05:40:49.680,0.335,-0.245
2021-08-19 05:40:49.684,0.345,-0.24
2021-08-19 05:40:49.688,0.34,-0.24
2021-08-19 05:40:49.692,0.345,-0.28
2021-08-19 05:40:49.696,0.32,-0.25
2021-08-19 05:40:49.700,0.35,-0.245
2021-08-19 05:40:49.704,0.325,-0.24
2021-08-19 05:40:49.708,0.335,-0.27
2021-08-19 05:40:49.712,0.325,-0.25
2021-08-19 05:40:49.716,0.335,-0.245
2021-08-19 05:40:49.720,0.34,-0.245
2021-08-19 05:40:49.724,0.36,-0.26
2021-08-19 05:40:49.728,0.34,-0.25
2021-08-19 05:40:49.732,0.36,-0.26
2021-08-19 05:40:49.736,0.345,-0.27
2021-08-19 05:40:49.740,0.335,-0.25
2021-08-19 05:40:49.744,0.32,-0.245
2021-08-19 05:40:49.748,0.345,-0.25
2021-08-19 05:40:49.752,0.33,-0.235
2021-08-19 05:40:49.756,0.34,-0.24
2021-08-19 05:40:49.760,0.35,-0.24
2021-08-19 05:40:49.764,0.335,-0.25
2021-08-19 05:40:49.768,0.325,-0.235
2021-08-19 05:40:49.772,0.33,-0.23
2021-08-19 05:40:49.776,0.33,-0.2
2021-08-19 05:40:49.780,0.35,-0.155
2021-08-19 05:40:49.784,0.33,-0.125
2021-08-19 05:40:49.788,0.35,-0.085
2021-08-19 05:40:49.792,0.34,-0.05
2021-08-19 05:40:49.796,0.365,-0.06
2021-08-19 05:40:49.800,0.36,-0.07
2021-08-19 05:40:49.804,0.38,-0.06
2021-08-19 05:40:49.808,0.395,-0.045
2021-08-19 05:40:49.812,0.435,-0.05
2021-08-19 05:40:49.816,0.46,-0.045
2021-08-19 05:40:49.820,0.45,-0.05
2021-08-19 05:40:49.824,0.435,-0.035
2021-08-19 05:40:49.828,0.435,-0.03
2021-08-19 05:40:49.832,0.43,-0.04
2021-08-19 05:40:49.836,0.41,-0.045
2021-08-19 05:40:49.840,0.43,-0.08
2021-08-19 05:40:49.844,0.38,-0.115
2021-08-19 05:40:49.848,0.375,-0.165
2021-08-19 05:40:49.852,0.365,-0.19
2021-08-19 05:40:49.856,0.335,-0.215
2021-08-19 05:40:49.860,0.305,-0.21
2021-08-19 05:40:49.864,0.305,-0.19
2021-08-19 05:40:49.868,0.3,-0.19
2021-08-19 05:40:49.872,0.285,-0.21
2021-08-19 05:40:49.876,0.285,-0.195
2021-08-19 05:40:49.880,0.26,-0.2
2021-08-19 05:40:49.884,0.27,-0.23
2021-08-19 05:40:49.888,0.28,-0.22
2021-08-19 05:40:49.892,0.29,-0.23
2021-08-19 05:40:49.896,0.29,-0.26
2021-08-19 05:40:49.900,0.295,-0.3
2021-08-19 05:40:49.904,0.27,-0.305
2021-08-19 05:40:49.908,0.3,-0.315
2021-08-19 05:40:49.912,0.32,-0.3
2021-08-19 05:40:49.916,0.33,-0.29
2021-08-19 05:40:49.920,0.36,-0.295
2021-08-19 05:40:49.924,0.345,-0.295
2021-08-19 05:40:49.928,0.345,-0.305
2021-08-19 05:40:49.932,0.33,-0.29
2021-08-19 05:40:49.936,0.35,-0.28
2021-08-19 05:40:49.940,0.335,-0.285
2021-08-19 05:40:49.944,0.345,-0.28
2021-08-19 05:40:49.948,0.335,-0.285
2021-08-19 05:40:49.952,0.325,-0.265
2021-08-19 05:40:49.956,0.335,-0.27
2021-08-19 05:40:49.960,0.355,-0.24
2021-08-19 05:40:49.964,0.36,-0.225
2021-08-19 05:40:49.968,0.33,-0.19
2021-08-19 05:40:49.972,0.32,-0.155
2021-08-19 05:40:49.976,0.35,-0.14
2021-08-19 05:40:49.980,0.315,-0.045
2021-08-19 05:40:49.984,0.335,0.16
2021-08-19 05:40:49.988,0.335,0.445
2021-08-19 05:40:49.992,0.375,0.665
2021-08-19 05:40:49.996,0.42,0.815
2021-08-19 05:40:50.000,0.4,0.88
2021-08-19 05:40:50.004,0.33,0.875
2021-08-19 05:40:50.008,0.305,0.785
2021-08-19 05:40:50.012,0.315,0.565
2021-08-19 05:40:50.016,0.235,0.2
2021-08-19 05:40:50.020,0.1,-0.17
2021-08-19 05:40:50.024,-0.17,-0.295
2021-08-19 05:40:50.028,-0.455,-0.16
2021-08-19 05:40:50.032,-0.725,-0.075
2021-08-19 05:40:50.036,-0.89,-0.195
2021-08-19 05:40:50.040,-0.94,-0.395
2021-08-19 05:40:50.044,-0.89,-0.57
2021-08-19 05:40:50.048,-0.675,-0.67
2021-08-19 05:40:50.052,-0.295,-0.68
2021-08-19 05:40:50.056,0.035,-0.65
2021-08-19 05:40:50.060,0.185,-0.555
2021-08-19 05:40:50.064,0.2,-0.46
2021-08-19 05:40:50.068,0.215,-0.415
2021-08-19 05:40:50.072,0.2,-0.42
2021-08-19 05:40:50.076,0.215,-0.41
2021-08-19 05:40:50.080,0.21,-0.42
2021-08-19 05:40:50.084,0.26,-0.415
2021-08-19 05:40:50.088,0.32,-0.425
2021-08-19 05:40:50.092,0.38,-0.4
2021-08-19 05:40:50.096,0.42,-0.405
2021-08-19 05:40:50.100,0.42,-0.4
2021-08-19 05:40:50.104,0.405,-0.41
2021-08-19 05:40:50.108,0.42,-0.415
2021-08-19 05:40:50.112,0.41,-0.415
2021-08-19 05:40:50.116,0.425,-0.415
2021-08-19 05:40:50.120,0.44,-0.4
2021-08-19 05:40:50.124,0.41,-0.39
2021-08-19 05:40:50.128,0.42,-0.415
2021-08-19 05:40:50.132,0.44,-0.4
2021-08-19 05:40:50.136,0.42,-0.395
2021-08-19 05:40:50.140,0.435,-0.39
2021-08-19 05:40:50.144,0.43,-0.4
2021-08-19 05:40:50.148,0.415,-0.38
2021-08-19 05:40:50.152,0.42,-0.38
2021-08-19 05:40:50.156,0.425,-0.375
2021-08-19 05:40:50.160,0.415,-0.39
2021-08-19 05:40:50.164,0.41,-0.37
2021-08-19 05:40:50.168,0.405,-0.375
2021-08-19 05:40:50.172,0.405,-0.36
2021-08-19 05:40:50.176,0.41,-0.375
2021-08-19 05:40:50.180,0.415,-0.395
2021-08-19 05:40:50.184,0.41,-0.365
2021-08-19 05:40:50.188,0.42,-0.38
2021-08-19 05:40:50.192,0.405,-0.37
2021-08-19 05:40:50.196,0.42,-0.37
2021-08-19 05:40:50.200,0.405,-0.385
2021-08-19 05:40:50.204,0.415,-0.395
2021-08-19 05:40:50.208,0.425,-0.385
2021-08-19 05:40:50.212,0.385,-0.375
2021-08-19 05:40:50.216,0.41,-0.38
2021-08-19 05:40:50.220,0.4,-0.4
2021-08-19 05:40:50.224,0.395,-0.375
2021-08-19 05:40:50.228,0.385,-0.375
2021-08-19 05:40:50.232,0.4,-0.385
2021-08-19 05:40:50.236,0.385,-0.39
2021-08-19 05:40:50.240,0.395,-0.38
2021-08-19 05:40:50.244,0.405,-0.385
2021-08-19 05:40:50.248,0.415,-0.395
2021-08-19 05:40:50.252,0.4,-0.375
2021-08-19 05:40:50.256,0.405,-0.375
2021-08-19 05:40:50.260,0.38,-0.385
2021-08-19 05:40:50.264,0.385,-0.37
2021-08-19 05:40:50.268,0.405,-0.365
2021-08-19 05:40:50.272,0.38,-0.37
2021-08-19 05:40:50.276,0.405,-0.37
2021-08-19 05:40:50.280,0.37,-0.37
2021-08-19 05:40:50.284,0.385,-0.355
2021-08-19 05:40:50.288,0.38,-0.34
2021-08-19 05:40:50.292,0.38,-0.32
2021-08-19 05:40:50.296,0.375,-0.325
2021-08-19 05:40:50.300,0.37,-0.305
2021-08-19 05:40:50.304,0.365,-0.305
2021-08-19 05:40:50.308,0.38,-0.275
2021-08-19 05:40:50.312,0.38,-0.255
2021-08-19 05:40:50.316,0.36,-0.24
2021-08-19 05:40:50.320,0.37,-0.225
2021-08-19 05:40:50.324,0.355,-0.21
2021-08-19 05:40:50.328,0.32,-0.21
2021-08-19 05:40:50.332,0.325,-0.195
2021-08-19 05:40:50.336,0.335,-0.185
2021-08-19 05:40:50.340,0.335,-0.18
2021-08-19 05:40:50.344,0.325,-0.19
2021-08-19 05:40:50.348,0.315,-0.17
2021-08-19 05:40:50.352,0.335,-0.165
2021-08-19 05:40:50.356,0.32,-0.14
2021-08-19 05:40:50.360,0.315,-0.155
2021-08-19 05:40:50.364,0.31,-0.155
2021-08-19 05:40:50.368,0.32,-0.16
2021-08-19 05:40:50.372,0.33,-0.155
2021-08-19 05:40:50.376,0.34,-0.16
2021-08-19 05:40:50.380,0.315,-0.165
2021-08-19 05:40:50.384,0.32,-0.155
2021-08-19 05:40:50.388,0.34,-0.18
2021-08-19 05:40:50.392,0.345,-0.195
2021-08-19 05:40:50.396,0.345,-0.175
2021-08-19 05:40:50.400,0.36,-0.185
2021-08-19 05:40:50.404,0.35,-0.205
2021-08-19 05:40:50.408,0.34,-0.19
2021-08-19 05:40:50.412,0.375,-0.205
2021-08-19 05:40:50.416,0.36,-0.19
2021-08-19 05:40:50.420,0.365,-0.195
2021-08-19 05:40:50.424,0.365,-0.2
2021-08-19 05:40:50.428,0.335,-0.19
2021-08-19 05:40:50.432,0.35,-0.2
2021-08-19 05:40:50.436,0.365,-0.2
2021-08-19 05:40:50.440,0.365,-0.2
2021-08-19 05:40:50.444,0.37,-0.205
2021-08-19 05:40:50.448,0.36,-0.22
2021-08-19 05:40:50.452,0.365,-0.21
2021-08-19 05:40:50.456,0.365,-0.205
2021-08-19 05:40:50.460,0.385,-0.205
2021-08-19 05:40:50.464,0.4,-0.195
2021-08-19 05:40:50.468,0.385,-0.235
2021-08-19 05:40:50.472,0.365,-0.215
2021-08-19 05:40:50.476,0.365,-0.21
2021-08-19 05:40:50.480,0.37,-0.23
2021-08-19 05:40:50.484,0.385,-0.235
2021-08-19 05:40:50.488,0.345,-0.235
2021-08-19 05:40:50.492,0.36,-0.235
2021-08-19 05:40:50.496,0.355,-0.23
2021-08-19 05:40:50.500,0.37,-0.235
2021-08-19 05:40:50.504,0.36,-0.22
2021-08-19 05:40:50.508,0.36,-0.22
2021-08-19 05:40:50.512,0.36,-0.245
2021-08-19 05:40:50.516,0.355,-0.23
2021-08-19 05:40:50.520,0.345,-0.245
2021-08-19 05:40:50.524,0.345,-0.235
2021-08-19 05:40:50.528,0.355,-0.25
2021-08-19 05:40:50.532,0.365,-0.245
2021-08-19 05:40:50.536,0.35,-0.24
2021-08-19 05:40:50.540,0.35,-0.255
2021-08-19 05:40:50.544,0.345,-0.275
2021-08-19 05:40:50.548,0.34,-0.24
2021-08-19 05:40:50.552,0.33,-0.24
2021-08-19 05:40:50.556,0.34,-0.255
2021-08-19 05:40:50.560,0.33,-0.25
2021-08-19 05:40:50.564,0.33,-0.24
2021-08-19 05:40:50.568,0.33,-0.25
2021-08-19 05:40:50.572,0.325,-0.245
2021-08-19 05:40:50.576,0.34,-0.245
2021-08-19 05:40:50.580,0.33,-0.25
2021-08-19 05:40:50.584,0.31,-0.27
2021-08-19 05:40:50.588,0.335,-0.26
2021-08-19 05:40:50.592,0.33,-0.26
2021-08-19 05:40:50.596,0.33,-0.285
2021-08-19 05:40:50.600,0.315,-0.275
2021-08-19 05:40:50.604,0.34,-0.275
2021-08-19 05:40:50.608,0.33,-0.27
2021-08-19 05:40:50.612,0.305,-0.27
2021-08-19 05:40:50.616,0.335,-0.275
2021-08-19 05:40:50.620,0.335,-0.29
2021-08-19 05:40:50.624,0.335,-0.29
2021-08-19 05:40:50.628,0.335,-0.28
2021-08-19 05:40:50.632,0.33,-0.29
2021-08-19 05:40:50.636,0.31,-0.285
2021-08-19 05:40:50.640,0.32,-0.285
2021-08-19 05:40:50.644,0.325,-0.28
2021-08-19 05:40:50.648,0.325,-0.285
2021-08-19 05:40:50.652,0.315,-0.285
2021-08-19 05:40:50.656,0.33,-0.28
2021-08-19 05:40:50.660,0.315,-0.28
2021-08-19 05:40:50.664,0.28,-0.29
2021-08-19 05:40:50.668,0.31,-0.285
2021-08-19 05:40:50.672,0.31,-0.28
2021-08-19 05:40:50.676,0.315,-0.29
2021-08-19 05:40:50.680,0.325,-0.29
2021-08-19 05:40:50.684,0.315,-0.28
2021-08-19 05:40:50.688,0.325,-0.27
2021-08-19 05:40:50.692,0.325,-0.29
2021-08-19 05:40:50.696,0.33,-0.28
2021-08-19 05:40:50.700,0.33,-0.295
2021-08-19 05:40:50.704,0.32,-0.28
2021-08-19 05:40:50.708,0.34,-0.275
2021-08-19 05:40:50.712,0.325,-0.28
2021-08-19 05:40:50.716,0.325,-0.27
2021-08-19 05:40:50.720,0.33,-0.3
2021-08-19 05:40:50.724,0.315,-0.27
2021-08-19 05:40:50.728,0.33,-0.29
2021-08-19 05:40:50.732,0.335,-0.265
2021-08-19 05:40:50.736,0.335,-0.28
2021-08-19 05:40:50.740,0.335,-0.29
2021-08-19 05:40:50.744,0.32,-0.285
2021-08-19 05:40:50.748,0.305,-0.27
2021-08-19 05:40:50.752,0.295,-0.295
2021-08-19 05:40:50.756,0.31,-0.31
2021-08-19 05:40:50.760,0.295,-0.295
2021-08-19 05:40:50.764,0.305,-0.305
2021-08-19 05:40:50.768,0.295,-0.29
2021-08-19 05:40:50.772,0.3,-0.285
2021-08-19 05:40:50.776,0.315,-0.3
2021-08-19 05:40:50.780,0.295,-0.285
2021-08-19 05:40:50.784,0.295,-0.245
2021-08-19 05:40:50.788,0.295,-0.225
2021-08-19 05:40:50.792,0.315,-0.17
2021-08-19 05:40:50.796,0.3,-0.14
2021-08-19 05:40:50.800,0.305,-0.115
2021-08-19 05:40:50.804,0.305,-0.105
2021-08-19 05:40:50.808,0.32,-0.1
2021-08-19 05:40:50.812,0.365,-0.095
2021-08-19 05:40:50.816,0.38,-0.065
2021-08-19 05:40:50.820,0.395,-0.08
2021-08-19 05:40:50.824,0.4,-0.08
2021-08-19 05:40:50.828,0.415,-0.1
2021-08-19 05:40:50.832,0.425,-0.095
2021-08-19 05:40:50.836,0.41,-0.1
2021-08-19 05:40:50.840,0.415,-0.1
2021-08-19 05:40:50.844,0.365,-0.09
2021-08-19 05:40:50.848,0.355,-0.14
2021-08-19 05:40:50.852,0.34,-0.205
2021-08-19 05:40:50.856,0.33,-0.23
2021-08-19 05:40:50.860,0.27,-0.26
2021-08-19 05:40:50.864,0.275,-0.23
2021-08-19 05:40:50.868,0.225,-0.24
2021-08-19 05:40:50.872,0.21,-0.2
2021-08-19 05:40:50.876,0.225,-0.2
2021-08-19 05:40:50.880,0.22,-0.22
2021-08-19 05:40:50.884,0.22,-0.225
2021-08-19 05:40:50.888,0.24,-0.23
2021-08-19 05:40:50.892,0.23,-0.245
2021-08-19 05:40:50.896,0.225,-0.265
2021-08-19 05:40:50.900,0.25,-0.295
2021-08-19 05:40:50.904,0.245,-0.3
2021-08-19 05:40:50.908,0.245,-0.32
2021-08-19 05:40:50.912,0.235,-0.33
2021-08-19 05:40:50.916,0.265,-0.33
2021-08-19 05:40:50.920,0.315,-0.335
2021-08-19 05:40:50.924,0.3,-0.32
2021-08-19 05:40:50.928,0.325,-0.32
2021-08-19 05:40:50.932,0.305,-0.335
2021-08-19 05:40:50.936,0.33,-0.32
2021-08-19 05:40:50.940,0.3,-0.32
2021-08-19 05:40:50.944,0.305,-0.32
2021-08-19 05:40:50.948,0.315,-0.32
2021-08-19 05:40:50.952,0.305,-0.325
2021-08-19 05:40:50.956,0.285,-0.32
2021-08-19 05:40:50.960,0.28,-0.315
2021-08-19 05:40:50.964,0.31,-0.275
2021-08-19 05:40:50.968,0.305,-0.245
2021-08-19 05:40:50.972,0.29,-0.21
2021-08-19 05:40:50.976,0.305,-0.185
2021-08-19 05:40:50.980,0.3,-0.13
2021-08-19 05:40:50.984,0.31,0.03
2021-08-19 05:40:50.988,0.315,0.31
2021-08-19 05:40:50.992,0.335,0.6
2021-08-19 05:40:50.996,0.34,0.805
2021-08-19 05:40:51.000,0.365,0.9
2021-08-19 05:40:51.004,0.37,0.885
2021-08-19 05:40:51.008,0.3,0.8
2021-08-19 05:40:51.012,0.295,0.545
2021-08-19 05:40:51.016,0.26,0.16
2021-08-19 05:40:51.020,0.125,-0.275
2021-08-19 05:40:51.024,-0.08,-0.45
2021-08-19 05:40:51.028,-0.37,-0.31
2021-08-19 05:40:51.032,-0.725,-0.105
2021-08-19 05:40:51.036,-0.98,-0.155
2021-08-19 05:40:51.040,-1.105,-0.425
2021-08-19 05:40:51.044,-1.13,-0.625
2021-08-19 05:40:51.048,-0.965,-0.745
2021-08-19 05:40:51.052,-0.55,-0.77
2021-08-19 05:40:51.056,-0.145,-0.72
2021-08-19 05:40:51.060,0.085,-0.63
2021-08-19 05:40:51.064,0.18,-0.52
2021-08-19 05:40:51.068,0.175,-0.45
2021-08-19 05:40:51.072,0.14,-0.435
2021-08-19 05:40:51.076,0.16,-0.44
2021-08-19 05:40:51.080,0.18,-0.44
2021-08-19 05:40:51.084,0.235,-0.43
2021-08-19 05:40:51.088,0.305,-0.435
2021-08-19 05:40:51.092,0.345,-0.435
2021-08-19 05:40:51.096,0.395,-0.44
2021-08-19 05:40:51.100,0.405,-0.435
2021-08-19 05:40:51.104,0.4,-0.42
2021-08-19 05:40:51.108,0.39,-0.435
2021-08-19 05:40:51.112,0.42,-0.425
2021-08-19 05:40:51.116,0.4,-0.41
2021-08-19 05:40:51.120,0.42,-0.42
2021-08-19 05:40:51.124,0.43,-0.4
2021-08-19 05:40:51.128,0.42,-0.395
2021-08-19 05:40:51.132,0.42,-0.39
2021-08-19 05:40:51.136,0.44,-0.39
2021-08-19 05:40:51.140,0.43,-0.41
2021-08-19 05:40:51.144,0.44,-0.38
2021-08-19 05:40:51.148,0.445,-0.395
2021-08-19 05:40:51.152,0.445,-0.385
2021-08-19 05:40:51.156,0.435,-0.4
2021-08-19 05:40:51.160,0.445,-0.405
2021-08-19 05:40:51.164,0.45,-0.385
2021-08-19 05:40:51.168,0.44,-0.37
2021-08-19 05:40:51.172,0.43,-0.39
2021-08-19 05:40:51.176,0.445,-0.375
2021-08-19 05:40:51.180,0.45,-0.385
2021-08-19 05:40:51.184,0.435,-0.385
2021-08-19 05:40:51.188,0.43,-0.385
2021-08-19 05:40:51.192,0.425,-0.365
2021-08-19 05:40:51.196,0.425,-0.375
2021-08-19 05:40:51.200,0.415,-0.38
2021-08-19 05:40:51.204,0.41,-0.39
2021-08-19 05:40:51.208,0.41,-0.38
2021-08-19 05:40:51.212,0.43,-0.39
2021-08-19 05:40:51.216,0.405,-0.38
2021-08-19 05:40:51.220,0.41,-0.385
2021-08-19 05:40:51.224,0.405,-0.385
2021-08-19 05:40:51.228,0.425,-0.385
2021-08-19 05:40:51.232,0.415,-0.38
2021-08-19 05:40:51.236,0.415,-0.375
2021-08-19 05:40:51.240,0.405,-0.39
2021-08-19 05:40:51.244,0.41,-0.395
2021-08-19 05:40:51.248,0.395,-0.405
2021-08-19 05:40:51.252,0.405,-0.37
2021-08-19 05:40:51.256,0.395,-0.385
2021-08-19 05:40:51.260,0.41,-0.415
2021-08-19 05:40:51.264,0.425,-0.39
2021-08-19 05:40:51.268,0.395,-0.38
2021-08-19 05:40:51.272,0.4,-0.345
2021-08-19 05:40:51.276,0.395,-0.34
2021-08-19 05:40:51.280,0.385,-0.34
2021-08-19 05:40:51.284,0.415,-0.33
2021-08-19 05:40:51.288,0.415,-0.335
2021-08-19 05:40:51.292,0.395,-0.29
2021-08-19 05:40:51.296,0.395,-0.285
2021-08-19 05:40:51.300,0.39,-0.275
2021-08-19 05:40:51.304,0.39,-0.25
2021-08-19 05:40:51.308,0.37,-0.25
2021-08-19 05:40:51.312,0.37,-0.255
2021-08-19 05:40:51.316,0.375,-0.225
2021-08-19 05:40:51.320,0.35,-0.225
2021-08-19 05:40:51.324,0.325,-0.215
2021-08-19 05:40:51.328,0.34,-0.22
2021-08-19 05:40:51.332,0.33,-0.205
2021-08-19 05:40:51.336,0.325,-0.195
2021-08-19 05:40:51.340,0.325,-0.2
2021-08-19 05:40:51.344,0.34,-0.2
2021-08-19 05:40:51.348,0.315,-0.2
2021-08-19 05:40:51.352,0.31,-0.18
2021-08-19 05:40:51.356,0.315,-0.18
2021-08-19 05:40:51.360,0.3,-0.215
2021-08-19 05:40:51.364,0.32,-0.205
2021-08-19 05:40:51.368,0.315,-0.2
2021-08-19 05:40:51.372,0.345,-0.22
2021-08-19 05:40:51.376,0.335,-0.21
2021-08-19 05:40:51.380,0.325,-0.22
2021-08-19 05:40:51.384,0.315,-0.205
2021-08-19 05:40:51.388,0.32,-0.2
2021-08-19 05:40:51.392,0.33,-0.215
2021-08-19 05:40:51.396,0.345,-0.22
2021-08-19 05:40:51.400,0.335,-0.23
2021-08-19 05:40:51.404,0.35,-0.22
2021-08-19 05:40:51.408,0.315,-0.23
2021-08-19 05:40:51.412,0.33,-0.22
2021-08-19 05:40:51.416,0.325,-0.225
2021-08-19 05:40:51.420,0.315,-0.215
2021-08-19 05:40:51.424,0.335,-0.235
2021-08-19 05:40:51.428,0.32,-0.245
2021-08-19 05:40:51.432,0.36,-0.21
2021-08-19 05:40:51.436,0.34,-0.24
2021-08-19 05:40:51.440,0.33,-0.24
2021-08-19 05:40:51.444,0.32,-0.23
2021-08-19 05:40:51.448,0.34,-0.245
2021-08-19 05:40:51.452,0.345,-0.235
2021-08-19 05:40:51.456,0.345,-0.23
2021-08-19 05:40:51.460,0.34,-0.24
2021-08-19 05:40:51.464,0.37,-0.23
2021-08-19 05:40:51.468,0.345,-0.255
2021-08-19 05:40:51.472,0.35,-0.26
2021-08-19 05:40:51.476,0.345,-0.245
2021-08-19 05:40:51.480,0.335,-0.25
2021-08-19 05:40:51.484,0.345,-0.245
2021-08-19 05:40:51.488,0.33,-0.25
2021-08-19 05:40:51.492,0.335,-0.24
2021-08-19 05:40:51.496,0.345,-0.26
2021-08-19 05:40:51.500,0.315,-0.265
2021-08-19 05:40:51.504,0.34,-0.26
2021-08-19 05:40:51.508,0.345,-0.26
2021-08-19 05:40:51.512,0.32,-0.265
2021-08-19 05:40:51.516,0.34,-0.25
2021-08-19 05:40:51.520,0.34,-0.27
2021-08-19 05:40:51.524,0.325,-0.26
2021-08-19 05:40:51.528,0.345,-0.255
2021-08-19 05:40:51.532,0.33,-0.26
2021-08-19 05:40:51.536,0.305,-0.27
2021-08-19 05:40:51.540,0.32,-0.265
2021-08-19 05:40:51.544,0.33,-0.275
2021-08-19 05:40:51.548,0.305,-0.265
2021-08-19 05:40:51.552,0.315,-0.28
2021-08-19 05:40:51.556,0.33,-0.285
2021-08-19 05:40:51.560,0.29,-0.27
2021-08-19 05:40:51.564,0.3,-0.27
2021-08-19 05:40:51.568,0.315,-0.265
2021-08-19 05:40:51.572,0.315,-0.275
2021-08-19 05:40:51.576,0.31,-0.295
2021-08-19 05:40:51.580,0.295,-0.295
2021-08-19 05:40:51.584,0.305,-0.29
2021-08-19 05:40:51.588,0.3,-0.285
2021-08-19 05:40:51.592,0.295,-0.285
2021-08-19 05:40:51.596,0.305,-0.3
2021-08-19 05:40:51.600,0.31,-0.29
2021-08-19 05:40:51.604,0.285,-0.29
2021-08-19 05:40:51.608,0.31,-0.29
2021-08-19 05:40:51.612,0.28,-0.28
2021-08-19 05:40:51.616,0.29,-0.305
2021-08-19 05:40:51.620,0.285,-0.3
2021-08-19 05:40:51.624,0.28,-0.295
2021-08-19 05:40:51.628,0.275,-0.3
2021-08-19 05:40:51.632,0.28,-0.305
2021-08-19 05:40:51.636,0.3,-0.295
2021-08-19 05:40:51.640,0.285,-0.285
2021-08-19 05:40:51.644,0.295,-0.295
2021-08-19 05:40:51.648,0.28,-0.295
2021-08-19 05:40:51.652,0.28,-0.315
2021-08-19 05:40:51.656,0.28,-0.295
2021-08-19 05:40:51.660,0.27,-0.295
2021-08-19 05:40:51.664,0.285,-0.315
2021-08-19 05:40:51.668,0.285,-0.31
2021-08-19 05:40:51.672,0.285,-0.31
2021-08-19 05:40:51.676,0.3,-0.315
2021-08-19 05:40:51.680,0.29,-0.3
2021-08-19 05:40:51.684,0.285,-0.305
2021-08-19 05:40:51.688,0.275,-0.295
2021-08-19 05:40:51.692,0.25,-0.285
2021-08-19 05:40:51.696,0.27,-0.29
2021-08-19 05:40:51.700,0.295,-0.3
2021-08-19 05:40:51.704,0.305,-0.305
2021-08-19 05:40:51.708,0.275,-0.29
2021-08-19 05:40:51.712,0.275,-0.315
2021-08-19 05:40:51.716,0.275,-0.295
2021-08-19 05:40:51.720,0.27,-0.305
2021-08-19 05:40:51.724,0.285,-0.31
2021-08-19 05:40:51.728,0.29,-0.31
2021-08-19 05:40:51.732,0.295,-0.305
2021-08-19 05:40:51.736,0.295,-0.305
2021-08-19 05:40:51.740,0.295,-0.295
2021-08-19 05:40:51.744,0.285,-0.3
2021-08-19 05:40:51.748,0.29,-0.28
2021-08-19 05:40:51.752,0.28,-0.32
2021-08-19 05:40:51.756,0.31,-0.295
2021-08-19 05:40:51.760,0.295,-0.29
2021-08-19 05:40:51.764,0.285,-0.295
2021-08-19 05:40:51.768,0.275,-0.295
2021-08-19 05:40:51.772,0.29,-0.27
2021-08-19 05:40:51.776,0.28,-0.27
2021-08-19 05:40:51.780,0.28,-0.22
2021-08-19 05:40:51.784,0.28,-0.175
2021-08-19 05:40:51.788,0.27,-0.145
2021-08-19 05:40:51.792,0.27,-0.11
2021-08-19 05:40:51.796,0.285,-0.095
2021-08-19 05:40:51.800,0.28,-0.08
2021-08-19 05:40:51.804,0.31,-0.095
2021-08-19 05:40:51.808,0.33,-0.1
2021-08-19 05:40:51.812,0.365,-0.075
2021-08-19 05:40:51.816,0.405,-0.075
2021-08-19 05:40:51.820,0.39,-0.1
2021-08-19 05:40:51.824,0.405,-0.105
2021-08-19 05:40:51.828,0.385,-0.085
2021-08-19 05:40:51.832,0.395,-0.085
2021-08-19 05:40:51.836,0.4,-0.105
2021-08-19 05:40:51.840,0.37,-0.1
2021-08-19 05:40:51.844,0.34,-0.145
2021-08-19 05:40:51.848,0.33,-0.19
2021-08-19 05:40:51.852,0.315,-0.225
2021-08-19 05:40:51.856,0.265,-0.24
2021-08-19 05:40:51.860,0.24,-0.26
2021-08-19 05:40:51.864,0.225,-0.24
2021-08-19 05:40:51.868,0.2,-0.235
2021-08-19 05:40:51.872,0.2,-0.225
2021-08-19 05:40:51.876,0.205,-0.235
2021-08-19 05:40:51.880,0.185,-0.235
2021-08-19 05:40:51.884,0.2,-0.23
2021-08-19 05:40:51.888,0.225,-0.23
2021-08-19 05:40:51.892,0.215,-0.24
2021-08-19 05:40:51.896,0.235,-0.26
2021-08-19 05:40:51.900,0.23,-0.305
2021-08-19 05:40:51.904,0.23,-0.335
2021-08-19 05:40:51.908,0.205,-0.34
2021-08-19 05:40:51.912,0.23,-0.35
2021-08-19 05:40:51.916,0.25,-0.345
2021-08-19 05:40:51.920,0.3,-0.345
2021-08-19 05:40:51.924,0.315,-0.345
2021-08-19 05:40:51.928,0.31,-0.335
2021-08-19 05:40:51.932,0.32,-0.345
2021-08-19 05:40:51.936,0.285,-0.345
2021-08-19 05:40:51.940,0.305,-0.355
2021-08-19 05:40:51.944,0.29,-0.33
2021-08-19 05:40:51.948,0.31,-0.32
2021-08-19 05:40:51.952,0.29,-0.34
2021-08-19 05:40:51.956,0.295,-0.32
2021-08-19 05:40:51.960,0.3,-0.315
2021-08-19 05:40:51.964,0.28,-0.295
2021-08-19 05:40:51.968,0.275,-0.25
2021-08-19 05:40:51.972,0.285,-0.2
2021-08-19 05:40:51.976,0.31,-0.18
2021-08-19 05:40:51.980,0.31,-0.14
2021-08-19 05:40:51.984,0.29,-0.005
2021-08-19 05:40:51.988,0.29,0.265
2021-08-19 05:40:51.992,0.295,0.53
2021-08-19 05:40:51.996,0.335,0.74
2021-08-19 05:40:52.000,0.355,0.83
2021-08-19 05:40:52.004,0.32,0.8
2021-08-19 05:40:52.008,0.275,0.68
2021-08-19 05:40:52.012,0.245,0.475
2021-08-19 05:40:52.016,0.22,0.13
2021-08-19 05:40:52.020,0.135,-0.275
2021-08-19 05:40:52.024,-0.055,-0.54
2021-08-19 05:40:52.028,-0.35,-0.45
2021-08-19 05:40:52.032,-0.695,-0.185
2021-08-19 05:40:52.036,-0.97,-0.12
2021-08-19 05:40:52.040,-1.125,-0.3
2021-08-19 05:40:52.044,-1.16,-0.53
2021-08-19 05:40:52.048,-1.055,-0.675
2021-08-19 05:40:52.052,-0.72,-0.74
2021-08-19 05:40:52.056,-0.3,-0.765
2021-08-19 05:40:52.060,0.035,-0.675
2021-08-19 05:40:52.064,0.145,-0.585
2021-08-19 05:40:52.068,0.13,-0.49
2021-08-19 05:40:52.072,0.13,-0.46
2021-08-19 05:40:52.076,0.13,-0.44
2021-08-19 05:40:52.080,0.135,-0.455
2021-08-19 05:40:52.084,0.155,-0.44
2021-08-19 05:40:52.088,0.22,-0.45
2021-08-19 05:40:52.092,0.275,-0.445
2021-08-19 05:40:52.096,0.335,-0.42
2021-08-19 05:40:52.100,0.37,-0.435
2021-08-19 05:40:52.104,0.395,-0.43
2021-08-19 05:40:52.108,0.375,-0.45
2021-08-19 05:40:52.112,0.37,-0.445
2021-08-19 05:40:52.116,0.395,-0.43
2021-08-19 05:40:52.120,0.39,-0.42
2021-08-19 05:40:52.124,0.37,-0.42
2021-08-19 05:40:52.128,0.375,-0.43
2021-08-19 05:40:52.132,0.39,-0.415
2021-08-19 05:40:52.136,0.375,-0.41
2021-08-19 05:40:52.140,0.39,-0.41
2021-08-19 05:40:52.144,0.395,-0.415
2021-08-19 05:40:52.148,0.39,-0.4
2021-08-19 05:40:52.152,0.375,-0.39
2021-08-19 05:40:52.156,0.385,-0.405
2021-08-19 05:40:52.160,0.39,-0.41
2021-08-19 05:40:52.164,0.39,-0.395
2021-08-19 05:40:52.168,0.41,-0.395
2021-08-19 05:40:52.172,0.41,-0.39
2021-08-19 05:40:52.176,0.39,-0.4
2021-08-19 05:40:52.180,0.385,-0.39
2021-08-19 05:40:52.184,0.395,-0.38
2021-08-19 05:40:52.188,0.38,-0.395
2021-08-19 05:40:52.192,0.37,-0.415
2021-08-19 05:40:52.196,0.375,-0.4
2021-08-19 05:40:52.200,0.37,-0.41
2021-08-19 05:40:52.204,0.365,-0.405
2021-08-19 05:40:52.208,0.38,-0.395
2021-08-19 05:40:52.212,0.38,-0.415
2021-08-19 05:40:52.216,0.365,-0.395
2021-08-19 05:40:52.220,0.355,-0.415
2021-08-19 05:40:52.224,0.355,-0.415
2021-08-19 05:40:52.228,0.35,-0.41
2021-08-19 05:40:52.232,0.34,-0.415
2021-08-19 05:40:52.236,0.355,-0.4
2021-08-19 05:40:52.240,0.355,-0.385
2021-08-19 05:40:52.244,0.345,-0.4
2021-08-19 05:40:52.248,0.345,-0.405
2021-08-19 05:40:52.252,0.36,-0.41
2021-08-19 05:40:52.256,0.34,-0.4
2021-08-19 05:40:52.260,0.325,-0.41
2021-08-19 05:40:52.264,0.35,-0.405
2021-08-19 05:40:52.268,0.345,-0.395
2021-08-19 05:40:52.272,0.345,-0.4
2021-08-19 05:40:52.276,0.345,-0.405
2021-08-19 05:40:52.280,0.335,-0.41
2021-08-19 05:40:52.284,0.34,-0.395
2021-08-19 05:40:52.288,0.335,-0.38
2021-08-19 05:40:52.292,0.345,-0.38
2021-08-19 05:40:52.296,0.32,-0.35
2021-08-19 05:40:52.300,0.325,-0.35
2021-08-19 05:40:52.304,0.33,-0.34
2021-08-19 05:40:52.308,0.295,-0.32
2021-08-19 05:40:52.312,0.3,-0.305
2021-08-19 05:40:52.316,0.3,-0.285
2021-08-19 05:40:52.320,0.3,-0.29
2021-08-19 05:40:52.324,0.295,-0.28
2021-08-19 05:40:52.328,0.295,-0.265
2021-08-19 05:40:52.332,0.285,-0.275
2021-08-19 05:40:52.336,0.275,-0.255
2021-08-19 05:40:52.340,0.255,-0.245
2021-08-19 05:40:52.344,0.265,-0.23
2021-08-19 05:40:52.348,0.245,-0.225
2021-08-19 05:40:52.352,0.24,-0.22
2021-08-19 05:40:52.356,0.245,-0.225
2021-08-19 05:40:52.360,0.24,-0.215
2021-08-19 05:40:52.364,0.215,-0.24
2021-08-19 05:40:52.368,0.205,-0.23
2021-08-19 05:40:52.372,0.235,-0.245
2021-08-19 05:40:52.376,0.235,-0.245
2021-08-19 05:40:52.380,0.205,-0.23
2021-08-19 05:40:52.384,0.225,-0.235
2021-08-19 05:40:52.388,0.23,-0.24
2021-08-19 05:40:52.392,0.22,-0.25
2021-08-19 05:40:52.396,0.22,-0.25
2021-08-19 05:40:52.400,0.255,-0.27
2021-08-19 05:40:52.404,0.245,-0.275
2021-08-19 05:40:52.408,0.24,-0.265
2021-08-19 05:40:52.412,0.255,-0.275
2021-08-19 05:40:52.416,0.25,-0.28
2021-08-19 05:40:52.420,0.255,-0.245
2021-08-19 05:40:52.424,0.245,-0.275
2021-08-19 05:40:52.428,0.25,-0.27
2021-08-19 05:40:52.432,0.25,-0.285
2021-08-19 05:40:52.436,0.26,-0.27
2021-08-19 05:40:52.440,0.24,-0.265
2021-08-19 05:40:52.444,0.26,-0.29
2021-08-19 05:40:52.448,0.265,-0.295
2021-08-19 05:40:52.452,0.245,-0.28
2021-08-19 05:40:52.456,0.25,-0.305
2021-08-19 05:40:52.460,0.265,-0.31
2021-08-19 05:40:52.464,0.27,-0.3
2021-08-19 05:40:52.468,0.245,-0.315
2021-08-19 05:40:52.472,0.265,-0.295
2021-08-19 05:40:52.476,0.25,-0.3
2021-08-19 05:40:52.480,0.25,-0.29
2021-08-19 05:40:52.484,0.255,-0.31
2021-08-19 05:40:52.488,0.255,-0.295
2021-08-19 05:40:52.492,0.265,-0.29
2021-08-19 05:40:52.496,0.255,-0.295
2021-08-19 05:40:52.500,0.265,-0.31
2021-08-19 05:40:52.504,0.25,-0.315
2021-08-19 05:40:52.508,0.25,-0.325
2021-08-19 05:40:52.512,0.235,-0.325
2021-08-19 05:40:52.516,0.245,-0.325
2021-08-19 05:40:52.520,0.245,-0.335
2021-08-19 05:40:52.524,0.255,-0.32
2021-08-19 05:40:52.528,0.24,-0.345
2021-08-19 05:40:52.532,0.23,-0.335
2021-08-19 05:40:52.536,0.24,-0.33
2021-08-19 05:40:52.540,0.235,-0.335
2021-08-19 05:40:52.544,0.225,-0.33
2021-08-19 05:40:52.548,0.235,-0.335
2021-08-19 05:40:52.552,0.24,-0.34
2021-08-19 05:40:52.556,0.22,-0.335
2021-08-19 05:40:52.560,0.235,-0.335
2021-08-19 05:40:52.564,0.23,-0.33
2021-08-19 05:40:52.568,0.22,-0.33
2021-08-19 05:40:52.572,0.23,-0.34
2021-08-19 05:40:52.576,0.225,-0.335
2021-08-19 05:40:52.580,0.2,-0.335
2021-08-19 05:40:52.584,0.2,-0.34
2021-08-19 05:40:52.588,0.2,-0.355
2021-08-19 05:40:52.592,0.19,-0.335
2021-08-19 05:40:52.596,0.215,-0.32
2021-08-19 05:40:52.600,0.18,-0.34
2021-08-19 05:40:52.604,0.19,-0.355
2021-08-19 05:40:52.608,0.2,-0.36
2021-08-19 05:40:52.612,0.195,-0.35
2021-08-19 05:40:52.616,0.21,-0.34
2021-08-19 05:40:52.620,0.21,-0.345
2021-08-19 05:40:52.624,0.205,-0.355
2021-08-19 05:40:52.628,0.19,-0.35
2021-08-19 05:40:52.632,0.2,-0.36
2021-08-19 05:40:52.636,0.185,-0.35
2021-08-19 05:40:52.640,0.185,-0.35
2021-08-19 05:40:52.644,0.19,-0.345
2021-08-19 05:40:52.648,0.19,-0.36
2021-08-19 05:40:52.652,0.21,-0.37
2021-08-19 05:40:52.656,0.18,-0.355
2021-08-19 05:40:52.660,0.195,-0.36
2021-08-19 05:40:52.664,0.175,-0.35
2021-08-19 05:40:52.668,0.175,-0.36
2021-08-19 05:40:52.672,0.165,-0.355
2021-08-19 05:40:52.676,0.17,-0.355
2021-08-19 05:40:52.680,0.18,-0.365
2021-08-19 05:40:52.684,0.175,-0.35
2021-08-19 05:40:52.688,0.18,-0.35
2021-08-19 05:40:52.692,0.175,-0.36
2021-08-19 05:40:52.696,0.175,-0.35
2021-08-19 05:40:52.700,0.155,-0.36
2021-08-19 05:40:52.704,0.185,-0.36
2021-08-19 05:40:52.708,0.17,-0.355
2021-08-19 05:40:52.712,0.165,-0.355
2021-08-19 05:40:52.716,0.17,-0.355
2021-08-19 05:40:52.720,0.185,-0.38
2021-08-19 05:40:52.724,0.16,-0.365
2021-08-19 05:40:52.728,0.165,-0.36
2021-08-19 05:40:52.732,0.17,-0.34
2021-08-19 05:40:52.736,0.185,-0.335
2021-08-19 05:40:52.740,0.18,-0.37
2021-08-19 05:40:52.744,0.195,-0.35
2021-08-19 05:40:52.748,0.19,-0.345
2021-08-19 05:40:52.752,0.195,-0.36
2021-08-19 05:40:52.756,0.205,-0.365
2021-08-19 05:40:52.760,0.175,-0.365
2021-08-19 05:40:52.764,0.185,-0.36
2021-08-19 05:40:52.768,0.165,-0.345
2021-08-19 05:40:52.772,0.165,-0.36
2021-08-19 05:40:52.776,0.17,-0.36
2021-08-19 05:40:52.780,0.185,-0.37
2021-08-19 05:40:52.784,0.18,-0.355
2021-08-19 05:40:52.788,0.17,-0.355
2021-08-19 05:40:52.792,0.165,-0.365
2021-08-19 05:40:52.796,0.17,-0.34
2021-08-19 05:40:52.800,0.17,-0.32
2021-08-19 05:40:52.804,0.16,-0.28
2021-08-19 05:40:52.808,0.16,-0.25
2021-08-19 05:40:52.812,0.165,-0.22
2021-08-19 05:40:52.816,0.165,-0.185
2021-08-19 05:40:52.820,0.185,-0.17
2021-08-19 05:40:52.824,0.195,-0.15
2021-08-19 05:40:52.828,0.22,-0.15
2021-08-19 05:40:52.832,0.245,-0.16
2021-08-19 05:40:52.836,0.26,-0.145
2021-08-19 05:40:52.840,0.27,-0.155
2021-08-19 05:40:52.844,0.275,-0.16
2021-08-19 05:40:52.848,0.28,-0.15
2021-08-19 05:40:52.852,0.295,-0.155
2021-08-19 05:40:52.856,0.285,-0.15
2021-08-19 05:40:52.860,0.29,-0.16
2021-08-19 05:40:52.864,0.28,-0.16
2021-08-19 05:40:52.868,0.25,-0.19
2021-08-19 05:40:52.872,0.215,-0.22
2021-08-19 05:40:52.876,0.205,-0.275
2021-08-19 05:40:52.880,0.185,-0.295
2021-08-19 05:40:52.884,0.175,-0.32
2021-08-19 05:40:52.888,0.155,-0.3
2021-08-19 05:40:52.892,0.125,-0.295
2021-08-19 05:40:52.896,0.11,-0.3
2021-08-19 05:40:52.900,0.095,-0.3
2021-08-19 05:40:52.904,0.075,-0.3
2021-08-19 05:40:52.908,0.11,-0.29
2021-08-19 05:40:52.912,0.09,-0.305
2021-08-19 05:40:52.916,0.115,-0.34
2021-08-19 05:40:52.920,0.13,-0.34
2021-08-19 05:40:52.924,0.125,-0.355
2021-08-19 05:40:52.928,0.15,-0.39
2021-08-19 05:40:52.932,0.13,-0.39
2021-08-19 05:40:52.936,0.125,-0.395
2021-08-19 05:40:52.940,0.145,-0.39
2021-08-19 05:40:52.944,0.195,-0.4
2021-08-19 05:40:52.948,0.205,-0.4
2021-08-19 05:40:52.952,0.185,-0.375
2021-08-19 05:40:52.956,0.18,-0.38
2021-08-19 05:40:52.960,0.195,-0.37
2021-08-19 05:40:52.964,0.2,-0.385
2021-08-19 05:40:52.968,0.2,-0.39
2021-08-19 05:40:52.972,0.195,-0.375
2021-08-19 05:40:52.976,0.185,-0.4
2021-08-19 05:40:52.980,0.185,-0.395
2021-08-19 05:40:52.984,0.195,-0.385
2021-08-19 05:40:52.988,0.18,-0.37
2021-08-19 05:40:52.992,0.2,-0.32
2021-08-19 05:40:52.996,0.2,-0.27
2021-08-19 05:40:53.000,0.185,-0.265
2021-08-19 05:40:53.004,0.19,-0.2
2021-08-19 05:40:53.008,0.2,-0.095
2021-08-19 05:40:53.012,0.195,0.135
2021-08-19 05:40:53.016,0.225,0.385
2021-08-19 05:40:53.020,0.25,0.585
2021-08-19 05:40:53.024,0.26,0.675
2021-08-19 05:40:53.028,0.245,0.665
2021-08-19 05:40:53.032,0.195,0.6
2021-08-19 05:40:53.036,0.16,0.44
2021-08-19 05:40:53.040,0.12,0.185
2021-08-19 05:40:53.044,0.04,-0.175
2021-08-19 05:40:53.048,-0.12,-0.43
2021-08-19 05:40:53.052,-0.365,-0.38
2021-08-19 05:40:53.056,-0.68,-0.205
2021-08-19 05:40:53.060,-0.955,-0.165
2021-08-19 05:40:53.064,-1.115,-0.305
2021-08-19 05:40:53.068,-1.15,-0.535
2021-08-19 05:40:53.072,-1.065,-0.675
2021-08-19 05:40:53.076,-0.79,-0.745
2021-08-19 05:40:53.080,-0.41,-0.75
2021-08-19 05:40:53.084,-0.06,-0.7
2021-08-19 05:40:53.088,0.06,-0.61
2021-08-19 05:40:53.092,0.07,-0.525
2021-08-19 05:40:53.096,0.07,-0.49
2021-08-19 05:40:53.100,0.065,-0.47
2021-08-19 05:40:53.104,0.06,-0.465
2021-08-19 05:40:53.108,0.095,-0.49
2021-08-19 05:40:53.112,0.15,-0.48
2021-08-19 05:40:53.116,0.18,-0.48
2021-08-19 05:40:53.120,0.24,-0.48
2021-08-19 05:40:53.124,0.28,-0.475
2021-08-19 05:40:53.128,0.285,-0.465
2021-08-19 05:40:53.132,0.29,-0.465
2021-08-19 05:40:53.136,0.31,-0.485
2021-08-19 05:40:53.140,0.3,-0.47
2021-08-19 05:40:53.144,0.29,-0.47
2021-08-19 05:40:53.148,0.305,-0.46
2021-08-19 05:40:53.152,0.305,-0.48
2021-08-19 05:40:53.156,0.295,-0.465
2021-08-19 05:40:53.160,0.295,-0.46
2021-08-19 05:40:53.164,0.3,-0.455
2021-08-19 05:40:53.168,0.29,-0.465
2021-08-19 05:40:53.172,0.3,-0.46
2021-08-19 05:40:53.176,0.275,-0.455
2021-08-19 05:40:53.180,0.31,-0.46
2021-08-19 05:40:53.184,0.325,-0.435
2021-08-19 05:40:53.188,0.3,-0.445
2021-08-19 05:40:53.192,0.295,-0.44
2021-08-19 05:40:53.196,0.295,-0.455
2021-08-19 05:40:53.200,0.305,-0.43
2021-08-19 05:40:53.204,0.31,-0.44
2021-08-19 05:40:53.208,0.295,-0.44
2021-08-19 05:40:53.212,0.305,-0.47
2021-08-19 05:40:53.216,0.295,-0.445
2021-08-19 05:40:53.220,0.315,-0.44
2021-08-19 05:40:53.224,0.29,-0.42
2021-08-19 05:40:53.228,0.28,-0.44
2021-08-19 05:40:53.232,0.305,-0.455
2021-08-19 05:40:53.236,0.285,-0.44
2021-08-19 05:40:53.240,0.29,-0.445
2021-08-19 05:40:53.244,0.29,-0.465
2021-08-19 05:40:53.248,0.295,-0.47
2021-08-19 05:40:53.252,0.29,-0.465
2021-08-19 05:40:53.256,0.28,-0.45
2021-08-19 05:40:53.260,0.28,-0.455
2021-08-19 05:40:53.264,0.28,-0.465
2021-08-19 05:40:53.268,0.3,-0.47
2021-08-19 05:40:53.272,0.28,-0.455
2021-08-19 05:40:53.276,0.265,-0.45
2021-08-19 05:40:53.280,0.28,-0.47
2021-08-19 05:40:53.284,0.29,-0.475
2021-08-19 05:40:53.288,0.28,-0.445
2021-08-19 05:40:53.292,0.28,-0.44
2021-08-19 05:40:53.296,0.285,-0.445
2021-08-19 05:40:53.300,0.275,-0.44
2021-08-19 05:40:53.304,0.28,-0.445
2021-08-19 05:40:53.308,0.28,-0.42
2021-08-19 05:40:53.312,0.255,-0.43
2021-08-19 05:40:53.316,0.27,-0.38
2021-08-19 05:40:53.320,0.265,-0.385
2021-08-19 05:40:53.324,0.265,-0.38
2021-08-19 05:40:53.328,0.245,-0.365
2021-08-19 05:40:53.332,0.25,-0.355
2021-08-19 05:40:53.336,0.235,-0.345
2021-08-19 05:40:53.340,0.26,-0.32
2021-08-19 05:40:53.344,0.235,-0.29
2021-08-19 05:40:53.348,0.235,-0.3
2021-08-19 05:40:53.352,0.21,-0.27
2021-08-19 05:40:53.356,0.2,-0.255
2021-08-19 05:40:53.360,0.215,-0.24
2021-08-19 05:40:53.364,0.2,-0.235
2021-08-19 05:40:53.368,0.2,-0.235
2021-08-19 05:40:53.372,0.19,-0.225
2021-08-19 05:40:53.376,0.18,-0.205
2021-08-19 05:40:53.380,0.205,-0.205
2021-08-19 05:40:53.384,0.2,-0.205
2021-08-19 05:40:53.388,0.18,-0.205
2021-08-19 05:40:53.392,0.2,-0.205
2021-08-19 05:40:53.396,0.175,-0.205
2021-08-19 05:40:53.400,0.205,-0.205
2021-08-19 05:40:53.404,0.2,-0.19
2021-08-19 05:40:53.408,0.195,-0.22
2021-08-19 05:40:53.412,0.21,-0.2
2021-08-19 05:40:53.416,0.22,-0.225
2021-08-19 05:40:53.420,0.205,-0.205
2021-08-19 05:40:53.424,0.215,-0.21
2021-08-19 05:40:53.428,0.22,-0.22
2021-08-19 05:40:53.432,0.21,-0.225
2021-08-19 05:40:53.436,0.225,-0.23
2021-08-19 05:40:53.440,0.21,-0.22
2021-08-19 05:40:53.444,0.21,-0.24
2021-08-19 05:40:53.448,0.215,-0.25
2021-08-19 05:40:53.452,0.225,-0.24
2021-08-19 05:40:53.456,0.225,-0.24
2021-08-19 05:40:53.460,0.21,-0.23
2021-08-19 05:40:53.464,0.225,-0.22
2021-08-19 05:40:53.468,0.22,-0.225
2021-08-19 05:40:53.472,0.245,-0.23
2021-08-19 05:40:53.476,0.23,-0.225
2021-08-19 05:40:53.480,0.235,-0.235
2021-08-19 05:40:53.484,0.23,-0.24
2021-08-19 05:40:53.488,0.22,-0.215
2021-08-19 05:40:53.492,0.22,-0.235
2021-08-19 05:40:53.496,0.21,-0.235
2021-08-19 05:40:53.500,0.225,-0.24
2021-08-19 05:40:53.504,0.225,-0.225
2021-08-19 05:40:53.508,0.235,-0.25
2021-08-19 05:40:53.512,0.235,-0.25
2021-08-19 05:40:53.516,0.225,-0.235
2021-08-19 05:40:53.520,0.215,-0.26
2021-08-19 05:40:53.524,0.195,-0.255
2021-08-19 05:40:53.528,0.195,-0.25
2021-08-19 05:40:53.532,0.215,-0.255
2021-08-19 05:40:53.536,0.21,-0.25
2021-08-19 05:40:53.540,0.205,-0.26
2021-08-19 05:40:53.544,0.205,-0.255
2021-08-19 05:40:53.548,0.195,-0.245
2021-08-19 05:40:53.552,0.185,-0.235
2021-08-19 05:40:53.556,0.18,-0.265
2021-08-19 05:40:53.560,0.19,-0.25
2021-08-19 05:40:53.564,0.17,-0.25
2021-08-19 05:40:53.568,0.18,-0.245
2021-08-19 05:40:53.572,0.175,-0.26
2021-08-19 05:40:53.576,0.205,-0.25
2021-08-19 05:40:53.580,0.185,-0.26
2021-08-19 05:40:53.584,0.21,-0.255
2021-08-19 05:40:53.588,0.18,-0.255
2021-08-19 05:40:53.592,0.155,-0.26
2021-08-19 05:40:53.596,0.175,-0.28
2021-08-19 05:40:53.600,0.175,-0.25
2021-08-19 05:40:53.604,0.185,-0.25
2021-08-19 05:40:53.608,0.18,-0.26
2021-08-19 05:40:53.612,0.17,-0.255
2021-08-19 05:40:53.616,0.155,-0.265
2021-08-19 05:40:53.620,0.18,-0.255
2021-08-19 05:40:53.624,0.17,-0.26
2021-08-19 05:40:53.628,0.18,-0.26
2021-08-19 05:40:53.632,0.18,-0.265
2021-08-19 05:40:53.636,0.155,-0.27
2021-08-19 05:40:53.640,0.16,-0.255
2021-08-19 05:40:53.644,0.17,-0.26
2021-08-19 05:40:53.648,0.16,-0.27
2021-08-19 05:40:53.652,0.16,-0.27
2021-08-19 05:40:53.656,0.155,-0.27
2021-08-19 05:40:53.660,0.145,-0.275
2021-08-19 05:40:53.664,0.135,-0.275
2021-08-19 05:40:53.668,0.155,-0.265
2021-08-19 05:40:53.672,0.155,-0.27
2021-08-19 05:40:53.676,0.16,-0.27
2021-08-19 05:40:53.680,0.155,-0.275
2021-08-19 05:40:53.684,0.155,-0.28
2021-08-19 05:40:53.688,0.16,-0.265
2021-08-19 05:40:53.692,0.16,-0.275
2021-08-19 05:40:53.696,0.16,-0.285
2021-08-19 05:40:53.700,0.155,-0.275
2021-08-19 05:40:53.704,0.14,-0.265
2021-08-19 05:40:53.708,0.14,-0.295
2021-08-19 05:40:53.712,0.145,-0.27
2021-08-19 05:40:53.716,0.19,-0.275
2021-08-19 05:40:53.720,0.165,-0.25
2021-08-19 05:40:53.724,0.15,-0.275
2021-08-19 05:40:53.728,0.165,-0.285
2021-08-19 05:40:53.732,0.17,-0.275
2021-08-19 05:40:53.736,0.17,-0.25
2021-08-19 05:40:53.740,0.17,-0.27
2021-08-19 05:40:53.744,0.15,-0.28
2021-08-19 05:40:53.748,0.195,-0.26
2021-08-19 05:40:53.752,0.165,-0.26
2021-08-19 05:40:53.756,0.17,-0.27
2021-08-19 05:40:53.760,0.175,-0.26
2021-08-19 05:40:53.764,0.175,-0.265
2021-08-19 05:40:53.768,0.19,-0.255
2021-08-19 05:40:53.772,0.15,-0.28
2021-08-19 05:40:53.776,0.18,-0.28
2021-08-19 05:40:53.780,0.18,-0.29
2021-08-19 05:40:53.784,0.185,-0.255
2021-08-19 05:40:53.788,0.175,-0.265
2021-08-19 05:40:53.792,0.19,-0.265
2021-08-19 05:40:53.796,0.185,-0.285
2021-08-19 05:40:53.800,0.2,-0.285
2021-08-19 05:40:53.804,0.18,-0.25
2021-08-19 05:40:53.808,0.175,-0.205
2021-08-19 05:40:53.812,0.185,-0.19
2021-08-19 05:40:53.816,0.18,-0.16
2021-08-19 05:40:53.820,0.185,-0.105
2021-08-19 05:40:53.824,0.175,-0.095
2021-08-19 05:40:53.828,0.175,-0.07
2021-08-19 05:40:53.832,0.2,-0.065
2021-08-19 05:40:53.836,0.225,-0.07
2021-08-19 05:40:53.840,0.25,-0.075
2021-08-19 05:40:53.844,0.265,-0.04
2021-08-19 05:40:53.848,0.275,-0.055
2021-08-19 05:40:53.852,0.31,-0.055
2021-08-19 05:40:53.856,0.29,-0.06
2021-08-19 05:40:53.860,0.29,-0.06
2021-08-19 05:40:53.864,0.3,-0.05
2021-08-19 05:40:53.868,0.28,-0.075
2021-08-19 05:40:53.872,0.28,-0.09
2021-08-19 05:40:53.876,0.235,-0.13
2021-08-19 05:40:53.880,0.235,-0.19
2021-08-19 05:40:53.884,0.205,-0.21
2021-08-19 05:40:53.888,0.185,-0.235
2021-08-19 05:40:53.892,0.15,-0.22
2021-08-19 05:40:53.896,0.135,-0.2
2021-08-19 05:40:53.900,0.115,-0.195
2021-08-19 05:40:53.904,0.11,-0.2
2021-08-19 05:40:53.908,0.115,-0.19
2021-08-19 05:40:53.912,0.105,-0.2
2021-08-19 05:40:53.916,0.115,-0.21
2021-08-19 05:40:53.920,0.11,-0.21
2021-08-19 05:40:53.924,0.135,-0.235
2021-08-19 05:40:53.928,0.145,-0.24
2021-08-19 05:40:53.932,0.135,-0.28
2021-08-19 05:40:53.936,0.15,-0.275
2021-08-19 05:40:53.940,0.135,-0.29
2021-08-19 05:40:53.944,0.15,-0.295
2021-08-19 05:40:53.948,0.185,-0.3
2021-08-19 05:40:53.952,0.195,-0.295
2021-08-19 05:40:53.956,0.215,-0.295
2021-08-19 05:40:53.960,0.2,-0.295
2021-08-19 05:40:53.964,0.18,-0.29
2021-08-19 05:40:53.968,0.19,-0.295
2021-08-19 05:40:53.972,0.2,-0.285
2021-08-19 05:40:53.976,0.225,-0.29
2021-08-19 05:40:53.980,0.2,-0.29
2021-08-19 05:40:53.984,0.21,-0.275
2021-08-19 05:40:53.988,0.21,-0.27
2021-08-19 05:40:53.992,0.205,-0.26
2021-08-19 05:40:53.996,0.195,-0.205
2021-08-19 05:40:54.000,0.19,-0.175
2021-08-19 05:40:54.004,0.19,-0.155
2021-08-19 05:40:54.008,0.18,-0.115
2021-08-19 05:40:54.012,0.175,-0.015
2021-08-19 05:40:54.016,0.195,0.195
2021-08-19 05:40:54.020,0.21,0.5
2021-08-19 05:40:54.024,0.235,0.74
2021-08-19 05:40:54.028,0.285,0.875
2021-08-19 05:40:54.032,0.28,0.89
2021-08-19 05:40:54.036,0.21,0.84
2021-08-19 05:40:54.040,0.18,0.7
2021-08-19 05:40:54.044,0.15,0.43
2021-08-19 05:40:54.048,0.1,0.02
2021-08-19 05:40:54.052,-0.03,-0.295
2021-08-19 05:40:54.056,-0.275,-0.37
2021-08-19 05:40:54.060,-0.56,-0.17
2021-08-19 05:40:54.064,-0.87,-0.05
2021-08-19 05:40:54.068,-1.05,-0.195
2021-08-19 05:40:54.072,-1.15,-0.4
2021-08-19 05:40:54.076,-1.1,-0.59
2021-08-19 05:40:54.080,-0.865,-0.695
2021-08-19 05:40:54.084,-0.48,-0.695
2021-08-19 05:40:54.088,-0.125,-0.64
2021-08-19 05:40:54.092,0.045,-0.555
2021-08-19 05:40:54.096,0.1,-0.45
2021-08-19 05:40:54.100,0.075,-0.415
2021-08-19 05:40:54.104,0.065,-0.42
2021-08-19 05:40:54.108,0.06,-0.425
2021-08-19 05:40:54.112,0.08,-0.39
2021-08-19 05:40:54.116,0.14,-0.405
2021-08-19 05:40:54.120,0.2,-0.39
2021-08-19 05:40:54.124,0.265,-0.38
2021-08-19 05:40:54.128,0.31,-0.4
2021-08-19 05:40:54.132,0.34,-0.385
2021-08-19 05:40:54.136,0.305,-0.39
2021-08-19 05:40:54.140,0.325,-0.38
2021-08-19 05:40:54.144,0.315,-0.39
2021-08-19 05:40:54.148,0.34,-0.375
2021-08-19 05:40:54.152,0.35,-0.35
2021-08-19 05:40:54.156,0.32,-0.365
2021-08-19 05:40:54.160,0.345,-0.355
2021-08-19 05:40:54.164,0.325,-0.375
2021-08-19 05:40:54.168,0.33,-0.35
2021-08-19 05:40:54.172,0.325,-0.355
2021-08-19 05:40:54.176,0.325,-0.38
2021-08-19 05:40:54.180,0.33,-0.36
2021-08-19 05:40:54.184,0.35,-0.36
2021-08-19 05:40:54.188,0.335,-0.355
2021-08-19 05:40:54.192,0.345,-0.345
2021-08-19 05:40:54.196,0.345,-0.35
2021-08-19 05:40:54.200,0.355,-0.35
2021-08-19 05:40:54.204,0.325,-0.345
2021-08-19 05:40:54.208,0.335,-0.345
2021-08-19 05:40:54.212,0.34,-0.345
2021-08-19 05:40:54.216,0.335,-0.345
2021-08-19 05:40:54.220,0.345,-0.335
2021-08-19 05:40:54.224,0.345,-0.36
2021-08-19 05:40:54.228,0.335,-0.36
2021-08-19 05:40:54.232,0.35,-0.335
2021-08-19 05:40:54.236,0.335,-0.34
2021-08-19 05:40:54.240,0.315,-0.34
2021-08-19 05:40:54.244,0.315,-0.335
2021-08-19 05:40:54.248,0.32,-0.365
2021-08-19 05:40:54.252,0.32,-0.35
2021-08-19 05:40:54.256,0.31,-0.365
2021-08-19 05:40:54.260,0.315,-0.365
2021-08-19 05:40:54.264,0.315,-0.36
2021-08-19 05:40:54.268,0.3,-0.35
2021-08-19 05:40:54.272,0.325,-0.36
2021-08-19 05:40:54.276,0.33,-0.335
2021-08-19 05:40:54.280,0.31,-0.365
2021-08-19 05:40:54.284,0.305,-0.365
2021-08-19 05:40:54.288,0.305,-0.35
2021-08-19 05:40:54.292,0.31,-0.35
2021-08-19 05:40:54.296,0.295,-0.34
2021-08-19 05:40:54.300,0.305,-0.34
2021-08-19 05:40:54.304,0.32,-0.345
2021-08-19 05:40:54.308,0.285,-0.335
2021-08-19 05:40:54.312,0.325,-0.31
2021-08-19 05:40:54.316,0.3,-0.32
2021-08-19 05:40:54.320,0.29,-0.285
2021-08-19 05:40:54.324,0.295,-0.285
2021-08-19 05:40:54.328,0.285,-0.275
2021-08-19 05:40:54.332,0.275,-0.265
2021-08-19 05:40:54.336,0.255,-0.25
2021-08-19 05:40:54.340,0.275,-0.23
2021-08-19 05:40:54.344,0.275,-0.225
2021-08-19 05:40:54.348,0.27,-0.205
2021-08-19 05:40:54.352,0.27,-0.18
2021-08-19 05:40:54.356,0.275,-0.17
2021-08-19 05:40:54.360,0.245,-0.16
2021-08-19 05:40:54.364,0.24,-0.17
2021-08-19 05:40:54.368,0.24,-0.155
2021-08-19 05:40:54.372,0.225,-0.125
2021-08-19 05:40:54.376,0.215,-0.11
2021-08-19 05:40:54.380,0.23,-0.135
2021-08-19 05:40:54.384,0.22,-0.125
2021-08-19 05:40:54.388,0.22,-0.125
2021-08-19 05:40:54.392,0.225,-0.12
2021-08-19 05:40:54.396,0.22,-0.12
2021-08-19 05:40:54.400,0.23,-0.12
2021-08-19 05:40:54.404,0.215,-0.135
2021-08-19 05:40:54.408,0.22,-0.145
2021-08-19 05:40:54.412,0.235,-0.12
2021-08-19 05:40:54.416,0.21,-0.125
2021-08-19 05:40:54.420,0.24,-0.14
2021-08-19 05:40:54.424,0.22,-0.16
2021-08-19 05:40:54.428,0.23,-0.15
2021-08-19 05:40:54.432,0.24,-0.15
2021-08-19 05:40:54.436,0.23,-0.155
2021-08-19 05:40:54.440,0.235,-0.16
2021-08-19 05:40:54.444,0.23,-0.14
2021-08-19 05:40:54.448,0.23,-0.15
2021-08-19 05:40:54.452,0.26,-0.15
2021-08-19 05:40:54.456,0.25,-0.155
2021-08-19 05:40:54.460,0.235,-0.14
