Time,ECG1,ECG2
2021-08-19 19:07:08.128,-0.435,0.105
2021-08-19 19:07:08.132,-0.42,0.1
2021-08-19 19:07:08.136,-0.42,0.09
2021-08-19 19:07:08.140,-0.41,0.08
2021-08-19 19:07:08.144,-0.41,0.08
2021-08-19 19:07:08.148,-0.41,0.08
2021-08-19 19:07:08.152,-0.4,0.065
2021-08-19 19:07:08.156,-0.42,0.065
2021-08-19 19:07:08.160,-0.42,0.065
2021-08-19 19:07:08.164,-0.395,0.075
2021-08-19 19:07:08.168,-0.415,0.07
2021-08-19 19:07:08.172,-0.395,0.06
2021-08-19 19:07:08.176,-0.39,0.065
2021-08-19 19:07:08.180,-0.385,0.08
2021-08-19 19:07:08.184,-0.375,0.06
2021-08-19 19:07:08.188,-0.355,0.05
2021-08-19 19:07:08.192,-0.35,0.075
2021-08-19 19:07:08.196,-0.365,0.07
2021-08-19 19:07:08.200,-0.365,0.07
2021-08-19 19:07:08.204,-0.355,0.08
2021-08-19 19:07:08.208,-0.375,0.075
2021-08-19 19:07:08.212,-0.375,0.06
2021-08-19 19:07:08.216,-0.38,0.065
2021-08-19 19:07:08.220,-0.375,0.07
2021-08-19 19:07:08.224,-0.365,0.06
2021-08-19 19:07:08.228,-0.37,0.06
2021-08-19 19:07:08.232,-0.38,0.065
2021-08-19 19:07:08.236,-0.34,0.065
2021-08-19 19:07:08.240,-0.3,0.065
2021-08-19 19:07:08.244,-0.265,0.07
2021-08-19 19:07:08.248,-0.22,0.085
2021-08-19 19:07:08.252,-0.18,0.09
2021-08-19 19:07:08.256,-0.16,0.105
2021-08-19 19:07:08.260,-0.14,0.1
2021-08-19 19:07:08.264,-0.12,0.105
2021-08-19 19:07:08.268,-0.095,0.135
2021-08-19 19:07:08.272,-0.105,0.13
2021-08-19 19:07:08.276,-0.115,0.095
2021-08-19 19:07:08.280,-0.16,0.045
2021-08-19 19:07:08.284,-0.2,0.005
2021-08-19 19:07:08.288,-0.24,-0.025
2021-08-19 19:07:08.292,-0.31,-0.01
2021-08-19 19:07:08.296,-0.365,0.0
2021-08-19 19:07:08.300,-0.42,0.035
2021-08-19 19:07:08.304,-0.43,0.045
2021-08-19 19:07:08.308,-0.465,0.08
2021-08-19 19:07:08.312,-0.48,0.07
2021-08-19 19:07:08.316,-0.475,0.04
2021-08-19 19:07:08.320,-0.48,0.065
2021-08-19 19:07:08.324,-0.48,0.03
2021-08-19 19:07:08.328,-0.48,0.025
2021-08-19 19:07:08.332,-0.48,0.03
2021-08-19 19:07:08.336,-0.445,0.015
2021-08-19 19:07:08.340,-0.455,0.02
2021-08-19 19:07:08.344,-0.445,0.02
2021-08-19 19:07:08.348,-0.455,0.015
2021-08-19 19:07:08.352,-0.46,0.005
2021-08-19 19:07:08.356,-0.465,0.005
2021-08-19 19:07:08.360,-0.48,0.015
2021-08-19 19:07:08.364,-0.48,0.015
2021-08-19 19:07:08.368,-0.465,0.02
2021-08-19 19:07:08.372,-0.47,0.0
2021-08-19 19:07:08.376,-0.45,0.015
2021-08-19 19:07:08.380,-0.44,0.01
2021-08-19 19:07:08.384,-0.44,0.01
2021-08-19 19:07:08.388,-0.455,0.0
2021-08-19 19:07:08.392,-0.46,0.0
2021-08-19 19:07:08.396,-0.46,0.0
2021-08-19 19:07:08.400,-0.445,-0.01
2021-08-19 19:07:08.404,-0.425,-0.005
2021-08-19 19:07:08.408,-0.435,0.0
2021-08-19 19:07:08.412,-0.425,0.0
2021-08-19 19:07:08.416,-0.425,-0.015
2021-08-19 19:07:08.420,-0.405,-0.01
2021-08-19 19:07:08.424,-0.38,-0.01
2021-08-19 19:07:08.428,-0.29,0.0
2021-08-19 19:07:08.432,-0.21,-0.01
2021-08-19 19:07:08.436,-0.115,-0.025
2021-08-19 19:07:08.440,-0.04,-0.05
2021-08-19 19:07:08.444,0.035,-0.09
2021-08-19 19:07:08.448,0.08,-0.19
2021-08-19 19:07:08.452,0.11,-0.235
2021-08-19 19:07:08.456,0.1,-0.32
2021-08-19 19:07:08.460,0.05,-0.49
2021-08-19 19:07:08.464,0.015,-0.66
2021-08-19 19:07:08.468,0.1,-0.89
2021-08-19 19:07:08.472,0.315,-1.17
2021-08-19 19:07:08.476,0.63,-1.505
2021-08-19 19:07:08.480,0.925,-1.805
2021-08-19 19:07:08.488,0.94,-1.99
2021-08-19 19:07:08.492,0.52,-1.63
2021-08-19 19:07:08.496,0.055,-1.085
2021-08-19 19:07:08.500,-0.275,-0.63
2021-08-19 19:07:08.504,-0.395,-0.37
2021-08-19 19:07:08.508,-0.46,-0.2
2021-08-19 19:07:08.512,-0.5,-0.05
2021-08-19 19:07:08.516,-0.475,0.02
2021-08-19 19:07:08.520,-0.505,0.115
2021-08-19 19:07:08.524,-0.525,0.145
2021-08-19 19:07:08.528,-0.52,0.205
2021-08-19 19:07:08.532,-0.52,0.19
2021-08-19 19:07:08.536,-0.525,0.19
2021-08-19 19:07:08.540,-0.545,0.185
2021-08-19 19:07:08.544,-0.535,0.185
2021-08-19 19:07:08.548,-0.525,0.19
2021-08-19 19:07:08.552,-0.525,0.175
2021-08-19 19:07:08.556,-0.52,0.2
2021-08-19 19:07:08.560,-0.51,0.19
2021-08-19 19:07:08.564,-0.51,0.175
2021-08-19 19:07:08.568,-0.5,0.21
2021-08-19 19:07:08.572,-0.51,0.205
2021-08-19 19:07:08.576,-0.515,0.195
2021-08-19 19:07:08.580,-0.525,0.21
2021-08-19 19:07:08.584,-0.52,0.185
2021-08-19 19:07:08.588,-0.52,0.205
2021-08-19 19:07:08.592,-0.525,0.205
2021-08-19 19:07:08.596,-0.535,0.205
2021-08-19 19:07:08.600,-0.515,0.21
2021-08-19 19:07:08.604,-0.545,0.215
2021-08-19 19:07:08.608,-0.545,0.215
2021-08-19 19:07:08.612,-0.54,0.215
2021-08-19 19:07:08.616,-0.55,0.21
2021-08-19 19:07:08.620,-0.54,0.2
2021-08-19 19:07:08.624,-0.535,0.195
2021-08-19 19:07:08.628,-0.535,0.215
2021-08-19 19:07:08.632,-0.53,0.21
2021-08-19 19:07:08.636,-0.52,0.19
2021-08-19 19:07:08.640,-0.535,0.21
2021-08-19 19:07:08.644,-0.55,0.23
2021-08-19 19:07:08.648,-0.54,0.2
2021-08-19 19:07:08.652,-0.505,0.235
2021-08-19 19:07:08.656,-0.515,0.255
2021-08-19 19:07:08.660,-0.495,0.245
2021-08-19 19:07:08.664,-0.475,0.245
2021-08-19 19:07:08.668,-0.47,0.24
2021-08-19 19:07:08.672,-0.47,0.255
2021-08-19 19:07:08.676,-0.46,0.205
2021-08-19 19:07:08.680,-0.43,0.215
2021-08-19 19:07:08.684,-0.42,0.215
2021-08-19 19:07:08.688,-0.43,0.21
2021-08-19 19:07:08.692,-0.44,0.2
2021-08-19 19:07:08.696,-0.425,0.18
2021-08-19 19:07:08.700,-0.405,0.18
2021-08-19 19:07:08.704,-0.415,0.185
2021-08-19 19:07:08.708,-0.4,0.155
2021-08-19 19:07:08.712,-0.405,0.15
2021-08-19 19:07:08.716,-0.365,0.12
2021-08-19 19:07:08.720,-0.35,0.125
2021-08-19 19:07:08.724,-0.355,0.1
2021-08-19 19:07:08.728,-0.34,0.08
2021-08-19 19:07:08.732,-0.355,0.065
2021-08-19 19:07:08.736,-0.345,0.045
2021-08-19 19:07:08.740,-0.35,0.055
2021-08-19 19:07:08.744,-0.35,0.04
2021-08-19 19:07:08.748,-0.32,0.04
2021-08-19 19:07:08.752,-0.315,0.035
2021-08-19 19:07:08.756,-0.315,0.01
2021-08-19 19:07:08.760,-0.305,0.0
2021-08-19 19:07:08.764,-0.265,0.005
2021-08-19 19:07:08.768,-0.275,-0.005
2021-08-19 19:07:08.772,-0.27,-0.01
2021-08-19 19:07:08.776,-0.28,0.0
2021-08-19 19:07:08.780,-0.245,0.0
2021-08-19 19:07:08.784,-0.255,0.0
2021-08-19 19:07:08.788,-0.285,0.0
2021-08-19 19:07:08.792,-0.27,0.0
2021-08-19 19:07:08.796,-0.26,0.0
2021-08-19 19:07:08.800,-0.23,0.015
2021-08-19 19:07:08.804,-0.225,0.01
2021-08-19 19:07:08.808,-0.23,0.0
2021-08-19 19:07:08.812,-0.215,0.015
2021-08-19 19:07:08.816,-0.23,0.025
2021-08-19 19:07:08.820,-0.24,0.02
2021-08-19 19:07:08.824,-0.235,0.025
2021-08-19 19:07:08.828,-0.255,0.035
2021-08-19 19:07:08.832,-0.245,0.04
2021-08-19 19:07:08.836,-0.25,0.035
2021-08-19 19:07:08.840,-0.275,0.03
2021-08-19 19:07:08.844,-0.27,0.04
2021-08-19 19:07:08.848,-0.255,0.04
2021-08-19 19:07:08.852,-0.27,0.035
2021-08-19 19:07:08.856,-0.25,0.04
2021-08-19 19:07:08.860,-0.25,0.035
2021-08-19 19:07:08.864,-0.265,0.04
2021-08-19 19:07:08.868,-0.285,0.01
2021-08-19 19:07:08.872,-0.3,0.01
2021-08-19 19:07:08.876,-0.3,0.0
2021-08-19 19:07:08.880,-0.3,0.03
2021-08-19 19:07:08.884,-0.29,-0.01
2021-08-19 19:07:08.888,-0.29,-0.02
2021-08-19 19:07:08.892,-0.32,-0.03
2021-08-19 19:07:08.896,-0.31,-0.015
2021-08-19 19:07:08.900,-0.285,-0.02
2021-08-19 19:07:08.904,-0.3,-0.005
2021-08-19 19:07:08.908,-0.29,-0.025
2021-08-19 19:07:08.912,-0.285,0.0
2021-08-19 19:07:08.916,-0.31,-0.005
2021-08-19 19:07:08.920,-0.3,-0.02
2021-08-19 19:07:08.924,-0.245,-0.01
2021-08-19 19:07:08.928,-0.23,0.015
2021-08-19 19:07:08.932,-0.225,0.01
2021-08-19 19:07:08.936,-0.205,0.01
2021-08-19 19:07:08.940,-0.215,0.03
2021-08-19 19:07:08.944,-0.195,0.025
2021-08-19 19:07:08.948,-0.205,0.015
2021-08-19 19:07:08.952,-0.195,0.02
2021-08-19 19:07:08.956,-0.195,0.015
2021-08-19 19:07:08.960,-0.17,-0.02
2021-08-19 19:07:08.964,-0.175,-0.035
2021-08-19 19:07:08.968,-0.17,-0.07
2021-08-19 19:07:08.972,-0.2,-0.15
2021-08-19 19:07:08.976,-0.23,-0.145
2021-08-19 19:07:08.980,-0.27,-0.13
2021-08-19 19:07:08.984,-0.315,-0.13
2021-08-19 19:07:08.988,-0.355,-0.115
2021-08-19 19:07:08.992,-0.375,-0.1
2021-08-19 19:07:08.996,-0.395,-0.085
2021-08-19 19:07:09.000,-0.37,-0.045
2021-08-19 19:07:09.004,-0.375,-0.03
2021-08-19 19:07:09.008,-0.36,-0.035
2021-08-19 19:07:09.012,-0.36,-0.04
2021-08-19 19:07:09.016,-0.36,-0.04
2021-08-19 19:07:09.020,-0.36,-0.05
2021-08-19 19:07:09.024,-0.34,-0.075
2021-08-19 19:07:09.028,-0.36,-0.08
2021-08-19 19:07:09.032,-0.37,-0.09
2021-08-19 19:07:09.036,-0.36,-0.095
2021-08-19 19:07:09.040,-0.315,-0.105
2021-08-19 19:07:09.044,-0.345,-0.08
2021-08-19 19:07:09.048,-0.33,-0.06
2021-08-19 19:07:09.052,-0.355,-0.09
2021-08-19 19:07:09.056,-0.32,-0.09
2021-08-19 19:07:09.060,-0.295,-0.085
2021-08-19 19:07:09.064,-0.295,-0.09
2021-08-19 19:07:09.068,-0.3,-0.075
2021-08-19 19:07:09.072,-0.31,-0.075
2021-08-19 19:07:09.076,-0.3,-0.07
2021-08-19 19:07:09.080,-0.295,-0.05
2021-08-19 19:07:09.084,-0.295,-0.06
2021-08-19 19:07:09.088,-0.275,-0.075
2021-08-19 19:07:09.092,-0.21,-0.06
2021-08-19 19:07:09.096,-0.115,-0.075
2021-08-19 19:07:09.100,-0.05,-0.1
2021-08-19 19:07:09.104,0.065,-0.125
2021-08-19 19:07:09.108,0.14,-0.155
2021-08-19 19:07:09.112,0.2,-0.24
2021-08-19 19:07:09.116,0.235,-0.315
2021-08-19 19:07:09.120,0.26,-0.38
2021-08-19 19:07:09.124,0.265,-0.505
2021-08-19 19:07:09.128,0.245,-0.69
2021-08-19 19:07:09.132,0.26,-0.89
2021-08-19 19:07:09.136,0.415,-1.145
2021-08-19 19:07:09.140,0.755,-1.435
2021-08-19 19:07:09.144,1.03,-1.75
2021-08-19 19:07:09.148,1.125,-1.925
2021-08-19 19:07:09.152,0.97,-1.97
2021-08-19 19:07:09.156,0.57,-1.67
2021-08-19 19:07:09.160,0.075,-1.15
2021-08-19 19:07:09.164,-0.215,-0.78
2021-08-19 19:07:09.168,-0.365,-0.535
2021-08-19 19:07:09.172,-0.38,-0.355
2021-08-19 19:07:09.176,-0.395,-0.195
2021-08-19 19:07:09.180,-0.41,-0.07
2021-08-19 19:07:09.184,-0.44,0.045
2021-08-19 19:07:09.188,-0.48,0.08
2021-08-19 19:07:09.192,-0.48,0.095
2021-08-19 19:07:09.196,-0.495,0.095
2021-08-19 19:07:09.200,-0.5,0.095
2021-08-19 19:07:09.204,-0.475,0.08
2021-08-19 19:07:09.208,-0.47,0.1
2021-08-19 19:07:09.212,-0.505,0.1
2021-08-19 19:07:09.216,-0.49,0.115
2021-08-19 19:07:09.220,-0.48,0.115
2021-08-19 19:07:09.224,-0.5,0.115
2021-08-19 19:07:09.228,-0.505,0.09
2021-08-19 19:07:09.232,-0.52,0.1
2021-08-19 19:07:09.236,-0.525,0.11
2021-08-19 19:07:09.240,-0.525,0.115
2021-08-19 19:07:09.244,-0.535,0.115
2021-08-19 19:07:09.248,-0.515,0.095
2021-08-19 19:07:09.252,-0.53,0.115
2021-08-19 19:07:09.256,-0.55,0.105
2021-08-19 19:07:09.260,-0.545,0.115
2021-08-19 19:07:09.264,-0.555,0.115
2021-08-19 19:07:09.268,-0.555,0.105
2021-08-19 19:07:09.272,-0.545,0.12
2021-08-19 19:07:09.276,-0.55,0.135
2021-08-19 19:07:09.280,-0.54,0.11
2021-08-19 19:07:09.284,-0.555,0.145
2021-08-19 19:07:09.288,-0.58,0.15
2021-08-19 19:07:09.292,-0.575,0.145
2021-08-19 19:07:09.296,-0.565,0.14
2021-08-19 19:07:09.300,-0.57,0.155
2021-08-19 19:07:09.304,-0.57,0.18
2021-08-19 19:07:09.308,-0.565,0.16
2021-08-19 19:07:09.312,-0.53,0.175
2021-08-19 19:07:09.316,-0.515,0.165
2021-08-19 19:07:09.320,-0.49,0.175
2021-08-19 19:07:09.324,-0.505,0.165
2021-08-19 19:07:09.328,-0.5,0.17
2021-08-19 19:07:09.332,-0.495,0.18
2021-08-19 19:07:09.336,-0.48,0.17
2021-08-19 19:07:09.340,-0.495,0.17
2021-08-19 19:07:09.344,-0.485,0.16
2021-08-19 19:07:09.348,-0.46,0.15
2021-08-19 19:07:09.352,-0.455,0.155
2021-08-19 19:07:09.356,-0.455,0.155
2021-08-19 19:07:09.360,-0.435,0.115
2021-08-19 19:07:09.364,-0.425,0.12
2021-08-19 19:07:09.368,-0.415,0.09
2021-08-19 19:07:09.372,-0.41,0.055
2021-08-19 19:07:09.376,-0.43,0.05
2021-08-19 19:07:09.380,-0.41,0.035
2021-08-19 19:07:09.384,-0.385,0.015
2021-08-19 19:07:09.388,-0.355,0.0
2021-08-19 19:07:09.392,-0.335,0.0
2021-08-19 19:07:09.396,-0.34,-0.03
2021-08-19 19:07:09.400,-0.34,-0.025
2021-08-19 19:07:09.404,-0.345,-0.04
2021-08-19 19:07:09.408,-0.32,-0.025
2021-08-19 19:07:09.412,-0.3,-0.025
2021-08-19 19:07:09.416,-0.305,-0.02
2021-08-19 19:07:09.420,-0.285,-0.035
2021-08-19 19:07:09.424,-0.27,-0.005
2021-08-19 19:07:09.428,-0.26,-0.01
2021-08-19 19:07:09.432,-0.27,-0.04
2021-08-19 19:07:09.436,-0.255,-0.025
2021-08-19 19:07:09.440,-0.25,-0.005
2021-08-19 19:07:09.444,-0.25,-0.025
2021-08-19 19:07:09.448,-0.25,-0.025
2021-08-19 19:07:09.452,-0.235,-0.005
2021-08-19 19:07:09.456,-0.235,-0.025
2021-08-19 19:07:09.460,-0.225,-0.025
2021-08-19 19:07:09.464,-0.24,0.0
2021-08-19 19:07:09.468,-0.225,0.0
2021-08-19 19:07:09.472,-0.225,0.0
2021-08-19 19:07:09.476,-0.23,-0.01
2021-08-19 19:07:09.480,-0.225,-0.02
2021-08-19 19:07:09.484,-0.235,-0.015
2021-08-19 19:07:09.488,-0.24,-0.005
2021-08-19 19:07:09.492,-0.25,0.01
2021-08-19 19:07:09.496,-0.255,0.01
2021-08-19 19:07:09.500,-0.285,-0.015
2021-08-19 19:07:09.504,-0.275,0.005
2021-08-19 19:07:09.508,-0.285,0.0
2021-08-19 19:07:09.512,-0.28,0.01
2021-08-19 19:07:09.516,-0.26,0.02
2021-08-19 19:07:09.520,-0.265,0.015
2021-08-19 19:07:09.524,-0.26,0.02
2021-08-19 19:07:09.528,-0.24,0.015
2021-08-19 19:07:09.532,-0.22,0.03
2021-08-19 19:07:09.536,-0.2,0.03
2021-08-19 19:07:09.540,-0.19,0.04
2021-08-19 19:07:09.544,-0.2,0.07
2021-08-19 19:07:09.548,-0.185,0.065
2021-08-19 19:07:09.552,-0.185,0.07
2021-08-19 19:07:09.556,-0.16,0.055
2021-08-19 19:07:09.560,-0.175,0.03
2021-08-19 19:07:09.564,-0.17,0.025
2021-08-19 19:07:09.568,-0.14,0.04
2021-08-19 19:07:09.572,-0.13,-0.005
2021-08-19 19:07:09.576,-0.13,-0.045
2021-08-19 19:07:09.580,-0.16,-0.09
2021-08-19 19:07:09.584,-0.195,-0.11
2021-08-19 19:07:09.588,-0.215,-0.11
2021-08-19 19:07:09.592,-0.27,-0.09
2021-08-19 19:07:09.596,-0.295,-0.07
2021-08-19 19:07:09.600,-0.29,-0.04
2021-08-19 19:07:09.604,-0.31,-0.005
2021-08-19 19:07:09.608,-0.33,0.01
2021-08-19 19:07:09.612,-0.315,0.025
2021-08-19 19:07:09.616,-0.305,0.01
2021-08-19 19:07:09.620,-0.32,0.005
2021-08-19 19:07:09.624,-0.33,0.005
2021-08-19 19:07:09.628,-0.31,0.0
2021-08-19 19:07:09.632,-0.315,-0.015
2021-08-19 19:07:09.636,-0.32,-0.025
2021-08-19 19:07:09.640,-0.3,-0.045
2021-08-19 19:07:09.644,-0.315,-0.035
2021-08-19 19:07:09.648,-0.31,-0.025
2021-08-19 19:07:09.652,-0.31,-0.04
2021-08-19 19:07:09.656,-0.295,-0.045
2021-08-19 19:07:09.660,-0.295,-0.055
2021-08-19 19:07:09.664,-0.29,-0.03
2021-08-19 19:07:09.668,-0.27,-0.055
2021-08-19 19:07:09.672,-0.28,-0.045
2021-08-19 19:07:09.676,-0.29,-0.03
2021-08-19 19:07:09.680,-0.295,-0.045
2021-08-19 19:07:09.684,-0.265,-0.04
2021-08-19 19:07:09.688,-0.255,-0.04
2021-08-19 19:07:09.692,-0.225,-0.04
2021-08-19 19:07:09.696,-0.21,-0.02
2021-08-19 19:07:09.700,-0.185,-0.035
2021-08-19 19:07:09.704,-0.115,-0.04
2021-08-19 19:07:09.708,0.005,-0.06
2021-08-19 19:07:09.712,0.095,-0.085
2021-08-19 19:07:09.716,0.165,-0.12
2021-08-19 19:07:09.720,0.235,-0.215
2021-08-19 19:07:09.724,0.285,-0.28
2021-08-19 19:07:09.728,0.305,-0.37
2021-08-19 19:07:09.732,0.26,-0.51
2021-08-19 19:07:09.736,0.255,-0.705
2021-08-19 19:07:09.740,0.29,-0.92
2021-08-19 19:07:09.744,0.505,-1.21
2021-08-19 19:07:09.748,0.845,-1.54
2021-08-19 19:07:09.752,1.11,-1.85
2021-08-19 19:07:09.764,0.44,-1.605
2021-08-19 19:07:09.768,-0.025,-1.065
2021-08-19 19:07:09.772,-0.26,-0.695
2021-08-19 19:07:09.776,-0.365,-0.445
2021-08-19 19:07:09.780,-0.42,-0.275
2021-08-19 19:07:09.784,-0.39,-0.13
2021-08-19 19:07:09.788,-0.4,-0.01
2021-08-19 19:07:09.792,-0.44,0.055
2021-08-19 19:07:09.796,-0.48,0.105
2021-08-19 19:07:09.800,-0.465,0.11
2021-08-19 19:07:09.804,-0.45,0.115
2021-08-19 19:07:09.808,-0.48,0.125
2021-08-19 19:07:09.812,-0.45,0.16
2021-08-19 19:07:09.816,-0.46,0.16
2021-08-19 19:07:09.820,-0.47,0.14
2021-08-19 19:07:09.824,-0.46,0.165
2021-08-19 19:07:09.828,-0.47,0.165
2021-08-19 19:07:09.832,-0.47,0.16
2021-08-19 19:07:09.836,-0.495,0.155
2021-08-19 19:07:09.840,-0.495,0.145
2021-08-19 19:07:09.844,-0.485,0.18
2021-08-19 19:07:09.848,-0.495,0.17
2021-08-19 19:07:09.852,-0.485,0.18
2021-08-19 19:07:09.856,-0.485,0.15
2021-08-19 19:07:09.860,-0.495,0.17
2021-08-19 19:07:09.864,-0.5,0.18
2021-08-19 19:07:09.868,-0.53,0.175
2021-08-19 19:07:09.872,-0.51,0.175
2021-08-19 19:07:09.876,-0.53,0.18
2021-08-19 19:07:09.880,-0.545,0.165
2021-08-19 19:07:09.884,-0.55,0.175
2021-08-19 19:07:09.888,-0.565,0.17
2021-08-19 19:07:09.892,-0.545,0.2
2021-08-19 19:07:09.896,-0.57,0.195
2021-08-19 19:07:09.900,-0.565,0.205
2021-08-19 19:07:09.904,-0.565,0.205
2021-08-19 19:07:09.908,-0.565,0.2
2021-08-19 19:07:09.912,-0.565,0.2
2021-08-19 19:07:09.916,-0.58,0.215
2021-08-19 19:07:09.920,-0.555,0.22
2021-08-19 19:07:09.924,-0.565,0.21
2021-08-19 19:07:09.928,-0.535,0.22
2021-08-19 19:07:09.932,-0.54,0.215
2021-08-19 19:07:09.936,-0.5,0.22
2021-08-19 19:07:09.940,-0.515,0.195
2021-08-19 19:07:09.944,-0.48,0.185
2021-08-19 19:07:09.948,-0.49,0.18
2021-08-19 19:07:09.952,-0.47,0.18
2021-08-19 19:07:09.956,-0.475,0.18
2021-08-19 19:07:09.960,-0.46,0.16
2021-08-19 19:07:09.964,-0.445,0.12
2021-08-19 19:07:09.968,-0.43,0.12
2021-08-19 19:07:09.972,-0.415,0.105
2021-08-19 19:07:09.976,-0.405,0.07
2021-08-19 19:07:09.980,-0.4,0.07
2021-08-19 19:07:09.984,-0.4,0.05
2021-08-19 19:07:09.988,-0.385,0.03
2021-08-19 19:07:09.992,-0.37,0.01
2021-08-19 19:07:09.996,-0.375,-0.02
2021-08-19 19:07:10.000,-0.355,-0.005
2021-08-19 19:07:10.004,-0.325,-0.03
2021-08-19 19:07:10.008,-0.34,-0.04
2021-08-19 19:07:10.012,-0.33,-0.05
2021-08-19 19:07:10.016,-0.32,-0.06
2021-08-19 19:07:10.020,-0.32,-0.06
2021-08-19 19:07:10.024,-0.32,-0.06
2021-08-19 19:07:10.028,-0.29,-0.065
2021-08-19 19:07:10.032,-0.31,-0.07
2021-08-19 19:07:10.036,-0.29,-0.075
2021-08-19 19:07:10.040,-0.28,-0.06
2021-08-19 19:07:10.044,-0.275,-0.065
2021-08-19 19:07:10.048,-0.285,-0.06
2021-08-19 19:07:10.052,-0.285,-0.055
2021-08-19 19:07:10.056,-0.285,-0.055
2021-08-19 19:07:10.060,-0.255,-0.02
2021-08-19 19:07:10.064,-0.255,-0.065
2021-08-19 19:07:10.068,-0.25,-0.05
2021-08-19 19:07:10.072,-0.24,-0.03
2021-08-19 19:07:10.076,-0.25,-0.03
2021-08-19 19:07:10.080,-0.27,-0.025
2021-08-19 19:07:10.084,-0.28,-0.025
2021-08-19 19:07:10.088,-0.265,0.0
2021-08-19 19:07:10.092,-0.25,-0.015
2021-08-19 19:07:10.096,-0.275,-0.015
2021-08-19 19:07:10.100,-0.26,-0.02
2021-08-19 19:07:10.104,-0.26,0.005
2021-08-19 19:07:10.108,-0.29,0.01
2021-08-19 19:07:10.112,-0.295,0.01
2021-08-19 19:07:10.116,-0.31,0.005
2021-08-19 19:07:10.120,-0.295,0.04
2021-08-19 19:07:10.124,-0.31,0.04
2021-08-19 19:07:10.128,-0.305,0.01
2021-08-19 19:07:10.132,-0.27,0.005
2021-08-19 19:07:10.136,-0.24,0.02
2021-08-19 19:07:10.140,-0.24,0.02
2021-08-19 19:07:10.144,-0.225,0.045
2021-08-19 19:07:10.148,-0.22,0.05
2021-08-19 19:07:10.152,-0.235,0.06
2021-08-19 19:07:10.156,-0.225,0.02
2021-08-19 19:07:10.160,-0.22,0.015
2021-08-19 19:07:10.164,-0.21,0.02
2021-08-19 19:07:10.168,-0.21,-0.02
2021-08-19 19:07:10.172,-0.18,-0.02
2021-08-19 19:07:10.176,-0.185,-0.065
2021-08-19 19:07:10.180,-0.215,-0.095
2021-08-19 19:07:10.184,-0.22,-0.13
2021-08-19 19:07:10.188,-0.26,-0.12
2021-08-19 19:07:10.192,-0.28,-0.125
2021-08-19 19:07:10.196,-0.315,-0.105
2021-08-19 19:07:10.200,-0.35,-0.07
2021-08-19 19:07:10.204,-0.365,-0.03
2021-08-19 19:07:10.208,-0.365,0.005
2021-08-19 19:07:10.212,-0.36,0.02
2021-08-19 19:07:10.216,-0.36,0.015
2021-08-19 19:07:10.220,-0.345,0.02
2021-08-19 19:07:10.224,-0.35,0.0
2021-08-19 19:07:10.228,-0.355,0.005
2021-08-19 19:07:10.232,-0.335,-0.015
2021-08-19 19:07:10.236,-0.345,0.0
2021-08-19 19:07:10.240,-0.345,-0.025
2021-08-19 19:07:10.244,-0.345,-0.025
2021-08-19 19:07:10.248,-0.36,-0.03
2021-08-19 19:07:10.252,-0.345,-0.035
2021-08-19 19:07:10.256,-0.36,-0.025
2021-08-19 19:07:10.260,-0.35,-0.04
2021-08-19 19:07:10.264,-0.355,-0.04
2021-08-19 19:07:10.268,-0.35,-0.035
2021-08-19 19:07:10.272,-0.34,-0.055
2021-08-19 19:07:10.276,-0.335,-0.055
2021-08-19 19:07:10.280,-0.34,-0.035
2021-08-19 19:07:10.284,-0.335,-0.065
2021-08-19 19:07:10.288,-0.34,-0.045
2021-08-19 19:07:10.292,-0.33,-0.04
2021-08-19 19:07:10.296,-0.28,-0.03
2021-08-19 19:07:10.300,-0.24,-0.04
2021-08-19 19:07:10.304,-0.165,-0.065
2021-08-19 19:07:10.308,-0.06,-0.09
2021-08-19 19:07:10.312,0.055,-0.105
2021-08-19 19:07:10.316,0.11,-0.14
2021-08-19 19:07:10.320,0.15,-0.185
2021-08-19 19:07:10.324,0.205,-0.28
2021-08-19 19:07:10.328,0.215,-0.37
2021-08-19 19:07:10.332,0.2,-0.5
2021-08-19 19:07:10.336,0.15,-0.67
2021-08-19 19:07:10.340,0.195,-0.895
2021-08-19 19:07:10.344,0.405,-1.16
2021-08-19 19:07:10.348,0.745,-1.47
2021-08-19 19:07:10.352,1.035,-1.785
2021-08-19 19:07:10.360,0.965,-1.985
2021-08-19 19:07:10.364,0.49,-1.655
2021-08-19 19:07:10.368,-0.02,-1.14
2021-08-19 19:07:10.372,-0.305,-0.715
2021-08-19 19:07:10.376,-0.42,-0.505
2021-08-19 19:07:10.380,-0.44,-0.315
2021-08-19 19:07:10.384,-0.445,-0.14
2021-08-19 19:07:10.388,-0.455,-0.01
2021-08-19 19:07:10.392,-0.505,0.06
2021-08-19 19:07:10.396,-0.505,0.075
2021-08-19 19:07:10.400,-0.505,0.1
2021-08-19 19:07:10.404,-0.51,0.105
2021-08-19 19:07:10.408,-0.515,0.125
2021-08-19 19:07:10.412,-0.5,0.135
2021-08-19 19:07:10.416,-0.515,0.125
2021-08-19 19:07:10.420,-0.51,0.125
2021-08-19 19:07:10.424,-0.5,0.145
2021-08-19 19:07:10.428,-0.525,0.145
2021-08-19 19:07:10.432,-0.495,0.165
2021-08-19 19:07:10.436,-0.5,0.145
2021-08-19 19:07:10.440,-0.475,0.15
2021-08-19 19:07:10.444,-0.495,0.175
2021-08-19 19:07:10.448,-0.51,0.165
2021-08-19 19:07:10.452,-0.475,0.17
2021-08-19 19:07:10.456,-0.495,0.195
2021-08-19 19:07:10.460,-0.505,0.195
2021-08-19 19:07:10.464,-0.5,0.19
2021-08-19 19:07:10.468,-0.51,0.19
2021-08-19 19:07:10.472,-0.5,0.2
2021-08-19 19:07:10.476,-0.505,0.21
2021-08-19 19:07:10.480,-0.515,0.19
2021-08-19 19:07:10.484,-0.53,0.175
2021-08-19 19:07:10.488,-0.55,0.195
2021-08-19 19:07:10.492,-0.52,0.215
2021-08-19 19:07:10.496,-0.545,0.225
2021-08-19 19:07:10.500,-0.555,0.215
2021-08-19 19:07:10.504,-0.56,0.21
2021-08-19 19:07:10.508,-0.55,0.22
2021-08-19 19:07:10.512,-0.555,0.21
2021-08-19 19:07:10.516,-0.53,0.21
2021-08-19 19:07:10.520,-0.535,0.235
2021-08-19 19:07:10.524,-0.51,0.245
2021-08-19 19:07:10.528,-0.52,0.22
2021-08-19 19:07:10.532,-0.525,0.195
2021-08-19 19:07:10.536,-0.52,0.2
2021-08-19 19:07:10.540,-0.505,0.215
2021-08-19 19:07:10.544,-0.505,0.22
2021-08-19 19:07:10.548,-0.51,0.205
2021-08-19 19:07:10.552,-0.48,0.215
2021-08-19 19:07:10.556,-0.455,0.215
2021-08-19 19:07:10.560,-0.435,0.19
2021-08-19 19:07:10.564,-0.42,0.175
2021-08-19 19:07:10.568,-0.415,0.17
2021-08-19 19:07:10.572,-0.39,0.15
2021-08-19 19:07:10.576,-0.39,0.125
2021-08-19 19:07:10.580,-0.39,0.12
2021-08-19 19:07:10.584,-0.375,0.105
2021-08-19 19:07:10.588,-0.375,0.095
2021-08-19 19:07:10.592,-0.35,0.055
2021-08-19 19:07:10.596,-0.35,0.05
2021-08-19 19:07:10.600,-0.335,0.06
2021-08-19 19:07:10.604,-0.34,0.035
2021-08-19 19:07:10.608,-0.34,0.04
2021-08-19 19:07:10.612,-0.32,0.015
2021-08-19 19:07:10.616,-0.33,0.03
2021-08-19 19:07:10.620,-0.325,0.0
2021-08-19 19:07:10.624,-0.29,-0.005
2021-08-19 19:07:10.628,-0.29,0.0
2021-08-19 19:07:10.632,-0.28,-0.005
2021-08-19 19:07:10.636,-0.28,-0.01
2021-08-19 19:07:10.640,-0.305,-0.02
2021-08-19 19:07:10.644,-0.28,-0.015
2021-08-19 19:07:10.648,-0.275,-0.005
2021-08-19 19:07:10.652,-0.29,0.0
2021-08-19 19:07:10.656,-0.275,-0.015
2021-08-19 19:07:10.660,-0.265,0.0
2021-08-19 19:07:10.664,-0.29,-0.005
2021-08-19 19:07:10.668,-0.28,-0.005
2021-08-19 19:07:10.672,-0.28,0.01
2021-08-19 19:07:10.676,-0.265,0.0
2021-08-19 19:07:10.680,-0.25,0.03
2021-08-19 19:07:10.684,-0.24,0.005
2021-08-19 19:07:10.688,-0.26,0.04
2021-08-19 19:07:10.692,-0.27,0.015
2021-08-19 19:07:10.696,-0.275,0.01
2021-08-19 19:07:10.700,-0.275,0.035
2021-08-19 19:07:10.704,-0.275,0.04
2021-08-19 19:07:10.708,-0.265,0.065
2021-08-19 19:07:10.712,-0.24,0.065
2021-08-19 19:07:10.716,-0.25,0.065
2021-08-19 19:07:10.720,-0.25,0.06
2021-08-19 19:07:10.724,-0.235,0.06
2021-08-19 19:07:10.728,-0.23,0.07
2021-08-19 19:07:10.732,-0.215,0.065
2021-08-19 19:07:10.736,-0.21,0.095
2021-08-19 19:07:10.740,-0.21,0.105
2021-08-19 19:07:10.744,-0.23,0.075
2021-08-19 19:07:10.748,-0.23,0.045
2021-08-19 19:07:10.752,-0.225,0.05
2021-08-19 19:07:10.756,-0.21,0.03
2021-08-19 19:07:10.760,-0.19,0.01
2021-08-19 19:07:10.764,-0.205,-0.05
2021-08-19 19:07:10.768,-0.24,-0.09
2021-08-19 19:07:10.772,-0.26,-0.095
2021-08-19 19:07:10.776,-0.285,-0.08
2021-08-19 19:07:10.780,-0.32,-0.065
2021-08-19 19:07:10.784,-0.34,-0.08
2021-08-19 19:07:10.788,-0.365,-0.01
2021-08-19 19:07:10.792,-0.375,0.015
2021-08-19 19:07:10.796,-0.36,0.03
2021-08-19 19:07:10.800,-0.37,0.045
2021-08-19 19:07:10.804,-0.355,0.06
2021-08-19 19:07:10.808,-0.33,0.035
2021-08-19 19:07:10.812,-0.33,0.04
2021-08-19 19:07:10.816,-0.325,0.035
2021-08-19 19:07:10.820,-0.345,0.015
2021-08-19 19:07:10.824,-0.32,0.055
2021-08-19 19:07:10.828,-0.355,0.03
2021-08-19 19:07:10.832,-0.35,0.025
2021-08-19 19:07:10.836,-0.325,0.01
2021-08-19 19:07:10.840,-0.3,0.025
2021-08-19 19:07:10.844,-0.325,0.01
2021-08-19 19:07:10.848,-0.32,0.02
2021-08-19 19:07:10.852,-0.32,0.0
2021-08-19 19:07:10.856,-0.315,0.005
2021-08-19 19:07:10.860,-0.33,0.0
2021-08-19 19:07:10.864,-0.33,-0.005
2021-08-19 19:07:10.868,-0.35,0.0
2021-08-19 19:07:10.872,-0.35,0.0
2021-08-19 19:07:10.876,-0.335,0.0
2021-08-19 19:07:10.880,-0.305,-0.02
2021-08-19 19:07:10.884,-0.315,-0.03
2021-08-19 19:07:10.888,-0.255,-0.035
2021-08-19 19:07:10.892,-0.18,-0.03
2021-08-19 19:07:10.896,-0.08,-0.06
2021-08-19 19:07:10.900,0.0,-0.08
2021-08-19 19:07:10.904,0.065,-0.11
2021-08-19 19:07:10.908,0.12,-0.17
2021-08-19 19:07:10.912,0.145,-0.265
2021-08-19 19:07:10.916,0.16,-0.35
2021-08-19 19:07:10.920,0.15,-0.45
2021-08-19 19:07:10.924,0.105,-0.6
2021-08-19 19:07:10.928,0.155,-0.835
2021-08-19 19:07:10.932,0.315,-1.115
2021-08-19 19:07:10.936,0.65,-1.415
2021-08-19 19:07:10.940,0.97,-1.735
2021-08-19 19:07:10.944,1.155,-1.975
2021-08-19 19:07:10.948,1.08,-1.995
2021-08-19 19:07:10.952,0.7,-1.74
2021-08-19 19:07:10.956,0.17,-1.225
2021-08-19 19:07:10.960,-0.205,-0.765
2021-08-19 19:07:10.964,-0.39,-0.5
2021-08-19 19:07:10.968,-0.435,-0.315
2021-08-19 19:07:10.972,-0.455,-0.16
2021-08-19 19:07:10.976,-0.47,-0.025
2021-08-19 19:07:10.980,-0.49,0.045
2021-08-19 19:07:10.984,-0.47,0.105
2021-08-19 19:07:10.988,-0.49,0.155
2021-08-19 19:07:10.992,-0.49,0.14
2021-08-19 19:07:10.996,-0.485,0.145
2021-08-19 19:07:11.000,-0.495,0.135
2021-08-19 19:07:11.004,-0.505,0.135
2021-08-19 19:07:11.008,-0.51,0.125
2021-08-19 19:07:11.012,-0.535,0.14
2021-08-19 19:07:11.016,-0.555,0.125
2021-08-19 19:07:11.020,-0.545,0.115
2021-08-19 19:07:11.024,-0.55,0.14
2021-08-19 19:07:11.028,-0.535,0.15
2021-08-19 19:07:11.032,-0.55,0.155
2021-08-19 19:07:11.036,-0.545,0.14
2021-08-19 19:07:11.040,-0.56,0.165
2021-08-19 19:07:11.044,-0.555,0.155
2021-08-19 19:07:11.048,-0.555,0.15
2021-08-19 19:07:11.052,-0.54,0.175
2021-08-19 19:07:11.056,-0.535,0.17
2021-08-19 19:07:11.060,-0.54,0.165
2021-08-19 19:07:11.064,-0.545,0.165
2021-08-19 19:07:11.068,-0.545,0.165
2021-08-19 19:07:11.072,-0.54,0.2
2021-08-19 19:07:11.076,-0.54,0.195
2021-08-19 19:07:11.080,-0.54,0.205
2021-08-19 19:07:11.084,-0.54,0.21
2021-08-19 19:07:11.088,-0.545,0.225
2021-08-19 19:07:11.092,-0.57,0.21
2021-08-19 19:07:11.096,-0.565,0.21
2021-08-19 19:07:11.100,-0.55,0.24
2021-08-19 19:07:11.104,-0.565,0.22
2021-08-19 19:07:11.108,-0.54,0.23
2021-08-19 19:07:11.112,-0.56,0.24
2021-08-19 19:07:11.116,-0.58,0.21
2021-08-19 19:07:11.120,-0.56,0.21
2021-08-19 19:07:11.124,-0.57,0.235
2021-08-19 19:07:11.128,-0.54,0.205
2021-08-19 19:07:11.132,-0.55,0.2
2021-08-19 19:07:11.136,-0.535,0.19
2021-08-19 19:07:11.140,-0.52,0.17
2021-08-19 19:07:11.144,-0.515,0.155
2021-08-19 19:07:11.148,-0.495,0.15
2021-08-19 19:07:11.152,-0.5,0.14
2021-08-19 19:07:11.156,-0.495,0.115
2021-08-19 19:07:11.160,-0.46,0.115
2021-08-19 19:07:11.164,-0.465,0.115
2021-08-19 19:07:11.168,-0.47,0.105
2021-08-19 19:07:11.172,-0.43,0.09
2021-08-19 19:07:11.176,-0.425,0.055
2021-08-19 19:07:11.180,-0.385,0.065
2021-08-19 19:07:11.184,-0.375,0.05
2021-08-19 19:07:11.188,-0.365,0.045
2021-08-19 19:07:11.192,-0.355,0.02
2021-08-19 19:07:11.196,-0.335,0.01
2021-08-19 19:07:11.200,-0.335,0.005
2021-08-19 19:07:11.204,-0.325,0.0
2021-08-19 19:07:11.208,-0.31,-0.01
2021-08-19 19:07:11.212,-0.32,-0.01
2021-08-19 19:07:11.216,-0.305,0.005
2021-08-19 19:07:11.220,-0.3,0.0
2021-08-19 19:07:11.224,-0.28,-0.005
2021-08-19 19:07:11.228,-0.285,0.01
2021-08-19 19:07:11.232,-0.3,0.0
2021-08-19 19:07:11.236,-0.295,-0.005
2021-08-19 19:07:11.240,-0.325,0.0
2021-08-19 19:07:11.244,-0.305,0.0
2021-08-19 19:07:11.248,-0.325,0.0
2021-08-19 19:07:11.252,-0.32,0.01
2021-08-19 19:07:11.256,-0.31,0.0
2021-08-19 19:07:11.260,-0.295,-0.005
2021-08-19 19:07:11.264,-0.3,0.005
2021-08-19 19:07:11.268,-0.305,0.0
2021-08-19 19:07:11.272,-0.315,0.02
2021-08-19 19:07:11.276,-0.285,0.025
2021-08-19 19:07:11.280,-0.325,0.025
2021-08-19 19:07:11.284,-0.315,0.045
2021-08-19 19:07:11.288,-0.315,0.03
2021-08-19 19:07:11.292,-0.3,0.055
2021-08-19 19:07:11.296,-0.31,0.065
2021-08-19 19:07:11.300,-0.3,0.07
2021-08-19 19:07:11.304,-0.29,0.075
2021-08-19 19:07:11.308,-0.26,0.085
2021-08-19 19:07:11.312,-0.23,0.065
2021-08-19 19:07:11.316,-0.195,0.09
2021-08-19 19:07:11.320,-0.215,0.11
2021-08-19 19:07:11.324,-0.21,0.11
2021-08-19 19:07:11.328,-0.22,0.1
2021-08-19 19:07:11.332,-0.215,0.085
2021-08-19 19:07:11.336,-0.215,0.09
2021-08-19 19:07:11.340,-0.215,0.045
2021-08-19 19:07:11.344,-0.185,0.03
2021-08-19 19:07:11.348,-0.195,-0.015
2021-08-19 19:07:11.352,-0.205,-0.065
2021-08-19 19:07:11.356,-0.235,-0.07
2021-08-19 19:07:11.360,-0.28,-0.07
2021-08-19 19:07:11.364,-0.315,-0.065
2021-08-19 19:07:11.368,-0.33,-0.055
2021-08-19 19:07:11.372,-0.355,-0.01
2021-08-19 19:07:11.376,-0.36,0.01
2021-08-19 19:07:11.380,-0.35,0.055
2021-08-19 19:07:11.384,-0.345,0.035
2021-08-19 19:07:11.388,-0.35,0.055
2021-08-19 19:07:11.392,-0.365,0.055
2021-08-19 19:07:11.396,-0.355,0.07
2021-08-19 19:07:11.400,-0.355,0.035
2021-08-19 19:07:11.404,-0.35,0.035
2021-08-19 19:07:11.408,-0.345,0.02
2021-08-19 19:07:11.412,-0.355,0.05
2021-08-19 19:07:11.416,-0.345,0.015
2021-08-19 19:07:11.420,-0.33,0.025
2021-08-19 19:07:11.424,-0.32,0.03
2021-08-19 19:07:11.428,-0.33,0.015
2021-08-19 19:07:11.432,-0.315,0.03
2021-08-19 19:07:11.436,-0.315,0.035
2021-08-19 19:07:11.440,-0.33,0.01
2021-08-19 19:07:11.444,-0.32,0.025
2021-08-19 19:07:11.448,-0.315,0.01
2021-08-19 19:07:11.452,-0.31,0.02
2021-08-19 19:07:11.456,-0.32,0.02
2021-08-19 19:07:11.460,-0.305,0.015
2021-08-19 19:07:11.464,-0.285,0.015
2021-08-19 19:07:11.468,-0.28,0.045
2021-08-19 19:07:11.472,-0.245,0.03
2021-08-19 19:07:11.476,-0.17,0.025
2021-08-19 19:07:11.480,-0.085,0.01
2021-08-19 19:07:11.484,-0.015,-0.015
2021-08-19 19:07:11.488,0.06,-0.05
2021-08-19 19:07:11.492,0.12,-0.115
2021-08-19 19:07:11.496,0.15,-0.18
2021-08-19 19:07:11.500,0.175,-0.26
2021-08-19 19:07:11.504,0.175,-0.355
2021-08-19 19:07:11.508,0.155,-0.505
2021-08-19 19:07:11.512,0.145,-0.7
2021-08-19 19:07:11.516,0.25,-0.935
2021-08-19 19:07:11.520,0.53,-1.215
2021-08-19 19:07:11.524,0.85,-1.52
2021-08-19 19:07:11.528,1.095,-1.795
2021-08-19 19:07:11.532,1.14,-1.95
2021-08-19 19:07:11.536,0.88,-1.8
2021-08-19 19:07:11.540,0.395,-1.385
2021-08-19 19:07:11.544,-0.06,-0.875
2021-08-19 19:07:11.548,-0.31,-0.51
2021-08-19 19:07:11.552,-0.405,-0.32
2021-08-19 19:07:11.556,-0.42,-0.145
2021-08-19 19:07:11.560,-0.435,-0.01
2021-08-19 19:07:11.564,-0.425,0.085
2021-08-19 19:07:11.568,-0.43,0.145
2021-08-19 19:07:11.572,-0.425,0.185
2021-08-19 19:07:11.576,-0.43,0.185
2021-08-19 19:07:11.580,-0.46,0.22
2021-08-19 19:07:11.584,-0.455,0.2
2021-08-19 19:07:11.588,-0.45,0.21
2021-08-19 19:07:11.592,-0.46,0.225
2021-08-19 19:07:11.596,-0.48,0.225
2021-08-19 19:07:11.600,-0.505,0.23
2021-08-19 19:07:11.604,-0.495,0.235
2021-08-19 19:07:11.608,-0.475,0.225
2021-08-19 19:07:11.612,-0.51,0.24
2021-08-19 19:07:11.616,-0.5,0.22
2021-08-19 19:07:11.620,-0.505,0.23
2021-08-19 19:07:11.624,-0.51,0.25
2021-08-19 19:07:11.628,-0.515,0.23
2021-08-19 19:07:11.632,-0.535,0.245
2021-08-19 19:07:11.636,-0.525,0.225
2021-08-19 19:07:11.640,-0.53,0.235
2021-08-19 19:07:11.644,-0.55,0.235
2021-08-19 19:07:11.648,-0.555,0.21
2021-08-19 19:07:11.652,-0.535,0.245
2021-08-19 19:07:11.656,-0.54,0.23
2021-08-19 19:07:11.660,-0.55,0.255
2021-08-19 19:07:11.664,-0.545,0.245
2021-08-19 19:07:11.668,-0.55,0.27
2021-08-19 19:07:11.672,-0.545,0.25
2021-08-19 19:07:11.676,-0.56,0.27
2021-08-19 19:07:11.680,-0.545,0.28
2021-08-19 19:07:11.684,-0.545,0.26
2021-08-19 19:07:11.688,-0.535,0.27
2021-08-19 19:07:11.692,-0.51,0.28
2021-08-19 19:07:11.696,-0.53,0.275
2021-08-19 19:07:11.700,-0.51,0.29
2021-08-19 19:07:11.704,-0.515,0.295
2021-08-19 19:07:11.708,-0.505,0.285
2021-08-19 19:07:11.712,-0.495,0.285
2021-08-19 19:07:11.716,-0.51,0.28
2021-08-19 19:07:11.720,-0.485,0.27
2021-08-19 19:07:11.724,-0.475,0.265
2021-08-19 19:07:11.728,-0.48,0.24
2021-08-19 19:07:11.732,-0.47,0.21
2021-08-19 19:07:11.736,-0.45,0.215
2021-08-19 19:07:11.740,-0.48,0.195
2021-08-19 19:07:11.744,-0.455,0.18
2021-08-19 19:07:11.748,-0.43,0.155
2021-08-19 19:07:11.752,-0.415,0.145
2021-08-19 19:07:11.756,-0.4,0.135
2021-08-19 19:07:11.760,-0.385,0.095
2021-08-19 19:07:11.764,-0.385,0.095
2021-08-19 19:07:11.768,-0.38,0.075
2021-08-19 19:07:11.772,-0.365,0.05
2021-08-19 19:07:11.776,-0.36,0.075
2021-08-19 19:07:11.780,-0.35,0.05
2021-08-19 19:07:11.784,-0.33,0.05
2021-08-19 19:07:11.788,-0.335,0.045
2021-08-19 19:07:11.792,-0.335,0.04
2021-08-19 19:07:11.796,-0.32,0.03
2021-08-19 19:07:11.800,-0.32,0.025
2021-08-19 19:07:11.804,-0.3,0.02
2021-08-19 19:07:11.808,-0.29,0.02
2021-08-19 19:07:11.812,-0.275,0.005
2021-08-19 19:07:11.816,-0.24,0.02
2021-08-19 19:07:11.820,-0.265,0.01
2021-08-19 19:07:11.824,-0.275,0.02
2021-08-19 19:07:11.828,-0.26,0.03
2021-08-19 19:07:11.832,-0.25,0.035
2021-08-19 19:07:11.836,-0.265,0.04
2021-08-19 19:07:11.840,-0.25,0.055
2021-08-19 19:07:11.844,-0.24,0.05
2021-08-19 19:07:11.848,-0.245,0.045
2021-08-19 19:07:11.852,-0.25,0.04
2021-08-19 19:07:11.856,-0.285,0.04
2021-08-19 19:07:11.860,-0.275,0.055
2021-08-19 19:07:11.864,-0.3,0.065
2021-08-19 19:07:11.868,-0.285,0.065
2021-08-19 19:07:11.872,-0.275,0.055
2021-08-19 19:07:11.876,-0.265,0.065
2021-08-19 19:07:11.880,-0.265,0.08
2021-08-19 19:07:11.884,-0.265,0.07
2021-08-19 19:07:11.888,-0.25,0.065
2021-08-19 19:07:11.892,-0.22,0.08
2021-08-19 19:07:11.896,-0.205,0.095
2021-08-19 19:07:11.900,-0.205,0.11
2021-08-19 19:07:11.904,-0.23,0.095
2021-08-19 19:07:11.908,-0.23,0.09
2021-08-19 19:07:11.912,-0.23,0.08
2021-08-19 19:07:11.916,-0.235,0.06
2021-08-19 19:07:11.920,-0.215,0.085
2021-08-19 19:07:11.924,-0.21,0.05
2021-08-19 19:07:11.928,-0.195,0.0
2021-08-19 19:07:11.932,-0.205,-0.045
2021-08-19 19:07:11.936,-0.265,-0.055
2021-08-19 19:07:11.940,-0.275,-0.05
2021-08-19 19:07:11.944,-0.275,-0.045
2021-08-19 19:07:11.948,-0.315,-0.04
2021-08-19 19:07:11.952,-0.35,-0.005
2021-08-19 19:07:11.956,-0.36,0.035
2021-08-19 19:07:11.960,-0.335,0.045
2021-08-19 19:07:11.964,-0.35,0.055
2021-08-19 19:07:11.968,-0.365,0.055
2021-08-19 19:07:11.972,-0.355,0.045
2021-08-19 19:07:11.976,-0.345,0.06
2021-08-19 19:07:11.980,-0.34,0.045
2021-08-19 19:07:11.984,-0.345,0.025
2021-08-19 19:07:11.988,-0.34,0.015
2021-08-19 19:07:11.992,-0.35,0.015
2021-08-19 19:07:11.996,-0.34,0.01
2021-08-19 19:07:12.000,-0.345,0.0
2021-08-19 19:07:12.004,-0.35,0.015
2021-08-19 19:07:12.008,-0.37,0.01
2021-08-19 19:07:12.012,-0.35,-0.005
2021-08-19 19:07:12.016,-0.35,-0.02
2021-08-19 19:07:12.020,-0.365,-0.01
2021-08-19 19:07:12.024,-0.345,-0.025
2021-08-19 19:07:12.028,-0.355,-0.035
2021-08-19 19:07:12.032,-0.345,-0.025
2021-08-19 19:07:12.036,-0.355,-0.01
2021-08-19 19:07:12.040,-0.34,-0.02
2021-08-19 19:07:12.044,-0.335,-0.025
2021-08-19 19:07:12.048,-0.315,-0.03
2021-08-19 19:07:12.052,-0.3,-0.02
2021-08-19 19:07:12.056,-0.235,-0.03
2021-08-19 19:07:12.060,-0.135,-0.03
2021-08-19 19:07:12.064,-0.035,-0.045
2021-08-19 19:07:12.068,0.02,-0.095
2021-08-19 19:07:12.072,0.09,-0.145
2021-08-19 19:07:12.076,0.105,-0.23
2021-08-19 19:07:12.080,0.12,-0.3
2021-08-19 19:07:12.084,0.1,-0.39
2021-08-19 19:07:12.088,0.08,-0.555
2021-08-19 19:07:12.092,0.075,-0.76
2021-08-19 19:07:12.096,0.21,-1.01
2021-08-19 19:07:12.100,0.48,-1.3
2021-08-19 19:07:12.104,0.82,-1.645
2021-08-19 19:07:12.108,1.05,-1.89
2021-08-19 19:07:12.112,1.035,-1.99
2021-08-19 19:07:12.116,0.745,-1.815
2021-08-19 19:07:12.120,0.24,-1.355
2021-08-19 19:07:12.124,-0.195,-0.855
2021-08-19 19:07:12.128,-0.41,-0.535
2021-08-19 19:07:12.132,-0.475,-0.36
2021-08-19 19:07:12.136,-0.505,-0.205
2021-08-19 19:07:12.140,-0.5,-0.035
2021-08-19 19:07:12.144,-0.525,0.02
2021-08-19 19:07:12.148,-0.505,0.075
2021-08-19 19:07:12.152,-0.515,0.135
2021-08-19 19:07:12.156,-0.545,0.15
2021-08-19 19:07:12.160,-0.54,0.145
2021-08-19 19:07:12.164,-0.545,0.12
2021-08-19 19:07:12.168,-0.54,0.135
2021-08-19 19:07:12.172,-0.54,0.135
2021-08-19 19:07:12.176,-0.545,0.135
2021-08-19 19:07:12.180,-0.545,0.145
2021-08-19 19:07:12.184,-0.52,0.16
2021-08-19 19:07:12.188,-0.53,0.165
2021-08-19 19:07:12.192,-0.525,0.175
2021-08-19 19:07:12.196,-0.53,0.16
2021-08-19 19:07:12.200,-0.545,0.18
2021-08-19 19:07:12.204,-0.54,0.18
2021-08-19 19:07:12.208,-0.54,0.2
2021-08-19 19:07:12.212,-0.54,0.185
2021-08-19 19:07:12.216,-0.54,0.19
2021-08-19 19:07:12.220,-0.56,0.205
2021-08-19 19:07:12.224,-0.565,0.185
2021-08-19 19:07:12.228,-0.585,0.185
2021-08-19 19:07:12.232,-0.565,0.205
2021-08-19 19:07:12.236,-0.59,0.19
2021-08-19 19:07:12.240,-0.58,0.2
2021-08-19 19:07:12.244,-0.585,0.21
2021-08-19 19:07:12.248,-0.61,0.215
2021-08-19 19:07:12.252,-0.6,0.195
2021-08-19 19:07:12.256,-0.59,0.21
2021-08-19 19:07:12.260,-0.62,0.21
2021-08-19 19:07:12.264,-0.615,0.21
2021-08-19 19:07:12.268,-0.62,0.195
2021-08-19 19:07:12.272,-0.595,0.215
2021-08-19 19:07:12.276,-0.595,0.21
2021-08-19 19:07:12.280,-0.59,0.22
2021-08-19 19:07:12.284,-0.59,0.21
2021-08-19 19:07:12.288,-0.57,0.21
2021-08-19 19:07:12.292,-0.57,0.195
2021-08-19 19:07:12.296,-0.575,0.21
2021-08-19 19:07:12.300,-0.57,0.185
2021-08-19 19:07:12.304,-0.545,0.175
2021-08-19 19:07:12.308,-0.52,0.185
2021-08-19 19:07:12.312,-0.52,0.165
2021-08-19 19:07:12.316,-0.505,0.145
2021-08-19 19:07:12.320,-0.51,0.15
2021-08-19 19:07:12.324,-0.495,0.15
2021-08-19 19:07:12.328,-0.475,0.125
2021-08-19 19:07:12.332,-0.47,0.11
2021-08-19 19:07:12.336,-0.445,0.09
2021-08-19 19:07:12.340,-0.46,0.085
2021-08-19 19:07:12.344,-0.435,0.06
2021-08-19 19:07:12.348,-0.415,0.035
2021-08-19 19:07:12.352,-0.405,0.04
2021-08-19 19:07:12.356,-0.4,0.04
2021-08-19 19:07:12.360,-0.395,0.01
2021-08-19 19:07:12.364,-0.395,0.015
2021-08-19 19:07:12.368,-0.385,0.015
2021-08-19 19:07:12.372,-0.385,0.02
2021-08-19 19:07:12.376,-0.385,0.0
2021-08-19 19:07:12.380,-0.355,-0.015
2021-08-19 19:07:12.384,-0.36,-0.02
2021-08-19 19:07:12.388,-0.36,-0.015
2021-08-19 19:07:12.392,-0.335,-0.005
2021-08-19 19:07:12.396,-0.345,0.0
2021-08-19 19:07:12.400,-0.34,-0.005
2021-08-19 19:07:12.404,-0.35,0.01
2021-08-19 19:07:12.408,-0.335,0.0
2021-08-19 19:07:12.412,-0.34,0.0
2021-08-19 19:07:12.416,-0.33,0.01
2021-08-19 19:07:12.420,-0.32,0.01
2021-08-19 19:07:12.424,-0.3,0.03
2021-08-19 19:07:12.428,-0.33,0.015
2021-08-19 19:07:12.432,-0.3,0.03
2021-08-19 19:07:12.436,-0.31,0.04
2021-08-19 19:07:12.440,-0.32,0.06
2021-08-19 19:07:12.444,-0.31,0.05
2021-08-19 19:07:12.448,-0.32,0.055
2021-08-19 19:07:12.452,-0.31,0.065
2021-08-19 19:07:12.456,-0.32,0.075
2021-08-19 19:07:12.460,-0.31,0.07
2021-08-19 19:07:12.464,-0.3,0.08
2021-08-19 19:07:12.468,-0.28,0.08
2021-08-19 19:07:12.472,-0.275,0.09
2021-08-19 19:07:12.476,-0.29,0.075
2021-08-19 19:07:12.480,-0.265,0.09
2021-08-19 19:07:12.484,-0.245,0.09
2021-08-19 19:07:12.488,-0.225,0.115
2021-08-19 19:07:12.492,-0.24,0.1
2021-08-19 19:07:12.496,-0.255,0.1
2021-08-19 19:07:12.500,-0.26,0.105
2021-08-19 19:07:12.504,-0.265,0.085
2021-08-19 19:07:12.508,-0.24,0.05
2021-08-19 19:07:12.512,-0.21,0.045
2021-08-19 19:07:12.516,-0.22,-0.02
2021-08-19 19:07:12.520,-0.24,-0.06
2021-08-19 19:07:12.524,-0.275,-0.08
2021-08-19 19:07:12.528,-0.295,-0.095
2021-08-19 19:07:12.532,-0.355,-0.065
2021-08-19 19:07:12.536,-0.365,-0.055
2021-08-19 19:07:12.540,-0.39,-0.03
2021-08-19 19:07:12.544,-0.405,0.0
2021-08-19 19:07:12.548,-0.42,0.04
2021-08-19 19:07:12.552,-0.39,0.075
2021-08-19 19:07:12.556,-0.38,0.06
2021-08-19 19:07:12.560,-0.365,0.04
2021-08-19 19:07:12.564,-0.34,0.07
2021-08-19 19:07:12.568,-0.35,0.055
2021-08-19 19:07:12.572,-0.355,0.045
2021-08-19 19:07:12.576,-0.345,0.035
2021-08-19 19:07:12.580,-0.375,0.035
2021-08-19 19:07:12.584,-0.35,0.03
2021-08-19 19:07:12.588,-0.36,0.04
2021-08-19 19:07:12.592,-0.365,0.035
2021-08-19 19:07:12.596,-0.365,0.025
2021-08-19 19:07:12.600,-0.345,0.025
2021-08-19 19:07:12.604,-0.365,0.015
2021-08-19 19:07:12.608,-0.35,0.015
2021-08-19 19:07:12.612,-0.355,0.03
2021-08-19 19:07:12.616,-0.37,0.035
2021-08-19 19:07:12.620,-0.38,0.01
2021-08-19 19:07:12.624,-0.39,0.005
2021-08-19 19:07:12.628,-0.36,0.0
2021-08-19 19:07:12.632,-0.35,0.0
2021-08-19 19:07:12.636,-0.33,0.0
2021-08-19 19:07:12.640,-0.29,0.0
2021-08-19 19:07:12.644,-0.25,-0.02
2021-08-19 19:07:12.648,-0.16,-0.01
2021-08-19 19:07:12.652,-0.075,-0.06
2021-08-19 19:07:12.656,0.0,-0.08
2021-08-19 19:07:12.660,0.045,-0.16
2021-08-19 19:07:12.664,0.08,-0.23
2021-08-19 19:07:12.668,0.09,-0.3
2021-08-19 19:07:12.672,0.05,-0.395
2021-08-19 19:07:12.676,0.015,-0.56
2021-08-19 19:07:12.680,0.045,-0.745
2021-08-19 19:07:12.684,0.18,-0.99
2021-08-19 19:07:12.688,0.47,-1.305
2021-08-19 19:07:12.692,0.83,-1.62
2021-08-19 19:07:12.696,1.035,-1.89
2021-08-19 19:07:12.700,1.005,-1.98
2021-08-19 19:07:12.704,0.7,-1.755
2021-08-19 19:07:12.708,0.2,-1.275
2021-08-19 19:07:12.712,-0.215,-0.775
2021-08-19 19:07:12.716,-0.395,-0.45
2021-08-19 19:07:12.720,-0.475,-0.255
2021-08-19 19:07:12.724,-0.5,-0.09
2021-08-19 19:07:12.728,-0.495,0.015
2021-08-19 19:07:12.732,-0.515,0.105
2021-08-19 19:07:12.736,-0.525,0.165
2021-08-19 19:07:12.740,-0.55,0.18
2021-08-19 19:07:12.744,-0.555,0.185
2021-08-19 19:07:12.748,-0.585,0.21
2021-08-19 19:07:12.752,-0.555,0.185
2021-08-19 19:07:12.756,-0.54,0.165
2021-08-19 19:07:12.760,-0.565,0.18
2021-08-19 19:07:12.764,-0.57,0.165
2021-08-19 19:07:12.768,-0.56,0.16
2021-08-19 19:07:12.772,-0.57,0.165
2021-08-19 19:07:12.776,-0.58,0.185
2021-08-19 19:07:12.780,-0.57,0.155
2021-08-19 19:07:12.784,-0.575,0.18
2021-08-19 19:07:12.788,-0.58,0.18
2021-08-19 19:07:12.792,-0.565,0.19
2021-08-19 19:07:12.796,-0.58,0.21
2021-08-19 19:07:12.800,-0.56,0.205
2021-08-19 19:07:12.804,-0.575,0.195
2021-08-19 19:07:12.808,-0.555,0.205
2021-08-19 19:07:12.812,-0.565,0.23
2021-08-19 19:07:12.816,-0.57,0.19
2021-08-19 19:07:12.820,-0.57,0.22
2021-08-19 19:07:12.824,-0.595,0.225
2021-08-19 19:07:12.828,-0.575,0.23
2021-08-19 19:07:12.832,-0.58,0.26
2021-08-19 19:07:12.836,-0.605,0.225
2021-08-19 19:07:12.840,-0.585,0.25
2021-08-19 19:07:12.844,-0.565,0.235
2021-08-19 19:07:12.848,-0.575,0.235
2021-08-19 19:07:12.852,-0.59,0.255
2021-08-19 19:07:12.856,-0.595,0.24
2021-08-19 19:07:12.860,-0.595,0.26
2021-08-19 19:07:12.864,-0.59,0.235
2021-08-19 19:07:12.868,-0.61,0.255
2021-08-19 19:07:12.872,-0.6,0.24
2021-08-19 19:07:12.876,-0.575,0.24
2021-08-19 19:07:12.880,-0.58,0.215
2021-08-19 19:07:12.884,-0.56,0.215
2021-08-19 19:07:12.888,-0.56,0.21
2021-08-19 19:07:12.892,-0.55,0.21
2021-08-19 19:07:12.896,-0.52,0.185
2021-08-19 19:07:12.900,-0.53,0.185
2021-08-19 19:07:12.904,-0.545,0.165
2021-08-19 19:07:12.908,-0.51,0.16
2021-08-19 19:07:12.912,-0.515,0.13
2021-08-19 19:07:12.916,-0.505,0.12
2021-08-19 19:07:12.920,-0.495,0.1
2021-08-19 19:07:12.924,-0.495,0.08
2021-08-19 19:07:12.928,-0.475,0.095
2021-08-19 19:07:12.932,-0.465,0.065
2021-08-19 19:07:12.936,-0.435,0.07
2021-08-19 19:07:12.940,-0.415,0.05
2021-08-19 19:07:12.944,-0.395,0.04
2021-08-19 19:07:12.948,-0.38,0.03
2021-08-19 19:07:12.952,-0.39,0.035
2021-08-19 19:07:12.956,-0.395,0.02
2021-08-19 19:07:12.960,-0.385,0.045
2021-08-19 19:07:12.964,-0.38,0.02
2021-08-19 19:07:12.968,-0.365,0.01
2021-08-19 19:07:12.972,-0.37,0.01
2021-08-19 19:07:12.976,-0.35,0.04
2021-08-19 19:07:12.980,-0.355,0.025
2021-08-19 19:07:12.984,-0.37,0.01
2021-08-19 19:07:12.988,-0.355,0.015
2021-08-19 19:07:12.992,-0.37,0.01
2021-08-19 19:07:12.996,-0.345,0.01
2021-08-19 19:07:13.000,-0.34,0.015
2021-08-19 19:07:13.004,-0.35,0.02
2021-08-19 19:07:13.008,-0.37,0.0
2021-08-19 19:07:13.012,-0.36,0.02
2021-08-19 19:07:13.016,-0.355,0.015
2021-08-19 19:07:13.020,-0.37,0.01
2021-08-19 19:07:13.024,-0.37,0.03
2021-08-19 19:07:13.028,-0.38,0.035
2021-08-19 19:07:13.032,-0.365,0.035
2021-08-19 19:07:13.036,-0.365,0.05
2021-08-19 19:07:13.040,-0.375,0.05
2021-08-19 19:07:13.044,-0.36,0.02
2021-08-19 19:07:13.048,-0.375,0.05
2021-08-19 19:07:13.052,-0.38,0.025
2021-08-19 19:07:13.056,-0.375,0.035
2021-08-19 19:07:13.060,-0.365,0.045
2021-08-19 19:07:13.064,-0.345,0.045
2021-08-19 19:07:13.068,-0.32,0.05
2021-08-19 19:07:13.072,-0.335,0.055
2021-08-19 19:07:13.076,-0.33,0.075
2021-08-19 19:07:13.080,-0.32,0.075
2021-08-19 19:07:13.084,-0.3,0.065
2021-08-19 19:07:13.088,-0.27,0.06
2021-08-19 19:07:13.092,-0.25,0.08
2021-08-19 19:07:13.096,-0.245,0.085
2021-08-19 19:07:13.100,-0.275,0.07
2021-08-19 19:07:13.104,-0.27,0.045
2021-08-19 19:07:13.108,-0.27,0.06
2021-08-19 19:07:13.112,-0.28,0.03
2021-08-19 19:07:13.116,-0.255,0.03
2021-08-19 19:07:13.120,-0.255,-0.005
2021-08-19 19:07:13.124,-0.255,-0.06
2021-08-19 19:07:13.128,-0.3,-0.1
2021-08-19 19:07:13.132,-0.31,-0.11
2021-08-19 19:07:13.136,-0.355,-0.11
2021-08-19 19:07:13.140,-0.395,-0.085
2021-08-19 19:07:13.144,-0.42,-0.055
2021-08-19 19:07:13.148,-0.435,-0.03
2021-08-19 19:07:13.152,-0.435,0.005
2021-08-19 19:07:13.156,-0.42,0.03
2021-08-19 19:07:13.160,-0.435,0.045
2021-08-19 19:07:13.164,-0.435,0.03
2021-08-19 19:07:13.168,-0.415,0.045
2021-08-19 19:07:13.172,-0.405,0.055
2021-08-19 19:07:13.176,-0.395,0.03
2021-08-19 19:07:13.180,-0.375,0.01
2021-08-19 19:07:13.184,-0.385,0.02
2021-08-19 19:07:13.188,-0.36,0.01
2021-08-19 19:07:13.192,-0.37,0.02
2021-08-19 19:07:13.196,-0.4,0.025
2021-08-19 19:07:13.200,-0.39,0.005
2021-08-19 19:07:13.204,-0.38,-0.005
2021-08-19 19:07:13.208,-0.37,-0.01
2021-08-19 19:07:13.212,-0.38,0.005
2021-08-19 19:07:13.216,-0.36,0.01
2021-08-19 19:07:13.220,-0.36,0.005
2021-08-19 19:07:13.224,-0.38,0.0
2021-08-19 19:07:13.228,-0.355,0.0
2021-08-19 19:07:13.232,-0.365,0.0
2021-08-19 19:07:13.236,-0.37,0.0
2021-08-19 19:07:13.240,-0.345,-0.025
2021-08-19 19:07:13.244,-0.31,-0.015
2021-08-19 19:07:13.248,-0.255,-0.02
2021-08-19 19:07:13.252,-0.16,-0.01
2021-08-19 19:07:13.256,-0.07,-0.06
2021-08-19 19:07:13.260,0.02,-0.075
2021-08-19 19:07:13.264,0.075,-0.15
2021-08-19 19:07:13.268,0.125,-0.215
2021-08-19 19:07:13.272,0.135,-0.3
2021-08-19 19:07:13.276,0.115,-0.385
2021-08-19 19:07:13.280,0.085,-0.52
2021-08-19 19:07:13.284,0.045,-0.705
2021-08-19 19:07:13.288,0.115,-0.97
2021-08-19 19:07:13.292,0.38,-1.23
2021-08-19 19:07:13.296,0.73,-1.555
2021-08-19 19:07:13.300,1.01,-1.87
2021-08-19 19:07:13.308,0.87,-1.98
2021-08-19 19:07:13.312,0.4,-1.52
2021-08-19 19:07:13.316,-0.04,-0.965
2021-08-19 19:07:13.320,-0.285,-0.545
2021-08-19 19:07:13.324,-0.385,-0.31
2021-08-19 19:07:13.328,-0.405,-0.15
2021-08-19 19:07:13.332,-0.415,-0.03
2021-08-19 19:07:13.336,-0.44,0.045
2021-08-19 19:07:13.340,-0.465,0.115
2021-08-19 19:07:13.344,-0.47,0.16
2021-08-19 19:07:13.348,-0.48,0.165
2021-08-19 19:07:13.352,-0.495,0.185
2021-08-19 19:07:13.356,-0.505,0.165
2021-08-19 19:07:13.360,-0.525,0.145
2021-08-19 19:07:13.364,-0.53,0.165
2021-08-19 19:07:13.368,-0.51,0.15
2021-08-19 19:07:13.372,-0.54,0.145
2021-08-19 19:07:13.376,-0.54,0.155
2021-08-19 19:07:13.380,-0.53,0.155
2021-08-19 19:07:13.384,-0.51,0.16
2021-08-19 19:07:13.388,-0.53,0.145
2021-08-19 19:07:13.392,-0.54,0.165
2021-08-19 19:07:13.396,-0.54,0.17
2021-08-19 19:07:13.400,-0.535,0.17
2021-08-19 19:07:13.404,-0.545,0.17
2021-08-19 19:07:13.408,-0.54,0.165
2021-08-19 19:07:13.412,-0.535,0.165
2021-08-19 19:07:13.416,-0.52,0.18
2021-08-19 19:07:13.420,-0.515,0.195
2021-08-19 19:07:13.424,-0.54,0.205
2021-08-19 19:07:13.428,-0.57,0.195
2021-08-19 19:07:13.432,-0.525,0.18
2021-08-19 19:07:13.436,-0.53,0.21
2021-08-19 19:07:13.440,-0.53,0.23
2021-08-19 19:07:13.444,-0.525,0.235
2021-08-19 19:07:13.448,-0.535,0.21
2021-08-19 19:07:13.452,-0.535,0.225
2021-08-19 19:07:13.456,-0.525,0.21
2021-08-19 19:07:13.460,-0.525,0.22
2021-08-19 19:07:13.464,-0.54,0.23
2021-08-19 19:07:13.468,-0.55,0.225
2021-08-19 19:07:13.472,-0.545,0.23
2021-08-19 19:07:13.476,-0.53,0.22
2021-08-19 19:07:13.480,-0.52,0.215
2021-08-19 19:07:13.484,-0.545,0.205
2021-08-19 19:07:13.488,-0.505,0.23
2021-08-19 19:07:13.492,-0.52,0.205
2021-08-19 19:07:13.496,-0.495,0.2
2021-08-19 19:07:13.500,-0.475,0.21
2021-08-19 19:07:13.504,-0.475,0.17
2021-08-19 19:07:13.508,-0.465,0.175
2021-08-19 19:07:13.512,-0.465,0.155
2021-08-19 19:07:13.516,-0.45,0.125
2021-08-19 19:07:13.520,-0.44,0.14
2021-08-19 19:07:13.524,-0.455,0.12
2021-08-19 19:07:13.528,-0.415,0.105
2021-08-19 19:07:13.532,-0.42,0.095
2021-08-19 19:07:13.536,-0.375,0.065
2021-08-19 19:07:13.540,-0.375,0.1
2021-08-19 19:07:13.544,-0.37,0.055
2021-08-19 19:07:13.548,-0.355,0.045
2021-08-19 19:07:13.552,-0.35,0.05
2021-08-19 19:07:13.556,-0.32,0.04
2021-08-19 19:07:13.560,-0.3,0.05
2021-08-19 19:07:13.564,-0.315,0.05
2021-08-19 19:07:13.568,-0.3,0.05
2021-08-19 19:07:13.572,-0.295,0.06
2021-08-19 19:07:13.576,-0.28,0.03
2021-08-19 19:07:13.580,-0.255,0.03
2021-08-19 19:07:13.584,-0.265,0.015
2021-08-19 19:07:13.588,-0.26,0.01
2021-08-19 19:07:13.592,-0.265,0.03
2021-08-19 19:07:13.596,-0.255,0.02
2021-08-19 19:07:13.600,-0.27,0.015
2021-08-19 19:07:13.604,-0.28,0.035
2021-08-19 19:07:13.608,-0.28,0.015
2021-08-19 19:07:13.612,-0.295,0.02
2021-08-19 19:07:13.616,-0.26,0.035
2021-08-19 19:07:13.620,-0.26,0.035
2021-08-19 19:07:13.624,-0.26,0.02
2021-08-19 19:07:13.628,-0.27,0.02
2021-08-19 19:07:13.632,-0.285,0.01
2021-08-19 19:07:13.636,-0.275,0.005
2021-08-19 19:07:13.640,-0.28,0.025
2021-08-19 19:07:13.644,-0.275,0.015
2021-08-19 19:07:13.648,-0.275,0.015
2021-08-19 19:07:13.652,-0.275,0.04
2021-08-19 19:07:13.656,-0.265,0.045
2021-08-19 19:07:13.660,-0.28,0.05
2021-08-19 19:07:13.664,-0.305,0.055
2021-08-19 19:07:13.668,-0.3,0.045
2021-08-19 19:07:13.672,-0.31,0.045
2021-08-19 19:07:13.676,-0.29,0.04
2021-08-19 19:07:13.680,-0.275,0.04
2021-08-19 19:07:13.684,-0.285,0.05
2021-08-19 19:07:13.688,-0.25,0.055
2021-08-19 19:07:13.692,-0.265,0.06
2021-08-19 19:07:13.696,-0.255,0.06
2021-08-19 19:07:13.700,-0.26,0.06
2021-08-19 19:07:13.704,-0.24,0.055
2021-08-19 19:07:13.708,-0.23,0.055
2021-08-19 19:07:13.712,-0.2,0.085
2021-08-19 19:07:13.716,-0.17,0.065
2021-08-19 19:07:13.720,-0.19,0.095
2021-08-19 19:07:13.724,-0.2,0.07
2021-08-19 19:07:13.728,-0.185,0.05
2021-08-19 19:07:13.732,-0.205,0.05
2021-08-19 19:07:13.736,-0.19,0.055
2021-08-19 19:07:13.740,-0.165,0.03
2021-08-19 19:07:13.744,-0.15,-0.02
2021-08-19 19:07:13.748,-0.17,-0.065
2021-08-19 19:07:13.752,-0.21,-0.08
2021-08-19 19:07:13.756,-0.27,-0.105
2021-08-19 19:07:13.760,-0.31,-0.1
2021-08-19 19:07:13.764,-0.355,-0.08
2021-08-19 19:07:13.768,-0.355,-0.07
2021-08-19 19:07:13.772,-0.36,-0.035
2021-08-19 19:07:13.776,-0.35,-0.005
2021-08-19 19:07:13.780,-0.34,0.005
2021-08-19 19:07:13.784,-0.35,0.0
2021-08-19 19:07:13.788,-0.335,0.0
2021-08-19 19:07:13.792,-0.315,0.0
2021-08-19 19:07:13.796,-0.32,0.015
2021-08-19 19:07:13.800,-0.335,0.0
2021-08-19 19:07:13.804,-0.31,-0.02
2021-08-19 19:07:13.808,-0.295,-0.02
2021-08-19 19:07:13.812,-0.305,0.005
2021-08-19 19:07:13.816,-0.32,0.0
2021-08-19 19:07:13.820,-0.335,-0.005
2021-08-19 19:07:13.824,-0.305,0.0
2021-08-19 19:07:13.828,-0.305,0.015
2021-08-19 19:07:13.832,-0.295,0.02
2021-08-19 19:07:13.836,-0.265,-0.01
2021-08-19 19:07:13.840,-0.29,-0.02
2021-08-19 19:07:13.844,-0.285,-0.03
2021-08-19 19:07:13.848,-0.295,-0.03
2021-08-19 19:07:13.852,-0.305,-0.04
2021-08-19 19:07:13.856,-0.295,-0.025
2021-08-19 19:07:13.860,-0.285,-0.035
2021-08-19 19:07:13.864,-0.285,-0.025
2021-08-19 19:07:13.868,-0.24,-0.025
2021-08-19 19:07:13.872,-0.175,-0.035
2021-08-19 19:07:13.876,-0.095,-0.065
2021-08-19 19:07:13.880,0.01,-0.075
2021-08-19 19:07:13.884,0.115,-0.105
2021-08-19 19:07:13.888,0.205,-0.165
2021-08-19 19:07:13.892,0.27,-0.27
2021-08-19 19:07:13.896,0.315,-0.32
2021-08-19 19:07:13.900,0.315,-0.41
2021-08-19 19:07:13.904,0.26,-0.545
2021-08-19 19:07:13.908,0.235,-0.74
2021-08-19 19:07:13.912,0.345,-0.94
2021-08-19 19:07:13.916,0.605,-1.235
2021-08-19 19:07:13.920,0.96,-1.535
2021-08-19 19:07:13.924,1.19,-1.8
2021-08-19 19:07:13.928,1.125,-1.935
2021-08-19 19:07:13.932,0.8,-1.74
2021-08-19 19:07:13.936,0.29,-1.27
2021-08-19 19:07:13.940,-0.1,-0.79
2021-08-19 19:07:13.944,-0.25,-0.53
2021-08-19 19:07:13.948,-0.33,-0.345
2021-08-19 19:07:13.952,-0.345,-0.18
2021-08-19 19:07:13.956,-0.365,-0.04
2021-08-19 19:07:13.960,-0.385,0.07
2021-08-19 19:07:13.964,-0.41,0.115
2021-08-19 19:07:13.968,-0.45,0.14
2021-08-19 19:07:13.972,-0.48,0.155
2021-08-19 19:07:13.976,-0.48,0.145
2021-08-19 19:07:13.980,-0.495,0.135
2021-08-19 19:07:13.984,-0.5,0.145
2021-08-19 19:07:13.988,-0.525,0.16
2021-08-19 19:07:13.992,-0.535,0.135
2021-08-19 19:07:13.996,-0.515,0.135
2021-08-19 19:07:14.000,-0.525,0.115
2021-08-19 19:07:14.004,-0.54,0.125
2021-08-19 19:07:14.008,-0.53,0.135
2021-08-19 19:07:14.012,-0.54,0.125
2021-08-19 19:07:14.016,-0.53,0.125
2021-08-19 19:07:14.020,-0.52,0.145
2021-08-19 19:07:14.024,-0.525,0.125
2021-08-19 19:07:14.028,-0.535,0.145
2021-08-19 19:07:14.032,-0.54,0.155
2021-08-19 19:07:14.036,-0.525,0.135
2021-08-19 19:07:14.040,-0.56,0.135
2021-08-19 19:07:14.044,-0.545,0.16
2021-08-19 19:07:14.048,-0.55,0.16
2021-08-19 19:07:14.052,-0.545,0.165
2021-08-19 19:07:14.056,-0.54,0.16
2021-08-19 19:07:14.060,-0.545,0.175
2021-08-19 19:07:14.064,-0.53,0.19
2021-08-19 19:07:14.068,-0.56,0.195
2021-08-19 19:07:14.072,-0.56,0.195
2021-08-19 19:07:14.076,-0.555,0.2
2021-08-19 19:07:14.080,-0.555,0.23
2021-08-19 19:07:14.084,-0.56,0.215
2021-08-19 19:07:14.088,-0.54,0.195
2021-08-19 19:07:14.092,-0.53,0.205
2021-08-19 19:07:14.096,-0.55,0.215
2021-08-19 19:07:14.100,-0.525,0.21
2021-08-19 19:07:14.104,-0.53,0.195
2021-08-19 19:07:14.108,-0.555,0.22
2021-08-19 19:07:14.112,-0.53,0.195
2021-08-19 19:07:14.116,-0.545,0.17
2021-08-19 19:07:14.120,-0.51,0.18
2021-08-19 19:07:14.124,-0.495,0.18
2021-08-19 19:07:14.128,-0.485,0.175
2021-08-19 19:07:14.132,-0.455,0.175
2021-08-19 19:07:14.136,-0.455,0.14
2021-08-19 19:07:14.140,-0.45,0.11
2021-08-19 19:07:14.144,-0.445,0.105
2021-08-19 19:07:14.148,-0.42,0.09
2021-08-19 19:07:14.152,-0.425,0.08
2021-08-19 19:07:14.156,-0.41,0.07
2021-08-19 19:07:14.160,-0.38,0.06
2021-08-19 19:07:14.164,-0.37,0.03
2021-08-19 19:07:14.168,-0.38,0.03
2021-08-19 19:07:14.172,-0.355,0.03
2021-08-19 19:07:14.176,-0.34,0.01
2021-08-19 19:07:14.180,-0.32,0.015
2021-08-19 19:07:14.184,-0.31,0.005
2021-08-19 19:07:14.188,-0.31,0.0
2021-08-19 19:07:14.192,-0.3,0.005
2021-08-19 19:07:14.196,-0.285,0.0
2021-08-19 19:07:14.200,-0.305,-0.015
2021-08-19 19:07:14.204,-0.29,0.0
2021-08-19 19:07:14.208,-0.27,-0.005
2021-08-19 19:07:14.212,-0.275,-0.015
2021-08-19 19:07:14.216,-0.27,-0.02
2021-08-19 19:07:14.220,-0.25,-0.035
2021-08-19 19:07:14.224,-0.255,-0.035
2021-08-19 19:07:14.228,-0.265,-0.01
2021-08-19 19:07:14.232,-0.265,-0.015
2021-08-19 19:07:14.236,-0.285,-0.025
2021-08-19 19:07:14.240,-0.265,-0.02
2021-08-19 19:07:14.244,-0.275,-0.015
2021-08-19 19:07:14.248,-0.275,0.0
2021-08-19 19:07:14.252,-0.28,-0.015
2021-08-19 19:07:14.256,-0.275,-0.025
2021-08-19 19:07:14.260,-0.295,-0.025
2021-08-19 19:07:14.264,-0.305,0.0
2021-08-19 19:07:14.268,-0.275,-0.015
2021-08-19 19:07:14.272,-0.29,0.0
2021-08-19 19:07:14.276,-0.28,0.0
2021-08-19 19:07:14.280,-0.28,-0.005
2021-08-19 19:07:14.284,-0.29,0.01
2021-08-19 19:07:14.288,-0.3,-0.025
2021-08-19 19:07:14.292,-0.285,0.0
2021-08-19 19:07:14.296,-0.295,0.0
2021-08-19 19:07:14.300,-0.285,0.02
2021-08-19 19:07:14.304,-0.27,0.015
2021-08-19 19:07:14.308,-0.275,0.02
2021-08-19 19:07:14.312,-0.275,0.03
2021-08-19 19:07:14.316,-0.275,0.015
2021-08-19 19:07:14.320,-0.275,0.035
2021-08-19 19:07:14.324,-0.28,0.025
2021-08-19 19:07:14.328,-0.265,0.02
2021-08-19 19:07:14.332,-0.245,0.0
2021-08-19 19:07:14.336,-0.27,0.015
2021-08-19 19:07:14.340,-0.235,0.015
2021-08-19 19:07:14.344,-0.25,0.015
2021-08-19 19:07:14.348,-0.25,0.035
2021-08-19 19:07:14.352,-0.23,0.0
2021-08-19 19:07:14.356,-0.22,0.015
2021-08-19 19:07:14.360,-0.195,0.05
2021-08-19 19:07:14.364,-0.14,0.035
2021-08-19 19:07:14.368,-0.135,0.055
2021-08-19 19:07:14.372,-0.09,0.055
2021-08-19 19:07:14.376,-0.09,0.04
2021-08-19 19:07:14.380,-0.1,0.055
2021-08-19 19:07:14.384,-0.09,0.03
2021-08-19 19:07:14.388,-0.085,-0.005
2021-08-19 19:07:14.392,-0.1,-0.045
2021-08-19 19:07:14.396,-0.15,-0.105
2021-08-19 19:07:14.400,-0.21,-0.145
2021-08-19 19:07:14.404,-0.265,-0.14
2021-08-19 19:07:14.408,-0.295,-0.14
2021-08-19 19:07:14.412,-0.305,-0.105
2021-08-19 19:07:14.416,-0.355,-0.085
2021-08-19 19:07:14.420,-0.36,-0.055
2021-08-19 19:07:14.424,-0.375,-0.03
2021-08-19 19:07:14.428,-0.37,0.0
2021-08-19 19:07:14.432,-0.39,0.0
2021-08-19 19:07:14.436,-0.375,0.01
2021-08-19 19:07:14.440,-0.375,0.0
2021-08-19 19:07:14.444,-0.375,0.01
2021-08-19 19:07:14.448,-0.37,-0.02
2021-08-19 19:07:14.452,-0.365,-0.015
2021-08-19 19:07:14.456,-0.36,-0.01
2021-08-19 19:07:14.460,-0.35,-0.04
2021-08-19 19:07:14.464,-0.355,-0.015
2021-08-19 19:07:14.468,-0.355,-0.025
2021-08-19 19:07:14.472,-0.36,-0.035
2021-08-19 19:07:14.476,-0.345,-0.01
2021-08-19 19:07:14.480,-0.36,-0.02
2021-08-19 19:07:14.484,-0.37,-0.02
2021-08-19 19:07:14.488,-0.36,-0.02
2021-08-19 19:07:14.492,-0.365,-0.03
2021-08-19 19:07:14.496,-0.37,-0.015
2021-08-19 19:07:14.500,-0.35,-0.045
2021-08-19 19:07:14.504,-0.35,-0.04
2021-08-19 19:07:14.508,-0.325,-0.045
2021-08-19 19:07:14.512,-0.345,-0.06
2021-08-19 19:07:14.516,-0.33,-0.055
2021-08-19 19:07:14.520,-0.3,-0.045
2021-08-19 19:07:14.524,-0.28,-0.025
2021-08-19 19:07:14.528,-0.245,-0.04
2021-08-19 19:07:14.532,-0.19,-0.025
2021-08-19 19:07:14.536,-0.095,-0.06
2021-08-19 19:07:14.540,0.005,-0.075
2021-08-19 19:07:14.544,0.065,-0.1
2021-08-19 19:07:14.548,0.145,-0.155
2021-08-19 19:07:14.552,0.2,-0.245
2021-08-19 19:07:14.556,0.24,-0.325
2021-08-19 19:07:14.560,0.215,-0.435
2021-08-19 19:07:14.564,0.195,-0.6
2021-08-19 19:07:14.568,0.195,-0.8
2021-08-19 19:07:14.572,0.295,-1.04
2021-08-19 19:07:14.576,0.57,-1.36
2021-08-19 19:07:14.580,0.89,-1.675
2021-08-19 19:07:14.584,1.14,-1.94
2021-08-19 19:07:14.592,0.89,-1.875
2021-08-19 19:07:14.596,0.365,-1.425
2021-08-19 19:07:14.600,-0.085,-0.915
2021-08-19 19:07:14.604,-0.29,-0.595
2021-08-19 19:07:14.608,-0.405,-0.375
2021-08-19 19:07:14.612,-0.42,-0.235
2021-08-19 19:07:14.616,-0.42,-0.085
2021-08-19 19:07:14.620,-0.445,0.04
2021-08-19 19:07:14.624,-0.46,0.085
2021-08-19 19:07:14.628,-0.485,0.105
2021-08-19 19:07:14.632,-0.485,0.15
2021-08-19 19:07:14.636,-0.495,0.135
2021-08-19 19:07:14.640,-0.495,0.125
2021-08-19 19:07:14.644,-0.5,0.15
2021-08-19 19:07:14.648,-0.48,0.135
2021-08-19 19:07:14.652,-0.495,0.16
2021-08-19 19:07:14.656,-0.505,0.135
2021-08-19 19:07:14.660,-0.495,0.155
2021-08-19 19:07:14.664,-0.51,0.155
2021-08-19 19:07:14.668,-0.515,0.155
2021-08-19 19:07:14.672,-0.48,0.155
2021-08-19 19:07:14.676,-0.5,0.17
2021-08-19 19:07:14.680,-0.49,0.175
2021-08-19 19:07:14.684,-0.515,0.18
2021-08-19 19:07:14.688,-0.51,0.165
2021-08-19 19:07:14.692,-0.51,0.155
2021-08-19 19:07:14.696,-0.505,0.185
2021-08-19 19:07:14.700,-0.525,0.2
2021-08-19 19:07:14.704,-0.515,0.185
2021-08-19 19:07:14.708,-0.525,0.19
2021-08-19 19:07:14.712,-0.53,0.225
2021-08-19 19:07:14.716,-0.535,0.21
2021-08-19 19:07:14.720,-0.53,0.215
2021-08-19 19:07:14.724,-0.54,0.225
2021-08-19 19:07:14.728,-0.535,0.23
2021-08-19 19:07:14.732,-0.52,0.22
2021-08-19 19:07:14.736,-0.55,0.22
2021-08-19 19:07:14.740,-0.565,0.245
2021-08-19 19:07:14.744,-0.56,0.21
2021-08-19 19:07:14.748,-0.545,0.225
2021-08-19 19:07:14.752,-0.545,0.23
2021-08-19 19:07:14.756,-0.525,0.22
2021-08-19 19:07:14.760,-0.51,0.22
2021-08-19 19:07:14.764,-0.515,0.21
2021-08-19 19:07:14.768,-0.505,0.19
2021-08-19 19:07:14.772,-0.51,0.185
2021-08-19 19:07:14.776,-0.51,0.21
2021-08-19 19:07:14.780,-0.495,0.215
2021-08-19 19:07:14.784,-0.485,0.195
2021-08-19 19:07:14.788,-0.48,0.175
2021-08-19 19:07:14.792,-0.46,0.16
2021-08-19 19:07:14.796,-0.44,0.155
2021-08-19 19:07:14.800,-0.42,0.155
2021-08-19 19:07:14.804,-0.42,0.14
2021-08-19 19:07:14.808,-0.385,0.095
2021-08-19 19:07:14.812,-0.365,0.105
2021-08-19 19:07:14.816,-0.355,0.075
2021-08-19 19:07:14.820,-0.35,0.065
2021-08-19 19:07:14.824,-0.33,0.035
2021-08-19 19:07:14.828,-0.31,0.04
2021-08-19 19:07:14.832,-0.3,0.015
2021-08-19 19:07:14.836,-0.29,0.01
2021-08-19 19:07:14.840,-0.285,-0.015
2021-08-19 19:07:14.844,-0.295,-0.015
2021-08-19 19:07:14.848,-0.29,-0.025
2021-08-19 19:07:14.852,-0.27,-0.03
2021-08-19 19:07:14.856,-0.275,-0.025
2021-08-19 19:07:14.860,-0.27,-0.03
2021-08-19 19:07:14.864,-0.28,-0.02
2021-08-19 19:07:14.868,-0.265,-0.03
2021-08-19 19:07:14.872,-0.255,-0.02
2021-08-19 19:07:14.876,-0.27,-0.045
2021-08-19 19:07:14.880,-0.26,-0.03
2021-08-19 19:07:14.884,-0.25,-0.045
2021-08-19 19:07:14.888,-0.25,-0.03
2021-08-19 19:07:14.892,-0.24,-0.025
2021-08-19 19:07:14.896,-0.25,-0.02
2021-08-19 19:07:14.900,-0.26,-0.04
2021-08-19 19:07:14.904,-0.27,-0.03
2021-08-19 19:07:14.908,-0.235,-0.01
2021-08-19 19:07:14.912,-0.245,-0.015
2021-08-19 19:07:14.916,-0.245,-0.01
2021-08-19 19:07:14.920,-0.24,-0.005
2021-08-19 19:07:14.924,-0.22,-0.01
2021-08-19 19:07:14.928,-0.24,-0.01
2021-08-19 19:07:14.932,-0.225,-0.005
2021-08-19 19:07:14.936,-0.225,-0.01
2021-08-19 19:07:14.940,-0.22,0.005
2021-08-19 19:07:14.944,-0.24,0.01
2021-08-19 19:07:14.948,-0.255,0.02
2021-08-19 19:07:14.952,-0.255,0.015
2021-08-19 19:07:14.956,-0.265,0.035
2021-08-19 19:07:14.960,-0.265,0.005
2021-08-19 19:07:14.964,-0.275,0.0
2021-08-19 19:07:14.968,-0.25,-0.005
2021-08-19 19:07:14.972,-0.27,0.005
2021-08-19 19:07:14.976,-0.26,-0.005
2021-08-19 19:07:14.980,-0.27,-0.01
2021-08-19 19:07:14.984,-0.28,-0.02
2021-08-19 19:07:14.988,-0.275,-0.02
2021-08-19 19:07:14.992,-0.24,0.0
2021-08-19 19:07:14.996,-0.25,-0.02
2021-08-19 19:07:15.000,-0.25,-0.02
2021-08-19 19:07:15.004,-0.225,0.0
2021-08-19 19:07:15.008,-0.2,-0.015
2021-08-19 19:07:15.012,-0.185,-0.005
2021-08-19 19:07:15.016,-0.135,-0.005
2021-08-19 19:07:15.020,-0.105,0.005
2021-08-19 19:07:15.024,-0.085,0.025
2021-08-19 19:07:15.028,-0.07,0.005
2021-08-19 19:07:15.032,-0.08,0.015
2021-08-19 19:07:15.036,-0.075,0.0
2021-08-19 19:07:15.040,-0.07,-0.01
2021-08-19 19:07:15.044,-0.055,-0.06
2021-08-19 19:07:15.048,-0.095,-0.11
2021-08-19 19:07:15.052,-0.15,-0.125
2021-08-19 19:07:15.056,-0.195,-0.16
2021-08-19 19:07:15.060,-0.24,-0.16
2021-08-19 19:07:15.064,-0.26,-0.125
2021-08-19 19:07:15.068,-0.305,-0.105
2021-08-19 19:07:15.072,-0.325,-0.09
2021-08-19 19:07:15.076,-0.36,-0.045
2021-08-19 19:07:15.080,-0.375,-0.01
2021-08-19 19:07:15.084,-0.37,-0.01
2021-08-19 19:07:15.088,-0.38,-0.005
2021-08-19 19:07:15.092,-0.365,-0.01
2021-08-19 19:07:15.096,-0.365,-0.055
2021-08-19 19:07:15.100,-0.385,-0.035
2021-08-19 19:07:15.104,-0.385,-0.045
2021-08-19 19:07:15.108,-0.4,-0.04
2021-08-19 19:07:15.112,-0.39,-0.045
2021-08-19 19:07:15.116,-0.375,-0.035
2021-08-19 19:07:15.120,-0.385,-0.04
2021-08-19 19:07:15.124,-0.37,-0.075
2021-08-19 19:07:15.128,-0.37,-0.055
2021-08-19 19:07:15.132,-0.37,-0.055
2021-08-19 19:07:15.136,-0.375,-0.035
2021-08-19 19:07:15.140,-0.38,-0.035
2021-08-19 19:07:15.144,-0.37,-0.085
2021-08-19 19:07:15.148,-0.375,-0.06
2021-08-19 19:07:15.152,-0.37,-0.08
2021-08-19 19:07:15.156,-0.36,-0.075
2021-08-19 19:07:15.160,-0.35,-0.08
2021-08-19 19:07:15.164,-0.35,-0.06
2021-08-19 19:07:15.168,-0.325,-0.06
2021-08-19 19:07:15.172,-0.33,-0.04
2021-08-19 19:07:15.176,-0.315,-0.05
2021-08-19 19:07:15.180,-0.275,-0.065
2021-08-19 19:07:15.184,-0.21,-0.04
2021-08-19 19:07:15.188,-0.12,-0.055
2021-08-19 19:07:15.192,-0.045,-0.085
2021-08-19 19:07:15.196,0.045,-0.105
2021-08-19 19:07:15.200,0.11,-0.19
2021-08-19 19:07:15.204,0.16,-0.26
2021-08-19 19:07:15.208,0.18,-0.345
2021-08-19 19:07:15.212,0.155,-0.445
2021-08-19 19:07:15.216,0.105,-0.615
2021-08-19 19:07:15.220,0.105,-0.815
2021-08-19 19:07:15.224,0.195,-1.065
2021-08-19 19:07:15.228,0.45,-1.345
2021-08-19 19:07:15.232,0.805,-1.675
2021-08-19 19:07:15.236,1.06,-1.965
2021-08-19 19:07:15.244,0.875,-1.94
2021-08-19 19:07:15.248,0.345,-1.5
2021-08-19 19:07:15.252,-0.115,-0.955
2021-08-19 19:07:15.256,-0.355,-0.595
2021-08-19 19:07:15.260,-0.445,-0.405
2021-08-19 19:07:15.264,-0.475,-0.255
2021-08-19 19:07:15.268,-0.475,-0.1
2021-08-19 19:07:15.272,-0.485,0.0
2021-08-19 19:07:15.276,-0.51,0.02
2021-08-19 19:07:15.280,-0.52,0.07
2021-08-19 19:07:15.284,-0.505,0.095
2021-08-19 19:07:15.288,-0.51,0.09
2021-08-19 19:07:15.292,-0.53,0.1
2021-08-19 19:07:15.296,-0.525,0.095
2021-08-19 19:07:15.300,-0.505,0.115
2021-08-19 19:07:15.304,-0.5,0.11
2021-08-19 19:07:15.308,-0.525,0.1
2021-08-19 19:07:15.312,-0.51,0.1
2021-08-19 19:07:15.316,-0.525,0.1
2021-08-19 19:07:15.320,-0.51,0.11
2021-08-19 19:07:15.324,-0.515,0.115
2021-08-19 19:07:15.328,-0.54,0.125
2021-08-19 19:07:15.332,-0.52,0.135
2021-08-19 19:07:15.336,-0.515,0.115
2021-08-19 19:07:15.340,-0.52,0.13
2021-08-19 19:07:15.344,-0.53,0.13
2021-08-19 19:07:15.348,-0.54,0.115
2021-08-19 19:07:15.352,-0.555,0.135
2021-08-19 19:07:15.356,-0.545,0.13
2021-08-19 19:07:15.360,-0.575,0.135
2021-08-19 19:07:15.364,-0.585,0.155
2021-08-19 19:07:15.368,-0.57,0.165
2021-08-19 19:07:15.372,-0.57,0.175
2021-08-19 19:07:15.376,-0.585,0.175
2021-08-19 19:07:15.380,-0.585,0.145
2021-08-19 19:07:15.384,-0.57,0.155
2021-08-19 19:07:15.388,-0.575,0.14
2021-08-19 19:07:15.392,-0.57,0.14
2021-08-19 19:07:15.396,-0.58,0.16
2021-08-19 19:07:15.400,-0.565,0.175
2021-08-19 19:07:15.404,-0.58,0.17
2021-08-19 19:07:15.408,-0.575,0.145
2021-08-19 19:07:15.412,-0.54,0.165
2021-08-19 19:07:15.416,-0.54,0.17
2021-08-19 19:07:15.420,-0.54,0.155
2021-08-19 19:07:15.424,-0.515,0.15
2021-08-19 19:07:15.428,-0.505,0.155
2021-08-19 19:07:15.432,-0.495,0.16
2021-08-19 19:07:15.436,-0.485,0.145
2021-08-19 19:07:15.440,-0.46,0.13
2021-08-19 19:07:15.444,-0.475,0.12
2021-08-19 19:07:15.448,-0.47,0.105
2021-08-19 19:07:15.452,-0.46,0.075
2021-08-19 19:07:15.456,-0.445,0.075
2021-08-19 19:07:15.460,-0.43,0.065
2021-08-19 19:07:15.464,-0.42,0.05
2021-08-19 19:07:15.468,-0.395,0.025
2021-08-19 19:07:15.472,-0.4,0.04
2021-08-19 19:07:15.476,-0.395,0.005
2021-08-19 19:07:15.480,-0.37,-0.025
2021-08-19 19:07:15.484,-0.395,0.0
2021-08-19 19:07:15.488,-0.38,-0.01
2021-08-19 19:07:15.492,-0.36,-0.02
2021-08-19 19:07:15.496,-0.34,-0.04
2021-08-19 19:07:15.500,-0.33,-0.04
2021-08-19 19:07:15.504,-0.34,-0.035
2021-08-19 19:07:15.508,-0.33,-0.045
2021-08-19 19:07:15.512,-0.31,-0.045
2021-08-19 19:07:15.516,-0.3,-0.055
2021-08-19 19:07:15.520,-0.305,-0.045
2021-08-19 19:07:15.524,-0.305,-0.05
2021-08-19 19:07:15.528,-0.285,-0.04
2021-08-19 19:07:15.532,-0.285,-0.04
2021-08-19 19:07:15.536,-0.28,-0.025
2021-08-19 19:07:15.540,-0.285,-0.015
2021-08-19 19:07:15.544,-0.255,-0.02
2021-08-19 19:07:15.548,-0.25,-0.01
2021-08-19 19:07:15.552,-0.265,-0.04
2021-08-19 19:07:15.556,-0.25,0.0
2021-08-19 19:07:15.560,-0.26,0.0
2021-08-19 19:07:15.564,-0.255,0.005
2021-08-19 19:07:15.568,-0.265,0.0
2021-08-19 19:07:15.572,-0.27,0.005
2021-08-19 19:07:15.576,-0.265,0.01
2021-08-19 19:07:15.580,-0.275,0.005
2021-08-19 19:07:15.584,-0.275,0.02
2021-08-19 19:07:15.588,-0.28,0.015
2021-08-19 19:07:15.592,-0.285,0.01
2021-08-19 19:07:15.596,-0.28,0.02
2021-08-19 19:07:15.600,-0.275,0.02
2021-08-19 19:07:15.604,-0.295,0.02
2021-08-19 19:07:15.608,-0.285,0.015
2021-08-19 19:07:15.612,-0.295,0.03
2021-08-19 19:07:15.616,-0.32,0.035
2021-08-19 19:07:15.620,-0.305,0.03
2021-08-19 19:07:15.624,-0.29,0.025
2021-08-19 19:07:15.628,-0.275,0.02
2021-08-19 19:07:15.632,-0.265,0.03
2021-08-19 19:07:15.636,-0.265,0.02
2021-08-19 19:07:15.640,-0.26,0.02
2021-08-19 19:07:15.644,-0.225,0.05
2021-08-19 19:07:15.648,-0.19,0.01
2021-08-19 19:07:15.652,-0.16,0.02
2021-08-19 19:07:15.656,-0.12,0.07
2021-08-19 19:07:15.660,-0.105,0.05
2021-08-19 19:07:15.664,-0.1,0.075
2021-08-19 19:07:15.668,-0.075,0.055
2021-08-19 19:07:15.672,-0.065,0.05
2021-08-19 19:07:15.676,-0.075,0.03
2021-08-19 19:07:15.680,-0.07,-0.03
2021-08-19 19:07:15.684,-0.08,-0.07
2021-08-19 19:07:15.688,-0.145,-0.115
2021-08-19 19:07:15.692,-0.215,-0.135
2021-08-19 19:07:15.696,-0.255,-0.12
2021-08-19 19:07:15.700,-0.28,-0.11
2021-08-19 19:07:15.704,-0.31,-0.085
2021-08-19 19:07:15.708,-0.355,-0.06
2021-08-19 19:07:15.712,-0.365,-0.035
2021-08-19 19:07:15.716,-0.385,0.01
2021-08-19 19:07:15.720,-0.39,0.02
2021-08-19 19:07:15.724,-0.39,0.005
2021-08-19 19:07:15.728,-0.375,0.0
2021-08-19 19:07:15.732,-0.365,0.01
2021-08-19 19:07:15.736,-0.375,-0.015
2021-08-19 19:07:15.740,-0.38,-0.025
2021-08-19 19:07:15.744,-0.38,-0.02
2021-08-19 19:07:15.748,-0.39,-0.005
2021-08-19 19:07:15.752,-0.375,-0.04
2021-08-19 19:07:15.756,-0.375,-0.05
2021-08-19 19:07:15.760,-0.375,-0.01
2021-08-19 19:07:15.764,-0.385,-0.035
2021-08-19 19:07:15.768,-0.37,-0.03
2021-08-19 19:07:15.772,-0.375,-0.055
2021-08-19 19:07:15.776,-0.34,-0.055
2021-08-19 19:07:15.780,-0.36,-0.055
2021-08-19 19:07:15.784,-0.37,-0.04
2021-08-19 19:07:15.788,-0.355,-0.035
2021-08-19 19:07:15.792,-0.37,-0.04
2021-08-19 19:07:15.796,-0.345,-0.065
2021-08-19 19:07:15.800,-0.35,-0.055
2021-08-19 19:07:15.804,-0.335,-0.055
2021-08-19 19:07:15.808,-0.345,-0.04
2021-08-19 19:07:15.812,-0.335,-0.075
2021-08-19 19:07:15.816,-0.29,-0.04
2021-08-19 19:07:15.820,-0.245,-0.04
2021-08-19 19:07:15.824,-0.17,-0.03
2021-08-19 19:07:15.828,-0.065,-0.075
2021-08-19 19:07:15.832,0.005,-0.105
2021-08-19 19:07:15.836,0.055,-0.17
2021-08-19 19:07:15.840,0.09,-0.245
2021-08-19 19:07:15.844,0.105,-0.34
2021-08-19 19:07:15.848,0.08,-0.435
2021-08-19 19:07:15.852,0.05,-0.545
2021-08-19 19:07:15.856,0.015,-0.73
2021-08-19 19:07:15.860,0.105,-1.0
2021-08-19 19:07:15.864,0.365,-1.285
2021-08-19 19:07:15.868,0.705,-1.605
2021-08-19 19:07:15.872,0.995,-1.91
2021-08-19 19:07:15.880,0.88,-1.95
2021-08-19 19:07:15.884,0.415,-1.49
2021-08-19 19:07:15.888,-0.055,-0.97
2021-08-19 19:07:15.892,-0.34,-0.565
2021-08-19 19:07:15.896,-0.44,-0.38
2021-08-19 19:07:15.900,-0.475,-0.22
2021-08-19 19:07:15.904,-0.485,-0.09
2021-08-19 19:07:15.908,-0.495,0.0
2021-08-19 19:07:15.912,-0.51,0.065
2021-08-19 19:07:15.916,-0.51,0.09
2021-08-19 19:07:15.920,-0.49,0.1
2021-08-19 19:07:15.924,-0.5,0.11
2021-08-19 19:07:15.928,-0.51,0.13
2021-08-19 19:07:15.932,-0.515,0.115
2021-08-19 19:07:15.936,-0.505,0.13
2021-08-19 19:07:15.940,-0.505,0.115
2021-08-19 19:07:15.944,-0.51,0.13
2021-08-19 19:07:15.948,-0.51,0.15
2021-08-19 19:07:15.952,-0.52,0.125
2021-08-19 19:07:15.956,-0.525,0.13
2021-08-19 19:07:15.960,-0.525,0.115
2021-08-19 19:07:15.964,-0.53,0.13
2021-08-19 19:07:15.968,-0.525,0.14
2021-08-19 19:07:15.972,-0.53,0.135
2021-08-19 19:07:15.976,-0.545,0.13
2021-08-19 19:07:15.980,-0.565,0.14
2021-08-19 19:07:15.984,-0.555,0.12
2021-08-19 19:07:15.988,-0.56,0.155
2021-08-19 19:07:15.992,-0.59,0.15
2021-08-19 19:07:15.996,-0.6,0.14
2021-08-19 19:07:16.000,-0.6,0.135
2021-08-19 19:07:16.004,-0.6,0.14
2021-08-19 19:07:16.008,-0.6,0.15
2021-08-19 19:07:16.012,-0.595,0.13
2021-08-19 19:07:16.016,-0.59,0.14
2021-08-19 19:07:16.020,-0.585,0.165
2021-08-19 19:07:16.024,-0.6,0.16
2021-08-19 19:07:16.028,-0.605,0.185
2021-08-19 19:07:16.032,-0.605,0.15
2021-08-19 19:07:16.036,-0.6,0.175
2021-08-19 19:07:16.040,-0.62,0.155
2021-08-19 19:07:16.044,-0.59,0.185
2021-08-19 19:07:16.048,-0.57,0.18
2021-08-19 19:07:16.052,-0.56,0.17
2021-08-19 19:07:16.056,-0.56,0.19
2021-08-19 19:07:16.060,-0.54,0.17
2021-08-19 19:07:16.064,-0.55,0.18
2021-08-19 19:07:16.068,-0.535,0.17
2021-08-19 19:07:16.072,-0.54,0.175
2021-08-19 19:07:16.076,-0.535,0.15
2021-08-19 19:07:16.080,-0.51,0.13
2021-08-19 19:07:16.084,-0.505,0.13
2021-08-19 19:07:16.088,-0.505,0.12
2021-08-19 19:07:16.092,-0.515,0.095
2021-08-19 19:07:16.096,-0.495,0.06
2021-08-19 19:07:16.100,-0.475,0.065
2021-08-19 19:07:16.104,-0.475,0.03
2021-08-19 19:07:16.108,-0.495,0.04
2021-08-19 19:07:16.112,-0.48,0.025
2021-08-19 19:07:16.116,-0.475,0.01
2021-08-19 19:07:16.120,-0.46,0.0
2021-08-19 19:07:16.124,-0.435,-0.015
2021-08-19 19:07:16.128,-0.44,-0.025
2021-08-19 19:07:16.132,-0.43,-0.04
2021-08-19 19:07:16.136,-0.43,-0.035
2021-08-19 19:07:16.140,-0.4,-0.035
2021-08-19 19:07:16.144,-0.395,-0.035
2021-08-19 19:07:16.148,-0.385,-0.05
2021-08-19 19:07:16.152,-0.38,-0.04
2021-08-19 19:07:16.156,-0.385,-0.055
2021-08-19 19:07:16.160,-0.365,-0.06
2021-08-19 19:07:16.164,-0.345,-0.055
2021-08-19 19:07:16.168,-0.35,-0.04
2021-08-19 19:07:16.172,-0.31,-0.045
2021-08-19 19:07:16.176,-0.345,-0.03
2021-08-19 19:07:16.180,-0.315,-0.015
2021-08-19 19:07:16.184,-0.33,-0.025
2021-08-19 19:07:16.188,-0.335,-0.03
2021-08-19 19:07:16.192,-0.33,-0.03
2021-08-19 19:07:16.196,-0.315,-0.015
2021-08-19 19:07:16.200,-0.345,-0.025
2021-08-19 19:07:16.204,-0.32,0.0
2021-08-19 19:07:16.208,-0.325,0.0
2021-08-19 19:07:16.212,-0.32,0.0
2021-08-19 19:07:16.216,-0.33,0.0
2021-08-19 19:07:16.220,-0.35,-0.01
2021-08-19 19:07:16.224,-0.33,-0.015
2021-08-19 19:07:16.228,-0.36,0.015
2021-08-19 19:07:16.232,-0.36,-0.01
2021-08-19 19:07:16.236,-0.36,0.005
2021-08-19 19:07:16.240,-0.365,-0.01
2021-08-19 19:07:16.244,-0.36,0.0
2021-08-19 19:07:16.248,-0.36,-0.01
2021-08-19 19:07:16.252,-0.355,0.005
2021-08-19 19:07:16.256,-0.325,0.0
2021-08-19 19:07:16.260,-0.33,0.0
2021-08-19 19:07:16.264,-0.355,-0.005
2021-08-19 19:07:16.268,-0.335,-0.02
2021-08-19 19:07:16.272,-0.32,-0.02
2021-08-19 19:07:16.276,-0.285,-0.01
2021-08-19 19:07:16.280,-0.225,0.005
2021-08-19 19:07:16.284,-0.195,0.02
2021-08-19 19:07:16.288,-0.175,0.045
2021-08-19 19:07:16.292,-0.175,0.04
2021-08-19 19:07:16.296,-0.16,0.025
2021-08-19 19:07:16.300,-0.14,0.0
2021-08-19 19:07:16.304,-0.14,0.01
2021-08-19 19:07:16.308,-0.125,-0.005
2021-08-19 19:07:16.312,-0.16,-0.085
2021-08-19 19:07:16.316,-0.21,-0.125
2021-08-19 19:07:16.320,-0.285,-0.145
2021-08-19 19:07:16.324,-0.325,-0.12
2021-08-19 19:07:16.328,-0.345,-0.125
2021-08-19 19:07:16.332,-0.375,-0.08
2021-08-19 19:07:16.336,-0.41,-0.095
2021-08-19 19:07:16.340,-0.42,-0.035
2021-08-19 19:07:16.344,-0.455,-0.015
2021-08-19 19:07:16.348,-0.44,0.005
2021-08-19 19:07:16.352,-0.45,0.015
2021-08-19 19:07:16.356,-0.455,0.01
2021-08-19 19:07:16.360,-0.43,0.0
2021-08-19 19:07:16.364,-0.43,-0.025
2021-08-19 19:07:16.368,-0.44,-0.03
2021-08-19 19:07:16.372,-0.445,-0.03
2021-08-19 19:07:16.376,-0.42,-0.045
2021-08-19 19:07:16.380,-0.425,-0.05
2021-08-19 19:07:16.384,-0.435,-0.06
2021-08-19 19:07:16.388,-0.445,-0.05
2021-08-19 19:07:16.392,-0.44,-0.03
2021-08-19 19:07:16.396,-0.43,-0.05
2021-08-19 19:07:16.400,-0.41,-0.065
2021-08-19 19:07:16.404,-0.42,-0.06
2021-08-19 19:07:16.408,-0.415,-0.065
2021-08-19 19:07:16.412,-0.405,-0.06
2021-08-19 19:07:16.416,-0.415,-0.06
2021-08-19 19:07:16.420,-0.41,-0.04
2021-08-19 19:07:16.424,-0.395,-0.065
2021-08-19 19:07:16.428,-0.385,-0.05
2021-08-19 19:07:16.432,-0.38,-0.055
2021-08-19 19:07:16.436,-0.375,-0.07
2021-08-19 19:07:16.440,-0.355,-0.06
2021-08-19 19:07:16.444,-0.34,-0.05
2021-08-19 19:07:16.448,-0.3,-0.05
2021-08-19 19:07:16.452,-0.21,-0.065
2021-08-19 19:07:16.456,-0.14,-0.08
2021-08-19 19:07:16.460,-0.045,-0.115
2021-08-19 19:07:16.464,0.015,-0.15
2021-08-19 19:07:16.468,0.065,-0.235
2021-08-19 19:07:16.472,0.1,-0.305
2021-08-19 19:07:16.476,0.095,-0.37
2021-08-19 19:07:16.480,0.055,-0.5
2021-08-19 19:07:16.484,0.025,-0.675
2021-08-19 19:07:16.488,0.065,-0.905
2021-08-19 19:07:16.492,0.265,-1.175
2021-08-19 19:07:16.496,0.595,-1.52
2021-08-19 19:07:16.500,0.895,-1.82
2021-08-19 19:07:16.512,0.55,-1.655
2021-08-19 19:07:16.516,0.06,-1.105
2021-08-19 19:07:16.520,-0.24,-0.665
2021-08-19 19:07:16.524,-0.41,-0.42
2021-08-19 19:07:16.528,-0.475,-0.24
2021-08-19 19:07:16.532,-0.48,-0.11
2021-08-19 19:07:16.536,-0.465,0.01
2021-08-19 19:07:16.540,-0.475,0.07
2021-08-19 19:07:16.544,-0.47,0.115
2021-08-19 19:07:16.548,-0.47,0.13
2021-08-19 19:07:16.552,-0.5,0.13
2021-08-19 19:07:16.556,-0.5,0.125
2021-08-19 19:07:16.560,-0.47,0.145
2021-08-19 19:07:16.564,-0.465,0.155
2021-08-19 19:07:16.568,-0.475,0.145
2021-08-19 19:07:16.572,-0.47,0.14
2021-08-19 19:07:16.576,-0.48,0.155
2021-08-19 19:07:16.580,-0.5,0.165
2021-08-19 19:07:16.584,-0.5,0.145
2021-08-19 19:07:16.588,-0.505,0.15
2021-08-19 19:07:16.592,-0.485,0.165
2021-08-19 19:07:16.596,-0.49,0.14
2021-08-19 19:07:16.600,-0.505,0.165
2021-08-19 19:07:16.604,-0.515,0.15
2021-08-19 19:07:16.608,-0.535,0.16
2021-08-19 19:07:16.612,-0.505,0.165
2021-08-19 19:07:16.616,-0.505,0.155
2021-08-19 19:07:16.620,-0.53,0.155
2021-08-19 19:07:16.624,-0.5,0.17
2021-08-19 19:07:16.628,-0.52,0.16
2021-08-19 19:07:16.632,-0.535,0.15
2021-08-19 19:07:16.636,-0.53,0.16
2021-08-19 19:07:16.640,-0.525,0.15
2021-08-19 19:07:16.644,-0.52,0.165
2021-08-19 19:07:16.648,-0.54,0.19
2021-08-19 19:07:16.652,-0.55,0.17
2021-08-19 19:07:16.656,-0.56,0.165
2021-08-19 19:07:16.660,-0.56,0.15
2021-08-19 19:07:16.664,-0.545,0.17
2021-08-19 19:07:16.668,-0.54,0.2
2021-08-19 19:07:16.672,-0.505,0.205
2021-08-19 19:07:16.676,-0.51,0.19
2021-08-19 19:07:16.680,-0.495,0.155
2021-08-19 19:07:16.684,-0.47,0.16
2021-08-19 19:07:16.688,-0.465,0.18
2021-08-19 19:07:16.692,-0.47,0.16
2021-08-19 19:07:16.696,-0.47,0.175
2021-08-19 19:07:16.700,-0.455,0.165
2021-08-19 19:07:16.704,-0.455,0.16
2021-08-19 19:07:16.708,-0.44,0.135
2021-08-19 19:07:16.712,-0.445,0.11
2021-08-19 19:07:16.716,-0.42,0.105
2021-08-19 19:07:16.720,-0.41,0.1
2021-08-19 19:07:16.724,-0.41,0.08
2021-08-19 19:07:16.728,-0.415,0.09
2021-08-19 19:07:16.732,-0.4,0.055
2021-08-19 19:07:16.736,-0.38,0.045
2021-08-19 19:07:16.740,-0.365,0.035
2021-08-19 19:07:16.744,-0.35,0.02
2021-08-19 19:07:16.748,-0.35,0.01
2021-08-19 19:07:16.752,-0.35,0.0
2021-08-19 19:07:16.756,-0.35,-0.01
2021-08-19 19:07:16.760,-0.335,-0.025
2021-08-19 19:07:16.764,-0.29,0.0
2021-08-19 19:07:16.768,-0.29,-0.02
2021-08-19 19:07:16.772,-0.28,-0.04
2021-08-19 19:07:16.776,-0.28,-0.035
2021-08-19 19:07:16.780,-0.26,-0.045
2021-08-19 19:07:16.784,-0.25,-0.04
2021-08-19 19:07:16.788,-0.25,-0.05
2021-08-19 19:07:16.792,-0.23,-0.025
2021-08-19 19:07:16.796,-0.215,-0.025
2021-08-19 19:07:16.800,-0.24,0.0
2021-08-19 19:07:16.804,-0.235,-0.02
2021-08-19 19:07:16.808,-0.21,-0.03
2021-08-19 19:07:16.812,-0.23,-0.025
2021-08-19 19:07:16.816,-0.235,-0.03
2021-08-19 19:07:16.820,-0.24,0.0
2021-08-19 19:07:16.824,-0.205,-0.005
2021-08-19 19:07:16.828,-0.205,-0.02
2021-08-19 19:07:16.832,-0.2,-0.02
2021-08-19 19:07:16.836,-0.21,-0.005
2021-08-19 19:07:16.840,-0.21,-0.03
2021-08-19 19:07:16.844,-0.225,-0.02
2021-08-19 19:07:16.848,-0.24,-0.015
2021-08-19 19:07:16.852,-0.25,-0.01
2021-08-19 19:07:16.856,-0.245,-0.005
2021-08-19 19:07:16.860,-0.245,-0.01
2021-08-19 19:07:16.864,-0.25,-0.01
2021-08-19 19:07:16.868,-0.24,-0.015
2021-08-19 19:07:16.872,-0.235,0.005
2021-08-19 19:07:16.876,-0.225,0.0
2021-08-19 19:07:16.880,-0.23,-0.02
2021-08-19 19:07:16.884,-0.23,0.015
2021-08-19 19:07:16.888,-0.21,0.0
2021-08-19 19:07:16.892,-0.23,-0.015
2021-08-19 19:07:16.896,-0.22,0.01
2021-08-19 19:07:16.900,-0.21,0.015
2021-08-19 19:07:16.904,-0.145,-0.005
2021-08-19 19:07:16.908,-0.12,-0.005
2021-08-19 19:07:16.912,-0.085,0.03
2021-08-19 19:07:16.916,-0.035,0.025
2021-08-19 19:07:16.920,-0.005,0.03
2021-08-19 19:07:16.924,0.0,0.03
2021-08-19 19:07:16.928,0.005,0.015
2021-08-19 19:07:16.932,0.01,0.0
2021-08-19 19:07:16.936,0.025,-0.03
2021-08-19 19:07:16.940,0.0,-0.095
2021-08-19 19:07:16.944,-0.08,-0.135
2021-08-19 19:07:16.948,-0.145,-0.15
2021-08-19 19:07:16.952,-0.215,-0.15
2021-08-19 19:07:16.956,-0.225,-0.12
2021-08-19 19:07:16.960,-0.255,-0.14
2021-08-19 19:07:16.964,-0.27,-0.09
2021-08-19 19:07:16.968,-0.295,-0.03
2021-08-19 19:07:16.972,-0.285,-0.015
2021-08-19 19:07:16.976,-0.31,-0.03
2021-08-19 19:07:16.980,-0.345,0.0
2021-08-19 19:07:16.984,-0.36,-0.02
2021-08-19 19:07:16.988,-0.34,-0.05
2021-08-19 19:07:16.992,-0.32,-0.06
2021-08-19 19:07:16.996,-0.29,-0.055
2021-08-19 19:07:17.000,-0.31,-0.085
2021-08-19 19:07:17.004,-0.325,-0.095
2021-08-19 19:07:17.008,-0.34,-0.085
2021-08-19 19:07:17.012,-0.345,-0.085
2021-08-19 19:07:17.016,-0.3,-0.08
2021-08-19 19:07:17.020,-0.295,-0.08
2021-08-19 19:07:17.024,-0.335,-0.09
2021-08-19 19:07:17.028,-0.335,-0.105
2021-08-19 19:07:17.032,-0.325,-0.11
2021-08-19 19:07:17.036,-0.32,-0.105
2021-08-19 19:07:17.040,-0.32,-0.1
2021-08-19 19:07:17.044,-0.325,-0.08
2021-08-19 19:07:17.048,-0.31,-0.08
2021-08-19 19:07:17.052,-0.3,-0.1
2021-08-19 19:07:17.056,-0.285,-0.1
2021-08-19 19:07:17.060,-0.305,-0.11
2021-08-19 19:07:17.064,-0.275,-0.11
2021-08-19 19:07:17.068,-0.275,-0.1
2021-08-19 19:07:17.072,-0.27,-0.12
2021-08-19 19:07:17.076,-0.235,-0.11
2021-08-19 19:07:17.080,-0.18,-0.095
2021-08-19 19:07:17.084,-0.08,-0.11
2021-08-19 19:07:17.088,0.0,-0.14
2021-08-19 19:07:17.092,0.09,-0.2
2021-08-19 19:07:17.096,0.175,-0.245
2021-08-19 19:07:17.100,0.205,-0.335
2021-08-19 19:07:17.104,0.27,-0.4
2021-08-19 19:07:17.108,0.27,-0.5
2021-08-19 19:07:17.112,0.275,-0.63
2021-08-19 19:07:17.116,0.225,-0.83
2021-08-19 19:07:17.120,0.325,-1.05
2021-08-19 19:07:17.124,0.59,-1.35
2021-08-19 19:07:17.128,0.905,-1.68
2021-08-19 19:07:17.132,1.13,-1.93
2021-08-19 19:07:17.140,0.74,-1.84
2021-08-19 19:07:17.144,0.26,-1.34
2021-08-19 19:07:17.148,-0.13,-0.88
2021-08-19 19:07:17.152,-0.29,-0.585
2021-08-19 19:07:17.156,-0.38,-0.415
2021-08-19 19:07:17.160,-0.38,-0.24
2021-08-19 19:07:17.164,-0.365,-0.11
2021-08-19 19:07:17.168,-0.42,-0.015
2021-08-19 19:07:17.172,-0.43,0.04
2021-08-19 19:07:17.176,-0.445,0.07
2021-08-19 19:07:17.180,-0.445,0.085
2021-08-19 19:07:17.184,-0.49,0.08
2021-08-19 19:07:17.188,-0.47,0.065
2021-08-19 19:07:17.192,-0.48,0.09
2021-08-19 19:07:17.196,-0.48,0.085
2021-08-19 19:07:17.200,-0.47,0.09
2021-08-19 19:07:17.204,-0.49,0.095
2021-08-19 19:07:17.208,-0.485,0.065
2021-08-19 19:07:17.212,-0.485,0.085
2021-08-19 19:07:17.216,-0.495,0.095
2021-08-19 19:07:17.220,-0.49,0.095
2021-08-19 19:07:17.224,-0.515,0.09
2021-08-19 19:07:17.228,-0.495,0.105
2021-08-19 19:07:17.232,-0.51,0.105
2021-08-19 19:07:17.236,-0.54,0.06
2021-08-19 19:07:17.240,-0.56,0.08
2021-08-19 19:07:17.244,-0.57,0.075
2021-08-19 19:07:17.248,-0.555,0.07
2021-08-19 19:07:17.252,-0.555,0.075
2021-08-19 19:07:17.256,-0.54,0.08
2021-08-19 19:07:17.260,-0.555,0.08
2021-08-19 19:07:17.264,-0.545,0.09
2021-08-19 19:07:17.268,-0.565,0.1
2021-08-19 19:07:17.272,-0.555,0.1
2021-08-19 19:07:17.276,-0.565,0.14
2021-08-19 19:07:17.280,-0.58,0.13
2021-08-19 19:07:17.284,-0.585,0.125
2021-08-19 19:07:17.288,-0.58,0.15
2021-08-19 19:07:17.292,-0.58,0.15
2021-08-19 19:07:17.296,-0.56,0.15
2021-08-19 19:07:17.300,-0.52,0.15
2021-08-19 19:07:17.304,-0.52,0.175
2021-08-19 19:07:17.308,-0.53,0.17
2021-08-19 19:07:17.312,-0.525,0.16
2021-08-19 19:07:17.316,-0.52,0.155
2021-08-19 19:07:17.320,-0.51,0.17
2021-08-19 19:07:17.324,-0.5,0.17
2021-08-19 19:07:17.328,-0.47,0.135
2021-08-19 19:07:17.332,-0.49,0.125
2021-08-19 19:07:17.336,-0.46,0.13
2021-08-19 19:07:17.340,-0.46,0.085
2021-08-19 19:07:17.344,-0.44,0.085
2021-08-19 19:07:17.348,-0.45,0.07
2021-08-19 19:07:17.352,-0.42,0.05
2021-08-19 19:07:17.356,-0.42,0.06
2021-08-19 19:07:17.360,-0.415,0.02
2021-08-19 19:07:17.364,-0.41,0.025
2021-08-19 19:07:17.368,-0.39,0.005
2021-08-19 19:07:17.372,-0.385,0.0
2021-08-19 19:07:17.376,-0.38,-0.02
2021-08-19 19:07:17.380,-0.355,-0.045
2021-08-19 19:07:17.384,-0.34,-0.06
2021-08-19 19:07:17.388,-0.32,-0.07
2021-08-19 19:07:17.392,-0.305,-0.07
2021-08-19 19:07:17.396,-0.3,-0.08
2021-08-19 19:07:17.400,-0.295,-0.08
2021-08-19 19:07:17.404,-0.31,-0.08
2021-08-19 19:07:17.408,-0.3,-0.09
2021-08-19 19:07:17.412,-0.3,-0.07
2021-08-19 19:07:17.416,-0.27,-0.1
2021-08-19 19:07:17.420,-0.295,-0.075
2021-08-19 19:07:17.424,-0.28,-0.08
2021-08-19 19:07:17.428,-0.255,-0.06
2021-08-19 19:07:17.432,-0.26,-0.07
2021-08-19 19:07:17.436,-0.25,-0.08
2021-08-19 19:07:17.440,-0.265,-0.07
2021-08-19 19:07:17.444,-0.25,-0.04
2021-08-19 19:07:17.448,-0.255,-0.065
2021-08-19 19:07:17.452,-0.26,-0.065
2021-08-19 19:07:17.456,-0.255,-0.045
2021-08-19 19:07:17.460,-0.24,-0.035
2021-08-19 19:07:17.464,-0.24,-0.045
2021-08-19 19:07:17.468,-0.235,-0.05
2021-08-19 19:07:17.472,-0.245,-0.05
2021-08-19 19:07:17.476,-0.26,-0.03
2021-08-19 19:07:17.480,-0.27,-0.035
2021-08-19 19:07:17.484,-0.28,-0.05
2021-08-19 19:07:17.488,-0.26,-0.03
2021-08-19 19:07:17.492,-0.27,-0.035
2021-08-19 19:07:17.496,-0.275,-0.015
2021-08-19 19:07:17.500,-0.285,-0.02
2021-08-19 19:07:17.504,-0.275,-0.04
2021-08-19 19:07:17.508,-0.27,-0.04
2021-08-19 19:07:17.512,-0.28,-0.035
2021-08-19 19:07:17.516,-0.275,-0.06
2021-08-19 19:07:17.520,-0.28,-0.03
2021-08-19 19:07:17.524,-0.25,-0.025
2021-08-19 19:07:17.528,-0.25,-0.04
2021-08-19 19:07:17.532,-0.26,-0.01
2021-08-19 19:07:17.536,-0.245,-0.01
2021-08-19 19:07:17.540,-0.245,0.0
2021-08-19 19:07:17.544,-0.19,0.015
2021-08-19 19:07:17.548,-0.13,0.025
2021-08-19 19:07:17.552,-0.085,0.045
2021-08-19 19:07:17.556,-0.06,0.03
2021-08-19 19:07:17.560,-0.065,0.03
2021-08-19 19:07:17.564,-0.04,0.005
2021-08-19 19:07:17.568,-0.04,0.025
2021-08-19 19:07:17.572,-0.045,0.015
2021-08-19 19:07:17.576,-0.06,-0.025
2021-08-19 19:07:17.580,-0.09,-0.09
2021-08-19 19:07:17.584,-0.15,-0.13
2021-08-19 19:07:17.588,-0.21,-0.13
2021-08-19 19:07:17.592,-0.235,-0.125
2021-08-19 19:07:17.596,-0.26,-0.13
2021-08-19 19:07:17.600,-0.3,-0.1
2021-08-19 19:07:17.604,-0.34,-0.06
2021-08-19 19:07:17.608,-0.365,-0.03
2021-08-19 19:07:17.612,-0.395,-0.015
2021-08-19 19:07:17.616,-0.39,0.01
2021-08-19 19:07:17.620,-0.385,0.0
2021-08-19 19:07:17.624,-0.41,-0.015
2021-08-19 19:07:17.628,-0.405,-0.02
2021-08-19 19:07:17.632,-0.39,-0.015
2021-08-19 19:07:17.636,-0.385,-0.025
2021-08-19 19:07:17.640,-0.375,-0.03
2021-08-19 19:07:17.644,-0.355,-0.05
2021-08-19 19:07:17.648,-0.355,-0.045
2021-08-19 19:07:17.652,-0.37,-0.06
2021-08-19 19:07:17.656,-0.37,-0.055
2021-08-19 19:07:17.660,-0.355,-0.05
2021-08-19 19:07:17.664,-0.365,-0.04
2021-08-19 19:07:17.668,-0.37,-0.07
2021-08-19 19:07:17.672,-0.35,-0.05
2021-08-19 19:07:17.676,-0.37,-0.06
2021-08-19 19:07:17.680,-0.35,-0.045
2021-08-19 19:07:17.684,-0.33,-0.05
2021-08-19 19:07:17.688,-0.335,-0.06
2021-08-19 19:07:17.692,-0.33,-0.06
2021-08-19 19:07:17.696,-0.34,-0.05
2021-08-19 19:07:17.700,-0.33,-0.055
2021-08-19 19:07:17.704,-0.33,-0.04
2021-08-19 19:07:17.708,-0.33,-0.07
2021-08-19 19:07:17.712,-0.295,-0.06
2021-08-19 19:07:17.716,-0.245,-0.06
2021-08-19 19:07:17.720,-0.21,-0.075
2021-08-19 19:07:17.724,-0.105,-0.08
2021-08-19 19:07:17.728,-0.015,-0.115
2021-08-19 19:07:17.732,0.045,-0.17
2021-08-19 19:07:17.736,0.125,-0.24
2021-08-19 19:07:17.740,0.155,-0.315
2021-08-19 19:07:17.744,0.16,-0.38
2021-08-19 19:07:17.748,0.145,-0.51
2021-08-19 19:07:17.752,0.11,-0.67
2021-08-19 19:07:17.756,0.13,-0.915
2021-08-19 19:07:17.760,0.375,-1.185
2021-08-19 19:07:17.764,0.635,-1.47
2021-08-19 19:07:17.768,0.95,-1.79
2021-08-19 19:07:17.772,1.135,-1.99
2021-08-19 19:07:17.776,1.05,-2.0
2021-08-19 19:07:17.780,0.65,-1.715
2021-08-19 19:07:17.784,0.08,-1.18
2021-08-19 19:07:17.788,-0.275,-0.725
2021-08-19 19:07:17.792,-0.42,-0.48
2021-08-19 19:07:17.796,-0.47,-0.31
2021-08-19 19:07:17.800,-0.47,-0.155
2021-08-19 19:07:17.804,-0.455,-0.03
2021-08-19 19:07:17.808,-0.48,0.045
2021-08-19 19:07:17.812,-0.485,0.09
2021-08-19 19:07:17.816,-0.495,0.105
2021-08-19 19:07:17.820,-0.505,0.13
2021-08-19 19:07:17.824,-0.505,0.14
2021-08-19 19:07:17.828,-0.5,0.11
2021-08-19 19:07:17.832,-0.495,0.155
2021-08-19 19:07:17.836,-0.495,0.14
2021-08-19 19:07:17.840,-0.485,0.125
2021-08-19 19:07:17.844,-0.505,0.13
2021-08-19 19:07:17.848,-0.505,0.14
2021-08-19 19:07:17.852,-0.505,0.13
2021-08-19 19:07:17.856,-0.51,0.13
2021-08-19 19:07:17.860,-0.52,0.14
2021-08-19 19:07:17.864,-0.555,0.13
2021-08-19 19:07:17.868,-0.53,0.12
2021-08-19 19:07:17.872,-0.57,0.14
2021-08-19 19:07:17.876,-0.57,0.145
2021-08-19 19:07:17.880,-0.56,0.13
2021-08-19 19:07:17.884,-0.56,0.145
2021-08-19 19:07:17.888,-0.56,0.12
2021-08-19 19:07:17.892,-0.555,0.15
2021-08-19 19:07:17.896,-0.56,0.13
2021-08-19 19:07:17.900,-0.575,0.15
2021-08-19 19:07:17.904,-0.58,0.155
2021-08-19 19:07:17.908,-0.57,0.15
2021-08-19 19:07:17.912,-0.595,0.175
2021-08-19 19:07:17.916,-0.59,0.195
2021-08-19 19:07:17.920,-0.59,0.17
2021-08-19 19:07:17.924,-0.575,0.185
2021-08-19 19:07:17.928,-0.58,0.19
2021-08-19 19:07:17.932,-0.57,0.195
2021-08-19 19:07:17.936,-0.57,0.195
2021-08-19 19:07:17.940,-0.575,0.2
2021-08-19 19:07:17.944,-0.565,0.19
2021-08-19 19:07:17.948,-0.545,0.22
2021-08-19 19:07:17.952,-0.57,0.21
2021-08-19 19:07:17.956,-0.545,0.21
2021-08-19 19:07:17.960,-0.54,0.2
2021-08-19 19:07:17.964,-0.55,0.195
2021-08-19 19:07:17.968,-0.545,0.175
2021-08-19 19:07:17.972,-0.525,0.16
2021-08-19 19:07:17.976,-0.53,0.16
2021-08-19 19:07:17.980,-0.51,0.165
2021-08-19 19:07:17.984,-0.515,0.13
2021-08-19 19:07:17.988,-0.52,0.1
2021-08-19 19:07:17.992,-0.505,0.1
2021-08-19 19:07:17.996,-0.51,0.07
2021-08-19 19:07:18.000,-0.49,0.065
2021-08-19 19:07:18.004,-0.48,0.045
2021-08-19 19:07:18.008,-0.46,0.025
2021-08-19 19:07:18.012,-0.44,0.005
2021-08-19 19:07:18.016,-0.43,-0.005
2021-08-19 19:07:18.020,-0.41,-0.035
2021-08-19 19:07:18.024,-0.39,-0.04
2021-08-19 19:07:18.028,-0.395,-0.04
2021-08-19 19:07:18.032,-0.38,-0.05
2021-08-19 19:07:18.036,-0.375,-0.07
2021-08-19 19:07:18.040,-0.365,-0.075
2021-08-19 19:07:18.044,-0.355,-0.065
2021-08-19 19:07:18.048,-0.355,-0.09
2021-08-19 19:07:18.052,-0.34,-0.07
2021-08-19 19:07:18.056,-0.32,-0.06
2021-08-19 19:07:18.060,-0.325,-0.075
2021-08-19 19:07:18.064,-0.32,-0.05
2021-08-19 19:07:18.068,-0.32,-0.055
2021-08-19 19:07:18.072,-0.305,-0.06
2021-08-19 19:07:18.076,-0.295,-0.04
2021-08-19 19:07:18.080,-0.295,-0.055
2021-08-19 19:07:18.084,-0.32,-0.035
2021-08-19 19:07:18.088,-0.31,-0.03
2021-08-19 19:07:18.092,-0.33,-0.06
2021-08-19 19:07:18.096,-0.325,-0.025
2021-08-19 19:07:18.100,-0.31,-0.035
2021-08-19 19:07:18.104,-0.325,-0.03
2021-08-19 19:07:18.108,-0.335,-0.045
2021-08-19 19:07:18.112,-0.33,-0.04
2021-08-19 19:07:18.116,-0.33,-0.035
2021-08-19 19:07:18.120,-0.345,-0.05
2021-08-19 19:07:18.124,-0.35,-0.035
2021-08-19 19:07:18.128,-0.345,-0.02
2021-08-19 19:07:18.132,-0.35,-0.055
2021-08-19 19:07:18.136,-0.365,-0.04
2021-08-19 19:07:18.140,-0.345,-0.045
2021-08-19 19:07:18.144,-0.35,-0.035
2021-08-19 19:07:18.148,-0.335,-0.04
2021-08-19 19:07:18.152,-0.34,-0.04
2021-08-19 19:07:18.156,-0.34,-0.05
2021-08-19 19:07:18.160,-0.35,-0.01
2021-08-19 19:07:18.164,-0.33,-0.025
2021-08-19 19:07:18.168,-0.315,-0.025
2021-08-19 19:07:18.172,-0.315,-0.01
2021-08-19 19:07:18.176,-0.315,-0.015
2021-08-19 19:07:18.180,-0.28,-0.02
2021-08-19 19:07:18.184,-0.24,-0.005
2021-08-19 19:07:18.188,-0.21,0.0
2021-08-19 19:07:18.192,-0.155,0.0
2021-08-19 19:07:18.196,-0.135,0.015
2021-08-19 19:07:18.200,-0.13,0.04
2021-08-19 19:07:18.204,-0.13,0.04
2021-08-19 19:07:18.208,-0.14,0.015
2021-08-19 19:07:18.212,-0.145,0.0
2021-08-19 19:07:18.216,-0.15,-0.06
2021-08-19 19:07:18.220,-0.165,-0.12
2021-08-19 19:07:18.224,-0.225,-0.14
2021-08-19 19:07:18.228,-0.275,-0.175
2021-08-19 19:07:18.232,-0.305,-0.145
2021-08-19 19:07:18.236,-0.355,-0.12
2021-08-19 19:07:18.240,-0.38,-0.12
2021-08-19 19:07:18.244,-0.42,-0.09
2021-08-19 19:07:18.248,-0.44,-0.04
2021-08-19 19:07:18.252,-0.455,-0.01
2021-08-19 19:07:18.256,-0.445,0.0
2021-08-19 19:07:18.260,-0.45,-0.02
2021-08-19 19:07:18.264,-0.45,-0.025
2021-08-19 19:07:18.268,-0.445,-0.045
2021-08-19 19:07:18.272,-0.445,-0.05
2021-08-19 19:07:18.276,-0.465,-0.035
2021-08-19 19:07:18.280,-0.44,-0.05
2021-08-19 19:07:18.284,-0.445,-0.07
2021-08-19 19:07:18.288,-0.425,-0.055
2021-08-19 19:07:18.292,-0.43,-0.05
2021-08-19 19:07:18.296,-0.435,-0.065
2021-08-19 19:07:18.300,-0.425,-0.055
2021-08-19 19:07:18.304,-0.41,-0.05
2021-08-19 19:07:18.308,-0.42,-0.06
2021-08-19 19:07:18.312,-0.415,-0.05
2021-08-19 19:07:18.316,-0.42,-0.06
2021-08-19 19:07:18.320,-0.405,-0.035
2021-08-19 19:07:18.324,-0.41,-0.035
2021-08-19 19:07:18.328,-0.4,-0.045
2021-08-19 19:07:18.332,-0.41,-0.055
2021-08-19 19:07:18.336,-0.4,-0.05
2021-08-19 19:07:18.340,-0.4,-0.05
2021-08-19 19:07:18.344,-0.395,-0.055
2021-08-19 19:07:18.348,-0.38,-0.065
2021-08-19 19:07:18.352,-0.36,-0.065
2021-08-19 19:07:18.356,-0.315,-0.075
2021-08-19 19:07:18.360,-0.24,-0.075
2021-08-19 19:07:18.364,-0.175,-0.08
2021-08-19 19:07:18.368,-0.09,-0.085
2021-08-19 19:07:18.372,-0.025,-0.145
2021-08-19 19:07:18.376,0.03,-0.215
2021-08-19 19:07:18.380,0.06,-0.315
2021-08-19 19:07:18.384,0.065,-0.37
2021-08-19 19:07:18.388,0.04,-0.505
2021-08-19 19:07:18.392,0.0,-0.68
2021-08-19 19:07:18.396,0.04,-0.865
2021-08-19 19:07:18.400,0.195,-1.14
2021-08-19 19:07:18.404,0.525,-1.43
2021-08-19 19:07:18.408,0.86,-1.755
2021-08-19 19:07:18.412,1.06,-2.0
2021-08-19 19:07:18.420,0.69,-1.74
2021-08-19 19:07:18.424,0.135,-1.24
2021-08-19 19:07:18.428,-0.255,-0.785
2021-08-19 19:07:18.432,-0.45,-0.52
2021-08-19 19:07:18.436,-0.52,-0.335
2021-08-19 19:07:18.440,-0.51,-0.175
2021-08-19 19:07:18.444,-0.51,-0.055
2021-08-19 19:07:18.448,-0.53,0.035
2021-08-19 19:07:18.452,-0.525,0.065
2021-08-19 19:07:18.456,-0.54,0.115
2021-08-19 19:07:18.460,-0.54,0.115
2021-08-19 19:07:18.464,-0.545,0.14
2021-08-19 19:07:18.468,-0.545,0.13
2021-08-19 19:07:18.472,-0.535,0.11
2021-08-19 19:07:18.476,-0.55,0.125
2021-08-19 19:07:18.480,-0.565,0.13
2021-08-19 19:07:18.484,-0.58,0.14
2021-08-19 19:07:18.488,-0.575,0.155
2021-08-19 19:07:18.492,-0.59,0.135
2021-08-19 19:07:18.496,-0.585,0.145
2021-08-19 19:07:18.500,-0.575,0.135
2021-08-19 19:07:18.504,-0.57,0.17
2021-08-19 19:07:18.508,-0.6,0.17
2021-08-19 19:07:18.512,-0.585,0.155
2021-08-19 19:07:18.516,-0.585,0.15
2021-08-19 19:07:18.520,-0.59,0.15
2021-08-19 19:07:18.524,-0.6,0.14
2021-08-19 19:07:18.528,-0.6,0.16
2021-08-19 19:07:18.532,-0.615,0.16
2021-08-19 19:07:18.536,-0.605,0.17
2021-08-19 19:07:18.540,-0.6,0.165
2021-08-19 19:07:18.544,-0.63,0.16
2021-08-19 19:07:18.548,-0.59,0.19
2021-08-19 19:07:18.552,-0.62,0.2
2021-08-19 19:07:18.556,-0.615,0.195
2021-08-19 19:07:18.560,-0.59,0.19
2021-08-19 19:07:18.564,-0.585,0.22
2021-08-19 19:07:18.568,-0.615,0.225
2021-08-19 19:07:18.572,-0.57,0.235
2021-08-19 19:07:18.576,-0.6,0.23
2021-08-19 19:07:18.580,-0.6,0.23
2021-08-19 19:07:18.584,-0.6,0.255
2021-08-19 19:07:18.588,-0.565,0.25
2021-08-19 19:07:18.592,-0.57,0.235
2021-08-19 19:07:18.596,-0.6,0.245
2021-08-19 19:07:18.600,-0.58,0.24
2021-08-19 19:07:18.604,-0.565,0.23
2021-08-19 19:07:18.608,-0.56,0.225
2021-08-19 19:07:18.612,-0.535,0.205
2021-08-19 19:07:18.616,-0.54,0.195
2021-08-19 19:07:18.620,-0.55,0.18
2021-08-19 19:07:18.624,-0.54,0.165
2021-08-19 19:07:18.628,-0.5,0.145
2021-08-19 19:07:18.632,-0.51,0.115
2021-08-19 19:07:18.636,-0.495,0.105
2021-08-19 19:07:18.640,-0.475,0.09
2021-08-19 19:07:18.644,-0.44,0.075
2021-08-19 19:07:18.648,-0.445,0.055
2021-08-19 19:07:18.652,-0.425,0.045
2021-08-19 19:07:18.656,-0.425,0.01
2021-08-19 19:07:18.660,-0.385,0.02
2021-08-19 19:07:18.664,-0.405,0.02
2021-08-19 19:07:18.668,-0.39,-0.005
2021-08-19 19:07:18.672,-0.38,-0.01
2021-08-19 19:07:18.676,-0.365,-0.01
2021-08-19 19:07:18.680,-0.365,-0.02
2021-08-19 19:07:18.684,-0.345,-0.035
2021-08-19 19:07:18.688,-0.33,-0.035
2021-08-19 19:07:18.692,-0.325,-0.025
2021-08-19 19:07:18.696,-0.315,-0.025
2021-08-19 19:07:18.700,-0.295,-0.02
2021-08-19 19:07:18.704,-0.33,0.0
2021-08-19 19:07:18.708,-0.3,-0.02
2021-08-19 19:07:18.712,-0.305,-0.01
2021-08-19 19:07:18.716,-0.3,-0.01
2021-08-19 19:07:18.720,-0.3,-0.02
2021-08-19 19:07:18.724,-0.31,-0.01
2021-08-19 19:07:18.728,-0.31,-0.025
2021-08-19 19:07:18.732,-0.29,-0.01
2021-08-19 19:07:18.736,-0.315,-0.005
2021-08-19 19:07:18.740,-0.315,0.005
2021-08-19 19:07:18.744,-0.32,-0.005
2021-08-19 19:07:18.748,-0.32,0.005
2021-08-19 19:07:18.752,-0.31,-0.015
2021-08-19 19:07:18.756,-0.31,0.005
2021-08-19 19:07:18.760,-0.315,-0.01
2021-08-19 19:07:18.764,-0.335,-0.01
2021-08-19 19:07:18.768,-0.32,0.01
2021-08-19 19:07:18.772,-0.305,0.01
2021-08-19 19:07:18.776,-0.31,0.015
2021-08-19 19:07:18.780,-0.32,0.01
2021-08-19 19:07:18.784,-0.33,0.005
2021-08-19 19:07:18.788,-0.31,0.015
2021-08-19 19:07:18.792,-0.3,0.03
2021-08-19 19:07:18.796,-0.285,-0.005
2021-08-19 19:07:18.800,-0.28,0.025
2021-08-19 19:07:18.804,-0.26,0.03
2021-08-19 19:07:18.808,-0.245,0.035
2021-08-19 19:07:18.812,-0.235,0.04
2021-08-19 19:07:18.816,-0.19,0.045
2021-08-19 19:07:18.820,-0.16,0.06
2021-08-19 19:07:18.824,-0.14,0.075
2021-08-19 19:07:18.828,-0.115,0.07
2021-08-19 19:07:18.832,-0.095,0.08
2021-08-19 19:07:18.836,-0.095,0.075
2021-08-19 19:07:18.840,-0.1,0.03
2021-08-19 19:07:18.844,-0.085,0.0
2021-08-19 19:07:18.848,-0.09,-0.035
2021-08-19 19:07:18.852,-0.13,-0.105
2021-08-19 19:07:18.856,-0.185,-0.12
2021-08-19 19:07:18.860,-0.235,-0.115
2021-08-19 19:07:18.864,-0.285,-0.125
2021-08-19 19:07:18.868,-0.305,-0.09
2021-08-19 19:07:18.872,-0.345,-0.08
2021-08-19 19:07:18.876,-0.375,-0.07
2021-08-19 19:07:18.880,-0.39,-0.025
2021-08-19 19:07:18.884,-0.38,0.01
2021-08-19 19:07:18.888,-0.395,-0.01
2021-08-19 19:07:18.892,-0.425,0.005
2021-08-19 19:07:18.896,-0.39,0.01
2021-08-19 19:07:18.900,-0.385,0.0
2021-08-19 19:07:18.904,-0.405,-0.03
2021-08-19 19:07:18.908,-0.405,-0.025
2021-08-19 19:07:18.912,-0.385,-0.035
2021-08-19 19:07:18.916,-0.38,-0.04
2021-08-19 19:07:18.920,-0.385,-0.015
2021-08-19 19:07:18.924,-0.37,-0.015
2021-08-19 19:07:18.928,-0.365,-0.04
2021-08-19 19:07:18.932,-0.35,-0.025
2021-08-19 19:07:18.936,-0.355,-0.025
2021-08-19 19:07:18.940,-0.365,-0.025
2021-08-19 19:07:18.944,-0.365,-0.005
2021-08-19 19:07:18.948,-0.36,-0.035
2021-08-19 19:07:18.952,-0.355,-0.015
2021-08-19 19:07:18.956,-0.36,-0.025
2021-08-19 19:07:18.960,-0.365,-0.01
2021-08-19 19:07:18.964,-0.36,-0.02
2021-08-19 19:07:18.968,-0.355,-0.025
2021-08-19 19:07:18.972,-0.34,-0.05
2021-08-19 19:07:18.976,-0.335,-0.05
2021-08-19 19:07:18.980,-0.35,-0.045
2021-08-19 19:07:18.984,-0.33,-0.055
2021-08-19 19:07:18.988,-0.285,-0.045
2021-08-19 19:07:18.992,-0.225,-0.07
2021-08-19 19:07:18.996,-0.125,-0.085
2021-08-19 19:07:19.000,-0.04,-0.11
2021-08-19 19:07:19.004,0.03,-0.185
2021-08-19 19:07:19.008,0.065,-0.25
2021-08-19 19:07:19.012,0.095,-0.335
2021-08-19 19:07:19.016,0.08,-0.41
2021-08-19 19:07:19.020,0.055,-0.53
2021-08-19 19:07:19.024,0.025,-0.69
2021-08-19 19:07:19.028,0.08,-0.925
2021-08-19 19:07:19.032,0.24,-1.18
2021-08-19 19:07:19.036,0.57,-1.515
2021-08-19 19:07:19.040,0.92,-1.82
2021-08-19 19:07:19.052,0.625,-1.695
2021-08-19 19:07:19.056,0.09,-1.145
2021-08-19 19:07:19.060,-0.275,-0.72
2021-08-19 19:07:19.064,-0.4,-0.475
2021-08-19 19:07:19.068,-0.465,-0.295
2021-08-19 19:07:19.072,-0.47,-0.14
2021-08-19 19:07:19.076,-0.49,-0.04
2021-08-19 19:07:19.080,-0.5,0.04
2021-08-19 19:07:19.084,-0.52,0.075
2021-08-19 19:07:19.088,-0.52,0.1
2021-08-19 19:07:19.092,-0.515,0.1
2021-08-19 19:07:19.096,-0.53,0.095
2021-08-19 19:07:19.100,-0.535,0.095
2021-08-19 19:07:19.104,-0.535,0.095
2021-08-19 19:07:19.108,-0.555,0.15
2021-08-19 19:07:19.112,-0.525,0.13
2021-08-19 19:07:19.116,-0.56,0.135
2021-08-19 19:07:19.120,-0.57,0.13
2021-08-19 19:07:19.124,-0.55,0.125
2021-08-19 19:07:19.128,-0.54,0.115
2021-08-19 19:07:19.132,-0.55,0.13
2021-08-19 19:07:19.136,-0.56,0.13
2021-08-19 19:07:19.140,-0.59,0.115
2021-08-19 19:07:19.144,-0.56,0.14
2021-08-19 19:07:19.148,-0.57,0.125
2021-08-19 19:07:19.152,-0.575,0.135
2021-08-19 19:07:19.156,-0.585,0.135
2021-08-19 19:07:19.160,-0.575,0.115
2021-08-19 19:07:19.164,-0.58,0.155
2021-08-19 19:07:19.168,-0.585,0.16
2021-08-19 19:07:19.172,-0.585,0.15
2021-08-19 19:07:19.176,-0.605,0.155
2021-08-19 19:07:19.180,-0.605,0.175
2021-08-19 19:07:19.184,-0.59,0.16
2021-08-19 19:07:19.188,-0.6,0.19
2021-08-19 19:07:19.192,-0.565,0.19
2021-08-19 19:07:19.196,-0.6,0.195
2021-08-19 19:07:19.200,-0.595,0.19
2021-08-19 19:07:19.204,-0.585,0.21
2021-08-19 19:07:19.208,-0.59,0.205
2021-08-19 19:07:19.212,-0.605,0.205
2021-08-19 19:07:19.216,-0.575,0.225
2021-08-19 19:07:19.220,-0.595,0.2
2021-08-19 19:07:19.224,-0.58,0.195
2021-08-19 19:07:19.228,-0.585,0.205
2021-08-19 19:07:19.232,-0.56,0.19
2021-08-19 19:07:19.236,-0.575,0.17
2021-08-19 19:07:19.240,-0.575,0.165
2021-08-19 19:07:19.244,-0.555,0.15
2021-08-19 19:07:19.248,-0.555,0.15
2021-08-19 19:07:19.252,-0.54,0.12
2021-08-19 19:07:19.256,-0.535,0.115
2021-08-19 19:07:19.260,-0.52,0.09
2021-08-19 19:07:19.264,-0.48,0.07
2021-08-19 19:07:19.268,-0.495,0.045
2021-08-19 19:07:19.272,-0.475,0.035
2021-08-19 19:07:19.276,-0.455,0.02
2021-08-19 19:07:19.280,-0.45,0.015
2021-08-19 19:07:19.284,-0.445,0.015
2021-08-19 19:07:19.288,-0.44,-0.005
2021-08-19 19:07:19.292,-0.405,-0.01
2021-08-19 19:07:19.296,-0.39,-0.04
2021-08-19 19:07:19.300,-0.395,-0.02
2021-08-19 19:07:19.304,-0.375,-0.04
2021-08-19 19:07:19.308,-0.36,-0.045
2021-08-19 19:07:19.312,-0.345,-0.035
2021-08-19 19:07:19.316,-0.34,-0.04
2021-08-19 19:07:19.320,-0.335,-0.01
2021-08-19 19:07:19.324,-0.33,-0.035
2021-08-19 19:07:19.328,-0.31,-0.035
2021-08-19 19:07:19.332,-0.32,-0.05
2021-08-19 19:07:19.336,-0.33,-0.04
2021-08-19 19:07:19.340,-0.315,-0.04
2021-08-19 19:07:19.344,-0.31,-0.01
2021-08-19 19:07:19.348,-0.305,-0.015
2021-08-19 19:07:19.352,-0.3,-0.005
2021-08-19 19:07:19.356,-0.31,-0.015
2021-08-19 19:07:19.360,-0.315,-0.015
2021-08-19 19:07:19.364,-0.305,0.005
2021-08-19 19:07:19.368,-0.34,-0.005
2021-08-19 19:07:19.372,-0.33,0.01
2021-08-19 19:07:19.376,-0.335,0.005
2021-08-19 19:07:19.380,-0.345,0.005
2021-08-19 19:07:19.384,-0.335,-0.02
2021-08-19 19:07:19.388,-0.345,-0.005
2021-08-19 19:07:19.392,-0.34,0.005
2021-08-19 19:07:19.396,-0.355,-0.005
2021-08-19 19:07:19.400,-0.34,0.005
2021-08-19 19:07:19.404,-0.34,0.0
2021-08-19 19:07:19.408,-0.33,0.01
2021-08-19 19:07:19.412,-0.33,0.025
2021-08-19 19:07:19.416,-0.335,0.005
2021-08-19 19:07:19.420,-0.315,0.0
2021-08-19 19:07:19.424,-0.295,0.0
2021-08-19 19:07:19.428,-0.305,0.035
2021-08-19 19:07:19.432,-0.325,0.02
2021-08-19 19:07:19.436,-0.295,0.035
2021-08-19 19:07:19.440,-0.26,0.025
2021-08-19 19:07:19.444,-0.225,0.02
2021-08-19 19:07:19.448,-0.175,0.055
2021-08-19 19:07:19.452,-0.145,0.085
2021-08-19 19:07:19.456,-0.12,0.07
2021-08-19 19:07:19.460,-0.125,0.06
2021-08-19 19:07:19.464,-0.11,0.055
2021-08-19 19:07:19.468,-0.105,0.05
2021-08-19 19:07:19.472,-0.095,0.01
2021-08-19 19:07:19.476,-0.125,-0.04
2021-08-19 19:07:19.480,-0.165,-0.085
2021-08-19 19:07:19.484,-0.215,-0.115
2021-08-19 19:07:19.488,-0.28,-0.155
2021-08-19 19:07:19.492,-0.3,-0.105
2021-08-19 19:07:19.496,-0.34,-0.1
2021-08-19 19:07:19.500,-0.375,-0.07
2021-08-19 19:07:19.504,-0.4,-0.025
2021-08-19 19:07:19.508,-0.405,-0.015
2021-08-19 19:07:19.512,-0.405,0.015
2021-08-19 19:07:19.516,-0.41,0.03
2021-08-19 19:07:19.520,-0.41,0.01
2021-08-19 19:07:19.524,-0.415,0.0
2021-08-19 19:07:19.528,-0.39,-0.015
2021-08-19 19:07:19.532,-0.4,-0.015
2021-08-19 19:07:19.536,-0.415,-0.02
2021-08-19 19:07:19.540,-0.4,0.0
2021-08-19 19:07:19.544,-0.375,-0.035
2021-08-19 19:07:19.548,-0.385,-0.035
2021-08-19 19:07:19.552,-0.39,-0.035
2021-08-19 19:07:19.556,-0.375,-0.04
2021-08-19 19:07:19.560,-0.365,-0.025
2021-08-19 19:07:19.564,-0.355,-0.025
2021-08-19 19:07:19.568,-0.355,-0.04
2021-08-19 19:07:19.572,-0.375,-0.02
2021-08-19 19:07:19.576,-0.35,-0.015
2021-08-19 19:07:19.580,-0.355,-0.035
2021-08-19 19:07:19.584,-0.345,-0.02
2021-08-19 19:07:19.588,-0.355,-0.02
2021-08-19 19:07:19.592,-0.34,0.0
2021-08-19 19:07:19.596,-0.36,-0.02
2021-08-19 19:07:19.600,-0.345,-0.005
2021-08-19 19:07:19.604,-0.345,-0.02
2021-08-19 19:07:19.608,-0.335,-0.02
2021-08-19 19:07:19.612,-0.295,-0.025
2021-08-19 19:07:19.616,-0.245,-0.025
2021-08-19 19:07:19.620,-0.17,-0.04
2021-08-19 19:07:19.624,-0.08,-0.05
2021-08-19 19:07:19.628,0.0,-0.105
2021-08-19 19:07:19.632,0.055,-0.17
2021-08-19 19:07:19.636,0.095,-0.255
2021-08-19 19:07:19.640,0.12,-0.34
2021-08-19 19:07:19.644,0.095,-0.46
2021-08-19 19:07:19.648,0.035,-0.625
2021-08-19 19:07:19.652,0.035,-0.83
2021-08-19 19:07:19.656,0.165,-1.04
2021-08-19 19:07:19.660,0.435,-1.35
2021-08-19 19:07:19.664,0.785,-1.685
2021-08-19 19:07:19.668,1.045,-1.94
2021-08-19 19:07:19.676,0.78,-1.79
2021-08-19 19:07:19.680,0.28,-1.3
2021-08-19 19:07:19.684,-0.14,-0.775
2021-08-19 19:07:19.688,-0.375,-0.47
2021-08-19 19:07:19.692,-0.465,-0.295
2021-08-19 19:07:19.696,-0.46,-0.155
2021-08-19 19:07:19.700,-0.43,-0.015
2021-08-19 19:07:19.704,-0.48,0.05
2021-08-19 19:07:19.708,-0.515,0.12
2021-08-19 19:07:19.712,-0.515,0.15
2021-08-19 19:07:19.716,-0.515,0.14
2021-08-19 19:07:19.720,-0.525,0.135
2021-08-19 19:07:19.724,-0.535,0.145
2021-08-19 19:07:19.728,-0.525,0.165
2021-08-19 19:07:19.732,-0.5,0.145
2021-08-19 19:07:19.736,-0.525,0.155
2021-08-19 19:07:19.740,-0.535,0.155
2021-08-19 19:07:19.744,-0.54,0.15
2021-08-19 19:07:19.748,-0.55,0.14
2021-08-19 19:07:19.752,-0.55,0.17
2021-08-19 19:07:19.756,-0.55,0.155
2021-08-19 19:07:19.760,-0.56,0.145
2021-08-19 19:07:19.764,-0.52,0.16
2021-08-19 19:07:19.768,-0.54,0.155
2021-08-19 19:07:19.772,-0.545,0.16
2021-08-19 19:07:19.776,-0.56,0.155
2021-08-19 19:07:19.780,-0.565,0.155
2021-08-19 19:07:19.784,-0.56,0.165
2021-08-19 19:07:19.788,-0.565,0.17
2021-08-19 19:07:19.792,-0.575,0.175
2021-08-19 19:07:19.796,-0.585,0.2
2021-08-19 19:07:19.800,-0.57,0.185
2021-08-19 19:07:19.804,-0.585,0.19
2021-08-19 19:07:19.808,-0.575,0.195
2021-08-19 19:07:19.812,-0.575,0.19
2021-08-19 19:07:19.816,-0.565,0.205
2021-08-19 19:07:19.820,-0.565,0.195
2021-08-19 19:07:19.824,-0.575,0.2
2021-08-19 19:07:19.828,-0.555,0.24
2021-08-19 19:07:19.832,-0.555,0.23
2021-08-19 19:07:19.836,-0.565,0.225
2021-08-19 19:07:19.840,-0.555,0.235
2021-08-19 19:07:19.844,-0.575,0.24
2021-08-19 19:07:19.848,-0.53,0.225
2021-08-19 19:07:19.852,-0.535,0.22
2021-08-19 19:07:19.856,-0.53,0.22
2021-08-19 19:07:19.860,-0.525,0.205
2021-08-19 19:07:19.864,-0.51,0.22
2021-08-19 19:07:19.868,-0.495,0.165
2021-08-19 19:07:19.872,-0.505,0.16
2021-08-19 19:07:19.876,-0.495,0.155
2021-08-19 19:07:19.880,-0.505,0.135
2021-08-19 19:07:19.884,-0.485,0.095
2021-08-19 19:07:19.888,-0.45,0.09
2021-08-19 19:07:19.892,-0.455,0.1
2021-08-19 19:07:19.896,-0.445,0.07
2021-08-19 19:07:19.900,-0.43,0.05
2021-08-19 19:07:19.904,-0.405,0.035
2021-08-19 19:07:19.908,-0.39,0.03
2021-08-19 19:07:19.912,-0.385,0.03
2021-08-19 19:07:19.916,-0.37,0.01
2021-08-19 19:07:19.920,-0.37,0.0
2021-08-19 19:07:19.924,-0.345,0.0
2021-08-19 19:07:19.928,-0.355,0.005
2021-08-19 19:07:19.932,-0.31,0.0
2021-08-19 19:07:19.936,-0.285,-0.02
2021-08-19 19:07:19.940,-0.295,-0.015
2021-08-19 19:07:19.944,-0.295,-0.015
2021-08-19 19:07:19.948,-0.285,-0.025
2021-08-19 19:07:19.952,-0.275,-0.015
2021-08-19 19:07:19.956,-0.265,-0.015
2021-08-19 19:07:19.960,-0.28,0.0
2021-08-19 19:07:19.964,-0.265,-0.02
2021-08-19 19:07:19.968,-0.245,-0.02
2021-08-19 19:07:19.972,-0.26,0.0
2021-08-19 19:07:19.976,-0.255,-0.005
2021-08-19 19:07:19.980,-0.275,-0.03
2021-08-19 19:07:19.984,-0.265,0.005
2021-08-19 19:07:19.988,-0.26,0.015
2021-08-19 19:07:19.992,-0.265,0.005
2021-08-19 19:07:19.996,-0.3,0.0
2021-08-19 19:07:20.000,-0.265,0.015
2021-08-19 19:07:20.004,-0.3,0.015
2021-08-19 19:07:20.008,-0.27,0.015
2021-08-19 19:07:20.012,-0.28,0.0
2021-08-19 19:07:20.016,-0.27,-0.005
2021-08-19 19:07:20.020,-0.265,0.005
2021-08-19 19:07:20.024,-0.265,0.015
2021-08-19 19:07:20.028,-0.26,0.01
2021-08-19 19:07:20.032,-0.24,0.005
2021-08-19 19:07:20.036,-0.27,0.01
2021-08-19 19:07:20.040,-0.255,0.005
2021-08-19 19:07:20.044,-0.26,0.01
2021-08-19 19:07:20.048,-0.265,0.025
2021-08-19 19:07:20.052,-0.25,0.0
2021-08-19 19:07:20.056,-0.25,0.035
2021-08-19 19:07:20.060,-0.22,0.02
2021-08-19 19:07:20.064,-0.2,0.035
2021-08-19 19:07:20.068,-0.155,0.03
2021-08-19 19:07:20.072,-0.11,0.06
2021-08-19 19:07:20.076,-0.08,0.055
2021-08-19 19:07:20.080,-0.05,0.075
2021-08-19 19:07:20.084,-0.06,0.09
2021-08-19 19:07:20.088,-0.025,0.06
2021-08-19 19:07:20.092,-0.02,0.055
2021-08-19 19:07:20.096,-0.015,0.04
2021-08-19 19:07:20.100,-0.015,0.01
2021-08-19 19:07:20.104,-0.025,-0.07
2021-08-19 19:07:20.108,-0.085,-0.12
2021-08-19 19:07:20.112,-0.14,-0.14
2021-08-19 19:07:20.116,-0.19,-0.13
2021-08-19 19:07:20.120,-0.215,-0.125
2021-08-19 19:07:20.124,-0.265,-0.095
2021-08-19 19:07:20.128,-0.29,-0.075
2021-08-19 19:07:20.132,-0.3,-0.05
2021-08-19 19:07:20.136,-0.32,-0.02
2021-08-19 19:07:20.140,-0.32,-0.01
2021-08-19 19:07:20.144,-0.315,-0.005
2021-08-19 19:07:20.148,-0.32,-0.025
2021-08-19 19:07:20.152,-0.32,-0.01
2021-08-19 19:07:20.156,-0.315,-0.04
2021-08-19 19:07:20.160,-0.31,-0.04
2021-08-19 19:07:20.164,-0.28,-0.035
2021-08-19 19:07:20.168,-0.3,-0.03
2021-08-19 19:07:20.172,-0.295,-0.05
2021-08-19 19:07:20.176,-0.29,-0.04
2021-08-19 19:07:20.180,-0.27,-0.055
2021-08-19 19:07:20.184,-0.27,-0.06
2021-08-19 19:07:20.188,-0.26,-0.04
2021-08-19 19:07:20.192,-0.25,-0.04
2021-08-19 19:07:20.196,-0.26,-0.03
2021-08-19 19:07:20.200,-0.275,-0.02
2021-08-19 19:07:20.204,-0.275,-0.025
2021-08-19 19:07:20.208,-0.245,-0.045
2021-08-19 19:07:20.212,-0.265,-0.04
2021-08-19 19:07:20.216,-0.26,-0.055
2021-08-19 19:07:20.220,-0.255,-0.035
2021-08-19 19:07:20.224,-0.27,-0.05
2021-08-19 19:07:20.228,-0.255,-0.045
2021-08-19 19:07:20.232,-0.26,-0.06
2021-08-19 19:07:20.236,-0.23,-0.04
2021-08-19 19:07:20.240,-0.17,-0.065
2021-08-19 19:07:20.244,-0.09,-0.07
2021-08-19 19:07:20.248,-0.01,-0.07
2021-08-19 19:07:20.252,0.09,-0.09
2021-08-19 19:07:20.256,0.17,-0.16
2021-08-19 19:07:20.260,0.235,-0.255
2021-08-19 19:07:20.264,0.265,-0.345
2021-08-19 19:07:20.268,0.285,-0.42
2021-08-19 19:07:20.272,0.24,-0.555
2021-08-19 19:07:20.276,0.21,-0.75
2021-08-19 19:07:20.280,0.235,-0.94
2021-08-19 19:07:20.284,0.43,-1.19
2021-08-19 19:07:20.288,0.765,-1.535
2021-08-19 19:07:20.292,1.085,-1.85
2021-08-19 19:07:20.300,1.06,-1.98
2021-08-19 19:07:20.304,0.615,-1.575
2021-08-19 19:07:20.308,0.15,-1.01
2021-08-19 19:07:20.312,-0.15,-0.63
2021-08-19 19:07:20.316,-0.275,-0.405
2021-08-19 19:07:20.320,-0.315,-0.215
2021-08-19 19:07:20.324,-0.295,-0.085
2021-08-19 19:07:20.328,-0.335,0.03
2021-08-19 19:07:20.332,-0.375,0.07
2021-08-19 19:07:20.336,-0.38,0.095
2021-08-19 19:07:20.340,-0.4,0.135
2021-08-19 19:07:20.344,-0.42,0.12
2021-08-19 19:07:20.348,-0.435,0.11
2021-08-19 19:07:20.352,-0.45,0.115
2021-08-19 19:07:20.356,-0.44,0.145
2021-08-19 19:07:20.360,-0.435,0.13
2021-08-19 19:07:20.364,-0.45,0.12
2021-08-19 19:07:20.368,-0.455,0.13
2021-08-19 19:07:20.372,-0.475,0.13
2021-08-19 19:07:20.376,-0.46,0.125
2021-08-19 19:07:20.380,-0.49,0.13
2021-08-19 19:07:20.384,-0.48,0.12
2021-08-19 19:07:20.388,-0.47,0.12
2021-08-19 19:07:20.392,-0.485,0.115
2021-08-19 19:07:20.396,-0.48,0.135
2021-08-19 19:07:20.400,-0.485,0.14
2021-08-19 19:07:20.404,-0.48,0.145
2021-08-19 19:07:20.408,-0.48,0.145
2021-08-19 19:07:20.412,-0.495,0.125
2021-08-19 19:07:20.416,-0.49,0.14
2021-08-19 19:07:20.420,-0.51,0.17
2021-08-19 19:07:20.424,-0.505,0.175
2021-08-19 19:07:20.428,-0.49,0.18
2021-08-19 19:07:20.432,-0.49,0.185
2021-08-19 19:07:20.436,-0.505,0.17
2021-08-19 19:07:20.440,-0.485,0.17
2021-08-19 19:07:20.444,-0.47,0.185
2021-08-19 19:07:20.448,-0.48,0.19
2021-08-19 19:07:20.452,-0.47,0.17
2021-08-19 19:07:20.456,-0.5,0.195
2021-08-19 19:07:20.460,-0.485,0.195
2021-08-19 19:07:20.464,-0.475,0.22
2021-08-19 19:07:20.468,-0.47,0.22
2021-08-19 19:07:20.472,-0.49,0.185
2021-08-19 19:07:20.476,-0.455,0.175
2021-08-19 19:07:20.480,-0.435,0.18
2021-08-19 19:07:20.484,-0.44,0.17
2021-08-19 19:07:20.488,-0.43,0.17
2021-08-19 19:07:20.492,-0.44,0.15
2021-08-19 19:07:20.496,-0.44,0.16
2021-08-19 19:07:20.500,-0.435,0.125
2021-08-19 19:07:20.504,-0.425,0.125
2021-08-19 19:07:20.508,-0.415,0.11
2021-08-19 19:07:20.512,-0.405,0.085
2021-08-19 19:07:20.516,-0.38,0.07
2021-08-19 19:07:20.520,-0.345,0.06
2021-08-19 19:07:20.524,-0.34,0.05
2021-08-19 19:07:20.528,-0.32,0.025
2021-08-19 19:07:20.532,-0.32,0.02
2021-08-19 19:07:20.536,-0.3,0.0
2021-08-19 19:07:20.540,-0.3,0.005
2021-08-19 19:07:20.544,-0.28,0.0
2021-08-19 19:07:20.548,-0.265,0.0
2021-08-19 19:07:20.552,-0.245,-0.015
2021-08-19 19:07:20.556,-0.24,-0.035
2021-08-19 19:07:20.560,-0.24,-0.045
2021-08-19 19:07:20.564,-0.23,-0.02
2021-08-19 19:07:20.568,-0.21,-0.025
2021-08-19 19:07:20.572,-0.195,-0.015
2021-08-19 19:07:20.576,-0.195,-0.035
2021-08-19 19:07:20.580,-0.185,-0.025
2021-08-19 19:07:20.584,-0.19,-0.015
2021-08-19 19:07:20.588,-0.17,-0.015
2021-08-19 19:07:20.592,-0.16,-0.04
2021-08-19 19:07:20.596,-0.16,-0.035
2021-08-19 19:07:20.600,-0.16,-0.035
2021-08-19 19:07:20.604,-0.17,-0.01
2021-08-19 19:07:20.608,-0.16,-0.005
2021-08-19 19:07:20.612,-0.16,0.0
2021-08-19 19:07:20.616,-0.175,-0.02
2021-08-19 19:07:20.620,-0.175,-0.02
2021-08-19 19:07:20.624,-0.175,-0.01
2021-08-19 19:07:20.628,-0.16,0.01
2021-08-19 19:07:20.632,-0.175,-0.015
2021-08-19 19:07:20.636,-0.195,-0.015
2021-08-19 19:07:20.640,-0.19,-0.01
2021-08-19 19:07:20.644,-0.16,-0.015
2021-08-19 19:07:20.648,-0.17,0.01
2021-08-19 19:07:20.652,-0.17,-0.015
2021-08-19 19:07:20.656,-0.175,-0.015
2021-08-19 19:07:20.660,-0.17,-0.02
2021-08-19 19:07:20.664,-0.165,-0.015
2021-08-19 19:07:20.668,-0.155,-0.005
2021-08-19 19:07:20.672,-0.17,0.0
2021-08-19 19:07:20.676,-0.16,0.005
2021-08-19 19:07:20.680,-0.13,0.01
2021-08-19 19:07:20.684,-0.125,0.0
2021-08-19 19:07:20.688,-0.1,0.02
2021-08-19 19:07:20.692,-0.135,0.01
2021-08-19 19:07:20.696,-0.11,0.02
2021-08-19 19:07:20.700,-0.08,0.02
2021-08-19 19:07:20.704,-0.01,0.025
2021-08-19 19:07:20.708,-0.015,0.035
2021-08-19 19:07:20.712,0.01,0.06
2021-08-19 19:07:20.716,0.02,0.035
2021-08-19 19:07:20.720,0.045,0.07
2021-08-19 19:07:20.724,0.07,0.035
2021-08-19 19:07:20.728,0.06,0.035
2021-08-19 19:07:20.732,0.065,0.015
2021-08-19 19:07:20.736,0.065,-0.045
2021-08-19 19:07:20.740,-0.01,-0.12
2021-08-19 19:07:20.744,-0.08,-0.14
2021-08-19 19:07:20.748,-0.12,-0.11
2021-08-19 19:07:20.752,-0.145,-0.13
2021-08-19 19:07:20.756,-0.185,-0.11
2021-08-19 19:07:20.760,-0.215,-0.115
2021-08-19 19:07:20.764,-0.2,-0.08
2021-08-19 19:07:20.768,-0.245,-0.045
2021-08-19 19:07:20.772,-0.265,-0.025
2021-08-19 19:07:20.776,-0.24,-0.005
2021-08-19 19:07:20.780,-0.235,-0.03
2021-08-19 19:07:20.784,-0.225,-0.055
2021-08-19 19:07:20.788,-0.225,-0.025
2021-08-19 19:07:20.792,-0.23,-0.02
2021-08-19 19:07:20.796,-0.225,-0.03
2021-08-19 19:07:20.800,-0.225,-0.025
2021-08-19 19:07:20.804,-0.23,-0.04
2021-08-19 19:07:20.808,-0.215,-0.04
2021-08-19 19:07:20.812,-0.195,-0.04
2021-08-19 19:07:20.816,-0.18,-0.035
2021-08-19 19:07:20.820,-0.21,-0.055
2021-08-19 19:07:20.824,-0.19,-0.06
2021-08-19 19:07:20.828,-0.185,-0.05
2021-08-19 19:07:20.832,-0.2,-0.04
2021-08-19 19:07:20.836,-0.18,-0.045
2021-08-19 19:07:20.840,-0.19,-0.05
2021-08-19 19:07:20.844,-0.19,-0.04
2021-08-19 19:07:20.848,-0.19,-0.025
2021-08-19 19:07:20.852,-0.185,-0.055
2021-08-19 19:07:20.856,-0.2,-0.05
2021-08-19 19:07:20.860,-0.18,-0.03
2021-08-19 19:07:20.864,-0.185,-0.045
2021-08-19 19:07:20.868,-0.18,-0.06
2021-08-19 19:07:20.872,-0.155,-0.065
2021-08-19 19:07:20.876,-0.085,-0.05
2021-08-19 19:07:20.880,0.02,-0.065
2021-08-19 19:07:20.884,0.095,-0.105
2021-08-19 19:07:20.888,0.21,-0.155
2021-08-19 19:07:20.892,0.285,-0.205
2021-08-19 19:07:20.896,0.355,-0.29
2021-08-19 19:07:20.900,0.39,-0.375
2021-08-19 19:07:20.904,0.385,-0.465
2021-08-19 19:07:20.908,0.35,-0.62
2021-08-19 19:07:20.912,0.325,-0.82
2021-08-19 19:07:20.916,0.415,-1.03
2021-08-19 19:07:20.920,0.66,-1.34
2021-08-19 19:07:20.924,1.02,-1.655
2021-08-19 19:07:20.928,1.285,-1.91
2021-08-19 19:07:20.936,1.045,-1.84
2021-08-19 19:07:20.940,0.525,-1.325
2021-08-19 19:07:20.944,0.08,-0.82
2021-08-19 19:07:20.948,-0.14,-0.54
2021-08-19 19:07:20.952,-0.225,-0.37
2021-08-19 19:07:20.956,-0.265,-0.17
2021-08-19 19:07:20.960,-0.275,-0.06
2021-08-19 19:07:20.964,-0.305,0.045
2021-08-19 19:07:20.968,-0.33,0.105
2021-08-19 19:07:20.972,-0.34,0.125
2021-08-19 19:07:20.976,-0.33,0.12
2021-08-19 19:07:20.980,-0.34,0.115
2021-08-19 19:07:20.984,-0.36,0.125
2021-08-19 19:07:20.988,-0.38,0.135
2021-08-19 19:07:20.992,-0.39,0.14
2021-08-19 19:07:20.996,-0.39,0.135
2021-08-19 19:07:21.000,-0.405,0.13
2021-08-19 19:07:21.004,-0.405,0.13
2021-08-19 19:07:21.008,-0.4,0.13
2021-08-19 19:07:21.012,-0.43,0.095
2021-08-19 19:07:21.016,-0.4,0.14
2021-08-19 19:07:21.020,-0.415,0.15
2021-08-19 19:07:21.024,-0.415,0.13
2021-08-19 19:07:21.028,-0.415,0.16
2021-08-19 19:07:21.032,-0.42,0.14
2021-08-19 19:07:21.036,-0.435,0.14
2021-08-19 19:07:21.040,-0.425,0.15
2021-08-19 19:07:21.044,-0.43,0.155
2021-08-19 19:07:21.048,-0.445,0.16
2021-08-19 19:07:21.052,-0.445,0.16
2021-08-19 19:07:21.056,-0.45,0.16
2021-08-19 19:07:21.060,-0.46,0.165
2021-08-19 19:07:21.064,-0.47,0.175
2021-08-19 19:07:21.068,-0.45,0.195
2021-08-19 19:07:21.072,-0.46,0.19
2021-08-19 19:07:21.076,-0.475,0.195
2021-08-19 19:07:21.080,-0.46,0.215
2021-08-19 19:07:21.084,-0.465,0.22
2021-08-19 19:07:21.088,-0.47,0.215
2021-08-19 19:07:21.092,-0.465,0.215
2021-08-19 19:07:21.096,-0.44,0.21
2021-08-19 19:07:21.100,-0.445,0.215
2021-08-19 19:07:21.104,-0.455,0.205
2021-08-19 19:07:21.108,-0.445,0.2
