Time,ECG1,ECG2
2021-08-19 10:15:58.380,0.0,-0.01
2021-08-19 10:15:58.384,-0.015,0.005
2021-08-19 10:15:58.388,0.0,-0.015
2021-08-19 10:15:58.392,0.0,-0.035
2021-08-19 10:15:58.396,-0.02,-0.035
2021-08-19 10:15:58.400,-0.04,-0.02
2021-08-19 10:15:58.404,-0.03,-0.03
2021-08-19 10:15:58.408,-0.04,-0.03
2021-08-19 10:15:58.412,-0.03,-0.04
2021-08-19 10:15:58.416,-0.02,-0.045
2021-08-19 10:15:58.420,-0.005,-0.06
2021-08-19 10:15:58.424,0.0,-0.055
2021-08-19 10:15:58.428,-0.02,-0.08
2021-08-19 10:15:58.432,-0.01,-0.085
2021-08-19 10:15:58.436,-0.03,-0.09
2021-08-19 10:15:58.440,-0.05,-0.08
2021-08-19 10:15:58.444,-0.055,-0.105
2021-08-19 10:15:58.448,-0.06,-0.1
2021-08-19 10:15:58.452,-0.065,-0.09
2021-08-19 10:15:58.456,-0.045,-0.08
2021-08-19 10:15:58.460,-0.035,-0.12
2021-08-19 10:15:58.464,-0.03,-0.12
2021-08-19 10:15:58.468,-0.04,-0.11
2021-08-19 10:15:58.472,-0.035,-0.13
2021-08-19 10:15:58.476,-0.035,-0.12
2021-08-19 10:15:58.480,-0.045,-0.13
2021-08-19 10:15:58.484,-0.06,-0.145
2021-08-19 10:15:58.488,-0.08,-0.16
2021-08-19 10:15:58.492,-0.09,-0.185
2021-08-19 10:15:58.496,-0.065,-0.18
2021-08-19 10:15:58.500,-0.06,-0.175
2021-08-19 10:15:58.504,-0.05,-0.185
2021-08-19 10:15:58.508,-0.035,-0.195
2021-08-19 10:15:58.512,-0.02,-0.18
2021-08-19 10:15:58.516,0.0,-0.19
2021-08-19 10:15:58.520,0.035,-0.195
2021-08-19 10:15:58.524,0.065,-0.165
2021-08-19 10:15:58.528,0.085,-0.12
2021-08-19 10:15:58.532,0.085,-0.13
2021-08-19 10:15:58.536,0.095,-0.105
2021-08-19 10:15:58.540,0.105,-0.065
2021-08-19 10:15:58.544,0.125,-0.065
2021-08-19 10:15:58.548,0.145,-0.07
2021-08-19 10:15:58.552,0.175,-0.1
2021-08-19 10:15:58.556,0.185,-0.125
2021-08-19 10:15:58.560,0.18,-0.115
2021-08-19 10:15:58.564,0.165,-0.09
2021-08-19 10:15:58.568,0.085,-0.09
2021-08-19 10:15:58.572,0.05,-0.105
2021-08-19 10:15:58.576,0.0,-0.145
2021-08-19 10:15:58.580,-0.03,-0.185
2021-08-19 10:15:58.584,-0.045,-0.22
2021-08-19 10:15:58.588,-0.075,-0.205
2021-08-19 10:15:58.592,-0.105,-0.17
2021-08-19 10:15:58.596,-0.115,-0.18
2021-08-19 10:15:58.600,-0.08,-0.19
2021-08-19 10:15:58.604,-0.09,-0.195
2021-08-19 10:15:58.608,-0.105,-0.215
2021-08-19 10:15:58.612,-0.09,-0.205
2021-08-19 10:15:58.616,-0.08,-0.22
2021-08-19 10:15:58.620,-0.065,-0.225
2021-08-19 10:15:58.624,0.0,-0.2
2021-08-19 10:15:58.628,0.06,-0.17
2021-08-19 10:15:58.632,0.195,-0.09
2021-08-19 10:15:58.636,0.415,-0.08
2021-08-19 10:15:58.640,0.685,-0.13
2021-08-19 10:15:58.644,0.82,-0.145
2021-08-19 10:15:58.648,0.89,-0.26
2021-08-19 10:15:58.652,0.87,-0.535
2021-08-19 10:15:58.656,0.5,-0.915
2021-08-19 10:15:58.660,-0.335,-1.29
2021-08-19 10:15:58.664,-1.155,-1.645
2021-08-19 10:15:58.668,-1.595,-1.965
2021-08-19 10:15:58.688,-0.66,-1.86
2021-08-19 10:15:58.692,-0.425,-1.495
2021-08-19 10:15:58.696,-0.31,-1.16
2021-08-19 10:15:58.700,-0.23,-0.83
2021-08-19 10:15:58.704,-0.205,-0.555
2021-08-19 10:15:58.708,-0.2,-0.39
2021-08-19 10:15:58.712,-0.205,-0.3
2021-08-19 10:15:58.716,-0.195,-0.26
2021-08-19 10:15:58.720,-0.2,-0.225
2021-08-19 10:15:58.724,-0.2,-0.205
2021-08-19 10:15:58.728,-0.175,-0.215
2021-08-19 10:15:58.732,-0.185,-0.205
2021-08-19 10:15:58.736,-0.185,-0.205
2021-08-19 10:15:58.740,-0.175,-0.16
2021-08-19 10:15:58.744,-0.205,-0.17
2021-08-19 10:15:58.748,-0.2,-0.2
2021-08-19 10:15:58.752,-0.23,-0.175
2021-08-19 10:15:58.756,-0.265,-0.15
2021-08-19 10:15:58.760,-0.29,-0.18
2021-08-19 10:15:58.764,-0.29,-0.16
2021-08-19 10:15:58.768,-0.295,-0.16
2021-08-19 10:15:58.772,-0.29,-0.18
2021-08-19 10:15:58.776,-0.3,-0.18
2021-08-19 10:15:58.780,-0.31,-0.165
2021-08-19 10:15:58.784,-0.305,-0.195
2021-08-19 10:15:58.788,-0.35,-0.18
2021-08-19 10:15:58.792,-0.345,-0.2
2021-08-19 10:15:58.796,-0.375,-0.18
2021-08-19 10:15:58.800,-0.42,-0.195
2021-08-19 10:15:58.804,-0.42,-0.225
2021-08-19 10:15:58.808,-0.44,-0.215
2021-08-19 10:15:58.812,-0.45,-0.235
2021-08-19 10:15:58.816,-0.47,-0.235
2021-08-19 10:15:58.820,-0.47,-0.25
2021-08-19 10:15:58.824,-0.475,-0.235
2021-08-19 10:15:58.828,-0.475,-0.25
2021-08-19 10:15:58.832,-0.495,-0.24
2021-08-19 10:15:58.836,-0.5,-0.24
2021-08-19 10:15:58.840,-0.515,-0.26
2021-08-19 10:15:58.844,-0.535,-0.275
2021-08-19 10:15:58.848,-0.55,-0.265
2021-08-19 10:15:58.852,-0.56,-0.26
2021-08-19 10:15:58.856,-0.57,-0.235
2021-08-19 10:15:58.860,-0.575,-0.265
2021-08-19 10:15:58.864,-0.56,-0.255
2021-08-19 10:15:58.868,-0.545,-0.25
2021-08-19 10:15:58.872,-0.54,-0.25
2021-08-19 10:15:58.876,-0.545,-0.255
2021-08-19 10:15:58.880,-0.525,-0.265
2021-08-19 10:15:58.884,-0.52,-0.255
2021-08-19 10:15:58.888,-0.55,-0.25
2021-08-19 10:15:58.892,-0.545,-0.23
2021-08-19 10:15:58.896,-0.52,-0.265
2021-08-19 10:15:58.900,-0.515,-0.245
2021-08-19 10:15:58.904,-0.48,-0.225
2021-08-19 10:15:58.908,-0.49,-0.25
2021-08-19 10:15:58.912,-0.44,-0.245
2021-08-19 10:15:58.916,-0.41,-0.225
2021-08-19 10:15:58.920,-0.395,-0.22
2021-08-19 10:15:58.924,-0.35,-0.21
2021-08-19 10:15:58.928,-0.33,-0.195
2021-08-19 10:15:58.932,-0.29,-0.165
2021-08-19 10:15:58.936,-0.28,-0.155
2021-08-19 10:15:58.940,-0.275,-0.125
2021-08-19 10:15:58.944,-0.22,-0.1
2021-08-19 10:15:58.948,-0.195,-0.1
2021-08-19 10:15:58.952,-0.145,-0.085
2021-08-19 10:15:58.956,-0.11,-0.06
2021-08-19 10:15:58.960,-0.105,-0.08
2021-08-19 10:15:58.964,-0.08,-0.06
2021-08-19 10:15:58.968,-0.06,-0.04
2021-08-19 10:15:58.972,-0.065,-0.02
2021-08-19 10:15:58.976,-0.08,-0.03
2021-08-19 10:15:58.980,-0.08,-0.015
2021-08-19 10:15:58.984,-0.085,-0.035
2021-08-19 10:15:58.988,-0.08,-0.05
2021-08-19 10:15:58.992,-0.08,-0.06
2021-08-19 10:15:58.996,-0.08,-0.06
2021-08-19 10:15:59.000,-0.075,-0.05
2021-08-19 10:15:59.004,-0.07,-0.06
2021-08-19 10:15:59.008,-0.055,-0.045
2021-08-19 10:15:59.012,-0.05,-0.07
2021-08-19 10:15:59.016,-0.055,-0.07
2021-08-19 10:15:59.020,-0.065,-0.085
2021-08-19 10:15:59.024,-0.075,-0.115
2021-08-19 10:15:59.028,-0.065,-0.12
2021-08-19 10:15:59.032,-0.085,-0.125
2021-08-19 10:15:59.036,-0.09,-0.125
2021-08-19 10:15:59.040,-0.075,-0.125
2021-08-19 10:15:59.044,-0.06,-0.145
2021-08-19 10:15:59.048,-0.065,-0.145
2021-08-19 10:15:59.052,-0.055,-0.16
2021-08-19 10:15:59.056,-0.08,-0.155
2021-08-19 10:15:59.060,-0.08,-0.155
2021-08-19 10:15:59.064,-0.1,-0.155
2021-08-19 10:15:59.068,-0.11,-0.17
2021-08-19 10:15:59.072,-0.105,-0.17
2021-08-19 10:15:59.076,-0.1,-0.185
2021-08-19 10:15:59.080,-0.11,-0.175
2021-08-19 10:15:59.084,-0.1,-0.16
2021-08-19 10:15:59.088,-0.08,-0.155
2021-08-19 10:15:59.092,-0.075,-0.16
2021-08-19 10:15:59.096,-0.06,-0.16
2021-08-19 10:15:59.100,-0.06,-0.16
2021-08-19 10:15:59.104,-0.075,-0.175
2021-08-19 10:15:59.108,-0.095,-0.17
2021-08-19 10:15:59.112,-0.105,-0.18
2021-08-19 10:15:59.116,-0.08,-0.17
2021-08-19 10:15:59.120,-0.09,-0.18
2021-08-19 10:15:59.124,-0.11,-0.195
2021-08-19 10:15:59.128,-0.11,-0.195
2021-08-19 10:15:59.132,-0.085,-0.18
2021-08-19 10:15:59.136,-0.085,-0.175
2021-08-19 10:15:59.140,-0.065,-0.19
2021-08-19 10:15:59.144,-0.085,-0.18
2021-08-19 10:15:59.148,-0.09,-0.18
2021-08-19 10:15:59.152,-0.085,-0.185
2021-08-19 10:15:59.156,-0.1,-0.215
2021-08-19 10:15:59.160,-0.115,-0.195
2021-08-19 10:15:59.164,-0.125,-0.19
2021-08-19 10:15:59.168,-0.11,-0.185
2021-08-19 10:15:59.172,-0.12,-0.19
2021-08-19 10:15:59.176,-0.1,-0.2
2021-08-19 10:15:59.180,-0.1,-0.19
2021-08-19 10:15:59.184,-0.075,-0.215
2021-08-19 10:15:59.188,-0.085,-0.18
2021-08-19 10:15:59.192,-0.075,-0.2
2021-08-19 10:15:59.196,-0.105,-0.18
2021-08-19 10:15:59.200,-0.12,-0.195
2021-08-19 10:15:59.204,-0.115,-0.18
2021-08-19 10:15:59.208,-0.13,-0.2
2021-08-19 10:15:59.212,-0.125,-0.205
2021-08-19 10:15:59.216,-0.135,-0.225
2021-08-19 10:15:59.220,-0.115,-0.195
2021-08-19 10:15:59.224,-0.1,-0.205
2021-08-19 10:15:59.228,-0.075,-0.215
2021-08-19 10:15:59.232,-0.09,-0.2
2021-08-19 10:15:59.236,-0.095,-0.21
2021-08-19 10:15:59.240,-0.08,-0.2
2021-08-19 10:15:59.244,-0.085,-0.18
2021-08-19 10:15:59.248,-0.075,-0.175
2021-08-19 10:15:59.252,-0.08,-0.195
2021-08-19 10:15:59.256,-0.065,-0.19
2021-08-19 10:15:59.260,-0.04,-0.185
2021-08-19 10:15:59.264,-0.035,-0.205
2021-08-19 10:15:59.268,-0.02,-0.175
2021-08-19 10:15:59.272,-0.02,-0.185
2021-08-19 10:15:59.276,-0.03,-0.175
2021-08-19 10:15:59.280,-0.02,-0.16
2021-08-19 10:15:59.284,-0.01,-0.185
2021-08-19 10:15:59.288,-0.02,-0.185
2021-08-19 10:15:59.292,-0.04,-0.18
2021-08-19 10:15:59.296,-0.025,-0.175
2021-08-19 10:15:59.300,-0.01,-0.175
2021-08-19 10:15:59.304,-0.03,-0.165
2021-08-19 10:15:59.308,-0.045,-0.195
2021-08-19 10:15:59.312,-0.02,-0.185
2021-08-19 10:15:59.316,-0.01,-0.18
2021-08-19 10:15:59.320,0.01,-0.175
2021-08-19 10:15:59.324,0.02,-0.17
2021-08-19 10:15:59.328,0.0,-0.195
2021-08-19 10:15:59.332,0.01,-0.18
2021-08-19 10:15:59.336,0.0,-0.195
2021-08-19 10:15:59.340,-0.01,-0.165
2021-08-19 10:15:59.344,-0.025,-0.175
2021-08-19 10:15:59.348,-0.015,-0.19
2021-08-19 10:15:59.352,0.0,-0.16
2021-08-19 10:15:59.356,-0.015,-0.17
2021-08-19 10:15:59.360,0.005,-0.165
2021-08-19 10:15:59.364,0.01,-0.16
2021-08-19 10:15:59.368,0.035,-0.175
2021-08-19 10:15:59.372,0.035,-0.18
2021-08-19 10:15:59.376,0.025,-0.145
2021-08-19 10:15:59.380,0.0,-0.175
2021-08-19 10:15:59.384,0.005,-0.16
2021-08-19 10:15:59.388,0.005,-0.145
2021-08-19 10:15:59.392,0.0,-0.155
2021-08-19 10:15:59.396,0.005,-0.16
2021-08-19 10:15:59.400,0.02,-0.17
2021-08-19 10:15:59.404,0.015,-0.18
2021-08-19 10:15:59.408,0.015,-0.18
2021-08-19 10:15:59.412,0.02,-0.18
2021-08-19 10:15:59.416,0.035,-0.175
2021-08-19 10:15:59.420,0.02,-0.16
2021-08-19 10:15:59.424,0.01,-0.165
2021-08-19 10:15:59.428,0.01,-0.18
2021-08-19 10:15:59.432,0.005,-0.16
2021-08-19 10:15:59.436,0.0,-0.16
2021-08-19 10:15:59.440,0.0,-0.185
2021-08-19 10:15:59.444,0.0,-0.19
2021-08-19 10:15:59.448,0.03,-0.175
2021-08-19 10:15:59.452,0.045,-0.18
2021-08-19 10:15:59.456,0.075,-0.155
2021-08-19 10:15:59.460,0.115,-0.175
2021-08-19 10:15:59.464,0.135,-0.135
2021-08-19 10:15:59.468,0.155,-0.115
2021-08-19 10:15:59.472,0.16,-0.1
2021-08-19 10:15:59.476,0.17,-0.065
2021-08-19 10:15:59.480,0.175,-0.03
2021-08-19 10:15:59.484,0.15,-0.015
2021-08-19 10:15:59.488,0.17,-0.02
2021-08-19 10:15:59.492,0.175,-0.06
2021-08-19 10:15:59.496,0.205,-0.11
2021-08-19 10:15:59.500,0.235,-0.115
2021-08-19 10:15:59.504,0.25,-0.175
2021-08-19 10:15:59.508,0.225,-0.165
2021-08-19 10:15:59.512,0.175,-0.2
2021-08-19 10:15:59.516,0.13,-0.17
2021-08-19 10:15:59.520,0.08,-0.215
2021-08-19 10:15:59.524,0.03,-0.235
2021-08-19 10:15:59.528,0.03,-0.24
2021-08-19 10:15:59.532,0.01,-0.23
2021-08-19 10:15:59.536,0.015,-0.21
2021-08-19 10:15:59.540,-0.005,-0.2
2021-08-19 10:15:59.544,-0.035,-0.2
2021-08-19 10:15:59.548,-0.04,-0.205
2021-08-19 10:15:59.552,-0.005,-0.21
2021-08-19 10:15:59.556,0.0,-0.235
2021-08-19 10:15:59.560,-0.015,-0.24
2021-08-19 10:15:59.564,0.0,-0.22
2021-08-19 10:15:59.568,0.035,-0.185
2021-08-19 10:15:59.572,0.095,-0.175
2021-08-19 10:15:59.576,0.21,-0.125
2021-08-19 10:15:59.580,0.43,-0.07
2021-08-19 10:15:59.584,0.71,-0.095
2021-08-19 10:15:59.588,0.9,-0.14
2021-08-19 10:15:59.592,1.005,-0.17
2021-08-19 10:15:59.596,1.04,-0.42
2021-08-19 10:15:59.600,0.785,-0.785
2021-08-19 10:15:59.604,0.09,-1.19
2021-08-19 10:15:59.608,-0.745,-1.545
2021-08-19 10:15:59.612,-1.32,-1.865
2021-08-19 10:15:59.632,-0.635,-1.915
2021-08-19 10:15:59.636,-0.43,-1.57
2021-08-19 10:15:59.640,-0.255,-1.29
2021-08-19 10:15:59.644,-0.21,-0.965
2021-08-19 10:15:59.648,-0.17,-0.675
2021-08-19 10:15:59.652,-0.17,-0.495
2021-08-19 10:15:59.656,-0.155,-0.375
2021-08-19 10:15:59.660,-0.145,-0.325
2021-08-19 10:15:59.664,-0.155,-0.305
2021-08-19 10:15:59.668,-0.16,-0.29
2021-08-19 10:15:59.672,-0.16,-0.28
2021-08-19 10:15:59.676,-0.135,-0.25
2021-08-19 10:15:59.680,-0.14,-0.22
2021-08-19 10:15:59.684,-0.115,-0.195
2021-08-19 10:15:59.688,-0.15,-0.23
2021-08-19 10:15:59.692,-0.17,-0.24
2021-08-19 10:15:59.696,-0.19,-0.225
2021-08-19 10:15:59.700,-0.205,-0.225
2021-08-19 10:15:59.704,-0.215,-0.215
2021-08-19 10:15:59.708,-0.24,-0.23
2021-08-19 10:15:59.712,-0.24,-0.215
2021-08-19 10:15:59.716,-0.245,-0.22
2021-08-19 10:15:59.720,-0.215,-0.24
2021-08-19 10:15:59.724,-0.24,-0.235
2021-08-19 10:15:59.728,-0.24,-0.225
2021-08-19 10:15:59.732,-0.245,-0.23
2021-08-19 10:15:59.736,-0.285,-0.21
2021-08-19 10:15:59.740,-0.29,-0.24
2021-08-19 10:15:59.744,-0.335,-0.22
2021-08-19 10:15:59.748,-0.33,-0.23
2021-08-19 10:15:59.752,-0.365,-0.215
2021-08-19 10:15:59.756,-0.345,-0.245
2021-08-19 10:15:59.760,-0.36,-0.255
2021-08-19 10:15:59.764,-0.37,-0.26
2021-08-19 10:15:59.768,-0.345,-0.26
2021-08-19 10:15:59.772,-0.36,-0.275
2021-08-19 10:15:59.776,-0.37,-0.28
2021-08-19 10:15:59.780,-0.385,-0.295
2021-08-19 10:15:59.784,-0.38,-0.28
2021-08-19 10:15:59.788,-0.41,-0.31
2021-08-19 10:15:59.792,-0.425,-0.32
2021-08-19 10:15:59.796,-0.42,-0.335
2021-08-19 10:15:59.800,-0.42,-0.325
2021-08-19 10:15:59.804,-0.41,-0.34
2021-08-19 10:15:59.808,-0.425,-0.335
2021-08-19 10:15:59.812,-0.39,-0.34
2021-08-19 10:15:59.816,-0.39,-0.325
2021-08-19 10:15:59.820,-0.39,-0.325
2021-08-19 10:15:59.824,-0.405,-0.325
2021-08-19 10:15:59.828,-0.39,-0.32
2021-08-19 10:15:59.832,-0.41,-0.345
2021-08-19 10:15:59.836,-0.41,-0.32
2021-08-19 10:15:59.840,-0.4,-0.33
2021-08-19 10:15:59.844,-0.415,-0.35
2021-08-19 10:15:59.848,-0.415,-0.36
2021-08-19 10:15:59.852,-0.405,-0.35
2021-08-19 10:15:59.856,-0.375,-0.345
2021-08-19 10:15:59.860,-0.37,-0.345
2021-08-19 10:15:59.864,-0.34,-0.325
2021-08-19 10:15:59.868,-0.33,-0.34
2021-08-19 10:15:59.872,-0.31,-0.32
2021-08-19 10:15:59.876,-0.33,-0.345
2021-08-19 10:15:59.880,-0.32,-0.335
2021-08-19 10:15:59.884,-0.305,-0.34
2021-08-19 10:15:59.888,-0.28,-0.345
2021-08-19 10:15:59.892,-0.27,-0.32
2021-08-19 10:15:59.896,-0.25,-0.305
2021-08-19 10:15:59.900,-0.2,-0.305
2021-08-19 10:15:59.904,-0.185,-0.295
2021-08-19 10:15:59.908,-0.15,-0.285
2021-08-19 10:15:59.912,-0.15,-0.28
2021-08-19 10:15:59.916,-0.125,-0.25
2021-08-19 10:15:59.920,-0.115,-0.24
2021-08-19 10:15:59.924,-0.135,-0.23
2021-08-19 10:15:59.928,-0.135,-0.195
2021-08-19 10:15:59.932,-0.11,-0.2
2021-08-19 10:15:59.936,-0.125,-0.17
2021-08-19 10:15:59.940,-0.11,-0.175
2021-08-19 10:15:59.944,-0.1,-0.175
2021-08-19 10:15:59.948,-0.075,-0.145
2021-08-19 10:15:59.952,-0.04,-0.14
2021-08-19 10:15:59.956,-0.07,-0.095
2021-08-19 10:15:59.960,-0.09,-0.105
2021-08-19 10:15:59.964,-0.09,-0.11
2021-08-19 10:15:59.968,-0.09,-0.1
2021-08-19 10:15:59.972,-0.09,-0.09
2021-08-19 10:15:59.976,-0.11,-0.1
2021-08-19 10:15:59.980,-0.08,-0.095
2021-08-19 10:15:59.984,-0.1,-0.09
2021-08-19 10:15:59.988,-0.095,-0.1
2021-08-19 10:15:59.992,-0.07,-0.12
2021-08-19 10:15:59.996,-0.055,-0.135
2021-08-19 10:20:00.008,-0.545,-1.84
2021-08-19 10:20:00.012,-0.36,-1.44
2021-08-19 10:20:00.016,-0.26,-1.11
2021-08-19 10:20:00.020,-0.16,-0.78
2021-08-19 10:20:00.024,-0.14,-0.505
2021-08-19 10:20:00.028,-0.13,-0.335
2021-08-19 10:20:00.032,-0.13,-0.2
2021-08-19 10:20:00.036,-0.105,-0.14
2021-08-19 10:20:00.040,-0.12,-0.13
2021-08-19 10:20:00.044,-0.095,-0.095
2021-08-19 10:20:00.048,-0.095,-0.1
2021-08-19 10:20:00.052,-0.1,-0.095
2021-08-19 10:20:00.056,-0.13,-0.08
2021-08-19 10:20:00.060,-0.145,-0.055
2021-08-19 10:20:00.064,-0.155,-0.06
2021-08-19 10:20:00.068,-0.15,-0.08
2021-08-19 10:20:00.072,-0.17,-0.06
2021-08-19 10:20:00.076,-0.16,-0.06
2021-08-19 10:20:00.080,-0.14,-0.06
2021-08-19 10:20:00.084,-0.14,-0.04
2021-08-19 10:20:00.088,-0.17,-0.05
2021-08-19 10:20:00.092,-0.16,-0.055
2021-08-19 10:20:00.096,-0.19,-0.065
2021-08-19 10:20:00.100,-0.2,-0.045
2021-08-19 10:20:00.104,-0.2,-0.035
2021-08-19 10:20:00.108,-0.215,-0.075
2021-08-19 10:20:00.112,-0.23,-0.085
2021-08-19 10:20:00.116,-0.23,-0.085
2021-08-19 10:20:00.120,-0.24,-0.07
2021-08-19 10:20:00.124,-0.25,-0.06
2021-08-19 10:20:00.128,-0.245,-0.055
2021-08-19 10:20:00.132,-0.29,-0.065
2021-08-19 10:20:00.136,-0.315,-0.07
2021-08-19 10:20:00.140,-0.34,-0.07
2021-08-19 10:20:00.144,-0.35,-0.05
2021-08-19 10:20:00.148,-0.385,-0.055
2021-08-19 10:20:00.152,-0.4,-0.08
2021-08-19 10:20:00.156,-0.435,-0.08
2021-08-19 10:20:00.160,-0.46,-0.095
2021-08-19 10:20:00.164,-0.465,-0.085
2021-08-19 10:20:00.168,-0.495,-0.1
2021-08-19 10:20:00.172,-0.515,-0.105
2021-08-19 10:20:00.176,-0.525,-0.1
2021-08-19 10:20:00.180,-0.57,-0.12
2021-08-19 10:20:00.184,-0.59,-0.135
2021-08-19 10:20:00.188,-0.64,-0.16
2021-08-19 10:20:00.192,-0.675,-0.185
2021-08-19 10:20:00.196,-0.68,-0.19
2021-08-19 10:20:00.200,-0.71,-0.225
2021-08-19 10:20:00.204,-0.73,-0.23
2021-08-19 10:20:00.208,-0.755,-0.255
2021-08-19 10:20:00.212,-0.755,-0.26
2021-08-19 10:20:00.216,-0.765,-0.29
2021-08-19 10:20:00.220,-0.765,-0.29
2021-08-19 10:20:00.224,-0.765,-0.295
2021-08-19 10:20:00.228,-0.785,-0.315
2021-08-19 10:20:00.232,-0.78,-0.315
2021-08-19 10:20:00.236,-0.76,-0.32
2021-08-19 10:20:00.240,-0.755,-0.33
2021-08-19 10:20:00.244,-0.73,-0.33
2021-08-19 10:20:00.248,-0.675,-0.34
2021-08-19 10:20:00.252,-0.655,-0.335
2021-08-19 10:20:00.256,-0.615,-0.35
2021-08-19 10:20:00.260,-0.55,-0.355
2021-08-19 10:20:00.264,-0.495,-0.315
2021-08-19 10:20:00.268,-0.445,-0.305
2021-08-19 10:20:00.272,-0.39,-0.305
2021-08-19 10:20:00.276,-0.32,-0.285
2021-08-19 10:20:00.280,-0.29,-0.29
2021-08-19 10:20:00.284,-0.255,-0.26
2021-08-19 10:20:00.288,-0.225,-0.225
2021-08-19 10:20:00.292,-0.195,-0.195
2021-08-19 10:20:00.296,-0.16,-0.2
2021-08-19 10:20:00.300,-0.105,-0.19
2021-08-19 10:20:00.304,-0.07,-0.16
2021-08-19 10:20:00.308,-0.035,-0.13
2021-08-19 10:20:00.312,-0.015,-0.12
2021-08-19 10:20:00.316,-0.01,-0.09
2021-08-19 10:20:00.320,-0.035,-0.115
2021-08-19 10:20:00.324,-0.03,-0.11
2021-08-19 10:20:00.328,-0.04,-0.075
2021-08-19 10:20:00.332,-0.035,-0.035
2021-08-19 10:20:00.336,-0.02,-0.035
2021-08-19 10:20:00.340,-0.02,-0.055
2021-08-19 10:20:00.344,-0.015,-0.04
2021-08-19 10:20:00.348,0.015,-0.035
2021-08-19 10:20:00.352,0.015,-0.04
2021-08-19 10:20:00.356,0.025,-0.03
2021-08-19 10:20:00.360,-0.01,-0.02
2021-08-19 10:20:00.364,0.005,-0.015
2021-08-19 10:20:00.368,0.0,-0.025
2021-08-19 10:20:00.372,0.0,0.0
2021-08-19 10:20:00.376,-0.01,-0.02
2021-08-19 10:20:00.380,0.01,-0.02
2021-08-19 10:20:00.384,0.02,-0.025
2021-08-19 10:20:00.388,0.0,-0.03
2021-08-19 10:20:00.392,0.01,-0.045
2021-08-19 10:20:00.396,0.025,-0.015
2021-08-19 10:20:00.400,0.005,-0.02
2021-08-19 10:20:00.404,-0.015,-0.025
2021-08-19 10:20:00.408,-0.005,-0.02
2021-08-19 10:20:00.412,0.0,-0.035
2021-08-19 10:20:00.416,0.0,-0.03
2021-08-19 10:20:00.420,-0.025,-0.035
2021-08-19 10:20:00.424,-0.035,-0.04
2021-08-19 10:20:00.428,-0.04,-0.055
2021-08-19 10:20:00.432,-0.035,-0.045
2021-08-19 10:20:00.436,-0.05,-0.06
2021-08-19 10:20:00.440,-0.01,-0.035
2021-08-19 10:20:00.444,-0.02,-0.025
2021-08-19 10:20:00.448,-0.025,-0.045
2021-08-19 10:20:00.452,-0.02,-0.03
2021-08-19 10:20:00.456,-0.02,-0.055
2021-08-19 10:20:00.460,-0.035,-0.075
2021-08-19 10:20:00.464,-0.04,-0.065
2021-08-19 10:20:00.468,-0.05,-0.07
2021-08-19 10:20:00.472,-0.04,-0.065
2021-08-19 10:20:00.476,-0.035,-0.07
2021-08-19 10:20:00.480,-0.04,-0.085
2021-08-19 10:20:00.484,-0.015,-0.07
2021-08-19 10:20:00.488,-0.025,-0.075
2021-08-19 10:20:00.492,-0.015,-0.07
2021-08-19 10:20:00.496,-0.02,-0.09
2021-08-19 10:20:00.500,-0.01,-0.085
2021-08-19 10:20:00.504,-0.035,-0.05
2021-08-19 10:20:00.508,-0.055,-0.08
2021-08-19 10:20:00.512,-0.05,-0.125
2021-08-19 10:20:00.516,-0.055,-0.105
2021-08-19 10:20:00.520,-0.045,-0.105
2021-08-19 10:20:00.524,-0.06,-0.1
2021-08-19 10:20:00.528,-0.07,-0.105
2021-08-19 10:20:00.532,-0.04,-0.11
2021-08-19 10:20:00.536,-0.015,-0.105
2021-08-19 10:20:00.540,-0.025,-0.105
2021-08-19 10:20:00.544,-0.025,-0.1
2021-08-19 10:20:00.548,-0.01,-0.11
2021-08-19 10:20:00.552,-0.04,-0.095
2021-08-19 10:20:00.556,-0.065,-0.085
2021-08-19 10:20:00.560,-0.05,-0.09
2021-08-19 10:20:00.564,-0.07,-0.11
2021-08-19 10:20:00.568,-0.065,-0.1
2021-08-19 10:20:00.572,-0.08,-0.12
2021-08-19 10:20:00.576,-0.065,-0.11
2021-08-19 10:20:00.580,-0.04,-0.095
2021-08-19 10:20:00.584,-0.04,-0.105
2021-08-19 10:20:00.588,-0.04,-0.085
2021-08-19 10:20:00.592,-0.05,-0.1
2021-08-19 10:20:00.596,-0.065,-0.1
2021-08-19 10:20:00.600,-0.06,-0.12
2021-08-19 10:20:00.604,-0.055,-0.12
2021-08-19 10:20:00.608,-0.08,-0.085
2021-08-19 10:20:00.612,-0.07,-0.095
2021-08-19 10:20:00.616,-0.075,-0.1
2021-08-19 10:20:00.620,-0.075,-0.095
2021-08-19 10:20:00.624,-0.05,-0.085
2021-08-19 10:20:00.628,-0.06,-0.1
2021-08-19 10:20:00.632,-0.045,-0.105
2021-08-19 10:20:00.636,-0.04,-0.14
2021-08-19 10:20:00.640,-0.025,-0.135
2021-08-19 10:20:00.644,-0.035,-0.09
2021-08-19 10:20:00.648,0.0,-0.1
2021-08-19 10:20:00.652,0.055,-0.095
2021-08-19 10:20:00.656,0.06,-0.075
2021-08-19 10:20:00.660,0.085,-0.035
2021-08-19 10:20:00.664,0.1,-0.005
2021-08-19 10:20:00.668,0.1,0.005
2021-08-19 10:20:00.672,0.115,0.0
2021-08-19 10:20:00.676,0.12,0.005
2021-08-19 10:20:00.680,0.1,0.015
2021-08-19 10:20:00.684,0.075,0.0
2021-08-19 10:20:00.688,0.05,-0.02
2021-08-19 10:20:00.692,0.045,-0.045
2021-08-19 10:20:00.696,0.015,-0.08
2021-08-19 10:20:00.700,0.0,-0.165
2021-08-19 10:20:00.704,0.0,-0.185
2021-08-19 10:20:00.708,-0.005,-0.19
2021-08-19 10:20:00.712,-0.02,-0.195
2021-08-19 10:20:00.716,-0.035,-0.185
2021-08-19 10:20:00.720,-0.05,-0.12
2021-08-19 10:20:00.724,-0.07,-0.105
2021-08-19 10:20:00.728,-0.08,-0.13
2021-08-19 10:20:00.732,-0.125,-0.12
2021-08-19 10:20:00.736,-0.135,-0.13
2021-08-19 10:20:00.740,-0.125,-0.11
2021-08-19 10:20:00.744,-0.12,-0.12
2021-08-19 10:20:00.748,-0.11,-0.14
2021-08-19 10:20:00.752,-0.075,-0.125
2021-08-19 10:20:00.756,0.01,-0.13
2021-08-19 10:20:00.760,0.08,-0.07
2021-08-19 10:20:00.764,0.215,-0.03
2021-08-19 10:20:00.768,0.465,-0.005
2021-08-19 10:20:00.772,0.695,-0.005
2021-08-19 10:20:00.776,0.855,-0.03
2021-08-19 10:20:00.780,0.97,-0.11
2021-08-19 10:20:00.784,1.03,-0.355
2021-08-19 10:20:00.788,0.77,-0.785
2021-08-19 10:20:00.792,0.045,-1.18
2021-08-19 10:20:00.796,-0.835,-1.525
2021-08-19 10:20:00.800,-1.415,-1.84
2021-08-19 10:20:00.824,-0.5,-1.69
2021-08-19 10:20:00.828,-0.37,-1.285
2021-08-19 10:20:00.832,-0.265,-0.9
2021-08-19 10:20:00.836,-0.2,-0.595
2021-08-19 10:20:00.840,-0.205,-0.355
2021-08-19 10:20:00.844,-0.185,-0.26
2021-08-19 10:20:00.848,-0.19,-0.185
2021-08-19 10:20:00.852,-0.18,-0.135
2021-08-19 10:20:00.856,-0.16,-0.135
2021-08-19 10:20:00.860,-0.155,-0.075
2021-08-19 10:20:00.864,-0.17,-0.045
2021-08-19 10:20:00.868,-0.18,-0.05
2021-08-19 10:20:00.872,-0.205,-0.05
2021-08-19 10:20:00.876,-0.205,-0.06
2021-08-19 10:20:00.880,-0.21,-0.07
2021-08-19 10:20:00.884,-0.2,-0.055
2021-08-19 10:20:00.888,-0.205,-0.065
2021-08-19 10:20:00.892,-0.22,-0.045
2021-08-19 10:20:00.896,-0.2,-0.03
2021-08-19 10:20:00.900,-0.19,-0.025
2021-08-19 10:20:00.904,-0.2,-0.05
2021-08-19 10:20:00.908,-0.21,-0.05
2021-08-19 10:20:00.912,-0.23,-0.02
2021-08-19 10:20:00.916,-0.255,-0.05
2021-08-19 10:20:00.920,-0.27,-0.015
2021-08-19 10:20:00.924,-0.295,-0.025
2021-08-19 10:20:00.928,-0.31,-0.035
2021-08-19 10:20:00.932,-0.32,-0.02
2021-08-19 10:20:00.936,-0.33,-0.025
2021-08-19 10:20:00.940,-0.32,-0.05
2021-08-19 10:20:00.944,-0.33,-0.015
2021-08-19 10:20:00.948,-0.32,-0.03
2021-08-19 10:20:00.952,-0.335,-0.02
2021-08-19 10:20:00.956,-0.395,-0.035
2021-08-19 10:20:00.960,-0.415,-0.065
2021-08-19 10:20:00.964,-0.44,-0.06
2021-08-19 10:20:00.968,-0.47,-0.03
2021-08-19 10:20:00.972,-0.495,-0.08
2021-08-19 10:20:00.976,-0.53,-0.095
2021-08-19 10:20:00.980,-0.56,-0.105
2021-08-19 10:20:00.984,-0.565,-0.105
2021-08-19 10:20:00.988,-0.585,-0.11
2021-08-19 10:20:00.992,-0.6,-0.13
2021-08-19 10:20:00.996,-0.605,-0.165
2021-08-19 10:20:01.000,-0.67,-0.16
2021-08-19 10:20:01.004,-0.71,-0.175
2021-08-19 10:20:01.008,-0.71,-0.195
2021-08-19 10:20:01.012,-0.76,-0.18
2021-08-19 10:20:01.016,-0.775,-0.22
2021-08-19 10:20:01.020,-0.785,-0.215
2021-08-19 10:20:01.024,-0.815,-0.235
2021-08-19 10:20:01.028,-0.845,-0.26
2021-08-19 10:20:01.032,-0.855,-0.275
2021-08-19 10:20:01.036,-0.8,-0.275
2021-08-19 10:20:01.040,-0.82,-0.275
2021-08-19 10:20:01.044,-0.82,-0.27
2021-08-19 10:20:01.048,-0.8,-0.295
2021-08-19 10:20:01.052,-0.83,-0.3
2021-08-19 10:20:01.056,-0.82,-0.32
2021-08-19 10:20:01.060,-0.785,-0.31
2021-08-19 10:20:01.064,-0.735,-0.31
2021-08-19 10:20:01.068,-0.715,-0.315
2021-08-19 10:20:01.072,-0.665,-0.295
2021-08-19 10:20:01.076,-0.605,-0.305
2021-08-19 10:20:01.080,-0.53,-0.3
2021-08-19 10:20:01.084,-0.49,-0.31
2021-08-19 10:20:01.088,-0.425,-0.32
2021-08-19 10:20:01.092,-0.385,-0.265
2021-08-19 10:20:01.096,-0.34,-0.23
2021-08-19 10:20:01.100,-0.3,-0.215
2021-08-19 10:20:01.104,-0.28,-0.19
2021-08-19 10:20:01.108,-0.22,-0.18
2021-08-19 10:20:01.112,-0.2,-0.16
2021-08-19 10:20:01.116,-0.18,-0.145
2021-08-19 10:20:01.120,-0.155,-0.13
2021-08-19 10:20:01.124,-0.1,-0.115
2021-08-19 10:20:01.128,-0.105,-0.09
2021-08-19 10:20:01.132,-0.085,-0.07
2021-08-19 10:20:01.136,-0.08,-0.07
2021-08-19 10:20:01.140,-0.055,-0.03
2021-08-19 10:20:01.144,-0.065,-0.03
2021-08-19 10:20:01.148,-0.08,-0.02
2021-08-19 10:20:01.152,-0.08,-0.03
2021-08-19 10:20:01.156,-0.07,-0.015
2021-08-19 10:20:01.160,-0.055,-0.01
2021-08-19 10:20:01.164,-0.045,-0.005
2021-08-19 10:20:01.168,-0.03,-0.02
2021-08-19 10:20:01.172,0.0,0.0
2021-08-19 10:20:01.176,-0.03,0.0
2021-08-19 10:20:01.180,-0.03,-0.01
2021-08-19 10:20:01.184,-0.05,-0.03
2021-08-19 10:20:01.188,-0.03,-0.02
2021-08-19 10:20:01.192,-0.05,0.015
2021-08-19 10:20:01.196,-0.035,0.015
2021-08-19 10:20:01.200,-0.05,-0.015
2021-08-19 10:20:01.204,-0.045,-0.015
2021-08-19 10:20:01.208,-0.03,-0.015
2021-08-19 10:20:01.212,-0.025,-0.015
2021-08-19 10:20:01.216,-0.01,-0.01
2021-08-19 10:20:01.220,-0.035,-0.045
2021-08-19 10:20:01.224,-0.04,-0.025
2021-08-19 10:20:01.228,-0.045,-0.045
2021-08-19 10:20:01.232,-0.055,-0.05
2021-08-19 10:20:01.236,-0.06,-0.05
2021-08-19 10:20:01.240,-0.06,-0.05
2021-08-19 10:20:01.244,-0.06,-0.04
2021-08-19 10:20:01.248,-0.07,-0.04
2021-08-19 10:20:01.252,-0.03,-0.085
2021-08-19 10:20:01.256,-0.04,-0.085
2021-08-19 10:20:01.260,-0.05,-0.085
2021-08-19 10:20:01.264,-0.04,-0.085
2021-08-19 10:20:01.268,-0.06,-0.1
2021-08-19 10:20:01.272,-0.06,-0.085
2021-08-19 10:20:01.276,-0.06,-0.1
2021-08-19 10:20:01.280,-0.095,-0.105
2021-08-19 10:20:01.284,-0.095,-0.105
2021-08-19 10:20:01.288,-0.09,-0.14
2021-08-19 10:20:01.292,-0.085,-0.115
2021-08-19 10:20:01.296,-0.085,-0.09
2021-08-19 10:20:01.300,-0.095,-0.115
2021-08-19 10:20:01.304,-0.085,-0.135
2021-08-19 10:20:01.308,-0.065,-0.1
2021-08-19 10:20:01.312,-0.075,-0.11
2021-08-19 10:20:01.316,-0.065,-0.095
2021-08-19 10:20:01.320,-0.085,-0.12
2021-08-19 10:20:01.324,-0.105,-0.12
2021-08-19 10:20:01.328,-0.11,-0.11
2021-08-19 10:20:01.332,-0.11,-0.11
2021-08-19 10:20:01.336,-0.115,-0.135
2021-08-19 10:20:01.340,-0.1,-0.135
2021-08-19 10:20:01.344,-0.1,-0.12
2021-08-19 10:20:01.348,-0.08,-0.11
2021-08-19 10:20:01.352,-0.08,-0.135
2021-08-19 10:20:01.356,-0.105,-0.13
2021-08-19 10:20:01.360,-0.09,-0.145
2021-08-19 10:20:01.364,-0.08,-0.155
2021-08-19 10:20:01.368,-0.095,-0.16
2021-08-19 10:20:01.372,-0.105,-0.15
2021-08-19 10:20:01.376,-0.115,-0.16
2021-08-19 10:20:01.380,-0.11,-0.16
2021-08-19 10:20:01.384,-0.115,-0.155
2021-08-19 10:20:01.388,-0.12,-0.155
2021-08-19 10:20:01.392,-0.1,-0.125
2021-08-19 10:20:01.396,-0.07,-0.115
2021-08-19 10:20:01.400,-0.105,-0.125
2021-08-19 10:20:01.404,-0.105,-0.14
2021-08-19 10:20:01.408,-0.125,-0.165
2021-08-19 10:20:01.412,-0.13,-0.16
2021-08-19 10:20:01.416,-0.15,-0.165
2021-08-19 10:20:01.420,-0.115,-0.145
2021-08-19 10:20:01.424,-0.1,-0.16
2021-08-19 10:20:01.428,-0.1,-0.145
2021-08-19 10:20:01.432,-0.115,-0.135
2021-08-19 10:20:01.436,-0.14,-0.105
2021-08-19 10:20:01.440,-0.165,-0.125
2021-08-19 10:20:01.444,-0.22,-0.125
2021-08-19 10:20:01.448,-0.24,-0.15
2021-08-19 10:20:01.452,-0.275,-0.14
2021-08-19 10:20:01.456,-0.28,-0.135
2021-08-19 10:20:01.460,-0.315,-0.155
2021-08-19 10:20:01.464,-0.32,-0.185
2021-08-19 10:20:01.468,-0.3,-0.2
2021-08-19 10:20:01.472,-0.3,-0.18
2021-08-19 10:20:01.476,-0.315,-0.18
2021-08-19 10:20:01.480,-0.28,-0.155
2021-08-19 10:20:01.484,-0.21,-0.145
2021-08-19 10:20:01.488,-0.17,-0.145
2021-08-19 10:20:01.492,-0.115,-0.18
2021-08-19 10:20:01.496,-0.105,-0.16
2021-08-19 10:20:01.500,-0.135,-0.145
2021-08-19 10:20:01.504,-0.115,-0.15
2021-08-19 10:20:01.508,-0.095,-0.165
2021-08-19 10:20:01.512,-0.085,-0.2
2021-08-19 10:20:01.516,-0.115,-0.22
2021-08-19 10:20:01.520,-0.095,-0.22
2021-08-19 10:20:01.524,-0.065,-0.195
2021-08-19 10:20:01.528,-0.04,-0.195
2021-08-19 10:20:01.532,0.02,-0.19
2021-08-19 10:20:01.536,0.07,-0.16
2021-08-19 10:20:01.540,0.2,-0.12
2021-08-19 10:20:01.544,0.46,-0.11
2021-08-19 10:20:01.548,0.7,-0.15
2021-08-19 10:20:01.552,0.84,-0.19
2021-08-19 10:20:01.556,0.94,-0.265
2021-08-19 10:20:01.560,0.99,-0.565
2021-08-19 10:20:01.564,0.67,-0.975
2021-08-19 10:20:01.568,-0.165,-1.32
2021-08-19 10:20:01.572,-1.02,-1.63
2021-08-19 10:20:01.576,-1.52,-1.955
2021-08-19 10:20:01.596,-0.6,-1.985
2021-08-19 10:20:01.600,-0.405,-1.57
2021-08-19 10:20:01.604,-0.31,-1.2
2021-08-19 10:20:01.608,-0.245,-0.835
2021-08-19 10:20:01.612,-0.225,-0.53
2021-08-19 10:20:01.616,-0.215,-0.4
2021-08-19 10:20:01.620,-0.19,-0.31
2021-08-19 10:20:01.624,-0.19,-0.23
2021-08-19 10:20:01.628,-0.18,-0.2
2021-08-19 10:20:01.632,-0.17,-0.185
2021-08-19 10:20:01.636,-0.19,-0.19
2021-08-19 10:20:01.640,-0.205,-0.17
2021-08-19 10:20:01.644,-0.195,-0.15
2021-08-19 10:20:01.648,-0.21,-0.165
2021-08-19 10:20:01.652,-0.2,-0.125
2021-08-19 10:20:01.656,-0.21,-0.11
2021-08-19 10:20:01.660,-0.19,-0.115
2021-08-19 10:20:01.664,-0.19,-0.1
2021-08-19 10:20:01.668,-0.19,-0.105
2021-08-19 10:20:01.672,-0.2,-0.12
2021-08-19 10:20:01.676,-0.215,-0.12
2021-08-19 10:20:01.680,-0.22,-0.11
2021-08-19 10:20:01.684,-0.245,-0.1
2021-08-19 10:20:01.688,-0.235,-0.095
2021-08-19 10:20:01.692,-0.25,-0.11
2021-08-19 10:20:01.696,-0.255,-0.115
2021-08-19 10:20:01.700,-0.26,-0.1
2021-08-19 10:20:01.704,-0.285,-0.07
2021-08-19 10:20:01.708,-0.27,-0.11
2021-08-19 10:20:01.712,-0.29,-0.085
2021-08-19 10:20:01.716,-0.3,-0.1
2021-08-19 10:20:01.720,-0.35,-0.08
2021-08-19 10:20:01.724,-0.365,-0.105
2021-08-19 10:20:01.728,-0.38,-0.09
2021-08-19 10:20:01.732,-0.41,-0.09
2021-08-19 10:20:01.736,-0.43,-0.13
2021-08-19 10:20:01.740,-0.47,-0.145
2021-08-19 10:20:01.744,-0.505,-0.125
2021-08-19 10:20:01.748,-0.52,-0.135
2021-08-19 10:20:01.752,-0.525,-0.175
2021-08-19 10:20:01.756,-0.53,-0.18
2021-08-19 10:20:01.760,-0.565,-0.175
2021-08-19 10:20:01.764,-0.59,-0.175
2021-08-19 10:20:01.768,-0.62,-0.195
2021-08-19 10:20:01.772,-0.64,-0.225
2021-08-19 10:20:01.776,-0.68,-0.225
2021-08-19 10:20:01.780,-0.715,-0.235
2021-08-19 10:20:01.784,-0.735,-0.225
2021-08-19 10:20:01.788,-0.765,-0.265
2021-08-19 10:20:01.792,-0.8,-0.295
2021-08-19 10:20:01.796,-0.83,-0.27
2021-08-19 10:20:01.800,-0.81,-0.29
2021-08-19 10:20:01.804,-0.81,-0.26
2021-08-19 10:20:01.808,-0.815,-0.31
2021-08-19 10:20:01.812,-0.81,-0.33
2021-08-19 10:20:01.816,-0.815,-0.325
2021-08-19 10:20:01.820,-0.82,-0.34
2021-08-19 10:20:01.824,-0.8,-0.35
2021-08-19 10:20:01.828,-0.765,-0.345
2021-08-19 10:20:01.832,-0.74,-0.34
2021-08-19 10:20:01.836,-0.72,-0.335
2021-08-19 10:20:01.840,-0.665,-0.33
2021-08-19 10:20:01.844,-0.61,-0.34
2021-08-19 10:20:01.848,-0.535,-0.31
2021-08-19 10:20:01.852,-0.505,-0.305
2021-08-19 10:20:01.856,-0.485,-0.305
2021-08-19 10:20:01.860,-0.425,-0.305
2021-08-19 10:20:01.864,-0.395,-0.3
2021-08-19 10:20:01.868,-0.355,-0.29
2021-08-19 10:20:01.872,-0.305,-0.245
2021-08-19 10:20:01.876,-0.25,-0.22
2021-08-19 10:20:01.880,-0.235,-0.225
2021-08-19 10:20:01.884,-0.195,-0.24
2021-08-19 10:20:01.888,-0.15,-0.195
2021-08-19 10:20:01.892,-0.145,-0.19
2021-08-19 10:20:01.896,-0.125,-0.17
2021-08-19 10:20:01.900,-0.115,-0.145
2021-08-19 10:20:01.904,-0.11,-0.145
2021-08-19 10:20:01.908,-0.13,-0.13
2021-08-19 10:20:01.912,-0.14,-0.12
2021-08-19 10:20:01.916,-0.115,-0.09
2021-08-19 10:20:01.920,-0.08,-0.07
2021-08-19 10:20:01.924,-0.1,-0.08
2021-08-19 10:20:01.928,-0.075,-0.07
2021-08-19 10:20:01.932,-0.07,-0.07
2021-08-19 10:20:01.936,-0.07,-0.1
2021-08-19 10:20:01.940,-0.08,-0.085
2021-08-19 10:20:01.944,-0.09,-0.095
2021-08-19 10:20:01.948,-0.07,-0.08
2021-08-19 10:20:01.952,-0.09,-0.08
2021-08-19 10:20:01.956,-0.095,-0.075
2021-08-19 10:20:01.960,-0.095,-0.08
2021-08-19 10:20:01.964,-0.115,-0.085
2021-08-19 10:20:01.968,-0.125,-0.08
2021-08-19 10:20:01.972,-0.09,-0.07
2021-08-19 10:20:01.976,-0.08,-0.08
2021-08-19 10:20:01.980,-0.09,-0.08
2021-08-19 10:20:01.984,-0.085,-0.105
2021-08-19 10:20:01.988,-0.07,-0.12
2021-08-19 10:20:01.992,-0.08,-0.075
2021-08-19 10:20:01.996,-0.08,-0.12
2021-08-19 10:20:02.000,-0.095,-0.11
2021-08-19 10:20:02.004,-0.12,-0.11
2021-08-19 10:20:02.008,-0.115,-0.11
2021-08-19 10:20:02.012,-0.12,-0.11
2021-08-19 10:20:02.016,-0.135,-0.14
2021-08-19 10:20:02.020,-0.135,-0.145
2021-08-19 10:20:02.024,-0.105,-0.115
2021-08-19 10:20:02.028,-0.09,-0.12
2021-08-19 10:20:02.032,-0.095,-0.09
2021-08-19 10:20:02.036,-0.1,-0.085
2021-08-19 10:20:02.040,-0.115,-0.1
2021-08-19 10:20:02.044,-0.135,-0.08
2021-08-19 10:20:02.048,-0.13,-0.145
2021-08-19 10:20:02.052,-0.16,-0.12
2021-08-19 10:20:02.056,-0.14,-0.12
2021-08-19 10:20:02.060,-0.14,-0.105
2021-08-19 10:20:02.064,-0.13,-0.13
2021-08-19 10:20:02.068,-0.1,-0.125
2021-08-19 10:20:02.072,-0.09,-0.125
2021-08-19 10:20:02.076,-0.11,-0.13
2021-08-19 10:20:02.080,-0.145,-0.13
2021-08-19 10:20:02.084,-0.115,-0.14
2021-08-19 10:20:02.088,-0.13,-0.165
2021-08-19 10:20:02.092,-0.16,-0.16
2021-08-19 10:20:02.096,-0.155,-0.15
2021-08-19 10:20:02.100,-0.145,-0.165
2021-08-19 10:20:02.104,-0.145,-0.145
2021-08-19 10:20:02.108,-0.16,-0.15
2021-08-19 10:20:02.112,-0.14,-0.155
2021-08-19 10:20:02.116,-0.13,-0.16
2021-08-19 10:20:02.120,-0.13,-0.125
2021-08-19 10:20:02.124,-0.14,-0.125
2021-08-19 10:20:02.128,-0.165,-0.13
2021-08-19 10:20:02.132,-0.155,-0.15
2021-08-19 10:20:02.136,-0.15,-0.15
2021-08-19 10:20:02.140,-0.17,-0.17
2021-08-19 10:20:02.144,-0.17,-0.17
2021-08-19 10:20:02.148,-0.165,-0.16
2021-08-19 10:20:02.152,-0.17,-0.16
2021-08-19 10:20:02.156,-0.15,-0.175
2021-08-19 10:20:02.160,-0.17,-0.14
2021-08-19 10:20:02.164,-0.17,-0.13
2021-08-19 10:20:02.168,-0.16,-0.16
2021-08-19 10:20:02.172,-0.16,-0.155
2021-08-19 10:20:02.176,-0.155,-0.145
2021-08-19 10:20:02.180,-0.155,-0.16
2021-08-19 10:20:02.184,-0.175,-0.15
2021-08-19 10:20:02.188,-0.165,-0.155
2021-08-19 10:20:02.192,-0.155,-0.18
2021-08-19 10:20:02.196,-0.155,-0.15
2021-08-19 10:20:02.200,-0.17,-0.16
2021-08-19 10:20:02.204,-0.17,-0.145
2021-08-19 10:20:02.208,-0.145,-0.165
2021-08-19 10:20:02.212,-0.145,-0.155
2021-08-19 10:20:02.216,-0.145,-0.165
2021-08-19 10:20:02.220,-0.175,-0.195
2021-08-19 10:20:02.224,-0.185,-0.175
2021-08-19 10:20:02.228,-0.18,-0.18
2021-08-19 10:20:02.232,-0.18,-0.16
2021-08-19 10:20:02.236,-0.215,-0.16
2021-08-19 10:20:02.240,-0.19,-0.155
2021-08-19 10:20:02.244,-0.215,-0.165
2021-08-19 10:20:02.248,-0.165,-0.145
2021-08-19 10:20:02.252,-0.15,-0.165
2021-08-19 10:20:02.256,-0.13,-0.15
2021-08-19 10:20:02.260,-0.13,-0.145
2021-08-19 10:20:02.264,-0.09,-0.16
2021-08-19 10:20:02.268,-0.08,-0.165
2021-08-19 10:20:02.272,-0.065,-0.16
2021-08-19 10:20:02.276,-0.04,-0.105
2021-08-19 10:20:02.280,-0.035,-0.07
2021-08-19 10:20:02.284,-0.03,-0.065
2021-08-19 10:20:02.288,-0.03,-0.03
2021-08-19 10:20:02.292,-0.03,-0.06
2021-08-19 10:20:02.296,-0.005,-0.065
2021-08-19 10:20:02.300,-0.03,-0.06
2021-08-19 10:20:02.304,-0.04,-0.09
2021-08-19 10:20:02.308,-0.02,-0.125
2021-08-19 10:20:02.312,-0.04,-0.165
2021-08-19 10:20:02.316,-0.1,-0.21
2021-08-19 10:20:02.320,-0.135,-0.23
2021-08-19 10:20:02.324,-0.13,-0.24
2021-08-19 10:20:02.328,-0.15,-0.25
2021-08-19 10:20:02.332,-0.185,-0.24
2021-08-19 10:20:02.336,-0.22,-0.21
2021-08-19 10:20:02.340,-0.23,-0.195
2021-08-19 10:20:02.344,-0.215,-0.205
2021-08-19 10:20:02.348,-0.22,-0.21
2021-08-19 10:20:02.352,-0.235,-0.18
2021-08-19 10:20:02.356,-0.235,-0.185
2021-08-19 10:20:02.360,-0.24,-0.22
2021-08-19 10:20:02.364,-0.24,-0.24
2021-08-19 10:20:02.368,-0.23,-0.24
2021-08-19 10:20:02.372,-0.145,-0.215
2021-08-19 10:20:02.376,-0.1,-0.18
2021-08-19 10:20:02.380,0.015,-0.14
2021-08-19 10:20:02.384,0.225,-0.055
2021-08-19 10:20:02.388,0.505,-0.055
2021-08-19 10:20:02.392,0.755,-0.085
2021-08-19 10:20:02.396,0.88,-0.135
2021-08-19 10:20:02.400,0.96,-0.23
2021-08-19 10:20:02.404,0.745,-0.48
2021-08-19 10:20:02.408,0.025,-0.77
2021-08-19 10:20:02.412,-0.845,-1.105
2021-08-19 10:20:02.416,-1.445,-1.43
2021-08-19 10:20:02.420,-1.68,-1.715
2021-08-19 10:20:02.424,-1.63,-1.955
2021-08-19 10:20:02.436,-0.985,-1.89
2021-08-19 10:20:02.440,-0.745,-1.58
2021-08-19 10:20:02.444,-0.585,-1.31
2021-08-19 10:20:02.448,-0.47,-1.065
2021-08-19 10:20:02.452,-0.45,-0.775
2021-08-19 10:20:02.456,-0.41,-0.575
2021-08-19 10:20:02.460,-0.395,-0.41
2021-08-19 10:20:02.464,-0.38,-0.315
2021-08-19 10:20:02.468,-0.36,-0.23
2021-08-19 10:20:02.472,-0.335,-0.19
2021-08-19 10:20:02.476,-0.355,-0.205
2021-08-19 10:20:02.480,-0.355,-0.22
2021-08-19 10:20:02.484,-0.34,-0.2
2021-08-19 10:20:02.488,-0.35,-0.195
2021-08-19 10:20:02.492,-0.385,-0.17
2021-08-19 10:20:02.496,-0.405,-0.175
2021-08-19 10:20:02.500,-0.425,-0.185
2021-08-19 10:20:02.504,-0.41,-0.145
2021-08-19 10:20:02.508,-0.41,-0.13
2021-08-19 10:20:02.512,-0.41,-0.15
2021-08-19 10:20:02.516,-0.39,-0.125
2021-08-19 10:20:02.520,-0.42,-0.15
2021-08-19 10:20:02.524,-0.4,-0.16
2021-08-19 10:20:02.528,-0.415,-0.155
2021-08-19 10:20:02.532,-0.425,-0.16
2021-08-19 10:20:02.536,-0.445,-0.135
2021-08-19 10:20:02.540,-0.47,-0.12
2021-08-19 10:20:02.544,-0.47,-0.135
2021-08-19 10:20:02.548,-0.495,-0.155
2021-08-19 10:20:02.552,-0.51,-0.13
2021-08-19 10:20:02.556,-0.52,-0.13
2021-08-19 10:20:02.560,-0.54,-0.14
2021-08-19 10:20:02.564,-0.525,-0.125
2021-08-19 10:20:02.568,-0.525,-0.145
2021-08-19 10:20:02.572,-0.565,-0.17
2021-08-19 10:20:02.576,-0.585,-0.185
2021-08-19 10:20:02.580,-0.61,-0.17
2021-08-19 10:20:02.584,-0.64,-0.185
2021-08-19 10:20:02.588,-0.695,-0.195
2021-08-19 10:20:02.592,-0.74,-0.22
2021-08-19 10:20:02.596,-0.765,-0.225
2021-08-19 10:20:02.600,-0.795,-0.22
2021-08-19 10:20:02.604,-0.81,-0.22
2021-08-19 10:20:02.608,-0.83,-0.235
2021-08-19 10:20:02.612,-0.835,-0.26
2021-08-19 10:20:02.616,-0.865,-0.28
2021-08-19 10:20:02.620,-0.88,-0.31
2021-08-19 10:20:02.624,-0.91,-0.34
2021-08-19 10:20:02.628,-0.925,-0.325
2021-08-19 10:20:02.632,-0.965,-0.335
2021-08-19 10:20:02.636,-1.005,-0.34
2021-08-19 10:20:02.640,-1.02,-0.35
2021-08-19 10:20:02.644,-1.03,-0.355
2021-08-19 10:20:02.648,-1.035,-0.365
2021-08-19 10:20:02.652,-1.03,-0.385
2021-08-19 10:20:02.656,-1.03,-0.385
2021-08-19 10:20:02.660,-1.01,-0.395
2021-08-19 10:20:02.664,-1.01,-0.4
2021-08-19 10:20:02.668,-1.015,-0.43
2021-08-19 10:20:02.672,-1.0,-0.41
2021-08-19 10:20:02.676,-0.995,-0.415
2021-08-19 10:20:02.680,-0.965,-0.425
2021-08-19 10:20:02.684,-0.95,-0.435
2021-08-19 10:20:02.688,-0.91,-0.425
2021-08-19 10:20:02.692,-0.865,-0.445
2021-08-19 10:20:02.696,-0.81,-0.42
2021-08-19 10:20:02.700,-0.755,-0.43
2021-08-19 10:20:02.704,-0.7,-0.42
2021-08-19 10:20:02.708,-0.64,-0.4
2021-08-19 10:20:02.712,-0.575,-0.37
2021-08-19 10:20:02.716,-0.52,-0.35
2021-08-19 10:20:02.720,-0.515,-0.33
2021-08-19 10:20:02.724,-0.5,-0.31
2021-08-19 10:20:02.728,-0.455,-0.29
2021-08-19 10:20:02.732,-0.415,-0.275
2021-08-19 10:20:02.736,-0.36,-0.24
2021-08-19 10:20:02.740,-0.35,-0.21
2021-08-19 10:20:02.744,-0.315,-0.18
2021-08-19 10:20:02.748,-0.275,-0.14
2021-08-19 10:20:02.752,-0.23,-0.15
2021-08-19 10:20:02.756,-0.235,-0.12
2021-08-19 10:20:02.760,-0.26,-0.105
2021-08-19 10:20:02.764,-0.24,-0.115
2021-08-19 10:20:02.768,-0.265,-0.115
2021-08-19 10:20:02.772,-0.245,-0.065
2021-08-19 10:20:02.776,-0.225,-0.065
2021-08-19 10:20:02.780,-0.24,-0.06
2021-08-19 10:20:02.784,-0.23,-0.06
2021-08-19 10:20:02.788,-0.22,-0.06
2021-08-19 10:20:02.792,-0.22,-0.075
2021-08-19 10:20:02.796,-0.18,-0.035
2021-08-19 10:20:02.800,-0.18,0.0
2021-08-19 10:20:02.804,-0.19,-0.02
2021-08-19 10:20:02.808,-0.185,-0.01
2021-08-19 10:20:02.812,-0.195,-0.015
2021-08-19 10:20:02.816,-0.2,-0.025
2021-08-19 10:20:02.820,-0.2,-0.015
2021-08-19 10:20:02.824,-0.2,-0.02
2021-08-19 10:20:02.828,-0.175,-0.02
2021-08-19 10:20:02.832,-0.175,-0.01
2021-08-19 10:20:02.836,-0.18,-0.025
2021-08-19 10:20:02.840,-0.2,-0.015
2021-08-19 10:20:02.844,-0.165,-0.04
2021-08-19 10:20:02.848,-0.19,-0.025
2021-08-19 10:20:02.852,-0.205,-0.04
2021-08-19 10:20:02.856,-0.185,-0.04
2021-08-19 10:20:02.860,-0.19,-0.01
2021-08-19 10:20:02.864,-0.21,0.0
2021-08-19 10:20:02.868,-0.23,-0.025
2021-08-19 10:20:02.872,-0.21,-0.045
2021-08-19 10:20:02.876,-0.23,-0.045
2021-08-19 10:20:02.880,-0.22,-0.045
2021-08-19 10:20:02.884,-0.21,-0.035
2021-08-19 10:20:02.888,-0.195,-0.01
2021-08-19 10:20:02.892,-0.195,-0.025
2021-08-19 10:20:02.896,-0.185,-0.04
2021-08-19 10:20:02.900,-0.205,-0.05
2021-08-19 10:20:02.904,-0.21,-0.04
2021-08-19 10:20:02.908,-0.215,-0.06
2021-08-19 10:20:02.912,-0.23,-0.065
2021-08-19 10:20:02.916,-0.235,-0.075
2021-08-19 10:20:02.920,-0.225,-0.095
2021-08-19 10:20:02.924,-0.22,-0.065
2021-08-19 10:20:02.928,-0.24,-0.06
2021-08-19 10:20:02.932,-0.22,-0.07
2021-08-19 10:20:02.936,-0.225,-0.07
2021-08-19 10:20:02.940,-0.225,-0.08
2021-08-19 10:20:02.944,-0.215,-0.08
2021-08-19 10:20:02.948,-0.21,-0.075
2021-08-19 10:20:02.952,-0.23,-0.055
2021-08-19 10:20:02.956,-0.25,-0.055
2021-08-19 10:20:02.960,-0.23,-0.065
2021-08-19 10:20:02.964,-0.235,-0.07
2021-08-19 10:20:02.968,-0.22,-0.065
2021-08-19 10:20:02.972,-0.23,-0.075
2021-08-19 10:20:02.976,-0.22,-0.08
2021-08-19 10:20:02.980,-0.205,-0.085
2021-08-19 10:20:02.984,-0.21,-0.09
2021-08-19 10:20:02.988,-0.21,-0.1
2021-08-19 10:20:02.992,-0.21,-0.07
2021-08-19 10:20:02.996,-0.23,-0.08
2021-08-19 10:20:03.000,-0.25,-0.085
2021-08-19 10:20:03.004,-0.255,-0.08
2021-08-19 10:20:03.008,-0.235,-0.105
2021-08-19 10:20:03.012,-0.22,-0.12
2021-08-19 10:20:03.016,-0.245,-0.095
2021-08-19 10:20:03.020,-0.235,-0.11
2021-08-19 10:20:03.024,-0.225,-0.11
2021-08-19 10:20:03.028,-0.21,-0.09
2021-08-19 10:20:03.032,-0.2,-0.1
2021-08-19 10:20:03.036,-0.23,-0.105
2021-08-19 10:20:03.040,-0.24,-0.09
2021-08-19 10:20:03.044,-0.24,-0.1
2021-08-19 10:20:03.048,-0.24,-0.12
2021-08-19 10:20:03.052,-0.24,-0.07
2021-08-19 10:20:03.056,-0.24,-0.095
2021-08-19 10:20:03.060,-0.225,-0.1
2021-08-19 10:20:03.064,-0.21,-0.095
2021-08-19 10:20:03.068,-0.175,-0.075
2021-08-19 10:20:03.072,-0.17,-0.055
2021-08-19 10:20:03.076,-0.13,-0.06
2021-08-19 10:20:03.080,-0.095,-0.05
2021-08-19 10:20:03.084,-0.08,-0.065
2021-08-19 10:20:03.088,-0.075,-0.035
2021-08-19 10:20:03.092,-0.08,-0.025
2021-08-19 10:20:03.096,-0.08,0.0
2021-08-19 10:20:03.100,-0.08,0.035
2021-08-19 10:20:03.104,-0.065,0.02
2021-08-19 10:20:03.108,-0.06,0.015
2021-08-19 10:20:03.112,-0.025,-0.015
2021-08-19 10:20:03.116,-0.05,-0.01
2021-08-19 10:20:03.120,-0.085,-0.045
2021-08-19 10:20:03.124,-0.085,-0.07
2021-08-19 10:20:03.128,-0.085,-0.14
2021-08-19 10:20:03.132,-0.145,-0.15
2021-08-19 10:20:03.136,-0.15,-0.185
2021-08-19 10:20:03.140,-0.165,-0.18
2021-08-19 10:20:03.144,-0.2,-0.2
2021-08-19 10:20:03.148,-0.23,-0.2
2021-08-19 10:20:03.152,-0.225,-0.145
2021-08-19 10:20:03.156,-0.26,-0.14
2021-08-19 10:20:03.160,-0.265,-0.115
2021-08-19 10:20:03.164,-0.26,-0.125
2021-08-19 10:20:03.168,-0.275,-0.11
2021-08-19 10:20:03.172,-0.265,-0.11
2021-08-19 10:20:03.176,-0.265,-0.14
2021-08-19 10:20:03.180,-0.295,-0.12
2021-08-19 10:20:03.184,-0.275,-0.12
2021-08-19 10:20:03.188,-0.235,-0.115
2021-08-19 10:20:03.192,-0.16,-0.075
2021-08-19 10:20:03.196,-0.08,-0.02
2021-08-19 10:20:03.200,0.12,0.02
2021-08-19 10:20:03.204,0.405,0.015
2021-08-19 10:20:03.208,0.64,-0.035
2021-08-19 10:20:03.212,0.765,-0.055
2021-08-19 10:20:03.216,0.825,-0.19
2021-08-19 10:20:03.220,0.645,-0.535
2021-08-19 10:20:03.224,-0.02,-0.955
2021-08-19 10:20:03.228,-0.91,-1.29
2021-08-19 10:20:03.232,-1.57,-1.635
2021-08-19 10:20:03.236,-1.81,-1.92
2021-08-19 10:20:03.256,-0.715,-1.7
2021-08-19 10:20:03.260,-0.56,-1.355
2021-08-19 10:20:03.264,-0.46,-1.04
2021-08-19 10:20:03.268,-0.4,-0.72
2021-08-19 10:20:03.272,-0.395,-0.45
2021-08-19 10:20:03.276,-0.395,-0.29
2021-08-19 10:20:03.280,-0.4,-0.2
2021-08-19 10:20:03.284,-0.395,-0.135
2021-08-19 10:20:03.288,-0.37,-0.14
2021-08-19 10:20:03.292,-0.38,-0.115
2021-08-19 10:20:03.296,-0.37,-0.12
2021-08-19 10:20:03.300,-0.35,-0.125
2021-08-19 10:20:03.304,-0.32,-0.115
2021-08-19 10:20:03.308,-0.36,-0.075
2021-08-19 10:20:03.312,-0.395,-0.07
2021-08-19 10:20:03.316,-0.4,-0.08
2021-08-19 10:20:03.320,-0.395,-0.06
2021-08-19 10:20:03.324,-0.435,-0.07
2021-08-19 10:20:03.328,-0.435,-0.055
2021-08-19 10:20:03.332,-0.44,-0.07
2021-08-19 10:20:03.336,-0.445,-0.07
2021-08-19 10:20:03.340,-0.44,-0.055
2021-08-19 10:20:03.344,-0.43,-0.065
2021-08-19 10:20:03.348,-0.42,-0.055
2021-08-19 10:20:03.352,-0.44,-0.06
2021-08-19 10:20:03.356,-0.485,-0.09
2021-08-19 10:20:03.360,-0.495,-0.07
2021-08-19 10:20:03.364,-0.51,-0.09
2021-08-19 10:20:03.368,-0.53,-0.095
2021-08-19 10:20:03.372,-0.535,-0.09
2021-08-19 10:20:03.376,-0.535,-0.07
2021-08-19 10:20:03.380,-0.54,-0.085
2021-08-19 10:20:03.384,-0.555,-0.075
2021-08-19 10:20:03.388,-0.575,-0.09
2021-08-19 10:20:03.392,-0.575,-0.09
2021-08-19 10:20:03.396,-0.585,-0.1
2021-08-19 10:20:03.400,-0.63,-0.105
2021-08-19 10:20:03.404,-0.675,-0.075
2021-08-19 10:20:03.408,-0.705,-0.115
2021-08-19 10:20:03.412,-0.73,-0.115
2021-08-19 10:20:03.416,-0.755,-0.15
2021-08-19 10:20:03.420,-0.805,-0.14
2021-08-19 10:20:03.424,-0.83,-0.145
2021-08-19 10:20:03.428,-0.84,-0.17
2021-08-19 10:20:03.432,-0.84,-0.205
2021-08-19 10:20:03.436,-0.855,-0.2
2021-08-19 10:20:03.440,-0.855,-0.195
2021-08-19 10:20:03.444,-0.875,-0.24
2021-08-19 10:20:03.448,-0.91,-0.24
2021-08-19 10:20:03.452,-0.94,-0.255
2021-08-19 10:20:03.456,-0.98,-0.25
2021-08-19 10:20:03.460,-1.0,-0.275
2021-08-19 10:20:03.464,-0.995,-0.265
2021-08-19 10:20:03.468,-1.03,-0.28
2021-08-19 10:20:03.472,-1.035,-0.29
2021-08-19 10:20:03.476,-1.03,-0.33
2021-08-19 10:20:03.480,-1.015,-0.34
2021-08-19 10:20:03.484,-1.0,-0.31
2021-08-19 10:20:03.488,-1.0,-0.32
2021-08-19 10:20:03.492,-0.985,-0.33
2021-08-19 10:20:03.496,-0.96,-0.34
2021-08-19 10:20:03.500,-0.95,-0.355
2021-08-19 10:20:03.504,-0.93,-0.335
2021-08-19 10:20:03.508,-0.88,-0.33
2021-08-19 10:20:03.512,-0.84,-0.36
2021-08-19 10:20:03.516,-0.795,-0.32
2021-08-19 10:20:03.520,-0.74,-0.315
2021-08-19 10:20:03.524,-0.675,-0.335
2021-08-19 10:20:03.528,-0.59,-0.32
2021-08-19 10:20:03.532,-0.535,-0.295
2021-08-19 10:20:03.536,-0.485,-0.27
2021-08-19 10:20:03.540,-0.435,-0.25
2021-08-19 10:20:03.544,-0.415,-0.225
2021-08-19 10:20:03.548,-0.38,-0.215
2021-08-19 10:20:03.552,-0.345,-0.185
2021-08-19 10:20:03.556,-0.32,-0.155
2021-08-19 10:20:03.560,-0.335,-0.13
2021-08-19 10:20:03.564,-0.305,-0.12
2021-08-19 10:20:03.568,-0.255,-0.105
2021-08-19 10:20:03.572,-0.235,-0.085
2021-08-19 10:20:03.576,-0.245,-0.08
2021-08-19 10:20:03.580,-0.235,-0.075
2021-08-19 10:20:03.584,-0.22,-0.065
2021-08-19 10:20:03.588,-0.225,-0.035
2021-08-19 10:20:03.592,-0.265,-0.02
2021-08-19 10:20:03.596,-0.245,-0.035
2021-08-19 10:20:03.600,-0.255,-0.03
2021-08-19 10:20:03.604,-0.25,-0.03
2021-08-19 10:20:03.608,-0.22,-0.01
2021-08-19 10:20:03.612,-0.225,0.0
2021-08-19 10:20:03.616,-0.21,0.0
2021-08-19 10:20:03.620,-0.205,0.0
2021-08-19 10:20:03.624,-0.195,0.0
2021-08-19 10:20:03.628,-0.205,-0.02
2021-08-19 10:20:03.632,-0.205,-0.02
2021-08-19 10:20:03.636,-0.21,-0.02
2021-08-19 10:20:03.640,-0.23,-0.01
2021-08-19 10:20:03.644,-0.24,-0.005
2021-08-19 10:20:03.648,-0.22,-0.03
2021-08-19 10:20:03.652,-0.23,-0.025
2021-08-19 10:20:03.656,-0.22,-0.045
2021-08-19 10:20:03.660,-0.205,-0.03
2021-08-19 10:20:03.664,-0.21,-0.03
2021-08-19 10:20:03.668,-0.21,-0.045
2021-08-19 10:20:03.672,-0.225,-0.03
2021-08-19 10:20:03.676,-0.225,-0.03
2021-08-19 10:20:03.680,-0.24,-0.02
2021-08-19 10:20:03.684,-0.235,-0.01
2021-08-19 10:20:03.688,-0.255,-0.055
2021-08-19 10:20:03.692,-0.25,-0.035
2021-08-19 10:20:03.696,-0.26,-0.075
2021-08-19 10:20:03.700,-0.265,-0.06
2021-08-19 10:20:03.704,-0.26,-0.07
2021-08-19 10:20:03.708,-0.255,-0.04
2021-08-19 10:20:03.712,-0.225,-0.02
2021-08-19 10:20:03.716,-0.225,-0.045
2021-08-19 10:20:03.720,-0.185,-0.04
2021-08-19 10:20:03.724,-0.235,-0.06
2021-08-19 10:20:03.728,-0.25,-0.04
2021-08-19 10:20:03.732,-0.24,-0.02
2021-08-19 10:20:03.736,-0.26,-0.04
2021-08-19 10:20:03.740,-0.25,-0.04
2021-08-19 10:20:03.744,-0.245,-0.04
2021-08-19 10:20:03.748,-0.235,-0.05
2021-08-19 10:20:03.752,-0.23,-0.05
2021-08-19 10:20:03.756,-0.215,-0.06
2021-08-19 10:20:03.760,-0.22,-0.035
2021-08-19 10:20:03.764,-0.235,-0.015
2021-08-19 10:20:03.768,-0.235,-0.05
2021-08-19 10:20:03.772,-0.235,-0.03
2021-08-19 10:20:03.776,-0.255,-0.04
2021-08-19 10:20:03.780,-0.245,-0.025
2021-08-19 10:20:03.784,-0.255,-0.02
2021-08-19 10:20:03.788,-0.25,-0.02
2021-08-19 10:20:03.792,-0.25,-0.035
2021-08-19 10:20:03.796,-0.255,-0.06
2021-08-19 10:20:03.800,-0.225,-0.04
2021-08-19 10:20:03.804,-0.22,-0.04
2021-08-19 10:20:03.808,-0.215,-0.08
2021-08-19 10:20:03.812,-0.21,-0.085
2021-08-19 10:20:03.816,-0.24,-0.07
2021-08-19 10:20:03.820,-0.24,-0.05
2021-08-19 10:20:03.824,-0.245,-0.065
2021-08-19 10:20:03.828,-0.26,-0.06
2021-08-19 10:20:03.832,-0.275,-0.04
2021-08-19 10:20:03.836,-0.275,-0.07
2021-08-19 10:20:03.840,-0.265,-0.04
2021-08-19 10:20:03.844,-0.235,-0.05
2021-08-19 10:20:03.848,-0.24,-0.06
2021-08-19 10:20:03.852,-0.22,-0.04
2021-08-19 10:20:03.856,-0.215,-0.045
2021-08-19 10:20:03.860,-0.22,-0.035
2021-08-19 10:20:03.864,-0.235,-0.025
2021-08-19 10:20:03.868,-0.23,-0.025
2021-08-19 10:20:03.872,-0.25,-0.02
2021-08-19 10:20:03.876,-0.24,-0.045
2021-08-19 10:20:03.880,-0.24,-0.05
2021-08-19 10:20:03.884,-0.225,-0.04
2021-08-19 10:20:03.888,-0.195,-0.02
2021-08-19 10:20:03.892,-0.19,-0.04
2021-08-19 10:20:03.896,-0.16,-0.03
2021-08-19 10:20:03.900,-0.125,-0.015
2021-08-19 10:20:03.904,-0.095,0.0
2021-08-19 10:20:03.908,-0.085,0.025
2021-08-19 10:20:03.912,-0.08,0.03
2021-08-19 10:20:03.916,-0.07,0.065
2021-08-19 10:20:03.920,-0.075,0.1
2021-08-19 10:20:03.924,-0.075,0.085
2021-08-19 10:20:03.928,-0.08,0.075
2021-08-19 10:20:03.932,-0.1,0.035
2021-08-19 10:20:03.936,-0.1,0.03
2021-08-19 10:20:03.940,-0.095,0.0
2021-08-19 10:20:03.944,-0.115,-0.04
2021-08-19 10:20:03.948,-0.115,-0.075
2021-08-19 10:20:03.952,-0.14,-0.13
2021-08-19 10:20:03.956,-0.18,-0.145
2021-08-19 10:20:03.960,-0.22,-0.135
2021-08-19 10:20:03.964,-0.24,-0.145
2021-08-19 10:20:03.968,-0.28,-0.13
2021-08-19 10:20:03.972,-0.3,-0.085
2021-08-19 10:20:03.976,-0.31,-0.05
2021-08-19 10:20:03.980,-0.305,-0.04
2021-08-19 10:20:03.984,-0.285,-0.075
2021-08-19 10:20:03.988,-0.27,-0.09
2021-08-19 10:20:03.992,-0.275,-0.09
2021-08-19 10:20:03.996,-0.295,-0.085
2021-08-19 10:20:04.000,-0.28,-0.085
2021-08-19 10:20:04.004,-0.22,-0.065
2021-08-19 10:20:04.008,-0.185,-0.045
2021-08-19 10:20:04.012,-0.04,0.035
2021-08-19 10:20:04.016,0.18,0.06
2021-08-19 10:20:04.020,0.46,0.04
2021-08-19 10:20:04.024,0.655,0.0
2021-08-19 10:20:04.028,0.76,-0.065
2021-08-19 10:20:04.032,0.825,-0.265
2021-08-19 10:20:04.036,0.64,-0.625
2021-08-19 10:20:04.040,-0.055,-1.01
2021-08-19 10:20:04.044,-0.97,-1.345
2021-08-19 10:20:04.048,-1.605,-1.665
2021-08-19 10:20:04.052,-1.81,-1.935
2021-08-19 10:20:04.068,-0.95,-1.955
2021-08-19 10:20:04.072,-0.705,-1.595
2021-08-19 10:20:04.076,-0.55,-1.22
2021-08-19 10:20:04.080,-0.475,-0.875
2021-08-19 10:20:04.084,-0.415,-0.53
2021-08-19 10:20:04.088,-0.42,-0.295
2021-08-19 10:20:04.092,-0.425,-0.18
2021-08-19 10:20:04.096,-0.415,-0.105
2021-08-19 10:20:04.100,-0.43,-0.08
2021-08-19 10:20:04.104,-0.4,-0.085
2021-08-19 10:20:04.108,-0.41,-0.075
2021-08-19 10:20:04.112,-0.395,-0.06
2021-08-19 10:20:04.116,-0.385,-0.045
2021-08-19 10:20:04.120,-0.39,-0.03
2021-08-19 10:20:04.124,-0.405,-0.03
2021-08-19 10:20:04.128,-0.385,-0.03
2021-08-19 10:20:04.132,-0.4,-0.015
2021-08-19 10:20:04.136,-0.45,0.0
2021-08-19 10:20:04.140,-0.445,-0.005
2021-08-19 10:20:04.144,-0.445,-0.025
2021-08-19 10:20:04.148,-0.45,-0.005
2021-08-19 10:20:04.152,-0.45,-0.02
2021-08-19 10:20:04.156,-0.44,-0.015
2021-08-19 10:20:04.160,-0.455,-0.005
2021-08-19 10:20:04.164,-0.45,-0.01
2021-08-19 10:20:04.168,-0.455,-0.035
2021-08-19 10:20:04.172,-0.465,-0.005
2021-08-19 10:20:04.176,-0.51,-0.02
2021-08-19 10:20:04.180,-0.52,-0.025
2021-08-19 10:20:04.184,-0.53,0.005
2021-08-19 10:20:04.188,-0.535,0.0
2021-08-19 10:20:04.192,-0.555,-0.005
2021-08-19 10:20:04.196,-0.58,-0.025
2021-08-19 10:20:04.200,-0.595,-0.02
2021-08-19 10:20:04.204,-0.625,-0.04
2021-08-19 10:20:04.208,-0.625,-0.03
2021-08-19 10:20:04.212,-0.64,-0.03
2021-08-19 10:20:04.216,-0.66,-0.055
2021-08-19 10:20:04.220,-0.7,-0.04
2021-08-19 10:20:04.224,-0.72,-0.06
2021-08-19 10:20:04.228,-0.775,-0.06
2021-08-19 10:20:04.232,-0.8,-0.065
2021-08-19 10:20:04.236,-0.825,-0.095
2021-08-19 10:20:04.240,-0.85,-0.065
2021-08-19 10:20:04.244,-0.855,-0.08
2021-08-19 10:20:04.248,-0.875,-0.11
2021-08-19 10:20:04.252,-0.895,-0.115
2021-08-19 10:20:04.256,-0.92,-0.14
2021-08-19 10:20:04.260,-0.945,-0.14
2021-08-19 10:20:04.264,-0.945,-0.18
2021-08-19 10:20:04.268,-0.985,-0.18
2021-08-19 10:20:04.272,-0.995,-0.19
2021-08-19 10:20:04.276,-1.02,-0.21
2021-08-19 10:20:04.280,-1.03,-0.24
2021-08-19 10:20:04.284,-1.035,-0.23
2021-08-19 10:20:04.288,-1.06,-0.26
2021-08-19 10:20:04.292,-1.04,-0.255
2021-08-19 10:20:04.296,-1.005,-0.27
2021-08-19 10:20:04.300,-1.01,-0.265
2021-08-19 10:20:04.304,-0.975,-0.275
2021-08-19 10:20:04.308,-0.96,-0.295
2021-08-19 10:20:04.312,-0.96,-0.3
2021-08-19 10:20:04.316,-0.92,-0.3
2021-08-19 10:20:04.320,-0.9,-0.3
2021-08-19 10:20:04.324,-0.885,-0.315
2021-08-19 10:20:04.328,-0.805,-0.3
2021-08-19 10:20:04.332,-0.735,-0.265
2021-08-19 10:20:04.336,-0.675,-0.265
2021-08-19 10:20:04.340,-0.635,-0.25
2021-08-19 10:20:04.344,-0.565,-0.225
2021-08-19 10:20:04.348,-0.52,-0.2
2021-08-19 10:20:04.352,-0.49,-0.19
2021-08-19 10:20:04.356,-0.43,-0.165
2021-08-19 10:20:04.360,-0.42,-0.145
2021-08-19 10:20:04.364,-0.395,-0.125
2021-08-19 10:20:04.368,-0.37,-0.11
2021-08-19 10:20:04.372,-0.335,-0.105
2021-08-19 10:20:04.376,-0.335,-0.085
2021-08-19 10:20:04.380,-0.305,-0.055
2021-08-19 10:20:04.384,-0.28,-0.05
2021-08-19 10:20:04.388,-0.265,-0.04
2021-08-19 10:20:04.392,-0.28,-0.005
2021-08-19 10:20:04.396,-0.28,0.01
2021-08-19 10:20:04.400,-0.26,0.015
2021-08-19 10:20:04.404,-0.295,0.02
2021-08-19 10:20:04.408,-0.29,0.025
2021-08-19 10:20:04.412,-0.285,0.01
2021-08-19 10:20:04.416,-0.28,0.015
2021-08-19 10:20:04.420,-0.285,0.02
2021-08-19 10:20:04.424,-0.27,0.015
2021-08-19 10:20:04.428,-0.26,0.01
2021-08-19 10:20:04.432,-0.25,0.0
2021-08-19 10:20:04.436,-0.245,0.015
2021-08-19 10:20:04.440,-0.24,0.01
2021-08-19 10:20:04.444,-0.235,0.01
2021-08-19 10:20:04.448,-0.26,0.025
2021-08-19 10:20:04.452,-0.27,0.025
2021-08-19 10:20:04.456,-0.285,0.015
2021-08-19 10:20:04.460,-0.27,0.02
2021-08-19 10:20:04.464,-0.255,0.02
2021-08-19 10:20:04.468,-0.265,0.02
2021-08-19 10:20:04.472,-0.24,0.005
2021-08-19 10:20:04.476,-0.225,-0.005
2021-08-19 10:20:04.480,-0.245,0.01
2021-08-19 10:20:04.484,-0.26,0.0
2021-08-19 10:20:04.488,-0.255,-0.015
2021-08-19 10:20:04.492,-0.275,-0.01
2021-08-19 10:20:04.496,-0.28,0.0
2021-08-19 10:20:04.500,-0.28,-0.01
2021-08-19 10:20:04.504,-0.285,-0.01
2021-08-19 10:20:04.508,-0.3,-0.015
2021-08-19 10:20:04.512,-0.295,-0.01
2021-08-19 10:20:04.516,-0.28,-0.04
2021-08-19 10:20:04.520,-0.25,-0.03
2021-08-19 10:20:04.524,-0.25,-0.015
2021-08-19 10:20:04.528,-0.26,-0.03
2021-08-19 10:20:04.532,-0.265,-0.03
2021-08-19 10:20:04.536,-0.295,-0.03
2021-08-19 10:20:04.540,-0.295,-0.03
2021-08-19 10:20:04.544,-0.29,-0.03
2021-08-19 10:20:04.548,-0.3,-0.03
2021-08-19 10:20:04.552,-0.285,-0.06
2021-08-19 10:20:04.556,-0.285,-0.045
2021-08-19 10:20:04.560,-0.28,-0.045
2021-08-19 10:20:04.564,-0.265,-0.015
2021-08-19 10:20:04.568,-0.255,-0.035
2021-08-19 10:20:04.572,-0.255,-0.04
2021-08-19 10:20:04.576,-0.26,-0.035
2021-08-19 10:20:04.580,-0.28,-0.035
2021-08-19 10:20:04.584,-0.27,-0.055
2021-08-19 10:20:04.588,-0.3,-0.04
2021-08-19 10:20:04.592,-0.315,-0.045
2021-08-19 10:20:04.596,-0.31,-0.06
2021-08-19 10:20:04.600,-0.29,-0.065
2021-08-19 10:20:04.604,-0.275,-0.04
2021-08-19 10:20:04.608,-0.265,-0.055
2021-08-19 10:20:04.612,-0.26,-0.06
2021-08-19 10:20:04.616,-0.27,-0.05
2021-08-19 10:20:04.620,-0.305,-0.05
2021-08-19 10:20:04.624,-0.29,-0.06
2021-08-19 10:20:04.628,-0.27,-0.045
2021-08-19 10:20:04.632,-0.285,-0.045
2021-08-19 10:20:04.636,-0.28,-0.035
2021-08-19 10:20:04.640,-0.285,-0.05
2021-08-19 10:20:04.644,-0.305,-0.03
2021-08-19 10:20:04.648,-0.25,-0.06
2021-08-19 10:20:04.652,-0.245,-0.04
2021-08-19 10:20:04.656,-0.23,-0.06
2021-08-19 10:20:04.660,-0.24,-0.04
2021-08-19 10:20:04.664,-0.25,-0.04
2021-08-19 10:20:04.668,-0.265,0.0
2021-08-19 10:20:04.672,-0.27,-0.01
2021-08-19 10:20:04.676,-0.285,-0.045
2021-08-19 10:20:04.680,-0.275,-0.01
2021-08-19 10:20:04.684,-0.275,0.0
2021-08-19 10:20:04.688,-0.255,-0.035
2021-08-19 10:20:04.692,-0.24,-0.05
2021-08-19 10:20:04.696,-0.205,-0.015
2021-08-19 10:20:04.700,-0.165,-0.01
2021-08-19 10:20:04.704,-0.135,-0.01
2021-08-19 10:20:04.708,-0.08,0.02
2021-08-19 10:20:04.712,-0.085,0.055
2021-08-19 10:20:04.716,-0.09,0.1
2021-08-19 10:20:04.720,-0.095,0.11
2021-08-19 10:20:04.724,-0.08,0.105
2021-08-19 10:20:04.728,-0.06,0.08
2021-08-19 10:20:04.732,-0.105,0.05
2021-08-19 10:20:04.736,-0.105,0.04
2021-08-19 10:20:04.740,-0.1,0.025
2021-08-19 10:20:04.744,-0.085,-0.025
2021-08-19 10:20:04.748,-0.095,-0.06
2021-08-19 10:20:04.752,-0.13,-0.09
2021-08-19 10:20:04.756,-0.155,-0.13
2021-08-19 10:20:04.760,-0.18,-0.14
2021-08-19 10:20:04.764,-0.21,-0.145
2021-08-19 10:20:04.768,-0.255,-0.115
2021-08-19 10:20:04.772,-0.265,-0.07
2021-08-19 10:20:04.776,-0.29,-0.04
2021-08-19 10:20:04.780,-0.33,-0.015
2021-08-19 10:20:04.784,-0.3,-0.06
2021-08-19 10:20:04.788,-0.275,-0.05
2021-08-19 10:20:04.792,-0.29,-0.065
2021-08-19 10:20:04.796,-0.27,-0.08
2021-08-19 10:20:04.800,-0.245,-0.075
2021-08-19 10:20:04.804,-0.225,-0.05
2021-08-19 10:20:04.808,-0.185,-0.04
2021-08-19 10:20:04.812,-0.1,0.005
2021-08-19 10:20:04.816,0.125,0.06
2021-08-19 10:20:04.820,0.4,0.06
2021-08-19 10:20:04.824,0.655,0.01
2021-08-19 10:20:04.828,0.765,-0.02
2021-08-19 10:20:04.832,0.855,-0.145
2021-08-19 10:20:04.836,0.775,-0.485
2021-08-19 10:20:04.840,0.205,-0.88
2021-08-19 10:20:04.844,-0.7,-1.235
2021-08-19 10:20:04.848,-1.43,-1.585
2021-08-19 10:20:04.852,-1.775,-1.875
2021-08-19 10:20:04.872,-0.7,-1.62
2021-08-19 10:20:04.876,-0.54,-1.275
2021-08-19 10:20:04.880,-0.425,-0.925
2021-08-19 10:20:04.884,-0.37,-0.595
2021-08-19 10:20:04.888,-0.35,-0.32
2021-08-19 10:20:04.892,-0.37,-0.17
2021-08-19 10:20:04.896,-0.395,-0.11
2021-08-19 10:20:04.900,-0.39,-0.09
2021-08-19 10:20:04.904,-0.385,-0.05
2021-08-19 10:20:04.908,-0.375,-0.04
2021-08-19 10:20:04.912,-0.375,-0.03
2021-08-19 10:20:04.916,-0.365,-0.015
2021-08-19 10:20:04.920,-0.35,0.0
2021-08-19 10:20:04.924,-0.365,-0.005
2021-08-19 10:20:04.928,-0.35,-0.005
2021-08-19 10:20:04.932,-0.345,0.01
2021-08-19 10:20:04.936,-0.355,0.025
2021-08-19 10:20:04.940,-0.365,0.05
2021-08-19 10:20:04.944,-0.39,0.05
2021-08-19 10:20:04.948,-0.405,0.035
2021-08-19 10:20:04.952,-0.42,0.03
2021-08-19 10:20:04.956,-0.415,0.015
2021-08-19 10:20:04.960,-0.405,0.04
2021-08-19 10:20:04.964,-0.41,0.055
2021-08-19 10:20:04.968,-0.4,0.035
2021-08-19 10:20:04.972,-0.39,0.045
2021-08-19 10:20:04.976,-0.435,0.035
2021-08-19 10:20:04.980,-0.435,0.03
2021-08-19 10:20:04.984,-0.465,0.03
2021-08-19 10:20:04.988,-0.475,0.045
2021-08-19 10:20:04.992,-0.52,0.035
2021-08-19 10:20:04.996,-0.515,0.06
2021-08-19 10:20:05.000,-0.545,0.06
2021-08-19 10:20:05.004,-0.545,0.06
2021-08-19 10:20:05.008,-0.54,0.035
2021-08-19 10:20:05.012,-0.565,0.03
2021-08-19 10:20:05.016,-0.58,0.0
2021-08-19 10:20:05.020,-0.62,0.005
2021-08-19 10:20:05.024,-0.655,0.005
2021-08-19 10:20:05.028,-0.7,0.0
2021-08-19 10:20:05.032,-0.735,-0.015
2021-08-19 10:20:05.036,-0.745,-0.035
2021-08-19 10:20:05.040,-0.765,-0.045
2021-08-19 10:20:05.044,-0.795,-0.055
2021-08-19 10:20:05.048,-0.805,-0.06
2021-08-19 10:20:05.052,-0.83,-0.065
2021-08-19 10:20:05.056,-0.82,-0.08
2021-08-19 10:20:05.060,-0.835,-0.08
2021-08-19 10:20:05.064,-0.845,-0.1
2021-08-19 10:20:05.068,-0.89,-0.115
2021-08-19 10:20:05.072,-0.935,-0.115
2021-08-19 10:20:05.076,-0.965,-0.145
2021-08-19 10:20:05.080,-0.97,-0.145
2021-08-19 10:20:05.084,-0.98,-0.16
2021-08-19 10:20:05.088,-0.985,-0.14
2021-08-19 10:20:05.092,-0.955,-0.16
2021-08-19 10:20:05.096,-0.945,-0.18
2021-08-19 10:20:05.100,-0.93,-0.215
2021-08-19 10:20:05.104,-0.9,-0.22
2021-08-19 10:20:05.108,-0.88,-0.215
2021-08-19 10:20:05.112,-0.865,-0.2
2021-08-19 10:20:05.116,-0.835,-0.185
2021-08-19 10:20:05.120,-0.81,-0.2
2021-08-19 10:20:05.124,-0.775,-0.2
2021-08-19 10:20:05.128,-0.73,-0.2
2021-08-19 10:20:05.132,-0.66,-0.21
2021-08-19 10:20:05.136,-0.615,-0.185
2021-08-19 10:20:05.140,-0.535,-0.155
2021-08-19 10:20:05.144,-0.505,-0.13
2021-08-19 10:20:05.148,-0.43,-0.12
2021-08-19 10:20:05.152,-0.38,-0.095
2021-08-19 10:20:05.156,-0.35,-0.07
2021-08-19 10:20:05.160,-0.32,-0.05
2021-08-19 10:20:05.164,-0.325,-0.035
2021-08-19 10:20:05.168,-0.305,-0.015
2021-08-19 10:20:05.172,-0.27,-0.005
2021-08-19 10:20:05.176,-0.265,0.025
2021-08-19 10:20:05.180,-0.225,0.03
2021-08-19 10:20:05.184,-0.215,0.05
2021-08-19 10:20:05.188,-0.22,0.06
2021-08-19 10:20:05.192,-0.19,0.06
2021-08-19 10:20:05.196,-0.18,0.09
2021-08-19 10:20:05.200,-0.19,0.075
2021-08-19 10:20:05.204,-0.19,0.1
2021-08-19 10:20:05.208,-0.195,0.11
2021-08-19 10:20:05.212,-0.19,0.075
2021-08-19 10:20:05.216,-0.2,0.11
2021-08-19 10:20:05.220,-0.215,0.08
2021-08-19 10:20:05.224,-0.21,0.12
2021-08-19 10:20:05.228,-0.21,0.12
2021-08-19 10:20:05.232,-0.175,0.115
2021-08-19 10:20:05.236,-0.185,0.11
2021-08-19 10:20:05.240,-0.175,0.09
2021-08-19 10:20:05.244,-0.18,0.1
2021-08-19 10:20:05.248,-0.16,0.11
2021-08-19 10:20:05.252,-0.2,0.105
2021-08-19 10:20:05.256,-0.21,0.105
2021-08-19 10:20:05.260,-0.205,0.105
2021-08-19 10:20:05.264,-0.205,0.08
2021-08-19 10:20:05.268,-0.19,0.06
2021-08-19 10:20:05.272,-0.205,0.06
2021-08-19 10:20:05.276,-0.19,0.085
2021-08-19 10:20:05.280,-0.205,0.065
2021-08-19 10:20:05.284,-0.2,0.07
2021-08-19 10:20:05.288,-0.195,0.05
2021-08-19 10:20:05.292,-0.185,0.04
2021-08-19 10:20:05.296,-0.22,0.025
2021-08-19 10:20:05.300,-0.225,0.04
2021-08-19 10:20:05.304,-0.22,0.05
2021-08-19 10:20:05.308,-0.23,0.045
2021-08-19 10:20:05.312,-0.235,0.02
2021-08-19 10:20:05.316,-0.22,0.03
2021-08-19 10:20:05.320,-0.22,-0.01
2021-08-19 10:20:05.324,-0.22,0.015
2021-08-19 10:20:05.328,-0.195,0.0
2021-08-19 10:20:05.332,-0.2,0.0
2021-08-19 10:20:05.336,-0.2,-0.02
2021-08-19 10:20:05.340,-0.215,-0.03
2021-08-19 10:20:05.344,-0.22,0.01
2021-08-19 10:20:05.348,-0.25,-0.005
2021-08-19 10:20:05.352,-0.235,-0.01
2021-08-19 10:20:05.356,-0.215,-0.015
2021-08-19 10:20:05.360,-0.25,-0.02
2021-08-19 10:20:05.364,-0.23,0.0
2021-08-19 10:20:05.368,-0.23,-0.01
2021-08-19 10:20:05.372,-0.22,0.0
2021-08-19 10:20:05.376,-0.245,-0.01
2021-08-19 10:20:05.380,-0.215,-0.01
2021-08-19 10:20:05.384,-0.23,-0.025
2021-08-19 10:20:05.388,-0.23,-0.04
2021-08-19 10:20:05.392,-0.26,-0.015
2021-08-19 10:20:05.396,-0.245,-0.025
2021-08-19 10:20:05.400,-0.255,-0.04
2021-08-19 10:20:05.404,-0.245,-0.02
2021-08-19 10:20:05.408,-0.24,-0.045
2021-08-19 10:20:05.412,-0.235,-0.06
2021-08-19 10:20:05.416,-0.22,-0.075
2021-08-19 10:20:05.420,-0.255,-0.055
2021-08-19 10:20:05.424,-0.255,-0.045
2021-08-19 10:20:05.428,-0.25,-0.03
2021-08-19 10:20:05.432,-0.27,-0.04
2021-08-19 10:20:05.436,-0.285,-0.065
2021-08-19 10:20:05.440,-0.275,-0.055
2021-08-19 10:20:05.444,-0.265,-0.07
2021-08-19 10:20:05.448,-0.275,-0.04
2021-08-19 10:20:05.452,-0.255,-0.035
2021-08-19 10:20:05.456,-0.245,-0.015
2021-08-19 10:20:05.460,-0.24,0.0
2021-08-19 10:20:05.464,-0.255,-0.04
2021-08-19 10:20:05.468,-0.285,-0.015
2021-08-19 10:20:05.472,-0.255,-0.02
2021-08-19 10:20:05.476,-0.255,-0.005
2021-08-19 10:20:05.480,-0.28,-0.01
2021-08-19 10:20:05.484,-0.27,-0.015
2021-08-19 10:20:05.488,-0.27,0.0
2021-08-19 10:20:05.492,-0.255,-0.015
2021-08-19 10:20:05.496,-0.24,-0.03
2021-08-19 10:20:05.500,-0.18,0.005
2021-08-19 10:20:05.504,-0.135,0.015
2021-08-19 10:20:05.508,-0.11,0.01
2021-08-19 10:20:05.512,-0.09,0.025
2021-08-19 10:20:05.516,-0.085,0.03
2021-08-19 10:20:05.520,-0.1,0.085
2021-08-19 10:20:05.524,-0.105,0.105
2021-08-19 10:20:05.528,-0.145,0.105
2021-08-19 10:20:05.532,-0.115,0.1
2021-08-19 10:20:05.536,-0.115,0.09
2021-08-19 10:20:05.540,-0.135,0.05
2021-08-19 10:20:05.544,-0.125,0.04
2021-08-19 10:20:05.548,-0.095,0.01
2021-08-19 10:20:05.552,-0.115,-0.035
2021-08-19 10:20:05.556,-0.15,-0.075
2021-08-19 10:20:05.560,-0.175,-0.115
2021-08-19 10:20:05.564,-0.18,-0.12
2021-08-19 10:20:05.568,-0.22,-0.11
2021-08-19 10:20:05.572,-0.26,-0.065
2021-08-19 10:20:05.576,-0.275,-0.075
2021-08-19 10:20:05.580,-0.305,-0.05
2021-08-19 10:20:05.584,-0.31,-0.045
2021-08-19 10:20:05.588,-0.305,-0.04
2021-08-19 10:20:05.592,-0.29,-0.06
2021-08-19 10:20:05.596,-0.275,-0.05
2021-08-19 10:20:05.600,-0.28,-0.04
2021-08-19 10:20:05.604,-0.28,-0.055
2021-08-19 10:20:05.608,-0.25,-0.035
2021-08-19 10:20:05.612,-0.17,-0.01
2021-08-19 10:20:05.616,-0.14,0.015
2021-08-19 10:20:05.620,0.0,0.08
2021-08-19 10:20:05.624,0.235,0.125
2021-08-19 10:20:05.628,0.52,0.09
2021-08-19 10:20:05.632,0.725,0.06
2021-08-19 10:20:05.636,0.855,-0.02
2021-08-19 10:20:05.640,0.91,-0.195
2021-08-19 10:20:05.644,0.6,-0.505
2021-08-19 10:20:05.648,-0.225,-0.805
2021-08-19 10:20:05.652,-1.07,-1.155
2021-08-19 10:20:05.656,-1.595,-1.46
2021-08-19 10:20:05.660,-1.74,-1.73
2021-08-19 10:20:05.664,-1.695,-1.99
2021-08-19 10:20:05.672,-1.25,-1.92
2021-08-19 10:20:05.676,-0.95,-1.665
2021-08-19 10:20:05.680,-0.725,-1.355
2021-08-19 10:20:05.684,-0.56,-1.06
2021-08-19 10:20:05.688,-0.495,-0.77
2021-08-19 10:20:05.692,-0.425,-0.535
2021-08-19 10:20:05.696,-0.405,-0.315
2021-08-19 10:20:05.700,-0.43,-0.175
2021-08-19 10:20:05.704,-0.435,-0.095
2021-08-19 10:20:05.708,-0.42,-0.045
2021-08-19 10:20:05.712,-0.425,-0.015
2021-08-19 10:20:05.716,-0.435,0.0
2021-08-19 10:20:05.720,-0.425,0.01
2021-08-19 10:20:05.724,-0.4,0.0
2021-08-19 10:20:05.728,-0.4,0.02
2021-08-19 10:20:05.732,-0.4,0.02
2021-08-19 10:20:05.736,-0.38,0.03
2021-08-19 10:20:05.740,-0.39,0.035
2021-08-19 10:20:05.744,-0.415,0.035
2021-08-19 10:20:05.748,-0.425,0.01
2021-08-19 10:20:05.752,-0.44,0.025
2021-08-19 10:20:05.756,-0.45,0.04
2021-08-19 10:20:05.760,-0.475,0.04
2021-08-19 10:20:05.764,-0.475,0.03
2021-08-19 10:20:05.768,-0.48,0.04
2021-08-19 10:20:05.772,-0.46,0.035
2021-08-19 10:20:05.776,-0.485,0.035
2021-08-19 10:20:05.780,-0.49,0.01
2021-08-19 10:20:05.784,-0.515,0.04
2021-08-19 10:20:05.788,-0.53,0.04
2021-08-19 10:20:05.792,-0.555,0.035
2021-08-19 10:20:05.796,-0.57,0.035
2021-08-19 10:20:05.800,-0.575,0.03
2021-08-19 10:20:05.804,-0.6,0.035
2021-08-19 10:20:05.808,-0.62,0.02
2021-08-19 10:20:05.812,-0.635,0.03
2021-08-19 10:20:05.816,-0.65,0.005
2021-08-19 10:20:05.820,-0.675,0.01
2021-08-19 10:20:05.824,-0.695,0.0
2021-08-19 10:20:05.828,-0.705,-0.02
2021-08-19 10:20:05.832,-0.73,-0.02
2021-08-19 10:20:05.836,-0.78,-0.005
2021-08-19 10:20:05.840,-0.83,-0.015
2021-08-19 10:20:05.844,-0.865,-0.03
2021-08-19 10:20:05.848,-0.915,-0.04
2021-08-19 10:20:05.852,-0.94,-0.06
2021-08-19 10:20:05.856,-0.95,-0.075
2021-08-19 10:20:05.860,-0.97,-0.065
2021-08-19 10:20:05.864,-0.975,-0.095
2021-08-19 10:20:05.868,-1.0,-0.125
2021-08-19 10:20:05.872,-1.01,-0.115
2021-08-19 10:20:05.876,-1.03,-0.135
2021-08-19 10:20:05.880,-1.05,-0.125
2021-08-19 10:20:05.884,-1.07,-0.125
2021-08-19 10:20:05.888,-1.105,-0.145
2021-08-19 10:20:05.892,-1.105,-0.16
2021-08-19 10:20:05.896,-1.1,-0.175
2021-08-19 10:20:05.900,-1.11,-0.17
2021-08-19 10:20:05.904,-1.105,-0.18
2021-08-19 10:20:05.908,-1.08,-0.18
2021-08-19 10:20:05.912,-1.07,-0.19
2021-08-19 10:20:05.916,-1.025,-0.21
2021-08-19 10:20:05.920,-1.005,-0.225
2021-08-19 10:20:05.924,-0.95,-0.235
2021-08-19 10:20:05.928,-0.93,-0.215
2021-08-19 10:20:05.932,-0.905,-0.19
2021-08-19 10:20:05.936,-0.845,-0.21
2021-08-19 10:20:05.940,-0.81,-0.19
2021-08-19 10:20:05.944,-0.74,-0.18
2021-08-19 10:20:05.948,-0.71,-0.19
2021-08-19 10:20:05.952,-0.65,-0.165
2021-08-19 10:20:05.956,-0.595,-0.13
2021-08-19 10:20:05.960,-0.56,-0.13
2021-08-19 10:20:05.964,-0.51,-0.115
2021-08-19 10:20:05.968,-0.485,-0.065
2021-08-19 10:20:05.972,-0.48,-0.035
2021-08-19 10:20:05.976,-0.455,-0.035
2021-08-19 10:20:05.980,-0.425,0.005
2021-08-19 10:20:05.984,-0.435,0.025
2021-08-19 10:20:05.988,-0.425,0.02
2021-08-19 10:20:05.992,-0.405,0.03
2021-08-19 10:20:05.996,-0.39,0.045
2021-08-19 10:20:06.000,-0.385,0.06
2021-08-19 10:20:06.004,-0.355,0.1
2021-08-19 10:20:06.008,-0.33,0.085
2021-08-19 10:20:06.012,-0.32,0.12
2021-08-19 10:20:06.016,-0.335,0.13
2021-08-19 10:20:06.020,-0.315,0.135
2021-08-19 10:20:06.024,-0.355,0.13
2021-08-19 10:20:06.028,-0.34,0.12
2021-08-19 10:20:06.032,-0.34,0.125
2021-08-19 10:20:06.036,-0.355,0.12
2021-08-19 10:20:06.040,-0.33,0.115
2021-08-19 10:20:06.044,-0.32,0.135
2021-08-19 10:20:06.048,-0.31,0.125
2021-08-19 10:20:06.052,-0.295,0.115
2021-08-19 10:20:06.056,-0.3,0.125
2021-08-19 10:20:06.060,-0.305,0.115
2021-08-19 10:20:06.064,-0.315,0.1
2021-08-19 10:20:06.068,-0.345,0.115
2021-08-19 10:20:06.072,-0.365,0.115
2021-08-19 10:20:06.076,-0.355,0.115
2021-08-19 10:20:06.080,-0.365,0.07
2021-08-19 10:20:06.084,-0.375,0.095
2021-08-19 10:20:06.088,-0.325,0.105
2021-08-19 10:20:06.092,-0.32,0.095
2021-08-19 10:20:06.096,-0.335,0.095
2021-08-19 10:20:06.100,-0.33,0.12
2021-08-19 10:20:06.104,-0.34,0.105
2021-08-19 10:20:06.108,-0.33,0.105
2021-08-19 10:20:06.112,-0.35,0.095
2021-08-19 10:20:06.116,-0.37,0.115
2021-08-19 10:20:06.120,-0.365,0.1
2021-08-19 10:20:06.124,-0.355,0.06
2021-08-19 10:20:06.128,-0.36,0.095
2021-08-19 10:20:06.132,-0.345,0.09
2021-08-19 10:20:06.136,-0.355,0.085
2021-08-19 10:20:06.140,-0.34,0.09
2021-08-19 10:20:06.144,-0.31,0.1
2021-08-19 10:20:06.148,-0.34,0.065
2021-08-19 10:20:06.152,-0.35,0.07
2021-08-19 10:20:06.156,-0.36,0.07
2021-08-19 10:20:06.160,-0.38,0.06
2021-08-19 10:20:06.164,-0.38,0.05
2021-08-19 10:20:06.168,-0.36,0.06
2021-08-19 10:20:06.172,-0.375,0.07
2021-08-19 10:20:06.176,-0.375,0.075
2021-08-19 10:20:06.180,-0.325,0.045
2021-08-19 10:20:06.184,-0.355,0.055
2021-08-19 10:20:06.188,-0.355,0.07
2021-08-19 10:20:06.192,-0.34,0.085
2021-08-19 10:20:06.196,-0.355,0.095
2021-08-19 10:20:06.200,-0.38,0.09
2021-08-19 10:20:06.204,-0.37,0.075
2021-08-19 10:20:06.208,-0.37,0.06
2021-08-19 10:20:06.212,-0.39,0.075
2021-08-19 10:20:06.216,-0.355,0.05
2021-08-19 10:20:06.220,-0.365,0.065
2021-08-19 10:20:06.224,-0.345,0.065
2021-08-19 10:20:06.228,-0.32,0.07
2021-08-19 10:20:06.232,-0.32,0.06
2021-08-19 10:20:06.236,-0.345,0.06
2021-08-19 10:20:06.240,-0.36,0.045
2021-08-19 10:20:06.244,-0.355,0.055
2021-08-19 10:20:06.248,-0.38,0.045
2021-08-19 10:20:06.252,-0.395,0.04
2021-08-19 10:20:06.256,-0.385,0.025
2021-08-19 10:20:06.260,-0.38,0.025
2021-08-19 10:20:06.264,-0.39,0.03
2021-08-19 10:20:06.268,-0.4,0.035
2021-08-19 10:20:06.272,-0.36,0.05
2021-08-19 10:20:06.276,-0.35,0.03
2021-08-19 10:20:06.280,-0.36,0.025
2021-08-19 10:20:06.284,-0.345,0.02
2021-08-19 10:20:06.288,-0.355,0.025
2021-08-19 10:20:06.292,-0.38,0.035
2021-08-19 10:20:06.296,-0.38,0.035
2021-08-19 10:20:06.300,-0.375,0.035
2021-08-19 10:20:06.304,-0.345,0.02
2021-08-19 10:20:06.308,-0.335,0.035
2021-08-19 10:20:06.312,-0.29,0.055
2021-08-19 10:20:06.316,-0.23,0.085
2021-08-19 10:20:06.320,-0.195,0.085
2021-08-19 10:20:06.324,-0.18,0.11
2021-08-19 10:20:06.328,-0.185,0.14
2021-08-19 10:20:06.332,-0.19,0.16
2021-08-19 10:20:06.336,-0.22,0.145
2021-08-19 10:20:06.340,-0.22,0.13
2021-08-19 10:20:06.344,-0.235,0.11
2021-08-19 10:20:06.348,-0.265,0.105
2021-08-19 10:20:06.352,-0.24,0.08
2021-08-19 10:20:06.356,-0.24,0.035
2021-08-19 10:20:06.360,-0.27,-0.01
2021-08-19 10:20:06.364,-0.29,-0.055
2021-08-19 10:20:06.368,-0.28,-0.065
2021-08-19 10:20:06.372,-0.3,-0.065
2021-08-19 10:20:06.376,-0.34,-0.075
2021-08-19 10:20:06.380,-0.385,-0.04
2021-08-19 10:20:06.384,-0.405,0.0
2021-08-19 10:20:06.388,-0.42,0.0
2021-08-19 10:20:06.392,-0.45,0.0
2021-08-19 10:20:06.396,-0.455,0.0
2021-08-19 10:20:06.400,-0.435,0.0
2021-08-19 10:20:06.404,-0.43,-0.025
2021-08-19 10:20:06.408,-0.405,-0.005
2021-08-19 10:20:06.412,-0.395,-0.03
2021-08-19 10:20:06.416,-0.335,-0.015
2021-08-19 10:20:06.420,-0.285,-0.01
2021-08-19 10:20:06.424,-0.195,0.08
2021-08-19 10:20:06.428,-0.065,0.12
2021-08-19 10:20:06.432,0.19,0.145
2021-08-19 10:20:06.436,0.475,0.095
2021-08-19 10:20:06.440,0.635,0.065
2021-08-19 10:20:06.444,0.73,-0.035
2021-08-19 10:20:06.448,0.695,-0.26
2021-08-19 10:20:06.452,0.215,-0.58
2021-08-19 10:20:06.456,-0.67,-0.89
2021-08-19 10:20:06.460,-1.395,-1.24
2021-08-19 10:20:06.464,-1.79,-1.54
2021-08-19 10:20:06.468,-1.83,-1.805
2021-08-19 10:20:06.480,-1.27,-1.845
2021-08-19 10:20:06.484,-0.99,-1.565
2021-08-19 10:20:06.488,-0.8,-1.265
2021-08-19 10:20:06.492,-0.665,-0.94
2021-08-19 10:20:06.496,-0.575,-0.66
2021-08-19 10:20:06.500,-0.525,-0.43
2021-08-19 10:20:06.504,-0.52,-0.21
2021-08-19 10:20:06.508,-0.53,-0.1
2021-08-19 10:20:06.512,-0.53,-0.035
2021-08-19 10:20:06.516,-0.51,-0.01
2021-08-19 10:20:06.520,-0.54,-0.01
2021-08-19 10:20:06.524,-0.55,0.0
2021-08-19 10:20:06.528,-0.545,0.02
2021-08-19 10:20:06.532,-0.535,0.045
2021-08-19 10:20:06.536,-0.54,0.03
2021-08-19 10:20:06.540,-0.535,0.04
2021-08-19 10:20:06.544,-0.53,0.055
2021-08-19 10:20:06.548,-0.53,0.06
2021-08-19 10:20:06.552,-0.51,0.055
2021-08-19 10:20:06.556,-0.545,0.045
2021-08-19 10:20:06.560,-0.56,0.05
2021-08-19 10:20:06.564,-0.58,0.065
2021-08-19 10:20:06.568,-0.595,0.065
2021-08-19 10:20:06.572,-0.595,0.075
2021-08-19 10:20:06.576,-0.595,0.045
2021-08-19 10:20:06.580,-0.605,0.04
2021-08-19 10:20:06.584,-0.605,0.01
2021-08-19 10:20:06.588,-0.59,0.035
2021-08-19 10:20:06.592,-0.61,0.05
2021-08-19 10:20:06.596,-0.62,0.045
2021-08-19 10:20:06.600,-0.635,0.04
2021-08-19 10:20:06.604,-0.66,0.035
2021-08-19 10:20:06.608,-0.69,0.035
2021-08-19 10:20:06.612,-0.715,0.05
2021-08-19 10:20:06.616,-0.71,0.06
2021-08-19 10:20:06.620,-0.745,0.06
2021-08-19 10:20:06.624,-0.75,0.03
2021-08-19 10:20:06.628,-0.76,0.005
2021-08-19 10:20:06.632,-0.775,0.01
2021-08-19 10:20:06.636,-0.81,-0.03
2021-08-19 10:20:06.640,-0.82,-0.02
2021-08-19 10:20:06.644,-0.85,0.0
2021-08-19 10:20:06.648,-0.87,0.005
2021-08-19 10:20:06.652,-0.905,-0.01
2021-08-19 10:20:06.656,-0.92,-0.005
2021-08-19 10:20:06.660,-0.95,-0.045
2021-08-19 10:20:06.664,-0.995,-0.07
2021-08-19 10:20:06.668,-0.995,-0.05
2021-08-19 10:20:06.672,-1.04,-0.06
2021-08-19 10:20:06.676,-1.045,-0.08
2021-08-19 10:20:06.680,-1.05,-0.08
2021-08-19 10:20:06.684,-1.085,-0.115
2021-08-19 10:20:06.688,-1.095,-0.12
2021-08-19 10:20:06.692,-1.105,-0.125
2021-08-19 10:20:06.696,-1.145,-0.12
2021-08-19 10:20:06.700,-1.175,-0.13
2021-08-19 10:20:06.704,-1.14,-0.135
2021-08-19 10:20:06.708,-1.155,-0.16
2021-08-19 10:20:06.712,-1.15,-0.175
2021-08-19 10:20:06.716,-1.12,-0.18
2021-08-19 10:20:06.720,-1.09,-0.19
2021-08-19 10:20:06.724,-1.06,-0.19
2021-08-19 10:20:06.728,-1.02,-0.22
2021-08-19 10:20:06.732,-0.995,-0.225
2021-08-19 10:20:06.736,-0.965,-0.225
2021-08-19 10:20:06.740,-0.93,-0.215
2021-08-19 10:20:06.744,-0.88,-0.205
2021-08-19 10:20:06.748,-0.82,-0.215
2021-08-19 10:20:06.752,-0.77,-0.165
2021-08-19 10:20:06.756,-0.7,-0.15
2021-08-19 10:20:06.760,-0.66,-0.13
2021-08-19 10:20:06.764,-0.585,-0.105
2021-08-19 10:20:06.768,-0.525,-0.075
2021-08-19 10:20:06.772,-0.505,-0.06
2021-08-19 10:20:06.776,-0.485,-0.025
2021-08-19 10:20:06.780,-0.45,-0.005
2021-08-19 10:20:06.784,-0.455,0.0
2021-08-19 10:20:06.788,-0.455,0.04
2021-08-19 10:20:06.792,-0.42,0.02
2021-08-19 10:20:06.796,-0.4,0.06
2021-08-19 10:20:06.800,-0.385,0.065
2021-08-19 10:20:06.804,-0.4,0.085
2021-08-19 10:20:06.808,-0.365,0.1
2021-08-19 10:20:06.812,-0.335,0.12
2021-08-19 10:20:06.816,-0.31,0.12
2021-08-19 10:20:06.820,-0.32,0.12
2021-08-19 10:20:06.824,-0.29,0.13
2021-08-19 10:20:06.828,-0.3,0.14
2021-08-19 10:20:06.832,-0.32,0.17
2021-08-19 10:20:06.836,-0.33,0.155
2021-08-19 10:20:06.840,-0.315,0.17
2021-08-19 10:20:06.844,-0.315,0.155
2021-08-19 10:20:06.848,-0.295,0.17
2021-08-19 10:20:06.852,-0.295,0.19
2021-08-19 10:20:06.856,-0.27,0.185
2021-08-19 10:20:06.860,-0.235,0.185
2021-08-19 10:20:06.864,-0.26,0.19
2021-08-19 10:20:06.868,-0.28,0.18
2021-08-19 10:20:06.872,-0.28,0.185
2021-08-19 10:20:06.876,-0.31,0.18
2021-08-19 10:20:06.880,-0.34,0.16
2021-08-19 10:20:06.884,-0.315,0.16
2021-08-19 10:20:06.888,-0.33,0.15
2021-08-19 10:20:06.892,-0.315,0.15
2021-08-19 10:20:06.896,-0.3,0.16
2021-08-19 10:20:06.900,-0.27,0.165
2021-08-19 10:20:06.904,-0.265,0.155
2021-08-19 10:20:06.908,-0.28,0.15
2021-08-19 10:20:06.912,-0.29,0.14
2021-08-19 10:20:06.916,-0.295,0.15
2021-08-19 10:20:06.920,-0.305,0.175
2021-08-19 10:20:06.924,-0.325,0.145
2021-08-19 10:20:06.928,-0.34,0.15
2021-08-19 10:20:06.932,-0.31,0.155
2021-08-19 10:20:06.936,-0.31,0.175
2021-08-19 10:20:06.940,-0.3,0.165
2021-08-19 10:20:06.944,-0.28,0.145
2021-08-19 10:20:06.948,-0.27,0.155
2021-08-19 10:20:06.952,-0.295,0.135
2021-08-19 10:20:06.956,-0.285,0.155
2021-08-19 10:20:06.960,-0.275,0.14
2021-08-19 10:20:06.964,-0.3,0.125
2021-08-19 10:20:06.968,-0.3,0.12
2021-08-19 10:20:06.972,-0.32,0.135
2021-08-19 10:20:06.976,-0.325,0.105
2021-08-19 10:20:06.980,-0.335,0.125
2021-08-19 10:20:06.984,-0.315,0.12
2021-08-19 10:20:06.988,-0.295,0.11
2021-08-19 10:20:06.992,-0.28,0.115
2021-08-19 10:20:06.996,-0.275,0.11
2021-08-19 10:20:07.000,-0.275,0.105
2021-08-19 10:20:07.004,-0.295,0.11
2021-08-19 10:20:07.008,-0.29,0.105
2021-08-19 10:20:07.012,-0.315,0.095
2021-08-19 10:20:07.016,-0.305,0.1
2021-08-19 10:20:07.020,-0.3,0.1
2021-08-19 10:20:07.024,-0.305,0.1
2021-08-19 10:20:07.028,-0.305,0.1
2021-08-19 10:20:07.032,-0.265,0.09
2021-08-19 10:20:07.036,-0.26,0.08
2021-08-19 10:20:07.040,-0.26,0.06
2021-08-19 10:20:07.044,-0.255,0.09
2021-08-19 10:20:07.048,-0.27,0.09
2021-08-19 10:20:07.052,-0.27,0.09
2021-08-19 10:20:07.056,-0.3,0.09
2021-08-19 10:20:07.060,-0.295,0.1
2021-08-19 10:20:07.064,-0.295,0.09
2021-08-19 10:20:07.068,-0.28,0.09
2021-08-19 10:20:07.072,-0.285,0.085
2021-08-19 10:20:07.076,-0.265,0.09
2021-08-19 10:20:07.080,-0.255,0.08
2021-08-19 10:20:07.084,-0.26,0.075
2021-08-19 10:20:07.088,-0.26,0.065
2021-08-19 10:20:07.092,-0.26,0.07
2021-08-19 10:20:07.096,-0.285,0.075
2021-08-19 10:20:07.100,-0.305,0.065
2021-08-19 10:20:07.104,-0.285,0.07
2021-08-19 10:20:07.108,-0.275,0.09
2021-08-19 10:20:07.112,-0.24,0.07
2021-08-19 10:20:07.116,-0.205,0.09
2021-08-19 10:20:07.120,-0.15,0.12
2021-08-19 10:20:07.124,-0.11,0.13
2021-08-19 10:20:07.128,-0.07,0.165
2021-08-19 10:20:07.132,-0.09,0.2
2021-08-19 10:20:07.136,-0.095,0.215
2021-08-19 10:20:07.140,-0.09,0.24
2021-08-19 10:20:07.144,-0.095,0.215
2021-08-19 10:20:07.148,-0.12,0.195
2021-08-19 10:20:07.152,-0.14,0.19
2021-08-19 10:20:07.156,-0.15,0.16
2021-08-19 10:20:07.160,-0.145,0.135
2021-08-19 10:20:07.164,-0.15,0.08
2021-08-19 10:20:07.168,-0.16,0.03
2021-08-19 10:20:07.172,-0.195,0.0
2021-08-19 10:20:07.176,-0.185,0.01
2021-08-19 10:20:07.180,-0.21,0.04
2021-08-19 10:20:07.184,-0.265,0.025
2021-08-19 10:20:07.188,-0.295,0.055
2021-08-19 10:20:07.192,-0.31,0.08
2021-08-19 10:20:07.196,-0.35,0.08
2021-08-19 10:20:07.200,-0.34,0.085
2021-08-19 10:20:07.204,-0.335,0.06
2021-08-19 10:20:07.208,-0.325,0.035
2021-08-19 10:20:07.212,-0.305,0.05
2021-08-19 10:20:07.216,-0.285,0.05
2021-08-19 10:20:07.220,-0.25,0.05
2021-08-19 10:20:07.224,-0.18,0.075
2021-08-19 10:20:07.228,-0.095,0.125
2021-08-19 10:20:07.232,0.015,0.17
2021-08-19 10:20:07.236,0.275,0.21
2021-08-19 10:20:07.240,0.525,0.16
2021-08-19 10:20:07.244,0.69,0.145
2021-08-19 10:20:07.248,0.785,0.035
2021-08-19 10:20:07.252,0.775,-0.265
2021-08-19 10:20:07.256,0.445,-0.655
2021-08-19 10:20:07.260,-0.375,-1.045
2021-08-19 10:20:07.264,-1.2,-1.415
2021-08-19 10:20:07.268,-1.665,-1.685
2021-08-19 10:20:07.272,-1.78,-1.995
2021-08-19 10:20:07.288,-0.865,-1.715
2021-08-19 10:20:07.292,-0.675,-1.35
2021-08-19 10:20:07.296,-0.555,-0.98
2021-08-19 10:20:07.300,-0.465,-0.66
2021-08-19 10:20:07.304,-0.41,-0.39
2021-08-19 10:20:07.308,-0.395,-0.18
2021-08-19 10:20:07.312,-0.405,-0.06
2021-08-19 10:20:07.316,-0.4,-0.035
2021-08-19 10:20:07.320,-0.38,-0.01
2021-08-19 10:20:07.324,-0.395,0.005
2021-08-19 10:20:07.328,-0.41,0.005
2021-08-19 10:20:07.332,-0.415,0.03
2021-08-19 10:20:07.336,-0.415,0.035
2021-08-19 10:20:07.340,-0.405,0.03
2021-08-19 10:20:07.344,-0.415,0.06
2021-08-19 10:20:07.348,-0.405,0.065
2021-08-19 10:20:07.352,-0.405,0.065
2021-08-19 10:20:07.356,-0.4,0.065
2021-08-19 10:20:07.360,-0.4,0.065
2021-08-19 10:20:07.364,-0.44,0.085
2021-08-19 10:20:07.368,-0.45,0.06
2021-08-19 10:20:07.372,-0.485,0.07
2021-08-19 10:20:07.376,-0.465,0.075
2021-08-19 10:20:07.380,-0.46,0.075
2021-08-19 10:20:07.384,-0.475,0.09
2021-08-19 10:20:07.388,-0.49,0.11
2021-08-19 10:20:07.392,-0.495,0.075
2021-08-19 10:20:07.396,-0.48,0.075
2021-08-19 10:20:07.400,-0.495,0.08
2021-08-19 10:20:07.404,-0.5,0.085
2021-08-19 10:20:07.408,-0.525,0.09
2021-08-19 10:20:07.412,-0.545,0.08
2021-08-19 10:20:07.416,-0.565,0.085
2021-08-19 10:20:07.420,-0.58,0.05
2021-08-19 10:20:07.424,-0.61,0.06
2021-08-19 10:20:07.428,-0.64,0.05
2021-08-19 10:20:07.432,-0.64,0.055
2021-08-19 10:20:07.436,-0.645,0.035
2021-08-19 10:20:07.440,-0.67,0.06
2021-08-19 10:20:07.444,-0.685,0.03
2021-08-19 10:20:07.448,-0.715,0.035
2021-08-19 10:20:07.452,-0.725,0.01
2021-08-19 10:20:07.456,-0.76,0.005
2021-08-19 10:20:07.460,-0.8,-0.015
2021-08-19 10:20:07.464,-0.855,-0.04
2021-08-19 10:20:07.468,-0.865,-0.035
2021-08-19 10:20:07.472,-0.87,-0.03
2021-08-19 10:20:07.476,-0.905,-0.06
2021-08-19 10:20:07.480,-0.915,-0.05
2021-08-19 10:20:07.484,-0.91,-0.065
2021-08-19 10:20:07.488,-0.92,-0.095
2021-08-19 10:20:07.492,-0.935,-0.1
2021-08-19 10:20:07.496,-0.96,-0.07
2021-08-19 10:20:07.500,-0.995,-0.085
2021-08-19 10:20:07.504,-1.01,-0.105
2021-08-19 10:20:07.508,-1.03,-0.12
2021-08-19 10:20:07.512,-1.03,-0.105
2021-08-19 10:20:07.516,-1.03,-0.135
2021-08-19 10:20:07.520,-1.005,-0.12
2021-08-19 10:20:07.524,-1.0,-0.135
2021-08-19 10:20:07.528,-0.97,-0.145
2021-08-19 10:20:07.532,-0.92,-0.145
2021-08-19 10:20:07.536,-0.905,-0.135
2021-08-19 10:20:07.540,-0.87,-0.16
2021-08-19 10:20:07.544,-0.835,-0.145
2021-08-19 10:20:07.548,-0.795,-0.145
2021-08-19 10:20:07.552,-0.76,-0.125
2021-08-19 10:20:07.556,-0.705,-0.11
2021-08-19 10:20:07.560,-0.64,-0.1
2021-08-19 10:20:07.564,-0.575,-0.115
2021-08-19 10:20:07.568,-0.55,-0.065
2021-08-19 10:20:07.572,-0.465,-0.055
2021-08-19 10:20:07.576,-0.4,-0.015
2021-08-19 10:20:07.580,-0.375,-0.015
2021-08-19 10:20:07.584,-0.335,0.015
2021-08-19 10:20:07.588,-0.31,0.015
2021-08-19 10:20:07.592,-0.3,0.035
2021-08-19 10:20:07.596,-0.31,0.065
2021-08-19 10:20:07.600,-0.295,0.085
2021-08-19 10:20:07.604,-0.27,0.08
2021-08-19 10:20:07.608,-0.26,0.085
2021-08-19 10:20:07.612,-0.255,0.15
2021-08-19 10:20:07.616,-0.255,0.115
2021-08-19 10:20:07.620,-0.22,0.125
2021-08-19 10:20:07.624,-0.215,0.135
2021-08-19 10:20:07.628,-0.23,0.145
2021-08-19 10:20:07.632,-0.225,0.17
2021-08-19 10:20:07.636,-0.22,0.16
2021-08-19 10:20:07.640,-0.235,0.16
2021-08-19 10:20:07.644,-0.23,0.15
2021-08-19 10:20:07.648,-0.215,0.165
2021-08-19 10:20:07.652,-0.235,0.15
2021-08-19 10:20:07.656,-0.21,0.16
2021-08-19 10:20:07.660,-0.2,0.195
2021-08-19 10:20:07.664,-0.195,0.185
2021-08-19 10:20:07.668,-0.185,0.19
2021-08-19 10:20:07.672,-0.185,0.155
2021-08-19 10:20:07.676,-0.185,0.165
2021-08-19 10:20:07.680,-0.18,0.155
2021-08-19 10:20:07.684,-0.2,0.175
2021-08-19 10:20:07.688,-0.21,0.17
2021-08-19 10:20:07.692,-0.235,0.15
2021-08-19 10:20:07.696,-0.235,0.15
2021-08-19 10:20:07.700,-0.23,0.16
2021-08-19 10:20:07.704,-0.22,0.15
2021-08-19 10:20:07.708,-0.19,0.14
2021-08-19 10:20:07.712,-0.18,0.12
2021-08-19 10:20:07.716,-0.19,0.105
2021-08-19 10:20:07.720,-0.195,0.13
2021-08-19 10:20:07.724,-0.2,0.135
2021-08-19 10:20:07.728,-0.2,0.13
2021-08-19 10:20:07.732,-0.22,0.135
2021-08-19 10:20:07.736,-0.22,0.135
2021-08-19 10:20:07.740,-0.225,0.09
2021-08-19 10:20:07.744,-0.23,0.075
2021-08-19 10:20:07.748,-0.235,0.09
2021-08-19 10:20:07.752,-0.215,0.08
2021-08-19 10:20:07.756,-0.195,0.1
2021-08-19 10:20:07.760,-0.18,0.08
2021-08-19 10:20:07.764,-0.185,0.08
2021-08-19 10:20:07.768,-0.18,0.095
2021-08-19 10:20:07.772,-0.18,0.105
2021-08-19 10:20:07.776,-0.205,0.08
2021-08-19 10:20:07.780,-0.225,0.095
2021-08-19 10:20:07.784,-0.225,0.095
2021-08-19 10:20:07.788,-0.225,0.075
2021-08-19 10:20:07.792,-0.21,0.09
2021-08-19 10:20:07.796,-0.215,0.065
2021-08-19 10:20:07.800,-0.145,0.065
2021-08-19 10:20:07.804,-0.16,0.1
2021-08-19 10:20:07.808,-0.155,0.095
2021-08-19 10:20:07.812,-0.16,0.07
2021-08-19 10:20:07.816,-0.16,0.07
2021-08-19 10:20:07.820,-0.18,0.075
2021-08-19 10:20:07.824,-0.2,0.07
2021-08-19 10:20:07.828,-0.2,0.075
2021-08-19 10:20:07.832,-0.195,0.085
2021-08-19 10:20:07.836,-0.21,0.08
2021-08-19 10:20:07.840,-0.18,0.11
2021-08-19 10:20:07.844,-0.185,0.11
2021-08-19 10:20:07.848,-0.16,0.09
2021-08-19 10:20:07.852,-0.16,0.08
2021-08-19 10:20:07.856,-0.16,0.07
2021-08-19 10:20:07.860,-0.17,0.075
2021-08-19 10:20:07.864,-0.17,0.11
2021-08-19 10:20:07.868,-0.18,0.105
2021-08-19 10:20:07.872,-0.17,0.1
2021-08-19 10:20:07.876,-0.165,0.105
2021-08-19 10:20:07.880,-0.16,0.085
2021-08-19 10:20:07.884,-0.17,0.13
2021-08-19 10:20:07.888,-0.155,0.14
2021-08-19 10:20:07.892,-0.135,0.12
2021-08-19 10:20:07.896,-0.115,0.125
2021-08-19 10:20:07.900,-0.12,0.12
2021-08-19 10:20:07.904,-0.11,0.145
2021-08-19 10:20:07.908,-0.105,0.12
2021-08-19 10:20:07.912,-0.11,0.11
2021-08-19 10:20:07.916,-0.085,0.12
2021-08-19 10:20:07.920,-0.09,0.14
2021-08-19 10:20:07.924,-0.035,0.135
2021-08-19 10:20:07.928,-0.005,0.135
2021-08-19 10:20:07.932,0.025,0.18
2021-08-19 10:20:07.936,0.065,0.2
2021-08-19 10:20:07.940,0.065,0.215
2021-08-19 10:20:07.944,0.085,0.26
2021-08-19 10:20:07.948,0.085,0.28
2021-08-19 10:20:07.952,0.085,0.275
2021-08-19 10:20:07.956,0.08,0.245
2021-08-19 10:20:07.960,0.03,0.255
2021-08-19 10:20:07.964,0.03,0.215
2021-08-19 10:20:07.968,0.06,0.19
2021-08-19 10:20:07.972,0.045,0.155
2021-08-19 10:20:07.976,0.025,0.07
2021-08-19 10:20:07.980,0.005,0.03
2021-08-19 10:20:07.984,-0.01,0.01
2021-08-19 10:20:07.988,-0.03,0.015
2021-08-19 10:20:07.992,-0.045,0.015
2021-08-19 10:20:07.996,-0.095,0.07
2021-08-19 10:20:08.000,-0.145,0.095
2021-08-19 10:20:08.004,-0.15,0.095
2021-08-19 10:20:08.008,-0.145,0.07
2021-08-19 10:20:08.012,-0.17,0.075
2021-08-19 10:20:08.016,-0.165,0.085
2021-08-19 10:20:08.020,-0.115,0.09
2021-08-19 10:20:08.024,-0.11,0.065
2021-08-19 10:20:08.028,-0.08,0.05
2021-08-19 10:20:08.032,-0.035,0.08
2021-08-19 10:20:08.036,0.0,0.1
2021-08-19 10:20:08.040,0.105,0.155
2021-08-19 10:20:08.044,0.29,0.25
2021-08-19 10:20:08.048,0.535,0.24
2021-08-19 10:20:08.052,0.795,0.195
2021-08-19 10:20:08.056,0.905,0.165
2021-08-19 10:20:08.060,0.985,0.055
2021-08-19 10:20:08.064,0.965,-0.295
2021-08-19 10:20:08.068,0.53,-0.715
2021-08-19 10:20:08.072,-0.335,-1.085
2021-08-19 10:20:08.076,-1.145,-1.425
2021-08-19 10:20:08.080,-1.505,-1.665
2021-08-19 10:20:08.084,-1.575,-1.955
2021-08-19 10:20:08.096,-0.88,-1.93
2021-08-19 10:20:08.100,-0.63,-1.59
2021-08-19 10:20:08.104,-0.445,-1.21
2021-08-19 10:20:08.108,-0.34,-0.875
2021-08-19 10:20:08.112,-0.265,-0.525
2021-08-19 10:20:08.116,-0.215,-0.27
2021-08-19 10:20:08.120,-0.195,-0.09
2021-08-19 10:20:08.124,-0.19,0.0
2021-08-19 10:20:08.128,-0.18,0.045
2021-08-19 10:20:08.132,-0.185,0.08
2021-08-19 10:20:08.136,-0.185,0.095
2021-08-19 10:20:08.140,-0.21,0.09
2021-08-19 10:20:08.144,-0.22,0.1
2021-08-19 10:20:08.148,-0.23,0.12
2021-08-19 10:20:08.152,-0.225,0.12
2021-08-19 10:20:08.156,-0.215,0.14
2021-08-19 10:20:08.160,-0.205,0.13
2021-08-19 10:20:08.164,-0.18,0.125
2021-08-19 10:20:08.168,-0.19,0.15
2021-08-19 10:20:08.172,-0.195,0.175
2021-08-19 10:20:08.176,-0.23,0.165
2021-08-19 10:20:08.180,-0.225,0.14
2021-08-19 10:20:08.184,-0.235,0.155
2021-08-19 10:20:08.188,-0.24,0.125
2021-08-19 10:20:08.192,-0.26,0.14
2021-08-19 10:20:08.196,-0.27,0.15
2021-08-19 10:20:08.200,-0.265,0.17
2021-08-19 10:20:08.204,-0.255,0.16
2021-08-19 10:20:08.208,-0.27,0.145
2021-08-19 10:20:08.212,-0.275,0.185
2021-08-19 10:20:08.216,-0.275,0.17
2021-08-19 10:20:08.220,-0.285,0.2
2021-08-19 10:20:08.224,-0.32,0.165
2021-08-19 10:20:08.228,-0.35,0.16
2021-08-19 10:20:08.232,-0.365,0.165
2021-08-19 10:20:08.236,-0.38,0.16
2021-08-19 10:20:08.240,-0.4,0.15
2021-08-19 10:20:08.244,-0.405,0.14
2021-08-19 10:20:08.248,-0.425,0.135
2021-08-19 10:20:08.252,-0.445,0.13
2021-08-19 10:20:08.256,-0.475,0.115
2021-08-19 10:20:08.260,-0.505,0.105
2021-08-19 10:20:08.264,-0.52,0.115
2021-08-19 10:20:08.268,-0.555,0.09
2021-08-19 10:20:08.272,-0.575,0.065
2021-08-19 10:20:08.276,-0.6,0.035
2021-08-19 10:20:08.280,-0.65,0.05
2021-08-19 10:20:08.284,-0.655,0.035
2021-08-19 10:20:08.288,-0.67,0.04
2021-08-19 10:20:08.292,-0.7,0.005
2021-08-19 10:20:08.296,-0.68,-0.01
2021-08-19 10:20:08.300,-0.695,0.0
2021-08-19 10:20:08.304,-0.72,-0.02
2021-08-19 10:20:08.308,-0.745,-0.035
2021-08-19 10:20:08.312,-0.745,-0.04
2021-08-19 10:20:08.316,-0.795,-0.035
2021-08-19 10:20:08.320,-0.79,-0.06
2021-08-19 10:20:08.324,-0.78,-0.065
2021-08-19 10:20:08.328,-0.785,-0.105
2021-08-19 10:20:08.332,-0.795,-0.105
2021-08-19 10:20:08.336,-0.765,-0.085
2021-08-19 10:20:08.340,-0.745,-0.08
2021-08-19 10:20:08.344,-0.705,-0.085
2021-08-19 10:20:08.348,-0.675,-0.095
2021-08-19 10:20:08.352,-0.605,-0.085
2021-08-19 10:20:08.356,-0.565,-0.09
2021-08-19 10:20:08.360,-0.55,-0.08
2021-08-19 10:20:08.364,-0.485,-0.08
2021-08-19 10:20:08.368,-0.44,-0.075
2021-08-19 10:20:08.372,-0.4,-0.065
2021-08-19 10:20:08.376,-0.345,-0.045
2021-08-19 10:20:08.380,-0.295,-0.035
2021-08-19 10:20:08.384,-0.245,-0.015
2021-08-19 10:20:08.388,-0.18,0.02
2021-08-19 10:20:08.392,-0.125,0.05
2021-08-19 10:20:08.396,-0.095,0.085
2021-08-19 10:20:08.400,-0.08,0.11
2021-08-19 10:20:08.404,-0.08,0.125
2021-08-19 10:20:08.408,-0.07,0.165
2021-08-19 10:20:08.412,-0.065,0.165
2021-08-19 10:20:08.416,-0.06,0.17
2021-08-19 10:20:08.420,-0.035,0.17
2021-08-19 10:20:08.424,-0.03,0.17
2021-08-19 10:20:08.428,-0.035,0.165
2021-08-19 10:20:08.432,-0.03,0.16
2021-08-19 10:20:08.436,-0.005,0.17
2021-08-19 10:20:08.440,0.005,0.165
2021-08-19 10:20:08.444,0.015,0.18
2021-08-19 10:20:08.448,0.0,0.19
2021-08-19 10:20:08.452,-0.005,0.205
2021-08-19 10:20:08.456,-0.015,0.185
2021-08-19 10:20:08.460,-0.015,0.22
2021-08-19 10:20:08.464,0.005,0.2
2021-08-19 10:20:08.468,0.015,0.19
2021-08-19 10:20:08.472,0.045,0.205
2021-08-19 10:20:08.476,0.035,0.18
2021-08-19 10:20:08.480,0.035,0.2
2021-08-19 10:20:08.484,0.02,0.2
2021-08-19 10:20:08.488,0.01,0.185
2021-08-19 10:20:08.492,0.015,0.165
2021-08-19 10:20:08.496,-0.015,0.18
2021-08-19 10:20:08.500,-0.005,0.185
2021-08-19 10:20:08.504,-0.005,0.155
2021-08-19 10:20:08.508,-0.005,0.145
2021-08-19 10:20:08.512,0.0,0.17
2021-08-19 10:20:08.516,-0.02,0.14
2021-08-19 10:20:08.520,-0.01,0.14
2021-08-19 10:20:08.524,0.005,0.175
2021-08-19 10:20:08.528,-0.005,0.165
2021-08-19 10:20:08.532,0.02,0.145
2021-08-19 10:20:08.536,0.0,0.145
2021-08-19 10:20:08.540,-0.005,0.12
2021-08-19 10:20:08.544,-0.03,0.15
2021-08-19 10:20:08.548,-0.015,0.14
2021-08-19 10:20:08.552,-0.025,0.13
2021-08-19 10:20:08.556,-0.015,0.16
2021-08-19 10:20:08.560,-0.015,0.15
2021-08-19 10:20:08.564,-0.015,0.135
2021-08-19 10:20:08.568,-0.005,0.155
2021-08-19 10:20:08.572,0.005,0.155
2021-08-19 10:20:08.576,0.025,0.145
2021-08-19 10:20:08.580,0.005,0.135
2021-08-19 10:20:08.584,-0.02,0.115
2021-08-19 10:20:08.588,-0.02,0.1
2021-08-19 10:20:08.592,-0.01,0.09
2021-08-19 10:20:08.596,-0.03,0.11
2021-08-19 10:20:08.600,-0.035,0.115
2021-08-19 10:20:08.604,-0.035,0.105
2021-08-19 10:20:08.608,-0.02,0.095
2021-08-19 10:20:08.612,0.0,0.115
2021-08-19 10:20:08.616,0.0,0.095
2021-08-19 10:20:08.620,0.005,0.09
2021-08-19 10:20:08.624,-0.03,0.105
2021-08-19 10:20:08.628,-0.01,0.12
2021-08-19 10:20:08.632,-0.01,0.12
2021-08-19 10:20:08.636,-0.04,0.11
2021-08-19 10:20:08.640,-0.04,0.08
2021-08-19 10:20:08.644,-0.05,0.065
2021-08-19 10:20:08.648,-0.06,0.07
2021-08-19 10:20:08.652,-0.05,0.08
2021-08-19 10:20:08.656,-0.03,0.105
2021-08-19 10:20:08.660,-0.01,0.105
2021-08-19 10:20:08.664,-0.015,0.105
2021-08-19 10:20:08.668,-0.015,0.1
2021-08-19 10:20:08.672,-0.03,0.115
2021-08-19 10:20:08.676,-0.025,0.09
2021-08-19 10:20:08.680,-0.045,0.105
2021-08-19 10:20:08.684,-0.01,0.11
2021-08-19 10:20:08.688,-0.035,0.11
2021-08-19 10:20:08.692,-0.035,0.105
2021-08-19 10:20:08.696,-0.03,0.09
2021-08-19 10:20:08.700,-0.04,0.1
2021-08-19 10:20:08.704,-0.035,0.105
2021-08-19 10:20:08.708,-0.025,0.115
2021-08-19 10:20:08.712,-0.03,0.12
2021-08-19 10:20:08.716,-0.025,0.11
2021-08-19 10:20:08.720,-0.025,0.11
2021-08-19 10:20:08.724,-0.01,0.11
2021-08-19 10:20:08.728,0.0,0.115
2021-08-19 10:20:08.732,0.03,0.12
2021-08-19 10:20:08.736,0.07,0.12
2021-08-19 10:20:08.740,0.11,0.15
2021-08-19 10:20:08.744,0.11,0.195
2021-08-19 10:20:08.748,0.13,0.21
2021-08-19 10:20:08.752,0.125,0.255
2021-08-19 10:20:08.756,0.145,0.22
2021-08-19 10:20:08.760,0.135,0.205
2021-08-19 10:20:08.764,0.125,0.185
2021-08-19 10:20:08.768,0.075,0.16
2021-08-19 10:20:08.772,0.075,0.145
2021-08-19 10:20:08.776,0.08,0.115
2021-08-19 10:20:08.780,0.05,0.03
2021-08-19 10:20:08.784,0.035,-0.01
2021-08-19 10:20:08.788,0.04,-0.01
2021-08-19 10:20:08.792,0.025,0.005
2021-08-19 10:20:08.796,0.0,0.01
2021-08-19 10:20:08.800,-0.04,0.055
2021-08-19 10:20:08.804,-0.07,0.06
2021-08-19 10:20:08.808,-0.085,0.035
2021-08-19 10:20:08.812,-0.11,0.065
2021-08-19 10:20:08.816,-0.135,0.075
2021-08-19 10:20:08.820,-0.135,0.08
2021-08-19 10:20:08.824,-0.105,0.06
2021-08-19 10:20:08.828,-0.09,0.07
2021-08-19 10:20:08.832,-0.065,0.04
2021-08-19 10:20:08.836,0.0,0.04
2021-08-19 10:20:08.840,0.07,0.065
2021-08-19 10:20:08.844,0.155,0.15
2021-08-19 10:20:08.848,0.31,0.225
2021-08-19 10:20:08.852,0.58,0.2
2021-08-19 10:20:08.856,0.865,0.18
2021-08-19 10:20:08.860,1.05,0.135
2021-08-19 10:20:08.864,1.16,-0.005
2021-08-19 10:20:08.868,1.045,-0.235
2021-08-19 10:20:08.872,0.445,-0.55
2021-08-19 10:20:08.876,-0.425,-0.865
2021-08-19 10:20:08.880,-1.115,-1.21
2021-08-19 10:20:08.884,-1.445,-1.505
2021-08-19 10:20:08.888,-1.45,-1.74
2021-08-19 10:20:08.892,-1.355,-1.91
2021-08-19 10:20:08.896,-1.16,-1.885
2021-08-19 10:20:08.900,-0.9,-1.64
2021-08-19 10:20:08.904,-0.62,-1.335
2021-08-19 10:20:08.908,-0.415,-1.045
2021-08-19 10:20:08.912,-0.3,-0.75
2021-08-19 10:20:08.916,-0.26,-0.485
2021-08-19 10:20:08.920,-0.175,-0.245
2021-08-19 10:20:08.924,-0.155,-0.095
2021-08-19 10:20:08.928,-0.15,0.0
2021-08-19 10:20:08.932,-0.145,0.015
2021-08-19 10:20:08.936,-0.16,0.065
2021-08-19 10:20:08.940,-0.16,0.025
2021-08-19 10:20:08.944,-0.175,0.045
2021-08-19 10:20:08.948,-0.18,0.055
2021-08-19 10:20:08.952,-0.18,0.09
2021-08-19 10:20:08.956,-0.175,0.095
2021-08-19 10:20:08.960,-0.16,0.09
2021-08-19 10:20:08.964,-0.17,0.085
2021-08-19 10:20:08.968,-0.17,0.11
2021-08-19 10:20:08.972,-0.17,0.105
2021-08-19 10:20:08.976,-0.18,0.105
2021-08-19 10:20:08.980,-0.19,0.095
2021-08-19 10:20:08.984,-0.2,0.1
2021-08-19 10:20:08.988,-0.21,0.09
2021-08-19 10:20:08.992,-0.255,0.135
2021-08-19 10:20:08.996,-0.265,0.14
2021-08-19 10:20:09.000,-0.255,0.13
2021-08-19 10:20:09.004,-0.255,0.14
2021-08-19 10:20:09.008,-0.24,0.105
2021-08-19 10:20:09.012,-0.235,0.125
2021-08-19 10:20:09.016,-0.24,0.105
2021-08-19 10:20:09.020,-0.265,0.085
2021-08-19 10:20:09.024,-0.285,0.07
2021-08-19 10:20:09.028,-0.295,0.07
2021-08-19 10:20:09.032,-0.365,0.055
2021-08-19 10:20:09.036,-0.395,0.055
2021-08-19 10:20:09.040,-0.405,0.035
2021-08-19 10:20:09.044,-0.415,0.05
2021-08-19 10:20:09.048,-0.44,0.02
2021-08-19 10:20:09.052,-0.44,0.05
2021-08-19 10:20:09.056,-0.47,0.035
2021-08-19 10:20:09.060,-0.515,0.005
2021-08-19 10:20:09.064,-0.51,0.005
2021-08-19 10:20:09.068,-0.525,0.0
2021-08-19 10:20:09.072,-0.555,-0.015
2021-08-19 10:20:09.076,-0.585,-0.015
2021-08-19 10:20:09.080,-0.63,-0.05
2021-08-19 10:20:09.084,-0.64,-0.05
2021-08-19 10:20:09.088,-0.66,-0.07
2021-08-19 10:20:09.092,-0.695,-0.065
2021-08-19 10:20:09.096,-0.7,-0.06
2021-08-19 10:20:09.100,-0.71,-0.1
2021-08-19 10:20:09.104,-0.72,-0.105
2021-08-19 10:20:09.108,-0.7,-0.095
2021-08-19 10:20:09.112,-0.735,-0.11
2021-08-19 10:20:09.116,-0.725,-0.135
2021-08-19 10:20:09.120,-0.75,-0.14
2021-08-19 10:20:09.124,-0.785,-0.145
2021-08-19 10:20:09.128,-0.785,-0.165
2021-08-19 10:20:09.132,-0.74,-0.165
2021-08-19 10:20:09.136,-0.74,-0.16
2021-08-19 10:20:09.140,-0.71,-0.16
2021-08-19 10:20:09.144,-0.66,-0.19
2021-08-19 10:20:09.148,-0.63,-0.2
2021-08-19 10:20:09.152,-0.595,-0.185
2021-08-19 10:20:09.156,-0.53,-0.17
2021-08-19 10:20:09.160,-0.51,-0.18
2021-08-19 10:20:09.164,-0.455,-0.175
2021-08-19 10:20:09.168,-0.4,-0.16
2021-08-19 10:20:09.172,-0.34,-0.14
2021-08-19 10:20:09.176,-0.3,-0.13
2021-08-19 10:20:09.180,-0.265,-0.1
2021-08-19 10:20:09.184,-0.26,-0.08
2021-08-19 10:20:09.188,-0.185,-0.065
2021-08-19 10:20:09.192,-0.135,-0.04
2021-08-19 10:20:09.196,-0.095,-0.02
2021-08-19 10:20:09.200,-0.075,0.0
2021-08-19 10:20:09.204,-0.06,0.015
2021-08-19 10:20:09.208,-0.07,0.025
2021-08-19 10:20:09.212,-0.06,0.07
2021-08-19 10:20:09.216,-0.065,0.09
2021-08-19 10:20:09.220,-0.065,0.06
2021-08-19 10:20:09.224,-0.05,0.07
2021-08-19 10:20:09.228,-0.05,0.085
2021-08-19 10:20:09.232,-0.03,0.135
2021-08-19 10:20:09.236,-0.03,0.145
2021-08-19 10:20:09.240,-0.02,0.14
2021-08-19 10:20:09.244,-0.035,0.14
2021-08-19 10:20:09.248,-0.035,0.145
2021-08-19 10:20:09.252,0.0,0.16
2021-08-19 10:20:09.256,-0.02,0.16
2021-08-19 10:20:09.260,-0.025,0.125
2021-08-19 10:20:09.264,-0.04,0.1
2021-08-19 10:20:09.268,-0.05,0.11
2021-08-19 10:20:09.272,-0.055,0.125
2021-08-19 10:20:09.276,-0.02,0.125
2021-08-19 10:20:09.280,0.005,0.15
2021-08-19 10:20:09.284,0.01,0.135
2021-08-19 10:20:09.288,-0.01,0.145
2021-08-19 10:20:09.292,-0.05,0.155
2021-08-19 10:20:09.296,-0.05,0.13
2021-08-19 10:20:09.300,-0.06,0.145
2021-08-19 10:20:09.304,-0.035,0.145
2021-08-19 10:20:09.308,-0.035,0.13
2021-08-19 10:20:09.312,-0.02,0.15
2021-08-19 10:20:09.316,-0.02,0.15
2021-08-19 10:20:09.320,-0.03,0.13
2021-08-19 10:20:09.324,-0.035,0.14
2021-08-19 10:20:09.328,-0.055,0.1
2021-08-19 10:20:09.332,-0.06,0.105
2021-08-19 10:20:09.336,-0.065,0.08
2021-08-19 10:20:09.340,-0.06,0.11
2021-08-19 10:20:09.344,-0.065,0.095
2021-08-19 10:20:09.348,-0.07,0.085
2021-08-19 10:20:09.352,-0.065,0.085
2021-08-19 10:20:09.356,-0.095,0.075
2021-08-19 10:20:09.360,-0.095,0.05
2021-08-19 10:20:09.364,-0.085,0.07
2021-08-19 10:20:09.368,-0.055,0.09
2021-08-19 10:20:09.372,-0.055,0.07
2021-08-19 10:20:09.376,-0.05,0.05
2021-08-19 10:20:09.380,-0.055,0.05
2021-08-19 10:20:09.384,-0.08,0.075
2021-08-19 10:20:09.388,-0.095,0.065
2021-08-19 10:20:09.392,-0.09,0.06
2021-08-19 10:20:09.396,-0.1,0.06
2021-08-19 10:20:09.400,-0.1,0.045
2021-08-19 10:20:09.404,-0.08,0.035
2021-08-19 10:20:09.408,-0.105,0.05
2021-08-19 10:20:09.412,-0.08,0.055
2021-08-19 10:20:09.416,-0.045,0.03
2021-08-19 10:20:09.420,-0.045,0.05
2021-08-19 10:20:09.424,-0.045,0.06
2021-08-19 10:20:09.428,-0.075,0.055
2021-08-19 10:20:09.432,-0.1,0.05
2021-08-19 10:20:09.436,-0.125,0.055
2021-08-19 10:20:09.440,-0.135,0.065
2021-08-19 10:20:09.444,-0.1,0.05
2021-08-19 10:20:09.448,-0.1,0.045
2021-08-19 10:20:09.452,-0.11,0.03
2021-08-19 10:20:09.456,-0.08,0.05
2021-08-19 10:20:09.460,-0.055,0.015
2021-08-19 10:20:09.464,-0.05,0.015
2021-08-19 10:20:09.468,-0.075,0.04
2021-08-19 10:20:09.472,-0.06,0.055
2021-08-19 10:20:09.476,-0.085,0.03
2021-08-19 10:20:09.480,-0.1,0.065
2021-08-19 10:20:09.484,-0.115,0.065
2021-08-19 10:20:09.488,-0.115,0.02
2021-08-19 10:20:09.492,-0.105,0.01
2021-08-19 10:20:09.496,-0.105,0.045
2021-08-19 10:20:09.500,-0.09,0.055
2021-08-19 10:20:09.504,-0.08,0.08
2021-08-19 10:20:09.508,-0.07,0.055
2021-08-19 10:20:09.512,-0.065,0.065
2021-08-19 10:20:09.516,-0.06,0.045
2021-08-19 10:20:09.520,-0.04,0.05
2021-08-19 10:20:09.524,-0.03,0.055
2021-08-19 10:20:09.528,-0.005,0.065
2021-08-19 10:20:09.532,0.0,0.055
2021-08-19 10:20:09.536,0.04,0.08
2021-08-19 10:20:09.540,0.04,0.125
2021-08-19 10:20:09.544,0.045,0.175
2021-08-19 10:20:09.548,0.05,0.19
2021-08-19 10:20:09.552,0.06,0.155
2021-08-19 10:20:09.556,0.1,0.13
2021-08-19 10:20:09.560,0.105,0.125
2021-08-19 10:20:09.564,0.06,0.135
2021-08-19 10:20:09.568,0.07,0.115
2021-08-19 10:20:09.572,0.065,0.08
2021-08-19 10:20:09.576,0.05,0.05
2021-08-19 10:20:09.580,0.01,0.01
2021-08-19 10:20:09.584,0.02,-0.04
2021-08-19 10:20:09.588,0.0,-0.065
2021-08-19 10:20:09.592,-0.02,-0.05
2021-08-19 10:20:09.596,-0.045,-0.025
2021-08-19 10:20:09.600,-0.07,0.015
2021-08-19 10:20:09.604,-0.075,0.015
2021-08-19 10:20:09.608,-0.105,0.015
2021-08-19 10:20:09.612,-0.13,0.025
2021-08-19 10:20:09.616,-0.14,0.025
2021-08-19 10:20:09.620,-0.15,0.0
2021-08-19 10:20:09.624,-0.13,0.015
2021-08-19 10:20:09.628,-0.11,0.025
2021-08-19 10:20:09.632,-0.035,0.01
2021-08-19 10:20:09.636,0.015,0.035
2021-08-19 10:20:09.640,0.085,0.09
2021-08-19 10:20:09.644,0.245,0.155
2021-08-19 10:20:09.648,0.51,0.17
2021-08-19 10:20:09.652,0.815,0.15
2021-08-19 10:20:09.656,0.985,0.13
2021-08-19 10:20:09.660,1.12,0.035
2021-08-19 10:20:09.664,1.12,-0.185
2021-08-19 10:20:09.668,0.715,-0.455
2021-08-19 10:20:09.672,-0.12,-0.75
2021-08-19 10:20:09.676,-0.94,-1.055
2021-08-19 10:20:09.680,-1.395,-1.35
2021-08-19 10:20:09.684,-1.505,-1.605
2021-08-19 10:20:09.688,-1.405,-1.79
2021-08-19 10:20:09.692,-1.255,-1.83
2021-08-19 10:20:09.696,-1.0,-1.71
2021-08-19 10:20:09.700,-0.73,-1.415
2021-08-19 10:20:09.704,-0.53,-1.17
2021-08-19 10:20:09.708,-0.38,-0.915
2021-08-19 10:20:09.712,-0.305,-0.64
2021-08-19 10:20:09.716,-0.26,-0.4
2021-08-19 10:20:09.720,-0.225,-0.2
2021-08-19 10:20:09.724,-0.19,-0.095
2021-08-19 10:20:09.728,-0.2,-0.01
2021-08-19 10:20:09.732,-0.17,0.015
2021-08-19 10:20:09.736,-0.16,0.03
2021-08-19 10:20:09.740,-0.175,0.035
2021-08-19 10:20:09.744,-0.18,0.025
2021-08-19 10:20:09.748,-0.205,0.06
2021-08-19 10:20:09.752,-0.205,0.07
2021-08-19 10:20:09.756,-0.2,0.08
2021-08-19 10:20:09.760,-0.21,0.075
2021-08-19 10:20:09.764,-0.225,0.07
2021-08-19 10:20:09.768,-0.21,0.055
2021-08-19 10:20:09.772,-0.19,0.065
2021-08-19 10:20:09.776,-0.2,0.07
2021-08-19 10:20:09.780,-0.19,0.085
2021-08-19 10:20:09.784,-0.205,0.065
2021-08-19 10:20:09.788,-0.2,0.06
2021-08-19 10:20:09.792,-0.25,0.1
2021-08-19 10:20:09.796,-0.265,0.105
2021-08-19 10:20:09.800,-0.285,0.105
2021-08-19 10:20:09.804,-0.31,0.09
2021-08-19 10:20:09.808,-0.29,0.09
2021-08-19 10:20:09.812,-0.29,0.085
2021-08-19 10:20:09.816,-0.26,0.07
2021-08-19 10:20:09.820,-0.285,0.095
2021-08-19 10:20:09.824,-0.305,0.08
2021-08-19 10:20:09.828,-0.32,0.065
2021-08-19 10:20:09.832,-0.35,0.055
2021-08-19 10:20:09.836,-0.375,0.075
2021-08-19 10:20:09.840,-0.415,0.07
2021-08-19 10:20:09.844,-0.455,0.075
2021-08-19 10:20:09.848,-0.465,0.035
2021-08-19 10:20:09.852,-0.47,0.055
2021-08-19 10:20:09.856,-0.49,0.055
2021-08-19 10:20:09.860,-0.505,0.025
2021-08-19 10:20:09.864,-0.5,0.04
2021-08-19 10:20:09.868,-0.53,0.015
2021-08-19 10:20:09.872,-0.56,0.05
2021-08-19 10:20:09.876,-0.605,0.015
2021-08-19 10:20:09.880,-0.635,0.01
2021-08-19 10:20:09.884,-0.68,-0.03
2021-08-19 10:20:09.888,-0.68,-0.055
2021-08-19 10:20:09.892,-0.7,-0.04
2021-08-19 10:20:09.896,-0.725,-0.045
2021-08-19 10:20:09.900,-0.745,-0.055
2021-08-19 10:20:09.904,-0.77,-0.075
2021-08-19 10:20:09.908,-0.75,-0.105
2021-08-19 10:20:09.912,-0.755,-0.11
2021-08-19 10:20:09.916,-0.77,-0.11
2021-08-19 10:20:09.920,-0.78,-0.095
2021-08-19 10:20:09.924,-0.79,-0.09
2021-08-19 10:20:09.928,-0.78,-0.1
2021-08-19 10:20:09.932,-0.78,-0.13
2021-08-19 10:20:09.936,-0.785,-0.14
2021-08-19 10:20:09.940,-0.735,-0.155
2021-08-19 10:20:09.944,-0.72,-0.175
2021-08-19 10:20:09.948,-0.67,-0.17
2021-08-19 10:20:09.952,-0.62,-0.16
2021-08-19 10:20:09.956,-0.575,-0.125
2021-08-19 10:20:09.960,-0.525,-0.14
2021-08-19 10:20:09.964,-0.485,-0.12
2021-08-19 10:20:09.968,-0.445,-0.15
2021-08-19 10:20:09.972,-0.395,-0.11
2021-08-19 10:20:09.976,-0.34,-0.085
2021-08-19 10:20:09.980,-0.305,-0.08
2021-08-19 10:20:09.984,-0.26,-0.06
2021-08-19 10:20:09.988,-0.215,0.0
2021-08-19 10:20:09.992,-0.185,0.005
2021-08-19 10:20:09.996,-0.135,0.045
2021-08-19 10:20:10.000,-0.125,0.055
2021-08-19 10:20:10.004,-0.11,0.085
2021-08-19 10:20:10.008,-0.06,0.085
2021-08-19 10:20:10.012,-0.045,0.12
2021-08-19 10:20:10.016,-0.015,0.105
2021-08-19 10:20:10.020,-0.04,0.14
2021-08-19 10:20:10.024,-0.035,0.155
2021-08-19 10:20:10.028,-0.02,0.185
2021-08-19 10:20:10.032,0.005,0.195
2021-08-19 10:20:10.036,-0.005,0.16
2021-08-19 10:20:10.040,0.015,0.185
2021-08-19 10:20:10.044,0.015,0.19
2021-08-19 10:20:10.048,0.025,0.22
2021-08-19 10:20:10.052,0.03,0.215
2021-08-19 10:20:10.056,0.03,0.21
2021-08-19 10:20:10.060,0.015,0.225
2021-08-19 10:20:10.064,0.025,0.185
2021-08-19 10:20:10.068,0.0,0.205
2021-08-19 10:20:10.072,0.01,0.19
2021-08-19 10:20:10.076,0.0,0.22
2021-08-19 10:20:10.080,0.01,0.21
2021-08-19 10:20:10.084,0.015,0.225
2021-08-19 10:20:10.088,0.03,0.21
2021-08-19 10:20:10.092,0.045,0.205
2021-08-19 10:20:10.096,0.055,0.195
2021-08-19 10:20:10.100,0.04,0.2
2021-08-19 10:20:10.104,0.015,0.19
2021-08-19 10:20:10.108,0.015,0.2
2021-08-19 10:20:10.112,-0.005,0.18
2021-08-19 10:20:10.116,0.01,0.17
2021-08-19 10:20:10.120,0.01,0.195
2021-08-19 10:20:10.124,0.02,0.2
2021-08-19 10:20:10.128,0.015,0.195
2021-08-19 10:20:10.132,0.055,0.205
2021-08-19 10:20:10.136,0.055,0.185
2021-08-19 10:20:10.140,0.035,0.18
2021-08-19 10:20:10.144,0.02,0.15
2021-08-19 10:20:10.148,0.025,0.155
2021-08-19 10:20:10.152,0.035,0.15
2021-08-19 10:20:10.156,0.045,0.175
2021-08-19 10:20:10.160,0.035,0.175
2021-08-19 10:20:10.164,0.015,0.145
2021-08-19 10:20:10.168,0.005,0.145
2021-08-19 10:20:10.172,0.005,0.165
2021-08-19 10:20:10.176,0.015,0.155
2021-08-19 10:20:10.180,0.055,0.17
2021-08-19 10:20:10.184,0.05,0.195
2021-08-19 10:20:10.188,0.035,0.18
2021-08-19 10:20:10.192,0.025,0.17
2021-08-19 10:20:10.196,0.025,0.15
2021-08-19 10:20:10.200,0.02,0.16
2021-08-19 10:20:10.204,0.0,0.155
2021-08-19 10:20:10.208,0.0,0.14
2021-08-19 10:20:10.212,0.005,0.135
2021-08-19 10:20:10.216,-0.005,0.14
2021-08-19 10:20:10.220,0.015,0.165
2021-08-19 10:20:10.224,0.02,0.155
2021-08-19 10:20:10.228,0.03,0.17
2021-08-19 10:20:10.232,0.035,0.155
2021-08-19 10:20:10.236,0.025,0.175
2021-08-19 10:20:10.240,0.005,0.165
2021-08-19 10:20:10.244,-0.005,0.16
2021-08-19 10:20:10.248,-0.02,0.14
2021-08-19 10:20:10.252,-0.02,0.135
2021-08-19 10:20:10.256,-0.02,0.16
2021-08-19 10:20:10.260,0.0,0.17
2021-08-19 10:20:10.264,-0.01,0.155
2021-08-19 10:20:10.268,0.01,0.155
2021-08-19 10:20:10.272,0.02,0.125
2021-08-19 10:20:10.276,0.01,0.155
2021-08-19 10:20:10.280,0.005,0.15
2021-08-19 10:20:10.284,0.02,0.145
2021-08-19 10:20:10.288,0.01,0.14
2021-08-19 10:20:10.292,0.0,0.14
2021-08-19 10:20:10.296,0.0,0.17
2021-08-19 10:20:10.300,-0.02,0.125
2021-08-19 10:20:10.304,-0.015,0.13
2021-08-19 10:20:10.308,-0.01,0.125
2021-08-19 10:20:10.312,0.01,0.135
2021-08-19 10:20:10.316,0.005,0.145
2021-08-19 10:20:10.320,0.01,0.135
2021-08-19 10:20:10.324,0.035,0.17
2021-08-19 10:20:10.328,0.035,0.14
2021-08-19 10:20:10.332,0.045,0.135
2021-08-19 10:20:10.336,0.04,0.12
2021-08-19 10:20:10.340,0.07,0.115
2021-08-19 10:20:10.344,0.11,0.14
2021-08-19 10:20:10.348,0.135,0.16
2021-08-19 10:20:10.352,0.14,0.23
2021-08-19 10:20:10.356,0.155,0.225
2021-08-19 10:20:10.360,0.155,0.24
2021-08-19 10:20:10.364,0.18,0.255
2021-08-19 10:20:10.368,0.16,0.235
2021-08-19 10:20:10.372,0.145,0.225
2021-08-19 10:20:10.376,0.115,0.215
2021-08-19 10:20:10.380,0.095,0.185
2021-08-19 10:20:10.384,0.1,0.135
2021-08-19 10:20:10.388,0.075,0.1
2021-08-19 10:20:10.392,0.02,0.025
2021-08-19 10:20:10.396,0.035,-0.005
2021-08-19 10:20:10.400,0.02,0.0
2021-08-19 10:20:10.404,0.005,0.0
2021-08-19 10:20:10.408,0.0,0.04
2021-08-19 10:20:10.412,-0.015,0.085
2021-08-19 10:20:10.416,-0.05,0.075
2021-08-19 10:20:10.420,-0.045,0.085
2021-08-19 10:20:10.424,-0.065,0.11
2021-08-19 10:20:10.428,-0.055,0.075
2021-08-19 10:20:10.432,-0.08,0.06
2021-08-19 10:20:10.436,-0.075,0.04
2021-08-19 10:20:10.440,-0.045,0.04
2021-08-19 10:20:10.444,-0.005,0.045
2021-08-19 10:20:10.448,0.08,0.095
2021-08-19 10:20:10.452,0.15,0.16
2021-08-19 10:20:10.456,0.355,0.2
2021-08-19 10:20:10.460,0.635,0.16
2021-08-19 10:20:10.464,0.865,0.14
2021-08-19 10:20:10.468,0.97,0.1
2021-08-19 10:20:10.472,1.035,-0.095
2021-08-19 10:20:10.476,1.005,-0.51
2021-08-19 10:20:10.480,0.545,-0.93
2021-08-19 10:20:10.484,-0.36,-1.275
2021-08-19 10:20:10.488,-1.13,-1.555
2021-08-19 10:20:10.492,-1.515,-1.8
2021-08-19 10:20:10.508,-0.81,-1.93
2021-08-19 10:20:10.512,-0.57,-1.57
2021-08-19 10:20:10.516,-0.39,-1.185
2021-08-19 10:20:10.520,-0.29,-0.805
2021-08-19 10:20:10.524,-0.24,-0.48
2021-08-19 10:20:10.528,-0.205,-0.24
2021-08-19 10:20:10.532,-0.2,-0.09
2021-08-19 10:20:10.536,-0.19,-0.005
2021-08-19 10:20:10.540,-0.165,0.055
2021-08-19 10:20:10.544,-0.16,0.055
2021-08-19 10:20:10.548,-0.15,0.06
2021-08-19 10:20:10.552,-0.145,0.075
2021-08-19 10:20:10.556,-0.155,0.085
2021-08-19 10:20:10.560,-0.155,0.095
2021-08-19 10:20:10.564,-0.175,0.115
2021-08-19 10:20:10.568,-0.175,0.105
2021-08-19 10:20:10.572,-0.17,0.115
2021-08-19 10:20:10.576,-0.175,0.135
2021-08-19 10:20:10.580,-0.175,0.135
2021-08-19 10:20:10.584,-0.205,0.13
2021-08-19 10:20:10.588,-0.175,0.125
2021-08-19 10:20:10.592,-0.18,0.125
2021-08-19 10:20:10.596,-0.19,0.13
2021-08-19 10:20:10.600,-0.2,0.135
2021-08-19 10:20:10.604,-0.245,0.14
2021-08-19 10:20:10.608,-0.26,0.135
2021-08-19 10:20:10.612,-0.27,0.125
2021-08-19 10:20:10.616,-0.285,0.14
2021-08-19 10:20:10.620,-0.275,0.125
2021-08-19 10:20:10.624,-0.285,0.125
2021-08-19 10:20:10.628,-0.295,0.125
2021-08-19 10:20:10.632,-0.28,0.125
2021-08-19 10:20:10.636,-0.3,0.095
2021-08-19 10:20:10.640,-0.31,0.115
2021-08-19 10:20:10.644,-0.335,0.11
2021-08-19 10:20:10.648,-0.36,0.09
2021-08-19 10:20:10.652,-0.38,0.105
2021-08-19 10:20:10.656,-0.38,0.085
2021-08-19 10:20:10.660,-0.43,0.11
2021-08-19 10:20:10.664,-0.475,0.08
2021-08-19 10:20:10.668,-0.485,0.075
2021-08-19 10:20:10.672,-0.515,0.095
2021-08-19 10:20:10.676,-0.525,0.08
2021-08-19 10:20:10.680,-0.53,0.075
2021-08-19 10:20:10.684,-0.545,0.045
2021-08-19 10:20:10.688,-0.56,0.05
2021-08-19 10:20:10.692,-0.61,0.035
2021-08-19 10:20:10.696,-0.64,0.005
2021-08-19 10:20:10.700,-0.675,-0.015
2021-08-19 10:20:10.704,-0.71,-0.015
2021-08-19 10:20:10.708,-0.725,-0.03
2021-08-19 10:20:10.712,-0.745,-0.025
2021-08-19 10:20:10.716,-0.76,-0.035
2021-08-19 10:20:10.720,-0.745,-0.015
2021-08-19 10:20:10.724,-0.775,-0.035
2021-08-19 10:20:10.728,-0.785,-0.03
2021-08-19 10:20:10.732,-0.79,-0.06
2021-08-19 10:20:10.736,-0.78,-0.065
2021-08-19 10:20:10.740,-0.785,-0.05
2021-08-19 10:20:10.744,-0.805,-0.07
2021-08-19 10:20:10.748,-0.81,-0.06
2021-08-19 10:20:10.752,-0.78,-0.085
2021-08-19 10:20:10.756,-0.77,-0.085
2021-08-19 10:20:10.760,-0.73,-0.08
2021-08-19 10:20:10.764,-0.69,-0.1
2021-08-19 10:20:10.768,-0.635,-0.07
2021-08-19 10:20:10.772,-0.57,-0.035
2021-08-19 10:20:10.776,-0.535,-0.055
2021-08-19 10:20:10.780,-0.465,-0.025
2021-08-19 10:20:10.784,-0.425,-0.015
2021-08-19 10:20:10.788,-0.385,0.0
2021-08-19 10:20:10.792,-0.325,0.01
2021-08-19 10:20:10.796,-0.29,0.01
2021-08-19 10:20:10.800,-0.255,0.055
2021-08-19 10:20:10.804,-0.205,0.075
2021-08-19 10:20:10.808,-0.17,0.075
2021-08-19 10:20:10.812,-0.14,0.105
2021-08-19 10:20:10.816,-0.11,0.095
2021-08-19 10:20:10.820,-0.07,0.135
2021-08-19 10:20:10.824,-0.065,0.16
2021-08-19 10:20:10.828,-0.045,0.145
2021-08-19 10:20:10.832,-0.04,0.18
2021-08-19 10:20:10.836,-0.04,0.215
2021-08-19 10:20:10.840,-0.04,0.21
2021-08-19 10:20:10.844,-0.045,0.225
2021-08-19 10:20:10.848,-0.035,0.225
2021-08-19 10:20:10.852,-0.005,0.255
2021-08-19 10:20:10.856,0.02,0.25
2021-08-19 10:20:10.860,0.015,0.245
2021-08-19 10:20:10.864,0.025,0.26
2021-08-19 10:20:10.868,0.03,0.24
2021-08-19 10:20:10.872,0.025,0.25
2021-08-19 10:20:10.876,0.01,0.255
2021-08-19 10:20:10.880,0.01,0.24
2021-08-19 10:20:10.884,0.0,0.245
2021-08-19 10:20:10.888,-0.005,0.245
2021-08-19 10:20:10.892,0.025,0.225
2021-08-19 10:20:10.896,0.015,0.235
2021-08-19 10:20:10.900,0.02,0.25
2021-08-19 10:20:10.904,0.055,0.255
2021-08-19 10:20:10.908,0.035,0.265
2021-08-19 10:20:10.912,0.045,0.255
2021-08-19 10:20:10.916,0.02,0.245
2021-08-19 10:20:10.920,0.025,0.24
2021-08-19 10:20:10.924,0.005,0.225
2021-08-19 10:20:10.928,0.0,0.245
2021-08-19 10:20:10.932,0.03,0.235
2021-08-19 10:20:10.936,-0.005,0.245
2021-08-19 10:20:10.940,0.03,0.215
2021-08-19 10:20:10.944,0.03,0.2
2021-08-19 10:20:10.948,0.06,0.23
2021-08-19 10:20:10.952,0.045,0.245
2021-08-19 10:20:10.956,0.04,0.225
2021-08-19 10:20:10.960,0.015,0.2
2021-08-19 10:20:10.964,0.015,0.215
2021-08-19 10:20:10.968,0.02,0.19
2021-08-19 10:20:10.972,0.0,0.175
2021-08-19 10:20:10.976,0.01,0.205
2021-08-19 10:20:10.980,0.005,0.185
2021-08-19 10:20:10.984,0.005,0.175
2021-08-19 10:20:10.988,0.0,0.175
2021-08-19 10:20:10.992,0.01,0.15
2021-08-19 10:20:10.996,0.03,0.155
2021-08-19 10:20:11.000,0.025,0.185
2021-08-19 10:20:11.004,0.04,0.17
2021-08-19 10:20:11.008,0.015,0.17
2021-08-19 10:20:11.012,0.01,0.185
2021-08-19 10:20:11.016,-0.005,0.17
2021-08-19 10:20:11.020,-0.015,0.18
2021-08-19 10:20:11.024,-0.005,0.195
2021-08-19 10:20:11.028,0.0,0.17
2021-08-19 10:20:11.032,0.015,0.165
2021-08-19 10:20:11.036,0.03,0.18
2021-08-19 10:20:11.040,0.025,0.155
2021-08-19 10:20:11.044,0.03,0.145
2021-08-19 10:20:11.048,0.035,0.155
2021-08-19 10:20:11.052,0.02,0.145
2021-08-19 10:20:11.056,0.0,0.135
2021-08-19 10:20:11.060,-0.005,0.135
2021-08-19 10:20:11.064,-0.01,0.14
2021-08-19 10:20:11.068,0.005,0.14
2021-08-19 10:20:11.072,0.005,0.13
2021-08-19 10:20:11.076,0.005,0.105
2021-08-19 10:20:11.080,0.01,0.125
2021-08-19 10:20:11.084,0.045,0.13
2021-08-19 10:20:11.088,0.025,0.15
2021-08-19 10:20:11.092,0.035,0.13
2021-08-19 10:20:11.096,0.04,0.13
2021-08-19 10:20:11.100,0.005,0.125
2021-08-19 10:20:11.104,0.005,0.125
2021-08-19 10:20:11.108,0.01,0.135
2021-08-19 10:20:11.112,0.01,0.135
2021-08-19 10:20:11.116,0.01,0.125
2021-08-19 10:20:11.120,0.01,0.105
2021-08-19 10:20:11.124,0.02,0.13
2021-08-19 10:20:11.128,0.025,0.14
2021-08-19 10:20:11.132,0.02,0.11
2021-08-19 10:20:11.136,0.055,0.13
2021-08-19 10:20:11.140,0.03,0.105
2021-08-19 10:20:11.144,0.055,0.115
2021-08-19 10:20:11.148,0.085,0.075
2021-08-19 10:20:11.152,0.105,0.13
2021-08-19 10:20:11.156,0.145,0.165
2021-08-19 10:20:11.160,0.145,0.165
2021-08-19 10:20:11.164,0.16,0.185
2021-08-19 10:20:11.168,0.18,0.23
2021-08-19 10:20:11.172,0.215,0.25
2021-08-19 10:20:11.176,0.23,0.26
2021-08-19 10:20:11.180,0.23,0.255
2021-08-19 10:20:11.184,0.18,0.22
2021-08-19 10:20:11.188,0.14,0.195
2021-08-19 10:20:11.192,0.14,0.185
2021-08-19 10:20:11.196,0.15,0.14
2021-08-19 10:20:11.200,0.15,0.075
2021-08-19 10:20:11.204,0.125,0.04
2021-08-19 10:20:11.208,0.11,0.045
2021-08-19 10:20:11.212,0.08,0.005
2021-08-19 10:20:11.216,0.045,0.02
2021-08-19 10:20:11.220,0.02,0.05
2021-08-19 10:20:11.224,0.01,0.1
2021-08-19 10:20:11.228,0.015,0.13
2021-08-19 10:20:11.232,-0.015,0.14
2021-08-19 10:20:11.236,-0.015,0.13
2021-08-19 10:20:11.240,-0.005,0.09
2021-08-19 10:20:11.244,-0.015,0.085
2021-08-19 10:20:11.248,-0.01,0.07
2021-08-19 10:20:11.252,-0.005,0.08
2021-08-19 10:20:11.256,0.055,0.095
2021-08-19 10:20:11.260,0.135,0.145
2021-08-19 10:20:11.264,0.21,0.19
2021-08-19 10:20:11.268,0.425,0.22
2021-08-19 10:20:11.272,0.72,0.225
2021-08-19 10:20:11.276,0.98,0.195
2021-08-19 10:20:11.280,1.07,0.145
2021-08-19 10:20:11.284,1.17,-0.035
2021-08-19 10:20:11.288,1.14,-0.425
2021-08-19 10:20:11.292,0.685,-0.815
2021-08-19 10:20:11.296,-0.22,-1.185
2021-08-19 10:20:11.300,-1.015,-1.485
2021-08-19 10:20:11.304,-1.44,-1.76
2021-08-19 10:20:11.320,-0.805,-1.9
2021-08-19 10:20:11.324,-0.555,-1.555
2021-08-19 10:20:11.328,-0.36,-1.16
2021-08-19 10:20:11.332,-0.26,-0.845
2021-08-19 10:20:11.336,-0.195,-0.53
2021-08-19 10:20:11.340,-0.16,-0.275
2021-08-19 10:20:11.344,-0.15,-0.115
2021-08-19 10:20:11.348,-0.155,-0.035
2021-08-19 10:20:11.352,-0.14,0.02
2021-08-19 10:20:11.356,-0.125,0.025
2021-08-19 10:20:11.360,-0.13,0.07
2021-08-19 10:20:11.364,-0.15,0.07
2021-08-19 10:20:11.368,-0.125,0.075
2021-08-19 10:20:11.372,-0.145,0.1
2021-08-19 10:20:11.376,-0.16,0.095
2021-08-19 10:20:11.380,-0.175,0.09
2021-08-19 10:20:11.384,-0.15,0.095
2021-08-19 10:20:11.388,-0.16,0.095
2021-08-19 10:20:11.392,-0.16,0.08
2021-08-19 10:20:11.396,-0.16,0.105
2021-08-19 10:20:11.400,-0.175,0.105
2021-08-19 10:20:11.404,-0.18,0.09
2021-08-19 10:20:11.408,-0.185,0.07
2021-08-19 10:20:11.412,-0.205,0.095
2021-08-19 10:20:11.416,-0.21,0.1
2021-08-19 10:20:11.420,-0.25,0.075
2021-08-19 10:20:11.424,-0.255,0.08
2021-08-19 10:20:11.428,-0.265,0.075
2021-08-19 10:20:11.432,-0.265,0.11
