Time,ECG1,ECG2
2021-08-19 13:54:39.892,-0.2,-0.305
2021-08-19 13:54:39.896,-0.16,-0.3
2021-08-19 13:54:39.900,-0.155,-0.31
2021-08-19 13:54:39.904,-0.175,-0.29
2021-08-19 13:54:39.908,-0.17,-0.29
2021-08-19 13:54:39.912,-0.185,-0.305
2021-08-19 13:54:39.916,-0.21,-0.31
2021-08-19 13:54:39.920,-0.195,-0.315
2021-08-19 13:54:39.924,-0.195,-0.3
2021-08-19 13:54:39.928,-0.22,-0.28
2021-08-19 13:54:39.932,-0.185,-0.31
2021-08-19 13:54:39.936,-0.16,-0.31
2021-08-19 13:54:39.940,-0.16,-0.285
2021-08-19 13:54:39.944,-0.17,-0.295
2021-08-19 13:54:39.948,-0.18,-0.295
2021-08-19 13:54:39.952,-0.19,-0.295
2021-08-19 13:54:39.956,-0.205,-0.3
2021-08-19 13:54:39.960,-0.22,-0.29
2021-08-19 13:54:39.964,-0.205,-0.32
2021-08-19 13:54:39.968,-0.24,-0.32
2021-08-19 13:54:39.972,-0.19,-0.3
2021-08-19 13:54:39.976,-0.22,-0.32
2021-08-19 13:54:39.980,-0.195,-0.3
2021-08-19 13:54:39.984,-0.175,-0.345
2021-08-19 13:54:39.988,-0.21,-0.335
2021-08-19 13:54:39.992,-0.195,-0.34
2021-08-19 13:54:39.996,-0.2,-0.315
2021-08-19 13:54:40.000,-0.23,-0.32
2021-08-19 13:54:40.004,-0.215,-0.305
2021-08-19 13:54:40.008,-0.2,-0.295
2021-08-19 13:54:40.012,-0.215,-0.315
2021-08-19 13:54:40.016,-0.21,-0.3
2021-08-19 13:54:40.020,-0.2,-0.3
2021-08-19 13:54:40.024,-0.2,-0.31
2021-08-19 13:54:40.028,-0.175,-0.31
2021-08-19 13:54:40.032,-0.185,-0.33
2021-08-19 13:54:40.036,-0.21,-0.345
2021-08-19 13:54:40.040,-0.24,-0.31
2021-08-19 13:54:40.044,-0.235,-0.335
2021-08-19 13:54:40.048,-0.25,-0.305
2021-08-19 13:54:40.052,-0.23,-0.315
2021-08-19 13:54:40.056,-0.2,-0.315
2021-08-19 13:54:40.060,-0.185,-0.34
2021-08-19 13:54:40.064,-0.185,-0.34
2021-08-19 13:54:40.068,-0.185,-0.33
2021-08-19 13:54:40.072,-0.185,-0.345
2021-08-19 13:54:40.076,-0.185,-0.345
2021-08-19 13:54:40.080,-0.225,-0.32
2021-08-19 13:54:40.084,-0.22,-0.32
2021-08-19 13:54:40.088,-0.215,-0.335
2021-08-19 13:54:40.092,-0.235,-0.34
2021-08-19 13:54:40.096,-0.225,-0.33
2021-08-19 13:54:40.100,-0.225,-0.32
2021-08-19 13:54:40.104,-0.215,-0.315
2021-08-19 13:54:40.108,-0.195,-0.325
2021-08-19 13:54:40.112,-0.21,-0.32
2021-08-19 13:54:40.116,-0.22,-0.34
2021-08-19 13:54:40.120,-0.225,-0.36
2021-08-19 13:54:40.124,-0.24,-0.355
2021-08-19 13:54:40.128,-0.24,-0.34
2021-08-19 13:54:40.132,-0.26,-0.32
2021-08-19 13:54:40.136,-0.25,-0.32
2021-08-19 13:54:40.140,-0.235,-0.33
2021-08-19 13:54:40.144,-0.23,-0.32
2021-08-19 13:54:40.148,-0.22,-0.32
2021-08-19 13:54:40.152,-0.24,-0.345
2021-08-19 13:54:40.156,-0.215,-0.405
2021-08-19 13:54:40.160,-0.225,-0.4
2021-08-19 13:54:40.164,-0.255,-0.4
2021-08-19 13:54:40.168,-0.265,-0.36
2021-08-19 13:54:40.172,-0.25,-0.34
2021-08-19 13:54:40.176,-0.245,-0.345
2021-08-19 13:54:40.180,-0.255,-0.34
2021-08-19 13:54:40.184,-0.23,-0.32
2021-08-19 13:54:40.188,-0.215,-0.32
2021-08-19 13:54:40.192,-0.22,-0.31
2021-08-19 13:54:40.196,-0.225,-0.32
2021-08-19 13:54:40.200,-0.25,-0.335
2021-08-19 13:54:40.204,-0.255,-0.355
2021-08-19 13:54:40.208,-0.26,-0.36
2021-08-19 13:54:40.212,-0.27,-0.385
2021-08-19 13:54:40.216,-0.27,-0.36
2021-08-19 13:54:40.220,-0.25,-0.355
2021-08-19 13:54:40.224,-0.24,-0.34
2021-08-19 13:54:40.228,-0.245,-0.335
2021-08-19 13:54:40.232,-0.23,-0.36
2021-08-19 13:54:40.236,-0.255,-0.355
2021-08-19 13:54:40.240,-0.255,-0.36
2021-08-19 13:54:40.244,-0.245,-0.38
2021-08-19 13:54:40.248,-0.28,-0.38
2021-08-19 13:54:40.252,-0.265,-0.365
2021-08-19 13:54:40.256,-0.265,-0.365
2021-08-19 13:54:40.260,-0.28,-0.345
2021-08-19 13:54:40.264,-0.27,-0.35
2021-08-19 13:54:40.268,-0.265,-0.365
2021-08-19 13:54:40.272,-0.26,-0.37
2021-08-19 13:54:40.276,-0.235,-0.38
2021-08-19 13:54:40.280,-0.255,-0.385
2021-08-19 13:54:40.284,-0.26,-0.37
2021-08-19 13:54:40.288,-0.28,-0.325
2021-08-19 13:54:40.292,-0.27,-0.34
2021-08-19 13:54:40.296,-0.27,-0.35
2021-08-19 13:54:40.300,-0.29,-0.355
2021-08-19 13:54:40.304,-0.26,-0.37
2021-08-19 13:54:40.308,-0.24,-0.37
2021-08-19 13:54:40.312,-0.23,-0.345
2021-08-19 13:54:40.316,-0.245,-0.325
2021-08-19 13:54:40.320,-0.25,-0.335
2021-08-19 13:54:40.324,-0.25,-0.375
2021-08-19 13:54:40.328,-0.26,-0.365
2021-08-19 13:54:40.332,-0.265,-0.385
2021-08-19 13:54:40.336,-0.27,-0.34
2021-08-19 13:54:40.340,-0.255,-0.34
2021-08-19 13:54:40.344,-0.27,-0.335
2021-08-19 13:54:40.348,-0.235,-0.325
2021-08-19 13:54:40.352,-0.23,-0.34
2021-08-19 13:54:40.356,-0.215,-0.33
2021-08-19 13:54:40.360,-0.245,-0.34
2021-08-19 13:54:40.364,-0.23,-0.35
2021-08-19 13:54:40.368,-0.265,-0.355
2021-08-19 13:54:40.372,-0.26,-0.36
2021-08-19 13:54:40.376,-0.28,-0.34
2021-08-19 13:54:40.380,-0.26,-0.31
2021-08-19 13:54:40.384,-0.255,-0.315
2021-08-19 13:54:40.388,-0.255,-0.275
2021-08-19 13:54:40.392,-0.225,-0.305
2021-08-19 13:54:40.396,-0.215,-0.32
2021-08-19 13:54:40.400,-0.23,-0.355
2021-08-19 13:54:40.404,-0.23,-0.335
2021-08-19 13:54:40.408,-0.23,-0.3
2021-08-19 13:54:40.412,-0.265,-0.295
2021-08-19 13:54:40.416,-0.24,-0.31
2021-08-19 13:54:40.420,-0.26,-0.33
2021-08-19 13:54:40.424,-0.235,-0.305
2021-08-19 13:54:40.428,-0.245,-0.275
2021-08-19 13:54:40.432,-0.205,-0.3
2021-08-19 13:54:40.436,-0.215,-0.32
2021-08-19 13:54:40.440,-0.195,-0.33
2021-08-19 13:54:40.444,-0.185,-0.325
2021-08-19 13:54:40.448,-0.22,-0.325
2021-08-19 13:54:40.452,-0.235,-0.32
2021-08-19 13:54:40.456,-0.225,-0.315
2021-08-19 13:54:40.460,-0.24,-0.31
2021-08-19 13:54:40.464,-0.225,-0.305
2021-08-19 13:54:40.468,-0.22,-0.305
2021-08-19 13:54:40.472,-0.23,-0.285
2021-08-19 13:54:40.476,-0.205,-0.28
2021-08-19 13:54:40.480,-0.19,-0.31
2021-08-19 13:54:40.484,-0.175,-0.315
2021-08-19 13:54:40.488,-0.2,-0.3
2021-08-19 13:54:40.492,-0.21,-0.33
2021-08-19 13:54:40.496,-0.25,-0.29
2021-08-19 13:54:40.500,-0.215,-0.295
2021-08-19 13:54:40.504,-0.235,-0.29
2021-08-19 13:54:40.508,-0.225,-0.305
2021-08-19 13:54:40.512,-0.215,-0.295
2021-08-19 13:54:40.516,-0.205,-0.32
2021-08-19 13:54:40.520,-0.2,-0.305
2021-08-19 13:54:40.524,-0.185,-0.28
2021-08-19 13:54:40.528,-0.185,-0.275
2021-08-19 13:54:40.532,-0.17,-0.255
2021-08-19 13:54:40.536,-0.16,-0.27
2021-08-19 13:54:40.540,-0.14,-0.24
2021-08-19 13:54:40.544,-0.145,-0.21
2021-08-19 13:54:40.548,-0.155,-0.16
2021-08-19 13:54:40.552,-0.125,-0.14
2021-08-19 13:54:40.556,-0.085,-0.1
2021-08-19 13:54:40.560,-0.07,-0.1
2021-08-19 13:54:40.564,-0.075,-0.11
2021-08-19 13:54:40.568,-0.08,-0.13
2021-08-19 13:54:40.572,-0.11,-0.13
2021-08-19 13:54:40.576,-0.16,-0.175
2021-08-19 13:54:40.580,-0.17,-0.175
2021-08-19 13:54:40.584,-0.195,-0.195
2021-08-19 13:54:40.588,-0.245,-0.175
2021-08-19 13:54:40.592,-0.23,-0.175
2021-08-19 13:54:40.596,-0.18,-0.18
2021-08-19 13:54:40.600,-0.175,-0.25
2021-08-19 13:54:40.604,-0.165,-0.29
2021-08-19 13:54:40.608,-0.195,-0.35
2021-08-19 13:54:40.612,-0.22,-0.36
2021-08-19 13:54:40.616,-0.235,-0.345
2021-08-19 13:54:40.620,-0.235,-0.34
2021-08-19 13:54:40.624,-0.26,-0.345
2021-08-19 13:54:40.628,-0.26,-0.345
2021-08-19 13:54:40.632,-0.26,-0.33
2021-08-19 13:54:40.636,-0.235,-0.29
2021-08-19 13:54:40.640,-0.22,-0.32
2021-08-19 13:54:40.644,-0.225,-0.315
2021-08-19 13:54:40.648,-0.21,-0.33
2021-08-19 13:54:40.652,-0.235,-0.33
2021-08-19 13:54:40.656,-0.265,-0.315
2021-08-19 13:54:40.660,-0.25,-0.34
2021-08-19 13:54:40.664,-0.23,-0.34
2021-08-19 13:54:40.668,-0.235,-0.305
2021-08-19 13:54:40.672,-0.21,-0.32
2021-08-19 13:54:40.676,-0.19,-0.31
2021-08-19 13:54:40.680,-0.04,-0.33
2021-08-19 13:54:40.684,0.075,-0.28
2021-08-19 13:54:40.688,0.135,-0.215
2021-08-19 13:54:40.692,0.245,-0.09
2021-08-19 13:54:40.696,0.42,0.19
2021-08-19 13:54:40.700,0.455,0.495
2021-08-19 13:54:40.704,0.15,0.65
2021-08-19 13:54:40.708,-0.24,0.625
2021-08-19 13:54:40.712,-0.75,0.415
2021-08-19 13:54:40.716,-1.18,0.145
2021-08-19 13:54:40.720,-1.415,-0.11
2021-08-19 13:54:40.724,-1.6,-0.2
2021-08-19 13:54:40.728,-1.53,-0.1
2021-08-19 13:54:40.732,-1.3,-0.035
2021-08-19 13:54:40.736,-1.005,-0.11
2021-08-19 13:54:40.740,-0.785,-0.185
2021-08-19 13:54:40.744,-0.585,-0.235
2021-08-19 13:54:40.748,-0.445,-0.26
2021-08-19 13:54:40.752,-0.355,-0.29
2021-08-19 13:54:40.756,-0.305,-0.285
2021-08-19 13:54:40.760,-0.26,-0.29
2021-08-19 13:54:40.764,-0.26,-0.295
2021-08-19 13:54:40.768,-0.25,-0.32
2021-08-19 13:54:40.772,-0.24,-0.345
2021-08-19 13:54:40.776,-0.24,-0.37
2021-08-19 13:54:40.780,-0.24,-0.335
2021-08-19 13:54:40.784,-0.245,-0.33
2021-08-19 13:54:40.788,-0.23,-0.365
2021-08-19 13:54:40.792,-0.235,-0.375
2021-08-19 13:54:40.796,-0.26,-0.355
2021-08-19 13:54:40.800,-0.22,-0.365
2021-08-19 13:54:40.804,-0.205,-0.35
2021-08-19 13:54:40.808,-0.205,-0.36
2021-08-19 13:54:40.812,-0.205,-0.34
2021-08-19 13:54:40.816,-0.205,-0.37
2021-08-19 13:54:40.820,-0.21,-0.37
2021-08-19 13:54:40.824,-0.23,-0.37
2021-08-19 13:54:40.828,-0.215,-0.37
2021-08-19 13:54:40.832,-0.23,-0.35
2021-08-19 13:54:40.836,-0.225,-0.32
2021-08-19 13:54:40.840,-0.19,-0.32
2021-08-19 13:54:40.844,-0.19,-0.325
2021-08-19 13:54:40.848,-0.175,-0.32
2021-08-19 13:54:40.852,-0.195,-0.345
2021-08-19 13:54:40.856,-0.205,-0.37
2021-08-19 13:54:40.860,-0.225,-0.355
2021-08-19 13:54:40.864,-0.23,-0.355
2021-08-19 13:54:40.868,-0.205,-0.335
2021-08-19 13:54:40.872,-0.2,-0.34
2021-08-19 13:54:40.876,-0.2,-0.335
2021-08-19 13:54:40.880,-0.175,-0.32
2021-08-19 13:54:40.884,-0.19,-0.335
2021-08-19 13:54:40.888,-0.185,-0.315
2021-08-19 13:54:40.892,-0.175,-0.31
2021-08-19 13:54:40.896,-0.18,-0.32
2021-08-19 13:54:40.900,-0.18,-0.32
2021-08-19 13:54:40.904,-0.21,-0.33
2021-08-19 13:54:40.908,-0.205,-0.315
2021-08-19 13:54:40.912,-0.21,-0.305
2021-08-19 13:54:40.916,-0.2,-0.26
2021-08-19 13:54:40.920,-0.205,-0.29
2021-08-19 13:54:40.924,-0.165,-0.31
2021-08-19 13:54:40.928,-0.15,-0.295
2021-08-19 13:54:40.932,-0.195,-0.28
2021-08-19 13:54:40.936,-0.165,-0.29
2021-08-19 13:54:40.940,-0.165,-0.29
2021-08-19 13:54:40.944,-0.18,-0.275
2021-08-19 13:54:40.948,-0.18,-0.26
2021-08-19 13:54:40.952,-0.195,-0.245
2021-08-19 13:54:40.956,-0.18,-0.225
2021-08-19 13:54:40.960,-0.16,-0.245
2021-08-19 13:54:40.964,-0.155,-0.21
2021-08-19 13:54:40.968,-0.16,-0.215
2021-08-19 13:54:40.972,-0.175,-0.19
2021-08-19 13:54:40.976,-0.19,-0.225
2021-08-19 13:54:40.980,-0.2,-0.25
2021-08-19 13:54:40.984,-0.225,-0.235
2021-08-19 13:54:40.988,-0.215,-0.195
2021-08-19 13:54:40.992,-0.215,-0.175
2021-08-19 13:54:40.996,-0.215,-0.13
2021-08-19 13:54:41.000,-0.2,-0.145
2021-08-19 13:54:41.004,-0.205,-0.185
2021-08-19 13:54:41.008,-0.225,-0.175
2021-08-19 13:54:41.012,-0.19,-0.18
2021-08-19 13:54:41.016,-0.23,-0.15
2021-08-19 13:54:41.020,-0.255,-0.13
2021-08-19 13:54:41.024,-0.245,-0.12
2021-08-19 13:54:41.028,-0.25,-0.095
2021-08-19 13:54:41.032,-0.245,-0.055
2021-08-19 13:54:41.036,-0.255,-0.05
2021-08-19 13:54:41.040,-0.225,0.0
2021-08-19 13:54:41.044,-0.21,0.005
2021-08-19 13:54:41.048,-0.205,0.0
2021-08-19 13:54:41.052,-0.19,-0.005
2021-08-19 13:54:41.056,-0.19,0.005
2021-08-19 13:54:41.060,-0.195,-0.02
2021-08-19 13:54:41.064,-0.175,-0.02
2021-08-19 13:54:41.068,-0.15,-0.055
2021-08-19 13:54:41.072,-0.14,-0.06
2021-08-19 13:54:41.076,-0.12,-0.04
2021-08-19 13:54:41.080,-0.1,-0.03
2021-08-19 13:54:41.084,-0.05,-0.04
2021-08-19 13:54:41.088,-0.075,-0.035
2021-08-19 13:54:41.092,-0.055,-0.04
2021-08-19 13:54:41.096,-0.075,-0.045
2021-08-19 13:54:41.100,-0.065,-0.065
2021-08-19 13:54:41.104,-0.04,-0.09
2021-08-19 13:54:41.108,-0.08,-0.065
2021-08-19 13:54:41.112,-0.08,-0.05
2021-08-19 13:54:41.116,-0.1,-0.075
2021-08-19 13:54:41.120,-0.07,-0.075
2021-08-19 13:54:41.124,-0.045,-0.09
2021-08-19 13:54:41.128,-0.045,-0.11
2021-08-19 13:54:41.132,-0.04,-0.115
2021-08-19 13:54:41.136,-0.03,-0.125
2021-08-19 13:54:41.140,-0.07,-0.095
2021-08-19 13:54:41.144,-0.08,-0.09
2021-08-19 13:54:41.148,-0.08,-0.11
2021-08-19 13:54:41.152,-0.095,-0.115
2021-08-19 13:54:41.156,-0.08,-0.13
2021-08-19 13:54:41.160,-0.07,-0.12
2021-08-19 13:54:41.164,-0.09,-0.11
2021-08-19 13:54:41.168,-0.045,-0.14
2021-08-19 13:54:41.172,-0.075,-0.155
2021-08-19 13:54:41.176,-0.095,-0.175
2021-08-19 13:54:41.180,-0.08,-0.165
2021-08-19 13:54:41.184,-0.115,-0.175
2021-08-19 13:54:41.188,-0.125,-0.18
2021-08-19 13:54:41.192,-0.135,-0.17
2021-08-19 13:54:41.196,-0.14,-0.19
2021-08-19 13:54:41.200,-0.125,-0.22
2021-08-19 13:54:41.204,-0.13,-0.2
2021-08-19 13:54:41.208,-0.125,-0.205
2021-08-19 13:54:41.212,-0.145,-0.195
2021-08-19 13:54:41.216,-0.15,-0.21
2021-08-19 13:54:41.220,-0.145,-0.23
2021-08-19 13:54:41.224,-0.17,-0.23
2021-08-19 13:54:41.228,-0.185,-0.245
2021-08-19 13:54:41.232,-0.18,-0.26
2021-08-19 13:54:41.236,-0.175,-0.265
2021-08-19 13:54:41.240,-0.19,-0.23
2021-08-19 13:54:41.244,-0.2,-0.225
2021-08-19 13:54:41.248,-0.19,-0.24
2021-08-19 13:54:41.252,-0.185,-0.24
2021-08-19 13:54:41.256,-0.155,-0.24
2021-08-19 13:54:41.260,-0.18,-0.24
2021-08-19 13:54:41.264,-0.2,-0.255
2021-08-19 13:54:41.268,-0.215,-0.265
2021-08-19 13:54:41.272,-0.21,-0.255
2021-08-19 13:54:41.276,-0.22,-0.255
2021-08-19 13:54:41.280,-0.225,-0.26
2021-08-19 13:54:41.284,-0.22,-0.26
2021-08-19 13:54:41.288,-0.2,-0.25
2021-08-19 13:54:41.292,-0.23,-0.255
2021-08-19 13:54:41.296,-0.21,-0.27
2021-08-19 13:54:41.300,-0.18,-0.275
2021-08-19 13:54:41.304,-0.205,-0.3
2021-08-19 13:54:41.308,-0.205,-0.3
2021-08-19 13:54:41.312,-0.255,-0.295
2021-08-19 13:54:41.316,-0.23,-0.285
2021-08-19 13:54:41.320,-0.245,-0.26
2021-08-19 13:54:41.324,-0.215,-0.255
2021-08-19 13:54:41.328,-0.175,-0.26
2021-08-19 13:54:41.332,-0.2,-0.275
2021-08-19 13:54:41.336,-0.19,-0.265
2021-08-19 13:54:41.340,-0.21,-0.285
2021-08-19 13:54:41.344,-0.22,-0.29
2021-08-19 13:54:41.348,-0.24,-0.285
2021-08-19 13:54:41.352,-0.2,-0.265
2021-08-19 13:54:41.356,-0.225,-0.29
2021-08-19 13:54:41.360,-0.23,-0.265
2021-08-19 13:54:41.364,-0.21,-0.255
2021-08-19 13:54:41.368,-0.21,-0.24
2021-08-19 13:54:41.372,-0.19,-0.245
2021-08-19 13:54:41.376,-0.2,-0.28
2021-08-19 13:54:41.380,-0.19,-0.28
2021-08-19 13:54:41.384,-0.2,-0.27
2021-08-19 13:54:41.388,-0.2,-0.275
2021-08-19 13:54:41.392,-0.2,-0.295
2021-08-19 13:54:41.396,-0.2,-0.285
2021-08-19 13:54:41.400,-0.215,-0.27
2021-08-19 13:54:41.404,-0.19,-0.26
2021-08-19 13:54:41.408,-0.19,-0.25
2021-08-19 13:54:41.412,-0.175,-0.26
2021-08-19 13:54:41.416,-0.175,-0.265
2021-08-19 13:54:41.420,-0.175,-0.265
2021-08-19 13:54:41.424,-0.195,-0.265
2021-08-19 13:54:41.428,-0.19,-0.27
2021-08-19 13:54:41.432,-0.21,-0.29
2021-08-19 13:54:41.436,-0.19,-0.27
2021-08-19 13:54:41.440,-0.19,-0.265
2021-08-19 13:54:41.444,-0.175,-0.255
2021-08-19 13:54:41.448,-0.175,-0.255
2021-08-19 13:54:41.452,-0.165,-0.23
2021-08-19 13:54:41.456,-0.165,-0.25
2021-08-19 13:54:41.460,-0.16,-0.24
2021-08-19 13:54:41.464,-0.175,-0.25
2021-08-19 13:54:41.468,-0.205,-0.27
2021-08-19 13:54:41.472,-0.18,-0.265
2021-08-19 13:54:41.476,-0.19,-0.22
2021-08-19 13:54:41.480,-0.195,-0.25
2021-08-19 13:54:41.484,-0.16,-0.25
2021-08-19 13:54:41.488,-0.16,-0.24
2021-08-19 13:54:41.492,-0.15,-0.235
2021-08-19 13:54:41.496,-0.16,-0.235
2021-08-19 13:54:41.500,-0.135,-0.24
2021-08-19 13:54:41.504,-0.145,-0.215
2021-08-19 13:54:41.508,-0.17,-0.255
2021-08-19 13:54:41.512,-0.155,-0.24
2021-08-19 13:54:41.516,-0.175,-0.29
2021-08-19 13:54:41.520,-0.165,-0.255
2021-08-19 13:54:41.524,-0.155,-0.23
2021-08-19 13:54:41.528,-0.13,-0.255
2021-08-19 13:54:41.532,-0.135,-0.245
2021-08-19 13:54:41.536,-0.15,-0.26
2021-08-19 13:54:41.540,-0.13,-0.255
2021-08-19 13:54:41.544,-0.175,-0.255
2021-08-19 13:54:41.548,-0.18,-0.22
2021-08-19 13:54:41.552,-0.16,-0.23
2021-08-19 13:54:41.556,-0.175,-0.24
2021-08-19 13:54:41.560,-0.175,-0.23
2021-08-19 13:54:41.564,-0.17,-0.23
2021-08-19 13:54:41.568,-0.155,-0.25
2021-08-19 13:54:41.572,-0.16,-0.23
2021-08-19 13:54:41.576,-0.155,-0.23
2021-08-19 13:54:41.580,-0.165,-0.25
2021-08-19 13:54:41.584,-0.16,-0.26
2021-08-19 13:54:41.588,-0.165,-0.255
2021-08-19 13:54:41.592,-0.16,-0.255
2021-08-19 13:54:41.596,-0.18,-0.275
2021-08-19 13:54:41.600,-0.2,-0.25
2021-08-19 13:54:41.604,-0.18,-0.225
2021-08-19 13:54:41.608,-0.15,-0.2
2021-08-19 13:54:41.612,-0.145,-0.215
2021-08-19 13:54:41.616,-0.145,-0.205
2021-08-19 13:54:41.620,-0.14,-0.21
2021-08-19 13:54:41.624,-0.16,-0.235
2021-08-19 13:54:41.628,-0.14,-0.2
2021-08-19 13:54:41.632,-0.145,-0.175
2021-08-19 13:54:41.636,-0.13,-0.165
2021-08-19 13:54:41.640,-0.115,-0.145
2021-08-19 13:54:41.644,-0.11,-0.155
2021-08-19 13:54:41.648,-0.065,-0.145
2021-08-19 13:54:41.652,-0.055,-0.135
2021-08-19 13:54:41.656,-0.055,-0.135
2021-08-19 13:54:41.660,-0.055,-0.11
2021-08-19 13:54:41.664,-0.08,-0.065
2021-08-19 13:54:41.668,-0.115,-0.03
2021-08-19 13:54:41.672,-0.135,-0.06
2021-08-19 13:54:41.676,-0.13,-0.065
2021-08-19 13:54:41.680,-0.15,-0.06
2021-08-19 13:54:41.684,-0.145,-0.06
2021-08-19 13:54:41.688,-0.16,-0.085
2021-08-19 13:54:41.692,-0.185,-0.09
2021-08-19 13:54:41.696,-0.195,-0.14
2021-08-19 13:54:41.700,-0.19,-0.145
2021-08-19 13:54:41.704,-0.195,-0.185
2021-08-19 13:54:41.708,-0.185,-0.215
2021-08-19 13:54:41.712,-0.195,-0.23
2021-08-19 13:54:41.716,-0.21,-0.27
2021-08-19 13:54:41.720,-0.23,-0.265
2021-08-19 13:54:41.724,-0.2,-0.22
2021-08-19 13:54:41.728,-0.19,-0.24
2021-08-19 13:54:41.732,-0.195,-0.25
2021-08-19 13:54:41.736,-0.2,-0.26
2021-08-19 13:54:41.740,-0.2,-0.245
2021-08-19 13:54:41.744,-0.225,-0.265
2021-08-19 13:54:41.748,-0.215,-0.26
2021-08-19 13:54:41.752,-0.215,-0.265
2021-08-19 13:54:41.756,-0.22,-0.24
2021-08-19 13:54:41.760,-0.235,-0.255
2021-08-19 13:54:41.764,-0.21,-0.25
2021-08-19 13:54:41.768,-0.195,-0.245
2021-08-19 13:54:41.772,-0.165,-0.235
2021-08-19 13:54:41.776,-0.155,-0.23
2021-08-19 13:54:41.780,-0.16,-0.24
2021-08-19 13:54:41.784,-0.105,-0.265
2021-08-19 13:54:41.788,0.0,-0.275
2021-08-19 13:54:41.792,0.105,-0.215
2021-08-19 13:54:41.796,0.21,-0.095
2021-08-19 13:54:41.800,0.42,0.115
2021-08-19 13:54:41.804,0.58,0.465
2021-08-19 13:54:41.808,0.33,0.695
2021-08-19 13:54:41.812,-0.085,0.7
2021-08-19 13:54:41.816,-0.615,0.51
2021-08-19 13:54:41.820,-1.055,0.265
2021-08-19 13:54:41.824,-1.345,0.005
2021-08-19 13:54:41.828,-1.57,-0.07
2021-08-19 13:54:41.832,-1.61,0.005
2021-08-19 13:54:41.836,-1.345,0.075
2021-08-19 13:54:41.840,-0.995,0.065
2021-08-19 13:54:41.844,-0.75,-0.005
2021-08-19 13:54:41.848,-0.53,-0.075
2021-08-19 13:54:41.852,-0.41,-0.13
2021-08-19 13:54:41.856,-0.3,-0.19
2021-08-19 13:54:41.860,-0.245,-0.22
2021-08-19 13:54:41.864,-0.225,-0.215
2021-08-19 13:54:41.868,-0.2,-0.23
2021-08-19 13:54:41.872,-0.19,-0.25
2021-08-19 13:54:41.876,-0.185,-0.28
2021-08-19 13:54:41.880,-0.175,-0.24
2021-08-19 13:54:41.884,-0.15,-0.22
2021-08-19 13:54:41.888,-0.14,-0.2
2021-08-19 13:54:41.892,-0.12,-0.23
2021-08-19 13:54:41.896,-0.12,-0.23
2021-08-19 13:54:41.900,-0.12,-0.25
2021-08-19 13:54:41.904,-0.14,-0.26
2021-08-19 13:54:41.908,-0.13,-0.25
2021-08-19 13:54:41.912,-0.125,-0.25
2021-08-19 13:54:41.916,-0.14,-0.24
2021-08-19 13:54:41.920,-0.12,-0.22
2021-08-19 13:54:41.924,-0.11,-0.23
2021-08-19 13:54:41.928,-0.09,-0.235
2021-08-19 13:54:41.932,-0.095,-0.215
2021-08-19 13:54:41.936,-0.09,-0.24
2021-08-19 13:54:41.940,-0.08,-0.225
2021-08-19 13:54:41.944,-0.09,-0.235
2021-08-19 13:54:41.948,-0.09,-0.23
2021-08-19 13:54:41.952,-0.085,-0.24
2021-08-19 13:54:41.956,-0.115,-0.235
2021-08-19 13:54:41.960,-0.11,-0.23
2021-08-19 13:54:41.964,-0.1,-0.21
2021-08-19 13:54:41.968,-0.09,-0.17
2021-08-19 13:54:41.972,-0.06,-0.2
2021-08-19 13:54:41.976,-0.035,-0.24
2021-08-19 13:54:41.980,-0.04,-0.245
2021-08-19 13:54:41.984,-0.06,-0.235
2021-08-19 13:54:41.988,-0.08,-0.245
2021-08-19 13:54:41.992,-0.085,-0.24
2021-08-19 13:54:41.996,-0.09,-0.195
2021-08-19 13:54:42.000,-0.045,-0.16
2021-08-19 13:54:42.004,-0.05,-0.19
2021-08-19 13:54:42.008,-0.045,-0.175
2021-08-19 13:54:42.012,-0.005,-0.165
2021-08-19 13:54:42.016,0.0,-0.145
2021-08-19 13:54:42.020,-0.03,-0.15
2021-08-19 13:54:42.024,-0.035,-0.17
2021-08-19 13:54:42.028,-0.05,-0.17
2021-08-19 13:54:42.032,-0.045,-0.2
2021-08-19 13:54:42.036,-0.05,-0.165
2021-08-19 13:54:42.040,-0.025,-0.13
2021-08-19 13:54:42.044,-0.045,-0.12
2021-08-19 13:54:42.048,-0.005,-0.09
2021-08-19 13:54:42.052,0.0,-0.08
2021-08-19 13:54:42.056,0.0,-0.095
2021-08-19 13:54:42.060,-0.02,-0.115
2021-08-19 13:54:42.064,-0.02,-0.105
2021-08-19 13:54:42.068,-0.05,-0.13
2021-08-19 13:54:42.072,-0.045,-0.13
2021-08-19 13:54:42.076,-0.035,-0.13
2021-08-19 13:54:42.080,-0.04,-0.115
2021-08-19 13:54:42.084,-0.04,-0.115
2021-08-19 13:54:42.088,-0.01,-0.085
2021-08-19 13:54:42.092,-0.035,-0.095
2021-08-19 13:54:42.096,0.0,-0.07
2021-08-19 13:54:42.100,-0.005,-0.02
2021-08-19 13:54:42.104,-0.005,-0.03
2021-08-19 13:54:42.108,0.01,0.0
2021-08-19 13:54:42.112,0.01,0.015
2021-08-19 13:54:42.116,0.02,0.0
2021-08-19 13:54:42.120,0.035,0.035
2021-08-19 13:54:42.124,0.035,0.09
2021-08-19 13:54:42.128,0.065,0.1
2021-08-19 13:54:42.132,0.075,0.095
2021-08-19 13:54:42.136,0.095,0.115
2021-08-19 13:54:42.140,0.105,0.115
2021-08-19 13:54:42.144,0.14,0.11
2021-08-19 13:54:42.148,0.14,0.09
2021-08-19 13:54:42.152,0.155,0.015
2021-08-19 13:54:42.156,0.155,-0.03
2021-08-19 13:54:42.160,0.145,-0.03
2021-08-19 13:54:42.164,0.105,-0.05
2021-08-19 13:54:42.168,0.115,-0.07
2021-08-19 13:54:42.172,0.12,-0.065
2021-08-19 13:54:42.176,0.115,-0.075
2021-08-19 13:54:42.180,0.12,-0.12
2021-08-19 13:54:42.184,0.095,-0.145
2021-08-19 13:54:42.188,0.07,-0.135
2021-08-19 13:54:42.192,0.04,-0.165
2021-08-19 13:54:42.196,0.02,-0.165
2021-08-19 13:54:42.200,0.01,-0.15
2021-08-19 13:54:42.204,-0.005,-0.155
2021-08-19 13:54:42.208,0.01,-0.18
2021-08-19 13:54:42.212,-0.01,-0.175
2021-08-19 13:54:42.216,-0.02,-0.185
2021-08-19 13:54:42.220,-0.04,-0.19
2021-08-19 13:54:42.224,-0.05,-0.185
2021-08-19 13:54:42.228,-0.05,-0.2
2021-08-19 13:54:42.232,-0.075,-0.195
2021-08-19 13:54:42.236,-0.095,-0.2
2021-08-19 13:54:42.240,-0.095,-0.195
2021-08-19 13:54:42.244,-0.08,-0.185
2021-08-19 13:54:42.248,-0.07,-0.165
2021-08-19 13:54:42.252,-0.055,-0.19
2021-08-19 13:54:42.256,-0.065,-0.225
2021-08-19 13:54:42.260,-0.07,-0.235
2021-08-19 13:54:42.264,-0.045,-0.245
2021-08-19 13:54:42.268,-0.055,-0.24
2021-08-19 13:54:42.272,-0.06,-0.23
2021-08-19 13:54:42.276,-0.09,-0.205
2021-08-19 13:54:42.280,-0.095,-0.22
2021-08-19 13:54:42.284,-0.065,-0.22
2021-08-19 13:54:42.288,-0.095,-0.185
2021-08-19 13:54:42.292,-0.095,-0.21
2021-08-19 13:54:42.296,-0.08,-0.225
2021-08-19 13:54:42.300,-0.065,-0.24
2021-08-19 13:54:42.304,-0.07,-0.225
2021-08-19 13:54:42.308,-0.06,-0.255
2021-08-19 13:54:42.312,-0.085,-0.24
2021-08-19 13:54:42.316,-0.105,-0.265
2021-08-19 13:54:42.320,-0.115,-0.265
2021-08-19 13:54:42.324,-0.095,-0.24
2021-08-19 13:54:42.328,-0.1,-0.21
2021-08-19 13:54:42.332,-0.1,-0.21
2021-08-19 13:54:42.336,-0.085,-0.215
2021-08-19 13:54:42.340,-0.095,-0.245
2021-08-19 13:54:42.344,-0.07,-0.26
2021-08-19 13:54:42.348,-0.05,-0.25
2021-08-19 13:54:42.352,-0.05,-0.24
2021-08-19 13:54:42.356,-0.045,-0.29
2021-08-19 13:54:42.360,0.015,-0.33
2021-08-19 13:54:42.364,0.15,-0.32
2021-08-19 13:54:42.368,0.23,-0.165
2021-08-19 13:54:42.372,0.42,0.11
2021-08-19 13:54:42.376,0.435,0.415
2021-08-19 13:54:42.380,0.045,0.625
2021-08-19 13:54:42.384,-0.56,0.66
2021-08-19 13:54:42.388,-1.125,0.435
2021-08-19 13:54:42.392,-1.485,0.155
2021-08-19 13:54:42.396,-1.725,-0.01
2021-08-19 13:54:42.400,-1.87,-0.01
2021-08-19 13:54:42.404,-1.76,0.105
2021-08-19 13:54:42.408,-1.315,0.14
2021-08-19 13:54:42.412,-0.885,0.07
2021-08-19 13:54:42.416,-0.6,-0.035
2021-08-19 13:54:42.420,-0.375,-0.105
2021-08-19 13:54:42.424,-0.235,-0.175
2021-08-19 13:54:42.428,-0.14,-0.24
2021-08-19 13:54:42.432,-0.105,-0.23
2021-08-19 13:54:42.436,-0.095,-0.22
2021-08-19 13:54:42.440,-0.08,-0.21
2021-08-19 13:54:42.444,-0.07,-0.255
2021-08-19 13:54:42.448,-0.04,-0.275
2021-08-19 13:54:42.452,-0.065,-0.235
2021-08-19 13:54:42.456,-0.055,-0.245
2021-08-19 13:54:42.460,-0.015,-0.23
2021-08-19 13:54:42.464,0.0,-0.235
2021-08-19 13:54:42.468,-0.01,-0.215
2021-08-19 13:54:42.472,-0.01,-0.25
2021-08-19 13:54:42.476,-0.01,-0.24
2021-08-19 13:54:42.480,-0.035,-0.245
2021-08-19 13:54:42.484,-0.005,-0.265
2021-08-19 13:54:42.488,-0.01,-0.25
2021-08-19 13:54:42.492,-0.005,-0.265
2021-08-19 13:54:42.496,-0.015,-0.24
2021-08-19 13:54:42.500,0.015,-0.195
2021-08-19 13:54:42.504,0.025,-0.2
2021-08-19 13:54:42.508,0.015,-0.21
2021-08-19 13:54:42.512,0.025,-0.22
2021-08-19 13:54:42.516,0.035,-0.23
2021-08-19 13:54:42.520,0.03,-0.225
2021-08-19 13:54:42.524,0.015,-0.255
2021-08-19 13:54:42.528,0.0,-0.23
2021-08-19 13:54:42.532,0.01,-0.205
2021-08-19 13:54:42.536,0.035,-0.215
2021-08-19 13:54:42.540,0.03,-0.225
2021-08-19 13:54:42.544,0.03,-0.215
2021-08-19 13:54:42.548,0.08,-0.2
2021-08-19 13:54:42.552,0.06,-0.235
2021-08-19 13:54:42.556,0.055,-0.22
2021-08-19 13:54:42.560,0.05,-0.195
2021-08-19 13:54:42.564,0.035,-0.215
2021-08-19 13:54:42.568,0.04,-0.215
2021-08-19 13:54:42.572,0.05,-0.215
2021-08-19 13:54:42.576,0.02,-0.2
2021-08-19 13:54:42.580,0.05,-0.195
2021-08-19 13:54:42.584,0.075,-0.18
2021-08-19 13:54:42.588,0.05,-0.22
2021-08-19 13:54:42.592,0.055,-0.2
2021-08-19 13:54:42.596,0.055,-0.205
2021-08-19 13:54:42.600,0.055,-0.195
2021-08-19 13:54:42.604,0.035,-0.16
2021-08-19 13:54:42.608,0.035,-0.185
2021-08-19 13:54:42.612,0.055,-0.17
2021-08-19 13:54:42.616,0.04,-0.185
2021-08-19 13:54:42.620,0.04,-0.15
2021-08-19 13:54:42.624,0.075,-0.155
2021-08-19 13:54:42.628,0.045,-0.145
2021-08-19 13:54:42.632,0.045,-0.165
2021-08-19 13:54:42.636,0.03,-0.16
2021-08-19 13:54:42.640,0.035,-0.16
2021-08-19 13:54:42.644,0.035,-0.12
2021-08-19 13:54:42.648,0.02,-0.13
2021-08-19 13:54:42.652,0.01,-0.165
2021-08-19 13:54:42.656,0.015,-0.14
2021-08-19 13:54:42.660,0.0,-0.125
2021-08-19 13:54:42.664,0.02,-0.085
2021-08-19 13:54:42.668,0.05,-0.055
2021-08-19 13:54:42.672,0.05,-0.05
2021-08-19 13:54:42.676,0.025,-0.095
2021-08-19 13:54:42.680,0.03,-0.075
2021-08-19 13:54:42.684,0.035,-0.085
2021-08-19 13:54:42.688,0.025,-0.08
2021-08-19 13:54:42.692,0.035,-0.02
2021-08-19 13:54:42.696,0.03,-0.02
2021-08-19 13:54:42.700,-0.005,-0.075
2021-08-19 13:54:42.704,0.02,-0.065
2021-08-19 13:54:42.708,0.02,-0.075
2021-08-19 13:54:42.712,0.04,-0.09
2021-08-19 13:54:42.716,0.055,-0.1
2021-08-19 13:54:42.720,0.04,-0.085
2021-08-19 13:54:42.724,0.05,-0.08
2021-08-19 13:54:42.728,0.02,-0.065
2021-08-19 13:54:42.732,0.0,-0.06
2021-08-19 13:54:42.736,0.005,-0.085
2021-08-19 13:54:42.740,0.015,-0.09
2021-08-19 13:54:42.744,0.005,-0.085
2021-08-19 13:54:42.748,0.01,-0.095
2021-08-19 13:54:42.752,0.015,-0.115
2021-08-19 13:54:42.756,0.015,-0.115
2021-08-19 13:54:42.760,0.0,-0.115
2021-08-19 13:54:42.764,0.0,-0.12
2021-08-19 13:54:42.768,0.0,-0.125
2021-08-19 13:54:42.772,-0.025,-0.12
2021-08-19 13:54:42.776,-0.035,-0.115
2021-08-19 13:54:42.780,-0.02,-0.16
2021-08-19 13:54:42.784,-0.025,-0.16
2021-08-19 13:54:42.788,-0.025,-0.115
2021-08-19 13:54:42.792,-0.02,-0.11
2021-08-19 13:54:42.796,-0.015,-0.11
2021-08-19 13:54:42.800,-0.02,-0.13
2021-08-19 13:54:42.804,0.0,-0.115
2021-08-19 13:54:42.808,-0.01,-0.135
2021-08-19 13:54:42.812,-0.03,-0.14
2021-08-19 13:54:42.816,-0.04,-0.145
2021-08-19 13:54:42.820,-0.05,-0.165
2021-08-19 13:54:42.824,-0.045,-0.16
2021-08-19 13:54:42.828,-0.055,-0.145
2021-08-19 13:54:42.832,-0.055,-0.145
2021-08-19 13:54:42.836,-0.07,-0.145
2021-08-19 13:54:42.840,-0.045,-0.14
2021-08-19 13:54:42.844,-0.05,-0.14
2021-08-19 13:54:42.848,-0.03,-0.155
2021-08-19 13:54:42.852,-0.065,-0.155
2021-08-19 13:54:42.856,-0.08,-0.185
2021-08-19 13:54:42.860,-0.09,-0.18
2021-08-19 13:54:42.864,-0.08,-0.17
2021-08-19 13:54:42.868,-0.09,-0.195
2021-08-19 13:54:42.872,-0.08,-0.2
2021-08-19 13:54:42.876,-0.075,-0.19
2021-08-19 13:54:42.880,-0.07,-0.165
2021-08-19 13:54:42.884,-0.065,-0.175
2021-08-19 13:54:42.888,-0.05,-0.205
2021-08-19 13:54:42.892,-0.07,-0.19
2021-08-19 13:54:42.896,-0.09,-0.21
2021-08-19 13:54:42.900,-0.08,-0.2
2021-08-19 13:54:42.904,-0.08,-0.2
2021-08-19 13:54:42.908,-0.095,-0.21
2021-08-19 13:54:42.912,-0.115,-0.205
2021-08-19 13:54:42.916,-0.12,-0.195
2021-08-19 13:54:42.920,-0.095,-0.205
2021-08-19 13:54:42.924,-0.085,-0.215
2021-08-19 13:54:42.928,-0.06,-0.19
2021-08-19 13:54:42.932,-0.065,-0.21
2021-08-19 13:54:42.936,-0.085,-0.215
2021-08-19 13:54:42.940,-0.09,-0.265
2021-08-19 13:54:42.944,-0.115,-0.215
2021-08-19 13:54:42.948,-0.115,-0.21
2021-08-19 13:54:42.952,-0.115,-0.185
2021-08-19 13:54:42.956,-0.105,-0.195
2021-08-19 13:54:42.960,-0.085,-0.205
2021-08-19 13:54:42.964,-0.085,-0.185
2021-08-19 13:54:42.968,-0.06,-0.18
2021-08-19 13:54:42.972,-0.05,-0.195
2021-08-19 13:54:42.976,-0.06,-0.215
2021-08-19 13:54:42.980,-0.065,-0.22
2021-08-19 13:54:42.984,-0.11,-0.22
2021-08-19 13:54:42.988,-0.1,-0.2
2021-08-19 13:54:42.992,-0.07,-0.2
2021-08-19 13:54:42.996,-0.09,-0.22
2021-08-19 13:54:43.000,-0.085,-0.205
2021-08-19 13:54:43.004,-0.08,-0.205
2021-08-19 13:54:43.008,-0.08,-0.235
2021-08-19 13:54:43.012,-0.065,-0.22
2021-08-19 13:54:43.016,-0.06,-0.2
2021-08-19 13:54:43.020,-0.08,-0.195
2021-08-19 13:54:43.024,-0.055,-0.22
2021-08-19 13:54:43.028,-0.06,-0.235
2021-08-19 13:54:43.032,-0.07,-0.24
2021-08-19 13:54:43.036,-0.095,-0.225
2021-08-19 13:54:43.040,-0.075,-0.21
2021-08-19 13:54:43.044,-0.09,-0.21
2021-08-19 13:54:43.048,-0.075,-0.195
2021-08-19 13:54:43.052,-0.045,-0.195
2021-08-19 13:54:43.056,-0.045,-0.24
2021-08-19 13:54:43.060,-0.055,-0.24
2021-08-19 13:54:43.064,-0.045,-0.225
2021-08-19 13:54:43.068,-0.04,-0.23
2021-08-19 13:54:43.072,-0.055,-0.245
2021-08-19 13:54:43.076,-0.08,-0.23
2021-08-19 13:54:43.080,-0.085,-0.2
2021-08-19 13:54:43.084,-0.075,-0.2
2021-08-19 13:54:43.088,-0.07,-0.195
2021-08-19 13:54:43.092,-0.065,-0.22
2021-08-19 13:54:43.096,-0.05,-0.215
2021-08-19 13:54:43.100,-0.075,-0.21
2021-08-19 13:54:43.104,-0.065,-0.21
2021-08-19 13:54:43.108,-0.07,-0.23
2021-08-19 13:54:43.112,-0.075,-0.215
2021-08-19 13:54:43.116,-0.06,-0.21
2021-08-19 13:54:43.120,-0.055,-0.215
2021-08-19 13:54:43.124,-0.085,-0.225
2021-08-19 13:54:43.128,-0.08,-0.19
2021-08-19 13:54:43.132,-0.075,-0.18
2021-08-19 13:54:43.136,-0.05,-0.235
2021-08-19 13:54:43.140,-0.06,-0.225
2021-08-19 13:54:43.144,-0.025,-0.23
2021-08-19 13:54:43.148,-0.045,-0.225
2021-08-19 13:54:43.152,-0.06,-0.24
2021-08-19 13:54:43.156,-0.07,-0.215
2021-08-19 13:54:43.160,-0.065,-0.235
2021-08-19 13:54:43.164,-0.085,-0.245
2021-08-19 13:54:43.168,-0.095,-0.225
2021-08-19 13:54:43.172,-0.075,-0.195
2021-08-19 13:54:43.176,-0.055,-0.2
2021-08-19 13:54:43.180,-0.05,-0.195
2021-08-19 13:54:43.184,-0.055,-0.21
2021-08-19 13:54:43.188,-0.045,-0.225
2021-08-19 13:54:43.192,-0.045,-0.245
2021-08-19 13:54:43.196,-0.065,-0.24
2021-08-19 13:54:43.200,-0.075,-0.22
2021-08-19 13:54:43.204,-0.065,-0.24
2021-08-19 13:54:43.208,-0.08,-0.225
2021-08-19 13:54:43.212,-0.07,-0.22
2021-08-19 13:54:43.216,-0.08,-0.205
2021-08-19 13:54:43.220,-0.05,-0.205
2021-08-19 13:54:43.224,-0.055,-0.205
2021-08-19 13:54:43.228,-0.06,-0.2
2021-08-19 13:54:43.232,-0.05,-0.21
2021-08-19 13:54:43.236,-0.05,-0.25
2021-08-19 13:54:43.240,-0.075,-0.215
2021-08-19 13:54:43.244,-0.06,-0.225
2021-08-19 13:54:43.248,-0.07,-0.21
2021-08-19 13:54:43.252,-0.075,-0.21
2021-08-19 13:54:43.256,-0.075,-0.21
2021-08-19 13:54:43.260,-0.055,-0.21
2021-08-19 13:54:43.264,-0.05,-0.2
2021-08-19 13:54:43.268,-0.075,-0.185
2021-08-19 13:54:43.272,-0.075,-0.205
2021-08-19 13:54:43.276,-0.08,-0.19
2021-08-19 13:54:43.280,-0.075,-0.21
2021-08-19 13:54:43.284,-0.085,-0.21
2021-08-19 13:54:43.288,-0.1,-0.235
2021-08-19 13:54:43.292,-0.105,-0.23
2021-08-19 13:54:43.296,-0.09,-0.24
2021-08-19 13:54:43.300,-0.08,-0.225
2021-08-19 13:54:43.304,-0.09,-0.2
2021-08-19 13:54:43.308,-0.09,-0.215
2021-08-19 13:54:43.312,-0.08,-0.205
2021-08-19 13:54:43.316,-0.06,-0.2
2021-08-19 13:54:43.320,-0.085,-0.255
2021-08-19 13:54:43.324,-0.09,-0.225
2021-08-19 13:54:43.328,-0.07,-0.25
2021-08-19 13:54:43.332,-0.09,-0.22
2021-08-19 13:54:43.336,-0.105,-0.22
2021-08-19 13:54:43.340,-0.1,-0.225
2021-08-19 13:54:43.344,-0.085,-0.21
2021-08-19 13:54:43.348,-0.09,-0.18
2021-08-19 13:54:43.352,-0.08,-0.2
2021-08-19 13:54:43.356,-0.075,-0.23
2021-08-19 13:54:43.360,-0.06,-0.245
2021-08-19 13:54:43.364,-0.08,-0.235
2021-08-19 13:54:43.368,-0.1,-0.24
2021-08-19 13:54:43.372,-0.11,-0.23
2021-08-19 13:54:43.376,-0.105,-0.19
2021-08-19 13:54:43.380,-0.1,-0.185
2021-08-19 13:54:43.384,-0.1,-0.215
2021-08-19 13:54:43.388,-0.095,-0.2
2021-08-19 13:54:43.392,-0.095,-0.17
2021-08-19 13:54:43.396,-0.075,-0.145
2021-08-19 13:54:43.400,-0.045,-0.155
2021-08-19 13:54:43.404,-0.045,-0.16
2021-08-19 13:54:43.408,-0.05,-0.18
2021-08-19 13:54:43.412,-0.025,-0.16
2021-08-19 13:54:43.416,-0.02,-0.16
2021-08-19 13:54:43.420,-0.015,-0.15
2021-08-19 13:54:43.424,-0.02,-0.125
2021-08-19 13:54:43.428,0.025,-0.12
2021-08-19 13:54:43.432,0.045,-0.09
2021-08-19 13:54:43.436,0.075,-0.055
2021-08-19 13:54:43.440,0.09,-0.035
2021-08-19 13:54:43.444,0.07,-0.01
2021-08-19 13:54:43.448,0.065,-0.005
2021-08-19 13:54:43.452,0.05,-0.015
2021-08-19 13:54:43.456,0.02,-0.03
2021-08-19 13:54:43.460,0.015,-0.065
2021-08-19 13:54:43.464,-0.02,-0.075
2021-08-19 13:54:43.468,-0.02,-0.08
2021-08-19 13:54:43.472,-0.035,-0.085
2021-08-19 13:54:43.476,-0.05,-0.115
2021-08-19 13:54:43.480,-0.055,-0.115
2021-08-19 13:54:43.484,-0.015,-0.12
2021-08-19 13:54:43.488,-0.03,-0.16
2021-08-19 13:54:43.492,0.0,-0.19
2021-08-19 13:54:43.496,-0.05,-0.185
2021-08-19 13:54:43.500,-0.08,-0.215
2021-08-19 13:54:43.504,-0.075,-0.245
2021-08-19 13:54:43.508,-0.085,-0.23
2021-08-19 13:54:43.512,-0.075,-0.265
2021-08-19 13:54:43.516,-0.065,-0.23
2021-08-19 13:54:43.520,-0.05,-0.22
2021-08-19 13:54:43.524,-0.06,-0.215
2021-08-19 13:54:43.528,-0.05,-0.24
2021-08-19 13:54:43.532,-0.05,-0.255
2021-08-19 13:54:43.536,-0.04,-0.24
2021-08-19 13:54:43.540,-0.06,-0.265
2021-08-19 13:54:43.544,-0.075,-0.265
2021-08-19 13:54:43.548,-0.08,-0.245
2021-08-19 13:54:43.552,-0.075,-0.245
2021-08-19 13:54:43.556,-0.08,-0.26
2021-08-19 13:54:43.560,-0.075,-0.25
2021-08-19 13:54:43.564,-0.04,-0.215
2021-08-19 13:54:43.568,0.0,-0.24
2021-08-19 13:54:43.572,0.09,-0.235
2021-08-19 13:54:43.576,0.19,-0.25
2021-08-19 13:54:43.580,0.285,-0.235
2021-08-19 13:54:43.584,0.33,-0.105
2021-08-19 13:54:43.588,0.5,0.055
2021-08-19 13:54:43.592,0.67,0.32
2021-08-19 13:54:43.596,0.55,0.615
2021-08-19 13:54:43.600,0.15,0.715
2021-08-19 13:54:43.604,-0.32,0.615
2021-08-19 13:54:43.608,-0.8,0.365
2021-08-19 13:54:43.612,-1.115,0.14
2021-08-19 13:54:43.616,-1.37,-0.065
2021-08-19 13:54:43.620,-1.55,-0.065
2021-08-19 13:54:43.624,-1.495,0.05
2021-08-19 13:54:43.628,-1.185,0.085
2021-08-19 13:54:43.632,-0.835,0.045
2021-08-19 13:54:43.636,-0.595,-0.03
2021-08-19 13:54:43.640,-0.41,-0.105
2021-08-19 13:54:43.644,-0.305,-0.165
2021-08-19 13:54:43.648,-0.17,-0.195
2021-08-19 13:54:43.652,-0.085,-0.22
2021-08-19 13:54:43.656,-0.075,-0.225
2021-08-19 13:54:43.660,-0.055,-0.235
2021-08-19 13:54:43.664,-0.05,-0.285
2021-08-19 13:54:43.668,-0.055,-0.265
2021-08-19 13:54:43.672,-0.05,-0.26
2021-08-19 13:54:43.676,-0.055,-0.25
2021-08-19 13:54:43.680,-0.03,-0.225
2021-08-19 13:54:43.684,-0.01,-0.225
2021-08-19 13:54:43.688,-0.005,-0.21
2021-08-19 13:54:43.692,0.01,-0.21
2021-08-19 13:54:43.696,0.005,-0.22
2021-08-19 13:54:43.700,0.015,-0.22
2021-08-19 13:54:43.704,0.0,-0.25
2021-08-19 13:54:43.708,0.005,-0.26
2021-08-19 13:54:43.712,0.035,-0.28
2021-08-19 13:54:43.716,0.0,-0.27
2021-08-19 13:54:43.720,0.0,-0.275
2021-08-19 13:54:43.724,0.0,-0.255
2021-08-19 13:54:43.728,0.01,-0.26
2021-08-19 13:54:43.732,0.005,-0.24
2021-08-19 13:54:43.736,0.03,-0.225
2021-08-19 13:54:43.740,0.03,-0.225
2021-08-19 13:54:43.744,0.065,-0.215
2021-08-19 13:54:43.748,0.04,-0.25
2021-08-19 13:54:43.752,0.035,-0.25
2021-08-19 13:54:43.756,0.015,-0.265
2021-08-19 13:54:43.760,0.01,-0.24
2021-08-19 13:54:43.764,-0.005,-0.25
2021-08-19 13:54:43.768,0.005,-0.24
2021-08-19 13:54:43.772,0.005,-0.225
2021-08-19 13:54:43.776,0.0,-0.23
2021-08-19 13:54:43.780,0.03,-0.23
2021-08-19 13:54:43.784,0.06,-0.225
2021-08-19 13:54:43.788,0.06,-0.22
2021-08-19 13:54:43.792,0.03,-0.21
2021-08-19 13:54:43.796,0.035,-0.23
2021-08-19 13:54:43.800,0.02,-0.225
2021-08-19 13:54:43.804,0.015,-0.225
2021-08-19 13:54:43.808,0.02,-0.21
2021-08-19 13:54:43.812,0.045,-0.225
2021-08-19 13:54:43.816,0.06,-0.195
2021-08-19 13:54:43.820,0.04,-0.205
2021-08-19 13:54:43.824,0.045,-0.17
2021-08-19 13:54:43.828,0.07,-0.145
2021-08-19 13:54:43.832,0.065,-0.145
2021-08-19 13:54:43.836,0.045,-0.16
2021-08-19 13:54:43.840,0.055,-0.175
2021-08-19 13:54:43.844,0.06,-0.16
2021-08-19 13:54:43.848,0.04,-0.175
2021-08-19 13:54:43.852,0.03,-0.165
2021-08-19 13:54:43.856,0.05,-0.125
2021-08-19 13:54:43.860,0.04,-0.125
2021-08-19 13:54:43.864,0.065,-0.16
2021-08-19 13:54:43.868,0.045,-0.115
2021-08-19 13:54:43.872,0.06,-0.1
2021-08-19 13:54:43.876,0.055,-0.105
2021-08-19 13:54:43.880,0.04,-0.115
2021-08-19 13:54:43.884,0.025,-0.145
2021-08-19 13:54:43.888,0.01,-0.12
2021-08-19 13:54:43.892,-0.005,-0.09
2021-08-19 13:54:43.896,0.025,-0.08
2021-08-19 13:54:43.900,0.045,-0.065
2021-08-19 13:54:43.904,0.045,-0.035
2021-08-19 13:54:43.908,0.06,-0.005
2021-08-19 13:54:43.912,0.09,-0.015
2021-08-19 13:54:43.916,0.095,0.0
2021-08-19 13:54:43.920,0.105,0.025
2021-08-19 13:54:43.924,0.125,0.065
2021-08-19 13:54:43.928,0.12,0.065
2021-08-19 13:54:43.932,0.125,0.09
2021-08-19 13:54:43.936,0.135,0.07
2021-08-19 13:54:43.940,0.125,0.115
2021-08-19 13:54:43.944,0.145,0.13
2021-08-19 13:54:43.948,0.185,0.12
2021-08-19 13:54:43.952,0.24,0.115
2021-08-19 13:54:43.956,0.255,0.11
2021-08-19 13:54:43.960,0.26,0.07
2021-08-19 13:54:43.964,0.25,0.025
2021-08-19 13:54:43.968,0.24,-0.05
2021-08-19 13:54:43.972,0.225,-0.095
2021-08-19 13:54:43.976,0.22,-0.08
2021-08-19 13:54:43.980,0.185,-0.07
2021-08-19 13:54:43.984,0.19,-0.075
2021-08-19 13:54:43.988,0.185,-0.09
2021-08-19 13:54:43.992,0.18,-0.08
2021-08-19 13:54:43.996,0.185,-0.135
2021-08-19 13:54:44.000,0.155,-0.15
2021-08-19 13:54:44.004,0.13,-0.165
2021-08-19 13:54:44.008,0.095,-0.165
2021-08-19 13:54:44.012,0.045,-0.19
2021-08-19 13:54:44.016,0.055,-0.225
2021-08-19 13:54:44.020,0.035,-0.235
2021-08-19 13:54:44.024,0.02,-0.215
2021-08-19 13:54:44.028,0.0,-0.205
2021-08-19 13:54:44.032,0.02,-0.205
2021-08-19 13:54:44.036,0.03,-0.23
2021-08-19 13:54:44.040,0.005,-0.27
2021-08-19 13:54:44.044,0.0,-0.25
2021-08-19 13:54:44.048,-0.01,-0.24
2021-08-19 13:54:44.052,-0.05,-0.275
2021-08-19 13:54:44.056,-0.03,-0.28
2021-08-19 13:54:44.060,-0.06,-0.265
2021-08-19 13:54:44.064,-0.06,-0.25
2021-08-19 13:54:44.068,-0.055,-0.23
2021-08-19 13:54:44.072,-0.02,-0.24
2021-08-19 13:54:44.076,-0.05,-0.265
2021-08-19 13:54:44.080,-0.045,-0.255
2021-08-19 13:54:44.084,-0.055,-0.27
2021-08-19 13:54:44.088,-0.06,-0.295
2021-08-19 13:54:44.092,-0.075,-0.305
2021-08-19 13:54:44.096,-0.12,-0.3
2021-08-19 13:54:44.100,-0.1,-0.28
2021-08-19 13:54:44.104,-0.125,-0.275
2021-08-19 13:54:44.108,-0.11,-0.265
2021-08-19 13:54:44.112,-0.115,-0.28
2021-08-19 13:54:44.116,-0.09,-0.275
2021-08-19 13:54:44.120,-0.075,-0.29
2021-08-19 13:54:44.124,-0.085,-0.29
2021-08-19 13:54:44.128,-0.1,-0.32
2021-08-19 13:54:44.132,-0.115,-0.335
2021-08-19 13:54:44.136,-0.125,-0.33
2021-08-19 13:54:44.140,-0.13,-0.325
2021-08-19 13:54:44.144,-0.135,-0.32
2021-08-19 13:54:44.148,-0.155,-0.33
2021-08-19 13:54:44.152,-0.14,-0.305
2021-08-19 13:54:44.156,-0.12,-0.33
2021-08-19 13:54:44.160,-0.08,-0.32
2021-08-19 13:54:44.164,-0.095,-0.3
2021-08-19 13:54:44.168,-0.11,-0.3
2021-08-19 13:54:44.172,-0.12,-0.285
2021-08-19 13:54:44.176,-0.125,-0.295
2021-08-19 13:54:44.180,-0.155,-0.295
2021-08-19 13:54:44.184,-0.04,-0.255
2021-08-19 13:54:44.188,0.12,-0.14
2021-08-19 13:54:44.192,0.105,0.015
2021-08-19 13:54:44.196,-0.285,0.215
2021-08-19 13:54:44.200,-0.92,0.385
2021-08-19 13:54:44.204,-1.735,0.495
2021-08-19 13:54:44.256,-1.935,-0.09
2021-08-19 13:54:44.260,-1.795,-0.14
2021-08-19 13:54:44.264,-1.6,-0.095
2021-08-19 13:54:44.268,-1.395,-0.04
2021-08-19 13:54:44.272,-1.135,-0.04
2021-08-19 13:54:44.276,-0.935,-0.095
2021-08-19 13:54:44.280,-0.775,-0.13
2021-08-19 13:54:44.284,-0.59,-0.18
2021-08-19 13:54:44.288,-0.425,-0.22
2021-08-19 13:54:44.292,-0.29,-0.225
2021-08-19 13:54:44.296,-0.155,-0.3
2021-08-19 13:54:44.300,-0.04,-0.36
2021-08-19 13:54:44.304,0.05,-0.385
2021-08-19 13:54:44.308,0.14,-0.4
2021-08-19 13:54:44.312,0.2,-0.42
2021-08-19 13:54:44.316,0.255,-0.45
2021-08-19 13:54:44.320,0.255,-0.43
2021-08-19 13:54:44.324,0.27,-0.42
2021-08-19 13:54:44.328,0.34,-0.405
2021-08-19 13:54:44.332,0.36,-0.425
2021-08-19 13:54:44.336,0.385,-0.44
2021-08-19 13:54:44.340,0.38,-0.445
2021-08-19 13:54:44.344,0.39,-0.465
2021-08-19 13:54:44.348,0.395,-0.455
2021-08-19 13:54:44.352,0.405,-0.465
2021-08-19 13:54:44.356,0.43,-0.435
2021-08-19 13:54:44.360,0.445,-0.43
2021-08-19 13:54:44.364,0.46,-0.4
2021-08-19 13:54:44.368,0.465,-0.44
2021-08-19 13:54:44.372,0.49,-0.44
2021-08-19 13:54:44.376,0.505,-0.425
2021-08-19 13:54:44.380,0.53,-0.425
2021-08-19 13:54:44.384,0.56,-0.445
2021-08-19 13:54:44.388,0.56,-0.425
2021-08-19 13:54:44.392,0.575,-0.425
2021-08-19 13:54:44.396,0.585,-0.4
2021-08-19 13:54:44.400,0.64,-0.435
2021-08-19 13:54:44.404,0.635,-0.395
2021-08-19 13:54:44.408,0.675,-0.4
2021-08-19 13:54:44.412,0.72,-0.415
2021-08-19 13:54:44.416,0.725,-0.42
2021-08-19 13:54:44.420,0.76,-0.435
2021-08-19 13:54:44.424,0.78,-0.43
2021-08-19 13:54:44.428,0.795,-0.45
2021-08-19 13:54:44.432,0.81,-0.44
2021-08-19 13:54:44.436,0.83,-0.42
2021-08-19 13:54:44.440,0.87,-0.4
2021-08-19 13:54:44.444,0.92,-0.4
2021-08-19 13:54:44.448,0.935,-0.4
2021-08-19 13:54:44.452,0.985,-0.405
2021-08-19 13:54:44.456,1.005,-0.415
2021-08-19 13:54:44.460,1.025,-0.41
2021-08-19 13:54:44.464,1.03,-0.395
2021-08-19 13:54:44.468,1.065,-0.425
2021-08-19 13:54:44.472,1.075,-0.425
2021-08-19 13:54:44.476,1.1,-0.405
2021-08-19 13:54:44.480,1.12,-0.41
2021-08-19 13:54:44.484,1.14,-0.4
2021-08-19 13:54:44.488,1.155,-0.38
2021-08-19 13:54:44.492,1.185,-0.365
2021-08-19 13:54:44.496,1.22,-0.33
2021-08-19 13:54:44.500,1.195,-0.345
2021-08-19 13:54:44.504,1.2,-0.305
2021-08-19 13:54:44.508,1.16,-0.305
2021-08-19 13:54:44.512,1.135,-0.32
2021-08-19 13:54:44.516,1.09,-0.29
2021-08-19 13:54:44.520,1.05,-0.285
2021-08-19 13:54:44.524,1.015,-0.265
2021-08-19 13:54:44.528,0.985,-0.22
2021-08-19 13:54:44.532,0.93,-0.215
2021-08-19 13:54:44.536,0.875,-0.185
2021-08-19 13:54:44.540,0.83,-0.185
2021-08-19 13:54:44.544,0.73,-0.155
2021-08-19 13:54:44.548,0.675,-0.185
2021-08-19 13:54:44.552,0.605,-0.16
2021-08-19 13:54:44.556,0.5,-0.14
2021-08-19 13:54:44.560,0.455,-0.15
2021-08-19 13:54:44.564,0.425,-0.11
2021-08-19 13:54:44.568,0.385,-0.115
2021-08-19 13:54:44.572,0.355,-0.105
2021-08-19 13:54:44.576,0.295,-0.08
2021-08-19 13:54:44.580,0.275,-0.115
2021-08-19 13:54:44.584,0.23,-0.11
2021-08-19 13:54:44.588,0.22,-0.14
2021-08-19 13:54:44.592,0.145,-0.155
2021-08-19 13:54:44.596,0.14,-0.17
2021-08-19 13:54:44.600,0.125,-0.175
2021-08-19 13:54:44.604,0.115,-0.195
2021-08-19 13:54:44.608,0.095,-0.19
2021-08-19 13:54:44.612,0.115,-0.17
2021-08-19 13:54:44.616,0.1,-0.17
2021-08-19 13:54:44.620,0.11,-0.19
2021-08-19 13:54:44.624,0.09,-0.22
2021-08-19 13:54:44.628,0.075,-0.22
2021-08-19 13:54:44.632,0.055,-0.245
2021-08-19 13:54:44.636,0.055,-0.255
2021-08-19 13:54:44.640,0.05,-0.235
2021-08-19 13:54:44.644,0.035,-0.245
2021-08-19 13:54:44.648,0.02,-0.255
2021-08-19 13:54:44.652,0.05,-0.255
2021-08-19 13:54:44.656,0.055,-0.26
2021-08-19 13:54:44.660,0.06,-0.235
2021-08-19 13:54:44.664,0.04,-0.22
2021-08-19 13:54:44.668,0.03,-0.24
2021-08-19 13:54:44.672,0.02,-0.265
2021-08-19 13:54:44.676,0.01,-0.25
2021-08-19 13:54:44.680,-0.005,-0.255
2021-08-19 13:54:44.684,-0.005,-0.27
2021-08-19 13:54:44.688,-0.015,-0.255
2021-08-19 13:54:44.692,-0.01,-0.26
2021-08-19 13:54:44.696,-0.01,-0.285
2021-08-19 13:54:44.700,-0.03,-0.29
2021-08-19 13:54:44.704,-0.015,-0.31
2021-08-19 13:54:44.708,-0.005,-0.285
2021-08-19 13:54:44.712,-0.035,-0.285
2021-08-19 13:54:44.716,-0.035,-0.3
2021-08-19 13:54:44.720,-0.035,-0.285
2021-08-19 13:54:44.724,-0.045,-0.275
2021-08-19 13:54:44.728,-0.04,-0.28
2021-08-19 13:54:44.732,-0.04,-0.29
2021-08-19 13:54:44.736,-0.045,-0.29
2021-08-19 13:54:44.740,-0.03,-0.305
2021-08-19 13:54:44.744,-0.035,-0.285
2021-08-19 13:54:44.748,-0.045,-0.28
2021-08-19 13:54:44.752,-0.05,-0.29
2021-08-19 13:54:44.756,-0.05,-0.295
2021-08-19 13:54:44.760,-0.06,-0.3
2021-08-19 13:54:44.764,-0.08,-0.305
2021-08-19 13:54:44.768,-0.08,-0.315
2021-08-19 13:54:44.772,-0.08,-0.31
2021-08-19 13:54:44.776,-0.04,-0.305
2021-08-19 13:54:44.780,-0.055,-0.3
2021-08-19 13:54:44.784,-0.06,-0.305
2021-08-19 13:54:44.788,-0.065,-0.295
2021-08-19 13:54:44.792,-0.08,-0.305
2021-08-19 13:54:44.796,-0.08,-0.315
2021-08-19 13:54:44.800,-0.11,-0.31
2021-08-19 13:54:44.804,-0.09,-0.315
2021-08-19 13:54:44.808,-0.08,-0.305
2021-08-19 13:54:44.812,-0.075,-0.29
2021-08-19 13:54:44.816,-0.06,-0.305
2021-08-19 13:54:44.820,-0.075,-0.29
2021-08-19 13:54:44.824,-0.05,-0.295
2021-08-19 13:54:44.828,-0.08,-0.295
2021-08-19 13:54:44.832,-0.07,-0.315
2021-08-19 13:54:44.836,-0.09,-0.315
2021-08-19 13:54:44.840,-0.11,-0.335
2021-08-19 13:54:44.844,-0.105,-0.33
2021-08-19 13:54:44.848,-0.09,-0.29
2021-08-19 13:54:44.852,-0.06,-0.31
2021-08-19 13:54:44.856,-0.06,-0.31
2021-08-19 13:54:44.860,-0.055,-0.29
2021-08-19 13:54:44.864,-0.07,-0.29
2021-08-19 13:54:44.868,-0.06,-0.31
2021-08-19 13:54:44.872,-0.06,-0.33
2021-08-19 13:54:44.876,-0.075,-0.32
2021-08-19 13:54:44.880,-0.105,-0.31
2021-08-19 13:54:44.884,-0.11,-0.32
2021-08-19 13:54:44.888,-0.09,-0.3
2021-08-19 13:54:44.892,-0.09,-0.3
2021-08-19 13:54:44.896,-0.08,-0.31
2021-08-19 13:54:44.900,-0.065,-0.315
2021-08-19 13:54:44.904,-0.065,-0.32
2021-08-19 13:54:44.908,-0.055,-0.325
2021-08-19 13:54:44.912,-0.075,-0.3
2021-08-19 13:54:44.916,-0.105,-0.29
2021-08-19 13:54:44.920,-0.105,-0.305
2021-08-19 13:54:44.924,-0.095,-0.295
2021-08-19 13:54:44.928,-0.08,-0.315
2021-08-19 13:54:44.932,-0.095,-0.32
2021-08-19 13:54:44.936,-0.09,-0.305
2021-08-19 13:54:44.940,-0.08,-0.29
2021-08-19 13:54:44.944,-0.08,-0.29
2021-08-19 13:54:44.948,-0.075,-0.28
2021-08-19 13:54:44.952,-0.08,-0.305
2021-08-19 13:54:44.956,-0.075,-0.34
2021-08-19 13:54:44.960,-0.08,-0.335
2021-08-19 13:54:44.964,-0.08,-0.355
2021-08-19 13:54:44.968,-0.09,-0.36
2021-08-19 13:54:44.972,-0.075,-0.33
2021-08-19 13:54:44.976,-0.06,-0.305
2021-08-19 13:54:44.980,-0.06,-0.3
2021-08-19 13:54:44.984,-0.07,-0.3
2021-08-19 13:54:44.988,-0.08,-0.305
2021-08-19 13:54:44.992,-0.08,-0.31
2021-08-19 13:54:44.996,-0.065,-0.335
2021-08-19 13:54:45.000,-0.1,-0.34
2021-08-19 13:54:45.004,-0.1,-0.33
2021-08-19 13:54:45.008,-0.095,-0.325
2021-08-19 13:54:45.012,-0.095,-0.305
2021-08-19 13:54:45.016,-0.09,-0.275
2021-08-19 13:54:45.020,-0.09,-0.26
2021-08-19 13:54:45.024,-0.065,-0.285
2021-08-19 13:54:45.028,-0.08,-0.31
2021-08-19 13:54:45.032,-0.09,-0.315
2021-08-19 13:54:45.036,-0.09,-0.315
2021-08-19 13:54:45.040,-0.1,-0.345
2021-08-19 13:54:45.044,-0.07,-0.34
2021-08-19 13:54:45.048,-0.065,-0.32
2021-08-19 13:54:45.052,-0.075,-0.32
2021-08-19 13:54:45.056,-0.075,-0.31
2021-08-19 13:54:45.060,-0.06,-0.26
2021-08-19 13:54:45.064,-0.07,-0.28
2021-08-19 13:54:45.068,-0.045,-0.28
2021-08-19 13:54:45.072,-0.08,-0.315
2021-08-19 13:54:45.076,-0.09,-0.325
2021-08-19 13:54:45.080,-0.105,-0.3
2021-08-19 13:54:45.084,-0.1,-0.31
2021-08-19 13:54:45.088,-0.08,-0.3
2021-08-19 13:54:45.092,-0.065,-0.285
2021-08-19 13:54:45.096,-0.07,-0.285
2021-08-19 13:54:45.100,-0.06,-0.29
2021-08-19 13:54:45.104,-0.055,-0.305
2021-08-19 13:54:45.108,-0.06,-0.295
2021-08-19 13:54:45.112,-0.05,-0.315
2021-08-19 13:54:45.116,-0.075,-0.32
2021-08-19 13:54:45.120,-0.09,-0.315
2021-08-19 13:54:45.124,-0.08,-0.315
2021-08-19 13:54:45.128,-0.07,-0.3
2021-08-19 13:54:45.132,-0.06,-0.29
2021-08-19 13:54:45.136,-0.09,-0.31
2021-08-19 13:54:45.140,-0.045,-0.31
2021-08-19 13:54:45.144,-0.06,-0.3
2021-08-19 13:54:45.148,-0.06,-0.3
2021-08-19 13:54:45.152,-0.06,-0.315
2021-08-19 13:54:45.156,-0.05,-0.3
2021-08-19 13:54:45.160,-0.09,-0.28
2021-08-19 13:54:45.164,-0.065,-0.245
2021-08-19 13:54:45.168,-0.08,-0.215
2021-08-19 13:54:45.172,-0.03,-0.215
2021-08-19 13:54:45.176,-0.015,-0.21
2021-08-19 13:54:45.180,0.02,-0.215
2021-08-19 13:54:45.184,0.02,-0.225
2021-08-19 13:54:45.188,0.02,-0.21
2021-08-19 13:54:45.192,0.025,-0.16
2021-08-19 13:54:45.196,0.025,-0.14
2021-08-19 13:54:45.200,0.03,-0.115
2021-08-19 13:54:45.204,0.01,-0.1
2021-08-19 13:54:45.208,-0.005,-0.1
2021-08-19 13:54:45.212,-0.02,-0.125
2021-08-19 13:54:45.216,-0.02,-0.145
2021-08-19 13:54:45.220,-0.015,-0.175
2021-08-19 13:54:45.224,-0.06,-0.17
2021-08-19 13:54:45.228,-0.065,-0.165
2021-08-19 13:54:45.232,-0.045,-0.205
2021-08-19 13:54:45.236,-0.055,-0.25
2021-08-19 13:54:45.240,-0.075,-0.32
2021-08-19 13:54:45.244,-0.085,-0.34
2021-08-19 13:54:45.248,-0.095,-0.37
2021-08-19 13:54:45.252,-0.085,-0.345
2021-08-19 13:54:45.256,-0.11,-0.34
2021-08-19 13:54:45.260,-0.095,-0.355
2021-08-19 13:54:45.264,-0.09,-0.345
2021-08-19 13:54:45.268,-0.085,-0.315
2021-08-19 13:54:45.272,-0.08,-0.32
2021-08-19 13:54:45.276,-0.09,-0.35
2021-08-19 13:54:45.280,-0.105,-0.33
2021-08-19 13:54:45.284,-0.115,-0.35
2021-08-19 13:54:45.288,-0.105,-0.37
2021-08-19 13:54:45.292,-0.115,-0.35
2021-08-19 13:54:45.296,-0.115,-0.33
2021-08-19 13:54:45.300,-0.085,-0.315
2021-08-19 13:54:45.304,-0.09,-0.315
2021-08-19 13:54:45.308,-0.09,-0.32
2021-08-19 13:54:45.312,-0.07,-0.32
2021-08-19 13:54:45.316,-0.025,-0.35
2021-08-19 13:54:45.320,0.08,-0.37
2021-08-19 13:54:45.324,0.205,-0.34
2021-08-19 13:54:45.328,0.3,-0.24
2021-08-19 13:54:45.332,0.41,-0.04
2021-08-19 13:54:45.336,0.625,0.27
2021-08-19 13:54:45.340,0.505,0.56
2021-08-19 13:54:45.344,0.115,0.66
2021-08-19 13:54:45.348,-0.38,0.565
2021-08-19 13:54:45.352,-0.87,0.32
2021-08-19 13:54:45.356,-1.18,0.015
2021-08-19 13:54:45.360,-1.44,-0.15
2021-08-19 13:54:45.364,-1.58,-0.09
2021-08-19 13:54:45.368,-1.38,0.035
2021-08-19 13:54:45.372,-1.0,0.01
2021-08-19 13:54:45.376,-0.715,-0.04
2021-08-19 13:54:45.380,-0.505,-0.16
2021-08-19 13:54:45.384,-0.34,-0.24
2021-08-19 13:54:45.388,-0.23,-0.265
2021-08-19 13:54:45.392,-0.165,-0.29
2021-08-19 13:54:45.396,-0.115,-0.29
2021-08-19 13:54:45.400,-0.12,-0.305
2021-08-19 13:54:45.404,-0.12,-0.325
2021-08-19 13:54:45.408,-0.095,-0.315
2021-08-19 13:54:45.412,-0.08,-0.31
2021-08-19 13:54:45.416,-0.065,-0.31
2021-08-19 13:54:45.420,-0.07,-0.33
2021-08-19 13:54:45.424,-0.025,-0.34
2021-08-19 13:54:45.428,-0.045,-0.315
2021-08-19 13:54:45.432,-0.03,-0.34
2021-08-19 13:54:45.436,-0.04,-0.35
2021-08-19 13:54:45.440,-0.04,-0.34
2021-08-19 13:54:45.444,-0.05,-0.315
2021-08-19 13:54:45.448,-0.04,-0.325
2021-08-19 13:54:45.452,-0.045,-0.315
2021-08-19 13:54:45.456,-0.03,-0.305
2021-08-19 13:54:45.460,-0.005,-0.315
2021-08-19 13:54:45.464,-0.01,-0.305
2021-08-19 13:54:45.468,-0.01,-0.31
2021-08-19 13:54:45.472,0.025,-0.34
2021-08-19 13:54:45.476,0.005,-0.325
2021-08-19 13:54:45.480,-0.01,-0.295
2021-08-19 13:54:45.484,-0.02,-0.29
2021-08-19 13:54:45.488,0.0,-0.29
2021-08-19 13:54:45.492,0.0,-0.295
2021-08-19 13:54:45.496,-0.01,-0.305
2021-08-19 13:54:45.500,0.0,-0.32
2021-08-19 13:54:45.504,0.02,-0.32
2021-08-19 13:54:45.508,0.02,-0.29
2021-08-19 13:54:45.512,0.045,-0.295
2021-08-19 13:54:45.516,0.025,-0.29
2021-08-19 13:54:45.520,0.01,-0.275
2021-08-19 13:54:45.524,0.015,-0.275
2021-08-19 13:54:45.528,0.03,-0.26
2021-08-19 13:54:45.532,0.02,-0.28
2021-08-19 13:54:45.536,0.025,-0.265
2021-08-19 13:54:45.540,0.04,-0.245
2021-08-19 13:54:45.544,0.06,-0.225
2021-08-19 13:54:45.548,0.05,-0.22
2021-08-19 13:54:45.552,0.06,-0.245
2021-08-19 13:54:45.556,0.06,-0.265
2021-08-19 13:54:45.560,0.055,-0.25
2021-08-19 13:54:45.564,0.03,-0.22
2021-08-19 13:54:45.568,0.035,-0.23
2021-08-19 13:54:45.572,0.05,-0.21
2021-08-19 13:54:45.576,0.05,-0.19
2021-08-19 13:54:45.580,0.075,-0.18
2021-08-19 13:54:45.584,0.07,-0.165
2021-08-19 13:54:45.588,0.07,-0.115
2021-08-19 13:54:45.592,0.045,-0.14
2021-08-19 13:54:45.596,0.04,-0.17
2021-08-19 13:54:45.600,0.03,-0.17
2021-08-19 13:54:45.604,0.02,-0.19
2021-08-19 13:54:45.608,-0.01,-0.18
2021-08-19 13:54:45.612,0.005,-0.14
2021-08-19 13:54:45.616,0.035,-0.14
2021-08-19 13:54:45.620,0.01,-0.11
2021-08-19 13:54:45.624,0.025,-0.095
2021-08-19 13:54:45.628,0.06,-0.075
2021-08-19 13:54:45.632,0.08,-0.055
2021-08-19 13:54:45.636,0.08,-0.04
2021-08-19 13:54:45.640,0.065,-0.03
2021-08-19 13:54:45.644,0.06,0.005
2021-08-19 13:54:45.648,0.065,0.02
2021-08-19 13:54:45.652,0.08,0.045
2021-08-19 13:54:45.656,0.075,0.06
2021-08-19 13:54:45.660,0.135,0.075
2021-08-19 13:54:45.664,0.14,0.105
2021-08-19 13:54:45.668,0.14,0.105
2021-08-19 13:54:45.672,0.15,0.15
2021-08-19 13:54:45.676,0.17,0.16
2021-08-19 13:54:45.680,0.195,0.15
2021-08-19 13:54:45.684,0.23,0.095
2021-08-19 13:54:45.688,0.235,0.015
2021-08-19 13:54:45.692,0.245,-0.035
2021-08-19 13:54:45.696,0.235,-0.035
2021-08-19 13:54:45.700,0.24,-0.06
2021-08-19 13:54:45.704,0.22,-0.015
2021-08-19 13:54:45.708,0.23,-0.045
2021-08-19 13:54:45.712,0.215,-0.08
2021-08-19 13:54:45.716,0.2,-0.13
2021-08-19 13:54:45.720,0.2,-0.16
2021-08-19 13:54:45.724,0.175,-0.135
2021-08-19 13:54:45.728,0.115,-0.15
2021-08-19 13:54:45.732,0.13,-0.185
2021-08-19 13:54:45.736,0.085,-0.155
2021-08-19 13:54:45.740,0.075,-0.155
2021-08-19 13:54:45.744,0.065,-0.185
2021-08-19 13:54:45.748,0.055,-0.22
2021-08-19 13:54:45.752,0.035,-0.2
2021-08-19 13:54:45.756,0.015,-0.2
2021-08-19 13:54:45.760,0.015,-0.225
2021-08-19 13:54:45.764,0.0,-0.22
2021-08-19 13:54:45.768,0.005,-0.225
2021-08-19 13:54:45.772,-0.015,-0.245
2021-08-19 13:54:45.776,-0.01,-0.235
2021-08-19 13:54:45.780,-0.01,-0.22
2021-08-19 13:54:45.784,0.01,-0.215
2021-08-19 13:54:45.788,0.015,-0.21
2021-08-19 13:54:45.792,0.02,-0.205
2021-08-19 13:54:45.796,0.015,-0.225
2021-08-19 13:54:45.800,-0.01,-0.245
2021-08-19 13:54:45.804,-0.02,-0.25
2021-08-19 13:54:45.808,-0.035,-0.24
2021-08-19 13:54:45.812,-0.07,-0.245
2021-08-19 13:54:45.816,-0.045,-0.265
2021-08-19 13:54:45.820,-0.065,-0.25
2021-08-19 13:54:45.824,-0.06,-0.255
2021-08-19 13:54:45.828,-0.03,-0.26
2021-08-19 13:54:45.832,-0.035,-0.215
2021-08-19 13:54:45.836,-0.04,-0.26
2021-08-19 13:54:45.840,-0.05,-0.26
2021-08-19 13:54:45.844,-0.075,-0.26
2021-08-19 13:54:45.848,-0.06,-0.255
2021-08-19 13:54:45.852,-0.065,-0.28
2021-08-19 13:54:45.856,-0.095,-0.29
2021-08-19 13:54:45.860,-0.085,-0.27
2021-08-19 13:54:45.864,-0.08,-0.265
2021-08-19 13:54:45.868,-0.045,-0.25
2021-08-19 13:54:45.872,-0.035,-0.26
2021-08-19 13:54:45.876,-0.065,-0.27
2021-08-19 13:54:45.880,-0.065,-0.29
2021-08-19 13:54:45.884,-0.045,-0.28
2021-08-19 13:54:45.888,-0.065,-0.275
2021-08-19 13:54:45.892,-0.055,-0.285
2021-08-19 13:54:45.896,-0.04,-0.295
2021-08-19 13:54:45.900,0.01,-0.37
2021-08-19 13:54:45.904,0.115,-0.37
2021-08-19 13:54:45.908,0.265,-0.275
2021-08-19 13:54:45.912,0.495,-0.07
2021-08-19 13:54:45.916,0.475,0.27
2021-08-19 13:54:45.920,0.09,0.61
2021-08-19 13:54:45.924,-0.5,0.845
2021-08-19 13:54:45.928,-1.1,0.845
2021-08-19 13:54:45.932,-1.405,0.595
2021-08-19 13:54:45.936,-1.6,0.26
2021-08-19 13:54:45.940,-1.805,0.075
2021-08-19 13:54:45.944,-1.885,0.095
2021-08-19 13:54:45.948,-1.585,0.145
2021-08-19 13:54:45.952,-1.09,0.115
2021-08-19 13:54:45.956,-0.69,0.015
2021-08-19 13:54:45.960,-0.48,-0.105
2021-08-19 13:54:45.964,-0.335,-0.225
2021-08-19 13:54:45.968,-0.205,-0.295
2021-08-19 13:54:45.972,-0.165,-0.325
2021-08-19 13:54:45.976,-0.13,-0.345
2021-08-19 13:54:45.980,-0.13,-0.32
2021-08-19 13:54:45.984,-0.105,-0.325
2021-08-19 13:54:45.988,-0.08,-0.315
2021-08-19 13:54:45.992,-0.06,-0.33
2021-08-19 13:54:45.996,-0.05,-0.36
2021-08-19 13:54:46.000,-0.065,-0.35
2021-08-19 13:54:46.004,-0.08,-0.37
2021-08-19 13:54:46.008,-0.04,-0.37
2021-08-19 13:54:46.012,-0.06,-0.4
2021-08-19 13:54:46.016,-0.08,-0.39
2021-08-19 13:54:46.020,-0.05,-0.375
2021-08-19 13:54:46.024,-0.05,-0.35
2021-08-19 13:54:46.028,-0.04,-0.335
2021-08-19 13:54:46.032,-0.015,-0.32
2021-08-19 13:54:46.036,0.01,-0.32
2021-08-19 13:54:46.040,0.01,-0.33
2021-08-19 13:54:46.044,0.015,-0.34
2021-08-19 13:54:46.048,0.04,-0.34
2021-08-19 13:54:46.052,0.01,-0.335
2021-08-19 13:54:46.056,0.02,-0.35
2021-08-19 13:54:46.060,0.02,-0.36
2021-08-19 13:54:46.064,0.025,-0.365
2021-08-19 13:54:46.068,0.025,-0.355
2021-08-19 13:54:46.072,0.03,-0.34
2021-08-19 13:54:46.076,0.04,-0.335
2021-08-19 13:54:46.080,0.055,-0.33
2021-08-19 13:54:46.084,0.07,-0.32
2021-08-19 13:54:46.088,0.05,-0.325
2021-08-19 13:54:46.092,0.07,-0.355
2021-08-19 13:54:46.096,0.06,-0.355
2021-08-19 13:54:46.100,0.045,-0.38
2021-08-19 13:54:46.104,0.045,-0.38
2021-08-19 13:54:46.108,0.06,-0.32
2021-08-19 13:54:46.112,0.06,-0.285
2021-08-19 13:54:46.116,0.07,-0.305
2021-08-19 13:54:46.120,0.09,-0.32
2021-08-19 13:54:46.124,0.08,-0.32
2021-08-19 13:54:46.128,0.08,-0.335
2021-08-19 13:54:46.132,0.09,-0.365
2021-08-19 13:54:46.136,0.08,-0.37
2021-08-19 13:54:46.140,0.07,-0.36
2021-08-19 13:54:46.144,0.05,-0.36
2021-08-19 13:54:46.148,0.05,-0.325
2021-08-19 13:54:46.152,0.06,-0.3
2021-08-19 13:54:46.156,0.07,-0.32
2021-08-19 13:54:46.160,0.075,-0.32
2021-08-19 13:54:46.164,0.085,-0.29
2021-08-19 13:54:46.168,0.07,-0.29
2021-08-19 13:54:46.172,0.065,-0.34
2021-08-19 13:54:46.176,0.055,-0.345
2021-08-19 13:54:46.180,0.04,-0.35
2021-08-19 13:54:46.184,0.03,-0.33
2021-08-19 13:54:46.188,0.03,-0.31
2021-08-19 13:54:46.192,0.04,-0.315
2021-08-19 13:54:46.196,0.02,-0.31
2021-08-19 13:54:46.200,0.035,-0.305
2021-08-19 13:54:46.204,0.05,-0.285
2021-08-19 13:54:46.208,0.03,-0.28
2021-08-19 13:54:46.212,0.05,-0.3
2021-08-19 13:54:46.216,0.055,-0.27
2021-08-19 13:54:46.220,0.045,-0.26
2021-08-19 13:54:46.224,0.06,-0.24
2021-08-19 13:54:46.228,0.05,-0.235
2021-08-19 13:54:46.232,0.055,-0.21
2021-08-19 13:54:46.236,0.06,-0.19
2021-08-19 13:54:46.240,0.085,-0.175
2021-08-19 13:54:46.244,0.11,-0.19
2021-08-19 13:54:46.248,0.08,-0.22
2021-08-19 13:54:46.252,0.11,-0.195
2021-08-19 13:54:46.256,0.08,-0.21
2021-08-19 13:54:46.260,0.09,-0.21
2021-08-19 13:54:46.264,0.08,-0.22
2021-08-19 13:54:46.268,0.06,-0.205
2021-08-19 13:54:46.272,0.055,-0.21
2021-08-19 13:54:46.276,0.07,-0.23
2021-08-19 13:54:46.280,0.08,-0.24
2021-08-19 13:54:46.284,0.11,-0.235
2021-08-19 13:54:46.288,0.115,-0.24
2021-08-19 13:54:46.292,0.09,-0.24
2021-08-19 13:54:46.296,0.095,-0.275
2021-08-19 13:54:46.300,0.07,-0.275
2021-08-19 13:54:46.304,0.075,-0.25
2021-08-19 13:54:46.308,0.075,-0.26
2021-08-19 13:54:46.312,0.045,-0.28
2021-08-19 13:54:46.316,0.05,-0.275
2021-08-19 13:54:46.320,0.06,-0.25
2021-08-19 13:54:46.324,0.07,-0.23
2021-08-19 13:54:46.328,0.065,-0.225
2021-08-19 13:54:46.332,0.085,-0.235
2021-08-19 13:54:46.336,0.06,-0.265
2021-08-19 13:54:46.340,0.05,-0.26
2021-08-19 13:54:46.344,0.065,-0.265
2021-08-19 13:54:46.348,0.055,-0.275
2021-08-19 13:54:46.352,0.05,-0.27
2021-08-19 13:54:46.356,0.025,-0.26
2021-08-19 13:54:46.360,0.03,-0.255
2021-08-19 13:54:46.364,0.045,-0.265
2021-08-19 13:54:46.368,0.06,-0.25
2021-08-19 13:54:46.372,0.04,-0.255
2021-08-19 13:54:46.376,0.055,-0.26
2021-08-19 13:54:46.380,0.04,-0.275
2021-08-19 13:54:46.384,0.025,-0.29
2021-08-19 13:54:46.388,0.015,-0.29
2021-08-19 13:54:46.392,0.025,-0.315
2021-08-19 13:54:46.396,-0.015,-0.315
2021-08-19 13:54:46.400,0.0,-0.28
2021-08-19 13:54:46.404,0.015,-0.28
2021-08-19 13:54:46.408,0.02,-0.275
2021-08-19 13:54:46.412,-0.01,-0.275
2021-08-19 13:54:46.416,0.015,-0.285
2021-08-19 13:54:46.420,-0.01,-0.31
2021-08-19 13:54:46.424,-0.015,-0.31
2021-08-19 13:54:46.428,-0.015,-0.275
2021-08-19 13:54:46.432,0.0,-0.28
2021-08-19 13:54:46.436,-0.015,-0.295
2021-08-19 13:54:46.440,-0.015,-0.295
2021-08-19 13:54:46.444,-0.02,-0.275
2021-08-19 13:54:46.448,-0.01,-0.265
2021-08-19 13:54:46.452,0.015,-0.28
2021-08-19 13:54:46.456,0.01,-0.275
2021-08-19 13:54:46.460,0.005,-0.275
2021-08-19 13:54:46.464,0.025,-0.285
2021-08-19 13:54:46.468,0.0,-0.275
2021-08-19 13:54:46.472,-0.01,-0.28
2021-08-19 13:54:46.476,-0.005,-0.295
2021-08-19 13:54:46.480,0.0,-0.31
2021-08-19 13:54:46.484,-0.01,-0.295
2021-08-19 13:54:46.488,0.02,-0.28
2021-08-19 13:54:46.492,0.015,-0.265
2021-08-19 13:54:46.496,0.025,-0.285
2021-08-19 13:54:46.500,0.02,-0.285
2021-08-19 13:54:46.504,0.025,-0.28
2021-08-19 13:54:46.508,0.02,-0.29
2021-08-19 13:54:46.512,0.03,-0.31
2021-08-19 13:54:46.516,0.0,-0.305
2021-08-19 13:54:46.520,0.005,-0.305
2021-08-19 13:54:46.524,0.005,-0.305
2021-08-19 13:54:46.528,0.02,-0.285
2021-08-19 13:54:46.532,0.025,-0.275
2021-08-19 13:54:46.536,0.04,-0.255
2021-08-19 13:54:46.540,0.045,-0.24
2021-08-19 13:54:46.544,0.035,-0.26
2021-08-19 13:54:46.548,0.025,-0.27
2021-08-19 13:54:46.552,0.015,-0.27
2021-08-19 13:54:46.556,0.015,-0.27
2021-08-19 13:54:46.560,0.0,-0.28
2021-08-19 13:54:46.564,0.0,-0.29
2021-08-19 13:54:46.568,-0.005,-0.265
2021-08-19 13:54:46.572,0.01,-0.245
2021-08-19 13:54:46.576,0.035,-0.265
2021-08-19 13:54:46.580,0.04,-0.285
2021-08-19 13:54:46.584,0.045,-0.285
2021-08-19 13:54:46.588,0.025,-0.285
2021-08-19 13:54:46.592,0.035,-0.315
2021-08-19 13:54:46.596,0.02,-0.335
2021-08-19 13:54:46.600,0.02,-0.275
2021-08-19 13:54:46.604,0.015,-0.275
2021-08-19 13:54:46.608,0.0,-0.285
2021-08-19 13:54:46.612,0.0,-0.275
2021-08-19 13:54:46.616,0.02,-0.26
2021-08-19 13:54:46.620,0.015,-0.265
2021-08-19 13:54:46.624,0.015,-0.235
2021-08-19 13:54:46.628,0.02,-0.255
2021-08-19 13:54:46.632,-0.02,-0.28
2021-08-19 13:54:46.636,-0.025,-0.295
2021-08-19 13:54:46.640,-0.01,-0.305
2021-08-19 13:54:46.644,-0.005,-0.305
2021-08-19 13:54:46.648,0.01,-0.27
2021-08-19 13:54:46.652,0.0,-0.24
2021-08-19 13:54:46.656,0.005,-0.255
2021-08-19 13:54:46.660,0.025,-0.265
2021-08-19 13:54:46.664,0.01,-0.26
2021-08-19 13:54:46.668,0.01,-0.28
2021-08-19 13:54:46.672,0.0,-0.295
2021-08-19 13:54:46.676,-0.005,-0.28
2021-08-19 13:54:46.680,-0.015,-0.29
2021-08-19 13:54:46.684,0.0,-0.315
2021-08-19 13:54:46.688,0.0,-0.275
2021-08-19 13:54:46.692,0.0,-0.295
2021-08-19 13:54:46.696,0.0,-0.275
2021-08-19 13:54:46.700,0.0,-0.255
2021-08-19 13:54:46.704,0.025,-0.22
2021-08-19 13:54:46.708,0.02,-0.245
2021-08-19 13:54:46.712,0.05,-0.24
2021-08-19 13:54:46.716,0.025,-0.24
2021-08-19 13:54:46.720,0.02,-0.27
2021-08-19 13:54:46.724,0.0,-0.275
2021-08-19 13:54:46.728,0.0,-0.275
2021-08-19 13:54:46.732,-0.005,-0.235
2021-08-19 13:54:46.736,-0.005,-0.24
2021-08-19 13:54:46.740,0.01,-0.265
2021-08-19 13:54:46.744,0.03,-0.28
2021-08-19 13:54:46.748,0.05,-0.24
2021-08-19 13:54:46.752,0.015,-0.24
2021-08-19 13:54:46.756,0.035,-0.275
2021-08-19 13:54:46.760,-0.005,-0.3
2021-08-19 13:54:46.764,0.015,-0.29
2021-08-19 13:54:46.768,-0.005,-0.275
2021-08-19 13:54:46.772,-0.01,-0.29
2021-08-19 13:54:46.776,-0.015,-0.25
2021-08-19 13:54:46.780,0.0,-0.245
2021-08-19 13:54:46.784,-0.005,-0.255
2021-08-19 13:54:46.788,0.0,-0.275
2021-08-19 13:54:46.792,0.035,-0.26
2021-08-19 13:54:46.796,0.04,-0.265
2021-08-19 13:54:46.800,0.01,-0.275
2021-08-19 13:54:46.804,0.02,-0.28
2021-08-19 13:54:46.808,-0.02,-0.245
2021-08-19 13:54:46.812,-0.005,-0.23
2021-08-19 13:54:46.816,-0.025,-0.25
2021-08-19 13:54:46.820,0.005,-0.245
2021-08-19 13:54:46.824,0.0,-0.215
2021-08-19 13:54:46.828,-0.01,-0.21
2021-08-19 13:54:46.832,0.025,-0.23
2021-08-19 13:54:46.836,0.025,-0.25
2021-08-19 13:54:46.840,0.03,-0.245
2021-08-19 13:54:46.844,0.015,-0.275
2021-08-19 13:54:46.848,0.01,-0.28
2021-08-19 13:54:46.852,-0.02,-0.285
2021-08-19 13:54:46.856,-0.035,-0.28
2021-08-19 13:54:46.860,-0.01,-0.265
2021-08-19 13:54:46.864,-0.02,-0.25
2021-08-19 13:54:46.868,0.005,-0.245
2021-08-19 13:54:46.872,0.0,-0.26
2021-08-19 13:54:46.876,0.01,-0.24
2021-08-19 13:54:46.880,0.0,-0.26
2021-08-19 13:54:46.884,0.0,-0.25
2021-08-19 13:54:46.888,0.0,-0.26
2021-08-19 13:54:46.892,-0.01,-0.285
2021-08-19 13:54:46.896,-0.005,-0.295
2021-08-19 13:54:46.900,-0.03,-0.25
2021-08-19 13:54:46.904,-0.025,-0.225
2021-08-19 13:54:46.908,-0.02,-0.19
2021-08-19 13:54:46.912,0.005,-0.175
2021-08-19 13:54:46.916,0.03,-0.205
2021-08-19 13:54:46.920,0.055,-0.195
2021-08-19 13:54:46.924,0.065,-0.18
2021-08-19 13:54:46.928,0.05,-0.19
2021-08-19 13:54:46.932,0.055,-0.2
2021-08-19 13:54:46.936,0.055,-0.185
2021-08-19 13:54:46.940,0.05,-0.125
2021-08-19 13:54:46.944,0.075,-0.085
2021-08-19 13:54:46.948,0.05,-0.055
2021-08-19 13:54:46.952,0.065,-0.055
2021-08-19 13:54:46.956,0.075,-0.065
2021-08-19 13:54:46.960,0.065,-0.095
2021-08-19 13:54:46.964,0.065,-0.11
2021-08-19 13:54:46.968,0.055,-0.145
2021-08-19 13:54:46.972,0.015,-0.155
2021-08-19 13:54:46.976,-0.035,-0.18
2021-08-19 13:54:46.980,-0.045,-0.19
2021-08-19 13:54:46.984,-0.04,-0.21
2021-08-19 13:54:46.988,-0.005,-0.24
2021-08-19 13:54:46.992,-0.015,-0.275
2021-08-19 13:54:46.996,-0.045,-0.235
2021-08-19 13:54:47.000,-0.015,-0.29
2021-08-19 13:54:47.004,0.0,-0.305
2021-08-19 13:54:47.008,-0.005,-0.305
2021-08-19 13:54:47.012,-0.03,-0.295
2021-08-19 13:54:47.016,-0.05,-0.31
2021-08-19 13:54:47.020,-0.045,-0.32
2021-08-19 13:54:47.024,-0.06,-0.33
2021-08-19 13:54:47.028,-0.085,-0.335
2021-08-19 13:54:47.032,-0.07,-0.33
2021-08-19 13:54:47.036,-0.085,-0.315
2021-08-19 13:54:47.040,-0.08,-0.295
2021-08-19 13:54:47.044,-0.065,-0.3
2021-08-19 13:54:47.048,-0.055,-0.3
2021-08-19 13:54:47.052,-0.025,-0.3
2021-08-19 13:54:47.056,-0.04,-0.33
2021-08-19 13:54:47.060,-0.06,-0.31
2021-08-19 13:54:47.064,-0.05,-0.305
2021-08-19 13:54:47.068,-0.02,-0.305
2021-08-19 13:54:47.072,0.035,-0.305
2021-08-19 13:54:47.076,0.145,-0.315
2021-08-19 13:54:47.080,0.245,-0.28
2021-08-19 13:54:47.084,0.34,-0.135
2021-08-19 13:54:47.088,0.51,0.04
2021-08-19 13:54:47.092,0.66,0.32
2021-08-19 13:54:47.096,0.495,0.595
2021-08-19 13:54:47.100,0.07,0.66
2021-08-19 13:54:47.104,-0.47,0.475
2021-08-19 13:54:47.108,-0.915,0.255
2021-08-19 13:54:47.112,-1.19,0.015
2021-08-19 13:54:47.116,-1.43,-0.11
2021-08-19 13:54:47.120,-1.595,-0.075
2021-08-19 13:54:47.124,-1.475,0.04
2021-08-19 13:54:47.128,-1.125,0.03
2021-08-19 13:54:47.132,-0.79,-0.05
2021-08-19 13:54:47.136,-0.58,-0.095
2021-08-19 13:54:47.140,-0.395,-0.155
2021-08-19 13:54:47.144,-0.27,-0.22
2021-08-19 13:54:47.148,-0.175,-0.26
2021-08-19 13:54:47.152,-0.125,-0.275
2021-08-19 13:54:47.156,-0.09,-0.3
2021-08-19 13:54:47.160,-0.07,-0.29
2021-08-19 13:54:47.164,-0.065,-0.305
2021-08-19 13:54:47.168,-0.05,-0.29
2021-08-19 13:54:47.172,-0.01,-0.295
2021-08-19 13:54:47.176,-0.015,-0.285
2021-08-19 13:54:47.180,-0.025,-0.305
2021-08-19 13:54:47.184,-0.02,-0.315
2021-08-19 13:54:47.188,-0.025,-0.33
2021-08-19 13:54:47.192,-0.01,-0.32
2021-08-19 13:54:47.196,-0.015,-0.305
2021-08-19 13:54:47.200,-0.015,-0.325
2021-08-19 13:54:47.204,-0.015,-0.33
2021-08-19 13:54:47.208,-0.015,-0.32
2021-08-19 13:54:47.212,0.0,-0.325
2021-08-19 13:54:47.216,0.025,-0.305
2021-08-19 13:54:47.220,0.04,-0.3
2021-08-19 13:54:47.224,0.025,-0.28
2021-08-19 13:54:47.228,0.03,-0.3
2021-08-19 13:54:47.232,0.02,-0.33
2021-08-19 13:54:47.236,0.0,-0.335
2021-08-19 13:54:47.240,0.005,-0.335
2021-08-19 13:54:47.244,0.01,-0.295
2021-08-19 13:54:47.248,0.02,-0.28
2021-08-19 13:54:47.252,0.025,-0.26
2021-08-19 13:54:47.256,0.045,-0.3
2021-08-19 13:54:47.260,0.035,-0.32
2021-08-19 13:54:47.264,0.06,-0.34
2021-08-19 13:54:47.268,0.06,-0.32
2021-08-19 13:54:47.272,0.045,-0.305
2021-08-19 13:54:47.276,0.045,-0.305
2021-08-19 13:54:47.280,0.045,-0.32
2021-08-19 13:54:47.284,0.015,-0.27
2021-08-19 13:54:47.288,0.035,-0.26
2021-08-19 13:54:47.292,0.035,-0.28
2021-08-19 13:54:47.296,0.055,-0.265
2021-08-19 13:54:47.300,0.075,-0.26
2021-08-19 13:54:47.304,0.075,-0.25
2021-08-19 13:54:47.308,0.075,-0.255
2021-08-19 13:54:47.312,0.09,-0.255
2021-08-19 13:54:47.316,0.075,-0.275
2021-08-19 13:54:47.320,0.09,-0.235
2021-08-19 13:54:47.324,0.07,-0.245
2021-08-19 13:54:47.328,0.055,-0.255
2021-08-19 13:54:47.332,0.04,-0.245
2021-08-19 13:54:47.336,0.045,-0.235
2021-08-19 13:54:47.340,0.045,-0.175
2021-08-19 13:54:47.344,0.07,-0.175
2021-08-19 13:54:47.348,0.065,-0.185
2021-08-19 13:54:47.352,0.08,-0.185
2021-08-19 13:54:47.356,0.075,-0.18
2021-08-19 13:54:47.360,0.055,-0.175
2021-08-19 13:54:47.364,0.045,-0.15
2021-08-19 13:54:47.368,0.035,-0.15
2021-08-19 13:54:47.372,0.035,-0.135
2021-08-19 13:54:47.376,0.035,-0.165
2021-08-19 13:54:47.380,0.03,-0.135
2021-08-19 13:54:47.384,0.05,-0.105
2021-08-19 13:54:47.388,0.065,-0.1
2021-08-19 13:54:47.392,0.065,-0.125
2021-08-19 13:54:47.396,0.075,-0.07
2021-08-19 13:54:47.400,0.09,-0.055
2021-08-19 13:54:47.404,0.09,-0.045
2021-08-19 13:54:47.408,0.095,-0.035
2021-08-19 13:54:47.412,0.095,-0.015
2021-08-19 13:54:47.416,0.115,-0.01
2021-08-19 13:54:47.420,0.14,0.035
2021-08-19 13:54:47.424,0.145,0.07
2021-08-19 13:54:47.428,0.16,0.1
2021-08-19 13:54:47.432,0.175,0.105
2021-08-19 13:54:47.436,0.2,0.065
2021-08-19 13:54:47.440,0.205,0.11
2021-08-19 13:54:47.444,0.225,0.15
2021-08-19 13:54:47.448,0.22,0.135
2021-08-19 13:54:47.452,0.255,0.115
2021-08-19 13:54:47.456,0.26,0.08
2021-08-19 13:54:47.460,0.265,0.035
2021-08-19 13:54:47.464,0.285,-0.005
2021-08-19 13:54:47.468,0.305,-0.01
2021-08-19 13:54:47.472,0.29,-0.04
2021-08-19 13:54:47.476,0.28,-0.045
2021-08-19 13:54:47.480,0.285,-0.06
2021-08-19 13:54:47.484,0.285,-0.075
2021-08-19 13:54:47.488,0.26,-0.1
2021-08-19 13:54:47.492,0.245,-0.12
2021-08-19 13:54:47.496,0.225,-0.145
2021-08-19 13:54:47.500,0.185,-0.155
2021-08-19 13:54:47.504,0.18,-0.17
2021-08-19 13:54:47.508,0.17,-0.2
2021-08-19 13:54:47.512,0.145,-0.18
2021-08-19 13:54:47.516,0.15,-0.18
2021-08-19 13:54:47.520,0.13,-0.17
2021-08-19 13:54:47.524,0.12,-0.205
2021-08-19 13:54:47.528,0.09,-0.21
2021-08-19 13:54:47.532,0.085,-0.215
2021-08-19 13:54:47.536,0.065,-0.245
2021-08-19 13:54:47.540,0.04,-0.26
2021-08-19 13:54:47.544,0.03,-0.25
2021-08-19 13:54:47.548,0.015,-0.26
2021-08-19 13:54:47.552,0.035,-0.265
2021-08-19 13:54:47.556,0.005,-0.245
2021-08-19 13:54:47.560,0.02,-0.235
2021-08-19 13:54:47.564,0.04,-0.225
2021-08-19 13:54:47.568,0.02,-0.215
2021-08-19 13:54:47.572,0.03,-0.245
2021-08-19 13:54:47.576,0.015,-0.24
2021-08-19 13:54:47.580,0.015,-0.24
2021-08-19 13:54:47.584,0.01,-0.27
2021-08-19 13:54:47.588,-0.035,-0.28
2021-08-19 13:54:47.592,-0.03,-0.28
2021-08-19 13:54:47.596,-0.025,-0.305
2021-08-19 13:54:47.600,-0.02,-0.3
2021-08-19 13:54:47.604,-0.005,-0.285
2021-08-19 13:54:47.608,-0.015,-0.265
2021-08-19 13:54:47.612,-0.01,-0.27
2021-08-19 13:54:47.616,-0.025,-0.28
2021-08-19 13:54:47.620,-0.01,-0.3
2021-08-19 13:54:47.624,-0.04,-0.29
2021-08-19 13:54:47.628,-0.065,-0.27
2021-08-19 13:54:47.632,-0.05,-0.285
2021-08-19 13:54:47.636,-0.06,-0.295
2021-08-19 13:54:47.640,-0.06,-0.285
2021-08-19 13:54:47.644,-0.06,-0.27
2021-08-19 13:54:47.648,-0.06,-0.28
2021-08-19 13:54:47.652,-0.06,-0.285
2021-08-19 13:54:47.656,-0.07,-0.275
2021-08-19 13:54:47.660,-0.075,-0.285
2021-08-19 13:54:47.664,-0.075,-0.3
2021-08-19 13:54:47.668,-0.09,-0.29
2021-08-19 13:54:47.672,-0.11,-0.285
2021-08-19 13:54:47.676,-0.11,-0.29
2021-08-19 13:54:47.680,-0.105,-0.29
2021-08-19 13:54:47.684,-0.1,-0.265
2021-08-19 13:54:47.688,-0.045,-0.24
2021-08-19 13:54:47.692,0.065,-0.185
2021-08-19 13:54:47.696,0.24,-0.08
2021-08-19 13:54:47.700,0.115,0.095
2021-08-19 13:54:47.704,-0.33,0.27
2021-08-19 13:54:47.708,-1.03,0.43
2021-08-19 13:54:47.712,-1.805,0.53
2021-08-19 13:54:47.752,-1.985,0.44
2021-08-19 13:54:47.756,-1.705,0.215
2021-08-19 13:54:47.760,-1.52,0.065
2021-08-19 13:54:47.764,-1.3,-0.04
2021-08-19 13:54:47.768,-1.11,-0.085
2021-08-19 13:54:47.772,-0.92,-0.075
2021-08-19 13:54:47.776,-0.65,-0.09
2021-08-19 13:54:47.780,-0.42,-0.19
2021-08-19 13:54:47.784,-0.24,-0.23
2021-08-19 13:54:47.788,-0.115,-0.29
2021-08-19 13:54:47.792,0.0,-0.32
2021-08-19 13:54:47.796,0.085,-0.36
2021-08-19 13:54:47.800,0.105,-0.38
2021-08-19 13:54:47.804,0.12,-0.375
2021-08-19 13:54:47.808,0.14,-0.39
2021-08-19 13:54:47.812,0.16,-0.405
2021-08-19 13:54:47.816,0.185,-0.415
2021-08-19 13:54:47.820,0.21,-0.435
2021-08-19 13:54:47.824,0.235,-0.42
2021-08-19 13:54:47.828,0.255,-0.405
2021-08-19 13:54:47.832,0.25,-0.395
2021-08-19 13:54:47.836,0.27,-0.41
2021-08-19 13:54:47.840,0.26,-0.425
2021-08-19 13:54:47.844,0.285,-0.415
2021-08-19 13:54:47.848,0.29,-0.405
2021-08-19 13:54:47.852,0.27,-0.39
2021-08-19 13:54:47.856,0.295,-0.375
2021-08-19 13:54:47.860,0.325,-0.35
2021-08-19 13:54:47.864,0.365,-0.355
2021-08-19 13:54:47.868,0.385,-0.38
2021-08-19 13:54:47.872,0.39,-0.375
2021-08-19 13:54:47.876,0.4,-0.375
2021-08-19 13:54:47.880,0.395,-0.415
2021-08-19 13:54:47.884,0.43,-0.425
2021-08-19 13:54:47.888,0.43,-0.44
2021-08-19 13:54:47.892,0.44,-0.415
2021-08-19 13:54:47.896,0.455,-0.4
2021-08-19 13:54:47.900,0.47,-0.41
2021-08-19 13:54:47.904,0.505,-0.42
2021-08-19 13:54:47.908,0.505,-0.405
2021-08-19 13:54:47.912,0.545,-0.405
2021-08-19 13:54:47.916,0.56,-0.415
2021-08-19 13:54:47.920,0.58,-0.41
2021-08-19 13:54:47.924,0.6,-0.42
2021-08-19 13:54:47.928,0.59,-0.44
2021-08-19 13:54:47.932,0.58,-0.435
2021-08-19 13:54:47.936,0.615,-0.395
2021-08-19 13:54:47.940,0.625,-0.37
2021-08-19 13:54:47.944,0.645,-0.395
2021-08-19 13:54:47.948,0.66,-0.38
2021-08-19 13:54:47.952,0.73,-0.39
2021-08-19 13:54:47.956,0.73,-0.39
2021-08-19 13:54:47.960,0.745,-0.41
2021-08-19 13:54:47.964,0.75,-0.43
2021-08-19 13:54:47.968,0.745,-0.435
2021-08-19 13:54:47.972,0.745,-0.455
2021-08-19 13:54:47.976,0.755,-0.475
2021-08-19 13:54:47.980,0.77,-0.445
2021-08-19 13:54:47.984,0.8,-0.455
2021-08-19 13:54:47.988,0.815,-0.45
2021-08-19 13:54:47.992,0.83,-0.445
2021-08-19 13:54:47.996,0.85,-0.43
2021-08-19 13:54:48.000,0.87,-0.43
2021-08-19 13:54:48.004,0.86,-0.425
2021-08-19 13:54:48.008,0.845,-0.445
2021-08-19 13:54:48.012,0.84,-0.44
2021-08-19 13:54:48.016,0.8,-0.44
2021-08-19 13:54:48.020,0.785,-0.405
2021-08-19 13:54:48.024,0.775,-0.36
2021-08-19 13:54:48.028,0.74,-0.355
2021-08-19 13:54:48.032,0.73,-0.295
2021-08-19 13:54:48.036,0.7,-0.315
2021-08-19 13:54:48.040,0.63,-0.345
2021-08-19 13:54:48.044,0.58,-0.31
2021-08-19 13:54:48.048,0.52,-0.275
2021-08-19 13:54:48.052,0.44,-0.28
2021-08-19 13:54:48.056,0.385,-0.26
2021-08-19 13:54:48.060,0.34,-0.235
2021-08-19 13:54:48.064,0.28,-0.235
2021-08-19 13:54:48.068,0.215,-0.225
2021-08-19 13:54:48.072,0.18,-0.22
2021-08-19 13:54:48.076,0.155,-0.225
2021-08-19 13:54:48.080,0.145,-0.225
2021-08-19 13:54:48.084,0.13,-0.245
2021-08-19 13:54:48.088,0.095,-0.26
2021-08-19 13:54:48.092,0.095,-0.26
2021-08-19 13:54:48.096,0.06,-0.275
2021-08-19 13:54:48.100,0.0,-0.26
2021-08-19 13:54:48.104,0.025,-0.255
2021-08-19 13:54:48.108,0.035,-0.27
2021-08-19 13:54:48.112,0.025,-0.23
2021-08-19 13:54:48.116,0.02,-0.25
2021-08-19 13:54:48.120,0.015,-0.24
2021-08-19 13:54:48.124,0.03,-0.24
2021-08-19 13:54:48.128,0.05,-0.205
2021-08-19 13:54:48.132,0.03,-0.225
2021-08-19 13:54:48.136,0.02,-0.275
2021-08-19 13:54:48.140,0.0,-0.275
2021-08-19 13:54:48.144,0.015,-0.285
2021-08-19 13:54:48.148,0.0,-0.3
2021-08-19 13:54:48.152,0.01,-0.315
2021-08-19 13:54:48.156,0.0,-0.28
2021-08-19 13:54:48.160,0.01,-0.26
2021-08-19 13:54:48.164,0.005,-0.27
2021-08-19 13:54:48.168,0.035,-0.24
2021-08-19 13:54:48.172,0.025,-0.26
2021-08-19 13:54:48.176,0.03,-0.28
2021-08-19 13:54:48.180,0.005,-0.295
2021-08-19 13:54:48.184,0.0,-0.3
2021-08-19 13:54:48.188,-0.015,-0.295
2021-08-19 13:54:48.192,-0.06,-0.31
2021-08-19 13:54:48.196,-0.02,-0.305
2021-08-19 13:54:48.200,-0.055,-0.27
2021-08-19 13:54:48.204,-0.04,-0.24
2021-08-19 13:54:48.208,-0.02,-0.265
2021-08-19 13:54:48.212,-0.035,-0.305
2021-08-19 13:54:48.216,0.0,-0.315
2021-08-19 13:54:48.220,-0.025,-0.32
2021-08-19 13:54:48.224,-0.045,-0.33
2021-08-19 13:54:48.228,-0.055,-0.34
2021-08-19 13:54:48.232,-0.06,-0.33
2021-08-19 13:54:48.236,-0.06,-0.325
2021-08-19 13:54:48.240,-0.055,-0.3
2021-08-19 13:54:48.244,-0.08,-0.295
2021-08-19 13:54:48.248,-0.06,-0.315
2021-08-19 13:54:48.252,-0.055,-0.31
2021-08-19 13:54:48.256,-0.055,-0.295
2021-08-19 13:54:48.260,-0.035,-0.305
2021-08-19 13:54:48.264,-0.065,-0.315
2021-08-19 13:54:48.268,-0.06,-0.335
2021-08-19 13:54:48.272,-0.1,-0.36
2021-08-19 13:54:48.276,-0.095,-0.32
2021-08-19 13:54:48.280,-0.085,-0.33
2021-08-19 13:54:48.284,-0.095,-0.345
2021-08-19 13:54:48.288,-0.095,-0.32
2021-08-19 13:54:48.292,-0.065,-0.31
2021-08-19 13:54:48.296,-0.06,-0.32
2021-08-19 13:54:48.300,-0.06,-0.32
2021-08-19 13:54:48.304,-0.055,-0.32
2021-08-19 13:54:48.308,-0.08,-0.315
2021-08-19 13:54:48.312,-0.075,-0.335
2021-08-19 13:54:48.316,-0.06,-0.33
2021-08-19 13:54:48.320,-0.09,-0.325
2021-08-19 13:54:48.324,-0.095,-0.3
2021-08-19 13:54:48.328,-0.09,-0.32
2021-08-19 13:54:48.332,-0.07,-0.32
2021-08-19 13:54:48.336,-0.065,-0.3
2021-08-19 13:54:48.340,-0.065,-0.28
2021-08-19 13:54:48.344,-0.055,-0.29
2021-08-19 13:54:48.348,-0.05,-0.3
2021-08-19 13:54:48.352,-0.05,-0.33
2021-08-19 13:54:48.356,-0.085,-0.325
2021-08-19 13:54:48.360,-0.085,-0.335
2021-08-19 13:54:48.364,-0.085,-0.34
2021-08-19 13:54:48.368,-0.07,-0.31
2021-08-19 13:54:48.372,-0.065,-0.295
2021-08-19 13:54:48.376,-0.05,-0.3
2021-08-19 13:54:48.380,-0.03,-0.295
2021-08-19 13:54:48.384,-0.035,-0.255
2021-08-19 13:54:48.388,-0.04,-0.27
2021-08-19 13:54:48.392,-0.035,-0.31
2021-08-19 13:54:48.396,-0.045,-0.335
2021-08-19 13:54:48.400,-0.05,-0.305
2021-08-19 13:54:48.404,-0.065,-0.35
2021-08-19 13:54:48.408,-0.085,-0.3
2021-08-19 13:54:48.412,-0.065,-0.255
2021-08-19 13:54:48.416,-0.04,-0.275
2021-08-19 13:54:48.420,-0.035,-0.305
2021-08-19 13:54:48.424,-0.04,-0.28
2021-08-19 13:54:48.428,-0.06,-0.27
2021-08-19 13:54:48.432,-0.05,-0.29
2021-08-19 13:54:48.436,-0.055,-0.29
2021-08-19 13:54:48.440,-0.035,-0.3
2021-08-19 13:54:48.444,-0.055,-0.295
2021-08-19 13:54:48.448,-0.035,-0.285
2021-08-19 13:54:48.452,-0.035,-0.285
2021-08-19 13:54:48.456,-0.04,-0.255
2021-08-19 13:54:48.460,-0.01,-0.245
2021-08-19 13:54:48.464,0.0,-0.255
2021-08-19 13:54:48.468,-0.005,-0.265
2021-08-19 13:54:48.472,-0.01,-0.285
2021-08-19 13:54:48.476,-0.015,-0.29
2021-08-19 13:54:48.480,-0.045,-0.255
2021-08-19 13:54:48.484,-0.04,-0.26
2021-08-19 13:54:48.488,-0.035,-0.275
2021-08-19 13:54:48.492,-0.04,-0.275
2021-08-19 13:54:48.496,-0.05,-0.255
2021-08-19 13:54:48.500,-0.04,-0.27
2021-08-19 13:54:48.504,-0.01,-0.265
2021-08-19 13:54:48.508,-0.015,-0.27
2021-08-19 13:54:48.512,0.0,-0.26
2021-08-19 13:54:48.516,-0.01,-0.245
2021-08-19 13:54:48.520,-0.04,-0.24
2021-08-19 13:54:48.524,-0.035,-0.245
2021-08-19 13:54:48.528,-0.025,-0.255
2021-08-19 13:54:48.532,0.0,-0.255
2021-08-19 13:54:48.536,-0.025,-0.245
2021-08-19 13:54:48.540,0.0,-0.24
2021-08-19 13:54:48.544,-0.01,-0.23
2021-08-19 13:54:48.548,0.0,-0.26
2021-08-19 13:54:48.552,0.0,-0.245
2021-08-19 13:54:48.556,-0.02,-0.245
2021-08-19 13:54:48.560,-0.02,-0.27
2021-08-19 13:54:48.564,-0.04,-0.25
2021-08-19 13:54:48.568,-0.02,-0.255
2021-08-19 13:54:48.572,-0.025,-0.255
2021-08-19 13:54:48.576,-0.02,-0.235
2021-08-19 13:54:48.580,-0.02,-0.215
2021-08-19 13:54:48.584,-0.01,-0.25
2021-08-19 13:54:48.588,0.005,-0.24
2021-08-19 13:54:48.592,0.0,-0.24
2021-08-19 13:54:48.596,-0.02,-0.23
2021-08-19 13:54:48.600,-0.005,-0.255
2021-08-19 13:54:48.604,0.005,-0.235
2021-08-19 13:54:48.608,-0.045,-0.235
2021-08-19 13:54:48.612,-0.03,-0.225
2021-08-19 13:54:48.616,-0.045,-0.22
2021-08-19 13:54:48.620,-0.04,-0.22
2021-08-19 13:54:48.624,-0.02,-0.21
2021-08-19 13:54:48.628,-0.005,-0.215
2021-08-19 13:54:48.632,-0.005,-0.22
2021-08-19 13:54:48.636,-0.005,-0.235
2021-08-19 13:54:48.640,-0.025,-0.24
2021-08-19 13:54:48.644,-0.04,-0.225
2021-08-19 13:54:48.648,-0.055,-0.22
2021-08-19 13:54:48.652,-0.03,-0.23
2021-08-19 13:54:48.656,-0.05,-0.215
2021-08-19 13:54:48.660,-0.07,-0.22
2021-08-19 13:54:48.664,-0.045,-0.235
2021-08-19 13:54:48.668,-0.015,-0.225
2021-08-19 13:54:48.672,-0.015,-0.24
2021-08-19 13:54:48.676,0.0,-0.21
2021-08-19 13:54:48.680,-0.025,-0.225
2021-08-19 13:54:48.684,-0.03,-0.225
2021-08-19 13:54:48.688,-0.045,-0.23
2021-08-19 13:54:48.692,-0.025,-0.195
2021-08-19 13:54:48.696,-0.01,-0.2
2021-08-19 13:54:48.700,0.015,-0.175
2021-08-19 13:54:48.704,0.035,-0.15
2021-08-19 13:54:48.708,0.06,-0.135
2021-08-19 13:54:48.712,0.085,-0.105
2021-08-19 13:54:48.716,0.095,-0.075
2021-08-19 13:54:48.720,0.105,-0.07
2021-08-19 13:54:48.724,0.08,-0.065
2021-08-19 13:54:48.728,0.07,-0.06
2021-08-19 13:54:48.732,0.045,-0.05
2021-08-19 13:54:48.736,0.015,-0.055
2021-08-19 13:54:48.740,0.03,-0.075
2021-08-19 13:54:48.744,0.02,-0.075
2021-08-19 13:54:48.748,0.02,-0.07
2021-08-19 13:54:48.752,0.0,-0.08
2021-08-19 13:54:48.756,0.005,-0.095
2021-08-19 13:54:48.760,0.005,-0.12
2021-08-19 13:54:48.764,0.025,-0.18
2021-08-19 13:54:48.768,0.025,-0.225
2021-08-19 13:54:48.772,-0.005,-0.25
2021-08-19 13:54:48.776,-0.025,-0.285
2021-08-19 13:54:48.780,-0.03,-0.225
2021-08-19 13:54:48.784,-0.03,-0.255
2021-08-19 13:54:48.788,0.0,-0.23
2021-08-19 13:54:48.792,-0.02,-0.26
2021-08-19 13:54:48.796,-0.01,-0.27
2021-08-19 13:54:48.800,-0.02,-0.25
2021-08-19 13:54:48.804,-0.025,-0.28
2021-08-19 13:54:48.808,-0.04,-0.285
2021-08-19 13:54:48.812,-0.05,-0.285
2021-08-19 13:54:48.816,-0.055,-0.28
2021-08-19 13:54:48.820,-0.06,-0.285
2021-08-19 13:54:48.824,-0.055,-0.28
2021-08-19 13:54:48.828,-0.02,-0.245
2021-08-19 13:54:48.832,-0.01,-0.22
2021-08-19 13:54:48.836,-0.005,-0.235
2021-08-19 13:54:48.840,0.01,-0.255
2021-08-19 13:54:48.844,0.055,-0.28
2021-08-19 13:54:48.848,0.185,-0.295
2021-08-19 13:54:48.852,0.27,-0.25
2021-08-19 13:54:48.856,0.355,-0.165
2021-08-19 13:54:48.860,0.515,0.01
2021-08-19 13:54:48.864,0.685,0.34
2021-08-19 13:54:48.868,0.595,0.67
2021-08-19 13:54:48.872,0.2,0.775
2021-08-19 13:54:48.876,-0.32,0.655
2021-08-19 13:54:48.880,-0.82,0.39
2021-08-19 13:54:48.884,-1.135,0.115
2021-08-19 13:54:48.888,-1.41,-0.01
2021-08-19 13:54:48.892,-1.56,0.03
2021-08-19 13:54:48.896,-1.41,0.11
2021-08-19 13:54:48.900,-1.025,0.09
2021-08-19 13:54:48.904,-0.745,0.005
2021-08-19 13:54:48.908,-0.52,-0.075
2021-08-19 13:54:48.912,-0.335,-0.155
2021-08-19 13:54:48.916,-0.19,-0.19
2021-08-19 13:54:48.920,-0.105,-0.225
2021-08-19 13:54:48.924,-0.075,-0.25
2021-08-19 13:54:48.928,-0.05,-0.255
2021-08-19 13:54:48.932,-0.055,-0.265
2021-08-19 13:54:48.936,-0.065,-0.29
2021-08-19 13:54:48.940,-0.05,-0.305
2021-08-19 13:54:48.944,-0.035,-0.31
2021-08-19 13:54:48.948,-0.02,-0.3
2021-08-19 13:54:48.952,0.005,-0.29
2021-08-19 13:54:48.956,0.01,-0.29
2021-08-19 13:54:48.960,0.02,-0.295
2021-08-19 13:54:48.964,0.03,-0.3
2021-08-19 13:54:48.968,0.02,-0.28
2021-08-19 13:54:48.972,0.01,-0.27
2021-08-19 13:54:48.976,-0.025,-0.295
2021-08-19 13:54:48.980,0.0,-0.305
2021-08-19 13:54:48.984,-0.01,-0.305
2021-08-19 13:54:48.988,0.0,-0.305
2021-08-19 13:54:48.992,0.02,-0.295
2021-08-19 13:54:48.996,0.055,-0.285
2021-08-19 13:54:49.000,0.06,-0.275
2021-08-19 13:54:49.004,0.055,-0.26
2021-08-19 13:54:49.008,0.04,-0.28
2021-08-19 13:54:49.012,0.065,-0.275
2021-08-19 13:54:49.016,0.03,-0.295
2021-08-19 13:54:49.020,0.025,-0.27
2021-08-19 13:54:49.024,0.0,-0.295
2021-08-19 13:54:49.028,0.035,-0.295
2021-08-19 13:54:49.032,0.05,-0.265
2021-08-19 13:54:49.036,0.085,-0.24
2021-08-19 13:54:49.040,0.08,-0.23
2021-08-19 13:54:49.044,0.08,-0.245
2021-08-19 13:54:49.048,0.075,-0.255
2021-08-19 13:54:49.052,0.07,-0.275
2021-08-19 13:54:49.056,0.075,-0.26
2021-08-19 13:54:49.060,0.055,-0.26
2021-08-19 13:54:49.064,0.05,-0.275
2021-08-19 13:54:49.068,0.055,-0.235
2021-08-19 13:54:49.072,0.07,-0.195
2021-08-19 13:54:49.076,0.075,-0.195
2021-08-19 13:54:49.080,0.095,-0.19
2021-08-19 13:54:49.084,0.09,-0.195
2021-08-19 13:54:49.088,0.08,-0.175
2021-08-19 13:54:49.092,0.075,-0.19
2021-08-19 13:54:49.096,0.07,-0.175
2021-08-19 13:54:49.100,0.055,-0.14
2021-08-19 13:54:49.104,0.07,-0.12
2021-08-19 13:54:49.108,0.09,-0.155
2021-08-19 13:54:49.112,0.07,-0.125
2021-08-19 13:54:49.116,0.08,-0.12
2021-08-19 13:54:49.120,0.095,-0.135
2021-08-19 13:54:49.124,0.09,-0.12
2021-08-19 13:54:49.128,0.105,-0.12
2021-08-19 13:54:49.132,0.095,-0.115
2021-08-19 13:54:49.136,0.08,-0.095
2021-08-19 13:54:49.140,0.06,-0.1
2021-08-19 13:54:49.144,0.035,-0.1
2021-08-19 13:54:49.148,0.075,-0.095
2021-08-19 13:54:49.152,0.065,-0.06
2021-08-19 13:54:49.156,0.085,-0.02
2021-08-19 13:54:49.160,0.115,0.01
2021-08-19 13:54:49.164,0.12,0.035
2021-08-19 13:54:49.168,0.155,0.06
2021-08-19 13:54:49.172,0.115,0.115
2021-08-19 13:54:49.176,0.135,0.125
2021-08-19 13:54:49.180,0.14,0.13
2021-08-19 13:54:49.184,0.16,0.12
2021-08-19 13:54:49.188,0.155,0.135
2021-08-19 13:54:49.192,0.2,0.17
2021-08-19 13:54:49.196,0.225,0.205
2021-08-19 13:54:49.200,0.215,0.195
2021-08-19 13:54:49.204,0.3,0.175
2021-08-19 13:54:49.208,0.32,0.135
2021-08-19 13:54:49.212,0.345,0.095
2021-08-19 13:54:49.216,0.34,0.035
2021-08-19 13:54:49.220,0.325,-0.02
2021-08-19 13:54:49.224,0.29,-0.055
2021-08-19 13:54:49.228,0.255,-0.09
2021-08-19 13:54:49.232,0.245,-0.105
2021-08-19 13:54:49.236,0.24,-0.095
2021-08-19 13:54:49.240,0.24,-0.085
2021-08-19 13:54:49.244,0.235,-0.075
2021-08-19 13:54:49.248,0.23,-0.095
2021-08-19 13:54:49.252,0.225,-0.115
2021-08-19 13:54:49.256,0.18,-0.17
2021-08-19 13:54:49.260,0.165,-0.185
2021-08-19 13:54:49.264,0.115,-0.155
2021-08-19 13:54:49.268,0.07,-0.215
2021-08-19 13:54:49.272,0.055,-0.2
2021-08-19 13:54:49.276,0.045,-0.22
2021-08-19 13:54:49.280,0.05,-0.205
2021-08-19 13:54:49.284,0.05,-0.22
2021-08-19 13:54:49.288,0.05,-0.215
2021-08-19 13:54:49.292,0.05,-0.22
2021-08-19 13:54:49.296,0.055,-0.21
2021-08-19 13:54:49.300,0.02,-0.215
2021-08-19 13:54:49.304,0.005,-0.215
2021-08-19 13:54:49.308,0.01,-0.225
2021-08-19 13:54:49.312,-0.01,-0.245
2021-08-19 13:54:49.316,0.0,-0.22
2021-08-19 13:54:49.320,0.0,-0.215
2021-08-19 13:54:49.324,0.025,-0.19
2021-08-19 13:54:49.328,0.025,-0.19
2021-08-19 13:54:49.332,0.03,-0.19
2021-08-19 13:54:49.336,0.0,-0.22
2021-08-19 13:54:49.340,-0.005,-0.21
2021-08-19 13:54:49.344,-0.02,-0.23
2021-08-19 13:54:49.348,-0.04,-0.25
2021-08-19 13:54:49.352,-0.055,-0.23
2021-08-19 13:54:49.356,-0.04,-0.23
2021-08-19 13:54:49.360,-0.02,-0.22
2021-08-19 13:54:49.364,-0.04,-0.22
2021-08-19 13:54:49.368,0.005,-0.24
2021-08-19 13:54:49.372,-0.015,-0.21
2021-08-19 13:54:49.376,-0.01,-0.23
2021-08-19 13:54:49.380,-0.015,-0.245
2021-08-19 13:54:49.384,-0.05,-0.255
2021-08-19 13:54:49.388,-0.085,-0.28
2021-08-19 13:54:49.392,-0.085,-0.275
2021-08-19 13:54:49.396,-0.085,-0.25
2021-08-19 13:54:49.400,-0.075,-0.24
2021-08-19 13:54:49.404,-0.06,-0.225
2021-08-19 13:54:49.408,-0.035,-0.22
2021-08-19 13:54:49.412,-0.035,-0.22
2021-08-19 13:54:49.416,-0.015,-0.245
2021-08-19 13:54:49.420,0.0,-0.31
2021-08-19 13:54:49.424,0.035,-0.365
2021-08-19 13:54:49.428,0.155,-0.335
2021-08-19 13:54:49.432,0.35,-0.165
2021-08-19 13:54:49.436,0.535,0.13
2021-08-19 13:54:49.440,0.28,0.525
2021-08-19 13:54:49.444,-0.295,0.855
2021-08-19 13:54:49.448,-0.99,0.985
2021-08-19 13:54:49.452,-1.37,0.84
2021-08-19 13:54:49.456,-1.535,0.46
2021-08-19 13:54:49.460,-1.735,0.23
2021-08-19 13:54:49.464,-1.915,0.21
2021-08-19 13:54:49.468,-1.69,0.26
2021-08-19 13:54:49.472,-1.165,0.2
2021-08-19 13:54:49.476,-0.77,0.09
2021-08-19 13:54:49.480,-0.495,-0.035
2021-08-19 13:54:49.484,-0.315,-0.135
2021-08-19 13:54:49.488,-0.16,-0.19
2021-08-19 13:54:49.492,-0.09,-0.23
2021-08-19 13:54:49.496,-0.06,-0.275
2021-08-19 13:54:49.500,-0.025,-0.27
2021-08-19 13:54:49.504,-0.05,-0.27
2021-08-19 13:54:49.508,-0.05,-0.27
2021-08-19 13:54:49.512,-0.02,-0.27
2021-08-19 13:54:49.516,0.005,-0.28
2021-08-19 13:54:49.520,0.0,-0.28
2021-08-19 13:54:49.524,0.01,-0.28
2021-08-19 13:54:49.528,0.03,-0.29
2021-08-19 13:54:49.532,0.03,-0.275
2021-08-19 13:54:49.536,0.03,-0.285
2021-08-19 13:54:49.540,0.055,-0.275
2021-08-19 13:54:49.544,0.045,-0.28
2021-08-19 13:54:49.548,0.03,-0.295
2021-08-19 13:54:49.552,0.04,-0.305
2021-08-19 13:54:49.556,0.025,-0.265
2021-08-19 13:54:49.560,0.035,-0.245
2021-08-19 13:54:49.564,0.06,-0.255
2021-08-19 13:54:49.568,0.095,-0.275
2021-08-19 13:54:49.572,0.095,-0.305
2021-08-19 13:54:49.576,0.105,-0.285
2021-08-19 13:54:49.580,0.12,-0.285
2021-08-19 13:54:49.584,0.08,-0.27
2021-08-19 13:54:49.588,0.075,-0.285
2021-08-19 13:54:49.592,0.08,-0.295
2021-08-19 13:54:49.596,0.075,-0.29
2021-08-19 13:54:49.600,0.07,-0.255
2021-08-19 13:54:49.604,0.115,-0.25
2021-08-19 13:54:49.608,0.12,-0.24
2021-08-19 13:54:49.612,0.13,-0.23
2021-08-19 13:54:49.616,0.125,-0.235
2021-08-19 13:54:49.620,0.14,-0.25
2021-08-19 13:54:49.624,0.115,-0.255
2021-08-19 13:54:49.628,0.115,-0.235
2021-08-19 13:54:49.632,0.105,-0.285
2021-08-19 13:54:49.636,0.105,-0.265
2021-08-19 13:54:49.640,0.105,-0.285
2021-08-19 13:54:49.644,0.12,-0.275
2021-08-19 13:54:49.648,0.13,-0.265
2021-08-19 13:54:49.652,0.15,-0.255
2021-08-19 13:54:49.656,0.135,-0.225
2021-08-19 13:54:49.660,0.135,-0.25
2021-08-19 13:54:49.664,0.145,-0.26
2021-08-19 13:54:49.668,0.14,-0.27
2021-08-19 13:54:49.672,0.115,-0.27
2021-08-19 13:54:49.676,0.095,-0.28
2021-08-19 13:54:49.680,0.11,-0.25
2021-08-19 13:54:49.684,0.11,-0.24
2021-08-19 13:54:49.688,0.12,-0.24
2021-08-19 13:54:49.692,0.13,-0.23
2021-08-19 13:54:49.696,0.13,-0.245
2021-08-19 13:54:49.700,0.14,-0.225
2021-08-19 13:54:49.704,0.125,-0.24
2021-08-19 13:54:49.708,0.11,-0.235
2021-08-19 13:54:49.712,0.075,-0.225
2021-08-19 13:54:49.716,0.085,-0.225
2021-08-19 13:54:49.720,0.1,-0.225
2021-08-19 13:54:49.724,0.08,-0.185
2021-08-19 13:54:49.728,0.11,-0.17
2021-08-19 13:54:49.732,0.11,-0.155
2021-08-19 13:54:49.736,0.12,-0.155
2021-08-19 13:54:49.740,0.14,-0.125
2021-08-19 13:54:49.744,0.13,-0.125
2021-08-19 13:54:49.748,0.145,-0.11
2021-08-19 13:54:49.752,0.135,-0.115
2021-08-19 13:54:49.756,0.11,-0.14
2021-08-19 13:54:49.760,0.105,-0.13
2021-08-19 13:54:49.764,0.1,-0.13
2021-08-19 13:54:49.768,0.13,-0.105
2021-08-19 13:54:49.772,0.12,-0.105
2021-08-19 13:54:49.776,0.145,-0.12
2021-08-19 13:54:49.780,0.13,-0.155
2021-08-19 13:54:49.784,0.12,-0.135
2021-08-19 13:54:49.788,0.135,-0.125
2021-08-19 13:54:49.792,0.085,-0.14
2021-08-19 13:54:49.796,0.085,-0.15
2021-08-19 13:54:49.800,0.07,-0.155
2021-08-19 13:54:49.804,0.08,-0.15
2021-08-19 13:54:49.808,0.095,-0.14
2021-08-19 13:54:49.812,0.085,-0.15
2021-08-19 13:54:49.816,0.1,-0.145
2021-08-19 13:54:49.820,0.115,-0.14
2021-08-19 13:54:49.824,0.105,-0.14
2021-08-19 13:54:49.828,0.11,-0.135
2021-08-19 13:54:49.832,0.09,-0.105
2021-08-19 13:54:49.836,0.07,-0.145
2021-08-19 13:54:49.840,0.055,-0.175
2021-08-19 13:54:49.844,0.055,-0.16
2021-08-19 13:54:49.848,0.05,-0.18
2021-08-19 13:54:49.852,0.055,-0.195
2021-08-19 13:54:49.856,0.075,-0.17
2021-08-19 13:54:49.860,0.07,-0.16
2021-08-19 13:54:49.864,0.085,-0.16
2021-08-19 13:54:49.868,0.09,-0.165
2021-08-19 13:54:49.872,0.055,-0.155
2021-08-19 13:54:49.876,0.03,-0.19
2021-08-19 13:54:49.880,0.03,-0.185
2021-08-19 13:54:49.884,0.005,-0.16
2021-08-19 13:54:49.888,0.025,-0.175
2021-08-19 13:54:49.892,0.02,-0.18
2021-08-19 13:54:49.896,0.035,-0.155
2021-08-19 13:54:49.900,0.035,-0.145
2021-08-19 13:54:49.904,0.045,-0.15
2021-08-19 13:54:49.908,0.015,-0.165
2021-08-19 13:54:49.912,0.03,-0.175
2021-08-19 13:54:49.916,0.02,-0.18
2021-08-19 13:54:49.920,0.0,-0.215
2021-08-19 13:54:49.924,0.0,-0.225
2021-08-19 13:54:49.928,-0.02,-0.22
2021-08-19 13:54:49.932,0.01,-0.2
2021-08-19 13:54:49.936,0.0,-0.185
2021-08-19 13:54:49.940,0.02,-0.195
2021-08-19 13:54:49.944,0.005,-0.185
2021-08-19 13:54:49.948,0.01,-0.21
2021-08-19 13:54:49.952,0.0,-0.225
2021-08-19 13:54:49.956,0.0,-0.24
2021-08-19 13:54:49.960,0.0,-0.24
2021-08-19 13:54:49.964,-0.025,-0.245
2021-08-19 13:54:49.968,-0.005,-0.185
2021-08-19 13:54:49.972,-0.035,-0.19
2021-08-19 13:54:49.976,-0.01,-0.215
2021-08-19 13:54:49.980,-0.01,-0.195
2021-08-19 13:54:49.984,0.01,-0.195
2021-08-19 13:54:49.988,0.005,-0.21
2021-08-19 13:54:49.992,-0.025,-0.235
2021-08-19 13:54:49.996,-0.03,-0.235
2021-08-19 13:54:50.000,-0.03,-0.225
2021-08-19 13:54:50.004,-0.05,-0.235
2021-08-19 13:54:50.008,-0.05,-0.245
2021-08-19 13:54:50.012,-0.04,-0.22
2021-08-19 13:54:50.016,-0.02,-0.195
2021-08-19 13:54:50.020,-0.02,-0.215
2021-08-19 13:54:50.024,0.0,-0.205
2021-08-19 13:54:50.028,-0.01,-0.215
2021-08-19 13:54:50.032,-0.025,-0.215
2021-08-19 13:54:50.036,-0.025,-0.235
2021-08-19 13:54:50.040,-0.055,-0.27
2021-08-19 13:54:50.044,-0.06,-0.23
2021-08-19 13:54:50.048,-0.04,-0.21
2021-08-19 13:54:50.052,-0.04,-0.195
2021-08-19 13:54:50.056,-0.045,-0.195
2021-08-19 13:54:50.060,-0.05,-0.215
2021-08-19 13:54:50.064,-0.03,-0.25
2021-08-19 13:54:50.068,-0.03,-0.23
2021-08-19 13:54:50.072,-0.045,-0.24
2021-08-19 13:54:50.076,-0.055,-0.23
2021-08-19 13:54:50.080,-0.05,-0.22
2021-08-19 13:54:50.084,-0.07,-0.245
2021-08-19 13:54:50.088,-0.08,-0.195
2021-08-19 13:54:50.092,-0.07,-0.195
2021-08-19 13:54:50.096,-0.06,-0.205
2021-08-19 13:54:50.100,-0.055,-0.22
2021-08-19 13:54:50.104,-0.04,-0.205
2021-08-19 13:54:50.108,-0.035,-0.21
2021-08-19 13:54:50.112,-0.04,-0.18
2021-08-19 13:54:50.116,-0.06,-0.225
2021-08-19 13:54:50.120,-0.025,-0.245
2021-08-19 13:54:50.124,-0.075,-0.225
2021-08-19 13:54:50.128,-0.055,-0.235
2021-08-19 13:54:50.132,-0.055,-0.24
2021-08-19 13:54:50.136,-0.045,-0.225
2021-08-19 13:54:50.140,-0.065,-0.21
2021-08-19 13:54:50.144,-0.03,-0.205
2021-08-19 13:54:50.148,-0.03,-0.215
2021-08-19 13:54:50.152,-0.03,-0.195
2021-08-19 13:54:50.156,0.0,-0.205
2021-08-19 13:54:50.160,-0.01,-0.2
2021-08-19 13:54:50.164,-0.025,-0.2
2021-08-19 13:54:50.168,-0.045,-0.205
2021-08-19 13:54:50.172,-0.065,-0.21
2021-08-19 13:54:50.176,-0.045,-0.235
2021-08-19 13:54:50.180,-0.035,-0.24
2021-08-19 13:54:50.184,-0.025,-0.215
2021-08-19 13:54:50.188,-0.015,-0.21
2021-08-19 13:54:50.192,-0.01,-0.225
2021-08-19 13:54:50.196,0.005,-0.215
2021-08-19 13:54:50.200,0.005,-0.205
2021-08-19 13:54:50.204,-0.01,-0.215
2021-08-19 13:54:50.208,-0.04,-0.22
2021-08-19 13:54:50.212,-0.055,-0.215
2021-08-19 13:54:50.216,-0.05,-0.21
2021-08-19 13:54:50.220,-0.05,-0.21
2021-08-19 13:54:50.224,-0.02,-0.21
2021-08-19 13:54:50.228,-0.015,-0.22
2021-08-19 13:54:50.232,-0.015,-0.23
2021-08-19 13:54:50.236,-0.01,-0.195
2021-08-19 13:54:50.240,-0.015,-0.205
2021-08-19 13:54:50.244,-0.025,-0.2
2021-08-19 13:54:50.248,-0.04,-0.195
2021-08-19 13:54:50.252,-0.05,-0.23
2021-08-19 13:54:50.256,-0.04,-0.25
2021-08-19 13:54:50.260,-0.04,-0.215
2021-08-19 13:54:50.264,-0.045,-0.225
2021-08-19 13:54:50.268,-0.045,-0.225
2021-08-19 13:54:50.272,-0.02,-0.21
2021-08-19 13:54:50.276,-0.01,-0.195
2021-08-19 13:54:50.280,-0.01,-0.195
2021-08-19 13:54:50.284,0.0,-0.22
2021-08-19 13:54:50.288,-0.03,-0.22
2021-08-19 13:54:50.292,-0.03,-0.225
2021-08-19 13:54:50.296,-0.04,-0.225
2021-08-19 13:54:50.300,-0.04,-0.235
2021-08-19 13:54:50.304,-0.04,-0.205
2021-08-19 13:54:50.308,-0.035,-0.19
2021-08-19 13:54:50.312,-0.02,-0.19
2021-08-19 13:54:50.316,-0.02,-0.2
2021-08-19 13:54:50.320,0.0,-0.22
2021-08-19 13:54:50.324,0.0,-0.195
2021-08-19 13:54:50.328,-0.015,-0.21
2021-08-19 13:54:50.332,-0.035,-0.24
2021-08-19 13:54:50.336,-0.055,-0.235
2021-08-19 13:54:50.340,-0.065,-0.205
2021-08-19 13:54:50.344,-0.06,-0.17
2021-08-19 13:54:50.348,-0.06,-0.19
2021-08-19 13:54:50.352,-0.035,-0.21
2021-08-19 13:54:50.356,-0.03,-0.205
2021-08-19 13:54:50.360,-0.03,-0.205
2021-08-19 13:54:50.364,-0.035,-0.21
2021-08-19 13:54:50.368,-0.03,-0.21
2021-08-19 13:54:50.372,-0.02,-0.215
2021-08-19 13:54:50.376,-0.045,-0.215
2021-08-19 13:54:50.380,-0.06,-0.23
2021-08-19 13:54:50.384,-0.055,-0.21
2021-08-19 13:54:50.388,-0.08,-0.225
2021-08-19 13:54:50.392,-0.055,-0.175
2021-08-19 13:54:50.396,-0.02,-0.155
2021-08-19 13:54:50.400,-0.03,-0.17
2021-08-19 13:54:50.404,-0.025,-0.2
2021-08-19 13:54:50.408,-0.06,-0.2
2021-08-19 13:54:50.412,-0.04,-0.22
2021-08-19 13:54:50.416,-0.05,-0.21
2021-08-19 13:54:50.420,-0.04,-0.185
2021-08-19 13:54:50.424,-0.035,-0.155
2021-08-19 13:54:50.428,-0.015,-0.12
2021-08-19 13:54:50.432,0.015,-0.105
2021-08-19 13:54:50.436,0.035,-0.1
2021-08-19 13:54:50.440,0.06,-0.095
2021-08-19 13:54:50.444,0.08,-0.115
2021-08-19 13:54:50.448,0.07,-0.07
2021-08-19 13:54:50.452,0.105,-0.055
2021-08-19 13:54:50.456,0.07,-0.01
2021-08-19 13:54:50.460,0.065,0.035
2021-08-19 13:54:50.464,0.05,0.01
2021-08-19 13:54:50.468,0.06,-0.01
2021-08-19 13:54:50.472,0.035,-0.015
2021-08-19 13:54:50.476,0.025,-0.025
2021-08-19 13:54:50.480,0.02,-0.05
2021-08-19 13:54:50.484,0.0,-0.05
2021-08-19 13:54:50.488,-0.025,-0.05
2021-08-19 13:54:50.492,-0.015,-0.08
2021-08-19 13:54:50.496,-0.01,-0.145
2021-08-19 13:54:50.500,-0.005,-0.175
2021-08-19 13:54:50.504,-0.03,-0.19
2021-08-19 13:54:50.508,-0.05,-0.2
2021-08-19 13:54:50.512,-0.04,-0.205
2021-08-19 13:54:50.516,-0.055,-0.225
2021-08-19 13:54:50.520,-0.04,-0.21
2021-08-19 13:54:50.524,-0.03,-0.225
2021-08-19 13:54:50.528,-0.05,-0.2
2021-08-19 13:54:50.532,-0.035,-0.185
2021-08-19 13:54:50.536,-0.025,-0.205
2021-08-19 13:54:50.540,-0.02,-0.235
2021-08-19 13:54:50.544,-0.065,-0.25
2021-08-19 13:54:50.548,-0.065,-0.245
2021-08-19 13:54:50.552,-0.07,-0.265
2021-08-19 13:54:50.556,-0.065,-0.225
2021-08-19 13:54:50.560,-0.065,-0.22
2021-08-19 13:54:50.564,-0.04,-0.19
2021-08-19 13:54:50.568,-0.06,-0.165
2021-08-19 13:54:50.572,-0.035,-0.165
2021-08-19 13:54:50.576,-0.005,-0.21
2021-08-19 13:54:50.580,0.01,-0.215
2021-08-19 13:54:50.584,0.08,-0.23
2021-08-19 13:54:50.588,0.17,-0.24
2021-08-19 13:54:50.592,0.26,-0.17
2021-08-19 13:54:50.596,0.35,0.0
2021-08-19 13:54:50.600,0.555,0.245
2021-08-19 13:54:50.604,0.63,0.545
2021-08-19 13:54:50.608,0.335,0.745
2021-08-19 13:54:50.612,-0.14,0.735
2021-08-19 13:54:50.616,-0.71,0.515
2021-08-19 13:54:50.620,-1.06,0.26
2021-08-19 13:54:50.624,-1.325,0.025
2021-08-19 13:54:50.628,-1.555,-0.07
2021-08-19 13:54:50.632,-1.64,0.05
2021-08-19 13:54:50.636,-1.395,0.12
2021-08-19 13:54:50.640,-1.02,0.09
2021-08-19 13:54:50.644,-0.765,0.02
2021-08-19 13:54:50.648,-0.56,-0.07
2021-08-19 13:54:50.652,-0.38,-0.13
2021-08-19 13:54:50.656,-0.26,-0.165
2021-08-19 13:54:50.660,-0.165,-0.205
2021-08-19 13:54:50.664,-0.125,-0.205
2021-08-19 13:54:50.668,-0.11,-0.24
2021-08-19 13:54:50.672,-0.08,-0.235
2021-08-19 13:54:50.676,-0.095,-0.235
2021-08-19 13:54:50.680,-0.08,-0.24
2021-08-19 13:54:50.684,-0.055,-0.225
2021-08-19 13:54:50.688,-0.04,-0.23
2021-08-19 13:54:50.692,-0.04,-0.255
2021-08-19 13:54:50.696,-0.04,-0.235
2021-08-19 13:54:50.700,-0.02,-0.215
2021-08-19 13:54:50.704,-0.02,-0.25
2021-08-19 13:54:50.708,0.0,-0.265
2021-08-19 13:54:50.712,0.0,-0.27
2021-08-19 13:54:50.716,0.0,-0.285
2021-08-19 13:54:50.720,-0.015,-0.27
2021-08-19 13:54:50.724,-0.02,-0.26
2021-08-19 13:54:50.728,-0.015,-0.255
2021-08-19 13:54:50.732,0.0,-0.255
2021-08-19 13:54:50.736,0.005,-0.26
2021-08-19 13:54:50.740,0.015,-0.24
2021-08-19 13:54:50.744,0.025,-0.25
2021-08-19 13:54:50.748,0.005,-0.25
2021-08-19 13:54:50.752,0.01,-0.255
2021-08-19 13:54:50.756,0.005,-0.27
2021-08-19 13:54:50.760,-0.005,-0.285
2021-08-19 13:54:50.764,-0.025,-0.285
2021-08-19 13:54:50.768,-0.02,-0.24
2021-08-19 13:54:50.772,-0.005,-0.26
2021-08-19 13:54:50.776,-0.02,-0.24
2021-08-19 13:54:50.780,0.0,-0.22
2021-08-19 13:54:50.784,0.02,-0.215
2021-08-19 13:54:50.788,0.04,-0.21
2021-08-19 13:54:50.792,0.03,-0.195
2021-08-19 13:54:50.796,0.005,-0.22
2021-08-19 13:54:50.800,0.015,-0.23
2021-08-19 13:54:50.804,0.0,-0.225
2021-08-19 13:54:50.808,-0.04,-0.24
2021-08-19 13:54:50.812,-0.035,-0.215
2021-08-19 13:54:50.816,0.005,-0.205
2021-08-19 13:54:50.820,-0.01,-0.18
2021-08-19 13:54:50.824,0.01,-0.165
2021-08-19 13:54:50.828,0.02,-0.17
2021-08-19 13:54:50.832,0.015,-0.135
2021-08-19 13:54:50.836,0.01,-0.155
2021-08-19 13:54:50.840,0.015,-0.14
2021-08-19 13:54:50.844,-0.01,-0.135
2021-08-19 13:54:50.848,-0.005,-0.135
2021-08-19 13:54:50.852,-0.01,-0.14
2021-08-19 13:54:50.856,-0.01,-0.125
2021-08-19 13:54:50.860,-0.01,-0.1
2021-08-19 13:54:50.864,-0.01,-0.1
2021-08-19 13:54:50.868,0.025,-0.095
2021-08-19 13:54:50.872,0.02,-0.09
2021-08-19 13:54:50.876,0.02,-0.08
2021-08-19 13:54:50.880,0.025,-0.065
2021-08-19 13:54:50.884,0.005,-0.065
2021-08-19 13:54:50.888,0.005,-0.06
2021-08-19 13:54:50.892,0.0,-0.05
2021-08-19 13:54:50.896,-0.005,-0.04
2021-08-19 13:54:50.900,0.0,-0.03
2021-08-19 13:54:50.904,-0.01,-0.02
2021-08-19 13:54:50.908,0.015,0.005
2021-08-19 13:54:50.912,0.035,0.02
2021-08-19 13:54:50.916,0.035,0.06
2021-08-19 13:54:50.920,0.045,0.065
2021-08-19 13:54:50.924,0.05,0.085
2021-08-19 13:54:50.928,0.08,0.095
2021-08-19 13:54:50.932,0.08,0.135
2021-08-19 13:54:50.936,0.1,0.18
2021-08-19 13:54:50.940,0.13,0.205
2021-08-19 13:54:50.944,0.125,0.17
2021-08-19 13:54:50.948,0.14,0.175
2021-08-19 13:54:50.952,0.16,0.2
2021-08-19 13:54:50.956,0.195,0.195
2021-08-19 13:54:50.960,0.205,0.17
2021-08-19 13:54:50.964,0.235,0.125
2021-08-19 13:54:50.968,0.23,0.09
2021-08-19 13:54:50.972,0.245,0.035
2021-08-19 13:54:50.976,0.23,-0.005
2021-08-19 13:54:50.980,0.225,-0.035
2021-08-19 13:54:50.984,0.17,-0.04
2021-08-19 13:54:50.988,0.15,-0.055
2021-08-19 13:54:50.992,0.195,-0.07
2021-08-19 13:54:50.996,0.185,-0.07
2021-08-19 13:54:51.000,0.19,-0.09
2021-08-19 13:54:51.004,0.15,-0.065
2021-08-19 13:54:51.008,0.13,-0.095
2021-08-19 13:54:51.012,0.105,-0.145
2021-08-19 13:54:51.016,0.07,-0.155
2021-08-19 13:54:51.020,0.035,-0.17
2021-08-19 13:54:51.024,0.025,-0.18
2021-08-19 13:54:51.028,-0.005,-0.175
2021-08-19 13:54:51.032,-0.025,-0.18
2021-08-19 13:54:51.036,-0.03,-0.18
2021-08-19 13:54:51.040,-0.035,-0.175
2021-08-19 13:54:51.044,-0.06,-0.185
2021-08-19 13:54:51.048,-0.04,-0.185
2021-08-19 13:54:51.052,-0.06,-0.195
2021-08-19 13:54:51.056,-0.085,-0.22
2021-08-19 13:54:51.060,-0.1,-0.215
2021-08-19 13:54:51.064,-0.095,-0.22
2021-08-19 13:54:51.068,-0.095,-0.225
2021-08-19 13:54:51.072,-0.105,-0.215
2021-08-19 13:54:51.076,-0.105,-0.215
2021-08-19 13:54:51.080,-0.1,-0.22
2021-08-19 13:54:51.084,-0.085,-0.215
2021-08-19 13:54:51.088,-0.09,-0.235
2021-08-19 13:54:51.092,-0.09,-0.265
2021-08-19 13:54:51.096,-0.13,-0.255
2021-08-19 13:54:51.100,-0.13,-0.265
2021-08-19 13:54:51.104,-0.165,-0.275
2021-08-19 13:54:51.108,-0.16,-0.255
2021-08-19 13:54:51.112,-0.16,-0.26
2021-08-19 13:54:51.116,-0.145,-0.235
2021-08-19 13:54:51.120,-0.135,-0.245
2021-08-19 13:54:51.124,-0.135,-0.255
2021-08-19 13:54:51.128,-0.13,-0.24
2021-08-19 13:54:51.132,-0.135,-0.22
2021-08-19 13:54:51.136,-0.155,-0.23
2021-08-19 13:54:51.140,-0.165,-0.27
2021-08-19 13:54:51.144,-0.175,-0.305
2021-08-19 13:54:51.148,-0.19,-0.295
2021-08-19 13:54:51.152,-0.17,-0.27
2021-08-19 13:54:51.156,-0.16,-0.275
2021-08-19 13:54:51.160,-0.16,-0.25
2021-08-19 13:54:51.164,-0.17,-0.255
2021-08-19 13:54:51.168,-0.13,-0.26
2021-08-19 13:54:51.172,-0.14,-0.26
2021-08-19 13:54:51.176,-0.15,-0.23
2021-08-19 13:54:51.180,-0.15,-0.27
2021-08-19 13:54:51.184,-0.14,-0.305
2021-08-19 13:54:51.188,-0.175,-0.295
2021-08-19 13:54:51.192,-0.155,-0.28
2021-08-19 13:54:51.196,-0.07,-0.21
2021-08-19 13:54:51.200,0.095,-0.1
2021-08-19 13:54:51.204,0.08,0.055
2021-08-19 13:54:51.208,-0.305,0.245
2021-08-19 13:54:51.212,-0.93,0.4
2021-08-19 13:54:51.216,-1.685,0.515
2021-08-19 13:54:51.260,-1.735,0.22
2021-08-19 13:54:51.264,-1.525,0.085
2021-08-19 13:54:51.268,-1.335,-0.04
2021-08-19 13:54:51.272,-1.135,-0.075
2021-08-19 13:54:51.276,-0.9,-0.09
2021-08-19 13:54:51.280,-0.625,-0.13
2021-08-19 13:54:51.284,-0.42,-0.18
2021-08-19 13:54:51.288,-0.28,-0.225
2021-08-19 13:54:51.292,-0.155,-0.3
2021-08-19 13:54:51.296,-0.04,-0.35
2021-08-19 13:54:51.300,0.05,-0.32
2021-08-19 13:54:51.304,0.07,-0.335
2021-08-19 13:54:51.308,0.09,-0.35
2021-08-19 13:54:51.312,0.095,-0.39
2021-08-19 13:54:51.316,0.085,-0.39
2021-08-19 13:54:51.320,0.095,-0.365
2021-08-19 13:54:51.324,0.11,-0.365
2021-08-19 13:54:51.328,0.115,-0.35
2021-08-19 13:54:51.332,0.145,-0.33
2021-08-19 13:54:51.336,0.195,-0.335
2021-08-19 13:54:51.340,0.21,-0.36
2021-08-19 13:54:51.344,0.24,-0.36
2021-08-19 13:54:51.348,0.215,-0.36
2021-08-19 13:54:51.352,0.22,-0.41
2021-08-19 13:54:51.356,0.23,-0.395
2021-08-19 13:54:51.360,0.225,-0.385
2021-08-19 13:54:51.364,0.245,-0.385
2021-08-19 13:54:51.368,0.245,-0.395
2021-08-19 13:54:51.372,0.28,-0.38
2021-08-19 13:54:51.376,0.3,-0.355
2021-08-19 13:54:51.380,0.33,-0.36
2021-08-19 13:54:51.384,0.345,-0.365
2021-08-19 13:54:51.388,0.345,-0.375
2021-08-19 13:54:51.392,0.36,-0.335
2021-08-19 13:54:51.396,0.39,-0.335
2021-08-19 13:54:51.400,0.41,-0.355
2021-08-19 13:54:51.404,0.415,-0.395
2021-08-19 13:54:51.408,0.425,-0.4
2021-08-19 13:54:51.412,0.435,-0.365
2021-08-19 13:54:51.416,0.465,-0.345
2021-08-19 13:54:51.420,0.475,-0.335
2021-08-19 13:54:51.424,0.51,-0.345
2021-08-19 13:54:51.428,0.545,-0.325
2021-08-19 13:54:51.432,0.56,-0.35
2021-08-19 13:54:51.436,0.58,-0.37
2021-08-19 13:54:51.440,0.59,-0.355
2021-08-19 13:54:51.444,0.605,-0.375
2021-08-19 13:54:51.448,0.595,-0.35
2021-08-19 13:54:51.452,0.635,-0.32
2021-08-19 13:54:51.456,0.645,-0.355
2021-08-19 13:54:51.460,0.685,-0.33
2021-08-19 13:54:51.464,0.675,-0.35
2021-08-19 13:54:51.468,0.71,-0.345
2021-08-19 13:54:51.472,0.76,-0.345
2021-08-19 13:54:51.476,0.75,-0.32
2021-08-19 13:54:51.480,0.775,-0.34
2021-08-19 13:54:51.484,0.735,-0.35
2021-08-19 13:54:51.488,0.755,-0.335
2021-08-19 13:54:51.492,0.77,-0.335
2021-08-19 13:54:51.496,0.775,-0.36
2021-08-19 13:54:51.500,0.775,-0.325
2021-08-19 13:54:51.504,0.78,-0.33
2021-08-19 13:54:51.508,0.8,-0.315
2021-08-19 13:54:51.512,0.79,-0.295
2021-08-19 13:54:51.516,0.805,-0.295
2021-08-19 13:54:51.520,0.785,-0.26
2021-08-19 13:54:51.524,0.765,-0.255
2021-08-19 13:54:51.528,0.75,-0.26
2021-08-19 13:54:51.532,0.68,-0.25
2021-08-19 13:54:51.536,0.64,-0.235
2021-08-19 13:54:51.540,0.585,-0.195
2021-08-19 13:54:51.544,0.555,-0.15
2021-08-19 13:54:51.548,0.47,-0.095
2021-08-19 13:54:51.552,0.43,-0.11
2021-08-19 13:54:51.556,0.395,-0.09
2021-08-19 13:54:51.560,0.32,-0.105
2021-08-19 13:54:51.564,0.255,-0.11
2021-08-19 13:54:51.568,0.21,-0.115
2021-08-19 13:54:51.572,0.13,-0.105
2021-08-19 13:54:51.576,0.04,-0.135
2021-08-19 13:54:51.580,-0.04,-0.14
2021-08-19 13:54:51.584,-0.08,-0.145
2021-08-19 13:54:51.588,-0.1,-0.14
2021-08-19 13:54:51.592,-0.12,-0.12
2021-08-19 13:54:51.596,-0.125,-0.08
2021-08-19 13:54:51.600,-0.125,-0.12
2021-08-19 13:54:51.604,-0.15,-0.13
2021-08-19 13:54:51.608,-0.165,-0.145
2021-08-19 13:54:51.612,-0.16,-0.16
2021-08-19 13:54:51.616,-0.18,-0.195
2021-08-19 13:54:51.620,-0.2,-0.165
2021-08-19 13:54:51.624,-0.2,-0.135
2021-08-19 13:54:51.628,-0.21,-0.125
2021-08-19 13:54:51.632,-0.2,-0.12
2021-08-19 13:54:51.636,-0.19,-0.15
2021-08-19 13:54:51.640,-0.16,-0.155
2021-08-19 13:54:51.644,-0.175,-0.155
2021-08-19 13:54:51.648,-0.18,-0.12
2021-08-19 13:54:51.652,-0.195,-0.135
2021-08-19 13:54:51.656,-0.2,-0.135
2021-08-19 13:54:51.660,-0.18,-0.13
2021-08-19 13:54:51.664,-0.205,-0.16
2021-08-19 13:54:51.668,-0.195,-0.15
2021-08-19 13:54:51.672,-0.19,-0.165
2021-08-19 13:54:51.676,-0.195,-0.17
2021-08-19 13:54:51.680,-0.21,-0.145
2021-08-19 13:54:51.684,-0.195,-0.145
2021-08-19 13:54:51.688,-0.175,-0.14
2021-08-19 13:54:51.692,-0.2,-0.17
2021-08-19 13:54:51.696,-0.235,-0.165
2021-08-19 13:54:51.700,-0.21,-0.175
2021-08-19 13:54:51.704,-0.23,-0.155
2021-08-19 13:54:51.708,-0.25,-0.17
2021-08-19 13:54:51.712,-0.245,-0.16
2021-08-19 13:54:51.716,-0.26,-0.17
2021-08-19 13:54:51.720,-0.24,-0.16
2021-08-19 13:54:51.724,-0.245,-0.15
2021-08-19 13:54:51.728,-0.25,-0.17
2021-08-19 13:54:51.732,-0.24,-0.155
2021-08-19 13:54:51.736,-0.235,-0.155
2021-08-19 13:54:51.740,-0.22,-0.17
2021-08-19 13:54:51.744,-0.23,-0.16
2021-08-19 13:54:51.748,-0.275,-0.195
2021-08-19 13:54:51.752,-0.28,-0.18
2021-08-19 13:54:51.756,-0.27,-0.16
2021-08-19 13:54:51.760,-0.29,-0.16
2021-08-19 13:54:51.764,-0.26,-0.135
2021-08-19 13:54:51.768,-0.24,-0.125
2021-08-19 13:54:51.772,-0.25,-0.145
2021-08-19 13:54:51.776,-0.225,-0.17
2021-08-19 13:54:51.780,-0.25,-0.155
2021-08-19 13:54:51.784,-0.245,-0.18
2021-08-19 13:54:51.788,-0.26,-0.19
2021-08-19 13:54:51.792,-0.28,-0.155
2021-08-19 13:54:51.796,-0.285,-0.16
2021-08-19 13:54:51.800,-0.275,-0.185
2021-08-19 13:54:51.804,-0.29,-0.185
2021-08-19 13:54:51.808,-0.265,-0.14
2021-08-19 13:54:51.812,-0.275,-0.17
2021-08-19 13:54:51.816,-0.27,-0.17
2021-08-19 13:54:51.820,-0.26,-0.16
2021-08-19 13:54:51.824,-0.28,-0.17
2021-08-19 13:54:51.828,-0.29,-0.165
2021-08-19 13:54:51.832,-0.295,-0.17
2021-08-19 13:54:51.836,-0.305,-0.175
2021-08-19 13:54:51.840,-0.3,-0.175
2021-08-19 13:54:51.844,-0.315,-0.16
2021-08-19 13:54:51.848,-0.315,-0.15
2021-08-19 13:54:51.852,-0.3,-0.14
2021-08-19 13:54:51.856,-0.295,-0.16
2021-08-19 13:54:51.860,-0.275,-0.175
2021-08-19 13:54:51.864,-0.285,-0.145
2021-08-19 13:54:51.868,-0.275,-0.13
2021-08-19 13:54:51.872,-0.29,-0.13
2021-08-19 13:54:51.876,-0.31,-0.165
2021-08-19 13:54:51.880,-0.33,-0.18
2021-08-19 13:54:51.884,-0.32,-0.16
2021-08-19 13:54:51.888,-0.315,-0.17
2021-08-19 13:54:51.892,-0.31,-0.16
2021-08-19 13:54:51.896,-0.3,-0.175
2021-08-19 13:54:51.900,-0.275,-0.155
2021-08-19 13:54:51.904,-0.265,-0.175
2021-08-19 13:54:51.908,-0.27,-0.175
2021-08-19 13:54:51.912,-0.275,-0.155
2021-08-19 13:54:51.916,-0.285,-0.175
2021-08-19 13:54:51.920,-0.31,-0.21
2021-08-19 13:54:51.924,-0.315,-0.2
2021-08-19 13:54:51.928,-0.305,-0.19
2021-08-19 13:54:51.932,-0.28,-0.17
2021-08-19 13:54:51.936,-0.26,-0.18
2021-08-19 13:54:51.940,-0.27,-0.18
2021-08-19 13:54:51.944,-0.255,-0.17
2021-08-19 13:54:51.948,-0.27,-0.17
2021-08-19 13:54:51.952,-0.25,-0.18
2021-08-19 13:54:51.956,-0.26,-0.175
2021-08-19 13:54:51.960,-0.27,-0.175
2021-08-19 13:54:51.964,-0.28,-0.2
2021-08-19 13:54:51.968,-0.285,-0.16
2021-08-19 13:54:51.972,-0.27,-0.16
2021-08-19 13:54:51.976,-0.27,-0.17
2021-08-19 13:54:51.980,-0.265,-0.14
2021-08-19 13:54:51.984,-0.25,-0.175
2021-08-19 13:54:51.988,-0.265,-0.16
2021-08-19 13:54:51.992,-0.245,-0.185
2021-08-19 13:54:51.996,-0.225,-0.17
2021-08-19 13:54:52.000,-0.265,-0.2
2021-08-19 13:54:52.004,-0.285,-0.21
2021-08-19 13:54:52.008,-0.27,-0.19
2021-08-19 13:54:52.012,-0.295,-0.19
2021-08-19 13:54:52.016,-0.285,-0.18
2021-08-19 13:54:52.020,-0.27,-0.16
2021-08-19 13:54:52.024,-0.25,-0.175
2021-08-19 13:54:52.028,-0.26,-0.165
2021-08-19 13:54:52.032,-0.24,-0.17
2021-08-19 13:54:52.036,-0.24,-0.185
2021-08-19 13:54:52.040,-0.245,-0.19
2021-08-19 13:54:52.044,-0.25,-0.19
2021-08-19 13:54:52.048,-0.28,-0.18
2021-08-19 13:54:52.052,-0.275,-0.165
2021-08-19 13:54:52.056,-0.275,-0.17
2021-08-19 13:54:52.060,-0.26,-0.15
2021-08-19 13:54:52.064,-0.28,-0.145
2021-08-19 13:54:52.068,-0.275,-0.17
2021-08-19 13:54:52.072,-0.265,-0.17
2021-08-19 13:54:52.076,-0.275,-0.165
2021-08-19 13:54:52.080,-0.28,-0.17
2021-08-19 13:54:52.084,-0.295,-0.185
2021-08-19 13:54:52.088,-0.315,-0.19
2021-08-19 13:54:52.092,-0.305,-0.2
2021-08-19 13:54:52.096,-0.29,-0.195
2021-08-19 13:54:52.100,-0.295,-0.19
2021-08-19 13:54:52.104,-0.315,-0.155
2021-08-19 13:54:52.108,-0.31,-0.18
2021-08-19 13:54:52.112,-0.29,-0.165
2021-08-19 13:54:52.116,-0.28,-0.185
2021-08-19 13:54:52.120,-0.28,-0.155
2021-08-19 13:54:52.124,-0.295,-0.18
2021-08-19 13:54:52.128,-0.285,-0.205
2021-08-19 13:54:52.132,-0.3,-0.19
2021-08-19 13:54:52.136,-0.305,-0.175
2021-08-19 13:54:52.140,-0.305,-0.16
2021-08-19 13:54:52.144,-0.3,-0.18
2021-08-19 13:54:52.148,-0.29,-0.21
2021-08-19 13:54:52.152,-0.28,-0.18
2021-08-19 13:54:52.156,-0.26,-0.165
2021-08-19 13:54:52.160,-0.27,-0.175
2021-08-19 13:54:52.164,-0.26,-0.18
2021-08-19 13:54:52.168,-0.28,-0.17
2021-08-19 13:54:52.172,-0.28,-0.2
2021-08-19 13:54:52.176,-0.3,-0.21
2021-08-19 13:54:52.180,-0.32,-0.185
2021-08-19 13:54:52.184,-0.325,-0.19
2021-08-19 13:54:52.188,-0.295,-0.18
2021-08-19 13:54:52.192,-0.305,-0.18
2021-08-19 13:54:52.196,-0.305,-0.17
2021-08-19 13:54:52.200,-0.285,-0.16
2021-08-19 13:54:52.204,-0.275,-0.17
2021-08-19 13:54:52.208,-0.275,-0.155
2021-08-19 13:54:52.212,-0.27,-0.125
2021-08-19 13:54:52.216,-0.24,-0.12
2021-08-19 13:54:52.220,-0.245,-0.115
2021-08-19 13:54:52.224,-0.23,-0.125
2021-08-19 13:54:52.228,-0.24,-0.12
2021-08-19 13:54:52.232,-0.23,-0.105
2021-08-19 13:54:52.236,-0.215,-0.055
2021-08-19 13:54:52.240,-0.175,-0.05
2021-08-19 13:54:52.244,-0.175,-0.005
2021-08-19 13:54:52.248,-0.145,0.0
2021-08-19 13:54:52.252,-0.165,0.0
2021-08-19 13:54:52.256,-0.18,-0.01
2021-08-19 13:54:52.260,-0.19,-0.035
2021-08-19 13:54:52.264,-0.22,-0.07
2021-08-19 13:54:52.268,-0.245,-0.11
2021-08-19 13:54:52.272,-0.26,-0.07
2021-08-19 13:54:52.276,-0.255,-0.055
2021-08-19 13:54:52.280,-0.265,-0.05
2021-08-19 13:54:52.284,-0.245,-0.07
2021-08-19 13:54:52.288,-0.215,-0.11
2021-08-19 13:54:52.292,-0.22,-0.16
2021-08-19 13:54:52.296,-0.22,-0.205
2021-08-19 13:54:52.300,-0.245,-0.22
2021-08-19 13:54:52.304,-0.26,-0.25
2021-08-19 13:54:52.308,-0.28,-0.25
2021-08-19 13:54:52.312,-0.3,-0.225
2021-08-19 13:54:52.316,-0.285,-0.215
2021-08-19 13:54:52.320,-0.265,-0.21
2021-08-19 13:54:52.324,-0.26,-0.205
2021-08-19 13:54:52.328,-0.245,-0.195
2021-08-19 13:54:52.332,-0.235,-0.225
2021-08-19 13:54:52.336,-0.265,-0.21
2021-08-19 13:54:52.340,-0.275,-0.21
2021-08-19 13:54:52.344,-0.265,-0.225
2021-08-19 13:54:52.348,-0.265,-0.22
2021-08-19 13:54:52.352,-0.285,-0.22
2021-08-19 13:54:52.356,-0.275,-0.215
2021-08-19 13:54:52.360,-0.27,-0.21
2021-08-19 13:54:52.364,-0.28,-0.13
2021-08-19 13:54:52.368,-0.23,-0.15
2021-08-19 13:54:52.372,-0.195,-0.16
2021-08-19 13:54:52.376,-0.055,-0.155
2021-08-19 13:54:52.380,0.065,-0.14
2021-08-19 13:54:52.384,0.13,-0.03
2021-08-19 13:54:52.388,0.315,0.15
2021-08-19 13:54:52.392,0.48,0.44
2021-08-19 13:54:52.396,0.335,0.745
2021-08-19 13:54:52.400,-0.1,0.895
2021-08-19 13:54:52.404,-0.635,0.745
2021-08-19 13:54:52.408,-1.09,0.475
2021-08-19 13:54:52.412,-1.375,0.225
2021-08-19 13:54:52.416,-1.64,0.035
2021-08-19 13:54:52.420,-1.83,0.045
2021-08-19 13:54:52.424,-1.77,0.185
2021-08-19 13:54:52.428,-1.375,0.175
2021-08-19 13:54:52.432,-1.045,0.075
2021-08-19 13:54:52.436,-0.83,0.0
2021-08-19 13:54:52.440,-0.645,-0.07
2021-08-19 13:54:52.444,-0.48,-0.09
2021-08-19 13:54:52.448,-0.395,-0.11
2021-08-19 13:54:52.452,-0.305,-0.12
2021-08-19 13:54:52.456,-0.31,-0.14
2021-08-19 13:54:52.460,-0.285,-0.15
2021-08-19 13:54:52.464,-0.25,-0.175
2021-08-19 13:54:52.468,-0.24,-0.19
2021-08-19 13:54:52.472,-0.255,-0.17
2021-08-19 13:54:52.476,-0.24,-0.165
2021-08-19 13:54:52.480,-0.22,-0.17
2021-08-19 13:54:52.484,-0.225,-0.155
2021-08-19 13:54:52.488,-0.225,-0.15
2021-08-19 13:54:52.492,-0.195,-0.145
2021-08-19 13:54:52.496,-0.18,-0.145
2021-08-19 13:54:52.500,-0.175,-0.125
2021-08-19 13:54:52.504,-0.165,-0.155
2021-08-19 13:54:52.508,-0.17,-0.16
2021-08-19 13:54:52.512,-0.185,-0.155
2021-08-19 13:54:52.516,-0.175,-0.185
2021-08-19 13:54:52.520,-0.195,-0.175
2021-08-19 13:54:52.524,-0.19,-0.165
2021-08-19 13:54:52.528,-0.19,-0.15
2021-08-19 13:54:52.532,-0.16,-0.125
2021-08-19 13:54:52.536,-0.155,-0.105
2021-08-19 13:54:52.540,-0.155,-0.11
2021-08-19 13:54:52.544,-0.12,-0.09
2021-08-19 13:54:52.548,-0.14,-0.09
2021-08-19 13:54:52.552,-0.14,-0.13
2021-08-19 13:54:52.556,-0.15,-0.12
2021-08-19 13:54:52.560,-0.16,-0.14
2021-08-19 13:54:52.564,-0.165,-0.12
2021-08-19 13:54:52.568,-0.155,-0.11
2021-08-19 13:54:52.572,-0.15,-0.08
2021-08-19 13:54:52.576,-0.11,-0.07
2021-08-19 13:54:52.580,-0.095,-0.06
2021-08-19 13:54:52.584,-0.105,-0.065
2021-08-19 13:54:52.588,-0.105,-0.055
2021-08-19 13:54:52.592,-0.08,-0.085
2021-08-19 13:54:52.596,-0.095,-0.05
2021-08-19 13:54:52.600,-0.13,-0.055
2021-08-19 13:54:52.604,-0.125,-0.04
2021-08-19 13:54:52.608,-0.12,-0.04
2021-08-19 13:54:52.612,-0.12,-0.035
2021-08-19 13:54:52.616,-0.11,-0.01
2021-08-19 13:54:52.620,-0.075,0.015
2021-08-19 13:54:52.624,-0.06,0.005
2021-08-19 13:54:52.628,-0.05,-0.01
2021-08-19 13:54:52.632,-0.06,-0.005
2021-08-19 13:54:52.636,-0.08,0.0
2021-08-19 13:54:52.640,-0.1,0.01
2021-08-19 13:54:52.644,-0.115,0.015
2021-08-19 13:54:52.648,-0.115,0.045
2021-08-19 13:54:52.652,-0.12,0.06
2021-08-19 13:54:52.656,-0.11,0.07
2021-08-19 13:54:52.660,-0.115,0.08
2021-08-19 13:54:52.664,-0.095,0.07
2021-08-19 13:54:52.668,-0.08,0.1
2021-08-19 13:54:52.672,-0.08,0.09
2021-08-19 13:54:52.676,-0.115,0.07
2021-08-19 13:54:52.680,-0.105,0.09
2021-08-19 13:54:52.684,-0.115,0.1
2021-08-19 13:54:52.688,-0.13,0.105
2021-08-19 13:54:52.692,-0.13,0.17
2021-08-19 13:54:52.696,-0.115,0.21
2021-08-19 13:54:52.700,-0.105,0.23
2021-08-19 13:54:52.704,-0.045,0.245
2021-08-19 13:54:52.708,-0.015,0.265
2021-08-19 13:54:52.712,-0.01,0.29
2021-08-19 13:54:52.716,-0.005,0.28
2021-08-19 13:54:52.720,0.05,0.295
2021-08-19 13:54:52.724,0.045,0.305
2021-08-19 13:54:52.728,0.055,0.315
2021-08-19 13:54:52.732,0.055,0.33
2021-08-19 13:54:52.736,0.055,0.355
2021-08-19 13:54:52.740,0.105,0.375
2021-08-19 13:54:52.744,0.175,0.33
2021-08-19 13:54:52.748,0.18,0.29
2021-08-19 13:54:52.752,0.215,0.26
2021-08-19 13:54:52.756,0.24,0.2
2021-08-19 13:54:52.760,0.21,0.15
2021-08-19 13:54:52.764,0.19,0.105
2021-08-19 13:54:52.768,0.145,0.08
2021-08-19 13:54:52.772,0.12,0.08
2021-08-19 13:54:52.776,0.08,0.075
2021-08-19 13:54:52.780,0.08,0.06
2021-08-19 13:54:52.784,0.055,0.055
2021-08-19 13:54:52.788,0.05,0.06
2021-08-19 13:54:52.792,0.035,0.035
2021-08-19 13:54:52.796,-0.01,0.03
2021-08-19 13:54:52.800,-0.025,0.005
2021-08-19 13:54:52.804,-0.05,-0.04
2021-08-19 13:54:52.808,-0.095,-0.05
2021-08-19 13:54:52.812,-0.12,-0.085
2021-08-19 13:54:52.816,-0.165,-0.075
2021-08-19 13:54:52.820,-0.18,-0.055
2021-08-19 13:54:52.824,-0.155,-0.035
2021-08-19 13:54:52.828,-0.155,-0.025
2021-08-19 13:54:52.832,-0.14,-0.045
2021-08-19 13:54:52.836,-0.14,-0.04
2021-08-19 13:54:52.840,-0.14,-0.05
2021-08-19 13:54:52.844,-0.15,-0.075
2021-08-19 13:54:52.848,-0.16,-0.07
2021-08-19 13:54:52.852,-0.18,-0.09
