Time,ECG1,ECG2
2021-08-19 18:12:28.008,-0.19,0.0
2021-08-19 18:12:28.012,-0.115,-0.02
2021-08-19 18:12:28.016,-0.06,-0.01
2021-08-19 18:12:28.020,-0.23,0.09
2021-08-19 18:12:28.024,-0.36,0.145
2021-08-19 18:12:28.028,-0.225,-0.03
2021-08-19 18:12:28.032,-0.09,-0.21
2021-08-19 18:12:28.036,-0.19,-0.175
2021-08-19 18:12:28.040,-0.225,-0.16
2021-08-19 18:12:28.044,-0.04,-0.15
2021-08-19 18:12:28.048,-0.015,-0.08
2021-08-19 18:12:28.052,-0.255,-0.075
2021-08-19 18:12:28.056,-0.17,-0.105
2021-08-19 18:12:28.060,-0.12,-0.08
2021-08-19 18:12:28.064,-0.255,-0.145
2021-08-19 18:12:28.068,-0.485,-0.01
2021-08-19 18:12:28.072,-0.495,0.065
2021-08-19 18:12:28.076,-0.3,-0.005
2021-08-19 18:12:28.080,-0.115,-0.12
2021-08-19 18:12:28.084,-0.08,-0.15
2021-08-19 18:12:28.088,0.01,-0.115
2021-08-19 18:12:28.092,-0.155,-0.16
2021-08-19 18:12:28.096,-0.34,-0.14
2021-08-19 18:12:28.100,-0.24,-0.105
2021-08-19 18:12:28.104,-0.185,-0.195
2021-08-19 18:12:28.108,-0.25,-0.2
2021-08-19 18:12:28.112,-0.235,-0.225
2021-08-19 18:12:28.116,-0.345,-0.175
2021-08-19 18:12:28.120,-0.38,-0.1
2021-08-19 18:12:28.124,-0.24,-0.095
2021-08-19 18:12:28.128,-0.37,-0.055
2021-08-19 18:12:28.132,-0.4,-0.035
2021-08-19 18:12:28.136,-0.235,-0.145
2021-08-19 18:12:28.140,-0.115,-0.16
2021-08-19 18:12:28.144,-0.13,-0.18
2021-08-19 18:12:28.148,-0.265,-0.085
2021-08-19 18:12:28.152,-0.355,-0.035
2021-08-19 18:12:28.156,-0.32,-0.06
2021-08-19 18:12:28.160,-0.295,0.0
2021-08-19 18:12:28.164,-0.155,-0.015
2021-08-19 18:12:28.168,-0.185,-0.05
2021-08-19 18:12:28.172,-0.315,-0.12
2021-08-19 18:12:28.176,-0.39,-0.215
2021-08-19 18:12:28.180,-0.34,-0.23
2021-08-19 18:12:28.184,-0.14,-0.18
2021-08-19 18:12:28.188,-0.155,-0.17
2021-08-19 18:12:28.192,-0.265,-0.135
2021-08-19 18:12:28.196,-0.335,-0.095
2021-08-19 18:12:28.200,-0.47,-0.05
2021-08-19 18:12:28.204,-0.515,-0.03
2021-08-19 18:12:28.208,-0.385,-0.065
2021-08-19 18:12:28.212,-0.265,-0.125
2021-08-19 18:12:28.216,-0.22,-0.22
2021-08-19 18:12:28.220,-0.25,-0.26
2021-08-19 18:12:28.224,-0.275,-0.22
2021-08-19 18:12:28.228,-0.27,-0.175
2021-08-19 18:12:28.232,-0.295,-0.13
2021-08-19 18:12:28.236,-0.41,-0.075
2021-08-19 18:12:28.240,-0.495,-0.095
2021-08-19 18:12:28.244,-0.47,-0.075
2021-08-19 18:12:28.248,-0.25,-0.07
2021-08-19 18:12:28.252,-0.16,-0.06
2021-08-19 18:12:28.256,-0.295,-0.025
2021-08-19 18:12:28.260,-0.25,-0.005
2021-08-19 18:12:28.264,-0.23,-0.065
2021-08-19 18:12:28.268,-0.475,-0.14
2021-08-19 18:12:28.272,-0.6,-0.2
2021-08-19 18:12:28.276,-0.415,-0.24
2021-08-19 18:12:28.280,-0.22,-0.335
2021-08-19 18:12:28.284,-0.18,-0.195
2021-08-19 18:12:28.288,-0.27,-0.075
2021-08-19 18:12:28.292,-0.265,0.015
2021-08-19 18:12:28.296,-0.28,-0.14
2021-08-19 18:12:28.300,-0.16,-0.33
2021-08-19 18:12:28.304,-0.075,-0.305
2021-08-19 18:12:28.308,-0.275,-0.16
2021-08-19 18:12:28.312,-0.46,-0.05
2021-08-19 18:12:28.316,-0.265,-0.02
2021-08-19 18:12:28.320,-0.075,0.015
2021-08-19 18:12:28.324,0.03,0.01
2021-08-19 18:12:28.328,0.115,-0.01
2021-08-19 18:12:28.332,0.04,-0.035
2021-08-19 18:12:28.336,-0.04,-0.1
2021-08-19 18:12:28.340,0.045,-0.24
2021-08-19 18:12:28.344,0.01,-0.235
2021-08-19 18:12:28.348,-0.035,-0.175
2021-08-19 18:12:28.352,-0.14,-0.055
2021-08-19 18:12:28.356,-0.075,-0.09
2021-08-19 18:12:28.360,0.115,-0.145
2021-08-19 18:12:28.364,0.125,-0.1
2021-08-19 18:12:28.368,-0.015,-0.16
2021-08-19 18:12:28.372,-0.24,-0.16
2021-08-19 18:12:28.376,-0.26,-0.13
2021-08-19 18:12:28.380,-0.2,-0.15
2021-08-19 18:12:28.384,-0.07,-0.2
2021-08-19 18:12:28.388,-0.12,-0.19
2021-08-19 18:12:28.392,-0.295,-0.135
2021-08-19 18:12:28.396,-0.37,-0.115
2021-08-19 18:12:28.400,-0.255,-0.12
2021-08-19 18:12:28.404,-0.225,-0.115
2021-08-19 18:12:28.408,-0.37,-0.105
2021-08-19 18:12:28.412,-0.31,-0.1
2021-08-19 18:12:28.416,-0.265,-0.095
2021-08-19 18:12:28.420,-0.26,-0.09
2021-08-19 18:12:28.424,-0.17,-0.095
2021-08-19 18:12:28.428,-0.08,-0.065
2021-08-19 18:12:28.432,-0.175,0.02
2021-08-19 18:12:28.436,-0.35,0.08
2021-08-19 18:12:28.440,-0.245,0.055
2021-08-19 18:12:28.444,0.085,-0.05
2021-08-19 18:12:28.448,0.635,-0.125
2021-08-19 18:12:28.452,1.395,-0.295
2021-08-19 18:12:28.456,1.975,-0.5
2021-08-19 18:12:28.460,1.96,-0.725
2021-08-19 18:12:28.464,1.22,-0.97
2021-08-19 18:12:28.468,0.51,-1.08
2021-08-19 18:12:28.472,-0.255,-1.035
2021-08-19 18:12:28.476,-0.62,-0.99
2021-08-19 18:12:28.480,-0.575,-0.695
2021-08-19 18:12:28.484,-0.49,-0.55
2021-08-19 18:12:28.488,-0.44,-0.415
2021-08-19 18:12:28.492,-0.435,-0.34
2021-08-19 18:12:28.496,-0.38,-0.32
2021-08-19 18:12:28.500,-0.28,-0.23
2021-08-19 18:12:28.504,-0.22,-0.165
2021-08-19 18:12:28.508,-0.305,-0.13
2021-08-19 18:12:28.512,-0.295,-0.13
2021-08-19 18:12:28.516,-0.37,-0.04
2021-08-19 18:12:28.520,-0.45,0.03
2021-08-19 18:12:28.524,-0.38,-0.03
2021-08-19 18:12:28.528,-0.255,-0.17
2021-08-19 18:12:28.532,-0.275,-0.29
2021-08-19 18:12:28.536,-0.355,-0.24
2021-08-19 18:12:28.540,-0.325,-0.16
2021-08-19 18:12:28.544,-0.255,-0.105
2021-08-19 18:12:28.548,-0.35,-0.05
2021-08-19 18:12:28.552,-0.55,-0.03
2021-08-19 18:12:28.556,-0.46,-0.045
2021-08-19 18:12:28.560,-0.315,-0.085
2021-08-19 18:12:28.564,-0.215,-0.15
2021-08-19 18:12:28.568,-0.255,-0.18
2021-08-19 18:12:28.572,-0.32,-0.135
2021-08-19 18:12:28.576,-0.45,-0.06
2021-08-19 18:12:28.580,-0.59,-0.065
2021-08-19 18:12:28.584,-0.485,-0.095
2021-08-19 18:12:28.588,-0.455,-0.115
2021-08-19 18:12:28.592,-0.64,-0.04
2021-08-19 18:12:28.596,-0.7,0.09
2021-08-19 18:12:28.600,-0.63,0.065
2021-08-19 18:12:28.604,-0.605,-0.055
2021-08-19 18:12:28.608,-0.56,-0.2
2021-08-19 18:12:28.612,-0.575,-0.18
2021-08-19 18:12:28.616,-0.56,-0.145
2021-08-19 18:12:28.620,-0.565,-0.18
2021-08-19 18:12:28.624,-0.5,-0.215
2021-08-19 18:12:28.628,-0.51,-0.135
2021-08-19 18:12:28.632,-0.625,-0.115
2021-08-19 18:12:28.636,-0.665,-0.1
2021-08-19 18:12:28.640,-0.565,-0.09
2021-08-19 18:12:28.644,-0.56,-0.125
2021-08-19 18:12:28.648,-0.605,-0.095
2021-08-19 18:12:28.652,-0.65,0.005
2021-08-19 18:12:28.656,-0.675,0.0
2021-08-19 18:12:28.660,-0.63,-0.08
2021-08-19 18:12:28.664,-0.55,-0.145
2021-08-19 18:12:28.668,-0.485,-0.14
2021-08-19 18:12:28.672,-0.42,-0.17
2021-08-19 18:12:28.676,-0.405,-0.155
2021-08-19 18:12:28.680,-0.495,-0.1
2021-08-19 18:12:28.684,-0.565,-0.095
2021-08-19 18:12:28.688,-0.505,-0.08
2021-08-19 18:12:28.692,-0.52,-0.075
2021-08-19 18:12:28.696,-0.57,-0.075
2021-08-19 18:12:28.700,-0.495,-0.12
2021-08-19 18:12:28.704,-0.34,-0.165
2021-08-19 18:12:28.708,-0.415,-0.13
2021-08-19 18:12:28.712,-0.535,-0.035
2021-08-19 18:12:28.716,-0.595,-0.085
2021-08-19 18:12:28.720,-0.77,-0.12
2021-08-19 18:12:28.724,-0.93,-0.07
2021-08-19 18:12:28.728,-0.935,-0.065
2021-08-19 18:12:28.732,-0.84,-0.16
2021-08-19 18:12:28.736,-0.675,-0.315
2021-08-19 18:12:28.740,-0.54,-0.37
2021-08-19 18:12:28.744,-0.595,-0.32
2021-08-19 18:12:28.748,-0.495,-0.24
2021-08-19 18:12:28.752,-0.435,-0.215
2021-08-19 18:12:28.756,-0.41,-0.21
2021-08-19 18:12:28.760,-0.24,-0.22
2021-08-19 18:12:28.764,-0.055,-0.175
2021-08-19 18:12:28.768,-0.11,-0.165
2021-08-19 18:12:28.772,-0.085,-0.175
2021-08-19 18:12:28.776,-0.07,-0.175
2021-08-19 18:12:28.780,-0.1,-0.12
2021-08-19 18:12:28.784,0.085,-0.145
2021-08-19 18:12:28.788,0.16,-0.17
2021-08-19 18:12:28.792,0.065,-0.185
2021-08-19 18:12:28.796,-0.15,-0.105
2021-08-19 18:12:28.800,-0.19,-0.095
2021-08-19 18:12:28.804,-0.265,-0.09
2021-08-19 18:12:28.808,-0.25,-0.175
2021-08-19 18:12:28.812,-0.315,-0.2
2021-08-19 18:12:28.816,-0.5,-0.175
2021-08-19 18:12:28.820,-0.45,-0.125
2021-08-19 18:12:28.824,-0.34,-0.115
2021-08-19 18:12:28.828,-0.14,-0.11
2021-08-19 18:12:28.832,-0.19,-0.09
2021-08-19 18:12:28.836,-0.265,-0.1
2021-08-19 18:12:28.840,-0.2,-0.13
2021-08-19 18:12:28.844,-0.155,-0.22
2021-08-19 18:12:28.848,-0.205,-0.17
2021-08-19 18:12:28.852,-0.38,-0.08
2021-08-19 18:12:28.856,-0.43,-0.015
2021-08-19 18:12:28.860,-0.38,-0.005
2021-08-19 18:12:28.864,-0.31,-0.01
2021-08-19 18:12:28.868,-0.205,-0.03
2021-08-19 18:12:28.872,-0.245,-0.065
2021-08-19 18:12:28.876,-0.47,-0.13
2021-08-19 18:12:28.880,-0.44,-0.2
2021-08-19 18:12:28.884,-0.42,-0.215
2021-08-19 18:12:28.888,-0.445,-0.16
2021-08-19 18:12:28.892,-0.36,-0.115
2021-08-19 18:12:28.896,-0.37,-0.085
2021-08-19 18:12:28.900,-0.385,-0.115
2021-08-19 18:12:28.904,-0.435,-0.16
2021-08-19 18:12:28.908,-0.44,-0.2
2021-08-19 18:12:28.912,-0.43,-0.195
2021-08-19 18:12:28.916,-0.455,-0.155
2021-08-19 18:12:28.920,-0.485,-0.12
2021-08-19 18:12:28.924,-0.48,-0.13
2021-08-19 18:12:28.928,-0.435,-0.145
2021-08-19 18:12:28.932,-0.4,-0.16
2021-08-19 18:12:28.936,-0.365,-0.135
2021-08-19 18:12:28.940,-0.355,-0.14
2021-08-19 18:12:28.944,-0.435,-0.12
2021-08-19 18:12:28.948,-0.585,-0.135
2021-08-19 18:12:28.952,-0.395,-0.165
2021-08-19 18:12:28.956,-0.275,-0.14
2021-08-19 18:12:28.960,-0.53,-0.13
2021-08-19 18:12:28.964,-0.71,-0.095
2021-08-19 18:12:28.968,-0.63,-0.08
2021-08-19 18:12:28.972,-0.525,-0.09
2021-08-19 18:12:28.976,-0.52,-0.08
2021-08-19 18:12:28.980,-0.585,-0.035
2021-08-19 18:12:28.984,-0.69,0.01
2021-08-19 18:12:28.988,-0.74,0.025
2021-08-19 18:12:28.992,-0.69,0.01
2021-08-19 18:12:28.996,-0.57,-0.14
2021-08-19 18:12:29.000,-0.5,-0.255
2021-08-19 18:12:29.004,-0.46,-0.22
2021-08-19 18:12:29.008,-0.59,-0.185
2021-08-19 18:12:29.012,-0.665,-0.15
2021-08-19 18:12:29.016,-0.655,-0.155
2021-08-19 18:12:29.020,-0.695,-0.145
2021-08-19 18:12:29.024,-0.65,-0.175
2021-08-19 18:12:29.028,-0.505,-0.16
2021-08-19 18:12:29.032,-0.525,-0.15
2021-08-19 18:12:29.036,-0.735,-0.18
2021-08-19 18:12:29.040,-0.82,-0.155
2021-08-19 18:12:29.044,-0.745,-0.145
2021-08-19 18:12:29.048,-0.68,-0.195
2021-08-19 18:12:29.052,-0.645,-0.195
2021-08-19 18:12:29.056,-0.695,-0.11
2021-08-19 18:12:29.060,-0.76,-0.095
2021-08-19 18:12:29.064,-0.8,-0.085
2021-08-19 18:12:29.068,-0.72,-0.095
2021-08-19 18:12:29.072,-0.665,-0.13
2021-08-19 18:12:29.076,-0.615,-0.15
2021-08-19 18:12:29.080,-0.7,-0.1
2021-08-19 18:12:29.084,-0.775,-0.085
2021-08-19 18:12:29.088,-0.735,-0.13
2021-08-19 18:12:29.092,-0.61,-0.165
2021-08-19 18:12:29.096,-0.605,-0.16
2021-08-19 18:12:29.100,-0.64,-0.145
2021-08-19 18:12:29.104,-0.745,-0.08
2021-08-19 18:12:29.108,-0.775,-0.09
2021-08-19 18:12:29.112,-0.63,-0.155
2021-08-19 18:12:29.116,-0.58,-0.195
2021-08-19 18:12:29.120,-0.67,-0.155
2021-08-19 18:12:29.124,-0.79,-0.14
2021-08-19 18:12:29.128,-0.81,-0.095
2021-08-19 18:12:29.132,-0.71,-0.11
2021-08-19 18:12:29.136,-0.68,-0.12
2021-08-19 18:12:29.140,-0.73,-0.12
2021-08-19 18:12:29.144,-0.735,-0.11
2021-08-19 18:12:29.148,-0.76,-0.11
2021-08-19 18:12:29.152,-0.74,-0.14
2021-08-19 18:12:29.156,-0.655,-0.145
2021-08-19 18:12:29.160,-0.65,-0.155
2021-08-19 18:12:29.164,-0.65,-0.15
2021-08-19 18:12:29.168,-0.59,-0.135
2021-08-19 18:12:29.172,-0.49,-0.16
2021-08-19 18:12:29.176,-0.365,-0.205
2021-08-19 18:12:29.180,-0.365,-0.145
2021-08-19 18:12:29.184,-0.605,-0.035
2021-08-19 18:12:29.188,-0.82,-0.01
2021-08-19 18:12:29.192,-0.765,0.01
2021-08-19 18:12:29.196,-0.61,-0.02
2021-08-19 18:12:29.200,-0.64,0.005
2021-08-19 18:12:29.204,-0.72,0.065
2021-08-19 18:12:29.208,-0.795,0.22
2021-08-19 18:12:29.212,-0.74,0.11
2021-08-19 18:12:29.216,-0.63,-0.13
2021-08-19 18:12:29.220,-0.615,-0.385
2021-08-19 18:12:29.224,-0.595,-0.38
2021-08-19 18:12:29.228,-0.595,-0.245
2021-08-19 18:12:29.232,-0.56,-0.165
2021-08-19 18:12:29.236,-0.64,-0.215
2021-08-19 18:12:29.240,-0.71,-0.31
2021-08-19 18:12:29.244,-0.695,-0.27
2021-08-19 18:12:29.248,-0.705,-0.2
2021-08-19 18:12:29.252,-0.655,-0.185
2021-08-19 18:12:29.256,-0.635,-0.185
2021-08-19 18:12:29.260,-0.65,-0.145
2021-08-19 18:12:29.264,-0.615,-0.13
2021-08-19 18:12:29.268,-0.59,-0.125
2021-08-19 18:12:29.272,-0.51,-0.14
2021-08-19 18:12:29.276,-0.445,-0.155
2021-08-19 18:12:29.280,-0.37,-0.16
2021-08-19 18:12:29.284,-0.415,-0.15
2021-08-19 18:12:29.288,-0.605,-0.105
2021-08-19 18:12:29.292,-0.745,-0.045
2021-08-19 18:12:29.296,-0.54,-0.05
2021-08-19 18:12:29.300,-0.485,-0.08
2021-08-19 18:12:29.304,-0.555,-0.1
2021-08-19 18:12:29.308,-0.62,-0.005
2021-08-19 18:12:29.312,-0.545,0.015
2021-08-19 18:12:29.316,-0.48,-0.075
2021-08-19 18:12:29.320,-0.47,-0.22
2021-08-19 18:12:29.324,-0.4,-0.265
2021-08-19 18:12:29.328,-0.41,-0.26
2021-08-19 18:12:29.332,-0.445,-0.2
2021-08-19 18:12:29.336,-0.49,-0.08
2021-08-19 18:12:29.340,-0.615,-0.06
2021-08-19 18:12:29.344,-0.685,-0.055
2021-08-19 18:12:29.348,-0.585,-0.125
2021-08-19 18:12:29.352,-0.49,-0.125
2021-08-19 18:12:29.356,-0.35,-0.13
2021-08-19 18:12:29.360,-0.32,-0.09
2021-08-19 18:12:29.364,-0.39,-0.075
2021-08-19 18:12:29.368,-0.44,-0.1
2021-08-19 18:12:29.372,-0.515,-0.11
2021-08-19 18:12:29.376,-0.405,-0.2
2021-08-19 18:12:29.380,-0.335,-0.18
2021-08-19 18:12:29.384,-0.405,-0.115
2021-08-19 18:12:29.388,-0.535,-0.095
2021-08-19 18:12:29.392,-0.465,-0.12
2021-08-19 18:12:29.396,-0.39,-0.11
2021-08-19 18:12:29.400,-0.32,-0.13
2021-08-19 18:12:29.404,-0.24,-0.19
2021-08-19 18:12:29.408,-0.315,-0.135
2021-08-19 18:12:29.412,-0.415,-0.065
2021-08-19 18:12:29.416,-0.42,-0.095
2021-08-19 18:12:29.420,-0.44,-0.095
2021-08-19 18:12:29.424,-0.405,-0.08
2021-08-19 18:12:29.428,-0.35,-0.14
2021-08-19 18:12:29.432,-0.26,-0.19
2021-08-19 18:12:29.436,-0.26,-0.19
2021-08-19 18:12:29.440,-0.335,-0.155
2021-08-19 18:12:29.444,-0.425,-0.085
2021-08-19 18:12:29.448,-0.35,-0.055
2021-08-19 18:12:29.452,-0.29,-0.09
2021-08-19 18:12:29.456,-0.31,-0.1
2021-08-19 18:12:29.460,-0.395,-0.095
2021-08-19 18:12:29.464,-0.41,-0.075
2021-08-19 18:12:29.468,-0.36,-0.055
2021-08-19 18:12:29.472,-0.27,-0.1
2021-08-19 18:12:29.476,-0.2,-0.135
2021-08-19 18:12:29.480,-0.215,-0.145
2021-08-19 18:12:29.484,-0.325,-0.11
2021-08-19 18:12:29.488,-0.325,-0.1
2021-08-19 18:12:29.492,-0.37,-0.1
2021-08-19 18:12:29.496,-0.32,-0.085
2021-08-19 18:12:29.500,-0.25,-0.08
2021-08-19 18:12:29.504,-0.075,-0.1
2021-08-19 18:12:29.508,0.005,-0.155
2021-08-19 18:12:29.512,-0.18,-0.12
2021-08-19 18:12:29.516,-0.45,-0.025
2021-08-19 18:12:29.520,-0.455,0.025
2021-08-19 18:12:29.524,-0.355,0.015
2021-08-19 18:12:29.528,-0.24,-0.05
2021-08-19 18:12:29.532,-0.175,-0.135
2021-08-19 18:12:29.536,-0.22,-0.12
2021-08-19 18:12:29.540,-0.29,-0.07
2021-08-19 18:12:29.544,-0.3,-0.01
2021-08-19 18:12:29.548,-0.21,-0.015
2021-08-19 18:12:29.552,-0.19,-0.015
2021-08-19 18:12:29.556,-0.315,-0.04
2021-08-19 18:12:29.560,-0.305,-0.1
2021-08-19 18:12:29.564,-0.315,-0.115
2021-08-19 18:12:29.568,-0.375,-0.14
2021-08-19 18:12:29.572,-0.295,-0.11
2021-08-19 18:12:29.576,-0.175,-0.105
2021-08-19 18:12:29.580,-0.135,-0.1
2021-08-19 18:12:29.584,-0.22,-0.06
2021-08-19 18:12:29.588,-0.215,-0.055
2021-08-19 18:12:29.592,-0.25,-0.08
2021-08-19 18:12:29.596,-0.32,-0.06
2021-08-19 18:12:29.600,-0.3,-0.055
2021-08-19 18:12:29.604,-0.25,-0.065
2021-08-19 18:12:29.608,-0.255,-0.08
2021-08-19 18:12:29.612,-0.24,-0.09
2021-08-19 18:12:29.616,-0.145,-0.11
2021-08-19 18:12:29.620,-0.215,-0.085
2021-08-19 18:12:29.624,-0.275,-0.055
2021-08-19 18:12:29.628,-0.255,-0.035
2021-08-19 18:12:29.632,-0.27,-0.03
2021-08-19 18:12:29.636,-0.235,-0.03
2021-08-19 18:12:29.640,-0.155,-0.02
2021-08-19 18:12:29.644,-0.285,-0.03
2021-08-19 18:12:29.648,-0.32,-0.02
2021-08-19 18:12:29.652,-0.25,0.0
2021-08-19 18:12:29.656,-0.135,0.0
2021-08-19 18:12:29.660,-0.035,-0.065
2021-08-19 18:12:29.664,-0.005,-0.125
2021-08-19 18:12:29.668,-0.2,-0.135
2021-08-19 18:12:29.672,-0.34,-0.115
2021-08-19 18:12:29.676,-0.315,-0.13
2021-08-19 18:12:29.680,-0.24,-0.125
2021-08-19 18:12:29.684,-0.155,-0.095
2021-08-19 18:12:29.688,-0.16,-0.07
2021-08-19 18:12:29.692,-0.29,0.015
2021-08-19 18:12:29.696,-0.32,0.06
2021-08-19 18:12:29.700,-0.16,0.065
2021-08-19 18:12:29.704,-0.105,0.0
2021-08-19 18:12:29.708,-0.1,-0.055
2021-08-19 18:12:29.712,-0.025,-0.035
2021-08-19 18:12:29.716,0.13,-0.01
2021-08-19 18:12:29.720,0.18,-0.02
2021-08-19 18:12:29.724,0.1,-0.035
2021-08-19 18:12:29.728,0.05,-0.07
2021-08-19 18:12:29.732,0.02,-0.09
2021-08-19 18:12:29.736,-0.01,-0.07
2021-08-19 18:12:29.740,0.035,-0.035
2021-08-19 18:12:29.744,0.075,-0.025
2021-08-19 18:12:29.748,0.09,-0.035
2021-08-19 18:12:29.752,0.03,-0.005
2021-08-19 18:12:29.756,-0.14,-0.02
2021-08-19 18:12:29.760,-0.265,-0.04
2021-08-19 18:12:29.764,-0.2,-0.105
2021-08-19 18:12:29.768,0.005,-0.1
2021-08-19 18:12:29.772,0.045,-0.065
2021-08-19 18:12:29.776,-0.07,0.005
2021-08-19 18:12:29.780,-0.315,0.03
2021-08-19 18:12:29.784,-0.365,0.0
2021-08-19 18:12:29.788,-0.245,-0.02
2021-08-19 18:12:29.792,-0.115,0.02
2021-08-19 18:12:29.796,-0.12,0.0
2021-08-19 18:12:29.800,-0.285,0.055
2021-08-19 18:12:29.804,-0.295,0.155
2021-08-19 18:12:29.808,-0.22,0.135
2021-08-19 18:12:29.812,-0.165,0.13
2021-08-19 18:12:29.816,-0.27,0.23
2021-08-19 18:12:29.820,-0.245,0.195
2021-08-19 18:12:29.824,0.085,0.01
2021-08-19 18:12:29.828,0.675,-0.13
2021-08-19 18:12:29.832,1.385,-0.235
2021-08-19 18:12:29.844,1.805,-0.795
2021-08-19 18:12:29.848,0.84,-1.045
2021-08-19 18:12:29.852,0.045,-0.985
2021-08-19 18:12:29.856,-0.32,-0.86
2021-08-19 18:12:29.860,-0.275,-0.625
2021-08-19 18:12:29.864,-0.235,-0.44
2021-08-19 18:12:29.868,-0.235,-0.36
2021-08-19 18:12:29.872,-0.23,-0.2
2021-08-19 18:12:29.876,-0.25,-0.09
2021-08-19 18:12:29.880,-0.24,-0.055
2021-08-19 18:12:29.884,-0.255,-0.09
2021-08-19 18:12:29.888,-0.27,-0.115
2021-08-19 18:12:29.892,-0.23,-0.11
2021-08-19 18:12:29.896,-0.23,-0.055
2021-08-19 18:12:29.900,-0.19,-0.04
2021-08-19 18:12:29.904,-0.185,-0.05
2021-08-19 18:12:29.908,-0.27,-0.015
2021-08-19 18:12:29.912,-0.375,0.03
2021-08-19 18:12:29.916,-0.29,0.025
2021-08-19 18:12:29.920,-0.1,-0.005
2021-08-19 18:12:29.924,-0.12,-0.02
2021-08-19 18:12:29.928,-0.265,-0.03
2021-08-19 18:12:29.932,-0.3,0.0
2021-08-19 18:12:29.936,-0.15,0.0
2021-08-19 18:12:29.940,-0.08,0.005
2021-08-19 18:12:29.944,-0.165,-0.025
2021-08-19 18:12:29.948,-0.225,-0.06
2021-08-19 18:12:29.952,-0.285,-0.045
2021-08-19 18:12:29.956,-0.275,0.045
2021-08-19 18:12:29.960,-0.15,0.035
2021-08-19 18:12:29.964,-0.09,-0.035
2021-08-19 18:12:29.968,-0.105,-0.055
2021-08-19 18:12:29.972,-0.2,-0.07
2021-08-19 18:12:29.976,-0.4,0.01
2021-08-19 18:12:29.980,-0.395,0.075
2021-08-19 18:12:29.984,-0.215,0.05
2021-08-19 18:12:29.988,-0.195,0.03
2021-08-19 18:12:29.992,-0.2,0.05
2021-08-19 18:12:29.996,-0.155,0.06
2021-08-19 18:12:30.000,-0.23,0.04
2021-08-19 18:12:30.004,-0.315,-0.04
2021-08-19 18:12:30.008,-0.345,-0.025
2021-08-19 18:12:30.012,-0.445,0.005
2021-08-19 18:12:30.016,-0.425,0.015
2021-08-19 18:12:30.020,-0.335,0.01
2021-08-19 18:12:30.024,-0.29,-0.015
2021-08-19 18:12:30.028,-0.34,-0.045
2021-08-19 18:12:30.032,-0.375,-0.01
2021-08-19 18:12:30.036,-0.44,0.04
2021-08-19 18:12:30.040,-0.42,0.035
2021-08-19 18:12:30.044,-0.325,0.045
2021-08-19 18:12:30.048,-0.255,-0.02
2021-08-19 18:12:30.052,-0.265,-0.075
2021-08-19 18:12:30.056,-0.315,-0.06
2021-08-19 18:12:30.060,-0.32,-0.03
2021-08-19 18:12:30.064,-0.295,-0.005
2021-08-19 18:12:30.068,-0.17,-0.045
2021-08-19 18:12:30.072,-0.125,0.0
2021-08-19 18:12:30.076,-0.27,0.1
2021-08-19 18:12:30.080,-0.38,0.06
2021-08-19 18:12:30.084,-0.325,-0.06
2021-08-19 18:12:30.088,-0.385,-0.14
2021-08-19 18:12:30.092,-0.54,-0.105
2021-08-19 18:12:30.096,-0.56,-0.125
2021-08-19 18:12:30.100,-0.53,-0.08
2021-08-19 18:12:30.104,-0.53,-0.085
2021-08-19 18:12:30.108,-0.525,-0.135
2021-08-19 18:12:30.112,-0.46,-0.09
2021-08-19 18:12:30.116,-0.49,-0.06
2021-08-19 18:12:30.120,-0.52,-0.06
2021-08-19 18:12:30.124,-0.4,-0.075
2021-08-19 18:12:30.128,-0.305,-0.065
2021-08-19 18:12:30.132,-0.22,-0.045
2021-08-19 18:12:30.136,-0.17,-0.035
2021-08-19 18:12:30.140,-0.06,-0.08
2021-08-19 18:12:30.144,0.135,-0.12
2021-08-19 18:12:30.148,0.23,-0.15
2021-08-19 18:12:30.152,0.125,-0.12
2021-08-19 18:12:30.156,0.105,-0.08
2021-08-19 18:12:30.160,0.175,-0.075
2021-08-19 18:12:30.164,0.175,-0.06
2021-08-19 18:12:30.168,0.115,-0.065
2021-08-19 18:12:30.172,0.18,-0.09
2021-08-19 18:12:30.176,0.23,-0.09
2021-08-19 18:12:30.180,0.185,-0.085
2021-08-19 18:12:30.184,0.16,-0.06
2021-08-19 18:12:30.188,0.205,-0.02
2021-08-19 18:12:30.192,0.19,-0.005
2021-08-19 18:12:30.196,0.025,0.04
2021-08-19 18:12:30.200,-0.08,0.075
2021-08-19 18:12:30.204,0.035,0.055
2021-08-19 18:12:30.208,0.13,0.045
2021-08-19 18:12:30.212,0.18,-0.005
2021-08-19 18:12:30.216,0.21,-0.095
2021-08-19 18:12:30.220,0.14,-0.04
2021-08-19 18:12:30.224,0.045,0.06
2021-08-19 18:12:30.228,0.19,0.01
2021-08-19 18:12:30.232,0.3,-0.13
2021-08-19 18:12:30.236,0.255,-0.145
2021-08-19 18:12:30.240,0.105,-0.05
2021-08-19 18:12:30.244,0.035,0.005
2021-08-19 18:12:30.248,0.085,0.035
2021-08-19 18:12:30.252,0.195,0.075
2021-08-19 18:12:30.256,0.285,0.065
2021-08-19 18:12:30.260,0.36,0.035
2021-08-19 18:12:30.264,0.305,-0.015
2021-08-19 18:12:30.268,0.11,0.01
2021-08-19 18:12:30.272,0.02,0.07
2021-08-19 18:12:30.276,0.14,0.095
2021-08-19 18:12:30.280,0.24,0.15
2021-08-19 18:12:30.284,0.31,0.245
2021-08-19 18:12:30.288,0.445,0.285
2021-08-19 18:12:30.292,0.685,0.225
2021-08-19 18:12:30.296,0.96,-0.01
2021-08-19 18:12:30.300,1.335,-0.39
2021-08-19 18:12:30.304,1.57,-0.78
2021-08-19 18:12:30.308,1.205,-1.17
2021-08-19 18:12:30.312,0.195,-1.325
2021-08-19 18:12:30.316,-0.685,-1.375
2021-08-19 18:12:30.320,-1.33,-1.33
2021-08-19 18:12:30.324,-1.53,-1.0
2021-08-19 18:12:30.328,-1.515,-0.505
2021-08-19 18:12:30.332,-1.475,0.025
2021-08-19 18:12:30.336,-1.425,0.5
2021-08-19 18:12:30.340,-1.345,0.495
2021-08-19 18:12:30.344,-1.185,0.31
2021-08-19 18:12:30.348,-0.925,0.215
2021-08-19 18:12:30.352,-0.67,0.19
2021-08-19 18:12:30.356,-0.62,0.12
2021-08-19 18:12:30.360,-0.56,0.045
2021-08-19 18:12:30.364,-0.475,0.065
2021-08-19 18:12:30.368,-0.43,0.055
2021-08-19 18:12:30.372,-0.455,0.01
2021-08-19 18:12:30.376,-0.405,-0.03
2021-08-19 18:12:30.380,-0.275,-0.06
2021-08-19 18:12:30.384,-0.21,-0.075
2021-08-19 18:12:30.388,-0.215,-0.105
2021-08-19 18:12:30.392,-0.275,-0.12
2021-08-19 18:12:30.396,-0.16,-0.145
2021-08-19 18:12:30.400,-0.12,-0.115
2021-08-19 18:12:30.404,-0.14,-0.045
2021-08-19 18:12:30.408,-0.11,0.0
2021-08-19 18:12:30.412,-0.175,0.055
2021-08-19 18:12:30.416,-0.14,0.09
2021-08-19 18:12:30.420,0.0,0.06
2021-08-19 18:12:30.424,0.035,0.005
2021-08-19 18:12:30.428,0.015,-0.025
2021-08-19 18:12:30.432,0.105,-0.065
2021-08-19 18:12:30.436,0.275,-0.06
2021-08-19 18:12:30.440,0.275,-0.045
2021-08-19 18:12:30.444,0.07,0.035
2021-08-19 18:12:30.448,0.035,0.03
2021-08-19 18:12:30.452,0.185,0.01
2021-08-19 18:12:30.456,0.24,0.0
2021-08-19 18:12:30.460,0.26,-0.04
2021-08-19 18:12:30.464,0.28,0.0
2021-08-19 18:12:30.468,0.38,-0.01
2021-08-19 18:12:30.472,0.43,-0.04
2021-08-19 18:12:30.476,0.45,-0.015
2021-08-19 18:12:30.480,0.555,0.04
2021-08-19 18:12:30.484,0.48,0.105
2021-08-19 18:12:30.488,0.415,0.12
2021-08-19 18:12:30.492,0.54,0.08
2021-08-19 18:12:30.496,0.625,0.095
2021-08-19 18:12:30.500,0.575,0.1
2021-08-19 18:12:30.504,0.67,0.09
2021-08-19 18:12:30.508,0.89,0.085
2021-08-19 18:12:30.512,0.92,0.095
2021-08-19 18:12:30.516,0.76,0.135
2021-08-19 18:12:30.520,0.835,0.175
2021-08-19 18:12:30.524,1.005,0.155
2021-08-19 18:12:30.528,1.0,0.135
2021-08-19 18:12:30.532,0.95,0.17
2021-08-19 18:12:30.536,1.01,0.17
2021-08-19 18:12:30.540,1.06,0.12
2021-08-19 18:12:30.544,1.125,0.1
2021-08-19 18:12:30.548,1.21,0.085
2021-08-19 18:12:30.552,1.19,0.1
2021-08-19 18:12:30.556,1.16,0.09
2021-08-19 18:12:30.560,1.225,0.06
2021-08-19 18:12:30.564,1.255,0.035
2021-08-19 18:12:30.568,1.095,0.06
2021-08-19 18:12:30.572,0.99,0.015
2021-08-19 18:12:30.576,0.9,-0.025
2021-08-19 18:12:30.580,0.8,-0.115
2021-08-19 18:12:30.584,0.635,-0.11
2021-08-19 18:12:30.588,0.475,-0.09
2021-08-19 18:12:30.592,0.345,-0.095
2021-08-19 18:12:30.596,0.26,-0.09
2021-08-19 18:12:30.600,0.19,-0.055
2021-08-19 18:12:30.604,0.135,-0.03
2021-08-19 18:12:30.608,0.175,-0.025
2021-08-19 18:12:30.612,0.165,-0.045
2021-08-19 18:12:30.616,0.095,-0.055
2021-08-19 18:12:30.620,0.075,-0.045
2021-08-19 18:12:30.624,0.06,-0.01
2021-08-19 18:12:30.628,-0.065,0.045
2021-08-19 18:12:30.632,-0.165,0.07
2021-08-19 18:12:30.636,-0.08,0.045
2021-08-19 18:12:30.640,0.01,-0.01
2021-08-19 18:12:30.644,0.03,-0.03
2021-08-19 18:12:30.648,-0.045,0.015
2021-08-19 18:12:30.652,-0.005,0.005
2021-08-19 18:12:30.656,0.0,0.03
2021-08-19 18:12:30.660,-0.115,0.065
2021-08-19 18:12:30.664,-0.195,0.095
2021-08-19 18:12:30.668,-0.16,0.11
2021-08-19 18:12:30.672,-0.105,0.06
2021-08-19 18:12:30.676,-0.12,0.02
2021-08-19 18:12:30.680,-0.13,0.0
2021-08-19 18:12:30.684,-0.095,-0.035
2021-08-19 18:12:30.688,-0.05,-0.03
2021-08-19 18:12:30.692,-0.125,0.01
2021-08-19 18:12:30.696,-0.19,0.04
2021-08-19 18:12:30.700,-0.24,0.02
2021-08-19 18:12:30.704,-0.29,-0.055
2021-08-19 18:12:30.708,-0.235,-0.08
2021-08-19 18:12:30.712,-0.23,-0.045
2021-08-19 18:12:30.716,-0.235,0.0
2021-08-19 18:12:30.720,-0.245,0.015
2021-08-19 18:12:30.724,-0.21,0.0
2021-08-19 18:12:30.728,-0.235,0.0
2021-08-19 18:12:30.732,-0.205,0.0
2021-08-19 18:12:30.736,-0.195,0.045
2021-08-19 18:12:30.740,-0.285,0.09
2021-08-19 18:12:30.744,-0.22,0.055
2021-08-19 18:12:30.748,-0.155,0.01
2021-08-19 18:12:30.752,-0.165,0.0
2021-08-19 18:12:30.756,-0.135,0.005
2021-08-19 18:12:30.760,-0.03,-0.02
2021-08-19 18:12:30.764,0.005,-0.005
2021-08-19 18:12:30.768,0.02,0.0
2021-08-19 18:12:30.772,-0.025,-0.075
2021-08-19 18:12:30.776,-0.115,-0.075
2021-08-19 18:12:30.780,-0.11,-0.035
2021-08-19 18:12:30.784,-0.08,0.005
2021-08-19 18:12:30.788,-0.14,0.015
2021-08-19 18:12:30.792,-0.215,-0.04
2021-08-19 18:12:30.796,-0.21,-0.06
2021-08-19 18:12:30.800,-0.205,-0.04
2021-08-19 18:12:30.804,-0.295,0.01
2021-08-19 18:12:30.808,-0.435,0.025
2021-08-19 18:12:30.812,-0.405,0.0
2021-08-19 18:12:30.816,-0.22,-0.06
2021-08-19 18:12:30.820,-0.135,-0.045
2021-08-19 18:12:30.824,-0.26,-0.025
2021-08-19 18:12:30.828,-0.4,0.0
2021-08-19 18:12:30.832,-0.43,0.0
2021-08-19 18:12:30.836,-0.395,0.01
2021-08-19 18:12:30.840,-0.32,0.02
2021-08-19 18:12:30.844,-0.315,0.035
2021-08-19 18:12:30.848,-0.33,0.03
2021-08-19 18:12:30.852,-0.215,0.025
2021-08-19 18:12:30.856,-0.155,0.025
2021-08-19 18:12:30.860,-0.265,0.0
2021-08-19 18:12:30.864,-0.395,-0.03
2021-08-19 18:12:30.868,-0.25,-0.06
2021-08-19 18:12:30.872,-0.245,-0.035
2021-08-19 18:12:30.876,-0.395,0.09
2021-08-19 18:12:30.880,-0.56,0.205
2021-08-19 18:12:30.884,-0.65,0.275
2021-08-19 18:12:30.888,-0.47,0.2
2021-08-19 18:12:30.892,-0.195,0.005
2021-08-19 18:12:30.896,-0.04,-0.09
2021-08-19 18:12:30.900,0.33,-0.09
2021-08-19 18:12:30.904,1.06,-0.165
2021-08-19 18:12:30.908,1.78,-0.405
2021-08-19 18:12:30.912,1.89,-0.695
2021-08-19 18:12:30.916,1.095,-0.98
2021-08-19 18:12:30.920,0.255,-1.015
2021-08-19 18:12:30.924,-0.475,-0.9
2021-08-19 18:12:30.928,-0.69,-0.875
2021-08-19 18:12:30.932,-0.525,-0.655
2021-08-19 18:12:30.936,-0.59,-0.42
2021-08-19 18:12:30.940,-0.665,-0.26
2021-08-19 18:12:30.944,-0.52,-0.18
2021-08-19 18:12:30.948,-0.49,-0.145
2021-08-19 18:12:30.952,-0.535,-0.105
2021-08-19 18:12:30.956,-0.515,-0.025
2021-08-19 18:12:30.960,-0.345,-0.045
2021-08-19 18:12:30.964,-0.195,-0.1
2021-08-19 18:12:30.968,-0.335,-0.08
2021-08-19 18:12:30.972,-0.63,-0.045
2021-08-19 18:12:30.976,-0.7,-0.01
2021-08-19 18:12:30.980,-0.55,0.0
2021-08-19 18:12:30.984,-0.505,-0.01
2021-08-19 18:12:30.988,-0.52,0.015
2021-08-19 18:12:30.992,-0.425,0.0
2021-08-19 18:12:30.996,-0.32,-0.03
2021-08-19 18:12:31.000,-0.37,-0.045
2021-08-19 18:12:31.004,-0.44,0.01
2021-08-19 18:12:31.008,-0.41,0.035
2021-08-19 18:12:31.012,-0.44,0.035
2021-08-19 18:12:31.016,-0.385,0.005
2021-08-19 18:12:31.020,-0.325,0.0
2021-08-19 18:12:31.024,-0.355,-0.005
2021-08-19 18:12:31.028,-0.385,0.02
2021-08-19 18:12:31.032,-0.365,0.01
2021-08-19 18:12:31.036,-0.36,-0.005
2021-08-19 18:12:31.040,-0.42,0.02
2021-08-19 18:12:31.044,-0.47,0.015
2021-08-19 18:12:31.048,-0.405,0.02
2021-08-19 18:12:31.052,-0.36,0.0
2021-08-19 18:12:31.056,-0.37,-0.005
2021-08-19 18:12:31.060,-0.355,-0.015
2021-08-19 18:12:31.064,-0.33,-0.015
2021-08-19 18:12:31.068,-0.385,0.0
2021-08-19 18:12:31.072,-0.43,0.01
2021-08-19 18:12:31.076,-0.47,0.01
2021-08-19 18:12:31.080,-0.415,0.0
2021-08-19 18:12:31.084,-0.415,0.02
2021-08-19 18:12:31.088,-0.445,0.03
2021-08-19 18:12:31.092,-0.42,0.03
2021-08-19 18:12:31.096,-0.34,-0.005
2021-08-19 18:12:31.100,-0.335,-0.025
2021-08-19 18:12:31.104,-0.37,-0.03
2021-08-19 18:12:31.108,-0.295,-0.025
2021-08-19 18:12:31.112,-0.24,-0.045
2021-08-19 18:12:31.116,-0.34,-0.03
2021-08-19 18:12:31.120,-0.46,0.02
2021-08-19 18:12:31.124,-0.485,0.035
2021-08-19 18:12:31.128,-0.43,0.02
2021-08-19 18:12:31.132,-0.345,-0.01
2021-08-19 18:12:31.136,-0.275,-0.025
2021-08-19 18:12:31.140,-0.34,-0.04
2021-08-19 18:12:31.144,-0.2,-0.06
2021-08-19 18:12:31.148,-0.13,-0.025
2021-08-19 18:12:31.152,-0.325,0.0
2021-08-19 18:12:31.156,-0.56,0.035
2021-08-19 18:12:31.160,-0.505,0.06
2021-08-19 18:12:31.164,-0.39,0.05
2021-08-19 18:12:31.168,-0.37,0.065
2021-08-19 18:12:31.172,-0.365,0.06
2021-08-19 18:12:31.176,-0.39,0.055
2021-08-19 18:12:31.180,-0.48,0.03
2021-08-19 18:12:31.184,-0.34,-0.075
2021-08-19 18:12:31.188,-0.2,-0.2
2021-08-19 18:12:31.192,-0.18,-0.205
2021-08-19 18:12:31.196,-0.19,-0.13
2021-08-19 18:12:31.200,-0.165,-0.115
2021-08-19 18:12:31.204,-0.2,-0.07
2021-08-19 18:12:31.208,-0.145,-0.055
2021-08-19 18:12:31.212,-0.09,-0.03
2021-08-19 18:12:31.216,-0.145,-0.04
2021-08-19 18:12:31.220,-0.205,-0.025
2021-08-19 18:12:31.224,-0.115,-0.065
2021-08-19 18:12:31.228,-0.04,-0.05
2021-08-19 18:12:31.232,-0.115,-0.05
2021-08-19 18:12:31.236,-0.18,-0.035
2021-08-19 18:12:31.240,-0.2,-0.015
2021-08-19 18:12:31.244,-0.3,-0.005
2021-08-19 18:12:31.248,-0.28,0.0
2021-08-19 18:12:31.252,-0.19,-0.035
2021-08-19 18:12:31.256,-0.22,-0.025
2021-08-19 18:12:31.260,-0.41,0.005
2021-08-19 18:12:31.264,-0.445,-0.005
2021-08-19 18:12:31.268,-0.415,0.005
2021-08-19 18:12:31.272,-0.425,0.03
2021-08-19 18:12:31.276,-0.345,0.02
2021-08-19 18:12:31.280,-0.25,0.005
2021-08-19 18:12:31.284,-0.235,0.0
2021-08-19 18:12:31.288,-0.31,0.03
2021-08-19 18:12:31.292,-0.44,0.06
2021-08-19 18:12:31.296,-0.495,-0.015
2021-08-19 18:12:31.300,-0.37,-0.03
2021-08-19 18:12:31.304,-0.28,0.015
2021-08-19 18:12:31.308,-0.37,0.045
2021-08-19 18:12:31.312,-0.445,0.025
2021-08-19 18:12:31.316,-0.325,-0.04
2021-08-19 18:12:31.320,-0.3,-0.08
2021-08-19 18:12:31.324,-0.315,-0.055
2021-08-19 18:12:31.328,-0.29,-0.045
2021-08-19 18:12:31.332,-0.28,-0.055
2021-08-19 18:12:31.336,-0.235,-0.03
2021-08-19 18:12:31.340,-0.435,0.07
2021-08-19 18:12:31.344,-0.56,0.18
2021-08-19 18:12:31.348,-0.545,0.06
2021-08-19 18:12:31.352,-0.455,-0.145
2021-08-19 18:12:31.356,-0.49,-0.185
2021-08-19 18:12:31.360,-0.595,-0.13
2021-08-19 18:12:31.364,-0.615,-0.09
2021-08-19 18:12:31.368,-0.575,-0.06
2021-08-19 18:12:31.372,-0.525,-0.03
2021-08-19 18:12:31.376,-0.49,0.0
2021-08-19 18:12:31.380,-0.525,-0.01
2021-08-19 18:12:31.384,-0.6,-0.015
2021-08-19 18:12:31.388,-0.51,-0.045
2021-08-19 18:12:31.392,-0.46,-0.09
2021-08-19 18:12:31.396,-0.665,-0.105
2021-08-19 18:12:31.400,-0.75,-0.085
2021-08-19 18:12:31.404,-0.62,-0.05
2021-08-19 18:12:31.408,-0.565,-0.015
2021-08-19 18:12:31.412,-0.53,0.005
2021-08-19 18:12:31.416,-0.565,0.01
2021-08-19 18:12:31.420,-0.615,-0.04
2021-08-19 18:12:31.424,-0.605,-0.085
2021-08-19 18:12:31.428,-0.62,-0.07
2021-08-19 18:12:31.432,-0.625,-0.04
2021-08-19 18:12:31.436,-0.525,-0.085
2021-08-19 18:12:31.440,-0.6,-0.035
2021-08-19 18:12:31.444,-0.755,0.045
2021-08-19 18:12:31.448,-0.695,-0.015
2021-08-19 18:12:31.452,-0.595,-0.02
2021-08-19 18:12:31.456,-0.615,0.005
2021-08-19 18:12:31.460,-0.61,-0.05
2021-08-19 18:12:31.464,-0.57,-0.085
2021-08-19 18:12:31.468,-0.535,-0.085
2021-08-19 18:12:31.472,-0.525,-0.09
2021-08-19 18:12:31.476,-0.635,-0.09
2021-08-19 18:12:31.480,-0.61,-0.09
2021-08-19 18:12:31.484,-0.56,-0.045
2021-08-19 18:12:31.488,-0.56,-0.035
2021-08-19 18:12:31.492,-0.605,-0.025
2021-08-19 18:12:31.496,-0.685,-0.02
2021-08-19 18:12:31.500,-0.725,-0.04
2021-08-19 18:12:31.504,-0.62,-0.055
2021-08-19 18:12:31.508,-0.56,-0.045
2021-08-19 18:12:31.512,-0.545,-0.045
2021-08-19 18:12:31.516,-0.63,-0.035
2021-08-19 18:12:31.520,-0.66,0.025
2021-08-19 18:12:31.524,-0.67,0.065
2021-08-19 18:12:31.528,-0.655,0.0
2021-08-19 18:12:31.532,-0.515,-0.08
2021-08-19 18:12:31.536,-0.36,-0.18
2021-08-19 18:12:31.540,-0.39,-0.16
2021-08-19 18:12:31.544,-0.515,-0.095
2021-08-19 18:12:31.548,-0.735,-0.025
2021-08-19 18:12:31.552,-0.87,-0.015
2021-08-19 18:12:31.556,-0.795,-0.045
2021-08-19 18:12:31.560,-0.69,-0.03
2021-08-19 18:12:31.564,-0.71,-0.03
2021-08-19 18:12:31.568,-0.67,-0.01
2021-08-19 18:12:31.572,-0.655,-0.015
2021-08-19 18:12:31.576,-0.64,-0.035
2021-08-19 18:12:31.580,-0.63,-0.01
2021-08-19 18:12:31.584,-0.63,-0.01
2021-08-19 18:12:31.588,-0.59,-0.015
2021-08-19 18:12:31.592,-0.595,-0.025
2021-08-19 18:12:31.596,-0.605,-0.055
2021-08-19 18:12:31.600,-0.575,-0.045
2021-08-19 18:12:31.604,-0.515,-0.055
2021-08-19 18:12:31.608,-0.53,-0.04
2021-08-19 18:12:31.612,-0.625,-0.035
2021-08-19 18:12:31.616,-0.6,-0.02
2021-08-19 18:12:31.620,-0.59,-0.035
2021-08-19 18:12:31.624,-0.595,-0.015
2021-08-19 18:12:31.628,-0.58,-0.01
2021-08-19 18:12:31.632,-0.505,-0.02
2021-08-19 18:12:31.636,-0.485,-0.03
2021-08-19 18:12:31.640,-0.505,-0.03
2021-08-19 18:12:31.644,-0.5,-0.01
2021-08-19 18:12:31.648,-0.55,-0.035
2021-08-19 18:12:31.652,-0.505,-0.05
2021-08-19 18:12:31.656,-0.51,-0.025
2021-08-19 18:12:31.660,-0.575,0.0
2021-08-19 18:12:31.664,-0.6,0.005
2021-08-19 18:12:31.668,-0.575,0.0
2021-08-19 18:12:31.672,-0.525,-0.02
2021-08-19 18:12:31.676,-0.57,-0.04
2021-08-19 18:12:31.680,-0.64,-0.005
2021-08-19 18:12:31.684,-0.68,0.065
2021-08-19 18:12:31.688,-0.57,0.01
2021-08-19 18:12:31.692,-0.45,-0.065
2021-08-19 18:12:31.696,-0.435,-0.045
2021-08-19 18:12:31.700,-0.575,0.005
2021-08-19 18:12:31.704,-0.58,0.055
2021-08-19 18:12:31.708,-0.58,0.095
2021-08-19 18:12:31.712,-0.595,0.095
2021-08-19 18:12:31.716,-0.49,0.06
2021-08-19 18:12:31.720,-0.34,0.04
2021-08-19 18:12:31.724,-0.285,0.0
2021-08-19 18:12:31.728,-0.465,0.07
2021-08-19 18:12:31.732,-0.56,0.095
2021-08-19 18:12:31.736,-0.415,0.015
2021-08-19 18:12:31.740,-0.245,-0.075
2021-08-19 18:12:31.744,-0.265,-0.075
2021-08-19 18:12:31.748,-0.4,0.03
2021-08-19 18:12:31.752,-0.48,0.09
2021-08-19 18:12:31.756,-0.355,0.05
2021-08-19 18:12:31.760,-0.185,-0.045
2021-08-19 18:12:31.764,-0.17,-0.1
2021-08-19 18:12:31.768,-0.27,-0.075
2021-08-19 18:12:31.772,-0.215,-0.03
2021-08-19 18:12:31.776,-0.325,-0.015
2021-08-19 18:12:31.780,-0.41,0.015
2021-08-19 18:12:31.784,-0.46,0.015
2021-08-19 18:12:31.788,-0.53,0.0
2021-08-19 18:12:31.792,-0.58,0.075
2021-08-19 18:12:31.796,-0.62,0.06
2021-08-19 18:12:31.800,-0.535,-0.025
2021-08-19 18:12:31.804,-0.56,-0.055
2021-08-19 18:12:31.808,-0.5,-0.055
2021-08-19 18:12:31.812,-0.485,-0.05
2021-08-19 18:12:31.816,-0.53,-0.04
2021-08-19 18:12:31.820,-0.6,-0.01
2021-08-19 18:12:31.824,-0.57,0.005
2021-08-19 18:12:31.828,-0.515,-0.005
2021-08-19 18:12:31.832,-0.525,-0.01
2021-08-19 18:12:31.836,-0.515,0.01
2021-08-19 18:12:31.840,-0.485,0.0
2021-08-19 18:12:31.844,-0.47,0.03
2021-08-19 18:12:31.848,-0.505,0.095
2021-08-19 18:12:31.852,-0.675,0.155
2021-08-19 18:12:31.856,-0.78,0.21
2021-08-19 18:12:31.860,-0.655,0.18
2021-08-19 18:12:31.864,-0.315,0.095
2021-08-19 18:12:31.868,0.44,0.065
2021-08-19 18:12:31.872,1.29,-0.045
2021-08-19 18:12:31.876,1.915,-0.35
2021-08-19 18:12:31.880,1.76,-0.705
2021-08-19 18:12:31.884,0.85,-0.855
2021-08-19 18:12:31.888,0.045,-0.78
2021-08-19 18:12:31.892,-0.54,-0.695
2021-08-19 18:12:31.896,-0.77,-0.675
2021-08-19 18:12:31.900,-0.63,-0.465
2021-08-19 18:12:31.904,-0.64,-0.385
2021-08-19 18:12:31.908,-0.61,-0.29
2021-08-19 18:12:31.912,-0.48,-0.18
2021-08-19 18:12:31.916,-0.38,-0.145
2021-08-19 18:12:31.920,-0.355,-0.085
2021-08-19 18:12:31.924,-0.495,0.0
2021-08-19 18:12:31.928,-0.625,0.04
2021-08-19 18:12:31.932,-0.58,0.02
2021-08-19 18:12:31.936,-0.565,0.025
2021-08-19 18:12:31.940,-0.535,0.03
2021-08-19 18:12:31.944,-0.43,0.005
2021-08-19 18:12:31.948,-0.45,0.0
2021-08-19 18:12:31.952,-0.615,0.065
2021-08-19 18:12:31.956,-0.65,0.07
2021-08-19 18:12:31.960,-0.64,0.06
2021-08-19 18:12:31.964,-0.6,0.045
2021-08-19 18:12:31.968,-0.54,0.04
2021-08-19 18:12:31.972,-0.52,0.09
2021-08-19 18:12:31.976,-0.55,0.08
2021-08-19 18:12:31.980,-0.62,0.065
2021-08-19 18:12:31.984,-0.605,0.065
2021-08-19 18:12:31.988,-0.495,0.065
2021-08-19 18:12:31.992,-0.46,0.045
2021-08-19 18:12:31.996,-0.415,0.03
2021-08-19 18:12:32.000,-0.375,0.075
2021-08-19 18:12:32.004,-0.49,0.16
2021-08-19 18:12:32.008,-0.72,0.185
2021-08-19 18:12:32.012,-0.58,0.075
2021-08-19 18:12:32.016,-0.435,-0.01
2021-08-19 18:12:32.020,-0.55,-0.025
2021-08-19 18:12:32.024,-0.61,-0.005
2021-08-19 18:12:32.028,-0.565,-0.035
2021-08-19 18:12:32.032,-0.47,-0.06
2021-08-19 18:12:32.036,-0.47,-0.055
2021-08-19 18:12:32.040,-0.59,-0.05
2021-08-19 18:12:32.044,-0.625,0.03
2021-08-19 18:12:32.048,-0.455,0.015
2021-08-19 18:12:32.052,-0.41,-0.01
2021-08-19 18:12:32.056,-0.545,0.02
2021-08-19 18:12:32.060,-0.575,0.04
2021-08-19 18:12:32.064,-0.445,0.025
2021-08-19 18:12:32.068,-0.365,-0.005
2021-08-19 18:12:32.072,-0.345,-0.015
2021-08-19 18:12:32.076,-0.345,-0.01
2021-08-19 18:12:32.080,-0.405,0.04
2021-08-19 18:12:32.084,-0.395,0.045
2021-08-19 18:12:32.088,-0.35,0.005
2021-08-19 18:12:32.092,-0.35,-0.02
2021-08-19 18:12:32.096,-0.28,-0.02
2021-08-19 18:12:32.100,-0.27,-0.02
2021-08-19 18:12:32.104,-0.415,-0.035
2021-08-19 18:12:32.108,-0.505,-0.025
2021-08-19 18:12:32.112,-0.525,0.03
2021-08-19 18:12:32.116,-0.48,0.025
2021-08-19 18:12:32.120,-0.48,-0.005
2021-08-19 18:12:32.124,-0.48,-0.055
2021-08-19 18:12:32.128,-0.535,-0.065
2021-08-19 18:12:32.132,-0.555,-0.05
2021-08-19 18:12:32.136,-0.475,-0.05
2021-08-19 18:12:32.140,-0.355,-0.005
2021-08-19 18:12:32.144,-0.315,0.025
2021-08-19 18:12:32.148,-0.39,-0.005
2021-08-19 18:12:32.152,-0.395,0.015
2021-08-19 18:12:32.156,-0.265,0.055
2021-08-19 18:12:32.160,-0.185,0.045
2021-08-19 18:12:32.164,-0.065,-0.045
2021-08-19 18:12:32.168,-0.025,-0.06
2021-08-19 18:12:32.172,-0.025,-0.035
2021-08-19 18:12:32.176,-0.035,0.0
2021-08-19 18:12:32.180,0.095,-0.08
2021-08-19 18:12:32.184,0.275,-0.095
2021-08-19 18:12:32.188,0.23,-0.11
2021-08-19 18:12:32.192,0.075,-0.1
2021-08-19 18:12:32.196,-0.025,-0.065
2021-08-19 18:12:32.200,0.065,-0.01
2021-08-19 18:12:32.204,0.135,0.025
2021-08-19 18:12:32.208,0.14,0.035
2021-08-19 18:12:32.212,0.14,0.0
2021-08-19 18:12:32.216,0.32,0.03
2021-08-19 18:12:32.220,0.355,0.085
2021-08-19 18:12:32.224,0.12,0.165
2021-08-19 18:12:32.228,0.045,0.145
2021-08-19 18:12:32.232,0.02,0.005
2021-08-19 18:12:32.236,0.145,-0.075
2021-08-19 18:12:32.240,0.205,-0.08
2021-08-19 18:12:32.244,0.065,0.005
2021-08-19 18:12:32.248,-0.1,0.11
2021-08-19 18:12:32.252,-0.03,0.115
2021-08-19 18:12:32.256,0.155,0.065
2021-08-19 18:12:32.260,0.375,-0.045
2021-08-19 18:12:32.264,0.47,-0.075
2021-08-19 18:12:32.268,0.275,-0.04
2021-08-19 18:12:32.272,0.06,0.045
2021-08-19 18:12:32.276,0.0,0.095
2021-08-19 18:12:32.280,0.17,0.08
2021-08-19 18:12:32.284,0.34,0.04
2021-08-19 18:12:32.288,0.23,0.035
2021-08-19 18:12:32.292,0.09,0.095
2021-08-19 18:12:32.296,0.135,0.12
2021-08-19 18:12:32.300,0.155,0.115
2021-08-19 18:12:32.304,0.17,0.15
2021-08-19 18:12:32.308,0.23,0.115
2021-08-19 18:12:32.312,0.295,0.08
2021-08-19 18:12:32.316,0.27,0.075
2021-08-19 18:12:32.320,0.15,0.115
2021-08-19 18:12:32.324,0.22,0.185
2021-08-19 18:12:32.328,0.505,0.35
2021-08-19 18:12:32.332,0.74,0.435
2021-08-19 18:12:32.336,0.87,0.3
2021-08-19 18:12:32.340,1.055,-0.105
2021-08-19 18:12:32.344,1.34,-0.49
2021-08-19 18:12:32.348,1.26,-0.845
2021-08-19 18:12:32.352,0.33,-1.175
2021-08-19 18:12:32.356,-0.56,-1.235
2021-08-19 18:12:32.360,-1.19,-1.28
2021-08-19 18:12:32.364,-1.535,-1.125
2021-08-19 18:12:32.368,-1.63,-0.645
2021-08-19 18:12:32.372,-1.63,-0.195
2021-08-19 18:12:32.376,-1.465,0.185
2021-08-19 18:12:32.380,-0.98,0.395
2021-08-19 18:12:32.384,-0.82,0.26
2021-08-19 18:12:32.388,-0.72,0.195
2021-08-19 18:12:32.392,-0.68,0.215
2021-08-19 18:12:32.396,-0.49,0.185
2021-08-19 18:12:32.400,-0.275,0.15
2021-08-19 18:12:32.404,-0.195,0.12
2021-08-19 18:12:32.408,-0.19,0.165
2021-08-19 18:12:32.412,-0.185,0.195
2021-08-19 18:12:32.416,-0.21,0.15
2021-08-19 18:12:32.420,-0.175,0.115
2021-08-19 18:12:32.424,-0.145,0.115
2021-08-19 18:12:32.428,-0.095,0.12
2021-08-19 18:12:32.432,-0.075,0.1
2021-08-19 18:12:32.436,0.045,0.085
2021-08-19 18:12:32.440,0.195,0.02
2021-08-19 18:12:32.444,0.34,0.03
2021-08-19 18:12:32.448,0.155,0.07
2021-08-19 18:12:32.452,-0.13,0.145
2021-08-19 18:12:32.456,-0.135,0.2
2021-08-19 18:12:32.460,0.03,0.18
2021-08-19 18:12:32.464,0.165,0.08
2021-08-19 18:12:32.468,0.15,0.065
2021-08-19 18:12:32.472,0.02,0.145
2021-08-19 18:12:32.476,0.0,0.14
2021-08-19 18:12:32.480,-0.03,0.105
2021-08-19 18:12:32.484,0.085,0.075
2021-08-19 18:12:32.488,0.145,0.075
2021-08-19 18:12:32.492,0.07,0.145
2021-08-19 18:12:32.496,0.11,0.185
2021-08-19 18:12:32.500,0.22,0.12
2021-08-19 18:12:32.504,0.295,0.055
2021-08-19 18:12:32.508,0.395,0.055
2021-08-19 18:12:32.512,0.455,0.085
2021-08-19 18:12:32.516,0.465,0.1
2021-08-19 18:12:32.520,0.47,0.15
2021-08-19 18:12:32.524,0.52,0.16
2021-08-19 18:12:32.528,0.54,0.175
2021-08-19 18:12:32.532,0.5,0.19
2021-08-19 18:12:32.536,0.53,0.21
2021-08-19 18:12:32.540,0.635,0.195
2021-08-19 18:12:32.544,0.73,0.15
2021-08-19 18:12:32.548,0.78,0.185
2021-08-19 18:12:32.552,0.8,0.185
2021-08-19 18:12:32.556,0.75,0.215
2021-08-19 18:12:32.560,0.79,0.21
2021-08-19 18:12:32.564,0.85,0.265
2021-08-19 18:12:32.568,0.945,0.27
2021-08-19 18:12:32.572,1.05,0.24
2021-08-19 18:12:32.576,1.215,0.215
2021-08-19 18:12:32.580,1.23,0.245
2021-08-19 18:12:32.584,1.175,0.315
2021-08-19 18:12:32.588,1.12,0.325
2021-08-19 18:12:32.592,1.075,0.255
2021-08-19 18:12:32.596,1.235,0.195
2021-08-19 18:12:32.600,1.42,0.175
2021-08-19 18:12:32.604,1.46,0.19
2021-08-19 18:12:32.608,1.315,0.18
2021-08-19 18:12:32.612,0.96,0.195
2021-08-19 18:12:32.616,0.79,0.18
2021-08-19 18:12:32.620,0.74,0.075
2021-08-19 18:12:32.624,0.755,-0.03
2021-08-19 18:12:32.628,0.765,-0.12
2021-08-19 18:12:32.632,0.755,-0.14
2021-08-19 18:12:32.636,0.55,-0.09
2021-08-19 18:12:32.640,0.28,-0.02
2021-08-19 18:12:32.644,0.085,0.035
2021-08-19 18:12:32.648,0.09,0.07
2021-08-19 18:12:32.652,0.14,0.05
2021-08-19 18:12:32.656,0.13,0.04
2021-08-19 18:12:32.660,0.065,0.08
2021-08-19 18:12:32.664,0.04,0.085
2021-08-19 18:12:32.668,0.125,0.04
2021-08-19 18:12:32.672,0.17,0.055
2021-08-19 18:12:32.676,0.095,0.09
2021-08-19 18:12:32.680,-0.005,0.105
2021-08-19 18:12:32.684,-0.04,0.105
2021-08-19 18:12:32.688,0.0,0.12
2021-08-19 18:12:32.692,0.025,0.12
2021-08-19 18:12:32.696,0.075,0.105
2021-08-19 18:12:32.700,0.155,0.105
2021-08-19 18:12:32.704,0.16,0.105
2021-08-19 18:12:32.708,0.105,0.115
2021-08-19 18:12:32.712,0.125,0.12
2021-08-19 18:12:32.716,0.14,0.125
2021-08-19 18:12:32.720,0.065,0.1
2021-08-19 18:12:32.724,0.045,0.11
2021-08-19 18:12:32.728,0.1,0.12
2021-08-19 18:12:32.732,0.105,0.115
2021-08-19 18:12:32.736,0.09,0.125
2021-08-19 18:12:32.740,0.09,0.145
2021-08-19 18:12:32.744,0.14,0.215
2021-08-19 18:12:32.748,0.06,0.355
2021-08-19 18:12:32.752,-0.145,0.35
2021-08-19 18:12:32.756,-0.285,0.18
2021-08-19 18:12:32.760,-0.115,0.0
2021-08-19 18:12:32.764,-0.01,0.0
2021-08-19 18:12:32.768,-0.075,0.065
2021-08-19 18:12:32.772,-0.11,0.055
2021-08-19 18:12:32.776,-0.07,0.045
2021-08-19 18:12:32.780,-0.03,0.09
2021-08-19 18:12:32.784,-0.055,0.14
2021-08-19 18:12:32.788,-0.085,0.18
2021-08-19 18:12:32.792,0.0,0.105
2021-08-19 18:12:32.796,0.01,0.045
2021-08-19 18:12:32.800,0.115,0.03
2021-08-19 18:12:32.804,0.255,0.05
2021-08-19 18:12:32.808,-0.005,0.115
2021-08-19 18:12:32.812,-0.365,0.19
2021-08-19 18:12:32.816,-0.48,0.225
2021-08-19 18:12:32.820,-0.395,0.14
2021-08-19 18:12:32.824,-0.3,0.08
2021-08-19 18:12:32.828,-0.15,0.045
2021-08-19 18:12:32.832,-0.065,0.05
2021-08-19 18:12:32.836,-0.045,0.03
2021-08-19 18:12:32.840,-0.015,0.055
2021-08-19 18:12:32.844,-0.06,0.08
2021-08-19 18:12:32.848,-0.13,0.065
2021-08-19 18:12:32.852,-0.145,0.095
2021-08-19 18:12:32.856,-0.11,0.1
2021-08-19 18:12:32.860,-0.08,0.04
2021-08-19 18:12:32.864,-0.03,0.0
2021-08-19 18:12:32.868,-0.03,-0.005
2021-08-19 18:12:32.872,-0.16,0.035
2021-08-19 18:12:32.876,-0.24,0.12
2021-08-19 18:12:32.880,-0.105,0.18
2021-08-19 18:12:32.884,-0.05,0.14
2021-08-19 18:12:32.888,-0.235,0.115
2021-08-19 18:12:32.892,-0.28,0.06
2021-08-19 18:12:32.896,-0.215,0.03
2021-08-19 18:12:32.900,-0.125,0.055
2021-08-19 18:12:32.904,-0.07,0.085
2021-08-19 18:12:32.908,-0.18,0.105
2021-08-19 18:12:32.912,-0.145,0.055
2021-08-19 18:12:32.916,-0.11,0.035
2021-08-19 18:12:32.920,-0.125,0.045
2021-08-19 18:12:32.924,0.0,0.065
2021-08-19 18:12:32.928,0.095,0.05
2021-08-19 18:12:32.932,-0.04,0.075
2021-08-19 18:12:32.936,-0.235,0.155
2021-08-19 18:12:32.940,-0.28,0.17
2021-08-19 18:12:32.944,-0.115,0.135
2021-08-19 18:12:32.948,-0.03,0.075
2021-08-19 18:12:32.952,-0.045,0.015
2021-08-19 18:12:32.956,-0.085,0.005
2021-08-19 18:12:32.960,-0.27,0.09
2021-08-19 18:12:32.964,-0.36,0.215
2021-08-19 18:12:32.968,-0.285,0.21
2021-08-19 18:12:32.972,-0.18,0.13
2021-08-19 18:12:32.976,-0.17,0.095
2021-08-19 18:12:32.980,-0.24,0.08
2021-08-19 18:12:32.984,-0.19,0.05
2021-08-19 18:12:32.988,-0.205,0.02
2021-08-19 18:12:32.992,-0.265,0.055
2021-08-19 18:12:32.996,-0.205,0.085
2021-08-19 18:12:33.000,-0.155,0.085
2021-08-19 18:12:33.004,-0.195,0.05
2021-08-19 18:12:33.008,-0.215,0.01
2021-08-19 18:12:33.012,-0.265,0.025
2021-08-19 18:12:33.016,-0.22,0.035
2021-08-19 18:12:33.020,-0.235,0.075
2021-08-19 18:12:33.024,-0.335,0.055
2021-08-19 18:12:33.028,-0.28,0.035
2021-08-19 18:12:33.032,-0.195,0.04
2021-08-19 18:12:33.036,-0.255,0.05
2021-08-19 18:12:33.040,-0.33,0.055
2021-08-19 18:12:33.044,-0.24,0.07
2021-08-19 18:12:33.048,-0.25,0.11
2021-08-19 18:12:33.052,-0.29,0.15
2021-08-19 18:12:33.056,-0.215,0.15
2021-08-19 18:12:33.060,-0.025,0.075
2021-08-19 18:12:33.064,-0.225,-0.025
2021-08-19 18:12:33.068,-0.48,0.005
2021-08-19 18:12:33.072,-0.5,0.065
2021-08-19 18:12:33.076,-0.405,0.08
2021-08-19 18:12:33.080,-0.36,0.09
2021-08-19 18:12:33.084,-0.36,0.085
2021-08-19 18:12:33.088,-0.38,0.085
2021-08-19 18:12:33.092,-0.365,0.05
2021-08-19 18:12:33.096,-0.195,0.015
2021-08-19 18:12:33.100,-0.215,0.0
2021-08-19 18:12:33.104,-0.36,0.04
2021-08-19 18:12:33.108,-0.4,0.07
2021-08-19 18:12:33.112,-0.41,0.07
2021-08-19 18:12:33.116,-0.385,0.06
2021-08-19 18:12:33.120,-0.33,0.02
2021-08-19 18:12:33.124,-0.275,0.005
2021-08-19 18:12:33.128,-0.25,-0.035
2021-08-19 18:12:33.132,-0.12,0.0
2021-08-19 18:12:33.136,-0.005,0.055
2021-08-19 18:12:33.140,-0.1,0.11
2021-08-19 18:12:33.144,0.055,0.065
2021-08-19 18:12:33.148,0.3,-0.015
2021-08-19 18:12:33.152,0.16,-0.06
2021-08-19 18:12:33.156,-0.105,-0.06
2021-08-19 18:12:33.160,-0.155,-0.005
2021-08-19 18:12:33.164,-0.325,0.075
2021-08-19 18:12:33.168,-0.51,0.14
2021-08-19 18:12:33.172,-0.535,0.155
2021-08-19 18:12:33.176,-0.41,0.13
2021-08-19 18:12:33.180,-0.325,0.04
2021-08-19 18:12:33.184,-0.29,-0.075
2021-08-19 18:12:33.188,-0.395,0.0
2021-08-19 18:12:33.192,-0.345,0.025
2021-08-19 18:12:33.196,-0.37,0.005
2021-08-19 18:12:33.200,-0.48,0.02
2021-08-19 18:12:33.204,-0.5,-0.035
2021-08-19 18:12:33.208,-0.39,-0.025
2021-08-19 18:12:33.212,-0.29,-0.055
2021-08-19 18:12:33.216,-0.36,-0.02
2021-08-19 18:12:33.220,-0.31,0.01
2021-08-19 18:12:33.224,-0.44,0.005
2021-08-19 18:12:33.228,-0.7,0.045
2021-08-19 18:12:33.232,-0.61,0.0
2021-08-19 18:12:33.236,-0.445,-0.01
2021-08-19 18:12:33.240,-0.425,0.035
2021-08-19 18:12:33.244,-0.525,0.095
2021-08-19 18:12:33.248,-0.55,0.17
2021-08-19 18:12:33.252,-0.455,0.185
2021-08-19 18:12:33.256,-0.2,0.03
2021-08-19 18:12:33.260,0.415,-0.025
2021-08-19 18:12:33.264,1.165,-0.12
2021-08-19 18:12:33.268,1.86,-0.39
2021-08-19 18:12:33.276,1.375,-0.95
2021-08-19 18:12:33.280,0.525,-1.04
2021-08-19 18:12:33.284,-0.22,-0.955
2021-08-19 18:12:33.288,-0.53,-0.795
2021-08-19 18:12:33.292,-0.55,-0.505
2021-08-19 18:12:33.296,-0.575,-0.28
2021-08-19 18:12:33.300,-0.505,-0.23
2021-08-19 18:12:33.304,-0.24,-0.115
2021-08-19 18:12:33.308,-0.25,-0.1
2021-08-19 18:12:33.312,-0.585,-0.135
2021-08-19 18:12:33.316,-0.705,-0.05
2021-08-19 18:12:33.320,-0.565,0.03
2021-08-19 18:12:33.324,-0.525,0.04
2021-08-19 18:12:33.328,-0.5,0.03
2021-08-19 18:12:33.332,-0.515,0.005
2021-08-19 18:12:33.336,-0.455,0.01
2021-08-19 18:12:33.340,-0.36,-0.015
2021-08-19 18:12:33.344,-0.35,-0.02
2021-08-19 18:12:33.348,-0.355,-0.015
2021-08-19 18:12:33.352,-0.26,-0.01
2021-08-19 18:12:33.356,-0.28,0.01
2021-08-19 18:12:33.360,-0.42,0.03
2021-08-19 18:12:33.364,-0.45,-0.015
2021-08-19 18:12:33.368,-0.295,-0.065
2021-08-19 18:12:33.372,-0.435,-0.055
2021-08-19 18:12:33.376,-0.76,0.095
2021-08-19 18:12:33.380,-0.71,0.165
2021-08-19 18:12:33.384,-0.615,0.15
2021-08-19 18:12:33.388,-0.64,0.135
2021-08-19 18:12:33.392,-0.62,0.1
2021-08-19 18:12:33.396,-0.595,0.045
2021-08-19 18:12:33.400,-0.56,0.01
2021-08-19 18:12:33.404,-0.575,0.05
2021-08-19 18:12:33.408,-0.695,0.105
2021-08-19 18:12:33.412,-0.69,0.085
2021-08-19 18:12:33.416,-0.555,0.05
2021-08-19 18:12:33.420,-0.445,0.005
2021-08-19 18:12:33.424,-0.47,0.005
2021-08-19 18:12:33.428,-0.47,0.045
2021-08-19 18:12:33.432,-0.515,0.105
2021-08-19 18:12:33.436,-0.625,0.105
2021-08-19 18:12:33.440,-0.58,0.035
2021-08-19 18:12:33.444,-0.405,0.015
2021-08-19 18:12:33.448,-0.47,0.02
2021-08-19 18:12:33.452,-0.735,0.05
2021-08-19 18:12:33.456,-0.585,0.055
2021-08-19 18:12:33.460,-0.3,0.095
2021-08-19 18:12:33.464,-0.375,0.15
2021-08-19 18:12:33.468,-0.59,0.195
2021-08-19 18:12:33.472,-0.625,0.13
2021-08-19 18:12:33.476,-0.525,0.0
2021-08-19 18:12:33.480,-0.36,-0.095
2021-08-19 18:12:33.484,-0.34,-0.095
2021-08-19 18:12:33.488,-0.43,-0.025
2021-08-19 18:12:33.492,-0.455,0.04
2021-08-19 18:12:33.496,-0.395,0.055
2021-08-19 18:12:33.500,-0.4,0.025
2021-08-19 18:12:33.504,-0.53,0.03
2021-08-19 18:12:33.508,-0.63,0.065
2021-08-19 18:12:33.512,-0.795,0.125
2021-08-19 18:12:33.516,-0.7,0.1
2021-08-19 18:12:33.520,-0.66,0.095
2021-08-19 18:12:33.524,-0.745,0.2
2021-08-19 18:12:33.528,-0.81,0.195
2021-08-19 18:12:33.532,-0.68,0.015
2021-08-19 18:12:33.536,-0.58,-0.085
2021-08-19 18:12:33.540,-0.59,-0.04
2021-08-19 18:12:33.544,-0.48,0.0
2021-08-19 18:12:33.548,-0.38,0.01
2021-08-19 18:12:33.552,-0.55,0.035
2021-08-19 18:12:33.556,-0.58,0.08
2021-08-19 18:12:33.560,-0.465,0.095
2021-08-19 18:12:33.564,-0.425,0.1
2021-08-19 18:12:33.568,-0.345,0.095
2021-08-19 18:12:33.572,-0.275,0.08
2021-08-19 18:12:33.576,-0.23,0.06
2021-08-19 18:12:33.580,-0.22,0.015
2021-08-19 18:12:33.584,-0.195,0.02
2021-08-19 18:12:33.588,-0.185,0.05
2021-08-19 18:12:33.592,-0.13,0.05
2021-08-19 18:12:33.596,-0.15,0.035
2021-08-19 18:12:33.600,-0.215,0.06
2021-08-19 18:12:33.604,-0.135,0.05
2021-08-19 18:12:33.608,-0.015,-0.005
2021-08-19 18:12:33.612,-0.1,-0.04
2021-08-19 18:12:33.616,-0.225,-0.01
2021-08-19 18:12:33.620,-0.22,0.03
2021-08-19 18:12:33.624,-0.09,0.035
2021-08-19 18:12:33.628,-0.295,0.04
2021-08-19 18:12:33.632,-0.51,0.125
2021-08-19 18:12:33.636,-0.44,0.175
2021-08-19 18:12:33.640,-0.37,0.24
2021-08-19 18:12:33.644,-0.37,0.185
2021-08-19 18:12:33.648,-0.315,0.085
2021-08-19 18:12:33.652,-0.22,-0.025
2021-08-19 18:12:33.656,-0.18,0.06
2021-08-19 18:12:33.660,-0.115,0.13
2021-08-19 18:12:33.664,-0.15,0.165
2021-08-19 18:12:33.668,-0.185,0.15
2021-08-19 18:12:33.672,-0.03,0.02
2021-08-19 18:12:33.676,0.09,-0.025
2021-08-19 18:12:33.680,0.0,0.07
2021-08-19 18:12:33.684,-0.155,0.195
2021-08-19 18:12:33.688,-0.25,0.15
2021-08-19 18:12:33.692,-0.135,0.025
2021-08-19 18:12:33.696,-0.01,0.0
2021-08-19 18:12:33.700,-0.08,0.015
2021-08-19 18:12:33.704,-0.17,0.115
2021-08-19 18:12:33.708,-0.085,0.155
2021-08-19 18:12:33.712,-0.135,0.14
2021-08-19 18:12:33.716,-0.31,0.115
2021-08-19 18:12:33.720,-0.43,0.15
2021-08-19 18:12:33.724,-0.29,0.09
2021-08-19 18:12:33.728,-0.155,0.035
2021-08-19 18:12:33.732,-0.15,0.095
2021-08-19 18:12:33.736,-0.14,0.075
2021-08-19 18:12:33.740,-0.19,0.015
2021-08-19 18:12:33.744,-0.255,0.025
2021-08-19 18:12:33.748,-0.3,0.105
2021-08-19 18:12:33.752,-0.4,0.12
2021-08-19 18:12:33.756,-0.44,0.05
2021-08-19 18:12:33.760,-0.38,0.01
2021-08-19 18:12:33.764,-0.36,-0.01
2021-08-19 18:12:33.768,-0.39,0.005
2021-08-19 18:12:33.772,-0.25,0.055
2021-08-19 18:12:33.776,-0.225,0.095
2021-08-19 18:12:33.780,-0.29,0.105
2021-08-19 18:12:33.784,-0.25,0.07
2021-08-19 18:12:33.788,-0.365,0.06
2021-08-19 18:12:33.792,-0.405,0.085
2021-08-19 18:12:33.796,-0.305,0.085
2021-08-19 18:12:33.800,-0.18,0.05
2021-08-19 18:12:33.804,-0.21,0.04
2021-08-19 18:12:33.808,-0.315,0.08
2021-08-19 18:12:33.812,-0.385,0.105
2021-08-19 18:12:33.816,-0.43,0.095
2021-08-19 18:12:33.820,-0.4,0.1
2021-08-19 18:12:33.824,-0.345,0.1
2021-08-19 18:12:33.828,-0.29,0.1
2021-08-19 18:12:33.832,-0.275,0.07
2021-08-19 18:12:33.836,-0.31,0.09
2021-08-19 18:12:33.840,-0.395,0.1
2021-08-19 18:12:33.844,-0.385,0.115
2021-08-19 18:12:33.848,-0.245,0.12
2021-08-19 18:12:33.852,-0.245,0.14
2021-08-19 18:12:33.856,-0.365,0.18
2021-08-19 18:12:33.860,-0.275,0.17
2021-08-19 18:12:33.864,-0.17,0.125
2021-08-19 18:12:33.868,-0.28,-0.015
2021-08-19 18:12:33.872,-0.39,-0.055
2021-08-19 18:12:33.876,-0.31,-0.025
2021-08-19 18:12:33.880,-0.18,-0.01
2021-08-19 18:12:33.884,-0.15,-0.005
2021-08-19 18:12:33.888,-0.19,0.075
2021-08-19 18:12:33.892,-0.195,0.14
2021-08-19 18:12:33.896,-0.27,0.14
2021-08-19 18:12:33.900,-0.32,0.105
2021-08-19 18:12:33.904,-0.325,0.115
2021-08-19 18:12:33.908,-0.205,0.045
2021-08-19 18:12:33.912,-0.07,0.05
2021-08-19 18:12:33.916,0.13,0.04
2021-08-19 18:12:33.920,-0.115,0.035
2021-08-19 18:12:33.924,-0.315,0.07
2021-08-19 18:12:33.928,-0.27,0.09
2021-08-19 18:12:33.932,-0.255,0.18
2021-08-19 18:12:33.936,-0.295,0.265
2021-08-19 18:12:33.940,-0.26,0.19
2021-08-19 18:12:33.944,-0.185,0.065
2021-08-19 18:12:33.948,-0.12,-0.015
2021-08-19 18:12:33.952,-0.025,-0.045
2021-08-19 18:12:33.956,0.11,-0.025
2021-08-19 18:12:33.960,0.04,0.015
2021-08-19 18:12:33.964,-0.14,0.045
2021-08-19 18:12:33.968,-0.15,0.055
2021-08-19 18:12:33.972,-0.065,0.075
2021-08-19 18:12:33.976,-0.065,0.15
2021-08-19 18:12:33.980,-0.145,0.145
2021-08-19 18:12:33.984,0.01,0.11
2021-08-19 18:12:33.988,0.22,0.085
2021-08-19 18:12:33.992,0.1,0.045
2021-08-19 18:12:33.996,-0.15,0.025
2021-08-19 18:12:34.000,-0.045,0.055
2021-08-19 18:12:34.004,-0.01,0.075
2021-08-19 18:12:34.008,-0.215,0.09
2021-08-19 18:12:34.012,-0.355,0.12
2021-08-19 18:12:34.016,-0.25,0.205
2021-08-19 18:12:34.020,-0.14,0.225
2021-08-19 18:12:34.024,-0.095,0.175
2021-08-19 18:12:34.028,-0.03,0.09
2021-08-19 18:12:34.032,-0.01,0.075
2021-08-19 18:12:34.036,0.005,0.1
2021-08-19 18:12:34.040,-0.025,0.13
2021-08-19 18:12:34.044,-0.055,0.135
2021-08-19 18:12:34.048,-0.09,0.135
2021-08-19 18:12:34.052,-0.05,0.085
2021-08-19 18:12:34.056,-0.05,0.04
2021-08-19 18:12:34.060,-0.07,0.0
2021-08-19 18:12:34.064,0.025,-0.03
2021-08-19 18:12:34.068,0.17,-0.02
2021-08-19 18:12:34.072,0.15,-0.035
2021-08-19 18:12:34.076,0.165,0.0
2021-08-19 18:12:34.080,0.1,0.015
2021-08-19 18:12:34.084,-0.1,0.085
2021-08-19 18:12:34.088,-0.14,0.125
2021-08-19 18:12:34.092,0.025,0.12
2021-08-19 18:12:34.096,0.025,0.105
2021-08-19 18:12:34.100,0.13,0.115
2021-08-19 18:12:34.104,0.105,0.1
2021-08-19 18:12:34.108,-0.24,0.085
2021-08-19 18:12:34.112,-0.36,0.12
2021-08-19 18:12:34.116,-0.015,0.155
2021-08-19 18:12:34.120,0.115,0.155
2021-08-19 18:12:34.124,-0.03,0.085
2021-08-19 18:12:34.128,0.0,0.035
2021-08-19 18:12:34.132,0.08,0.045
2021-08-19 18:12:34.136,0.0,0.155
2021-08-19 18:12:34.140,-0.025,0.185
2021-08-19 18:12:34.144,-0.065,0.145
2021-08-19 18:12:34.148,-0.18,0.16
2021-08-19 18:12:34.152,-0.055,0.095
2021-08-19 18:12:34.156,0.225,-0.005
2021-08-19 18:12:34.160,0.305,-0.07
2021-08-19 18:12:34.164,0.0,0.065
2021-08-19 18:12:34.168,-0.08,0.105
2021-08-19 18:12:34.172,0.045,0.04
2021-08-19 18:12:34.176,-0.025,0.035
2021-08-19 18:12:34.180,-0.06,0.025
2021-08-19 18:12:34.184,-0.005,0.015
2021-08-19 18:12:34.188,-0.035,0.005
2021-08-19 18:12:34.192,0.055,0.045
2021-08-19 18:12:34.196,0.105,0.075
2021-08-19 18:12:34.200,0.005,0.075
2021-08-19 18:12:34.204,-0.04,0.075
2021-08-19 18:12:34.208,0.02,0.07
2021-08-19 18:12:34.212,0.0,0.08
2021-08-19 18:12:34.216,0.0,0.07
2021-08-19 18:12:34.220,0.02,0.1
2021-08-19 18:12:34.224,0.01,0.075
2021-08-19 18:12:34.228,0.04,0.06
2021-08-19 18:12:34.232,0.17,0.035
2021-08-19 18:12:34.236,0.06,0.09
2021-08-19 18:12:34.240,-0.08,0.14
2021-08-19 18:12:34.244,0.025,0.135
2021-08-19 18:12:34.248,0.045,0.215
2021-08-19 18:12:34.252,0.005,0.2
2021-08-19 18:12:34.256,0.065,0.08
2021-08-19 18:12:34.260,0.155,0.0
2021-08-19 18:12:34.264,0.05,0.045
2021-08-19 18:12:34.268,-0.085,0.24
2021-08-19 18:12:34.272,0.005,0.215
2021-08-19 18:12:34.276,0.12,0.085
2021-08-19 18:12:34.280,0.055,0.09
2021-08-19 18:12:34.284,0.095,0.045
2021-08-19 18:12:34.288,0.19,-0.065
2021-08-19 18:12:34.292,0.06,-0.01
2021-08-19 18:12:34.296,-0.06,0.14
2021-08-19 18:12:34.300,0.075,0.15
2021-08-19 18:12:34.304,0.14,0.09
2021-08-19 18:12:34.308,0.22,-0.01
2021-08-19 18:12:34.312,0.37,-0.04
2021-08-19 18:12:34.316,0.095,0.025
2021-08-19 18:12:34.320,-0.24,0.06
2021-08-19 18:12:34.324,-0.115,0.045
2021-08-19 18:12:34.328,0.085,0.07
2021-08-19 18:12:34.332,0.13,0.175
2021-08-19 18:12:34.336,-0.1,0.265
2021-08-19 18:12:34.340,-0.19,0.15
2021-08-19 18:12:34.344,0.055,-0.045
2021-08-19 18:12:34.348,0.215,-0.125
2021-08-19 18:12:34.352,0.045,-0.02
2021-08-19 18:12:34.356,-0.14,0.07
2021-08-19 18:12:34.360,-0.13,0.11
2021-08-19 18:12:34.364,-0.13,0.11
2021-08-19 18:12:34.368,-0.04,0.115
2021-08-19 18:12:34.372,0.09,0.1
2021-08-19 18:12:34.376,0.065,0.09
2021-08-19 18:12:34.380,0.08,0.07
2021-08-19 18:12:34.384,0.1,0.115
2021-08-19 18:12:34.388,-0.05,0.14
2021-08-19 18:12:34.392,-0.16,0.15
2021-08-19 18:12:34.396,-0.09,0.145
2021-08-19 18:12:34.400,-0.005,0.105
2021-08-19 18:12:34.404,-0.01,0.1
2021-08-19 18:12:34.408,-0.01,0.095
2021-08-19 18:12:34.412,0.07,0.08
2021-08-19 18:12:34.416,0.095,0.075
2021-08-19 18:12:34.420,0.02,0.07
2021-08-19 18:12:34.424,-0.03,0.115
2021-08-19 18:12:34.428,-0.04,0.13
2021-08-19 18:12:34.432,0.04,0.115
2021-08-19 18:12:34.436,0.22,0.075
2021-08-19 18:12:34.440,0.16,0.07
2021-08-19 18:12:34.444,0.03,0.055
2021-08-19 18:12:34.448,0.005,0.085
2021-08-19 18:12:34.452,-0.04,0.12
2021-08-19 18:12:34.456,-0.07,0.12
2021-08-19 18:12:34.460,0.005,0.1
2021-08-19 18:12:34.464,0.05,0.105
2021-08-19 18:12:34.468,0.07,0.105
2021-08-19 18:12:34.472,0.045,0.12
2021-08-19 18:12:34.476,0.04,0.125
2021-08-19 18:12:34.480,0.025,0.125
2021-08-19 18:12:34.484,0.13,0.115
2021-08-19 18:12:34.488,0.21,0.11
2021-08-19 18:12:34.492,-0.02,0.15
2021-08-19 18:12:34.496,-0.11,0.18
2021-08-19 18:12:34.500,0.05,0.175
2021-08-19 18:12:34.504,0.09,0.15
2021-08-19 18:12:34.508,-0.04,0.11
2021-08-19 18:12:34.512,-0.035,0.08
2021-08-19 18:12:34.516,0.07,0.05
2021-08-19 18:12:34.520,0.08,0.065
2021-08-19 18:12:34.524,0.025,0.1
2021-08-19 18:12:34.528,0.07,0.11
2021-08-19 18:12:34.532,0.08,0.13
2021-08-19 18:12:34.536,0.12,0.14
2021-08-19 18:12:34.540,0.315,0.18
2021-08-19 18:12:34.544,0.255,0.21
2021-08-19 18:12:34.548,0.075,0.31
2021-08-19 18:12:34.552,0.13,0.29
2021-08-19 18:12:34.556,0.335,0.225
2021-08-19 18:12:34.560,0.5,0.125
2021-08-19 18:12:34.564,0.57,0.015
2021-08-19 18:12:34.568,0.57,-0.03
2021-08-19 18:12:34.572,0.375,0.055
2021-08-19 18:12:34.576,0.28,0.11
2021-08-19 18:12:34.580,0.285,0.08
2021-08-19 18:12:34.584,0.285,0.03
2021-08-19 18:12:34.588,0.21,0.05
2021-08-19 18:12:34.592,0.165,0.095
2021-08-19 18:12:34.596,0.1,0.11
2021-08-19 18:12:34.600,0.03,0.11
2021-08-19 18:12:34.604,-0.06,0.135
2021-08-19 18:12:34.608,-0.015,0.09
2021-08-19 18:12:34.612,0.075,0.09
2021-08-19 18:12:34.616,0.265,0.08
2021-08-19 18:12:34.620,0.25,0.065
2021-08-19 18:12:34.624,0.105,0.08
2021-08-19 18:12:34.628,0.055,0.125
2021-08-19 18:12:34.632,0.03,0.13
2021-08-19 18:12:34.636,0.01,0.14
2021-08-19 18:12:34.640,0.075,0.175
2021-08-19 18:12:34.644,0.145,0.185
2021-08-19 18:12:34.648,0.065,0.235
2021-08-19 18:12:34.652,-0.12,0.34
2021-08-19 18:12:34.656,-0.08,0.405
2021-08-19 18:12:34.660,0.135,0.34
2021-08-19 18:12:34.664,0.535,0.2
2021-08-19 18:12:34.668,1.24,0.13
2021-08-19 18:12:34.672,1.92,0.025
2021-08-19 18:12:34.684,1.895,-0.72
2021-08-19 18:12:34.688,0.975,-0.85
2021-08-19 18:12:34.692,0.11,-0.815
2021-08-19 18:12:34.696,-0.24,-0.74
2021-08-19 18:12:34.700,-0.17,-0.445
2021-08-19 18:12:34.704,0.015,-0.16
2021-08-19 18:12:34.708,0.06,-0.115
2021-08-19 18:12:34.712,0.005,-0.07
2021-08-19 18:12:34.716,0.045,-0.03
2021-08-19 18:12:34.720,0.065,0.065
2021-08-19 18:12:34.724,0.1,0.075
2021-08-19 18:12:34.728,0.08,0.075
2021-08-19 18:12:34.732,0.105,0.05
2021-08-19 18:12:34.736,0.03,0.09
2021-08-19 18:12:34.740,-0.035,0.13
2021-08-19 18:12:34.744,0.085,0.165
2021-08-19 18:12:34.748,0.12,0.155
2021-08-19 18:12:34.752,0.015,0.195
2021-08-19 18:12:34.756,0.06,0.215
2021-08-19 18:12:34.760,0.08,0.2
2021-08-19 18:12:34.764,-0.09,0.19
2021-08-19 18:12:34.768,-0.025,0.235
2021-08-19 18:12:34.772,0.08,0.25
2021-08-19 18:12:34.776,0.02,0.21
2021-08-19 18:12:34.780,0.175,0.17
2021-08-19 18:12:34.784,0.425,0.095
2021-08-19 18:12:34.788,0.27,0.07
2021-08-19 18:12:34.792,0.095,0.14
2021-08-19 18:12:34.796,0.04,0.26
2021-08-19 18:12:34.800,-0.015,0.305
2021-08-19 18:12:34.804,-0.08,0.275
2021-08-19 18:12:34.808,0.145,0.155
2021-08-19 18:12:34.812,0.215,0.125
2021-08-19 18:12:34.816,-0.08,0.15
2021-08-19 18:12:34.820,-0.135,0.17
2021-08-19 18:12:34.824,0.015,0.145
2021-08-19 18:12:34.828,0.02,0.135
2021-08-19 18:12:34.832,0.1,0.17
2021-08-19 18:12:34.836,0.125,0.195
2021-08-19 18:12:34.840,0.095,0.175
2021-08-19 18:12:34.844,0.24,0.155
2021-08-19 18:12:34.848,0.145,0.225
2021-08-19 18:12:34.852,0.005,0.21
2021-08-19 18:12:34.856,0.015,0.13
2021-08-19 18:12:34.860,0.09,0.135
2021-08-19 18:12:34.864,0.075,0.215
2021-08-19 18:12:34.868,0.09,0.255
2021-08-19 18:12:34.872,-0.1,0.265
2021-08-19 18:12:34.876,-0.085,0.17
2021-08-19 18:12:34.880,0.03,0.13
2021-08-19 18:12:34.884,0.07,0.145
2021-08-19 18:12:34.888,0.025,0.145
2021-08-19 18:12:34.892,0.0,0.08
2021-08-19 18:12:34.896,0.075,0.08
2021-08-19 18:12:34.900,0.12,0.115
2021-08-19 18:12:34.904,0.09,0.115
2021-08-19 18:12:34.908,0.12,0.155
2021-08-19 18:12:34.912,0.08,0.245
2021-08-19 18:12:34.916,-0.26,0.245
2021-08-19 18:12:34.920,-0.345,0.125
2021-08-19 18:12:34.924,-0.215,0.025
2021-08-19 18:12:34.928,-0.265,0.08
2021-08-19 18:12:34.932,-0.295,0.16
2021-08-19 18:12:34.936,-0.285,0.125
2021-08-19 18:12:34.940,-0.29,0.04
2021-08-19 18:12:34.944,-0.23,0.02
2021-08-19 18:12:34.948,-0.23,0.065
2021-08-19 18:12:34.952,-0.23,0.17
2021-08-19 18:12:34.956,-0.07,0.195
2021-08-19 18:12:34.960,0.015,0.15
2021-08-19 18:12:34.964,0.12,0.09
2021-08-19 18:12:34.968,0.19,0.115
2021-08-19 18:12:34.972,0.135,0.14
2021-08-19 18:12:34.976,0.11,0.15
2021-08-19 18:12:34.980,0.175,0.16
2021-08-19 18:12:34.984,0.375,0.09
2021-08-19 18:12:34.988,0.53,0.1
2021-08-19 18:12:34.992,0.43,0.095
2021-08-19 18:12:34.996,0.275,0.105
2021-08-19 18:12:35.000,0.3,0.09
2021-08-19 18:12:35.004,0.385,0.065
2021-08-19 18:12:35.008,0.495,-0.025
2021-08-19 18:12:35.012,0.455,-0.015
2021-08-19 18:12:35.016,0.285,0.06
2021-08-19 18:12:35.020,0.305,0.075
2021-08-19 18:12:35.024,0.395,0.08
2021-08-19 18:12:35.028,0.365,0.095
2021-08-19 18:12:35.032,0.32,0.135
2021-08-19 18:12:35.036,0.365,0.135
2021-08-19 18:12:35.040,0.39,0.16
2021-08-19 18:12:35.044,0.33,0.175
2021-08-19 18:12:35.048,0.265,0.21
2021-08-19 18:12:35.052,0.255,0.275
2021-08-19 18:12:35.056,0.35,0.23
2021-08-19 18:12:35.060,0.51,0.06
2021-08-19 18:12:35.064,0.425,-0.045
2021-08-19 18:12:35.068,0.4,-0.01
2021-08-19 18:12:35.072,0.52,0.015
2021-08-19 18:12:35.076,0.555,0.035
2021-08-19 18:12:35.080,0.325,0.085
2021-08-19 18:12:35.084,0.205,0.17
2021-08-19 18:12:35.088,0.34,0.165
2021-08-19 18:12:35.092,0.375,0.14
2021-08-19 18:12:35.096,0.445,0.095
2021-08-19 18:12:35.100,0.51,0.11
2021-08-19 18:12:35.104,0.42,0.145
2021-08-19 18:12:35.108,0.32,0.14
2021-08-19 18:12:35.112,0.48,0.15
2021-08-19 18:12:35.116,0.62,0.235
2021-08-19 18:12:35.120,0.545,0.31
2021-08-19 18:12:35.124,0.665,0.475
2021-08-19 18:12:35.128,0.83,0.51
2021-08-19 18:12:35.132,1.12,0.315
2021-08-19 18:12:35.136,1.52,-0.075
2021-08-19 18:12:35.140,1.875,-0.45
2021-08-19 18:12:35.144,1.795,-0.83
2021-08-19 18:12:35.148,0.96,-1.065
2021-08-19 18:12:35.152,-0.07,-1.13
2021-08-19 18:12:35.156,-1.04,-1.175
2021-08-19 18:12:35.160,-1.5,-1.005
2021-08-19 18:12:35.164,-1.515,-0.565
2021-08-19 18:12:35.168,-1.465,-0.04
2021-08-19 18:12:35.172,-1.375,0.515
2021-08-19 18:12:35.176,-1.22,0.74
2021-08-19 18:12:35.180,-0.96,0.61
2021-08-19 18:12:35.184,-0.76,0.425
2021-08-19 18:12:35.188,-0.51,0.355
2021-08-19 18:12:35.192,-0.245,0.28
2021-08-19 18:12:35.196,-0.015,0.23
2021-08-19 18:12:35.200,0.125,0.15
2021-08-19 18:12:35.204,0.245,0.12
2021-08-19 18:12:35.208,0.3,0.11
2021-08-19 18:12:35.212,0.225,0.11
2021-08-19 18:12:35.216,0.165,0.11
2021-08-19 18:12:35.220,0.13,0.095
2021-08-19 18:12:35.224,-0.02,0.14
2021-08-19 18:12:35.228,0.0,0.155
2021-08-19 18:12:35.232,0.18,0.13
2021-08-19 18:12:35.236,0.35,0.08
2021-08-19 18:12:35.240,0.28,0.11
2021-08-19 18:12:35.244,0.145,0.115
2021-08-19 18:12:35.248,0.19,0.085
2021-08-19 18:12:35.252,0.285,0.075
2021-08-19 18:12:35.256,0.26,0.13
2021-08-19 18:12:35.260,0.175,0.175
2021-08-19 18:12:35.264,0.23,0.145
2021-08-19 18:12:35.268,0.205,0.145
2021-08-19 18:12:35.272,0.14,0.18
2021-08-19 18:12:35.276,0.155,0.21
2021-08-19 18:12:35.280,0.3,0.215
2021-08-19 18:12:35.284,0.41,0.195
2021-08-19 18:12:35.288,0.425,0.165
2021-08-19 18:12:35.292,0.37,0.205
2021-08-19 18:12:35.296,0.4,0.175
2021-08-19 18:12:35.300,0.545,0.035
2021-08-19 18:12:35.304,0.68,-0.005
2021-08-19 18:12:35.308,0.635,0.02
2021-08-19 18:12:35.312,0.54,0.03
2021-08-19 18:12:35.316,0.565,0.045
2021-08-19 18:12:35.320,0.645,0.065
2021-08-19 18:12:35.324,0.665,0.095
2021-08-19 18:12:35.328,0.675,0.105
2021-08-19 18:12:35.332,0.815,0.125
2021-08-19 18:12:35.336,0.975,0.1
2021-08-19 18:12:35.340,1.015,0.115
2021-08-19 18:12:35.344,0.925,0.2
2021-08-19 18:12:35.348,1.005,0.23
2021-08-19 18:12:35.352,1.22,0.18
2021-08-19 18:12:35.356,1.22,0.15
2021-08-19 18:12:35.360,1.075,0.135
2021-08-19 18:12:35.364,1.17,0.13
2021-08-19 18:12:35.368,1.33,0.165
2021-08-19 18:12:35.372,1.28,0.21
2021-08-19 18:12:35.376,1.225,0.21
2021-08-19 18:12:35.380,1.39,0.19
2021-08-19 18:12:35.384,1.545,0.175
2021-08-19 18:12:35.388,1.5,0.15
2021-08-19 18:12:35.392,1.315,0.205
2021-08-19 18:12:35.396,1.32,0.28
2021-08-19 18:12:35.400,1.31,0.285
2021-08-19 18:12:35.404,1.33,0.135
2021-08-19 18:12:35.408,1.33,0.02
2021-08-19 18:12:35.412,1.24,-0.03
2021-08-19 18:12:35.416,1.045,-0.02
2021-08-19 18:12:35.420,0.855,0.05
2021-08-19 18:12:35.424,0.76,0.065
2021-08-19 18:12:35.428,0.66,0.0
2021-08-19 18:12:35.432,0.59,-0.005
2021-08-19 18:12:35.436,0.53,0.025
2021-08-19 18:12:35.440,0.555,0.075
2021-08-19 18:12:35.444,0.48,0.06
2021-08-19 18:12:35.448,0.315,0.03
2021-08-19 18:12:35.452,0.225,0.0
2021-08-19 18:12:35.456,0.14,0.0
2021-08-19 18:12:35.460,0.115,0.025
2021-08-19 18:12:35.464,0.115,0.085
2021-08-19 18:12:35.468,0.135,0.11
2021-08-19 18:12:35.472,0.2,0.115
2021-08-19 18:12:35.476,0.2,0.115
2021-08-19 18:12:35.480,0.215,0.165
2021-08-19 18:12:35.484,0.135,0.195
2021-08-19 18:12:35.488,0.105,0.14
2021-08-19 18:12:35.492,0.155,0.055
2021-08-19 18:12:35.496,0.11,0.06
2021-08-19 18:12:35.500,0.065,0.1
2021-08-19 18:12:35.504,0.07,0.115
2021-08-19 18:12:35.508,0.235,0.085
2021-08-19 18:12:35.512,0.41,0.09
2021-08-19 18:12:35.516,0.295,0.095
2021-08-19 18:12:35.520,0.055,0.215
2021-08-19 18:12:35.524,0.07,0.275
2021-08-19 18:12:35.528,0.03,0.175
2021-08-19 18:12:35.532,-0.07,0.075
2021-08-19 18:12:35.536,-0.005,0.13
2021-08-19 18:12:35.540,0.125,0.075
2021-08-19 18:12:35.544,0.025,0.065
2021-08-19 18:12:35.548,0.0,0.09
2021-08-19 18:12:35.552,0.065,0.08
2021-08-19 18:12:35.556,-0.015,0.025
2021-08-19 18:12:35.560,-0.105,-0.015
2021-08-19 18:12:35.564,-0.115,0.045
2021-08-19 18:12:35.568,-0.11,0.1
2021-08-19 18:12:35.572,0.04,0.11
2021-08-19 18:12:35.576,0.14,0.105
2021-08-19 18:12:35.580,-0.09,0.085
2021-08-19 18:12:35.584,-0.18,0.015
2021-08-19 18:12:35.588,-0.02,-0.025
2021-08-19 18:12:35.592,-0.14,0.005
2021-08-19 18:12:35.596,-0.265,0.105
2021-08-19 18:12:35.600,-0.17,0.135
2021-08-19 18:12:35.604,-0.175,0.045
2021-08-19 18:12:35.608,-0.235,-0.05
2021-08-19 18:12:35.612,-0.235,-0.075
2021-08-19 18:12:35.616,-0.18,-0.055
2021-08-19 18:12:35.620,-0.235,0.0
2021-08-19 18:12:35.624,-0.38,0.07
2021-08-19 18:12:35.628,-0.515,0.095
2021-08-19 18:12:35.632,-0.375,0.08
2021-08-19 18:12:35.636,-0.05,0.015
2021-08-19 18:12:35.640,0.0,0.035
2021-08-19 18:12:35.644,-0.275,0.065
2021-08-19 18:12:35.648,-0.335,0.055
2021-08-19 18:12:35.652,-0.28,0.05
2021-08-19 18:12:35.656,-0.38,0.12
2021-08-19 18:12:35.660,-0.405,0.15
2021-08-19 18:12:35.664,-0.415,0.065
2021-08-19 18:12:35.668,-0.405,-0.015
2021-08-19 18:12:35.672,-0.275,-0.075
2021-08-19 18:12:35.676,-0.15,-0.045
2021-08-19 18:12:35.680,-0.17,-0.01
2021-08-19 18:12:35.684,-0.245,-0.01
2021-08-19 18:12:35.688,-0.3,0.03
2021-08-19 18:12:35.692,-0.325,0.05
2021-08-19 18:12:35.696,-0.17,-0.025
2021-08-19 18:12:35.700,-0.07,-0.02
2021-08-19 18:12:35.704,-0.34,0.035
2021-08-19 18:12:35.708,-0.495,0.075
2021-08-19 18:12:35.712,-0.36,0.105
2021-08-19 18:12:35.716,-0.32,0.075
2021-08-19 18:12:35.720,-0.305,-0.015
2021-08-19 18:12:35.724,-0.225,-0.025
2021-08-19 18:12:35.728,-0.085,-0.02
2021-08-19 18:12:35.732,-0.1,0.045
2021-08-19 18:12:35.736,-0.215,0.12
2021-08-19 18:12:35.740,-0.305,0.1
2021-08-19 18:12:35.744,-0.335,0.035
2021-08-19 18:12:35.748,-0.295,0.0
2021-08-19 18:12:35.752,-0.185,-0.05
2021-08-19 18:12:35.756,-0.235,-0.04
2021-08-19 18:12:35.760,-0.3,-0.005
2021-08-19 18:12:35.764,-0.235,0.025
2021-08-19 18:12:35.768,-0.21,0.035
2021-08-19 18:12:35.772,-0.235,0.0
2021-08-19 18:12:35.776,-0.165,0.01
2021-08-19 18:12:35.780,-0.145,0.0
2021-08-19 18:12:35.784,-0.21,-0.005
2021-08-19 18:12:35.788,-0.305,0.0
2021-08-19 18:12:35.792,-0.425,-0.015
2021-08-19 18:12:35.796,-0.44,0.025
2021-08-19 18:12:35.800,-0.34,0.065
2021-08-19 18:12:35.804,-0.335,0.065
2021-08-19 18:12:35.808,-0.39,0.035
2021-08-19 18:12:35.812,-0.405,0.01
2021-08-19 18:12:35.816,-0.425,0.05
2021-08-19 18:12:35.820,-0.385,0.14
2021-08-19 18:12:35.824,-0.335,0.215
2021-08-19 18:12:35.828,-0.21,0.125
2021-08-19 18:12:35.832,-0.11,0.01
2021-08-19 18:12:35.836,-0.385,-0.095
2021-08-19 18:12:35.840,-0.545,-0.1
2021-08-19 18:12:35.844,-0.435,-0.06
2021-08-19 18:12:35.848,-0.28,-0.045
2021-08-19 18:12:35.852,-0.095,-0.1
2021-08-19 18:12:35.856,-0.24,-0.11
2021-08-19 18:12:35.860,-0.435,-0.02
2021-08-19 18:12:35.864,-0.395,0.015
2021-08-19 18:12:35.868,-0.465,0.0
2021-08-19 18:12:35.872,-0.65,-0.02
2021-08-19 18:12:35.876,-0.565,-0.03
2021-08-19 18:12:35.880,-0.495,0.02
2021-08-19 18:12:35.884,-0.64,0.04
2021-08-19 18:12:35.888,-0.64,0.025
2021-08-19 18:12:35.892,-0.48,0.04
2021-08-19 18:12:35.896,-0.51,0.05
2021-08-19 18:12:35.900,-0.575,0.085
2021-08-19 18:12:35.904,-0.52,0.065
2021-08-19 18:12:35.908,-0.46,0.005
2021-08-19 18:12:35.912,-0.415,-0.01
2021-08-19 18:12:35.916,-0.38,-0.045
2021-08-19 18:12:35.920,-0.3,-0.03
2021-08-19 18:12:35.924,-0.43,-0.015
2021-08-19 18:12:35.928,-0.45,0.04
2021-08-19 18:12:35.932,-0.425,0.085
2021-08-19 18:12:35.936,-0.415,0.12
2021-08-19 18:12:35.940,-0.315,0.165
2021-08-19 18:12:35.944,-0.25,0.135
2021-08-19 18:12:35.948,-0.155,0.06
2021-08-19 18:12:35.952,-0.22,0.035
2021-08-19 18:12:35.956,-0.22,-0.03
2021-08-19 18:12:35.960,-0.205,-0.07
2021-08-19 18:12:35.964,-0.185,-0.085
2021-08-19 18:12:35.968,-0.18,-0.04
2021-08-19 18:12:35.972,-0.19,-0.055
2021-08-19 18:12:35.976,-0.275,-0.035
2021-08-19 18:12:35.980,-0.24,-0.02
2021-08-19 18:12:35.984,-0.385,0.015
2021-08-19 18:12:35.988,-0.54,0.03
2021-08-19 18:12:35.992,-0.46,0.01
2021-08-19 18:12:35.996,-0.35,-0.02
2021-08-19 18:12:36.000,-0.415,-0.035
2021-08-19 18:12:36.004,-0.485,-0.01
2021-08-19 18:12:36.008,-0.53,0.025
2021-08-19 18:12:36.012,-0.57,0.025
2021-08-19 18:12:36.016,-0.5,0.045
2021-08-19 18:12:36.020,-0.465,0.01
2021-08-19 18:12:36.024,-0.465,-0.015
2021-08-19 18:12:36.028,-0.36,-0.005
2021-08-19 18:12:36.032,-0.295,0.0
2021-08-19 18:12:36.036,-0.445,0.045
2021-08-19 18:12:36.040,-0.625,0.16
2021-08-19 18:12:36.044,-0.695,0.285
2021-08-19 18:12:36.048,-0.575,0.31
2021-08-19 18:12:36.052,-0.235,0.095
2021-08-19 18:12:36.056,0.415,-0.05
2021-08-19 18:12:36.060,1.17,-0.16
2021-08-19 18:12:36.064,1.81,-0.365
2021-08-19 18:12:36.072,1.38,-0.915
2021-08-19 18:12:36.076,0.52,-0.94
2021-08-19 18:12:36.080,-0.3,-0.765
2021-08-19 18:12:36.084,-0.89,-0.675
2021-08-19 18:12:36.088,-0.86,-0.62
2021-08-19 18:12:36.092,-0.5,-0.535
2021-08-19 18:12:36.096,-0.465,-0.485
2021-08-19 18:12:36.100,-0.59,-0.285
2021-08-19 18:12:36.104,-0.63,-0.105
2021-08-19 18:12:36.108,-0.585,0.0
2021-08-19 18:12:36.112,-0.465,0.025
2021-08-19 18:12:36.116,-0.41,-0.015
2021-08-19 18:12:36.120,-0.46,-0.055
2021-08-19 18:12:36.124,-0.49,-0.065
2021-08-19 18:12:36.128,-0.545,-0.005
2021-08-19 18:12:36.132,-0.555,0.1
2021-08-19 18:12:36.136,-0.48,0.125
2021-08-19 18:12:36.140,-0.425,0.055
2021-08-19 18:12:36.144,-0.46,0.0
2021-08-19 18:12:36.148,-0.375,-0.05
2021-08-19 18:12:36.152,-0.35,-0.02
2021-08-19 18:12:36.156,-0.32,0.03
2021-08-19 18:12:36.160,-0.39,0.03
2021-08-19 18:12:36.164,-0.355,-0.025
2021-08-19 18:12:36.168,-0.37,-0.06
2021-08-19 18:12:36.172,-0.435,0.0
2021-08-19 18:12:36.176,-0.475,0.045
2021-08-19 18:12:36.180,-0.375,0.01
2021-08-19 18:12:36.184,-0.26,-0.025
2021-08-19 18:12:36.188,-0.41,0.05
2021-08-19 18:12:36.192,-0.725,0.2
2021-08-19 18:12:36.196,-0.86,0.33
2021-08-19 18:12:36.200,-0.655,0.25
2021-08-19 18:12:36.204,-0.465,0.065
2021-08-19 18:12:36.208,-0.46,-0.085
2021-08-19 18:12:36.212,-0.545,-0.16
2021-08-19 18:12:36.216,-0.585,-0.165
2021-08-19 18:12:36.220,-0.445,-0.08
2021-08-19 18:12:36.224,-0.365,-0.01
2021-08-19 18:12:36.228,-0.59,0.09
2021-08-19 18:12:36.232,-0.68,0.125
2021-08-19 18:12:36.236,-0.605,0.025
2021-08-19 18:12:36.240,-0.625,-0.075
2021-08-19 18:12:36.244,-0.55,-0.025
2021-08-19 18:12:36.248,-0.47,0.02
2021-08-19 18:12:36.252,-0.5,0.005
2021-08-19 18:12:36.256,-0.56,0.025
2021-08-19 18:12:36.260,-0.48,0.075
2021-08-19 18:12:36.264,-0.345,0.045
2021-08-19 18:12:36.268,-0.315,-0.03
2021-08-19 18:12:36.272,-0.25,-0.115
2021-08-19 18:12:36.276,-0.42,-0.065
2021-08-19 18:12:36.280,-0.57,0.035
2021-08-19 18:12:36.284,-0.385,0.075
2021-08-19 18:12:36.288,-0.165,-0.01
2021-08-19 18:12:36.292,-0.265,-0.11
2021-08-19 18:12:36.296,-0.51,-0.155
2021-08-19 18:12:36.300,-0.7,-0.05
2021-08-19 18:12:36.304,-0.785,-0.025
2021-08-19 18:12:36.308,-0.765,-0.095
2021-08-19 18:12:36.312,-0.615,-0.175
2021-08-19 18:12:36.316,-0.61,-0.205
2021-08-19 18:12:36.320,-0.73,-0.155
2021-08-19 18:12:36.324,-0.7,-0.1
2021-08-19 18:12:36.328,-0.615,-0.11
2021-08-19 18:12:36.332,-0.585,-0.12
2021-08-19 18:12:36.336,-0.55,-0.065
2021-08-19 18:12:36.340,-0.655,0.02
2021-08-19 18:12:36.344,-0.7,0.05
2021-08-19 18:12:36.348,-0.5,0.04
2021-08-19 18:12:36.352,-0.25,0.01
2021-08-19 18:12:36.356,-0.22,-0.005
2021-08-19 18:12:36.360,-0.28,-0.06
2021-08-19 18:12:36.364,-0.215,-0.105
2021-08-19 18:12:36.368,-0.07,-0.135
2021-08-19 18:12:36.372,-0.115,-0.07
2021-08-19 18:12:36.376,-0.185,-0.03
2021-08-19 18:12:36.380,-0.155,-0.1
2021-08-19 18:12:36.384,-0.16,-0.14
2021-08-19 18:12:36.388,-0.215,-0.12
2021-08-19 18:12:36.392,-0.22,-0.105
2021-08-19 18:12:36.396,-0.235,-0.095
2021-08-19 18:12:36.400,-0.185,-0.04
2021-08-19 18:12:36.404,-0.125,-0.02
2021-08-19 18:12:36.408,-0.155,-0.065
2021-08-19 18:12:36.412,-0.16,-0.12
2021-08-19 18:12:36.416,-0.065,-0.115
2021-08-19 18:12:36.420,-0.02,-0.095
2021-08-19 18:12:36.424,-0.14,0.0
2021-08-19 18:12:36.428,-0.3,0.05
2021-08-19 18:12:36.432,-0.295,-0.01
2021-08-19 18:12:36.436,-0.22,-0.055
2021-08-19 18:12:36.440,-0.22,0.005
2021-08-19 18:12:36.444,-0.215,0.115
2021-08-19 18:12:36.448,-0.145,0.05
2021-08-19 18:12:36.452,-0.05,-0.08
2021-08-19 18:12:36.456,-0.04,-0.12
2021-08-19 18:12:36.460,-0.07,-0.08
2021-08-19 18:12:36.464,-0.135,0.0
2021-08-19 18:12:36.468,-0.235,0.03
2021-08-19 18:12:36.472,-0.2,-0.045
2021-08-19 18:12:36.476,-0.025,-0.04
2021-08-19 18:12:36.480,0.02,-0.04
2021-08-19 18:12:36.484,-0.115,0.015
2021-08-19 18:12:36.488,-0.02,0.0
2021-08-19 18:12:36.492,0.1,-0.02
2021-08-19 18:12:36.496,-0.005,0.015
2021-08-19 18:12:36.500,0.025,0.125
2021-08-19 18:12:36.504,0.205,0.28
2021-08-19 18:12:36.508,0.32,0.35
2021-08-19 18:12:36.512,0.485,0.225
2021-08-19 18:12:36.516,0.78,-0.03
2021-08-19 18:12:36.520,1.125,-0.375
2021-08-19 18:12:36.524,1.35,-0.685
2021-08-19 18:12:36.528,0.895,-1.025
2021-08-19 18:12:36.532,-0.265,-1.255
2021-08-19 18:12:36.536,-1.15,-1.345
2021-08-19 18:12:36.540,-1.71,-1.31
2021-08-19 18:12:36.544,-1.945,-1.035
2021-08-19 18:12:36.548,-1.935,-0.58
2021-08-19 18:12:36.552,-1.835,-0.105
2021-08-19 18:12:36.556,-1.5,0.38
2021-08-19 18:12:36.560,-1.34,0.485
2021-08-19 18:12:36.564,-1.24,0.455
2021-08-19 18:12:36.568,-1.01,0.36
2021-08-19 18:12:36.572,-0.79,0.31
2021-08-19 18:12:36.576,-0.64,0.22
2021-08-19 18:12:36.580,-0.54,0.13
2021-08-19 18:12:36.584,-0.45,0.055
2021-08-19 18:12:36.588,-0.39,0.03
2021-08-19 18:12:36.592,-0.34,0.03
2021-08-19 18:12:36.596,-0.265,0.01
2021-08-19 18:12:36.600,-0.205,0.005
2021-08-19 18:12:36.604,-0.15,0.005
2021-08-19 18:12:36.608,-0.16,0.02
2021-08-19 18:12:36.612,-0.165,0.01
2021-08-19 18:12:36.616,-0.18,0.025
2021-08-19 18:12:36.620,-0.21,0.035
2021-08-19 18:12:36.624,-0.32,0.045
2021-08-19 18:12:36.628,-0.175,0.025
2021-08-19 18:12:36.632,-0.085,0.025
2021-08-19 18:12:36.636,-0.115,0.065
2021-08-19 18:12:36.640,-0.205,0.125
2021-08-19 18:12:36.644,-0.225,0.125
2021-08-19 18:12:36.648,-0.1,0.075
2021-08-19 18:12:36.652,-0.06,0.07
2021-08-19 18:12:36.656,0.02,0.045
2021-08-19 18:12:36.660,0.15,0.0
2021-08-19 18:12:36.664,0.11,0.065
2021-08-19 18:12:36.668,0.125,0.165
2021-08-19 18:12:36.672,0.23,0.075
2021-08-19 18:12:36.676,0.285,-0.04
2021-08-19 18:12:36.680,0.33,-0.14
2021-08-19 18:12:36.684,0.27,-0.095
2021-08-19 18:12:36.688,0.28,-0.025
2021-08-19 18:12:36.692,0.375,0.02
2021-08-19 18:12:36.696,0.52,0.025
2021-08-19 18:12:36.700,0.72,0.005
2021-08-19 18:12:36.704,0.82,0.005
2021-08-19 18:12:36.708,0.805,-0.015
2021-08-19 18:12:36.712,0.705,0.02
2021-08-19 18:12:36.716,0.695,0.085
2021-08-19 18:12:36.720,0.735,0.17
2021-08-19 18:12:36.724,0.655,0.195
2021-08-19 18:12:36.728,0.67,0.17
2021-08-19 18:12:36.732,0.83,0.145
2021-08-19 18:12:36.736,1.0,0.13
2021-08-19 18:12:36.740,1.085,0.16
2021-08-19 18:12:36.744,1.225,0.14
2021-08-19 18:12:36.748,1.33,0.15
2021-08-19 18:12:36.752,1.29,0.075
2021-08-19 18:12:36.756,1.255,0.06
2021-08-19 18:12:36.760,1.325,0.01
2021-08-19 18:12:36.764,1.45,0.01
2021-08-19 18:12:36.768,1.515,0.04
2021-08-19 18:12:36.772,1.5,0.045
2021-08-19 18:12:36.776,1.52,0.035
2021-08-19 18:12:36.780,1.565,0.04
2021-08-19 18:12:36.784,1.585,-0.005
2021-08-19 18:12:36.788,1.405,-0.015
2021-08-19 18:12:36.792,1.24,0.025
2021-08-19 18:12:36.796,1.165,0.085
2021-08-19 18:12:36.800,1.005,0.005
2021-08-19 18:12:36.804,0.795,-0.09
2021-08-19 18:12:36.808,0.78,-0.115
2021-08-19 18:12:36.812,0.675,-0.115
2021-08-19 18:12:36.816,0.545,-0.01
2021-08-19 18:12:36.820,0.505,0.075
2021-08-19 18:12:36.824,0.56,0.11
2021-08-19 18:12:36.828,0.525,0.0
2021-08-19 18:12:36.832,0.48,-0.125
2021-08-19 18:12:36.836,0.41,-0.165
2021-08-19 18:12:36.840,0.23,-0.095
2021-08-19 18:12:36.844,0.175,0.0
2021-08-19 18:12:36.848,0.285,0.055
2021-08-19 18:12:36.852,0.36,0.09
2021-08-19 18:12:36.856,0.355,0.055
2021-08-19 18:12:36.860,0.28,0.02
2021-08-19 18:12:36.864,0.28,-0.02
2021-08-19 18:12:36.868,0.25,0.035
2021-08-19 18:12:36.872,0.25,0.05
2021-08-19 18:12:36.876,0.375,0.035
2021-08-19 18:12:36.880,0.39,0.0
2021-08-19 18:12:36.884,0.365,0.015
2021-08-19 18:12:36.888,0.275,0.035
2021-08-19 18:12:36.892,0.13,0.07
2021-08-19 18:12:36.896,0.315,0.03
2021-08-19 18:12:36.900,0.44,0.005
2021-08-19 18:12:36.904,0.245,-0.01
2021-08-19 18:12:36.908,0.135,0.045
2021-08-19 18:12:36.912,0.285,0.04
2021-08-19 18:12:36.916,0.325,0.025
2021-08-19 18:12:36.920,0.28,0.05
2021-08-19 18:12:36.924,0.255,0.075
2021-08-19 18:12:36.928,0.05,0.09
2021-08-19 18:12:36.932,-0.005,0.09
2021-08-19 18:12:36.936,0.075,0.09
2021-08-19 18:12:36.940,0.245,0.005
2021-08-19 18:12:36.944,0.305,-0.025
2021-08-19 18:12:36.948,0.16,-0.025
2021-08-19 18:12:36.952,0.11,0.005
2021-08-19 18:12:36.956,0.07,0.045
2021-08-19 18:12:36.960,0.035,0.04
2021-08-19 18:12:36.964,0.145,0.0
2021-08-19 18:12:36.968,0.28,-0.04
2021-08-19 18:12:36.972,0.235,-0.045
2021-08-19 18:12:36.976,0.11,0.035
2021-08-19 18:12:36.980,0.055,0.07
2021-08-19 18:12:36.984,0.01,0.045
2021-08-19 18:12:36.988,0.02,0.035
2021-08-19 18:12:36.992,0.025,-0.005
2021-08-19 18:12:36.996,0.125,-0.005
2021-08-19 18:12:37.000,0.115,0.05
2021-08-19 18:12:37.004,0.045,0.035
2021-08-19 18:12:37.008,0.115,0.01
2021-08-19 18:12:37.012,0.255,-0.015
2021-08-19 18:12:37.016,0.155,-0.02
2021-08-19 18:12:37.020,-0.035,0.0
2021-08-19 18:12:37.024,-0.03,0.015
2021-08-19 18:12:37.028,0.085,0.005
2021-08-19 18:12:37.032,0.115,0.0
2021-08-19 18:12:37.036,0.015,0.05
2021-08-19 18:12:37.040,0.03,0.08
2021-08-19 18:12:37.044,0.11,0.07
2021-08-19 18:12:37.048,0.075,0.06
2021-08-19 18:12:37.052,0.0,0.09
2021-08-19 18:12:37.056,-0.065,0.125
2021-08-19 18:12:37.060,0.01,0.09
2021-08-19 18:12:37.064,0.125,0.015
2021-08-19 18:12:37.068,0.21,0.025
2021-08-19 18:12:37.072,0.165,0.035
2021-08-19 18:12:37.076,0.12,0.07
2021-08-19 18:12:37.080,0.075,0.02
2021-08-19 18:12:37.084,0.005,-0.065
2021-08-19 18:12:37.088,-0.075,-0.055
2021-08-19 18:12:37.092,-0.075,0.02
2021-08-19 18:12:37.096,0.04,-0.025
2021-08-19 18:12:37.100,0.02,-0.045
2021-08-19 18:12:37.104,0.04,-0.055
2021-08-19 18:12:37.108,0.02,-0.05
2021-08-19 18:12:37.112,0.035,-0.035
2021-08-19 18:12:37.116,0.075,-0.015
2021-08-19 18:12:37.120,0.09,-0.015
2021-08-19 18:12:37.124,0.06,0.02
2021-08-19 18:12:37.128,-0.025,0.035
2021-08-19 18:12:37.132,0.005,0.01
2021-08-19 18:12:37.136,0.025,0.01
2021-08-19 18:12:37.140,0.115,0.025
2021-08-19 18:12:37.144,0.09,0.02
2021-08-19 18:12:37.148,-0.005,0.015
2021-08-19 18:12:37.152,-0.015,0.06
2021-08-19 18:12:37.156,0.05,0.085
2021-08-19 18:12:37.160,0.025,0.095
2021-08-19 18:12:37.164,-0.01,0.105
2021-08-19 18:12:37.168,-0.115,0.08
2021-08-19 18:12:37.172,-0.135,0.07
2021-08-19 18:12:37.176,-0.035,0.035
2021-08-19 18:12:37.180,0.095,0.0
2021-08-19 18:12:37.184,0.075,0.065
2021-08-19 18:12:37.188,-0.09,0.13
2021-08-19 18:12:37.192,-0.1,0.14
2021-08-19 18:12:37.196,0.005,0.07
2021-08-19 18:12:37.200,0.08,0.045
2021-08-19 18:12:37.204,0.14,0.05
2021-08-19 18:12:37.208,0.11,0.07
2021-08-19 18:12:37.212,-0.025,0.02
2021-08-19 18:12:37.216,-0.075,-0.09
2021-08-19 18:12:37.220,0.04,-0.15
2021-08-19 18:12:37.224,0.05,-0.1
2021-08-19 18:12:37.228,-0.025,-0.055
2021-08-19 18:12:37.232,-0.06,-0.015
2021-08-19 18:12:37.236,-0.035,0.0
2021-08-19 18:12:37.240,0.0,0.0
2021-08-19 18:12:37.244,0.075,0.01
2021-08-19 18:12:37.248,0.14,-0.005
2021-08-19 18:12:37.252,0.05,0.005
2021-08-19 18:12:37.256,-0.11,0.035
2021-08-19 18:12:37.260,-0.175,0.055
2021-08-19 18:12:37.264,-0.065,0.025
2021-08-19 18:12:37.268,0.035,0.035
2021-08-19 18:12:37.272,0.065,0.025
2021-08-19 18:12:37.276,0.06,0.0
2021-08-19 18:12:37.280,-0.035,0.01
2021-08-19 18:12:37.284,-0.12,0.025
2021-08-19 18:12:37.288,-0.06,0.01
2021-08-19 18:12:37.292,0.015,-0.005
2021-08-19 18:12:37.296,0.005,0.0
2021-08-19 18:12:37.300,-0.015,0.01
2021-08-19 18:12:37.304,0.055,0.035
2021-08-19 18:12:37.308,0.11,0.035
2021-08-19 18:12:37.312,0.16,0.045
2021-08-19 18:12:37.316,0.135,0.06
2021-08-19 18:12:37.320,0.17,0.08
2021-08-19 18:12:37.324,0.225,0.065
2021-08-19 18:12:37.328,0.285,0.06
2021-08-19 18:12:37.332,0.415,0.015
2021-08-19 18:12:37.336,0.465,-0.015
2021-08-19 18:12:37.340,0.35,-0.005
2021-08-19 18:12:37.344,0.215,-0.005
2021-08-19 18:12:37.348,0.21,-0.005
2021-08-19 18:12:37.352,0.295,-0.03
2021-08-19 18:12:37.356,0.36,-0.02
2021-08-19 18:12:37.360,0.22,-0.005
2021-08-19 18:12:37.364,-0.01,0.02
2021-08-19 18:12:37.368,-0.14,0.02
2021-08-19 18:12:37.372,-0.09,0.015
2021-08-19 18:12:37.376,-0.03,0.0
2021-08-19 18:12:37.380,-0.02,0.02
2021-08-19 18:12:37.384,-0.07,0.03
2021-08-19 18:12:37.388,-0.09,0.0
2021-08-19 18:12:37.392,-0.06,0.015
2021-08-19 18:12:37.396,0.075,-0.01
2021-08-19 18:12:37.400,0.04,-0.02
2021-08-19 18:12:37.404,-0.045,0.015
2021-08-19 18:12:37.408,0.01,0.075
2021-08-19 18:12:37.412,0.115,0.05
2021-08-19 18:12:37.416,-0.02,0.065
2021-08-19 18:12:37.420,-0.135,0.1
2021-08-19 18:12:37.424,-0.25,0.2
2021-08-19 18:12:37.428,-0.25,0.295
2021-08-19 18:12:37.432,-0.095,0.27
2021-08-19 18:12:37.436,0.265,0.1
2021-08-19 18:12:37.440,0.925,-0.035
2021-08-19 18:12:37.444,1.595,-0.205
2021-08-19 18:12:37.456,1.74,-1.005
2021-08-19 18:12:37.460,1.005,-1.135
2021-08-19 18:12:37.464,0.195,-1.025
2021-08-19 18:12:37.468,-0.26,-0.895
2021-08-19 18:12:37.472,-0.28,-0.59
2021-08-19 18:12:37.476,-0.11,-0.355
2021-08-19 18:12:37.480,0.13,-0.335
2021-08-19 18:12:37.484,0.34,-0.255
2021-08-19 18:12:37.488,0.175,-0.16
2021-08-19 18:12:37.492,-0.205,-0.085
2021-08-19 18:12:37.496,-0.245,-0.04
2021-08-19 18:12:37.500,-0.065,-0.04
2021-08-19 18:12:37.504,0.03,-0.045
2021-08-19 18:12:37.508,-0.07,-0.005
2021-08-19 18:12:37.512,-0.195,0.06
2021-08-19 18:12:37.516,-0.175,0.05
2021-08-19 18:12:37.520,-0.035,0.055
2021-08-19 18:12:37.524,0.03,0.045
2021-08-19 18:12:37.528,-0.06,-0.01
2021-08-19 18:12:37.532,-0.025,-0.075
2021-08-19 18:12:37.536,0.02,-0.065
2021-08-19 18:12:37.540,-0.07,-0.025
2021-08-19 18:12:37.544,-0.135,0.04
2021-08-19 18:12:37.548,-0.07,0.03
2021-08-19 18:12:37.552,-0.12,0.045
2021-08-19 18:12:37.556,-0.2,0.065
2021-08-19 18:12:37.560,-0.175,0.025
2021-08-19 18:12:37.564,-0.155,0.03
2021-08-19 18:12:37.568,-0.19,0.005
2021-08-19 18:12:37.572,-0.195,-0.03
2021-08-19 18:12:37.576,-0.195,-0.02
2021-08-19 18:12:37.580,-0.28,0.0
2021-08-19 18:12:37.584,-0.33,0.01
2021-08-19 18:12:37.588,-0.29,-0.01
2021-08-19 18:12:37.592,-0.235,-0.01
2021-08-19 18:12:37.596,-0.17,0.0
2021-08-19 18:12:37.600,-0.16,-0.01
2021-08-19 18:12:37.604,-0.16,-0.01
2021-08-19 18:12:37.608,-0.18,-0.005
2021-08-19 18:12:37.612,-0.18,-0.03
2021-08-19 18:12:37.616,-0.185,-0.03
2021-08-19 18:12:37.620,-0.28,-0.01
2021-08-19 18:12:37.624,-0.445,0.0
2021-08-19 18:12:37.628,-0.365,-0.04
2021-08-19 18:12:37.632,-0.33,-0.03
2021-08-19 18:12:37.636,-0.35,0.0
2021-08-19 18:12:37.640,-0.29,0.015
2021-08-19 18:12:37.644,-0.265,-0.01
2021-08-19 18:12:37.648,-0.31,-0.035
2021-08-19 18:12:37.652,-0.29,-0.03
2021-08-19 18:12:37.656,-0.265,-0.01
2021-08-19 18:12:37.660,-0.315,0.005
2021-08-19 18:12:37.664,-0.305,0.0
2021-08-19 18:12:37.668,-0.315,0.005
2021-08-19 18:12:37.672,-0.305,-0.01
2021-08-19 18:12:37.676,-0.28,-0.02
2021-08-19 18:12:37.680,-0.245,0.0
2021-08-19 18:12:37.684,-0.335,0.005
2021-08-19 18:12:37.688,-0.475,-0.025
2021-08-19 18:12:37.692,-0.505,-0.065
2021-08-19 18:12:37.696,-0.485,-0.09
2021-08-19 18:12:37.700,-0.47,-0.065
2021-08-19 18:12:37.704,-0.495,-0.035
2021-08-19 18:12:37.708,-0.495,-0.055
2021-08-19 18:12:37.712,-0.49,-0.1
2021-08-19 18:12:37.716,-0.395,-0.095
2021-08-19 18:12:37.720,-0.49,-0.095
2021-08-19 18:12:37.724,-0.535,0.01
2021-08-19 18:12:37.728,-0.46,0.06
2021-08-19 18:12:37.732,-0.34,0.045
2021-08-19 18:12:37.736,-0.29,0.04
2021-08-19 18:12:37.740,-0.225,0.015
2021-08-19 18:12:37.744,-0.18,-0.01
2021-08-19 18:12:37.748,-0.115,-0.01
2021-08-19 18:12:37.752,0.005,-0.015
2021-08-19 18:12:37.756,0.015,-0.06
2021-08-19 18:12:37.760,0.015,-0.095
2021-08-19 18:12:37.764,0.035,-0.075
2021-08-19 18:12:37.768,-0.04,-0.015
2021-08-19 18:12:37.772,-0.065,-0.005
2021-08-19 18:12:37.776,0.015,-0.005
2021-08-19 18:12:37.780,0.045,0.01
2021-08-19 18:12:37.784,-0.065,-0.025
2021-08-19 18:12:37.788,-0.155,-0.045
2021-08-19 18:12:37.792,-0.135,-0.05
2021-08-19 18:12:37.796,-0.14,-0.01
2021-08-19 18:12:37.800,-0.115,0.04
2021-08-19 18:12:37.804,-0.09,0.01
2021-08-19 18:12:37.808,-0.12,-0.01
2021-08-19 18:12:37.812,-0.125,-0.05
2021-08-19 18:12:37.816,-0.065,-0.03
2021-08-19 18:12:37.820,-0.08,0.015
2021-08-19 18:12:37.824,-0.12,0.03
2021-08-19 18:12:37.828,-0.145,0.015
2021-08-19 18:12:37.832,-0.095,0.0
2021-08-19 18:12:37.836,-0.115,0.0
2021-08-19 18:12:37.840,-0.2,0.01
2021-08-19 18:12:37.844,-0.175,0.045
2021-08-19 18:12:37.848,-0.13,0.035
2021-08-19 18:12:37.852,-0.15,0.03
2021-08-19 18:12:37.856,-0.16,0.045
2021-08-19 18:12:37.860,-0.135,0.05
2021-08-19 18:12:37.864,-0.18,0.04
2021-08-19 18:12:37.868,-0.14,0.035
2021-08-19 18:12:37.872,-0.08,0.03
2021-08-19 18:12:37.876,0.025,0.08
2021-08-19 18:12:37.880,0.01,0.21
2021-08-19 18:12:37.884,0.045,0.345
2021-08-19 18:12:37.888,0.225,0.395
2021-08-19 18:12:37.892,0.5,0.33
2021-08-19 18:12:37.896,0.725,0.02
2021-08-19 18:12:37.900,0.89,-0.385
2021-08-19 18:12:37.904,1.175,-0.73
2021-08-19 18:12:37.908,0.99,-1.085
2021-08-19 18:12:37.912,-0.16,-1.285
2021-08-19 18:12:37.916,-1.155,-1.33
2021-08-19 18:12:37.920,-1.82,-1.345
2021-08-19 18:12:37.924,-1.985,-1.03
2021-08-19 18:12:37.928,-1.91,-0.61
2021-08-19 18:12:37.932,-1.79,-0.05
2021-08-19 18:12:37.936,-1.53,0.55
2021-08-19 18:12:37.940,-1.425,0.76
2021-08-19 18:12:37.944,-1.425,0.705
2021-08-19 18:12:37.948,-1.205,0.61
2021-08-19 18:12:37.952,-0.955,0.415
2021-08-19 18:12:37.956,-0.94,0.265
2021-08-19 18:12:37.960,-0.9,0.14
2021-08-19 18:12:37.964,-0.765,0.06
2021-08-19 18:12:37.968,-0.57,0.025
2021-08-19 18:12:37.972,-0.49,0.04
2021-08-19 18:12:37.976,-0.47,0.02
2021-08-19 18:12:37.980,-0.455,0.01
2021-08-19 18:12:37.984,-0.535,0.03
2021-08-19 18:12:37.988,-0.62,0.065
2021-08-19 18:12:37.992,-0.56,0.105
2021-08-19 18:12:37.996,-0.39,0.13
2021-08-19 18:12:38.000,-0.335,0.175
2021-08-19 18:12:38.004,-0.32,0.16
2021-08-19 18:12:38.008,-0.315,0.05
2021-08-19 18:12:38.012,-0.365,0.0
2021-08-19 18:12:38.016,-0.485,-0.005
2021-08-19 18:12:38.020,-0.43,-0.04
2021-08-19 18:12:38.024,-0.35,0.035
2021-08-19 18:12:38.028,-0.31,0.09
2021-08-19 18:12:38.032,-0.405,0.11
2021-08-19 18:12:38.036,-0.45,0.075
2021-08-19 18:12:38.040,-0.4,0.01
2021-08-19 18:12:38.044,-0.345,0.0
2021-08-19 18:12:38.048,-0.345,0.02
2021-08-19 18:12:38.052,-0.33,0.03
2021-08-19 18:12:38.056,-0.25,0.03
2021-08-19 18:12:38.060,-0.125,0.02
2021-08-19 18:12:38.064,-0.13,0.06
2021-08-19 18:12:38.068,-0.185,0.095
2021-08-19 18:12:38.072,-0.135,0.095
2021-08-19 18:12:38.076,-0.005,0.085
2021-08-19 18:12:38.080,0.105,0.08
2021-08-19 18:12:38.084,0.085,0.075
2021-08-19 18:12:38.088,0.04,0.085
2021-08-19 18:12:38.092,0.16,0.075
2021-08-19 18:12:38.096,0.35,0.095
2021-08-19 18:12:38.100,0.4,0.095
2021-08-19 18:12:38.104,0.485,0.065
2021-08-19 18:12:38.108,0.605,0.035
2021-08-19 18:12:38.112,0.6,0.055
2021-08-19 18:12:38.116,0.49,0.05
2021-08-19 18:12:38.120,0.535,0.025
2021-08-19 18:12:38.124,0.625,0.005
2021-08-19 18:12:38.128,0.555,0.005
2021-08-19 18:12:38.132,0.5,0.05
2021-08-19 18:12:38.136,0.57,0.09
2021-08-19 18:12:38.140,0.635,0.1
2021-08-19 18:12:38.144,0.745,0.11
2021-08-19 18:12:38.148,0.905,0.07
2021-08-19 18:12:38.152,0.945,0.035
2021-08-19 18:12:38.156,0.89,0.015
2021-08-19 18:12:38.160,0.855,-0.005
2021-08-19 18:12:38.164,0.84,-0.025
2021-08-19 18:12:38.168,0.89,-0.11
2021-08-19 18:12:38.172,0.73,-0.14
2021-08-19 18:12:38.176,0.45,-0.11
2021-08-19 18:12:38.180,0.3,-0.095
2021-08-19 18:12:38.184,0.215,-0.115
2021-08-19 18:12:38.188,0.255,-0.125
2021-08-19 18:12:38.192,0.18,-0.155
2021-08-19 18:12:38.196,0.07,-0.165
2021-08-19 18:12:38.200,-0.09,-0.135
2021-08-19 18:12:38.204,-0.2,-0.105
2021-08-19 18:12:38.208,-0.115,-0.09
2021-08-19 18:12:38.212,-0.11,-0.035
2021-08-19 18:12:38.216,-0.435,0.025
2021-08-19 18:12:38.220,-0.645,0.03
2021-08-19 18:12:38.224,-0.655,0.04
2021-08-19 18:12:38.228,-0.54,0.025
2021-08-19 18:12:38.232,-0.475,0.015
2021-08-19 18:12:38.236,-0.445,0.07
2021-08-19 18:12:38.240,-0.47,0.095
2021-08-19 18:12:38.244,-0.455,0.065
2021-08-19 18:12:38.248,-0.42,0.025
2021-08-19 18:12:38.252,-0.425,0.0
2021-08-19 18:12:38.256,-0.5,0.01
2021-08-19 18:12:38.260,-0.545,0.055
2021-08-19 18:12:38.264,-0.56,0.1
2021-08-19 18:12:38.268,-0.495,0.065
2021-08-19 18:12:38.272,-0.46,-0.02
2021-08-19 18:12:38.276,-0.415,-0.055
2021-08-19 18:12:38.280,-0.39,-0.005
2021-08-19 18:12:38.284,-0.39,0.035
2021-08-19 18:12:38.288,-0.555,0.04
2021-08-19 18:12:38.292,-0.61,0.035
2021-08-19 18:12:38.296,-0.55,0.015
2021-08-19 18:12:38.300,-0.48,0.04
2021-08-19 18:12:38.304,-0.54,0.03
2021-08-19 18:12:38.308,-0.64,0.035
2021-08-19 18:12:38.312,-0.61,0.0
2021-08-19 18:12:38.316,-0.54,0.0
2021-08-19 18:12:38.320,-0.53,0.005
2021-08-19 18:12:38.324,-0.575,0.02
2021-08-19 18:12:38.328,-0.575,0.05
2021-08-19 18:12:38.332,-0.63,0.075
2021-08-19 18:12:38.336,-0.65,0.02
2021-08-19 18:12:38.340,-0.59,0.0
2021-08-19 18:12:38.344,-0.62,0.005
2021-08-19 18:12:38.348,-0.625,0.015
2021-08-19 18:12:38.352,-0.62,0.035
2021-08-19 18:12:38.356,-0.58,0.01
2021-08-19 18:12:38.360,-0.605,0.03
2021-08-19 18:12:38.364,-0.665,0.045
2021-08-19 18:12:38.368,-0.79,0.035
2021-08-19 18:12:38.372,-0.78,0.035
2021-08-19 18:12:38.376,-0.72,0.03
2021-08-19 18:12:38.380,-0.605,0.055
2021-08-19 18:12:38.384,-0.58,0.08
2021-08-19 18:12:38.388,-0.64,0.11
2021-08-19 18:12:38.392,-0.68,0.09
2021-08-19 18:12:38.396,-0.635,0.025
2021-08-19 18:12:38.400,-0.61,-0.02
2021-08-19 18:12:38.404,-0.61,-0.025
2021-08-19 18:12:38.408,-0.66,-0.055
2021-08-19 18:12:38.412,-0.755,-0.025
2021-08-19 18:12:38.416,-0.76,0.0
2021-08-19 18:12:38.420,-0.64,0.04
2021-08-19 18:12:38.424,-0.66,0.07
2021-08-19 18:12:38.428,-0.71,0.085
2021-08-19 18:12:38.432,-0.615,0.06
2021-08-19 18:12:38.436,-0.385,0.065
2021-08-19 18:12:38.440,-0.535,0.09
2021-08-19 18:12:38.444,-0.885,0.14
2021-08-19 18:12:38.448,-0.87,0.055
2021-08-19 18:12:38.452,-0.51,-0.05
2021-08-19 18:12:38.456,-0.495,-0.05
2021-08-19 18:12:38.460,-0.595,-0.015
2021-08-19 18:12:38.464,-0.67,0.01
2021-08-19 18:12:38.468,-0.7,0.035
2021-08-19 18:12:38.472,-0.47,-0.025
2021-08-19 18:12:38.476,-0.305,-0.14
2021-08-19 18:12:38.480,-0.47,-0.14
2021-08-19 18:12:38.484,-0.83,-0.005
2021-08-19 18:12:38.488,-0.94,0.135
2021-08-19 18:12:38.492,-0.96,0.195
2021-08-19 18:12:38.496,-0.985,0.195
2021-08-19 18:12:38.500,-0.75,0.085
2021-08-19 18:12:38.504,-0.505,0.0
2021-08-19 18:12:38.508,-0.48,0.08
2021-08-19 18:12:38.512,-0.635,0.165
2021-08-19 18:12:38.516,-0.69,0.115
2021-08-19 18:12:38.520,-0.78,0.02
2021-08-19 18:12:38.524,-0.835,-0.04
2021-08-19 18:12:38.528,-0.685,-0.06
2021-08-19 18:12:38.532,-0.595,-0.06
2021-08-19 18:12:38.536,-0.59,-0.025
2021-08-19 18:12:38.540,-0.715,0.04
2021-08-19 18:12:38.544,-0.76,0.05
2021-08-19 18:12:38.548,-0.65,-0.015
2021-08-19 18:12:38.552,-0.625,-0.04
2021-08-19 18:12:38.556,-0.63,0.0
2021-08-19 18:12:38.560,-0.605,0.035
2021-08-19 18:12:38.564,-0.775,0.05
2021-08-19 18:12:38.568,-0.83,0.025
2021-08-19 18:12:38.572,-0.66,-0.025
2021-08-19 18:12:38.576,-0.4,-0.075
2021-08-19 18:12:38.580,-0.405,0.0
2021-08-19 18:12:38.584,-0.59,0.055
2021-08-19 18:12:38.588,-0.585,0.055
2021-08-19 18:12:38.592,-0.555,0.0
2021-08-19 18:12:38.596,-0.675,0.0
2021-08-19 18:12:38.600,-0.745,0.0
2021-08-19 18:12:38.604,-0.725,0.025
2021-08-19 18:12:38.608,-0.61,0.04
2021-08-19 18:12:38.612,-0.485,0.03
2021-08-19 18:12:38.616,-0.51,-0.025
2021-08-19 18:12:38.620,-0.47,-0.005
2021-08-19 18:12:38.624,-0.53,0.02
2021-08-19 18:12:38.628,-0.645,0.0
2021-08-19 18:12:38.632,-0.63,0.015
2021-08-19 18:12:38.636,-0.47,-0.03
2021-08-19 18:12:38.640,-0.42,-0.055
2021-08-19 18:12:38.644,-0.305,-0.05
2021-08-19 18:12:38.648,-0.255,-0.035
2021-08-19 18:12:38.652,-0.38,0.05
2021-08-19 18:12:38.656,-0.57,0.065
2021-08-19 18:12:38.660,-0.54,0.04
2021-08-19 18:12:38.664,-0.39,0.0
2021-08-19 18:12:38.668,-0.41,-0.045
2021-08-19 18:12:38.672,-0.46,0.0
2021-08-19 18:12:38.676,-0.405,0.0
2021-08-19 18:12:38.680,-0.36,0.0
2021-08-19 18:12:38.684,-0.375,0.02
2021-08-19 18:12:38.688,-0.285,0.02
2021-08-19 18:12:38.692,-0.2,0.08
2021-08-19 18:12:38.696,-0.245,0.155
2021-08-19 18:12:38.700,-0.28,0.13
2021-08-19 18:12:38.704,-0.195,0.035
2021-08-19 18:12:38.708,-0.095,0.035
2021-08-19 18:12:38.712,0.03,0.11
2021-08-19 18:12:38.716,0.305,0.085
2021-08-19 18:12:38.720,0.33,-0.025
2021-08-19 18:12:38.724,-0.175,-0.01
2021-08-19 18:12:38.728,-0.29,0.05
2021-08-19 18:12:38.732,-0.075,0.005
2021-08-19 18:12:38.736,0.075,-0.09
2021-08-19 18:12:38.740,-0.04,-0.14
2021-08-19 18:12:38.744,-0.135,-0.14
2021-08-19 18:12:38.748,-0.07,-0.115
2021-08-19 18:12:38.752,-0.275,-0.02
2021-08-19 18:12:38.756,-0.45,0.0
2021-08-19 18:12:38.760,-0.49,0.015
2021-08-19 18:12:38.764,-0.405,0.015
2021-08-19 18:12:38.768,-0.315,-0.02
2021-08-19 18:12:38.772,-0.16,-0.075
2021-08-19 18:12:38.776,-0.3,-0.04
2021-08-19 18:12:38.780,-0.49,0.01
2021-08-19 18:12:38.784,-0.41,0.015
2021-08-19 18:12:38.788,-0.21,0.0
2021-08-19 18:12:38.792,-0.135,0.0
2021-08-19 18:12:38.796,-0.255,0.045
2021-08-19 18:12:38.800,-0.365,0.095
2021-08-19 18:12:38.804,-0.36,0.12
2021-08-19 18:12:38.808,-0.22,0.12
2021-08-19 18:12:38.812,-0.075,0.13
2021-08-19 18:12:38.816,0.055,0.095
2021-08-19 18:12:38.820,0.11,0.08
2021-08-19 18:12:38.824,0.635,0.055
2021-08-19 18:12:38.828,1.485,-0.095
2021-08-19 18:12:38.840,1.39,-0.84
2021-08-19 18:12:38.844,0.535,-0.91
2021-08-19 18:12:38.848,-0.175,-0.815
2021-08-19 18:12:38.852,-0.24,-0.75
2021-08-19 18:12:38.856,-0.12,-0.515
2021-08-19 18:12:38.860,-0.36,-0.36
2021-08-19 18:12:38.864,-0.425,-0.285
2021-08-19 18:12:38.868,-0.18,-0.175
2021-08-19 18:12:38.872,-0.01,-0.14
2021-08-19 18:12:38.876,-0.02,-0.08
2021-08-19 18:12:38.880,-0.04,-0.02
2021-08-19 18:12:38.884,-0.17,0.015
2021-08-19 18:12:38.888,-0.375,0.02
2021-08-19 18:12:38.892,-0.32,0.05
2021-08-19 18:12:38.896,-0.2,0.025
2021-08-19 18:12:38.900,-0.08,0.01
2021-08-19 18:12:38.904,-0.06,0.025
2021-08-19 18:12:38.908,-0.17,0.095
2021-08-19 18:12:38.912,-0.15,0.09
2021-08-19 18:12:38.916,-0.06,0.1
2021-08-19 18:12:38.920,-0.03,0.09
2021-08-19 18:12:38.924,0.03,0.085
2021-08-19 18:12:38.928,0.005,0.08
2021-08-19 18:12:38.932,-0.09,0.05
2021-08-19 18:12:38.936,-0.12,0.05
2021-08-19 18:12:38.940,0.015,0.045
2021-08-19 18:12:38.944,0.17,0.075
2021-08-19 18:12:38.948,0.045,0.085
2021-08-19 18:12:38.952,-0.1,0.095
2021-08-19 18:12:38.956,-0.08,0.09
2021-08-19 18:12:38.960,-0.04,0.075
2021-08-19 18:12:38.964,-0.13,0.06
2021-08-19 18:12:38.968,-0.205,0.065
2021-08-19 18:12:38.972,-0.18,0.05
2021-08-19 18:12:38.976,-0.09,0.025
2021-08-19 18:12:38.980,0.005,-0.005
2021-08-19 18:12:38.984,0.105,0.02
2021-08-19 18:12:38.988,-0.065,0.13
2021-08-19 18:12:38.992,-0.275,0.175
2021-08-19 18:12:38.996,-0.16,0.105
2021-08-19 18:12:39.000,-0.08,0.04
2021-08-19 18:12:39.004,-0.06,0.025
2021-08-19 18:12:39.008,0.0,0.02
2021-08-19 18:12:39.012,0.06,0.015
2021-08-19 18:12:39.016,0.015,0.02
2021-08-19 18:12:39.020,-0.055,0.035
2021-08-19 18:12:39.024,-0.16,0.075
2021-08-19 18:12:39.028,-0.09,0.065
2021-08-19 18:12:39.032,0.09,0.03
2021-08-19 18:12:39.036,0.09,-0.015
2021-08-19 18:12:39.040,0.095,-0.045
2021-08-19 18:12:39.044,0.14,-0.01
2021-08-19 18:12:39.048,0.245,0.015
2021-08-19 18:12:39.052,0.18,0.005
2021-08-19 18:12:39.056,-0.095,0.055
2021-08-19 18:12:39.060,-0.23,0.085
2021-08-19 18:12:39.064,-0.22,0.075
2021-08-19 18:12:39.068,-0.18,0.03
2021-08-19 18:12:39.072,-0.12,0.0
2021-08-19 18:12:39.076,-0.23,-0.015
2021-08-19 18:12:39.080,-0.27,-0.01
2021-08-19 18:12:39.084,-0.24,0.0
2021-08-19 18:12:39.088,-0.25,0.05
2021-08-19 18:12:39.092,-0.24,0.02
2021-08-19 18:12:39.096,-0.22,0.04
2021-08-19 18:12:39.100,-0.215,0.015
2021-08-19 18:12:39.104,-0.225,0.01
2021-08-19 18:12:39.108,-0.07,0.045
2021-08-19 18:12:39.112,0.07,0.045
2021-08-19 18:12:39.116,-0.03,0.03
2021-08-19 18:12:39.120,-0.04,0.015
2021-08-19 18:12:39.124,0.175,0.02
2021-08-19 18:12:39.128,0.385,0.01
2021-08-19 18:12:39.132,0.335,-0.015
2021-08-19 18:12:39.136,0.34,-0.055
2021-08-19 18:12:39.140,0.255,-0.01
2021-08-19 18:12:39.144,0.305,0.005
2021-08-19 18:12:39.148,0.415,-0.02
2021-08-19 18:12:39.152,0.425,-0.01
2021-08-19 18:12:39.156,0.395,-0.005
2021-08-19 18:12:39.160,0.5,-0.005
2021-08-19 18:12:39.164,0.52,-0.015
2021-08-19 18:12:39.168,0.415,0.0
2021-08-19 18:12:39.172,0.295,0.03
2021-08-19 18:12:39.176,0.245,0.04
2021-08-19 18:12:39.180,0.32,0.015
2021-08-19 18:12:39.184,0.375,0.035
2021-08-19 18:12:39.188,0.49,0.03
2021-08-19 18:12:39.192,0.49,0.04
2021-08-19 18:12:39.196,0.375,0.05
2021-08-19 18:12:39.200,0.35,0.06
2021-08-19 18:12:39.204,0.325,0.065
2021-08-19 18:12:39.208,0.4,0.05
2021-08-19 18:12:39.212,0.46,0.055
2021-08-19 18:12:39.216,0.505,0.075
2021-08-19 18:12:39.220,0.515,0.065
2021-08-19 18:12:39.224,0.47,0.055
2021-08-19 18:12:39.228,0.53,0.075
2021-08-19 18:12:39.232,0.5,0.06
2021-08-19 18:12:39.236,0.36,0.09
2021-08-19 18:12:39.240,0.405,0.085
2021-08-19 18:12:39.244,0.42,0.115
2021-08-19 18:12:39.248,0.47,0.125
2021-08-19 18:12:39.252,0.565,0.105
2021-08-19 18:12:39.256,0.69,0.07
2021-08-19 18:12:39.260,0.74,0.11
2021-08-19 18:12:39.264,0.705,0.225
2021-08-19 18:12:39.268,0.68,0.365
2021-08-19 18:12:39.272,0.735,0.475
2021-08-19 18:12:39.276,1.005,0.325
2021-08-19 18:12:39.280,1.34,-0.04
2021-08-19 18:12:39.284,1.68,-0.465
2021-08-19 18:12:39.288,1.865,-0.81
2021-08-19 18:12:39.292,1.315,-1.125
2021-08-19 18:12:39.296,0.075,-1.245
2021-08-19 18:12:39.300,-1.055,-1.32
2021-08-19 18:12:39.304,-1.73,-1.245
2021-08-19 18:12:39.308,-1.965,-0.805
2021-08-19 18:12:39.312,-1.89,-0.32
2021-08-19 18:12:39.316,-1.665,0.245
2021-08-19 18:12:39.320,-1.35,0.65
2021-08-19 18:12:39.324,-1.325,0.62
2021-08-19 18:12:39.328,-1.19,0.495
2021-08-19 18:12:39.332,-0.99,0.4
2021-08-19 18:12:39.336,-0.76,0.325
2021-08-19 18:12:39.340,-0.505,0.22
2021-08-19 18:12:39.344,-0.26,0.135
2021-08-19 18:12:39.348,-0.145,0.09
2021-08-19 18:12:39.352,-0.07,0.08
2021-08-19 18:12:39.356,0.03,0.075
2021-08-19 18:12:39.360,0.135,0.05
2021-08-19 18:12:39.364,0.28,0.065
2021-08-19 18:12:39.368,0.255,0.09
2021-08-19 18:12:39.372,0.03,0.06
2021-08-19 18:12:39.376,0.03,0.03
2021-08-19 18:12:39.380,0.145,0.0
2021-08-19 18:12:39.384,0.155,-0.005
2021-08-19 18:12:39.388,0.175,0.02
2021-08-19 18:12:39.392,0.335,0.05
2021-08-19 18:12:39.396,0.36,0.045
2021-08-19 18:12:39.400,0.39,0.055
2021-08-19 18:12:39.404,0.5,0.04
2021-08-19 18:12:39.408,0.525,0.055
2021-08-19 18:12:39.412,0.44,0.055
2021-08-19 18:12:39.416,0.425,0.05
2021-08-19 18:12:39.420,0.535,0.025
2021-08-19 18:12:39.424,0.65,0.03
2021-08-19 18:12:39.428,0.63,0.04
2021-08-19 18:12:39.432,0.53,0.065
2021-08-19 18:12:39.436,0.495,0.07
2021-08-19 18:12:39.440,0.47,0.085
2021-08-19 18:12:39.444,0.53,0.095
2021-08-19 18:12:39.448,0.575,0.07
2021-08-19 18:12:39.452,0.66,0.07
2021-08-19 18:12:39.456,0.735,0.06
2021-08-19 18:12:39.460,0.695,0.09
2021-08-19 18:12:39.464,0.68,0.09
2021-08-19 18:12:39.468,0.755,0.08
2021-08-19 18:12:39.472,0.8,0.08
2021-08-19 18:12:39.476,0.885,0.105
2021-08-19 18:12:39.480,0.995,0.095
2021-08-19 18:12:39.484,1.06,0.11
2021-08-19 18:12:39.488,1.015,0.13
2021-08-19 18:12:39.492,1.01,0.145
2021-08-19 18:12:39.496,0.97,0.155
2021-08-19 18:12:39.500,0.92,0.16
2021-08-19 18:12:39.504,0.95,0.16
2021-08-19 18:12:39.508,1.04,0.17
2021-08-19 18:12:39.512,1.17,0.14
2021-08-19 18:12:39.516,1.26,0.145
2021-08-19 18:12:39.520,1.265,0.12
2021-08-19 18:12:39.524,1.25,0.13
2021-08-19 18:12:39.528,1.205,0.145
2021-08-19 18:12:39.532,1.255,0.15
2021-08-19 18:12:39.536,1.265,0.12
2021-08-19 18:12:39.540,1.265,0.07
2021-08-19 18:12:39.544,1.3,0.05
2021-08-19 18:12:39.548,1.185,0.015
2021-08-19 18:12:39.552,1.1,-0.01
2021-08-19 18:12:39.556,1.095,-0.06
2021-08-19 18:12:39.560,0.885,-0.06
2021-08-19 18:12:39.564,0.63,-0.065
2021-08-19 18:12:39.568,0.505,-0.065
2021-08-19 18:12:39.572,0.42,-0.055
2021-08-19 18:12:39.576,0.335,-0.09
2021-08-19 18:12:39.580,0.285,-0.095
2021-08-19 18:12:39.584,0.235,-0.105
2021-08-19 18:12:39.588,0.215,-0.135
2021-08-19 18:12:39.592,0.165,-0.095
2021-08-19 18:12:39.596,0.075,-0.085
2021-08-19 18:12:39.600,0.045,-0.065
2021-08-19 18:12:39.604,0.025,-0.05
2021-08-19 18:12:39.608,-0.005,-0.045
2021-08-19 18:12:39.612,-0.06,-0.015
2021-08-19 18:12:39.616,-0.085,-0.005
2021-08-19 18:12:39.620,-0.135,0.035
2021-08-19 18:12:39.624,-0.155,0.03
2021-08-19 18:12:39.628,0.02,-0.015
2021-08-19 18:12:39.632,0.14,-0.04
2021-08-19 18:12:39.636,-0.045,0.0
2021-08-19 18:12:39.640,-0.265,0.03
2021-08-19 18:12:39.644,-0.415,0.035
2021-08-19 18:12:39.648,-0.3,0.035
2021-08-19 18:12:39.652,-0.265,0.025
2021-08-19 18:12:39.656,-0.265,0.015
2021-08-19 18:12:39.660,-0.21,0.01
2021-08-19 18:12:39.664,-0.155,-0.005
2021-08-19 18:12:39.668,-0.14,-0.025
2021-08-19 18:12:39.672,-0.125,-0.015
2021-08-19 18:12:39.676,-0.32,-0.005
2021-08-19 18:12:39.680,-0.415,0.005
2021-08-19 18:12:39.684,-0.35,0.01
2021-08-19 18:12:39.688,-0.3,0.0
2021-08-19 18:12:39.692,-0.295,0.0
2021-08-19 18:12:39.696,-0.28,-0.015
2021-08-19 18:12:39.700,-0.31,-0.015
2021-08-19 18:12:39.704,-0.365,-0.01
2021-08-19 18:12:39.708,-0.3,-0.01
2021-08-19 18:12:39.712,-0.28,0.0
2021-08-19 18:12:39.716,-0.295,0.005
2021-08-19 18:12:39.720,-0.275,0.03
2021-08-19 18:12:39.724,-0.115,0.05
2021-08-19 18:12:39.728,-0.025,0.055
2021-08-19 18:12:39.732,-0.07,0.04
2021-08-19 18:12:39.736,-0.035,0.01
2021-08-19 18:12:39.740,0.02,0.03
2021-08-19 18:12:39.744,-0.12,0.055
2021-08-19 18:12:39.748,-0.235,0.06
2021-08-19 18:12:39.752,-0.18,0.035
2021-08-19 18:12:39.756,-0.13,0.02
2021-08-19 18:12:39.760,-0.12,0.015
2021-08-19 18:12:39.764,-0.21,0.01
2021-08-19 18:12:39.768,-0.425,0.015
2021-08-19 18:12:39.772,-0.385,0.005
2021-08-19 18:12:39.776,-0.385,0.005
2021-08-19 18:12:39.780,-0.505,0.0
2021-08-19 18:12:39.784,-0.465,-0.005
2021-08-19 18:12:39.788,-0.45,0.005
2021-08-19 18:12:39.792,-0.555,0.025
2021-08-19 18:12:39.796,-0.505,0.005
2021-08-19 18:12:39.800,-0.34,-0.01
2021-08-19 18:12:39.804,-0.35,-0.01
2021-08-19 18:12:39.808,-0.52,0.005
2021-08-19 18:12:39.812,-0.63,0.025
2021-08-19 18:12:39.816,-0.61,0.02
2021-08-19 18:12:39.820,-0.575,0.005
2021-08-19 18:12:39.824,-0.475,0.01
2021-08-19 18:12:39.828,-0.41,0.01
2021-08-19 18:12:39.832,-0.515,0.025
2021-08-19 18:12:39.836,-0.51,0.025
2021-08-19 18:12:39.840,-0.455,0.025
2021-08-19 18:12:39.844,-0.47,0.05
2021-08-19 18:12:39.848,-0.535,0.12
2021-08-19 18:12:39.852,-0.53,0.19
2021-08-19 18:12:39.856,-0.52,0.24
2021-08-19 18:12:39.860,-0.46,0.185
2021-08-19 18:12:39.864,-0.07,0.06
2021-08-19 18:12:39.868,0.575,0.0
2021-08-19 18:12:39.872,1.27,-0.18
2021-08-19 18:12:39.876,1.75,-0.47
2021-08-19 18:12:39.880,1.52,-0.83
2021-08-19 18:12:39.884,0.725,-1.07
2021-08-19 18:12:39.888,-0.115,-0.99
2021-08-19 18:12:39.892,-0.745,-0.805
2021-08-19 18:12:39.896,-0.8,-0.64
2021-08-19 18:12:39.900,-0.58,-0.34
2021-08-19 18:12:39.904,-0.735,-0.23
2021-08-19 18:12:39.908,-0.745,-0.19
2021-08-19 18:12:39.912,-0.64,-0.13
2021-08-19 18:12:39.916,-0.64,-0.085
2021-08-19 18:12:39.920,-0.63,-0.08
2021-08-19 18:12:39.924,-0.555,-0.09
2021-08-19 18:12:39.928,-0.525,-0.075
2021-08-19 18:12:39.932,-0.61,-0.025
2021-08-19 18:12:39.936,-0.665,0.015
2021-08-19 18:12:39.940,-0.62,0.035
2021-08-19 18:12:39.944,-0.555,0.045
2021-08-19 18:12:39.948,-0.535,0.04
2021-08-19 18:12:39.952,-0.53,0.05
2021-08-19 18:12:39.956,-0.495,0.055
2021-08-19 18:12:39.960,-0.515,0.055
2021-08-19 18:12:39.964,-0.495,0.07
2021-08-19 18:12:39.968,-0.45,0.06
2021-08-19 18:12:39.972,-0.375,0.025
2021-08-19 18:12:39.976,-0.32,0.015
2021-08-19 18:12:39.980,-0.345,0.045
2021-08-19 18:12:39.984,-0.4,0.03
2021-08-19 18:12:39.988,-0.55,0.05
2021-08-19 18:12:39.992,-0.66,0.075
2021-08-19 18:12:39.996,-0.6,0.075
2021-08-19 18:12:40.000,-0.595,0.06
2021-08-19 18:12:40.004,-0.62,0.07
2021-08-19 18:12:40.008,-0.6,0.065
2021-08-19 18:12:40.012,-0.56,0.04
2021-08-19 18:12:40.016,-0.5,0.04
2021-08-19 18:12:40.020,-0.455,0.045
2021-08-19 18:12:40.024,-0.525,0.04
2021-08-19 18:12:40.028,-0.505,0.04
2021-08-19 18:12:40.032,-0.54,0.06
2021-08-19 18:12:40.036,-0.545,0.04
2021-08-19 18:12:40.040,-0.515,0.04
2021-08-19 18:12:40.044,-0.485,0.06
2021-08-19 18:12:40.048,-0.46,0.035
2021-08-19 18:12:40.052,-0.405,0.005
2021-08-19 18:12:40.056,-0.335,0.0
2021-08-19 18:12:40.060,-0.35,0.03
2021-08-19 18:12:40.064,-0.33,0.01
2021-08-19 18:12:40.068,-0.335,0.035
2021-08-19 18:12:40.072,-0.41,0.035
2021-08-19 18:12:40.076,-0.39,0.04
2021-08-19 18:12:40.080,-0.29,0.045
2021-08-19 18:12:40.084,-0.405,0.055
2021-08-19 18:12:40.088,-0.535,0.05
2021-08-19 18:12:40.092,-0.495,0.03
2021-08-19 18:12:40.096,-0.425,0.035
2021-08-19 18:12:40.100,-0.45,0.03
2021-08-19 18:12:40.104,-0.385,0.04
2021-08-19 18:12:40.108,-0.255,0.02
2021-08-19 18:12:40.112,-0.315,0.005
2021-08-19 18:12:40.116,-0.39,-0.01
2021-08-19 18:12:40.120,-0.12,-0.075
2021-08-19 18:12:40.124,-0.06,-0.09
2021-08-19 18:12:40.128,-0.355,-0.045
2021-08-19 18:12:40.132,-0.55,0.0
2021-08-19 18:12:40.136,-0.62,0.005
2021-08-19 18:12:40.140,-0.575,0.02
2021-08-19 18:12:40.144,-0.48,0.03
2021-08-19 18:12:40.148,-0.48,0.01
2021-08-19 18:12:40.152,-0.435,-0.015
2021-08-19 18:12:40.156,-0.445,-0.005
2021-08-19 18:12:40.160,-0.42,0.02
2021-08-19 18:12:40.164,-0.33,0.0
2021-08-19 18:12:40.168,-0.275,0.0
2021-08-19 18:12:40.172,-0.22,-0.015
2021-08-19 18:12:40.176,-0.305,-0.005
2021-08-19 18:12:40.180,-0.345,0.005
2021-08-19 18:12:40.184,-0.335,0.025
2021-08-19 18:12:40.188,-0.4,0.04
2021-08-19 18:12:40.192,-0.425,0.035
2021-08-19 18:12:40.196,-0.44,0.04
2021-08-19 18:12:40.200,-0.475,0.02
2021-08-19 18:12:40.204,-0.41,0.015
2021-08-19 18:12:40.208,-0.345,0.025
2021-08-19 18:12:40.212,-0.395,0.035
2021-08-19 18:12:40.216,-0.45,0.04
2021-08-19 18:12:40.220,-0.44,0.025
2021-08-19 18:12:40.224,-0.365,0.035
2021-08-19 18:12:40.228,-0.315,0.025
2021-08-19 18:12:40.232,-0.345,0.065
2021-08-19 18:12:40.236,-0.175,0.1
2021-08-19 18:12:40.240,-0.26,0.115
2021-08-19 18:12:40.244,-0.64,0.085
2021-08-19 18:12:40.248,-0.87,0.095
2021-08-19 18:12:40.252,-0.74,0.04
2021-08-19 18:12:40.256,-0.615,0.06
2021-08-19 18:12:40.260,-0.53,0.06
2021-08-19 18:12:40.264,-0.53,0.095
2021-08-19 18:12:40.268,-0.5,0.09
2021-08-19 18:12:40.272,-0.5,0.075
2021-08-19 18:12:40.276,-0.48,0.055
2021-08-19 18:12:40.280,-0.42,0.045
2021-08-19 18:12:40.284,-0.42,0.035
2021-08-19 18:12:40.288,-0.42,0.055
2021-08-19 18:12:40.292,-0.355,0.055
2021-08-19 18:12:40.296,-0.355,0.045
2021-08-19 18:12:40.300,-0.315,0.0
2021-08-19 18:12:40.304,-0.385,0.01
2021-08-19 18:12:40.308,-0.585,0.045
2021-08-19 18:12:40.312,-0.55,0.055
2021-08-19 18:12:40.316,-0.475,0.055
2021-08-19 18:12:40.320,-0.52,0.05
2021-08-19 18:12:40.324,-0.58,0.06
2021-08-19 18:12:40.328,-0.6,0.105
2021-08-19 18:12:40.332,-0.545,0.15
2021-08-19 18:12:40.336,-0.49,0.175
2021-08-19 18:12:40.340,-0.495,0.145
2021-08-19 18:12:40.344,-0.515,0.085
2021-08-19 18:12:40.348,-0.49,0.015
2021-08-19 18:12:40.352,-0.52,-0.045
2021-08-19 18:12:40.356,-0.56,-0.05
2021-08-19 18:12:40.360,-0.69,0.005
2021-08-19 18:12:40.364,-0.72,0.035
2021-08-19 18:12:40.368,-0.735,0.08
2021-08-19 18:12:40.372,-0.705,0.115
2021-08-19 18:12:40.376,-0.655,0.13
2021-08-19 18:12:40.380,-0.675,0.06
2021-08-19 18:12:40.384,-0.575,-0.04
2021-08-19 18:12:40.388,-0.365,-0.1
2021-08-19 18:12:40.392,-0.29,-0.12
2021-08-19 18:12:40.396,-0.44,-0.08
2021-08-19 18:12:40.400,-0.715,-0.01
2021-08-19 18:12:40.404,-0.795,0.01
2021-08-19 18:12:40.408,-0.635,0.055
2021-08-19 18:12:40.412,-0.525,0.04
2021-08-19 18:12:40.416,-0.58,0.015
2021-08-19 18:12:40.420,-0.67,0.0
2021-08-19 18:12:40.424,-0.585,-0.025
2021-08-19 18:12:40.428,-0.61,0.0
2021-08-19 18:12:40.432,-0.815,0.055
2021-08-19 18:12:40.436,-0.82,0.06
2021-08-19 18:12:40.440,-0.725,0.04
2021-08-19 18:12:40.444,-0.71,0.03
2021-08-19 18:12:40.448,-0.68,0.01
2021-08-19 18:12:40.452,-0.65,0.04
2021-08-19 18:12:40.456,-0.615,0.03
2021-08-19 18:12:40.460,-0.625,0.005
2021-08-19 18:12:40.464,-0.68,0.05
2021-08-19 18:12:40.468,-0.665,0.1
2021-08-19 18:12:40.472,-0.585,0.145
2021-08-19 18:12:40.476,-0.62,0.095
2021-08-19 18:12:40.480,-0.545,0.0
2021-08-19 18:12:40.484,-0.4,-0.04
2021-08-19 18:12:40.488,-0.59,0.04
2021-08-19 18:12:40.492,-0.915,0.13
2021-08-19 18:12:40.496,-0.84,0.1
2021-08-19 18:12:40.500,-0.685,0.045
2021-08-19 18:12:40.504,-0.6,0.005
2021-08-19 18:12:40.508,-0.625,-0.015
2021-08-19 18:12:40.512,-0.61,-0.02
2021-08-19 18:12:40.516,-0.675,0.0
2021-08-19 18:12:40.520,-0.665,-0.02
2021-08-19 18:12:40.524,-0.525,-0.045
2021-08-19 18:12:40.528,-0.435,-0.07
2021-08-19 18:12:40.532,-0.36,-0.02
2021-08-19 18:12:40.536,-0.23,0.05
2021-08-19 18:12:40.540,-0.53,0.11
2021-08-19 18:12:40.544,-0.89,0.09
2021-08-19 18:12:40.548,-0.775,0.035
2021-08-19 18:12:40.552,-0.52,0.0
2021-08-19 18:12:40.556,-0.345,-0.04
2021-08-19 18:12:40.560,-0.195,-0.045
2021-08-19 18:12:40.564,-0.26,-0.07
2021-08-19 18:12:40.568,-0.44,-0.08
2021-08-19 18:12:40.572,-0.725,-0.04
2021-08-19 18:12:40.576,-0.775,-0.035
2021-08-19 18:12:40.580,-0.705,0.01
2021-08-19 18:12:40.584,-0.68,0.025
2021-08-19 18:12:40.588,-0.635,0.05
2021-08-19 18:12:40.592,-0.66,0.08
2021-08-19 18:12:40.596,-0.51,0.035
2021-08-19 18:12:40.600,-0.38,0.0
2021-08-19 18:12:40.604,-0.285,0.035
2021-08-19 18:12:40.608,-0.33,0.055
2021-08-19 18:12:40.612,-0.39,0.07
2021-08-19 18:12:40.616,-0.29,0.07
2021-08-19 18:12:40.620,-0.19,0.04
2021-08-19 18:12:40.624,-0.09,-0.035
2021-08-19 18:12:40.628,-0.015,-0.06
2021-08-19 18:12:40.632,-0.14,-0.02
2021-08-19 18:12:40.636,-0.265,-0.03
2021-08-19 18:12:40.640,-0.12,0.015
2021-08-19 18:12:40.644,-0.15,0.035
2021-08-19 18:12:40.648,-0.19,0.025
2021-08-19 18:12:40.652,-0.32,0.03
2021-08-19 18:12:40.656,-0.425,0.015
2021-08-19 18:12:40.660,-0.395,-0.02
2021-08-19 18:12:40.664,-0.185,-0.06
2021-08-19 18:12:40.668,-0.28,-0.035
2021-08-19 18:12:40.672,-0.375,0.02
2021-08-19 18:12:40.676,-0.27,0.02
2021-08-19 18:12:40.680,-0.185,-0.005
2021-08-19 18:12:40.684,-0.365,0.03
2021-08-19 18:12:40.688,-0.57,0.06
2021-08-19 18:12:40.692,-0.315,0.005
2021-08-19 18:12:40.696,-0.025,0.015
2021-08-19 18:12:40.700,-0.105,0.0
2021-08-19 18:12:40.704,-0.54,0.0
2021-08-19 18:12:40.708,-0.665,-0.025
2021-08-19 18:12:40.712,-0.415,-0.03
2021-08-19 18:12:40.716,-0.18,0.015
2021-08-19 18:12:40.720,-0.06,0.105
2021-08-19 18:12:40.724,-0.175,0.095
2021-08-19 18:12:40.728,0.31,-0.025
2021-08-19 18:12:40.732,1.18,-0.12
2021-08-19 18:12:40.736,1.875,-0.32
2021-08-19 18:12:40.744,1.455,-0.695
2021-08-19 18:12:40.748,0.45,-0.82
2021-08-19 18:12:40.752,-0.25,-0.84
2021-08-19 18:12:40.756,-0.67,-0.835
2021-08-19 18:12:40.760,-0.625,-0.695
2021-08-19 18:12:40.764,-0.565,-0.425
2021-08-19 18:12:40.768,-0.47,-0.355
2021-08-19 18:12:40.772,-0.345,-0.225
2021-08-19 18:12:40.776,-0.31,-0.16
2021-08-19 18:12:40.780,-0.325,-0.125
2021-08-19 18:12:40.784,-0.28,-0.09
2021-08-19 18:12:40.788,-0.19,-0.085
2021-08-19 18:12:40.792,-0.22,-0.035
2021-08-19 18:12:40.796,-0.26,-0.04
2021-08-19 18:12:40.800,-0.28,-0.01
2021-08-19 18:12:40.804,-0.255,-0.01
2021-08-19 18:12:40.808,-0.17,-0.02
2021-08-19 18:12:40.812,-0.13,-0.02
2021-08-19 18:12:40.816,-0.185,-0.01
2021-08-19 18:12:40.820,-0.385,0.01
2021-08-19 18:12:40.824,-0.535,0.075
2021-08-19 18:12:40.828,-0.485,0.065
2021-08-19 18:12:40.832,-0.3,0.045
2021-08-19 18:12:40.836,-0.255,0.025
2021-08-19 18:12:40.840,-0.23,0.02
2021-08-19 18:12:40.844,-0.185,0.01
2021-08-19 18:12:40.848,-0.2,0.025
2021-08-19 18:12:40.852,-0.25,0.025
2021-08-19 18:12:40.856,-0.175,0.015
2021-08-19 18:12:40.860,-0.125,0.005
2021-08-19 18:12:40.864,-0.285,0.025
2021-08-19 18:12:40.868,-0.365,0.035
2021-08-19 18:12:40.872,-0.28,0.015
2021-08-19 18:12:40.876,-0.195,-0.01
2021-08-19 18:12:40.880,-0.1,-0.015
2021-08-19 18:12:40.884,0.08,-0.035
2021-08-19 18:12:40.888,-0.02,-0.005
2021-08-19 18:12:40.892,-0.21,-0.005
2021-08-19 18:12:40.896,-0.395,0.005
2021-08-19 18:12:40.900,-0.395,0.02
2021-08-19 18:12:40.904,-0.32,0.0
2021-08-19 18:12:40.908,-0.24,-0.015
2021-08-19 18:12:40.912,-0.26,0.01
2021-08-19 18:12:40.916,-0.285,0.015
2021-08-19 18:12:40.920,-0.2,-0.02
2021-08-19 18:12:40.924,-0.115,-0.03
2021-08-19 18:12:40.928,-0.15,-0.02
2021-08-19 18:12:40.932,-0.255,-0.005
2021-08-19 18:12:40.936,-0.29,0.005
2021-08-19 18:12:40.940,-0.2,-0.015
2021-08-19 18:12:40.944,-0.04,-0.04
2021-08-19 18:12:40.948,-0.11,-0.045
2021-08-19 18:12:40.952,-0.25,-0.025
2021-08-19 18:12:40.956,-0.33,-0.01
2021-08-19 18:12:40.960,-0.27,-0.025
2021-08-19 18:12:40.964,-0.29,-0.045
2021-08-19 18:12:40.968,-0.3,-0.07
2021-08-19 18:12:40.972,-0.25,-0.08
2021-08-19 18:12:40.976,-0.24,-0.09
2021-08-19 18:12:40.980,-0.275,-0.105
2021-08-19 18:12:40.984,-0.31,-0.105
2021-08-19 18:12:40.988,-0.34,-0.1
2021-08-19 18:12:40.992,-0.34,-0.1
2021-08-19 18:12:40.996,-0.27,-0.095
2021-08-19 18:12:41.000,-0.045,-0.075
2021-08-19 18:12:41.004,0.025,-0.015
2021-08-19 18:12:41.008,-0.005,0.0
2021-08-19 18:12:41.012,0.025,0.005
2021-08-19 18:12:41.016,0.055,-0.025
2021-08-19 18:12:41.020,0.13,0.005
2021-08-19 18:12:41.024,0.195,-0.02
2021-08-19 18:12:41.028,0.16,-0.05
2021-08-19 18:12:41.032,0.175,-0.05
