Time,ECG1,ECG2
2021-08-19 16:30:48.080,-0.295,0.145
2021-08-19 16:30:48.084,-0.3,-0.03
2021-08-19 16:30:48.088,-0.325,-0.055
2021-08-19 16:30:48.092,-0.335,0.075
2021-08-19 16:30:48.096,-0.355,0.255
2021-08-19 16:30:48.100,-0.37,0.255
2021-08-19 16:30:48.104,-0.33,0.075
2021-08-19 16:30:48.108,-0.26,-0.05
2021-08-19 16:30:48.112,-0.29,-0.015
2021-08-19 16:30:48.116,-0.34,0.04
2021-08-19 16:30:48.120,-0.29,0.02
2021-08-19 16:30:48.124,-0.275,0.07
2021-08-19 16:30:48.128,-0.32,0.145
2021-08-19 16:30:48.132,-0.37,0.125
2021-08-19 16:30:48.136,-0.4,0.11
2021-08-19 16:30:48.140,-0.41,0.17
2021-08-19 16:30:48.144,-0.375,0.195
2021-08-19 16:30:48.148,-0.36,0.06
2021-08-19 16:30:48.152,-0.37,0.05
2021-08-19 16:30:48.156,-0.34,0.245
2021-08-19 16:30:48.160,-0.355,0.19
2021-08-19 16:30:48.164,-0.38,0.03
2021-08-19 16:30:48.168,-0.41,0.12
2021-08-19 16:30:48.172,-0.4,0.13
2021-08-19 16:30:48.176,-0.325,-0.02
2021-08-19 16:30:48.180,-0.32,-0.025
2021-08-19 16:30:48.184,-0.36,0.2
2021-08-19 16:30:48.188,-0.35,0.27
2021-08-19 16:30:48.192,-0.35,0.12
2021-08-19 16:30:48.196,-0.285,0.035
2021-08-19 16:30:48.200,-0.265,0.005
2021-08-19 16:30:48.204,-0.245,-0.005
2021-08-19 16:30:48.208,-0.32,0.01
2021-08-19 16:30:48.212,-0.325,0.04
2021-08-19 16:30:48.216,-0.365,0.12
2021-08-19 16:30:48.220,-0.415,0.2
2021-08-19 16:30:48.224,-0.395,0.245
2021-08-19 16:30:48.228,-0.35,0.165
2021-08-19 16:30:48.232,-0.34,0.1
2021-08-19 16:30:48.236,-0.36,0.115
2021-08-19 16:30:48.240,-0.355,0.065
2021-08-19 16:30:48.244,-0.34,-0.055
2021-08-19 16:30:48.248,-0.31,-0.03
2021-08-19 16:30:48.252,-0.32,0.135
2021-08-19 16:30:48.256,-0.31,0.165
2021-08-19 16:30:48.260,-0.34,0.07
2021-08-19 16:30:48.264,-0.33,-0.01
2021-08-19 16:30:48.268,-0.28,0.015
2021-08-19 16:30:48.272,-0.3,0.22
2021-08-19 16:30:48.276,-0.28,0.35
2021-08-19 16:30:48.280,-0.225,0.175
2021-08-19 16:30:48.284,-0.155,-0.03
2021-08-19 16:30:48.288,-0.185,0.055
2021-08-19 16:30:48.292,-0.23,0.115
2021-08-19 16:30:48.296,-0.2,0.155
2021-08-19 16:30:48.300,-0.145,0.09
2021-08-19 16:30:48.304,-0.06,-0.005
2021-08-19 16:30:48.308,0.03,0.11
2021-08-19 16:30:48.312,-0.025,0.19
2021-08-19 16:30:48.316,-0.05,0.13
2021-08-19 16:30:48.320,0.0,0.165
2021-08-19 16:30:48.324,0.05,0.225
2021-08-19 16:30:48.328,0.15,0.055
2021-08-19 16:30:48.332,0.28,-0.065
2021-08-19 16:30:48.336,0.27,-0.075
2021-08-19 16:30:48.340,0.15,-0.035
2021-08-19 16:30:48.344,0.04,0.105
2021-08-19 16:30:48.348,0.065,0.23
2021-08-19 16:30:48.352,0.015,0.125
2021-08-19 16:30:48.356,0.01,-0.055
2021-08-19 16:30:48.360,0.035,0.125
2021-08-19 16:30:48.364,-0.015,0.28
2021-08-19 16:30:48.368,-0.115,0.045
2021-08-19 16:30:48.372,-0.125,-0.08
2021-08-19 16:30:48.376,-0.16,0.0
2021-08-19 16:30:48.380,-0.125,0.06
2021-08-19 16:30:48.384,-0.085,0.11
2021-08-19 16:30:48.388,-0.05,0.17
2021-08-19 16:30:48.392,-0.085,0.115
2021-08-19 16:30:48.396,-0.095,-0.015
2021-08-19 16:30:48.400,-0.07,-0.035
2021-08-19 16:30:48.404,-0.04,-0.02
2021-08-19 16:30:48.408,-0.055,0.01
2021-08-19 16:30:48.412,0.005,0.065
2021-08-19 16:30:48.416,0.04,0.105
2021-08-19 16:30:48.420,0.055,0.095
2021-08-19 16:30:48.424,0.015,0.095
2021-08-19 16:30:48.428,0.045,0.075
2021-08-19 16:30:48.432,0.065,0.095
2021-08-19 16:30:48.436,0.045,0.21
2021-08-19 16:30:48.440,0.09,0.185
2021-08-19 16:30:48.444,0.335,-0.035
2021-08-19 16:30:48.448,0.585,-0.14
2021-08-19 16:30:48.452,1.01,-0.065
2021-08-19 16:30:48.456,1.47,-0.005
2021-08-19 16:30:48.460,1.945,-0.17
2021-08-19 16:30:48.468,1.42,-0.795
2021-08-19 16:30:48.472,0.41,-0.725
2021-08-19 16:30:48.476,-0.63,-0.515
2021-08-19 16:30:48.480,-1.1,-0.42
2021-08-19 16:30:48.484,-0.915,-0.325
2021-08-19 16:30:48.488,-0.69,-0.21
2021-08-19 16:30:48.492,-0.485,-0.1
2021-08-19 16:30:48.496,-0.265,0.05
2021-08-19 16:30:48.500,-0.16,-0.07
2021-08-19 16:30:48.504,-0.085,-0.08
2021-08-19 16:30:48.508,-0.05,0.0
2021-08-19 16:30:48.512,0.04,-0.045
2021-08-19 16:30:48.516,0.06,0.0
2021-08-19 16:30:48.520,0.0,0.105
2021-08-19 16:30:48.524,-0.025,0.045
2021-08-19 16:30:48.528,0.065,-0.07
2021-08-19 16:30:48.532,0.09,-0.04
2021-08-19 16:30:48.536,0.02,0.005
2021-08-19 16:30:48.540,-0.06,0.1
2021-08-19 16:30:48.544,-0.105,0.165
2021-08-19 16:30:48.548,-0.045,0.155
2021-08-19 16:30:48.552,-0.02,0.075
2021-08-19 16:30:48.556,0.025,-0.025
2021-08-19 16:30:48.560,0.125,-0.06
2021-08-19 16:30:48.564,0.1,-0.01
2021-08-19 16:30:48.568,-0.01,0.095
2021-08-19 16:30:48.572,-0.075,0.085
2021-08-19 16:30:48.576,0.015,0.005
2021-08-19 16:30:48.580,0.045,0.015
2021-08-19 16:30:48.584,0.03,0.05
2021-08-19 16:30:48.588,0.005,0.055
2021-08-19 16:30:48.592,-0.055,0.04
2021-08-19 16:30:48.596,-0.045,0.05
2021-08-19 16:30:48.600,0.02,0.01
2021-08-19 16:30:48.604,0.1,-0.045
2021-08-19 16:30:48.608,0.07,-0.06
2021-08-19 16:30:48.612,0.01,0.02
2021-08-19 16:30:48.616,0.025,0.08
2021-08-19 16:30:48.620,0.045,0.065
2021-08-19 16:30:48.624,0.105,0.07
2021-08-19 16:30:48.628,0.16,0.12
2021-08-19 16:30:48.632,0.18,0.035
2021-08-19 16:30:48.636,0.205,-0.02
2021-08-19 16:30:48.640,0.19,0.02
2021-08-19 16:30:48.644,0.195,0.065
2021-08-19 16:30:48.648,0.16,0.01
2021-08-19 16:30:48.652,0.17,-0.025
2021-08-19 16:30:48.656,0.2,-0.03
2021-08-19 16:30:48.660,0.185,-0.02
2021-08-19 16:30:48.664,0.165,0.01
2021-08-19 16:30:48.668,0.165,0.015
2021-08-19 16:30:48.672,0.255,-0.05
2021-08-19 16:30:48.676,0.255,-0.105
2021-08-19 16:30:48.680,0.255,-0.085
2021-08-19 16:30:48.684,0.22,-0.03
2021-08-19 16:30:48.688,0.175,-0.005
2021-08-19 16:30:48.692,0.14,0.02
2021-08-19 16:30:48.696,0.195,0.035
2021-08-19 16:30:48.700,0.25,0.015
2021-08-19 16:30:48.704,0.215,-0.015
2021-08-19 16:30:48.708,0.15,0.04
2021-08-19 16:30:48.712,0.1,0.04
2021-08-19 16:30:48.716,0.11,-0.035
2021-08-19 16:30:48.720,0.22,-0.055
2021-08-19 16:30:48.724,0.31,-0.04
2021-08-19 16:30:48.728,0.385,-0.065
2021-08-19 16:30:48.732,0.45,-0.05
2021-08-19 16:30:48.736,0.48,0.0
2021-08-19 16:30:48.740,0.405,0.03
2021-08-19 16:30:48.744,0.45,-0.005
2021-08-19 16:30:48.748,0.495,-0.095
2021-08-19 16:30:48.752,0.505,-0.185
2021-08-19 16:30:48.756,0.485,-0.105
2021-08-19 16:30:48.760,0.52,0.035
2021-08-19 16:30:48.764,0.485,0.06
2021-08-19 16:30:48.768,0.445,0.015
2021-08-19 16:30:48.772,0.46,-0.005
2021-08-19 16:30:48.776,0.535,0.04
2021-08-19 16:30:48.780,0.525,0.03
2021-08-19 16:30:48.784,0.47,-0.055
2021-08-19 16:30:48.788,0.345,-0.04
2021-08-19 16:30:48.792,0.3,-0.055
2021-08-19 16:30:48.796,0.32,-0.05
2021-08-19 16:30:48.800,0.42,-0.03
2021-08-19 16:30:48.804,0.455,-0.025
2021-08-19 16:30:48.808,0.455,0.01
2021-08-19 16:30:48.812,0.375,-0.015
2021-08-19 16:30:48.816,0.43,-0.005
2021-08-19 16:30:48.820,0.535,0.015
2021-08-19 16:30:48.824,0.51,0.105
2021-08-19 16:30:48.828,0.49,0.165
2021-08-19 16:30:48.832,0.465,-0.025
2021-08-19 16:30:48.836,0.36,-0.07
2021-08-19 16:30:48.840,0.29,0.13
2021-08-19 16:30:48.844,0.36,0.205
2021-08-19 16:30:48.848,0.44,0.075
2021-08-19 16:30:48.852,0.47,-0.005
2021-08-19 16:30:48.856,0.505,-0.045
2021-08-19 16:30:48.860,0.495,-0.125
2021-08-19 16:30:48.864,0.465,-0.135
2021-08-19 16:30:48.868,0.51,-0.045
2021-08-19 16:30:48.872,0.52,0.055
2021-08-19 16:30:48.876,0.525,0.12
2021-08-19 16:30:48.880,0.62,0.065
2021-08-19 16:30:48.884,0.65,-0.03
2021-08-19 16:30:48.888,0.49,-0.105
2021-08-19 16:30:48.892,0.365,-0.07
2021-08-19 16:30:48.896,0.41,0.025
2021-08-19 16:30:48.900,0.465,0.04
2021-08-19 16:30:48.904,0.535,-0.02
2021-08-19 16:30:48.908,0.56,-0.02
2021-08-19 16:30:48.912,0.445,0.035
2021-08-19 16:30:48.916,0.3,0.115
2021-08-19 16:30:48.920,0.285,0.135
2021-08-19 16:30:48.924,0.405,0.065
2021-08-19 16:30:48.928,0.48,0.0
2021-08-19 16:30:48.932,0.515,-0.065
2021-08-19 16:30:48.936,0.51,-0.055
2021-08-19 16:30:48.940,0.505,-0.015
2021-08-19 16:30:48.944,0.51,-0.03
2021-08-19 16:30:48.948,0.51,-0.085
2021-08-19 16:30:48.952,0.425,-0.1
2021-08-19 16:30:48.956,0.36,-0.04
2021-08-19 16:30:48.960,0.285,0.09
2021-08-19 16:30:48.964,0.28,0.125
2021-08-19 16:30:48.968,0.29,0.025
2021-08-19 16:30:48.972,0.33,0.0
2021-08-19 16:30:48.976,0.405,-0.045
2021-08-19 16:30:48.980,0.385,0.01
2021-08-19 16:30:48.984,0.3,0.095
2021-08-19 16:30:48.988,0.235,0.07
2021-08-19 16:30:48.992,0.295,0.0
2021-08-19 16:30:48.996,0.42,-0.075
2021-08-19 16:30:49.000,0.475,-0.15
2021-08-19 16:30:49.004,0.46,-0.09
2021-08-19 16:30:49.008,0.335,-0.025
2021-08-19 16:30:49.012,0.24,0.05
2021-08-19 16:30:49.016,0.265,0.085
2021-08-19 16:30:49.020,0.305,0.03
2021-08-19 16:30:49.024,0.29,-0.04
2021-08-19 16:30:49.028,0.38,-0.05
2021-08-19 16:30:49.032,0.41,0.005
2021-08-19 16:30:49.036,0.345,0.01
2021-08-19 16:30:49.040,0.33,0.01
2021-08-19 16:30:49.044,0.375,-0.035
2021-08-19 16:30:49.048,0.325,-0.03
2021-08-19 16:30:49.052,0.32,0.0
2021-08-19 16:30:49.056,0.305,0.1
2021-08-19 16:30:49.060,0.32,0.215
2021-08-19 16:30:49.064,0.24,0.24
2021-08-19 16:30:49.068,0.18,0.1
2021-08-19 16:30:49.072,0.255,-0.02
2021-08-19 16:30:49.076,0.325,-0.06
2021-08-19 16:30:49.080,0.36,-0.11
2021-08-19 16:30:49.084,0.29,-0.09
2021-08-19 16:30:49.088,0.23,-0.075
2021-08-19 16:30:49.092,0.215,-0.095
2021-08-19 16:30:49.096,0.33,-0.08
2021-08-19 16:30:49.100,0.46,-0.045
2021-08-19 16:30:49.104,0.44,-0.045
2021-08-19 16:30:49.108,0.35,0.02
2021-08-19 16:30:49.112,0.22,0.05
2021-08-19 16:30:49.116,0.16,-0.01
2021-08-19 16:30:49.120,0.145,0.015
2021-08-19 16:30:49.124,0.23,0.06
2021-08-19 16:30:49.128,0.33,0.0
2021-08-19 16:30:49.132,0.29,-0.03
2021-08-19 16:30:49.136,0.21,-0.02
2021-08-19 16:30:49.140,0.22,0.0
2021-08-19 16:30:49.144,0.265,0.095
2021-08-19 16:30:49.148,0.305,0.165
2021-08-19 16:30:49.152,0.4,0.13
2021-08-19 16:30:49.156,0.325,0.055
2021-08-19 16:30:49.160,0.255,0.02
2021-08-19 16:30:49.164,0.23,0.16
2021-08-19 16:30:49.168,0.22,0.155
2021-08-19 16:30:49.172,0.17,0.025
2021-08-19 16:30:49.176,0.19,-0.08
2021-08-19 16:30:49.180,0.24,-0.07
2021-08-19 16:30:49.184,0.325,0.04
2021-08-19 16:30:49.188,0.29,0.075
2021-08-19 16:30:49.192,0.24,-0.055
2021-08-19 16:30:49.196,0.275,-0.135
2021-08-19 16:30:49.200,0.305,-0.115
2021-08-19 16:30:49.204,0.355,0.005
2021-08-19 16:30:49.208,0.375,0.085
2021-08-19 16:30:49.212,0.365,0.06
2021-08-19 16:30:49.216,0.355,-0.04
2021-08-19 16:30:49.220,0.29,-0.095
2021-08-19 16:30:49.224,0.29,-0.055
2021-08-19 16:30:49.228,0.285,0.03
2021-08-19 16:30:49.232,0.265,0.03
2021-08-19 16:30:49.236,0.26,0.035
2021-08-19 16:30:49.240,0.325,0.08
2021-08-19 16:30:49.244,0.365,0.095
2021-08-19 16:30:49.248,0.375,0.04
2021-08-19 16:30:49.252,0.425,0.02
2021-08-19 16:30:49.256,0.555,0.015
2021-08-19 16:30:49.260,0.715,-0.04
2021-08-19 16:30:49.264,0.71,-0.06
2021-08-19 16:30:49.268,0.675,-0.085
2021-08-19 16:30:49.272,0.58,-0.055
2021-08-19 16:30:49.276,0.46,0.035
2021-08-19 16:30:49.280,0.375,0.01
2021-08-19 16:30:49.284,0.375,-0.045
2021-08-19 16:30:49.288,0.425,0.015
2021-08-19 16:30:49.292,0.49,0.135
2021-08-19 16:30:49.296,0.37,0.08
2021-08-19 16:30:49.300,0.235,-0.04
2021-08-19 16:30:49.304,0.145,-0.1
2021-08-19 16:30:49.308,0.225,-0.135
2021-08-19 16:30:49.312,0.26,-0.025
2021-08-19 16:30:49.316,0.27,0.08
2021-08-19 16:30:49.320,0.27,0.065
2021-08-19 16:30:49.324,0.285,-0.035
2021-08-19 16:30:49.328,0.245,-0.055
2021-08-19 16:30:49.332,0.1,-0.075
2021-08-19 16:30:49.336,0.08,0.015
2021-08-19 16:30:49.340,0.17,0.09
2021-08-19 16:30:49.344,0.205,0.11
2021-08-19 16:30:49.348,0.195,0.07
2021-08-19 16:30:49.352,0.21,0.035
2021-08-19 16:30:49.356,0.22,-0.01
2021-08-19 16:30:49.360,0.19,-0.01
2021-08-19 16:30:49.364,0.245,0.075
2021-08-19 16:30:49.368,0.325,0.035
2021-08-19 16:30:49.372,0.435,-0.095
2021-08-19 16:30:49.376,0.635,-0.175
2021-08-19 16:30:49.380,1.07,-0.125
2021-08-19 16:30:49.384,1.605,-0.125
2021-08-19 16:30:49.396,1.59,-0.825
2021-08-19 16:30:49.400,0.63,-0.88
2021-08-19 16:30:49.404,-0.385,-0.715
2021-08-19 16:30:49.408,-0.965,-0.635
2021-08-19 16:30:49.412,-0.91,-0.46
2021-08-19 16:30:49.416,-0.62,-0.33
2021-08-19 16:30:49.420,-0.3,-0.205
2021-08-19 16:30:49.424,-0.05,-0.11
2021-08-19 16:30:49.428,0.015,-0.09
2021-08-19 16:30:49.432,0.03,-0.05
2021-08-19 16:30:49.436,0.06,-0.015
2021-08-19 16:30:49.440,0.0,0.005
2021-08-19 16:30:49.444,0.06,0.0
2021-08-19 16:30:49.448,0.1,-0.02
2021-08-19 16:30:49.452,0.035,0.01
2021-08-19 16:30:49.456,0.035,0.095
2021-08-19 16:30:49.460,0.125,0.07
2021-08-19 16:30:49.464,0.195,-0.04
2021-08-19 16:30:49.468,0.165,-0.125
2021-08-19 16:30:49.472,0.125,-0.05
2021-08-19 16:30:49.476,0.115,0.015
2021-08-19 16:30:49.480,0.115,0.04
2021-08-19 16:30:49.484,0.085,0.015
2021-08-19 16:30:49.488,0.1,0.07
2021-08-19 16:30:49.492,0.09,0.0
2021-08-19 16:30:49.496,0.15,-0.04
2021-08-19 16:30:49.500,0.215,0.0
2021-08-19 16:30:49.504,0.205,-0.035
2021-08-19 16:30:49.508,0.15,-0.06
2021-08-19 16:30:49.512,0.18,-0.055
2021-08-19 16:30:49.516,0.2,-0.01
2021-08-19 16:30:49.520,0.24,0.0
2021-08-19 16:30:49.524,0.305,0.045
2021-08-19 16:30:49.528,0.21,0.125
2021-08-19 16:30:49.532,0.07,0.125
2021-08-19 16:30:49.536,0.035,0.025
2021-08-19 16:30:49.540,0.165,-0.02
2021-08-19 16:30:49.544,0.24,-0.015
2021-08-19 16:30:49.548,0.23,-0.055
2021-08-19 16:30:49.552,0.205,-0.07
2021-08-19 16:30:49.556,0.165,-0.11
2021-08-19 16:30:49.560,0.21,-0.05
2021-08-19 16:30:49.564,0.265,0.02
2021-08-19 16:30:49.568,0.255,-0.035
2021-08-19 16:30:49.572,0.24,-0.1
2021-08-19 16:30:49.576,0.21,-0.04
2021-08-19 16:30:49.580,0.26,0.04
2021-08-19 16:30:49.584,0.285,0.025
2021-08-19 16:30:49.588,0.325,-0.015
2021-08-19 16:30:49.592,0.305,-0.04
2021-08-19 16:30:49.596,0.295,-0.075
2021-08-19 16:30:49.600,0.28,-0.04
2021-08-19 16:30:49.604,0.285,0.02
2021-08-19 16:30:49.608,0.35,0.025
2021-08-19 16:30:49.612,0.48,-0.035
2021-08-19 16:30:49.616,0.48,-0.165
2021-08-19 16:30:49.620,0.41,-0.2
2021-08-19 16:30:49.624,0.31,-0.09
2021-08-19 16:30:49.628,0.22,0.025
2021-08-19 16:30:49.632,0.165,0.02
2021-08-19 16:30:49.636,0.22,-0.04
2021-08-19 16:30:49.640,0.28,-0.02
2021-08-19 16:30:49.644,0.395,-0.04
2021-08-19 16:30:49.648,0.34,-0.03
2021-08-19 16:30:49.652,0.185,0.12
2021-08-19 16:30:49.656,0.105,0.12
2021-08-19 16:30:49.660,0.255,-0.04
2021-08-19 16:30:49.664,0.335,-0.15
2021-08-19 16:30:49.668,0.445,-0.175
2021-08-19 16:30:49.672,0.505,-0.17
2021-08-19 16:30:49.676,0.5,-0.145
2021-08-19 16:30:49.680,0.465,-0.1
2021-08-19 16:30:49.684,0.52,-0.065
2021-08-19 16:30:49.688,0.59,-0.025
2021-08-19 16:30:49.692,0.54,-0.025
2021-08-19 16:30:49.696,0.515,0.015
2021-08-19 16:30:49.700,0.555,0.045
2021-08-19 16:30:49.704,0.585,-0.05
2021-08-19 16:30:49.708,0.505,-0.115
2021-08-19 16:30:49.712,0.4,0.0
2021-08-19 16:30:49.716,0.335,-0.055
2021-08-19 16:30:49.720,0.395,-0.16
2021-08-19 16:30:49.724,0.385,-0.085
2021-08-19 16:30:49.728,0.34,0.0
2021-08-19 16:30:49.732,0.28,0.055
2021-08-19 16:30:49.736,0.305,-0.03
2021-08-19 16:30:49.740,0.335,-0.035
2021-08-19 16:30:49.744,0.34,-0.015
2021-08-19 16:30:49.748,0.345,-0.02
2021-08-19 16:30:49.752,0.395,-0.05
2021-08-19 16:30:49.756,0.435,-0.06
2021-08-19 16:30:49.760,0.425,-0.125
2021-08-19 16:30:49.764,0.445,-0.1
2021-08-19 16:30:49.768,0.48,-0.04
2021-08-19 16:30:49.772,0.47,-0.065
2021-08-19 16:30:49.776,0.44,0.0
2021-08-19 16:30:49.780,0.425,0.045
2021-08-19 16:30:49.784,0.41,0.075
2021-08-19 16:30:49.788,0.4,0.03
2021-08-19 16:30:49.792,0.38,0.025
2021-08-19 16:30:49.796,0.375,-0.02
2021-08-19 16:30:49.800,0.345,-0.005
2021-08-19 16:30:49.804,0.38,-0.005
2021-08-19 16:30:49.808,0.355,0.03
2021-08-19 16:30:49.812,0.38,0.09
2021-08-19 16:30:49.816,0.435,0.06
2021-08-19 16:30:49.820,0.46,-0.03
2021-08-19 16:30:49.824,0.445,-0.15
2021-08-19 16:30:49.828,0.36,-0.095
2021-08-19 16:30:49.832,0.31,-0.08
2021-08-19 16:30:49.836,0.335,-0.12
2021-08-19 16:30:49.840,0.34,-0.1
2021-08-19 16:30:49.844,0.355,-0.06
2021-08-19 16:30:49.848,0.435,-0.065
2021-08-19 16:30:49.852,0.465,-0.04
2021-08-19 16:30:49.856,0.39,0.01
2021-08-19 16:30:49.860,0.295,-0.005
2021-08-19 16:30:49.864,0.325,-0.04
2021-08-19 16:30:49.868,0.29,0.005
2021-08-19 16:30:49.872,0.325,-0.035
2021-08-19 16:30:49.876,0.37,-0.08
2021-08-19 16:30:49.880,0.35,-0.05
2021-08-19 16:30:49.884,0.28,0.01
2021-08-19 16:30:49.888,0.235,0.02
2021-08-19 16:30:49.892,0.3,-0.08
2021-08-19 16:30:49.896,0.43,-0.13
2021-08-19 16:30:49.900,0.445,-0.13
2021-08-19 16:30:49.904,0.29,-0.07
2021-08-19 16:30:49.908,0.115,-0.035
2021-08-19 16:30:49.912,0.215,-0.005
2021-08-19 16:30:49.916,0.375,0.095
2021-08-19 16:30:49.920,0.37,0.085
2021-08-19 16:30:49.924,0.28,-0.12
2021-08-19 16:30:49.928,0.31,-0.16
2021-08-19 16:30:49.932,0.3,-0.01
2021-08-19 16:30:49.936,0.27,0.005
2021-08-19 16:30:49.940,0.21,0.0
2021-08-19 16:30:49.944,0.175,-0.06
2021-08-19 16:30:49.948,0.22,-0.075
2021-08-19 16:30:49.952,0.285,-0.04
2021-08-19 16:30:49.956,0.315,-0.08
2021-08-19 16:30:49.960,0.405,-0.17
2021-08-19 16:30:49.964,0.36,-0.1
2021-08-19 16:30:49.968,0.3,-0.005
2021-08-19 16:30:49.972,0.155,0.07
2021-08-19 16:30:49.976,0.125,0.07
2021-08-19 16:30:49.980,0.27,0.0
2021-08-19 16:30:49.984,0.415,-0.05
2021-08-19 16:30:49.988,0.375,-0.055
2021-08-19 16:30:49.992,0.2,0.025
2021-08-19 16:30:49.996,0.14,0.005
2021-08-19 16:30:50.000,0.08,-0.05
2021-08-19 16:30:50.004,0.07,-0.15
2021-08-19 16:30:50.008,0.2,-0.15
2021-08-19 16:30:50.012,0.26,-0.035
2021-08-19 16:30:50.016,0.26,0.075
2021-08-19 16:30:50.020,0.23,0.065
2021-08-19 16:30:50.024,0.23,-0.02
2021-08-19 16:30:50.028,0.21,-0.17
2021-08-19 16:30:50.032,0.23,-0.22
2021-08-19 16:30:50.036,0.31,-0.16
2021-08-19 16:30:50.040,0.325,-0.15
2021-08-19 16:30:50.044,0.305,-0.12
2021-08-19 16:30:50.048,0.28,-0.04
2021-08-19 16:30:50.052,0.225,0.02
2021-08-19 16:30:50.056,0.25,0.01
2021-08-19 16:30:50.060,0.275,-0.04
2021-08-19 16:30:50.064,0.3,-0.005
2021-08-19 16:30:50.068,0.165,0.03
2021-08-19 16:30:50.072,0.105,0.025
2021-08-19 16:30:50.076,0.155,-0.005
2021-08-19 16:30:50.080,0.225,0.01
2021-08-19 16:30:50.084,0.245,-0.055
2021-08-19 16:30:50.088,0.265,-0.13
2021-08-19 16:30:50.092,0.245,-0.17
2021-08-19 16:30:50.096,0.225,-0.105
2021-08-19 16:30:50.100,0.24,0.0
2021-08-19 16:30:50.104,0.2,0.02
2021-08-19 16:30:50.108,0.145,-0.015
2021-08-19 16:30:50.112,0.13,-0.095
2021-08-19 16:30:50.116,0.185,-0.08
2021-08-19 16:30:50.120,0.255,-0.03
2021-08-19 16:30:50.124,0.29,0.03
2021-08-19 16:30:50.128,0.31,0.125
2021-08-19 16:30:50.132,0.315,0.04
2021-08-19 16:30:50.136,0.33,-0.16
2021-08-19 16:30:50.140,0.375,-0.155
2021-08-19 16:30:50.144,0.475,-0.055
2021-08-19 16:30:50.148,0.6,-0.01
2021-08-19 16:30:50.152,0.695,0.015
2021-08-19 16:30:50.156,0.665,-0.035
2021-08-19 16:30:50.160,0.535,-0.13
2021-08-19 16:30:50.164,0.565,-0.2
2021-08-19 16:30:50.168,0.54,-0.115
2021-08-19 16:30:50.172,0.455,0.0
2021-08-19 16:30:50.176,0.375,-0.035
2021-08-19 16:30:50.180,0.365,-0.065
2021-08-19 16:30:50.184,0.35,-0.035
2021-08-19 16:30:50.188,0.155,-0.04
2021-08-19 16:30:50.192,0.07,-0.045
2021-08-19 16:30:50.196,0.2,-0.005
2021-08-19 16:30:50.200,0.22,0.15
2021-08-19 16:30:50.204,0.12,0.1
2021-08-19 16:30:50.208,0.145,-0.01
2021-08-19 16:30:50.212,0.14,-0.05
2021-08-19 16:30:50.216,0.125,-0.125
2021-08-19 16:30:50.220,0.09,-0.125
2021-08-19 16:30:50.224,0.185,-0.02
2021-08-19 16:30:50.228,0.22,0.08
2021-08-19 16:30:50.232,0.2,0.04
2021-08-19 16:30:50.236,0.25,-0.045
2021-08-19 16:30:50.240,0.285,-0.145
2021-08-19 16:30:50.244,0.155,-0.1
2021-08-19 16:30:50.248,0.06,0.005
2021-08-19 16:30:50.252,0.03,0.095
2021-08-19 16:30:50.256,0.04,0.045
2021-08-19 16:30:50.260,0.145,0.0
2021-08-19 16:30:50.264,0.25,0.025
2021-08-19 16:30:50.268,0.405,-0.08
2021-08-19 16:30:50.272,0.83,-0.18
2021-08-19 16:30:50.276,1.44,-0.115
2021-08-19 16:30:50.280,1.965,-0.25
2021-08-19 16:30:50.288,1.845,-0.8
2021-08-19 16:30:50.292,0.85,-0.81
2021-08-19 16:30:50.296,-0.18,-0.7
2021-08-19 16:30:50.300,-0.965,-0.66
2021-08-19 16:30:50.304,-1.03,-0.56
2021-08-19 16:30:50.308,-0.76,-0.425
2021-08-19 16:30:50.312,-0.465,-0.4
2021-08-19 16:30:50.316,-0.235,-0.2
2021-08-19 16:30:50.320,-0.13,-0.03
2021-08-19 16:30:50.324,-0.07,0.0
2021-08-19 16:30:50.328,-0.005,-0.08
2021-08-19 16:30:50.332,0.055,-0.12
2021-08-19 16:30:50.336,0.085,-0.095
2021-08-19 16:30:50.340,0.065,0.01
2021-08-19 16:30:50.344,-0.045,0.075
2021-08-19 16:30:50.348,-0.07,-0.03
2021-08-19 16:30:50.352,0.02,-0.06
2021-08-19 16:30:50.356,0.07,0.025
2021-08-19 16:30:50.360,0.06,0.065
2021-08-19 16:30:50.364,0.1,-0.035
2021-08-19 16:30:50.368,0.19,-0.09
2021-08-19 16:30:50.372,0.135,-0.04
2021-08-19 16:30:50.376,0.015,-0.085
2021-08-19 16:30:50.380,-0.01,-0.14
2021-08-19 16:30:50.384,0.04,-0.08
2021-08-19 16:30:50.388,0.09,-0.04
2021-08-19 16:30:50.392,0.155,0.01
2021-08-19 16:30:50.396,0.1,0.08
2021-08-19 16:30:50.400,0.075,0.025
2021-08-19 16:30:50.404,0.055,-0.01
2021-08-19 16:30:50.408,0.035,-0.05
2021-08-19 16:30:50.412,0.045,-0.05
2021-08-19 16:30:50.416,0.07,-0.09
2021-08-19 16:30:50.420,0.135,-0.095
2021-08-19 16:30:50.424,0.165,0.005
2021-08-19 16:30:50.428,0.135,0.07
2021-08-19 16:30:50.432,0.095,0.08
2021-08-19 16:30:50.436,0.095,0.0
2021-08-19 16:30:50.440,0.095,-0.14
2021-08-19 16:30:50.444,0.055,-0.115
2021-08-19 16:30:50.448,0.1,-0.085
2021-08-19 16:30:50.452,0.2,-0.025
2021-08-19 16:30:50.456,0.2,0.015
2021-08-19 16:30:50.460,0.23,0.05
2021-08-19 16:30:50.464,0.26,0.03
2021-08-19 16:30:50.468,0.28,-0.06
2021-08-19 16:30:50.472,0.185,-0.06
2021-08-19 16:30:50.476,0.155,-0.075
2021-08-19 16:30:50.480,0.21,-0.1
2021-08-19 16:30:50.484,0.245,-0.05
2021-08-19 16:30:50.488,0.28,-0.005
2021-08-19 16:30:50.492,0.3,-0.045
2021-08-19 16:30:50.496,0.39,-0.16
2021-08-19 16:30:50.500,0.37,-0.2
2021-08-19 16:30:50.504,0.36,-0.11
2021-08-19 16:30:50.508,0.28,0.02
2021-08-19 16:30:50.512,0.205,0.1
2021-08-19 16:30:50.516,0.24,-0.075
2021-08-19 16:30:50.520,0.345,-0.255
2021-08-19 16:30:50.524,0.395,-0.195
2021-08-19 16:30:50.528,0.375,-0.025
2021-08-19 16:30:50.532,0.35,-0.045
2021-08-19 16:30:50.536,0.375,-0.165
2021-08-19 16:30:50.540,0.38,-0.215
2021-08-19 16:30:50.544,0.31,-0.19
2021-08-19 16:30:50.548,0.33,-0.13
2021-08-19 16:30:50.552,0.36,0.01
2021-08-19 16:30:50.556,0.365,0.035
2021-08-19 16:30:50.560,0.42,-0.075
2021-08-19 16:30:50.564,0.465,-0.185
2021-08-19 16:30:50.568,0.47,-0.08
2021-08-19 16:30:50.572,0.5,-0.01
2021-08-19 16:30:50.576,0.475,-0.08
2021-08-19 16:30:50.580,0.44,-0.155
2021-08-19 16:30:50.584,0.425,-0.13
2021-08-19 16:30:50.588,0.395,-0.075
2021-08-19 16:30:50.592,0.355,-0.05
2021-08-19 16:30:50.596,0.385,-0.07
2021-08-19 16:30:50.600,0.395,-0.07
2021-08-19 16:30:50.604,0.325,-0.01
2021-08-19 16:30:50.608,0.295,-0.055
2021-08-19 16:30:50.612,0.295,-0.175
2021-08-19 16:30:50.616,0.26,-0.125
2021-08-19 16:30:50.620,0.24,-0.075
2021-08-19 16:30:50.624,0.275,-0.055
2021-08-19 16:30:50.628,0.29,-0.105
2021-08-19 16:30:50.632,0.22,-0.13
2021-08-19 16:30:50.636,0.275,-0.08
2021-08-19 16:30:50.640,0.3,-0.05
2021-08-19 16:30:50.644,0.27,-0.085
2021-08-19 16:30:50.648,0.245,-0.08
2021-08-19 16:30:50.652,0.26,-0.065
2021-08-19 16:30:50.656,0.235,-0.07
2021-08-19 16:30:50.660,0.225,-0.025
2021-08-19 16:30:50.664,0.265,0.0
2021-08-19 16:30:50.668,0.29,0.02
2021-08-19 16:30:50.672,0.305,0.035
2021-08-19 16:30:50.676,0.35,0.035
2021-08-19 16:30:50.680,0.34,0.095
2021-08-19 16:30:50.684,0.21,-0.03
2021-08-19 16:30:50.688,0.15,-0.185
2021-08-19 16:30:50.692,0.235,-0.245
2021-08-19 16:30:50.696,0.27,-0.19
2021-08-19 16:30:50.700,0.27,-0.055
2021-08-19 16:30:50.704,0.285,0.065
2021-08-19 16:30:50.708,0.275,0.105
2021-08-19 16:30:50.712,0.25,0.0
2021-08-19 16:30:50.716,0.305,-0.11
2021-08-19 16:30:50.720,0.335,-0.145
2021-08-19 16:30:50.724,0.29,-0.08
2021-08-19 16:30:50.728,0.265,-0.03
2021-08-19 16:30:50.732,0.25,-0.085
2021-08-19 16:30:50.736,0.28,-0.07
2021-08-19 16:30:50.740,0.25,0.015
2021-08-19 16:30:50.744,0.275,0.19
2021-08-19 16:30:50.748,0.215,0.225
2021-08-19 16:30:50.752,0.235,-0.025
2021-08-19 16:30:50.756,0.24,-0.19
2021-08-19 16:30:50.760,0.255,-0.22
2021-08-19 16:30:50.764,0.285,-0.255
2021-08-19 16:30:50.768,0.26,-0.135
2021-08-19 16:30:50.772,0.28,-0.04
2021-08-19 16:30:50.776,0.25,-0.095
2021-08-19 16:30:50.780,0.27,-0.13
2021-08-19 16:30:50.784,0.25,-0.025
2021-08-19 16:30:50.788,0.225,0.015
2021-08-19 16:30:50.792,0.225,-0.095
2021-08-19 16:30:50.796,0.27,-0.165
2021-08-19 16:30:50.800,0.27,-0.1
2021-08-19 16:30:50.804,0.29,-0.07
2021-08-19 16:30:50.808,0.27,-0.055
2021-08-19 16:30:50.812,0.305,-0.03
2021-08-19 16:30:50.816,0.305,-0.02
2021-08-19 16:30:50.820,0.285,-0.055
2021-08-19 16:30:50.824,0.3,-0.04
2021-08-19 16:30:50.828,0.28,-0.03
2021-08-19 16:30:50.832,0.255,-0.025
2021-08-19 16:30:50.836,0.235,0.02
2021-08-19 16:30:50.840,0.22,0.075
2021-08-19 16:30:50.844,0.18,-0.005
2021-08-19 16:30:50.848,0.215,-0.09
2021-08-19 16:30:50.852,0.245,-0.08
2021-08-19 16:30:50.856,0.18,-0.045
2021-08-19 16:30:50.860,0.19,-0.05
2021-08-19 16:30:50.864,0.195,0.045
2021-08-19 16:30:50.868,0.17,0.11
2021-08-19 16:30:50.872,0.115,0.06
2021-08-19 16:30:50.876,0.15,-0.025
2021-08-19 16:30:50.880,0.195,-0.055
2021-08-19 16:30:50.884,0.155,-0.065
2021-08-19 16:30:50.888,0.18,-0.035
2021-08-19 16:30:50.892,0.19,0.035
2021-08-19 16:30:50.896,0.155,0.04
2021-08-19 16:30:50.900,0.095,-0.04
2021-08-19 16:30:50.904,0.15,-0.035
2021-08-19 16:30:50.908,0.225,-0.015
2021-08-19 16:30:50.912,0.19,-0.005
2021-08-19 16:30:50.916,0.15,-0.1
2021-08-19 16:30:50.920,0.16,-0.175
2021-08-19 16:30:50.924,0.16,-0.07
2021-08-19 16:30:50.928,0.145,0.0
2021-08-19 16:30:50.932,0.175,0.01
2021-08-19 16:30:50.936,0.225,-0.06
2021-08-19 16:30:50.940,0.25,-0.04
2021-08-19 16:30:50.944,0.28,0.02
2021-08-19 16:30:50.948,0.235,0.06
2021-08-19 16:30:50.952,0.09,0.01
2021-08-19 16:30:50.956,0.075,-0.08
2021-08-19 16:30:50.960,0.205,-0.115
2021-08-19 16:30:50.964,0.24,-0.095
2021-08-19 16:30:50.968,0.21,-0.025
2021-08-19 16:30:50.972,0.11,0.005
2021-08-19 16:30:50.976,0.055,0.035
2021-08-19 16:30:50.980,0.155,0.13
2021-08-19 16:30:50.984,0.195,0.15
2021-08-19 16:30:50.988,0.165,0.04
2021-08-19 16:30:50.992,0.11,-0.08
2021-08-19 16:30:50.996,0.165,-0.1
2021-08-19 16:30:51.000,0.31,-0.11
2021-08-19 16:30:51.004,0.34,-0.09
2021-08-19 16:30:51.008,0.355,-0.03
2021-08-19 16:30:51.012,0.28,0.06
2021-08-19 16:30:51.016,0.195,-0.075
2021-08-19 16:30:51.020,0.195,-0.1
2021-08-19 16:30:51.024,0.265,0.03
2021-08-19 16:30:51.028,0.37,0.03
2021-08-19 16:30:51.032,0.645,0.02
2021-08-19 16:30:51.036,0.715,-0.005
2021-08-19 16:30:51.040,0.71,-0.06
2021-08-19 16:30:51.044,0.605,-0.02
2021-08-19 16:30:51.048,0.425,0.13
2021-08-19 16:30:51.052,0.3,-0.01
2021-08-19 16:30:51.056,0.33,-0.13
2021-08-19 16:30:51.060,0.36,0.015
2021-08-19 16:30:51.064,0.22,0.105
2021-08-19 16:30:51.068,0.14,-0.03
2021-08-19 16:30:51.072,0.15,-0.17
2021-08-19 16:30:51.076,0.15,-0.16
2021-08-19 16:30:51.080,0.055,-0.055
2021-08-19 16:30:51.084,0.005,-0.12
2021-08-19 16:30:51.088,0.045,-0.18
2021-08-19 16:30:51.092,0.255,-0.15
2021-08-19 16:30:51.096,0.25,-0.045
2021-08-19 16:30:51.100,0.08,0.05
2021-08-19 16:30:51.104,-0.08,0.06
2021-08-19 16:30:51.108,-0.095,0.035
2021-08-19 16:30:51.112,0.0,0.08
2021-08-19 16:30:51.116,0.05,-0.015
2021-08-19 16:30:51.120,0.05,-0.1
2021-08-19 16:30:51.124,-0.03,-0.115
2021-08-19 16:30:51.128,-0.04,-0.075
2021-08-19 16:30:51.132,0.055,-0.02
2021-08-19 16:30:51.136,0.075,0.03
2021-08-19 16:30:51.140,0.075,0.035
2021-08-19 16:30:51.144,0.03,0.065
2021-08-19 16:30:51.148,0.17,-0.005
2021-08-19 16:30:51.152,0.39,-0.08
2021-08-19 16:30:51.156,0.92,-0.25
2021-08-19 16:30:51.160,1.505,-0.54
2021-08-19 16:30:51.164,1.925,-0.74
2021-08-19 16:30:51.168,1.8,-0.935
2021-08-19 16:30:51.172,0.81,-1.055
2021-08-19 16:30:51.176,0.005,-0.89
2021-08-19 16:30:51.180,-0.68,-0.58
2021-08-19 16:30:51.184,-0.92,-0.455
2021-08-19 16:30:51.188,-0.735,-0.345
2021-08-19 16:30:51.192,-0.535,-0.345
2021-08-19 16:30:51.196,-0.35,-0.245
2021-08-19 16:30:51.200,-0.235,-0.135
2021-08-19 16:30:51.204,-0.27,-0.025
2021-08-19 16:30:51.208,-0.255,0.035
2021-08-19 16:30:51.212,-0.075,0.055
2021-08-19 16:30:51.216,0.005,-0.095
2021-08-19 16:30:51.220,-0.055,-0.185
2021-08-19 16:30:51.224,-0.185,-0.085
2021-08-19 16:30:51.228,-0.29,-0.05
2021-08-19 16:30:51.232,-0.24,-0.01
2021-08-19 16:30:51.236,-0.085,0.05
2021-08-19 16:30:51.240,-0.06,0.015
2021-08-19 16:30:51.244,-0.125,-0.185
2021-08-19 16:30:51.248,-0.12,-0.21
2021-08-19 16:30:51.252,-0.14,-0.09
2021-08-19 16:30:51.256,-0.225,-0.005
2021-08-19 16:30:51.260,-0.185,-0.09
2021-08-19 16:30:51.264,-0.17,-0.09
2021-08-19 16:30:51.268,-0.12,-0.105
2021-08-19 16:30:51.272,-0.105,-0.12
2021-08-19 16:30:51.276,-0.055,-0.08
2021-08-19 16:30:51.280,-0.01,-0.075
2021-08-19 16:30:51.284,0.0,-0.125
2021-08-19 16:30:51.288,-0.04,-0.075
2021-08-19 16:30:51.292,-0.11,-0.055
2021-08-19 16:30:51.296,-0.175,-0.11
2021-08-19 16:30:51.300,-0.135,-0.18
2021-08-19 16:30:51.304,-0.135,-0.165
2021-08-19 16:30:51.308,-0.2,-0.085
2021-08-19 16:30:51.312,-0.18,-0.055
2021-08-19 16:30:51.316,-0.115,0.015
2021-08-19 16:30:51.320,-0.115,0.115
2021-08-19 16:30:51.324,-0.16,0.035
2021-08-19 16:30:51.328,-0.16,-0.035
2021-08-19 16:30:51.332,-0.14,-0.115
2021-08-19 16:30:51.336,-0.055,-0.305
2021-08-19 16:30:51.340,0.025,-0.32
2021-08-19 16:30:51.344,0.02,-0.185
2021-08-19 16:30:51.348,0.045,-0.1
2021-08-19 16:30:51.352,-0.01,-0.015
2021-08-19 16:30:51.356,-0.03,-0.04
2021-08-19 16:30:51.360,-0.05,-0.13
2021-08-19 16:30:51.364,0.0,-0.245
2021-08-19 16:30:51.368,0.115,-0.21
2021-08-19 16:30:51.372,0.07,-0.25
2021-08-19 16:30:51.376,0.015,-0.28
2021-08-19 16:30:51.380,0.05,-0.205
2021-08-19 16:30:51.384,0.035,-0.115
2021-08-19 16:30:51.388,0.05,-0.115
2021-08-19 16:30:51.392,0.035,-0.115
2021-08-19 16:30:51.396,0.045,-0.13
2021-08-19 16:30:51.400,0.01,-0.19
2021-08-19 16:30:51.404,0.01,-0.22
2021-08-19 16:30:51.408,0.005,-0.17
2021-08-19 16:30:51.412,0.055,-0.12
2021-08-19 16:30:51.416,0.04,-0.175
2021-08-19 16:30:51.420,0.005,-0.19
2021-08-19 16:30:51.424,0.075,-0.16
2021-08-19 16:30:51.428,0.175,-0.135
2021-08-19 16:30:51.432,0.145,-0.195
2021-08-19 16:30:51.436,0.125,-0.18
2021-08-19 16:30:51.440,0.19,-0.1
2021-08-19 16:30:51.444,0.165,-0.085
2021-08-19 16:30:51.448,0.18,-0.085
2021-08-19 16:30:51.452,0.22,-0.115
2021-08-19 16:30:51.456,0.155,-0.2
2021-08-19 16:30:51.460,0.105,-0.23
2021-08-19 16:30:51.464,0.15,-0.265
2021-08-19 16:30:51.468,0.14,-0.18
2021-08-19 16:30:51.472,0.02,-0.06
2021-08-19 16:30:51.476,0.04,-0.06
2021-08-19 16:30:51.480,0.08,-0.175
2021-08-19 16:30:51.484,-0.03,-0.2
2021-08-19 16:30:51.488,-0.01,-0.16
2021-08-19 16:30:51.492,0.055,-0.08
2021-08-19 16:30:51.496,-0.035,-0.04
2021-08-19 16:30:51.500,-0.105,-0.065
2021-08-19 16:30:51.504,-0.15,-0.05
2021-08-19 16:30:51.508,-0.13,-0.035
2021-08-19 16:30:51.512,-0.105,-0.1
2021-08-19 16:30:51.516,-0.025,-0.15
2021-08-19 16:30:51.520,-0.015,-0.075
2021-08-19 16:30:51.524,-0.065,-0.03
2021-08-19 16:30:51.528,-0.085,-0.065
2021-08-19 16:30:51.532,-0.11,-0.13
2021-08-19 16:30:51.536,-0.105,-0.17
2021-08-19 16:30:51.540,-0.085,-0.12
2021-08-19 16:30:51.544,-0.03,-0.075
2021-08-19 16:30:51.548,-0.01,-0.09
2021-08-19 16:30:51.552,-0.055,-0.13
2021-08-19 16:30:51.556,-0.035,-0.17
2021-08-19 16:30:51.560,0.0,-0.195
2021-08-19 16:30:51.564,-0.025,-0.155
2021-08-19 16:30:51.568,0.055,-0.165
2021-08-19 16:30:51.572,0.105,-0.185
2021-08-19 16:30:51.576,0.0,-0.15
2021-08-19 16:30:51.580,0.0,-0.11
2021-08-19 16:30:51.584,0.08,-0.035
2021-08-19 16:30:51.588,0.0,-0.065
2021-08-19 16:30:51.592,-0.08,-0.035
2021-08-19 16:30:51.596,-0.075,0.03
2021-08-19 16:30:51.600,-0.04,-0.05
2021-08-19 16:30:51.604,-0.075,-0.275
2021-08-19 16:30:51.608,-0.215,-0.27
2021-08-19 16:30:51.612,-0.135,-0.22
2021-08-19 16:30:51.616,-0.065,-0.13
2021-08-19 16:30:51.620,-0.115,-0.015
2021-08-19 16:30:51.624,-0.13,0.035
2021-08-19 16:30:51.628,-0.115,-0.025
2021-08-19 16:30:51.632,-0.055,-0.16
2021-08-19 16:30:51.636,-0.02,-0.175
2021-08-19 16:30:51.640,-0.13,-0.125
2021-08-19 16:30:51.644,-0.15,-0.23
2021-08-19 16:30:51.648,-0.095,-0.185
2021-08-19 16:30:51.652,-0.09,-0.14
2021-08-19 16:30:51.656,-0.12,-0.075
2021-08-19 16:30:51.660,-0.14,-0.08
2021-08-19 16:30:51.664,-0.1,-0.105
2021-08-19 16:30:51.668,-0.05,-0.15
2021-08-19 16:30:51.672,-0.12,-0.11
2021-08-19 16:30:51.676,-0.15,-0.06
2021-08-19 16:30:51.680,-0.14,-0.155
2021-08-19 16:30:51.684,-0.2,-0.185
2021-08-19 16:30:51.688,-0.295,-0.085
2021-08-19 16:30:51.692,-0.33,-0.05
2021-08-19 16:30:51.696,-0.215,-0.125
2021-08-19 16:30:51.700,-0.19,-0.17
2021-08-19 16:30:51.704,-0.28,-0.085
2021-08-19 16:30:51.708,-0.22,-0.18
2021-08-19 16:30:51.712,-0.185,-0.24
2021-08-19 16:30:51.716,-0.18,-0.215
2021-08-19 16:30:51.720,-0.21,-0.175
2021-08-19 16:30:51.724,-0.21,-0.12
2021-08-19 16:30:51.728,-0.23,-0.105
2021-08-19 16:30:51.732,-0.22,-0.12
2021-08-19 16:30:51.736,-0.21,-0.14
2021-08-19 16:30:51.740,-0.13,-0.065
2021-08-19 16:30:51.744,-0.055,-0.085
2021-08-19 16:30:51.748,-0.18,-0.15
2021-08-19 16:30:51.752,-0.23,-0.14
2021-08-19 16:30:51.756,-0.235,-0.03
2021-08-19 16:30:51.760,-0.295,-0.065
2021-08-19 16:30:51.764,-0.345,-0.14
2021-08-19 16:30:51.768,-0.25,-0.145
2021-08-19 16:30:51.772,-0.22,-0.18
2021-08-19 16:30:51.776,-0.305,-0.24
2021-08-19 16:30:51.780,-0.255,-0.22
2021-08-19 16:30:51.784,-0.135,-0.14
2021-08-19 16:30:51.788,-0.17,-0.12
2021-08-19 16:30:51.792,-0.15,-0.19
2021-08-19 16:30:51.796,-0.195,-0.155
2021-08-19 16:30:51.800,-0.335,-0.055
2021-08-19 16:30:51.804,-0.325,-0.05
2021-08-19 16:30:51.808,-0.265,0.0
2021-08-19 16:30:51.812,-0.14,-0.065
2021-08-19 16:30:51.816,-0.25,-0.155
2021-08-19 16:30:51.820,-0.125,-0.25
2021-08-19 16:30:51.824,0.0,-0.18
2021-08-19 16:30:51.828,0.07,-0.095
2021-08-19 16:30:51.832,0.0,-0.16
2021-08-19 16:30:51.836,-0.16,-0.135
2021-08-19 16:30:51.840,-0.34,-0.145
2021-08-19 16:30:51.844,-0.425,-0.205
2021-08-19 16:30:51.848,-0.34,-0.275
2021-08-19 16:30:51.852,-0.305,-0.23
2021-08-19 16:30:51.856,-0.27,-0.17
2021-08-19 16:30:51.860,-0.16,-0.145
2021-08-19 16:30:51.864,-0.12,-0.145
2021-08-19 16:30:51.868,-0.24,-0.19
2021-08-19 16:30:51.872,-0.295,-0.15
2021-08-19 16:30:51.876,-0.23,-0.165
2021-08-19 16:30:51.880,-0.215,-0.21
2021-08-19 16:30:51.884,-0.255,-0.175
2021-08-19 16:30:51.888,-0.25,-0.125
2021-08-19 16:30:51.892,-0.19,-0.065
2021-08-19 16:30:51.896,-0.105,-0.055
2021-08-19 16:30:51.900,-0.09,-0.04
2021-08-19 16:30:51.904,0.025,-0.095
2021-08-19 16:30:51.908,0.175,-0.115
2021-08-19 16:30:51.912,0.185,-0.13
2021-08-19 16:30:51.916,0.09,-0.13
2021-08-19 16:30:51.920,0.005,-0.095
2021-08-19 16:30:51.924,0.095,-0.2
2021-08-19 16:30:51.928,0.04,-0.29
2021-08-19 16:30:51.932,0.065,-0.265
2021-08-19 16:30:51.936,0.04,-0.14
2021-08-19 16:30:51.940,-0.01,-0.08
2021-08-19 16:30:51.944,-0.1,-0.075
2021-08-19 16:30:51.948,-0.105,-0.175
2021-08-19 16:30:51.952,0.005,-0.31
2021-08-19 16:30:51.956,-0.03,-0.31
2021-08-19 16:30:51.960,-0.07,-0.25
2021-08-19 16:30:51.964,-0.07,-0.175
2021-08-19 16:30:51.968,-0.245,-0.06
2021-08-19 16:30:51.972,-0.265,-0.145
2021-08-19 16:30:51.976,-0.21,-0.32
2021-08-19 16:30:51.980,-0.075,-0.3
2021-08-19 16:30:51.984,-0.09,-0.22
2021-08-19 16:30:51.988,-0.255,-0.155
2021-08-19 16:30:51.992,-0.075,-0.105
2021-08-19 16:30:51.996,-0.06,-0.125
2021-08-19 16:30:52.000,-0.27,-0.17
2021-08-19 16:30:52.004,-0.33,-0.155
2021-08-19 16:30:52.008,-0.41,-0.115
2021-08-19 16:30:52.012,-0.25,-0.175
2021-08-19 16:30:52.016,0.175,-0.19
2021-08-19 16:30:52.020,0.875,-0.16
2021-08-19 16:30:52.024,1.64,-0.285
2021-08-19 16:30:52.036,1.785,-0.725
2021-08-19 16:30:52.040,0.92,-0.67
2021-08-19 16:30:52.044,-0.275,-0.535
2021-08-19 16:30:52.048,-1.01,-0.53
2021-08-19 16:30:52.052,-0.965,-0.455
2021-08-19 16:30:52.056,-0.75,-0.39
2021-08-19 16:30:52.060,-0.68,-0.34
2021-08-19 16:30:52.064,-0.45,-0.29
2021-08-19 16:30:52.068,-0.315,-0.225
2021-08-19 16:30:52.072,-0.27,-0.265
2021-08-19 16:30:52.076,-0.385,-0.29
2021-08-19 16:30:52.080,-0.47,-0.285
2021-08-19 16:30:52.084,-0.32,-0.22
2021-08-19 16:30:52.088,-0.2,-0.22
2021-08-19 16:30:52.092,-0.22,-0.32
2021-08-19 16:30:52.096,-0.34,-0.31
2021-08-19 16:30:52.100,-0.345,-0.24
2021-08-19 16:30:52.104,-0.28,-0.255
2021-08-19 16:30:52.108,-0.3,-0.275
2021-08-19 16:30:52.112,-0.285,-0.195
2021-08-19 16:30:52.116,-0.185,-0.185
2021-08-19 16:30:52.120,-0.115,-0.23
2021-08-19 16:30:52.124,-0.24,-0.26
2021-08-19 16:30:52.128,-0.285,-0.21
2021-08-19 16:30:52.132,-0.265,-0.215
2021-08-19 16:30:52.136,-0.265,-0.18
2021-08-19 16:30:52.140,-0.355,-0.11
2021-08-19 16:30:52.144,-0.355,-0.17
2021-08-19 16:30:52.148,-0.21,-0.23
2021-08-19 16:30:52.152,-0.21,-0.18
2021-08-19 16:30:52.156,-0.25,-0.205
2021-08-19 16:30:52.160,-0.26,-0.255
2021-08-19 16:30:52.164,-0.35,-0.295
2021-08-19 16:30:52.168,-0.285,-0.27
2021-08-19 16:30:52.172,-0.26,-0.265
2021-08-19 16:30:52.176,-0.21,-0.25
2021-08-19 16:30:52.180,-0.2,-0.245
2021-08-19 16:30:52.184,-0.225,-0.225
2021-08-19 16:30:52.188,-0.2,-0.22
2021-08-19 16:30:52.192,-0.175,-0.205
2021-08-19 16:30:52.196,-0.125,-0.265
2021-08-19 16:30:52.200,-0.1,-0.21
2021-08-19 16:30:52.204,-0.09,-0.17
2021-08-19 16:30:52.208,-0.12,-0.215
2021-08-19 16:30:52.212,-0.115,-0.275
2021-08-19 16:30:52.216,-0.04,-0.315
2021-08-19 16:30:52.220,0.03,-0.3
2021-08-19 16:30:52.224,0.0,-0.27
2021-08-19 16:30:52.228,-0.09,-0.215
2021-08-19 16:30:52.232,-0.135,-0.19
2021-08-19 16:30:52.236,-0.075,-0.245
2021-08-19 16:30:52.240,0.0,-0.3
2021-08-19 16:30:52.244,-0.06,-0.265
2021-08-19 16:30:52.248,-0.11,-0.26
2021-08-19 16:30:52.252,-0.12,-0.25
2021-08-19 16:30:52.256,-0.1,-0.26
2021-08-19 16:30:52.260,-0.1,-0.235
2021-08-19 16:30:52.264,-0.045,-0.245
2021-08-19 16:30:52.268,-0.065,-0.23
2021-08-19 16:30:52.272,-0.08,-0.22
2021-08-19 16:30:52.276,-0.11,-0.21
2021-08-19 16:30:52.280,-0.105,-0.19
2021-08-19 16:30:52.284,-0.09,-0.12
2021-08-19 16:30:52.288,-0.02,-0.205
2021-08-19 16:30:52.292,0.065,-0.285
2021-08-19 16:30:52.296,0.055,-0.225
2021-08-19 16:30:52.300,0.0,-0.22
2021-08-19 16:30:52.304,0.025,-0.15
2021-08-19 16:30:52.308,0.035,-0.125
2021-08-19 16:30:52.312,0.05,-0.2
2021-08-19 16:30:52.316,0.07,-0.23
2021-08-19 16:30:52.320,0.075,-0.21
2021-08-19 16:30:52.324,0.035,-0.175
2021-08-19 16:30:52.328,-0.035,-0.17
2021-08-19 16:30:52.332,-0.02,-0.155
2021-08-19 16:30:52.336,-0.035,-0.16
2021-08-19 16:30:52.340,-0.055,-0.16
2021-08-19 16:30:52.344,-0.08,-0.16
2021-08-19 16:30:52.348,-0.075,-0.15
2021-08-19 16:30:52.352,-0.13,-0.15
2021-08-19 16:30:52.356,-0.18,-0.14
2021-08-19 16:30:52.360,-0.185,-0.135
2021-08-19 16:30:52.364,-0.175,-0.13
2021-08-19 16:30:52.368,-0.19,-0.12
2021-08-19 16:30:52.372,-0.2,-0.11
2021-08-19 16:30:52.376,-0.16,-0.11
2021-08-19 16:30:52.380,-0.24,-0.135
2021-08-19 16:30:52.384,-0.26,-0.115
2021-08-19 16:30:52.388,-0.26,-0.13
2021-08-19 16:30:52.392,-0.27,-0.095
2021-08-19 16:30:52.396,-0.2,-0.105
2021-08-19 16:30:52.400,-0.16,-0.1
2021-08-19 16:30:52.404,-0.18,-0.1
2021-08-19 16:30:52.408,-0.205,-0.085
2021-08-19 16:30:52.412,-0.18,-0.08
2021-08-19 16:30:52.416,-0.215,-0.1
2021-08-19 16:30:52.420,-0.17,-0.09
2021-08-19 16:30:52.424,-0.105,-0.11
2021-08-19 16:30:52.428,-0.04,-0.11
2021-08-19 16:30:52.432,-0.075,-0.085
2021-08-19 16:30:52.436,-0.06,-0.105
2021-08-19 16:30:52.440,-0.055,-0.085
2021-08-19 16:30:52.444,-0.1,-0.085
2021-08-19 16:30:52.448,-0.08,-0.12
2021-08-19 16:30:52.452,-0.045,-0.11
2021-08-19 16:30:52.456,-0.04,-0.12
2021-08-19 16:30:52.460,-0.08,-0.105
2021-08-19 16:30:52.464,-0.05,-0.095
2021-08-19 16:30:52.468,-0.02,-0.085
2021-08-19 16:30:52.472,-0.015,-0.11
2021-08-19 16:30:52.476,-0.03,-0.075
2021-08-19 16:30:52.480,0.005,-0.08
2021-08-19 16:30:52.484,-0.035,-0.08
2021-08-19 16:30:52.488,-0.05,-0.105
2021-08-19 16:30:52.492,-0.04,-0.07
2021-08-19 16:30:52.496,-0.015,-0.09
2021-08-19 16:30:52.500,-0.045,-0.05
2021-08-19 16:30:52.504,-0.025,-0.07
2021-08-19 16:30:52.508,-0.035,-0.065
2021-08-19 16:30:52.512,-0.095,-0.075
2021-08-19 16:30:52.516,-0.115,-0.065
2021-08-19 16:30:52.520,-0.1,-0.06
2021-08-19 16:30:52.524,-0.135,-0.08
2021-08-19 16:30:52.528,-0.145,-0.08
2021-08-19 16:30:52.532,-0.105,-0.07
2021-08-19 16:30:52.536,-0.135,-0.04
2021-08-19 16:30:52.540,-0.155,-0.045
2021-08-19 16:30:52.544,-0.19,-0.075
2021-08-19 16:30:52.548,-0.165,-0.045
2021-08-19 16:30:52.552,-0.175,-0.055
2021-08-19 16:30:52.556,-0.21,-0.045
2021-08-19 16:30:52.560,-0.2,-0.045
2021-08-19 16:30:52.564,-0.22,-0.05
2021-08-19 16:30:52.568,-0.23,-0.06
2021-08-19 16:30:52.572,-0.195,-0.05
2021-08-19 16:30:52.576,-0.205,-0.065
2021-08-19 16:30:52.580,-0.23,-0.04
2021-08-19 16:30:52.584,-0.245,-0.04
2021-08-19 16:30:52.588,-0.22,-0.055
2021-08-19 16:30:52.592,-0.235,-0.06
2021-08-19 16:30:52.596,-0.255,-0.06
2021-08-19 16:30:52.600,-0.235,-0.07
2021-08-19 16:30:52.604,-0.245,-0.05
2021-08-19 16:30:52.608,-0.255,-0.04
2021-08-19 16:30:52.612,-0.255,-0.03
2021-08-19 16:30:52.616,-0.235,-0.045
2021-08-19 16:30:52.620,-0.25,-0.045
2021-08-19 16:30:52.624,-0.265,-0.065
2021-08-19 16:30:52.628,-0.25,-0.045
2021-08-19 16:30:52.632,-0.275,-0.055
2021-08-19 16:30:52.636,-0.28,-0.055
2021-08-19 16:30:52.640,-0.29,-0.01
2021-08-19 16:30:52.644,-0.31,-0.035
2021-08-19 16:30:52.648,-0.315,-0.05
2021-08-19 16:30:52.652,-0.28,-0.08
2021-08-19 16:30:52.656,-0.3,-0.08
2021-08-19 16:30:52.660,-0.355,-0.07
2021-08-19 16:30:52.664,-0.325,-0.04
2021-08-19 16:30:52.668,-0.32,-0.035
2021-08-19 16:30:52.672,-0.35,-0.04
2021-08-19 16:30:52.676,-0.35,-0.03
2021-08-19 16:30:52.680,-0.285,-0.025
2021-08-19 16:30:52.684,-0.325,-0.035
2021-08-19 16:30:52.688,-0.34,-0.04
2021-08-19 16:30:52.692,-0.345,-0.06
2021-08-19 16:30:52.696,-0.36,-0.02
2021-08-19 16:30:52.700,-0.33,-0.035
2021-08-19 16:30:52.704,-0.35,-0.045
2021-08-19 16:30:52.708,-0.355,-0.035
2021-08-19 16:30:52.712,-0.365,-0.05
2021-08-19 16:30:52.716,-0.375,-0.025
2021-08-19 16:30:52.720,-0.38,-0.01
2021-08-19 16:30:52.724,-0.39,-0.01
2021-08-19 16:30:52.728,-0.415,-0.03
2021-08-19 16:30:52.732,-0.385,-0.015
2021-08-19 16:30:52.736,-0.39,-0.015
2021-08-19 16:30:52.740,-0.41,-0.03
2021-08-19 16:30:52.744,-0.385,-0.015
2021-08-19 16:30:52.748,-0.36,-0.01
2021-08-19 16:30:52.752,-0.415,-0.04
2021-08-19 16:30:52.756,-0.405,-0.04
2021-08-19 16:30:52.760,-0.405,-0.01
2021-08-19 16:30:52.764,-0.41,0.0
2021-08-19 16:30:52.768,-0.425,0.0
2021-08-19 16:30:52.772,-0.43,0.0
2021-08-19 16:30:52.776,-0.44,0.0
2021-08-19 16:30:52.780,-0.435,-0.01
2021-08-19 16:30:52.784,-0.43,0.0
2021-08-19 16:30:52.788,-0.405,-0.025
2021-08-19 16:30:52.792,-0.46,-0.01
2021-08-19 16:30:52.796,-0.445,0.0
2021-08-19 16:30:52.800,-0.435,0.0
2021-08-19 16:30:52.804,-0.42,-0.01
2021-08-19 16:30:52.808,-0.395,-0.04
2021-08-19 16:30:52.812,-0.39,0.0
2021-08-19 16:30:52.816,-0.375,0.035
2021-08-19 16:30:52.820,-0.36,0.02
2021-08-19 16:30:52.824,-0.36,0.02
2021-08-19 16:30:52.828,-0.275,0.085
2021-08-19 16:30:52.832,-0.19,0.085
2021-08-19 16:30:52.836,-0.105,0.09
2021-08-19 16:30:52.840,-0.085,0.035
2021-08-19 16:30:52.844,-0.1,0.0
2021-08-19 16:30:52.848,-0.18,-0.04
2021-08-19 16:30:52.852,-0.195,-0.025
2021-08-19 16:30:52.856,-0.245,0.02
2021-08-19 16:30:52.860,-0.285,0.02
2021-08-19 16:30:52.864,-0.32,0.03
2021-08-19 16:30:52.868,-0.255,0.05
2021-08-19 16:30:52.872,-0.3,0.025
2021-08-19 16:30:52.876,-0.45,0.04
2021-08-19 16:30:52.880,-0.48,0.04
2021-08-19 16:30:52.884,-0.495,0.02
2021-08-19 16:30:52.888,-0.55,0.015
2021-08-19 16:30:52.892,-0.575,0.025
2021-08-19 16:30:52.896,-0.555,0.01
2021-08-19 16:30:52.900,-0.535,0.005
2021-08-19 16:30:52.904,-0.52,0.0
2021-08-19 16:30:52.908,-0.54,0.02
2021-08-19 16:30:52.912,-0.54,0.0
2021-08-19 16:30:52.916,-0.56,0.015
2021-08-19 16:30:52.920,-0.55,0.02
2021-08-19 16:30:52.924,-0.555,0.035
2021-08-19 16:30:52.928,-0.55,0.055
2021-08-19 16:30:52.932,-0.525,0.085
2021-08-19 16:30:52.936,-0.56,0.14
2021-08-19 16:30:52.940,-0.615,0.18
2021-08-19 16:30:52.944,-0.505,0.165
2021-08-19 16:30:52.948,-0.135,0.03
2021-08-19 16:30:52.952,0.485,-0.015
2021-08-19 16:30:52.956,1.16,-0.065
2021-08-19 16:30:52.960,1.765,-0.205
2021-08-19 16:30:52.964,1.985,-0.46
2021-08-19 16:30:52.968,1.51,-0.8
2021-08-19 16:30:52.972,0.46,-0.9
2021-08-19 16:30:52.976,-0.635,-0.76
2021-08-19 16:30:52.980,-1.315,-0.625
2021-08-19 16:30:52.984,-1.35,-0.47
2021-08-19 16:30:52.988,-1.165,-0.275
2021-08-19 16:30:52.992,-0.98,-0.2
2021-08-19 16:30:52.996,-0.84,-0.115
2021-08-19 16:30:53.000,-0.735,-0.03
2021-08-19 16:30:53.004,-0.715,0.005
2021-08-19 16:30:53.008,-0.705,0.035
2021-08-19 16:30:53.012,-0.715,0.065
2021-08-19 16:30:53.016,-0.67,0.07
2021-08-19 16:30:53.020,-0.72,0.07
2021-08-19 16:30:53.024,-0.675,0.075
2021-08-19 16:30:53.028,-0.635,0.095
2021-08-19 16:30:53.032,-0.675,0.11
2021-08-19 16:30:53.036,-0.705,0.11
2021-08-19 16:30:53.040,-0.69,0.085
2021-08-19 16:30:53.044,-0.7,0.1
2021-08-19 16:30:53.048,-0.7,0.09
2021-08-19 16:30:53.052,-0.655,0.075
2021-08-19 16:30:53.056,-0.675,0.1
2021-08-19 16:30:53.060,-0.7,0.1
2021-08-19 16:30:53.064,-0.705,0.095
2021-08-19 16:30:53.068,-0.69,0.105
2021-08-19 16:30:53.072,-0.695,0.12
2021-08-19 16:30:53.076,-0.675,0.115
2021-08-19 16:30:53.080,-0.645,0.11
2021-08-19 16:30:53.084,-0.655,0.105
2021-08-19 16:30:53.088,-0.695,0.105
2021-08-19 16:30:53.092,-0.69,0.1
2021-08-19 16:30:53.096,-0.685,0.095
2021-08-19 16:30:53.100,-0.68,0.105
2021-08-19 16:30:53.104,-0.66,0.11
2021-08-19 16:30:53.108,-0.66,0.12
2021-08-19 16:30:53.112,-0.665,0.1
2021-08-19 16:30:53.116,-0.68,0.11
2021-08-19 16:30:53.120,-0.635,0.115
2021-08-19 16:30:53.124,-0.63,0.105
2021-08-19 16:30:53.128,-0.635,0.105
2021-08-19 16:30:53.132,-0.62,0.095
2021-08-19 16:30:53.136,-0.6,0.115
2021-08-19 16:30:53.140,-0.615,0.1
2021-08-19 16:30:53.144,-0.58,0.1
2021-08-19 16:30:53.148,-0.545,0.09
2021-08-19 16:30:53.152,-0.545,0.095
2021-08-19 16:30:53.156,-0.52,0.085
2021-08-19 16:30:53.160,-0.495,0.095
2021-08-19 16:30:53.164,-0.5,0.075
2021-08-19 16:30:53.168,-0.515,0.07
2021-08-19 16:30:53.172,-0.45,0.075
2021-08-19 16:30:53.176,-0.415,0.07
2021-08-19 16:30:53.180,-0.43,0.05
2021-08-19 16:30:53.184,-0.4,0.045
2021-08-19 16:30:53.188,-0.385,0.05
2021-08-19 16:30:53.192,-0.385,0.04
2021-08-19 16:30:53.196,-0.395,0.035
2021-08-19 16:30:53.200,-0.375,0.045
2021-08-19 16:30:53.204,-0.38,0.045
2021-08-19 16:30:53.208,-0.375,0.05
2021-08-19 16:30:53.212,-0.35,0.03
2021-08-19 16:30:53.216,-0.34,0.03
2021-08-19 16:30:53.220,-0.355,0.025
2021-08-19 16:30:53.224,-0.345,0.04
2021-08-19 16:30:53.228,-0.295,0.035
2021-08-19 16:30:53.232,-0.28,0.055
2021-08-19 16:30:53.236,-0.275,0.055
2021-08-19 16:30:53.240,-0.23,0.045
2021-08-19 16:30:53.244,-0.21,0.075
2021-08-19 16:30:53.248,-0.25,0.07
2021-08-19 16:30:53.252,-0.245,0.08
2021-08-19 16:30:53.256,-0.27,0.09
2021-08-19 16:30:53.260,-0.3,0.085
2021-08-19 16:30:53.264,-0.32,0.095
2021-08-19 16:30:53.268,-0.335,0.105
2021-08-19 16:30:53.272,-0.375,0.1
2021-08-19 16:30:53.276,-0.4,0.105
2021-08-19 16:30:53.280,-0.405,0.115
2021-08-19 16:30:53.284,-0.43,0.125
2021-08-19 16:30:53.288,-0.465,0.115
2021-08-19 16:30:53.292,-0.465,0.115
2021-08-19 16:30:53.296,-0.48,0.135
2021-08-19 16:30:53.300,-0.485,0.115
2021-08-19 16:30:53.304,-0.495,0.13
2021-08-19 16:30:53.308,-0.485,0.115
2021-08-19 16:30:53.312,-0.51,0.13
2021-08-19 16:30:53.316,-0.51,0.135
2021-08-19 16:30:53.320,-0.505,0.145
2021-08-19 16:30:53.324,-0.495,0.145
2021-08-19 16:30:53.328,-0.51,0.14
2021-08-19 16:30:53.332,-0.515,0.145
2021-08-19 16:30:53.336,-0.51,0.145
2021-08-19 16:30:53.340,-0.505,0.155
2021-08-19 16:30:53.344,-0.49,0.155
2021-08-19 16:30:53.348,-0.49,0.175
2021-08-19 16:30:53.352,-0.51,0.165
2021-08-19 16:30:53.356,-0.515,0.16
2021-08-19 16:30:53.360,-0.5,0.165
2021-08-19 16:30:53.364,-0.495,0.16
2021-08-19 16:30:53.368,-0.515,0.17
2021-08-19 16:30:53.372,-0.47,0.16
2021-08-19 16:30:53.376,-0.465,0.165
2021-08-19 16:30:53.380,-0.48,0.145
2021-08-19 16:30:53.384,-0.47,0.165
2021-08-19 16:30:53.388,-0.44,0.16
2021-08-19 16:30:53.392,-0.47,0.155
2021-08-19 16:30:53.396,-0.47,0.155
2021-08-19 16:30:53.400,-0.45,0.165
2021-08-19 16:30:53.404,-0.465,0.15
2021-08-19 16:30:53.408,-0.47,0.15
2021-08-19 16:30:53.412,-0.425,0.15
2021-08-19 16:30:53.416,-0.445,0.155
2021-08-19 16:30:53.420,-0.46,0.145
2021-08-19 16:30:53.424,-0.455,0.165
2021-08-19 16:30:53.428,-0.465,0.16
2021-08-19 16:30:53.432,-0.495,0.16
2021-08-19 16:30:53.436,-0.48,0.145
2021-08-19 16:30:53.440,-0.455,0.17
2021-08-19 16:30:53.444,-0.47,0.17
2021-08-19 16:30:53.448,-0.5,0.15
2021-08-19 16:30:53.452,-0.475,0.17
2021-08-19 16:30:53.456,-0.475,0.18
2021-08-19 16:30:53.460,-0.49,0.165
2021-08-19 16:30:53.464,-0.505,0.16
2021-08-19 16:30:53.468,-0.475,0.17
2021-08-19 16:30:53.472,-0.51,0.165
2021-08-19 16:30:53.476,-0.525,0.165
2021-08-19 16:30:53.480,-0.51,0.16
2021-08-19 16:30:53.484,-0.52,0.16
2021-08-19 16:30:53.488,-0.525,0.165
2021-08-19 16:30:53.492,-0.525,0.18
2021-08-19 16:30:53.496,-0.54,0.18
2021-08-19 16:30:53.500,-0.535,0.165
2021-08-19 16:30:53.504,-0.53,0.17
2021-08-19 16:30:53.508,-0.54,0.19
2021-08-19 16:30:53.512,-0.56,0.165
2021-08-19 16:30:53.516,-0.54,0.17
2021-08-19 16:30:53.520,-0.545,0.18
2021-08-19 16:30:53.524,-0.57,0.18
2021-08-19 16:30:53.528,-0.565,0.17
2021-08-19 16:30:53.532,-0.545,0.175
2021-08-19 16:30:53.536,-0.55,0.175
2021-08-19 16:30:53.540,-0.58,0.175
2021-08-19 16:30:53.544,-0.57,0.19
2021-08-19 16:30:53.548,-0.55,0.19
2021-08-19 16:30:53.552,-0.585,0.18
2021-08-19 16:30:53.556,-0.585,0.18
2021-08-19 16:30:53.560,-0.58,0.19
2021-08-19 16:30:53.564,-0.58,0.19
2021-08-19 16:30:53.568,-0.6,0.195
2021-08-19 16:30:53.572,-0.575,0.205
2021-08-19 16:30:53.576,-0.59,0.195
2021-08-19 16:30:53.580,-0.605,0.2
2021-08-19 16:30:53.584,-0.59,0.195
2021-08-19 16:30:53.588,-0.6,0.18
2021-08-19 16:30:53.592,-0.61,0.195
2021-08-19 16:30:53.596,-0.615,0.19
2021-08-19 16:30:53.600,-0.585,0.195
2021-08-19 16:30:53.604,-0.6,0.175
2021-08-19 16:30:53.608,-0.635,0.195
2021-08-19 16:30:53.612,-0.61,0.2
2021-08-19 16:30:53.616,-0.61,0.195
2021-08-19 16:30:53.620,-0.64,0.205
2021-08-19 16:30:53.624,-0.61,0.21
2021-08-19 16:30:53.628,-0.6,0.19
2021-08-19 16:30:53.632,-0.61,0.185
2021-08-19 16:30:53.636,-0.64,0.19
2021-08-19 16:30:53.640,-0.615,0.21
2021-08-19 16:30:53.644,-0.625,0.19
2021-08-19 16:30:53.648,-0.635,0.205
2021-08-19 16:30:53.652,-0.63,0.2
2021-08-19 16:30:53.656,-0.63,0.2
2021-08-19 16:30:53.660,-0.64,0.21
2021-08-19 16:30:53.664,-0.62,0.19
2021-08-19 16:30:53.668,-0.61,0.21
2021-08-19 16:30:53.672,-0.635,0.21
2021-08-19 16:30:53.676,-0.635,0.21
2021-08-19 16:30:53.680,-0.615,0.21
2021-08-19 16:30:53.684,-0.635,0.195
2021-08-19 16:30:53.688,-0.65,0.215
2021-08-19 16:30:53.692,-0.62,0.205
2021-08-19 16:30:53.696,-0.615,0.185
2021-08-19 16:30:53.700,-0.655,0.195
2021-08-19 16:30:53.704,-0.635,0.21
2021-08-19 16:30:53.708,-0.62,0.195
2021-08-19 16:30:53.712,-0.65,0.19
2021-08-19 16:30:53.716,-0.635,0.2
2021-08-19 16:30:53.720,-0.605,0.2
2021-08-19 16:30:53.724,-0.6,0.2
2021-08-19 16:30:53.728,-0.58,0.215
2021-08-19 16:30:53.732,-0.54,0.24
2021-08-19 16:30:53.736,-0.54,0.24
2021-08-19 16:30:53.740,-0.515,0.24
2021-08-19 16:30:53.744,-0.415,0.245
2021-08-19 16:30:53.748,-0.33,0.265
2021-08-19 16:30:53.752,-0.3,0.235
2021-08-19 16:30:53.756,-0.31,0.19
2021-08-19 16:30:53.760,-0.325,0.15
2021-08-19 16:30:53.764,-0.375,0.145
2021-08-19 16:30:53.768,-0.405,0.165
2021-08-19 16:30:53.772,-0.415,0.185
2021-08-19 16:30:53.776,-0.465,0.2
2021-08-19 16:30:53.780,-0.505,0.205
2021-08-19 16:30:53.784,-0.485,0.22
2021-08-19 16:30:53.788,-0.555,0.235
2021-08-19 16:30:53.792,-0.655,0.21
2021-08-19 16:30:53.796,-0.675,0.2
2021-08-19 16:30:53.800,-0.655,0.215
2021-08-19 16:30:53.804,-0.655,0.22
2021-08-19 16:30:53.808,-0.665,0.195
2021-08-19 16:30:53.812,-0.67,0.21
2021-08-19 16:30:53.816,-0.67,0.205
2021-08-19 16:30:53.820,-0.69,0.21
2021-08-19 16:30:53.824,-0.67,0.195
2021-08-19 16:30:53.828,-0.66,0.205
2021-08-19 16:30:53.832,-0.66,0.2
2021-08-19 16:30:53.836,-0.68,0.205
2021-08-19 16:30:53.840,-0.66,0.22
2021-08-19 16:30:53.844,-0.675,0.215
2021-08-19 16:30:53.848,-0.68,0.27
2021-08-19 16:30:53.852,-0.705,0.325
2021-08-19 16:30:53.856,-0.72,0.355
2021-08-19 16:30:53.860,-0.67,0.355
2021-08-19 16:30:53.864,-0.43,0.21
2021-08-19 16:30:53.868,0.1,0.125
2021-08-19 16:30:53.872,0.765,0.065
2021-08-19 16:30:53.876,1.42,-0.08
2021-08-19 16:30:53.880,1.815,-0.385
2021-08-19 16:30:53.884,1.53,-0.75
2021-08-19 16:30:53.888,0.515,-0.875
2021-08-19 16:30:53.892,-0.555,-0.735
2021-08-19 16:30:53.896,-1.355,-0.56
2021-08-19 16:30:53.900,-1.46,-0.38
2021-08-19 16:30:53.904,-1.265,-0.15
2021-08-19 16:30:53.908,-1.075,-0.075
2021-08-19 16:30:53.912,-0.925,0.04
2021-08-19 16:30:53.916,-0.87,0.085
2021-08-19 16:30:53.920,-0.815,0.165
2021-08-19 16:30:53.924,-0.8,0.195
2021-08-19 16:30:53.928,-0.78,0.205
2021-08-19 16:30:53.932,-0.78,0.235
2021-08-19 16:30:53.936,-0.775,0.23
2021-08-19 16:30:53.940,-0.775,0.235
2021-08-19 16:30:53.944,-0.765,0.24
2021-08-19 16:30:53.948,-0.745,0.25
2021-08-19 16:30:53.952,-0.765,0.255
2021-08-19 16:30:53.956,-0.76,0.255
2021-08-19 16:30:53.960,-0.745,0.245
2021-08-19 16:30:53.964,-0.76,0.275
2021-08-19 16:30:53.968,-0.76,0.26
2021-08-19 16:30:53.972,-0.74,0.26
2021-08-19 16:30:53.976,-0.73,0.26
2021-08-19 16:30:53.980,-0.755,0.265
2021-08-19 16:30:53.984,-0.76,0.265
2021-08-19 16:30:53.988,-0.725,0.255
2021-08-19 16:30:53.992,-0.74,0.25
2021-08-19 16:30:53.996,-0.745,0.255
2021-08-19 16:30:54.000,-0.72,0.28
2021-08-19 16:30:54.004,-0.72,0.265
2021-08-19 16:30:54.008,-0.73,0.255
2021-08-19 16:30:54.012,-0.715,0.26
2021-08-19 16:30:54.016,-0.72,0.26
2021-08-19 16:30:54.020,-0.72,0.245
2021-08-19 16:30:54.024,-0.695,0.255
2021-08-19 16:30:54.028,-0.67,0.255
2021-08-19 16:30:54.032,-0.685,0.255
2021-08-19 16:30:54.036,-0.68,0.245
2021-08-19 16:30:54.040,-0.635,0.24
2021-08-19 16:30:54.044,-0.655,0.23
2021-08-19 16:30:54.048,-0.655,0.23
2021-08-19 16:30:54.052,-0.615,0.245
2021-08-19 16:30:54.056,-0.615,0.225
2021-08-19 16:30:54.060,-0.59,0.215
2021-08-19 16:30:54.064,-0.585,0.22
2021-08-19 16:30:54.068,-0.545,0.23
2021-08-19 16:30:54.072,-0.54,0.22
2021-08-19 16:30:54.076,-0.535,0.215
2021-08-19 16:30:54.080,-0.48,0.2
2021-08-19 16:30:54.084,-0.475,0.2
2021-08-19 16:30:54.088,-0.48,0.19
2021-08-19 16:30:54.092,-0.46,0.185
2021-08-19 16:30:54.096,-0.44,0.185
2021-08-19 16:30:54.100,-0.45,0.175
2021-08-19 16:30:54.104,-0.425,0.15
2021-08-19 16:30:54.108,-0.395,0.16
2021-08-19 16:30:54.112,-0.415,0.15
2021-08-19 16:30:54.116,-0.395,0.15
2021-08-19 16:30:54.120,-0.37,0.145
2021-08-19 16:30:54.124,-0.4,0.135
2021-08-19 16:30:54.128,-0.39,0.13
2021-08-19 16:30:54.132,-0.375,0.155
2021-08-19 16:30:54.136,-0.36,0.15
2021-08-19 16:30:54.140,-0.37,0.15
2021-08-19 16:30:54.144,-0.335,0.16
2021-08-19 16:30:54.148,-0.28,0.165
2021-08-19 16:30:54.152,-0.275,0.155
2021-08-19 16:30:54.156,-0.27,0.16
2021-08-19 16:30:54.160,-0.25,0.165
2021-08-19 16:30:54.164,-0.25,0.17
2021-08-19 16:30:54.168,-0.275,0.16
2021-08-19 16:30:54.172,-0.285,0.2
2021-08-19 16:30:54.176,-0.285,0.19
2021-08-19 16:30:54.180,-0.315,0.215
2021-08-19 16:30:54.184,-0.365,0.21
2021-08-19 16:30:54.188,-0.37,0.225
2021-08-19 16:30:54.192,-0.405,0.205
2021-08-19 16:30:54.196,-0.43,0.21
2021-08-19 16:30:54.200,-0.415,0.22
2021-08-19 16:30:54.204,-0.455,0.235
2021-08-19 16:30:54.208,-0.475,0.22
2021-08-19 16:30:54.212,-0.47,0.225
2021-08-19 16:30:54.216,-0.465,0.235
2021-08-19 16:30:54.220,-0.495,0.22
2021-08-19 16:30:54.224,-0.5,0.225
2021-08-19 16:30:54.228,-0.495,0.245
2021-08-19 16:30:54.232,-0.495,0.235
2021-08-19 16:30:54.236,-0.5,0.245
2021-08-19 16:30:54.240,-0.48,0.26
2021-08-19 16:30:54.244,-0.48,0.26
2021-08-19 16:30:54.248,-0.5,0.245
2021-08-19 16:30:54.252,-0.48,0.265
2021-08-19 16:30:54.256,-0.465,0.275
2021-08-19 16:30:54.260,-0.485,0.27
2021-08-19 16:30:54.264,-0.495,0.275
2021-08-19 16:30:54.268,-0.48,0.26
2021-08-19 16:30:54.272,-0.475,0.265
2021-08-19 16:30:54.276,-0.47,0.265
2021-08-19 16:30:54.280,-0.45,0.265
2021-08-19 16:30:54.284,-0.465,0.275
2021-08-19 16:30:54.288,-0.47,0.26
2021-08-19 16:30:54.292,-0.455,0.27
2021-08-19 16:30:54.296,-0.45,0.27
2021-08-19 16:30:54.300,-0.47,0.255
2021-08-19 16:30:54.304,-0.46,0.255
2021-08-19 16:30:54.308,-0.44,0.255
2021-08-19 16:30:54.312,-0.44,0.24
2021-08-19 16:30:54.316,-0.46,0.235
2021-08-19 16:30:54.320,-0.425,0.26
2021-08-19 16:30:54.324,-0.415,0.245
2021-08-19 16:30:54.328,-0.445,0.25
2021-08-19 16:30:54.332,-0.43,0.255
2021-08-19 16:30:54.336,-0.42,0.245
2021-08-19 16:30:54.340,-0.43,0.235
2021-08-19 16:30:54.344,-0.44,0.235
2021-08-19 16:30:54.348,-0.415,0.225
2021-08-19 16:30:54.352,-0.455,0.23
2021-08-19 16:30:54.356,-0.445,0.225
2021-08-19 16:30:54.360,-0.405,0.25
2021-08-19 16:30:54.364,-0.425,0.23
2021-08-19 16:30:54.368,-0.455,0.23
2021-08-19 16:30:54.372,-0.435,0.235
2021-08-19 16:30:54.376,-0.44,0.22
2021-08-19 16:30:54.380,-0.455,0.24
2021-08-19 16:30:54.384,-0.46,0.25
2021-08-19 16:30:54.388,-0.45,0.235
2021-08-19 16:30:54.392,-0.465,0.235
2021-08-19 16:30:54.396,-0.475,0.24
2021-08-19 16:30:54.400,-0.445,0.235
2021-08-19 16:30:54.404,-0.455,0.24
2021-08-19 16:30:54.408,-0.48,0.24
2021-08-19 16:30:54.412,-0.455,0.25
2021-08-19 16:30:54.416,-0.46,0.245
2021-08-19 16:30:54.420,-0.475,0.24
2021-08-19 16:30:54.424,-0.475,0.23
2021-08-19 16:30:54.428,-0.465,0.235
2021-08-19 16:30:54.432,-0.47,0.25
2021-08-19 16:30:54.436,-0.48,0.235
2021-08-19 16:30:54.440,-0.46,0.25
2021-08-19 16:30:54.444,-0.465,0.235
2021-08-19 16:30:54.448,-0.48,0.245
2021-08-19 16:30:54.452,-0.465,0.26
2021-08-19 16:30:54.456,-0.47,0.24
2021-08-19 16:30:54.460,-0.48,0.225
2021-08-19 16:30:54.464,-0.48,0.235
2021-08-19 16:30:54.468,-0.475,0.235
2021-08-19 16:30:54.472,-0.49,0.24
2021-08-19 16:30:54.476,-0.495,0.24
2021-08-19 16:30:54.480,-0.47,0.235
2021-08-19 16:30:54.484,-0.48,0.235
2021-08-19 16:30:54.488,-0.51,0.23
2021-08-19 16:30:54.492,-0.475,0.255
2021-08-19 16:30:54.496,-0.465,0.215
2021-08-19 16:30:54.500,-0.5,0.245
2021-08-19 16:30:54.504,-0.48,0.235
2021-08-19 16:30:54.508,-0.445,0.25
2021-08-19 16:30:54.512,-0.485,0.24
2021-08-19 16:30:54.516,-0.495,0.22
2021-08-19 16:30:54.520,-0.49,0.24
2021-08-19 16:30:54.524,-0.475,0.235
2021-08-19 16:30:54.528,-0.495,0.235
2021-08-19 16:30:54.532,-0.49,0.235
2021-08-19 16:30:54.536,-0.49,0.225
2021-08-19 16:30:54.540,-0.505,0.21
2021-08-19 16:30:54.544,-0.495,0.245
2021-08-19 16:30:54.548,-0.48,0.25
2021-08-19 16:30:54.552,-0.5,0.225
2021-08-19 16:30:54.556,-0.495,0.22
2021-08-19 16:30:54.560,-0.475,0.235
2021-08-19 16:30:54.564,-0.45,0.235
2021-08-19 16:30:54.568,-0.485,0.225
2021-08-19 16:30:54.572,-0.47,0.225
2021-08-19 16:30:54.576,-0.485,0.235
2021-08-19 16:30:54.580,-0.515,0.24
2021-08-19 16:30:54.584,-0.515,0.23
2021-08-19 16:30:54.588,-0.485,0.23
2021-08-19 16:30:54.592,-0.48,0.22
2021-08-19 16:30:54.596,-0.495,0.215
2021-08-19 16:30:54.600,-0.49,0.22
2021-08-19 16:30:54.604,-0.48,0.21
2021-08-19 16:30:54.608,-0.505,0.205
2021-08-19 16:30:54.612,-0.505,0.215
2021-08-19 16:30:54.616,-0.48,0.215
2021-08-19 16:30:54.620,-0.495,0.22
2021-08-19 16:30:54.624,-0.485,0.22
2021-08-19 16:30:54.628,-0.455,0.2
2021-08-19 16:30:54.632,-0.48,0.2
2021-08-19 16:30:54.636,-0.455,0.205
2021-08-19 16:30:54.640,-0.425,0.205
2021-08-19 16:30:54.644,-0.38,0.215
2021-08-19 16:30:54.648,-0.375,0.235
2021-08-19 16:30:54.652,-0.295,0.235
2021-08-19 16:30:54.656,-0.195,0.245
2021-08-19 16:30:54.660,-0.175,0.25
2021-08-19 16:30:54.664,-0.19,0.19
2021-08-19 16:30:54.668,-0.155,0.145
2021-08-19 16:30:54.672,-0.235,0.115
2021-08-19 16:30:54.676,-0.28,0.15
2021-08-19 16:30:54.680,-0.285,0.16
2021-08-19 16:30:54.684,-0.29,0.155
2021-08-19 16:30:54.688,-0.355,0.185
2021-08-19 16:30:54.692,-0.35,0.205
2021-08-19 16:30:54.696,-0.37,0.21
2021-08-19 16:30:54.700,-0.495,0.195
2021-08-19 16:30:54.704,-0.515,0.215
2021-08-19 16:30:54.708,-0.51,0.2
2021-08-19 16:30:54.712,-0.55,0.2
2021-08-19 16:30:54.716,-0.55,0.185
2021-08-19 16:30:54.720,-0.52,0.18
2021-08-19 16:30:54.724,-0.51,0.175
2021-08-19 16:30:54.728,-0.52,0.175
2021-08-19 16:30:54.732,-0.525,0.17
2021-08-19 16:30:54.736,-0.54,0.17
2021-08-19 16:30:54.740,-0.545,0.18
2021-08-19 16:30:54.744,-0.515,0.165
2021-08-19 16:30:54.748,-0.485,0.185
2021-08-19 16:30:54.752,-0.505,0.185
2021-08-19 16:30:54.756,-0.535,0.205
2021-08-19 16:30:54.760,-0.555,0.275
2021-08-19 16:30:54.764,-0.58,0.345
2021-08-19 16:30:54.768,-0.525,0.3
2021-08-19 16:30:54.772,-0.265,0.12
2021-08-19 16:30:54.776,0.245,-0.02
2021-08-19 16:30:54.780,0.84,-0.155
2021-08-19 16:30:54.784,1.47,-0.395
2021-08-19 16:30:54.788,1.74,-0.745
2021-08-19 16:30:54.792,1.205,-1.095
2021-08-19 16:30:54.796,0.155,-1.065
2021-08-19 16:30:54.800,-0.75,-0.73
2021-08-19 16:30:54.804,-1.28,-0.49
2021-08-19 16:30:54.808,-1.28,-0.345
2021-08-19 16:30:54.812,-1.06,-0.16
2021-08-19 16:30:54.816,-0.87,-0.12
2021-08-19 16:30:54.820,-0.775,-0.01
2021-08-19 16:30:54.824,-0.7,0.055
2021-08-19 16:30:54.828,-0.675,0.09
2021-08-19 16:30:54.832,-0.66,0.14
2021-08-19 16:30:54.836,-0.635,0.15
2021-08-19 16:30:54.840,-0.62,0.17
2021-08-19 16:30:54.844,-0.63,0.175
2021-08-19 16:30:54.848,-0.645,0.185
2021-08-19 16:30:54.852,-0.605,0.18
2021-08-19 16:30:54.856,-0.615,0.19
2021-08-19 16:30:54.860,-0.64,0.185
2021-08-19 16:30:54.864,-0.625,0.175
2021-08-19 16:30:54.868,-0.61,0.185
2021-08-19 16:30:54.872,-0.605,0.18
2021-08-19 16:30:54.876,-0.625,0.195
2021-08-19 16:30:54.880,-0.63,0.18
2021-08-19 16:30:54.884,-0.635,0.195
2021-08-19 16:30:54.888,-0.635,0.19
2021-08-19 16:30:54.892,-0.595,0.17
2021-08-19 16:30:54.896,-0.6,0.175
2021-08-19 16:30:54.900,-0.61,0.165
2021-08-19 16:30:54.904,-0.595,0.17
2021-08-19 16:30:54.908,-0.575,0.175
2021-08-19 16:30:54.912,-0.61,0.165
2021-08-19 16:30:54.916,-0.61,0.185
2021-08-19 16:30:54.920,-0.585,0.195
2021-08-19 16:30:54.924,-0.575,0.185
2021-08-19 16:30:54.928,-0.6,0.18
2021-08-19 16:30:54.932,-0.59,0.16
2021-08-19 16:30:54.936,-0.57,0.165
2021-08-19 16:30:54.940,-0.575,0.14
2021-08-19 16:30:54.944,-0.565,0.16
2021-08-19 16:30:54.948,-0.525,0.17
2021-08-19 16:30:54.952,-0.55,0.16
2021-08-19 16:30:54.956,-0.555,0.145
2021-08-19 16:30:54.960,-0.525,0.155
2021-08-19 16:30:54.964,-0.505,0.13
2021-08-19 16:30:54.968,-0.505,0.135
2021-08-19 16:30:54.972,-0.48,0.105
2021-08-19 16:30:54.976,-0.455,0.115
2021-08-19 16:30:54.980,-0.44,0.11
2021-08-19 16:30:54.984,-0.43,0.1
2021-08-19 16:30:54.988,-0.395,0.075
2021-08-19 16:30:54.992,-0.38,0.075
2021-08-19 16:30:54.996,-0.37,0.055
2021-08-19 16:30:55.000,-0.35,0.065
2021-08-19 16:30:55.004,-0.35,0.03
2021-08-19 16:30:55.008,-0.345,0.01
2021-08-19 16:30:55.012,-0.33,0.02
2021-08-19 16:30:55.016,-0.335,0.0
2021-08-19 16:30:55.020,-0.375,-0.01
2021-08-19 16:30:55.024,-0.39,0.0
2021-08-19 16:30:55.028,-0.33,0.0
2021-08-19 16:30:55.032,-0.33,-0.01
2021-08-19 16:30:55.036,-0.35,-0.02
2021-08-19 16:30:55.040,-0.305,-0.015
2021-08-19 16:30:55.044,-0.3,-0.02
2021-08-19 16:30:55.048,-0.31,-0.015
2021-08-19 16:30:55.052,-0.305,-0.02
2021-08-19 16:30:55.056,-0.265,-0.02
2021-08-19 16:30:55.060,-0.265,-0.005
2021-08-19 16:30:55.064,-0.22,-0.01
2021-08-19 16:30:55.068,-0.22,0.005
2021-08-19 16:30:55.072,-0.255,0.01
2021-08-19 16:30:55.076,-0.27,0.025
2021-08-19 16:30:55.080,-0.26,0.055
2021-08-19 16:30:55.084,-0.285,0.04
2021-08-19 16:30:55.088,-0.315,0.05
2021-08-19 16:30:55.092,-0.345,0.05
2021-08-19 16:30:55.096,-0.345,0.07
2021-08-19 16:30:55.100,-0.4,0.075
2021-08-19 16:30:55.104,-0.42,0.065
2021-08-19 16:30:55.108,-0.42,0.07
2021-08-19 16:30:55.112,-0.44,0.075
2021-08-19 16:30:55.116,-0.49,0.09
2021-08-19 16:30:55.120,-0.45,0.08
2021-08-19 16:30:55.124,-0.485,0.08
2021-08-19 16:30:55.128,-0.5,0.085
2021-08-19 16:30:55.132,-0.515,0.1
2021-08-19 16:30:55.136,-0.505,0.09
2021-08-19 16:30:55.140,-0.505,0.105
2021-08-19 16:30:55.144,-0.52,0.095
2021-08-19 16:30:55.148,-0.49,0.12
2021-08-19 16:30:55.152,-0.525,0.105
2021-08-19 16:30:55.156,-0.53,0.095
2021-08-19 16:30:55.160,-0.535,0.125
2021-08-19 16:30:55.164,-0.525,0.125
2021-08-19 16:30:55.168,-0.515,0.11
2021-08-19 16:30:55.172,-0.505,0.12
2021-08-19 16:30:55.176,-0.49,0.115
2021-08-19 16:30:55.180,-0.5,0.11
2021-08-19 16:30:55.184,-0.49,0.12
2021-08-19 16:30:55.188,-0.46,0.12
2021-08-19 16:30:55.192,-0.465,0.125
2021-08-19 16:30:55.196,-0.465,0.1
2021-08-19 16:30:55.200,-0.435,0.1
2021-08-19 16:30:55.204,-0.425,0.105
2021-08-19 16:30:55.208,-0.445,0.11
2021-08-19 16:30:55.212,-0.46,0.095
2021-08-19 16:30:55.216,-0.43,0.1
2021-08-19 16:30:55.220,-0.44,0.1
2021-08-19 16:30:55.224,-0.445,0.1
2021-08-19 16:30:55.228,-0.42,0.09
2021-08-19 16:30:55.232,-0.415,0.09
2021-08-19 16:30:55.236,-0.42,0.085
2021-08-19 16:30:55.240,-0.405,0.09
2021-08-19 16:30:55.244,-0.4,0.08
2021-08-19 16:30:55.248,-0.42,0.09
2021-08-19 16:30:55.252,-0.405,0.095
2021-08-19 16:30:55.256,-0.41,0.085
2021-08-19 16:30:55.260,-0.435,0.09
2021-08-19 16:30:55.264,-0.425,0.09
2021-08-19 16:30:55.268,-0.415,0.09
2021-08-19 16:30:55.272,-0.43,0.08
2021-08-19 16:30:55.276,-0.435,0.07
2021-08-19 16:30:55.280,-0.415,0.085
2021-08-19 16:30:55.284,-0.43,0.1
2021-08-19 16:30:55.288,-0.45,0.105
2021-08-19 16:30:55.292,-0.44,0.09
2021-08-19 16:30:55.296,-0.435,0.095
2021-08-19 16:30:55.300,-0.45,0.07
2021-08-19 16:30:55.304,-0.45,0.07
2021-08-19 16:30:55.308,-0.42,0.085
2021-08-19 16:30:55.312,-0.44,0.09
2021-08-19 16:30:55.316,-0.47,0.075
2021-08-19 16:30:55.320,-0.44,0.075
2021-08-19 16:30:55.324,-0.455,0.075
2021-08-19 16:30:55.328,-0.47,0.075
2021-08-19 16:30:55.332,-0.45,0.09
2021-08-19 16:30:55.336,-0.425,0.085
2021-08-19 16:30:55.340,-0.46,0.08
2021-08-19 16:30:55.344,-0.47,0.08
2021-08-19 16:30:55.348,-0.45,0.085
2021-08-19 16:30:55.352,-0.47,0.08
2021-08-19 16:30:55.356,-0.48,0.085
2021-08-19 16:30:55.360,-0.455,0.09
2021-08-19 16:30:55.364,-0.455,0.09
2021-08-19 16:30:55.368,-0.475,0.08
2021-08-19 16:30:55.372,-0.46,0.065
2021-08-19 16:30:55.376,-0.445,0.085
2021-08-19 16:30:55.380,-0.47,0.075
2021-08-19 16:30:55.384,-0.465,0.09
2021-08-19 16:30:55.388,-0.45,0.085
2021-08-19 16:30:55.392,-0.455,0.075
2021-08-19 16:30:55.396,-0.475,0.08
2021-08-19 16:30:55.400,-0.45,0.09
2021-08-19 16:30:55.404,-0.445,0.085
2021-08-19 16:30:55.408,-0.455,0.07
2021-08-19 16:30:55.412,-0.445,0.08
2021-08-19 16:30:55.416,-0.445,0.09
2021-08-19 16:30:55.420,-0.45,0.08
2021-08-19 16:30:55.424,-0.46,0.09
2021-08-19 16:30:55.428,-0.44,0.075
2021-08-19 16:30:55.432,-0.435,0.085
2021-08-19 16:30:55.436,-0.44,0.06
2021-08-19 16:30:55.440,-0.425,0.06
2021-08-19 16:30:55.444,-0.425,0.08
2021-08-19 16:30:55.448,-0.42,0.075
2021-08-19 16:30:55.452,-0.43,0.1
2021-08-19 16:30:55.456,-0.41,0.085
2021-08-19 16:30:55.460,-0.41,0.075
2021-08-19 16:30:55.464,-0.435,0.08
2021-08-19 16:30:55.468,-0.415,0.08
2021-08-19 16:30:55.472,-0.4,0.075
2021-08-19 16:30:55.476,-0.425,0.095
2021-08-19 16:30:55.480,-0.42,0.095
2021-08-19 16:30:55.484,-0.405,0.075
2021-08-19 16:30:55.488,-0.405,0.08
2021-08-19 16:30:55.492,-0.4,0.085
2021-08-19 16:30:55.496,-0.4,0.095
2021-08-19 16:30:55.500,-0.395,0.075
2021-08-19 16:30:55.504,-0.395,0.085
2021-08-19 16:30:55.508,-0.35,0.055
2021-08-19 16:30:55.512,-0.37,0.08
2021-08-19 16:30:55.516,-0.335,0.09
2021-08-19 16:30:55.520,-0.31,0.105
2021-08-19 16:30:55.524,-0.285,0.115
2021-08-19 16:30:55.528,-0.23,0.12
2021-08-19 16:30:55.532,-0.135,0.12
2021-08-19 16:30:55.536,-0.07,0.12
2021-08-19 16:30:55.540,-0.065,0.1
2021-08-19 16:30:55.544,-0.055,0.055
2021-08-19 16:30:55.548,-0.09,0.04
2021-08-19 16:30:55.552,-0.13,0.02
2021-08-19 16:30:55.556,-0.16,0.06
2021-08-19 16:30:55.560,-0.17,0.06
2021-08-19 16:30:55.564,-0.215,0.07
2021-08-19 16:30:55.568,-0.265,0.08
2021-08-19 16:30:55.572,-0.255,0.09
2021-08-19 16:30:55.576,-0.345,0.1
2021-08-19 16:30:55.580,-0.4,0.085
2021-08-19 16:30:55.584,-0.385,0.07
2021-08-19 16:30:55.588,-0.39,0.075
2021-08-19 16:30:55.592,-0.405,0.075
2021-08-19 16:30:55.596,-0.415,0.075
2021-08-19 16:30:55.600,-0.39,0.08
2021-08-19 16:30:55.604,-0.395,0.07
2021-08-19 16:30:55.608,-0.41,0.08
2021-08-19 16:30:55.612,-0.385,0.075
2021-08-19 16:30:55.616,-0.385,0.07
2021-08-19 16:30:55.620,-0.415,0.07
2021-08-19 16:30:55.624,-0.4,0.075
2021-08-19 16:30:55.628,-0.37,0.1
2021-08-19 16:30:55.632,-0.395,0.09
2021-08-19 16:30:55.636,-0.405,0.17
2021-08-19 16:30:55.640,-0.445,0.21
2021-08-19 16:30:55.644,-0.42,0.21
2021-08-19 16:30:55.648,-0.21,0.075
2021-08-19 16:30:55.652,0.265,-0.06
2021-08-19 16:30:55.656,0.935,-0.155
2021-08-19 16:30:55.660,1.61,-0.355
2021-08-19 16:30:55.668,1.705,-0.99
2021-08-19 16:30:55.672,0.66,-1.04
2021-08-19 16:30:55.676,-0.34,-0.79
2021-08-19 16:30:55.680,-1.045,-0.55
2021-08-19 16:30:55.684,-1.15,-0.39
2021-08-19 16:30:55.688,-0.955,-0.23
2021-08-19 16:30:55.692,-0.78,-0.2
2021-08-19 16:30:55.696,-0.625,-0.145
2021-08-19 16:30:55.700,-0.535,-0.06
2021-08-19 16:30:55.704,-0.47,0.0
2021-08-19 16:30:55.708,-0.465,0.04
2021-08-19 16:30:55.712,-0.455,0.06
2021-08-19 16:30:55.716,-0.435,0.075
2021-08-19 16:30:55.720,-0.425,0.09
2021-08-19 16:30:55.724,-0.435,0.07
2021-08-19 16:30:55.728,-0.435,0.09
2021-08-19 16:30:55.732,-0.44,0.105
2021-08-19 16:30:55.736,-0.435,0.105
2021-08-19 16:30:55.740,-0.455,0.105
2021-08-19 16:30:55.744,-0.41,0.125
2021-08-19 16:30:55.748,-0.41,0.12
2021-08-19 16:30:55.752,-0.41,0.11
2021-08-19 16:30:55.756,-0.415,0.13
2021-08-19 16:30:55.760,-0.4,0.115
2021-08-19 16:30:55.764,-0.415,0.115
2021-08-19 16:30:55.768,-0.41,0.11
2021-08-19 16:30:55.772,-0.38,0.12
2021-08-19 16:30:55.776,-0.4,0.115
2021-08-19 16:30:55.780,-0.405,0.11
2021-08-19 16:30:55.784,-0.375,0.125
2021-08-19 16:30:55.788,-0.375,0.135
2021-08-19 16:30:55.792,-0.395,0.115
2021-08-19 16:30:55.796,-0.395,0.135
2021-08-19 16:30:55.800,-0.365,0.13
2021-08-19 16:30:55.804,-0.36,0.11
2021-08-19 16:30:55.808,-0.365,0.105
2021-08-19 16:30:55.812,-0.34,0.11
2021-08-19 16:30:55.816,-0.34,0.12
2021-08-19 16:30:55.820,-0.355,0.125
2021-08-19 16:30:55.824,-0.3,0.125
2021-08-19 16:30:55.828,-0.325,0.115
2021-08-19 16:30:55.832,-0.315,0.105
2021-08-19 16:30:55.836,-0.295,0.105
2021-08-19 16:30:55.840,-0.29,0.1
2021-08-19 16:30:55.844,-0.28,0.105
2021-08-19 16:30:55.848,-0.275,0.085
2021-08-19 16:30:55.852,-0.245,0.075
2021-08-19 16:30:55.856,-0.24,0.09
2021-08-19 16:30:55.860,-0.225,0.06
2021-08-19 16:30:55.864,-0.19,0.075
2021-08-19 16:30:55.868,-0.18,0.07
2021-08-19 16:30:55.872,-0.18,0.035
2021-08-19 16:30:55.876,-0.16,0.045
2021-08-19 16:30:55.880,-0.125,0.035
2021-08-19 16:30:55.884,-0.12,0.02
2021-08-19 16:30:55.888,-0.12,0.02
2021-08-19 16:30:55.892,-0.09,0.01
2021-08-19 16:30:55.896,-0.095,0.005
2021-08-19 16:30:55.900,-0.085,0.0
2021-08-19 16:30:55.904,-0.075,-0.005
2021-08-19 16:30:55.908,-0.085,-0.015
2021-08-19 16:30:55.912,-0.09,0.0
2021-08-19 16:30:55.916,-0.06,-0.005
2021-08-19 16:30:55.920,-0.055,-0.015
2021-08-19 16:30:55.924,-0.065,-0.01
2021-08-19 16:30:55.928,-0.04,-0.01
2021-08-19 16:30:55.932,0.0,-0.005
2021-08-19 16:30:55.936,0.0,-0.005
2021-08-19 16:30:55.940,-0.005,0.01
2021-08-19 16:30:55.944,0.03,0.03
2021-08-19 16:30:55.948,0.0,0.04
2021-08-19 16:30:55.952,-0.005,0.03
2021-08-19 16:30:55.956,-0.01,0.055
2021-08-19 16:30:55.960,-0.035,0.07
2021-08-19 16:30:55.964,-0.075,0.07
2021-08-19 16:30:55.968,-0.1,0.1
2021-08-19 16:30:55.972,-0.12,0.085
2021-08-19 16:30:55.976,-0.145,0.085
2021-08-19 16:30:55.980,-0.19,0.1
2021-08-19 16:30:55.984,-0.165,0.105
2021-08-19 16:30:55.988,-0.2,0.115
2021-08-19 16:30:55.992,-0.22,0.115
2021-08-19 16:30:55.996,-0.215,0.1
2021-08-19 16:30:56.000,-0.245,0.1
2021-08-19 16:30:56.004,-0.265,0.095
2021-08-19 16:30:56.008,-0.26,0.1
2021-08-19 16:30:56.012,-0.25,0.11
2021-08-19 16:30:56.016,-0.25,0.1
2021-08-19 16:30:56.020,-0.27,0.115
2021-08-19 16:30:56.024,-0.25,0.105
2021-08-19 16:30:56.028,-0.26,0.105
2021-08-19 16:30:56.032,-0.265,0.12
2021-08-19 16:30:56.036,-0.24,0.14
2021-08-19 16:30:56.040,-0.22,0.12
2021-08-19 16:30:56.044,-0.23,0.125
2021-08-19 16:30:56.048,-0.21,0.13
2021-08-19 16:30:56.052,-0.185,0.135
2021-08-19 16:30:56.056,-0.185,0.115
2021-08-19 16:30:56.060,-0.19,0.12
2021-08-19 16:30:56.064,-0.155,0.12
2021-08-19 16:30:56.068,-0.16,0.115
2021-08-19 16:30:56.072,-0.16,0.12
2021-08-19 16:30:56.076,-0.14,0.115
2021-08-19 16:30:56.080,-0.145,0.1
2021-08-19 16:30:56.084,-0.14,0.115
2021-08-19 16:30:56.088,-0.135,0.12
2021-08-19 16:30:56.092,-0.11,0.125
2021-08-19 16:30:56.096,-0.12,0.1
2021-08-19 16:30:56.100,-0.125,0.105
2021-08-19 16:30:56.104,-0.1,0.115
2021-08-19 16:30:56.108,-0.11,0.105
2021-08-19 16:30:56.112,-0.135,0.11
2021-08-19 16:30:56.116,-0.115,0.11
2021-08-19 16:30:56.120,-0.105,0.11
2021-08-19 16:30:56.124,-0.135,0.1
2021-08-19 16:30:56.128,-0.115,0.1
2021-08-19 16:30:56.132,-0.1,0.09
2021-08-19 16:30:56.136,-0.13,0.1
2021-08-19 16:30:56.140,-0.145,0.1
2021-08-19 16:30:56.144,-0.13,0.115
2021-08-19 16:30:56.148,-0.14,0.105
2021-08-19 16:30:56.152,-0.16,0.09
2021-08-19 16:30:56.156,-0.155,0.115
2021-08-19 16:30:56.160,-0.15,0.115
2021-08-19 16:30:56.164,-0.165,0.115
2021-08-19 16:30:56.168,-0.175,0.13
2021-08-19 16:30:56.172,-0.155,0.115
2021-08-19 16:30:56.176,-0.17,0.11
2021-08-19 16:30:56.180,-0.18,0.11
2021-08-19 16:30:56.184,-0.175,0.095
2021-08-19 16:30:56.188,-0.165,0.11
2021-08-19 16:30:56.192,-0.185,0.11
2021-08-19 16:30:56.196,-0.185,0.11
2021-08-19 16:30:56.200,-0.19,0.115
2021-08-19 16:30:56.204,-0.205,0.11
2021-08-19 16:30:56.208,-0.2,0.11
2021-08-19 16:30:56.212,-0.165,0.12
2021-08-19 16:30:56.216,-0.19,0.115
2021-08-19 16:30:56.220,-0.2,0.115
2021-08-19 16:30:56.224,-0.19,0.1
2021-08-19 16:30:56.228,-0.185,0.12
2021-08-19 16:30:56.232,-0.205,0.105
2021-08-19 16:30:56.236,-0.195,0.11
2021-08-19 16:30:56.240,-0.175,0.125
2021-08-19 16:30:56.244,-0.215,0.125
2021-08-19 16:30:56.248,-0.195,0.12
2021-08-19 16:30:56.252,-0.185,0.11
2021-08-19 16:30:56.256,-0.205,0.115
2021-08-19 16:30:56.260,-0.21,0.12
2021-08-19 16:30:56.264,-0.19,0.12
2021-08-19 16:30:56.268,-0.19,0.105
2021-08-19 16:30:56.272,-0.215,0.085
2021-08-19 16:30:56.276,-0.19,0.105
2021-08-19 16:30:56.280,-0.19,0.125
2021-08-19 16:30:56.284,-0.21,0.105
2021-08-19 16:30:56.288,-0.195,0.12
2021-08-19 16:30:56.292,-0.185,0.12
2021-08-19 16:30:56.296,-0.205,0.115
2021-08-19 16:30:56.300,-0.21,0.105
2021-08-19 16:30:56.304,-0.18,0.105
2021-08-19 16:30:56.308,-0.21,0.09
2021-08-19 16:30:56.312,-0.215,0.1
2021-08-19 16:30:56.316,-0.195,0.12
2021-08-19 16:30:56.320,-0.2,0.12
2021-08-19 16:30:56.324,-0.24,0.095
2021-08-19 16:30:56.328,-0.215,0.1
2021-08-19 16:30:56.332,-0.19,0.095
2021-08-19 16:30:56.336,-0.22,0.095
2021-08-19 16:30:56.340,-0.205,0.11
2021-08-19 16:30:56.344,-0.215,0.1
2021-08-19 16:30:56.348,-0.215,0.085
2021-08-19 16:30:56.352,-0.23,0.1
2021-08-19 16:30:56.356,-0.205,0.105
2021-08-19 16:30:56.360,-0.205,0.115
2021-08-19 16:30:56.364,-0.22,0.095
2021-08-19 16:30:56.368,-0.19,0.1
2021-08-19 16:30:56.372,-0.195,0.1
2021-08-19 16:30:56.376,-0.215,0.085
2021-08-19 16:30:56.380,-0.2,0.09
2021-08-19 16:30:56.384,-0.175,0.1
2021-08-19 16:30:56.388,-0.175,0.085
2021-08-19 16:30:56.392,-0.16,0.095
2021-08-19 16:30:56.396,-0.13,0.105
2021-08-19 16:30:56.400,-0.11,0.135
2021-08-19 16:30:56.404,-0.12,0.115
2021-08-19 16:30:56.408,-0.045,0.13
2021-08-19 16:30:56.412,0.045,0.12
2021-08-19 16:30:56.416,0.08,0.115
2021-08-19 16:30:56.420,0.125,0.085
2021-08-19 16:30:56.424,0.13,0.055
2021-08-19 16:30:56.428,0.065,0.015
2021-08-19 16:30:56.432,0.02,0.03
2021-08-19 16:30:56.436,0.02,0.06
2021-08-19 16:30:56.440,-0.01,0.065
2021-08-19 16:30:56.444,-0.09,0.075
2021-08-19 16:30:56.448,-0.08,0.095
2021-08-19 16:30:56.452,-0.08,0.09
2021-08-19 16:30:56.456,-0.18,0.1
2021-08-19 16:30:56.460,-0.255,0.1
2021-08-19 16:30:56.464,-0.24,0.105
2021-08-19 16:30:56.468,-0.255,0.1
2021-08-19 16:30:56.472,-0.26,0.085
2021-08-19 16:30:56.476,-0.245,0.075
2021-08-19 16:30:56.480,-0.245,0.085
2021-08-19 16:30:56.484,-0.265,0.075
2021-08-19 16:30:56.488,-0.25,0.085
2021-08-19 16:30:56.492,-0.24,0.08
2021-08-19 16:30:56.496,-0.26,0.075
2021-08-19 16:30:56.500,-0.245,0.08
2021-08-19 16:30:56.504,-0.225,0.065
2021-08-19 16:30:56.508,-0.25,0.08
2021-08-19 16:30:56.512,-0.245,0.1
2021-08-19 16:30:56.516,-0.25,0.165
2021-08-19 16:30:56.520,-0.285,0.21
2021-08-19 16:30:56.524,-0.28,0.25
2021-08-19 16:30:56.528,-0.13,0.165
2021-08-19 16:30:56.532,0.2,-0.02
2021-08-19 16:30:56.536,0.78,-0.11
2021-08-19 16:30:56.540,1.41,-0.225
2021-08-19 16:30:56.544,1.985,-0.475
2021-08-19 16:30:56.552,1.39,-1.145
2021-08-19 16:30:56.556,0.35,-1.065
2021-08-19 16:30:56.560,-0.625,-0.77
2021-08-19 16:30:56.564,-1.1,-0.615
2021-08-19 16:30:56.568,-0.985,-0.39
2021-08-19 16:30:56.572,-0.745,-0.255
2021-08-19 16:30:56.576,-0.59,-0.185
2021-08-19 16:30:56.580,-0.46,-0.095
2021-08-19 16:30:56.584,-0.39,-0.04
2021-08-19 16:30:56.588,-0.37,0.005
2021-08-19 16:30:56.592,-0.35,0.045
2021-08-19 16:30:56.596,-0.33,0.06
2021-08-19 16:30:56.600,-0.34,0.08
2021-08-19 16:30:56.604,-0.34,0.085
2021-08-19 16:30:56.608,-0.32,0.105
2021-08-19 16:30:56.612,-0.32,0.105
2021-08-19 16:30:56.616,-0.345,0.1
2021-08-19 16:30:56.620,-0.335,0.095
2021-08-19 16:30:56.624,-0.32,0.09
2021-08-19 16:30:56.628,-0.315,0.095
2021-08-19 16:30:56.632,-0.335,0.09
2021-08-19 16:30:56.636,-0.305,0.11
2021-08-19 16:30:56.640,-0.32,0.09
2021-08-19 16:30:56.644,-0.315,0.08
2021-08-19 16:30:56.648,-0.305,0.11
2021-08-19 16:30:56.652,-0.305,0.09
2021-08-19 16:30:56.656,-0.32,0.095
2021-08-19 16:30:56.660,-0.3,0.085
2021-08-19 16:30:56.664,-0.305,0.09
2021-08-19 16:30:56.668,-0.32,0.1
2021-08-19 16:30:56.672,-0.305,0.095
2021-08-19 16:30:56.676,-0.28,0.085
2021-08-19 16:30:56.680,-0.29,0.075
2021-08-19 16:30:56.684,-0.305,0.075
2021-08-19 16:30:56.688,-0.275,0.08
2021-08-19 16:30:56.692,-0.265,0.075
2021-08-19 16:30:56.696,-0.285,0.08
2021-08-19 16:30:56.700,-0.265,0.08
2021-08-19 16:30:56.704,-0.26,0.06
2021-08-19 16:30:56.708,-0.255,0.045
2021-08-19 16:30:56.712,-0.245,0.05
2021-08-19 16:30:56.716,-0.22,0.05
2021-08-19 16:30:56.720,-0.225,0.045
2021-08-19 16:30:56.724,-0.22,0.05
2021-08-19 16:30:56.728,-0.18,0.04
2021-08-19 16:30:56.732,-0.175,0.015
2021-08-19 16:30:56.736,-0.18,0.02
2021-08-19 16:30:56.740,-0.155,0.02
2021-08-19 16:30:56.744,-0.115,0.0
2021-08-19 16:30:56.748,-0.1,0.0
2021-08-19 16:30:56.752,-0.105,0.0
2021-08-19 16:30:56.756,-0.085,-0.025
2021-08-19 16:30:56.760,-0.06,-0.035
2021-08-19 16:30:56.764,-0.055,-0.03
2021-08-19 16:30:56.768,-0.035,-0.045
2021-08-19 16:30:56.772,-0.025,-0.05
2021-08-19 16:30:56.776,-0.03,-0.065
2021-08-19 16:30:56.780,-0.015,-0.05
2021-08-19 16:30:56.784,0.0,-0.05
2021-08-19 16:30:56.788,-0.01,-0.065
2021-08-19 16:30:56.792,0.0,-0.095
2021-08-19 16:30:56.796,0.015,-0.1
2021-08-19 16:30:56.800,0.015,-0.1
2021-08-19 16:30:56.804,0.0,-0.105
2021-08-19 16:30:56.808,0.04,-0.095
2021-08-19 16:30:56.812,0.055,-0.095
2021-08-19 16:30:56.816,0.055,-0.095
2021-08-19 16:30:56.820,0.105,-0.07
2021-08-19 16:30:56.824,0.095,-0.07
2021-08-19 16:30:56.828,0.085,-0.06
2021-08-19 16:30:56.832,0.085,-0.05
2021-08-19 16:30:56.836,0.08,-0.055
2021-08-19 16:30:56.840,0.04,-0.04
2021-08-19 16:30:56.844,0.035,-0.015
2021-08-19 16:30:56.848,0.015,0.005
2021-08-19 16:30:56.852,-0.03,0.0
2021-08-19 16:30:56.856,-0.06,-0.005
2021-08-19 16:30:56.860,-0.055,0.01
2021-08-19 16:30:56.864,-0.07,0.015
2021-08-19 16:30:56.868,-0.13,0.02
2021-08-19 16:30:56.872,-0.115,0.02
2021-08-19 16:30:56.876,-0.12,0.01
2021-08-19 16:30:56.880,-0.16,0.01
2021-08-19 16:30:56.884,-0.16,0.03
2021-08-19 16:30:56.888,-0.155,0.025
2021-08-19 16:30:56.892,-0.175,0.015
2021-08-19 16:30:56.896,-0.185,0.04
2021-08-19 16:30:56.900,-0.18,0.03
2021-08-19 16:30:56.904,-0.18,0.05
2021-08-19 16:30:56.908,-0.195,0.04
2021-08-19 16:30:56.912,-0.165,0.05
2021-08-19 16:30:56.916,-0.18,0.035
2021-08-19 16:30:56.920,-0.195,0.045
2021-08-19 16:30:56.924,-0.175,0.04
2021-08-19 16:30:56.928,-0.15,0.055
2021-08-19 16:30:56.932,-0.175,0.04
2021-08-19 16:30:56.936,-0.17,0.055
2021-08-19 16:30:56.940,-0.145,0.065
2021-08-19 16:30:56.944,-0.15,0.045
2021-08-19 16:30:56.948,-0.17,0.045
2021-08-19 16:30:56.952,-0.14,0.05
2021-08-19 16:30:56.956,-0.115,0.04
2021-08-19 16:30:56.960,-0.13,0.04
2021-08-19 16:30:56.964,-0.13,0.04
2021-08-19 16:30:56.968,-0.105,0.045
2021-08-19 16:30:56.972,-0.1,0.03
2021-08-19 16:30:56.976,-0.1,0.05
2021-08-19 16:30:56.980,-0.08,0.05
2021-08-19 16:30:56.984,-0.1,0.03
2021-08-19 16:30:56.988,-0.11,0.03
2021-08-19 16:30:56.992,-0.075,0.025
2021-08-19 16:30:56.996,-0.085,0.04
2021-08-19 16:30:57.000,-0.085,0.04
2021-08-19 16:30:57.004,-0.09,0.03
2021-08-19 16:30:57.008,-0.07,0.035
2021-08-19 16:30:57.012,-0.09,0.025
2021-08-19 16:30:57.016,-0.095,0.02
2021-08-19 16:30:57.020,-0.08,0.02
2021-08-19 16:30:57.024,-0.08,0.035
2021-08-19 16:30:57.028,-0.105,0.025
2021-08-19 16:30:57.032,-0.1,0.02
2021-08-19 16:30:57.036,-0.09,0.02
2021-08-19 16:30:57.040,-0.115,0.02
2021-08-19 16:30:57.044,-0.12,0.045
2021-08-19 16:30:57.048,-0.11,0.04
2021-08-19 16:30:57.052,-0.15,0.02
2021-08-19 16:30:57.056,-0.15,0.015
2021-08-19 16:30:57.060,-0.135,0.035
2021-08-19 16:30:57.064,-0.14,0.025
2021-08-19 16:30:57.068,-0.155,0.035
2021-08-19 16:30:57.072,-0.14,0.05
2021-08-19 16:30:57.076,-0.15,0.03
2021-08-19 16:30:57.080,-0.16,0.025
2021-08-19 16:30:57.084,-0.16,0.03
2021-08-19 16:30:57.088,-0.155,0.035
2021-08-19 16:30:57.092,-0.165,0.02
2021-08-19 16:30:57.096,-0.17,0.03
2021-08-19 16:30:57.100,-0.16,0.045
2021-08-19 16:30:57.104,-0.17,0.05
2021-08-19 16:30:57.108,-0.18,0.04
2021-08-19 16:30:57.112,-0.17,0.03
2021-08-19 16:30:57.116,-0.155,0.03
2021-08-19 16:30:57.120,-0.175,0.025
2021-08-19 16:30:57.124,-0.185,0.04
2021-08-19 16:30:57.128,-0.155,0.04
2021-08-19 16:30:57.132,-0.185,0.035
2021-08-19 16:30:57.136,-0.2,0.05
2021-08-19 16:30:57.140,-0.155,0.045
2021-08-19 16:30:57.144,-0.18,0.045
2021-08-19 16:30:57.148,-0.18,0.035
2021-08-19 16:30:57.152,-0.15,0.035
2021-08-19 16:30:57.156,-0.165,0.055
2021-08-19 16:30:57.160,-0.195,0.06
2021-08-19 16:30:57.164,-0.175,0.045
2021-08-19 16:30:57.168,-0.165,0.04
2021-08-19 16:30:57.172,-0.175,0.035
2021-08-19 16:30:57.176,-0.185,0.035
2021-08-19 16:30:57.180,-0.17,0.05
2021-08-19 16:30:57.184,-0.17,0.055
2021-08-19 16:30:57.188,-0.19,0.035
2021-08-19 16:30:57.192,-0.155,0.055
2021-08-19 16:30:57.196,-0.185,0.04
2021-08-19 16:30:57.200,-0.215,0.05
2021-08-19 16:30:57.204,-0.17,0.06
2021-08-19 16:30:57.208,-0.16,0.045
2021-08-19 16:30:57.212,-0.185,0.045
2021-08-19 16:30:57.216,-0.195,0.05
2021-08-19 16:30:57.220,-0.155,0.055
2021-08-19 16:30:57.224,-0.16,0.05
2021-08-19 16:30:57.228,-0.195,0.05
2021-08-19 16:30:57.232,-0.155,0.05
2021-08-19 16:30:57.236,-0.175,0.065
2021-08-19 16:30:57.240,-0.185,0.045
2021-08-19 16:30:57.244,-0.17,0.06
2021-08-19 16:30:57.248,-0.16,0.055
2021-08-19 16:30:57.252,-0.18,0.055
2021-08-19 16:30:57.256,-0.17,0.06
2021-08-19 16:30:57.260,-0.13,0.045
2021-08-19 16:30:57.264,-0.145,0.04
2021-08-19 16:30:57.268,-0.135,0.05
2021-08-19 16:30:57.272,-0.07,0.075
2021-08-19 16:30:57.276,-0.065,0.085
2021-08-19 16:30:57.280,-0.055,0.095
2021-08-19 16:30:57.284,0.055,0.085
2021-08-19 16:30:57.288,0.125,0.09
2021-08-19 16:30:57.292,0.155,0.075
2021-08-19 16:30:57.296,0.175,0.05
2021-08-19 16:30:57.300,0.175,0.0
2021-08-19 16:30:57.304,0.08,-0.015
2021-08-19 16:30:57.308,0.07,0.0
2021-08-19 16:30:57.312,0.075,0.02
2021-08-19 16:30:57.316,0.005,0.03
2021-08-19 16:30:57.320,-0.055,0.04
2021-08-19 16:30:57.324,-0.05,0.05
2021-08-19 16:30:57.328,-0.08,0.045
2021-08-19 16:30:57.332,-0.185,0.05
2021-08-19 16:30:57.336,-0.205,0.045
2021-08-19 16:30:57.340,-0.195,0.055
2021-08-19 16:30:57.344,-0.205,0.04
2021-08-19 16:30:57.348,-0.22,0.055
2021-08-19 16:30:57.352,-0.17,0.05
2021-08-19 16:30:57.356,-0.19,0.04
2021-08-19 16:30:57.360,-0.18,0.05
2021-08-19 16:30:57.364,-0.18,0.055
2021-08-19 16:30:57.368,-0.185,0.035
2021-08-19 16:30:57.372,-0.195,0.045
2021-08-19 16:30:57.376,-0.185,0.025
2021-08-19 16:30:57.380,-0.175,0.05
2021-08-19 16:30:57.384,-0.2,0.055
2021-08-19 16:30:57.388,-0.2,0.1
2021-08-19 16:30:57.392,-0.19,0.14
2021-08-19 16:30:57.396,-0.22,0.18
2021-08-19 16:30:57.400,-0.16,0.145
2021-08-19 16:30:57.404,0.09,-0.015
2021-08-19 16:30:57.408,0.605,-0.16
2021-08-19 16:30:57.412,1.205,-0.24
2021-08-19 16:30:57.416,1.81,-0.49
2021-08-19 16:30:57.424,1.665,-1.165
2021-08-19 16:30:57.428,0.65,-1.165
2021-08-19 16:30:57.432,-0.305,-0.85
2021-08-19 16:30:57.436,-0.95,-0.605
2021-08-19 16:30:57.440,-0.985,-0.47
2021-08-19 16:30:57.444,-0.76,-0.27
2021-08-19 16:30:57.448,-0.56,-0.25
2021-08-19 16:30:57.452,-0.42,-0.15
2021-08-19 16:30:57.456,-0.32,-0.09
2021-08-19 16:30:57.460,-0.275,-0.04
2021-08-19 16:30:57.464,-0.28,0.0
2021-08-19 16:30:57.468,-0.26,0.035
2021-08-19 16:30:57.472,-0.245,0.045
2021-08-19 16:30:57.476,-0.245,0.055
2021-08-19 16:30:57.480,-0.25,0.06
2021-08-19 16:30:57.484,-0.23,0.06
2021-08-19 16:30:57.488,-0.215,0.07
2021-08-19 16:30:57.492,-0.25,0.07
2021-08-19 16:30:57.496,-0.215,0.06
2021-08-19 16:30:57.500,-0.205,0.045
2021-08-19 16:30:57.504,-0.21,0.065
2021-08-19 16:30:57.508,-0.225,0.065
2021-08-19 16:30:57.512,-0.185,0.045
2021-08-19 16:30:57.516,-0.21,0.045
2021-08-19 16:30:57.520,-0.205,0.05
2021-08-19 16:30:57.524,-0.2,0.055
2021-08-19 16:30:57.528,-0.205,0.05
2021-08-19 16:30:57.532,-0.215,0.045
2021-08-19 16:30:57.536,-0.22,0.05
2021-08-19 16:30:57.540,-0.205,0.05
2021-08-19 16:30:57.544,-0.21,0.045
2021-08-19 16:30:57.548,-0.195,0.055
2021-08-19 16:30:57.552,-0.185,0.055
2021-08-19 16:30:57.556,-0.185,0.06
2021-08-19 16:30:57.560,-0.195,0.06
2021-08-19 16:30:57.564,-0.16,0.06
2021-08-19 16:30:57.568,-0.17,0.045
2021-08-19 16:30:57.572,-0.19,0.035
2021-08-19 16:30:57.576,-0.155,0.035
2021-08-19 16:30:57.580,-0.14,0.015
2021-08-19 16:30:57.584,-0.155,0.015
2021-08-19 16:30:57.588,-0.145,0.02
2021-08-19 16:30:57.592,-0.14,0.015
2021-08-19 16:30:57.596,-0.11,0.01
2021-08-19 16:30:57.600,-0.095,-0.005
2021-08-19 16:30:57.604,-0.07,0.0
2021-08-19 16:30:57.608,-0.055,-0.025
2021-08-19 16:30:57.612,-0.045,-0.025
2021-08-19 16:30:57.616,-0.035,-0.035
2021-08-19 16:30:57.620,0.0,-0.06
2021-08-19 16:30:57.624,0.0,-0.05
2021-08-19 16:30:57.628,0.02,-0.065
2021-08-19 16:30:57.632,0.07,-0.06
2021-08-19 16:30:57.636,0.07,-0.085
2021-08-19 16:30:57.640,0.055,-0.09
2021-08-19 16:30:57.644,0.08,-0.105
2021-08-19 16:30:57.648,0.09,-0.12
2021-08-19 16:30:57.652,0.06,-0.14
2021-08-19 16:30:57.656,0.1,-0.135
2021-08-19 16:30:57.660,0.12,-0.155
2021-08-19 16:30:57.664,0.085,-0.15
2021-08-19 16:30:57.668,0.09,-0.165
2021-08-19 16:30:57.672,0.14,-0.16
2021-08-19 16:30:57.676,0.12,-0.17
2021-08-19 16:30:57.680,0.115,-0.185
2021-08-19 16:30:57.684,0.165,-0.165
2021-08-19 16:30:57.688,0.17,-0.17
2021-08-19 16:30:57.692,0.15,-0.16
2021-08-19 16:30:57.696,0.175,-0.14
2021-08-19 16:30:57.700,0.19,-0.135
2021-08-19 16:30:57.704,0.175,-0.125
2021-08-19 16:30:57.708,0.16,-0.11
2021-08-19 16:30:57.712,0.15,-0.1
2021-08-19 16:30:57.716,0.1,-0.09
2021-08-19 16:30:57.720,0.06,-0.08
2021-08-19 16:30:57.724,0.07,-0.065
2021-08-19 16:30:57.728,0.025,-0.06
2021-08-19 16:30:57.732,-0.01,-0.04
2021-08-19 16:30:57.736,0.0,-0.05
2021-08-19 16:30:57.740,-0.01,-0.045
2021-08-19 16:30:57.744,-0.045,-0.035
2021-08-19 16:30:57.748,-0.07,-0.035
2021-08-19 16:30:57.752,-0.075,-0.035
2021-08-19 16:30:57.756,-0.095,-0.025
2021-08-19 16:30:57.760,-0.12,-0.02
2021-08-19 16:30:57.764,-0.11,-0.04
2021-08-19 16:30:57.768,-0.11,-0.035
2021-08-19 16:30:57.772,-0.13,-0.04
2021-08-19 16:30:57.776,-0.13,-0.02
2021-08-19 16:30:57.780,-0.13,-0.01
2021-08-19 16:30:57.784,-0.14,-0.03
2021-08-19 16:30:57.788,-0.145,0.0
2021-08-19 16:30:57.792,-0.14,-0.01
2021-08-19 16:30:57.796,-0.14,-0.025
2021-08-19 16:30:57.800,-0.135,-0.01
2021-08-19 16:30:57.804,-0.125,0.0
2021-08-19 16:30:57.808,-0.11,-0.005
2021-08-19 16:30:57.812,-0.125,-0.01
2021-08-19 16:30:57.816,-0.11,0.005
2021-08-19 16:30:57.820,-0.095,0.0
2021-08-19 16:30:57.824,-0.115,-0.01
2021-08-19 16:30:57.828,-0.1,-0.005
2021-08-19 16:30:57.832,-0.07,-0.005
2021-08-19 16:30:57.836,-0.065,-0.02
2021-08-19 16:30:57.840,-0.095,-0.02
2021-08-19 16:30:57.844,-0.07,-0.005
2021-08-19 16:30:57.848,-0.04,-0.015
2021-08-19 16:30:57.852,-0.055,-0.025
2021-08-19 16:30:57.856,-0.05,-0.025
2021-08-19 16:30:57.860,-0.055,-0.04
2021-08-19 16:30:57.864,-0.07,-0.02
2021-08-19 16:30:57.868,-0.05,-0.015
2021-08-19 16:30:57.872,-0.06,-0.01
2021-08-19 16:30:57.876,-0.06,-0.015
2021-08-19 16:30:57.880,-0.06,-0.03
2021-08-19 16:30:57.884,-0.055,-0.02
2021-08-19 16:30:57.888,-0.06,-0.03
2021-08-19 16:30:57.892,-0.075,-0.025
2021-08-19 16:30:57.896,-0.055,-0.04
2021-08-19 16:30:57.900,-0.065,-0.01
2021-08-19 16:30:57.904,-0.105,-0.04
2021-08-19 16:30:57.908,-0.095,-0.045
2021-08-19 16:30:57.912,-0.09,-0.035
2021-08-19 16:30:57.916,-0.105,-0.03
2021-08-19 16:30:57.920,-0.1,-0.03
2021-08-19 16:30:57.924,-0.09,-0.02
2021-08-19 16:30:57.928,-0.11,-0.03
2021-08-19 16:30:57.932,-0.12,-0.035
2021-08-19 16:30:57.936,-0.115,-0.03
2021-08-19 16:30:57.940,-0.13,-0.04
2021-08-19 16:30:57.944,-0.135,-0.05
2021-08-19 16:30:57.948,-0.13,-0.01
2021-08-19 16:30:57.952,-0.1,-0.02
2021-08-19 16:30:57.956,-0.15,-0.03
2021-08-19 16:30:57.960,-0.165,-0.025
2021-08-19 16:30:57.964,-0.16,-0.035
2021-08-19 16:30:57.968,-0.145,-0.015
2021-08-19 16:30:57.972,-0.175,-0.015
2021-08-19 16:30:57.976,-0.135,-0.005
2021-08-19 16:30:57.980,-0.135,-0.02
2021-08-19 16:30:57.984,-0.165,-0.03
2021-08-19 16:30:57.988,-0.16,-0.02
2021-08-19 16:30:57.992,-0.15,-0.03
2021-08-19 16:30:57.996,-0.16,-0.03
2021-08-19 16:30:58.000,-0.175,-0.015
2021-08-19 16:30:58.004,-0.14,-0.015
2021-08-19 16:30:58.008,-0.155,-0.015
2021-08-19 16:30:58.012,-0.175,-0.015
2021-08-19 16:30:58.016,-0.165,-0.02
2021-08-19 16:30:58.020,-0.155,-0.035
2021-08-19 16:30:58.024,-0.195,-0.01
2021-08-19 16:30:58.028,-0.2,-0.01
2021-08-19 16:30:58.032,-0.2,-0.025
2021-08-19 16:30:58.036,-0.21,-0.015
2021-08-19 16:30:58.040,-0.205,-0.01
2021-08-19 16:30:58.044,-0.18,-0.01
2021-08-19 16:30:58.048,-0.18,0.0
2021-08-19 16:30:58.052,-0.2,-0.015
2021-08-19 16:30:58.056,-0.205,-0.01
2021-08-19 16:30:58.060,-0.22,-0.025
2021-08-19 16:30:58.064,-0.215,-0.035
2021-08-19 16:30:58.068,-0.21,-0.025
2021-08-19 16:30:58.072,-0.21,-0.025
2021-08-19 16:30:58.076,-0.205,-0.03
2021-08-19 16:30:58.080,-0.2,-0.025
2021-08-19 16:30:58.084,-0.19,-0.025
2021-08-19 16:30:58.088,-0.21,-0.02
2021-08-19 16:30:58.092,-0.21,-0.025
2021-08-19 16:30:58.096,-0.19,-0.02
2021-08-19 16:30:58.100,-0.2,-0.015
2021-08-19 16:30:58.104,-0.21,-0.015
2021-08-19 16:30:58.108,-0.21,-0.01
2021-08-19 16:30:58.112,-0.195,-0.025
2021-08-19 16:30:58.116,-0.225,-0.03
2021-08-19 16:30:58.120,-0.215,-0.04
2021-08-19 16:30:58.124,-0.19,-0.035
2021-08-19 16:30:58.128,-0.18,-0.04
2021-08-19 16:30:58.132,-0.18,-0.045
2021-08-19 16:30:58.136,-0.125,0.0
2021-08-19 16:30:58.140,-0.115,0.015
2021-08-19 16:30:58.144,-0.115,0.025
2021-08-19 16:30:58.148,-0.025,0.015
2021-08-19 16:30:58.152,0.07,0.005
2021-08-19 16:30:58.156,0.095,0.025
2021-08-19 16:30:58.160,0.115,0.015
2021-08-19 16:30:58.164,0.125,-0.04
2021-08-19 16:30:58.168,0.08,-0.06
2021-08-19 16:30:58.172,0.045,-0.04
2021-08-19 16:30:58.176,0.01,-0.04
2021-08-19 16:30:58.180,-0.015,-0.04
2021-08-19 16:30:58.184,-0.11,-0.015
2021-08-19 16:30:58.188,-0.08,-0.005
2021-08-19 16:30:58.192,-0.115,-0.01
2021-08-19 16:30:58.196,-0.205,-0.01
2021-08-19 16:30:58.200,-0.235,-0.01
2021-08-19 16:30:58.204,-0.24,-0.015
2021-08-19 16:30:58.208,-0.245,-0.01
2021-08-19 16:30:58.212,-0.24,-0.01
2021-08-19 16:30:58.216,-0.225,-0.01
2021-08-19 16:30:58.220,-0.245,-0.015
2021-08-19 16:30:58.224,-0.24,-0.015
2021-08-19 16:30:58.228,-0.21,-0.005
2021-08-19 16:30:58.232,-0.21,-0.015
2021-08-19 16:30:58.236,-0.22,-0.015
2021-08-19 16:30:58.240,-0.24,-0.01
2021-08-19 16:30:58.244,-0.2,-0.01
2021-08-19 16:30:58.248,-0.22,0.01
2021-08-19 16:30:58.252,-0.225,0.03
2021-08-19 16:30:58.256,-0.24,0.095
2021-08-19 16:30:58.260,-0.255,0.125
2021-08-19 16:30:58.264,-0.2,0.07
2021-08-19 16:30:58.268,0.105,-0.125
2021-08-19 16:30:58.272,0.615,-0.25
2021-08-19 16:30:58.276,1.205,-0.395
2021-08-19 16:30:58.280,1.8,-0.66
2021-08-19 16:30:58.288,1.345,-1.23
2021-08-19 16:30:58.292,0.36,-1.09
2021-08-19 16:30:58.296,-0.46,-0.665
2021-08-19 16:30:58.300,-0.925,-0.445
2021-08-19 16:30:58.304,-0.845,-0.295
2021-08-19 16:30:58.308,-0.65,-0.205
2021-08-19 16:30:58.312,-0.535,-0.225
2021-08-19 16:30:58.316,-0.395,-0.155
2021-08-19 16:30:58.320,-0.32,-0.09
2021-08-19 16:30:58.324,-0.295,-0.035
2021-08-19 16:30:58.328,-0.285,-0.01
2021-08-19 16:30:58.332,-0.265,0.01
2021-08-19 16:30:58.336,-0.255,0.01
2021-08-19 16:30:58.340,-0.265,0.02
2021-08-19 16:30:58.344,-0.3,0.02
2021-08-19 16:30:58.348,-0.28,0.035
2021-08-19 16:30:58.352,-0.25,0.04
2021-08-19 16:30:58.356,-0.275,0.04
2021-08-19 16:30:58.360,-0.265,0.055
2021-08-19 16:30:58.364,-0.245,0.045
2021-08-19 16:30:58.368,-0.25,0.035
2021-08-19 16:30:58.372,-0.26,0.03
2021-08-19 16:30:58.376,-0.24,0.04
2021-08-19 16:30:58.380,-0.255,0.055
2021-08-19 16:30:58.384,-0.255,0.04
2021-08-19 16:30:58.388,-0.245,0.035
2021-08-19 16:30:58.392,-0.245,0.045
2021-08-19 16:30:58.396,-0.26,0.035
2021-08-19 16:30:58.400,-0.24,0.04
2021-08-19 16:30:58.404,-0.21,0.04
2021-08-19 16:30:58.408,-0.24,0.035
2021-08-19 16:30:58.412,-0.245,0.04
2021-08-19 16:30:58.416,-0.23,0.045
2021-08-19 16:30:58.420,-0.225,0.035
2021-08-19 16:30:58.424,-0.23,0.04
2021-08-19 16:30:58.428,-0.2,0.035
2021-08-19 16:30:58.432,-0.175,0.03
2021-08-19 16:30:58.436,-0.195,0.015
2021-08-19 16:30:58.440,-0.19,0.03
2021-08-19 16:30:58.444,-0.165,0.015
2021-08-19 16:30:58.448,-0.16,0.01
2021-08-19 16:30:58.452,-0.155,0.025
2021-08-19 16:30:58.456,-0.135,0.005
2021-08-19 16:30:58.460,-0.135,0.005
2021-08-19 16:30:58.464,-0.12,0.0
2021-08-19 16:30:58.468,-0.075,-0.005
2021-08-19 16:30:58.472,-0.06,-0.025
2021-08-19 16:30:58.476,-0.075,-0.03
2021-08-19 16:30:58.480,-0.05,-0.045
2021-08-19 16:30:58.484,-0.02,-0.045
2021-08-19 16:30:58.488,-0.02,-0.045
2021-08-19 16:30:58.492,0.0,-0.055
2021-08-19 16:30:58.496,0.035,-0.075
2021-08-19 16:30:58.500,0.05,-0.08
2021-08-19 16:30:58.504,0.035,-0.095
2021-08-19 16:30:58.508,0.045,-0.1
2021-08-19 16:30:58.512,0.06,-0.1
2021-08-19 16:30:58.516,0.06,-0.11
2021-08-19 16:30:58.520,0.065,-0.115
2021-08-19 16:30:58.524,0.075,-0.105
2021-08-19 16:30:58.528,0.07,-0.125
2021-08-19 16:30:58.532,0.075,-0.13
2021-08-19 16:30:58.536,0.09,-0.09
2021-08-19 16:30:58.540,0.08,-0.13
2021-08-19 16:30:58.544,0.06,-0.13
2021-08-19 16:30:58.548,0.095,-0.11
2021-08-19 16:30:58.552,0.115,-0.11
2021-08-19 16:30:58.556,0.12,-0.1
2021-08-19 16:30:58.560,0.13,-0.1
2021-08-19 16:30:58.564,0.155,-0.085
2021-08-19 16:30:58.568,0.115,-0.07
2021-08-19 16:30:58.572,0.1,-0.055
2021-08-19 16:30:58.576,0.105,-0.06
2021-08-19 16:30:58.580,0.08,-0.045
2021-08-19 16:30:58.584,0.05,-0.035
2021-08-19 16:30:58.588,0.03,-0.035
2021-08-19 16:30:58.592,0.02,-0.015
2021-08-19 16:30:58.596,-0.015,-0.025
2021-08-19 16:30:58.600,-0.035,-0.015
2021-08-19 16:30:58.604,-0.065,0.0
2021-08-19 16:30:58.608,-0.08,0.0
2021-08-19 16:30:58.612,-0.1,-0.005
2021-08-19 16:30:58.616,-0.1,0.005
2021-08-19 16:30:58.620,-0.1,-0.01
2021-08-19 16:30:58.624,-0.14,0.01
2021-08-19 16:30:58.628,-0.14,0.01
2021-08-19 16:30:58.632,-0.135,0.01
2021-08-19 16:30:58.636,-0.15,0.005
2021-08-19 16:30:58.640,-0.175,0.005
2021-08-19 16:30:58.644,-0.14,0.015
2021-08-19 16:30:58.648,-0.15,0.025
2021-08-19 16:30:58.652,-0.155,0.015
2021-08-19 16:30:58.656,-0.135,0.025
2021-08-19 16:30:58.660,-0.135,0.01
2021-08-19 16:30:58.664,-0.14,0.02
2021-08-19 16:30:58.668,-0.125,0.005
2021-08-19 16:30:58.672,-0.095,0.025
2021-08-19 16:30:58.676,-0.105,0.01
2021-08-19 16:30:58.680,-0.1,0.01
2021-08-19 16:30:58.684,-0.075,0.0
2021-08-19 16:30:58.688,-0.075,0.0
2021-08-19 16:30:58.692,-0.07,0.005
2021-08-19 16:30:58.696,-0.04,0.02
2021-08-19 16:30:58.700,-0.055,0.005
2021-08-19 16:30:58.704,-0.055,0.005
2021-08-19 16:30:58.708,-0.045,0.005
2021-08-19 16:30:58.712,-0.02,-0.005
2021-08-19 16:30:58.716,-0.035,0.005
2021-08-19 16:30:58.720,-0.035,-0.01
2021-08-19 16:30:58.724,-0.015,-0.005
2021-08-19 16:30:58.728,-0.035,-0.005
2021-08-19 16:30:58.732,-0.03,-0.01
2021-08-19 16:30:58.736,-0.01,0.0
2021-08-19 16:30:58.740,-0.02,-0.01
2021-08-19 16:30:58.744,-0.045,-0.005
2021-08-19 16:30:58.748,-0.03,-0.005
2021-08-19 16:30:58.752,-0.035,0.0
2021-08-19 16:30:58.756,-0.05,-0.005
2021-08-19 16:30:58.760,-0.05,0.015
2021-08-19 16:30:58.764,-0.035,0.01
2021-08-19 16:30:58.768,-0.06,0.0
2021-08-19 16:30:58.772,-0.08,-0.01
2021-08-19 16:30:58.776,-0.08,0.005
2021-08-19 16:30:58.780,-0.06,0.0
2021-08-19 16:30:58.784,-0.095,0.01
2021-08-19 16:30:58.788,-0.105,0.015
2021-08-19 16:30:58.792,-0.09,0.02
2021-08-19 16:30:58.796,-0.125,0.005
2021-08-19 16:30:58.800,-0.12,0.0
2021-08-19 16:30:58.804,-0.115,0.0
2021-08-19 16:30:58.808,-0.13,0.01
2021-08-19 16:30:58.812,-0.15,0.01
2021-08-19 16:30:58.816,-0.105,0.01
2021-08-19 16:30:58.820,-0.13,0.0
2021-08-19 16:30:58.824,-0.155,0.0
2021-08-19 16:30:58.828,-0.135,0.0
2021-08-19 16:30:58.832,-0.13,0.01
2021-08-19 16:30:58.836,-0.155,0.015
2021-08-19 16:30:58.840,-0.15,0.01
2021-08-19 16:30:58.844,-0.145,0.02
2021-08-19 16:30:58.848,-0.145,0.0
2021-08-19 16:30:58.852,-0.155,0.005
2021-08-19 16:30:58.856,-0.145,0.02
2021-08-19 16:30:58.860,-0.155,0.01
2021-08-19 16:30:58.864,-0.17,0.01
2021-08-19 16:30:58.868,-0.155,0.015
2021-08-19 16:30:58.872,-0.15,0.02
2021-08-19 16:30:58.876,-0.16,0.01
2021-08-19 16:30:58.880,-0.175,0.005
2021-08-19 16:30:58.884,-0.15,0.015
2021-08-19 16:30:58.888,-0.185,0.015
2021-08-19 16:30:58.892,-0.18,0.025
2021-08-19 16:30:58.896,-0.175,0.0
2021-08-19 16:30:58.900,-0.16,0.005
2021-08-19 16:30:58.904,-0.19,0.005
2021-08-19 16:30:58.908,-0.17,0.02
2021-08-19 16:30:58.912,-0.16,0.0
2021-08-19 16:30:58.916,-0.21,0.01
2021-08-19 16:30:58.920,-0.205,0.01
2021-08-19 16:30:58.924,-0.18,0.01
2021-08-19 16:30:58.928,-0.195,0.01
2021-08-19 16:30:58.932,-0.195,0.015
2021-08-19 16:30:58.936,-0.19,0.01
2021-08-19 16:30:58.940,-0.195,0.01
2021-08-19 16:30:58.944,-0.21,0.005
2021-08-19 16:30:58.948,-0.18,0.02
2021-08-19 16:30:58.952,-0.175,0.01
2021-08-19 16:30:58.956,-0.21,0.03
2021-08-19 16:30:58.960,-0.2,0.03
2021-08-19 16:30:58.964,-0.185,0.03
2021-08-19 16:30:58.968,-0.22,0.035
2021-08-19 16:30:58.972,-0.215,0.035
2021-08-19 16:30:58.976,-0.19,0.025
2021-08-19 16:30:58.980,-0.205,0.03
2021-08-19 16:30:58.984,-0.195,0.01
2021-08-19 16:30:58.988,-0.19,0.015
2021-08-19 16:30:58.992,-0.185,0.015
2021-08-19 16:30:58.996,-0.17,0.015
2021-08-19 16:30:59.000,-0.155,0.025
2021-08-19 16:30:59.004,-0.115,0.05
2021-08-19 16:30:59.008,-0.11,0.045
2021-08-19 16:30:59.012,-0.11,0.065
2021-08-19 16:30:59.016,-0.015,0.055
2021-08-19 16:30:59.020,0.045,0.055
2021-08-19 16:30:59.024,0.075,0.045
2021-08-19 16:30:59.028,0.13,0.04
2021-08-19 16:30:59.032,0.135,-0.015
2021-08-19 16:30:59.036,0.07,-0.055
2021-08-19 16:30:59.040,0.035,-0.035
2021-08-19 16:30:59.044,0.015,-0.005
2021-08-19 16:30:59.048,-0.005,-0.015
2021-08-19 16:30:59.052,-0.08,0.01
2021-08-19 16:30:59.056,-0.08,0.02
2021-08-19 16:30:59.060,-0.075,0.035
2021-08-19 16:30:59.064,-0.175,0.03
2021-08-19 16:30:59.068,-0.225,0.025
2021-08-19 16:30:59.072,-0.23,0.03
2021-08-19 16:30:59.076,-0.245,0.035
2021-08-19 16:30:59.080,-0.245,0.025
2021-08-19 16:30:59.084,-0.24,0.035
2021-08-19 16:30:59.088,-0.235,0.025
2021-08-19 16:30:59.092,-0.25,0.025
2021-08-19 16:30:59.096,-0.22,0.025
2021-08-19 16:30:59.100,-0.22,0.02
2021-08-19 16:30:59.104,-0.235,0.02
2021-08-19 16:30:59.108,-0.235,0.02
2021-08-19 16:30:59.112,-0.215,0.045
2021-08-19 16:30:59.116,-0.225,0.05
2021-08-19 16:30:59.120,-0.235,0.05
2021-08-19 16:30:59.124,-0.23,0.11
2021-08-19 16:30:59.128,-0.27,0.16
2021-08-19 16:30:59.132,-0.255,0.185
2021-08-19 16:30:59.136,-0.105,0.095
2021-08-19 16:30:59.140,0.21,-0.085
2021-08-19 16:30:59.144,0.77,-0.18
2021-08-19 16:30:59.148,1.395,-0.3
2021-08-19 16:30:59.152,1.94,-0.58
2021-08-19 16:30:59.156,2.0,-0.945
2021-08-19 16:30:59.160,1.25,-1.185
2021-08-19 16:30:59.164,0.225,-1.055
2021-08-19 16:30:59.168,-0.7,-0.725
2021-08-19 16:30:59.172,-1.075,-0.595
2021-08-19 16:30:59.176,-0.92,-0.375
2021-08-19 16:30:59.180,-0.72,-0.27
2021-08-19 16:30:59.184,-0.565,-0.205
2021-08-19 16:30:59.188,-0.44,-0.105
2021-08-19 16:30:59.192,-0.395,-0.06
2021-08-19 16:30:59.196,-0.37,-0.005
2021-08-19 16:30:59.200,-0.335,0.035
2021-08-19 16:30:59.204,-0.33,0.05
2021-08-19 16:30:59.208,-0.355,0.055
2021-08-19 16:30:59.212,-0.33,0.045
2021-08-19 16:30:59.216,-0.32,0.06
2021-08-19 16:30:59.220,-0.325,0.075
2021-08-19 16:30:59.224,-0.335,0.065
2021-08-19 16:30:59.228,-0.32,0.055
2021-08-19 16:30:59.232,-0.305,0.08
2021-08-19 16:30:59.236,-0.32,0.07
2021-08-19 16:30:59.240,-0.31,0.06
2021-08-19 16:30:59.244,-0.295,0.075
2021-08-19 16:30:59.248,-0.32,0.09
2021-08-19 16:30:59.252,-0.32,0.065
2021-08-19 16:30:59.256,-0.3,0.09
2021-08-19 16:30:59.260,-0.3,0.085
2021-08-19 16:30:59.264,-0.32,0.08
2021-08-19 16:30:59.268,-0.305,0.085
2021-08-19 16:30:59.272,-0.28,0.09
2021-08-19 16:30:59.276,-0.3,0.1
2021-08-19 16:30:59.280,-0.3,0.09
2021-08-19 16:30:59.284,-0.28,0.085
2021-08-19 16:30:59.288,-0.275,0.085
2021-08-19 16:30:59.292,-0.29,0.09
2021-08-19 16:30:59.296,-0.26,0.085
2021-08-19 16:30:59.300,-0.26,0.09
2021-08-19 16:30:59.304,-0.275,0.085
2021-08-19 16:30:59.308,-0.265,0.08
2021-08-19 16:30:59.312,-0.23,0.075
2021-08-19 16:30:59.316,-0.235,0.07
2021-08-19 16:30:59.320,-0.225,0.075
2021-08-19 16:30:59.324,-0.195,0.07
2021-08-19 16:30:59.328,-0.185,0.075
2021-08-19 16:30:59.332,-0.195,0.065
2021-08-19 16:30:59.336,-0.17,0.055
2021-08-19 16:30:59.340,-0.145,0.045
2021-08-19 16:30:59.344,-0.14,0.03
2021-08-19 16:30:59.348,-0.115,0.035
2021-08-19 16:30:59.352,-0.105,0.025
2021-08-19 16:30:59.356,-0.08,0.005
2021-08-19 16:30:59.360,-0.07,0.0
2021-08-19 16:30:59.364,-0.025,0.005
2021-08-19 16:30:59.368,-0.01,-0.025
2021-08-19 16:30:59.372,-0.04,-0.035
2021-08-19 16:30:59.376,0.015,-0.03
2021-08-19 16:30:59.380,0.005,-0.035
2021-08-19 16:30:59.384,0.02,-0.04
2021-08-19 16:30:59.388,0.03,-0.055
2021-08-19 16:30:59.392,0.045,-0.055
2021-08-19 16:30:59.396,0.045,-0.075
2021-08-19 16:30:59.400,0.035,-0.075
2021-08-19 16:30:59.404,0.06,-0.075
2021-08-19 16:30:59.408,0.07,-0.095
2021-08-19 16:30:59.412,0.065,-0.1
2021-08-19 16:30:59.416,0.095,-0.07
2021-08-19 16:30:59.420,0.095,-0.075
2021-08-19 16:30:59.424,0.09,-0.085
2021-08-19 16:30:59.428,0.13,-0.07
2021-08-19 16:30:59.432,0.135,-0.06
2021-08-19 16:30:59.436,0.12,-0.05
2021-08-19 16:30:59.440,0.11,-0.04
2021-08-19 16:30:59.444,0.12,-0.025
2021-08-19 16:30:59.448,0.075,-0.015
2021-08-19 16:30:59.452,0.015,0.0
2021-08-19 16:30:59.456,0.015,0.015
2021-08-19 16:30:59.460,-0.005,0.015
2021-08-19 16:30:59.464,-0.04,0.015
2021-08-19 16:30:59.468,-0.07,0.02
2021-08-19 16:30:59.472,-0.07,0.03
2021-08-19 16:30:59.476,-0.1,0.03
2021-08-19 16:30:59.480,-0.14,0.035
2021-08-19 16:30:59.484,-0.13,0.035
2021-08-19 16:30:59.488,-0.155,0.04
2021-08-19 16:30:59.492,-0.17,0.045
2021-08-19 16:30:59.496,-0.16,0.04
2021-08-19 16:30:59.500,-0.18,0.05
2021-08-19 16:30:59.504,-0.19,0.03
2021-08-19 16:30:59.508,-0.17,0.045
2021-08-19 16:30:59.512,-0.18,0.05
2021-08-19 16:30:59.516,-0.2,0.055
2021-08-19 16:30:59.520,-0.205,0.06
2021-08-19 16:30:59.524,-0.18,0.055
2021-08-19 16:30:59.528,-0.2,0.06
2021-08-19 16:30:59.532,-0.22,0.075
2021-08-19 16:30:59.536,-0.195,0.07
2021-08-19 16:30:59.540,-0.17,0.055
2021-08-19 16:30:59.544,-0.185,0.055
2021-08-19 16:30:59.548,-0.165,0.07
2021-08-19 16:30:59.552,-0.15,0.075
2021-08-19 16:30:59.556,-0.155,0.075
2021-08-19 16:30:59.560,-0.16,0.065
2021-08-19 16:30:59.564,-0.125,0.07
2021-08-19 16:30:59.568,-0.14,0.07
2021-08-19 16:30:59.572,-0.135,0.05
2021-08-19 16:30:59.576,-0.12,0.065
2021-08-19 16:30:59.580,-0.11,0.055
2021-08-19 16:30:59.584,-0.115,0.055
2021-08-19 16:30:59.588,-0.115,0.055
2021-08-19 16:30:59.592,-0.08,0.055
2021-08-19 16:30:59.596,-0.105,0.05
2021-08-19 16:30:59.600,-0.1,0.045
2021-08-19 16:30:59.604,-0.06,0.055
2021-08-19 16:30:59.608,-0.07,0.04
2021-08-19 16:30:59.612,-0.1,0.025
2021-08-19 16:30:59.616,-0.09,0.05
2021-08-19 16:30:59.620,-0.075,0.05
2021-08-19 16:30:59.624,-0.1,0.045
2021-08-19 16:30:59.628,-0.07,0.055
2021-08-19 16:30:59.632,-0.075,0.04
2021-08-19 16:30:59.636,-0.095,0.03
2021-08-19 16:30:59.640,-0.115,0.04
2021-08-19 16:30:59.644,-0.095,0.055
2021-08-19 16:30:59.648,-0.11,0.05
2021-08-19 16:30:59.652,-0.11,0.04
2021-08-19 16:30:59.656,-0.115,0.03
2021-08-19 16:30:59.660,-0.12,0.05
2021-08-19 16:30:59.664,-0.15,0.04
2021-08-19 16:30:59.668,-0.135,0.03
2021-08-19 16:30:59.672,-0.13,0.045
2021-08-19 16:30:59.676,-0.16,0.035
2021-08-19 16:30:59.680,-0.17,0.05
2021-08-19 16:30:59.684,-0.155,0.035
2021-08-19 16:30:59.688,-0.17,0.04
2021-08-19 16:30:59.692,-0.185,0.035
2021-08-19 16:30:59.696,-0.18,0.035
2021-08-19 16:30:59.700,-0.18,0.05
2021-08-19 16:30:59.704,-0.205,0.025
2021-08-19 16:30:59.708,-0.18,0.035
2021-08-19 16:30:59.712,-0.17,0.04
2021-08-19 16:30:59.716,-0.21,0.035
2021-08-19 16:30:59.720,-0.205,0.03
2021-08-19 16:30:59.724,-0.185,0.035
2021-08-19 16:30:59.728,-0.195,0.025
2021-08-19 16:30:59.732,-0.225,0.03
2021-08-19 16:30:59.736,-0.205,0.05
2021-08-19 16:30:59.740,-0.185,0.04
2021-08-19 16:30:59.744,-0.205,0.03
2021-08-19 16:30:59.748,-0.205,0.045
2021-08-19 16:30:59.752,-0.2,0.045
2021-08-19 16:30:59.756,-0.2,0.04
2021-08-19 16:30:59.760,-0.22,0.04
2021-08-19 16:30:59.764,-0.195,0.03
2021-08-19 16:30:59.768,-0.235,0.025
2021-08-19 16:30:59.772,-0.22,0.025
2021-08-19 16:30:59.776,-0.21,0.035
2021-08-19 16:30:59.780,-0.225,0.03
2021-08-19 16:30:59.784,-0.23,0.035
2021-08-19 16:30:59.788,-0.205,0.035
2021-08-19 16:30:59.792,-0.205,0.04
2021-08-19 16:30:59.796,-0.21,0.045
2021-08-19 16:30:59.800,-0.225,0.05
2021-08-19 16:30:59.804,-0.21,0.03
2021-08-19 16:30:59.808,-0.225,0.04
2021-08-19 16:30:59.812,-0.235,0.055
2021-08-19 16:30:59.816,-0.21,0.045
2021-08-19 16:30:59.820,-0.21,0.05
2021-08-19 16:30:59.824,-0.22,0.04
2021-08-19 16:30:59.828,-0.22,0.055
2021-08-19 16:30:59.832,-0.22,0.045
2021-08-19 16:30:59.836,-0.22,0.035
2021-08-19 16:30:59.840,-0.22,0.05
2021-08-19 16:30:59.844,-0.2,0.055
2021-08-19 16:30:59.848,-0.21,0.03
2021-08-19 16:30:59.852,-0.225,0.03
2021-08-19 16:30:59.856,-0.215,0.03
2021-08-19 16:30:59.860,-0.195,0.035
2021-08-19 16:30:59.864,-0.22,0.03
2021-08-19 16:30:59.868,-0.18,0.035
2021-08-19 16:30:59.872,-0.17,0.04
2021-08-19 16:30:59.876,-0.155,0.035
2021-08-19 16:30:59.880,-0.135,0.075
2021-08-19 16:30:59.884,-0.105,0.075
2021-08-19 16:30:59.888,-0.06,0.07
2021-08-19 16:30:59.892,0.005,0.075
2021-08-19 16:30:59.896,0.09,0.085
2021-08-19 16:30:59.900,0.115,0.055
2021-08-19 16:30:59.904,0.105,0.015
2021-08-19 16:30:59.908,0.065,-0.02
2021-08-19 16:30:59.912,0.02,-0.01
2021-08-19 16:30:59.916,-0.02,0.01
2021-08-19 16:30:59.920,-0.025,0.015
2021-08-19 16:30:59.924,-0.09,0.02
2021-08-19 16:30:59.928,-0.115,0.04
2021-08-19 16:30:59.932,-0.14,0.045
2021-08-19 16:30:59.936,-0.235,0.045
2021-08-19 16:30:59.940,-0.285,0.04
2021-08-19 16:30:59.944,-0.29,0.045
2021-08-19 16:30:59.948,-0.27,0.05
2021-08-19 16:30:59.952,-0.28,0.06
2021-08-19 16:30:59.956,-0.29,0.05
2021-08-19 16:30:59.960,-0.28,0.045
2021-08-19 16:30:59.964,-0.27,0.035
2021-08-19 16:30:59.968,-0.31,0.045
2021-08-19 16:30:59.972,-0.285,0.05
2021-08-19 16:30:59.976,-0.26,0.045
2021-08-19 16:30:59.980,-0.26,0.03
2021-08-19 16:30:59.984,-0.28,0.04
2021-08-19 16:30:59.988,-0.27,0.065
2021-08-19 16:30:59.992,-0.275,0.06
2021-08-19 16:30:59.996,-0.28,0.12
2021-08-19 16:50:00.000,-0.41,-0.035
2021-08-19 16:50:00.004,-0.43,-0.025
2021-08-19 16:50:00.008,-0.425,-0.03
2021-08-19 16:50:00.012,-0.455,-0.03
2021-08-19 16:50:00.016,-0.465,-0.025
2021-08-19 16:50:00.020,-0.5,-0.04
2021-08-19 16:50:00.024,-0.51,0.0
2021-08-19 16:50:00.028,-0.5,0.0
2021-08-19 16:50:00.032,-0.5,-0.005
2021-08-19 16:50:00.036,-0.55,0.015
2021-08-19 16:50:00.040,-0.52,-0.005
2021-08-19 16:50:00.044,-0.505,-0.015
2021-08-19 16:50:00.048,-0.54,-0.025
2021-08-19 16:50:00.052,-0.525,0.01
2021-08-19 16:50:00.056,-0.54,-0.005
2021-08-19 16:50:00.060,-0.555,0.0
2021-08-19 16:50:00.064,-0.52,0.005
2021-08-19 16:50:00.068,-0.53,0.0
2021-08-19 16:50:00.072,-0.52,0.025
2021-08-19 16:50:00.076,-0.54,0.0
2021-08-19 16:50:00.080,-0.5,-0.015
2021-08-19 16:50:00.084,-0.525,-0.015
2021-08-19 16:50:00.088,-0.49,0.02
2021-08-19 16:50:00.092,-0.495,0.015
2021-08-19 16:50:00.096,-0.52,0.005
2021-08-19 16:50:00.100,-0.475,0.0
2021-08-19 16:50:00.104,-0.465,0.0
2021-08-19 16:50:00.108,-0.495,-0.005
2021-08-19 16:50:00.112,-0.495,-0.02
2021-08-19 16:50:00.116,-0.455,-0.02
2021-08-19 16:50:00.120,-0.47,0.0
2021-08-19 16:50:00.124,-0.465,-0.025
2021-08-19 16:50:00.128,-0.445,-0.01
2021-08-19 16:50:00.132,-0.465,0.0
2021-08-19 16:50:00.136,-0.46,-0.01
2021-08-19 16:50:00.140,-0.455,-0.005
2021-08-19 16:50:00.144,-0.49,-0.03
2021-08-19 16:50:00.148,-0.49,-0.03
2021-08-19 16:50:00.152,-0.465,0.0
2021-08-19 16:50:00.156,-0.49,0.0
2021-08-19 16:50:00.160,-0.485,-0.02
2021-08-19 16:50:00.164,-0.49,-0.005
2021-08-19 16:50:00.168,-0.48,-0.005
2021-08-19 16:50:00.172,-0.48,-0.02
2021-08-19 16:50:00.176,-0.485,-0.01
2021-08-19 16:50:00.180,-0.535,-0.02
2021-08-19 16:50:00.184,-0.56,-0.02
2021-08-19 16:50:00.188,-0.52,0.0
2021-08-19 16:50:00.192,-0.535,0.0
2021-08-19 16:50:00.196,-0.545,-0.015
2021-08-19 16:50:00.200,-0.535,0.0
2021-08-19 16:50:00.204,-0.545,0.0
2021-08-19 16:50:00.208,-0.54,0.005
2021-08-19 16:50:00.212,-0.565,-0.01
2021-08-19 16:50:00.216,-0.58,0.0
2021-08-19 16:50:00.220,-0.57,-0.01
2021-08-19 16:50:00.224,-0.545,0.0
2021-08-19 16:50:00.228,-0.55,0.0
2021-08-19 16:50:00.232,-0.575,-0.01
2021-08-19 16:50:00.236,-0.54,0.0
2021-08-19 16:50:00.240,-0.56,0.0
2021-08-19 16:50:00.244,-0.56,-0.01
2021-08-19 16:50:00.248,-0.545,-0.015
2021-08-19 16:50:00.252,-0.55,-0.03
2021-08-19 16:50:00.256,-0.555,-0.03
2021-08-19 16:50:00.260,-0.54,0.005
2021-08-19 16:50:00.264,-0.52,-0.015
2021-08-19 16:50:00.268,-0.535,-0.01
2021-08-19 16:50:00.272,-0.525,-0.015
2021-08-19 16:50:00.276,-0.5,0.005
2021-08-19 16:50:00.280,-0.53,-0.025
2021-08-19 16:50:00.284,-0.525,-0.03
2021-08-19 16:50:00.288,-0.505,-0.005
2021-08-19 16:50:00.292,-0.525,-0.035
2021-08-19 16:50:00.296,-0.52,-0.025
2021-08-19 16:50:00.300,-0.48,-0.02
2021-08-19 16:50:00.304,-0.51,-0.025
2021-08-19 16:50:00.308,-0.505,-0.015
2021-08-19 16:50:00.312,-0.49,0.0
2021-08-19 16:50:00.316,-0.505,-0.005
2021-08-19 16:50:00.320,-0.515,-0.03
2021-08-19 16:50:00.324,-0.5,-0.025
2021-08-19 16:50:00.328,-0.51,0.0
2021-08-19 16:50:00.332,-0.525,-0.02
2021-08-19 16:50:00.336,-0.505,0.0
2021-08-19 16:50:00.340,-0.525,0.01
2021-08-19 16:50:00.344,-0.535,0.0
2021-08-19 16:50:00.348,-0.52,-0.015
2021-08-19 16:50:00.352,-0.515,-0.035
2021-08-19 16:50:00.356,-0.525,0.0
2021-08-19 16:50:00.360,-0.51,-0.02
2021-08-19 16:50:00.364,-0.52,-0.01
2021-08-19 16:50:00.368,-0.54,-0.03
2021-08-19 16:50:00.372,-0.5,-0.02
2021-08-19 16:50:00.376,-0.48,-0.025
2021-08-19 16:50:00.380,-0.475,-0.02
2021-08-19 16:50:00.384,-0.445,0.0
2021-08-19 16:50:00.388,-0.44,0.02
2021-08-19 16:50:00.392,-0.42,0.04
2021-08-19 16:50:00.396,-0.325,0.03
2021-08-19 16:50:00.400,-0.28,0.02
2021-08-19 16:50:00.404,-0.225,0.03
2021-08-19 16:50:00.408,-0.175,0.02
2021-08-19 16:50:00.412,-0.195,-0.035
2021-08-19 16:50:00.416,-0.255,-0.045
2021-08-19 16:50:00.420,-0.28,-0.035
2021-08-19 16:50:00.424,-0.305,-0.045
2021-08-19 16:50:00.428,-0.375,-0.02
2021-08-19 16:50:00.432,-0.38,-0.015
2021-08-19 16:50:00.436,-0.375,0.005
2021-08-19 16:50:00.440,-0.45,-0.005
2021-08-19 16:50:00.444,-0.52,-0.015
2021-08-19 16:50:00.448,-0.525,-0.005
2021-08-19 16:50:00.452,-0.555,-0.025
2021-08-19 16:50:00.456,-0.535,-0.01
2021-08-19 16:50:00.460,-0.555,-0.03
2021-08-19 16:50:00.464,-0.555,-0.015
2021-08-19 16:50:00.468,-0.54,-0.025
2021-08-19 16:50:00.472,-0.535,-0.04
2021-08-19 16:50:00.476,-0.56,-0.015
2021-08-19 16:50:00.480,-0.535,-0.015
2021-08-19 16:50:00.484,-0.54,-0.025
2021-08-19 16:50:00.488,-0.55,-0.02
2021-08-19 16:50:00.492,-0.52,-0.01
2021-08-19 16:50:00.496,-0.495,0.0
2021-08-19 16:50:00.500,-0.52,0.03
2021-08-19 16:50:00.504,-0.565,0.075
2021-08-19 16:50:00.508,-0.575,0.11
2021-08-19 16:50:00.512,-0.47,0.07
2021-08-19 16:50:00.516,-0.19,-0.06
2021-08-19 16:50:00.520,0.38,-0.175
2021-08-19 16:50:00.524,1.0,-0.28
2021-08-19 16:50:00.528,1.645,-0.49
2021-08-19 16:50:00.532,1.835,-0.755
2021-08-19 16:50:00.536,1.23,-1.005
2021-08-19 16:50:00.540,0.31,-0.895
2021-08-19 16:50:00.544,-0.575,-0.61
2021-08-19 16:50:00.548,-1.045,-0.43
2021-08-19 16:50:00.552,-0.95,-0.275
2021-08-19 16:50:00.556,-0.825,-0.19
2021-08-19 16:50:00.560,-0.79,-0.19
2021-08-19 16:50:00.564,-0.68,-0.135
2021-08-19 16:50:00.568,-0.6,-0.08
2021-08-19 16:50:00.572,-0.615,-0.05
2021-08-19 16:50:00.576,-0.6,0.0
2021-08-19 16:50:00.580,-0.6,0.015
2021-08-19 16:50:00.584,-0.595,0.005
2021-08-19 16:50:00.588,-0.615,0.02
2021-08-19 16:50:00.592,-0.6,0.025
2021-08-19 16:50:00.596,-0.585,0.02
2021-08-19 16:50:00.600,-0.615,0.04
2021-08-19 16:50:00.604,-0.61,0.03
2021-08-19 16:50:00.608,-0.63,0.03
2021-08-19 16:50:00.612,-0.635,0.03
2021-08-19 16:50:00.616,-0.585,0.06
2021-08-19 16:50:00.620,-0.595,0.06
2021-08-19 16:50:00.624,-0.61,0.05
2021-08-19 16:50:00.628,-0.595,0.035
2021-08-19 16:50:00.632,-0.605,0.04
2021-08-19 16:50:00.636,-0.64,0.025
2021-08-19 16:50:00.640,-0.595,0.055
2021-08-19 16:50:00.644,-0.58,0.05
2021-08-19 16:50:00.648,-0.615,0.03
2021-08-19 16:50:00.652,-0.61,0.035
2021-08-19 16:50:00.656,-0.58,0.07
2021-08-19 16:50:00.660,-0.63,0.03
2021-08-19 16:50:00.664,-0.595,0.035
2021-08-19 16:50:00.668,-0.56,0.05
2021-08-19 16:50:00.672,-0.595,0.035
2021-08-19 16:50:00.676,-0.575,0.04
2021-08-19 16:50:00.680,-0.545,0.035
2021-08-19 16:50:00.684,-0.56,0.04
2021-08-19 16:50:00.688,-0.57,0.04
2021-08-19 16:50:00.692,-0.54,0.04
2021-08-19 16:50:00.696,-0.535,0.035
2021-08-19 16:50:00.700,-0.56,0.02
2021-08-19 16:50:00.704,-0.535,0.035
2021-08-19 16:50:00.708,-0.51,0.04
2021-08-19 16:50:00.712,-0.515,0.035
2021-08-19 16:50:00.716,-0.48,0.01
2021-08-19 16:50:00.720,-0.455,0.02
2021-08-19 16:50:00.724,-0.455,0.015
2021-08-19 16:50:00.728,-0.44,0.0
2021-08-19 16:50:00.732,-0.445,0.0
2021-08-19 16:50:00.736,-0.435,0.0
2021-08-19 16:50:00.740,-0.39,0.0
2021-08-19 16:50:00.744,-0.385,-0.01
2021-08-19 16:50:00.748,-0.38,-0.03
2021-08-19 16:50:00.752,-0.35,-0.035
2021-08-19 16:50:00.756,-0.32,-0.03
2021-08-19 16:50:00.760,-0.305,-0.045
2021-08-19 16:50:00.764,-0.27,-0.065
2021-08-19 16:50:00.768,-0.26,-0.07
2021-08-19 16:50:00.772,-0.285,-0.07
2021-08-19 16:50:00.776,-0.245,-0.09
2021-08-19 16:50:00.780,-0.24,-0.105
2021-08-19 16:50:00.784,-0.255,-0.095
2021-08-19 16:50:00.788,-0.24,-0.095
2021-08-19 16:50:00.792,-0.23,-0.11
2021-08-19 16:50:00.796,-0.23,-0.115
2021-08-19 16:50:00.800,-0.205,-0.105
2021-08-19 16:50:00.804,-0.19,-0.1
2021-08-19 16:50:00.808,-0.195,-0.115
2021-08-19 16:50:00.812,-0.175,-0.11
2021-08-19 16:50:00.816,-0.15,-0.09
2021-08-19 16:50:00.820,-0.19,-0.08
2021-08-19 16:50:00.824,-0.175,-0.075
2021-08-19 16:50:00.828,-0.165,-0.05
2021-08-19 16:50:00.832,-0.22,-0.06
2021-08-19 16:50:00.836,-0.24,-0.035
2021-08-19 16:50:00.840,-0.245,-0.02
2021-08-19 16:50:00.844,-0.285,-0.035
2021-08-19 16:50:00.848,-0.32,-0.005
2021-08-19 16:50:00.852,-0.33,-0.015
2021-08-19 16:50:00.856,-0.38,-0.005
2021-08-19 16:50:00.860,-0.4,0.0
2021-08-19 16:50:00.864,-0.405,0.015
2021-08-19 16:50:00.868,-0.42,0.0
2021-08-19 16:50:00.872,-0.465,0.015
2021-08-19 16:50:00.876,-0.465,0.015
2021-08-19 16:50:00.880,-0.465,0.015
2021-08-19 16:50:00.884,-0.48,0.0
2021-08-19 16:50:00.888,-0.445,-0.005
2021-08-19 16:50:00.892,-0.45,0.0
2021-08-19 16:50:00.896,-0.485,0.02
2021-08-19 16:50:00.900,-0.485,0.03
2021-08-19 16:50:00.904,-0.485,0.025
2021-08-19 16:50:00.908,-0.495,0.015
2021-08-19 16:50:00.912,-0.505,0.005
2021-08-19 16:50:00.916,-0.5,0.01
2021-08-19 16:50:00.920,-0.51,0.015
2021-08-19 16:50:00.924,-0.485,0.025
2021-08-19 16:50:00.928,-0.47,0.01
2021-08-19 16:50:00.932,-0.48,0.025
2021-08-19 16:50:00.936,-0.49,0.025
2021-08-19 16:50:00.940,-0.46,0.025
2021-08-19 16:50:00.944,-0.45,0.015
2021-08-19 16:50:00.948,-0.43,0.03
2021-08-19 16:50:00.952,-0.445,0.025
2021-08-19 16:50:00.956,-0.435,0.025
2021-08-19 16:50:00.960,-0.43,0.025
2021-08-19 16:50:00.964,-0.39,0.01
2021-08-19 16:50:00.968,-0.405,0.015
2021-08-19 16:50:00.972,-0.395,0.0
2021-08-19 16:50:00.976,-0.37,0.0
2021-08-19 16:50:00.980,-0.365,0.0
2021-08-19 16:50:00.984,-0.37,0.0
2021-08-19 16:50:00.988,-0.365,0.01
2021-08-19 16:50:00.992,-0.375,0.0
2021-08-19 16:50:00.996,-0.41,0.0
2021-08-19 16:50:01.000,-0.395,-0.01
2021-08-19 16:50:01.004,-0.41,0.0
2021-08-19 16:50:01.008,-0.405,-0.02
2021-08-19 16:50:01.012,-0.405,0.005
2021-08-19 16:50:01.016,-0.42,0.0
2021-08-19 16:50:01.020,-0.44,0.0
2021-08-19 16:50:01.024,-0.41,0.0
2021-08-19 16:50:01.028,-0.4,0.01
2021-08-19 16:50:01.032,-0.425,0.02
2021-08-19 16:50:01.036,-0.41,0.0
2021-08-19 16:50:01.040,-0.415,0.0
2021-08-19 16:50:01.044,-0.46,0.0
2021-08-19 16:50:01.048,-0.455,0.005
2021-08-19 16:50:01.052,-0.455,0.01
2021-08-19 16:50:01.056,-0.455,-0.01
2021-08-19 16:50:01.060,-0.465,0.015
2021-08-19 16:50:01.064,-0.45,0.005
2021-08-19 16:50:01.068,-0.465,0.015
2021-08-19 16:50:01.072,-0.465,0.01
2021-08-19 16:50:01.076,-0.47,0.01
2021-08-19 16:50:01.080,-0.47,0.01
2021-08-19 16:50:01.084,-0.485,0.03
2021-08-19 16:50:01.088,-0.46,0.005
2021-08-19 16:50:01.092,-0.48,-0.005
2021-08-19 16:50:01.096,-0.47,0.01
2021-08-19 16:50:01.100,-0.475,0.01
2021-08-19 16:50:01.104,-0.485,0.0
2021-08-19 16:50:01.108,-0.52,0.0
