Time,ECG1,ECG2
2021-08-19 21:26:37.784,-0.03,-0.3
2021-08-19 21:26:37.788,-0.05,-0.32
2021-08-19 21:26:37.792,-0.01,-0.325
2021-08-19 21:26:37.796,-0.03,-0.33
2021-08-19 21:26:37.800,-0.025,-0.31
2021-08-19 21:26:37.804,-0.035,-0.32
2021-08-19 21:26:37.808,-0.015,-0.32
2021-08-19 21:26:37.812,-0.03,-0.305
2021-08-19 21:26:37.816,-0.035,-0.295
2021-08-19 21:26:37.820,-0.025,-0.305
2021-08-19 21:26:37.824,-0.01,-0.32
2021-08-19 21:26:37.828,-0.03,-0.29
2021-08-19 21:26:37.832,-0.03,-0.3
2021-08-19 21:26:37.836,-0.025,-0.32
2021-08-19 21:26:37.840,-0.04,-0.315
2021-08-19 21:26:37.844,-0.045,-0.285
2021-08-19 21:26:37.848,-0.055,-0.285
2021-08-19 21:26:37.852,-0.045,-0.295
2021-08-19 21:26:37.856,-0.035,-0.28
2021-08-19 21:26:37.860,-0.05,-0.29
2021-08-19 21:26:37.864,-0.035,-0.285
2021-08-19 21:26:37.868,-0.04,-0.295
2021-08-19 21:26:37.872,-0.045,-0.29
2021-08-19 21:26:37.876,-0.065,-0.275
2021-08-19 21:26:37.880,-0.05,-0.265
2021-08-19 21:26:37.884,-0.04,-0.285
2021-08-19 21:26:37.888,-0.045,-0.27
2021-08-19 21:26:37.892,-0.065,-0.285
2021-08-19 21:26:37.896,-0.07,-0.275
2021-08-19 21:26:37.900,-0.05,-0.295
2021-08-19 21:26:37.904,-0.05,-0.32
2021-08-19 21:26:37.908,-0.07,-0.3
2021-08-19 21:26:37.912,-0.055,-0.315
2021-08-19 21:26:37.916,-0.06,-0.285
2021-08-19 21:26:37.920,-0.06,-0.275
2021-08-19 21:26:37.924,-0.065,-0.235
2021-08-19 21:26:37.928,-0.03,-0.195
2021-08-19 21:26:37.932,-0.045,-0.225
2021-08-19 21:26:37.936,-0.06,-0.285
2021-08-19 21:26:37.940,-0.055,-0.315
2021-08-19 21:26:37.944,-0.05,-0.335
2021-08-19 21:26:37.948,-0.045,-0.295
2021-08-19 21:26:37.952,-0.08,-0.285
2021-08-19 21:26:37.956,-0.055,-0.23
2021-08-19 21:26:37.960,-0.045,-0.235
2021-08-19 21:26:37.964,-0.04,-0.3
2021-08-19 21:26:37.968,-0.035,-0.33
2021-08-19 21:26:37.972,-0.05,-0.365
2021-08-19 21:26:37.976,-0.06,-0.345
2021-08-19 21:26:37.980,-0.065,-0.32
2021-08-19 21:26:37.984,-0.045,-0.3
2021-08-19 21:26:37.988,-0.055,-0.31
2021-08-19 21:26:37.992,-0.03,-0.305
2021-08-19 21:26:37.996,-0.055,-0.3
2021-08-19 21:26:38.000,-0.06,-0.27
2021-08-19 21:26:38.004,-0.055,-0.245
2021-08-19 21:26:38.008,-0.065,-0.225
2021-08-19 21:26:38.012,-0.06,-0.235
2021-08-19 21:26:38.016,-0.045,-0.24
2021-08-19 21:26:38.020,-0.085,-0.27
2021-08-19 21:26:38.024,-0.07,-0.33
2021-08-19 21:26:38.028,-0.05,-0.345
2021-08-19 21:26:38.032,-0.085,-0.31
2021-08-19 21:26:38.036,-0.065,-0.24
2021-08-19 21:26:38.040,-0.08,-0.185
2021-08-19 21:26:38.044,-0.065,-0.19
2021-08-19 21:26:38.048,-0.065,-0.305
2021-08-19 21:26:38.052,-0.09,-0.405
2021-08-19 21:26:38.056,-0.075,-0.42
2021-08-19 21:26:38.060,-0.07,-0.425
2021-08-19 21:26:38.064,-0.08,-0.365
2021-08-19 21:26:38.068,-0.08,-0.26
2021-08-19 21:26:38.072,-0.065,-0.15
2021-08-19 21:26:38.076,-0.065,-0.175
2021-08-19 21:26:38.080,-0.075,-0.265
2021-08-19 21:26:38.084,-0.07,-0.405
2021-08-19 21:26:38.088,-0.065,-0.455
2021-08-19 21:26:38.092,-0.085,-0.415
2021-08-19 21:26:38.096,-0.095,-0.33
2021-08-19 21:26:38.100,-0.07,-0.285
2021-08-19 21:26:38.104,-0.05,-0.25
2021-08-19 21:26:38.108,-0.06,-0.185
2021-08-19 21:26:38.112,-0.08,-0.15
2021-08-19 21:26:38.116,-0.08,-0.105
2021-08-19 21:26:38.120,-0.07,-0.1
2021-08-19 21:26:38.124,-0.1,-0.205
2021-08-19 21:26:38.128,-0.085,-0.345
2021-08-19 21:26:38.132,-0.095,-0.385
2021-08-19 21:26:38.136,-0.1,-0.43
2021-08-19 21:26:38.140,-0.09,-0.405
2021-08-19 21:26:38.144,-0.1,-0.34
2021-08-19 21:26:38.148,-0.09,-0.33
2021-08-19 21:26:38.152,-0.07,-0.415
2021-08-19 21:26:38.156,-0.085,-0.465
2021-08-19 21:26:38.160,-0.1,-0.41
2021-08-19 21:26:38.164,-0.1,-0.35
2021-08-19 21:26:38.168,-0.08,-0.33
2021-08-19 21:26:38.172,-0.085,-0.32
2021-08-19 21:26:38.176,-0.1,-0.25
2021-08-19 21:26:38.180,-0.085,-0.265
2021-08-19 21:26:38.184,-0.095,-0.335
2021-08-19 21:26:38.188,-0.09,-0.405
2021-08-19 21:26:38.192,-0.1,-0.43
2021-08-19 21:26:38.196,-0.11,-0.42
2021-08-19 21:26:38.200,-0.105,-0.425
2021-08-19 21:26:38.204,-0.115,-0.385
2021-08-19 21:26:38.208,-0.11,-0.34
2021-08-19 21:26:38.212,-0.13,-0.27
2021-08-19 21:26:38.216,-0.115,-0.29
2021-08-19 21:26:38.220,-0.13,-0.305
2021-08-19 21:26:38.224,-0.14,-0.26
2021-08-19 21:26:38.228,-0.135,-0.215
2021-08-19 21:26:38.232,-0.145,-0.27
2021-08-19 21:26:38.236,-0.165,-0.26
2021-08-19 21:26:38.240,-0.16,-0.215
2021-08-19 21:26:38.244,-0.15,-0.245
2021-08-19 21:26:38.248,-0.135,-0.28
2021-08-19 21:26:38.252,-0.14,-0.37
2021-08-19 21:26:38.256,-0.145,-0.4
2021-08-19 21:26:38.260,-0.11,-0.31
2021-08-19 21:26:38.264,-0.085,-0.24
2021-08-19 21:26:38.268,-0.065,-0.165
2021-08-19 21:26:38.272,-0.02,-0.135
2021-08-19 21:26:38.276,0.015,-0.1
2021-08-19 21:26:38.280,0.045,-0.085
2021-08-19 21:26:38.284,0.095,-0.06
2021-08-19 21:26:38.288,0.075,-0.055
2021-08-19 21:26:38.292,0.065,-0.07
2021-08-19 21:26:38.296,0.095,-0.09
2021-08-19 21:26:38.300,0.115,-0.165
2021-08-19 21:26:38.304,0.14,-0.2
2021-08-19 21:26:38.308,0.12,-0.27
2021-08-19 21:26:38.312,0.085,-0.35
2021-08-19 21:26:38.316,0.055,-0.355
2021-08-19 21:26:38.320,0.045,-0.355
2021-08-19 21:26:38.324,0.035,-0.375
2021-08-19 21:26:38.328,-0.01,-0.375
2021-08-19 21:26:38.332,-0.03,-0.395
2021-08-19 21:26:38.336,-0.04,-0.41
2021-08-19 21:26:38.340,-0.075,-0.33
2021-08-19 21:26:38.344,-0.09,-0.295
2021-08-19 21:26:38.348,-0.11,-0.33
2021-08-19 21:26:38.352,-0.135,-0.39
2021-08-19 21:26:38.356,-0.13,-0.41
2021-08-19 21:26:38.360,-0.14,-0.4
2021-08-19 21:26:38.364,-0.15,-0.405
2021-08-19 21:26:38.368,-0.145,-0.35
2021-08-19 21:26:38.372,-0.13,-0.205
2021-08-19 21:26:38.376,-0.155,-0.23
2021-08-19 21:26:38.380,-0.135,-0.5
2021-08-19 21:26:38.384,-0.17,-0.68
2021-08-19 21:26:38.388,-0.18,-0.69
2021-08-19 21:26:38.392,-0.17,-0.595
2021-08-19 21:26:38.396,-0.125,-0.535
2021-08-19 21:26:38.400,-0.13,-0.49
2021-08-19 21:26:38.404,-0.115,-0.45
2021-08-19 21:26:38.408,-0.11,-0.43
2021-08-19 21:26:38.412,-0.14,-0.415
2021-08-19 21:26:38.416,-0.12,-0.375
2021-08-19 21:26:38.420,-0.13,-0.32
2021-08-19 21:26:38.424,-0.14,-0.24
2021-08-19 21:26:38.428,-0.145,-0.08
2021-08-19 21:26:38.432,-0.14,0.12
2021-08-19 21:26:38.436,-0.085,0.435
2021-08-19 21:26:38.440,0.005,0.7
2021-08-19 21:26:38.444,-0.1,0.88
2021-08-19 21:26:38.448,-0.3,1.015
2021-08-19 21:26:38.452,-0.7,1.24
2021-08-19 21:26:38.456,-1.335,1.53
2021-08-19 21:26:38.460,-1.985,1.845
2021-08-19 21:26:38.500,-1.895,1.14
2021-08-19 21:26:38.504,-1.775,1.04
2021-08-19 21:26:38.508,-1.665,0.725
2021-08-19 21:26:38.512,-1.52,0.14
2021-08-19 21:26:38.516,-1.445,-0.425
2021-08-19 21:26:38.520,-1.335,-0.795
2021-08-19 21:26:38.524,-1.225,-0.885
2021-08-19 21:26:38.528,-1.07,-0.915
2021-08-19 21:26:38.532,-0.895,-0.88
2021-08-19 21:26:38.536,-0.805,-0.825
2021-08-19 21:26:38.540,-0.665,-0.745
2021-08-19 21:26:38.544,-0.505,-0.695
2021-08-19 21:26:38.548,-0.335,-0.65
2021-08-19 21:26:38.552,-0.15,-0.61
2021-08-19 21:26:38.556,0.015,-0.59
2021-08-19 21:26:38.560,0.13,-0.59
2021-08-19 21:26:38.564,0.195,-0.585
2021-08-19 21:26:38.568,0.235,-0.59
2021-08-19 21:26:38.572,0.28,-0.57
2021-08-19 21:26:38.576,0.29,-0.555
2021-08-19 21:26:38.580,0.305,-0.56
2021-08-19 21:26:38.584,0.32,-0.57
2021-08-19 21:26:38.588,0.315,-0.55
2021-08-19 21:26:38.592,0.36,-0.55
2021-08-19 21:26:38.596,0.37,-0.55
2021-08-19 21:26:38.600,0.37,-0.55
2021-08-19 21:26:38.604,0.34,-0.54
2021-08-19 21:26:38.608,0.355,-0.525
2021-08-19 21:26:38.612,0.39,-0.52
2021-08-19 21:26:38.616,0.4,-0.515
2021-08-19 21:26:38.620,0.395,-0.51
2021-08-19 21:26:38.624,0.43,-0.48
2021-08-19 21:26:38.628,0.44,-0.495
2021-08-19 21:26:38.632,0.435,-0.485
2021-08-19 21:26:38.636,0.475,-0.485
2021-08-19 21:26:38.640,0.475,-0.475
2021-08-19 21:26:38.644,0.485,-0.485
2021-08-19 21:26:38.648,0.515,-0.485
2021-08-19 21:26:38.652,0.535,-0.465
2021-08-19 21:26:38.656,0.57,-0.47
2021-08-19 21:26:38.660,0.615,-0.5
2021-08-19 21:26:38.664,0.65,-0.51
2021-08-19 21:26:38.668,0.66,-0.48
2021-08-19 21:26:38.672,0.67,-0.49
2021-08-19 21:26:38.676,0.695,-0.5
2021-08-19 21:26:38.680,0.735,-0.48
2021-08-19 21:26:38.684,0.765,-0.465
2021-08-19 21:26:38.688,0.77,-0.485
2021-08-19 21:26:38.692,0.8,-0.455
2021-08-19 21:26:38.696,0.805,-0.47
2021-08-19 21:26:38.700,0.84,-0.455
2021-08-19 21:26:38.704,0.86,-0.42
2021-08-19 21:26:38.708,0.86,-0.43
2021-08-19 21:26:38.712,0.86,-0.425
2021-08-19 21:26:38.716,0.85,-0.38
2021-08-19 21:26:38.720,0.82,-0.36
2021-08-19 21:26:38.724,0.805,-0.325
2021-08-19 21:26:38.728,0.77,-0.28
2021-08-19 21:26:38.732,0.755,-0.27
2021-08-19 21:26:38.736,0.72,-0.235
2021-08-19 21:26:38.740,0.69,-0.22
2021-08-19 21:26:38.744,0.615,-0.185
2021-08-19 21:26:38.748,0.58,-0.18
2021-08-19 21:26:38.752,0.53,-0.15
2021-08-19 21:26:38.756,0.48,-0.12
2021-08-19 21:26:38.760,0.425,-0.11
2021-08-19 21:26:38.764,0.37,-0.09
2021-08-19 21:26:38.768,0.315,-0.04
2021-08-19 21:26:38.772,0.285,-0.025
2021-08-19 21:26:38.776,0.215,-0.06
2021-08-19 21:26:38.780,0.17,-0.115
2021-08-19 21:26:38.784,0.14,-0.175
2021-08-19 21:26:38.788,0.12,-0.24
2021-08-19 21:26:38.792,0.075,-0.3
2021-08-19 21:26:38.796,0.04,-0.335
2021-08-19 21:26:38.800,0.02,-0.325
2021-08-19 21:26:38.804,0.025,-0.305
2021-08-19 21:26:38.808,0.0,-0.29
2021-08-19 21:26:38.812,-0.01,-0.295
2021-08-19 21:26:38.816,-0.005,-0.26
2021-08-19 21:26:38.820,0.0,-0.27
2021-08-19 21:26:38.824,-0.04,-0.265
2021-08-19 21:26:38.828,-0.025,-0.285
2021-08-19 21:26:38.832,-0.035,-0.27
2021-08-19 21:26:38.836,-0.035,-0.265
2021-08-19 21:26:38.840,-0.04,-0.295
2021-08-19 21:26:38.844,-0.025,-0.305
2021-08-19 21:26:38.848,-0.025,-0.29
2021-08-19 21:26:38.852,-0.01,-0.3
2021-08-19 21:26:38.856,-0.015,-0.305
2021-08-19 21:26:38.860,-0.005,-0.3
2021-08-19 21:26:38.864,-0.01,-0.315
2021-08-19 21:26:38.868,-0.03,-0.275
2021-08-19 21:26:38.872,-0.025,-0.32
2021-08-19 21:26:38.876,-0.005,-0.33
2021-08-19 21:26:38.880,-0.01,-0.32
2021-08-19 21:26:38.884,-0.005,-0.31
2021-08-19 21:26:38.888,-0.01,-0.32
2021-08-19 21:26:38.892,-0.015,-0.345
2021-08-19 21:26:38.896,0.015,-0.35
2021-08-19 21:26:38.900,0.0,-0.345
2021-08-19 21:26:38.904,-0.02,-0.36
2021-08-19 21:26:38.908,0.005,-0.345
2021-08-19 21:26:38.912,0.01,-0.345
2021-08-19 21:26:38.916,0.0,-0.345
2021-08-19 21:26:38.920,0.01,-0.36
2021-08-19 21:26:38.924,0.025,-0.375
2021-08-19 21:26:38.928,0.02,-0.365
2021-08-19 21:26:38.932,0.0,-0.35
2021-08-19 21:26:38.936,0.015,-0.365
2021-08-19 21:26:38.940,0.015,-0.36
2021-08-19 21:26:38.944,0.015,-0.34
2021-08-19 21:26:38.948,0.015,-0.35
2021-08-19 21:26:38.952,-0.01,-0.365
2021-08-19 21:26:38.956,-0.02,-0.34
2021-08-19 21:26:38.960,-0.02,-0.35
2021-08-19 21:26:38.964,-0.03,-0.335
2021-08-19 21:26:38.968,-0.015,-0.345
2021-08-19 21:26:38.972,-0.03,-0.355
2021-08-19 21:26:38.976,-0.02,-0.345
2021-08-19 21:26:38.980,-0.005,-0.31
2021-08-19 21:26:38.984,-0.005,-0.34
2021-08-19 21:26:38.988,-0.005,-0.33
2021-08-19 21:26:38.992,-0.025,-0.315
2021-08-19 21:26:38.996,0.0,-0.3
2021-08-19 21:26:39.000,-0.015,-0.31
2021-08-19 21:26:39.004,0.0,-0.305
2021-08-19 21:26:39.008,0.0,-0.3
2021-08-19 21:26:39.012,-0.03,-0.3
2021-08-19 21:26:39.016,-0.04,-0.3
2021-08-19 21:26:39.020,-0.02,-0.285
2021-08-19 21:26:39.024,-0.02,-0.29
2021-08-19 21:26:39.028,-0.025,-0.28
2021-08-19 21:26:39.032,0.01,-0.295
2021-08-19 21:26:39.036,-0.02,-0.29
2021-08-19 21:26:39.040,-0.005,-0.28
2021-08-19 21:26:39.044,-0.005,-0.27
2021-08-19 21:26:39.048,-0.005,-0.265
2021-08-19 21:26:39.052,0.01,-0.28
2021-08-19 21:26:39.056,0.0,-0.28
2021-08-19 21:26:39.060,0.0,-0.29
2021-08-19 21:26:39.064,-0.02,-0.285
2021-08-19 21:26:39.068,-0.005,-0.27
2021-08-19 21:26:39.072,0.025,-0.26
2021-08-19 21:26:39.076,0.02,-0.275
2021-08-19 21:26:39.080,0.0,-0.285
2021-08-19 21:26:39.084,-0.005,-0.26
2021-08-19 21:26:39.088,0.015,-0.265
2021-08-19 21:26:39.092,0.015,-0.25
2021-08-19 21:26:39.096,0.02,-0.26
2021-08-19 21:26:39.100,0.005,-0.245
2021-08-19 21:26:39.104,0.015,-0.25
2021-08-19 21:26:39.108,0.01,-0.26
2021-08-19 21:26:39.112,0.01,-0.25
2021-08-19 21:26:39.116,0.03,-0.26
2021-08-19 21:26:39.120,0.005,-0.25
2021-08-19 21:26:39.124,0.015,-0.25
2021-08-19 21:26:39.128,0.015,-0.25
2021-08-19 21:26:39.132,0.04,-0.25
2021-08-19 21:26:39.136,0.04,-0.25
2021-08-19 21:26:39.140,0.035,-0.245
2021-08-19 21:26:39.144,0.0,-0.25
2021-08-19 21:26:39.148,0.025,-0.25
2021-08-19 21:26:39.152,0.03,-0.24
2021-08-19 21:26:39.156,0.02,-0.25
2021-08-19 21:26:39.160,0.04,-0.245
2021-08-19 21:26:39.164,0.04,-0.24
2021-08-19 21:26:39.168,0.055,-0.24
2021-08-19 21:26:39.172,0.03,-0.24
2021-08-19 21:26:39.176,0.04,-0.245
2021-08-19 21:26:39.180,0.04,-0.23
2021-08-19 21:26:39.184,0.05,-0.24
2021-08-19 21:26:39.188,0.05,-0.25
2021-08-19 21:26:39.192,0.05,-0.22
2021-08-19 21:26:39.196,0.05,-0.245
2021-08-19 21:26:39.200,0.06,-0.25
2021-08-19 21:26:39.204,0.06,-0.245
2021-08-19 21:26:39.208,0.045,-0.24
2021-08-19 21:26:39.212,0.04,-0.235
2021-08-19 21:26:39.216,0.055,-0.23
2021-08-19 21:26:39.220,0.055,-0.24
2021-08-19 21:26:39.224,0.045,-0.225
2021-08-19 21:26:39.228,0.07,-0.24
2021-08-19 21:26:39.232,0.05,-0.24
2021-08-19 21:26:39.236,0.065,-0.24
2021-08-19 21:26:39.240,0.065,-0.25
2021-08-19 21:26:39.244,0.06,-0.27
2021-08-19 21:26:39.248,0.065,-0.235
2021-08-19 21:26:39.252,0.04,-0.23
2021-08-19 21:26:39.256,0.06,-0.23
2021-08-19 21:26:39.260,0.05,-0.265
2021-08-19 21:26:39.264,0.03,-0.26
2021-08-19 21:26:39.268,0.04,-0.24
2021-08-19 21:26:39.272,0.06,-0.23
2021-08-19 21:26:39.276,0.06,-0.25
2021-08-19 21:26:39.280,0.05,-0.23
2021-08-19 21:26:39.284,0.05,-0.24
2021-08-19 21:26:39.288,0.04,-0.24
2021-08-19 21:26:39.292,0.045,-0.26
2021-08-19 21:26:39.296,0.035,-0.24
2021-08-19 21:26:39.300,0.03,-0.23
2021-08-19 21:26:39.304,0.055,-0.23
2021-08-19 21:26:39.308,0.055,-0.24
2021-08-19 21:26:39.312,0.04,-0.24
2021-08-19 21:26:39.316,0.04,-0.23
2021-08-19 21:26:39.320,0.03,-0.24
2021-08-19 21:26:39.324,0.05,-0.255
2021-08-19 21:26:39.328,0.045,-0.23
2021-08-19 21:26:39.332,0.06,-0.235
2021-08-19 21:26:39.336,0.06,-0.25
2021-08-19 21:26:39.340,0.055,-0.25
2021-08-19 21:26:39.344,0.07,-0.2
2021-08-19 21:26:39.348,0.05,-0.18
2021-08-19 21:26:39.352,0.08,-0.16
2021-08-19 21:26:39.356,0.08,-0.14
2021-08-19 21:26:39.360,0.065,-0.14
2021-08-19 21:26:39.364,0.1,-0.12
2021-08-19 21:26:39.368,0.12,-0.1
2021-08-19 21:26:39.372,0.135,-0.065
2021-08-19 21:26:39.376,0.165,-0.06
2021-08-19 21:26:39.380,0.175,-0.055
2021-08-19 21:26:39.384,0.22,-0.04
2021-08-19 21:26:39.388,0.235,-0.045
2021-08-19 21:26:39.392,0.26,-0.055
2021-08-19 21:26:39.396,0.26,-0.065
2021-08-19 21:26:39.400,0.27,-0.08
2021-08-19 21:26:39.404,0.21,-0.1
2021-08-19 21:26:39.408,0.165,-0.14
2021-08-19 21:26:39.412,0.15,-0.165
2021-08-19 21:26:39.416,0.125,-0.195
2021-08-19 21:26:39.420,0.095,-0.225
2021-08-19 21:26:39.424,0.08,-0.25
2021-08-19 21:26:39.428,0.055,-0.26
2021-08-19 21:26:39.432,0.015,-0.285
2021-08-19 21:26:39.436,0.02,-0.32
2021-08-19 21:26:39.440,0.005,-0.33
2021-08-19 21:26:39.444,0.01,-0.31
2021-08-19 21:26:39.448,0.03,-0.335
2021-08-19 21:26:39.452,0.03,-0.33
2021-08-19 21:26:39.456,0.035,-0.345
2021-08-19 21:26:39.460,0.02,-0.335
2021-08-19 21:26:39.464,0.0,-0.34
2021-08-19 21:26:39.468,0.01,-0.34
2021-08-19 21:26:39.472,0.03,-0.33
2021-08-19 21:26:39.476,0.02,-0.335
2021-08-19 21:26:39.480,0.01,-0.32
2021-08-19 21:26:39.484,0.03,-0.32
2021-08-19 21:26:39.488,0.015,-0.335
2021-08-19 21:26:39.492,0.04,-0.325
2021-08-19 21:26:39.496,0.015,-0.335
2021-08-19 21:26:39.500,0.005,-0.325
2021-08-19 21:26:39.504,0.01,-0.315
2021-08-19 21:26:39.508,0.0,-0.29
2021-08-19 21:26:39.512,0.035,-0.285
2021-08-19 21:26:39.516,0.01,-0.24
2021-08-19 21:26:39.520,0.03,-0.15
2021-08-19 21:26:39.524,0.03,0.015
2021-08-19 21:26:39.528,0.07,0.25
2021-08-19 21:26:39.532,0.11,0.55
2021-08-19 21:26:39.536,0.18,0.81
2021-08-19 21:26:39.540,0.08,0.935
2021-08-19 21:26:39.544,-0.205,1.095
2021-08-19 21:26:39.548,-0.655,1.27
2021-08-19 21:26:39.552,-1.36,1.485
2021-08-19 21:26:39.588,-1.99,0.99
2021-08-19 21:26:39.592,-1.8,0.89
2021-08-19 21:26:39.596,-1.72,0.78
2021-08-19 21:26:39.600,-1.57,0.685
2021-08-19 21:26:39.604,-1.445,0.48
2021-08-19 21:26:39.608,-1.345,0.095
2021-08-19 21:26:39.612,-1.205,-0.33
2021-08-19 21:26:39.616,-1.075,-0.56
2021-08-19 21:26:39.620,-0.935,-0.64
2021-08-19 21:26:39.624,-0.775,-0.68
2021-08-19 21:26:39.628,-0.62,-0.62
2021-08-19 21:26:39.632,-0.465,-0.6
2021-08-19 21:26:39.636,-0.29,-0.545
2021-08-19 21:26:39.640,-0.105,-0.515
2021-08-19 21:26:39.644,0.075,-0.48
2021-08-19 21:26:39.648,0.235,-0.465
2021-08-19 21:26:39.652,0.38,-0.465
2021-08-19 21:26:39.656,0.475,-0.48
2021-08-19 21:26:39.660,0.515,-0.505
2021-08-19 21:26:39.664,0.56,-0.5
2021-08-19 21:26:39.668,0.58,-0.485
2021-08-19 21:26:39.672,0.615,-0.485
2021-08-19 21:26:39.676,0.63,-0.49
2021-08-19 21:26:39.680,0.675,-0.49
2021-08-19 21:26:39.684,0.68,-0.48
2021-08-19 21:26:39.688,0.68,-0.47
2021-08-19 21:26:39.692,0.67,-0.47
2021-08-19 21:26:39.696,0.71,-0.465
2021-08-19 21:26:39.700,0.71,-0.44
2021-08-19 21:26:39.704,0.72,-0.455
2021-08-19 21:26:39.708,0.745,-0.43
2021-08-19 21:26:39.712,0.76,-0.42
2021-08-19 21:26:39.716,0.77,-0.395
2021-08-19 21:26:39.720,0.795,-0.41
2021-08-19 21:26:39.724,0.81,-0.4
2021-08-19 21:26:39.728,0.83,-0.42
2021-08-19 21:26:39.732,0.83,-0.465
2021-08-19 21:26:39.736,0.85,-0.465
2021-08-19 21:26:39.740,0.89,-0.435
2021-08-19 21:26:39.744,0.91,-0.43
2021-08-19 21:26:39.748,0.91,-0.45
2021-08-19 21:26:39.752,0.96,-0.43
2021-08-19 21:26:39.756,0.965,-0.41
2021-08-19 21:26:39.760,0.975,-0.445
2021-08-19 21:26:39.764,1.01,-0.47
2021-08-19 21:26:39.768,1.02,-0.445
2021-08-19 21:26:39.772,1.05,-0.405
2021-08-19 21:26:39.776,1.1,-0.425
2021-08-19 21:26:39.780,1.09,-0.44
2021-08-19 21:26:39.784,1.1,-0.46
2021-08-19 21:26:39.788,1.13,-0.44
2021-08-19 21:26:39.792,1.135,-0.45
2021-08-19 21:26:39.796,1.155,-0.44
2021-08-19 21:26:39.800,1.13,-0.39
2021-08-19 21:26:39.804,1.12,-0.36
2021-08-19 21:26:39.808,1.105,-0.36
2021-08-19 21:26:39.812,1.08,-0.32
2021-08-19 21:26:39.816,1.06,-0.3
2021-08-19 21:26:39.820,1.035,-0.26
2021-08-19 21:26:39.824,1.0,-0.215
2021-08-19 21:26:39.828,0.91,-0.205
2021-08-19 21:26:39.832,0.905,-0.17
2021-08-19 21:26:39.836,0.845,-0.17
2021-08-19 21:26:39.840,0.785,-0.175
2021-08-19 21:26:39.844,0.765,-0.18
2021-08-19 21:26:39.848,0.715,-0.165
2021-08-19 21:26:39.852,0.65,-0.14
2021-08-19 21:26:39.856,0.6,-0.16
2021-08-19 21:26:39.860,0.54,-0.165
2021-08-19 21:26:39.864,0.49,-0.175
2021-08-19 21:26:39.868,0.465,-0.21
2021-08-19 21:26:39.872,0.42,-0.21
2021-08-19 21:26:39.876,0.39,-0.235
2021-08-19 21:26:39.880,0.35,-0.225
2021-08-19 21:26:39.884,0.31,-0.23
2021-08-19 21:26:39.888,0.27,-0.23
2021-08-19 21:26:39.892,0.27,-0.25
2021-08-19 21:26:39.896,0.245,-0.26
2021-08-19 21:26:39.900,0.24,-0.26
2021-08-19 21:26:39.904,0.24,-0.255
2021-08-19 21:26:39.908,0.22,-0.275
2021-08-19 21:26:39.912,0.21,-0.275
2021-08-19 21:26:39.916,0.22,-0.3
2021-08-19 21:26:39.920,0.21,-0.285
2021-08-19 21:26:39.924,0.19,-0.265
2021-08-19 21:26:39.928,0.22,-0.275
2021-08-19 21:26:39.932,0.205,-0.3
2021-08-19 21:26:39.936,0.195,-0.295
2021-08-19 21:26:39.940,0.18,-0.275
2021-08-19 21:26:39.944,0.175,-0.275
2021-08-19 21:26:39.948,0.2,-0.295
2021-08-19 21:26:39.952,0.165,-0.315
2021-08-19 21:26:39.956,0.185,-0.335
2021-08-19 21:26:39.960,0.155,-0.34
2021-08-19 21:26:39.964,0.155,-0.35
2021-08-19 21:26:39.968,0.175,-0.335
2021-08-19 21:26:39.972,0.215,-0.345
2021-08-19 21:26:39.976,0.185,-0.355
2021-08-19 21:26:39.980,0.165,-0.35
2021-08-19 21:26:39.984,0.145,-0.35
2021-08-19 21:26:39.988,0.185,-0.355
2021-08-19 21:26:39.992,0.17,-0.37
2021-08-19 21:26:39.996,0.16,-0.365
2021-08-19 21:26:40.000,0.185,-0.37
2021-08-19 21:26:40.004,0.185,-0.355
2021-08-19 21:26:40.008,0.175,-0.33
2021-08-19 21:26:40.012,0.155,-0.36
2021-08-19 21:26:40.016,0.175,-0.385
2021-08-19 21:26:40.020,0.165,-0.38
2021-08-19 21:26:40.024,0.18,-0.375
2021-08-19 21:26:40.028,0.15,-0.365
2021-08-19 21:26:40.032,0.175,-0.325
2021-08-19 21:26:40.036,0.175,-0.345
2021-08-19 21:26:40.040,0.17,-0.385
2021-08-19 21:26:40.044,0.14,-0.41
2021-08-19 21:26:40.048,0.155,-0.395
2021-08-19 21:26:40.052,0.12,-0.375
2021-08-19 21:26:40.056,0.125,-0.375
2021-08-19 21:26:40.060,0.13,-0.375
2021-08-19 21:26:40.064,0.125,-0.34
2021-08-19 21:26:40.068,0.15,-0.305
2021-08-19 21:26:40.072,0.13,-0.3
2021-08-19 21:26:40.076,0.12,-0.36
2021-08-19 21:26:40.080,0.13,-0.35
2021-08-19 21:26:40.084,0.13,-0.34
2021-08-19 21:26:40.088,0.105,-0.355
2021-08-19 21:26:40.092,0.1,-0.33
2021-08-19 21:26:40.096,0.115,-0.35
2021-08-19 21:26:40.100,0.12,-0.325
2021-08-19 21:26:40.104,0.135,-0.315
2021-08-19 21:26:40.108,0.105,-0.305
2021-08-19 21:26:40.112,0.09,-0.32
2021-08-19 21:26:40.116,0.11,-0.35
2021-08-19 21:26:40.120,0.075,-0.365
2021-08-19 21:26:40.124,0.095,-0.36
2021-08-19 21:26:40.128,0.065,-0.36
2021-08-19 21:26:40.132,0.09,-0.355
2021-08-19 21:26:40.136,0.095,-0.345
2021-08-19 21:26:40.140,0.08,-0.33
2021-08-19 21:26:40.144,0.06,-0.32
2021-08-19 21:26:40.148,0.085,-0.315
2021-08-19 21:26:40.152,0.08,-0.34
2021-08-19 21:26:40.156,0.08,-0.35
2021-08-19 21:26:40.160,0.065,-0.335
2021-08-19 21:26:40.164,0.075,-0.3
2021-08-19 21:26:40.168,0.075,-0.295
2021-08-19 21:26:40.172,0.065,-0.315
2021-08-19 21:26:40.176,0.06,-0.32
2021-08-19 21:26:40.180,0.055,-0.3
2021-08-19 21:26:40.184,0.07,-0.3
2021-08-19 21:26:40.188,0.05,-0.31
2021-08-19 21:26:40.192,0.08,-0.33
2021-08-19 21:26:40.196,0.075,-0.34
2021-08-19 21:26:40.200,0.05,-0.355
2021-08-19 21:26:40.204,0.055,-0.335
2021-08-19 21:26:40.208,0.05,-0.315
2021-08-19 21:26:40.212,0.06,-0.305
2021-08-19 21:26:40.216,0.06,-0.275
2021-08-19 21:26:40.220,0.045,-0.245
2021-08-19 21:26:40.224,0.06,-0.245
2021-08-19 21:26:40.228,0.085,-0.225
2021-08-19 21:26:40.232,0.075,-0.21
2021-08-19 21:26:40.236,0.11,-0.185
2021-08-19 21:26:40.240,0.12,-0.145
2021-08-19 21:26:40.244,0.12,-0.15
2021-08-19 21:26:40.248,0.135,-0.165
2021-08-19 21:26:40.252,0.155,-0.115
2021-08-19 21:26:40.256,0.18,-0.115
2021-08-19 21:26:40.260,0.195,-0.13
2021-08-19 21:26:40.264,0.215,-0.15
2021-08-19 21:26:40.268,0.21,-0.185
2021-08-19 21:26:40.272,0.195,-0.18
2021-08-19 21:26:40.276,0.17,-0.215
2021-08-19 21:26:40.280,0.12,-0.235
2021-08-19 21:26:40.284,0.1,-0.225
2021-08-19 21:26:40.288,0.055,-0.255
2021-08-19 21:26:40.292,0.045,-0.305
2021-08-19 21:26:40.296,0.02,-0.34
2021-08-19 21:26:40.300,-0.02,-0.335
2021-08-19 21:26:40.304,-0.05,-0.375
2021-08-19 21:26:40.308,-0.07,-0.42
2021-08-19 21:26:40.312,-0.03,-0.41
2021-08-19 21:26:40.316,-0.025,-0.405
2021-08-19 21:26:40.320,-0.02,-0.44
2021-08-19 21:26:40.324,-0.02,-0.435
2021-08-19 21:26:40.328,-0.045,-0.435
2021-08-19 21:26:40.332,-0.05,-0.4
2021-08-19 21:26:40.336,-0.035,-0.395
2021-08-19 21:26:40.340,-0.04,-0.385
2021-08-19 21:26:40.344,-0.03,-0.4
2021-08-19 21:26:40.348,-0.045,-0.4
2021-08-19 21:26:40.352,-0.04,-0.4
2021-08-19 21:26:40.356,-0.04,-0.39
2021-08-19 21:26:40.360,-0.05,-0.395
2021-08-19 21:26:40.364,-0.045,-0.39
2021-08-19 21:26:40.368,-0.05,-0.375
2021-08-19 21:26:40.372,-0.045,-0.36
2021-08-19 21:26:40.376,-0.02,-0.365
2021-08-19 21:26:40.380,-0.04,-0.365
2021-08-19 21:26:40.384,-0.03,-0.35
2021-08-19 21:26:40.388,-0.02,-0.32
2021-08-19 21:26:40.392,-0.04,-0.26
2021-08-19 21:26:40.396,-0.05,-0.13
2021-08-19 21:26:40.400,-0.025,0.055
2021-08-19 21:26:40.404,-0.015,0.335
2021-08-19 21:26:40.408,0.025,0.715
2021-08-19 21:26:40.412,0.085,1.0
2021-08-19 21:26:40.416,-0.035,1.16
2021-08-19 21:26:40.420,-0.28,1.295
2021-08-19 21:26:40.424,-0.65,1.45
2021-08-19 21:26:40.428,-1.26,1.665
2021-08-19 21:26:40.432,-1.865,1.73
2021-08-19 21:26:40.468,-1.875,0.99
2021-08-19 21:26:40.472,-1.735,0.93
2021-08-19 21:26:40.476,-1.645,0.855
2021-08-19 21:26:40.480,-1.53,0.67
2021-08-19 21:26:40.484,-1.435,0.315
2021-08-19 21:26:40.488,-1.32,-0.13
2021-08-19 21:26:40.492,-1.21,-0.47
2021-08-19 21:26:40.496,-1.13,-0.65
2021-08-19 21:26:40.500,-0.99,-0.71
2021-08-19 21:26:40.504,-0.845,-0.7
2021-08-19 21:26:40.508,-0.71,-0.66
2021-08-19 21:26:40.512,-0.575,-0.64
2021-08-19 21:26:40.516,-0.43,-0.62
2021-08-19 21:26:40.520,-0.27,-0.585
2021-08-19 21:26:40.524,-0.09,-0.57
2021-08-19 21:26:40.528,0.07,-0.56
2021-08-19 21:26:40.532,0.17,-0.565
2021-08-19 21:26:40.536,0.24,-0.545
2021-08-19 21:26:40.540,0.305,-0.525
2021-08-19 21:26:40.544,0.335,-0.55
2021-08-19 21:26:40.548,0.345,-0.575
2021-08-19 21:26:40.552,0.385,-0.58
2021-08-19 21:26:40.556,0.385,-0.59
2021-08-19 21:26:40.560,0.405,-0.575
2021-08-19 21:26:40.564,0.395,-0.55
2021-08-19 21:26:40.568,0.435,-0.55
2021-08-19 21:26:40.572,0.445,-0.555
2021-08-19 21:26:40.576,0.465,-0.555
2021-08-19 21:26:40.580,0.465,-0.565
2021-08-19 21:26:40.584,0.455,-0.54
2021-08-19 21:26:40.588,0.475,-0.555
2021-08-19 21:26:40.592,0.47,-0.535
2021-08-19 21:26:40.596,0.51,-0.54
2021-08-19 21:26:40.600,0.505,-0.495
2021-08-19 21:26:40.604,0.5,-0.505
2021-08-19 21:26:40.608,0.545,-0.505
2021-08-19 21:26:40.612,0.575,-0.505
2021-08-19 21:26:40.616,0.59,-0.505
2021-08-19 21:26:40.620,0.6,-0.515
2021-08-19 21:26:40.624,0.64,-0.505
2021-08-19 21:26:40.628,0.615,-0.54
2021-08-19 21:26:40.632,0.645,-0.57
2021-08-19 21:26:40.636,0.665,-0.58
2021-08-19 21:26:40.640,0.695,-0.595
2021-08-19 21:26:40.644,0.705,-0.585
2021-08-19 21:26:40.648,0.745,-0.575
2021-08-19 21:26:40.652,0.755,-0.56
2021-08-19 21:26:40.656,0.755,-0.58
2021-08-19 21:26:40.660,0.79,-0.605
2021-08-19 21:26:40.664,0.835,-0.605
2021-08-19 21:26:40.668,0.83,-0.615
2021-08-19 21:26:40.672,0.85,-0.59
2021-08-19 21:26:40.676,0.865,-0.56
2021-08-19 21:26:40.680,0.845,-0.535
2021-08-19 21:26:40.684,0.86,-0.52
2021-08-19 21:26:40.688,0.86,-0.5
2021-08-19 21:26:40.692,0.85,-0.45
2021-08-19 21:26:40.696,0.83,-0.42
2021-08-19 21:26:40.700,0.81,-0.385
2021-08-19 21:26:40.704,0.785,-0.365
2021-08-19 21:26:40.708,0.77,-0.32
2021-08-19 21:26:40.712,0.73,-0.29
2021-08-19 21:26:40.716,0.69,-0.26
2021-08-19 21:26:40.720,0.635,-0.25
2021-08-19 21:26:40.724,0.6,-0.22
2021-08-19 21:26:40.728,0.55,-0.18
2021-08-19 21:26:40.732,0.505,-0.2
2021-08-19 21:26:40.736,0.47,-0.215
2021-08-19 21:26:40.740,0.415,-0.2
2021-08-19 21:26:40.744,0.36,-0.21
2021-08-19 21:26:40.748,0.32,-0.205
2021-08-19 21:26:40.752,0.275,-0.23
2021-08-19 21:26:40.756,0.25,-0.23
2021-08-19 21:26:40.760,0.23,-0.205
2021-08-19 21:26:40.764,0.19,-0.225
2021-08-19 21:26:40.768,0.17,-0.265
2021-08-19 21:26:40.772,0.175,-0.27
2021-08-19 21:26:40.776,0.155,-0.275
2021-08-19 21:26:40.780,0.125,-0.285
2021-08-19 21:26:40.784,0.115,-0.3
2021-08-19 21:26:40.788,0.1,-0.285
2021-08-19 21:26:40.792,0.095,-0.265
2021-08-19 21:26:40.796,0.095,-0.27
2021-08-19 21:26:40.800,0.075,-0.265
2021-08-19 21:26:40.804,0.09,-0.265
2021-08-19 21:26:40.808,0.07,-0.275
2021-08-19 21:26:40.812,0.09,-0.28
2021-08-19 21:26:40.816,0.085,-0.285
2021-08-19 21:26:40.820,0.095,-0.285
2021-08-19 21:26:40.824,0.105,-0.28
2021-08-19 21:26:40.828,0.07,-0.3
2021-08-19 21:26:40.832,0.09,-0.305
2021-08-19 21:26:40.836,0.1,-0.32
2021-08-19 21:26:40.840,0.09,-0.325
2021-08-19 21:26:40.844,0.095,-0.34
2021-08-19 21:26:40.848,0.095,-0.34
2021-08-19 21:26:40.852,0.115,-0.325
2021-08-19 21:26:40.856,0.085,-0.32
2021-08-19 21:26:40.860,0.095,-0.34
2021-08-19 21:26:40.864,0.1,-0.33
2021-08-19 21:26:40.868,0.085,-0.34
2021-08-19 21:26:40.872,0.095,-0.335
2021-08-19 21:26:40.876,0.09,-0.355
2021-08-19 21:26:40.880,0.115,-0.365
2021-08-19 21:26:40.884,0.1,-0.34
2021-08-19 21:26:40.888,0.08,-0.36
2021-08-19 21:26:40.892,0.095,-0.365
2021-08-19 21:26:40.896,0.095,-0.36
2021-08-19 21:26:40.900,0.09,-0.36
2021-08-19 21:26:40.904,0.095,-0.365
2021-08-19 21:26:40.908,0.105,-0.365
2021-08-19 21:26:40.912,0.085,-0.375
2021-08-19 21:26:40.916,0.085,-0.355
2021-08-19 21:26:40.920,0.085,-0.365
2021-08-19 21:26:40.924,0.09,-0.36
2021-08-19 21:26:40.928,0.1,-0.38
2021-08-19 21:26:40.932,0.075,-0.355
2021-08-19 21:26:40.936,0.07,-0.345
2021-08-19 21:26:40.940,0.065,-0.33
2021-08-19 21:26:40.944,0.065,-0.355
2021-08-19 21:26:40.948,0.065,-0.365
2021-08-19 21:26:40.952,0.075,-0.34
2021-08-19 21:26:40.956,0.07,-0.315
2021-08-19 21:26:40.960,0.055,-0.355
2021-08-19 21:26:40.964,0.09,-0.365
2021-08-19 21:26:40.968,0.045,-0.31
2021-08-19 21:26:40.972,0.08,-0.315
2021-08-19 21:26:40.976,0.065,-0.35
2021-08-19 21:26:40.980,0.055,-0.32
2021-08-19 21:26:40.984,0.07,-0.315
2021-08-19 21:26:40.988,0.06,-0.325
2021-08-19 21:26:40.992,0.065,-0.31
2021-08-19 21:26:40.996,0.055,-0.3
2021-08-19 21:26:41.000,0.06,-0.29
2021-08-19 21:26:41.004,0.035,-0.315
2021-08-19 21:26:41.008,0.05,-0.31
2021-08-19 21:26:41.012,0.05,-0.315
2021-08-19 21:26:41.016,0.055,-0.315
2021-08-19 21:26:41.020,0.065,-0.315
2021-08-19 21:26:41.024,0.065,-0.3
2021-08-19 21:26:41.028,0.055,-0.3
2021-08-19 21:26:41.032,0.06,-0.29
2021-08-19 21:26:41.036,0.065,-0.265
2021-08-19 21:26:41.040,0.06,-0.265
2021-08-19 21:26:41.044,0.065,-0.23
2021-08-19 21:26:41.048,0.06,-0.22
2021-08-19 21:26:41.052,0.07,-0.2
2021-08-19 21:26:41.056,0.08,-0.18
2021-08-19 21:26:41.060,0.105,-0.155
2021-08-19 21:26:41.064,0.13,-0.14
2021-08-19 21:26:41.068,0.145,-0.13
2021-08-19 21:26:41.072,0.17,-0.115
2021-08-19 21:26:41.076,0.195,-0.11
2021-08-19 21:26:41.080,0.205,-0.12
2021-08-19 21:26:41.084,0.225,-0.11
2021-08-19 21:26:41.088,0.245,-0.155
2021-08-19 21:26:41.092,0.24,-0.145
2021-08-19 21:26:41.096,0.225,-0.15
2021-08-19 21:26:41.100,0.175,-0.19
2021-08-19 21:26:41.104,0.15,-0.21
2021-08-19 21:26:41.108,0.115,-0.23
2021-08-19 21:26:41.112,0.1,-0.245
2021-08-19 21:26:41.116,0.095,-0.275
2021-08-19 21:26:41.120,0.065,-0.295
2021-08-19 21:26:41.124,0.05,-0.285
2021-08-19 21:26:41.128,0.035,-0.315
2021-08-19 21:26:41.132,0.01,-0.36
2021-08-19 21:26:41.136,0.005,-0.39
2021-08-19 21:26:41.140,0.0,-0.4
2021-08-19 21:26:41.144,0.015,-0.38
2021-08-19 21:26:41.148,0.015,-0.38
2021-08-19 21:26:41.152,0.01,-0.39
2021-08-19 21:26:41.156,0.01,-0.395
2021-08-19 21:26:41.160,0.0,-0.385
2021-08-19 21:26:41.164,0.005,-0.385
2021-08-19 21:26:41.168,-0.025,-0.395
2021-08-19 21:26:41.172,-0.005,-0.38
2021-08-19 21:26:41.176,-0.005,-0.375
2021-08-19 21:26:41.180,-0.015,-0.375
2021-08-19 21:26:41.184,0.0,-0.385
2021-08-19 21:26:41.188,-0.03,-0.385
2021-08-19 21:26:41.192,-0.025,-0.37
2021-08-19 21:26:41.196,-0.005,-0.38
2021-08-19 21:26:41.200,-0.005,-0.39
2021-08-19 21:26:41.204,-0.015,-0.37
2021-08-19 21:26:41.208,-0.015,-0.36
2021-08-19 21:26:41.212,-0.015,-0.33
2021-08-19 21:26:41.216,-0.015,-0.315
2021-08-19 21:26:41.220,-0.005,-0.3
2021-08-19 21:26:41.224,0.0,-0.24
2021-08-19 21:26:41.228,-0.005,-0.14
2021-08-19 21:26:41.232,0.005,0.01
2021-08-19 21:26:41.236,0.025,0.245
2021-08-19 21:26:41.240,0.065,0.56
2021-08-19 21:26:41.244,0.11,0.875
2021-08-19 21:26:41.248,0.06,1.055
2021-08-19 21:26:41.252,-0.15,1.2
2021-08-19 21:26:41.256,-0.57,1.385
2021-08-19 21:26:41.260,-1.155,1.605
2021-08-19 21:26:41.264,-1.805,1.71
2021-08-19 21:26:41.300,-1.91,1.08
2021-08-19 21:26:41.304,-1.775,1.005
2021-08-19 21:26:41.308,-1.69,0.94
2021-08-19 21:26:41.312,-1.56,0.815
2021-08-19 21:26:41.316,-1.46,0.56
2021-08-19 21:26:41.320,-1.305,0.12
2021-08-19 21:26:41.324,-1.215,-0.295
2021-08-19 21:26:41.328,-1.115,-0.535
2021-08-19 21:26:41.332,-1.005,-0.615
2021-08-19 21:26:41.336,-0.875,-0.66
2021-08-19 21:26:41.340,-0.755,-0.655
2021-08-19 21:26:41.344,-0.62,-0.625
2021-08-19 21:26:41.348,-0.465,-0.6
2021-08-19 21:26:41.352,-0.26,-0.555
2021-08-19 21:26:41.356,-0.075,-0.545
2021-08-19 21:26:41.360,0.075,-0.54
2021-08-19 21:26:41.364,0.225,-0.53
2021-08-19 21:26:41.368,0.335,-0.535
2021-08-19 21:26:41.372,0.385,-0.53
2021-08-19 21:26:41.376,0.45,-0.535
2021-08-19 21:26:41.380,0.45,-0.515
2021-08-19 21:26:41.384,0.49,-0.51
2021-08-19 21:26:41.388,0.53,-0.52
2021-08-19 21:26:41.392,0.52,-0.52
2021-08-19 21:26:41.396,0.54,-0.525
2021-08-19 21:26:41.400,0.555,-0.53
2021-08-19 21:26:41.404,0.57,-0.53
2021-08-19 21:26:41.408,0.575,-0.505
2021-08-19 21:26:41.412,0.585,-0.535
2021-08-19 21:26:41.416,0.585,-0.51
2021-08-19 21:26:41.420,0.6,-0.535
2021-08-19 21:26:41.424,0.63,-0.495
2021-08-19 21:26:41.428,0.625,-0.49
2021-08-19 21:26:41.432,0.65,-0.515
2021-08-19 21:26:41.436,0.655,-0.5
2021-08-19 21:26:41.440,0.675,-0.515
2021-08-19 21:26:41.444,0.695,-0.5
2021-08-19 21:26:41.448,0.74,-0.51
2021-08-19 21:26:41.452,0.735,-0.515
2021-08-19 21:26:41.456,0.78,-0.51
2021-08-19 21:26:41.460,0.8,-0.545
2021-08-19 21:26:41.464,0.83,-0.54
2021-08-19 21:26:41.468,0.84,-0.555
2021-08-19 21:26:41.472,0.865,-0.57
2021-08-19 21:26:41.476,0.89,-0.56
2021-08-19 21:26:41.480,0.925,-0.595
2021-08-19 21:26:41.484,0.945,-0.605
2021-08-19 21:26:41.488,0.965,-0.615
2021-08-19 21:26:41.492,0.975,-0.62
2021-08-19 21:26:41.496,0.99,-0.6
2021-08-19 21:26:41.500,0.985,-0.59
2021-08-19 21:26:41.504,0.985,-0.59
2021-08-19 21:26:41.508,1.01,-0.565
2021-08-19 21:26:41.512,1.025,-0.54
2021-08-19 21:26:41.516,0.99,-0.525
2021-08-19 21:26:41.520,0.995,-0.495
2021-08-19 21:26:41.524,0.98,-0.455
2021-08-19 21:26:41.528,0.95,-0.4
2021-08-19 21:26:41.532,0.915,-0.375
2021-08-19 21:26:41.536,0.88,-0.37
2021-08-19 21:26:41.540,0.83,-0.315
2021-08-19 21:26:41.544,0.805,-0.3
2021-08-19 21:26:41.548,0.78,-0.265
2021-08-19 21:26:41.552,0.715,-0.245
2021-08-19 21:26:41.556,0.675,-0.21
2021-08-19 21:26:41.560,0.63,-0.195
2021-08-19 21:26:41.564,0.57,-0.19
2021-08-19 21:26:41.568,0.52,-0.21
2021-08-19 21:26:41.572,0.48,-0.215
2021-08-19 21:26:41.576,0.425,-0.21
2021-08-19 21:26:41.580,0.38,-0.205
2021-08-19 21:26:41.584,0.345,-0.23
2021-08-19 21:26:41.588,0.31,-0.235
2021-08-19 21:26:41.592,0.28,-0.24
2021-08-19 21:26:41.596,0.25,-0.24
2021-08-19 21:26:41.600,0.205,-0.245
2021-08-19 21:26:41.604,0.175,-0.255
2021-08-19 21:26:41.608,0.16,-0.245
2021-08-19 21:26:41.612,0.16,-0.275
2021-08-19 21:26:41.616,0.135,-0.275
2021-08-19 21:26:41.620,0.13,-0.285
2021-08-19 21:26:41.624,0.135,-0.26
2021-08-19 21:26:41.628,0.14,-0.255
2021-08-19 21:26:41.632,0.12,-0.26
2021-08-19 21:26:41.636,0.135,-0.275
2021-08-19 21:26:41.640,0.115,-0.275
2021-08-19 21:26:41.644,0.12,-0.27
2021-08-19 21:26:41.648,0.135,-0.295
2021-08-19 21:26:41.652,0.13,-0.28
2021-08-19 21:26:41.656,0.12,-0.285
2021-08-19 21:26:41.660,0.155,-0.28
2021-08-19 21:26:41.664,0.15,-0.29
2021-08-19 21:26:41.668,0.145,-0.3
2021-08-19 21:26:41.672,0.135,-0.295
2021-08-19 21:26:41.676,0.14,-0.3
2021-08-19 21:26:41.680,0.16,-0.295
2021-08-19 21:26:41.684,0.155,-0.315
2021-08-19 21:26:41.688,0.145,-0.305
2021-08-19 21:26:41.692,0.145,-0.31
2021-08-19 21:26:41.696,0.15,-0.315
2021-08-19 21:26:41.700,0.15,-0.32
2021-08-19 21:26:41.704,0.15,-0.33
2021-08-19 21:26:41.708,0.15,-0.32
2021-08-19 21:26:41.712,0.17,-0.32
2021-08-19 21:26:41.716,0.165,-0.33
2021-08-19 21:26:41.720,0.14,-0.32
2021-08-19 21:26:41.724,0.15,-0.32
2021-08-19 21:26:41.728,0.165,-0.33
2021-08-19 21:26:41.732,0.145,-0.325
2021-08-19 21:26:41.736,0.135,-0.325
2021-08-19 21:26:41.740,0.15,-0.33
2021-08-19 21:26:41.744,0.145,-0.32
2021-08-19 21:26:41.748,0.145,-0.295
2021-08-19 21:26:41.752,0.135,-0.3
2021-08-19 21:26:41.756,0.13,-0.315
2021-08-19 21:26:41.760,0.15,-0.31
2021-08-19 21:26:41.764,0.14,-0.29
2021-08-19 21:26:41.768,0.14,-0.29
2021-08-19 21:26:41.772,0.125,-0.29
2021-08-19 21:26:41.776,0.14,-0.295
2021-08-19 21:26:41.780,0.125,-0.285
2021-08-19 21:26:41.784,0.12,-0.3
2021-08-19 21:26:41.788,0.135,-0.305
2021-08-19 21:26:41.792,0.13,-0.28
2021-08-19 21:26:41.796,0.115,-0.25
2021-08-19 21:26:41.800,0.1,-0.225
2021-08-19 21:26:41.804,0.105,-0.22
2021-08-19 21:26:41.808,0.115,-0.175
2021-08-19 21:26:41.812,0.13,-0.17
2021-08-19 21:26:41.816,0.145,-0.15
2021-08-19 21:26:41.820,0.18,-0.115
2021-08-19 21:26:41.824,0.195,-0.1
2021-08-19 21:26:41.828,0.22,-0.055
2021-08-19 21:26:41.832,0.245,-0.055
2021-08-19 21:26:41.836,0.275,-0.065
2021-08-19 21:26:41.840,0.275,-0.05
2021-08-19 21:26:41.844,0.31,-0.045
2021-08-19 21:26:41.848,0.315,-0.08
2021-08-19 21:26:41.852,0.29,-0.12
2021-08-19 21:26:41.856,0.265,-0.105
2021-08-19 21:26:41.860,0.25,-0.115
2021-08-19 21:26:41.864,0.175,-0.155
2021-08-19 21:26:41.868,0.175,-0.195
2021-08-19 21:26:41.872,0.15,-0.21
2021-08-19 21:26:41.876,0.145,-0.225
2021-08-19 21:26:41.880,0.125,-0.235
2021-08-19 21:26:41.884,0.09,-0.25
2021-08-19 21:26:41.888,0.07,-0.26
2021-08-19 21:26:41.892,0.065,-0.305
2021-08-19 21:26:41.896,0.03,-0.335
2021-08-19 21:26:41.900,0.055,-0.35
2021-08-19 21:26:41.904,0.065,-0.34
2021-08-19 21:26:41.908,0.065,-0.335
2021-08-19 21:26:41.912,0.065,-0.355
2021-08-19 21:26:41.916,0.045,-0.34
2021-08-19 21:26:41.920,0.045,-0.355
2021-08-19 21:26:41.924,0.07,-0.33
2021-08-19 21:26:41.928,0.045,-0.335
2021-08-19 21:26:41.932,0.04,-0.33
2021-08-19 21:26:41.936,0.035,-0.315
2021-08-19 21:26:41.940,0.04,-0.3
2021-08-19 21:26:41.944,0.05,-0.31
2021-08-19 21:26:41.948,0.045,-0.305
2021-08-19 21:26:41.952,0.03,-0.32
2021-08-19 21:26:41.956,0.025,-0.3
2021-08-19 21:26:41.960,0.04,-0.3
2021-08-19 21:26:41.964,0.015,-0.32
2021-08-19 21:26:41.968,0.03,-0.29
2021-08-19 21:26:41.972,0.03,-0.28
2021-08-19 21:26:41.976,0.045,-0.25
2021-08-19 21:26:41.980,0.03,-0.25
2021-08-19 21:26:41.984,0.06,-0.205
2021-08-19 21:26:41.988,0.06,-0.095
2021-08-19 21:26:41.992,0.045,0.025
2021-08-19 21:26:41.996,0.06,0.2
2021-08-19 21:26:42.000,0.125,0.465
2021-08-19 21:26:42.004,0.165,0.735
2021-08-19 21:26:42.008,0.14,0.89
2021-08-19 21:26:42.012,-0.06,1.04
2021-08-19 21:26:42.016,-0.465,1.255
2021-08-19 21:26:42.020,-1.085,1.5
2021-08-19 21:26:42.024,-1.785,1.64
2021-08-19 21:26:42.060,-1.855,1.09
2021-08-19 21:26:42.064,-1.73,1.015
2021-08-19 21:26:42.068,-1.645,0.96
2021-08-19 21:26:42.072,-1.52,0.86
2021-08-19 21:26:42.076,-1.395,0.61
2021-08-19 21:26:42.080,-1.285,0.195
2021-08-19 21:26:42.084,-1.16,-0.195
2021-08-19 21:26:42.088,-1.06,-0.44
2021-08-19 21:26:42.092,-0.925,-0.55
2021-08-19 21:26:42.096,-0.82,-0.605
2021-08-19 21:26:42.100,-0.7,-0.58
2021-08-19 21:26:42.104,-0.56,-0.52
2021-08-19 21:26:42.108,-0.39,-0.52
2021-08-19 21:26:42.112,-0.21,-0.52
2021-08-19 21:26:42.116,-0.055,-0.49
2021-08-19 21:26:42.120,0.105,-0.47
2021-08-19 21:26:42.124,0.27,-0.485
2021-08-19 21:26:42.128,0.355,-0.495
2021-08-19 21:26:42.132,0.435,-0.475
2021-08-19 21:26:42.136,0.45,-0.44
2021-08-19 21:26:42.140,0.505,-0.445
2021-08-19 21:26:42.144,0.53,-0.46
2021-08-19 21:26:42.148,0.55,-0.445
2021-08-19 21:26:42.152,0.545,-0.46
2021-08-19 21:26:42.156,0.57,-0.445
2021-08-19 21:26:42.160,0.59,-0.45
2021-08-19 21:26:42.164,0.585,-0.445
2021-08-19 21:26:42.168,0.61,-0.455
2021-08-19 21:26:42.172,0.665,-0.435
2021-08-19 21:26:42.176,0.65,-0.445
2021-08-19 21:26:42.180,0.65,-0.425
2021-08-19 21:26:42.184,0.695,-0.43
2021-08-19 21:26:42.188,0.675,-0.46
2021-08-19 21:26:42.192,0.685,-0.46
2021-08-19 21:26:42.196,0.73,-0.44
2021-08-19 21:26:42.200,0.755,-0.44
2021-08-19 21:26:42.204,0.755,-0.455
2021-08-19 21:26:42.208,0.78,-0.46
2021-08-19 21:26:42.212,0.815,-0.44
2021-08-19 21:26:42.216,0.83,-0.455
2021-08-19 21:26:42.220,0.85,-0.45
2021-08-19 21:26:42.224,0.89,-0.48
2021-08-19 21:26:42.228,0.9,-0.465
2021-08-19 21:26:42.232,0.925,-0.48
2021-08-19 21:26:42.236,0.955,-0.485
2021-08-19 21:26:42.240,0.985,-0.48
2021-08-19 21:26:42.244,1.0,-0.51
2021-08-19 21:26:42.248,1.015,-0.51
2021-08-19 21:26:42.252,1.04,-0.5
2021-08-19 21:26:42.256,1.05,-0.495
2021-08-19 21:26:42.260,1.08,-0.5
2021-08-19 21:26:42.264,1.075,-0.49
2021-08-19 21:26:42.268,1.05,-0.46
2021-08-19 21:26:42.272,1.06,-0.445
2021-08-19 21:26:42.276,1.065,-0.42
2021-08-19 21:26:42.280,1.015,-0.41
2021-08-19 21:26:42.284,1.005,-0.37
2021-08-19 21:26:42.288,0.95,-0.325
2021-08-19 21:26:42.292,0.92,-0.295
2021-08-19 21:26:42.296,0.86,-0.27
2021-08-19 21:26:42.300,0.805,-0.235
2021-08-19 21:26:42.304,0.76,-0.205
2021-08-19 21:26:42.308,0.715,-0.19
2021-08-19 21:26:42.312,0.665,-0.185
2021-08-19 21:26:42.316,0.585,-0.155
2021-08-19 21:26:42.320,0.555,-0.145
2021-08-19 21:26:42.324,0.48,-0.16
2021-08-19 21:26:42.328,0.415,-0.19
2021-08-19 21:26:42.332,0.385,-0.16
2021-08-19 21:26:42.336,0.345,-0.165
2021-08-19 21:26:42.340,0.315,-0.175
2021-08-19 21:26:42.344,0.265,-0.195
2021-08-19 21:26:42.348,0.235,-0.19
2021-08-19 21:26:42.352,0.215,-0.21
2021-08-19 21:26:42.356,0.175,-0.24
2021-08-19 21:26:42.360,0.165,-0.25
2021-08-19 21:26:42.364,0.13,-0.255
2021-08-19 21:26:42.368,0.115,-0.245
2021-08-19 21:26:42.372,0.115,-0.26
2021-08-19 21:26:42.376,0.08,-0.26
2021-08-19 21:26:42.380,0.085,-0.26
2021-08-19 21:26:42.384,0.105,-0.25
2021-08-19 21:26:42.388,0.08,-0.28
2021-08-19 21:26:42.392,0.075,-0.275
2021-08-19 21:26:42.396,0.065,-0.275
2021-08-19 21:26:42.400,0.075,-0.26
2021-08-19 21:26:42.404,0.075,-0.275
2021-08-19 21:26:42.408,0.07,-0.28
2021-08-19 21:26:42.412,0.04,-0.28
2021-08-19 21:26:42.416,0.05,-0.28
2021-08-19 21:26:42.420,0.08,-0.315
2021-08-19 21:26:42.424,0.06,-0.3
2021-08-19 21:26:42.428,0.075,-0.295
2021-08-19 21:26:42.432,0.085,-0.315
2021-08-19 21:26:42.436,0.08,-0.32
2021-08-19 21:26:42.440,0.07,-0.32
2021-08-19 21:26:42.444,0.055,-0.32
2021-08-19 21:26:42.448,0.075,-0.325
2021-08-19 21:26:42.452,0.1,-0.335
2021-08-19 21:26:42.456,0.085,-0.33
2021-08-19 21:26:42.460,0.085,-0.33
2021-08-19 21:26:42.464,0.08,-0.35
2021-08-19 21:26:42.468,0.085,-0.35
2021-08-19 21:26:42.472,0.095,-0.35
2021-08-19 21:26:42.476,0.09,-0.33
2021-08-19 21:26:42.480,0.1,-0.315
2021-08-19 21:26:42.484,0.09,-0.345
2021-08-19 21:26:42.488,0.085,-0.34
2021-08-19 21:26:42.492,0.08,-0.345
2021-08-19 21:26:42.496,0.1,-0.325
2021-08-19 21:26:42.500,0.1,-0.34
2021-08-19 21:26:42.504,0.095,-0.33
2021-08-19 21:26:42.508,0.08,-0.315
2021-08-19 21:26:42.512,0.065,-0.32
2021-08-19 21:26:42.516,0.06,-0.34
2021-08-19 21:26:42.520,0.055,-0.335
2021-08-19 21:26:42.524,0.045,-0.315
2021-08-19 21:26:42.528,0.06,-0.305
2021-08-19 21:26:42.532,0.065,-0.32
2021-08-19 21:26:42.536,0.045,-0.31
2021-08-19 21:26:42.540,0.05,-0.305
2021-08-19 21:26:42.544,0.03,-0.275
2021-08-19 21:26:42.548,0.03,-0.265
2021-08-19 21:26:42.552,0.025,-0.22
2021-08-19 21:26:42.556,0.03,-0.195
2021-08-19 21:26:42.560,0.04,-0.17
2021-08-19 21:26:42.564,0.055,-0.18
2021-08-19 21:26:42.568,0.095,-0.15
2021-08-19 21:26:42.572,0.11,-0.125
2021-08-19 21:26:42.576,0.14,-0.105
2021-08-19 21:26:42.580,0.17,-0.105
2021-08-19 21:26:42.584,0.17,-0.095
2021-08-19 21:26:42.588,0.21,-0.095
2021-08-19 21:26:42.592,0.225,-0.105
2021-08-19 21:26:42.596,0.22,-0.105
2021-08-19 21:26:42.600,0.215,-0.14
2021-08-19 21:26:42.604,0.165,-0.155
2021-08-19 21:26:42.608,0.155,-0.17
2021-08-19 21:26:42.612,0.11,-0.19
2021-08-19 21:26:42.616,0.085,-0.21
2021-08-19 21:26:42.620,0.055,-0.255
2021-08-19 21:26:42.624,0.055,-0.275
2021-08-19 21:26:42.628,0.015,-0.29
2021-08-19 21:26:42.632,-0.005,-0.3
2021-08-19 21:26:42.636,-0.035,-0.315
2021-08-19 21:26:42.640,-0.06,-0.375
2021-08-19 21:26:42.644,-0.06,-0.385
2021-08-19 21:26:42.648,-0.035,-0.375
2021-08-19 21:26:42.652,-0.02,-0.375
2021-08-19 21:26:42.656,-0.04,-0.365
2021-08-19 21:26:42.660,-0.025,-0.37
2021-08-19 21:26:42.664,-0.025,-0.375
2021-08-19 21:26:42.668,-0.06,-0.38
2021-08-19 21:26:42.672,-0.05,-0.385
2021-08-19 21:26:42.676,-0.005,-0.36
2021-08-19 21:26:42.680,-0.045,-0.355
2021-08-19 21:26:42.684,-0.05,-0.355
2021-08-19 21:26:42.688,-0.03,-0.36
2021-08-19 21:26:42.692,-0.05,-0.38
2021-08-19 21:26:42.696,-0.055,-0.36
2021-08-19 21:26:42.700,-0.035,-0.36
2021-08-19 21:26:42.704,-0.04,-0.35
2021-08-19 21:26:42.708,-0.03,-0.36
2021-08-19 21:26:42.712,-0.035,-0.335
2021-08-19 21:26:42.716,-0.03,-0.335
2021-08-19 21:26:42.720,-0.04,-0.335
2021-08-19 21:26:42.724,-0.04,-0.305
2021-08-19 21:26:42.728,-0.025,-0.265
2021-08-19 21:26:42.732,-0.025,-0.2
2021-08-19 21:26:42.736,-0.01,-0.105
2021-08-19 21:26:42.740,-0.02,0.08
2021-08-19 21:26:42.744,0.03,0.315
2021-08-19 21:26:42.748,0.095,0.57
2021-08-19 21:26:42.752,0.105,0.745
2021-08-19 21:26:42.756,-0.04,0.895
2021-08-19 21:26:42.760,-0.385,1.085
2021-08-19 21:26:42.764,-0.955,1.3
2021-08-19 21:26:42.768,-1.72,1.49
2021-08-19 21:26:42.804,-1.92,0.98
2021-08-19 21:26:42.808,-1.78,0.895
2021-08-19 21:26:42.812,-1.68,0.82
2021-08-19 21:26:42.816,-1.56,0.705
2021-08-19 21:26:42.820,-1.435,0.445
2021-08-19 21:26:42.824,-1.305,0.01
2021-08-19 21:26:42.828,-1.195,-0.36
2021-08-19 21:26:42.832,-1.07,-0.535
2021-08-19 21:26:42.836,-0.94,-0.62
2021-08-19 21:26:42.840,-0.78,-0.61
2021-08-19 21:26:42.844,-0.685,-0.595
2021-08-19 21:26:42.848,-0.52,-0.555
2021-08-19 21:26:42.852,-0.385,-0.53
2021-08-19 21:26:42.856,-0.19,-0.505
2021-08-19 21:26:42.860,-0.03,-0.505
2021-08-19 21:26:42.864,0.145,-0.465
2021-08-19 21:26:42.868,0.265,-0.48
2021-08-19 21:26:42.872,0.34,-0.48
2021-08-19 21:26:42.876,0.39,-0.465
2021-08-19 21:26:42.880,0.415,-0.47
2021-08-19 21:26:42.884,0.47,-0.455
2021-08-19 21:26:42.888,0.47,-0.47
2021-08-19 21:26:42.892,0.505,-0.465
2021-08-19 21:26:42.896,0.51,-0.445
2021-08-19 21:26:42.900,0.525,-0.465
2021-08-19 21:26:42.904,0.545,-0.47
2021-08-19 21:26:42.908,0.57,-0.45
2021-08-19 21:26:42.912,0.57,-0.44
2021-08-19 21:26:42.916,0.585,-0.45
2021-08-19 21:26:42.920,0.61,-0.455
2021-08-19 21:26:42.924,0.62,-0.445
2021-08-19 21:26:42.928,0.61,-0.43
2021-08-19 21:26:42.932,0.665,-0.43
2021-08-19 21:26:42.936,0.675,-0.46
2021-08-19 21:26:42.940,0.67,-0.43
2021-08-19 21:26:42.944,0.705,-0.435
2021-08-19 21:26:42.948,0.715,-0.43
2021-08-19 21:26:42.952,0.74,-0.42
2021-08-19 21:26:42.956,0.775,-0.445
2021-08-19 21:26:42.960,0.79,-0.45
2021-08-19 21:26:42.964,0.84,-0.445
2021-08-19 21:26:42.968,0.85,-0.455
2021-08-19 21:26:42.972,0.855,-0.455
2021-08-19 21:26:42.976,0.905,-0.475
2021-08-19 21:26:42.980,0.895,-0.48
2021-08-19 21:26:42.984,0.94,-0.48
2021-08-19 21:26:42.988,0.95,-0.48
2021-08-19 21:26:42.992,0.99,-0.475
2021-08-19 21:26:42.996,1.03,-0.485
2021-08-19 21:26:43.000,1.02,-0.465
2021-08-19 21:26:43.004,1.045,-0.47
2021-08-19 21:26:43.008,1.035,-0.445
2021-08-19 21:26:43.012,1.025,-0.44
2021-08-19 21:26:43.016,1.005,-0.42
2021-08-19 21:26:43.020,0.995,-0.37
2021-08-19 21:26:43.024,0.94,-0.355
2021-08-19 21:26:43.028,0.92,-0.315
2021-08-19 21:26:43.032,0.875,-0.305
2021-08-19 21:26:43.036,0.825,-0.27
2021-08-19 21:26:43.040,0.775,-0.23
2021-08-19 21:26:43.044,0.73,-0.2
2021-08-19 21:26:43.048,0.665,-0.18
2021-08-19 21:26:43.052,0.615,-0.155
2021-08-19 21:26:43.056,0.54,-0.145
2021-08-19 21:26:43.060,0.49,-0.155
2021-08-19 21:26:43.064,0.415,-0.135
2021-08-19 21:26:43.068,0.375,-0.145
2021-08-19 21:26:43.072,0.33,-0.15
2021-08-19 21:26:43.076,0.295,-0.17
2021-08-19 21:26:43.080,0.24,-0.19
2021-08-19 21:26:43.084,0.215,-0.2
2021-08-19 21:26:43.088,0.19,-0.2
2021-08-19 21:26:43.092,0.14,-0.225
2021-08-19 21:26:43.096,0.12,-0.21
2021-08-19 21:26:43.100,0.09,-0.225
2021-08-19 21:26:43.104,0.09,-0.235
2021-08-19 21:26:43.108,0.09,-0.245
2021-08-19 21:26:43.112,0.085,-0.24
2021-08-19 21:26:43.116,0.055,-0.245
2021-08-19 21:26:43.120,0.075,-0.26
2021-08-19 21:26:43.124,0.045,-0.265
2021-08-19 21:26:43.128,0.05,-0.27
2021-08-19 21:26:43.132,0.05,-0.265
2021-08-19 21:26:43.136,0.035,-0.26
2021-08-19 21:26:43.140,0.01,-0.285
2021-08-19 21:26:43.144,0.035,-0.295
2021-08-19 21:26:43.148,0.025,-0.285
2021-08-19 21:26:43.152,0.025,-0.3
2021-08-19 21:26:43.156,0.015,-0.295
2021-08-19 21:26:43.160,0.03,-0.29
2021-08-19 21:26:43.164,0.02,-0.3
2021-08-19 21:26:43.168,0.03,-0.33
2021-08-19 21:26:43.172,0.04,-0.31
2021-08-19 21:26:43.176,0.04,-0.305
2021-08-19 21:26:43.180,0.045,-0.32
2021-08-19 21:26:43.184,0.035,-0.305
2021-08-19 21:26:43.188,0.025,-0.36
2021-08-19 21:26:43.192,0.035,-0.33
2021-08-19 21:26:43.196,0.045,-0.335
2021-08-19 21:26:43.200,0.04,-0.35
2021-08-19 21:26:43.204,0.045,-0.34
2021-08-19 21:26:43.208,0.025,-0.345
2021-08-19 21:26:43.212,0.05,-0.35
2021-08-19 21:26:43.216,0.075,-0.32
2021-08-19 21:26:43.220,0.055,-0.34
2021-08-19 21:26:43.224,0.04,-0.34
2021-08-19 21:26:43.228,0.045,-0.35
2021-08-19 21:26:43.232,0.04,-0.325
2021-08-19 21:26:43.236,0.025,-0.32
2021-08-19 21:26:43.240,0.03,-0.34
2021-08-19 21:26:43.244,0.03,-0.325
2021-08-19 21:26:43.248,0.015,-0.335
2021-08-19 21:26:43.252,0.01,-0.34
2021-08-19 21:26:43.256,0.015,-0.305
2021-08-19 21:26:43.260,0.01,-0.33
2021-08-19 21:26:43.264,0.005,-0.32
2021-08-19 21:26:43.268,0.0,-0.32
2021-08-19 21:26:43.272,0.01,-0.315
2021-08-19 21:26:43.276,-0.01,-0.32
2021-08-19 21:26:43.280,0.005,-0.315
2021-08-19 21:26:43.284,-0.02,-0.3
2021-08-19 21:26:43.288,-0.015,-0.265
2021-08-19 21:26:43.292,-0.01,-0.255
2021-08-19 21:26:43.296,-0.02,-0.215
2021-08-19 21:26:43.300,0.0,-0.195
2021-08-19 21:26:43.304,0.015,-0.205
2021-08-19 21:26:43.308,0.055,-0.17
2021-08-19 21:26:43.312,0.065,-0.12
2021-08-19 21:26:43.316,0.085,-0.095
2021-08-19 21:26:43.320,0.12,-0.12
2021-08-19 21:26:43.324,0.15,-0.1
2021-08-19 21:26:43.328,0.155,-0.085
2021-08-19 21:26:43.332,0.14,-0.105
2021-08-19 21:26:43.336,0.155,-0.145
2021-08-19 21:26:43.340,0.17,-0.15
2021-08-19 21:26:43.344,0.115,-0.15
2021-08-19 21:26:43.348,0.08,-0.17
2021-08-19 21:26:43.352,0.04,-0.215
2021-08-19 21:26:43.356,0.01,-0.23
2021-08-19 21:26:43.360,-0.01,-0.26
2021-08-19 21:26:43.364,-0.01,-0.265
2021-08-19 21:26:43.368,-0.055,-0.285
2021-08-19 21:26:43.372,-0.08,-0.32
2021-08-19 21:26:43.376,-0.1,-0.34
2021-08-19 21:26:43.380,-0.12,-0.37
2021-08-19 21:26:43.384,-0.105,-0.375
2021-08-19 21:26:43.388,-0.07,-0.375
2021-08-19 21:26:43.392,-0.065,-0.375
2021-08-19 21:26:43.396,-0.09,-0.38
2021-08-19 21:26:43.400,-0.11,-0.39
2021-08-19 21:26:43.404,-0.1,-0.38
2021-08-19 21:26:43.408,-0.12,-0.36
2021-08-19 21:26:43.412,-0.11,-0.385
2021-08-19 21:26:43.416,-0.115,-0.375
2021-08-19 21:26:43.420,-0.11,-0.355
2021-08-19 21:26:43.424,-0.1,-0.355
2021-08-19 21:26:43.428,-0.08,-0.365
2021-08-19 21:26:43.432,-0.085,-0.355
2021-08-19 21:26:43.436,-0.09,-0.35
2021-08-19 21:26:43.440,-0.115,-0.355
2021-08-19 21:26:43.444,-0.105,-0.365
2021-08-19 21:26:43.448,-0.13,-0.36
2021-08-19 21:26:43.452,-0.13,-0.335
2021-08-19 21:26:43.456,-0.115,-0.315
2021-08-19 21:26:43.460,-0.12,-0.32
2021-08-19 21:26:43.464,-0.105,-0.295
2021-08-19 21:26:43.468,-0.085,-0.215
2021-08-19 21:26:43.472,-0.105,-0.115
2021-08-19 21:26:43.476,-0.07,0.02
2021-08-19 21:26:43.480,-0.06,0.24
2021-08-19 21:26:43.484,0.01,0.535
2021-08-19 21:26:43.488,0.05,0.745
2021-08-19 21:26:43.492,-0.07,0.845
2021-08-19 21:26:43.496,-0.36,1.005
2021-08-19 21:26:43.500,-0.885,1.235
2021-08-19 21:26:43.504,-1.6,1.45
2021-08-19 21:26:43.544,-1.945,0.86
2021-08-19 21:26:43.548,-1.82,0.765
2021-08-19 21:26:43.552,-1.72,0.68
2021-08-19 21:26:43.556,-1.575,0.45
2021-08-19 21:26:43.560,-1.435,0.06
2021-08-19 21:26:43.564,-1.32,-0.32
2021-08-19 21:26:43.568,-1.205,-0.515
2021-08-19 21:26:43.572,-1.06,-0.63
2021-08-19 21:26:43.576,-0.915,-0.655
2021-08-19 21:26:43.580,-0.78,-0.61
2021-08-19 21:26:43.584,-0.655,-0.585
2021-08-19 21:26:43.588,-0.48,-0.545
2021-08-19 21:26:43.592,-0.305,-0.53
2021-08-19 21:26:43.596,-0.125,-0.505
2021-08-19 21:26:43.600,0.04,-0.505
2021-08-19 21:26:43.604,0.18,-0.495
2021-08-19 21:26:43.608,0.28,-0.5
2021-08-19 21:26:43.612,0.325,-0.505
2021-08-19 21:26:43.616,0.36,-0.495
2021-08-19 21:26:43.620,0.365,-0.495
2021-08-19 21:26:43.624,0.41,-0.485
2021-08-19 21:26:43.628,0.43,-0.48
2021-08-19 21:26:43.632,0.45,-0.475
2021-08-19 21:26:43.636,0.45,-0.5
2021-08-19 21:26:43.640,0.48,-0.475
2021-08-19 21:26:43.644,0.485,-0.48
2021-08-19 21:26:43.648,0.51,-0.475
2021-08-19 21:26:43.652,0.525,-0.47
2021-08-19 21:26:43.656,0.535,-0.455
2021-08-19 21:26:43.660,0.55,-0.465
2021-08-19 21:26:43.664,0.545,-0.455
2021-08-19 21:26:43.668,0.575,-0.46
2021-08-19 21:26:43.672,0.595,-0.45
2021-08-19 21:26:43.676,0.62,-0.44
2021-08-19 21:26:43.680,0.635,-0.445
2021-08-19 21:26:43.684,0.65,-0.455
2021-08-19 21:26:43.688,0.67,-0.47
2021-08-19 21:26:43.692,0.7,-0.46
2021-08-19 21:26:43.696,0.74,-0.46
2021-08-19 21:26:43.700,0.77,-0.48
2021-08-19 21:26:43.704,0.785,-0.485
2021-08-19 21:26:43.708,0.81,-0.505
2021-08-19 21:26:43.712,0.86,-0.475
2021-08-19 21:26:43.716,0.88,-0.48
2021-08-19 21:26:43.720,0.895,-0.505
2021-08-19 21:26:43.724,0.925,-0.495
2021-08-19 21:26:43.728,0.94,-0.49
2021-08-19 21:26:43.732,0.945,-0.5
2021-08-19 21:26:43.736,0.96,-0.5
2021-08-19 21:26:43.740,0.96,-0.435
2021-08-19 21:26:43.744,0.975,-0.445
2021-08-19 21:26:43.748,0.945,-0.44
2021-08-19 21:26:43.752,0.93,-0.405
2021-08-19 21:26:43.756,0.905,-0.38
2021-08-19 21:26:43.760,0.87,-0.34
2021-08-19 21:26:43.764,0.845,-0.32
2021-08-19 21:26:43.768,0.8,-0.285
2021-08-19 21:26:43.772,0.755,-0.24
2021-08-19 21:26:43.776,0.705,-0.205
2021-08-19 21:26:43.780,0.635,-0.195
2021-08-19 21:26:43.784,0.6,-0.175
2021-08-19 21:26:43.788,0.53,-0.165
2021-08-19 21:26:43.792,0.485,-0.14
2021-08-19 21:26:43.796,0.425,-0.17
2021-08-19 21:26:43.800,0.375,-0.175
2021-08-19 21:26:43.804,0.32,-0.175
2021-08-19 21:26:43.808,0.285,-0.19
2021-08-19 21:26:43.812,0.245,-0.2
2021-08-19 21:26:43.816,0.205,-0.205
2021-08-19 21:26:43.820,0.155,-0.195
2021-08-19 21:26:43.824,0.125,-0.2
2021-08-19 21:26:43.828,0.095,-0.23
2021-08-19 21:26:43.832,0.09,-0.235
2021-08-19 21:26:43.836,0.065,-0.23
2021-08-19 21:26:43.840,0.045,-0.25
2021-08-19 21:26:43.844,0.04,-0.24
2021-08-19 21:26:43.848,0.035,-0.265
2021-08-19 21:26:43.852,0.035,-0.26
2021-08-19 21:26:43.856,0.04,-0.255
2021-08-19 21:26:43.860,0.005,-0.285
2021-08-19 21:26:43.864,0.015,-0.265
2021-08-19 21:26:43.868,0.01,-0.27
2021-08-19 21:26:43.872,0.0,-0.275
2021-08-19 21:26:43.876,0.0,-0.295
2021-08-19 21:26:43.880,0.0,-0.27
2021-08-19 21:26:43.884,0.005,-0.295
2021-08-19 21:26:43.888,0.0,-0.3
2021-08-19 21:26:43.892,0.005,-0.315
2021-08-19 21:26:43.896,0.015,-0.315
2021-08-19 21:26:43.900,0.0,-0.305
2021-08-19 21:26:43.904,0.01,-0.31
2021-08-19 21:26:43.908,0.01,-0.31
2021-08-19 21:26:43.912,0.01,-0.315
2021-08-19 21:26:43.916,0.02,-0.31
2021-08-19 21:26:43.920,0.015,-0.33
2021-08-19 21:26:43.924,0.02,-0.335
2021-08-19 21:26:43.928,0.01,-0.33
2021-08-19 21:26:43.932,0.015,-0.34
2021-08-19 21:26:43.936,0.02,-0.33
2021-08-19 21:26:43.940,0.02,-0.31
2021-08-19 21:26:43.944,0.015,-0.33
2021-08-19 21:26:43.948,0.0,-0.31
2021-08-19 21:26:43.952,0.01,-0.325
2021-08-19 21:26:43.956,0.02,-0.325
2021-08-19 21:26:43.960,0.0,-0.325
2021-08-19 21:26:43.964,0.01,-0.335
2021-08-19 21:26:43.968,0.02,-0.32
2021-08-19 21:26:43.972,0.0,-0.33
2021-08-19 21:26:43.976,-0.005,-0.33
2021-08-19 21:26:43.980,0.015,-0.305
2021-08-19 21:26:43.984,0.01,-0.3
2021-08-19 21:26:43.988,0.0,-0.3
2021-08-19 21:26:43.992,-0.02,-0.3
2021-08-19 21:26:43.996,-0.01,-0.315
2021-08-19 21:26:44.000,-0.03,-0.31
2021-08-19 21:26:44.004,0.0,-0.33
2021-08-19 21:26:44.008,0.01,-0.295
2021-08-19 21:26:44.012,-0.02,-0.28
2021-08-19 21:26:44.016,-0.02,-0.265
2021-08-19 21:26:44.020,-0.02,-0.24
2021-08-19 21:26:44.024,-0.045,-0.205
2021-08-19 21:26:44.028,-0.035,-0.19
2021-08-19 21:26:44.032,-0.03,-0.18
2021-08-19 21:26:44.036,0.0,-0.15
2021-08-19 21:26:44.040,0.015,-0.13
2021-08-19 21:26:44.044,0.055,-0.1
2021-08-19 21:26:44.048,0.085,-0.08
2021-08-19 21:26:44.052,0.105,-0.065
2021-08-19 21:26:44.056,0.13,-0.08
2021-08-19 21:26:44.060,0.135,-0.07
2021-08-19 21:26:44.064,0.15,-0.075
2021-08-19 21:26:44.068,0.165,-0.08
2021-08-19 21:26:44.072,0.15,-0.125
2021-08-19 21:26:44.076,0.13,-0.12
2021-08-19 21:26:44.080,0.08,-0.135
2021-08-19 21:26:44.084,0.025,-0.175
2021-08-19 21:26:44.088,-0.005,-0.225
2021-08-19 21:26:44.092,-0.005,-0.235
2021-08-19 21:26:44.096,-0.03,-0.225
2021-08-19 21:26:44.100,-0.065,-0.245
2021-08-19 21:26:44.104,-0.1,-0.275
2021-08-19 21:26:44.108,-0.115,-0.3
2021-08-19 21:26:44.112,-0.105,-0.34
2021-08-19 21:26:44.116,-0.125,-0.34
2021-08-19 21:26:44.120,-0.09,-0.35
2021-08-19 21:26:44.124,-0.1,-0.345
2021-08-19 21:26:44.128,-0.105,-0.34
2021-08-19 21:26:44.132,-0.1,-0.345
2021-08-19 21:26:44.136,-0.125,-0.35
2021-08-19 21:26:44.140,-0.135,-0.33
2021-08-19 21:26:44.144,-0.115,-0.33
2021-08-19 21:26:44.148,-0.11,-0.33
2021-08-19 21:26:44.152,-0.11,-0.33
2021-08-19 21:26:44.156,-0.125,-0.335
2021-08-19 21:26:44.160,-0.135,-0.315
2021-08-19 21:26:44.164,-0.125,-0.305
2021-08-19 21:26:44.168,-0.14,-0.34
2021-08-19 21:26:44.172,-0.12,-0.34
2021-08-19 21:26:44.176,-0.12,-0.3
2021-08-19 21:26:44.180,-0.13,-0.3
2021-08-19 21:26:44.184,-0.1,-0.285
2021-08-19 21:26:44.188,-0.105,-0.285
2021-08-19 21:26:44.192,-0.1,-0.265
2021-08-19 21:26:44.196,-0.11,-0.255
2021-08-19 21:26:44.200,-0.135,-0.23
2021-08-19 21:26:44.204,-0.11,-0.125
2021-08-19 21:26:44.208,-0.1,0.01
2021-08-19 21:26:44.212,-0.08,0.185
2021-08-19 21:26:44.216,-0.045,0.445
2021-08-19 21:26:44.220,0.01,0.695
2021-08-19 21:26:44.224,-0.01,0.825
2021-08-19 21:26:44.228,-0.205,0.95
2021-08-19 21:26:44.232,-0.605,1.105
2021-08-19 21:26:44.236,-1.26,1.32
2021-08-19 21:26:44.240,-1.96,1.48
2021-08-19 21:26:44.280,-1.9,0.765
2021-08-19 21:26:44.284,-1.775,0.685
2021-08-19 21:26:44.288,-1.66,0.515
2021-08-19 21:26:44.292,-1.525,0.185
2021-08-19 21:26:44.296,-1.395,-0.205
2021-08-19 21:26:44.300,-1.29,-0.49
2021-08-19 21:26:44.304,-1.155,-0.595
2021-08-19 21:26:44.308,-1.025,-0.64
2021-08-19 21:26:44.312,-0.9,-0.61
2021-08-19 21:26:44.316,-0.76,-0.56
2021-08-19 21:26:44.320,-0.6,-0.535
2021-08-19 21:26:44.324,-0.43,-0.51
2021-08-19 21:26:44.328,-0.26,-0.475
2021-08-19 21:26:44.332,-0.085,-0.465
2021-08-19 21:26:44.336,0.09,-0.46
2021-08-19 21:26:44.340,0.21,-0.465
2021-08-19 21:26:44.344,0.275,-0.44
2021-08-19 21:26:44.348,0.31,-0.46
2021-08-19 21:26:44.352,0.34,-0.455
2021-08-19 21:26:44.356,0.365,-0.44
2021-08-19 21:26:44.360,0.385,-0.425
2021-08-19 21:26:44.364,0.405,-0.435
2021-08-19 21:26:44.368,0.425,-0.43
2021-08-19 21:26:44.372,0.425,-0.445
2021-08-19 21:26:44.376,0.465,-0.415
2021-08-19 21:26:44.380,0.465,-0.445
2021-08-19 21:26:44.384,0.495,-0.43
2021-08-19 21:26:44.388,0.5,-0.415
2021-08-19 21:26:44.392,0.515,-0.425
2021-08-19 21:26:44.396,0.505,-0.425
2021-08-19 21:26:44.400,0.535,-0.415
2021-08-19 21:26:44.404,0.575,-0.425
2021-08-19 21:26:44.408,0.57,-0.425
2021-08-19 21:26:44.412,0.59,-0.42
2021-08-19 21:26:44.416,0.605,-0.425
2021-08-19 21:26:44.420,0.645,-0.41
2021-08-19 21:26:44.424,0.67,-0.415
2021-08-19 21:26:44.428,0.675,-0.41
2021-08-19 21:26:44.432,0.705,-0.43
2021-08-19 21:26:44.436,0.755,-0.425
2021-08-19 21:26:44.440,0.79,-0.44
2021-08-19 21:26:44.444,0.815,-0.455
2021-08-19 21:26:44.448,0.825,-0.475
2021-08-19 21:26:44.452,0.84,-0.455
2021-08-19 21:26:44.456,0.875,-0.45
2021-08-19 21:26:44.460,0.9,-0.46
2021-08-19 21:26:44.464,0.89,-0.485
2021-08-19 21:26:44.468,0.92,-0.445
2021-08-19 21:26:44.472,0.93,-0.455
2021-08-19 21:26:44.476,0.975,-0.425
2021-08-19 21:26:44.480,0.935,-0.42
2021-08-19 21:26:44.484,0.955,-0.405
2021-08-19 21:26:44.488,0.94,-0.345
2021-08-19 21:26:44.492,0.895,-0.34
2021-08-19 21:26:44.496,0.86,-0.31
2021-08-19 21:26:44.500,0.835,-0.275
2021-08-19 21:26:44.504,0.79,-0.255
2021-08-19 21:26:44.508,0.74,-0.23
2021-08-19 21:26:44.512,0.69,-0.21
2021-08-19 21:26:44.516,0.665,-0.18
2021-08-19 21:26:44.520,0.61,-0.15
2021-08-19 21:26:44.524,0.545,-0.165
2021-08-19 21:26:44.528,0.46,-0.18
2021-08-19 21:26:44.532,0.425,-0.155
2021-08-19 21:26:44.536,0.355,-0.15
2021-08-19 21:26:44.540,0.315,-0.155
2021-08-19 21:26:44.544,0.255,-0.185
2021-08-19 21:26:44.548,0.24,-0.18
2021-08-19 21:26:44.552,0.2,-0.175
2021-08-19 21:26:44.556,0.15,-0.205
2021-08-19 21:26:44.560,0.11,-0.225
2021-08-19 21:26:44.564,0.09,-0.2
2021-08-19 21:26:44.568,0.07,-0.215
2021-08-19 21:26:44.572,0.04,-0.225
2021-08-19 21:26:44.576,0.03,-0.24
2021-08-19 21:26:44.580,0.01,-0.235
2021-08-19 21:26:44.584,0.0,-0.24
2021-08-19 21:26:44.588,0.0,-0.26
2021-08-19 21:26:44.592,-0.01,-0.265
2021-08-19 21:26:44.596,-0.015,-0.27
2021-08-19 21:26:44.600,-0.01,-0.285
2021-08-19 21:26:44.604,0.01,-0.275
2021-08-19 21:26:44.608,-0.015,-0.29
2021-08-19 21:26:44.612,-0.015,-0.28
2021-08-19 21:26:44.616,-0.035,-0.265
2021-08-19 21:26:44.620,-0.025,-0.28
2021-08-19 21:26:44.624,-0.02,-0.3
2021-08-19 21:26:44.628,-0.015,-0.315
2021-08-19 21:26:44.632,0.01,-0.3
2021-08-19 21:26:44.636,-0.01,-0.305
2021-08-19 21:26:44.640,-0.02,-0.32
2021-08-19 21:26:44.644,0.0,-0.305
2021-08-19 21:26:44.648,-0.005,-0.3
2021-08-19 21:26:44.652,0.0,-0.305
2021-08-19 21:26:44.656,0.005,-0.325
2021-08-19 21:26:44.660,0.005,-0.32
2021-08-19 21:26:44.664,0.0,-0.31
2021-08-19 21:26:44.668,0.0,-0.32
2021-08-19 21:26:44.672,0.0,-0.335
2021-08-19 21:26:44.676,-0.005,-0.33
2021-08-19 21:26:44.680,-0.015,-0.345
2021-08-19 21:26:44.684,-0.025,-0.31
2021-08-19 21:26:44.688,0.02,-0.32
2021-08-19 21:26:44.692,0.01,-0.33
2021-08-19 21:26:44.696,0.005,-0.31
2021-08-19 21:26:44.700,0.01,-0.345
2021-08-19 21:26:44.704,0.0,-0.33
2021-08-19 21:26:44.708,0.025,-0.31
2021-08-19 21:26:44.712,0.02,-0.315
2021-08-19 21:26:44.716,-0.01,-0.335
2021-08-19 21:26:44.720,-0.01,-0.345
2021-08-19 21:26:44.724,-0.015,-0.33
2021-08-19 21:26:44.728,0.005,-0.32
2021-08-19 21:26:44.732,0.025,-0.315
2021-08-19 21:26:44.736,0.005,-0.32
2021-08-19 21:26:44.740,0.01,-0.3
2021-08-19 21:26:44.744,0.0,-0.315
2021-08-19 21:26:44.748,0.0,-0.3
2021-08-19 21:26:44.752,0.0,-0.305
2021-08-19 21:26:44.756,0.0,-0.29
2021-08-19 21:26:44.760,0.015,-0.25
2021-08-19 21:26:44.764,0.01,-0.225
2021-08-19 21:26:44.768,0.0,-0.19
2021-08-19 21:26:44.772,0.015,-0.19
2021-08-19 21:26:44.776,0.02,-0.16
2021-08-19 21:26:44.780,0.065,-0.125
2021-08-19 21:26:44.784,0.085,-0.105
2021-08-19 21:26:44.788,0.09,-0.085
2021-08-19 21:26:44.792,0.105,-0.085
2021-08-19 21:26:44.796,0.155,-0.08
2021-08-19 21:26:44.800,0.195,-0.055
2021-08-19 21:26:44.804,0.185,-0.085
2021-08-19 21:26:44.808,0.19,-0.095
2021-08-19 21:26:44.812,0.16,-0.13
2021-08-19 21:26:44.816,0.13,-0.145
2021-08-19 21:26:44.820,0.095,-0.155
2021-08-19 21:26:44.824,0.05,-0.19
2021-08-19 21:26:44.828,0.025,-0.22
2021-08-19 21:26:44.832,0.005,-0.235
2021-08-19 21:26:44.836,-0.025,-0.23
2021-08-19 21:26:44.840,-0.065,-0.255
2021-08-19 21:26:44.844,-0.09,-0.29
2021-08-19 21:26:44.848,-0.1,-0.325
2021-08-19 21:26:44.852,-0.095,-0.335
2021-08-19 21:26:44.856,-0.08,-0.34
2021-08-19 21:26:44.860,-0.055,-0.355
2021-08-19 21:26:44.864,-0.04,-0.325
2021-08-19 21:26:44.868,-0.08,-0.33
2021-08-19 21:26:44.872,-0.085,-0.33
2021-08-19 21:26:44.876,-0.045,-0.345
2021-08-19 21:26:44.880,-0.05,-0.32
2021-08-19 21:26:44.884,-0.085,-0.325
2021-08-19 21:26:44.888,-0.075,-0.33
2021-08-19 21:26:44.892,-0.075,-0.335
2021-08-19 21:26:44.896,-0.075,-0.34
2021-08-19 21:26:44.900,-0.085,-0.32
2021-08-19 21:26:44.904,-0.085,-0.335
2021-08-19 21:26:44.908,-0.065,-0.33
2021-08-19 21:26:44.912,-0.05,-0.31
2021-08-19 21:26:44.916,-0.06,-0.315
2021-08-19 21:26:44.920,-0.075,-0.315
2021-08-19 21:26:44.924,-0.065,-0.3
2021-08-19 21:26:44.928,-0.065,-0.305
2021-08-19 21:26:44.932,-0.05,-0.295
2021-08-19 21:26:44.936,-0.055,-0.25
2021-08-19 21:26:44.940,-0.06,-0.24
2021-08-19 21:26:44.944,-0.075,-0.195
2021-08-19 21:26:44.948,-0.055,-0.12
2021-08-19 21:26:44.952,-0.065,0.01
2021-08-19 21:26:44.956,-0.045,0.19
2021-08-19 21:26:44.960,-0.01,0.425
2021-08-19 21:26:44.964,0.035,0.685
2021-08-19 21:26:44.968,0.035,0.825
2021-08-19 21:26:44.972,-0.145,0.935
2021-08-19 21:26:44.976,-0.485,1.06
2021-08-19 21:26:44.980,-1.055,1.265
2021-08-19 21:26:44.984,-1.75,1.42
2021-08-19 21:26:45.024,-1.94,0.785
2021-08-19 21:26:45.028,-1.83,0.685
2021-08-19 21:26:45.032,-1.7,0.615
2021-08-19 21:26:45.036,-1.58,0.45
2021-08-19 21:26:45.040,-1.465,0.125
2021-08-19 21:26:45.044,-1.35,-0.205
2021-08-19 21:26:45.048,-1.23,-0.47
2021-08-19 21:26:45.052,-1.125,-0.58
2021-08-19 21:26:45.056,-0.975,-0.63
2021-08-19 21:26:45.060,-0.84,-0.61
2021-08-19 21:26:45.064,-0.715,-0.535
2021-08-19 21:26:45.068,-0.56,-0.52
2021-08-19 21:26:45.072,-0.4,-0.505
2021-08-19 21:26:45.076,-0.23,-0.48
2021-08-19 21:26:45.080,-0.07,-0.425
2021-08-19 21:26:45.084,0.065,-0.445
2021-08-19 21:26:45.088,0.19,-0.46
2021-08-19 21:26:45.092,0.275,-0.44
2021-08-19 21:26:45.096,0.29,-0.425
2021-08-19 21:26:45.100,0.36,-0.415
2021-08-19 21:26:45.104,0.37,-0.44
2021-08-19 21:26:45.108,0.4,-0.45
2021-08-19 21:26:45.112,0.43,-0.43
2021-08-19 21:26:45.116,0.43,-0.415
2021-08-19 21:26:45.120,0.46,-0.43
2021-08-19 21:26:45.124,0.465,-0.42
2021-08-19 21:26:45.128,0.47,-0.43
2021-08-19 21:26:45.132,0.48,-0.445
2021-08-19 21:26:45.136,0.5,-0.43
2021-08-19 21:26:45.140,0.5,-0.4
2021-08-19 21:26:45.144,0.52,-0.39
2021-08-19 21:26:45.148,0.525,-0.395
2021-08-19 21:26:45.152,0.55,-0.395
2021-08-19 21:26:45.156,0.565,-0.4
2021-08-19 21:26:45.160,0.575,-0.415
2021-08-19 21:26:45.164,0.585,-0.4
2021-08-19 21:26:45.168,0.595,-0.4
2021-08-19 21:26:45.172,0.615,-0.4
2021-08-19 21:26:45.176,0.635,-0.39
2021-08-19 21:26:45.180,0.66,-0.425
2021-08-19 21:26:45.184,0.695,-0.415
2021-08-19 21:26:45.188,0.725,-0.425
2021-08-19 21:26:45.192,0.735,-0.415
2021-08-19 21:26:45.196,0.765,-0.435
2021-08-19 21:26:45.200,0.815,-0.425
2021-08-19 21:26:45.204,0.825,-0.45
2021-08-19 21:26:45.208,0.815,-0.445
2021-08-19 21:26:45.212,0.84,-0.46
2021-08-19 21:26:45.216,0.89,-0.455
2021-08-19 21:26:45.220,0.895,-0.445
2021-08-19 21:26:45.224,0.905,-0.445
2021-08-19 21:26:45.228,0.91,-0.415
2021-08-19 21:26:45.232,0.91,-0.4
2021-08-19 21:26:45.236,0.91,-0.375
2021-08-19 21:26:45.240,0.905,-0.36
2021-08-19 21:26:45.244,0.91,-0.35
2021-08-19 21:26:45.248,0.86,-0.325
2021-08-19 21:26:45.252,0.85,-0.31
2021-08-19 21:26:45.256,0.835,-0.28
2021-08-19 21:26:45.260,0.795,-0.23
2021-08-19 21:26:45.264,0.72,-0.215
2021-08-19 21:26:45.268,0.66,-0.185
2021-08-19 21:26:45.272,0.65,-0.18
2021-08-19 21:26:45.276,0.565,-0.165
2021-08-19 21:26:45.280,0.52,-0.14
2021-08-19 21:26:45.284,0.475,-0.14
2021-08-19 21:26:45.288,0.395,-0.145
2021-08-19 21:26:45.292,0.35,-0.16
2021-08-19 21:26:45.296,0.315,-0.16
2021-08-19 21:26:45.300,0.255,-0.195
2021-08-19 21:26:45.304,0.24,-0.185
2021-08-19 21:26:45.308,0.2,-0.215
2021-08-19 21:26:45.312,0.145,-0.22
2021-08-19 21:26:45.316,0.11,-0.235
2021-08-19 21:26:45.320,0.09,-0.24
2021-08-19 21:26:45.324,0.075,-0.255
2021-08-19 21:26:45.328,0.05,-0.27
2021-08-19 21:26:45.332,0.035,-0.275
2021-08-19 21:26:45.336,0.02,-0.28
2021-08-19 21:26:45.340,0.025,-0.29
2021-08-19 21:26:45.344,-0.01,-0.285
2021-08-19 21:26:45.348,-0.025,-0.3
2021-08-19 21:26:45.352,-0.01,-0.305
2021-08-19 21:26:45.356,-0.02,-0.31
2021-08-19 21:26:45.360,-0.03,-0.31
2021-08-19 21:26:45.364,0.0,-0.34
2021-08-19 21:26:45.368,-0.035,-0.33
2021-08-19 21:26:45.372,-0.01,-0.32
2021-08-19 21:26:45.376,-0.015,-0.325
2021-08-19 21:26:45.380,-0.03,-0.365
2021-08-19 21:26:45.384,-0.045,-0.35
2021-08-19 21:26:45.388,-0.01,-0.335
2021-08-19 21:26:45.392,-0.03,-0.35
2021-08-19 21:26:45.396,-0.045,-0.35
2021-08-19 21:26:45.400,-0.025,-0.355
2021-08-19 21:26:45.404,-0.015,-0.365
2021-08-19 21:26:45.408,-0.03,-0.365
2021-08-19 21:26:45.412,-0.02,-0.39
2021-08-19 21:26:45.416,-0.035,-0.365
2021-08-19 21:26:45.420,-0.01,-0.38
2021-08-19 21:26:45.424,-0.015,-0.39
2021-08-19 21:26:45.428,-0.02,-0.385
2021-08-19 21:26:45.432,-0.02,-0.38
2021-08-19 21:26:45.436,-0.005,-0.4
2021-08-19 21:26:45.440,-0.01,-0.41
2021-08-19 21:26:45.444,-0.01,-0.395
2021-08-19 21:26:45.448,0.005,-0.395
2021-08-19 21:26:45.452,0.0,-0.395
2021-08-19 21:26:45.456,-0.01,-0.39
2021-08-19 21:26:45.460,0.015,-0.4
2021-08-19 21:26:45.464,-0.01,-0.39
2021-08-19 21:26:45.468,0.0,-0.395
2021-08-19 21:26:45.472,-0.02,-0.4
2021-08-19 21:26:45.476,-0.015,-0.385
2021-08-19 21:26:45.480,-0.02,-0.37
2021-08-19 21:26:45.484,-0.01,-0.375
2021-08-19 21:26:45.488,-0.05,-0.375
2021-08-19 21:26:45.492,-0.03,-0.375
2021-08-19 21:26:45.496,-0.05,-0.375
2021-08-19 21:26:45.500,-0.03,-0.375
2021-08-19 21:26:45.504,-0.04,-0.38
2021-08-19 21:26:45.508,-0.045,-0.37
2021-08-19 21:26:45.512,-0.05,-0.36
2021-08-19 21:26:45.516,-0.055,-0.36
2021-08-19 21:26:45.520,-0.04,-0.35
2021-08-19 21:26:45.524,-0.04,-0.34
2021-08-19 21:26:45.528,-0.075,-0.33
2021-08-19 21:26:45.532,-0.055,-0.33
2021-08-19 21:26:45.536,-0.05,-0.32
2021-08-19 21:26:45.540,-0.025,-0.285
2021-08-19 21:26:45.544,-0.045,-0.255
2021-08-19 21:26:45.548,-0.005,-0.235
2021-08-19 21:26:45.552,-0.015,-0.23
2021-08-19 21:26:45.556,0.015,-0.21
2021-08-19 21:26:45.560,0.03,-0.185
2021-08-19 21:26:45.564,0.035,-0.16
2021-08-19 21:26:45.568,0.065,-0.17
2021-08-19 21:26:45.572,0.075,-0.155
2021-08-19 21:26:45.576,0.09,-0.155
2021-08-19 21:26:45.580,0.105,-0.16
2021-08-19 21:26:45.584,0.1,-0.19
2021-08-19 21:26:45.588,0.095,-0.2
2021-08-19 21:26:45.592,0.07,-0.19
2021-08-19 21:26:45.596,0.08,-0.205
2021-08-19 21:26:45.600,0.015,-0.225
2021-08-19 21:26:45.604,-0.035,-0.28
2021-08-19 21:26:45.608,-0.025,-0.29
2021-08-19 21:26:45.612,-0.045,-0.31
2021-08-19 21:26:45.616,-0.055,-0.31
2021-08-19 21:26:45.620,-0.115,-0.34
2021-08-19 21:26:45.624,-0.155,-0.365
2021-08-19 21:26:45.628,-0.16,-0.38
2021-08-19 21:26:45.632,-0.17,-0.425
2021-08-19 21:26:45.636,-0.17,-0.42
2021-08-19 21:26:45.640,-0.13,-0.425
2021-08-19 21:26:45.644,-0.16,-0.42
2021-08-19 21:26:45.648,-0.155,-0.43
2021-08-19 21:26:45.652,-0.185,-0.435
2021-08-19 21:26:45.656,-0.165,-0.435
2021-08-19 21:26:45.660,-0.175,-0.44
2021-08-19 21:26:45.664,-0.19,-0.43
2021-08-19 21:26:45.668,-0.16,-0.425
2021-08-19 21:26:45.672,-0.175,-0.425
2021-08-19 21:26:45.676,-0.14,-0.42
2021-08-19 21:26:45.680,-0.16,-0.415
2021-08-19 21:26:45.684,-0.16,-0.42
2021-08-19 21:26:45.688,-0.185,-0.41
2021-08-19 21:26:45.692,-0.18,-0.415
2021-08-19 21:26:45.696,-0.16,-0.42
2021-08-19 21:26:45.700,-0.165,-0.415
2021-08-19 21:26:45.704,-0.18,-0.395
2021-08-19 21:26:45.708,-0.18,-0.385
2021-08-19 21:26:45.712,-0.175,-0.365
2021-08-19 21:26:45.716,-0.165,-0.355
2021-08-19 21:26:45.720,-0.18,-0.345
2021-08-19 21:26:45.724,-0.16,-0.295
2021-08-19 21:26:45.728,-0.155,-0.215
2021-08-19 21:26:45.732,-0.15,-0.06
2021-08-19 21:26:45.736,-0.12,0.145
2021-08-19 21:26:45.740,-0.07,0.49
2021-08-19 21:26:45.744,-0.025,0.81
2021-08-19 21:26:45.748,-0.1,1.005
2021-08-19 21:26:45.752,-0.285,1.17
2021-08-19 21:26:45.756,-0.625,1.3
2021-08-19 21:26:45.760,-1.195,1.465
2021-08-19 21:26:45.764,-1.815,1.595
2021-08-19 21:26:45.804,-1.88,0.86
2021-08-19 21:26:45.808,-1.77,0.82
2021-08-19 21:26:45.812,-1.65,0.695
2021-08-19 21:26:45.816,-1.535,0.405
2021-08-19 21:26:45.820,-1.415,0.0
2021-08-19 21:26:45.824,-1.315,-0.35
2021-08-19 21:26:45.828,-1.21,-0.555
2021-08-19 21:26:45.832,-1.07,-0.67
2021-08-19 21:26:45.836,-0.955,-0.685
2021-08-19 21:26:45.840,-0.81,-0.65
2021-08-19 21:26:45.844,-0.67,-0.635
2021-08-19 21:26:45.848,-0.52,-0.6
2021-08-19 21:26:45.852,-0.355,-0.59
2021-08-19 21:26:45.856,-0.2,-0.54
2021-08-19 21:26:45.860,-0.04,-0.535
2021-08-19 21:26:45.864,0.085,-0.54
2021-08-19 21:26:45.868,0.175,-0.545
2021-08-19 21:26:45.872,0.235,-0.52
2021-08-19 21:26:45.876,0.275,-0.52
2021-08-19 21:26:45.880,0.275,-0.535
2021-08-19 21:26:45.884,0.28,-0.53
2021-08-19 21:26:45.888,0.32,-0.53
2021-08-19 21:26:45.892,0.335,-0.525
2021-08-19 21:26:45.896,0.35,-0.54
2021-08-19 21:26:45.900,0.36,-0.515
2021-08-19 21:26:45.904,0.37,-0.51
2021-08-19 21:26:45.908,0.4,-0.52
2021-08-19 21:26:45.912,0.38,-0.53
2021-08-19 21:26:45.916,0.395,-0.515
2021-08-19 21:26:45.920,0.415,-0.49
2021-08-19 21:26:45.924,0.42,-0.5
2021-08-19 21:26:45.928,0.435,-0.505
2021-08-19 21:26:45.932,0.445,-0.525
2021-08-19 21:26:45.936,0.47,-0.495
2021-08-19 21:26:45.940,0.5,-0.5
2021-08-19 21:26:45.944,0.515,-0.505
2021-08-19 21:26:45.948,0.55,-0.505
2021-08-19 21:26:45.952,0.57,-0.535
2021-08-19 21:26:45.956,0.61,-0.52
2021-08-19 21:26:45.960,0.615,-0.535
2021-08-19 21:26:45.964,0.65,-0.54
2021-08-19 21:26:45.968,0.645,-0.54
2021-08-19 21:26:45.972,0.675,-0.575
2021-08-19 21:26:45.976,0.72,-0.57
2021-08-19 21:26:45.980,0.73,-0.575
2021-08-19 21:26:45.984,0.76,-0.585
2021-08-19 21:26:45.988,0.765,-0.575
2021-08-19 21:26:45.992,0.795,-0.58
2021-08-19 21:26:45.996,0.78,-0.585
2021-08-19 21:26:46.000,0.82,-0.585
2021-08-19 21:26:46.004,0.825,-0.56
2021-08-19 21:26:46.008,0.82,-0.54
2021-08-19 21:26:46.012,0.825,-0.505
2021-08-19 21:26:46.016,0.79,-0.495
2021-08-19 21:26:46.020,0.785,-0.44
2021-08-19 21:26:46.024,0.78,-0.425
2021-08-19 21:26:46.028,0.75,-0.385
2021-08-19 21:26:46.032,0.72,-0.355
2021-08-19 21:26:46.036,0.67,-0.34
2021-08-19 21:26:46.040,0.64,-0.295
2021-08-19 21:26:46.044,0.61,-0.255
2021-08-19 21:26:46.048,0.585,-0.235
2021-08-19 21:26:46.052,0.53,-0.235
2021-08-19 21:26:46.056,0.48,-0.195
2021-08-19 21:26:46.060,0.435,-0.18
2021-08-19 21:26:46.064,0.385,-0.195
2021-08-19 21:26:46.068,0.355,-0.22
2021-08-19 21:26:46.072,0.295,-0.215
2021-08-19 21:26:46.076,0.245,-0.21
2021-08-19 21:26:46.080,0.22,-0.235
2021-08-19 21:26:46.084,0.17,-0.255
2021-08-19 21:26:46.088,0.15,-0.25
2021-08-19 21:26:46.092,0.105,-0.265
2021-08-19 21:26:46.096,0.1,-0.255
2021-08-19 21:26:46.100,0.075,-0.285
2021-08-19 21:26:46.104,0.06,-0.265
2021-08-19 21:26:46.108,0.04,-0.27
2021-08-19 21:26:46.112,0.045,-0.28
2021-08-19 21:26:46.116,0.01,-0.275
2021-08-19 21:26:46.120,0.0,-0.28
2021-08-19 21:26:46.124,0.025,-0.295
2021-08-19 21:26:46.128,0.005,-0.295
2021-08-19 21:26:46.132,0.0,-0.315
2021-08-19 21:26:46.136,0.0,-0.305
2021-08-19 21:26:46.140,0.01,-0.285
2021-08-19 21:26:46.144,0.005,-0.31
2021-08-19 21:26:46.148,0.0,-0.33
2021-08-19 21:26:46.152,0.005,-0.32
2021-08-19 21:26:46.156,0.0,-0.32
2021-08-19 21:26:46.160,0.005,-0.32
2021-08-19 21:26:46.164,0.015,-0.335
2021-08-19 21:26:46.168,0.01,-0.32
2021-08-19 21:26:46.172,0.04,-0.315
2021-08-19 21:26:46.176,0.025,-0.335
2021-08-19 21:26:46.180,0.055,-0.36
2021-08-19 21:26:46.184,0.015,-0.34
2021-08-19 21:26:46.188,0.02,-0.35
2021-08-19 21:26:46.192,0.025,-0.35
2021-08-19 21:26:46.196,0.03,-0.35
2021-08-19 21:26:46.200,0.03,-0.355
2021-08-19 21:26:46.204,0.015,-0.35
2021-08-19 21:26:46.208,0.055,-0.37
2021-08-19 21:26:46.212,0.055,-0.38
2021-08-19 21:26:46.216,0.04,-0.365
2021-08-19 21:26:46.220,0.025,-0.37
2021-08-19 21:26:46.224,0.03,-0.375
2021-08-19 21:26:46.228,0.045,-0.385
2021-08-19 21:26:46.232,0.025,-0.37
2021-08-19 21:26:46.236,0.025,-0.375
2021-08-19 21:26:46.240,0.02,-0.38
2021-08-19 21:26:46.244,0.025,-0.37
2021-08-19 21:26:46.248,-0.005,-0.38
2021-08-19 21:26:46.252,0.02,-0.355
2021-08-19 21:26:46.256,0.015,-0.36
2021-08-19 21:26:46.260,0.015,-0.37
2021-08-19 21:26:46.264,0.01,-0.37
2021-08-19 21:26:46.268,-0.015,-0.34
2021-08-19 21:26:46.272,-0.005,-0.36
2021-08-19 21:26:46.276,0.005,-0.32
2021-08-19 21:26:46.280,0.015,-0.29
2021-08-19 21:26:46.284,-0.01,-0.265
2021-08-19 21:26:46.288,-0.015,-0.26
2021-08-19 21:26:46.292,-0.005,-0.225
2021-08-19 21:26:46.296,0.01,-0.215
2021-08-19 21:26:46.300,0.055,-0.195
2021-08-19 21:26:46.304,0.08,-0.16
2021-08-19 21:26:46.308,0.1,-0.14
2021-08-19 21:26:46.312,0.125,-0.105
2021-08-19 21:26:46.316,0.175,-0.125
2021-08-19 21:26:46.320,0.18,-0.14
2021-08-19 21:26:46.324,0.175,-0.15
2021-08-19 21:26:46.328,0.19,-0.175
2021-08-19 21:26:46.332,0.17,-0.19
2021-08-19 21:26:46.336,0.105,-0.21
2021-08-19 21:26:46.340,0.085,-0.22
2021-08-19 21:26:46.344,0.055,-0.26
2021-08-19 21:26:46.348,0.02,-0.285
2021-08-19 21:26:46.352,-0.01,-0.3
2021-08-19 21:26:46.356,-0.025,-0.305
2021-08-19 21:26:46.360,-0.085,-0.34
2021-08-19 21:26:46.364,-0.09,-0.35
2021-08-19 21:26:46.368,-0.08,-0.385
2021-08-19 21:26:46.372,-0.12,-0.42
2021-08-19 21:26:46.376,-0.08,-0.4
2021-08-19 21:26:46.380,-0.065,-0.405
2021-08-19 21:26:46.384,-0.08,-0.405
2021-08-19 21:26:46.388,-0.1,-0.41
2021-08-19 21:26:46.392,-0.11,-0.39
2021-08-19 21:26:46.396,-0.085,-0.405
2021-08-19 21:26:46.400,-0.085,-0.4
2021-08-19 21:26:46.404,-0.1,-0.395
2021-08-19 21:26:46.408,-0.13,-0.4
2021-08-19 21:26:46.412,-0.125,-0.415
2021-08-19 21:26:46.416,-0.145,-0.4
2021-08-19 21:26:46.420,-0.12,-0.385
2021-08-19 21:26:46.424,-0.13,-0.405
2021-08-19 21:26:46.428,-0.11,-0.385
2021-08-19 21:26:46.432,-0.09,-0.375
2021-08-19 21:26:46.436,-0.095,-0.375
2021-08-19 21:26:46.440,-0.08,-0.36
2021-08-19 21:26:46.444,-0.09,-0.385
2021-08-19 21:26:46.448,-0.09,-0.35
2021-08-19 21:26:46.452,-0.105,-0.34
2021-08-19 21:26:46.456,-0.11,-0.325
2021-08-19 21:26:46.460,-0.1,-0.295
2021-08-19 21:26:46.464,-0.08,-0.215
2021-08-19 21:26:46.468,-0.08,-0.065
2021-08-19 21:26:46.472,-0.05,0.08
2021-08-19 21:26:46.476,-0.025,0.355
2021-08-19 21:26:46.480,0.025,0.6
2021-08-19 21:26:46.484,-0.02,0.765
2021-08-19 21:26:46.488,-0.235,0.875
2021-08-19 21:26:46.492,-0.6,1.045
2021-08-19 21:26:46.496,-1.245,1.26
2021-08-19 21:26:46.500,-1.93,1.45
2021-08-19 21:26:46.536,-1.985,0.915
2021-08-19 21:26:46.540,-1.835,0.86
2021-08-19 21:26:46.544,-1.75,0.765
2021-08-19 21:26:46.548,-1.595,0.605
2021-08-19 21:26:46.552,-1.485,0.27
2021-08-19 21:26:46.556,-1.375,-0.19
2021-08-19 21:26:46.560,-1.255,-0.505
2021-08-19 21:26:46.564,-1.145,-0.675
2021-08-19 21:26:46.568,-1.005,-0.725
2021-08-19 21:26:46.572,-0.875,-0.71
2021-08-19 21:26:46.576,-0.755,-0.645
2021-08-19 21:26:46.580,-0.6,-0.605
2021-08-19 21:26:46.584,-0.425,-0.605
2021-08-19 21:26:46.588,-0.25,-0.57
2021-08-19 21:26:46.592,-0.06,-0.56
2021-08-19 21:26:46.596,0.1,-0.54
2021-08-19 21:26:46.600,0.22,-0.545
2021-08-19 21:26:46.604,0.27,-0.52
2021-08-19 21:26:46.608,0.33,-0.54
2021-08-19 21:26:46.612,0.36,-0.535
2021-08-19 21:26:46.616,0.4,-0.535
2021-08-19 21:26:46.620,0.415,-0.51
2021-08-19 21:26:46.624,0.44,-0.51
2021-08-19 21:26:46.628,0.46,-0.51
2021-08-19 21:26:46.632,0.46,-0.5
2021-08-19 21:26:46.636,0.49,-0.5
2021-08-19 21:26:46.640,0.5,-0.515
2021-08-19 21:26:46.644,0.525,-0.5
2021-08-19 21:26:46.648,0.525,-0.515
2021-08-19 21:26:46.652,0.525,-0.505
2021-08-19 21:26:46.656,0.555,-0.495
2021-08-19 21:26:46.660,0.57,-0.51
2021-08-19 21:26:46.664,0.575,-0.51
2021-08-19 21:26:46.668,0.59,-0.505
2021-08-19 21:26:46.672,0.62,-0.5
2021-08-19 21:26:46.676,0.635,-0.505
2021-08-19 21:26:46.680,0.68,-0.485
2021-08-19 21:26:46.684,0.7,-0.52
2021-08-19 21:26:46.688,0.72,-0.51
2021-08-19 21:26:46.692,0.74,-0.505
2021-08-19 21:26:46.696,0.76,-0.515
2021-08-19 21:26:46.700,0.795,-0.52
2021-08-19 21:26:46.704,0.81,-0.55
2021-08-19 21:26:46.708,0.825,-0.545
2021-08-19 21:26:46.712,0.86,-0.565
2021-08-19 21:26:46.716,0.905,-0.555
2021-08-19 21:26:46.720,0.895,-0.54
2021-08-19 21:26:46.724,0.92,-0.55
2021-08-19 21:26:46.728,0.97,-0.55
2021-08-19 21:26:46.732,0.98,-0.54
2021-08-19 21:26:46.736,0.98,-0.54
2021-08-19 21:26:46.740,0.97,-0.51
2021-08-19 21:26:46.744,0.96,-0.485
2021-08-19 21:26:46.748,0.945,-0.46
2021-08-19 21:26:46.752,0.935,-0.43
2021-08-19 21:26:46.756,0.9,-0.41
2021-08-19 21:26:46.760,0.86,-0.38
2021-08-19 21:26:46.764,0.8,-0.33
2021-08-19 21:26:46.768,0.74,-0.3
2021-08-19 21:26:46.772,0.705,-0.26
2021-08-19 21:26:46.776,0.65,-0.24
2021-08-19 21:26:46.780,0.62,-0.225
2021-08-19 21:26:46.784,0.555,-0.22
2021-08-19 21:26:46.788,0.49,-0.225
2021-08-19 21:26:46.792,0.43,-0.225
2021-08-19 21:26:46.796,0.385,-0.205
2021-08-19 21:26:46.800,0.35,-0.235
2021-08-19 21:26:46.804,0.31,-0.24
2021-08-19 21:26:46.808,0.265,-0.24
2021-08-19 21:26:46.812,0.22,-0.245
2021-08-19 21:26:46.816,0.17,-0.25
2021-08-19 21:26:46.820,0.14,-0.27
2021-08-19 21:26:46.824,0.11,-0.27
2021-08-19 21:26:46.828,0.085,-0.255
2021-08-19 21:26:46.832,0.065,-0.295
2021-08-19 21:26:46.836,0.03,-0.27
2021-08-19 21:26:46.840,0.045,-0.275
2021-08-19 21:26:46.844,0.025,-0.295
2021-08-19 21:26:46.848,0.015,-0.31
2021-08-19 21:26:46.852,0.03,-0.305
2021-08-19 21:26:46.856,0.02,-0.32
2021-08-19 21:26:46.860,0.01,-0.315
2021-08-19 21:26:46.864,0.01,-0.33
2021-08-19 21:26:46.868,0.02,-0.31
2021-08-19 21:26:46.872,0.04,-0.32
2021-08-19 21:26:46.876,0.03,-0.34
2021-08-19 21:26:46.880,0.04,-0.345
2021-08-19 21:26:46.884,0.025,-0.32
2021-08-19 21:26:46.888,0.035,-0.34
2021-08-19 21:26:46.892,0.035,-0.345
2021-08-19 21:26:46.896,0.015,-0.35
2021-08-19 21:26:46.900,0.03,-0.33
2021-08-19 21:26:46.904,0.05,-0.33
2021-08-19 21:26:46.908,0.04,-0.33
2021-08-19 21:26:46.912,0.04,-0.34
2021-08-19 21:26:46.916,0.04,-0.355
2021-08-19 21:26:46.920,0.05,-0.325
2021-08-19 21:26:46.924,0.04,-0.345
2021-08-19 21:26:46.928,0.045,-0.345
2021-08-19 21:26:46.932,0.04,-0.335
2021-08-19 21:26:46.936,0.03,-0.355
2021-08-19 21:26:46.940,0.025,-0.355
2021-08-19 21:26:46.944,0.02,-0.365
2021-08-19 21:26:46.948,0.02,-0.365
2021-08-19 21:26:46.952,0.03,-0.365
2021-08-19 21:26:46.956,0.04,-0.355
2021-08-19 21:26:46.960,0.025,-0.34
2021-08-19 21:26:46.964,0.03,-0.36
2021-08-19 21:26:46.968,0.055,-0.35
2021-08-19 21:26:46.972,0.06,-0.345
2021-08-19 21:26:46.976,0.02,-0.355
2021-08-19 21:26:46.980,0.02,-0.335
2021-08-19 21:26:46.984,0.015,-0.355
2021-08-19 21:26:46.988,0.005,-0.36
2021-08-19 21:26:46.992,-0.005,-0.34
2021-08-19 21:26:46.996,-0.015,-0.305
2021-08-19 21:26:47.000,0.01,-0.275
2021-08-19 21:26:47.004,0.0,-0.235
2021-08-19 21:26:47.008,0.01,-0.21
2021-08-19 21:26:47.012,0.02,-0.21
2021-08-19 21:26:47.016,0.05,-0.19
2021-08-19 21:26:47.020,0.075,-0.155
2021-08-19 21:26:47.024,0.09,-0.115
2021-08-19 21:26:47.028,0.11,-0.11
2021-08-19 21:26:47.032,0.15,-0.105
2021-08-19 21:26:47.036,0.17,-0.095
2021-08-19 21:26:47.040,0.17,-0.09
2021-08-19 21:26:47.044,0.2,-0.11
2021-08-19 21:26:47.048,0.175,-0.14
2021-08-19 21:26:47.052,0.135,-0.16
2021-08-19 21:26:47.056,0.115,-0.155
2021-08-19 21:26:47.060,0.075,-0.2
2021-08-19 21:26:47.064,0.05,-0.24
2021-08-19 21:26:47.068,0.035,-0.255
2021-08-19 21:26:47.072,0.025,-0.25
2021-08-19 21:26:47.076,-0.02,-0.265
2021-08-19 21:26:47.080,-0.035,-0.3
2021-08-19 21:26:47.084,-0.08,-0.325
2021-08-19 21:26:47.088,-0.09,-0.36
2021-08-19 21:26:47.092,-0.095,-0.38
2021-08-19 21:26:47.096,-0.055,-0.38
2021-08-19 21:26:47.100,-0.05,-0.36
2021-08-19 21:26:47.104,-0.055,-0.375
2021-08-19 21:26:47.108,-0.05,-0.37
2021-08-19 21:26:47.112,-0.07,-0.37
2021-08-19 21:26:47.116,-0.075,-0.38
2021-08-19 21:26:47.120,-0.09,-0.375
2021-08-19 21:26:47.124,-0.06,-0.365
2021-08-19 21:26:47.128,-0.06,-0.385
2021-08-19 21:26:47.132,-0.065,-0.35
2021-08-19 21:26:47.136,-0.07,-0.37
2021-08-19 21:26:47.140,-0.07,-0.355
2021-08-19 21:26:47.144,-0.07,-0.345
2021-08-19 21:26:47.148,-0.07,-0.34
2021-08-19 21:26:47.152,-0.05,-0.35
2021-08-19 21:26:47.156,-0.055,-0.355
2021-08-19 21:26:47.160,-0.06,-0.34
2021-08-19 21:26:47.164,-0.055,-0.325
2021-08-19 21:26:47.168,-0.05,-0.335
2021-08-19 21:26:47.172,-0.06,-0.32
2021-08-19 21:26:47.176,-0.045,-0.305
2021-08-19 21:26:47.180,-0.075,-0.265
2021-08-19 21:26:47.184,-0.075,-0.19
2021-08-19 21:26:47.188,-0.045,0.0
2021-08-19 21:26:47.192,-0.015,0.205
2021-08-19 21:26:47.196,0.035,0.475
2021-08-19 21:26:47.200,0.115,0.65
2021-08-19 21:26:47.204,-0.015,0.755
2021-08-19 21:26:47.208,-0.315,0.915
2021-08-19 21:26:47.212,-0.84,1.14
2021-08-19 21:26:47.216,-1.575,1.34
2021-08-19 21:26:47.256,-1.845,0.82
2021-08-19 21:26:47.260,-1.755,0.735
2021-08-19 21:26:47.264,-1.645,0.635
2021-08-19 21:26:47.268,-1.52,0.415
2021-08-19 21:26:47.272,-1.385,0.03
2021-08-19 21:26:47.276,-1.265,-0.345
2021-08-19 21:26:47.280,-1.155,-0.58
2021-08-19 21:26:47.284,-1.015,-0.66
2021-08-19 21:26:47.288,-0.865,-0.685
2021-08-19 21:26:47.292,-0.755,-0.65
2021-08-19 21:26:47.296,-0.6,-0.625
2021-08-19 21:26:47.300,-0.43,-0.575
2021-08-19 21:26:47.304,-0.24,-0.53
2021-08-19 21:26:47.308,-0.065,-0.53
2021-08-19 21:26:47.312,0.085,-0.54
2021-08-19 21:26:47.316,0.22,-0.525
2021-08-19 21:26:47.320,0.31,-0.51
2021-08-19 21:26:47.324,0.36,-0.505
2021-08-19 21:26:47.328,0.375,-0.515
2021-08-19 21:26:47.332,0.43,-0.525
2021-08-19 21:26:47.336,0.45,-0.515
2021-08-19 21:26:47.340,0.475,-0.515
2021-08-19 21:26:47.344,0.475,-0.52
2021-08-19 21:26:47.348,0.48,-0.48
2021-08-19 21:26:47.352,0.51,-0.49
2021-08-19 21:26:47.356,0.52,-0.51
2021-08-19 21:26:47.360,0.535,-0.515
2021-08-19 21:26:47.364,0.56,-0.51
2021-08-19 21:26:47.368,0.57,-0.5
2021-08-19 21:26:47.372,0.575,-0.495
2021-08-19 21:26:47.376,0.595,-0.485
2021-08-19 21:26:47.380,0.625,-0.505
2021-08-19 21:26:47.384,0.62,-0.49
2021-08-19 21:26:47.388,0.65,-0.48
2021-08-19 21:26:47.392,0.685,-0.485
2021-08-19 21:26:47.396,0.695,-0.485
2021-08-19 21:26:47.400,0.73,-0.495
2021-08-19 21:26:47.404,0.775,-0.51
2021-08-19 21:26:47.408,0.8,-0.52
2021-08-19 21:26:47.412,0.805,-0.505
2021-08-19 21:26:47.416,0.85,-0.535
2021-08-19 21:26:47.420,0.87,-0.53
2021-08-19 21:26:47.424,0.88,-0.56
2021-08-19 21:26:47.428,0.905,-0.545
2021-08-19 21:26:47.432,0.93,-0.545
2021-08-19 21:26:47.436,0.965,-0.565
2021-08-19 21:26:47.440,0.97,-0.565
2021-08-19 21:26:47.444,0.985,-0.55
2021-08-19 21:26:47.448,0.985,-0.53
2021-08-19 21:26:47.452,0.99,-0.505
2021-08-19 21:26:47.456,0.99,-0.515
2021-08-19 21:26:47.460,0.98,-0.505
2021-08-19 21:26:47.464,0.965,-0.465
2021-08-19 21:26:47.468,0.935,-0.415
2021-08-19 21:26:47.472,0.885,-0.395
2021-08-19 21:26:47.476,0.86,-0.37
2021-08-19 21:26:47.480,0.795,-0.355
2021-08-19 21:26:47.484,0.75,-0.3
2021-08-19 21:26:47.488,0.69,-0.29
2021-08-19 21:26:47.492,0.635,-0.28
2021-08-19 21:26:47.496,0.58,-0.25
2021-08-19 21:26:47.500,0.53,-0.24
2021-08-19 21:26:47.504,0.45,-0.23
2021-08-19 21:26:47.508,0.395,-0.25
2021-08-19 21:26:47.512,0.345,-0.24
2021-08-19 21:26:47.516,0.3,-0.275
2021-08-19 21:26:47.520,0.25,-0.265
2021-08-19 21:26:47.524,0.2,-0.28
2021-08-19 21:26:47.528,0.17,-0.295
2021-08-19 21:26:47.532,0.165,-0.285
2021-08-19 21:26:47.536,0.125,-0.3
2021-08-19 21:26:47.540,0.095,-0.325
2021-08-19 21:26:47.544,0.075,-0.325
2021-08-19 21:26:47.548,0.075,-0.325
2021-08-19 21:26:47.552,0.06,-0.33
2021-08-19 21:26:47.556,0.025,-0.34
2021-08-19 21:26:47.560,0.03,-0.34
2021-08-19 21:26:47.564,0.04,-0.35
2021-08-19 21:26:47.568,0.035,-0.355
2021-08-19 21:26:47.572,0.025,-0.37
2021-08-19 21:26:47.576,0.025,-0.365
2021-08-19 21:26:47.580,0.015,-0.37
2021-08-19 21:26:47.584,0.0,-0.36
2021-08-19 21:26:47.588,0.02,-0.385
2021-08-19 21:26:47.592,0.02,-0.385
2021-08-19 21:26:47.596,0.01,-0.395
2021-08-19 21:26:47.600,0.02,-0.42
2021-08-19 21:26:47.604,0.015,-0.4
2021-08-19 21:26:47.608,0.03,-0.39
2021-08-19 21:26:47.612,0.02,-0.395
2021-08-19 21:26:47.616,0.005,-0.415
2021-08-19 21:26:47.620,0.03,-0.42
2021-08-19 21:26:47.624,-0.005,-0.41
2021-08-19 21:26:47.628,0.02,-0.415
2021-08-19 21:26:47.632,0.03,-0.425
2021-08-19 21:26:47.636,0.01,-0.435
2021-08-19 21:26:47.640,0.02,-0.41
2021-08-19 21:26:47.644,0.01,-0.435
2021-08-19 21:26:47.648,0.02,-0.42
2021-08-19 21:26:47.652,0.02,-0.415
2021-08-19 21:26:47.656,0.0,-0.43
2021-08-19 21:26:47.660,0.01,-0.415
2021-08-19 21:26:47.664,0.005,-0.42
2021-08-19 21:26:47.668,0.01,-0.43
2021-08-19 21:26:47.672,0.02,-0.395
2021-08-19 21:26:47.676,0.0,-0.405
2021-08-19 21:26:47.680,0.0,-0.425
2021-08-19 21:26:47.684,0.0,-0.415
2021-08-19 21:26:47.688,-0.01,-0.41
2021-08-19 21:26:47.692,0.0,-0.415
2021-08-19 21:26:47.696,0.0,-0.405
2021-08-19 21:26:47.700,0.0,-0.4
2021-08-19 21:26:47.704,-0.005,-0.4
2021-08-19 21:26:47.708,0.0,-0.415
2021-08-19 21:26:47.712,0.0,-0.41
2021-08-19 21:26:47.716,-0.005,-0.385
2021-08-19 21:26:47.720,-0.01,-0.405
2021-08-19 21:26:47.724,-0.015,-0.395
2021-08-19 21:26:47.728,-0.015,-0.37
2021-08-19 21:26:47.732,-0.02,-0.33
2021-08-19 21:26:47.736,-0.01,-0.31
2021-08-19 21:26:47.740,-0.015,-0.285
2021-08-19 21:26:47.744,0.0,-0.26
2021-08-19 21:26:47.748,0.005,-0.245
2021-08-19 21:26:47.752,0.06,-0.2
2021-08-19 21:26:47.756,0.09,-0.17
2021-08-19 21:26:47.760,0.095,-0.195
2021-08-19 21:26:47.764,0.135,-0.17
2021-08-19 21:26:47.768,0.15,-0.16
2021-08-19 21:26:47.772,0.165,-0.175
2021-08-19 21:26:47.776,0.165,-0.185
2021-08-19 21:26:47.780,0.16,-0.205
2021-08-19 21:26:47.784,0.145,-0.225
2021-08-19 21:26:47.788,0.115,-0.245
2021-08-19 21:26:47.792,0.085,-0.255
2021-08-19 21:26:47.796,0.015,-0.295
2021-08-19 21:26:47.800,0.01,-0.315
2021-08-19 21:26:47.804,0.0,-0.32
2021-08-19 21:26:47.808,-0.035,-0.33
2021-08-19 21:26:47.812,-0.1,-0.36
2021-08-19 21:26:47.816,-0.105,-0.39
2021-08-19 21:26:47.820,-0.085,-0.42
2021-08-19 21:26:47.824,-0.08,-0.43
2021-08-19 21:26:47.828,-0.06,-0.395
2021-08-19 21:26:47.832,-0.07,-0.405
2021-08-19 21:26:47.836,-0.075,-0.405
2021-08-19 21:26:47.840,-0.08,-0.415
2021-08-19 21:26:47.844,-0.06,-0.41
2021-08-19 21:26:47.848,-0.085,-0.425
2021-08-19 21:26:47.852,-0.09,-0.4
2021-08-19 21:26:47.856,-0.08,-0.395
2021-08-19 21:26:47.860,-0.075,-0.41
2021-08-19 21:26:47.864,-0.08,-0.385
2021-08-19 21:26:47.868,-0.08,-0.39
2021-08-19 21:26:47.872,-0.075,-0.405
2021-08-19 21:26:47.876,-0.085,-0.395
2021-08-19 21:26:47.880,-0.09,-0.39
2021-08-19 21:26:47.884,-0.045,-0.375
2021-08-19 21:26:47.888,-0.075,-0.36
2021-08-19 21:26:47.892,-0.075,-0.345
2021-08-19 21:26:47.896,-0.065,-0.355
2021-08-19 21:26:47.900,-0.075,-0.315
2021-08-19 21:26:47.904,-0.06,-0.32
2021-08-19 21:26:47.908,-0.08,-0.305
2021-08-19 21:26:47.912,-0.07,-0.215
2021-08-19 21:26:47.916,-0.065,-0.08
2021-08-19 21:26:47.920,-0.04,0.11
2021-08-19 21:26:47.924,-0.02,0.395
2021-08-19 21:26:47.928,0.06,0.645
2021-08-19 21:26:47.932,0.02,0.795
2021-08-19 21:26:47.936,-0.19,0.91
2021-08-19 21:26:47.940,-0.615,1.075
2021-08-19 21:26:47.944,-1.3,1.285
2021-08-19 21:26:47.948,-2.0,1.43
2021-08-19 21:26:47.984,-1.95,0.85
2021-08-19 21:26:47.988,-1.79,0.75
2021-08-19 21:26:47.992,-1.705,0.685
2021-08-19 21:26:47.996,-1.585,0.58
2021-08-19 21:26:48.000,-1.475,0.28
2021-08-19 21:26:48.004,-1.32,-0.12
2021-08-19 21:26:48.008,-1.22,-0.45
2021-08-19 21:26:48.012,-1.105,-0.585
2021-08-19 21:26:48.016,-0.975,-0.65
2021-08-19 21:26:48.020,-0.82,-0.65
2021-08-19 21:26:48.024,-0.705,-0.625
2021-08-19 21:26:48.028,-0.545,-0.58
2021-08-19 21:26:48.032,-0.365,-0.57
2021-08-19 21:26:48.036,-0.2,-0.555
2021-08-19 21:26:48.040,-0.045,-0.53
2021-08-19 21:26:48.044,0.12,-0.515
2021-08-19 21:26:48.048,0.215,-0.535
2021-08-19 21:26:48.052,0.275,-0.54
2021-08-19 21:26:48.056,0.34,-0.535
2021-08-19 21:26:48.060,0.355,-0.505
2021-08-19 21:26:48.064,0.38,-0.52
2021-08-19 21:26:48.068,0.41,-0.51
2021-08-19 21:26:48.072,0.43,-0.515
2021-08-19 21:26:48.076,0.425,-0.49
2021-08-19 21:26:48.080,0.44,-0.49
2021-08-19 21:26:48.084,0.445,-0.5
2021-08-19 21:26:48.088,0.455,-0.48
2021-08-19 21:26:48.092,0.49,-0.49
2021-08-19 21:26:48.096,0.51,-0.485
2021-08-19 21:26:48.100,0.52,-0.48
2021-08-19 21:26:48.104,0.51,-0.46
2021-08-19 21:26:48.108,0.54,-0.455
2021-08-19 21:26:48.112,0.545,-0.45
2021-08-19 21:26:48.116,0.56,-0.47
2021-08-19 21:26:48.120,0.585,-0.445
2021-08-19 21:26:48.124,0.63,-0.45
2021-08-19 21:26:48.128,0.645,-0.46
2021-08-19 21:26:48.132,0.655,-0.45
2021-08-19 21:26:48.136,0.695,-0.475
2021-08-19 21:26:48.140,0.695,-0.465
2021-08-19 21:26:48.144,0.72,-0.455
2021-08-19 21:26:48.148,0.74,-0.48
2021-08-19 21:26:48.152,0.765,-0.495
2021-08-19 21:26:48.156,0.78,-0.485
2021-08-19 21:26:48.160,0.82,-0.49
2021-08-19 21:26:48.164,0.83,-0.485
2021-08-19 21:26:48.168,0.85,-0.49
2021-08-19 21:26:48.172,0.87,-0.5
2021-08-19 21:26:48.176,0.875,-0.495
2021-08-19 21:26:48.180,0.885,-0.47
2021-08-19 21:26:48.184,0.92,-0.495
2021-08-19 21:26:48.188,0.9,-0.465
2021-08-19 21:26:48.192,0.89,-0.45
2021-08-19 21:26:48.196,0.85,-0.425
2021-08-19 21:26:48.200,0.83,-0.375
2021-08-19 21:26:48.204,0.825,-0.37
2021-08-19 21:26:48.208,0.8,-0.315
2021-08-19 21:26:48.212,0.735,-0.295
2021-08-19 21:26:48.216,0.7,-0.255
2021-08-19 21:26:48.220,0.65,-0.22
2021-08-19 21:26:48.224,0.585,-0.215
2021-08-19 21:26:48.228,0.52,-0.18
2021-08-19 21:26:48.232,0.485,-0.185
2021-08-19 21:26:48.236,0.43,-0.165
2021-08-19 21:26:48.240,0.385,-0.175
2021-08-19 21:26:48.244,0.325,-0.19
2021-08-19 21:26:48.248,0.275,-0.195
2021-08-19 21:26:48.252,0.235,-0.18
2021-08-19 21:26:48.256,0.185,-0.19
2021-08-19 21:26:48.260,0.125,-0.21
2021-08-19 21:26:48.264,0.09,-0.205
2021-08-19 21:26:48.268,0.05,-0.265
2021-08-19 21:26:48.272,0.03,-0.23
2021-08-19 21:26:48.276,0.015,-0.265
2021-08-19 21:26:48.280,0.0,-0.275
2021-08-19 21:26:48.284,0.0,-0.27
2021-08-19 21:26:48.288,-0.015,-0.29
2021-08-19 21:26:48.292,-0.035,-0.29
2021-08-19 21:26:48.296,-0.04,-0.3
2021-08-19 21:26:48.300,-0.065,-0.315
2021-08-19 21:26:48.304,-0.035,-0.295
2021-08-19 21:26:48.308,-0.045,-0.3
2021-08-19 21:26:48.312,-0.06,-0.335
2021-08-19 21:26:48.316,-0.05,-0.325
2021-08-19 21:26:48.320,-0.065,-0.325
2021-08-19 21:26:48.324,-0.05,-0.335
2021-08-19 21:26:48.328,-0.065,-0.365
2021-08-19 21:26:48.332,-0.045,-0.35
2021-08-19 21:26:48.336,-0.055,-0.34
2021-08-19 21:26:48.340,-0.055,-0.36
2021-08-19 21:26:48.344,-0.07,-0.385
2021-08-19 21:26:48.348,-0.105,-0.345
2021-08-19 21:26:48.352,-0.1,-0.365
2021-08-19 21:26:48.356,-0.11,-0.37
2021-08-19 21:26:48.360,-0.12,-0.375
2021-08-19 21:26:48.364,-0.09,-0.37
2021-08-19 21:26:48.368,-0.105,-0.375
2021-08-19 21:26:48.372,-0.135,-0.375
2021-08-19 21:26:48.376,-0.125,-0.39
2021-08-19 21:26:48.380,-0.135,-0.375
2021-08-19 21:26:48.384,-0.135,-0.395
2021-08-19 21:26:48.388,-0.13,-0.385
2021-08-19 21:26:48.392,-0.155,-0.405
2021-08-19 21:26:48.396,-0.15,-0.385
2021-08-19 21:26:48.400,-0.13,-0.405
2021-08-19 21:26:48.404,-0.155,-0.38
2021-08-19 21:26:48.408,-0.16,-0.4
2021-08-19 21:26:48.412,-0.155,-0.4
2021-08-19 21:26:48.416,-0.165,-0.415
2021-08-19 21:26:48.420,-0.16,-0.4
2021-08-19 21:26:48.424,-0.19,-0.39
2021-08-19 21:26:48.428,-0.2,-0.385
2021-08-19 21:26:48.432,-0.19,-0.39
2021-08-19 21:26:48.436,-0.185,-0.395
2021-08-19 21:26:48.440,-0.2,-0.39
2021-08-19 21:26:48.444,-0.21,-0.37
2021-08-19 21:26:48.448,-0.205,-0.39
2021-08-19 21:26:48.452,-0.21,-0.38
2021-08-19 21:26:48.456,-0.225,-0.375
2021-08-19 21:26:48.460,-0.23,-0.365
2021-08-19 21:26:48.464,-0.22,-0.37
2021-08-19 21:26:48.468,-0.24,-0.35
2021-08-19 21:26:48.472,-0.24,-0.355
2021-08-19 21:26:48.476,-0.255,-0.35
2021-08-19 21:26:48.480,-0.24,-0.305
2021-08-19 21:26:48.484,-0.235,-0.29
2021-08-19 21:26:48.488,-0.225,-0.285
2021-08-19 21:26:48.492,-0.22,-0.25
2021-08-19 21:26:48.496,-0.2,-0.235
2021-08-19 21:26:48.500,-0.17,-0.21
2021-08-19 21:26:48.504,-0.17,-0.205
2021-08-19 21:26:48.508,-0.135,-0.175
2021-08-19 21:26:48.512,-0.11,-0.155
2021-08-19 21:26:48.516,-0.08,-0.175
2021-08-19 21:26:48.520,-0.075,-0.155
2021-08-19 21:26:48.524,-0.05,-0.16
2021-08-19 21:26:48.528,-0.055,-0.18
2021-08-19 21:26:48.532,-0.05,-0.215
2021-08-19 21:26:48.536,-0.09,-0.2
2021-08-19 21:26:48.540,-0.13,-0.22
2021-08-19 21:26:48.544,-0.16,-0.235
2021-08-19 21:26:48.548,-0.185,-0.26
2021-08-19 21:26:48.552,-0.195,-0.285
2021-08-19 21:26:48.556,-0.23,-0.315
2021-08-19 21:26:48.560,-0.255,-0.33
2021-08-19 21:26:48.564,-0.275,-0.35
2021-08-19 21:26:48.568,-0.325,-0.38
2021-08-19 21:26:48.572,-0.33,-0.4
2021-08-19 21:26:48.576,-0.32,-0.41
2021-08-19 21:26:48.580,-0.3,-0.405
2021-08-19 21:26:48.584,-0.305,-0.41
2021-08-19 21:26:48.588,-0.315,-0.415
2021-08-19 21:26:48.592,-0.31,-0.425
2021-08-19 21:26:48.596,-0.32,-0.405
2021-08-19 21:26:48.600,-0.31,-0.41
2021-08-19 21:26:48.604,-0.31,-0.43
2021-08-19 21:26:48.608,-0.32,-0.425
2021-08-19 21:26:48.612,-0.32,-0.41
2021-08-19 21:26:48.616,-0.315,-0.4
2021-08-19 21:26:48.620,-0.34,-0.405
2021-08-19 21:26:48.624,-0.33,-0.4
2021-08-19 21:26:48.628,-0.32,-0.375
2021-08-19 21:26:48.632,-0.335,-0.38
2021-08-19 21:26:48.636,-0.325,-0.385
2021-08-19 21:26:48.640,-0.34,-0.38
2021-08-19 21:26:48.644,-0.33,-0.36
2021-08-19 21:26:48.648,-0.325,-0.335
2021-08-19 21:26:48.652,-0.335,-0.335
2021-08-19 21:26:48.656,-0.31,-0.33
2021-08-19 21:26:48.660,-0.32,-0.27
2021-08-19 21:26:48.664,-0.325,-0.21
2021-08-19 21:26:48.668,-0.33,-0.1
2021-08-19 21:26:48.672,-0.32,0.055
2021-08-19 21:26:48.676,-0.305,0.28
2021-08-19 21:26:48.680,-0.255,0.63
2021-08-19 21:26:48.684,-0.2,0.925
2021-08-19 21:26:48.688,-0.31,1.09
2021-08-19 21:26:48.692,-0.53,1.22
2021-08-19 21:26:48.696,-0.96,1.395
2021-08-19 21:26:48.700,-1.56,1.545
2021-08-19 21:26:48.744,-1.975,0.88
2021-08-19 21:26:48.748,-1.875,0.8
2021-08-19 21:26:48.752,-1.76,0.62
2021-08-19 21:26:48.756,-1.635,0.29
2021-08-19 21:26:48.760,-1.52,-0.11
2021-08-19 21:26:48.764,-1.42,-0.415
2021-08-19 21:26:48.768,-1.295,-0.565
2021-08-19 21:26:48.772,-1.15,-0.64
2021-08-19 21:26:48.776,-1.035,-0.625
2021-08-19 21:26:48.780,-0.9,-0.61
2021-08-19 21:26:48.784,-0.765,-0.595
2021-08-19 21:26:48.788,-0.6,-0.58
2021-08-19 21:26:48.792,-0.465,-0.555
2021-08-19 21:26:48.796,-0.32,-0.535
2021-08-19 21:26:48.800,-0.2,-0.56
2021-08-19 21:26:48.804,-0.07,-0.54
2021-08-19 21:26:48.808,-0.015,-0.53
2021-08-19 21:26:48.812,0.015,-0.55
2021-08-19 21:26:48.816,0.04,-0.535
2021-08-19 21:26:48.820,0.055,-0.545
2021-08-19 21:26:48.824,0.075,-0.53
2021-08-19 21:26:48.828,0.105,-0.525
2021-08-19 21:26:48.832,0.1,-0.535
2021-08-19 21:26:48.836,0.13,-0.535
2021-08-19 21:26:48.840,0.155,-0.51
2021-08-19 21:26:48.844,0.155,-0.51
2021-08-19 21:26:48.848,0.165,-0.52
2021-08-19 21:26:48.852,0.18,-0.5
2021-08-19 21:26:48.856,0.21,-0.515
2021-08-19 21:26:48.860,0.21,-0.505
2021-08-19 21:26:48.864,0.22,-0.51
2021-08-19 21:26:48.868,0.215,-0.52
2021-08-19 21:26:48.872,0.245,-0.51
2021-08-19 21:26:48.876,0.26,-0.51
2021-08-19 21:26:48.880,0.29,-0.515
2021-08-19 21:26:48.884,0.3,-0.51
2021-08-19 21:26:48.888,0.325,-0.53
2021-08-19 21:26:48.892,0.345,-0.52
2021-08-19 21:26:48.896,0.38,-0.535
2021-08-19 21:26:48.900,0.38,-0.545
2021-08-19 21:26:48.904,0.395,-0.535
2021-08-19 21:26:48.908,0.445,-0.555
2021-08-19 21:26:48.912,0.46,-0.57
2021-08-19 21:26:48.916,0.46,-0.57
2021-08-19 21:26:48.920,0.51,-0.58
2021-08-19 21:26:48.924,0.54,-0.58
2021-08-19 21:26:48.928,0.54,-0.585
2021-08-19 21:26:48.932,0.54,-0.6
2021-08-19 21:26:48.936,0.575,-0.575
2021-08-19 21:26:48.940,0.58,-0.575
2021-08-19 21:26:48.944,0.57,-0.555
2021-08-19 21:26:48.948,0.57,-0.525
2021-08-19 21:26:48.952,0.58,-0.49
2021-08-19 21:26:48.956,0.56,-0.46
2021-08-19 21:26:48.960,0.53,-0.43
2021-08-19 21:26:48.964,0.52,-0.41
2021-08-19 21:26:48.968,0.49,-0.36
2021-08-19 21:26:48.972,0.455,-0.33
2021-08-19 21:26:48.976,0.41,-0.305
2021-08-19 21:26:48.980,0.365,-0.27
2021-08-19 21:26:48.984,0.31,-0.245
2021-08-19 21:26:48.988,0.28,-0.23
2021-08-19 21:26:48.992,0.24,-0.215
2021-08-19 21:26:48.996,0.19,-0.21
2021-08-19 21:26:49.000,0.135,-0.195
2021-08-19 21:26:49.004,0.1,-0.215
2021-08-19 21:26:49.008,0.065,-0.19
2021-08-19 21:26:49.012,0.0,-0.21
2021-08-19 21:26:49.016,-0.035,-0.215
2021-08-19 21:26:49.020,-0.075,-0.23
2021-08-19 21:26:49.024,-0.105,-0.24
2021-08-19 21:26:49.028,-0.12,-0.23
2021-08-19 21:26:49.032,-0.15,-0.24
2021-08-19 21:26:49.036,-0.16,-0.26
2021-08-19 21:26:49.040,-0.165,-0.26
2021-08-19 21:26:49.044,-0.185,-0.28
2021-08-19 21:26:49.048,-0.21,-0.27
2021-08-19 21:26:49.052,-0.215,-0.285
2021-08-19 21:26:49.056,-0.22,-0.285
2021-08-19 21:26:49.060,-0.23,-0.275
2021-08-19 21:26:49.064,-0.245,-0.28
2021-08-19 21:26:49.068,-0.24,-0.3
2021-08-19 21:26:49.072,-0.25,-0.3
2021-08-19 21:26:49.076,-0.265,-0.305
2021-08-19 21:26:49.080,-0.24,-0.295
2021-08-19 21:26:49.084,-0.23,-0.3
2021-08-19 21:26:49.088,-0.23,-0.32
2021-08-19 21:26:49.092,-0.235,-0.3
2021-08-19 21:26:49.096,-0.245,-0.31
2021-08-19 21:26:49.100,-0.24,-0.34
2021-08-19 21:26:49.104,-0.23,-0.34
2021-08-19 21:26:49.108,-0.215,-0.32
2021-08-19 21:26:49.112,-0.205,-0.325
2021-08-19 21:26:49.116,-0.21,-0.355
2021-08-19 21:26:49.120,-0.245,-0.34
2021-08-19 21:26:49.124,-0.2,-0.345
2021-08-19 21:26:49.128,-0.215,-0.345
2021-08-19 21:26:49.132,-0.18,-0.345
2021-08-19 21:26:49.136,-0.22,-0.345
2021-08-19 21:26:49.140,-0.205,-0.36
2021-08-19 21:26:49.144,-0.2,-0.35
2021-08-19 21:26:49.148,-0.225,-0.355
2021-08-19 21:26:49.152,-0.205,-0.36
2021-08-19 21:26:49.156,-0.215,-0.36
2021-08-19 21:26:49.160,-0.2,-0.36
2021-08-19 21:26:49.164,-0.19,-0.38
2021-08-19 21:26:49.168,-0.18,-0.365
2021-08-19 21:26:49.172,-0.22,-0.345
2021-08-19 21:26:49.176,-0.195,-0.325
2021-08-19 21:26:49.180,-0.205,-0.36
2021-08-19 21:26:49.184,-0.21,-0.35
2021-08-19 21:26:49.188,-0.22,-0.36
2021-08-19 21:26:49.192,-0.215,-0.34
2021-08-19 21:26:49.196,-0.22,-0.355
2021-08-19 21:26:49.200,-0.24,-0.365
2021-08-19 21:26:49.204,-0.21,-0.33
2021-08-19 21:26:49.208,-0.225,-0.33
2021-08-19 21:26:49.212,-0.23,-0.345
2021-08-19 21:26:49.216,-0.23,-0.34
2021-08-19 21:26:49.220,-0.25,-0.32
2021-08-19 21:26:49.224,-0.23,-0.33
2021-08-19 21:26:49.228,-0.24,-0.33
2021-08-19 21:26:49.232,-0.23,-0.295
2021-08-19 21:26:49.236,-0.22,-0.29
2021-08-19 21:26:49.240,-0.24,-0.25
2021-08-19 21:26:49.244,-0.235,-0.245
2021-08-19 21:26:49.248,-0.235,-0.23
2021-08-19 21:26:49.252,-0.2,-0.2
2021-08-19 21:26:49.256,-0.19,-0.175
2021-08-19 21:26:49.260,-0.16,-0.165
2021-08-19 21:26:49.264,-0.16,-0.15
2021-08-19 21:26:49.268,-0.15,-0.11
2021-08-19 21:26:49.272,-0.115,-0.105
2021-08-19 21:26:49.276,-0.07,-0.12
2021-08-19 21:26:49.280,-0.075,-0.125
2021-08-19 21:26:49.284,-0.05,-0.145
2021-08-19 21:26:49.288,-0.09,-0.155
2021-08-19 21:26:49.292,-0.1,-0.155
2021-08-19 21:26:49.296,-0.135,-0.19
2021-08-19 21:26:49.300,-0.16,-0.21
2021-08-19 21:26:49.304,-0.185,-0.22
2021-08-19 21:26:49.308,-0.22,-0.245
2021-08-19 21:26:49.312,-0.2,-0.28
2021-08-19 21:26:49.316,-0.265,-0.28
2021-08-19 21:26:49.320,-0.28,-0.3
2021-08-19 21:26:49.324,-0.29,-0.34
2021-08-19 21:26:49.328,-0.32,-0.37
2021-08-19 21:26:49.332,-0.31,-0.38
2021-08-19 21:26:49.336,-0.29,-0.375
2021-08-19 21:26:49.340,-0.295,-0.4
2021-08-19 21:26:49.344,-0.3,-0.405
2021-08-19 21:26:49.348,-0.305,-0.4
2021-08-19 21:26:49.352,-0.29,-0.415
2021-08-19 21:26:49.356,-0.33,-0.415
2021-08-19 21:26:49.360,-0.3,-0.4
2021-08-19 21:26:49.364,-0.315,-0.4
2021-08-19 21:26:49.368,-0.325,-0.405
2021-08-19 21:26:49.372,-0.315,-0.41
2021-08-19 21:26:49.376,-0.32,-0.41
2021-08-19 21:26:49.380,-0.32,-0.415
2021-08-19 21:26:49.384,-0.315,-0.41
2021-08-19 21:26:49.388,-0.32,-0.4
2021-08-19 21:26:49.392,-0.31,-0.39
2021-08-19 21:26:49.396,-0.325,-0.405
2021-08-19 21:26:49.400,-0.305,-0.39
2021-08-19 21:26:49.404,-0.3,-0.385
2021-08-19 21:26:49.408,-0.3,-0.385
2021-08-19 21:26:49.412,-0.3,-0.375
2021-08-19 21:26:49.416,-0.3,-0.36
2021-08-19 21:26:49.420,-0.325,-0.32
2021-08-19 21:26:49.424,-0.32,-0.27
2021-08-19 21:26:49.428,-0.31,-0.185
2021-08-19 21:26:49.432,-0.305,-0.04
2021-08-19 21:26:49.436,-0.28,0.15
2021-08-19 21:26:49.440,-0.225,0.43
2021-08-19 21:26:49.444,-0.18,0.675
2021-08-19 21:26:49.448,-0.255,0.8
2021-08-19 21:26:49.452,-0.49,0.92
2021-08-19 21:26:49.456,-0.895,1.095
2021-08-19 21:26:49.460,-1.485,1.305
2021-08-19 21:26:49.508,-1.955,0.84
2021-08-19 21:26:49.512,-1.86,0.76
2021-08-19 21:26:49.516,-1.745,0.565
2021-08-19 21:26:49.520,-1.585,0.185
2021-08-19 21:26:49.524,-1.49,-0.23
2021-08-19 21:26:49.528,-1.415,-0.51
2021-08-19 21:26:49.532,-1.305,-0.66
2021-08-19 21:26:49.536,-1.175,-0.72
2021-08-19 21:26:49.540,-1.02,-0.685
2021-08-19 21:26:49.544,-0.905,-0.64
2021-08-19 21:26:49.548,-0.745,-0.63
2021-08-19 21:26:49.552,-0.57,-0.595
2021-08-19 21:26:49.556,-0.415,-0.57
2021-08-19 21:26:49.560,-0.265,-0.565
2021-08-19 21:26:49.564,-0.095,-0.56
2021-08-19 21:26:49.568,-0.005,-0.565
2021-08-19 21:26:49.572,0.07,-0.54
2021-08-19 21:26:49.576,0.085,-0.535
2021-08-19 21:26:49.580,0.135,-0.555
2021-08-19 21:26:49.584,0.17,-0.56
2021-08-19 21:26:49.588,0.175,-0.54
2021-08-19 21:26:49.592,0.22,-0.53
2021-08-19 21:26:49.596,0.23,-0.535
2021-08-19 21:26:49.600,0.23,-0.55
2021-08-19 21:26:49.604,0.225,-0.535
2021-08-19 21:26:49.608,0.29,-0.54
2021-08-19 21:26:49.612,0.3,-0.545
2021-08-19 21:26:49.616,0.29,-0.52
2021-08-19 21:26:49.620,0.305,-0.55
2021-08-19 21:26:49.624,0.335,-0.53
2021-08-19 21:26:49.628,0.325,-0.53
2021-08-19 21:26:49.632,0.345,-0.53
2021-08-19 21:26:49.636,0.35,-0.53
2021-08-19 21:26:49.640,0.375,-0.53
2021-08-19 21:26:49.644,0.4,-0.525
2021-08-19 21:26:49.648,0.44,-0.555
2021-08-19 21:26:49.652,0.46,-0.545
2021-08-19 21:26:49.656,0.5,-0.55
2021-08-19 21:26:49.660,0.515,-0.555
2021-08-19 21:26:49.664,0.54,-0.56
2021-08-19 21:26:49.668,0.575,-0.59
2021-08-19 21:26:49.672,0.585,-0.59
2021-08-19 21:26:49.676,0.605,-0.595
2021-08-19 21:26:49.680,0.645,-0.62
2021-08-19 21:26:49.684,0.665,-0.6
2021-08-19 21:26:49.688,0.685,-0.605
2021-08-19 21:26:49.692,0.72,-0.605
2021-08-19 21:26:49.696,0.73,-0.615
2021-08-19 21:26:49.700,0.75,-0.605
2021-08-19 21:26:49.704,0.75,-0.595
2021-08-19 21:26:49.708,0.755,-0.56
2021-08-19 21:26:49.712,0.745,-0.565
2021-08-19 21:26:49.716,0.735,-0.535
2021-08-19 21:26:49.720,0.735,-0.52
2021-08-19 21:26:49.724,0.69,-0.48
2021-08-19 21:26:49.728,0.67,-0.485
2021-08-19 21:26:49.732,0.65,-0.45
2021-08-19 21:26:49.736,0.615,-0.395
2021-08-19 21:26:49.740,0.565,-0.36
2021-08-19 21:26:49.744,0.535,-0.325
2021-08-19 21:26:49.748,0.485,-0.3
2021-08-19 21:26:49.752,0.425,-0.28
2021-08-19 21:26:49.756,0.375,-0.265
2021-08-19 21:26:49.760,0.32,-0.24
2021-08-19 21:26:49.764,0.26,-0.21
2021-08-19 21:26:49.768,0.19,-0.25
2021-08-19 21:26:49.772,0.155,-0.24
2021-08-19 21:26:49.776,0.095,-0.26
2021-08-19 21:26:49.780,0.055,-0.255
2021-08-19 21:26:49.784,0.01,-0.25
2021-08-19 21:26:49.788,-0.025,-0.27
2021-08-19 21:26:49.792,-0.055,-0.265
2021-08-19 21:26:49.796,-0.06,-0.26
2021-08-19 21:26:49.800,-0.095,-0.28
2021-08-19 21:26:49.804,-0.12,-0.28
2021-08-19 21:26:49.808,-0.125,-0.315
2021-08-19 21:26:49.812,-0.14,-0.32
2021-08-19 21:26:49.816,-0.155,-0.31
2021-08-19 21:26:49.820,-0.16,-0.32
2021-08-19 21:26:49.824,-0.18,-0.335
2021-08-19 21:26:49.828,-0.175,-0.32
2021-08-19 21:26:49.832,-0.195,-0.33
2021-08-19 21:26:49.836,-0.185,-0.32
2021-08-19 21:26:49.840,-0.2,-0.33
2021-08-19 21:26:49.844,-0.175,-0.33
2021-08-19 21:26:49.848,-0.155,-0.32
2021-08-19 21:26:49.852,-0.185,-0.34
2021-08-19 21:26:49.856,-0.18,-0.34
2021-08-19 21:26:49.860,-0.16,-0.36
2021-08-19 21:26:49.864,-0.17,-0.35
2021-08-19 21:26:49.868,-0.185,-0.375
2021-08-19 21:26:49.872,-0.185,-0.365
2021-08-19 21:26:49.876,-0.19,-0.35
2021-08-19 21:26:49.880,-0.18,-0.35
2021-08-19 21:26:49.884,-0.165,-0.365
2021-08-19 21:26:49.888,-0.16,-0.38
2021-08-19 21:26:49.892,-0.17,-0.355
2021-08-19 21:26:49.896,-0.155,-0.37
2021-08-19 21:26:49.900,-0.14,-0.38
2021-08-19 21:26:49.904,-0.13,-0.39
2021-08-19 21:26:49.908,-0.145,-0.395
2021-08-19 21:26:49.912,-0.15,-0.4
2021-08-19 21:26:49.916,-0.12,-0.4
2021-08-19 21:26:49.920,-0.15,-0.38
2021-08-19 21:26:49.924,-0.135,-0.385
2021-08-19 21:26:49.928,-0.14,-0.39
2021-08-19 21:26:49.932,-0.125,-0.4
2021-08-19 21:26:49.936,-0.14,-0.41
2021-08-19 21:26:49.940,-0.13,-0.39
2021-08-19 21:26:49.944,-0.16,-0.38
2021-08-19 21:26:49.948,-0.12,-0.375
2021-08-19 21:26:49.952,-0.12,-0.395
2021-08-19 21:26:49.956,-0.145,-0.375
2021-08-19 21:26:49.960,-0.135,-0.365
2021-08-19 21:26:49.964,-0.165,-0.365
2021-08-19 21:26:49.968,-0.16,-0.365
2021-08-19 21:26:49.972,-0.15,-0.355
2021-08-19 21:26:49.976,-0.155,-0.35
2021-08-19 21:26:49.980,-0.175,-0.325
2021-08-19 21:26:49.984,-0.17,-0.275
2021-08-19 21:26:49.988,-0.16,-0.27
2021-08-19 21:26:49.992,-0.14,-0.24
2021-08-19 21:26:49.996,-0.12,-0.225
2021-08-19 21:26:50.000,-0.1,-0.22
2021-08-19 21:26:50.004,-0.07,-0.17
2021-08-19 21:26:50.008,-0.055,-0.15
2021-08-19 21:26:50.012,-0.03,-0.135
2021-08-19 21:26:50.016,-0.005,-0.155
2021-08-19 21:26:50.020,0.005,-0.14
2021-08-19 21:26:50.024,0.015,-0.15
2021-08-19 21:26:50.028,0.02,-0.17
2021-08-19 21:26:50.032,0.01,-0.175
2021-08-19 21:26:50.036,-0.05,-0.21
2021-08-19 21:26:50.040,-0.06,-0.195
2021-08-19 21:26:50.044,-0.09,-0.225
2021-08-19 21:26:50.048,-0.14,-0.26
2021-08-19 21:26:50.052,-0.13,-0.29
2021-08-19 21:26:50.056,-0.18,-0.295
2021-08-19 21:26:50.060,-0.21,-0.29
2021-08-19 21:26:50.064,-0.245,-0.33
2021-08-19 21:26:50.068,-0.235,-0.38
2021-08-19 21:26:50.072,-0.25,-0.395
2021-08-19 21:26:50.076,-0.25,-0.385
2021-08-19 21:26:50.080,-0.215,-0.405
2021-08-19 21:26:50.084,-0.265,-0.385
2021-08-19 21:26:50.088,-0.225,-0.405
2021-08-19 21:26:50.092,-0.235,-0.385
2021-08-19 21:26:50.096,-0.22,-0.39
2021-08-19 21:26:50.100,-0.25,-0.405
2021-08-19 21:26:50.104,-0.235,-0.39
2021-08-19 21:26:50.108,-0.255,-0.38
2021-08-19 21:26:50.112,-0.255,-0.385
2021-08-19 21:26:50.116,-0.25,-0.37
2021-08-19 21:26:50.120,-0.22,-0.39
2021-08-19 21:26:50.124,-0.225,-0.39
2021-08-19 21:26:50.128,-0.24,-0.4
2021-08-19 21:26:50.132,-0.255,-0.37
2021-08-19 21:26:50.136,-0.235,-0.38
2021-08-19 21:26:50.140,-0.245,-0.365
2021-08-19 21:26:50.144,-0.24,-0.385
2021-08-19 21:26:50.148,-0.245,-0.37
2021-08-19 21:26:50.152,-0.22,-0.35
2021-08-19 21:26:50.156,-0.23,-0.345
2021-08-19 21:26:50.160,-0.235,-0.34
2021-08-19 21:26:50.164,-0.24,-0.325
2021-08-19 21:26:50.168,-0.21,-0.28
2021-08-19 21:26:50.172,-0.225,-0.22
2021-08-19 21:26:50.176,-0.245,-0.11
2021-08-19 21:26:50.180,-0.22,0.05
2021-08-19 21:26:50.184,-0.185,0.275
2021-08-19 21:26:50.188,-0.115,0.495
2021-08-19 21:26:50.192,-0.11,0.67
2021-08-19 21:26:50.196,-0.28,0.81
2021-08-19 21:26:50.200,-0.655,1.01
2021-08-19 21:26:50.204,-1.27,1.235
2021-08-19 21:26:50.208,-1.985,1.43
2021-08-19 21:26:50.248,-1.955,0.93
2021-08-19 21:26:50.252,-1.87,0.83
2021-08-19 21:26:50.256,-1.76,0.75
2021-08-19 21:26:50.260,-1.635,0.57
2021-08-19 21:26:50.264,-1.5,0.215
2021-08-19 21:26:50.268,-1.385,-0.205
2021-08-19 21:26:50.272,-1.3,-0.46
2021-08-19 21:26:50.276,-1.155,-0.595
2021-08-19 21:26:50.280,-1.035,-0.655
2021-08-19 21:26:50.284,-0.915,-0.655
2021-08-19 21:26:50.288,-0.775,-0.61
2021-08-19 21:26:50.292,-0.61,-0.575
2021-08-19 21:26:50.296,-0.445,-0.545
2021-08-19 21:26:50.300,-0.275,-0.56
2021-08-19 21:26:50.304,-0.095,-0.52
2021-08-19 21:26:50.308,0.005,-0.525
2021-08-19 21:26:50.312,0.135,-0.505
2021-08-19 21:26:50.316,0.155,-0.515
2021-08-19 21:26:50.320,0.185,-0.515
2021-08-19 21:26:50.324,0.23,-0.52
2021-08-19 21:26:50.328,0.265,-0.53
2021-08-19 21:26:50.332,0.27,-0.525
2021-08-19 21:26:50.336,0.275,-0.52
2021-08-19 21:26:50.340,0.305,-0.52
2021-08-19 21:26:50.344,0.335,-0.515
2021-08-19 21:26:50.348,0.335,-0.52
2021-08-19 21:26:50.352,0.365,-0.52
2021-08-19 21:26:50.356,0.37,-0.505
2021-08-19 21:26:50.360,0.405,-0.5
2021-08-19 21:26:50.364,0.415,-0.52
2021-08-19 21:26:50.368,0.435,-0.52
2021-08-19 21:26:50.372,0.425,-0.49
2021-08-19 21:26:50.376,0.445,-0.5
2021-08-19 21:26:50.380,0.485,-0.505
2021-08-19 21:26:50.384,0.47,-0.51
2021-08-19 21:26:50.388,0.505,-0.505
2021-08-19 21:26:50.392,0.54,-0.52
2021-08-19 21:26:50.396,0.595,-0.52
2021-08-19 21:26:50.400,0.615,-0.52
2021-08-19 21:26:50.404,0.615,-0.52
2021-08-19 21:26:50.408,0.655,-0.525
2021-08-19 21:26:50.412,0.68,-0.55
2021-08-19 21:26:50.416,0.68,-0.545
2021-08-19 21:26:50.420,0.71,-0.54
2021-08-19 21:26:50.424,0.75,-0.545
2021-08-19 21:26:50.428,0.77,-0.565
2021-08-19 21:26:50.432,0.795,-0.57
2021-08-19 21:26:50.436,0.8,-0.565
2021-08-19 21:26:50.440,0.825,-0.57
2021-08-19 21:26:50.444,0.86,-0.565
2021-08-19 21:26:50.448,0.83,-0.54
2021-08-19 21:26:50.452,0.835,-0.535
2021-08-19 21:26:50.456,0.82,-0.515
2021-08-19 21:26:50.460,0.805,-0.505
2021-08-19 21:26:50.464,0.76,-0.455
2021-08-19 21:26:50.468,0.725,-0.415
2021-08-19 21:26:50.472,0.69,-0.395
2021-08-19 21:26:50.476,0.635,-0.36
2021-08-19 21:26:50.480,0.6,-0.335
2021-08-19 21:26:50.484,0.55,-0.305
2021-08-19 21:26:50.488,0.485,-0.285
2021-08-19 21:26:50.492,0.425,-0.255
2021-08-19 21:26:50.496,0.375,-0.265
2021-08-19 21:26:50.500,0.31,-0.235
2021-08-19 21:26:50.504,0.265,-0.235
2021-08-19 21:26:50.508,0.21,-0.235
2021-08-19 21:26:50.512,0.165,-0.23
2021-08-19 21:26:50.516,0.12,-0.245
2021-08-19 21:26:50.520,0.075,-0.275
2021-08-19 21:26:50.524,0.045,-0.28
2021-08-19 21:26:50.528,-0.005,-0.26
2021-08-19 21:26:50.532,-0.01,-0.29
2021-08-19 21:26:50.536,-0.03,-0.305
2021-08-19 21:26:50.540,-0.06,-0.315
2021-08-19 21:26:50.544,-0.085,-0.31
2021-08-19 21:26:50.548,-0.1,-0.33
2021-08-19 21:26:50.552,-0.07,-0.34
2021-08-19 21:26:50.556,-0.08,-0.315
2021-08-19 21:26:50.560,-0.115,-0.34
2021-08-19 21:26:50.564,-0.105,-0.345
2021-08-19 21:26:50.568,-0.125,-0.37
2021-08-19 21:26:50.572,-0.115,-0.36
2021-08-19 21:26:50.576,-0.13,-0.35
2021-08-19 21:26:50.580,-0.11,-0.385
2021-08-19 21:26:50.584,-0.115,-0.39
2021-08-19 21:26:50.588,-0.13,-0.38
2021-08-19 21:26:50.592,-0.12,-0.385
2021-08-19 21:26:50.596,-0.125,-0.37
2021-08-19 21:26:50.600,-0.125,-0.39
2021-08-19 21:26:50.604,-0.13,-0.395
2021-08-19 21:26:50.608,-0.14,-0.39
2021-08-19 21:26:50.612,-0.125,-0.425
2021-08-19 21:26:50.616,-0.105,-0.405
2021-08-19 21:26:50.620,-0.1,-0.395
2021-08-19 21:26:50.624,-0.14,-0.4
2021-08-19 21:26:50.628,-0.12,-0.41
2021-08-19 21:26:50.632,-0.12,-0.4
2021-08-19 21:26:50.636,-0.13,-0.41
2021-08-19 21:26:50.640,-0.115,-0.405
2021-08-19 21:26:50.644,-0.11,-0.44
2021-08-19 21:26:50.648,-0.1,-0.415
2021-08-19 21:26:50.652,-0.075,-0.425
2021-08-19 21:26:50.656,-0.12,-0.41
2021-08-19 21:26:50.660,-0.115,-0.43
2021-08-19 21:26:50.664,-0.11,-0.435
2021-08-19 21:26:50.668,-0.11,-0.42
2021-08-19 21:26:50.672,-0.105,-0.405
2021-08-19 21:26:50.676,-0.11,-0.425
2021-08-19 21:26:50.680,-0.095,-0.415
2021-08-19 21:26:50.684,-0.12,-0.39
2021-08-19 21:26:50.688,-0.12,-0.405
2021-08-19 21:26:50.692,-0.13,-0.425
2021-08-19 21:26:50.696,-0.12,-0.42
2021-08-19 21:26:50.700,-0.145,-0.39
2021-08-19 21:26:50.704,-0.125,-0.4
2021-08-19 21:26:50.708,-0.13,-0.4
2021-08-19 21:26:50.712,-0.15,-0.385
2021-08-19 21:26:50.716,-0.14,-0.385
2021-08-19 21:26:50.720,-0.135,-0.38
2021-08-19 21:26:50.724,-0.13,-0.395
2021-08-19 21:26:50.728,-0.16,-0.375
2021-08-19 21:26:50.732,-0.145,-0.355
2021-08-19 21:26:50.736,-0.14,-0.325
2021-08-19 21:26:50.740,-0.15,-0.305
2021-08-19 21:26:50.744,-0.135,-0.265
2021-08-19 21:26:50.748,-0.13,-0.24
2021-08-19 21:26:50.752,-0.13,-0.245
2021-08-19 21:26:50.756,-0.09,-0.22
2021-08-19 21:26:50.760,-0.05,-0.21
2021-08-19 21:26:50.764,-0.035,-0.155
2021-08-19 21:26:50.768,-0.02,-0.155
2021-08-19 21:26:50.772,0.005,-0.14
2021-08-19 21:26:50.776,0.04,-0.14
2021-08-19 21:26:50.780,0.065,-0.14
2021-08-19 21:26:50.784,0.04,-0.17
2021-08-19 21:26:50.788,0.035,-0.2
2021-08-19 21:26:50.792,-0.01,-0.2
2021-08-19 21:26:50.796,-0.045,-0.22
2021-08-19 21:26:50.800,-0.065,-0.265
2021-08-19 21:26:50.804,-0.125,-0.29
2021-08-19 21:26:50.808,-0.125,-0.315
2021-08-19 21:26:50.812,-0.145,-0.305
2021-08-19 21:26:50.816,-0.185,-0.325
2021-08-19 21:26:50.820,-0.205,-0.345
2021-08-19 21:26:50.824,-0.215,-0.385
2021-08-19 21:26:50.828,-0.21,-0.41
2021-08-19 21:26:50.832,-0.195,-0.415
2021-08-19 21:26:50.836,-0.195,-0.405
2021-08-19 21:26:50.840,-0.19,-0.42
2021-08-19 21:26:50.844,-0.195,-0.395
2021-08-19 21:26:50.848,-0.175,-0.405
2021-08-19 21:26:50.852,-0.185,-0.425
2021-08-19 21:26:50.856,-0.19,-0.395
2021-08-19 21:26:50.860,-0.2,-0.425
2021-08-19 21:26:50.864,-0.195,-0.415
2021-08-19 21:26:50.868,-0.19,-0.38
2021-08-19 21:26:50.872,-0.195,-0.42
2021-08-19 21:26:50.876,-0.185,-0.4
2021-08-19 21:26:50.880,-0.175,-0.405
2021-08-19 21:26:50.884,-0.195,-0.395
2021-08-19 21:26:50.888,-0.215,-0.4
2021-08-19 21:26:50.892,-0.19,-0.4
2021-08-19 21:26:50.896,-0.18,-0.39
2021-08-19 21:26:50.900,-0.2,-0.395
2021-08-19 21:26:50.904,-0.18,-0.375
2021-08-19 21:26:50.908,-0.2,-0.36
2021-08-19 21:26:50.912,-0.17,-0.335
2021-08-19 21:26:50.916,-0.185,-0.31
2021-08-19 21:26:50.920,-0.17,-0.25
2021-08-19 21:26:50.924,-0.18,-0.125
2021-08-19 21:26:50.928,-0.16,0.04
2021-08-19 21:26:50.932,-0.105,0.3
2021-08-19 21:26:50.936,-0.04,0.545
2021-08-19 21:26:50.940,-0.06,0.685
2021-08-19 21:26:50.944,-0.315,0.83
2021-08-19 21:26:50.948,-0.745,1.015
2021-08-19 21:26:50.952,-1.435,1.235
2021-08-19 21:26:50.992,-1.97,0.865
2021-08-19 21:26:50.996,-1.87,0.775
2021-08-19 21:26:51.000,-1.75,0.68
2021-08-19 21:26:51.004,-1.625,0.56
2021-08-19 21:26:51.008,-1.5,0.215
2021-08-19 21:26:51.012,-1.37,-0.22
2021-08-19 21:26:51.016,-1.275,-0.52
2021-08-19 21:26:51.020,-1.135,-0.64
2021-08-19 21:26:51.024,-0.985,-0.675
2021-08-19 21:26:51.028,-0.85,-0.66
2021-08-19 21:26:51.032,-0.705,-0.615
2021-08-19 21:26:51.036,-0.555,-0.58
2021-08-19 21:26:51.040,-0.39,-0.555
2021-08-19 21:26:51.044,-0.215,-0.54
2021-08-19 21:26:51.048,-0.04,-0.525
2021-08-19 21:26:51.052,0.075,-0.545
2021-08-19 21:26:51.056,0.15,-0.515
2021-08-19 21:26:51.060,0.205,-0.545
2021-08-19 21:26:51.064,0.23,-0.53
2021-08-19 21:26:51.068,0.27,-0.495
2021-08-19 21:26:51.072,0.29,-0.5
2021-08-19 21:26:51.076,0.325,-0.505
2021-08-19 21:26:51.080,0.335,-0.525
2021-08-19 21:26:51.084,0.34,-0.495
2021-08-19 21:26:51.088,0.375,-0.52
2021-08-19 21:26:51.092,0.375,-0.505
2021-08-19 21:26:51.096,0.4,-0.495
2021-08-19 21:26:51.100,0.42,-0.47
2021-08-19 21:26:51.104,0.435,-0.49
2021-08-19 21:26:51.108,0.435,-0.49
2021-08-19 21:26:51.112,0.45,-0.48
2021-08-19 21:26:51.116,0.47,-0.475
2021-08-19 21:26:51.120,0.5,-0.48
2021-08-19 21:26:51.124,0.535,-0.495
2021-08-19 21:26:51.128,0.55,-0.49
2021-08-19 21:26:51.132,0.535,-0.48
2021-08-19 21:26:51.136,0.585,-0.505
2021-08-19 21:26:51.140,0.625,-0.485
2021-08-19 21:26:51.144,0.65,-0.49
2021-08-19 21:26:51.148,0.685,-0.5
2021-08-19 21:26:51.152,0.715,-0.535
2021-08-19 21:26:51.156,0.72,-0.525
2021-08-19 21:26:51.160,0.76,-0.505
2021-08-19 21:26:51.164,0.78,-0.52
2021-08-19 21:26:51.168,0.8,-0.53
2021-08-19 21:26:51.172,0.835,-0.535
2021-08-19 21:26:51.176,0.86,-0.53
2021-08-19 21:26:51.180,0.845,-0.535
2021-08-19 21:26:51.184,0.865,-0.515
2021-08-19 21:26:51.188,0.88,-0.505
2021-08-19 21:26:51.192,0.85,-0.495
2021-08-19 21:26:51.196,0.89,-0.48
2021-08-19 21:26:51.200,0.85,-0.475
2021-08-19 21:26:51.204,0.81,-0.455
2021-08-19 21:26:51.208,0.77,-0.4
2021-08-19 21:26:51.212,0.76,-0.385
2021-08-19 21:26:51.216,0.705,-0.355
2021-08-19 21:26:51.220,0.655,-0.305
2021-08-19 21:26:51.224,0.61,-0.285
2021-08-19 21:26:51.228,0.53,-0.265
2021-08-19 21:26:51.232,0.485,-0.235
2021-08-19 21:26:51.236,0.42,-0.22
2021-08-19 21:26:51.240,0.35,-0.24
2021-08-19 21:26:51.244,0.3,-0.215
2021-08-19 21:26:51.248,0.235,-0.195
2021-08-19 21:26:51.252,0.195,-0.21
2021-08-19 21:26:51.256,0.135,-0.24
2021-08-19 21:26:51.260,0.1,-0.235
2021-08-19 21:26:51.264,0.05,-0.25
2021-08-19 21:26:51.268,0.02,-0.275
2021-08-19 21:26:51.272,0.0,-0.315
2021-08-19 21:26:51.276,-0.035,-0.295
2021-08-19 21:26:51.280,-0.05,-0.295
2021-08-19 21:26:51.284,-0.075,-0.315
2021-08-19 21:26:51.288,-0.07,-0.33
2021-08-19 21:26:51.292,-0.105,-0.325
