Time,ECG1,ECG2
2021-08-19 15:50:43.948,0.31,-0.29
2021-08-19 15:50:43.952,0.34,-0.31
2021-08-19 15:50:43.956,0.345,-0.35
2021-08-19 15:50:43.960,0.33,-0.325
2021-08-19 15:50:43.964,0.33,-0.3
2021-08-19 15:50:43.968,0.295,-0.325
2021-08-19 15:50:43.972,0.285,-0.35
2021-08-19 15:50:43.976,0.285,-0.36
2021-08-19 15:50:43.980,0.315,-0.355
2021-08-19 15:50:43.984,0.325,-0.345
2021-08-19 15:50:43.988,0.33,-0.32
2021-08-19 15:50:43.992,0.345,-0.315
2021-08-19 15:50:43.996,0.355,-0.32
2021-08-19 15:50:44.000,0.33,-0.3
2021-08-19 15:50:44.004,0.28,-0.33
2021-08-19 15:50:44.008,0.26,-0.305
2021-08-19 15:50:44.012,0.25,-0.305
2021-08-19 15:50:44.016,0.255,-0.32
2021-08-19 15:50:44.020,0.26,-0.31
2021-08-19 15:50:44.024,0.3,-0.31
2021-08-19 15:50:44.028,0.295,-0.315
2021-08-19 15:50:44.032,0.31,-0.32
2021-08-19 15:50:44.036,0.315,-0.305
2021-08-19 15:50:44.040,0.295,-0.325
2021-08-19 15:50:44.044,0.28,-0.32
2021-08-19 15:50:44.048,0.27,-0.32
2021-08-19 15:50:44.052,0.255,-0.335
2021-08-19 15:50:44.056,0.285,-0.295
2021-08-19 15:50:44.060,0.305,-0.3
2021-08-19 15:50:44.064,0.295,-0.315
2021-08-19 15:50:44.068,0.31,-0.33
2021-08-19 15:50:44.072,0.3,-0.305
2021-08-19 15:50:44.076,0.28,-0.325
2021-08-19 15:50:44.080,0.275,-0.305
2021-08-19 15:50:44.084,0.3,-0.32
2021-08-19 15:50:44.088,0.255,-0.335
2021-08-19 15:50:44.092,0.22,-0.335
2021-08-19 15:50:44.096,0.255,-0.29
2021-08-19 15:50:44.100,0.265,-0.3
2021-08-19 15:50:44.104,0.275,-0.29
2021-08-19 15:50:44.108,0.28,-0.305
2021-08-19 15:50:44.112,0.265,-0.3
2021-08-19 15:50:44.116,0.245,-0.33
2021-08-19 15:50:44.120,0.27,-0.325
2021-08-19 15:50:44.124,0.255,-0.315
2021-08-19 15:50:44.128,0.235,-0.31
2021-08-19 15:50:44.132,0.26,-0.305
2021-08-19 15:50:44.136,0.255,-0.315
2021-08-19 15:50:44.140,0.225,-0.3
2021-08-19 15:50:44.144,0.255,-0.315
2021-08-19 15:50:44.148,0.26,-0.33
2021-08-19 15:50:44.152,0.25,-0.335
2021-08-19 15:50:44.156,0.22,-0.35
2021-08-19 15:50:44.160,0.21,-0.345
2021-08-19 15:50:44.164,0.23,-0.35
2021-08-19 15:50:44.168,0.225,-0.325
2021-08-19 15:50:44.172,0.25,-0.29
2021-08-19 15:50:44.176,0.27,-0.305
2021-08-19 15:50:44.180,0.26,-0.31
2021-08-19 15:50:44.184,0.24,-0.33
2021-08-19 15:50:44.188,0.24,-0.34
2021-08-19 15:50:44.192,0.245,-0.345
2021-08-19 15:50:44.196,0.25,-0.35
2021-08-19 15:50:44.200,0.205,-0.31
2021-08-19 15:50:44.204,0.225,-0.32
2021-08-19 15:50:44.208,0.25,-0.32
2021-08-19 15:50:44.212,0.255,-0.335
2021-08-19 15:50:44.216,0.27,-0.31
2021-08-19 15:50:44.220,0.22,-0.305
2021-08-19 15:50:44.224,0.21,-0.31
2021-08-19 15:50:44.228,0.195,-0.34
2021-08-19 15:50:44.232,0.195,-0.31
2021-08-19 15:50:44.236,0.195,-0.305
2021-08-19 15:50:44.240,0.195,-0.32
2021-08-19 15:50:44.244,0.2,-0.32
2021-08-19 15:50:44.248,0.195,-0.32
2021-08-19 15:50:44.252,0.235,-0.325
2021-08-19 15:50:44.256,0.23,-0.315
2021-08-19 15:50:44.260,0.22,-0.335
2021-08-19 15:50:44.264,0.205,-0.31
2021-08-19 15:50:44.268,0.195,-0.33
2021-08-19 15:50:44.272,0.175,-0.34
2021-08-19 15:50:44.276,0.185,-0.32
2021-08-19 15:50:44.280,0.185,-0.335
2021-08-19 15:50:44.284,0.225,-0.31
2021-08-19 15:50:44.288,0.23,-0.32
2021-08-19 15:50:44.292,0.225,-0.315
2021-08-19 15:50:44.296,0.215,-0.305
2021-08-19 15:50:44.300,0.225,-0.305
2021-08-19 15:50:44.304,0.205,-0.3
2021-08-19 15:50:44.308,0.2,-0.32
2021-08-19 15:50:44.312,0.22,-0.295
2021-08-19 15:50:44.316,0.225,-0.27
2021-08-19 15:50:44.320,0.265,-0.255
2021-08-19 15:50:44.324,0.29,-0.235
2021-08-19 15:50:44.328,0.31,-0.215
2021-08-19 15:50:44.332,0.335,-0.24
2021-08-19 15:50:44.336,0.34,-0.255
2021-08-19 15:50:44.340,0.32,-0.215
2021-08-19 15:50:44.344,0.315,-0.165
2021-08-19 15:50:44.348,0.335,-0.135
2021-08-19 15:50:44.352,0.36,-0.095
2021-08-19 15:50:44.356,0.375,-0.12
2021-08-19 15:50:44.360,0.385,-0.145
2021-08-19 15:50:44.364,0.365,-0.135
2021-08-19 15:50:44.368,0.34,-0.16
2021-08-19 15:50:44.372,0.32,-0.185
2021-08-19 15:50:44.376,0.27,-0.225
2021-08-19 15:50:44.380,0.24,-0.265
2021-08-19 15:50:44.384,0.185,-0.26
2021-08-19 15:50:44.388,0.175,-0.255
2021-08-19 15:50:44.392,0.175,-0.28
2021-08-19 15:50:44.396,0.185,-0.305
2021-08-19 15:50:44.400,0.175,-0.32
2021-08-19 15:50:44.404,0.185,-0.33
2021-08-19 15:50:44.408,0.18,-0.345
2021-08-19 15:50:44.412,0.16,-0.355
2021-08-19 15:50:44.416,0.095,-0.38
2021-08-19 15:50:44.420,0.085,-0.395
2021-08-19 15:50:44.424,0.095,-0.385
2021-08-19 15:50:44.428,0.115,-0.365
2021-08-19 15:50:44.432,0.125,-0.375
2021-08-19 15:50:44.436,0.125,-0.375
2021-08-19 15:50:44.440,0.145,-0.395
2021-08-19 15:50:44.444,0.15,-0.39
2021-08-19 15:50:44.448,0.135,-0.41
2021-08-19 15:50:44.452,0.12,-0.4
2021-08-19 15:50:44.456,0.095,-0.39
2021-08-19 15:50:44.460,0.08,-0.4
2021-08-19 15:50:44.464,0.105,-0.38
2021-08-19 15:50:44.468,0.105,-0.37
2021-08-19 15:50:44.472,0.13,-0.375
2021-08-19 15:50:44.476,0.135,-0.385
2021-08-19 15:50:44.480,0.18,-0.405
2021-08-19 15:50:44.484,0.23,-0.445
2021-08-19 15:50:44.488,0.325,-0.415
2021-08-19 15:50:44.492,0.435,-0.325
2021-08-19 15:50:44.496,0.445,-0.175
2021-08-19 15:50:44.500,0.555,0.055
2021-08-19 15:50:44.504,0.685,0.33
2021-08-19 15:50:44.508,0.64,0.49
2021-08-19 15:50:44.512,0.425,0.465
2021-08-19 15:50:44.516,0.05,0.215
2021-08-19 15:50:44.520,-0.37,-0.005
2021-08-19 15:50:44.524,-0.685,-0.225
2021-08-19 15:50:44.528,-0.915,-0.26
2021-08-19 15:50:44.532,-1.08,-0.235
2021-08-19 15:50:44.536,-0.975,-0.21
2021-08-19 15:50:44.540,-0.71,-0.215
2021-08-19 15:50:44.544,-0.505,-0.255
2021-08-19 15:50:44.548,-0.27,-0.325
2021-08-19 15:50:44.552,-0.13,-0.39
2021-08-19 15:50:44.556,-0.07,-0.405
2021-08-19 15:50:44.560,-0.005,-0.45
2021-08-19 15:50:44.564,0.035,-0.47
2021-08-19 15:50:44.568,0.035,-0.425
2021-08-19 15:50:44.572,0.05,-0.435
2021-08-19 15:50:44.576,0.025,-0.445
2021-08-19 15:50:44.580,0.07,-0.46
2021-08-19 15:50:44.584,0.09,-0.48
2021-08-19 15:50:44.588,0.075,-0.475
2021-08-19 15:50:44.592,0.055,-0.48
2021-08-19 15:50:44.596,0.11,-0.48
2021-08-19 15:50:44.600,0.075,-0.48
2021-08-19 15:50:44.604,0.08,-0.49
2021-08-19 15:50:44.608,0.06,-0.505
2021-08-19 15:50:44.612,0.06,-0.48
2021-08-19 15:50:44.616,0.045,-0.485
2021-08-19 15:50:44.620,0.045,-0.45
2021-08-19 15:50:44.624,0.06,-0.455
2021-08-19 15:50:44.628,0.025,-0.48
2021-08-19 15:50:44.632,-0.01,-0.495
2021-08-19 15:50:44.636,-0.005,-0.5
2021-08-19 15:50:44.640,-0.03,-0.48
2021-08-19 15:50:44.644,-0.03,-0.5
2021-08-19 15:50:44.648,-0.025,-0.485
2021-08-19 15:50:44.652,-0.07,-0.47
2021-08-19 15:50:44.656,-0.075,-0.485
2021-08-19 15:50:44.660,-0.055,-0.48
2021-08-19 15:50:44.664,-0.02,-0.465
2021-08-19 15:50:44.668,0.01,-0.45
2021-08-19 15:50:44.672,-0.015,-0.47
2021-08-19 15:50:44.676,-0.015,-0.46
2021-08-19 15:50:44.680,0.0,-0.46
2021-08-19 15:50:44.684,-0.01,-0.475
2021-08-19 15:50:44.688,0.02,-0.47
2021-08-19 15:50:44.692,-0.065,-0.375
2021-08-19 15:50:44.696,-0.155,-0.39
2021-08-19 15:50:44.700,-0.155,-0.455
2021-08-19 15:50:44.704,-0.14,-0.43
2021-08-19 15:50:44.708,-0.155,-0.425
2021-08-19 15:50:44.712,-0.155,-0.44
2021-08-19 15:50:44.716,-0.175,-0.42
2021-08-19 15:50:44.720,-0.2,-0.405
2021-08-19 15:50:44.724,-0.235,-0.395
2021-08-19 15:50:44.728,-0.24,-0.4
2021-08-19 15:50:44.732,-0.25,-0.385
2021-08-19 15:50:44.736,-0.25,-0.405
2021-08-19 15:50:44.740,-0.285,-0.395
2021-08-19 15:50:44.744,-0.36,-0.4
2021-08-19 15:50:44.748,-0.665,-0.4
2021-08-19 15:50:44.752,-1.04,-0.405
2021-08-19 15:50:44.756,-1.12,-0.385
2021-08-19 15:50:44.760,-1.185,-0.375
2021-08-19 15:50:44.764,-1.23,-0.36
2021-08-19 15:50:44.768,-1.24,-0.375
2021-08-19 15:50:44.772,-1.255,-0.375
2021-08-19 15:50:44.776,-1.28,-0.355
2021-08-19 15:50:44.780,-1.265,-0.33
2021-08-19 15:50:44.784,-1.27,-0.34
2021-08-19 15:50:44.788,-1.255,-0.335
2021-08-19 15:50:44.792,-1.26,-0.34
2021-08-19 15:50:44.796,-1.25,-0.325
2021-08-19 15:50:44.800,-1.275,-0.29
2021-08-19 15:50:44.804,-1.28,-0.28
2021-08-19 15:50:44.808,-1.26,-0.27
2021-08-19 15:50:44.812,-1.245,-0.255
2021-08-19 15:50:44.816,-1.235,-0.27
2021-08-19 15:50:44.820,-1.23,-0.26
2021-08-19 15:50:44.824,-1.24,-0.27
2021-08-19 15:50:44.828,-1.26,-0.26
2021-08-19 15:50:44.832,-1.245,-0.305
2021-08-19 15:50:44.836,-1.24,-0.325
2021-08-19 15:50:44.840,-1.265,-0.345
2021-08-19 15:50:44.844,-1.245,-0.325
2021-08-19 15:50:44.848,-1.24,-0.315
2021-08-19 15:50:44.852,-1.225,-0.3
2021-08-19 15:50:44.856,-1.195,-0.3
2021-08-19 15:50:44.860,-1.19,-0.34
2021-08-19 15:50:44.864,-1.145,-0.37
2021-08-19 15:50:44.868,-1.165,-0.375
2021-08-19 15:50:44.872,-1.165,-0.375
2021-08-19 15:50:44.876,-1.165,-0.33
2021-08-19 15:50:44.880,-1.18,-0.33
2021-08-19 15:50:44.884,-1.205,-0.36
2021-08-19 15:50:44.888,-1.21,-0.365
2021-08-19 15:50:44.892,-1.18,-0.365
2021-08-19 15:50:44.896,-1.145,-0.395
2021-08-19 15:50:44.900,-1.105,-0.375
2021-08-19 15:50:44.904,-1.125,-0.39
2021-08-19 15:50:44.908,-1.14,-0.39
2021-08-19 15:50:44.912,-1.17,-0.365
2021-08-19 15:50:44.916,-1.155,-0.37
2021-08-19 15:50:44.920,-1.13,-0.34
2021-08-19 15:50:44.924,-1.17,-0.33
2021-08-19 15:50:44.928,-1.14,-0.33
2021-08-19 15:50:44.932,-1.09,-0.35
2021-08-19 15:50:44.936,-1.07,-0.355
2021-08-19 15:50:44.940,-1.105,-0.335
2021-08-19 15:50:44.944,-1.08,-0.34
2021-08-19 15:50:44.948,-1.08,-0.32
2021-08-19 15:50:44.952,-1.09,-0.3
2021-08-19 15:50:44.956,-1.085,-0.305
2021-08-19 15:50:44.960,-1.095,-0.315
2021-08-19 15:50:44.964,-1.075,-0.325
2021-08-19 15:50:44.968,-1.07,-0.345
2021-08-19 15:50:44.972,-1.03,-0.35
2021-08-19 15:50:44.976,-1.005,-0.36
2021-08-19 15:50:44.980,-1.035,-0.345
2021-08-19 15:50:44.984,-1.04,-0.34
2021-08-19 15:50:44.988,-1.03,-0.34
2021-08-19 15:50:44.992,-0.995,-0.345
2021-08-19 15:50:44.996,-1.045,-0.33
2021-08-19 15:50:45.000,-1.02,-0.355
2021-08-19 15:50:45.004,-1.015,-0.315
2021-08-19 15:50:45.008,-1.025,-0.315
2021-08-19 15:50:45.012,-0.965,-0.315
2021-08-19 15:50:45.016,-0.915,-0.34
2021-08-19 15:50:45.020,-0.92,-0.34
2021-08-19 15:50:45.024,-0.955,-0.315
2021-08-19 15:50:45.028,-0.965,-0.35
2021-08-19 15:50:45.032,-1.0,-0.345
2021-08-19 15:50:45.036,-1.06,-0.35
2021-08-19 15:50:45.040,-1.04,-0.345
2021-08-19 15:50:45.044,-0.975,-0.37
2021-08-19 15:50:45.048,-0.955,-0.335
2021-08-19 15:50:45.052,-0.91,-0.33
2021-08-19 15:50:45.056,-0.875,-0.305
2021-08-19 15:50:45.060,-0.995,-0.32
2021-08-19 15:50:45.064,-1.045,-0.35
2021-08-19 15:50:45.068,-1.06,-0.35
2021-08-19 15:50:45.072,-1.085,-0.36
2021-08-19 15:50:45.076,-1.075,-0.35
2021-08-19 15:50:45.080,-1.045,-0.355
2021-08-19 15:50:45.084,-1.04,-0.31
2021-08-19 15:50:45.088,-1.015,-0.33
2021-08-19 15:50:45.092,-0.99,-0.325
2021-08-19 15:50:45.096,-1.0,-0.35
2021-08-19 15:50:45.100,-0.97,-0.335
2021-08-19 15:50:45.104,-0.96,-0.34
2021-08-19 15:50:45.108,-0.98,-0.33
2021-08-19 15:50:45.112,-0.98,-0.36
2021-08-19 15:50:45.116,-0.955,-0.37
2021-08-19 15:50:45.120,-0.95,-0.335
2021-08-19 15:50:45.124,-0.95,-0.315
2021-08-19 15:50:45.128,-0.925,-0.335
2021-08-19 15:50:45.132,-0.915,-0.36
2021-08-19 15:50:45.136,-0.96,-0.355
2021-08-19 15:50:45.140,-1.005,-0.32
2021-08-19 15:50:45.144,-0.985,-0.345
2021-08-19 15:50:45.148,-0.965,-0.365
2021-08-19 15:50:45.152,-0.96,-0.4
2021-08-19 15:50:45.156,-0.9,-0.365
2021-08-19 15:50:45.160,-0.91,-0.325
2021-08-19 15:50:45.164,-0.94,-0.32
2021-08-19 15:50:45.168,-0.96,-0.355
2021-08-19 15:50:45.172,-0.95,-0.34
2021-08-19 15:50:45.176,-0.945,-0.35
2021-08-19 15:50:45.180,-0.95,-0.365
2021-08-19 15:50:45.184,-0.965,-0.37
2021-08-19 15:50:45.188,-0.98,-0.34
2021-08-19 15:50:45.192,-0.99,-0.37
2021-08-19 15:50:45.196,-0.99,-0.36
2021-08-19 15:50:45.200,-0.955,-0.33
2021-08-19 15:50:45.204,-0.95,-0.35
2021-08-19 15:50:45.208,-0.97,-0.34
2021-08-19 15:50:45.212,-0.985,-0.325
2021-08-19 15:50:45.216,-0.98,-0.315
2021-08-19 15:50:45.220,-0.965,-0.365
2021-08-19 15:50:45.224,-0.955,-0.355
2021-08-19 15:50:45.228,-0.935,-0.34
2021-08-19 15:50:45.232,-0.98,-0.35
2021-08-19 15:50:45.236,-0.99,-0.33
2021-08-19 15:50:45.240,-0.98,-0.34
2021-08-19 15:50:45.244,-0.97,-0.32
2021-08-19 15:50:45.248,-0.94,-0.315
2021-08-19 15:50:45.252,-0.94,-0.335
2021-08-19 15:50:45.256,-0.955,-0.365
2021-08-19 15:50:45.260,-0.945,-0.36
2021-08-19 15:50:45.264,-0.96,-0.35
2021-08-19 15:50:45.268,-0.97,-0.345
2021-08-19 15:50:45.272,-1.005,-0.34
2021-08-19 15:50:45.276,-0.98,-0.33
2021-08-19 15:50:45.280,-0.95,-0.3
2021-08-19 15:50:45.284,-0.925,-0.31
2021-08-19 15:50:45.288,-0.935,-0.345
2021-08-19 15:50:45.292,-0.94,-0.325
2021-08-19 15:50:45.296,-0.955,-0.34
2021-08-19 15:50:45.300,-0.97,-0.355
2021-08-19 15:50:45.304,-0.975,-0.345
2021-08-19 15:50:45.308,-0.95,-0.365
2021-08-19 15:50:45.312,-0.94,-0.355
2021-08-19 15:50:45.316,-0.93,-0.305
2021-08-19 15:50:45.320,-0.94,-0.27
2021-08-19 15:50:45.324,-0.96,-0.31
2021-08-19 15:50:45.328,-0.915,-0.32
2021-08-19 15:50:45.332,-0.935,-0.32
2021-08-19 15:50:45.336,-0.925,-0.33
2021-08-19 15:50:45.340,-0.92,-0.365
2021-08-19 15:50:45.344,-0.92,-0.32
2021-08-19 15:50:45.348,-0.925,-0.295
2021-08-19 15:50:45.352,-0.905,-0.305
2021-08-19 15:50:45.356,-0.925,-0.255
2021-08-19 15:50:45.360,-0.91,-0.25
2021-08-19 15:50:45.364,-0.89,-0.255
2021-08-19 15:50:45.368,-0.85,-0.23
2021-08-19 15:50:45.372,-0.755,-0.255
2021-08-19 15:50:45.376,-0.66,-0.245
2021-08-19 15:50:45.380,-0.75,-0.215
2021-08-19 15:50:45.384,-0.885,-0.19
2021-08-19 15:50:45.388,-0.915,-0.16
2021-08-19 15:50:45.392,-0.89,-0.12
2021-08-19 15:50:45.396,-0.855,-0.08
2021-08-19 15:50:45.400,-0.805,-0.1
2021-08-19 15:50:45.404,-0.835,-0.145
2021-08-19 15:50:45.408,-0.845,-0.155
2021-08-19 15:50:45.412,-0.85,-0.15
2021-08-19 15:50:45.416,-0.86,-0.18
2021-08-19 15:50:45.420,-0.89,-0.22
2021-08-19 15:50:45.424,-0.9,-0.195
2021-08-19 15:50:45.428,-0.91,-0.245
2021-08-19 15:50:45.432,-0.92,-0.245
2021-08-19 15:50:45.436,-0.89,-0.27
2021-08-19 15:50:45.440,-0.885,-0.29
2021-08-19 15:50:45.444,-0.875,-0.31
2021-08-19 15:50:45.448,-0.895,-0.335
2021-08-19 15:50:45.452,-0.885,-0.335
2021-08-19 15:50:45.456,-0.89,-0.35
2021-08-19 15:50:45.460,-0.915,-0.35
2021-08-19 15:50:45.464,-0.93,-0.365
2021-08-19 15:50:45.468,-0.925,-0.36
2021-08-19 15:50:45.472,-0.95,-0.355
2021-08-19 15:50:45.476,-0.925,-0.32
2021-08-19 15:50:45.480,-0.935,-0.32
2021-08-19 15:50:45.484,-0.935,-0.315
2021-08-19 15:50:45.488,-0.915,-0.36
2021-08-19 15:50:45.492,-0.92,-0.33
2021-08-19 15:50:45.496,-0.925,-0.375
2021-08-19 15:50:45.500,-0.95,-0.37
2021-08-19 15:50:45.504,-0.96,-0.345
2021-08-19 15:50:45.508,-0.935,-0.355
2021-08-19 15:50:45.512,-0.93,-0.335
2021-08-19 15:50:45.516,-0.925,-0.345
2021-08-19 15:50:45.520,-0.89,-0.34
2021-08-19 15:50:45.524,-0.8,-0.35
2021-08-19 15:50:45.528,-0.735,-0.355
2021-08-19 15:50:45.532,-0.68,-0.37
2021-08-19 15:50:45.536,-0.67,-0.31
2021-08-19 15:50:45.540,-0.67,-0.225
2021-08-19 15:50:45.544,-0.655,-0.055
2021-08-19 15:50:45.548,-0.515,0.165
2021-08-19 15:50:45.552,-0.39,0.46
2021-08-19 15:50:45.556,-0.475,0.625
2021-08-19 15:50:45.560,-0.72,0.59
2021-08-19 15:50:45.564,-1.015,0.365
2021-08-19 15:50:45.568,-1.34,0.115
2021-08-19 15:50:45.572,-1.59,-0.09
2021-08-19 15:50:45.576,-1.785,-0.165
2021-08-19 15:50:45.580,-1.98,-0.11
2021-08-19 15:50:45.584,-1.92,-0.05
2021-08-19 15:50:45.588,-1.71,-0.1
2021-08-19 15:50:45.592,-1.54,-0.2
2021-08-19 15:50:45.596,-1.325,-0.245
2021-08-19 15:50:45.600,-1.145,-0.29
2021-08-19 15:50:45.604,-1.075,-0.275
2021-08-19 15:50:45.608,-1.01,-0.29
2021-08-19 15:50:45.612,-0.975,-0.315
2021-08-19 15:50:45.616,-0.955,-0.34
2021-08-19 15:50:45.620,-0.965,-0.325
2021-08-19 15:50:45.624,-0.935,-0.335
2021-08-19 15:50:45.628,-0.925,-0.34
2021-08-19 15:50:45.632,-0.905,-0.32
2021-08-19 15:50:45.636,-0.89,-0.325
2021-08-19 15:50:45.640,-0.835,-0.31
2021-08-19 15:50:45.644,-0.805,-0.325
2021-08-19 15:50:45.648,-0.83,-0.35
2021-08-19 15:50:45.652,-0.845,-0.315
2021-08-19 15:50:45.656,-0.87,-0.32
2021-08-19 15:50:45.660,-0.89,-0.34
2021-08-19 15:50:45.664,-0.89,-0.325
2021-08-19 15:50:45.668,-0.905,-0.305
2021-08-19 15:50:45.672,-0.89,-0.33
2021-08-19 15:50:45.676,-0.855,-0.315
2021-08-19 15:50:45.680,-0.81,-0.3
2021-08-19 15:50:45.684,-0.81,-0.3
2021-08-19 15:50:45.688,-0.81,-0.315
2021-08-19 15:50:45.692,-0.825,-0.31
2021-08-19 15:50:45.696,-0.825,-0.335
2021-08-19 15:50:45.700,-0.82,-0.32
2021-08-19 15:50:45.704,-0.81,-0.305
2021-08-19 15:50:45.708,-0.835,-0.29
2021-08-19 15:50:45.712,-0.825,-0.295
2021-08-19 15:50:45.716,-0.78,-0.31
2021-08-19 15:50:45.720,-0.785,-0.275
2021-08-19 15:50:45.724,-0.765,-0.28
2021-08-19 15:50:45.728,-0.785,-0.295
2021-08-19 15:50:45.732,-0.775,-0.315
2021-08-19 15:50:45.736,-0.8,-0.295
2021-08-19 15:50:45.740,-0.81,-0.26
2021-08-19 15:50:45.744,-0.81,-0.23
2021-08-19 15:50:45.748,-0.77,-0.215
2021-08-19 15:50:45.752,-0.765,-0.215
2021-08-19 15:50:45.756,-0.78,-0.205
2021-08-19 15:50:45.760,-0.775,-0.21
2021-08-19 15:50:45.764,-0.74,-0.215
2021-08-19 15:50:45.768,-0.735,-0.19
2021-08-19 15:50:45.772,-0.71,-0.205
2021-08-19 15:50:45.776,-0.715,-0.17
2021-08-19 15:50:45.780,-0.75,-0.16
2021-08-19 15:50:45.784,-0.73,-0.14
2021-08-19 15:50:45.788,-0.695,-0.095
2021-08-19 15:50:45.792,-0.68,-0.055
2021-08-19 15:50:45.796,-0.64,-0.065
2021-08-19 15:50:45.800,-0.63,-0.015
2021-08-19 15:50:45.804,-0.625,0.015
2021-08-19 15:50:45.808,-0.605,0.035
2021-08-19 15:50:45.812,-0.595,0.025
2021-08-19 15:50:45.816,-0.615,0.05
2021-08-19 15:50:45.820,-0.64,0.05
2021-08-19 15:50:45.824,-0.675,0.03
2021-08-19 15:50:45.828,-0.665,0.075
2021-08-19 15:50:45.832,-0.69,0.08
2021-08-19 15:50:45.836,-0.65,0.06
2021-08-19 15:50:45.840,-0.65,0.055
2021-08-19 15:50:45.844,-0.685,0.005
2021-08-19 15:50:45.848,-0.715,-0.035
2021-08-19 15:50:45.852,-0.695,-0.07
2021-08-19 15:50:45.856,-0.69,-0.1
2021-08-19 15:50:45.860,-0.73,-0.115
2021-08-19 15:50:45.864,-0.755,-0.125
2021-08-19 15:50:45.868,-0.75,-0.125
2021-08-19 15:50:45.872,-0.755,-0.14
2021-08-19 15:50:45.876,-0.755,-0.145
2021-08-19 15:50:45.880,-0.765,-0.15
2021-08-19 15:50:45.884,-0.765,-0.14
2021-08-19 15:50:45.888,-0.785,-0.17
2021-08-19 15:50:45.892,-0.795,-0.215
2021-08-19 15:50:45.896,-0.805,-0.24
2021-08-19 15:50:45.900,-0.785,-0.225
2021-08-19 15:50:45.904,-0.795,-0.175
2021-08-19 15:50:45.908,-0.785,-0.215
2021-08-19 15:50:45.912,-0.785,-0.24
2021-08-19 15:50:45.916,-0.775,-0.26
2021-08-19 15:50:45.920,-0.785,-0.26
2021-08-19 15:50:45.924,-0.77,-0.27
2021-08-19 15:50:45.928,-0.785,-0.255
2021-08-19 15:50:45.932,-0.795,-0.26
2021-08-19 15:50:45.936,-0.805,-0.255
2021-08-19 15:50:45.940,-0.82,-0.235
2021-08-19 15:50:45.944,-0.8,-0.24
2021-08-19 15:50:45.948,-0.79,-0.24
2021-08-19 15:50:45.952,-0.765,-0.225
2021-08-19 15:50:45.956,-0.785,-0.235
2021-08-19 15:50:45.960,-0.81,-0.235
2021-08-19 15:50:45.964,-0.79,-0.235
2021-08-19 15:50:45.968,-0.8,-0.215
2021-08-19 15:50:45.972,-0.815,-0.23
2021-08-19 15:50:45.976,-0.78,-0.195
2021-08-19 15:50:45.980,-0.795,-0.21
2021-08-19 15:50:45.984,-0.795,-0.195
2021-08-19 15:50:45.988,-0.77,-0.19
2021-08-19 15:50:45.992,-0.74,-0.205
2021-08-19 15:50:45.996,-0.765,-0.2
2021-08-19 15:50:46.000,-0.745,-0.23
2021-08-19 15:50:46.004,-0.745,-0.205
2021-08-19 15:50:46.008,-0.735,-0.155
2021-08-19 15:50:46.012,-0.755,-0.17
2021-08-19 15:50:46.016,-0.755,-0.175
2021-08-19 15:50:46.020,-0.76,-0.17
2021-08-19 15:50:46.024,-0.745,-0.175
2021-08-19 15:50:46.028,-0.745,-0.15
2021-08-19 15:50:46.032,-0.73,-0.175
2021-08-19 15:50:46.036,-0.72,-0.19
2021-08-19 15:50:46.040,-0.705,-0.18
2021-08-19 15:50:46.044,-0.72,-0.21
2021-08-19 15:50:46.048,-0.71,-0.205
2021-08-19 15:50:46.052,-0.73,-0.175
2021-08-19 15:50:46.056,-0.715,-0.195
2021-08-19 15:50:46.060,-0.685,-0.19
2021-08-19 15:50:46.064,-0.685,-0.175
2021-08-19 15:50:46.068,-0.63,-0.185
2021-08-19 15:50:46.072,-0.585,-0.155
2021-08-19 15:50:46.076,-0.505,-0.13
2021-08-19 15:50:46.080,-0.415,0.0
2021-08-19 15:50:46.084,-0.3,0.225
2021-08-19 15:50:46.088,-0.195,0.515
2021-08-19 15:50:46.092,-0.18,0.735
2021-08-19 15:50:46.096,-0.43,0.77
2021-08-19 15:50:46.100,-0.855,0.575
2021-08-19 15:50:46.104,-1.21,0.325
2021-08-19 15:50:46.108,-1.55,0.14
2021-08-19 15:50:46.112,-1.75,0.12
2021-08-19 15:50:46.116,-1.85,0.175
2021-08-19 15:50:46.120,-1.665,0.16
2021-08-19 15:50:46.124,-1.36,0.09
2021-08-19 15:50:46.128,-1.135,0.005
2021-08-19 15:50:46.132,-0.98,-0.075
2021-08-19 15:50:46.136,-0.845,-0.115
2021-08-19 15:50:46.140,-0.78,-0.13
2021-08-19 15:50:46.144,-0.695,-0.175
2021-08-19 15:50:46.148,-0.685,-0.21
2021-08-19 15:50:46.152,-0.675,-0.235
2021-08-19 15:50:46.156,-0.67,-0.265
2021-08-19 15:50:46.160,-0.655,-0.26
2021-08-19 15:50:46.164,-0.65,-0.28
2021-08-19 15:50:46.168,-0.67,-0.26
2021-08-19 15:50:46.172,-0.66,-0.255
2021-08-19 15:50:46.176,-0.655,-0.265
2021-08-19 15:50:46.180,-0.64,-0.26
2021-08-19 15:50:46.184,-0.63,-0.25
2021-08-19 15:50:46.188,-0.625,-0.25
2021-08-19 15:50:46.192,-0.6,-0.245
2021-08-19 15:50:46.196,-0.585,-0.26
2021-08-19 15:50:46.200,-0.615,-0.29
2021-08-19 15:50:46.204,-0.62,-0.275
2021-08-19 15:50:46.208,-0.63,-0.26
2021-08-19 15:50:46.212,-0.6,-0.255
2021-08-19 15:50:46.216,-0.61,-0.24
2021-08-19 15:50:46.220,-0.61,-0.26
2021-08-19 15:50:46.224,-0.595,-0.255
2021-08-19 15:50:46.228,-0.585,-0.26
2021-08-19 15:50:46.232,-0.575,-0.27
2021-08-19 15:50:46.236,-0.58,-0.27
2021-08-19 15:50:46.240,-0.595,-0.275
2021-08-19 15:50:46.244,-0.61,-0.255
2021-08-19 15:50:46.248,-0.595,-0.28
2021-08-19 15:50:46.252,-0.59,-0.265
2021-08-19 15:50:46.256,-0.595,-0.25
2021-08-19 15:50:46.260,-0.555,-0.245
2021-08-19 15:50:46.264,-0.555,-0.25
2021-08-19 15:50:46.268,-0.515,-0.275
2021-08-19 15:50:46.272,-0.55,-0.265
2021-08-19 15:50:46.276,-0.565,-0.28
2021-08-19 15:50:46.280,-0.565,-0.275
2021-08-19 15:50:46.284,-0.565,-0.24
2021-08-19 15:50:46.288,-0.585,-0.245
2021-08-19 15:50:46.292,-0.57,-0.255
2021-08-19 15:50:46.296,-0.585,-0.255
2021-08-19 15:50:46.300,-0.585,-0.23
2021-08-19 15:50:46.304,-0.54,-0.245
2021-08-19 15:50:46.308,-0.54,-0.24
2021-08-19 15:50:46.312,-0.53,-0.235
2021-08-19 15:50:46.316,-0.56,-0.235
2021-08-19 15:50:46.320,-0.565,-0.21
2021-08-19 15:50:46.324,-0.575,-0.215
2021-08-19 15:50:46.328,-0.565,-0.23
2021-08-19 15:50:46.332,-0.555,-0.19
2021-08-19 15:50:46.336,-0.56,-0.18
2021-08-19 15:50:46.340,-0.565,-0.15
2021-08-19 15:50:46.344,-0.545,-0.18
2021-08-19 15:50:46.348,-0.54,-0.175
2021-08-19 15:50:46.352,-0.525,-0.125
2021-08-19 15:50:46.356,-0.545,-0.13
2021-08-19 15:50:46.360,-0.58,-0.135
2021-08-19 15:50:46.364,-0.565,-0.135
2021-08-19 15:50:46.368,-0.535,-0.145
2021-08-19 15:50:46.372,-0.525,-0.155
2021-08-19 15:50:46.376,-0.495,-0.145
2021-08-19 15:50:46.380,-0.5,-0.155
2021-08-19 15:50:46.384,-0.47,-0.15
2021-08-19 15:50:46.388,-0.455,-0.165
2021-08-19 15:50:46.392,-0.475,-0.15
2021-08-19 15:50:46.396,-0.48,-0.155
2021-08-19 15:50:46.400,-0.48,-0.185
2021-08-19 15:50:46.404,-0.465,-0.19
2021-08-19 15:50:46.408,-0.45,-0.175
2021-08-19 15:50:46.412,-0.45,-0.18
2021-08-19 15:50:46.416,-0.44,-0.195
2021-08-19 15:50:46.420,-0.475,-0.165
2021-08-19 15:50:46.424,-0.43,-0.13
2021-08-19 15:50:46.428,-0.44,-0.08
2021-08-19 15:50:46.432,-0.46,-0.12
2021-08-19 15:50:46.436,-0.445,-0.125
2021-08-19 15:50:46.440,-0.47,-0.165
2021-08-19 15:50:46.444,-0.46,-0.245
2021-08-19 15:50:46.448,-0.445,-0.32
2021-08-19 15:50:46.452,-0.445,-0.295
2021-08-19 15:50:46.456,-0.39,-0.265
2021-08-19 15:50:46.460,-0.385,-0.23
2021-08-19 15:50:46.464,-0.395,-0.225
2021-08-19 15:50:46.468,-0.4,-0.235
2021-08-19 15:50:46.472,-0.39,-0.22
2021-08-19 15:50:46.476,-0.38,-0.215
2021-08-19 15:50:46.480,-0.4,-0.23
2021-08-19 15:50:46.484,-0.405,-0.21
2021-08-19 15:50:46.488,-0.4,-0.195
2021-08-19 15:50:46.492,-0.405,-0.205
2021-08-19 15:50:46.496,-0.37,-0.22
2021-08-19 15:50:46.500,-0.35,-0.225
2021-08-19 15:50:46.504,-0.34,-0.205
2021-08-19 15:50:46.508,-0.355,-0.21
2021-08-19 15:50:46.512,-0.365,-0.215
2021-08-19 15:50:46.516,-0.345,-0.215
2021-08-19 15:50:46.520,-0.38,-0.21
2021-08-19 15:50:46.524,-0.38,-0.19
2021-08-19 15:50:46.528,-0.39,-0.185
2021-08-19 15:50:46.532,-0.375,-0.17
2021-08-19 15:50:46.536,-0.36,-0.185
2021-08-19 15:50:46.540,-0.35,-0.185
2021-08-19 15:50:46.544,-0.345,-0.235
2021-08-19 15:50:46.548,-0.335,-0.225
2021-08-19 15:50:46.552,-0.35,-0.205
2021-08-19 15:50:46.556,-0.38,-0.195
2021-08-19 15:50:46.560,-0.385,-0.195
2021-08-19 15:50:46.564,-0.365,-0.205
2021-08-19 15:50:46.568,-0.39,-0.175
2021-08-19 15:50:46.572,-0.365,-0.18
2021-08-19 15:50:46.576,-0.39,-0.205
2021-08-19 15:50:46.580,-0.37,-0.2
2021-08-19 15:50:46.584,-0.365,-0.21
2021-08-19 15:50:46.588,-0.36,-0.195
2021-08-19 15:50:46.592,-0.39,-0.165
2021-08-19 15:50:46.596,-0.395,-0.21
2021-08-19 15:50:46.600,-0.39,-0.22
2021-08-19 15:50:46.604,-0.39,-0.16
2021-08-19 15:50:46.608,-0.395,-0.125
2021-08-19 15:50:46.612,-0.38,-0.105
2021-08-19 15:50:46.616,-0.355,-0.145
2021-08-19 15:50:46.620,-0.365,-0.18
2021-08-19 15:50:46.624,-0.35,-0.19
2021-08-19 15:50:46.628,-0.385,-0.265
2021-08-19 15:50:46.632,-0.395,-0.24
2021-08-19 15:50:46.636,-0.375,-0.165
2021-08-19 15:50:46.640,-0.375,-0.18
2021-08-19 15:50:46.644,-0.345,-0.22
2021-08-19 15:50:46.648,-0.37,-0.24
2021-08-19 15:50:46.652,-0.345,-0.235
2021-08-19 15:50:46.656,-0.315,-0.25
2021-08-19 15:50:46.660,-0.3,-0.205
2021-08-19 15:50:46.664,-0.295,-0.205
2021-08-19 15:50:46.668,-0.32,-0.2
2021-08-19 15:50:46.672,-0.325,-0.21
2021-08-19 15:50:46.676,-0.37,-0.215
2021-08-19 15:50:46.680,-0.32,-0.24
2021-08-19 15:50:46.684,-0.335,-0.21
2021-08-19 15:50:46.688,-0.31,-0.22
2021-08-19 15:50:46.692,-0.305,-0.19
2021-08-19 15:50:46.696,-0.3,-0.195
2021-08-19 15:50:46.700,-0.295,-0.195
2021-08-19 15:50:46.704,-0.315,-0.21
2021-08-19 15:50:46.708,-0.31,-0.215
2021-08-19 15:50:46.712,-0.32,-0.2
2021-08-19 15:50:46.716,-0.32,-0.205
2021-08-19 15:50:46.720,-0.325,-0.185
2021-08-19 15:50:46.724,-0.29,-0.175
2021-08-19 15:50:46.728,-0.275,-0.17
2021-08-19 15:50:46.732,-0.27,-0.18
2021-08-19 15:50:46.736,-0.275,-0.205
2021-08-19 15:50:46.740,-0.285,-0.2
2021-08-19 15:50:46.744,-0.315,-0.175
2021-08-19 15:50:46.748,-0.29,-0.195
2021-08-19 15:50:46.752,-0.285,-0.205
2021-08-19 15:50:46.756,-0.27,-0.2
2021-08-19 15:50:46.760,-0.275,-0.18
2021-08-19 15:50:46.764,-0.265,-0.145
2021-08-19 15:50:46.768,-0.26,-0.135
2021-08-19 15:50:46.772,-0.27,-0.14
2021-08-19 15:50:46.776,-0.24,-0.185
2021-08-19 15:50:46.780,-0.265,-0.195
2021-08-19 15:50:46.784,-0.275,-0.175
2021-08-19 15:50:46.788,-0.305,-0.165
2021-08-19 15:50:46.792,-0.3,-0.155
2021-08-19 15:50:46.796,-0.27,-0.15
2021-08-19 15:50:46.800,-0.245,-0.18
2021-08-19 15:50:46.804,-0.245,-0.155
2021-08-19 15:50:46.808,-0.22,-0.12
2021-08-19 15:50:46.812,-0.235,-0.15
2021-08-19 15:50:46.816,-0.21,-0.175
2021-08-19 15:50:46.820,-0.245,-0.18
2021-08-19 15:50:46.824,-0.235,-0.18
2021-08-19 15:50:46.828,-0.235,-0.16
2021-08-19 15:50:46.832,-0.225,-0.15
2021-08-19 15:50:46.836,-0.215,-0.125
2021-08-19 15:50:46.840,-0.21,-0.12
2021-08-19 15:50:46.844,-0.2,-0.13
2021-08-19 15:50:46.848,-0.185,-0.105
2021-08-19 15:50:46.852,-0.18,-0.105
2021-08-19 15:50:46.856,-0.22,-0.11
2021-08-19 15:50:46.860,-0.23,-0.115
2021-08-19 15:50:46.864,-0.215,-0.055
2021-08-19 15:50:46.868,-0.22,-0.105
2021-08-19 15:50:46.872,-0.22,-0.15
2021-08-19 15:50:46.876,-0.215,-0.09
2021-08-19 15:50:46.880,-0.19,-0.035
2021-08-19 15:50:46.884,-0.195,-0.03
2021-08-19 15:50:46.888,-0.215,-0.03
2021-08-19 15:50:46.892,-0.21,-0.1
2021-08-19 15:50:46.896,-0.235,-0.11
2021-08-19 15:50:46.900,-0.225,-0.065
2021-08-19 15:50:46.904,-0.22,-0.125
2021-08-19 15:50:46.908,-0.21,-0.18
2021-08-19 15:50:46.912,-0.215,-0.2
2021-08-19 15:50:46.916,-0.17,-0.185
2021-08-19 15:50:46.920,-0.18,-0.165
2021-08-19 15:50:46.924,-0.175,-0.1
2021-08-19 15:50:46.928,-0.18,-0.09
2021-08-19 15:50:46.932,-0.17,-0.135
2021-08-19 15:50:46.936,-0.18,-0.155
2021-08-19 15:50:46.940,-0.19,-0.19
2021-08-19 15:50:46.944,-0.17,-0.225
2021-08-19 15:50:46.948,-0.18,-0.19
2021-08-19 15:50:46.952,-0.2,-0.16
2021-08-19 15:50:46.956,-0.17,-0.135
2021-08-19 15:50:46.960,-0.15,-0.135
2021-08-19 15:50:46.964,-0.155,-0.125
2021-08-19 15:50:46.968,-0.145,-0.145
2021-08-19 15:50:46.972,-0.17,-0.175
2021-08-19 15:50:46.976,-0.16,-0.155
2021-08-19 15:50:46.980,-0.17,-0.12
2021-08-19 15:50:46.984,-0.14,-0.14
2021-08-19 15:50:46.988,-0.14,-0.125
2021-08-19 15:50:46.992,-0.145,-0.125
2021-08-19 15:50:46.996,-0.1,-0.125
2021-08-19 15:50:47.000,-0.13,-0.135
2021-08-19 15:50:47.004,-0.11,-0.135
2021-08-19 15:50:47.008,-0.13,-0.13
2021-08-19 15:50:47.012,-0.125,-0.135
2021-08-19 15:50:47.016,-0.125,-0.125
2021-08-19 15:50:47.020,-0.14,-0.135
2021-08-19 15:50:47.024,-0.135,-0.12
2021-08-19 15:50:47.028,-0.13,-0.115
2021-08-19 15:50:47.032,-0.125,-0.075
2021-08-19 15:50:47.036,-0.12,-0.095
2021-08-19 15:50:47.040,-0.135,-0.11
2021-08-19 15:50:47.044,-0.11,-0.08
2021-08-19 15:50:47.048,-0.14,-0.095
2021-08-19 15:50:47.052,-0.125,-0.055
2021-08-19 15:50:47.056,-0.12,-0.03
2021-08-19 15:50:47.060,-0.11,-0.02
2021-08-19 15:50:47.064,-0.075,-0.02
2021-08-19 15:50:47.068,-0.06,-0.02
2021-08-19 15:50:47.072,-0.055,0.02
2021-08-19 15:50:47.076,-0.01,-0.005
2021-08-19 15:50:47.080,-0.02,0.02
2021-08-19 15:50:47.084,-0.04,0.045
2021-08-19 15:50:47.088,-0.01,0.075
2021-08-19 15:50:47.092,-0.025,0.11
2021-08-19 15:50:47.096,-0.04,0.115
2021-08-19 15:50:47.100,-0.065,0.105
2021-08-19 15:50:47.104,-0.05,0.095
2021-08-19 15:50:47.108,-0.04,0.09
2021-08-19 15:50:47.112,-0.03,0.045
2021-08-19 15:50:47.116,-0.03,0.03
2021-08-19 15:50:47.120,-0.06,0.015
2021-08-19 15:50:47.124,-0.08,0.015
2021-08-19 15:50:47.128,-0.145,0.04
2021-08-19 15:50:47.132,-0.125,0.025
2021-08-19 15:50:47.136,-0.13,0.005
2021-08-19 15:50:47.140,-0.115,-0.04
2021-08-19 15:50:47.144,-0.13,-0.005
2021-08-19 15:50:47.148,-0.14,-0.075
2021-08-19 15:50:47.152,-0.135,-0.115
2021-08-19 15:50:47.156,-0.115,-0.13
2021-08-19 15:50:47.160,-0.11,-0.195
2021-08-19 15:50:47.164,-0.15,-0.255
2021-08-19 15:50:47.168,-0.155,-0.24
2021-08-19 15:50:47.172,-0.13,-0.21
2021-08-19 15:50:47.176,-0.14,-0.195
2021-08-19 15:50:47.180,-0.155,-0.175
2021-08-19 15:50:47.184,-0.115,-0.1
2021-08-19 15:50:47.188,-0.1,-0.11
2021-08-19 15:50:47.192,-0.115,-0.155
2021-08-19 15:50:47.196,-0.12,-0.205
2021-08-19 15:50:47.200,-0.105,-0.185
2021-08-19 15:50:47.204,-0.125,-0.155
2021-08-19 15:50:47.208,-0.13,-0.12
2021-08-19 15:50:47.212,-0.105,-0.115
2021-08-19 15:50:47.216,-0.11,-0.16
2021-08-19 15:50:47.220,-0.05,-0.175
2021-08-19 15:50:47.224,0.065,-0.115
2021-08-19 15:50:47.228,0.175,0.005
2021-08-19 15:50:47.232,0.22,0.185
2021-08-19 15:50:47.236,0.35,0.435
2021-08-19 15:50:47.240,0.465,0.74
2021-08-19 15:50:47.244,0.335,0.9
2021-08-19 15:50:47.248,0.005,0.82
2021-08-19 15:50:47.252,-0.285,0.515
2021-08-19 15:50:47.256,-0.64,0.245
2021-08-19 15:50:47.260,-0.87,0.055
2021-08-19 15:50:47.264,-1.075,0.0
2021-08-19 15:50:47.268,-1.175,0.07
2021-08-19 15:50:47.272,-1.06,0.095
2021-08-19 15:50:47.276,-0.82,0.035
2021-08-19 15:50:47.280,-0.605,-0.03
2021-08-19 15:50:47.284,-0.44,-0.065
2021-08-19 15:50:47.288,-0.345,-0.075
2021-08-19 15:50:47.292,-0.245,-0.12
2021-08-19 15:50:47.296,-0.185,-0.12
2021-08-19 15:50:47.300,-0.145,-0.13
2021-08-19 15:50:47.304,-0.115,-0.14
2021-08-19 15:50:47.308,-0.08,-0.16
2021-08-19 15:50:47.312,-0.08,-0.145
2021-08-19 15:50:47.316,-0.06,-0.15
2021-08-19 15:50:47.320,-0.07,-0.14
2021-08-19 15:50:47.324,-0.07,-0.115
2021-08-19 15:50:47.328,-0.055,-0.155
2021-08-19 15:50:47.332,-0.045,-0.155
2021-08-19 15:50:47.336,-0.03,-0.135
2021-08-19 15:50:47.340,-0.025,-0.155
2021-08-19 15:50:47.344,-0.015,-0.155
2021-08-19 15:50:47.348,-0.01,-0.155
2021-08-19 15:50:47.352,-0.005,-0.165
2021-08-19 15:50:47.356,-0.015,-0.175
2021-08-19 15:50:47.360,-0.02,-0.145
2021-08-19 15:50:47.364,-0.035,-0.15
2021-08-19 15:50:47.368,-0.045,-0.16
2021-08-19 15:50:47.372,-0.025,-0.16
2021-08-19 15:50:47.376,0.0,-0.145
2021-08-19 15:50:47.380,0.025,-0.095
2021-08-19 15:50:47.384,0.02,-0.115
2021-08-19 15:50:47.388,0.025,-0.135
2021-08-19 15:50:47.392,0.015,-0.125
2021-08-19 15:50:47.396,0.015,-0.13
2021-08-19 15:50:47.400,-0.015,-0.115
2021-08-19 15:50:47.404,0.005,-0.215
2021-08-19 15:50:47.408,0.02,-0.185
2021-08-19 15:50:47.412,0.015,-0.105
2021-08-19 15:50:47.416,0.025,-0.05
2021-08-19 15:50:47.420,0.035,-0.055
2021-08-19 15:50:47.424,0.055,-0.16
2021-08-19 15:50:47.428,0.05,-0.2
2021-08-19 15:50:47.432,0.055,-0.12
2021-08-19 15:50:47.436,0.045,-0.13
2021-08-19 15:50:47.440,0.04,-0.2
2021-08-19 15:50:47.444,0.035,-0.195
2021-08-19 15:50:47.448,0.07,-0.175
2021-08-19 15:50:47.452,0.09,-0.16
2021-08-19 15:50:47.456,0.105,-0.12
2021-08-19 15:50:47.460,0.12,-0.1
2021-08-19 15:50:47.464,0.1,-0.095
2021-08-19 15:50:47.468,0.07,-0.09
2021-08-19 15:50:47.472,0.075,-0.105
2021-08-19 15:50:47.476,0.085,-0.11
2021-08-19 15:50:47.480,0.09,-0.09
2021-08-19 15:50:47.484,0.105,-0.06
2021-08-19 15:50:47.488,0.115,-0.04
2021-08-19 15:50:47.492,0.105,-0.055
2021-08-19 15:50:47.496,0.12,-0.04
2021-08-19 15:50:47.500,0.125,-0.04
2021-08-19 15:50:47.504,0.095,-0.055
2021-08-19 15:50:47.508,0.105,-0.065
2021-08-19 15:50:47.512,0.08,-0.04
2021-08-19 15:50:47.516,0.095,-0.05
2021-08-19 15:50:47.520,0.09,-0.025
2021-08-19 15:50:47.524,0.08,-0.005
2021-08-19 15:50:47.528,0.11,0.0
2021-08-19 15:50:47.532,0.125,0.0
2021-08-19 15:50:47.536,0.13,-0.02
2021-08-19 15:50:47.540,0.11,-0.015
2021-08-19 15:50:47.544,0.085,-0.015
2021-08-19 15:50:47.548,0.08,-0.015
2021-08-19 15:50:47.552,0.095,-0.025
2021-08-19 15:50:47.556,0.1,-0.025
2021-08-19 15:50:47.560,0.09,-0.015
2021-08-19 15:50:47.564,0.1,-0.01
2021-08-19 15:50:47.568,0.115,-0.005
2021-08-19 15:50:47.572,0.11,-0.005
2021-08-19 15:50:47.576,0.12,-0.06
2021-08-19 15:50:47.580,0.115,-0.06
2021-08-19 15:50:47.584,0.095,-0.065
2021-08-19 15:50:47.588,0.08,-0.05
2021-08-19 15:50:47.592,0.07,-0.075
2021-08-19 15:50:47.596,0.08,-0.03
2021-08-19 15:50:47.600,0.075,-0.065
2021-08-19 15:50:47.604,0.09,-0.075
2021-08-19 15:50:47.608,0.105,-0.075
2021-08-19 15:50:47.612,0.105,-0.065
2021-08-19 15:50:47.616,0.07,-0.08
2021-08-19 15:50:47.620,0.06,-0.11
2021-08-19 15:50:47.624,0.075,-0.105
2021-08-19 15:50:47.628,0.09,-0.06
2021-08-19 15:50:47.632,0.08,-0.04
2021-08-19 15:50:47.636,0.07,-0.03
2021-08-19 15:50:47.640,0.1,-0.06
2021-08-19 15:50:47.644,0.08,-0.085
2021-08-19 15:50:47.648,0.12,-0.125
2021-08-19 15:50:47.652,0.12,-0.105
2021-08-19 15:50:47.656,0.09,-0.11
2021-08-19 15:50:47.660,0.105,-0.08
2021-08-19 15:50:47.664,0.105,-0.11
2021-08-19 15:50:47.668,0.1,-0.08
2021-08-19 15:50:47.672,0.11,-0.05
2021-08-19 15:50:47.676,0.14,-0.005
2021-08-19 15:50:47.680,0.145,-0.005
2021-08-19 15:50:47.684,0.12,-0.025
2021-08-19 15:50:47.688,0.13,0.02
2021-08-19 15:50:47.692,0.135,0.015
2021-08-19 15:50:47.696,0.125,-0.04
2021-08-19 15:50:47.700,0.105,-0.02
2021-08-19 15:50:47.704,0.12,0.0
2021-08-19 15:50:47.708,0.125,-0.04
2021-08-19 15:50:47.712,0.12,-0.15
2021-08-19 15:50:47.716,0.155,-0.2
2021-08-19 15:50:47.720,0.19,-0.17
2021-08-19 15:50:47.724,0.185,-0.135
2021-08-19 15:50:47.728,0.165,-0.155
2021-08-19 15:50:47.732,0.16,-0.14
2021-08-19 15:50:47.736,0.15,-0.13
2021-08-19 15:50:47.740,0.155,-0.13
2021-08-19 15:50:47.744,0.15,-0.125
2021-08-19 15:50:47.748,0.165,-0.12
2021-08-19 15:50:47.752,0.155,-0.1
2021-08-19 15:50:47.756,0.17,-0.12
2021-08-19 15:50:47.760,0.18,-0.135
2021-08-19 15:50:47.764,0.18,-0.15
2021-08-19 15:50:47.768,0.175,-0.135
2021-08-19 15:50:47.772,0.175,-0.12
2021-08-19 15:50:47.776,0.17,-0.13
2021-08-19 15:50:47.780,0.165,-0.115
2021-08-19 15:50:47.784,0.17,-0.08
2021-08-19 15:50:47.788,0.19,-0.09
2021-08-19 15:50:47.792,0.17,-0.11
2021-08-19 15:50:47.796,0.175,-0.14
2021-08-19 15:50:47.800,0.19,-0.13
2021-08-19 15:50:47.804,0.19,-0.11
2021-08-19 15:50:47.808,0.19,-0.1
2021-08-19 15:50:47.812,0.185,-0.135
2021-08-19 15:50:47.816,0.185,-0.14
2021-08-19 15:50:47.820,0.165,-0.14
2021-08-19 15:50:47.824,0.165,-0.115
2021-08-19 15:50:47.828,0.185,-0.09
2021-08-19 15:50:47.832,0.18,-0.12
2021-08-19 15:50:47.836,0.175,-0.115
2021-08-19 15:50:47.840,0.17,-0.125
2021-08-19 15:50:47.844,0.18,-0.115
2021-08-19 15:50:47.848,0.165,-0.135
2021-08-19 15:50:47.852,0.165,-0.15
2021-08-19 15:50:47.856,0.18,-0.11
2021-08-19 15:50:47.860,0.15,-0.1
2021-08-19 15:50:47.864,0.15,-0.08
2021-08-19 15:50:47.868,0.19,-0.105
2021-08-19 15:50:47.872,0.18,-0.125
2021-08-19 15:50:47.876,0.18,-0.105
2021-08-19 15:50:47.880,0.15,-0.145
2021-08-19 15:50:47.884,0.14,-0.105
2021-08-19 15:50:47.888,0.15,-0.12
2021-08-19 15:50:47.892,0.15,-0.11
2021-08-19 15:50:47.896,0.13,-0.095
2021-08-19 15:50:47.900,0.14,-0.095
2021-08-19 15:50:47.904,0.17,-0.085
2021-08-19 15:50:47.908,0.15,-0.07
2021-08-19 15:50:47.912,0.15,-0.06
2021-08-19 15:50:47.916,0.145,-0.08
2021-08-19 15:50:47.920,0.15,-0.1
2021-08-19 15:50:47.924,0.14,-0.135
2021-08-19 15:50:47.928,0.15,-0.1
2021-08-19 15:50:47.932,0.16,-0.05
2021-08-19 15:50:47.936,0.14,-0.07
2021-08-19 15:50:47.940,0.15,-0.12
2021-08-19 15:50:47.944,0.15,-0.2
2021-08-19 15:50:47.948,0.195,-0.175
2021-08-19 15:50:47.952,0.185,-0.16
2021-08-19 15:50:47.956,0.19,-0.135
2021-08-19 15:50:47.960,0.18,-0.12
2021-08-19 15:50:47.964,0.165,-0.12
2021-08-19 15:50:47.968,0.155,-0.12
2021-08-19 15:50:47.972,0.175,-0.1
2021-08-19 15:50:47.976,0.17,-0.105
2021-08-19 15:50:47.980,0.21,-0.115
2021-08-19 15:50:47.984,0.2,-0.13
2021-08-19 15:50:47.988,0.22,-0.13
2021-08-19 15:50:47.992,0.205,-0.14
2021-08-19 15:50:47.996,0.205,-0.145
2021-08-19 15:50:48.000,0.165,-0.13
2021-08-19 15:50:48.004,0.175,-0.125
2021-08-19 15:50:48.008,0.185,-0.12
2021-08-19 15:50:48.012,0.2,-0.125
2021-08-19 15:50:48.016,0.205,-0.105
2021-08-19 15:50:48.020,0.22,-0.1
2021-08-19 15:50:48.024,0.23,-0.1
2021-08-19 15:50:48.028,0.195,-0.12
2021-08-19 15:50:48.032,0.19,-0.095
2021-08-19 15:50:48.036,0.2,-0.1
2021-08-19 15:50:48.040,0.215,-0.065
2021-08-19 15:50:48.044,0.23,-0.08
2021-08-19 15:50:48.048,0.265,-0.08
2021-08-19 15:50:48.052,0.26,-0.04
2021-08-19 15:50:48.056,0.31,-0.04
2021-08-19 15:50:48.060,0.345,-0.04
2021-08-19 15:50:48.064,0.325,-0.015
2021-08-19 15:50:48.068,0.33,-0.005
2021-08-19 15:50:48.072,0.305,0.03
2021-08-19 15:50:48.076,0.315,0.04
2021-08-19 15:50:48.080,0.3,0.06
2021-08-19 15:50:48.084,0.295,0.045
2021-08-19 15:50:48.088,0.31,0.03
2021-08-19 15:50:48.092,0.305,0.01
2021-08-19 15:50:48.096,0.315,-0.03
2021-08-19 15:50:48.100,0.28,-0.045
2021-08-19 15:50:48.104,0.245,-0.065
2021-08-19 15:50:48.108,0.23,-0.08
2021-08-19 15:50:48.112,0.215,-0.08
2021-08-19 15:50:48.116,0.225,-0.12
2021-08-19 15:50:48.120,0.235,-0.12
2021-08-19 15:50:48.124,0.27,-0.15
2021-08-19 15:50:48.128,0.25,-0.13
2021-08-19 15:50:48.132,0.22,-0.14
2021-08-19 15:50:48.136,0.23,-0.145
2021-08-19 15:50:48.140,0.215,-0.13
2021-08-19 15:50:48.144,0.22,-0.175
2021-08-19 15:50:48.148,0.19,-0.24
2021-08-19 15:50:48.152,0.21,-0.24
2021-08-19 15:50:48.156,0.21,-0.2
2021-08-19 15:50:48.160,0.215,-0.195
2021-08-19 15:50:48.164,0.22,-0.195
2021-08-19 15:50:48.168,0.24,-0.19
2021-08-19 15:50:48.172,0.255,-0.18
2021-08-19 15:50:48.176,0.24,-0.165
2021-08-19 15:50:48.180,0.22,-0.2
2021-08-19 15:50:48.184,0.215,-0.18
2021-08-19 15:50:48.188,0.22,-0.185
2021-08-19 15:50:48.192,0.225,-0.185
2021-08-19 15:50:48.196,0.27,-0.185
2021-08-19 15:50:48.200,0.295,-0.19
2021-08-19 15:50:48.204,0.435,-0.16
2021-08-19 15:50:48.208,0.51,-0.04
2021-08-19 15:50:48.212,0.59,0.16
2021-08-19 15:50:48.216,0.73,0.425
2021-08-19 15:50:48.220,0.815,0.705
2021-08-19 15:50:48.224,0.645,0.79
2021-08-19 15:50:48.228,0.275,0.625
2021-08-19 15:50:48.232,-0.12,0.365
2021-08-19 15:50:48.236,-0.46,0.09
2021-08-19 15:50:48.240,-0.68,-0.045
2021-08-19 15:50:48.244,-0.885,-0.04
2021-08-19 15:50:48.248,-0.87,0.03
2021-08-19 15:50:48.252,-0.6,0.015
2021-08-19 15:50:48.256,-0.34,-0.045
2021-08-19 15:50:48.260,-0.18,-0.11
2021-08-19 15:50:48.264,-0.025,-0.115
2021-08-19 15:50:48.268,0.09,-0.14
2021-08-19 15:50:48.272,0.14,-0.165
2021-08-19 15:50:48.276,0.2,-0.18
2021-08-19 15:50:48.280,0.22,-0.21
2021-08-19 15:50:48.284,0.22,-0.19
2021-08-19 15:50:48.288,0.25,-0.195
2021-08-19 15:50:48.292,0.26,-0.21
2021-08-19 15:50:48.296,0.245,-0.24
2021-08-19 15:50:48.300,0.26,-0.22
2021-08-19 15:50:48.304,0.245,-0.21
2021-08-19 15:50:48.308,0.265,-0.19
2021-08-19 15:50:48.312,0.285,-0.165
2021-08-19 15:50:48.316,0.31,-0.185
2021-08-19 15:50:48.320,0.31,-0.215
2021-08-19 15:50:48.324,0.3,-0.21
2021-08-19 15:50:48.328,0.295,-0.23
2021-08-19 15:50:48.332,0.3,-0.235
2021-08-19 15:50:48.336,0.295,-0.24
2021-08-19 15:50:48.340,0.275,-0.2
2021-08-19 15:50:48.344,0.31,-0.225
2021-08-19 15:50:48.348,0.32,-0.19
2021-08-19 15:50:48.352,0.305,-0.16
2021-08-19 15:50:48.356,0.325,-0.175
2021-08-19 15:50:48.360,0.315,-0.185
2021-08-19 15:50:48.364,0.275,-0.19
2021-08-19 15:50:48.368,0.305,-0.195
2021-08-19 15:50:48.372,0.29,-0.205
2021-08-19 15:50:48.376,0.28,-0.185
2021-08-19 15:50:48.380,0.305,-0.16
2021-08-19 15:50:48.384,0.305,-0.16
2021-08-19 15:50:48.388,0.32,-0.155
2021-08-19 15:50:48.392,0.33,-0.11
2021-08-19 15:50:48.396,0.34,-0.095
2021-08-19 15:50:48.400,0.35,-0.13
2021-08-19 15:50:48.404,0.31,-0.155
2021-08-19 15:50:48.408,0.335,-0.18
2021-08-19 15:50:48.412,0.315,-0.2
2021-08-19 15:50:48.416,0.34,-0.17
2021-08-19 15:50:48.420,0.34,-0.15
2021-08-19 15:50:48.424,0.345,-0.105
2021-08-19 15:50:48.428,0.38,-0.1
2021-08-19 15:50:48.432,0.375,-0.095
2021-08-19 15:50:48.436,0.35,-0.105
2021-08-19 15:50:48.440,0.35,-0.1
2021-08-19 15:50:48.444,0.34,-0.08
2021-08-19 15:50:48.448,0.33,-0.06
2021-08-19 15:50:48.452,0.32,-0.045
2021-08-19 15:50:48.456,0.345,-0.025
2021-08-19 15:50:48.460,0.335,-0.025
2021-08-19 15:50:48.464,0.355,-0.03
2021-08-19 15:50:48.468,0.38,-0.01
2021-08-19 15:50:48.472,0.375,-0.02
2021-08-19 15:50:48.476,0.35,-0.03
2021-08-19 15:50:48.480,0.35,-0.02
2021-08-19 15:50:48.484,0.34,-0.005
2021-08-19 15:50:48.488,0.345,0.0
2021-08-19 15:50:48.492,0.325,0.01
2021-08-19 15:50:48.496,0.335,-0.01
2021-08-19 15:50:48.500,0.325,-0.005
2021-08-19 15:50:48.504,0.345,-0.015
2021-08-19 15:50:48.508,0.35,-0.025
2021-08-19 15:50:48.512,0.37,-0.07
2021-08-19 15:50:48.516,0.36,-0.07
2021-08-19 15:50:48.520,0.325,-0.04
2021-08-19 15:50:48.524,0.315,-0.07
2021-08-19 15:50:48.528,0.325,-0.08
2021-08-19 15:50:48.532,0.295,-0.06
2021-08-19 15:50:48.536,0.33,-0.1
2021-08-19 15:50:48.540,0.355,-0.09
2021-08-19 15:50:48.544,0.345,-0.115
2021-08-19 15:50:48.548,0.34,-0.14
2021-08-19 15:50:48.552,0.335,-0.16
2021-08-19 15:50:48.556,0.3,-0.165
2021-08-19 15:50:48.560,0.31,-0.16
2021-08-19 15:50:48.564,0.3,-0.175
2021-08-19 15:50:48.568,0.3,-0.15
2021-08-19 15:50:48.572,0.285,-0.16
2021-08-19 15:50:48.576,0.295,-0.175
2021-08-19 15:50:48.580,0.32,-0.15
2021-08-19 15:50:48.584,0.32,-0.18
2021-08-19 15:50:48.588,0.3,-0.17
2021-08-19 15:50:48.592,0.28,-0.175
2021-08-19 15:50:48.596,0.3,-0.17
2021-08-19 15:50:48.600,0.27,-0.17
2021-08-19 15:50:48.604,0.275,-0.17
2021-08-19 15:50:48.608,0.27,-0.155
2021-08-19 15:50:48.612,0.32,-0.18
2021-08-19 15:50:48.616,0.29,-0.16
2021-08-19 15:50:48.620,0.315,-0.15
2021-08-19 15:50:48.624,0.29,-0.16
2021-08-19 15:50:48.628,0.31,-0.165
2021-08-19 15:50:48.632,0.295,-0.165
2021-08-19 15:50:48.636,0.295,-0.16
2021-08-19 15:50:48.640,0.285,-0.145
2021-08-19 15:50:48.644,0.29,-0.12
2021-08-19 15:50:48.648,0.3,-0.14
2021-08-19 15:50:48.652,0.34,-0.14
2021-08-19 15:50:48.656,0.335,-0.14
2021-08-19 15:50:48.660,0.335,-0.115
2021-08-19 15:50:48.664,0.32,-0.06
2021-08-19 15:50:48.668,0.3,-0.08
2021-08-19 15:50:48.672,0.28,-0.16
2021-08-19 15:50:48.676,0.3,-0.115
2021-08-19 15:50:48.680,0.31,-0.075
2021-08-19 15:50:48.684,0.315,-0.145
2021-08-19 15:50:48.688,0.315,-0.195
2021-08-19 15:50:48.692,0.335,-0.195
2021-08-19 15:50:48.696,0.355,-0.185
2021-08-19 15:50:48.700,0.345,-0.175
2021-08-19 15:50:48.704,0.335,-0.175
2021-08-19 15:50:48.708,0.315,-0.2
2021-08-19 15:50:48.712,0.31,-0.18
2021-08-19 15:50:48.716,0.31,-0.165
2021-08-19 15:50:48.720,0.31,-0.165
2021-08-19 15:50:48.724,0.335,-0.12
2021-08-19 15:50:48.728,0.35,-0.14
2021-08-19 15:50:48.732,0.34,-0.14
2021-08-19 15:50:48.736,0.34,-0.17
2021-08-19 15:50:48.740,0.34,-0.16
2021-08-19 15:50:48.744,0.32,-0.15
2021-08-19 15:50:48.748,0.305,-0.13
2021-08-19 15:50:48.752,0.305,-0.145
2021-08-19 15:50:48.756,0.305,-0.13
2021-08-19 15:50:48.760,0.315,-0.145
2021-08-19 15:50:48.764,0.33,-0.135
2021-08-19 15:50:48.768,0.31,-0.14
2021-08-19 15:50:48.772,0.32,-0.15
2021-08-19 15:50:48.776,0.375,-0.155
2021-08-19 15:50:48.780,0.335,-0.14
2021-08-19 15:50:48.784,0.32,-0.11
2021-08-19 15:50:48.788,0.32,-0.15
2021-08-19 15:50:48.792,0.34,-0.155
2021-08-19 15:50:48.796,0.31,-0.125
2021-08-19 15:50:48.800,0.315,-0.13
2021-08-19 15:50:48.804,0.31,-0.115
2021-08-19 15:50:48.808,0.33,-0.15
2021-08-19 15:50:48.812,0.33,-0.13
2021-08-19 15:50:48.816,0.33,-0.12
2021-08-19 15:50:48.820,0.31,-0.125
2021-08-19 15:50:48.824,0.305,-0.15
2021-08-19 15:50:48.828,0.31,-0.175
2021-08-19 15:50:48.832,0.315,-0.18
2021-08-19 15:50:48.836,0.335,-0.17
2021-08-19 15:50:48.840,0.32,-0.135
2021-08-19 15:50:48.844,0.34,-0.135
2021-08-19 15:50:48.848,0.345,-0.125
2021-08-19 15:50:48.852,0.345,-0.16
2021-08-19 15:50:48.856,0.315,-0.125
2021-08-19 15:50:48.860,0.295,-0.135
2021-08-19 15:50:48.864,0.29,-0.175
2021-08-19 15:50:48.868,0.285,-0.17
2021-08-19 15:50:48.872,0.305,-0.145
2021-08-19 15:50:48.876,0.305,-0.115
2021-08-19 15:50:48.880,0.315,-0.12
2021-08-19 15:50:48.884,0.325,-0.13
2021-08-19 15:50:48.888,0.32,-0.115
2021-08-19 15:50:48.892,0.32,-0.155
2021-08-19 15:50:48.896,0.315,-0.2
2021-08-19 15:50:48.900,0.29,-0.16
2021-08-19 15:50:48.904,0.275,-0.17
2021-08-19 15:50:48.908,0.28,-0.175
2021-08-19 15:50:48.912,0.29,-0.165
2021-08-19 15:50:48.916,0.315,-0.175
2021-08-19 15:50:48.920,0.315,-0.16
2021-08-19 15:50:48.924,0.335,-0.13
2021-08-19 15:50:48.928,0.31,-0.105
2021-08-19 15:50:48.932,0.3,-0.16
2021-08-19 15:50:48.936,0.295,-0.2
2021-08-19 15:50:48.940,0.3,-0.21
2021-08-19 15:50:48.944,0.315,-0.195
2021-08-19 15:50:48.948,0.3,-0.175
2021-08-19 15:50:48.952,0.315,-0.14
2021-08-19 15:50:48.956,0.345,-0.14
2021-08-19 15:50:48.960,0.325,-0.145
2021-08-19 15:50:48.964,0.345,-0.16
2021-08-19 15:50:48.968,0.35,-0.17
2021-08-19 15:50:48.972,0.33,-0.175
2021-08-19 15:50:48.976,0.315,-0.165
2021-08-19 15:50:48.980,0.295,-0.17
2021-08-19 15:50:48.984,0.335,-0.185
2021-08-19 15:50:48.988,0.315,-0.16
2021-08-19 15:50:48.992,0.35,-0.18
2021-08-19 15:50:48.996,0.36,-0.11
2021-08-19 15:50:49.000,0.35,-0.09
2021-08-19 15:50:49.004,0.355,-0.12
2021-08-19 15:50:49.008,0.395,-0.115
2021-08-19 15:50:49.012,0.395,-0.135
2021-08-19 15:50:49.016,0.415,-0.095
2021-08-19 15:50:49.020,0.42,-0.045
2021-08-19 15:50:49.024,0.43,-0.045
2021-08-19 15:50:49.028,0.47,-0.03
2021-08-19 15:50:49.032,0.45,-0.02
2021-08-19 15:50:49.036,0.46,0.005
2021-08-19 15:50:49.040,0.445,0.025
2021-08-19 15:50:49.044,0.45,0.025
2021-08-19 15:50:49.048,0.44,0.025
2021-08-19 15:50:49.052,0.43,-0.005
2021-08-19 15:50:49.056,0.4,0.0
2021-08-19 15:50:49.060,0.375,-0.03
2021-08-19 15:50:49.064,0.37,-0.015
2021-08-19 15:50:49.068,0.355,-0.02
2021-08-19 15:50:49.072,0.32,-0.02
2021-08-19 15:50:49.076,0.32,-0.055
2021-08-19 15:50:49.080,0.33,-0.08
2021-08-19 15:50:49.084,0.325,-0.105
2021-08-19 15:50:49.088,0.325,-0.145
2021-08-19 15:50:49.092,0.31,-0.17
2021-08-19 15:50:49.096,0.29,-0.175
2021-08-19 15:50:49.100,0.275,-0.175
2021-08-19 15:50:49.104,0.27,-0.17
2021-08-19 15:50:49.108,0.26,-0.17
2021-08-19 15:50:49.112,0.28,-0.19
2021-08-19 15:50:49.116,0.28,-0.18
2021-08-19 15:50:49.120,0.29,-0.21
2021-08-19 15:50:49.124,0.27,-0.22
2021-08-19 15:50:49.128,0.255,-0.215
2021-08-19 15:50:49.132,0.24,-0.205
2021-08-19 15:50:49.136,0.24,-0.19
2021-08-19 15:50:49.140,0.26,-0.185
2021-08-19 15:50:49.144,0.275,-0.155
2021-08-19 15:50:49.148,0.29,-0.13
2021-08-19 15:50:49.152,0.305,-0.15
2021-08-19 15:50:49.156,0.3,-0.145
2021-08-19 15:50:49.160,0.265,-0.17
2021-08-19 15:50:49.164,0.285,-0.18
2021-08-19 15:50:49.168,0.345,-0.235
2021-08-19 15:50:49.172,0.435,-0.17
2021-08-19 15:50:49.176,0.535,-0.055
2021-08-19 15:50:49.180,0.615,0.115
2021-08-19 15:50:49.184,0.78,0.345
2021-08-19 15:50:49.188,0.9,0.63
2021-08-19 15:50:49.192,0.77,0.795
2021-08-19 15:50:49.196,0.445,0.72
2021-08-19 15:50:49.200,0.075,0.475
2021-08-19 15:50:49.204,-0.37,0.22
2021-08-19 15:50:49.208,-0.655,0.015
2021-08-19 15:50:49.212,-0.87,-0.04
2021-08-19 15:50:49.216,-0.97,0.025
2021-08-19 15:50:49.220,-0.825,0.05
2021-08-19 15:50:49.224,-0.5,0.01
2021-08-19 15:50:49.228,-0.33,-0.05
2021-08-19 15:50:49.232,-0.105,-0.11
2021-08-19 15:50:49.236,0.025,-0.145
2021-08-19 15:50:49.240,0.085,-0.16
2021-08-19 15:50:49.244,0.115,-0.215
2021-08-19 15:50:49.248,0.17,-0.21
2021-08-19 15:50:49.252,0.19,-0.2
2021-08-19 15:50:49.256,0.22,-0.195
2021-08-19 15:50:49.260,0.255,-0.205
2021-08-19 15:50:49.264,0.25,-0.22
2021-08-19 15:50:49.268,0.295,-0.22
2021-08-19 15:50:49.272,0.265,-0.24
2021-08-19 15:50:49.276,0.265,-0.245
2021-08-19 15:50:49.280,0.26,-0.24
2021-08-19 15:50:49.284,0.26,-0.255
2021-08-19 15:50:49.288,0.25,-0.24
2021-08-19 15:50:49.292,0.265,-0.22
2021-08-19 15:50:49.296,0.29,-0.23
2021-08-19 15:50:49.300,0.295,-0.225
2021-08-19 15:50:49.304,0.31,-0.235
2021-08-19 15:50:49.308,0.32,-0.24
2021-08-19 15:50:49.312,0.29,-0.27
2021-08-19 15:50:49.316,0.28,-0.275
2021-08-19 15:50:49.320,0.28,-0.265
2021-08-19 15:50:49.324,0.275,-0.24
2021-08-19 15:50:49.328,0.29,-0.25
2021-08-19 15:50:49.332,0.29,-0.23
2021-08-19 15:50:49.336,0.29,-0.24
2021-08-19 15:50:49.340,0.3,-0.2
2021-08-19 15:50:49.344,0.35,-0.19
2021-08-19 15:50:49.348,0.325,-0.22
2021-08-19 15:50:49.352,0.305,-0.245
2021-08-19 15:50:49.356,0.3,-0.235
2021-08-19 15:50:49.360,0.31,-0.26
2021-08-19 15:50:49.364,0.31,-0.29
2021-08-19 15:50:49.368,0.34,-0.285
2021-08-19 15:50:49.372,0.35,-0.27
2021-08-19 15:50:49.376,0.33,-0.25
2021-08-19 15:50:49.380,0.335,-0.24
2021-08-19 15:50:49.384,0.33,-0.18
2021-08-19 15:50:49.388,0.34,-0.21
2021-08-19 15:50:49.392,0.34,-0.19
2021-08-19 15:50:49.396,0.34,-0.195
2021-08-19 15:50:49.400,0.315,-0.175
2021-08-19 15:50:49.404,0.325,-0.16
2021-08-19 15:50:49.408,0.325,-0.15
2021-08-19 15:50:49.412,0.325,-0.12
2021-08-19 15:50:49.416,0.35,-0.11
2021-08-19 15:50:49.420,0.37,-0.09
2021-08-19 15:50:49.424,0.38,-0.06
2021-08-19 15:50:49.428,0.365,-0.055
2021-08-19 15:50:49.432,0.35,-0.08
2021-08-19 15:50:49.436,0.33,-0.07
2021-08-19 15:50:49.440,0.32,-0.05
2021-08-19 15:50:49.444,0.35,-0.05
2021-08-19 15:50:49.448,0.31,-0.035
2021-08-19 15:50:49.452,0.335,-0.01
2021-08-19 15:50:49.456,0.335,-0.005
2021-08-19 15:50:49.460,0.325,0.03
2021-08-19 15:50:49.464,0.335,0.03
2021-08-19 15:50:49.468,0.33,-0.03
2021-08-19 15:50:49.472,0.325,-0.015
2021-08-19 15:50:49.476,0.315,-0.02
2021-08-19 15:50:49.480,0.29,-0.035
2021-08-19 15:50:49.484,0.315,-0.015
2021-08-19 15:50:49.488,0.325,-0.02
2021-08-19 15:50:49.492,0.31,-0.045
2021-08-19 15:50:49.496,0.335,-0.035
2021-08-19 15:50:49.500,0.345,-0.05
2021-08-19 15:50:49.504,0.34,-0.07
2021-08-19 15:50:49.508,0.34,-0.115
2021-08-19 15:50:49.512,0.34,-0.14
2021-08-19 15:50:49.516,0.32,-0.15
2021-08-19 15:50:49.520,0.315,-0.16
2021-08-19 15:50:49.524,0.29,-0.155
2021-08-19 15:50:49.528,0.31,-0.165
2021-08-19 15:50:49.532,0.33,-0.15
2021-08-19 15:50:49.536,0.315,-0.185
2021-08-19 15:50:49.540,0.32,-0.22
2021-08-19 15:50:49.544,0.315,-0.195
2021-08-19 15:50:49.548,0.27,-0.185
2021-08-19 15:50:49.552,0.28,-0.185
2021-08-19 15:50:49.556,0.25,-0.18
2021-08-19 15:50:49.560,0.24,-0.15
2021-08-19 15:50:49.564,0.23,-0.145
2021-08-19 15:50:49.568,0.225,-0.17
2021-08-19 15:50:49.572,0.24,-0.205
2021-08-19 15:50:49.576,0.255,-0.21
2021-08-19 15:50:49.580,0.275,-0.255
2021-08-19 15:50:49.584,0.28,-0.285
2021-08-19 15:50:49.588,0.26,-0.225
2021-08-19 15:50:49.592,0.235,-0.2
2021-08-19 15:50:49.596,0.23,-0.22
2021-08-19 15:50:49.600,0.225,-0.28
2021-08-19 15:50:49.604,0.225,-0.275
2021-08-19 15:50:49.608,0.235,-0.26
2021-08-19 15:50:49.612,0.26,-0.265
2021-08-19 15:50:49.616,0.28,-0.28
2021-08-19 15:50:49.620,0.28,-0.26
2021-08-19 15:50:49.624,0.28,-0.265
2021-08-19 15:50:49.628,0.26,-0.235
2021-08-19 15:50:49.632,0.25,-0.255
2021-08-19 15:50:49.636,0.27,-0.265
2021-08-19 15:50:49.640,0.26,-0.245
2021-08-19 15:50:49.644,0.255,-0.22
2021-08-19 15:50:49.648,0.265,-0.21
2021-08-19 15:50:49.652,0.28,-0.225
2021-08-19 15:50:49.656,0.295,-0.21
2021-08-19 15:50:49.660,0.315,-0.2
2021-08-19 15:50:49.664,0.305,-0.215
2021-08-19 15:50:49.668,0.295,-0.245
2021-08-19 15:50:49.672,0.275,-0.26
2021-08-19 15:50:49.676,0.29,-0.235
2021-08-19 15:50:49.680,0.3,-0.22
2021-08-19 15:50:49.684,0.295,-0.195
2021-08-19 15:50:49.688,0.285,-0.2
2021-08-19 15:50:49.692,0.32,-0.2
2021-08-19 15:50:49.696,0.32,-0.195
2021-08-19 15:50:49.700,0.315,-0.205
2021-08-19 15:50:49.704,0.3,-0.215
2021-08-19 15:50:49.708,0.29,-0.205
2021-08-19 15:50:49.712,0.28,-0.21
2021-08-19 15:50:49.716,0.29,-0.19
2021-08-19 15:50:49.720,0.31,-0.215
2021-08-19 15:50:49.724,0.27,-0.2
2021-08-19 15:50:49.728,0.3,-0.2
2021-08-19 15:50:49.732,0.31,-0.195
2021-08-19 15:50:49.736,0.3,-0.17
2021-08-19 15:50:49.740,0.31,-0.205
2021-08-19 15:50:49.744,0.31,-0.21
2021-08-19 15:50:49.748,0.315,-0.22
2021-08-19 15:50:49.752,0.295,-0.23
2021-08-19 15:50:49.756,0.275,-0.185
2021-08-19 15:50:49.760,0.26,-0.185
2021-08-19 15:50:49.764,0.29,-0.2
2021-08-19 15:50:49.768,0.285,-0.2
2021-08-19 15:50:49.772,0.32,-0.2
2021-08-19 15:50:49.776,0.32,-0.19
2021-08-19 15:50:49.780,0.295,-0.205
2021-08-19 15:50:49.784,0.29,-0.205
2021-08-19 15:50:49.788,0.285,-0.21
2021-08-19 15:50:49.792,0.29,-0.205
2021-08-19 15:50:49.796,0.285,-0.21
2021-08-19 15:50:49.800,0.285,-0.2
2021-08-19 15:50:49.804,0.28,-0.21
2021-08-19 15:50:49.808,0.285,-0.19
2021-08-19 15:50:49.812,0.305,-0.2
2021-08-19 15:50:49.816,0.31,-0.19
2021-08-19 15:50:49.820,0.31,-0.195
2021-08-19 15:50:49.824,0.32,-0.195
2021-08-19 15:50:49.828,0.31,-0.195
2021-08-19 15:50:49.832,0.295,-0.195
2021-08-19 15:50:49.836,0.29,-0.205
2021-08-19 15:50:49.840,0.295,-0.185
2021-08-19 15:50:49.844,0.29,-0.175
2021-08-19 15:50:49.848,0.3,-0.19
2021-08-19 15:50:49.852,0.315,-0.2
2021-08-19 15:50:49.856,0.315,-0.175
2021-08-19 15:50:49.860,0.33,-0.18
2021-08-19 15:50:49.864,0.305,-0.19
2021-08-19 15:50:49.868,0.285,-0.19
2021-08-19 15:50:49.872,0.265,-0.175
2021-08-19 15:50:49.876,0.28,-0.165
2021-08-19 15:50:49.880,0.29,-0.15
2021-08-19 15:50:49.884,0.26,-0.17
2021-08-19 15:50:49.888,0.24,-0.195
2021-08-19 15:50:49.892,0.255,-0.145
2021-08-19 15:50:49.896,0.265,-0.17
2021-08-19 15:50:49.900,0.255,-0.21
2021-08-19 15:50:49.904,0.27,-0.2
2021-08-19 15:50:49.908,0.255,-0.195
2021-08-19 15:50:49.912,0.225,-0.19
2021-08-19 15:50:49.916,0.25,-0.195
2021-08-19 15:50:49.920,0.225,-0.225
2021-08-19 15:50:49.924,0.2,-0.235
2021-08-19 15:50:49.928,0.2,-0.215
2021-08-19 15:50:49.932,0.24,-0.205
2021-08-19 15:50:49.936,0.225,-0.2
2021-08-19 15:50:49.940,0.24,-0.17
2021-08-19 15:50:49.944,0.215,-0.2
2021-08-19 15:50:49.948,0.21,-0.225
2021-08-19 15:50:49.952,0.175,-0.25
2021-08-19 15:50:49.956,0.205,-0.265
2021-08-19 15:50:49.960,0.21,-0.245
2021-08-19 15:50:49.964,0.235,-0.235
2021-08-19 15:50:49.968,0.2,-0.225
2021-08-19 15:50:49.972,0.235,-0.22
2021-08-19 15:50:49.976,0.235,-0.21
2021-08-19 15:50:49.980,0.245,-0.2
2021-08-19 15:50:49.984,0.26,-0.205
2021-08-19 15:50:49.988,0.255,-0.18
2021-08-19 15:50:49.992,0.255,-0.18
2021-08-19 15:50:49.996,0.26,-0.185
2021-08-19 15:50:50.000,0.295,-0.165
2021-08-19 15:50:50.004,0.32,-0.115
2021-08-19 15:50:50.008,0.34,-0.145
2021-08-19 15:50:50.012,0.345,-0.135
2021-08-19 15:50:50.016,0.35,-0.105
2021-08-19 15:50:50.020,0.35,-0.085
2021-08-19 15:50:50.024,0.335,-0.055
2021-08-19 15:50:50.028,0.365,-0.065
2021-08-19 15:50:50.032,0.35,-0.055
2021-08-19 15:50:50.036,0.365,-0.095
2021-08-19 15:50:50.040,0.32,-0.11
2021-08-19 15:50:50.044,0.305,-0.135
2021-08-19 15:50:50.048,0.305,-0.14
2021-08-19 15:50:50.052,0.28,-0.16
2021-08-19 15:50:50.056,0.265,-0.17
2021-08-19 15:50:50.060,0.285,-0.195
2021-08-19 15:50:50.064,0.285,-0.205
2021-08-19 15:50:50.068,0.29,-0.225
2021-08-19 15:50:50.072,0.255,-0.265
2021-08-19 15:50:50.076,0.24,-0.285
2021-08-19 15:50:50.080,0.225,-0.3
2021-08-19 15:50:50.084,0.25,-0.3
2021-08-19 15:50:50.088,0.24,-0.29
2021-08-19 15:50:50.092,0.215,-0.28
2021-08-19 15:50:50.096,0.22,-0.295
2021-08-19 15:50:50.100,0.22,-0.325
2021-08-19 15:50:50.104,0.215,-0.355
2021-08-19 15:50:50.108,0.23,-0.37
2021-08-19 15:50:50.112,0.195,-0.365
2021-08-19 15:50:50.116,0.195,-0.37
2021-08-19 15:50:50.120,0.19,-0.35
2021-08-19 15:50:50.124,0.215,-0.335
2021-08-19 15:50:50.128,0.225,-0.355
2021-08-19 15:50:50.132,0.225,-0.355
2021-08-19 15:50:50.136,0.215,-0.365
2021-08-19 15:50:50.140,0.235,-0.36
2021-08-19 15:50:50.144,0.25,-0.335
2021-08-19 15:50:50.148,0.25,-0.335
2021-08-19 15:50:50.152,0.265,-0.36
2021-08-19 15:50:50.156,0.305,-0.395
2021-08-19 15:50:50.160,0.445,-0.345
2021-08-19 15:50:50.164,0.535,-0.235
2021-08-19 15:50:50.168,0.645,-0.04
2021-08-19 15:50:50.172,0.78,0.22
2021-08-19 15:50:50.176,0.88,0.495
2021-08-19 15:50:50.180,0.725,0.63
2021-08-19 15:50:50.184,0.405,0.535
2021-08-19 15:50:50.188,0.025,0.325
2021-08-19 15:50:50.192,-0.345,0.085
2021-08-19 15:50:50.196,-0.63,-0.1
2021-08-19 15:50:50.200,-0.875,-0.155
2021-08-19 15:50:50.204,-0.955,-0.09
2021-08-19 15:50:50.208,-0.79,-0.07
2021-08-19 15:50:50.212,-0.525,-0.14
2021-08-19 15:50:50.216,-0.33,-0.235
2021-08-19 15:50:50.220,-0.145,-0.3
2021-08-19 15:50:50.224,-0.025,-0.305
2021-08-19 15:50:50.228,0.045,-0.335
2021-08-19 15:50:50.232,0.1,-0.39
2021-08-19 15:50:50.236,0.14,-0.38
2021-08-19 15:50:50.240,0.155,-0.38
2021-08-19 15:50:50.244,0.18,-0.395
2021-08-19 15:50:50.248,0.175,-0.42
2021-08-19 15:50:50.252,0.19,-0.445
2021-08-19 15:50:50.256,0.22,-0.43
2021-08-19 15:50:50.260,0.21,-0.455
2021-08-19 15:50:50.264,0.19,-0.415
2021-08-19 15:50:50.268,0.175,-0.435
2021-08-19 15:50:50.272,0.155,-0.425
2021-08-19 15:50:50.276,0.17,-0.43
2021-08-19 15:50:50.280,0.155,-0.425
2021-08-19 15:50:50.284,0.2,-0.4
2021-08-19 15:50:50.288,0.185,-0.38
2021-08-19 15:50:50.292,0.195,-0.355
2021-08-19 15:50:50.296,0.185,-0.355
2021-08-19 15:50:50.300,0.17,-0.405
2021-08-19 15:50:50.304,0.14,-0.45
2021-08-19 15:50:50.308,0.12,-0.465
2021-08-19 15:50:50.312,0.13,-0.46
2021-08-19 15:50:50.316,0.155,-0.465
2021-08-19 15:50:50.320,0.15,-0.495
2021-08-19 15:50:50.324,0.18,-0.495
2021-08-19 15:50:50.328,0.18,-0.46
2021-08-19 15:50:50.332,0.19,-0.45
2021-08-19 15:50:50.336,0.17,-0.465
2021-08-19 15:50:50.340,0.165,-0.445
2021-08-19 15:50:50.344,0.135,-0.46
2021-08-19 15:50:50.348,0.165,-0.445
2021-08-19 15:50:50.352,0.15,-0.43
2021-08-19 15:50:50.356,0.155,-0.41
2021-08-19 15:50:50.360,0.16,-0.375
2021-08-19 15:50:50.364,0.175,-0.385
2021-08-19 15:50:50.368,0.2,-0.38
2021-08-19 15:50:50.372,0.22,-0.335
2021-08-19 15:50:50.376,0.205,-0.31
2021-08-19 15:50:50.380,0.205,-0.32
2021-08-19 15:50:50.384,0.21,-0.32
2021-08-19 15:50:50.388,0.235,-0.34
2021-08-19 15:50:50.392,0.225,-0.35
2021-08-19 15:50:50.396,0.255,-0.345
2021-08-19 15:50:50.400,0.27,-0.305
2021-08-19 15:50:50.404,0.29,-0.24
2021-08-19 15:50:50.408,0.295,-0.225
2021-08-19 15:50:50.412,0.29,-0.215
2021-08-19 15:50:50.416,0.315,-0.205
2021-08-19 15:50:50.420,0.31,-0.2
2021-08-19 15:50:50.424,0.315,-0.145
2021-08-19 15:50:50.428,0.33,-0.115
2021-08-19 15:50:50.432,0.32,-0.08
2021-08-19 15:50:50.436,0.325,-0.055
2021-08-19 15:50:50.440,0.29,-0.045
2021-08-19 15:50:50.444,0.275,-0.005
2021-08-19 15:50:50.448,0.285,-0.01
2021-08-19 15:50:50.452,0.27,0.0
2021-08-19 15:50:50.456,0.255,-0.04
2021-08-19 15:50:50.460,0.215,-0.055
2021-08-19 15:50:50.464,0.22,-0.09
2021-08-19 15:50:50.468,0.2,-0.165
2021-08-19 15:50:50.472,0.175,-0.18
2021-08-19 15:50:50.476,0.175,-0.185
2021-08-19 15:50:50.480,0.185,-0.205
2021-08-19 15:50:50.484,0.195,-0.245
2021-08-19 15:50:50.488,0.17,-0.27
2021-08-19 15:50:50.492,0.175,-0.305
2021-08-19 15:50:50.496,0.15,-0.315
2021-08-19 15:50:50.500,0.135,-0.355
2021-08-19 15:50:50.504,0.125,-0.37
2021-08-19 15:50:50.508,0.135,-0.375
2021-08-19 15:50:50.512,0.135,-0.39
2021-08-19 15:50:50.516,0.135,-0.385
2021-08-19 15:50:50.520,0.135,-0.4
2021-08-19 15:50:50.524,0.13,-0.4
2021-08-19 15:50:50.528,0.15,-0.42
2021-08-19 15:50:50.532,0.105,-0.43
2021-08-19 15:50:50.536,0.085,-0.44
2021-08-19 15:50:50.540,0.08,-0.44
2021-08-19 15:50:50.544,0.075,-0.44
2021-08-19 15:50:50.548,0.09,-0.425
2021-08-19 15:50:50.552,0.095,-0.43
2021-08-19 15:50:50.556,0.115,-0.425
2021-08-19 15:50:50.560,0.1,-0.425
2021-08-19 15:50:50.564,0.095,-0.43
2021-08-19 15:50:50.568,0.095,-0.425
2021-08-19 15:50:50.572,0.08,-0.46
2021-08-19 15:50:50.576,0.06,-0.45
2021-08-19 15:50:50.580,0.075,-0.475
2021-08-19 15:50:50.584,0.075,-0.5
2021-08-19 15:50:50.588,0.075,-0.48
2021-08-19 15:50:50.592,0.07,-0.485
2021-08-19 15:50:50.596,0.09,-0.45
2021-08-19 15:50:50.600,0.1,-0.44
2021-08-19 15:50:50.604,0.11,-0.465
2021-08-19 15:50:50.608,0.09,-0.445
2021-08-19 15:50:50.612,0.065,-0.445
2021-08-19 15:50:50.616,0.095,-0.44
2021-08-19 15:50:50.620,0.095,-0.435
2021-08-19 15:50:50.624,0.075,-0.44
2021-08-19 15:50:50.628,0.09,-0.435
2021-08-19 15:50:50.632,0.105,-0.415
2021-08-19 15:50:50.636,0.095,-0.405
2021-08-19 15:50:50.640,0.115,-0.42
2021-08-19 15:50:50.644,0.11,-0.435
2021-08-19 15:50:50.648,0.095,-0.435
2021-08-19 15:50:50.652,0.085,-0.41
2021-08-19 15:50:50.656,0.085,-0.405
2021-08-19 15:50:50.660,0.075,-0.385
2021-08-19 15:50:50.664,0.11,-0.375
2021-08-19 15:50:50.668,0.125,-0.375
2021-08-19 15:50:50.672,0.135,-0.37
2021-08-19 15:50:50.676,0.135,-0.38
2021-08-19 15:50:50.680,0.13,-0.38
2021-08-19 15:50:50.684,0.145,-0.43
2021-08-19 15:50:50.688,0.175,-0.455
2021-08-19 15:50:50.692,0.28,-0.42
2021-08-19 15:50:50.696,0.33,-0.335
2021-08-19 15:50:50.700,0.375,-0.125
2021-08-19 15:50:50.704,0.495,0.15
2021-08-19 15:50:50.708,0.68,0.435
2021-08-19 15:50:50.712,0.665,0.54
2021-08-19 15:50:50.716,0.39,0.345
2021-08-19 15:50:50.720,0.015,0.12
2021-08-19 15:50:50.724,-0.365,-0.02
2021-08-19 15:50:50.728,-0.685,-0.105
2021-08-19 15:50:50.732,-0.88,-0.075
2021-08-19 15:50:50.736,-0.885,0.01
2021-08-19 15:50:50.740,-0.645,-0.035
2021-08-19 15:50:50.744,-0.445,-0.115
2021-08-19 15:50:50.748,-0.245,-0.195
2021-08-19 15:50:50.752,-0.13,-0.285
2021-08-19 15:50:50.756,-0.045,-0.355
2021-08-19 15:50:50.760,0.02,-0.375
2021-08-19 15:50:50.764,0.05,-0.41
2021-08-19 15:50:50.768,0.055,-0.39
2021-08-19 15:50:50.772,0.04,-0.38
2021-08-19 15:50:50.776,0.06,-0.385
2021-08-19 15:50:50.780,0.065,-0.385
2021-08-19 15:50:50.784,0.1,-0.385
2021-08-19 15:50:50.788,0.12,-0.385
2021-08-19 15:50:50.792,0.1,-0.39
2021-08-19 15:50:50.796,0.095,-0.41
2021-08-19 15:50:50.800,0.12,-0.42
2021-08-19 15:50:50.804,0.09,-0.4
2021-08-19 15:50:50.808,0.09,-0.38
2021-08-19 15:50:50.812,0.09,-0.395
2021-08-19 15:50:50.816,0.08,-0.38
2021-08-19 15:50:50.820,0.125,-0.39
2021-08-19 15:50:50.824,0.13,-0.37
2021-08-19 15:50:50.828,0.13,-0.355
2021-08-19 15:50:50.832,0.125,-0.365
2021-08-19 15:50:50.836,0.11,-0.37
2021-08-19 15:50:50.840,0.085,-0.395
2021-08-19 15:50:50.844,0.1,-0.39
2021-08-19 15:50:50.848,0.11,-0.39
2021-08-19 15:50:50.852,0.105,-0.35
2021-08-19 15:50:50.856,0.105,-0.33
2021-08-19 15:50:50.860,0.145,-0.34
2021-08-19 15:50:50.864,0.135,-0.315
2021-08-19 15:50:50.868,0.13,-0.32
2021-08-19 15:50:50.872,0.13,-0.345
2021-08-19 15:50:50.876,0.105,-0.38
2021-08-19 15:50:50.880,0.095,-0.39
2021-08-19 15:50:50.884,0.085,-0.37
2021-08-19 15:50:50.888,0.1,-0.345
2021-08-19 15:50:50.892,0.11,-0.335
2021-08-19 15:50:50.896,0.125,-0.3
2021-08-19 15:50:50.900,0.14,-0.33
2021-08-19 15:50:50.904,0.12,-0.315
2021-08-19 15:50:50.908,0.13,-0.305
2021-08-19 15:50:50.912,0.115,-0.31
2021-08-19 15:50:50.916,0.075,-0.315
2021-08-19 15:50:50.920,0.075,-0.295
2021-08-19 15:50:50.924,0.065,-0.275
2021-08-19 15:50:50.928,0.09,-0.25
2021-08-19 15:50:50.932,0.07,-0.215
2021-08-19 15:50:50.936,0.07,-0.22
2021-08-19 15:50:50.940,0.09,-0.2
2021-08-19 15:50:50.944,0.085,-0.195
2021-08-19 15:50:50.948,0.06,-0.21
2021-08-19 15:50:50.952,0.075,-0.21
2021-08-19 15:50:50.956,0.045,-0.195
2021-08-19 15:50:50.960,0.045,-0.145
2021-08-19 15:50:50.964,0.025,-0.155
2021-08-19 15:50:50.968,0.005,-0.155
2021-08-19 15:50:50.972,0.02,-0.165
2021-08-19 15:50:50.976,0.045,-0.155
2021-08-19 15:50:50.980,0.06,-0.125
2021-08-19 15:50:50.984,0.07,-0.12
2021-08-19 15:50:50.988,0.085,-0.155
2021-08-19 15:50:50.992,0.07,-0.19
2021-08-19 15:50:50.996,0.065,-0.225
2021-08-19 15:50:51.000,0.07,-0.215
2021-08-19 15:50:51.004,0.08,-0.21
2021-08-19 15:50:51.008,0.08,-0.19
2021-08-19 15:50:51.012,0.1,-0.22
2021-08-19 15:50:51.016,0.115,-0.23
2021-08-19 15:50:51.020,0.13,-0.215
2021-08-19 15:50:51.024,0.115,-0.25
2021-08-19 15:50:51.028,0.135,-0.255
2021-08-19 15:50:51.032,0.115,-0.25
2021-08-19 15:50:51.036,0.085,-0.26
2021-08-19 15:50:51.040,0.085,-0.255
2021-08-19 15:50:51.044,0.1,-0.255
2021-08-19 15:50:51.048,0.12,-0.255
2021-08-19 15:50:51.052,0.105,-0.245
2021-08-19 15:50:51.056,0.115,-0.275
2021-08-19 15:50:51.060,0.115,-0.26
2021-08-19 15:50:51.064,0.13,-0.29
2021-08-19 15:50:51.068,0.14,-0.29
2021-08-19 15:50:51.072,0.125,-0.265
2021-08-19 15:50:51.076,0.115,-0.265
2021-08-19 15:50:51.080,0.075,-0.26
2021-08-19 15:50:51.084,0.1,-0.285
2021-08-19 15:50:51.088,0.105,-0.265
2021-08-19 15:50:51.092,0.125,-0.255
2021-08-19 15:50:51.096,0.125,-0.245
2021-08-19 15:50:51.100,0.12,-0.25
2021-08-19 15:50:51.104,0.135,-0.245
2021-08-19 15:50:51.108,0.13,-0.255
2021-08-19 15:50:51.112,0.115,-0.245
2021-08-19 15:50:51.116,0.095,-0.235
2021-08-19 15:50:51.120,0.105,-0.23
2021-08-19 15:50:51.124,0.125,-0.22
2021-08-19 15:50:51.128,0.13,-0.22
2021-08-19 15:50:51.132,0.145,-0.235
2021-08-19 15:50:51.136,0.135,-0.22
2021-08-19 15:50:51.140,0.13,-0.24
2021-08-19 15:50:51.144,0.1,-0.22
2021-08-19 15:50:51.148,0.09,-0.23
2021-08-19 15:50:51.152,0.105,-0.225
2021-08-19 15:50:51.156,0.1,-0.22
2021-08-19 15:50:51.160,0.075,-0.24
2021-08-19 15:50:51.164,0.105,-0.22
2021-08-19 15:50:51.168,0.12,-0.21
2021-08-19 15:50:51.172,0.13,-0.215
2021-08-19 15:50:51.176,0.155,-0.22
2021-08-19 15:50:51.180,0.105,-0.26
2021-08-19 15:50:51.184,0.095,-0.27
2021-08-19 15:50:51.188,0.08,-0.26
2021-08-19 15:50:51.192,0.075,-0.265
2021-08-19 15:50:51.196,0.095,-0.25
2021-08-19 15:50:51.200,0.09,-0.25
2021-08-19 15:50:51.204,0.095,-0.25
2021-08-19 15:50:51.208,0.1,-0.245
2021-08-19 15:50:51.212,0.095,-0.245
2021-08-19 15:50:51.216,0.08,-0.26
2021-08-19 15:50:51.220,0.09,-0.26
2021-08-19 15:50:51.224,0.075,-0.29
2021-08-19 15:50:51.228,0.06,-0.29
2021-08-19 15:50:51.232,0.07,-0.295
2021-08-19 15:50:51.236,0.065,-0.28
2021-08-19 15:50:51.240,0.08,-0.26
2021-08-19 15:50:51.244,0.095,-0.26
2021-08-19 15:50:51.248,0.085,-0.26
2021-08-19 15:50:51.252,0.07,-0.27
2021-08-19 15:50:51.256,0.085,-0.3
2021-08-19 15:50:51.260,0.065,-0.305
2021-08-19 15:50:51.264,0.075,-0.31
2021-08-19 15:50:51.268,0.02,-0.305
2021-08-19 15:50:51.272,0.02,-0.31
2021-08-19 15:50:51.276,0.03,-0.295
2021-08-19 15:50:51.280,0.07,-0.285
2021-08-19 15:50:51.284,0.095,-0.255
2021-08-19 15:50:51.288,0.085,-0.27
2021-08-19 15:50:51.292,0.09,-0.305
2021-08-19 15:50:51.296,0.075,-0.295
2021-08-19 15:50:51.300,0.06,-0.285
2021-08-19 15:50:51.304,0.05,-0.26
2021-08-19 15:50:51.308,0.055,-0.285
2021-08-19 15:50:51.312,0.055,-0.285
2021-08-19 15:50:51.316,0.05,-0.255
2021-08-19 15:50:51.320,0.075,-0.245
2021-08-19 15:50:51.324,0.075,-0.215
2021-08-19 15:50:51.328,0.05,-0.195
2021-08-19 15:50:51.332,0.045,-0.22
2021-08-19 15:50:51.336,0.025,-0.27
2021-08-19 15:50:51.340,0.045,-0.3
2021-08-19 15:50:51.344,0.025,-0.285
2021-08-19 15:50:51.348,0.045,-0.28
2021-08-19 15:50:51.352,0.055,-0.29
2021-08-19 15:50:51.356,0.07,-0.31
2021-08-19 15:50:51.360,0.075,-0.35
2021-08-19 15:50:51.364,0.075,-0.335
2021-08-19 15:50:51.368,0.095,-0.305
2021-08-19 15:50:51.372,0.07,-0.315
2021-08-19 15:50:51.376,0.04,-0.3
2021-08-19 15:50:51.380,0.05,-0.27
2021-08-19 15:50:51.384,0.04,-0.28
2021-08-19 15:50:51.388,0.045,-0.215
2021-08-19 15:50:51.392,0.055,-0.24
2021-08-19 15:50:51.396,0.08,-0.265
2021-08-19 15:50:51.400,0.09,-0.225
2021-08-19 15:50:51.404,0.085,-0.305
2021-08-19 15:50:51.408,0.07,-0.345
2021-08-19 15:50:51.412,0.06,-0.34
2021-08-19 15:50:51.416,0.055,-0.32
2021-08-19 15:50:51.420,0.08,-0.345
2021-08-19 15:50:51.424,0.075,-0.355
2021-08-19 15:50:51.428,0.06,-0.345
2021-08-19 15:50:51.432,0.1,-0.355
2021-08-19 15:50:51.436,0.095,-0.37
2021-08-19 15:50:51.440,0.09,-0.365
2021-08-19 15:50:51.444,0.085,-0.35
2021-08-19 15:50:51.448,0.07,-0.34
2021-08-19 15:50:51.452,0.055,-0.33
2021-08-19 15:50:51.456,0.065,-0.33
2021-08-19 15:50:51.460,0.06,-0.31
2021-08-19 15:50:51.464,0.085,-0.295
2021-08-19 15:50:51.468,0.08,-0.32
2021-08-19 15:50:51.472,0.085,-0.35
2021-08-19 15:50:51.476,0.075,-0.35
2021-08-19 15:50:51.480,0.065,-0.35
2021-08-19 15:50:51.484,0.075,-0.34
2021-08-19 15:50:51.488,0.07,-0.32
2021-08-19 15:50:51.492,0.065,-0.32
2021-08-19 15:50:51.496,0.04,-0.32
2021-08-19 15:50:51.500,0.085,-0.3
2021-08-19 15:50:51.504,0.085,-0.33
2021-08-19 15:50:51.508,0.085,-0.32
2021-08-19 15:50:51.512,0.105,-0.32
2021-08-19 15:50:51.516,0.09,-0.34
2021-08-19 15:50:51.520,0.09,-0.33
2021-08-19 15:50:51.524,0.035,-0.33
2021-08-19 15:50:51.528,0.07,-0.325
2021-08-19 15:50:51.532,0.055,-0.315
2021-08-19 15:50:51.536,0.04,-0.305
2021-08-19 15:50:51.540,0.065,-0.285
2021-08-19 15:50:51.544,0.095,-0.305
2021-08-19 15:50:51.548,0.11,-0.305
2021-08-19 15:50:51.552,0.105,-0.29
2021-08-19 15:50:51.556,0.105,-0.285
2021-08-19 15:50:51.560,0.05,-0.28
2021-08-19 15:50:51.564,0.075,-0.255
2021-08-19 15:50:51.568,0.11,-0.24
2021-08-19 15:50:51.572,0.12,-0.185
2021-08-19 15:50:51.576,0.125,-0.21
2021-08-19 15:50:51.580,0.185,-0.19
2021-08-19 15:50:51.584,0.18,-0.18
2021-08-19 15:50:51.588,0.19,-0.19
2021-08-19 15:50:51.592,0.185,-0.16
2021-08-19 15:50:51.596,0.18,-0.115
2021-08-19 15:50:51.600,0.185,-0.095
2021-08-19 15:50:51.604,0.175,-0.11
2021-08-19 15:50:51.608,0.145,-0.1
2021-08-19 15:50:51.612,0.16,-0.09
2021-08-19 15:50:51.616,0.175,-0.115
2021-08-19 15:50:51.620,0.15,-0.14
2021-08-19 15:50:51.624,0.12,-0.17
2021-08-19 15:50:51.628,0.095,-0.16
2021-08-19 15:50:51.632,0.085,-0.17
2021-08-19 15:50:51.636,0.09,-0.185
2021-08-19 15:50:51.640,0.085,-0.215
2021-08-19 15:50:51.644,0.08,-0.23
2021-08-19 15:50:51.648,0.085,-0.275
2021-08-19 15:50:51.652,0.08,-0.285
2021-08-19 15:50:51.656,0.06,-0.3
2021-08-19 15:50:51.660,0.06,-0.295
2021-08-19 15:50:51.664,0.04,-0.3
2021-08-19 15:50:51.668,0.015,-0.29
2021-08-19 15:50:51.672,0.02,-0.285
2021-08-19 15:50:51.676,0.005,-0.305
2021-08-19 15:50:51.680,0.005,-0.29
2021-08-19 15:50:51.684,0.02,-0.275
2021-08-19 15:50:51.688,0.025,-0.275
2021-08-19 15:50:51.692,0.055,-0.275
2021-08-19 15:50:51.696,0.05,-0.28
2021-08-19 15:50:51.700,0.03,-0.28
2021-08-19 15:50:51.704,0.02,-0.295
2021-08-19 15:50:51.708,0.02,-0.29
2021-08-19 15:50:51.712,0.03,-0.275
2021-08-19 15:50:51.716,0.08,-0.29
2021-08-19 15:50:51.720,0.13,-0.275
2021-08-19 15:50:51.724,0.205,-0.23
2021-08-19 15:50:51.728,0.345,-0.115
2021-08-19 15:50:51.732,0.415,0.085
2021-08-19 15:50:51.736,0.555,0.37
2021-08-19 15:50:51.740,0.61,0.665
2021-08-19 15:50:51.744,0.42,0.77
2021-08-19 15:50:51.748,0.065,0.635
2021-08-19 15:50:51.752,-0.32,0.365
2021-08-19 15:50:51.756,-0.62,0.095
2021-08-19 15:50:51.760,-0.83,-0.095
2021-08-19 15:50:51.764,-1.02,-0.09
2021-08-19 15:50:51.768,-1.09,0.0
2021-08-19 15:50:51.772,-0.865,0.025
2021-08-19 15:50:51.776,-0.635,0.015
2021-08-19 15:50:51.780,-0.455,-0.13
2021-08-19 15:50:51.784,-0.29,-0.265
2021-08-19 15:50:51.788,-0.16,-0.29
2021-08-19 15:50:51.792,-0.08,-0.31
2021-08-19 15:50:51.796,-0.035,-0.285
2021-08-19 15:50:51.800,0.025,-0.29
2021-08-19 15:50:51.804,0.05,-0.28
2021-08-19 15:50:51.808,0.08,-0.255
2021-08-19 15:50:51.812,0.1,-0.32
2021-08-19 15:50:51.816,0.08,-0.345
2021-08-19 15:50:51.820,0.065,-0.355
2021-08-19 15:50:51.824,0.08,-0.315
2021-08-19 15:50:51.828,0.1,-0.275
2021-08-19 15:50:51.832,0.085,-0.32
2021-08-19 15:50:51.836,0.09,-0.39
2021-08-19 15:50:51.840,0.115,-0.365
2021-08-19 15:50:51.844,0.14,-0.35
2021-08-19 15:50:51.848,0.115,-0.355
2021-08-19 15:50:51.852,0.12,-0.36
2021-08-19 15:50:51.856,0.085,-0.37
2021-08-19 15:50:51.860,0.11,-0.365
2021-08-19 15:50:51.864,0.085,-0.355
2021-08-19 15:50:51.868,0.09,-0.34
2021-08-19 15:50:51.872,0.1,-0.35
2021-08-19 15:50:51.876,0.16,-0.33
2021-08-19 15:50:51.880,0.175,-0.325
2021-08-19 15:50:51.884,0.165,-0.345
2021-08-19 15:50:51.888,0.165,-0.345
2021-08-19 15:50:51.892,0.155,-0.365
2021-08-19 15:50:51.896,0.145,-0.345
2021-08-19 15:50:51.900,0.175,-0.335
2021-08-19 15:50:51.904,0.16,-0.315
2021-08-19 15:50:51.908,0.17,-0.315
2021-08-19 15:50:51.912,0.205,-0.325
2021-08-19 15:50:51.916,0.24,-0.29
2021-08-19 15:50:51.920,0.215,-0.305
2021-08-19 15:50:51.924,0.21,-0.285
2021-08-19 15:50:51.928,0.2,-0.3
2021-08-19 15:50:51.932,0.2,-0.26
2021-08-19 15:50:51.936,0.175,-0.26
2021-08-19 15:50:51.940,0.19,-0.255
2021-08-19 15:50:51.944,0.195,-0.23
2021-08-19 15:50:51.948,0.185,-0.21
2021-08-19 15:50:51.952,0.185,-0.215
2021-08-19 15:50:51.956,0.22,-0.185
2021-08-19 15:50:51.960,0.225,-0.16
2021-08-19 15:50:51.964,0.215,-0.13
2021-08-19 15:50:51.968,0.175,-0.14
2021-08-19 15:50:51.972,0.165,-0.11
2021-08-19 15:50:51.976,0.165,-0.05
2021-08-19 15:50:51.980,0.165,-0.04
2021-08-19 15:50:51.984,0.165,-0.105
2021-08-19 15:50:51.988,0.18,-0.085
2021-08-19 15:50:51.992,0.19,0.005
2021-08-19 15:50:51.996,0.175,-0.05
2021-08-19 15:50:52.000,0.18,-0.135
2021-08-19 15:50:52.004,0.165,-0.165
2021-08-19 15:50:52.008,0.19,-0.17
2021-08-19 15:50:52.012,0.175,-0.13
2021-08-19 15:50:52.016,0.17,-0.08
2021-08-19 15:50:52.020,0.16,-0.06
2021-08-19 15:50:52.024,0.155,-0.065
2021-08-19 15:50:52.028,0.18,-0.04
2021-08-19 15:50:52.032,0.175,-0.07
2021-08-19 15:50:52.036,0.16,-0.09
2021-08-19 15:50:52.040,0.17,-0.105
2021-08-19 15:50:52.044,0.165,-0.095
2021-08-19 15:50:52.048,0.155,-0.085
2021-08-19 15:50:52.052,0.155,-0.095
2021-08-19 15:50:52.056,0.17,-0.115
2021-08-19 15:50:52.060,0.18,-0.15
2021-08-19 15:50:52.064,0.19,-0.15
2021-08-19 15:50:52.068,0.195,-0.135
2021-08-19 15:50:52.072,0.175,-0.175
2021-08-19 15:50:52.076,0.19,-0.16
2021-08-19 15:50:52.080,0.185,-0.145
2021-08-19 15:50:52.084,0.135,-0.08
2021-08-19 15:50:52.088,0.115,-0.095
2021-08-19 15:50:52.092,0.1,-0.08
2021-08-19 15:50:52.096,0.105,-0.105
2021-08-19 15:50:52.100,0.145,-0.17
2021-08-19 15:50:52.104,0.12,-0.145
2021-08-19 15:50:52.108,0.115,-0.135
2021-08-19 15:50:52.112,0.105,-0.13
2021-08-19 15:50:52.116,0.105,-0.165
2021-08-19 15:50:52.120,0.075,-0.135
2021-08-19 15:50:52.124,0.08,-0.15
2021-08-19 15:50:52.128,0.07,-0.185
2021-08-19 15:50:52.132,0.095,-0.16
2021-08-19 15:50:52.136,0.095,-0.145
2021-08-19 15:50:52.140,0.12,-0.135
2021-08-19 15:50:52.144,0.075,-0.155
2021-08-19 15:50:52.148,0.09,-0.13
2021-08-19 15:50:52.152,0.12,-0.155
2021-08-19 15:50:52.156,0.115,-0.16
2021-08-19 15:50:52.160,0.095,-0.12
2021-08-19 15:50:52.164,0.085,-0.125
2021-08-19 15:50:52.168,0.085,-0.15
2021-08-19 15:50:52.172,0.09,-0.14
2021-08-19 15:50:52.176,0.095,-0.11
2021-08-19 15:50:52.180,0.105,-0.1
2021-08-19 15:50:52.184,0.14,-0.11
2021-08-19 15:50:52.188,0.115,-0.135
2021-08-19 15:50:52.192,0.115,-0.14
2021-08-19 15:50:52.196,0.12,-0.115
2021-08-19 15:50:52.200,0.1,-0.125
2021-08-19 15:50:52.204,0.11,-0.06
2021-08-19 15:50:52.208,0.125,-0.045
2021-08-19 15:50:52.212,0.11,-0.05
2021-08-19 15:50:52.216,0.12,-0.04
2021-08-19 15:50:52.220,0.125,0.0
2021-08-19 15:50:52.224,0.13,-0.04
2021-08-19 15:50:52.228,0.11,-0.11
2021-08-19 15:50:52.232,0.12,-0.175
2021-08-19 15:50:52.236,0.115,-0.21
2021-08-19 15:50:52.240,0.115,-0.19
2021-08-19 15:50:52.244,0.095,-0.165
2021-08-19 15:50:52.248,0.105,-0.155
2021-08-19 15:50:52.252,0.115,-0.135
2021-08-19 15:50:52.256,0.125,-0.13
2021-08-19 15:50:52.260,0.125,-0.155
2021-08-19 15:50:52.264,0.13,-0.145
2021-08-19 15:50:52.268,0.12,-0.155
2021-08-19 15:50:52.272,0.08,-0.125
2021-08-19 15:50:52.276,0.065,-0.155
2021-08-19 15:50:52.280,0.09,-0.12
2021-08-19 15:50:52.284,0.09,-0.11
2021-08-19 15:50:52.288,0.1,-0.09
2021-08-19 15:50:52.292,0.085,-0.125
2021-08-19 15:50:52.296,0.08,-0.155
2021-08-19 15:50:52.300,0.105,-0.15
2021-08-19 15:50:52.304,0.1,-0.175
2021-08-19 15:50:52.308,0.08,-0.165
2021-08-19 15:50:52.312,0.08,-0.155
2021-08-19 15:50:52.316,0.055,-0.15
2021-08-19 15:50:52.320,0.07,-0.145
2021-08-19 15:50:52.324,0.08,-0.13
2021-08-19 15:50:52.328,0.095,-0.16
2021-08-19 15:50:52.332,0.095,-0.15
2021-08-19 15:50:52.336,0.08,-0.17
2021-08-19 15:50:52.340,0.075,-0.19
2021-08-19 15:50:52.344,0.05,-0.18
2021-08-19 15:50:52.348,0.045,-0.16
2021-08-19 15:50:52.352,0.04,-0.165
2021-08-19 15:50:52.356,0.06,-0.135
2021-08-19 15:50:52.360,0.075,-0.105
2021-08-19 15:50:52.364,0.05,-0.115
2021-08-19 15:50:52.368,0.075,-0.13
2021-08-19 15:50:52.372,0.075,-0.17
2021-08-19 15:50:52.376,0.07,-0.15
2021-08-19 15:50:52.380,0.075,-0.18
2021-08-19 15:50:52.384,0.08,-0.16
2021-08-19 15:50:52.388,0.075,-0.16
2021-08-19 15:50:52.392,0.07,-0.145
2021-08-19 15:50:52.396,0.095,-0.13
2021-08-19 15:50:52.400,0.1,-0.13
2021-08-19 15:50:52.404,0.105,-0.15
2021-08-19 15:50:52.408,0.115,-0.165
2021-08-19 15:50:52.412,0.12,-0.14
2021-08-19 15:50:52.416,0.08,-0.11
2021-08-19 15:50:52.420,0.1,-0.125
2021-08-19 15:50:52.424,0.08,-0.13
2021-08-19 15:50:52.428,0.075,-0.135
2021-08-19 15:50:52.432,0.065,-0.13
2021-08-19 15:50:52.436,0.07,-0.1
2021-08-19 15:50:52.440,0.11,-0.11
2021-08-19 15:50:52.444,0.115,-0.115
2021-08-19 15:50:52.448,0.095,-0.12
2021-08-19 15:50:52.452,0.085,-0.12
2021-08-19 15:50:52.456,0.07,-0.14
2021-08-19 15:50:52.460,0.07,-0.14
2021-08-19 15:50:52.464,0.085,-0.13
2021-08-19 15:50:52.468,0.08,-0.12
2021-08-19 15:50:52.472,0.085,-0.095
2021-08-19 15:50:52.476,0.095,-0.065
2021-08-19 15:50:52.480,0.085,-0.05
2021-08-19 15:50:52.484,0.11,-0.07
2021-08-19 15:50:52.488,0.12,-0.07
2021-08-19 15:50:52.492,0.125,-0.08
2021-08-19 15:50:52.496,0.12,-0.045
2021-08-19 15:50:52.500,0.13,-0.04
2021-08-19 15:50:52.504,0.14,-0.025
2021-08-19 15:50:52.508,0.16,-0.005
2021-08-19 15:50:52.512,0.175,-0.005
2021-08-19 15:50:52.516,0.18,0.005
2021-08-19 15:50:52.520,0.22,0.025
2021-08-19 15:50:52.524,0.21,0.07
2021-08-19 15:50:52.528,0.22,0.06
2021-08-19 15:50:52.532,0.195,0.03
2021-08-19 15:50:52.536,0.19,0.03
2021-08-19 15:50:52.540,0.175,0.035
2021-08-19 15:50:52.544,0.15,0.0
2021-08-19 15:50:52.548,0.125,-0.01
2021-08-19 15:50:52.552,0.135,-0.005
2021-08-19 15:50:52.556,0.135,0.0
2021-08-19 15:50:52.560,0.13,-0.01
2021-08-19 15:50:52.564,0.135,-0.035
2021-08-19 15:50:52.568,0.15,-0.055
2021-08-19 15:50:52.572,0.105,-0.03
2021-08-19 15:50:52.576,0.095,-0.105
2021-08-19 15:50:52.580,0.085,-0.145
2021-08-19 15:50:52.584,0.09,-0.09
2021-08-19 15:50:52.588,0.1,-0.07
2021-08-19 15:50:52.592,0.06,-0.095
2021-08-19 15:50:52.596,0.07,-0.06
2021-08-19 15:50:52.600,0.07,-0.005
2021-08-19 15:50:52.604,0.065,-0.125
2021-08-19 15:50:52.608,0.05,-0.225
2021-08-19 15:50:52.612,0.055,-0.265
2021-08-19 15:50:52.616,0.07,-0.255
2021-08-19 15:50:52.620,0.08,-0.22
2021-08-19 15:50:52.624,0.06,-0.17
2021-08-19 15:50:52.628,0.09,-0.155
2021-08-19 15:50:52.632,0.08,-0.135
2021-08-19 15:50:52.636,0.08,-0.155
2021-08-19 15:50:52.640,0.075,-0.12
2021-08-19 15:50:52.644,0.075,-0.13
2021-08-19 15:50:52.648,0.095,-0.155
2021-08-19 15:50:52.652,0.2,-0.135
2021-08-19 15:50:52.656,0.31,-0.04
2021-08-19 15:50:52.660,0.37,0.115
2021-08-19 15:50:52.664,0.485,0.345
2021-08-19 15:50:52.668,0.635,0.645
2021-08-19 15:50:52.672,0.605,0.865
2021-08-19 15:50:52.676,0.245,0.81
2021-08-19 15:50:52.680,-0.16,0.59
2021-08-19 15:50:52.684,-0.55,0.295
2021-08-19 15:50:52.688,-0.82,0.06
2021-08-19 15:50:52.692,-1.025,-0.01
2021-08-19 15:50:52.696,-1.145,0.075
2021-08-19 15:50:52.700,-1.02,0.13
2021-08-19 15:50:52.704,-0.71,0.09
2021-08-19 15:50:52.708,-0.46,0.065
2021-08-19 15:50:52.712,-0.28,0.03
2021-08-19 15:50:52.716,-0.155,-0.03
2021-08-19 15:50:52.720,-0.065,-0.11
2021-08-19 15:50:52.724,-0.01,-0.115
2021-08-19 15:50:52.728,0.05,-0.17
2021-08-19 15:50:52.732,0.065,-0.175
2021-08-19 15:50:52.736,0.11,-0.14
2021-08-19 15:50:52.740,0.12,-0.14
2021-08-19 15:50:52.744,0.135,-0.12
2021-08-19 15:50:52.748,0.12,-0.115
2021-08-19 15:50:52.752,0.135,-0.14
2021-08-19 15:50:52.756,0.135,-0.155
2021-08-19 15:50:52.760,0.12,-0.125
2021-08-19 15:50:52.764,0.11,-0.13
2021-08-19 15:50:52.768,0.115,-0.13
2021-08-19 15:50:52.772,0.115,-0.135
2021-08-19 15:50:52.776,0.135,-0.13
2021-08-19 15:50:52.780,0.15,-0.13
2021-08-19 15:50:52.784,0.13,-0.115
2021-08-19 15:50:52.788,0.155,-0.14
2021-08-19 15:50:52.792,0.16,-0.14
2021-08-19 15:50:52.796,0.14,-0.125
2021-08-19 15:50:52.800,0.145,-0.12
2021-08-19 15:50:52.804,0.14,-0.07
2021-08-19 15:50:52.808,0.155,-0.03
2021-08-19 15:50:52.812,0.16,-0.1
2021-08-19 15:50:52.816,0.145,-0.115
2021-08-19 15:50:52.820,0.18,-0.105
2021-08-19 15:50:52.824,0.16,-0.115
2021-08-19 15:50:52.828,0.185,-0.12
2021-08-19 15:50:52.832,0.195,-0.06
2021-08-19 15:50:52.836,0.15,-0.065
2021-08-19 15:50:52.840,0.145,-0.11
2021-08-19 15:50:52.844,0.155,-0.135
2021-08-19 15:50:52.848,0.15,-0.105
2021-08-19 15:50:52.852,0.195,-0.09
2021-08-19 15:50:52.856,0.21,-0.08
2021-08-19 15:50:52.860,0.22,-0.075
2021-08-19 15:50:52.864,0.235,-0.06
2021-08-19 15:50:52.868,0.22,-0.05
2021-08-19 15:50:52.872,0.195,-0.03
2021-08-19 15:50:52.876,0.2,-0.025
2021-08-19 15:50:52.880,0.205,-0.005
2021-08-19 15:50:52.884,0.235,0.05
2021-08-19 15:50:52.888,0.21,0.04
2021-08-19 15:50:52.892,0.235,0.06
2021-08-19 15:50:52.896,0.21,0.07
2021-08-19 15:50:52.900,0.205,0.085
2021-08-19 15:50:52.904,0.225,0.08
2021-08-19 15:50:52.908,0.225,0.11
2021-08-19 15:50:52.912,0.18,0.13
2021-08-19 15:50:52.916,0.21,0.135
2021-08-19 15:50:52.920,0.18,0.145
2021-08-19 15:50:52.924,0.155,0.185
2021-08-19 15:50:52.928,0.215,0.175
2021-08-19 15:50:52.932,0.19,0.185
2021-08-19 15:50:52.936,0.17,0.17
2021-08-19 15:50:52.940,0.195,0.18
2021-08-19 15:50:52.944,0.14,0.175
2021-08-19 15:50:52.948,0.165,0.155
2021-08-19 15:50:52.952,0.15,0.145
2021-08-19 15:50:52.956,0.14,0.13
2021-08-19 15:50:52.960,0.155,0.13
2021-08-19 15:50:52.964,0.165,0.11
2021-08-19 15:50:52.968,0.195,0.1
2021-08-19 15:50:52.972,0.195,0.095
2021-08-19 15:50:52.976,0.175,0.09
2021-08-19 15:50:52.980,0.195,0.075
2021-08-19 15:50:52.984,0.18,0.055
2021-08-19 15:50:52.988,0.155,0.05
2021-08-19 15:50:52.992,0.17,0.03
2021-08-19 15:50:52.996,0.16,0.04
2021-08-19 15:50:53.000,0.16,0.01
2021-08-19 15:50:53.004,0.2,0.0
2021-08-19 15:50:53.008,0.21,-0.005
2021-08-19 15:50:53.012,0.2,-0.01
2021-08-19 15:50:53.016,0.185,-0.025
2021-08-19 15:50:53.020,0.165,-0.02
2021-08-19 15:50:53.024,0.145,-0.03
2021-08-19 15:50:53.028,0.14,-0.05
2021-08-19 15:50:53.032,0.12,-0.055
2021-08-19 15:50:53.036,0.125,-0.035
2021-08-19 15:50:53.040,0.15,-0.01
2021-08-19 15:50:53.044,0.175,-0.02
2021-08-19 15:50:53.048,0.14,-0.025
2021-08-19 15:50:53.052,0.13,-0.02
2021-08-19 15:50:53.056,0.125,-0.015
2021-08-19 15:50:53.060,0.15,-0.015
2021-08-19 15:50:53.064,0.13,-0.02
2021-08-19 15:50:53.068,0.135,-0.035
2021-08-19 15:50:53.072,0.115,-0.005
2021-08-19 15:50:53.076,0.115,0.0
2021-08-19 15:50:53.080,0.13,-0.02
2021-08-19 15:50:53.084,0.16,-0.03
2021-08-19 15:50:53.088,0.155,-0.065
2021-08-19 15:50:53.092,0.17,-0.03
2021-08-19 15:50:53.096,0.16,-0.035
2021-08-19 15:50:53.100,0.13,-0.07
2021-08-19 15:50:53.104,0.115,-0.03
2021-08-19 15:50:53.108,0.135,-0.04
2021-08-19 15:50:53.112,0.125,-0.035
2021-08-19 15:50:53.116,0.135,-0.04
2021-08-19 15:50:53.120,0.155,-0.025
2021-08-19 15:50:53.124,0.145,-0.05
2021-08-19 15:50:53.128,0.185,-0.035
2021-08-19 15:50:53.132,0.175,-0.03
2021-08-19 15:50:53.136,0.16,-0.015
2021-08-19 15:50:53.140,0.14,-0.01
2021-08-19 15:50:53.144,0.16,0.0
2021-08-19 15:50:53.148,0.145,0.02
2021-08-19 15:50:53.152,0.17,0.0
2021-08-19 15:50:53.156,0.185,-0.015
2021-08-19 15:50:53.160,0.205,-0.02
2021-08-19 15:50:53.164,0.18,-0.01
2021-08-19 15:50:53.168,0.155,-0.015
2021-08-19 15:50:53.172,0.165,-0.015
2021-08-19 15:50:53.176,0.155,-0.01
2021-08-19 15:50:53.180,0.14,-0.04
2021-08-19 15:50:53.184,0.155,-0.01
2021-08-19 15:50:53.188,0.145,0.01
2021-08-19 15:50:53.192,0.165,0.0
2021-08-19 15:50:53.196,0.18,-0.015
2021-08-19 15:50:53.200,0.155,-0.005
2021-08-19 15:50:53.204,0.185,-0.005
2021-08-19 15:50:53.208,0.17,-0.015
2021-08-19 15:50:53.212,0.155,-0.03
2021-08-19 15:50:53.216,0.145,-0.01
2021-08-19 15:50:53.220,0.135,-0.005
2021-08-19 15:50:53.224,0.14,-0.02
2021-08-19 15:50:53.228,0.145,0.0
2021-08-19 15:50:53.232,0.135,0.035
2021-08-19 15:50:53.236,0.185,0.01
2021-08-19 15:50:53.240,0.165,0.0
2021-08-19 15:50:53.244,0.155,-0.01
2021-08-19 15:50:53.248,0.17,-0.005
2021-08-19 15:50:53.252,0.175,-0.035
2021-08-19 15:50:53.256,0.155,-0.03
2021-08-19 15:50:53.260,0.14,-0.01
2021-08-19 15:50:53.264,0.12,-0.005
2021-08-19 15:50:53.268,0.12,0.015
2021-08-19 15:50:53.272,0.155,0.015
2021-08-19 15:50:53.276,0.165,0.0
2021-08-19 15:50:53.280,0.175,-0.03
2021-08-19 15:50:53.284,0.165,-0.04
2021-08-19 15:50:53.288,0.165,-0.055
2021-08-19 15:50:53.292,0.155,-0.04
2021-08-19 15:50:53.296,0.125,-0.055
2021-08-19 15:50:53.300,0.125,-0.045
2021-08-19 15:50:53.304,0.115,-0.04
2021-08-19 15:50:53.308,0.16,-0.025
2021-08-19 15:50:53.312,0.16,-0.02
2021-08-19 15:50:53.316,0.17,-0.02
2021-08-19 15:50:53.320,0.18,-0.03
2021-08-19 15:50:53.324,0.16,-0.035
2021-08-19 15:50:53.328,0.135,-0.025
2021-08-19 15:50:53.332,0.12,-0.03
2021-08-19 15:50:53.336,0.15,-0.035
2021-08-19 15:50:53.340,0.12,-0.025
2021-08-19 15:50:53.344,0.155,-0.045
2021-08-19 15:50:53.348,0.155,-0.015
2021-08-19 15:50:53.352,0.165,-0.02
2021-08-19 15:50:53.356,0.165,-0.03
2021-08-19 15:50:53.360,0.165,-0.045
2021-08-19 15:50:53.364,0.155,-0.045
2021-08-19 15:50:53.368,0.16,-0.04
2021-08-19 15:50:53.372,0.14,-0.05
2021-08-19 15:50:53.376,0.14,-0.025
2021-08-19 15:50:53.380,0.14,-0.04
2021-08-19 15:50:53.384,0.13,-0.055
2021-08-19 15:50:53.388,0.16,-0.04
2021-08-19 15:50:53.392,0.175,-0.02
2021-08-19 15:50:53.396,0.195,-0.04
2021-08-19 15:50:53.400,0.175,-0.05
2021-08-19 15:50:53.404,0.165,-0.05
2021-08-19 15:50:53.408,0.175,-0.035
2021-08-19 15:50:53.412,0.155,-0.035
2021-08-19 15:50:53.416,0.18,-0.015
2021-08-19 15:50:53.420,0.2,0.025
2021-08-19 15:50:53.424,0.215,0.035
2021-08-19 15:50:53.428,0.235,0.04
2021-08-19 15:50:53.432,0.28,0.015
2021-08-19 15:50:53.436,0.3,0.055
2021-08-19 15:50:53.440,0.305,0.045
2021-08-19 15:50:53.444,0.28,0.05
2021-08-19 15:50:53.448,0.295,0.07
2021-08-19 15:50:53.452,0.265,0.09
2021-08-19 15:50:53.456,0.27,0.115
2021-08-19 15:50:53.460,0.285,0.12
2021-08-19 15:50:53.464,0.275,0.14
2021-08-19 15:50:53.468,0.26,0.14
2021-08-19 15:50:53.472,0.275,0.15
2021-08-19 15:50:53.476,0.265,0.11
2021-08-19 15:50:53.480,0.235,0.055
2021-08-19 15:50:53.484,0.21,0.06
2021-08-19 15:50:53.488,0.16,0.06
2021-08-19 15:50:53.492,0.165,0.04
2021-08-19 15:50:53.496,0.17,0.05
2021-08-19 15:50:53.500,0.19,0.04
2021-08-19 15:50:53.504,0.22,-0.005
2021-08-19 15:50:53.508,0.215,-0.025
2021-08-19 15:50:53.512,0.185,-0.02
2021-08-19 15:50:53.516,0.16,-0.05
2021-08-19 15:50:53.520,0.165,-0.085
2021-08-19 15:50:53.524,0.17,-0.08
2021-08-19 15:50:53.528,0.145,-0.085
2021-08-19 15:50:53.532,0.115,-0.085
2021-08-19 15:50:53.536,0.135,-0.075
2021-08-19 15:50:53.540,0.14,-0.085
2021-08-19 15:50:53.544,0.145,-0.065
2021-08-19 15:50:53.548,0.165,-0.055
2021-08-19 15:50:53.552,0.145,-0.04
2021-08-19 15:50:53.556,0.145,-0.055
2021-08-19 15:50:53.560,0.17,-0.04
2021-08-19 15:50:53.564,0.165,-0.05
2021-08-19 15:50:53.568,0.155,-0.055
2021-08-19 15:50:53.572,0.145,-0.07
2021-08-19 15:50:53.576,0.145,-0.045
2021-08-19 15:50:53.580,0.155,-0.01
2021-08-19 15:50:53.584,0.22,-0.025
2021-08-19 15:50:53.588,0.315,0.0
2021-08-19 15:50:53.592,0.42,0.01
2021-08-19 15:50:53.596,0.485,0.12
2021-08-19 15:50:53.600,0.59,0.305
2021-08-19 15:50:53.604,0.73,0.59
2021-08-19 15:50:53.608,0.72,0.86
2021-08-19 15:50:53.612,0.425,0.895
2021-08-19 15:50:53.616,0.02,0.705
2021-08-19 15:50:53.620,-0.35,0.45
2021-08-19 15:50:53.624,-0.655,0.24
2021-08-19 15:50:53.628,-0.875,0.095
2021-08-19 15:50:53.632,-1.03,0.085
2021-08-19 15:50:53.636,-1.01,0.175
2021-08-19 15:50:53.640,-0.765,0.145
2021-08-19 15:50:53.644,-0.51,0.11
2021-08-19 15:50:53.648,-0.32,0.07
2021-08-19 15:50:53.652,-0.145,0.025
2021-08-19 15:50:53.656,-0.025,-0.03
2021-08-19 15:50:53.660,0.055,-0.03
2021-08-19 15:50:53.664,0.105,-0.025
2021-08-19 15:50:53.668,0.115,-0.04
2021-08-19 15:50:53.672,0.14,-0.05
2021-08-19 15:50:53.676,0.15,-0.075
2021-08-19 15:50:53.680,0.16,-0.075
2021-08-19 15:50:53.684,0.145,-0.085
2021-08-19 15:50:53.688,0.165,-0.05
2021-08-19 15:50:53.692,0.17,-0.055
2021-08-19 15:50:53.696,0.14,-0.06
2021-08-19 15:50:53.700,0.185,-0.06
2021-08-19 15:50:53.704,0.195,-0.055
2021-08-19 15:50:53.708,0.215,-0.055
2021-08-19 15:50:53.712,0.215,-0.07
2021-08-19 15:50:53.716,0.23,-0.1
2021-08-19 15:50:53.720,0.2,-0.085
2021-08-19 15:50:53.724,0.215,-0.09
2021-08-19 15:50:53.728,0.19,-0.075
2021-08-19 15:50:53.732,0.195,-0.08
2021-08-19 15:50:53.736,0.215,-0.06
2021-08-19 15:50:53.740,0.225,-0.07
2021-08-19 15:50:53.744,0.235,-0.055
2021-08-19 15:50:53.748,0.24,-0.055
2021-08-19 15:50:53.752,0.295,-0.075
2021-08-19 15:50:53.756,0.245,-0.075
2021-08-19 15:50:53.760,0.255,-0.06
2021-08-19 15:50:53.764,0.25,-0.065
2021-08-19 15:50:53.768,0.26,-0.05
2021-08-19 15:50:53.772,0.265,-0.035
2021-08-19 15:50:53.776,0.27,-0.045
2021-08-19 15:50:53.780,0.28,-0.03
2021-08-19 15:50:53.784,0.32,-0.02
2021-08-19 15:50:53.788,0.345,-0.04
2021-08-19 15:50:53.792,0.305,-0.035
2021-08-19 15:50:53.796,0.26,-0.005
2021-08-19 15:50:53.800,0.275,0.0
2021-08-19 15:50:53.804,0.275,0.005
2021-08-19 15:50:53.808,0.285,0.02
2021-08-19 15:50:53.812,0.265,0.06
2021-08-19 15:50:53.816,0.295,0.075
2021-08-19 15:50:53.820,0.305,0.07
2021-08-19 15:50:53.824,0.31,0.095
2021-08-19 15:50:53.828,0.315,0.075
2021-08-19 15:50:53.832,0.31,0.1
2021-08-19 15:50:53.836,0.295,0.125
2021-08-19 15:50:53.840,0.28,0.115
2021-08-19 15:50:53.844,0.3,0.135
2021-08-19 15:50:53.848,0.29,0.17
2021-08-19 15:50:53.852,0.3,0.185
2021-08-19 15:50:53.856,0.305,0.18
2021-08-19 15:50:53.860,0.3,0.19
2021-08-19 15:50:53.864,0.29,0.185
2021-08-19 15:50:53.868,0.31,0.195
2021-08-19 15:50:53.872,0.285,0.175
2021-08-19 15:50:53.876,0.27,0.185
2021-08-19 15:50:53.880,0.275,0.215
2021-08-19 15:50:53.884,0.26,0.225
2021-08-19 15:50:53.888,0.29,0.225
2021-08-19 15:50:53.892,0.295,0.225
2021-08-19 15:50:53.896,0.315,0.22
2021-08-19 15:50:53.900,0.285,0.21
2021-08-19 15:50:53.904,0.3,0.195
2021-08-19 15:50:53.908,0.33,0.17
2021-08-19 15:50:53.912,0.315,0.155
2021-08-19 15:50:53.916,0.29,0.12
2021-08-19 15:50:53.920,0.3,0.115
2021-08-19 15:50:53.924,0.295,0.085
2021-08-19 15:50:53.928,0.3,0.115
2021-08-19 15:50:53.932,0.31,0.11
2021-08-19 15:50:53.936,0.305,0.09
2021-08-19 15:50:53.940,0.315,0.04
2021-08-19 15:50:53.944,0.295,0.04
2021-08-19 15:50:53.948,0.305,0.035
2021-08-19 15:50:53.952,0.305,0.045
2021-08-19 15:50:53.956,0.265,0.04
2021-08-19 15:50:53.960,0.245,-0.005
2021-08-19 15:50:53.964,0.25,0.0
2021-08-19 15:50:53.968,0.265,-0.045
2021-08-19 15:50:53.972,0.27,-0.03
2021-08-19 15:50:53.976,0.255,-0.04
2021-08-19 15:50:53.980,0.29,-0.03
2021-08-19 15:50:53.984,0.275,-0.04
2021-08-19 15:50:53.988,0.25,-0.025
2021-08-19 15:50:53.992,0.245,-0.045
2021-08-19 15:50:53.996,0.235,-0.05
2021-08-19 15:50:54.000,0.21,-0.015
2021-08-19 15:50:54.004,0.215,0.005
2021-08-19 15:50:54.008,0.22,0.05
2021-08-19 15:50:54.012,0.215,-0.005
2021-08-19 15:50:54.016,0.235,-0.065
2021-08-19 15:50:54.020,0.215,-0.04
2021-08-19 15:50:54.024,0.195,-0.08
2021-08-19 15:50:54.028,0.235,-0.12
2021-08-19 15:50:54.032,0.23,-0.08
2021-08-19 15:50:54.036,0.21,-0.075
2021-08-19 15:50:54.040,0.195,-0.09
2021-08-19 15:50:54.044,0.22,-0.115
2021-08-19 15:50:54.048,0.235,-0.09
2021-08-19 15:50:54.052,0.225,-0.035
2021-08-19 15:50:54.056,0.235,-0.035
2021-08-19 15:50:54.060,0.245,-0.065
2021-08-19 15:50:54.064,0.26,-0.11
2021-08-19 15:50:54.068,0.275,-0.12
2021-08-19 15:50:54.072,0.265,-0.11
2021-08-19 15:50:54.076,0.25,-0.115
2021-08-19 15:50:54.080,0.255,-0.13
2021-08-19 15:50:54.084,0.245,-0.125
2021-08-19 15:50:54.088,0.265,-0.1
2021-08-19 15:50:54.092,0.275,-0.12
2021-08-19 15:50:54.096,0.275,-0.08
2021-08-19 15:50:54.100,0.29,-0.105
2021-08-19 15:50:54.104,0.285,-0.12
2021-08-19 15:50:54.108,0.26,-0.125
2021-08-19 15:50:54.112,0.275,-0.12
2021-08-19 15:50:54.116,0.245,-0.095
2021-08-19 15:50:54.120,0.235,-0.095
2021-08-19 15:50:54.124,0.265,-0.1
2021-08-19 15:50:54.128,0.27,-0.085
2021-08-19 15:50:54.132,0.28,-0.095
2021-08-19 15:50:54.136,0.285,-0.095
2021-08-19 15:50:54.140,0.285,-0.08
2021-08-19 15:50:54.144,0.27,-0.11
2021-08-19 15:50:54.148,0.24,-0.115
2021-08-19 15:50:54.152,0.235,-0.135
2021-08-19 15:50:54.156,0.25,-0.115
2021-08-19 15:50:54.160,0.235,-0.105
2021-08-19 15:50:54.164,0.235,-0.08
2021-08-19 15:50:54.168,0.25,-0.055
2021-08-19 15:50:54.172,0.225,-0.03
2021-08-19 15:50:54.176,0.22,-0.035
2021-08-19 15:50:54.180,0.21,-0.035
2021-08-19 15:50:54.184,0.21,-0.08
2021-08-19 15:50:54.188,0.205,-0.12
2021-08-19 15:50:54.192,0.22,-0.135
2021-08-19 15:50:54.196,0.205,-0.125
2021-08-19 15:50:54.200,0.205,-0.095
2021-08-19 15:50:54.204,0.17,-0.095
2021-08-19 15:50:54.208,0.22,-0.1
2021-08-19 15:50:54.212,0.235,-0.115
2021-08-19 15:50:54.216,0.23,-0.12
2021-08-19 15:50:54.220,0.235,-0.135
2021-08-19 15:50:54.224,0.205,-0.155
2021-08-19 15:50:54.228,0.23,-0.135
2021-08-19 15:50:54.232,0.2,-0.145
2021-08-19 15:50:54.236,0.195,-0.12
2021-08-19 15:50:54.240,0.195,-0.115
2021-08-19 15:50:54.244,0.2,-0.115
2021-08-19 15:50:54.248,0.195,-0.135
2021-08-19 15:50:54.252,0.195,-0.12
2021-08-19 15:50:54.256,0.225,-0.14
2021-08-19 15:50:54.260,0.225,-0.135
2021-08-19 15:50:54.264,0.205,-0.11
2021-08-19 15:50:54.268,0.17,-0.095
2021-08-19 15:50:54.272,0.17,-0.125
2021-08-19 15:50:54.276,0.18,-0.145
2021-08-19 15:50:54.280,0.14,-0.145
2021-08-19 15:50:54.284,0.185,-0.135
2021-08-19 15:50:54.288,0.235,-0.115
2021-08-19 15:50:54.292,0.205,-0.11
2021-08-19 15:50:54.296,0.215,-0.14
2021-08-19 15:50:54.300,0.23,-0.165
2021-08-19 15:50:54.304,0.2,-0.155
2021-08-19 15:50:54.308,0.175,-0.13
2021-08-19 15:50:54.312,0.17,-0.11
2021-08-19 15:50:54.316,0.175,-0.115
2021-08-19 15:50:54.320,0.18,-0.11
2021-08-19 15:50:54.324,0.165,-0.085
2021-08-19 15:50:54.328,0.165,-0.07
2021-08-19 15:50:54.332,0.185,-0.07
2021-08-19 15:50:54.336,0.19,-0.09
2021-08-19 15:50:54.340,0.185,-0.11
2021-08-19 15:50:54.344,0.155,-0.11
2021-08-19 15:50:54.348,0.145,-0.115
2021-08-19 15:50:54.352,0.155,-0.045
2021-08-19 15:50:54.356,0.16,-0.06
2021-08-19 15:50:54.360,0.13,-0.11
2021-08-19 15:50:54.364,0.175,-0.065
2021-08-19 15:50:54.368,0.205,-0.05
2021-08-19 15:50:54.372,0.24,-0.055
2021-08-19 15:50:54.376,0.24,-0.05
2021-08-19 15:50:54.380,0.245,-0.03
2021-08-19 15:50:54.384,0.24,-0.01
2021-08-19 15:50:54.388,0.24,-0.005
2021-08-19 15:50:54.392,0.215,0.025
2021-08-19 15:50:54.396,0.245,0.04
2021-08-19 15:50:54.400,0.24,0.05
2021-08-19 15:50:54.404,0.23,0.035
2021-08-19 15:50:54.408,0.27,0.04
2021-08-19 15:50:54.412,0.27,0.05
2021-08-19 15:50:54.416,0.255,0.055
2021-08-19 15:50:54.420,0.235,0.0
2021-08-19 15:50:54.424,0.2,0.005
2021-08-19 15:50:54.428,0.165,-0.005
2021-08-19 15:50:54.432,0.125,0.02
2021-08-19 15:50:54.436,0.125,0.01
2021-08-19 15:50:54.440,0.11,-0.03
2021-08-19 15:50:54.444,0.105,-0.005
2021-08-19 15:50:54.448,0.175,-0.06
2021-08-19 15:50:54.452,0.19,-0.115
2021-08-19 15:50:54.456,0.145,-0.13
2021-08-19 15:50:54.460,0.14,-0.16
2021-08-19 15:50:54.464,0.115,-0.175
2021-08-19 15:50:54.468,0.11,-0.195
2021-08-19 15:50:54.472,0.095,-0.155
2021-08-19 15:50:54.476,0.095,-0.11
2021-08-19 15:50:54.480,0.08,-0.1
2021-08-19 15:50:54.484,0.09,-0.155
2021-08-19 15:50:54.488,0.115,-0.155
2021-08-19 15:50:54.492,0.09,-0.145
2021-08-19 15:50:54.496,0.09,-0.13
2021-08-19 15:50:54.500,0.11,-0.135
2021-08-19 15:50:54.504,0.085,-0.17
2021-08-19 15:50:54.508,0.08,-0.15
2021-08-19 15:50:54.512,0.08,-0.14
2021-08-19 15:50:54.516,0.08,-0.155
2021-08-19 15:50:54.520,0.1,-0.15
2021-08-19 15:50:54.524,0.11,-0.175
2021-08-19 15:50:54.528,0.135,-0.18
2021-08-19 15:50:54.532,0.225,-0.16
2021-08-19 15:50:54.536,0.355,-0.105
2021-08-19 15:50:54.540,0.385,-0.015
2021-08-19 15:50:54.544,0.47,0.115
2021-08-19 15:50:54.548,0.59,0.415
2021-08-19 15:50:54.552,0.705,0.715
2021-08-19 15:50:54.556,0.535,0.82
2021-08-19 15:50:54.560,0.2,0.735
2021-08-19 15:50:54.564,-0.17,0.475
2021-08-19 15:50:54.568,-0.525,0.21
2021-08-19 15:50:54.572,-0.805,0.02
2021-08-19 15:50:54.576,-1.0,-0.06
2021-08-19 15:50:54.580,-1.155,0.01
2021-08-19 15:50:54.584,-1.07,0.1
2021-08-19 15:50:54.588,-0.765,0.105
2021-08-19 15:50:54.592,-0.52,0.015
2021-08-19 15:50:54.596,-0.33,-0.08
2021-08-19 15:50:54.600,-0.125,-0.15
2021-08-19 15:50:54.604,-0.015,-0.2
2021-08-19 15:50:54.608,0.04,-0.205
2021-08-19 15:50:54.612,0.105,-0.21
2021-08-19 15:50:54.616,0.11,-0.215
2021-08-19 15:50:54.620,0.09,-0.19
2021-08-19 15:50:54.624,0.125,-0.205
2021-08-19 15:50:54.628,0.1,-0.22
2021-08-19 15:50:54.632,0.095,-0.215
2021-08-19 15:50:54.636,0.13,-0.22
2021-08-19 15:50:54.640,0.17,-0.205
2021-08-19 15:50:54.644,0.17,-0.185
2021-08-19 15:50:54.648,0.17,-0.18
2021-08-19 15:50:54.652,0.155,-0.205
2021-08-19 15:50:54.656,0.14,-0.2
2021-08-19 15:50:54.660,0.14,-0.21
2021-08-19 15:50:54.664,0.115,-0.195
2021-08-19 15:50:54.668,0.125,-0.18
2021-08-19 15:50:54.672,0.14,-0.21
2021-08-19 15:50:54.676,0.15,-0.225
2021-08-19 15:50:54.680,0.16,-0.22
2021-08-19 15:50:54.684,0.19,-0.22
2021-08-19 15:50:54.688,0.19,-0.205
2021-08-19 15:50:54.692,0.18,-0.19
2021-08-19 15:50:54.696,0.185,-0.205
2021-08-19 15:50:54.700,0.13,-0.235
2021-08-19 15:50:54.704,0.125,-0.21
2021-08-19 15:50:54.708,0.16,-0.175
2021-08-19 15:50:54.712,0.19,-0.16
2021-08-19 15:50:54.716,0.165,-0.155
2021-08-19 15:50:54.720,0.2,-0.14
2021-08-19 15:50:54.724,0.19,-0.085
2021-08-19 15:50:54.728,0.185,-0.125
2021-08-19 15:50:54.732,0.19,-0.185
2021-08-19 15:50:54.736,0.18,-0.15
2021-08-19 15:50:54.740,0.19,-0.14
2021-08-19 15:50:54.744,0.17,-0.14
2021-08-19 15:50:54.748,0.22,-0.135
2021-08-19 15:50:54.752,0.195,-0.105
2021-08-19 15:50:54.756,0.235,-0.06
2021-08-19 15:50:54.760,0.21,-0.04
2021-08-19 15:50:54.764,0.22,-0.065
2021-08-19 15:50:54.768,0.225,-0.065
2021-08-19 15:50:54.772,0.215,-0.05
2021-08-19 15:50:54.776,0.24,-0.065
2021-08-19 15:50:54.780,0.23,-0.04
2021-08-19 15:50:54.784,0.195,-0.025
2021-08-19 15:50:54.788,0.215,0.035
2021-08-19 15:50:54.792,0.24,0.04
2021-08-19 15:50:54.796,0.245,0.055
2021-08-19 15:50:54.800,0.255,0.12
2021-08-19 15:50:54.804,0.245,0.13
2021-08-19 15:50:54.808,0.215,0.1
2021-08-19 15:50:54.812,0.23,0.065
2021-08-19 15:50:54.816,0.22,0.05
2021-08-19 15:50:54.820,0.225,0.095
2021-08-19 15:50:54.824,0.195,0.11
2021-08-19 15:50:54.828,0.205,0.12
2021-08-19 15:50:54.832,0.21,0.16
2021-08-19 15:50:54.836,0.24,0.14
2021-08-19 15:50:54.840,0.235,0.125
2021-08-19 15:50:54.844,0.23,0.14
2021-08-19 15:50:54.848,0.2,0.1
2021-08-19 15:50:54.852,0.21,0.075
2021-08-19 15:50:54.856,0.2,0.12
2021-08-19 15:50:54.860,0.215,0.105
2021-08-19 15:50:54.864,0.205,0.05
2021-08-19 15:50:54.868,0.205,0.01
2021-08-19 15:50:54.872,0.22,-0.03
2021-08-19 15:50:54.876,0.275,-0.055
2021-08-19 15:50:54.880,0.27,-0.08
2021-08-19 15:50:54.884,0.26,-0.125
2021-08-19 15:50:54.888,0.235,-0.115
2021-08-19 15:50:54.892,0.215,-0.095
2021-08-19 15:50:54.896,0.225,-0.09
2021-08-19 15:50:54.900,0.21,-0.115
2021-08-19 15:50:54.904,0.215,-0.12
2021-08-19 15:50:54.908,0.215,-0.09
2021-08-19 15:50:54.912,0.215,-0.08
2021-08-19 15:50:54.916,0.215,-0.1
2021-08-19 15:50:54.920,0.21,-0.1
2021-08-19 15:50:54.924,0.185,-0.1
2021-08-19 15:50:54.928,0.165,-0.105
2021-08-19 15:50:54.932,0.17,-0.155
2021-08-19 15:50:54.936,0.135,-0.13
2021-08-19 15:50:54.940,0.13,-0.1
2021-08-19 15:50:54.944,0.155,-0.13
2021-08-19 15:50:54.948,0.165,-0.105
2021-08-19 15:50:54.952,0.165,-0.125
2021-08-19 15:50:54.956,0.165,-0.11
2021-08-19 15:50:54.960,0.16,-0.125
2021-08-19 15:50:54.964,0.155,-0.165
2021-08-19 15:50:54.968,0.135,-0.155
2021-08-19 15:50:54.972,0.135,-0.155
2021-08-19 15:50:54.976,0.155,-0.175
2021-08-19 15:50:54.980,0.155,-0.165
2021-08-19 15:50:54.984,0.145,-0.16
2021-08-19 15:50:54.988,0.165,-0.16
2021-08-19 15:50:54.992,0.17,-0.125
2021-08-19 15:50:54.996,0.19,-0.09
2021-08-19 15:50:55.000,0.205,-0.09
2021-08-19 15:50:55.004,0.17,-0.15
2021-08-19 15:50:55.008,0.145,-0.18
2021-08-19 15:50:55.012,0.155,-0.155
2021-08-19 15:50:55.016,0.19,-0.155
2021-08-19 15:50:55.020,0.175,-0.16
2021-08-19 15:50:55.024,0.175,-0.145
2021-08-19 15:50:55.028,0.185,-0.12
2021-08-19 15:50:55.032,0.215,-0.09
2021-08-19 15:50:55.036,0.195,-0.1
2021-08-19 15:50:55.040,0.19,-0.09
2021-08-19 15:50:55.044,0.19,-0.065
2021-08-19 15:50:55.048,0.155,-0.12
2021-08-19 15:50:55.052,0.185,-0.105
2021-08-19 15:50:55.056,0.2,-0.065
2021-08-19 15:50:55.060,0.16,-0.07
2021-08-19 15:50:55.064,0.175,-0.125
2021-08-19 15:50:55.068,0.19,-0.15
2021-08-19 15:50:55.072,0.215,-0.155
2021-08-19 15:50:55.076,0.22,-0.15
2021-08-19 15:50:55.080,0.19,-0.16
2021-08-19 15:50:55.084,0.165,-0.18
2021-08-19 15:50:55.088,0.18,-0.16
2021-08-19 15:50:55.092,0.18,-0.165
2021-08-19 15:50:55.096,0.16,-0.16
2021-08-19 15:50:55.100,0.165,-0.14
2021-08-19 15:50:55.104,0.185,-0.135
2021-08-19 15:50:55.108,0.195,-0.13
2021-08-19 15:50:55.112,0.195,-0.14
2021-08-19 15:50:55.116,0.17,-0.145
2021-08-19 15:50:55.120,0.165,-0.17
2021-08-19 15:50:55.124,0.15,-0.155
2021-08-19 15:50:55.128,0.145,-0.14
2021-08-19 15:50:55.132,0.145,-0.12
2021-08-19 15:50:55.136,0.135,-0.15
2021-08-19 15:50:55.140,0.185,-0.13
2021-08-19 15:50:55.144,0.17,-0.115
2021-08-19 15:50:55.148,0.18,-0.14
2021-08-19 15:50:55.152,0.175,-0.145
2021-08-19 15:50:55.156,0.195,-0.15
2021-08-19 15:50:55.160,0.155,-0.16
2021-08-19 15:50:55.164,0.145,-0.135
2021-08-19 15:50:55.168,0.145,-0.14
2021-08-19 15:50:55.172,0.14,-0.145
2021-08-19 15:50:55.176,0.17,-0.17
2021-08-19 15:50:55.180,0.2,-0.17
2021-08-19 15:50:55.184,0.175,-0.16
2021-08-19 15:50:55.188,0.17,-0.16
2021-08-19 15:50:55.192,0.18,-0.15
2021-08-19 15:50:55.196,0.13,-0.165
2021-08-19 15:50:55.200,0.12,-0.17
2021-08-19 15:50:55.204,0.125,-0.16
2021-08-19 15:50:55.208,0.11,-0.175
2021-08-19 15:50:55.212,0.125,-0.145
2021-08-19 15:50:55.216,0.15,-0.135
2021-08-19 15:50:55.220,0.18,-0.12
2021-08-19 15:50:55.224,0.175,-0.18
2021-08-19 15:50:55.228,0.165,-0.185
2021-08-19 15:50:55.232,0.14,-0.17
2021-08-19 15:50:55.236,0.145,-0.18
2021-08-19 15:50:55.240,0.11,-0.16
2021-08-19 15:50:55.244,0.09,-0.165
2021-08-19 15:50:55.248,0.1,-0.16
2021-08-19 15:50:55.252,0.115,-0.17
2021-08-19 15:50:55.256,0.1,-0.16
2021-08-19 15:50:55.260,0.115,-0.17
2021-08-19 15:50:55.264,0.125,-0.175
2021-08-19 15:50:55.268,0.115,-0.16
2021-08-19 15:50:55.272,0.095,-0.12
2021-08-19 15:50:55.276,0.105,-0.115
2021-08-19 15:50:55.280,0.075,-0.115
2021-08-19 15:50:55.284,0.1,-0.1
2021-08-19 15:50:55.288,0.135,-0.1
2021-08-19 15:50:55.292,0.14,-0.115
2021-08-19 15:50:55.296,0.18,-0.13
2021-08-19 15:50:55.300,0.205,-0.145
2021-08-19 15:50:55.304,0.2,-0.135
2021-08-19 15:50:55.308,0.21,-0.115
2021-08-19 15:50:55.312,0.23,-0.13
2021-08-19 15:50:55.316,0.21,-0.065
2021-08-19 15:50:55.320,0.22,0.005
2021-08-19 15:50:55.324,0.24,0.04
2021-08-19 15:50:55.328,0.235,0.04
2021-08-19 15:50:55.332,0.235,0.01
2021-08-19 15:50:55.336,0.255,0.0
2021-08-19 15:50:55.340,0.22,-0.04
2021-08-19 15:50:55.344,0.19,-0.08
2021-08-19 15:50:55.348,0.155,-0.085
2021-08-19 15:50:55.352,0.09,-0.09
2021-08-19 15:50:55.356,0.075,-0.085
2021-08-19 15:50:55.360,0.11,-0.08
2021-08-19 15:50:55.364,0.135,-0.13
2021-08-19 15:50:55.368,0.15,-0.175
2021-08-19 15:50:55.372,0.13,-0.205
2021-08-19 15:50:55.376,0.115,-0.2
2021-08-19 15:50:55.380,0.11,-0.22
2021-08-19 15:50:55.384,0.085,-0.215
2021-08-19 15:50:55.388,0.075,-0.21
2021-08-19 15:50:55.392,0.045,-0.205
2021-08-19 15:50:55.396,0.045,-0.215
2021-08-19 15:50:55.400,0.065,-0.245
2021-08-19 15:50:55.404,0.085,-0.265
2021-08-19 15:50:55.408,0.1,-0.26
2021-08-19 15:50:55.412,0.075,-0.27
2021-08-19 15:50:55.416,0.03,-0.245
2021-08-19 15:50:55.420,0.025,-0.225
2021-08-19 15:50:55.424,0.07,-0.235
2021-08-19 15:50:55.428,0.06,-0.22
2021-08-19 15:50:55.432,0.07,-0.2
2021-08-19 15:50:55.436,0.06,-0.21
2021-08-19 15:50:55.440,0.085,-0.245
2021-08-19 15:50:55.444,0.13,-0.27
2021-08-19 15:50:55.448,0.21,-0.28
2021-08-19 15:50:55.452,0.32,-0.245
2021-08-19 15:50:55.456,0.37,-0.1
2021-08-19 15:50:55.460,0.46,0.12
2021-08-19 15:50:55.464,0.6,0.37
2021-08-19 15:50:55.468,0.635,0.65
2021-08-19 15:50:55.472,0.415,0.72
2021-08-19 15:50:55.476,0.05,0.535
2021-08-19 15:50:55.480,-0.375,0.29
2021-08-19 15:50:55.484,-0.735,0.065
2021-08-19 15:50:55.488,-0.975,-0.1
2021-08-19 15:50:55.492,-1.19,-0.08
2021-08-19 15:50:55.496,-1.14,0.01
2021-08-19 15:50:55.500,-0.85,0.0
2021-08-19 15:50:55.504,-0.6,-0.095
2021-08-19 15:50:55.508,-0.41,-0.16
2021-08-19 15:50:55.512,-0.215,-0.225
2021-08-19 15:50:55.516,-0.08,-0.255
2021-08-19 15:50:55.520,-0.025,-0.275
2021-08-19 15:50:55.524,0.045,-0.25
2021-08-19 15:50:55.528,0.035,-0.25
2021-08-19 15:50:55.532,0.015,-0.24
2021-08-19 15:50:55.536,0.035,-0.255
2021-08-19 15:50:55.540,0.055,-0.25
2021-08-19 15:50:55.544,0.045,-0.29
2021-08-19 15:50:55.548,0.095,-0.3
2021-08-19 15:50:55.552,0.12,-0.285
2021-08-19 15:50:55.556,0.1,-0.27
2021-08-19 15:50:55.560,0.11,-0.265
2021-08-19 15:50:55.564,0.13,-0.27
2021-08-19 15:50:55.568,0.095,-0.29
2021-08-19 15:50:55.572,0.1,-0.27
2021-08-19 15:50:55.576,0.085,-0.275
2021-08-19 15:50:55.580,0.095,-0.265
2021-08-19 15:50:55.584,0.085,-0.27
2021-08-19 15:50:55.588,0.105,-0.245
2021-08-19 15:50:55.592,0.115,-0.23
2021-08-19 15:50:55.596,0.13,-0.24
2021-08-19 15:50:55.600,0.11,-0.255
2021-08-19 15:50:55.604,0.125,-0.235
2021-08-19 15:50:55.608,0.11,-0.235
2021-08-19 15:50:55.612,0.1,-0.25
2021-08-19 15:50:55.616,0.09,-0.25
2021-08-19 15:50:55.620,0.08,-0.235
2021-08-19 15:50:55.624,0.115,-0.195
2021-08-19 15:50:55.628,0.13,-0.195
2021-08-19 15:50:55.632,0.12,-0.225
2021-08-19 15:50:55.636,0.155,-0.25
2021-08-19 15:50:55.640,0.105,-0.24
2021-08-19 15:50:55.644,0.11,-0.215
2021-08-19 15:50:55.648,0.095,-0.195
2021-08-19 15:50:55.652,0.11,-0.18
2021-08-19 15:50:55.656,0.12,-0.18
2021-08-19 15:50:55.660,0.15,-0.155
2021-08-19 15:50:55.664,0.125,-0.13
2021-08-19 15:50:55.668,0.135,-0.12
2021-08-19 15:50:55.672,0.12,-0.12
2021-08-19 15:50:55.676,0.15,-0.125
2021-08-19 15:50:55.680,0.11,-0.13
2021-08-19 15:50:55.684,0.09,-0.09
2021-08-19 15:50:55.688,0.105,-0.075
2021-08-19 15:50:55.692,0.105,-0.05
2021-08-19 15:50:55.696,0.12,-0.045
2021-08-19 15:50:55.700,0.125,-0.02
2021-08-19 15:50:55.704,0.12,0.02
2021-08-19 15:50:55.708,0.115,0.01
2021-08-19 15:50:55.712,0.14,0.03
2021-08-19 15:50:55.716,0.095,0.025
2021-08-19 15:50:55.720,0.08,0.025
2021-08-19 15:50:55.724,0.07,0.045
2021-08-19 15:50:55.728,0.07,0.04
2021-08-19 15:50:55.732,0.085,0.035
2021-08-19 15:50:55.736,0.085,0.065
2021-08-19 15:50:55.740,0.1,0.085
2021-08-19 15:50:55.744,0.105,0.055
2021-08-19 15:50:55.748,0.1,0.02
2021-08-19 15:50:55.752,0.09,-0.015
2021-08-19 15:50:55.756,0.095,-0.025
2021-08-19 15:50:55.760,0.1,-0.035
2021-08-19 15:50:55.764,0.145,-0.035
2021-08-19 15:50:55.768,0.12,-0.065
2021-08-19 15:50:55.772,0.115,-0.08
2021-08-19 15:50:55.776,0.135,-0.11
2021-08-19 15:50:55.780,0.12,-0.13
2021-08-19 15:50:55.784,0.145,-0.12
2021-08-19 15:50:55.788,0.13,-0.13
2021-08-19 15:50:55.792,0.13,-0.12
2021-08-19 15:50:55.796,0.08,-0.13
2021-08-19 15:50:55.800,0.1,-0.12
2021-08-19 15:50:55.804,0.1,-0.19
2021-08-19 15:50:55.808,0.105,-0.21
2021-08-19 15:50:55.812,0.125,-0.23
2021-08-19 15:50:55.816,0.105,-0.265
2021-08-19 15:50:55.820,0.11,-0.225
2021-08-19 15:50:55.824,0.105,-0.225
2021-08-19 15:50:55.828,0.1,-0.2
2021-08-19 15:50:55.832,0.08,-0.195
2021-08-19 15:50:55.836,0.06,-0.205
2021-08-19 15:50:55.840,0.05,-0.195
2021-08-19 15:50:55.844,0.055,-0.195
2021-08-19 15:50:55.848,0.08,-0.2
2021-08-19 15:50:55.852,0.09,-0.2
2021-08-19 15:50:55.856,0.08,-0.2
2021-08-19 15:50:55.860,0.095,-0.215
2021-08-19 15:50:55.864,0.08,-0.235
2021-08-19 15:50:55.868,0.07,-0.225
2021-08-19 15:50:55.872,0.07,-0.245
2021-08-19 15:50:55.876,0.07,-0.245
2021-08-19 15:50:55.880,0.07,-0.22
2021-08-19 15:50:55.884,0.085,-0.23
2021-08-19 15:50:55.888,0.105,-0.22
2021-08-19 15:50:55.892,0.12,-0.235
2021-08-19 15:50:55.896,0.13,-0.255
2021-08-19 15:50:55.900,0.09,-0.25
2021-08-19 15:50:55.904,0.105,-0.25
2021-08-19 15:50:55.908,0.1,-0.255
2021-08-19 15:50:55.912,0.085,-0.25
2021-08-19 15:50:55.916,0.095,-0.23
2021-08-19 15:50:55.920,0.095,-0.24
2021-08-19 15:50:55.924,0.105,-0.235
2021-08-19 15:50:55.928,0.13,-0.22
2021-08-19 15:50:55.932,0.12,-0.24
2021-08-19 15:50:55.936,0.135,-0.235
2021-08-19 15:50:55.940,0.12,-0.21
2021-08-19 15:50:55.944,0.095,-0.225
2021-08-19 15:50:55.948,0.09,-0.22
2021-08-19 15:50:55.952,0.09,-0.23
2021-08-19 15:50:55.956,0.09,-0.24
2021-08-19 15:50:55.960,0.125,-0.18
2021-08-19 15:50:55.964,0.13,-0.19
2021-08-19 15:50:55.968,0.15,-0.19
2021-08-19 15:50:55.972,0.14,-0.205
2021-08-19 15:50:55.976,0.105,-0.275
2021-08-19 15:50:55.980,0.11,-0.25
2021-08-19 15:50:55.984,0.1,-0.21
2021-08-19 15:50:55.988,0.1,-0.22
2021-08-19 15:50:55.992,0.125,-0.24
2021-08-19 15:50:55.996,0.115,-0.24
2021-08-19 15:50:56.000,0.095,-0.23
2021-08-19 15:50:56.004,0.13,-0.225
2021-08-19 15:50:56.008,0.13,-0.22
2021-08-19 15:50:56.012,0.125,-0.245
2021-08-19 15:50:56.016,0.09,-0.24
2021-08-19 15:50:56.020,0.07,-0.25
2021-08-19 15:50:56.024,0.115,-0.24
2021-08-19 15:50:56.028,0.105,-0.235
2021-08-19 15:50:56.032,0.12,-0.26
2021-08-19 15:50:56.036,0.125,-0.255
2021-08-19 15:50:56.040,0.105,-0.235
2021-08-19 15:50:56.044,0.09,-0.255
2021-08-19 15:50:56.048,0.095,-0.245
2021-08-19 15:50:56.052,0.09,-0.25
2021-08-19 15:50:56.056,0.11,-0.225
2021-08-19 15:50:56.060,0.105,-0.24
2021-08-19 15:50:56.064,0.11,-0.225
2021-08-19 15:50:56.068,0.07,-0.175
2021-08-19 15:50:56.072,0.09,-0.275
2021-08-19 15:50:56.076,0.095,-0.32
2021-08-19 15:50:56.080,0.13,-0.405
2021-08-19 15:50:56.084,0.14,-0.44
2021-08-19 15:50:56.088,0.115,-0.44
2021-08-19 15:50:56.092,0.095,-0.42
2021-08-19 15:50:56.096,0.08,-0.44
2021-08-19 15:50:56.100,0.075,-0.405
2021-08-19 15:50:56.104,0.085,-0.41
2021-08-19 15:50:56.108,0.105,-0.405
2021-08-19 15:50:56.112,0.1,-0.395
2021-08-19 15:50:56.116,0.1,-0.41
2021-08-19 15:50:56.120,0.135,-0.44
2021-08-19 15:50:56.124,0.115,-0.425
2021-08-19 15:50:56.128,0.09,-0.445
2021-08-19 15:50:56.132,0.1,-0.425
2021-08-19 15:50:56.136,0.095,-0.41
2021-08-19 15:50:56.140,0.085,-0.405
2021-08-19 15:50:56.144,0.1,-0.415
2021-08-19 15:50:56.148,0.12,-0.415
2021-08-19 15:50:56.152,0.115,-0.435
2021-08-19 15:50:56.156,0.135,-0.415
2021-08-19 15:50:56.160,0.115,-0.44
2021-08-19 15:50:56.164,0.11,-0.42
2021-08-19 15:50:56.168,0.115,-0.395
2021-08-19 15:50:56.172,0.15,-0.395
2021-08-19 15:50:56.176,0.17,-0.375
2021-08-19 15:50:56.180,0.195,-0.345
2021-08-19 15:50:56.184,0.225,-0.35
2021-08-19 15:50:56.188,0.225,-0.33
2021-08-19 15:50:56.192,0.245,-0.325
2021-08-19 15:50:56.196,0.24,-0.34
2021-08-19 15:50:56.200,0.215,-0.32
2021-08-19 15:50:56.204,0.23,-0.29
2021-08-19 15:50:56.208,0.215,-0.295
2021-08-19 15:50:56.212,0.21,-0.325
2021-08-19 15:50:56.216,0.21,-0.305
2021-08-19 15:50:56.220,0.23,-0.3
2021-08-19 15:50:56.224,0.2,-0.39
2021-08-19 15:50:56.228,0.16,-0.4
2021-08-19 15:50:56.232,0.135,-0.405
2021-08-19 15:50:56.236,0.105,-0.405
2021-08-19 15:50:56.240,0.08,-0.415
2021-08-19 15:50:56.244,0.105,-0.395
2021-08-19 15:50:56.248,0.115,-0.415
2021-08-19 15:50:56.252,0.135,-0.455
2021-08-19 15:50:56.256,0.125,-0.525
2021-08-19 15:50:56.260,0.13,-0.54
2021-08-19 15:50:56.264,0.09,-0.53
2021-08-19 15:50:56.268,0.085,-0.535
2021-08-19 15:50:56.272,0.075,-0.555
2021-08-19 15:50:56.276,0.025,-0.55
2021-08-19 15:50:56.280,0.05,-0.58
2021-08-19 15:50:56.284,0.045,-0.605
2021-08-19 15:50:56.288,0.04,-0.605
2021-08-19 15:50:56.292,0.07,-0.58
2021-08-19 15:50:56.296,0.055,-0.555
2021-08-19 15:50:56.300,0.065,-0.575
2021-08-19 15:50:56.304,0.085,-0.575
2021-08-19 15:50:56.308,0.07,-0.57
2021-08-19 15:50:56.312,0.06,-0.56
2021-08-19 15:50:56.316,0.06,-0.55
2021-08-19 15:50:56.320,0.06,-0.565
2021-08-19 15:50:56.324,0.085,-0.57
2021-08-19 15:50:56.328,0.185,-0.58
2021-08-19 15:50:56.332,0.32,-0.53
2021-08-19 15:50:56.336,0.4,-0.41
2021-08-19 15:50:56.340,0.495,-0.215
2021-08-19 15:50:56.344,0.655,0.09
2021-08-19 15:50:56.348,0.645,0.355
2021-08-19 15:50:56.352,0.39,0.475
2021-08-19 15:50:56.356,0.02,0.275
2021-08-19 15:50:56.360,-0.4,0.055
2021-08-19 15:50:56.364,-0.74,-0.185
2021-08-19 15:50:56.368,-0.95,-0.315
2021-08-19 15:50:56.372,-1.135,-0.33
2021-08-19 15:50:56.376,-1.125,-0.295
2021-08-19 15:50:56.380,-0.865,-0.34
2021-08-19 15:50:56.384,-0.62,-0.38
2021-08-19 15:50:56.388,-0.405,-0.435
2021-08-19 15:50:56.392,-0.255,-0.475
2021-08-19 15:50:56.396,-0.15,-0.53
2021-08-19 15:50:56.400,-0.065,-0.54
2021-08-19 15:50:56.404,0.01,-0.555
2021-08-19 15:50:56.408,0.055,-0.56
2021-08-19 15:50:56.412,0.065,-0.53
2021-08-19 15:50:56.416,0.065,-0.55
2021-08-19 15:50:56.420,0.055,-0.57
2021-08-19 15:50:56.424,0.07,-0.585
2021-08-19 15:50:56.428,0.07,-0.62
2021-08-19 15:50:56.432,0.06,-0.61
2021-08-19 15:50:56.436,0.065,-0.61
2021-08-19 15:50:56.440,0.08,-0.62
2021-08-19 15:50:56.444,0.095,-0.65
2021-08-19 15:50:56.448,0.11,-0.625
2021-08-19 15:50:56.452,0.115,-0.6
2021-08-19 15:50:56.456,0.105,-0.62
2021-08-19 15:50:56.460,0.08,-0.59
2021-08-19 15:50:56.464,0.095,-0.58
2021-08-19 15:50:56.468,0.075,-0.605
2021-08-19 15:50:56.472,0.085,-0.61
2021-08-19 15:50:56.476,0.075,-0.61
2021-08-19 15:50:56.480,0.12,-0.59
2021-08-19 15:50:56.484,0.15,-0.57
2021-08-19 15:50:56.488,0.15,-0.57
2021-08-19 15:50:56.492,0.135,-0.59
2021-08-19 15:50:56.496,0.115,-0.63
2021-08-19 15:50:56.500,0.13,-0.59
2021-08-19 15:50:56.504,0.11,-0.565
2021-08-19 15:50:56.508,0.13,-0.56
2021-08-19 15:50:56.512,0.135,-0.55
2021-08-19 15:50:56.516,0.16,-0.56
2021-08-19 15:50:56.520,0.175,-0.55
2021-08-19 15:50:56.524,0.155,-0.545
2021-08-19 15:50:56.528,0.155,-0.535
2021-08-19 15:50:56.532,0.15,-0.54
2021-08-19 15:50:56.536,0.145,-0.52
2021-08-19 15:50:56.540,0.105,-0.49
2021-08-19 15:50:56.544,0.135,-0.48
2021-08-19 15:50:56.548,0.13,-0.48
2021-08-19 15:50:56.552,0.165,-0.465
2021-08-19 15:50:56.556,0.19,-0.445
2021-08-19 15:50:56.560,0.17,-0.44
2021-08-19 15:50:56.564,0.135,-0.415
2021-08-19 15:50:56.568,0.15,-0.41
2021-08-19 15:50:56.572,0.18,-0.395
2021-08-19 15:50:56.576,0.145,-0.4
2021-08-19 15:50:56.580,0.145,-0.37
2021-08-19 15:50:56.584,0.155,-0.36
2021-08-19 15:50:56.588,0.15,-0.325
2021-08-19 15:50:56.592,0.15,-0.32
2021-08-19 15:50:56.596,0.15,-0.315
2021-08-19 15:50:56.600,0.155,-0.31
2021-08-19 15:50:56.604,0.155,-0.305
2021-08-19 15:50:56.608,0.15,-0.305
2021-08-19 15:50:56.612,0.12,-0.295
2021-08-19 15:50:56.616,0.12,-0.27
2021-08-19 15:50:56.620,0.12,-0.275
2021-08-19 15:50:56.624,0.12,-0.26
2021-08-19 15:50:56.628,0.15,-0.28
2021-08-19 15:50:56.632,0.155,-0.295
2021-08-19 15:50:56.636,0.14,-0.31
2021-08-19 15:50:56.640,0.13,-0.32
2021-08-19 15:50:56.644,0.16,-0.355
2021-08-19 15:50:56.648,0.135,-0.355
2021-08-19 15:50:56.652,0.145,-0.375
2021-08-19 15:50:56.656,0.165,-0.395
2021-08-19 15:50:56.660,0.155,-0.405
2021-08-19 15:50:56.664,0.16,-0.4
2021-08-19 15:50:56.668,0.175,-0.42
2021-08-19 15:50:56.672,0.155,-0.41
2021-08-19 15:50:56.676,0.165,-0.445
2021-08-19 15:50:56.680,0.155,-0.52
2021-08-19 15:50:56.684,0.14,-0.525
2021-08-19 15:50:56.688,0.155,-0.58
2021-08-19 15:50:56.692,0.175,-0.57
2021-08-19 15:50:56.696,0.15,-0.55
2021-08-19 15:50:56.700,0.13,-0.54
2021-08-19 15:50:56.704,0.14,-0.56
2021-08-19 15:50:56.708,0.15,-0.54
2021-08-19 15:50:56.712,0.165,-0.495
2021-08-19 15:50:56.716,0.18,-0.53
2021-08-19 15:50:56.720,0.135,-0.565
2021-08-19 15:50:56.724,0.155,-0.585
2021-08-19 15:50:56.728,0.135,-0.61
2021-08-19 15:50:56.732,0.13,-0.62
2021-08-19 15:50:56.736,0.125,-0.615
2021-08-19 15:50:56.740,0.16,-0.605
2021-08-19 15:50:56.744,0.165,-0.575
2021-08-19 15:50:56.748,0.15,-0.595
2021-08-19 15:50:56.752,0.175,-0.595
2021-08-19 15:50:56.756,0.175,-0.605
2021-08-19 15:50:56.760,0.155,-0.6
2021-08-19 15:50:56.764,0.14,-0.605
2021-08-19 15:50:56.768,0.14,-0.61
2021-08-19 15:50:56.772,0.17,-0.575
2021-08-19 15:50:56.776,0.175,-0.565
2021-08-19 15:50:56.780,0.19,-0.58
2021-08-19 15:50:56.784,0.2,-0.585
2021-08-19 15:50:56.788,0.19,-0.61
2021-08-19 15:50:56.792,0.185,-0.59
2021-08-19 15:50:56.796,0.195,-0.585
2021-08-19 15:50:56.800,0.18,-0.605
2021-08-19 15:50:56.804,0.18,-0.59
2021-08-19 15:50:56.808,0.175,-0.58
2021-08-19 15:50:56.812,0.19,-0.575
2021-08-19 15:50:56.816,0.215,-0.545
2021-08-19 15:50:56.820,0.195,-0.535
2021-08-19 15:50:56.824,0.21,-0.55
2021-08-19 15:50:56.828,0.235,-0.555
2021-08-19 15:50:56.832,0.235,-0.59
2021-08-19 15:50:56.836,0.225,-0.585
2021-08-19 15:50:56.840,0.205,-0.56
2021-08-19 15:50:56.844,0.175,-0.545
2021-08-19 15:50:56.848,0.195,-0.54
2021-08-19 15:50:56.852,0.215,-0.52
2021-08-19 15:50:56.856,0.195,-0.52
2021-08-19 15:50:56.860,0.23,-0.495
2021-08-19 15:50:56.864,0.24,-0.52
2021-08-19 15:50:56.868,0.23,-0.54
2021-08-19 15:50:56.872,0.185,-0.535
2021-08-19 15:50:56.876,0.17,-0.565
2021-08-19 15:50:56.880,0.175,-0.58
2021-08-19 15:50:56.884,0.185,-0.54
2021-08-19 15:50:56.888,0.165,-0.49
2021-08-19 15:50:56.892,0.19,-0.53
2021-08-19 15:50:56.896,0.215,-0.555
2021-08-19 15:50:56.900,0.2,-0.57
2021-08-19 15:50:56.904,0.19,-0.6
2021-08-19 15:50:56.908,0.215,-0.6
