Time,ECG1,ECG2
2021-08-19 23:41:08.420,-0.2,-0.4
2021-08-19 23:41:08.424,-0.2,-0.385
2021-08-19 23:41:08.428,-0.2,-0.38
2021-08-19 23:41:08.432,-0.18,-0.38
2021-08-19 23:41:08.436,-0.175,-0.39
2021-08-19 23:41:08.440,-0.2,-0.375
2021-08-19 23:41:08.444,-0.19,-0.375
2021-08-19 23:41:08.448,-0.17,-0.37
2021-08-19 23:41:08.452,-0.17,-0.375
2021-08-19 23:41:08.456,-0.175,-0.375
2021-08-19 23:41:08.460,-0.18,-0.37
2021-08-19 23:41:08.464,-0.175,-0.38
2021-08-19 23:41:08.468,-0.18,-0.365
2021-08-19 23:41:08.472,-0.18,-0.345
2021-08-19 23:41:08.476,-0.175,-0.365
2021-08-19 23:41:08.480,-0.165,-0.375
2021-08-19 23:41:08.484,-0.16,-0.38
2021-08-19 23:41:08.488,-0.16,-0.355
2021-08-19 23:41:08.492,-0.165,-0.37
2021-08-19 23:41:08.496,-0.19,-0.385
2021-08-19 23:41:08.500,-0.155,-0.365
2021-08-19 23:41:08.504,-0.165,-0.35
2021-08-19 23:41:08.508,-0.165,-0.355
2021-08-19 23:41:08.512,-0.14,-0.355
2021-08-19 23:41:08.516,-0.14,-0.35
2021-08-19 23:41:08.520,-0.145,-0.355
2021-08-19 23:41:08.524,-0.165,-0.33
2021-08-19 23:41:08.528,-0.17,-0.365
2021-08-19 23:41:08.532,-0.16,-0.365
2021-08-19 23:41:08.536,-0.15,-0.35
2021-08-19 23:41:08.540,-0.16,-0.37
2021-08-19 23:41:08.544,-0.165,-0.37
2021-08-19 23:41:08.548,-0.155,-0.365
2021-08-19 23:41:08.552,-0.18,-0.365
2021-08-19 23:41:08.556,-0.185,-0.355
2021-08-19 23:41:08.560,-0.18,-0.36
2021-08-19 23:41:08.564,-0.175,-0.385
2021-08-19 23:41:08.568,-0.15,-0.37
2021-08-19 23:41:08.572,-0.17,-0.365
2021-08-19 23:41:08.576,-0.17,-0.37
2021-08-19 23:41:08.580,-0.16,-0.39
2021-08-19 23:41:08.584,-0.155,-0.375
2021-08-19 23:41:08.588,-0.175,-0.35
2021-08-19 23:41:08.592,-0.14,-0.36
2021-08-19 23:41:08.596,-0.15,-0.37
2021-08-19 23:41:08.600,-0.155,-0.36
2021-08-19 23:41:08.604,-0.16,-0.33
2021-08-19 23:41:08.608,-0.14,-0.365
2021-08-19 23:41:08.612,-0.125,-0.36
2021-08-19 23:41:08.616,-0.15,-0.37
2021-08-19 23:41:08.620,-0.115,-0.38
2021-08-19 23:41:08.624,-0.12,-0.37
2021-08-19 23:41:08.628,-0.13,-0.36
2021-08-19 23:41:08.632,-0.12,-0.37
2021-08-19 23:41:08.636,-0.115,-0.37
2021-08-19 23:41:08.640,-0.115,-0.36
2021-08-19 23:41:08.644,-0.13,-0.355
2021-08-19 23:41:08.648,-0.115,-0.355
2021-08-19 23:41:08.652,-0.13,-0.35
2021-08-19 23:41:08.656,-0.125,-0.35
2021-08-19 23:41:08.660,-0.105,-0.35
2021-08-19 23:41:08.664,-0.11,-0.375
2021-08-19 23:41:08.668,-0.11,-0.34
2021-08-19 23:41:08.672,-0.1,-0.355
2021-08-19 23:41:08.676,-0.09,-0.34
2021-08-19 23:41:08.680,-0.085,-0.35
2021-08-19 23:41:08.684,-0.1,-0.345
2021-08-19 23:41:08.688,-0.105,-0.34
2021-08-19 23:41:08.692,-0.11,-0.34
2021-08-19 23:41:08.696,-0.115,-0.355
2021-08-19 23:41:08.700,-0.09,-0.36
2021-08-19 23:41:08.704,-0.115,-0.34
2021-08-19 23:41:08.708,-0.12,-0.365
2021-08-19 23:41:08.712,-0.08,-0.34
2021-08-19 23:41:08.716,-0.09,-0.34
2021-08-19 23:41:08.720,-0.12,-0.34
2021-08-19 23:41:08.724,-0.12,-0.335
2021-08-19 23:41:08.728,-0.095,-0.33
2021-08-19 23:41:08.732,-0.085,-0.34
2021-08-19 23:41:08.736,-0.105,-0.33
2021-08-19 23:41:08.740,-0.11,-0.345
2021-08-19 23:41:08.744,-0.11,-0.34
2021-08-19 23:41:08.748,-0.11,-0.35
2021-08-19 23:41:08.752,-0.1,-0.335
2021-08-19 23:41:08.756,-0.12,-0.34
2021-08-19 23:41:08.760,-0.12,-0.33
2021-08-19 23:41:08.764,-0.135,-0.37
2021-08-19 23:41:08.768,-0.12,-0.365
2021-08-19 23:41:08.772,-0.11,-0.34
2021-08-19 23:41:08.776,-0.115,-0.33
2021-08-19 23:41:08.780,-0.12,-0.33
2021-08-19 23:41:08.784,-0.12,-0.34
2021-08-19 23:41:08.788,-0.12,-0.34
2021-08-19 23:41:08.792,-0.11,-0.35
2021-08-19 23:41:08.796,-0.11,-0.32
2021-08-19 23:41:08.800,-0.105,-0.36
2021-08-19 23:41:08.804,-0.12,-0.355
2021-08-19 23:41:08.808,-0.125,-0.34
2021-08-19 23:41:08.812,-0.12,-0.31
2021-08-19 23:41:08.816,-0.115,-0.33
2021-08-19 23:41:08.820,-0.135,-0.36
2021-08-19 23:41:08.824,-0.13,-0.345
2021-08-19 23:41:08.828,-0.115,-0.365
2021-08-19 23:41:08.832,-0.13,-0.33
2021-08-19 23:41:08.836,-0.125,-0.345
2021-08-19 23:41:08.840,-0.12,-0.365
2021-08-19 23:41:08.844,-0.1,-0.32
2021-08-19 23:41:08.848,-0.1,-0.36
2021-08-19 23:41:08.852,-0.125,-0.35
2021-08-19 23:41:08.856,-0.11,-0.35
2021-08-19 23:41:08.860,-0.105,-0.35
2021-08-19 23:41:08.864,-0.125,-0.355
2021-08-19 23:41:08.868,-0.115,-0.355
2021-08-19 23:41:08.872,-0.11,-0.355
2021-08-19 23:41:08.876,-0.1,-0.34
2021-08-19 23:41:08.880,-0.095,-0.36
2021-08-19 23:41:08.884,-0.13,-0.375
2021-08-19 23:41:08.888,-0.12,-0.36
2021-08-19 23:41:08.892,-0.12,-0.36
2021-08-19 23:41:08.896,-0.13,-0.365
2021-08-19 23:41:08.900,-0.13,-0.385
2021-08-19 23:41:08.904,-0.1,-0.36
2021-08-19 23:41:08.908,-0.1,-0.345
2021-08-19 23:41:08.912,-0.12,-0.355
2021-08-19 23:41:08.916,-0.085,-0.375
2021-08-19 23:41:08.920,-0.095,-0.37
2021-08-19 23:41:08.924,-0.1,-0.35
2021-08-19 23:41:08.928,-0.1,-0.345
2021-08-19 23:41:08.932,-0.11,-0.37
2021-08-19 23:41:08.936,-0.1,-0.375
2021-08-19 23:41:08.940,-0.105,-0.365
2021-08-19 23:41:08.944,-0.08,-0.36
2021-08-19 23:41:08.948,-0.095,-0.35
2021-08-19 23:41:08.952,-0.07,-0.36
2021-08-19 23:41:08.956,-0.095,-0.32
2021-08-19 23:41:08.960,-0.08,-0.295
2021-08-19 23:41:08.964,-0.07,-0.31
2021-08-19 23:41:08.968,-0.08,-0.305
2021-08-19 23:41:08.972,-0.04,-0.265
2021-08-19 23:41:08.976,-0.05,-0.26
2021-08-19 23:41:08.980,-0.02,-0.26
2021-08-19 23:41:08.984,0.03,-0.24
2021-08-19 23:41:08.988,0.045,-0.21
2021-08-19 23:41:08.992,0.05,-0.2
2021-08-19 23:41:08.996,0.07,-0.24
2021-08-19 23:41:09.000,0.08,-0.25
2021-08-19 23:41:09.004,0.075,-0.265
2021-08-19 23:41:09.008,0.095,-0.315
2021-08-19 23:41:09.012,0.07,-0.365
2021-08-19 23:41:09.016,0.02,-0.365
2021-08-19 23:41:09.020,-0.045,-0.33
2021-08-19 23:41:09.024,-0.075,-0.335
2021-08-19 23:41:09.028,-0.09,-0.38
2021-08-19 23:41:09.032,-0.09,-0.4
2021-08-19 23:41:09.036,-0.08,-0.385
2021-08-19 23:41:09.040,-0.1,-0.36
2021-08-19 23:41:09.044,-0.12,-0.36
2021-08-19 23:41:09.048,-0.12,-0.42
2021-08-19 23:41:09.052,-0.095,-0.425
2021-08-19 23:41:09.056,-0.07,-0.415
2021-08-19 23:41:09.060,-0.09,-0.405
2021-08-19 23:41:09.064,-0.065,-0.455
2021-08-19 23:41:09.068,-0.075,-0.415
2021-08-19 23:41:09.072,-0.085,-0.435
2021-08-19 23:41:09.076,-0.07,-0.425
2021-08-19 23:41:09.080,-0.07,-0.42
2021-08-19 23:41:09.084,-0.075,-0.42
2021-08-19 23:41:09.088,-0.08,-0.405
2021-08-19 23:41:09.092,-0.065,-0.42
2021-08-19 23:41:09.096,-0.075,-0.435
2021-08-19 23:41:09.100,-0.065,-0.41
2021-08-19 23:41:09.104,-0.07,-0.405
2021-08-19 23:41:09.108,-0.07,-0.41
2021-08-19 23:41:09.112,-0.045,-0.405
2021-08-19 23:41:09.116,-0.075,-0.405
2021-08-19 23:41:09.120,-0.04,-0.355
2021-08-19 23:41:09.124,-0.06,-0.37
2021-08-19 23:41:09.128,-0.02,-0.355
2021-08-19 23:41:09.132,-0.015,-0.295
2021-08-19 23:41:09.136,0.0,-0.155
2021-08-19 23:41:09.140,0.005,0.025
2021-08-19 23:41:09.144,0.055,0.315
2021-08-19 23:41:09.148,0.135,0.745
2021-08-19 23:41:09.152,0.04,1.02
2021-08-19 23:41:09.156,-0.23,1.18
2021-08-19 23:41:09.160,-0.67,1.36
2021-08-19 23:41:09.164,-1.375,1.61
2021-08-19 23:41:09.208,-1.985,1.435
2021-08-19 23:41:09.212,-1.855,1.56
2021-08-19 23:41:09.216,-1.71,1.55
2021-08-19 23:41:09.220,-1.57,1.31
2021-08-19 23:41:09.224,-1.445,0.775
2021-08-19 23:41:09.228,-1.31,0.25
2021-08-19 23:41:09.232,-1.2,-0.15
2021-08-19 23:41:09.236,-1.055,-0.47
2021-08-19 23:41:09.240,-0.875,-0.62
2021-08-19 23:41:09.244,-0.685,-0.665
2021-08-19 23:41:09.248,-0.485,-0.675
2021-08-19 23:41:09.252,-0.29,-0.65
2021-08-19 23:41:09.256,-0.09,-0.635
2021-08-19 23:41:09.260,0.1,-0.61
2021-08-19 23:41:09.264,0.275,-0.61
2021-08-19 23:41:09.268,0.365,-0.64
2021-08-19 23:41:09.272,0.44,-0.635
2021-08-19 23:41:09.276,0.48,-0.635
2021-08-19 23:41:09.280,0.505,-0.655
2021-08-19 23:41:09.284,0.515,-0.655
2021-08-19 23:41:09.288,0.525,-0.635
2021-08-19 23:41:09.292,0.56,-0.625
2021-08-19 23:41:09.296,0.59,-0.62
2021-08-19 23:41:09.300,0.59,-0.64
2021-08-19 23:41:09.304,0.595,-0.61
2021-08-19 23:41:09.308,0.62,-0.61
2021-08-19 23:41:09.312,0.625,-0.59
2021-08-19 23:41:09.316,0.625,-0.615
2021-08-19 23:41:09.320,0.645,-0.61
2021-08-19 23:41:09.324,0.67,-0.58
2021-08-19 23:41:09.328,0.675,-0.55
2021-08-19 23:41:09.332,0.705,-0.575
2021-08-19 23:41:09.336,0.685,-0.57
2021-08-19 23:41:09.340,0.72,-0.56
2021-08-19 23:41:09.344,0.745,-0.54
2021-08-19 23:41:09.348,0.765,-0.555
2021-08-19 23:41:09.352,0.775,-0.56
2021-08-19 23:41:09.356,0.815,-0.56
2021-08-19 23:41:09.360,0.835,-0.56
2021-08-19 23:41:09.364,0.85,-0.57
2021-08-19 23:41:09.368,0.87,-0.59
2021-08-19 23:41:09.372,0.89,-0.56
2021-08-19 23:41:09.376,0.91,-0.565
2021-08-19 23:41:09.380,0.96,-0.59
2021-08-19 23:41:09.384,0.965,-0.61
2021-08-19 23:41:09.388,1.005,-0.59
2021-08-19 23:41:09.392,1.015,-0.585
2021-08-19 23:41:09.396,1.06,-0.595
2021-08-19 23:41:09.400,1.08,-0.61
2021-08-19 23:41:09.404,1.105,-0.565
2021-08-19 23:41:09.408,1.1,-0.535
2021-08-19 23:41:09.412,1.135,-0.525
2021-08-19 23:41:09.416,1.12,-0.54
2021-08-19 23:41:09.420,1.135,-0.48
2021-08-19 23:41:09.424,1.125,-0.45
2021-08-19 23:41:09.428,1.1,-0.42
2021-08-19 23:41:09.432,1.075,-0.4
2021-08-19 23:41:09.436,1.075,-0.35
2021-08-19 23:41:09.440,1.04,-0.3
2021-08-19 23:41:09.444,1.005,-0.275
2021-08-19 23:41:09.448,0.96,-0.26
2021-08-19 23:41:09.452,0.93,-0.23
2021-08-19 23:41:09.456,0.875,-0.175
2021-08-19 23:41:09.460,0.79,-0.16
2021-08-19 23:41:09.464,0.725,-0.15
2021-08-19 23:41:09.468,0.67,-0.135
2021-08-19 23:41:09.472,0.65,-0.105
2021-08-19 23:41:09.476,0.575,-0.115
2021-08-19 23:41:09.480,0.515,-0.16
2021-08-19 23:41:09.484,0.485,-0.145
2021-08-19 23:41:09.488,0.42,-0.15
2021-08-19 23:41:09.492,0.37,-0.155
2021-08-19 23:41:09.496,0.335,-0.165
2021-08-19 23:41:09.500,0.285,-0.2
2021-08-19 23:41:09.504,0.27,-0.19
2021-08-19 23:41:09.508,0.24,-0.19
2021-08-19 23:41:09.512,0.195,-0.225
2021-08-19 23:41:09.516,0.22,-0.21
2021-08-19 23:41:09.520,0.19,-0.205
2021-08-19 23:41:09.524,0.18,-0.235
2021-08-19 23:41:09.528,0.175,-0.245
2021-08-19 23:41:09.532,0.175,-0.26
2021-08-19 23:41:09.536,0.175,-0.23
2021-08-19 23:41:09.540,0.18,-0.23
2021-08-19 23:41:09.544,0.175,-0.25
2021-08-19 23:41:09.548,0.165,-0.27
2021-08-19 23:41:09.552,0.17,-0.27
2021-08-19 23:41:09.556,0.16,-0.265
2021-08-19 23:41:09.560,0.18,-0.295
2021-08-19 23:41:09.564,0.17,-0.29
2021-08-19 23:41:09.568,0.17,-0.265
2021-08-19 23:41:09.572,0.16,-0.295
2021-08-19 23:41:09.576,0.155,-0.315
2021-08-19 23:41:09.580,0.175,-0.325
2021-08-19 23:41:09.584,0.195,-0.29
2021-08-19 23:41:09.588,0.18,-0.31
2021-08-19 23:41:09.592,0.185,-0.335
2021-08-19 23:41:09.596,0.18,-0.345
2021-08-19 23:41:09.600,0.19,-0.345
2021-08-19 23:41:09.604,0.19,-0.335
2021-08-19 23:41:09.608,0.18,-0.335
2021-08-19 23:41:09.612,0.16,-0.36
2021-08-19 23:41:09.616,0.205,-0.35
2021-08-19 23:41:09.620,0.185,-0.37
2021-08-19 23:41:09.624,0.2,-0.375
2021-08-19 23:41:09.628,0.2,-0.39
2021-08-19 23:41:09.632,0.19,-0.38
2021-08-19 23:41:09.636,0.17,-0.38
2021-08-19 23:41:09.640,0.19,-0.385
2021-08-19 23:41:09.644,0.195,-0.395
2021-08-19 23:41:09.648,0.17,-0.385
2021-08-19 23:41:09.652,0.165,-0.385
2021-08-19 23:41:09.656,0.17,-0.4
2021-08-19 23:41:09.660,0.16,-0.405
2021-08-19 23:41:09.664,0.17,-0.415
2021-08-19 23:41:09.668,0.185,-0.37
2021-08-19 23:41:09.672,0.165,-0.375
2021-08-19 23:41:09.676,0.16,-0.37
2021-08-19 23:41:09.680,0.165,-0.4
2021-08-19 23:41:09.684,0.13,-0.39
2021-08-19 23:41:09.688,0.125,-0.365
2021-08-19 23:41:09.692,0.145,-0.34
2021-08-19 23:41:09.696,0.14,-0.355
2021-08-19 23:41:09.700,0.15,-0.35
2021-08-19 23:41:09.704,0.155,-0.365
2021-08-19 23:41:09.708,0.14,-0.36
2021-08-19 23:41:09.712,0.145,-0.33
2021-08-19 23:41:09.716,0.105,-0.32
2021-08-19 23:41:09.720,0.1,-0.32
2021-08-19 23:41:09.724,0.11,-0.335
2021-08-19 23:41:09.728,0.14,-0.325
2021-08-19 23:41:09.732,0.12,-0.34
2021-08-19 23:41:09.736,0.115,-0.32
2021-08-19 23:41:09.740,0.095,-0.32
2021-08-19 23:41:09.744,0.115,-0.31
2021-08-19 23:41:09.748,0.11,-0.3
2021-08-19 23:41:09.752,0.09,-0.3
2021-08-19 23:41:09.756,0.09,-0.305
2021-08-19 23:41:09.760,0.1,-0.3
2021-08-19 23:41:09.764,0.11,-0.295
2021-08-19 23:41:09.768,0.095,-0.315
2021-08-19 23:41:09.772,0.1,-0.29
2021-08-19 23:41:09.776,0.11,-0.31
2021-08-19 23:41:09.780,0.11,-0.28
2021-08-19 23:41:09.784,0.08,-0.305
2021-08-19 23:41:09.788,0.09,-0.29
2021-08-19 23:41:09.792,0.095,-0.28
2021-08-19 23:41:09.796,0.11,-0.295
2021-08-19 23:41:09.800,0.09,-0.295
2021-08-19 23:41:09.804,0.07,-0.29
2021-08-19 23:41:09.808,0.075,-0.275
2021-08-19 23:41:09.812,0.085,-0.285
2021-08-19 23:41:09.816,0.08,-0.29
2021-08-19 23:41:09.820,0.08,-0.285
2021-08-19 23:41:09.824,0.09,-0.255
2021-08-19 23:41:09.828,0.06,-0.27
2021-08-19 23:41:09.832,0.085,-0.285
2021-08-19 23:41:09.836,0.095,-0.285
2021-08-19 23:41:09.840,0.105,-0.27
2021-08-19 23:41:09.844,0.075,-0.26
2021-08-19 23:41:09.848,0.075,-0.265
2021-08-19 23:41:09.852,0.085,-0.27
2021-08-19 23:41:09.856,0.07,-0.265
2021-08-19 23:41:09.860,0.065,-0.275
2021-08-19 23:41:09.864,0.08,-0.255
2021-08-19 23:41:09.868,0.075,-0.275
2021-08-19 23:41:09.872,0.075,-0.275
2021-08-19 23:41:09.876,0.065,-0.24
2021-08-19 23:41:09.880,0.06,-0.275
2021-08-19 23:41:09.884,0.075,-0.25
2021-08-19 23:41:09.888,0.085,-0.235
2021-08-19 23:41:09.892,0.065,-0.235
2021-08-19 23:41:09.896,0.095,-0.205
2021-08-19 23:41:09.900,0.07,-0.19
2021-08-19 23:41:09.904,0.08,-0.16
2021-08-19 23:41:09.908,0.1,-0.145
2021-08-19 23:41:09.912,0.125,-0.125
2021-08-19 23:41:09.916,0.155,-0.115
2021-08-19 23:41:09.920,0.19,-0.085
2021-08-19 23:41:09.924,0.19,-0.085
2021-08-19 23:41:09.928,0.25,-0.075
2021-08-19 23:41:09.932,0.24,-0.085
2021-08-19 23:41:09.936,0.23,-0.12
2021-08-19 23:41:09.940,0.245,-0.17
2021-08-19 23:41:09.944,0.21,-0.23
2021-08-19 23:41:09.948,0.19,-0.245
2021-08-19 23:41:09.952,0.15,-0.235
2021-08-19 23:41:09.956,0.055,-0.235
2021-08-19 23:41:09.960,0.035,-0.24
2021-08-19 23:41:09.964,0.005,-0.25
2021-08-19 23:41:09.968,0.015,-0.265
2021-08-19 23:41:09.972,0.035,-0.245
2021-08-19 23:41:09.976,0.015,-0.27
2021-08-19 23:41:09.980,0.025,-0.305
2021-08-19 23:41:09.984,0.045,-0.335
2021-08-19 23:41:09.988,0.05,-0.33
2021-08-19 23:41:09.992,0.085,-0.32
2021-08-19 23:41:09.996,0.06,-0.34
2021-08-19 23:41:10.000,0.05,-0.33
2021-08-19 23:41:10.004,0.04,-0.31
2021-08-19 23:41:10.008,0.045,-0.32
2021-08-19 23:41:10.012,0.015,-0.35
2021-08-19 23:41:10.016,0.035,-0.32
2021-08-19 23:41:10.020,0.06,-0.31
2021-08-19 23:41:10.024,0.045,-0.31
2021-08-19 23:41:10.028,0.045,-0.325
2021-08-19 23:41:10.032,0.07,-0.325
2021-08-19 23:41:10.036,0.07,-0.3
2021-08-19 23:41:10.040,0.055,-0.265
2021-08-19 23:41:10.044,0.055,-0.31
2021-08-19 23:41:10.048,0.045,-0.31
2021-08-19 23:41:10.052,0.075,-0.295
2021-08-19 23:41:10.056,0.065,-0.275
2021-08-19 23:41:10.060,0.06,-0.29
2021-08-19 23:41:10.064,0.045,-0.275
2021-08-19 23:41:10.068,0.075,-0.225
2021-08-19 23:41:10.072,0.07,-0.155
2021-08-19 23:41:10.076,0.065,-0.04
2021-08-19 23:41:10.080,0.125,0.185
2021-08-19 23:41:10.084,0.22,0.485
2021-08-19 23:41:10.088,0.215,0.78
2021-08-19 23:41:10.092,0.0,0.91
2021-08-19 23:41:10.096,-0.355,1.055
2021-08-19 23:41:10.100,-1.01,1.305
2021-08-19 23:41:10.104,-1.8,1.57
2021-08-19 23:41:10.148,-1.945,1.44
2021-08-19 23:41:10.152,-1.81,1.49
2021-08-19 23:41:10.156,-1.67,1.415
2021-08-19 23:41:10.160,-1.52,1.105
2021-08-19 23:41:10.164,-1.38,0.595
2021-08-19 23:41:10.168,-1.26,0.135
2021-08-19 23:41:10.172,-1.13,-0.17
2021-08-19 23:41:10.176,-0.96,-0.39
2021-08-19 23:41:10.180,-0.8,-0.475
2021-08-19 23:41:10.184,-0.61,-0.525
2021-08-19 23:41:10.188,-0.395,-0.515
2021-08-19 23:41:10.192,-0.17,-0.53
2021-08-19 23:41:10.196,0.06,-0.515
2021-08-19 23:41:10.200,0.245,-0.49
2021-08-19 23:41:10.204,0.395,-0.505
2021-08-19 23:41:10.208,0.47,-0.5
2021-08-19 23:41:10.212,0.535,-0.505
2021-08-19 23:41:10.216,0.565,-0.52
2021-08-19 23:41:10.220,0.62,-0.51
2021-08-19 23:41:10.224,0.6,-0.515
2021-08-19 23:41:10.228,0.635,-0.525
2021-08-19 23:41:10.232,0.68,-0.515
2021-08-19 23:41:10.236,0.69,-0.5
2021-08-19 23:41:10.240,0.7,-0.515
2021-08-19 23:41:10.244,0.675,-0.5
2021-08-19 23:41:10.248,0.705,-0.5
2021-08-19 23:41:10.252,0.725,-0.5
2021-08-19 23:41:10.256,0.725,-0.495
2021-08-19 23:41:10.260,0.75,-0.485
2021-08-19 23:41:10.264,0.77,-0.485
2021-08-19 23:41:10.268,0.785,-0.495
2021-08-19 23:41:10.272,0.785,-0.48
2021-08-19 23:41:10.276,0.85,-0.48
2021-08-19 23:41:10.280,0.84,-0.485
2021-08-19 23:41:10.284,0.87,-0.495
2021-08-19 23:41:10.288,0.89,-0.48
2021-08-19 23:41:10.292,0.925,-0.485
2021-08-19 23:41:10.296,0.945,-0.49
2021-08-19 23:41:10.300,0.965,-0.48
2021-08-19 23:41:10.304,0.99,-0.5
2021-08-19 23:41:10.308,1.01,-0.51
2021-08-19 23:41:10.312,1.055,-0.51
2021-08-19 23:41:10.316,1.075,-0.515
2021-08-19 23:41:10.320,1.11,-0.53
2021-08-19 23:41:10.324,1.115,-0.53
2021-08-19 23:41:10.328,1.155,-0.535
2021-08-19 23:41:10.332,1.19,-0.54
2021-08-19 23:41:10.336,1.185,-0.52
2021-08-19 23:41:10.340,1.2,-0.535
2021-08-19 23:41:10.344,1.195,-0.53
2021-08-19 23:41:10.348,1.195,-0.505
2021-08-19 23:41:10.352,1.21,-0.495
2021-08-19 23:41:10.356,1.185,-0.5
2021-08-19 23:41:10.360,1.185,-0.47
2021-08-19 23:41:10.364,1.135,-0.42
2021-08-19 23:41:10.368,1.125,-0.39
2021-08-19 23:41:10.372,1.085,-0.365
2021-08-19 23:41:10.376,1.05,-0.305
2021-08-19 23:41:10.380,1.005,-0.305
2021-08-19 23:41:10.384,0.935,-0.255
2021-08-19 23:41:10.388,0.89,-0.23
2021-08-19 23:41:10.392,0.83,-0.2
2021-08-19 23:41:10.396,0.78,-0.17
2021-08-19 23:41:10.400,0.73,-0.155
2021-08-19 23:41:10.404,0.67,-0.165
2021-08-19 23:41:10.408,0.615,-0.135
2021-08-19 23:41:10.412,0.56,-0.14
2021-08-19 23:41:10.416,0.51,-0.135
2021-08-19 23:41:10.420,0.45,-0.155
2021-08-19 23:41:10.424,0.395,-0.16
2021-08-19 23:41:10.428,0.355,-0.145
2021-08-19 23:41:10.432,0.33,-0.165
2021-08-19 23:41:10.436,0.29,-0.195
2021-08-19 23:41:10.440,0.265,-0.175
2021-08-19 23:41:10.444,0.255,-0.175
2021-08-19 23:41:10.448,0.245,-0.165
2021-08-19 23:41:10.452,0.22,-0.195
2021-08-19 23:41:10.456,0.23,-0.215
2021-08-19 23:41:10.460,0.2,-0.205
2021-08-19 23:41:10.464,0.205,-0.19
2021-08-19 23:41:10.468,0.195,-0.205
2021-08-19 23:41:10.472,0.185,-0.21
2021-08-19 23:41:10.476,0.18,-0.225
2021-08-19 23:41:10.480,0.19,-0.22
2021-08-19 23:41:10.484,0.175,-0.235
2021-08-19 23:41:10.488,0.16,-0.245
2021-08-19 23:41:10.492,0.175,-0.225
2021-08-19 23:41:10.496,0.155,-0.225
2021-08-19 23:41:10.500,0.16,-0.23
2021-08-19 23:41:10.504,0.16,-0.245
2021-08-19 23:41:10.508,0.14,-0.24
2021-08-19 23:41:10.512,0.185,-0.25
2021-08-19 23:41:10.516,0.165,-0.26
2021-08-19 23:41:10.520,0.175,-0.26
2021-08-19 23:41:10.524,0.18,-0.26
2021-08-19 23:41:10.528,0.17,-0.24
2021-08-19 23:41:10.532,0.165,-0.25
2021-08-19 23:41:10.536,0.155,-0.275
2021-08-19 23:41:10.540,0.17,-0.28
2021-08-19 23:41:10.544,0.155,-0.25
2021-08-19 23:41:10.548,0.16,-0.28
2021-08-19 23:41:10.552,0.16,-0.285
2021-08-19 23:41:10.556,0.15,-0.27
2021-08-19 23:41:10.560,0.14,-0.275
2021-08-19 23:41:10.564,0.16,-0.28
2021-08-19 23:41:10.568,0.13,-0.29
2021-08-19 23:41:10.572,0.15,-0.28
2021-08-19 23:41:10.576,0.15,-0.285
2021-08-19 23:41:10.580,0.13,-0.275
2021-08-19 23:41:10.584,0.13,-0.28
2021-08-19 23:41:10.588,0.125,-0.3
2021-08-19 23:41:10.592,0.125,-0.285
2021-08-19 23:41:10.596,0.13,-0.265
2021-08-19 23:41:10.600,0.12,-0.28
2021-08-19 23:41:10.604,0.115,-0.28
2021-08-19 23:41:10.608,0.125,-0.28
2021-08-19 23:41:10.612,0.095,-0.255
2021-08-19 23:41:10.616,0.075,-0.28
2021-08-19 23:41:10.620,0.115,-0.265
2021-08-19 23:41:10.624,0.095,-0.265
2021-08-19 23:41:10.628,0.1,-0.235
2021-08-19 23:41:10.632,0.095,-0.245
2021-08-19 23:41:10.636,0.085,-0.26
2021-08-19 23:41:10.640,0.09,-0.255
2021-08-19 23:41:10.644,0.085,-0.245
2021-08-19 23:41:10.648,0.075,-0.225
2021-08-19 23:41:10.652,0.07,-0.255
2021-08-19 23:41:10.656,0.095,-0.25
2021-08-19 23:41:10.660,0.11,-0.23
2021-08-19 23:41:10.664,0.08,-0.225
2021-08-19 23:41:10.668,0.08,-0.22
2021-08-19 23:41:10.672,0.075,-0.225
2021-08-19 23:41:10.676,0.105,-0.21
2021-08-19 23:41:10.680,0.08,-0.15
2021-08-19 23:41:10.684,0.08,-0.15
2021-08-19 23:41:10.688,0.11,-0.13
2021-08-19 23:41:10.692,0.13,-0.1
2021-08-19 23:41:10.696,0.155,-0.075
2021-08-19 23:41:10.700,0.18,-0.06
2021-08-19 23:41:10.704,0.22,-0.055
2021-08-19 23:41:10.708,0.195,-0.04
2021-08-19 23:41:10.712,0.235,0.0
2021-08-19 23:41:10.716,0.245,-0.015
2021-08-19 23:41:10.720,0.275,-0.035
2021-08-19 23:41:10.724,0.27,-0.06
2021-08-19 23:41:10.728,0.265,-0.07
2021-08-19 23:41:10.732,0.205,-0.05
2021-08-19 23:41:10.736,0.175,-0.09
2021-08-19 23:41:10.740,0.16,-0.1
2021-08-19 23:41:10.744,0.13,-0.14
2021-08-19 23:41:10.748,0.125,-0.145
2021-08-19 23:41:10.752,0.095,-0.17
2021-08-19 23:41:10.756,0.065,-0.185
2021-08-19 23:41:10.760,0.05,-0.19
2021-08-19 23:41:10.764,0.01,-0.205
2021-08-19 23:41:10.768,0.02,-0.25
2021-08-19 23:41:10.772,0.025,-0.28
2021-08-19 23:41:10.776,0.025,-0.285
2021-08-19 23:41:10.780,0.03,-0.28
2021-08-19 23:41:10.784,0.02,-0.275
2021-08-19 23:41:10.788,0.035,-0.275
2021-08-19 23:41:10.792,0.04,-0.29
2021-08-19 23:41:10.796,0.035,-0.295
2021-08-19 23:41:10.800,0.02,-0.29
2021-08-19 23:41:10.804,0.005,-0.265
2021-08-19 23:41:10.808,0.03,-0.285
2021-08-19 23:41:10.812,0.015,-0.28
2021-08-19 23:41:10.816,0.01,-0.29
2021-08-19 23:41:10.820,0.015,-0.3
2021-08-19 23:41:10.824,0.04,-0.305
2021-08-19 23:41:10.828,0.01,-0.28
2021-08-19 23:41:10.832,0.025,-0.28
2021-08-19 23:41:10.836,0.02,-0.265
2021-08-19 23:41:10.840,0.01,-0.27
2021-08-19 23:41:10.844,0.03,-0.27
2021-08-19 23:41:10.848,0.055,-0.24
2021-08-19 23:41:10.852,0.035,-0.245
2021-08-19 23:41:10.856,0.03,-0.25
2021-08-19 23:41:10.860,0.035,-0.195
2021-08-19 23:41:10.864,0.035,-0.125
2021-08-19 23:41:10.868,0.025,0.02
2021-08-19 23:41:10.872,0.105,0.215
2021-08-19 23:41:10.876,0.165,0.495
2021-08-19 23:41:10.880,0.155,0.72
2021-08-19 23:41:10.884,-0.09,0.87
2021-08-19 23:41:10.888,-0.48,1.005
2021-08-19 23:41:10.892,-1.12,1.245
2021-08-19 23:41:10.896,-1.91,1.475
2021-08-19 23:41:10.944,-1.885,1.25
2021-08-19 23:41:10.948,-1.75,1.09
2021-08-19 23:41:10.952,-1.585,0.74
2021-08-19 23:41:10.956,-1.45,0.24
2021-08-19 23:41:10.960,-1.335,-0.16
2021-08-19 23:41:10.964,-1.175,-0.39
2021-08-19 23:41:10.968,-1.0,-0.51
2021-08-19 23:41:10.972,-0.835,-0.51
2021-08-19 23:41:10.976,-0.64,-0.525
2021-08-19 23:41:10.980,-0.405,-0.545
2021-08-19 23:41:10.984,-0.18,-0.545
2021-08-19 23:41:10.988,0.01,-0.495
2021-08-19 23:41:10.992,0.21,-0.485
2021-08-19 23:41:10.996,0.36,-0.505
2021-08-19 23:41:11.000,0.435,-0.51
2021-08-19 23:41:11.004,0.47,-0.5
2021-08-19 23:41:11.008,0.515,-0.48
2021-08-19 23:41:11.012,0.515,-0.48
2021-08-19 23:41:11.016,0.565,-0.495
2021-08-19 23:41:11.020,0.59,-0.475
2021-08-19 23:41:11.024,0.595,-0.475
2021-08-19 23:41:11.028,0.63,-0.48
2021-08-19 23:41:11.032,0.65,-0.495
2021-08-19 23:41:11.036,0.635,-0.465
2021-08-19 23:41:11.040,0.655,-0.48
2021-08-19 23:41:11.044,0.66,-0.45
2021-08-19 23:41:11.048,0.67,-0.47
2021-08-19 23:41:11.052,0.665,-0.465
2021-08-19 23:41:11.056,0.715,-0.47
2021-08-19 23:41:11.060,0.73,-0.455
2021-08-19 23:41:11.064,0.75,-0.47
2021-08-19 23:41:11.068,0.755,-0.47
2021-08-19 23:41:11.072,0.8,-0.435
2021-08-19 23:41:11.076,0.81,-0.465
2021-08-19 23:41:11.080,0.835,-0.45
2021-08-19 23:41:11.084,0.875,-0.475
2021-08-19 23:41:11.088,0.895,-0.465
2021-08-19 23:41:11.092,0.935,-0.475
2021-08-19 23:41:11.096,0.955,-0.49
2021-08-19 23:41:11.100,0.965,-0.495
2021-08-19 23:41:11.104,0.99,-0.49
2021-08-19 23:41:11.108,1.04,-0.485
2021-08-19 23:41:11.112,1.05,-0.51
2021-08-19 23:41:11.116,1.085,-0.525
2021-08-19 23:41:11.120,1.09,-0.535
2021-08-19 23:41:11.124,1.115,-0.53
2021-08-19 23:41:11.128,1.11,-0.545
2021-08-19 23:41:11.132,1.12,-0.545
2021-08-19 23:41:11.136,1.145,-0.535
2021-08-19 23:41:11.140,1.13,-0.485
2021-08-19 23:41:11.144,1.105,-0.455
2021-08-19 23:41:11.148,1.06,-0.455
2021-08-19 23:41:11.152,1.035,-0.415
2021-08-19 23:41:11.156,1.0,-0.38
2021-08-19 23:41:11.160,0.985,-0.33
2021-08-19 23:41:11.164,0.895,-0.32
2021-08-19 23:41:11.168,0.875,-0.3
2021-08-19 23:41:11.172,0.825,-0.255
2021-08-19 23:41:11.176,0.76,-0.23
2021-08-19 23:41:11.180,0.67,-0.185
2021-08-19 23:41:11.184,0.655,-0.185
2021-08-19 23:41:11.188,0.6,-0.16
2021-08-19 23:41:11.192,0.54,-0.145
2021-08-19 23:41:11.196,0.485,-0.17
2021-08-19 23:41:11.200,0.42,-0.175
2021-08-19 23:41:11.204,0.37,-0.17
2021-08-19 23:41:11.208,0.305,-0.17
2021-08-19 23:41:11.212,0.25,-0.17
2021-08-19 23:41:11.216,0.215,-0.19
2021-08-19 23:41:11.220,0.185,-0.195
2021-08-19 23:41:11.224,0.15,-0.195
2021-08-19 23:41:11.228,0.125,-0.205
2021-08-19 23:41:11.232,0.09,-0.23
2021-08-19 23:41:11.236,0.075,-0.22
2021-08-19 23:41:11.240,0.06,-0.24
2021-08-19 23:41:11.244,0.05,-0.23
2021-08-19 23:41:11.248,0.035,-0.25
2021-08-19 23:41:11.252,0.03,-0.26
2021-08-19 23:41:11.256,0.045,-0.255
2021-08-19 23:41:11.260,0.005,-0.26
2021-08-19 23:41:11.264,0.005,-0.26
2021-08-19 23:41:11.268,-0.02,-0.27
2021-08-19 23:41:11.272,0.005,-0.28
2021-08-19 23:41:11.276,0.01,-0.275
2021-08-19 23:41:11.280,-0.005,-0.27
2021-08-19 23:41:11.284,-0.01,-0.29
2021-08-19 23:41:11.288,0.0,-0.27
2021-08-19 23:41:11.292,-0.005,-0.28
2021-08-19 23:41:11.296,-0.01,-0.29
2021-08-19 23:41:11.300,-0.01,-0.31
2021-08-19 23:41:11.304,0.0,-0.31
2021-08-19 23:41:11.308,-0.02,-0.3
2021-08-19 23:41:11.312,0.0,-0.32
2021-08-19 23:41:11.316,0.015,-0.3
2021-08-19 23:41:11.320,0.005,-0.32
2021-08-19 23:41:11.324,0.0,-0.32
2021-08-19 23:41:11.328,0.02,-0.335
2021-08-19 23:41:11.332,0.0,-0.31
2021-08-19 23:41:11.336,0.01,-0.32
2021-08-19 23:41:11.340,0.01,-0.32
2021-08-19 23:41:11.344,0.0,-0.315
2021-08-19 23:41:11.348,0.0,-0.32
2021-08-19 23:41:11.352,0.01,-0.35
2021-08-19 23:41:11.356,0.005,-0.335
2021-08-19 23:41:11.360,0.025,-0.34
2021-08-19 23:41:11.364,0.01,-0.355
2021-08-19 23:41:11.368,0.01,-0.34
2021-08-19 23:41:11.372,0.0,-0.33
2021-08-19 23:41:11.376,0.05,-0.345
2021-08-19 23:41:11.380,0.015,-0.325
2021-08-19 23:41:11.384,0.025,-0.345
2021-08-19 23:41:11.388,0.005,-0.315
2021-08-19 23:41:11.392,-0.01,-0.315
2021-08-19 23:41:11.396,-0.005,-0.32
2021-08-19 23:41:11.400,0.0,-0.335
2021-08-19 23:41:11.404,-0.01,-0.32
2021-08-19 23:41:11.408,-0.035,-0.33
2021-08-19 23:41:11.412,-0.035,-0.35
2021-08-19 23:41:11.416,-0.02,-0.32
2021-08-19 23:41:11.420,-0.01,-0.305
2021-08-19 23:41:11.424,-0.015,-0.3
2021-08-19 23:41:11.428,-0.02,-0.29
2021-08-19 23:41:11.432,-0.025,-0.29
2021-08-19 23:41:11.436,-0.025,-0.3
2021-08-19 23:41:11.440,-0.03,-0.28
2021-08-19 23:41:11.444,-0.035,-0.285
2021-08-19 23:41:11.448,-0.025,-0.245
2021-08-19 23:41:11.452,-0.03,-0.25
2021-08-19 23:41:11.456,-0.01,-0.205
2021-08-19 23:41:11.460,-0.005,-0.185
2021-08-19 23:41:11.464,0.005,-0.17
2021-08-19 23:41:11.468,0.015,-0.16
2021-08-19 23:41:11.472,0.04,-0.145
2021-08-19 23:41:11.476,0.065,-0.11
2021-08-19 23:41:11.480,0.085,-0.07
2021-08-19 23:41:11.484,0.125,-0.07
2021-08-19 23:41:11.488,0.14,-0.075
2021-08-19 23:41:11.492,0.165,-0.06
2021-08-19 23:41:11.496,0.145,-0.075
2021-08-19 23:41:11.500,0.165,-0.1
2021-08-19 23:41:11.504,0.12,-0.13
2021-08-19 23:41:11.508,0.09,-0.125
2021-08-19 23:41:11.512,0.065,-0.12
2021-08-19 23:41:11.516,0.04,-0.145
2021-08-19 23:41:11.520,0.0,-0.18
2021-08-19 23:41:11.524,0.0,-0.2
2021-08-19 23:41:11.528,-0.03,-0.24
2021-08-19 23:41:11.532,-0.035,-0.24
2021-08-19 23:41:11.536,-0.06,-0.26
2021-08-19 23:41:11.540,-0.105,-0.285
2021-08-19 23:41:11.544,-0.115,-0.33
2021-08-19 23:41:11.548,-0.1,-0.34
2021-08-19 23:41:11.552,-0.065,-0.325
2021-08-19 23:41:11.556,-0.095,-0.32
2021-08-19 23:41:11.560,-0.1,-0.34
2021-08-19 23:41:11.564,-0.115,-0.355
2021-08-19 23:41:11.568,-0.115,-0.34
2021-08-19 23:41:11.572,-0.12,-0.335
2021-08-19 23:41:11.576,-0.115,-0.345
2021-08-19 23:41:11.580,-0.095,-0.33
2021-08-19 23:41:11.584,-0.125,-0.33
2021-08-19 23:41:11.588,-0.095,-0.305
2021-08-19 23:41:11.592,-0.135,-0.355
2021-08-19 23:41:11.596,-0.14,-0.355
2021-08-19 23:41:11.600,-0.14,-0.32
2021-08-19 23:41:11.604,-0.155,-0.315
2021-08-19 23:41:11.608,-0.12,-0.34
2021-08-19 23:41:11.612,-0.13,-0.325
2021-08-19 23:41:11.616,-0.13,-0.28
2021-08-19 23:41:11.620,-0.135,-0.285
2021-08-19 23:41:11.624,-0.13,-0.29
2021-08-19 23:41:11.628,-0.12,-0.285
2021-08-19 23:41:11.632,-0.14,-0.25
2021-08-19 23:41:11.636,-0.105,-0.145
2021-08-19 23:41:11.640,-0.095,-0.01
2021-08-19 23:41:11.644,-0.06,0.215
2021-08-19 23:41:11.648,0.0,0.535
2021-08-19 23:41:11.652,0.03,0.915
2021-08-19 23:41:11.656,-0.13,1.125
2021-08-19 23:41:11.660,-0.435,1.26
2021-08-19 23:41:11.664,-0.975,1.43
2021-08-19 23:41:11.668,-1.71,1.65
2021-08-19 23:41:11.716,-1.975,1.375
2021-08-19 23:41:11.720,-1.845,1.45
2021-08-19 23:41:11.724,-1.725,1.315
2021-08-19 23:41:11.728,-1.57,0.88
2021-08-19 23:41:11.732,-1.46,0.395
2021-08-19 23:41:11.736,-1.355,0.04
2021-08-19 23:41:11.740,-1.18,-0.235
2021-08-19 23:41:11.744,-1.02,-0.455
2021-08-19 23:41:11.748,-0.835,-0.545
2021-08-19 23:41:11.752,-0.64,-0.575
2021-08-19 23:41:11.756,-0.455,-0.6
2021-08-19 23:41:11.760,-0.26,-0.585
2021-08-19 23:41:11.764,-0.09,-0.57
2021-08-19 23:41:11.768,0.085,-0.54
2021-08-19 23:41:11.772,0.215,-0.545
2021-08-19 23:41:11.776,0.295,-0.555
2021-08-19 23:41:11.780,0.345,-0.585
2021-08-19 23:41:11.784,0.375,-0.575
2021-08-19 23:41:11.788,0.39,-0.555
2021-08-19 23:41:11.792,0.41,-0.555
2021-08-19 23:41:11.796,0.445,-0.565
2021-08-19 23:41:11.800,0.475,-0.54
2021-08-19 23:41:11.804,0.44,-0.55
2021-08-19 23:41:11.808,0.47,-0.54
2021-08-19 23:41:11.812,0.49,-0.525
2021-08-19 23:41:11.816,0.495,-0.545
2021-08-19 23:41:11.820,0.53,-0.525
2021-08-19 23:41:11.824,0.53,-0.535
2021-08-19 23:41:11.828,0.55,-0.54
2021-08-19 23:41:11.832,0.565,-0.525
2021-08-19 23:41:11.836,0.57,-0.54
2021-08-19 23:41:11.840,0.575,-0.54
2021-08-19 23:41:11.844,0.605,-0.545
2021-08-19 23:41:11.848,0.625,-0.53
2021-08-19 23:41:11.852,0.65,-0.53
2021-08-19 23:41:11.856,0.675,-0.53
2021-08-19 23:41:11.860,0.72,-0.54
2021-08-19 23:41:11.864,0.74,-0.55
2021-08-19 23:41:11.868,0.77,-0.555
2021-08-19 23:41:11.872,0.805,-0.55
2021-08-19 23:41:11.876,0.815,-0.575
2021-08-19 23:41:11.880,0.84,-0.565
2021-08-19 23:41:11.884,0.855,-0.59
2021-08-19 23:41:11.888,0.88,-0.59
2021-08-19 23:41:11.892,0.89,-0.585
2021-08-19 23:41:11.896,0.905,-0.59
2021-08-19 23:41:11.900,0.925,-0.585
2021-08-19 23:41:11.904,0.93,-0.58
2021-08-19 23:41:11.908,0.95,-0.575
2021-08-19 23:41:11.912,0.95,-0.555
2021-08-19 23:41:11.916,0.95,-0.54
2021-08-19 23:41:11.920,0.92,-0.51
2021-08-19 23:41:11.924,0.905,-0.475
2021-08-19 23:41:11.928,0.895,-0.435
2021-08-19 23:41:11.932,0.85,-0.425
2021-08-19 23:41:11.936,0.83,-0.385
2021-08-19 23:41:11.940,0.805,-0.355
2021-08-19 23:41:11.944,0.755,-0.31
2021-08-19 23:41:11.948,0.735,-0.295
2021-08-19 23:41:11.952,0.68,-0.26
2021-08-19 23:41:11.956,0.61,-0.24
2021-08-19 23:41:11.960,0.535,-0.23
2021-08-19 23:41:11.964,0.495,-0.235
2021-08-19 23:41:11.968,0.44,-0.215
2021-08-19 23:41:11.972,0.385,-0.21
2021-08-19 23:41:11.976,0.3,-0.21
2021-08-19 23:41:11.980,0.295,-0.22
2021-08-19 23:41:11.984,0.25,-0.235
2021-08-19 23:41:11.988,0.155,-0.25
2021-08-19 23:41:11.992,0.15,-0.265
2021-08-19 23:41:11.996,0.11,-0.27
2021-08-19 23:41:12.000,0.08,-0.275
2021-08-19 23:41:12.004,0.025,-0.3
2021-08-19 23:41:12.008,0.02,-0.3
2021-08-19 23:41:12.012,0.025,-0.305
2021-08-19 23:41:12.016,0.005,-0.315
2021-08-19 23:41:12.020,-0.015,-0.31
2021-08-19 23:41:12.024,-0.015,-0.335
2021-08-19 23:41:12.028,-0.025,-0.335
2021-08-19 23:41:12.032,-0.025,-0.325
2021-08-19 23:41:12.036,-0.04,-0.32
2021-08-19 23:41:12.040,-0.04,-0.345
2021-08-19 23:41:12.044,-0.045,-0.33
2021-08-19 23:41:12.048,-0.05,-0.34
2021-08-19 23:41:12.052,-0.045,-0.335
2021-08-19 23:41:12.056,-0.045,-0.35
2021-08-19 23:41:12.060,-0.035,-0.365
2021-08-19 23:41:12.064,-0.05,-0.36
2021-08-19 23:41:12.068,-0.04,-0.365
2021-08-19 23:41:12.072,-0.035,-0.365
2021-08-19 23:41:12.076,-0.04,-0.365
2021-08-19 23:41:12.080,-0.025,-0.37
2021-08-19 23:41:12.084,-0.03,-0.385
2021-08-19 23:41:12.088,-0.005,-0.375
2021-08-19 23:41:12.092,-0.02,-0.395
2021-08-19 23:41:12.096,-0.025,-0.395
2021-08-19 23:41:12.100,-0.02,-0.375
2021-08-19 23:41:12.104,-0.02,-0.385
2021-08-19 23:41:12.108,-0.015,-0.395
2021-08-19 23:41:12.112,0.0,-0.4
2021-08-19 23:41:12.116,0.015,-0.4
2021-08-19 23:41:12.120,0.02,-0.39
2021-08-19 23:41:12.124,0.0,-0.415
2021-08-19 23:41:12.128,-0.02,-0.395
2021-08-19 23:41:12.132,0.0,-0.39
2021-08-19 23:41:12.136,-0.005,-0.405
2021-08-19 23:41:12.140,-0.01,-0.415
2021-08-19 23:41:12.144,-0.02,-0.4
2021-08-19 23:41:12.148,-0.025,-0.395
2021-08-19 23:41:12.152,-0.015,-0.385
2021-08-19 23:41:12.156,0.0,-0.425
2021-08-19 23:41:12.160,-0.015,-0.405
2021-08-19 23:41:12.164,-0.005,-0.385
2021-08-19 23:41:12.168,-0.01,-0.405
2021-08-19 23:41:12.172,-0.025,-0.4
2021-08-19 23:41:12.176,-0.02,-0.395
2021-08-19 23:41:12.180,-0.015,-0.375
2021-08-19 23:41:12.184,-0.01,-0.39
2021-08-19 23:41:12.188,-0.045,-0.385
2021-08-19 23:41:12.192,-0.05,-0.39
2021-08-19 23:41:12.196,-0.02,-0.35
2021-08-19 23:41:12.200,-0.04,-0.31
2021-08-19 23:41:12.204,-0.035,-0.295
2021-08-19 23:41:12.208,-0.01,-0.3
2021-08-19 23:41:12.212,0.005,-0.27
2021-08-19 23:41:12.216,0.04,-0.24
2021-08-19 23:41:12.220,0.06,-0.215
2021-08-19 23:41:12.224,0.07,-0.2
2021-08-19 23:41:12.228,0.105,-0.17
2021-08-19 23:41:12.232,0.145,-0.125
2021-08-19 23:41:12.236,0.135,-0.17
2021-08-19 23:41:12.240,0.17,-0.18
2021-08-19 23:41:12.244,0.145,-0.185
2021-08-19 23:41:12.248,0.15,-0.215
2021-08-19 23:41:12.252,0.13,-0.21
2021-08-19 23:41:12.256,0.085,-0.235
2021-08-19 23:41:12.260,0.05,-0.235
2021-08-19 23:41:12.264,0.03,-0.255
2021-08-19 23:41:12.268,0.035,-0.275
2021-08-19 23:41:12.272,-0.02,-0.31
2021-08-19 23:41:12.276,-0.04,-0.33
2021-08-19 23:41:12.280,-0.055,-0.32
2021-08-19 23:41:12.284,-0.09,-0.345
2021-08-19 23:41:12.288,-0.13,-0.41
2021-08-19 23:41:12.292,-0.1,-0.43
2021-08-19 23:41:12.296,-0.075,-0.415
2021-08-19 23:41:12.300,-0.075,-0.4
2021-08-19 23:41:12.304,-0.095,-0.41
2021-08-19 23:41:12.308,-0.085,-0.405
2021-08-19 23:41:12.312,-0.085,-0.42
2021-08-19 23:41:12.316,-0.075,-0.395
2021-08-19 23:41:12.320,-0.105,-0.385
2021-08-19 23:41:12.324,-0.1,-0.415
2021-08-19 23:41:12.328,-0.07,-0.425
2021-08-19 23:41:12.332,-0.075,-0.39
2021-08-19 23:41:12.336,-0.075,-0.38
2021-08-19 23:41:12.340,-0.06,-0.39
2021-08-19 23:41:12.344,-0.08,-0.405
2021-08-19 23:41:12.348,-0.08,-0.385
2021-08-19 23:41:12.352,-0.08,-0.38
2021-08-19 23:41:12.356,-0.08,-0.39
2021-08-19 23:41:12.360,-0.05,-0.38
2021-08-19 23:41:12.364,-0.07,-0.335
2021-08-19 23:41:12.368,-0.07,-0.35
2021-08-19 23:41:12.372,-0.055,-0.365
2021-08-19 23:41:12.376,-0.065,-0.34
2021-08-19 23:41:12.380,-0.065,-0.275
2021-08-19 23:41:12.384,-0.05,-0.185
2021-08-19 23:41:12.388,-0.045,-0.02
2021-08-19 23:41:12.392,0.03,0.215
2021-08-19 23:41:12.396,0.115,0.58
2021-08-19 23:41:12.400,0.055,0.83
2021-08-19 23:41:12.404,-0.225,0.995
2021-08-19 23:41:12.408,-0.67,1.16
2021-08-19 23:41:12.412,-1.41,1.45
2021-08-19 23:41:12.460,-1.985,1.5
2021-08-19 23:41:12.464,-1.81,1.575
2021-08-19 23:41:12.468,-1.695,1.445
2021-08-19 23:41:12.472,-1.535,1.03
2021-08-19 23:41:12.476,-1.395,0.54
2021-08-19 23:41:12.480,-1.275,0.11
2021-08-19 23:41:12.484,-1.13,-0.19
2021-08-19 23:41:12.488,-0.955,-0.43
2021-08-19 23:41:12.492,-0.795,-0.54
2021-08-19 23:41:12.496,-0.6,-0.59
2021-08-19 23:41:12.500,-0.4,-0.6
2021-08-19 23:41:12.504,-0.175,-0.6
2021-08-19 23:41:12.508,0.035,-0.565
2021-08-19 23:41:12.512,0.215,-0.56
2021-08-19 23:41:12.516,0.335,-0.59
2021-08-19 23:41:12.520,0.41,-0.595
2021-08-19 23:41:12.524,0.48,-0.585
2021-08-19 23:41:12.528,0.505,-0.605
2021-08-19 23:41:12.532,0.53,-0.595
2021-08-19 23:41:12.536,0.56,-0.58
2021-08-19 23:41:12.540,0.56,-0.58
2021-08-19 23:41:12.544,0.595,-0.58
2021-08-19 23:41:12.548,0.6,-0.575
2021-08-19 23:41:12.552,0.625,-0.575
2021-08-19 23:41:12.556,0.635,-0.585
2021-08-19 23:41:12.560,0.655,-0.57
2021-08-19 23:41:12.564,0.66,-0.59
2021-08-19 23:41:12.568,0.68,-0.58
2021-08-19 23:41:12.572,0.705,-0.56
2021-08-19 23:41:12.576,0.73,-0.57
2021-08-19 23:41:12.580,0.755,-0.57
2021-08-19 23:41:12.584,0.765,-0.595
2021-08-19 23:41:12.588,0.79,-0.565
2021-08-19 23:41:12.592,0.825,-0.58
2021-08-19 23:41:12.596,0.855,-0.595
2021-08-19 23:41:12.600,0.88,-0.605
2021-08-19 23:41:12.604,0.92,-0.605
2021-08-19 23:41:12.608,0.93,-0.635
2021-08-19 23:41:12.612,0.94,-0.62
2021-08-19 23:41:12.616,0.975,-0.64
2021-08-19 23:41:12.620,0.995,-0.655
2021-08-19 23:41:12.624,1.01,-0.66
2021-08-19 23:41:12.628,1.035,-0.66
2021-08-19 23:41:12.632,1.055,-0.68
2021-08-19 23:41:12.636,1.075,-0.685
2021-08-19 23:41:12.640,1.085,-0.685
2021-08-19 23:41:12.644,1.115,-0.665
2021-08-19 23:41:12.648,1.12,-0.665
2021-08-19 23:41:12.652,1.12,-0.635
2021-08-19 23:41:12.656,1.13,-0.615
2021-08-19 23:41:12.660,1.095,-0.595
2021-08-19 23:41:12.664,1.1,-0.58
2021-08-19 23:41:12.668,1.06,-0.555
2021-08-19 23:41:12.672,1.04,-0.5
2021-08-19 23:41:12.676,0.965,-0.46
2021-08-19 23:41:12.680,0.92,-0.43
2021-08-19 23:41:12.684,0.88,-0.39
2021-08-19 23:41:12.688,0.835,-0.335
2021-08-19 23:41:12.692,0.77,-0.3
2021-08-19 23:41:12.696,0.69,-0.29
2021-08-19 23:41:12.700,0.65,-0.265
2021-08-19 23:41:12.704,0.6,-0.24
2021-08-19 23:41:12.708,0.505,-0.215
2021-08-19 23:41:12.712,0.45,-0.21
2021-08-19 23:41:12.716,0.4,-0.225
2021-08-19 23:41:12.720,0.345,-0.21
2021-08-19 23:41:12.724,0.32,-0.18
2021-08-19 23:41:12.728,0.275,-0.215
2021-08-19 23:41:12.732,0.21,-0.235
2021-08-19 23:41:12.736,0.19,-0.21
2021-08-19 23:41:12.740,0.175,-0.215
2021-08-19 23:41:12.744,0.14,-0.22
2021-08-19 23:41:12.748,0.125,-0.235
2021-08-19 23:41:12.752,0.095,-0.24
2021-08-19 23:41:12.756,0.095,-0.235
2021-08-19 23:41:12.760,0.07,-0.255
2021-08-19 23:41:12.764,0.065,-0.265
2021-08-19 23:41:12.768,0.065,-0.26
2021-08-19 23:41:12.772,0.07,-0.265
2021-08-19 23:41:12.776,0.04,-0.275
2021-08-19 23:41:12.780,0.03,-0.285
2021-08-19 23:41:12.784,0.045,-0.285
2021-08-19 23:41:12.788,0.06,-0.26
2021-08-19 23:41:12.792,0.065,-0.27
2021-08-19 23:41:12.796,0.05,-0.295
2021-08-19 23:41:12.800,0.05,-0.31
2021-08-19 23:41:12.804,0.05,-0.285
2021-08-19 23:41:12.808,0.055,-0.3
2021-08-19 23:41:12.812,0.035,-0.3
2021-08-19 23:41:12.816,0.05,-0.31
2021-08-19 23:41:12.820,0.06,-0.3
2021-08-19 23:41:12.824,0.04,-0.29
2021-08-19 23:41:12.828,0.05,-0.305
2021-08-19 23:41:12.832,0.045,-0.325
2021-08-19 23:41:12.836,0.07,-0.325
2021-08-19 23:41:12.840,0.055,-0.325
2021-08-19 23:41:12.844,0.03,-0.32
2021-08-19 23:41:12.848,0.04,-0.365
2021-08-19 23:41:12.852,0.03,-0.335
2021-08-19 23:41:12.856,0.03,-0.345
2021-08-19 23:41:12.860,0.03,-0.335
2021-08-19 23:41:12.864,0.04,-0.36
2021-08-19 23:41:12.868,0.035,-0.355
2021-08-19 23:41:12.872,0.02,-0.34
2021-08-19 23:41:12.876,0.015,-0.34
2021-08-19 23:41:12.880,0.015,-0.34
2021-08-19 23:41:12.884,0.0,-0.36
2021-08-19 23:41:12.888,0.0,-0.335
2021-08-19 23:41:12.892,-0.015,-0.335
2021-08-19 23:41:12.896,0.005,-0.32
2021-08-19 23:41:12.900,0.025,-0.32
2021-08-19 23:41:12.904,0.005,-0.25
2021-08-19 23:41:12.908,0.0,-0.225
2021-08-19 23:41:12.912,0.02,-0.23
2021-08-19 23:41:12.916,0.05,-0.19
2021-08-19 23:41:12.920,0.07,-0.15
2021-08-19 23:41:12.924,0.105,-0.135
2021-08-19 23:41:12.928,0.13,-0.125
2021-08-19 23:41:12.932,0.135,-0.125
2021-08-19 23:41:12.936,0.18,-0.115
2021-08-19 23:41:12.940,0.18,-0.105
2021-08-19 23:41:12.944,0.155,-0.135
2021-08-19 23:41:12.948,0.165,-0.185
2021-08-19 23:41:12.952,0.14,-0.2
2021-08-19 23:41:12.956,0.09,-0.18
2021-08-19 23:41:12.960,0.045,-0.18
2021-08-19 23:41:12.964,0.01,-0.22
2021-08-19 23:41:12.968,0.005,-0.265
2021-08-19 23:41:12.972,0.0,-0.27
2021-08-19 23:41:12.976,-0.045,-0.28
2021-08-19 23:41:12.980,-0.065,-0.305
2021-08-19 23:41:12.984,-0.09,-0.33
2021-08-19 23:41:12.988,-0.11,-0.38
2021-08-19 23:41:12.992,-0.12,-0.41
2021-08-19 23:41:12.996,-0.1,-0.39
2021-08-19 23:41:13.000,-0.105,-0.405
2021-08-19 23:41:13.004,-0.12,-0.395
2021-08-19 23:41:13.008,-0.105,-0.395
2021-08-19 23:41:13.012,-0.115,-0.41
2021-08-19 23:41:13.016,-0.125,-0.39
2021-08-19 23:41:13.020,-0.11,-0.375
2021-08-19 23:41:13.024,-0.11,-0.37
2021-08-19 23:41:13.028,-0.115,-0.385
2021-08-19 23:41:13.032,-0.11,-0.37
2021-08-19 23:41:13.036,-0.11,-0.37
2021-08-19 23:41:13.040,-0.115,-0.385
2021-08-19 23:41:13.044,-0.115,-0.385
2021-08-19 23:41:13.048,-0.115,-0.37
2021-08-19 23:41:13.052,-0.13,-0.35
2021-08-19 23:41:13.056,-0.12,-0.375
2021-08-19 23:41:13.060,-0.13,-0.38
2021-08-19 23:41:13.064,-0.11,-0.345
2021-08-19 23:41:13.068,-0.12,-0.36
2021-08-19 23:41:13.072,-0.125,-0.34
2021-08-19 23:41:13.076,-0.12,-0.305
2021-08-19 23:41:13.080,-0.095,-0.25
2021-08-19 23:41:13.084,-0.11,-0.14
2021-08-19 23:41:13.088,-0.08,0.025
2021-08-19 23:41:13.092,0.005,0.27
2021-08-19 23:41:13.096,0.07,0.515
2021-08-19 23:41:13.100,-0.115,0.68
2021-08-19 23:41:13.104,-0.52,0.875
2021-08-19 23:41:13.108,-1.175,1.18
2021-08-19 23:41:13.160,-1.935,1.28
2021-08-19 23:41:13.164,-1.785,1.225
2021-08-19 23:41:13.168,-1.655,0.92
2021-08-19 23:41:13.172,-1.495,0.42
2021-08-19 23:41:13.176,-1.41,-0.02
2021-08-19 23:41:13.180,-1.255,-0.315
2021-08-19 23:41:13.184,-1.08,-0.495
2021-08-19 23:41:13.188,-0.9,-0.55
2021-08-19 23:41:13.192,-0.73,-0.565
2021-08-19 23:41:13.196,-0.5,-0.6
2021-08-19 23:41:13.200,-0.285,-0.61
2021-08-19 23:41:13.204,-0.07,-0.585
2021-08-19 23:41:13.208,0.115,-0.56
2021-08-19 23:41:13.212,0.245,-0.59
2021-08-19 23:41:13.216,0.335,-0.605
2021-08-19 23:41:13.220,0.385,-0.6
2021-08-19 23:41:13.224,0.42,-0.555
2021-08-19 23:41:13.228,0.44,-0.565
2021-08-19 23:41:13.232,0.475,-0.59
2021-08-19 23:41:13.236,0.515,-0.58
2021-08-19 23:41:13.240,0.525,-0.56
2021-08-19 23:41:13.244,0.54,-0.555
2021-08-19 23:41:13.248,0.54,-0.555
2021-08-19 23:41:13.252,0.56,-0.575
2021-08-19 23:41:13.256,0.575,-0.54
2021-08-19 23:41:13.260,0.575,-0.535
2021-08-19 23:41:13.264,0.61,-0.555
2021-08-19 23:41:13.268,0.635,-0.56
2021-08-19 23:41:13.272,0.66,-0.54
2021-08-19 23:41:13.276,0.695,-0.535
2021-08-19 23:41:13.280,0.705,-0.55
2021-08-19 23:41:13.284,0.74,-0.56
2021-08-19 23:41:13.288,0.785,-0.545
2021-08-19 23:41:13.292,0.785,-0.55
2021-08-19 23:41:13.296,0.8,-0.56
2021-08-19 23:41:13.300,0.845,-0.595
2021-08-19 23:41:13.304,0.865,-0.565
2021-08-19 23:41:13.308,0.92,-0.565
2021-08-19 23:41:13.312,0.945,-0.58
2021-08-19 23:41:13.316,1.01,-0.605
2021-08-19 23:41:13.320,1.015,-0.59
2021-08-19 23:41:13.324,1.04,-0.595
2021-08-19 23:41:13.328,1.06,-0.595
2021-08-19 23:41:13.332,1.095,-0.63
2021-08-19 23:41:13.336,1.125,-0.61
2021-08-19 23:41:13.340,1.14,-0.615
2021-08-19 23:41:13.344,1.13,-0.61
2021-08-19 23:41:13.348,1.12,-0.61
2021-08-19 23:41:13.352,1.125,-0.57
2021-08-19 23:41:13.356,1.085,-0.535
2021-08-19 23:41:13.360,1.05,-0.54
2021-08-19 23:41:13.364,1.0,-0.52
2021-08-19 23:41:13.368,0.975,-0.47
2021-08-19 23:41:13.372,0.915,-0.43
2021-08-19 23:41:13.376,0.855,-0.415
2021-08-19 23:41:13.380,0.81,-0.375
2021-08-19 23:41:13.384,0.745,-0.34
2021-08-19 23:41:13.388,0.71,-0.295
2021-08-19 23:41:13.392,0.625,-0.28
2021-08-19 23:41:13.396,0.575,-0.285
2021-08-19 23:41:13.400,0.495,-0.23
2021-08-19 23:41:13.404,0.425,-0.225
2021-08-19 23:41:13.408,0.34,-0.225
2021-08-19 23:41:13.412,0.305,-0.24
2021-08-19 23:41:13.416,0.27,-0.235
2021-08-19 23:41:13.420,0.225,-0.23
2021-08-19 23:41:13.424,0.165,-0.225
2021-08-19 23:41:13.428,0.1,-0.25
2021-08-19 23:41:13.432,0.1,-0.255
2021-08-19 23:41:13.436,0.09,-0.245
2021-08-19 23:41:13.440,0.045,-0.275
2021-08-19 23:41:13.444,0.05,-0.28
2021-08-19 23:41:13.448,0.035,-0.275
2021-08-19 23:41:13.452,0.02,-0.27
2021-08-19 23:41:13.456,0.005,-0.285
2021-08-19 23:41:13.460,0.01,-0.295
2021-08-19 23:41:13.464,0.02,-0.3
2021-08-19 23:41:13.468,0.0,-0.285
2021-08-19 23:41:13.472,-0.025,-0.29
2021-08-19 23:41:13.476,-0.005,-0.315
2021-08-19 23:41:13.480,0.0,-0.305
2021-08-19 23:41:13.484,-0.005,-0.285
2021-08-19 23:41:13.488,0.01,-0.295
2021-08-19 23:41:13.492,0.0,-0.33
2021-08-19 23:41:13.496,-0.005,-0.3
2021-08-19 23:41:13.500,0.0,-0.315
2021-08-19 23:41:13.504,0.0,-0.315
2021-08-19 23:41:13.508,-0.015,-0.33
2021-08-19 23:41:13.512,0.01,-0.32
2021-08-19 23:41:13.516,-0.015,-0.32
2021-08-19 23:41:13.520,-0.01,-0.335
2021-08-19 23:41:13.524,-0.01,-0.35
2021-08-19 23:41:13.528,-0.025,-0.355
2021-08-19 23:41:13.532,-0.01,-0.34
2021-08-19 23:41:13.536,-0.01,-0.345
2021-08-19 23:41:13.540,-0.015,-0.345
2021-08-19 23:41:13.544,-0.025,-0.375
2021-08-19 23:41:13.548,-0.02,-0.35
2021-08-19 23:41:13.552,-0.01,-0.355
2021-08-19 23:41:13.556,-0.01,-0.37
2021-08-19 23:41:13.560,-0.005,-0.355
2021-08-19 23:41:13.564,0.0,-0.33
2021-08-19 23:41:13.568,-0.015,-0.35
2021-08-19 23:41:13.572,-0.015,-0.345
2021-08-19 23:41:13.576,-0.035,-0.37
2021-08-19 23:41:13.580,-0.015,-0.365
2021-08-19 23:41:13.584,-0.03,-0.35
2021-08-19 23:41:13.588,-0.035,-0.34
2021-08-19 23:41:13.592,-0.005,-0.335
2021-08-19 23:41:13.596,-0.035,-0.345
2021-08-19 23:41:13.600,-0.03,-0.32
2021-08-19 23:41:13.604,-0.03,-0.3
2021-08-19 23:41:13.608,-0.04,-0.265
2021-08-19 23:41:13.612,-0.04,-0.24
2021-08-19 23:41:13.616,-0.015,-0.225
2021-08-19 23:41:13.620,0.02,-0.19
2021-08-19 23:41:13.624,0.085,-0.165
2021-08-19 23:41:13.628,0.09,-0.145
2021-08-19 23:41:13.632,0.1,-0.115
2021-08-19 23:41:13.636,0.135,-0.11
2021-08-19 23:41:13.640,0.14,-0.11
2021-08-19 23:41:13.644,0.15,-0.1
2021-08-19 23:41:13.648,0.13,-0.13
2021-08-19 23:41:13.652,0.11,-0.16
2021-08-19 23:41:13.656,0.065,-0.15
2021-08-19 23:41:13.660,0.05,-0.185
2021-08-19 23:41:13.664,0.015,-0.205
2021-08-19 23:41:13.668,0.015,-0.21
2021-08-19 23:41:13.672,0.005,-0.25
2021-08-19 23:41:13.676,0.0,-0.27
2021-08-19 23:41:13.680,-0.06,-0.28
2021-08-19 23:41:13.684,-0.095,-0.32
2021-08-19 23:41:13.688,-0.095,-0.325
2021-08-19 23:41:13.692,-0.09,-0.385
2021-08-19 23:41:13.696,-0.07,-0.395
2021-08-19 23:41:13.700,-0.05,-0.41
2021-08-19 23:41:13.704,-0.09,-0.385
2021-08-19 23:41:13.708,-0.1,-0.39
2021-08-19 23:41:13.712,-0.115,-0.4
2021-08-19 23:41:13.716,-0.1,-0.395
2021-08-19 23:41:13.720,-0.105,-0.385
2021-08-19 23:41:13.724,-0.12,-0.37
2021-08-19 23:41:13.728,-0.125,-0.385
2021-08-19 23:41:13.732,-0.11,-0.385
2021-08-19 23:41:13.736,-0.13,-0.375
2021-08-19 23:41:13.740,-0.13,-0.365
2021-08-19 23:41:13.744,-0.13,-0.38
2021-08-19 23:41:13.748,-0.155,-0.38
2021-08-19 23:41:13.752,-0.135,-0.355
2021-08-19 23:41:13.756,-0.135,-0.325
2021-08-19 23:41:13.760,-0.125,-0.36
2021-08-19 23:41:13.764,-0.135,-0.36
2021-08-19 23:41:13.768,-0.13,-0.335
2021-08-19 23:41:13.772,-0.125,-0.325
2021-08-19 23:41:13.776,-0.14,-0.32
2021-08-19 23:41:13.780,-0.135,-0.285
2021-08-19 23:41:13.784,-0.105,-0.19
2021-08-19 23:41:13.788,-0.11,-0.06
2021-08-19 23:41:13.792,-0.075,0.11
2021-08-19 23:41:13.796,0.02,0.375
2021-08-19 23:41:13.800,-0.005,0.565
2021-08-19 23:41:13.804,-0.255,0.735
2021-08-19 23:41:13.808,-0.705,0.925
2021-08-19 23:41:13.812,-1.495,1.215
2021-08-19 23:41:13.864,-1.86,1.16
2021-08-19 23:41:13.868,-1.72,0.95
2021-08-19 23:41:13.872,-1.605,0.54
2021-08-19 23:41:13.876,-1.485,0.03
2021-08-19 23:41:13.880,-1.345,-0.265
2021-08-19 23:41:13.884,-1.205,-0.47
2021-08-19 23:41:13.888,-1.055,-0.555
2021-08-19 23:41:13.892,-0.88,-0.58
2021-08-19 23:41:13.896,-0.68,-0.59
2021-08-19 23:41:13.900,-0.445,-0.58
2021-08-19 23:41:13.904,-0.21,-0.57
2021-08-19 23:41:13.908,-0.03,-0.525
2021-08-19 23:41:13.912,0.13,-0.555
2021-08-19 23:41:13.916,0.25,-0.535
2021-08-19 23:41:13.920,0.295,-0.525
2021-08-19 23:41:13.924,0.35,-0.535
2021-08-19 23:41:13.928,0.38,-0.545
2021-08-19 23:41:13.932,0.4,-0.525
2021-08-19 23:41:13.936,0.425,-0.535
2021-08-19 23:41:13.940,0.46,-0.525
2021-08-19 23:41:13.944,0.455,-0.53
2021-08-19 23:41:13.948,0.465,-0.52
2021-08-19 23:41:13.952,0.51,-0.49
2021-08-19 23:41:13.956,0.49,-0.51
2021-08-19 23:41:13.960,0.55,-0.52
2021-08-19 23:41:13.964,0.55,-0.51
2021-08-19 23:41:13.968,0.56,-0.51
2021-08-19 23:41:13.972,0.58,-0.515
2021-08-19 23:41:13.976,0.615,-0.52
2021-08-19 23:41:13.980,0.635,-0.5
2021-08-19 23:41:13.984,0.67,-0.48
2021-08-19 23:41:13.988,0.69,-0.49
2021-08-19 23:41:13.992,0.73,-0.5
2021-08-19 23:41:13.996,0.74,-0.5
2021-08-19 23:41:14.000,0.76,-0.495
2021-08-19 23:41:14.004,0.795,-0.51
2021-08-19 23:41:14.008,0.855,-0.535
2021-08-19 23:41:14.012,0.875,-0.54
2021-08-19 23:41:14.016,0.9,-0.545
2021-08-19 23:41:14.020,0.935,-0.55
2021-08-19 23:41:14.024,0.97,-0.54
2021-08-19 23:41:14.028,1.005,-0.56
2021-08-19 23:41:14.032,1.035,-0.565
2021-08-19 23:41:14.036,1.055,-0.575
2021-08-19 23:41:14.040,1.055,-0.575
2021-08-19 23:41:14.044,1.06,-0.575
2021-08-19 23:41:14.048,1.055,-0.55
2021-08-19 23:41:14.052,1.065,-0.52
2021-08-19 23:41:14.056,1.055,-0.52
2021-08-19 23:41:14.060,1.01,-0.505
2021-08-19 23:41:14.064,0.97,-0.455
2021-08-19 23:41:14.068,0.915,-0.455
2021-08-19 23:41:14.072,0.865,-0.415
2021-08-19 23:41:14.076,0.82,-0.38
2021-08-19 23:41:14.080,0.73,-0.325
2021-08-19 23:41:14.084,0.69,-0.315
2021-08-19 23:41:14.088,0.63,-0.305
2021-08-19 23:41:14.092,0.57,-0.29
2021-08-19 23:41:14.096,0.52,-0.25
2021-08-19 23:41:14.100,0.445,-0.24
2021-08-19 23:41:14.104,0.38,-0.235
2021-08-19 23:41:14.108,0.33,-0.245
2021-08-19 23:41:14.112,0.25,-0.225
2021-08-19 23:41:14.116,0.21,-0.24
2021-08-19 23:41:14.120,0.165,-0.235
2021-08-19 23:41:14.124,0.125,-0.24
2021-08-19 23:41:14.128,0.07,-0.245
2021-08-19 23:41:14.132,0.03,-0.265
2021-08-19 23:41:14.136,0.03,-0.27
2021-08-19 23:41:14.140,0.005,-0.285
2021-08-19 23:41:14.144,0.0,-0.285
2021-08-19 23:41:14.148,-0.04,-0.275
2021-08-19 23:41:14.152,-0.065,-0.29
2021-08-19 23:41:14.156,-0.07,-0.31
2021-08-19 23:41:14.160,-0.06,-0.31
2021-08-19 23:41:14.164,-0.05,-0.33
2021-08-19 23:41:14.168,-0.06,-0.335
2021-08-19 23:41:14.172,-0.07,-0.32
2021-08-19 23:41:14.176,-0.065,-0.32
2021-08-19 23:41:14.180,-0.08,-0.305
2021-08-19 23:41:14.184,-0.09,-0.335
2021-08-19 23:41:14.188,-0.1,-0.35
2021-08-19 23:41:14.192,-0.08,-0.355
2021-08-19 23:41:14.196,-0.08,-0.365
2021-08-19 23:41:14.200,-0.075,-0.34
2021-08-19 23:41:14.204,-0.095,-0.35
2021-08-19 23:41:14.208,-0.11,-0.355
2021-08-19 23:41:14.212,-0.1,-0.355
2021-08-19 23:41:14.216,-0.09,-0.35
2021-08-19 23:41:14.220,-0.11,-0.375
2021-08-19 23:41:14.224,-0.1,-0.39
2021-08-19 23:41:14.228,-0.12,-0.39
2021-08-19 23:41:14.232,-0.1,-0.39
2021-08-19 23:41:14.236,-0.095,-0.39
2021-08-19 23:41:14.240,-0.08,-0.38
2021-08-19 23:41:14.244,-0.115,-0.395
2021-08-19 23:41:14.248,-0.085,-0.39
2021-08-19 23:41:14.252,-0.08,-0.395
2021-08-19 23:41:14.256,-0.08,-0.395
2021-08-19 23:41:14.260,-0.11,-0.41
2021-08-19 23:41:14.264,-0.11,-0.405
2021-08-19 23:41:14.268,-0.105,-0.4
2021-08-19 23:41:14.272,-0.08,-0.385
2021-08-19 23:41:14.276,-0.12,-0.405
2021-08-19 23:41:14.280,-0.135,-0.41
2021-08-19 23:41:14.284,-0.095,-0.41
2021-08-19 23:41:14.288,-0.105,-0.4
2021-08-19 23:41:14.292,-0.12,-0.415
2021-08-19 23:41:14.296,-0.11,-0.41
2021-08-19 23:41:14.300,-0.105,-0.4
2021-08-19 23:41:14.304,-0.12,-0.36
2021-08-19 23:41:14.308,-0.125,-0.38
2021-08-19 23:41:14.312,-0.14,-0.39
2021-08-19 23:41:14.316,-0.135,-0.41
2021-08-19 23:41:14.320,-0.145,-0.35
2021-08-19 23:41:14.324,-0.125,-0.335
2021-08-19 23:41:14.328,-0.125,-0.315
2021-08-19 23:41:14.332,-0.115,-0.3
2021-08-19 23:41:14.336,-0.13,-0.265
2021-08-19 23:41:14.340,-0.105,-0.25
2021-08-19 23:41:14.344,-0.075,-0.24
2021-08-19 23:41:14.348,-0.02,-0.205
2021-08-19 23:41:14.352,-0.015,-0.15
2021-08-19 23:41:14.356,0.01,-0.17
2021-08-19 23:41:14.360,0.04,-0.16
2021-08-19 23:41:14.364,0.075,-0.155
2021-08-19 23:41:14.368,0.075,-0.16
2021-08-19 23:41:14.372,0.045,-0.19
2021-08-19 23:41:14.376,0.06,-0.225
2021-08-19 23:41:14.380,-0.005,-0.225
2021-08-19 23:41:14.384,-0.04,-0.23
2021-08-19 23:41:14.388,-0.07,-0.24
2021-08-19 23:41:14.392,-0.095,-0.285
2021-08-19 23:41:14.396,-0.095,-0.32
2021-08-19 23:41:14.400,-0.14,-0.315
2021-08-19 23:41:14.404,-0.195,-0.31
2021-08-19 23:41:14.408,-0.2,-0.365
2021-08-19 23:41:14.412,-0.24,-0.38
2021-08-19 23:41:14.416,-0.205,-0.415
2021-08-19 23:41:14.420,-0.19,-0.41
2021-08-19 23:41:14.424,-0.15,-0.435
2021-08-19 23:41:14.428,-0.19,-0.435
2021-08-19 23:41:14.432,-0.2,-0.435
2021-08-19 23:41:14.436,-0.19,-0.405
2021-08-19 23:41:14.440,-0.21,-0.41
2021-08-19 23:41:14.444,-0.23,-0.425
2021-08-19 23:41:14.448,-0.23,-0.415
2021-08-19 23:41:14.452,-0.205,-0.395
2021-08-19 23:41:14.456,-0.2,-0.4
2021-08-19 23:41:14.460,-0.21,-0.415
2021-08-19 23:41:14.464,-0.205,-0.415
2021-08-19 23:41:14.468,-0.23,-0.41
2021-08-19 23:41:14.472,-0.235,-0.395
2021-08-19 23:41:14.476,-0.23,-0.415
2021-08-19 23:41:14.480,-0.185,-0.41
2021-08-19 23:41:14.484,-0.2,-0.38
2021-08-19 23:41:14.488,-0.2,-0.39
2021-08-19 23:41:14.492,-0.19,-0.365
2021-08-19 23:41:14.496,-0.195,-0.35
2021-08-19 23:41:14.500,-0.2,-0.325
2021-08-19 23:41:14.504,-0.21,-0.26
2021-08-19 23:41:14.508,-0.18,-0.15
2021-08-19 23:41:14.512,-0.15,0.03
2021-08-19 23:41:14.516,-0.1,0.33
2021-08-19 23:41:14.520,-0.01,0.655
2021-08-19 23:41:14.524,-0.16,0.86
2021-08-19 23:41:14.528,-0.47,1.01
2021-08-19 23:41:14.532,-0.975,1.2
2021-08-19 23:41:14.536,-1.77,1.475
2021-08-19 23:41:14.588,-1.935,1.225
2021-08-19 23:41:14.592,-1.795,1.01
2021-08-19 23:41:14.596,-1.65,0.58
2021-08-19 23:41:14.600,-1.5,0.14
2021-08-19 23:41:14.604,-1.385,-0.165
2021-08-19 23:41:14.608,-1.215,-0.4
2021-08-19 23:41:14.612,-1.025,-0.535
2021-08-19 23:41:14.616,-0.865,-0.58
2021-08-19 23:41:14.620,-0.64,-0.62
2021-08-19 23:41:14.624,-0.465,-0.6
2021-08-19 23:41:14.628,-0.255,-0.595
2021-08-19 23:41:14.632,-0.1,-0.59
2021-08-19 23:41:14.636,0.075,-0.585
2021-08-19 23:41:14.640,0.17,-0.565
2021-08-19 23:41:14.644,0.24,-0.575
2021-08-19 23:41:14.648,0.285,-0.585
2021-08-19 23:41:14.652,0.31,-0.59
2021-08-19 23:41:14.656,0.305,-0.565
2021-08-19 23:41:14.660,0.35,-0.56
2021-08-19 23:41:14.664,0.375,-0.55
2021-08-19 23:41:14.668,0.375,-0.56
2021-08-19 23:41:14.672,0.395,-0.57
2021-08-19 23:41:14.676,0.42,-0.565
2021-08-19 23:41:14.680,0.455,-0.55
2021-08-19 23:41:14.684,0.465,-0.535
2021-08-19 23:41:14.688,0.47,-0.545
2021-08-19 23:41:14.692,0.48,-0.54
2021-08-19 23:41:14.696,0.53,-0.53
2021-08-19 23:41:14.700,0.515,-0.525
2021-08-19 23:41:14.704,0.535,-0.52
2021-08-19 23:41:14.708,0.565,-0.52
2021-08-19 23:41:14.712,0.585,-0.5
2021-08-19 23:41:14.716,0.6,-0.52
2021-08-19 23:41:14.720,0.63,-0.52
2021-08-19 23:41:14.724,0.67,-0.5
2021-08-19 23:41:14.728,0.685,-0.52
2021-08-19 23:41:14.732,0.72,-0.53
2021-08-19 23:41:14.736,0.75,-0.535
2021-08-19 23:41:14.740,0.755,-0.545
2021-08-19 23:41:14.744,0.81,-0.545
2021-08-19 23:41:14.748,0.82,-0.565
2021-08-19 23:41:14.752,0.86,-0.545
2021-08-19 23:41:14.756,0.875,-0.56
2021-08-19 23:41:14.760,0.885,-0.55
2021-08-19 23:41:14.764,0.91,-0.55
2021-08-19 23:41:14.768,0.93,-0.585
2021-08-19 23:41:14.772,0.925,-0.57
2021-08-19 23:41:14.776,0.925,-0.585
2021-08-19 23:41:14.780,0.94,-0.535
2021-08-19 23:41:14.784,0.915,-0.53
2021-08-19 23:41:14.788,0.915,-0.515
2021-08-19 23:41:14.792,0.895,-0.475
2021-08-19 23:41:14.796,0.89,-0.445
2021-08-19 23:41:14.800,0.835,-0.385
2021-08-19 23:41:14.804,0.785,-0.39
2021-08-19 23:41:14.808,0.73,-0.32
2021-08-19 23:41:14.812,0.67,-0.285
2021-08-19 23:41:14.816,0.625,-0.27
2021-08-19 23:41:14.820,0.56,-0.26
2021-08-19 23:41:14.824,0.49,-0.22
2021-08-19 23:41:14.828,0.44,-0.19
2021-08-19 23:41:14.832,0.375,-0.2
2021-08-19 23:41:14.836,0.32,-0.205
2021-08-19 23:41:14.840,0.26,-0.215
2021-08-19 23:41:14.844,0.215,-0.22
2021-08-19 23:41:14.848,0.17,-0.23
2021-08-19 23:41:14.852,0.095,-0.25
2021-08-19 23:41:14.856,0.07,-0.255
2021-08-19 23:41:14.860,0.045,-0.24
2021-08-19 23:41:14.864,0.0,-0.245
2021-08-19 23:41:14.868,-0.045,-0.27
2021-08-19 23:41:14.872,-0.075,-0.295
2021-08-19 23:41:14.876,-0.105,-0.31
2021-08-19 23:41:14.880,-0.105,-0.29
2021-08-19 23:41:14.884,-0.125,-0.3
2021-08-19 23:41:14.888,-0.125,-0.32
2021-08-19 23:41:14.892,-0.125,-0.32
2021-08-19 23:41:14.896,-0.145,-0.32
2021-08-19 23:41:14.900,-0.14,-0.32
2021-08-19 23:41:14.904,-0.155,-0.36
2021-08-19 23:41:14.908,-0.175,-0.375
2021-08-19 23:41:14.912,-0.18,-0.335
2021-08-19 23:41:14.916,-0.19,-0.35
2021-08-19 23:41:14.920,-0.18,-0.375
2021-08-19 23:41:14.924,-0.165,-0.39
2021-08-19 23:41:14.928,-0.155,-0.37
2021-08-19 23:41:14.932,-0.18,-0.37
2021-08-19 23:41:14.936,-0.185,-0.375
2021-08-19 23:41:14.940,-0.175,-0.4
2021-08-19 23:41:14.944,-0.16,-0.39
2021-08-19 23:41:14.948,-0.18,-0.36
2021-08-19 23:41:14.952,-0.175,-0.39
2021-08-19 23:41:14.956,-0.165,-0.405
2021-08-19 23:41:14.960,-0.16,-0.4
2021-08-19 23:41:14.964,-0.17,-0.41
2021-08-19 23:41:14.968,-0.15,-0.42
2021-08-19 23:41:14.972,-0.18,-0.405
2021-08-19 23:41:14.976,-0.185,-0.415
2021-08-19 23:41:14.980,-0.17,-0.405
2021-08-19 23:41:14.984,-0.17,-0.44
2021-08-19 23:41:14.988,-0.14,-0.445
2021-08-19 23:41:14.992,-0.17,-0.425
2021-08-19 23:41:14.996,-0.16,-0.41
2021-08-19 23:41:15.000,-0.17,-0.43
2021-08-19 23:41:15.004,-0.145,-0.455
2021-08-19 23:41:15.008,-0.15,-0.435
2021-08-19 23:41:15.012,-0.15,-0.42
2021-08-19 23:41:15.016,-0.17,-0.43
2021-08-19 23:41:15.020,-0.18,-0.455
2021-08-19 23:41:15.024,-0.185,-0.44
2021-08-19 23:41:15.028,-0.18,-0.43
2021-08-19 23:41:15.032,-0.195,-0.42
2021-08-19 23:41:15.036,-0.19,-0.445
2021-08-19 23:41:15.040,-0.195,-0.415
2021-08-19 23:41:15.044,-0.19,-0.42
2021-08-19 23:41:15.048,-0.215,-0.415
2021-08-19 23:41:15.052,-0.195,-0.425
2021-08-19 23:41:15.056,-0.215,-0.445
2021-08-19 23:41:15.060,-0.185,-0.415
2021-08-19 23:41:15.064,-0.2,-0.405
2021-08-19 23:41:15.068,-0.21,-0.36
2021-08-19 23:41:15.072,-0.205,-0.335
2021-08-19 23:41:15.076,-0.21,-0.33
2021-08-19 23:41:15.080,-0.185,-0.305
2021-08-19 23:41:15.084,-0.16,-0.29
2021-08-19 23:41:15.088,-0.135,-0.26
2021-08-19 23:41:15.092,-0.11,-0.235
2021-08-19 23:41:15.096,-0.07,-0.2
2021-08-19 23:41:15.100,-0.075,-0.205
2021-08-19 23:41:15.104,-0.045,-0.195
2021-08-19 23:41:15.108,-0.015,-0.185
2021-08-19 23:41:15.112,-0.015,-0.18
2021-08-19 23:41:15.116,0.0,-0.225
2021-08-19 23:41:15.120,-0.035,-0.26
2021-08-19 23:41:15.124,-0.07,-0.255
2021-08-19 23:41:15.128,-0.105,-0.245
2021-08-19 23:41:15.132,-0.12,-0.26
2021-08-19 23:41:15.136,-0.13,-0.31
2021-08-19 23:41:15.140,-0.155,-0.33
2021-08-19 23:41:15.144,-0.205,-0.345
2021-08-19 23:41:15.148,-0.235,-0.37
2021-08-19 23:41:15.152,-0.26,-0.38
2021-08-19 23:41:15.156,-0.275,-0.44
2021-08-19 23:41:15.160,-0.285,-0.48
2021-08-19 23:41:15.164,-0.275,-0.455
2021-08-19 23:41:15.168,-0.24,-0.465
2021-08-19 23:41:15.172,-0.27,-0.455
2021-08-19 23:41:15.176,-0.265,-0.445
2021-08-19 23:41:15.180,-0.285,-0.475
2021-08-19 23:41:15.184,-0.275,-0.46
2021-08-19 23:41:15.188,-0.26,-0.465
2021-08-19 23:41:15.192,-0.28,-0.465
2021-08-19 23:41:15.196,-0.275,-0.46
2021-08-19 23:41:15.200,-0.27,-0.45
2021-08-19 23:41:15.204,-0.27,-0.445
2021-08-19 23:41:15.208,-0.285,-0.465
2021-08-19 23:41:15.212,-0.255,-0.455
2021-08-19 23:41:15.216,-0.295,-0.47
2021-08-19 23:41:15.220,-0.285,-0.44
2021-08-19 23:41:15.224,-0.27,-0.44
2021-08-19 23:41:15.228,-0.275,-0.44
2021-08-19 23:41:15.232,-0.285,-0.445
2021-08-19 23:41:15.236,-0.305,-0.425
2021-08-19 23:41:15.240,-0.285,-0.42
2021-08-19 23:41:15.244,-0.265,-0.405
2021-08-19 23:41:15.248,-0.265,-0.375
2021-08-19 23:41:15.252,-0.245,-0.31
2021-08-19 23:41:15.256,-0.25,-0.18
2021-08-19 23:41:15.260,-0.235,0.005
2021-08-19 23:41:15.264,-0.175,0.305
2021-08-19 23:41:15.268,-0.12,0.66
2021-08-19 23:41:15.272,-0.21,0.875
2021-08-19 23:41:15.276,-0.525,1.02
2021-08-19 23:41:15.280,-1.005,1.19
2021-08-19 23:41:15.284,-1.75,1.415
2021-08-19 23:41:15.340,-1.875,1.255
2021-08-19 23:41:15.344,-1.75,0.865
2021-08-19 23:41:15.348,-1.61,0.35
2021-08-19 23:41:15.352,-1.49,-0.045
2021-08-19 23:41:15.356,-1.32,-0.35
2021-08-19 23:41:15.360,-1.17,-0.52
2021-08-19 23:41:15.364,-1.01,-0.615
2021-08-19 23:41:15.368,-0.8,-0.675
2021-08-19 23:41:15.372,-0.58,-0.675
2021-08-19 23:41:15.376,-0.38,-0.665
2021-08-19 23:41:15.380,-0.195,-0.65
2021-08-19 23:41:15.384,-0.02,-0.66
2021-08-19 23:41:15.388,0.105,-0.64
2021-08-19 23:41:15.392,0.18,-0.63
2021-08-19 23:41:15.396,0.215,-0.65
2021-08-19 23:41:15.400,0.275,-0.67
2021-08-19 23:41:15.404,0.31,-0.655
2021-08-19 23:41:15.408,0.29,-0.625
2021-08-19 23:41:15.412,0.34,-0.64
2021-08-19 23:41:15.416,0.365,-0.655
2021-08-19 23:41:15.420,0.37,-0.65
2021-08-19 23:41:15.424,0.41,-0.635
2021-08-19 23:41:15.428,0.43,-0.62
2021-08-19 23:41:15.432,0.445,-0.64
2021-08-19 23:41:15.436,0.455,-0.63
2021-08-19 23:41:15.440,0.49,-0.625
2021-08-19 23:41:15.444,0.485,-0.6
2021-08-19 23:41:15.448,0.505,-0.62
2021-08-19 23:41:15.452,0.52,-0.615
2021-08-19 23:41:15.456,0.55,-0.61
2021-08-19 23:41:15.460,0.585,-0.605
2021-08-19 23:41:15.464,0.605,-0.625
2021-08-19 23:41:15.468,0.6,-0.64
2021-08-19 23:41:15.472,0.655,-0.63
2021-08-19 23:41:15.476,0.695,-0.63
2021-08-19 23:41:15.480,0.735,-0.615
2021-08-19 23:41:15.484,0.755,-0.655
2021-08-19 23:41:15.488,0.8,-0.65
2021-08-19 23:41:15.492,0.805,-0.63
2021-08-19 23:41:15.496,0.85,-0.63
2021-08-19 23:41:15.500,0.865,-0.675
2021-08-19 23:41:15.504,0.895,-0.67
2021-08-19 23:41:15.508,0.915,-0.655
2021-08-19 23:41:15.512,0.925,-0.66
2021-08-19 23:41:15.516,0.94,-0.665
2021-08-19 23:41:15.520,0.96,-0.66
2021-08-19 23:41:15.524,0.95,-0.65
2021-08-19 23:41:15.528,0.95,-0.62
2021-08-19 23:41:15.532,0.93,-0.61
2021-08-19 23:41:15.536,0.91,-0.59
2021-08-19 23:41:15.540,0.895,-0.545
2021-08-19 23:41:15.544,0.87,-0.49
2021-08-19 23:41:15.548,0.835,-0.45
2021-08-19 23:41:15.552,0.81,-0.46
2021-08-19 23:41:15.556,0.765,-0.415
2021-08-19 23:41:15.560,0.73,-0.37
2021-08-19 23:41:15.564,0.66,-0.34
2021-08-19 23:41:15.568,0.615,-0.315
2021-08-19 23:41:15.572,0.53,-0.275
2021-08-19 23:41:15.576,0.46,-0.245
2021-08-19 23:41:15.580,0.42,-0.24
2021-08-19 23:41:15.584,0.365,-0.24
2021-08-19 23:41:15.588,0.305,-0.24
2021-08-19 23:41:15.592,0.25,-0.265
2021-08-19 23:41:15.596,0.2,-0.225
2021-08-19 23:41:15.600,0.14,-0.245
2021-08-19 23:41:15.604,0.12,-0.27
2021-08-19 23:41:15.608,0.085,-0.25
2021-08-19 23:41:15.612,0.06,-0.275
2021-08-19 23:41:15.616,0.02,-0.28
2021-08-19 23:41:15.620,0.0,-0.25
2021-08-19 23:41:15.624,-0.015,-0.28
2021-08-19 23:41:15.628,-0.045,-0.29
2021-08-19 23:41:15.632,-0.065,-0.305
2021-08-19 23:41:15.636,-0.06,-0.295
2021-08-19 23:41:15.640,-0.08,-0.3
2021-08-19 23:41:15.644,-0.08,-0.3
2021-08-19 23:41:15.648,-0.095,-0.305
2021-08-19 23:41:15.652,-0.105,-0.31
2021-08-19 23:41:15.656,-0.105,-0.315
2021-08-19 23:41:15.660,-0.105,-0.31
2021-08-19 23:41:15.664,-0.1,-0.3
2021-08-19 23:41:15.668,-0.11,-0.305
2021-08-19 23:41:15.672,-0.115,-0.315
2021-08-19 23:41:15.676,-0.11,-0.32
2021-08-19 23:41:15.680,-0.09,-0.32
2021-08-19 23:41:15.684,-0.105,-0.335
2021-08-19 23:41:15.688,-0.08,-0.345
2021-08-19 23:41:15.692,-0.09,-0.33
2021-08-19 23:41:15.696,-0.085,-0.36
2021-08-19 23:41:15.700,-0.075,-0.36
2021-08-19 23:41:15.704,-0.09,-0.365
2021-08-19 23:41:15.708,-0.1,-0.385
2021-08-19 23:41:15.712,-0.085,-0.36
2021-08-19 23:41:15.716,-0.08,-0.38
2021-08-19 23:41:15.720,-0.1,-0.375
2021-08-19 23:41:15.724,-0.1,-0.38
2021-08-19 23:41:15.728,-0.09,-0.39
2021-08-19 23:41:15.732,-0.095,-0.375
2021-08-19 23:41:15.736,-0.085,-0.36
2021-08-19 23:41:15.740,-0.09,-0.365
2021-08-19 23:41:15.744,-0.1,-0.395
2021-08-19 23:41:15.748,-0.11,-0.39
2021-08-19 23:41:15.752,-0.1,-0.38
2021-08-19 23:41:15.756,-0.11,-0.385
2021-08-19 23:41:15.760,-0.12,-0.385
2021-08-19 23:41:15.764,-0.08,-0.37
2021-08-19 23:41:15.768,-0.105,-0.385
2021-08-19 23:41:15.772,-0.105,-0.385
2021-08-19 23:41:15.776,-0.065,-0.37
2021-08-19 23:41:15.780,-0.11,-0.365
2021-08-19 23:41:15.784,-0.105,-0.36
2021-08-19 23:41:15.788,-0.105,-0.365
2021-08-19 23:41:15.792,-0.12,-0.345
2021-08-19 23:41:15.796,-0.12,-0.305
2021-08-19 23:41:15.800,-0.12,-0.26
2021-08-19 23:41:15.804,-0.07,-0.26
2021-08-19 23:41:15.808,-0.06,-0.245
2021-08-19 23:41:15.812,-0.05,-0.2
2021-08-19 23:41:15.816,-0.01,-0.185
2021-08-19 23:41:15.820,0.015,-0.135
2021-08-19 23:41:15.824,0.05,-0.135
2021-08-19 23:41:15.828,0.07,-0.13
2021-08-19 23:41:15.832,0.08,-0.14
2021-08-19 23:41:15.836,0.095,-0.15
2021-08-19 23:41:15.840,0.075,-0.16
2021-08-19 23:41:15.844,0.07,-0.195
2021-08-19 23:41:15.848,0.04,-0.2
2021-08-19 23:41:15.852,0.01,-0.205
2021-08-19 23:41:15.856,-0.045,-0.205
2021-08-19 23:41:15.860,-0.075,-0.25
2021-08-19 23:41:15.864,-0.065,-0.27
2021-08-19 23:41:15.868,-0.09,-0.28
2021-08-19 23:41:15.872,-0.15,-0.28
2021-08-19 23:41:15.876,-0.195,-0.31
2021-08-19 23:41:15.880,-0.2,-0.35
2021-08-19 23:41:15.884,-0.205,-0.405
2021-08-19 23:41:15.888,-0.185,-0.4
2021-08-19 23:41:15.892,-0.19,-0.4
2021-08-19 23:41:15.896,-0.2,-0.405
2021-08-19 23:41:15.900,-0.21,-0.4
2021-08-19 23:41:15.904,-0.205,-0.385
2021-08-19 23:41:15.908,-0.225,-0.385
2021-08-19 23:41:15.912,-0.235,-0.4
2021-08-19 23:41:15.916,-0.215,-0.4
2021-08-19 23:41:15.920,-0.215,-0.38
2021-08-19 23:41:15.924,-0.215,-0.375
2021-08-19 23:41:15.928,-0.21,-0.39
2021-08-19 23:41:15.932,-0.225,-0.4
2021-08-19 23:41:15.936,-0.235,-0.355
2021-08-19 23:41:15.940,-0.245,-0.345
2021-08-19 23:41:15.944,-0.245,-0.37
2021-08-19 23:41:15.948,-0.24,-0.365
2021-08-19 23:41:15.952,-0.23,-0.37
2021-08-19 23:41:15.956,-0.235,-0.35
2021-08-19 23:41:15.960,-0.26,-0.345
2021-08-19 23:41:15.964,-0.24,-0.37
2021-08-19 23:41:15.968,-0.24,-0.335
2021-08-19 23:41:15.972,-0.235,-0.305
2021-08-19 23:41:15.976,-0.25,-0.275
2021-08-19 23:41:15.980,-0.225,-0.185
2021-08-19 23:41:15.984,-0.22,-0.035
2021-08-19 23:41:15.988,-0.155,0.21
2021-08-19 23:41:15.992,-0.12,0.46
2021-08-19 23:41:15.996,-0.175,0.645
2021-08-19 23:41:16.000,-0.475,0.8
2021-08-19 23:41:16.004,-1.045,1.04
2021-08-19 23:41:16.008,-1.86,1.325
2021-08-19 23:41:16.064,-1.855,1.015
2021-08-19 23:41:16.068,-1.715,0.645
2021-08-19 23:41:16.072,-1.62,0.21
2021-08-19 23:41:16.076,-1.495,-0.135
2021-08-19 23:41:16.080,-1.345,-0.375
2021-08-19 23:41:16.084,-1.175,-0.535
2021-08-19 23:41:16.088,-1.01,-0.56
2021-08-19 23:41:16.092,-0.8,-0.565
2021-08-19 23:41:16.096,-0.6,-0.585
2021-08-19 23:41:16.100,-0.355,-0.58
2021-08-19 23:41:16.104,-0.125,-0.56
2021-08-19 23:41:16.108,0.03,-0.54
2021-08-19 23:41:16.112,0.16,-0.555
2021-08-19 23:41:16.116,0.23,-0.555
2021-08-19 23:41:16.120,0.27,-0.555
2021-08-19 23:41:16.124,0.345,-0.555
2021-08-19 23:41:16.128,0.365,-0.555
2021-08-19 23:41:16.132,0.395,-0.565
2021-08-19 23:41:16.136,0.4,-0.54
2021-08-19 23:41:16.140,0.4,-0.53
2021-08-19 23:41:16.144,0.415,-0.525
2021-08-19 23:41:16.148,0.455,-0.53
2021-08-19 23:41:16.152,0.48,-0.525
2021-08-19 23:41:16.156,0.47,-0.515
2021-08-19 23:41:16.160,0.485,-0.495
2021-08-19 23:41:16.164,0.52,-0.51
2021-08-19 23:41:16.168,0.525,-0.53
2021-08-19 23:41:16.172,0.55,-0.535
2021-08-19 23:41:16.176,0.56,-0.525
2021-08-19 23:41:16.180,0.605,-0.54
2021-08-19 23:41:16.184,0.615,-0.52
2021-08-19 23:41:16.188,0.645,-0.525
2021-08-19 23:41:16.192,0.655,-0.515
2021-08-19 23:41:16.196,0.685,-0.51
2021-08-19 23:41:16.200,0.715,-0.545
2021-08-19 23:41:16.204,0.745,-0.54
2021-08-19 23:41:16.208,0.77,-0.52
2021-08-19 23:41:16.212,0.8,-0.56
2021-08-19 23:41:16.216,0.825,-0.555
2021-08-19 23:41:16.220,0.855,-0.55
2021-08-19 23:41:16.224,0.88,-0.57
2021-08-19 23:41:16.228,0.94,-0.58
2021-08-19 23:41:16.232,0.96,-0.58
2021-08-19 23:41:16.236,1.005,-0.58
2021-08-19 23:41:16.240,1.005,-0.58
2021-08-19 23:41:16.244,1.005,-0.575
2021-08-19 23:41:16.248,0.995,-0.56
2021-08-19 23:41:16.252,0.995,-0.56
2021-08-19 23:41:16.256,0.955,-0.545
2021-08-19 23:41:16.260,0.955,-0.52
2021-08-19 23:41:16.264,0.905,-0.505
2021-08-19 23:41:16.268,0.84,-0.46
2021-08-19 23:41:16.272,0.82,-0.43
2021-08-19 23:41:16.276,0.74,-0.395
2021-08-19 23:41:16.280,0.72,-0.35
2021-08-19 23:41:16.284,0.66,-0.34
2021-08-19 23:41:16.288,0.585,-0.3
2021-08-19 23:41:16.292,0.53,-0.29
2021-08-19 23:41:16.296,0.485,-0.25
2021-08-19 23:41:16.300,0.435,-0.23
2021-08-19 23:41:16.304,0.345,-0.23
2021-08-19 23:41:16.308,0.305,-0.22
2021-08-19 23:41:16.312,0.245,-0.22
2021-08-19 23:41:16.316,0.18,-0.225
2021-08-19 23:41:16.320,0.13,-0.24
2021-08-19 23:41:16.324,0.075,-0.23
2021-08-19 23:41:16.328,0.04,-0.23
2021-08-19 23:41:16.332,0.03,-0.255
2021-08-19 23:41:16.336,-0.03,-0.26
2021-08-19 23:41:16.340,-0.05,-0.255
2021-08-19 23:41:16.344,-0.05,-0.265
2021-08-19 23:41:16.348,-0.1,-0.265
2021-08-19 23:41:16.352,-0.11,-0.275
2021-08-19 23:41:16.356,-0.12,-0.28
2021-08-19 23:41:16.360,-0.11,-0.275
2021-08-19 23:41:16.364,-0.125,-0.27
2021-08-19 23:41:16.368,-0.155,-0.295
2021-08-19 23:41:16.372,-0.155,-0.3
2021-08-19 23:41:16.376,-0.13,-0.305
2021-08-19 23:41:16.380,-0.155,-0.295
2021-08-19 23:41:16.384,-0.145,-0.3
2021-08-19 23:41:16.388,-0.135,-0.295
2021-08-19 23:41:16.392,-0.13,-0.29
2021-08-19 23:41:16.396,-0.13,-0.325
2021-08-19 23:41:16.400,-0.12,-0.305
2021-08-19 23:41:16.404,-0.12,-0.32
2021-08-19 23:41:16.408,-0.15,-0.31
2021-08-19 23:41:16.412,-0.14,-0.305
2021-08-19 23:41:16.416,-0.115,-0.31
2021-08-19 23:41:16.420,-0.125,-0.32
2021-08-19 23:41:16.424,-0.135,-0.335
2021-08-19 23:41:16.428,-0.14,-0.335
2021-08-19 23:41:16.432,-0.135,-0.315
2021-08-19 23:41:16.436,-0.125,-0.335
2021-08-19 23:41:16.440,-0.13,-0.35
2021-08-19 23:41:16.444,-0.115,-0.345
2021-08-19 23:41:16.448,-0.11,-0.33
2021-08-19 23:41:16.452,-0.125,-0.34
2021-08-19 23:41:16.456,-0.12,-0.355
2021-08-19 23:41:16.460,-0.12,-0.35
2021-08-19 23:41:16.464,-0.115,-0.33
2021-08-19 23:41:16.468,-0.12,-0.35
2021-08-19 23:41:16.472,-0.125,-0.35
2021-08-19 23:41:16.476,-0.15,-0.35
2021-08-19 23:41:16.480,-0.12,-0.345
2021-08-19 23:41:16.484,-0.135,-0.33
2021-08-19 23:41:16.488,-0.135,-0.345
2021-08-19 23:41:16.492,-0.125,-0.335
2021-08-19 23:41:16.496,-0.13,-0.31
2021-08-19 23:41:16.500,-0.125,-0.34
2021-08-19 23:41:16.504,-0.125,-0.345
2021-08-19 23:41:16.508,-0.135,-0.335
2021-08-19 23:41:16.512,-0.14,-0.3
2021-08-19 23:41:16.516,-0.145,-0.28
2021-08-19 23:41:16.520,-0.15,-0.295
2021-08-19 23:41:16.524,-0.14,-0.27
2021-08-19 23:41:16.528,-0.15,-0.235
2021-08-19 23:41:16.532,-0.15,-0.2
2021-08-19 23:41:16.536,-0.14,-0.185
2021-08-19 23:41:16.540,-0.1,-0.205
2021-08-19 23:41:16.544,-0.085,-0.14
2021-08-19 23:41:16.548,-0.04,-0.12
2021-08-19 23:41:16.552,-0.015,-0.1
2021-08-19 23:41:16.556,0.01,-0.1
2021-08-19 23:41:16.560,0.035,-0.1
2021-08-19 23:41:16.564,0.05,-0.08
2021-08-19 23:41:16.568,0.055,-0.1
2021-08-19 23:41:16.572,0.045,-0.15
2021-08-19 23:41:16.576,0.005,-0.165
2021-08-19 23:41:16.580,-0.03,-0.155
2021-08-19 23:41:16.584,-0.07,-0.17
2021-08-19 23:41:16.588,-0.11,-0.22
2021-08-19 23:41:16.592,-0.12,-0.22
2021-08-19 23:41:16.596,-0.13,-0.22
2021-08-19 23:41:16.600,-0.185,-0.24
2021-08-19 23:41:16.604,-0.235,-0.255
2021-08-19 23:41:16.608,-0.235,-0.315
2021-08-19 23:41:16.612,-0.24,-0.315
2021-08-19 23:41:16.616,-0.245,-0.32
2021-08-19 23:41:16.620,-0.225,-0.345
2021-08-19 23:41:16.624,-0.24,-0.33
2021-08-19 23:41:16.628,-0.25,-0.34
2021-08-19 23:41:16.632,-0.235,-0.325
2021-08-19 23:41:16.636,-0.235,-0.345
2021-08-19 23:41:16.640,-0.265,-0.36
2021-08-19 23:41:16.644,-0.25,-0.32
2021-08-19 23:41:16.648,-0.26,-0.315
2021-08-19 23:41:16.652,-0.26,-0.345
2021-08-19 23:41:16.656,-0.27,-0.335
2021-08-19 23:41:16.660,-0.26,-0.31
2021-08-19 23:41:16.664,-0.265,-0.32
2021-08-19 23:41:16.668,-0.245,-0.32
2021-08-19 23:41:16.672,-0.24,-0.32
2021-08-19 23:41:16.676,-0.27,-0.31
2021-08-19 23:41:16.680,-0.245,-0.305
2021-08-19 23:41:16.684,-0.265,-0.325
2021-08-19 23:41:16.688,-0.26,-0.295
2021-08-19 23:41:16.692,-0.245,-0.3
2021-08-19 23:41:16.696,-0.23,-0.285
2021-08-19 23:41:16.700,-0.24,-0.285
2021-08-19 23:41:16.704,-0.235,-0.26
2021-08-19 23:41:16.708,-0.22,-0.18
2021-08-19 23:41:16.712,-0.225,-0.045
2021-08-19 23:41:16.716,-0.17,0.1
2021-08-19 23:41:16.720,-0.05,0.345
2021-08-19 23:41:16.724,-0.115,0.54
2021-08-19 23:41:16.728,-0.42,0.66
2021-08-19 23:41:16.732,-0.895,0.825
2021-08-19 23:41:16.736,-1.675,1.07
2021-08-19 23:41:16.792,-1.935,0.9
2021-08-19 23:41:16.796,-1.79,0.59
2021-08-19 23:41:16.800,-1.67,0.135
2021-08-19 23:41:16.804,-1.555,-0.2
2021-08-19 23:41:16.808,-1.42,-0.375
2021-08-19 23:41:16.812,-1.235,-0.485
2021-08-19 23:41:16.816,-1.07,-0.51
2021-08-19 23:41:16.820,-0.845,-0.515
2021-08-19 23:41:16.824,-0.64,-0.52
2021-08-19 23:41:16.828,-0.39,-0.5
2021-08-19 23:41:16.832,-0.17,-0.475
2021-08-19 23:41:16.836,0.02,-0.47
2021-08-19 23:41:16.840,0.125,-0.475
2021-08-19 23:41:16.844,0.215,-0.485
2021-08-19 23:41:16.848,0.255,-0.485
2021-08-19 23:41:16.852,0.295,-0.475
2021-08-19 23:41:16.856,0.31,-0.475
2021-08-19 23:41:16.860,0.35,-0.475
2021-08-19 23:41:16.864,0.375,-0.48
2021-08-19 23:41:16.868,0.385,-0.46
2021-08-19 23:41:16.872,0.41,-0.47
2021-08-19 23:41:16.876,0.43,-0.475
2021-08-19 23:41:16.880,0.45,-0.455
2021-08-19 23:41:16.884,0.49,-0.445
2021-08-19 23:41:16.888,0.495,-0.45
2021-08-19 23:41:16.892,0.505,-0.445
2021-08-19 23:41:16.896,0.505,-0.44
2021-08-19 23:41:16.900,0.55,-0.445
2021-08-19 23:41:16.904,0.575,-0.44
2021-08-19 23:41:16.908,0.585,-0.45
2021-08-19 23:41:16.912,0.61,-0.465
2021-08-19 23:41:16.916,0.67,-0.45
2021-08-19 23:41:16.920,0.705,-0.445
2021-08-19 23:41:16.924,0.7,-0.46
2021-08-19 23:41:16.928,0.725,-0.47
2021-08-19 23:41:16.932,0.805,-0.46
2021-08-19 23:41:16.936,0.825,-0.46
2021-08-19 23:41:16.940,0.83,-0.495
2021-08-19 23:41:16.944,0.86,-0.51
2021-08-19 23:41:16.948,0.9,-0.485
2021-08-19 23:41:16.952,0.94,-0.505
2021-08-19 23:41:16.956,0.955,-0.51
2021-08-19 23:41:16.960,0.985,-0.525
2021-08-19 23:41:16.964,0.995,-0.525
2021-08-19 23:41:16.968,0.985,-0.5
2021-08-19 23:41:16.972,1.005,-0.515
2021-08-19 23:41:16.976,0.985,-0.49
2021-08-19 23:41:16.980,0.97,-0.485
2021-08-19 23:41:16.984,0.975,-0.46
2021-08-19 23:41:16.988,0.92,-0.45
2021-08-19 23:41:16.992,0.87,-0.425
2021-08-19 23:41:16.996,0.835,-0.385
2021-08-19 23:41:17.000,0.795,-0.34
2021-08-19 23:41:17.004,0.72,-0.34
2021-08-19 23:41:17.008,0.66,-0.3
2021-08-19 23:41:17.012,0.605,-0.29
2021-08-19 23:41:17.016,0.54,-0.21
2021-08-19 23:41:17.020,0.47,-0.23
2021-08-19 23:41:17.024,0.39,-0.235
2021-08-19 23:41:17.028,0.345,-0.225
2021-08-19 23:41:17.032,0.285,-0.2
2021-08-19 23:41:17.036,0.205,-0.2
2021-08-19 23:41:17.040,0.145,-0.235
2021-08-19 23:41:17.044,0.085,-0.215
2021-08-19 23:41:17.048,0.055,-0.235
2021-08-19 23:41:17.052,0.035,-0.22
2021-08-19 23:41:17.056,-0.015,-0.255
2021-08-19 23:41:17.060,-0.05,-0.25
2021-08-19 23:41:17.064,-0.09,-0.24
2021-08-19 23:41:17.068,-0.12,-0.25
2021-08-19 23:41:17.072,-0.145,-0.26
2021-08-19 23:41:17.076,-0.15,-0.26
2021-08-19 23:41:17.080,-0.155,-0.27
2021-08-19 23:41:17.084,-0.165,-0.265
2021-08-19 23:41:17.088,-0.17,-0.26
2021-08-19 23:41:17.092,-0.195,-0.265
2021-08-19 23:41:17.096,-0.165,-0.285
2021-08-19 23:41:17.100,-0.18,-0.285
2021-08-19 23:41:17.104,-0.185,-0.305
2021-08-19 23:41:17.108,-0.19,-0.28
2021-08-19 23:41:17.112,-0.2,-0.275
2021-08-19 23:41:17.116,-0.215,-0.285
2021-08-19 23:41:17.120,-0.205,-0.3
2021-08-19 23:41:17.124,-0.205,-0.32
2021-08-19 23:41:17.128,-0.19,-0.315
2021-08-19 23:41:17.132,-0.175,-0.305
2021-08-19 23:41:17.136,-0.175,-0.33
2021-08-19 23:41:17.140,-0.17,-0.35
2021-08-19 23:41:17.144,-0.18,-0.33
2021-08-19 23:41:17.148,-0.185,-0.34
2021-08-19 23:41:17.152,-0.175,-0.345
2021-08-19 23:41:17.156,-0.185,-0.35
2021-08-19 23:41:17.160,-0.185,-0.35
2021-08-19 23:41:17.164,-0.18,-0.34
2021-08-19 23:41:17.168,-0.185,-0.33
2021-08-19 23:41:17.172,-0.165,-0.34
2021-08-19 23:41:17.176,-0.175,-0.355
2021-08-19 23:41:17.180,-0.185,-0.35
2021-08-19 23:41:17.184,-0.19,-0.355
2021-08-19 23:41:17.188,-0.19,-0.37
2021-08-19 23:41:17.192,-0.185,-0.35
2021-08-19 23:41:17.196,-0.165,-0.34
2021-08-19 23:41:17.200,-0.195,-0.36
2021-08-19 23:41:17.204,-0.16,-0.37
2021-08-19 23:41:17.208,-0.165,-0.375
2021-08-19 23:41:17.212,-0.18,-0.35
2021-08-19 23:41:17.216,-0.195,-0.335
2021-08-19 23:41:17.220,-0.19,-0.35
2021-08-19 23:41:17.224,-0.19,-0.365
2021-08-19 23:41:17.228,-0.17,-0.345
2021-08-19 23:41:17.232,-0.21,-0.35
2021-08-19 23:41:17.236,-0.195,-0.34
2021-08-19 23:41:17.240,-0.195,-0.35
2021-08-19 23:41:17.244,-0.2,-0.34
2021-08-19 23:41:17.248,-0.225,-0.32
2021-08-19 23:41:17.252,-0.195,-0.345
2021-08-19 23:41:17.256,-0.21,-0.315
2021-08-19 23:41:17.260,-0.215,-0.305
2021-08-19 23:41:17.264,-0.185,-0.275
2021-08-19 23:41:17.268,-0.225,-0.23
2021-08-19 23:41:17.272,-0.225,-0.215
2021-08-19 23:41:17.276,-0.165,-0.205
2021-08-19 23:41:17.280,-0.16,-0.18
2021-08-19 23:41:17.284,-0.14,-0.16
2021-08-19 23:41:17.288,-0.105,-0.13
2021-08-19 23:41:17.292,-0.065,-0.105
2021-08-19 23:41:17.296,-0.045,-0.11
2021-08-19 23:41:17.300,-0.04,-0.135
2021-08-19 23:41:17.304,0.01,-0.12
2021-08-19 23:41:17.308,-0.02,-0.125
2021-08-19 23:41:17.312,-0.04,-0.15
2021-08-19 23:41:17.316,-0.06,-0.185
2021-08-19 23:41:17.320,-0.095,-0.18
2021-08-19 23:41:17.324,-0.145,-0.195
2021-08-19 23:41:17.328,-0.165,-0.23
2021-08-19 23:41:17.332,-0.175,-0.24
2021-08-19 23:41:17.336,-0.235,-0.24
2021-08-19 23:41:17.340,-0.255,-0.27
2021-08-19 23:41:17.344,-0.28,-0.305
2021-08-19 23:41:17.348,-0.285,-0.345
2021-08-19 23:41:17.352,-0.275,-0.37
2021-08-19 23:41:17.356,-0.26,-0.385
2021-08-19 23:41:17.360,-0.275,-0.37
2021-08-19 23:41:17.364,-0.285,-0.39
2021-08-19 23:41:17.368,-0.3,-0.365
2021-08-19 23:41:17.372,-0.29,-0.335
2021-08-19 23:41:17.376,-0.3,-0.36
2021-08-19 23:41:17.380,-0.31,-0.355
2021-08-19 23:41:17.384,-0.29,-0.345
2021-08-19 23:41:17.388,-0.27,-0.35
2021-08-19 23:41:17.392,-0.32,-0.34
2021-08-19 23:41:17.396,-0.32,-0.35
2021-08-19 23:41:17.400,-0.32,-0.35
2021-08-19 23:41:17.404,-0.315,-0.36
2021-08-19 23:41:17.408,-0.31,-0.345
2021-08-19 23:41:17.412,-0.305,-0.345
2021-08-19 23:41:17.416,-0.325,-0.315
2021-08-19 23:41:17.420,-0.29,-0.315
2021-08-19 23:41:17.424,-0.31,-0.315
2021-08-19 23:41:17.428,-0.28,-0.32
2021-08-19 23:41:17.432,-0.29,-0.31
2021-08-19 23:41:17.436,-0.295,-0.26
2021-08-19 23:41:17.440,-0.315,-0.24
2021-08-19 23:41:17.444,-0.295,-0.135
2021-08-19 23:41:17.448,-0.26,0.01
2021-08-19 23:41:17.452,-0.2,0.225
2021-08-19 23:41:17.456,-0.12,0.45
2021-08-19 23:41:17.460,-0.29,0.605
2021-08-19 23:41:17.464,-0.64,0.74
2021-08-19 23:41:17.468,-1.235,0.94
2021-08-19 23:41:17.528,-1.945,0.79
2021-08-19 23:41:17.532,-1.825,0.445
2021-08-19 23:41:17.536,-1.69,0.015
2021-08-19 23:41:17.540,-1.595,-0.3
2021-08-19 23:41:17.544,-1.415,-0.465
2021-08-19 23:41:17.548,-1.245,-0.505
2021-08-19 23:41:17.552,-1.08,-0.51
2021-08-19 23:41:17.556,-0.88,-0.53
2021-08-19 23:41:17.560,-0.625,-0.535
2021-08-19 23:41:17.564,-0.39,-0.49
2021-08-19 23:41:17.568,-0.18,-0.48
2021-08-19 23:41:17.572,-0.005,-0.49
2021-08-19 23:41:17.576,0.115,-0.5
2021-08-19 23:41:17.580,0.18,-0.485
2021-08-19 23:41:17.584,0.225,-0.45
2021-08-19 23:41:17.588,0.255,-0.475
2021-08-19 23:41:17.592,0.275,-0.48
2021-08-19 23:41:17.596,0.295,-0.46
2021-08-19 23:41:17.600,0.31,-0.47
2021-08-19 23:41:17.604,0.345,-0.48
2021-08-19 23:41:17.608,0.36,-0.48
2021-08-19 23:41:17.612,0.355,-0.455
2021-08-19 23:41:17.616,0.385,-0.435
2021-08-19 23:41:17.620,0.395,-0.445
2021-08-19 23:41:17.624,0.415,-0.495
2021-08-19 23:41:17.628,0.435,-0.46
2021-08-19 23:41:17.632,0.45,-0.455
2021-08-19 23:41:17.636,0.445,-0.465
2021-08-19 23:41:17.640,0.46,-0.465
2021-08-19 23:41:17.644,0.49,-0.45
2021-08-19 23:41:17.648,0.52,-0.415
2021-08-19 23:41:17.652,0.545,-0.44
2021-08-19 23:41:17.656,0.575,-0.455
2021-08-19 23:41:17.660,0.595,-0.445
2021-08-19 23:41:17.664,0.62,-0.445
2021-08-19 23:41:17.668,0.65,-0.455
2021-08-19 23:41:17.672,0.685,-0.48
2021-08-19 23:41:17.676,0.715,-0.485
2021-08-19 23:41:17.680,0.745,-0.485
2021-08-19 23:41:17.684,0.775,-0.47
2021-08-19 23:41:17.688,0.805,-0.505
2021-08-19 23:41:17.692,0.83,-0.5
2021-08-19 23:41:17.696,0.85,-0.505
2021-08-19 23:41:17.700,0.87,-0.48
2021-08-19 23:41:17.704,0.87,-0.505
2021-08-19 23:41:17.708,0.885,-0.505
2021-08-19 23:41:17.712,0.88,-0.47
2021-08-19 23:41:17.716,0.835,-0.445
2021-08-19 23:41:17.720,0.81,-0.43
2021-08-19 23:41:17.724,0.82,-0.425
2021-08-19 23:41:17.728,0.77,-0.385
2021-08-19 23:41:17.732,0.73,-0.36
2021-08-19 23:41:17.736,0.68,-0.335
2021-08-19 23:41:17.740,0.64,-0.315
2021-08-19 23:41:17.744,0.57,-0.25
2021-08-19 23:41:17.748,0.535,-0.26
2021-08-19 23:41:17.752,0.465,-0.235
2021-08-19 23:41:17.756,0.37,-0.24
2021-08-19 23:41:17.760,0.35,-0.2
2021-08-19 23:41:17.764,0.25,-0.19
2021-08-19 23:41:17.768,0.205,-0.18
2021-08-19 23:41:17.772,0.16,-0.195
2021-08-19 23:41:17.776,0.09,-0.215
2021-08-19 23:41:17.780,0.035,-0.205
2021-08-19 23:41:17.784,0.0,-0.21
2021-08-19 23:41:17.788,-0.04,-0.23
2021-08-19 23:41:17.792,-0.095,-0.24
2021-08-19 23:41:17.796,-0.14,-0.22
2021-08-19 23:41:17.800,-0.155,-0.235
2021-08-19 23:41:17.804,-0.185,-0.25
2021-08-19 23:41:17.808,-0.21,-0.27
2021-08-19 23:41:17.812,-0.21,-0.275
2021-08-19 23:41:17.816,-0.23,-0.26
2021-08-19 23:41:17.820,-0.265,-0.28
2021-08-19 23:41:17.824,-0.26,-0.285
2021-08-19 23:41:17.828,-0.275,-0.285
2021-08-19 23:41:17.832,-0.285,-0.275
2021-08-19 23:41:17.836,-0.275,-0.295
2021-08-19 23:41:17.840,-0.255,-0.31
2021-08-19 23:41:17.844,-0.28,-0.3
2021-08-19 23:41:17.848,-0.275,-0.285
2021-08-19 23:41:17.852,-0.285,-0.3
2021-08-19 23:41:17.856,-0.255,-0.31
2021-08-19 23:41:17.860,-0.27,-0.33
2021-08-19 23:41:17.864,-0.26,-0.32
2021-08-19 23:41:17.868,-0.26,-0.32
2021-08-19 23:41:17.872,-0.295,-0.34
2021-08-19 23:41:17.876,-0.255,-0.35
2021-08-19 23:41:17.880,-0.285,-0.33
2021-08-19 23:41:17.884,-0.265,-0.355
2021-08-19 23:41:17.888,-0.265,-0.33
2021-08-19 23:41:17.892,-0.28,-0.32
2021-08-19 23:41:17.896,-0.285,-0.355
2021-08-19 23:41:17.900,-0.26,-0.35
2021-08-19 23:41:17.904,-0.25,-0.345
2021-08-19 23:41:17.908,-0.28,-0.34
2021-08-19 23:41:17.912,-0.26,-0.355
2021-08-19 23:41:17.916,-0.27,-0.36
2021-08-19 23:41:17.920,-0.28,-0.36
2021-08-19 23:41:17.924,-0.27,-0.37
2021-08-19 23:41:17.928,-0.29,-0.36
2021-08-19 23:41:17.932,-0.28,-0.355
2021-08-19 23:41:17.936,-0.27,-0.35
2021-08-19 23:41:17.940,-0.31,-0.385
2021-08-19 23:41:17.944,-0.305,-0.365
2021-08-19 23:41:17.948,-0.29,-0.35
2021-08-19 23:41:17.952,-0.3,-0.36
2021-08-19 23:41:17.956,-0.29,-0.365
2021-08-19 23:41:17.960,-0.305,-0.375
2021-08-19 23:41:17.964,-0.315,-0.37
2021-08-19 23:41:17.968,-0.315,-0.375
2021-08-19 23:41:17.972,-0.325,-0.35
2021-08-19 23:41:17.976,-0.32,-0.345
2021-08-19 23:41:17.980,-0.32,-0.355
2021-08-19 23:41:17.984,-0.345,-0.365
2021-08-19 23:41:17.988,-0.335,-0.35
2021-08-19 23:41:17.992,-0.33,-0.365
2021-08-19 23:41:17.996,-0.355,-0.36
2021-08-19 23:41:18.000,-0.34,-0.355
2021-08-19 23:41:18.004,-0.34,-0.335
2021-08-19 23:41:18.008,-0.36,-0.305
2021-08-19 23:41:18.012,-0.355,-0.28
2021-08-19 23:41:18.016,-0.35,-0.26
2021-08-19 23:41:18.020,-0.335,-0.265
2021-08-19 23:41:18.024,-0.295,-0.265
2021-08-19 23:41:18.028,-0.26,-0.205
2021-08-19 23:41:18.032,-0.24,-0.16
2021-08-19 23:41:18.036,-0.23,-0.185
2021-08-19 23:41:18.040,-0.185,-0.19
2021-08-19 23:41:18.044,-0.18,-0.18
2021-08-19 23:41:18.048,-0.16,-0.185
2021-08-19 23:41:18.052,-0.175,-0.195
2021-08-19 23:41:18.056,-0.185,-0.23
2021-08-19 23:41:18.060,-0.23,-0.215
2021-08-19 23:41:18.064,-0.25,-0.255
2021-08-19 23:41:18.068,-0.28,-0.28
2021-08-19 23:41:18.072,-0.285,-0.31
2021-08-19 23:41:18.076,-0.315,-0.35
2021-08-19 23:41:18.080,-0.375,-0.335
2021-08-19 23:41:18.084,-0.415,-0.355
2021-08-19 23:41:18.088,-0.44,-0.42
2021-08-19 23:41:18.092,-0.43,-0.445
2021-08-19 23:41:18.096,-0.425,-0.43
2021-08-19 23:41:18.100,-0.425,-0.445
2021-08-19 23:41:18.104,-0.445,-0.46
2021-08-19 23:41:18.108,-0.435,-0.45
2021-08-19 23:41:18.112,-0.44,-0.43
2021-08-19 23:41:18.116,-0.45,-0.435
2021-08-19 23:41:18.120,-0.43,-0.445
2021-08-19 23:41:18.124,-0.45,-0.44
2021-08-19 23:41:18.128,-0.425,-0.41
2021-08-19 23:41:18.132,-0.44,-0.445
2021-08-19 23:41:18.136,-0.435,-0.45
2021-08-19 23:41:18.140,-0.47,-0.435
2021-08-19 23:41:18.144,-0.44,-0.44
2021-08-19 23:41:18.148,-0.43,-0.44
2021-08-19 23:41:18.152,-0.43,-0.435
2021-08-19 23:41:18.156,-0.445,-0.445
2021-08-19 23:41:18.160,-0.42,-0.41
2021-08-19 23:41:18.164,-0.435,-0.425
2021-08-19 23:41:18.168,-0.435,-0.435
2021-08-19 23:41:18.172,-0.425,-0.42
2021-08-19 23:41:18.176,-0.42,-0.425
2021-08-19 23:41:18.180,-0.445,-0.37
2021-08-19 23:41:18.184,-0.43,-0.375
2021-08-19 23:41:18.188,-0.425,-0.315
2021-08-19 23:41:18.192,-0.42,-0.12
2021-08-19 23:41:18.196,-0.36,0.105
2021-08-19 23:41:18.200,-0.31,0.435
2021-08-19 23:41:18.204,-0.29,0.735
2021-08-19 23:41:18.208,-0.49,0.915
2021-08-19 23:41:18.212,-0.85,1.065
2021-08-19 23:41:18.216,-1.545,1.265
2021-08-19 23:41:18.276,-1.955,0.73
2021-08-19 23:41:18.280,-1.82,0.27
2021-08-19 23:41:18.284,-1.665,-0.075
2021-08-19 23:41:18.288,-1.535,-0.355
2021-08-19 23:41:18.292,-1.38,-0.56
2021-08-19 23:41:18.296,-1.18,-0.64
2021-08-19 23:41:18.300,-0.975,-0.68
2021-08-19 23:41:18.304,-0.77,-0.695
2021-08-19 23:41:18.308,-0.55,-0.69
2021-08-19 23:41:18.312,-0.4,-0.65
2021-08-19 23:41:18.316,-0.215,-0.63
2021-08-19 23:41:18.320,-0.09,-0.66
2021-08-19 23:41:18.324,-0.015,-0.66
2021-08-19 23:41:18.328,0.04,-0.655
2021-08-19 23:41:18.332,0.07,-0.64
2021-08-19 23:41:18.336,0.07,-0.62
2021-08-19 23:41:18.340,0.115,-0.64
2021-08-19 23:41:18.344,0.12,-0.615
2021-08-19 23:41:18.348,0.12,-0.625
2021-08-19 23:41:18.352,0.15,-0.63
2021-08-19 23:41:18.356,0.175,-0.64
2021-08-19 23:41:18.360,0.175,-0.63
2021-08-19 23:41:18.364,0.185,-0.62
2021-08-19 23:41:18.368,0.21,-0.61
2021-08-19 23:41:18.372,0.215,-0.61
2021-08-19 23:41:18.376,0.215,-0.62
2021-08-19 23:41:18.380,0.24,-0.62
2021-08-19 23:41:18.384,0.29,-0.61
2021-08-19 23:41:18.388,0.29,-0.615
2021-08-19 23:41:18.392,0.31,-0.61
2021-08-19 23:41:18.396,0.335,-0.61
2021-08-19 23:41:18.400,0.36,-0.6
2021-08-19 23:41:18.404,0.37,-0.635
2021-08-19 23:41:18.408,0.395,-0.62
2021-08-19 23:41:18.412,0.435,-0.61
2021-08-19 23:41:18.416,0.465,-0.62
2021-08-19 23:41:18.420,0.5,-0.63
2021-08-19 23:41:18.424,0.51,-0.62
2021-08-19 23:41:18.428,0.525,-0.63
2021-08-19 23:41:18.432,0.55,-0.63
2021-08-19 23:41:18.436,0.565,-0.63
2021-08-19 23:41:18.440,0.61,-0.66
2021-08-19 23:41:18.444,0.615,-0.63
2021-08-19 23:41:18.448,0.635,-0.65
2021-08-19 23:41:18.452,0.665,-0.62
2021-08-19 23:41:18.456,0.66,-0.605
2021-08-19 23:41:18.460,0.625,-0.59
2021-08-19 23:41:18.464,0.64,-0.545
2021-08-19 23:41:18.468,0.63,-0.52
2021-08-19 23:41:18.472,0.59,-0.495
2021-08-19 23:41:18.476,0.55,-0.47
2021-08-19 23:41:18.480,0.525,-0.425
2021-08-19 23:41:18.484,0.475,-0.395
2021-08-19 23:41:18.488,0.44,-0.36
2021-08-19 23:41:18.492,0.39,-0.33
2021-08-19 23:41:18.496,0.35,-0.28
2021-08-19 23:41:18.500,0.275,-0.26
2021-08-19 23:41:18.504,0.23,-0.24
2021-08-19 23:41:18.508,0.14,-0.27
2021-08-19 23:41:18.512,0.11,-0.27
2021-08-19 23:41:18.516,0.075,-0.275
2021-08-19 23:41:18.520,0.0,-0.27
2021-08-19 23:41:18.524,-0.02,-0.28
2021-08-19 23:41:18.528,-0.06,-0.305
2021-08-19 23:41:18.532,-0.115,-0.3
2021-08-19 23:41:18.536,-0.16,-0.3
2021-08-19 23:41:18.540,-0.215,-0.325
2021-08-19 23:41:18.544,-0.23,-0.345
2021-08-19 23:41:18.548,-0.25,-0.325
2021-08-19 23:41:18.552,-0.27,-0.34
2021-08-19 23:41:18.556,-0.285,-0.355
2021-08-19 23:41:18.560,-0.325,-0.35
2021-08-19 23:41:18.564,-0.31,-0.35
2021-08-19 23:41:18.568,-0.33,-0.355
2021-08-19 23:41:18.572,-0.3,-0.38
2021-08-19 23:41:18.576,-0.32,-0.37
2021-08-19 23:41:18.580,-0.315,-0.38
2021-08-19 23:41:18.584,-0.32,-0.385
2021-08-19 23:41:18.588,-0.34,-0.365
2021-08-19 23:41:18.592,-0.32,-0.39
2021-08-19 23:41:18.596,-0.32,-0.4
2021-08-19 23:41:18.600,-0.33,-0.385
2021-08-19 23:41:18.604,-0.34,-0.405
2021-08-19 23:41:18.608,-0.33,-0.405
2021-08-19 23:41:18.612,-0.325,-0.4
2021-08-19 23:41:18.616,-0.33,-0.385
2021-08-19 23:41:18.620,-0.345,-0.39
2021-08-19 23:41:18.624,-0.33,-0.405
2021-08-19 23:41:18.628,-0.315,-0.415
2021-08-19 23:41:18.632,-0.32,-0.41
2021-08-19 23:41:18.636,-0.315,-0.41
2021-08-19 23:41:18.640,-0.32,-0.41
2021-08-19 23:41:18.644,-0.315,-0.44
2021-08-19 23:41:18.648,-0.325,-0.43
2021-08-19 23:41:18.652,-0.335,-0.435
2021-08-19 23:41:18.656,-0.32,-0.45
2021-08-19 23:41:18.660,-0.335,-0.455
2021-08-19 23:41:18.664,-0.33,-0.445
2021-08-19 23:41:18.668,-0.335,-0.44
2021-08-19 23:41:18.672,-0.32,-0.45
2021-08-19 23:41:18.676,-0.305,-0.455
2021-08-19 23:41:18.680,-0.32,-0.455
2021-08-19 23:41:18.684,-0.31,-0.445
2021-08-19 23:41:18.688,-0.33,-0.46
2021-08-19 23:41:18.692,-0.315,-0.45
2021-08-19 23:41:18.696,-0.31,-0.42
2021-08-19 23:41:18.700,-0.32,-0.435
2021-08-19 23:41:18.704,-0.315,-0.45
2021-08-19 23:41:18.708,-0.335,-0.455
2021-08-19 23:41:18.712,-0.34,-0.44
2021-08-19 23:41:18.716,-0.335,-0.425
2021-08-19 23:41:18.720,-0.35,-0.43
2021-08-19 23:41:18.724,-0.355,-0.44
2021-08-19 23:41:18.728,-0.33,-0.43
2021-08-19 23:41:18.732,-0.335,-0.425
2021-08-19 23:41:18.736,-0.32,-0.415
2021-08-19 23:41:18.740,-0.32,-0.42
2021-08-19 23:41:18.744,-0.36,-0.39
2021-08-19 23:41:18.748,-0.33,-0.36
2021-08-19 23:41:18.752,-0.32,-0.325
2021-08-19 23:41:18.756,-0.33,-0.305
2021-08-19 23:41:18.760,-0.31,-0.315
2021-08-19 23:41:18.764,-0.275,-0.27
2021-08-19 23:41:18.768,-0.24,-0.23
2021-08-19 23:41:18.772,-0.23,-0.225
2021-08-19 23:41:18.776,-0.2,-0.21
2021-08-19 23:41:18.780,-0.175,-0.19
2021-08-19 23:41:18.784,-0.165,-0.175
2021-08-19 23:41:18.788,-0.14,-0.19
2021-08-19 23:41:18.792,-0.145,-0.24
2021-08-19 23:41:18.796,-0.15,-0.25
2021-08-19 23:41:18.800,-0.2,-0.24
2021-08-19 23:41:18.804,-0.24,-0.235
2021-08-19 23:41:18.808,-0.29,-0.29
2021-08-19 23:41:18.812,-0.3,-0.31
2021-08-19 23:41:18.816,-0.295,-0.33
2021-08-19 23:41:18.820,-0.355,-0.325
2021-08-19 23:41:18.824,-0.385,-0.36
2021-08-19 23:41:18.828,-0.395,-0.395
2021-08-19 23:41:18.832,-0.43,-0.415
2021-08-19 23:41:18.836,-0.425,-0.46
2021-08-19 23:41:18.840,-0.42,-0.45
2021-08-19 23:41:18.844,-0.405,-0.465
2021-08-19 23:41:18.848,-0.445,-0.47
2021-08-19 23:41:18.852,-0.42,-0.45
2021-08-19 23:41:18.856,-0.43,-0.46
2021-08-19 23:41:18.860,-0.44,-0.455
2021-08-19 23:41:18.864,-0.465,-0.46
2021-08-19 23:41:18.868,-0.435,-0.46
2021-08-19 23:41:18.872,-0.435,-0.45
2021-08-19 23:41:18.876,-0.44,-0.465
2021-08-19 23:41:18.880,-0.43,-0.485
2021-08-19 23:41:18.884,-0.43,-0.46
2021-08-19 23:41:18.888,-0.43,-0.45
2021-08-19 23:41:18.892,-0.44,-0.435
2021-08-19 23:41:18.896,-0.41,-0.45
2021-08-19 23:41:18.900,-0.41,-0.44
2021-08-19 23:41:18.904,-0.41,-0.435
2021-08-19 23:41:18.908,-0.405,-0.44
2021-08-19 23:41:18.912,-0.44,-0.42
2021-08-19 23:41:18.916,-0.41,-0.425
2021-08-19 23:41:18.920,-0.435,-0.405
2021-08-19 23:41:18.924,-0.42,-0.42
2021-08-19 23:41:18.928,-0.43,-0.345
2021-08-19 23:41:18.932,-0.435,-0.27
2021-08-19 23:41:18.936,-0.405,-0.115
2021-08-19 23:41:18.940,-0.36,0.09
2021-08-19 23:41:18.944,-0.28,0.41
2021-08-19 23:41:18.948,-0.265,0.675
2021-08-19 23:41:18.952,-0.48,0.855
2021-08-19 23:41:18.956,-0.835,1.035
2021-08-19 23:41:18.960,-1.43,1.265
2021-08-19 23:41:19.016,-1.905,1.235
2021-08-19 23:41:19.020,-1.785,0.85
2021-08-19 23:41:19.024,-1.68,0.37
2021-08-19 23:41:19.028,-1.575,-0.005
2021-08-19 23:41:19.032,-1.455,-0.285
2021-08-19 23:41:19.036,-1.295,-0.52
2021-08-19 23:41:19.040,-1.15,-0.64
2021-08-19 23:41:19.044,-0.985,-0.67
2021-08-19 23:41:19.048,-0.78,-0.71
2021-08-19 23:41:19.052,-0.6,-0.695
2021-08-19 23:41:19.056,-0.41,-0.65
2021-08-19 23:41:19.060,-0.215,-0.655
2021-08-19 23:41:19.064,-0.08,-0.66
2021-08-19 23:41:19.068,-0.015,-0.67
2021-08-19 23:41:19.072,0.06,-0.69
2021-08-19 23:41:19.076,0.075,-0.665
2021-08-19 23:41:19.080,0.105,-0.67
2021-08-19 23:41:19.084,0.145,-0.685
2021-08-19 23:41:19.088,0.155,-0.685
2021-08-19 23:41:19.092,0.195,-0.66
2021-08-19 23:41:19.096,0.185,-0.66
2021-08-19 23:41:19.100,0.215,-0.665
2021-08-19 23:41:19.104,0.23,-0.675
2021-08-19 23:41:19.108,0.24,-0.65
2021-08-19 23:41:19.112,0.245,-0.655
2021-08-19 23:41:19.116,0.26,-0.67
2021-08-19 23:41:19.120,0.27,-0.68
2021-08-19 23:41:19.124,0.285,-0.655
2021-08-19 23:41:19.128,0.305,-0.645
2021-08-19 23:41:19.132,0.31,-0.64
2021-08-19 23:41:19.136,0.34,-0.66
2021-08-19 23:41:19.140,0.365,-0.665
2021-08-19 23:41:19.144,0.415,-0.66
2021-08-19 23:41:19.148,0.39,-0.67
2021-08-19 23:41:19.152,0.455,-0.695
2021-08-19 23:41:19.156,0.45,-0.69
2021-08-19 23:41:19.160,0.5,-0.7
2021-08-19 23:41:19.164,0.535,-0.705
2021-08-19 23:41:19.168,0.555,-0.73
2021-08-19 23:41:19.172,0.56,-0.735
2021-08-19 23:41:19.176,0.6,-0.73
2021-08-19 23:41:19.180,0.605,-0.72
2021-08-19 23:41:19.184,0.645,-0.755
2021-08-19 23:41:19.188,0.635,-0.745
2021-08-19 23:41:19.192,0.665,-0.735
2021-08-19 23:41:19.196,0.695,-0.725
2021-08-19 23:41:19.200,0.69,-0.725
2021-08-19 23:41:19.204,0.7,-0.74
2021-08-19 23:41:19.208,0.705,-0.705
2021-08-19 23:41:19.212,0.695,-0.68
2021-08-19 23:41:19.216,0.68,-0.64
2021-08-19 23:41:19.220,0.645,-0.63
2021-08-19 23:41:19.224,0.62,-0.595
2021-08-19 23:41:19.228,0.58,-0.535
2021-08-19 23:41:19.232,0.555,-0.49
2021-08-19 23:41:19.236,0.49,-0.475
2021-08-19 23:41:19.240,0.445,-0.425
2021-08-19 23:41:19.244,0.44,-0.38
2021-08-19 23:41:19.248,0.36,-0.35
2021-08-19 23:41:19.252,0.3,-0.355
2021-08-19 23:41:19.256,0.255,-0.335
2021-08-19 23:41:19.260,0.205,-0.325
2021-08-19 23:41:19.264,0.145,-0.3
2021-08-19 23:41:19.268,0.09,-0.31
2021-08-19 23:41:19.272,0.035,-0.305
2021-08-19 23:41:19.276,0.005,-0.33
2021-08-19 23:41:19.280,-0.03,-0.31
2021-08-19 23:41:19.284,-0.07,-0.34
2021-08-19 23:41:19.288,-0.12,-0.37
2021-08-19 23:41:19.292,-0.135,-0.345
2021-08-19 23:41:19.296,-0.18,-0.325
2021-08-19 23:41:19.300,-0.175,-0.34
2021-08-19 23:41:19.304,-0.195,-0.36
2021-08-19 23:41:19.308,-0.21,-0.375
2021-08-19 23:41:19.312,-0.215,-0.345
2021-08-19 23:41:19.316,-0.23,-0.36
2021-08-19 23:41:19.320,-0.245,-0.35
2021-08-19 23:41:19.324,-0.24,-0.375
2021-08-19 23:41:19.328,-0.225,-0.39
2021-08-19 23:41:19.332,-0.27,-0.38
2021-08-19 23:41:19.336,-0.25,-0.38
2021-08-19 23:41:19.340,-0.23,-0.405
2021-08-19 23:41:19.344,-0.26,-0.38
2021-08-19 23:41:19.348,-0.235,-0.37
2021-08-19 23:41:19.352,-0.235,-0.37
2021-08-19 23:41:19.356,-0.255,-0.395
2021-08-19 23:41:19.360,-0.24,-0.4
2021-08-19 23:41:19.364,-0.235,-0.395
2021-08-19 23:41:19.368,-0.23,-0.4
2021-08-19 23:41:19.372,-0.225,-0.42
2021-08-19 23:41:19.376,-0.245,-0.425
2021-08-19 23:41:19.380,-0.24,-0.415
2021-08-19 23:41:19.384,-0.245,-0.425
2021-08-19 23:41:19.388,-0.255,-0.42
2021-08-19 23:41:19.392,-0.24,-0.44
2021-08-19 23:41:19.396,-0.25,-0.43
2021-08-19 23:41:19.400,-0.26,-0.435
2021-08-19 23:41:19.404,-0.25,-0.425
2021-08-19 23:41:19.408,-0.245,-0.465
2021-08-19 23:41:19.412,-0.24,-0.45
2021-08-19 23:41:19.416,-0.27,-0.43
2021-08-19 23:41:19.420,-0.24,-0.425
2021-08-19 23:41:19.424,-0.26,-0.445
2021-08-19 23:41:19.428,-0.22,-0.405
2021-08-19 23:41:19.432,-0.245,-0.41
2021-08-19 23:41:19.436,-0.24,-0.415
2021-08-19 23:41:19.440,-0.245,-0.405
2021-08-19 23:41:19.444,-0.255,-0.42
2021-08-19 23:41:19.448,-0.235,-0.405
2021-08-19 23:41:19.452,-0.235,-0.4
2021-08-19 23:41:19.456,-0.225,-0.41
2021-08-19 23:41:19.460,-0.235,-0.405
2021-08-19 23:41:19.464,-0.245,-0.375
2021-08-19 23:41:19.468,-0.255,-0.355
2021-08-19 23:41:19.472,-0.24,-0.295
2021-08-19 23:41:19.476,-0.255,-0.285
2021-08-19 23:41:19.480,-0.235,-0.265
2021-08-19 23:41:19.484,-0.195,-0.23
2021-08-19 23:41:19.488,-0.16,-0.22
2021-08-19 23:41:19.492,-0.14,-0.185
2021-08-19 23:41:19.496,-0.12,-0.165
2021-08-19 23:41:19.500,-0.09,-0.155
2021-08-19 23:41:19.504,-0.075,-0.145
2021-08-19 23:41:19.508,-0.05,-0.145
2021-08-19 23:41:19.512,-0.05,-0.175
2021-08-19 23:41:19.516,-0.035,-0.21
2021-08-19 23:41:19.520,-0.075,-0.215
2021-08-19 23:41:19.524,-0.12,-0.23
2021-08-19 23:41:19.528,-0.155,-0.23
2021-08-19 23:41:19.532,-0.19,-0.26
2021-08-19 23:41:19.536,-0.185,-0.295
2021-08-19 23:41:19.540,-0.2,-0.29
2021-08-19 23:41:19.544,-0.24,-0.29
2021-08-19 23:41:19.548,-0.29,-0.32
2021-08-19 23:41:19.552,-0.3,-0.38
2021-08-19 23:41:19.556,-0.29,-0.4
2021-08-19 23:41:19.560,-0.28,-0.415
2021-08-19 23:41:19.564,-0.285,-0.43
2021-08-19 23:41:19.568,-0.28,-0.415
2021-08-19 23:41:19.572,-0.28,-0.425
2021-08-19 23:41:19.576,-0.305,-0.42
2021-08-19 23:41:19.580,-0.285,-0.425
2021-08-19 23:41:19.584,-0.315,-0.425
2021-08-19 23:41:19.588,-0.29,-0.43
2021-08-19 23:41:19.592,-0.29,-0.41
2021-08-19 23:41:19.596,-0.305,-0.41
2021-08-19 23:41:19.600,-0.29,-0.415
2021-08-19 23:41:19.604,-0.295,-0.405
2021-08-19 23:41:19.608,-0.295,-0.39
2021-08-19 23:41:19.612,-0.28,-0.4
2021-08-19 23:41:19.616,-0.28,-0.41
2021-08-19 23:41:19.620,-0.3,-0.395
2021-08-19 23:41:19.624,-0.31,-0.43
2021-08-19 23:41:19.628,-0.32,-0.395
2021-08-19 23:41:19.632,-0.3,-0.395
2021-08-19 23:41:19.636,-0.305,-0.4
2021-08-19 23:41:19.640,-0.3,-0.39
2021-08-19 23:41:19.644,-0.285,-0.39
2021-08-19 23:41:19.648,-0.285,-0.385
2021-08-19 23:41:19.652,-0.3,-0.355
2021-08-19 23:41:19.656,-0.295,-0.335
2021-08-19 23:41:19.660,-0.285,-0.24
2021-08-19 23:41:19.664,-0.27,-0.105
2021-08-19 23:41:19.668,-0.225,0.055
2021-08-19 23:41:19.672,-0.17,0.32
2021-08-19 23:41:19.676,-0.15,0.525
2021-08-19 23:41:19.680,-0.37,0.72
2021-08-19 23:41:19.684,-0.74,0.925
2021-08-19 23:41:19.688,-1.345,1.18
2021-08-19 23:41:19.744,-1.91,1.275
2021-08-19 23:41:19.748,-1.76,1.175
2021-08-19 23:41:19.752,-1.645,0.82
2021-08-19 23:41:19.756,-1.54,0.315
2021-08-19 23:41:19.760,-1.5,-0.07
2021-08-19 23:41:19.764,-1.34,-0.315
2021-08-19 23:41:19.768,-1.18,-0.495
2021-08-19 23:41:19.772,-1.055,-0.59
2021-08-19 23:41:19.776,-0.885,-0.65
2021-08-19 23:41:19.780,-0.675,-0.66
2021-08-19 23:41:19.784,-0.49,-0.645
2021-08-19 23:41:19.788,-0.305,-0.62
2021-08-19 23:41:19.792,-0.105,-0.59
2021-08-19 23:41:19.796,0.035,-0.625
2021-08-19 23:41:19.800,0.1,-0.615
2021-08-19 23:41:19.804,0.15,-0.61
2021-08-19 23:41:19.808,0.185,-0.62
2021-08-19 23:41:19.812,0.22,-0.62
2021-08-19 23:41:19.816,0.25,-0.605
2021-08-19 23:41:19.820,0.265,-0.6
2021-08-19 23:41:19.824,0.285,-0.595
2021-08-19 23:41:19.828,0.285,-0.605
2021-08-19 23:41:19.832,0.33,-0.605
2021-08-19 23:41:19.836,0.34,-0.575
2021-08-19 23:41:19.840,0.33,-0.59
2021-08-19 23:41:19.844,0.34,-0.62
2021-08-19 23:41:19.848,0.385,-0.605
2021-08-19 23:41:19.852,0.38,-0.575
2021-08-19 23:41:19.856,0.41,-0.575
2021-08-19 23:41:19.860,0.41,-0.595
2021-08-19 23:41:19.864,0.43,-0.58
2021-08-19 23:41:19.868,0.48,-0.565
2021-08-19 23:41:19.872,0.49,-0.56
2021-08-19 23:41:19.876,0.505,-0.575
2021-08-19 23:41:19.880,0.525,-0.585
2021-08-19 23:41:19.884,0.56,-0.6
2021-08-19 23:41:19.888,0.6,-0.58
2021-08-19 23:41:19.892,0.625,-0.595
2021-08-19 23:41:19.896,0.655,-0.615
2021-08-19 23:41:19.900,0.68,-0.61
2021-08-19 23:41:19.904,0.705,-0.62
2021-08-19 23:41:19.908,0.735,-0.635
2021-08-19 23:41:19.912,0.76,-0.67
2021-08-19 23:41:19.916,0.775,-0.65
2021-08-19 23:41:19.920,0.795,-0.66
2021-08-19 23:41:19.924,0.815,-0.655
2021-08-19 23:41:19.928,0.825,-0.665
2021-08-19 23:41:19.932,0.84,-0.67
2021-08-19 23:41:19.936,0.835,-0.655
2021-08-19 23:41:19.940,0.82,-0.645
2021-08-19 23:41:19.944,0.83,-0.65
2021-08-19 23:41:19.948,0.81,-0.625
2021-08-19 23:41:19.952,0.785,-0.595
2021-08-19 23:41:19.956,0.715,-0.56
2021-08-19 23:41:19.960,0.68,-0.545
2021-08-19 23:41:19.964,0.685,-0.48
2021-08-19 23:41:19.968,0.6,-0.445
2021-08-19 23:41:19.972,0.56,-0.415
2021-08-19 23:41:19.976,0.485,-0.385
2021-08-19 23:41:19.980,0.45,-0.36
2021-08-19 23:41:19.984,0.4,-0.325
2021-08-19 23:41:19.988,0.34,-0.31
2021-08-19 23:41:19.992,0.275,-0.315
2021-08-19 23:41:19.996,0.21,-0.3
2021-08-19 23:41:20.000,0.16,-0.295
2021-08-19 23:41:20.004,0.09,-0.305
2021-08-19 23:41:20.008,0.075,-0.295
2021-08-19 23:41:20.012,0.015,-0.315
2021-08-19 23:41:20.016,-0.015,-0.33
2021-08-19 23:41:20.020,-0.035,-0.315
2021-08-19 23:41:20.024,-0.08,-0.325
2021-08-19 23:41:20.028,-0.1,-0.34
2021-08-19 23:41:20.032,-0.145,-0.355
2021-08-19 23:41:20.036,-0.13,-0.35
2021-08-19 23:41:20.040,-0.165,-0.345
2021-08-19 23:41:20.044,-0.165,-0.365
2021-08-19 23:41:20.048,-0.185,-0.35
2021-08-19 23:41:20.052,-0.19,-0.365
2021-08-19 23:41:20.056,-0.19,-0.36
2021-08-19 23:41:20.060,-0.18,-0.37
2021-08-19 23:41:20.064,-0.185,-0.375
2021-08-19 23:41:20.068,-0.21,-0.405
2021-08-19 23:41:20.072,-0.205,-0.38
2021-08-19 23:41:20.076,-0.2,-0.395
2021-08-19 23:41:20.080,-0.195,-0.4
2021-08-19 23:41:20.084,-0.195,-0.405
2021-08-19 23:41:20.088,-0.185,-0.405
2021-08-19 23:41:20.092,-0.195,-0.41
2021-08-19 23:41:20.096,-0.205,-0.4
2021-08-19 23:41:20.100,-0.205,-0.415
2021-08-19 23:41:20.104,-0.175,-0.405
2021-08-19 23:41:20.108,-0.19,-0.415
2021-08-19 23:41:20.112,-0.2,-0.42
2021-08-19 23:41:20.116,-0.22,-0.44
2021-08-19 23:41:20.120,-0.195,-0.43
2021-08-19 23:41:20.124,-0.2,-0.43
2021-08-19 23:41:20.128,-0.195,-0.435
2021-08-19 23:41:20.132,-0.2,-0.445
2021-08-19 23:41:20.136,-0.185,-0.435
2021-08-19 23:41:20.140,-0.195,-0.46
2021-08-19 23:41:20.144,-0.18,-0.445
2021-08-19 23:41:20.148,-0.2,-0.435
2021-08-19 23:41:20.152,-0.195,-0.45
2021-08-19 23:41:20.156,-0.195,-0.445
2021-08-19 23:41:20.160,-0.2,-0.465
2021-08-19 23:41:20.164,-0.2,-0.44
2021-08-19 23:41:20.168,-0.225,-0.44
2021-08-19 23:41:20.172,-0.215,-0.435
2021-08-19 23:41:20.176,-0.19,-0.45
2021-08-19 23:41:20.180,-0.19,-0.42
2021-08-19 23:41:20.184,-0.17,-0.43
2021-08-19 23:41:20.188,-0.205,-0.43
2021-08-19 23:41:20.192,-0.21,-0.425
2021-08-19 23:41:20.196,-0.21,-0.44
2021-08-19 23:41:20.200,-0.2,-0.41
2021-08-19 23:41:20.204,-0.22,-0.415
2021-08-19 23:41:20.208,-0.215,-0.395
2021-08-19 23:41:20.212,-0.2,-0.36
2021-08-19 23:41:20.216,-0.24,-0.335
2021-08-19 23:41:20.220,-0.21,-0.3
2021-08-19 23:41:20.224,-0.18,-0.29
2021-08-19 23:41:20.228,-0.16,-0.27
2021-08-19 23:41:20.232,-0.125,-0.25
2021-08-19 23:41:20.236,-0.12,-0.205
2021-08-19 23:41:20.240,-0.08,-0.225
2021-08-19 23:41:20.244,-0.06,-0.185
2021-08-19 23:41:20.248,-0.035,-0.185
2021-08-19 23:41:20.252,-0.005,-0.19
2021-08-19 23:41:20.256,-0.03,-0.22
2021-08-19 23:41:20.260,-0.025,-0.27
2021-08-19 23:41:20.264,-0.05,-0.25
2021-08-19 23:41:20.268,-0.11,-0.26
2021-08-19 23:41:20.272,-0.14,-0.3
2021-08-19 23:41:20.276,-0.18,-0.325
2021-08-19 23:41:20.280,-0.15,-0.34
2021-08-19 23:41:20.284,-0.2,-0.34
2021-08-19 23:41:20.288,-0.27,-0.35
2021-08-19 23:41:20.292,-0.295,-0.39
2021-08-19 23:41:20.296,-0.28,-0.425
2021-08-19 23:41:20.300,-0.26,-0.45
2021-08-19 23:41:20.304,-0.275,-0.47
2021-08-19 23:41:20.308,-0.265,-0.465
2021-08-19 23:41:20.312,-0.245,-0.465
2021-08-19 23:41:20.316,-0.245,-0.465
2021-08-19 23:41:20.320,-0.28,-0.455
2021-08-19 23:41:20.324,-0.26,-0.475
2021-08-19 23:41:20.328,-0.27,-0.45
2021-08-19 23:41:20.332,-0.27,-0.45
2021-08-19 23:41:20.336,-0.265,-0.45
2021-08-19 23:41:20.340,-0.245,-0.465
2021-08-19 23:41:20.344,-0.245,-0.46
2021-08-19 23:41:20.348,-0.235,-0.44
2021-08-19 23:41:20.352,-0.25,-0.43
2021-08-19 23:41:20.356,-0.235,-0.465
2021-08-19 23:41:20.360,-0.25,-0.455
2021-08-19 23:41:20.364,-0.25,-0.45
2021-08-19 23:41:20.368,-0.245,-0.43
2021-08-19 23:41:20.372,-0.245,-0.425
2021-08-19 23:41:20.376,-0.245,-0.435
2021-08-19 23:41:20.380,-0.265,-0.42
2021-08-19 23:41:20.384,-0.24,-0.405
2021-08-19 23:41:20.388,-0.25,-0.415
2021-08-19 23:41:20.392,-0.23,-0.39
2021-08-19 23:41:20.396,-0.225,-0.315
2021-08-19 23:41:20.400,-0.235,-0.19
2021-08-19 23:41:20.404,-0.205,-0.025
2021-08-19 23:41:20.408,-0.14,0.23
2021-08-19 23:41:20.412,-0.07,0.485
2021-08-19 23:41:20.416,-0.285,0.68
2021-08-19 23:41:20.420,-0.665,0.87
2021-08-19 23:41:20.424,-1.28,1.15
2021-08-19 23:41:20.476,-1.925,1.175
2021-08-19 23:41:20.480,-1.8,1.08
2021-08-19 23:41:20.484,-1.67,0.735
2021-08-19 23:41:20.488,-1.545,0.23
2021-08-19 23:41:20.492,-1.435,-0.18
2021-08-19 23:41:20.496,-1.305,-0.42
2021-08-19 23:41:20.500,-1.16,-0.605
2021-08-19 23:41:20.504,-1.02,-0.635
2021-08-19 23:41:20.508,-0.82,-0.635
2021-08-19 23:41:20.512,-0.6,-0.63
2021-08-19 23:41:20.516,-0.395,-0.66
2021-08-19 23:41:20.520,-0.18,-0.62
2021-08-19 23:41:20.524,0.01,-0.615
2021-08-19 23:41:20.528,0.13,-0.62
2021-08-19 23:41:20.532,0.19,-0.625
2021-08-19 23:41:20.536,0.24,-0.615
2021-08-19 23:41:20.540,0.285,-0.635
2021-08-19 23:41:20.544,0.32,-0.615
2021-08-19 23:41:20.548,0.345,-0.595
2021-08-19 23:41:20.552,0.355,-0.61
2021-08-19 23:41:20.556,0.375,-0.62
2021-08-19 23:41:20.560,0.39,-0.595
2021-08-19 23:41:20.564,0.41,-0.59
2021-08-19 23:41:20.568,0.415,-0.59
2021-08-19 23:41:20.572,0.42,-0.575
2021-08-19 23:41:20.576,0.45,-0.57
2021-08-19 23:41:20.580,0.45,-0.575
2021-08-19 23:41:20.584,0.49,-0.565
2021-08-19 23:41:20.588,0.49,-0.58
2021-08-19 23:41:20.592,0.535,-0.57
2021-08-19 23:41:20.596,0.535,-0.57
2021-08-19 23:41:20.600,0.595,-0.575
2021-08-19 23:41:20.604,0.59,-0.565
2021-08-19 23:41:20.608,0.645,-0.59
2021-08-19 23:41:20.612,0.635,-0.57
2021-08-19 23:41:20.616,0.685,-0.59
2021-08-19 23:41:20.620,0.725,-0.585
2021-08-19 23:41:20.624,0.735,-0.615
2021-08-19 23:41:20.628,0.79,-0.63
2021-08-19 23:41:20.632,0.795,-0.6
2021-08-19 23:41:20.636,0.83,-0.625
2021-08-19 23:41:20.640,0.865,-0.635
2021-08-19 23:41:20.644,0.885,-0.65
2021-08-19 23:41:20.648,0.92,-0.655
2021-08-19 23:41:20.652,0.93,-0.68
2021-08-19 23:41:20.656,0.955,-0.67
2021-08-19 23:41:20.660,0.96,-0.675
2021-08-19 23:41:20.664,0.965,-0.635
2021-08-19 23:41:20.668,0.915,-0.655
2021-08-19 23:41:20.672,0.91,-0.61
2021-08-19 23:41:20.676,0.9,-0.61
2021-08-19 23:41:20.680,0.87,-0.585
2021-08-19 23:41:20.684,0.84,-0.555
2021-08-19 23:41:20.688,0.78,-0.52
2021-08-19 23:41:20.692,0.755,-0.475
2021-08-19 23:41:20.696,0.7,-0.45
2021-08-19 23:41:20.700,0.635,-0.41
2021-08-19 23:41:20.704,0.575,-0.385
2021-08-19 23:41:20.708,0.535,-0.32
2021-08-19 23:41:20.712,0.48,-0.31
2021-08-19 23:41:20.716,0.43,-0.33
2021-08-19 23:41:20.720,0.36,-0.3
2021-08-19 23:41:20.724,0.315,-0.27
2021-08-19 23:41:20.728,0.265,-0.305
2021-08-19 23:41:20.732,0.205,-0.285
2021-08-19 23:41:20.736,0.15,-0.285
2021-08-19 23:41:20.740,0.115,-0.295
2021-08-19 23:41:20.744,0.045,-0.305
2021-08-19 23:41:20.748,0.02,-0.315
2021-08-19 23:41:20.752,-0.005,-0.305
2021-08-19 23:41:20.756,-0.015,-0.305
2021-08-19 23:41:20.760,-0.05,-0.33
2021-08-19 23:41:20.764,-0.08,-0.32
2021-08-19 23:41:20.768,-0.085,-0.32
2021-08-19 23:41:20.772,-0.105,-0.345
2021-08-19 23:41:20.776,-0.13,-0.335
2021-08-19 23:41:20.780,-0.125,-0.345
2021-08-19 23:41:20.784,-0.12,-0.335
2021-08-19 23:41:20.788,-0.13,-0.33
2021-08-19 23:41:20.792,-0.135,-0.35
2021-08-19 23:41:20.796,-0.13,-0.36
2021-08-19 23:41:20.800,-0.12,-0.375
2021-08-19 23:41:20.804,-0.12,-0.355
2021-08-19 23:41:20.808,-0.155,-0.36
2021-08-19 23:41:20.812,-0.155,-0.395
2021-08-19 23:41:20.816,-0.17,-0.385
2021-08-19 23:41:20.820,-0.13,-0.39
2021-08-19 23:41:20.824,-0.14,-0.38
2021-08-19 23:41:20.828,-0.14,-0.39
2021-08-19 23:41:20.832,-0.15,-0.39
2021-08-19 23:41:20.836,-0.11,-0.38
2021-08-19 23:41:20.840,-0.14,-0.4
2021-08-19 23:41:20.844,-0.14,-0.415
2021-08-19 23:41:20.848,-0.13,-0.415
2021-08-19 23:41:20.852,-0.14,-0.39
2021-08-19 23:41:20.856,-0.13,-0.415
2021-08-19 23:41:20.860,-0.125,-0.4
2021-08-19 23:41:20.864,-0.12,-0.425
2021-08-19 23:41:20.868,-0.105,-0.39
2021-08-19 23:41:20.872,-0.125,-0.39
2021-08-19 23:41:20.876,-0.115,-0.415
2021-08-19 23:41:20.880,-0.135,-0.425
2021-08-19 23:41:20.884,-0.105,-0.42
2021-08-19 23:41:20.888,-0.115,-0.395
2021-08-19 23:41:20.892,-0.115,-0.395
2021-08-19 23:41:20.896,-0.125,-0.4
2021-08-19 23:41:20.900,-0.13,-0.395
2021-08-19 23:41:20.904,-0.12,-0.38
2021-08-19 23:41:20.908,-0.13,-0.405
2021-08-19 23:41:20.912,-0.12,-0.43
2021-08-19 23:41:20.916,-0.125,-0.395
2021-08-19 23:41:20.920,-0.13,-0.39
2021-08-19 23:41:20.924,-0.155,-0.4
2021-08-19 23:41:20.928,-0.155,-0.4
2021-08-19 23:41:20.932,-0.14,-0.39
2021-08-19 23:41:20.936,-0.15,-0.39
2021-08-19 23:41:20.940,-0.155,-0.37
2021-08-19 23:41:20.944,-0.15,-0.31
2021-08-19 23:41:20.948,-0.135,-0.27
2021-08-19 23:41:20.952,-0.13,-0.27
2021-08-19 23:41:20.956,-0.105,-0.245
2021-08-19 23:41:20.960,-0.08,-0.21
2021-08-19 23:41:20.964,-0.035,-0.19
2021-08-19 23:41:20.968,-0.05,-0.165
2021-08-19 23:41:20.972,0.0,-0.13
2021-08-19 23:41:20.976,0.05,-0.16
2021-08-19 23:41:20.980,0.035,-0.16
2021-08-19 23:41:20.984,0.03,-0.17
2021-08-19 23:41:20.988,0.02,-0.22
2021-08-19 23:41:20.992,-0.01,-0.23
2021-08-19 23:41:20.996,-0.055,-0.24
2021-08-19 23:41:21.000,-0.11,-0.26
2021-08-19 23:41:21.004,-0.13,-0.28
2021-08-19 23:41:21.008,-0.14,-0.325
2021-08-19 23:41:21.012,-0.175,-0.33
2021-08-19 23:41:21.016,-0.215,-0.33
2021-08-19 23:41:21.020,-0.24,-0.385
2021-08-19 23:41:21.024,-0.24,-0.42
2021-08-19 23:41:21.028,-0.23,-0.45
2021-08-19 23:41:21.032,-0.23,-0.45
2021-08-19 23:41:21.036,-0.235,-0.445
2021-08-19 23:41:21.040,-0.25,-0.45
2021-08-19 23:41:21.044,-0.265,-0.495
2021-08-19 23:41:21.048,-0.23,-0.47
2021-08-19 23:41:21.052,-0.225,-0.445
2021-08-19 23:41:21.056,-0.205,-0.44
2021-08-19 23:41:21.060,-0.255,-0.445
2021-08-19 23:41:21.064,-0.235,-0.44
2021-08-19 23:41:21.068,-0.25,-0.42
2021-08-19 23:41:21.072,-0.245,-0.45
2021-08-19 23:41:21.076,-0.235,-0.455
2021-08-19 23:41:21.080,-0.235,-0.44
2021-08-19 23:41:21.084,-0.255,-0.43
2021-08-19 23:41:21.088,-0.26,-0.43
2021-08-19 23:41:21.092,-0.23,-0.45
2021-08-19 23:41:21.096,-0.245,-0.415
2021-08-19 23:41:21.100,-0.235,-0.41
2021-08-19 23:41:21.104,-0.255,-0.405
2021-08-19 23:41:21.108,-0.24,-0.415
2021-08-19 23:41:21.112,-0.24,-0.38
2021-08-19 23:41:21.116,-0.24,-0.36
2021-08-19 23:41:21.120,-0.25,-0.285
2021-08-19 23:41:21.124,-0.22,-0.165
2021-08-19 23:41:21.128,-0.185,0.005
2021-08-19 23:41:21.132,-0.125,0.295
2021-08-19 23:41:21.136,-0.095,0.535
2021-08-19 23:41:21.140,-0.29,0.685
2021-08-19 23:41:21.144,-0.705,0.9
2021-08-19 23:41:21.148,-1.365,1.18
2021-08-19 23:41:21.200,-1.975,1.17
2021-08-19 23:41:21.204,-1.87,1.05
2021-08-19 23:41:21.208,-1.715,0.735
2021-08-19 23:41:21.212,-1.595,0.25
2021-08-19 23:41:21.216,-1.52,-0.18
2021-08-19 23:41:21.220,-1.385,-0.425
2021-08-19 23:41:21.224,-1.215,-0.575
2021-08-19 23:41:21.228,-1.06,-0.615
2021-08-19 23:41:21.232,-0.885,-0.625
2021-08-19 23:41:21.236,-0.635,-0.62
2021-08-19 23:41:21.240,-0.395,-0.645
2021-08-19 23:41:21.244,-0.18,-0.6
2021-08-19 23:41:21.248,0.01,-0.615
2021-08-19 23:41:21.252,0.155,-0.62
2021-08-19 23:41:21.256,0.225,-0.61
2021-08-19 23:41:21.260,0.3,-0.6
2021-08-19 23:41:21.264,0.315,-0.59
2021-08-19 23:41:21.268,0.345,-0.585
2021-08-19 23:41:21.272,0.36,-0.58
2021-08-19 23:41:21.276,0.39,-0.575
2021-08-19 23:41:21.280,0.41,-0.61
2021-08-19 23:41:21.284,0.435,-0.595
2021-08-19 23:41:21.288,0.46,-0.57
2021-08-19 23:41:21.292,0.44,-0.575
2021-08-19 23:41:21.296,0.465,-0.58
2021-08-19 23:41:21.300,0.495,-0.58
2021-08-19 23:41:21.304,0.515,-0.59
2021-08-19 23:41:21.308,0.525,-0.555
2021-08-19 23:41:21.312,0.555,-0.58
2021-08-19 23:41:21.316,0.555,-0.595
2021-08-19 23:41:21.320,0.585,-0.585
2021-08-19 23:41:21.324,0.635,-0.56
2021-08-19 23:41:21.328,0.62,-0.575
2021-08-19 23:41:21.332,0.665,-0.605
2021-08-19 23:41:21.336,0.69,-0.6
2021-08-19 23:41:21.340,0.735,-0.595
2021-08-19 23:41:21.344,0.76,-0.595
2021-08-19 23:41:21.348,0.795,-0.605
2021-08-19 23:41:21.352,0.83,-0.605
2021-08-19 23:41:21.356,0.87,-0.605
2021-08-19 23:41:21.360,0.87,-0.625
2021-08-19 23:41:21.364,0.9,-0.625
2021-08-19 23:41:21.368,0.945,-0.635
2021-08-19 23:41:21.372,0.96,-0.64
2021-08-19 23:41:21.376,0.98,-0.66
2021-08-19 23:41:21.380,1.0,-0.655
2021-08-19 23:41:21.384,1.015,-0.64
2021-08-19 23:41:21.388,1.015,-0.635
2021-08-19 23:41:21.392,0.985,-0.615
2021-08-19 23:41:21.396,1.0,-0.595
2021-08-19 23:41:21.400,0.965,-0.575
2021-08-19 23:41:21.404,0.925,-0.53
2021-08-19 23:41:21.408,0.855,-0.515
2021-08-19 23:41:21.412,0.83,-0.47
2021-08-19 23:41:21.416,0.8,-0.43
2021-08-19 23:41:21.420,0.74,-0.38
2021-08-19 23:41:21.424,0.68,-0.365
2021-08-19 23:41:21.428,0.61,-0.35
2021-08-19 23:41:21.432,0.555,-0.3
2021-08-19 23:41:21.436,0.495,-0.275
2021-08-19 23:41:21.440,0.44,-0.275
2021-08-19 23:41:21.444,0.4,-0.29
2021-08-19 23:41:21.448,0.345,-0.27
2021-08-19 23:41:21.452,0.275,-0.255
2021-08-19 23:41:21.456,0.21,-0.27
2021-08-19 23:41:21.460,0.18,-0.295
2021-08-19 23:41:21.464,0.135,-0.29
2021-08-19 23:41:21.468,0.1,-0.275
2021-08-19 23:41:21.472,0.06,-0.29
2021-08-19 23:41:21.476,0.03,-0.315
2021-08-19 23:41:21.480,0.01,-0.305
2021-08-19 23:41:21.484,0.01,-0.305
2021-08-19 23:41:21.488,-0.03,-0.315
2021-08-19 23:41:21.492,-0.005,-0.315
2021-08-19 23:41:21.496,-0.015,-0.315
2021-08-19 23:41:21.500,-0.055,-0.305
2021-08-19 23:41:21.504,-0.04,-0.335
2021-08-19 23:41:21.508,-0.05,-0.35
2021-08-19 23:41:21.512,-0.055,-0.335
2021-08-19 23:41:21.516,-0.05,-0.315
2021-08-19 23:41:21.520,-0.04,-0.35
2021-08-19 23:41:21.524,-0.06,-0.355
2021-08-19 23:41:21.528,-0.04,-0.35
2021-08-19 23:41:21.532,-0.045,-0.335
2021-08-19 23:41:21.536,-0.02,-0.335
2021-08-19 23:41:21.540,-0.03,-0.375
2021-08-19 23:41:21.544,-0.025,-0.35
2021-08-19 23:41:21.548,-0.025,-0.345
2021-08-19 23:41:21.552,-0.04,-0.355
2021-08-19 23:41:21.556,-0.035,-0.38
2021-08-19 23:41:21.560,-0.035,-0.375
2021-08-19 23:41:21.564,-0.04,-0.365
2021-08-19 23:41:21.568,-0.015,-0.375
2021-08-19 23:41:21.572,-0.025,-0.39
2021-08-19 23:41:21.576,-0.02,-0.375
2021-08-19 23:41:21.580,-0.06,-0.37
2021-08-19 23:41:21.584,-0.025,-0.36
2021-08-19 23:41:21.588,-0.04,-0.39
2021-08-19 23:41:21.592,-0.04,-0.405
2021-08-19 23:41:21.596,-0.06,-0.375
2021-08-19 23:41:21.600,-0.065,-0.35
2021-08-19 23:41:21.604,-0.05,-0.385
2021-08-19 23:41:21.608,-0.03,-0.395
2021-08-19 23:41:21.612,-0.055,-0.38
2021-08-19 23:41:21.616,-0.065,-0.35
2021-08-19 23:41:21.620,-0.065,-0.37
2021-08-19 23:41:21.624,-0.06,-0.38
2021-08-19 23:41:21.628,-0.055,-0.375
2021-08-19 23:41:21.632,-0.06,-0.35
2021-08-19 23:41:21.636,-0.07,-0.375
2021-08-19 23:41:21.640,-0.05,-0.375
2021-08-19 23:41:21.644,-0.025,-0.38
2021-08-19 23:41:21.648,-0.055,-0.36
2021-08-19 23:41:21.652,-0.075,-0.35
2021-08-19 23:41:21.656,-0.06,-0.355
2021-08-19 23:41:21.660,-0.095,-0.345
2021-08-19 23:41:21.664,-0.055,-0.29
2021-08-19 23:41:21.668,-0.085,-0.245
2021-08-19 23:41:21.672,-0.075,-0.24
2021-08-19 23:41:21.676,-0.03,-0.215
2021-08-19 23:41:21.680,0.01,-0.205
2021-08-19 23:41:21.684,0.015,-0.17
2021-08-19 23:41:21.688,0.04,-0.155
2021-08-19 23:41:21.692,0.085,-0.125
2021-08-19 23:41:21.696,0.105,-0.13
2021-08-19 23:41:21.700,0.14,-0.105
2021-08-19 23:41:21.704,0.15,-0.145
2021-08-19 23:41:21.708,0.125,-0.175
2021-08-19 23:41:21.712,0.095,-0.17
2021-08-19 23:41:21.716,0.05,-0.165
2021-08-19 23:41:21.720,0.025,-0.195
2021-08-19 23:41:21.724,-0.025,-0.255
2021-08-19 23:41:21.728,-0.03,-0.265
2021-08-19 23:41:21.732,-0.04,-0.26
2021-08-19 23:41:21.736,-0.09,-0.26
2021-08-19 23:41:21.740,-0.14,-0.28
2021-08-19 23:41:21.744,-0.12,-0.33
2021-08-19 23:41:21.748,-0.14,-0.38
2021-08-19 23:41:21.752,-0.135,-0.38
2021-08-19 23:41:21.756,-0.11,-0.385
2021-08-19 23:41:21.760,-0.11,-0.405
2021-08-19 23:41:21.764,-0.135,-0.4
2021-08-19 23:41:21.768,-0.135,-0.38
2021-08-19 23:41:21.772,-0.125,-0.385
2021-08-19 23:41:21.776,-0.13,-0.39
2021-08-19 23:41:21.780,-0.14,-0.385
2021-08-19 23:41:21.784,-0.145,-0.38
2021-08-19 23:41:21.788,-0.13,-0.37
2021-08-19 23:41:21.792,-0.12,-0.385
2021-08-19 23:41:21.796,-0.14,-0.36
2021-08-19 23:41:21.800,-0.13,-0.375
2021-08-19 23:41:21.804,-0.14,-0.38
2021-08-19 23:41:21.808,-0.135,-0.37
2021-08-19 23:41:21.812,-0.14,-0.375
2021-08-19 23:41:21.816,-0.145,-0.36
2021-08-19 23:41:21.820,-0.15,-0.345
2021-08-19 23:41:21.824,-0.13,-0.34
2021-08-19 23:41:21.828,-0.14,-0.35
2021-08-19 23:41:21.832,-0.12,-0.345
2021-08-19 23:41:21.836,-0.145,-0.32
2021-08-19 23:41:21.840,-0.125,-0.275
2021-08-19 23:41:21.844,-0.13,-0.21
2021-08-19 23:41:21.848,-0.115,-0.06
2021-08-19 23:41:21.852,-0.055,0.145
2021-08-19 23:41:21.856,0.005,0.43
2021-08-19 23:41:21.860,-0.02,0.645
2021-08-19 23:41:21.864,-0.31,0.8
2021-08-19 23:41:21.868,-0.75,1.04
2021-08-19 23:41:21.872,-1.505,1.34
2021-08-19 23:41:21.924,-1.925,1.16
2021-08-19 23:41:21.928,-1.78,0.865
2021-08-19 23:41:21.932,-1.63,0.425
2021-08-19 23:41:21.936,-1.535,-0.015
2021-08-19 23:41:21.940,-1.41,-0.29
2021-08-19 23:41:21.944,-1.235,-0.505
2021-08-19 23:41:21.948,-1.08,-0.57
2021-08-19 23:41:21.952,-0.875,-0.565
2021-08-19 23:41:21.956,-0.66,-0.59
2021-08-19 23:41:21.960,-0.4,-0.585
2021-08-19 23:41:21.964,-0.165,-0.565
2021-08-19 23:41:21.968,0.015,-0.555
2021-08-19 23:41:21.972,0.195,-0.54
2021-08-19 23:41:21.976,0.275,-0.575
2021-08-19 23:41:21.980,0.345,-0.57
2021-08-19 23:41:21.984,0.37,-0.57
2021-08-19 23:41:21.988,0.4,-0.56
2021-08-19 23:41:21.992,0.43,-0.55
2021-08-19 23:41:21.996,0.455,-0.565
2021-08-19 23:41:22.000,0.47,-0.56
2021-08-19 23:41:22.004,0.485,-0.56
2021-08-19 23:41:22.008,0.505,-0.565
2021-08-19 23:41:22.012,0.525,-0.555
2021-08-19 23:41:22.016,0.535,-0.545
2021-08-19 23:41:22.020,0.565,-0.55
2021-08-19 23:41:22.024,0.575,-0.54
2021-08-19 23:41:22.028,0.595,-0.565
2021-08-19 23:41:22.032,0.615,-0.545
2021-08-19 23:41:22.036,0.625,-0.545
2021-08-19 23:41:22.040,0.65,-0.53
2021-08-19 23:41:22.044,0.685,-0.565
2021-08-19 23:41:22.048,0.705,-0.56
2021-08-19 23:41:22.052,0.715,-0.53
2021-08-19 23:41:22.056,0.725,-0.525
2021-08-19 23:41:22.060,0.79,-0.55
2021-08-19 23:41:22.064,0.82,-0.57
2021-08-19 23:41:22.068,0.855,-0.555
2021-08-19 23:41:22.072,0.875,-0.585
2021-08-19 23:41:22.076,0.915,-0.6
2021-08-19 23:41:22.080,0.935,-0.6
2021-08-19 23:41:22.084,0.965,-0.595
2021-08-19 23:41:22.088,0.995,-0.6
2021-08-19 23:41:22.092,1.01,-0.61
2021-08-19 23:41:22.096,1.045,-0.615
2021-08-19 23:41:22.100,1.05,-0.605
2021-08-19 23:41:22.104,1.04,-0.605
2021-08-19 23:41:22.108,1.065,-0.61
2021-08-19 23:41:22.112,1.06,-0.59
2021-08-19 23:41:22.116,1.04,-0.57
2021-08-19 23:41:22.120,1.035,-0.545
2021-08-19 23:41:22.124,1.0,-0.515
2021-08-19 23:41:22.128,0.95,-0.485
2021-08-19 23:41:22.132,0.91,-0.45
2021-08-19 23:41:22.136,0.845,-0.43
2021-08-19 23:41:22.140,0.81,-0.395
2021-08-19 23:41:22.144,0.745,-0.37
2021-08-19 23:41:22.148,0.7,-0.33
2021-08-19 23:41:22.152,0.63,-0.295
