Time,ECG1,ECG2
2021-08-19 14:24:14.224,0.025,0.32
2021-08-19 14:24:14.228,0.09,0.285
2021-08-19 14:24:14.232,0.245,0.255
2021-08-19 14:24:14.236,0.38,0.26
2021-08-19 14:24:14.240,0.31,0.33
2021-08-19 14:24:14.244,0.145,0.375
2021-08-19 14:24:14.248,0.43,0.29
2021-08-19 14:24:14.252,0.86,0.285
2021-08-19 14:24:14.256,0.885,0.34
2021-08-19 14:24:14.260,0.655,0.285
2021-08-19 14:24:14.264,0.6,0.215
2021-08-19 14:24:14.268,0.67,0.235
2021-08-19 14:24:14.272,0.745,0.26
2021-08-19 14:24:14.276,0.75,0.285
2021-08-19 14:24:14.280,0.61,0.3
2021-08-19 14:24:14.284,0.495,0.33
2021-08-19 14:24:14.288,0.5,0.28
2021-08-19 14:24:14.292,0.44,0.275
2021-08-19 14:24:14.296,0.38,0.28
2021-08-19 14:24:14.300,0.195,0.28
2021-08-19 14:24:14.304,0.095,0.34
2021-08-19 14:24:14.308,0.06,0.34
2021-08-19 14:24:14.312,0.125,0.3
2021-08-19 14:24:14.316,0.21,0.26
2021-08-19 14:24:14.320,0.16,0.255
2021-08-19 14:24:14.324,0.22,0.265
2021-08-19 14:24:14.328,0.115,0.295
2021-08-19 14:24:14.332,0.09,0.265
2021-08-19 14:24:14.336,0.115,0.275
2021-08-19 14:24:14.340,-0.015,0.3
2021-08-19 14:24:14.344,-0.045,0.26
2021-08-19 14:24:14.348,0.02,0.26
2021-08-19 14:24:14.352,0.105,0.25
2021-08-19 14:24:14.356,0.17,0.285
2021-08-19 14:24:14.360,0.085,0.285
2021-08-19 14:24:14.364,-0.12,0.3
2021-08-19 14:24:14.368,-0.2,0.34
2021-08-19 14:24:14.372,-0.135,0.36
2021-08-19 14:24:14.376,-0.1,0.415
2021-08-19 14:24:14.380,-0.305,0.515
2021-08-19 14:24:14.384,-0.405,0.505
2021-08-19 14:24:14.388,-0.32,0.305
2021-08-19 14:24:14.392,0.2,0.15
2021-08-19 14:24:14.396,0.77,0.06
2021-08-19 14:24:14.400,1.44,-0.115
2021-08-19 14:24:14.404,1.895,-0.4
2021-08-19 14:24:14.408,1.435,-0.605
2021-08-19 14:24:14.412,0.38,-0.62
2021-08-19 14:24:14.416,-0.395,-0.42
2021-08-19 14:24:14.420,-0.785,-0.255
2021-08-19 14:24:14.424,-0.62,-0.075
2021-08-19 14:24:14.428,-0.43,0.0
2021-08-19 14:24:14.432,-0.26,0.025
2021-08-19 14:24:14.436,-0.14,0.1
2021-08-19 14:24:14.440,-0.185,0.21
2021-08-19 14:24:14.444,-0.18,0.24
2021-08-19 14:24:14.448,-0.095,0.285
2021-08-19 14:24:14.452,-0.185,0.32
2021-08-19 14:24:14.456,-0.23,0.315
2021-08-19 14:24:14.460,-0.185,0.3
2021-08-19 14:24:14.464,-0.155,0.305
2021-08-19 14:24:14.468,-0.07,0.3
2021-08-19 14:24:14.472,-0.06,0.295
2021-08-19 14:24:14.476,-0.285,0.34
2021-08-19 14:24:14.480,-0.315,0.365
2021-08-19 14:24:14.484,-0.175,0.35
2021-08-19 14:24:14.488,-0.17,0.345
2021-08-19 14:24:14.492,-0.225,0.345
2021-08-19 14:24:14.496,-0.23,0.345
2021-08-19 14:24:14.500,-0.175,0.29
2021-08-19 14:24:14.504,-0.12,0.305
2021-08-19 14:24:14.508,-0.19,0.345
2021-08-19 14:24:14.512,-0.21,0.35
2021-08-19 14:24:14.516,-0.275,0.31
2021-08-19 14:24:14.520,-0.28,0.345
2021-08-19 14:24:14.524,-0.21,0.365
2021-08-19 14:24:14.528,-0.15,0.325
2021-08-19 14:24:14.532,-0.19,0.28
2021-08-19 14:24:14.536,-0.295,0.335
2021-08-19 14:24:14.540,-0.26,0.33
2021-08-19 14:24:14.544,-0.24,0.325
2021-08-19 14:24:14.548,-0.2,0.32
2021-08-19 14:24:14.552,-0.225,0.32
2021-08-19 14:24:14.556,-0.26,0.34
2021-08-19 14:24:14.560,-0.295,0.35
2021-08-19 14:24:14.564,-0.305,0.31
2021-08-19 14:24:14.568,-0.21,0.305
2021-08-19 14:24:14.572,-0.245,0.315
2021-08-19 14:24:14.576,-0.28,0.275
2021-08-19 14:24:14.580,-0.215,0.275
2021-08-19 14:24:14.584,-0.275,0.33
2021-08-19 14:24:14.588,-0.415,0.335
2021-08-19 14:24:14.592,-0.45,0.28
2021-08-19 14:24:14.596,-0.365,0.275
2021-08-19 14:24:14.600,-0.32,0.26
2021-08-19 14:24:14.604,-0.335,0.27
2021-08-19 14:24:14.608,-0.41,0.305
2021-08-19 14:24:14.612,-0.5,0.25
2021-08-19 14:24:14.616,-0.4,0.205
2021-08-19 14:24:14.620,-0.4,0.21
2021-08-19 14:24:14.624,-0.375,0.22
2021-08-19 14:24:14.628,-0.33,0.215
2021-08-19 14:24:14.632,-0.275,0.205
2021-08-19 14:24:14.636,-0.17,0.22
2021-08-19 14:24:14.640,-0.105,0.185
2021-08-19 14:24:14.644,-0.05,0.18
2021-08-19 14:24:14.648,-0.01,0.205
2021-08-19 14:24:14.652,0.045,0.21
2021-08-19 14:24:14.656,0.115,0.185
2021-08-19 14:24:14.660,0.28,0.155
2021-08-19 14:24:14.664,0.33,0.17
2021-08-19 14:24:14.668,0.305,0.21
2021-08-19 14:24:14.672,0.255,0.23
2021-08-19 14:24:14.676,0.24,0.265
2021-08-19 14:24:14.680,0.345,0.27
2021-08-19 14:24:14.684,0.41,0.245
2021-08-19 14:24:14.688,0.485,0.235
2021-08-19 14:24:14.692,0.32,0.275
2021-08-19 14:24:14.696,0.17,0.305
2021-08-19 14:24:14.700,0.045,0.365
2021-08-19 14:24:14.704,0.015,0.345
2021-08-19 14:24:14.708,0.135,0.335
2021-08-19 14:24:14.712,0.2,0.28
2021-08-19 14:24:14.716,0.205,0.28
2021-08-19 14:24:14.720,0.27,0.21
2021-08-19 14:24:14.724,0.265,0.185
2021-08-19 14:24:14.728,0.055,0.28
2021-08-19 14:24:14.732,0.05,0.275
2021-08-19 14:24:14.736,0.095,0.27
2021-08-19 14:24:14.740,0.185,0.29
2021-08-19 14:24:14.744,0.075,0.28
2021-08-19 14:24:14.748,-0.05,0.285
2021-08-19 14:24:14.752,-0.005,0.26
2021-08-19 14:24:14.756,0.14,0.265
2021-08-19 14:24:14.760,0.15,0.31
2021-08-19 14:24:14.764,0.05,0.295
2021-08-19 14:24:14.768,-0.03,0.265
2021-08-19 14:24:14.772,-0.035,0.3
2021-08-19 14:24:14.776,0.01,0.27
2021-08-19 14:24:14.780,0.16,0.26
2021-08-19 14:24:14.784,0.165,0.295
2021-08-19 14:24:14.788,-0.005,0.32
2021-08-19 14:24:14.792,0.025,0.275
2021-08-19 14:24:14.796,0.16,0.265
2021-08-19 14:24:14.800,0.055,0.285
2021-08-19 14:24:14.804,-0.05,0.265
2021-08-19 14:24:14.808,-0.03,0.245
2021-08-19 14:24:14.812,0.05,0.25
2021-08-19 14:24:14.816,0.05,0.265
2021-08-19 14:24:14.820,-0.01,0.26
2021-08-19 14:24:14.824,-0.055,0.24
2021-08-19 14:24:14.828,-0.035,0.26
2021-08-19 14:24:14.832,0.02,0.285
2021-08-19 14:24:14.836,0.0,0.31
2021-08-19 14:24:14.840,0.065,0.25
2021-08-19 14:24:14.844,0.08,0.29
2021-08-19 14:24:14.848,0.025,0.285
2021-08-19 14:24:14.852,0.055,0.235
2021-08-19 14:24:14.856,0.055,0.225
2021-08-19 14:24:14.860,-0.04,0.245
2021-08-19 14:24:14.864,-0.005,0.235
2021-08-19 14:24:14.868,0.015,0.21
2021-08-19 14:24:14.872,0.055,0.225
2021-08-19 14:24:14.876,0.02,0.25
2021-08-19 14:24:14.880,0.03,0.22
2021-08-19 14:24:14.884,-0.035,0.26
2021-08-19 14:24:14.888,-0.065,0.295
2021-08-19 14:24:14.892,-0.065,0.225
2021-08-19 14:24:14.896,0.04,0.23
2021-08-19 14:24:14.900,0.06,0.295
2021-08-19 14:24:14.904,-0.045,0.285
2021-08-19 14:24:14.908,-0.03,0.23
2021-08-19 14:24:14.912,0.11,0.235
2021-08-19 14:24:14.916,0.025,0.305
2021-08-19 14:24:14.920,-0.035,0.305
2021-08-19 14:24:14.924,-0.03,0.27
2021-08-19 14:24:14.928,-0.045,0.27
2021-08-19 14:24:14.932,-0.025,0.225
2021-08-19 14:24:14.936,0.015,0.19
2021-08-19 14:24:14.940,0.045,0.26
2021-08-19 14:24:14.944,-0.01,0.255
2021-08-19 14:24:14.948,0.125,0.235
2021-08-19 14:24:14.952,0.14,0.2
2021-08-19 14:24:14.956,-0.035,0.23
2021-08-19 14:24:14.960,-0.16,0.27
2021-08-19 14:24:14.964,0.0,0.275
2021-08-19 14:24:14.968,0.005,0.26
2021-08-19 14:24:14.972,-0.05,0.23
2021-08-19 14:24:14.976,-0.075,0.27
2021-08-19 14:24:14.980,-0.035,0.245
2021-08-19 14:24:14.984,0.02,0.255
2021-08-19 14:24:14.988,0.0,0.28
2021-08-19 14:24:14.992,-0.01,0.25
2021-08-19 14:24:14.996,0.015,0.23
2021-08-19 14:24:15.000,-0.01,0.24
2021-08-19 14:24:15.004,0.055,0.23
2021-08-19 14:24:15.008,0.05,0.19
2021-08-19 14:24:15.012,0.08,0.21
2021-08-19 14:24:15.016,0.005,0.25
2021-08-19 14:24:15.020,-0.08,0.25
2021-08-19 14:24:15.024,-0.075,0.255
2021-08-19 14:24:15.028,0.01,0.24
2021-08-19 14:24:15.032,0.11,0.25
2021-08-19 14:24:15.036,0.005,0.25
2021-08-19 14:24:15.040,-0.07,0.235
2021-08-19 14:24:15.044,-0.04,0.25
2021-08-19 14:24:15.048,0.04,0.245
2021-08-19 14:24:15.052,0.21,0.265
2021-08-19 14:24:15.056,0.12,0.325
2021-08-19 14:24:15.060,0.085,0.26
2021-08-19 14:24:15.064,0.21,0.295
2021-08-19 14:24:15.068,0.115,0.335
2021-08-19 14:24:15.072,0.135,0.265
2021-08-19 14:24:15.076,0.26,0.255
2021-08-19 14:24:15.080,0.31,0.28
2021-08-19 14:24:15.084,0.2,0.255
2021-08-19 14:24:15.088,0.21,0.215
2021-08-19 14:24:15.092,0.295,0.19
2021-08-19 14:24:15.096,0.39,0.165
2021-08-19 14:24:15.100,0.465,0.17
2021-08-19 14:24:15.104,0.375,0.195
2021-08-19 14:24:15.108,0.19,0.27
2021-08-19 14:24:15.112,0.02,0.28
2021-08-19 14:24:15.116,0.055,0.305
2021-08-19 14:24:15.120,0.05,0.355
2021-08-19 14:24:15.124,0.065,0.28
2021-08-19 14:24:15.128,0.095,0.2
2021-08-19 14:24:15.132,0.02,0.18
2021-08-19 14:24:15.136,-0.12,0.21
2021-08-19 14:24:15.140,-0.07,0.22
2021-08-19 14:24:15.144,0.07,0.2
2021-08-19 14:24:15.148,0.045,0.17
2021-08-19 14:24:15.152,0.095,0.16
2021-08-19 14:24:15.156,0.275,0.175
2021-08-19 14:24:15.160,0.115,0.25
2021-08-19 14:24:15.164,-0.19,0.265
2021-08-19 14:24:15.168,-0.245,0.275
2021-08-19 14:24:15.172,-0.115,0.28
2021-08-19 14:24:15.176,-0.105,0.295
2021-08-19 14:24:15.180,-0.07,0.285
2021-08-19 14:24:15.184,-0.025,0.305
2021-08-19 14:24:15.188,-0.045,0.395
2021-08-19 14:24:15.192,-0.105,0.43
2021-08-19 14:24:15.196,0.04,0.255
2021-08-19 14:24:15.200,0.525,0.12
2021-08-19 14:24:15.204,1.16,0.065
2021-08-19 14:24:15.208,1.845,-0.11
2021-08-19 14:24:15.220,1.38,-0.79
2021-08-19 14:24:15.224,0.49,-0.625
2021-08-19 14:24:15.228,-0.27,-0.465
2021-08-19 14:24:15.232,-0.44,-0.36
2021-08-19 14:24:15.236,-0.27,-0.125
2021-08-19 14:24:15.240,-0.025,-0.02
2021-08-19 14:24:15.244,0.045,0.08
2021-08-19 14:24:15.248,-0.08,0.13
2021-08-19 14:24:15.252,-0.155,0.165
2021-08-19 14:24:15.256,-0.08,0.21
2021-08-19 14:24:15.260,-0.115,0.255
2021-08-19 14:24:15.264,-0.09,0.31
2021-08-19 14:24:15.268,-0.09,0.265
2021-08-19 14:24:15.272,-0.015,0.285
2021-08-19 14:24:15.276,-0.15,0.315
2021-08-19 14:24:15.280,-0.12,0.3
2021-08-19 14:24:15.284,-0.03,0.275
2021-08-19 14:24:15.288,-0.075,0.24
2021-08-19 14:24:15.292,-0.025,0.25
2021-08-19 14:24:15.296,0.04,0.29
2021-08-19 14:24:15.300,-0.13,0.32
2021-08-19 14:24:15.304,-0.175,0.275
2021-08-19 14:24:15.308,-0.04,0.265
2021-08-19 14:24:15.312,-0.045,0.31
2021-08-19 14:24:15.316,-0.04,0.33
2021-08-19 14:24:15.320,-0.04,0.325
2021-08-19 14:24:15.324,-0.105,0.315
2021-08-19 14:24:15.328,-0.175,0.27
2021-08-19 14:24:15.332,-0.095,0.24
2021-08-19 14:24:15.336,-0.125,0.265
2021-08-19 14:24:15.340,-0.16,0.335
2021-08-19 14:24:15.344,-0.155,0.325
2021-08-19 14:24:15.348,-0.11,0.37
2021-08-19 14:24:15.352,-0.06,0.28
2021-08-19 14:24:15.356,-0.08,0.23
2021-08-19 14:24:15.360,-0.03,0.275
2021-08-19 14:24:15.364,0.05,0.305
2021-08-19 14:24:15.368,-0.005,0.35
2021-08-19 14:24:15.372,-0.09,0.34
2021-08-19 14:24:15.376,-0.025,0.28
2021-08-19 14:24:15.380,0.115,0.295
2021-08-19 14:24:15.384,0.015,0.33
2021-08-19 14:24:15.388,-0.06,0.295
2021-08-19 14:24:15.392,0.02,0.22
2021-08-19 14:24:15.396,-0.025,0.24
2021-08-19 14:24:15.400,-0.08,0.23
2021-08-19 14:24:15.404,-0.005,0.27
2021-08-19 14:24:15.408,0.03,0.28
2021-08-19 14:24:15.412,0.025,0.25
2021-08-19 14:24:15.416,0.055,0.245
2021-08-19 14:24:15.420,0.09,0.255
2021-08-19 14:24:15.424,0.04,0.265
2021-08-19 14:24:15.428,0.1,0.225
2021-08-19 14:24:15.432,0.24,0.215
2021-08-19 14:24:15.436,0.045,0.235
2021-08-19 14:24:15.440,-0.035,0.17
2021-08-19 14:24:15.444,0.135,0.1
2021-08-19 14:24:15.448,0.115,0.165
2021-08-19 14:24:15.452,-0.02,0.19
2021-08-19 14:24:15.456,-0.075,0.145
2021-08-19 14:24:15.460,-0.155,0.11
2021-08-19 14:24:15.464,-0.125,0.065
2021-08-19 14:24:15.468,-0.02,0.075
2021-08-19 14:24:15.472,0.09,0.09
2021-08-19 14:24:15.476,0.085,0.065
2021-08-19 14:24:15.480,0.135,0.09
2021-08-19 14:24:15.484,0.23,0.075
2021-08-19 14:24:15.488,0.265,0.125
2021-08-19 14:24:15.492,0.445,0.12
2021-08-19 14:24:15.496,0.68,0.085
2021-08-19 14:24:15.500,0.73,0.09
2021-08-19 14:24:15.504,0.72,0.085
2021-08-19 14:24:15.508,0.73,0.08
2021-08-19 14:24:15.512,0.81,0.095
2021-08-19 14:24:15.516,0.785,0.095
2021-08-19 14:24:15.520,0.725,0.095
2021-08-19 14:24:15.524,0.83,0.105
2021-08-19 14:24:15.528,0.87,0.09
2021-08-19 14:24:15.532,0.77,0.16
2021-08-19 14:24:15.536,0.74,0.185
2021-08-19 14:24:15.540,0.825,0.11
2021-08-19 14:24:15.544,0.805,0.155
2021-08-19 14:24:15.548,0.73,0.235
2021-08-19 14:24:15.552,0.685,0.23
2021-08-19 14:24:15.556,0.765,0.18
2021-08-19 14:24:15.560,0.85,0.145
2021-08-19 14:24:15.564,0.745,0.185
2021-08-19 14:24:15.568,0.575,0.205
2021-08-19 14:24:15.572,0.575,0.25
2021-08-19 14:24:15.576,0.545,0.275
2021-08-19 14:24:15.580,0.665,0.255
2021-08-19 14:24:15.584,0.69,0.24
2021-08-19 14:24:15.588,0.475,0.29
2021-08-19 14:24:15.592,0.385,0.39
2021-08-19 14:24:15.596,0.42,0.445
2021-08-19 14:24:15.600,0.545,0.38
2021-08-19 14:24:15.604,0.86,0.155
2021-08-19 14:24:15.608,1.465,0.065
2021-08-19 14:24:15.628,1.335,-0.375
2021-08-19 14:24:15.632,0.155,0.035
2021-08-19 14:24:15.636,-0.53,0.29
2021-08-19 14:24:15.640,-0.6,0.625
2021-08-19 14:24:15.644,-0.445,0.835
2021-08-19 14:24:15.648,-0.445,0.895
2021-08-19 14:24:15.652,-0.55,0.955
2021-08-19 14:24:15.656,-0.6,1.05
2021-08-19 14:24:15.660,-0.575,1.095
2021-08-19 14:24:15.664,-0.64,1.06
2021-08-19 14:24:15.668,-0.69,1.005
2021-08-19 14:24:15.672,-0.625,1.01
2021-08-19 14:24:15.676,-0.545,0.93
2021-08-19 14:24:15.680,-0.395,0.915
2021-08-19 14:24:15.684,-0.185,0.78
2021-08-19 14:24:15.688,-0.085,0.59
2021-08-19 14:24:15.692,0.005,0.46
2021-08-19 14:24:15.696,0.115,0.35
2021-08-19 14:24:15.700,0.215,0.265
2021-08-19 14:24:15.704,0.2,0.275
2021-08-19 14:24:15.708,0.31,0.2
2021-08-19 14:24:15.712,0.525,0.175
2021-08-19 14:24:15.716,0.37,0.26
2021-08-19 14:24:15.720,0.02,0.28
2021-08-19 14:24:15.724,-0.01,0.29
2021-08-19 14:24:15.728,0.075,0.275
2021-08-19 14:24:15.732,0.245,0.215
2021-08-19 14:24:15.736,0.255,0.18
2021-08-19 14:24:15.740,0.135,0.175
2021-08-19 14:24:15.744,0.24,0.14
2021-08-19 14:24:15.748,0.385,0.125
2021-08-19 14:24:15.752,0.435,0.125
2021-08-19 14:24:15.756,0.4,0.14
2021-08-19 14:24:15.760,0.185,0.17
2021-08-19 14:24:15.764,0.11,0.125
2021-08-19 14:24:15.768,0.135,0.185
2021-08-19 14:24:15.772,0.245,0.19
2021-08-19 14:24:15.776,0.36,0.15
2021-08-19 14:24:15.780,0.445,0.11
2021-08-19 14:24:15.784,0.38,0.125
2021-08-19 14:24:15.788,0.27,0.13
2021-08-19 14:24:15.792,0.325,0.13
2021-08-19 14:24:15.796,0.405,0.155
2021-08-19 14:24:15.800,0.325,0.095
2021-08-19 14:24:15.804,0.37,0.09
2021-08-19 14:24:15.808,0.445,0.1
2021-08-19 14:24:15.812,0.485,0.05
2021-08-19 14:24:15.816,0.495,0.02
2021-08-19 14:24:15.820,0.52,0.02
2021-08-19 14:24:15.824,0.6,-0.005
2021-08-19 14:24:15.828,0.615,-0.025
2021-08-19 14:24:15.832,0.725,-0.015
2021-08-19 14:24:15.836,0.87,-0.035
2021-08-19 14:24:15.840,0.785,-0.04
2021-08-19 14:24:15.844,0.61,-0.045
2021-08-19 14:24:15.848,0.75,-0.07
2021-08-19 14:24:15.852,0.865,-0.075
2021-08-19 14:24:15.856,0.85,-0.135
2021-08-19 14:24:15.860,1.03,-0.155
2021-08-19 14:24:15.864,1.01,-0.11
2021-08-19 14:24:15.868,1.165,-0.17
2021-08-19 14:24:15.872,1.185,-0.175
2021-08-19 14:24:15.876,0.93,-0.155
2021-08-19 14:24:15.880,0.725,-0.13
2021-08-19 14:24:15.884,0.76,-0.12
2021-08-19 14:24:15.888,0.795,-0.145
2021-08-19 14:24:15.892,0.77,-0.065
2021-08-19 14:24:15.896,0.725,-0.05
2021-08-19 14:24:15.900,0.72,-0.095
2021-08-19 14:24:15.904,0.685,-0.035
2021-08-19 14:24:15.908,0.55,0.02
2021-08-19 14:24:15.912,0.53,0.04
2021-08-19 14:24:15.916,0.6,0.07
2021-08-19 14:24:15.920,0.57,0.05
2021-08-19 14:24:15.924,0.49,0.065
2021-08-19 14:24:15.928,0.3,0.155
2021-08-19 14:24:15.932,0.315,0.165
2021-08-19 14:24:15.936,0.32,0.17
2021-08-19 14:24:15.940,0.295,0.115
2021-08-19 14:24:15.944,0.285,0.05
2021-08-19 14:24:15.948,0.26,0.11
2021-08-19 14:24:15.952,0.235,0.155
2021-08-19 14:24:15.956,0.29,0.165
2021-08-19 14:24:15.960,0.33,0.2
2021-08-19 14:24:15.964,0.355,0.18
2021-08-19 14:24:15.968,0.3,0.185
2021-08-19 14:24:15.972,0.305,0.24
2021-08-19 14:24:15.976,0.24,0.235
2021-08-19 14:24:15.980,0.245,0.17
2021-08-19 14:24:15.984,0.37,0.16
2021-08-19 14:24:15.988,0.185,0.21
2021-08-19 14:24:15.992,0.02,0.24
2021-08-19 14:24:15.996,0.185,0.2
2021-08-19 14:24:16.000,0.23,0.19
2021-08-19 14:24:16.004,0.195,0.185
2021-08-19 14:24:16.008,0.215,0.195
2021-08-19 14:24:16.012,0.26,0.185
2021-08-19 14:24:16.016,0.19,0.2
2021-08-19 14:24:16.020,0.05,0.225
2021-08-19 14:24:16.024,0.005,0.26
2021-08-19 14:24:16.028,0.035,0.24
2021-08-19 14:24:16.032,0.115,0.21
2021-08-19 14:24:16.036,0.105,0.17
2021-08-19 14:24:16.040,0.03,0.185
2021-08-19 14:24:16.044,0.07,0.2
2021-08-19 14:24:16.048,0.12,0.18
2021-08-19 14:24:16.052,0.1,0.17
2021-08-19 14:24:16.056,0.155,0.195
2021-08-19 14:24:16.060,0.06,0.245
2021-08-19 14:24:16.064,-0.07,0.315
2021-08-19 14:24:16.068,0.0,0.215
2021-08-19 14:24:16.072,0.115,0.14
2021-08-19 14:24:16.076,0.07,0.175
2021-08-19 14:24:16.080,0.06,0.23
2021-08-19 14:24:16.084,0.075,0.23
2021-08-19 14:24:16.088,0.095,0.205
2021-08-19 14:24:16.092,0.18,0.145
2021-08-19 14:24:16.096,0.195,0.19
2021-08-19 14:24:16.100,0.105,0.26
2021-08-19 14:24:16.104,-0.085,0.255
2021-08-19 14:24:16.108,-0.065,0.22
2021-08-19 14:24:16.112,0.015,0.205
2021-08-19 14:24:16.116,0.165,0.245
2021-08-19 14:24:16.120,0.2,0.21
2021-08-19 14:24:16.124,0.13,0.24
2021-08-19 14:24:16.128,0.045,0.235
2021-08-19 14:24:16.132,0.08,0.235
2021-08-19 14:24:16.136,0.23,0.195
2021-08-19 14:24:16.140,0.295,0.235
2021-08-19 14:24:16.144,0.285,0.225
2021-08-19 14:24:16.148,0.14,0.24
2021-08-19 14:24:16.152,0.075,0.23
2021-08-19 14:24:16.156,0.005,0.22
2021-08-19 14:24:16.160,0.075,0.225
2021-08-19 14:24:16.164,0.09,0.215
2021-08-19 14:24:16.168,-0.005,0.21
2021-08-19 14:24:16.172,-0.015,0.175
2021-08-19 14:24:16.176,0.0,0.19
2021-08-19 14:24:16.180,-0.07,0.245
2021-08-19 14:24:16.184,-0.07,0.24
2021-08-19 14:24:16.188,0.01,0.225
2021-08-19 14:24:16.192,-0.02,0.215
2021-08-19 14:24:16.196,-0.05,0.23
2021-08-19 14:24:16.200,-0.105,0.245
2021-08-19 14:24:16.204,-0.09,0.19
2021-08-19 14:24:16.208,-0.09,0.175
2021-08-19 14:24:16.212,-0.11,0.17
2021-08-19 14:24:16.216,-0.115,0.145
2021-08-19 14:24:16.220,-0.075,0.125
2021-08-19 14:24:16.224,-0.1,0.19
2021-08-19 14:24:16.228,-0.145,0.215
2021-08-19 14:24:16.232,-0.06,0.205
2021-08-19 14:24:16.236,-0.1,0.21
2021-08-19 14:24:16.240,-0.12,0.185
2021-08-19 14:24:16.244,-0.07,0.17
2021-08-19 14:24:16.248,-0.07,0.18
2021-08-19 14:24:16.252,-0.13,0.2
2021-08-19 14:24:16.256,-0.155,0.21
2021-08-19 14:24:16.260,-0.16,0.2
2021-08-19 14:24:16.264,-0.23,0.21
2021-08-19 14:24:16.268,-0.215,0.2
2021-08-19 14:24:16.272,-0.155,0.195
2021-08-19 14:24:16.276,-0.2,0.195
2021-08-19 14:24:16.280,-0.275,0.195
2021-08-19 14:24:16.284,-0.265,0.195
2021-08-19 14:24:16.288,-0.215,0.165
2021-08-19 14:24:16.292,-0.14,0.14
2021-08-19 14:24:16.296,-0.125,0.14
2021-08-19 14:24:16.300,-0.275,0.19
2021-08-19 14:24:16.304,-0.3,0.18
2021-08-19 14:24:16.308,-0.315,0.195
2021-08-19 14:24:16.312,-0.305,0.2
2021-08-19 14:24:16.316,-0.27,0.19
2021-08-19 14:24:16.320,-0.295,0.21
2021-08-19 14:24:16.324,-0.33,0.2
2021-08-19 14:24:16.328,-0.295,0.145
2021-08-19 14:24:16.332,-0.245,0.16
2021-08-19 14:24:16.336,-0.26,0.135
2021-08-19 14:24:16.340,-0.32,0.15
2021-08-19 14:24:16.344,-0.375,0.185
2021-08-19 14:24:16.348,-0.3,0.175
2021-08-19 14:24:16.352,-0.22,0.19
2021-08-19 14:24:16.356,-0.135,0.19
2021-08-19 14:24:16.360,-0.115,0.195
2021-08-19 14:24:16.364,-0.215,0.21
2021-08-19 14:24:16.368,-0.16,0.155
2021-08-19 14:24:16.372,-0.005,0.105
2021-08-19 14:24:16.376,0.075,0.085
2021-08-19 14:24:16.380,0.08,0.09
2021-08-19 14:24:16.384,-0.125,0.13
2021-08-19 14:24:16.388,-0.34,0.155
2021-08-19 14:24:16.392,-0.135,0.13
2021-08-19 14:24:16.396,0.145,0.185
2021-08-19 14:24:16.400,-0.16,0.285
2021-08-19 14:24:16.404,-0.685,0.285
2021-08-19 14:24:16.408,-0.77,0.155
2021-08-19 14:24:16.412,-0.58,0.135
2021-08-19 14:24:16.416,-0.385,0.14
2021-08-19 14:24:16.420,-0.22,0.17
2021-08-19 14:24:16.424,-0.385,0.145
2021-08-19 14:24:16.428,-0.5,0.16
2021-08-19 14:24:16.432,-0.485,0.145
2021-08-19 14:24:16.436,-0.355,0.135
2021-08-19 14:24:16.440,-0.325,0.095
2021-08-19 14:24:16.444,-0.295,0.145
2021-08-19 14:24:16.448,-0.305,0.13
2021-08-19 14:24:16.452,-0.48,0.205
2021-08-19 14:24:16.456,-0.715,0.26
2021-08-19 14:24:16.460,-0.565,0.275
2021-08-19 14:24:16.464,-0.35,0.22
2021-08-19 14:24:16.468,-0.22,0.095
2021-08-19 14:24:16.472,-0.065,0.025
2021-08-19 14:24:16.476,0.28,-0.07
2021-08-19 14:24:16.480,1.025,-0.27
2021-08-19 14:24:16.484,1.76,-0.42
2021-08-19 14:24:16.488,1.8,-0.71
2021-08-19 14:24:16.492,0.93,-0.81
2021-08-19 14:24:16.496,0.11,-0.635
2021-08-19 14:24:16.500,-0.51,-0.35
2021-08-19 14:24:16.504,-0.73,-0.25
2021-08-19 14:24:16.508,-0.535,-0.115
2021-08-19 14:24:16.512,-0.615,-0.055
2021-08-19 14:24:16.516,-0.535,-0.045
2021-08-19 14:24:16.520,-0.385,0.015
2021-08-19 14:24:16.524,-0.38,0.085
2021-08-19 14:24:16.528,-0.535,0.155
2021-08-19 14:24:16.532,-0.58,0.09
2021-08-19 14:24:16.536,-0.355,0.04
2021-08-19 14:24:16.540,-0.205,0.025
2021-08-19 14:24:16.544,-0.13,0.04
2021-08-19 14:24:16.548,-0.57,0.165
2021-08-19 14:24:16.552,-0.815,0.21
2021-08-19 14:24:16.556,-0.83,0.225
2021-08-19 14:24:16.560,-0.795,0.205
2021-08-19 14:24:16.564,-0.53,0.13
2021-08-19 14:24:16.568,-0.29,0.14
2021-08-19 14:24:16.572,-0.28,0.125
2021-08-19 14:24:16.576,-0.445,0.075
2021-08-19 14:24:16.580,-0.625,0.07
2021-08-19 14:24:16.584,-0.875,0.14
2021-08-19 14:24:16.588,-0.68,0.125
2021-08-19 14:24:16.592,-0.405,0.085
2021-08-19 14:24:16.596,-0.605,0.13
2021-08-19 14:24:16.600,-0.835,0.145
2021-08-19 14:24:16.604,-0.77,0.205
2021-08-19 14:24:16.608,-0.71,0.2
2021-08-19 14:24:16.612,-0.785,0.165
2021-08-19 14:24:16.616,-0.71,0.125
2021-08-19 14:24:16.620,-0.64,0.025
2021-08-19 14:24:16.624,-0.535,0.05
2021-08-19 14:24:16.628,-0.67,0.095
2021-08-19 14:24:16.632,-0.53,0.085
2021-08-19 14:24:16.636,-0.38,0.11
2021-08-19 14:24:16.640,-0.43,0.13
2021-08-19 14:24:16.644,-0.54,0.145
2021-08-19 14:24:16.648,-0.62,0.195
2021-08-19 14:24:16.652,-0.67,0.155
2021-08-19 14:24:16.656,-0.61,0.14
2021-08-19 14:24:16.660,-0.765,0.185
2021-08-19 14:24:16.664,-0.615,0.155
2021-08-19 14:24:16.668,-0.38,0.135
2021-08-19 14:24:16.672,-0.53,0.105
2021-08-19 14:24:16.676,-0.705,0.085
2021-08-19 14:24:16.680,-0.59,0.09
2021-08-19 14:24:16.684,-0.6,0.135
2021-08-19 14:24:16.688,-0.515,0.19
2021-08-19 14:24:16.692,-0.535,0.14
2021-08-19 14:24:16.696,-0.5,0.105
2021-08-19 14:24:16.700,-0.54,0.1
2021-08-19 14:24:16.704,-0.415,0.095
2021-08-19 14:24:16.708,-0.3,0.115
2021-08-19 14:24:16.712,-0.26,0.12
2021-08-19 14:24:16.716,-0.32,0.105
2021-08-19 14:24:16.720,-0.51,0.1
2021-08-19 14:24:16.724,-0.525,0.145
2021-08-19 14:24:16.728,-0.575,0.175
2021-08-19 14:24:16.732,-0.315,0.07
2021-08-19 14:24:16.736,-0.23,0.01
2021-08-19 14:24:16.740,-0.7,0.04
2021-08-19 14:24:16.744,-0.73,0.05
2021-08-19 14:24:16.748,-0.625,0.005
2021-08-19 14:24:16.752,-0.43,0.03
2021-08-19 14:24:16.756,-0.315,-0.03
2021-08-19 14:24:16.760,-0.35,-0.06
2021-08-19 14:24:16.764,-0.26,0.0
2021-08-19 14:24:16.768,-0.06,0.04
2021-08-19 14:24:16.772,0.16,0.02
2021-08-19 14:24:16.776,0.435,0.075
2021-08-19 14:24:16.780,0.235,0.1
2021-08-19 14:24:16.784,-0.005,0.04
2021-08-19 14:24:16.788,-0.02,0.01
2021-08-19 14:24:16.792,0.235,-0.045
2021-08-19 14:24:16.796,0.395,-0.085
2021-08-19 14:24:16.800,0.535,-0.035
2021-08-19 14:24:16.804,0.305,0.05
2021-08-19 14:24:16.808,0.14,0.07
2021-08-19 14:24:16.812,0.485,-0.01
2021-08-19 14:24:16.816,0.405,-0.03
2021-08-19 14:24:16.820,0.2,-0.02
2021-08-19 14:24:16.824,0.31,0.005
2021-08-19 14:24:16.828,0.205,0.12
2021-08-19 14:24:16.832,0.035,0.105
2021-08-19 14:24:16.836,0.115,0.065
2021-08-19 14:24:16.840,0.135,0.085
2021-08-19 14:24:16.844,0.225,0.075
2021-08-19 14:24:16.848,0.255,0.145
2021-08-19 14:24:16.852,0.27,0.105
2021-08-19 14:24:16.856,0.315,0.105
2021-08-19 14:24:16.860,0.18,0.085
2021-08-19 14:24:16.864,0.08,0.06
2021-08-19 14:24:16.868,0.145,0.105
2021-08-19 14:24:16.872,0.105,0.18
2021-08-19 14:24:16.876,0.25,0.22
2021-08-19 14:24:16.880,0.195,0.2
2021-08-19 14:24:16.884,0.47,0.025
2021-08-19 14:24:16.888,1.07,-0.12
2021-08-19 14:24:16.892,1.735,-0.255
2021-08-19 14:24:16.904,2.0,-0.67
2021-08-19 14:24:16.908,0.885,-0.485
2021-08-19 14:24:16.912,-0.26,-0.125
2021-08-19 14:24:16.916,-0.635,0.07
2021-08-19 14:24:16.920,-0.655,0.36
2021-08-19 14:24:16.924,-0.72,0.61
2021-08-19 14:24:16.928,-0.82,0.72
2021-08-19 14:24:16.932,-0.835,0.73
2021-08-19 14:24:16.936,-0.72,0.735
2021-08-19 14:24:16.940,-0.615,0.82
2021-08-19 14:24:16.944,-0.91,0.82
2021-08-19 14:24:16.948,-0.95,0.845
2021-08-19 14:24:16.952,-0.98,0.82
2021-08-19 14:24:16.956,-0.885,0.78
2021-08-19 14:24:16.960,-0.73,0.745
2021-08-19 14:24:16.964,-0.665,0.55
2021-08-19 14:24:16.968,-0.34,0.295
2021-08-19 14:24:16.972,-0.185,0.225
2021-08-19 14:24:16.976,-0.14,0.135
2021-08-19 14:24:16.980,-0.035,0.135
2021-08-19 14:24:16.984,-0.105,0.1
2021-08-19 14:24:16.988,-0.16,0.075
2021-08-19 14:24:16.992,0.03,0.045
2021-08-19 14:24:16.996,0.115,0.01
2021-08-19 14:24:17.000,0.24,0.035
2021-08-19 14:24:17.004,-0.13,0.1
2021-08-19 14:24:17.008,-0.18,0.04
2021-08-19 14:24:17.012,0.03,0.035
2021-08-19 14:24:17.016,0.11,0.03
2021-08-19 14:24:17.020,0.03,0.12
2021-08-19 14:24:17.024,-0.13,0.06
2021-08-19 14:24:17.028,0.09,0.04
2021-08-19 14:24:17.032,0.13,0.065
2021-08-19 14:24:17.036,-0.13,0.01
2021-08-19 14:24:17.040,0.025,-0.11
2021-08-19 14:24:17.044,0.085,-0.05
2021-08-19 14:24:17.048,-0.045,0.0
2021-08-19 14:24:17.052,0.115,-0.035
2021-08-19 14:24:17.056,0.255,-0.065
2021-08-19 14:24:17.060,0.305,-0.05
2021-08-19 14:24:17.064,0.135,-0.015
2021-08-19 14:24:17.068,0.185,-0.025
2021-08-19 14:24:17.072,0.245,-0.035
2021-08-19 14:24:17.076,0.155,-0.05
2021-08-19 14:24:17.080,0.15,-0.055
2021-08-19 14:24:17.084,0.31,-0.105
2021-08-19 14:24:17.088,0.655,-0.14
2021-08-19 14:24:17.092,0.665,-0.12
2021-08-19 14:24:17.096,0.215,-0.105
2021-08-19 14:24:17.100,0.2,-0.11
2021-08-19 14:24:17.104,0.395,-0.145
2021-08-19 14:24:17.108,0.605,-0.11
2021-08-19 14:24:17.112,0.65,-0.13
2021-08-19 14:24:17.116,0.67,-0.19
2021-08-19 14:24:17.120,0.63,-0.235
2021-08-19 14:24:17.124,0.545,-0.215
2021-08-19 14:24:17.128,0.71,-0.27
2021-08-19 14:24:17.132,0.875,-0.245
2021-08-19 14:24:17.136,0.765,-0.225
2021-08-19 14:24:17.140,0.725,-0.245
2021-08-19 14:24:17.144,0.695,-0.235
2021-08-19 14:24:17.148,0.73,-0.27
2021-08-19 14:24:17.152,0.86,-0.295
2021-08-19 14:24:17.156,0.9,-0.33
2021-08-19 14:24:17.160,0.84,-0.275
2021-08-19 14:24:17.164,0.77,-0.22
2021-08-19 14:24:17.168,0.795,-0.22
2021-08-19 14:24:17.172,0.615,-0.215
2021-08-19 14:24:17.176,0.52,-0.215
2021-08-19 14:24:17.180,0.49,-0.24
2021-08-19 14:24:17.184,0.62,-0.24
2021-08-19 14:24:17.188,0.64,-0.225
2021-08-19 14:24:17.192,0.445,-0.125
2021-08-19 14:24:17.196,0.21,-0.12
2021-08-19 14:24:17.200,0.085,-0.09
2021-08-19 14:24:17.204,0.17,-0.1
2021-08-19 14:24:17.208,0.29,-0.07
2021-08-19 14:24:17.212,0.33,0.015
2021-08-19 14:24:17.216,0.295,-0.01
2021-08-19 14:24:17.220,0.385,-0.01
2021-08-19 14:24:17.224,0.05,0.0
2021-08-19 14:24:17.228,-0.045,0.05
2021-08-19 14:24:17.232,0.05,0.1
2021-08-19 14:24:17.236,0.395,0.08
2021-08-19 14:24:17.240,0.3,0.045
2021-08-19 14:24:17.244,0.15,-0.02
2021-08-19 14:24:17.248,0.01,0.015
2021-08-19 14:24:17.252,-0.11,0.07
2021-08-19 14:24:17.256,0.015,0.025
2021-08-19 14:24:17.260,0.165,0.065
2021-08-19 14:24:17.264,0.09,0.05
2021-08-19 14:24:17.268,0.05,0.08
2021-08-19 14:24:17.272,0.08,0.095
2021-08-19 14:24:17.276,-0.09,0.105
2021-08-19 14:24:17.280,0.05,0.09
2021-08-19 14:24:17.284,0.055,0.065
2021-08-19 14:24:17.288,-0.01,0.08
2021-08-19 14:24:17.292,-0.175,0.06
2021-08-19 14:24:17.296,-0.015,0.025
2021-08-19 14:24:17.300,0.125,0.085
2021-08-19 14:24:17.304,0.03,0.115
2021-08-19 14:24:17.308,-0.265,0.115
2021-08-19 14:24:17.312,-0.155,0.085
2021-08-19 14:24:17.316,-0.15,0.095
2021-08-19 14:24:17.320,-0.105,0.075
2021-08-19 14:24:17.324,0.015,0.07
2021-08-19 14:24:17.328,-0.05,0.09
2021-08-19 14:24:17.332,-0.105,0.09
2021-08-19 14:24:17.336,-0.155,0.105
2021-08-19 14:24:17.340,-0.145,0.075
2021-08-19 14:24:17.344,-0.02,0.03
2021-08-19 14:24:17.348,-0.105,0.1
2021-08-19 14:24:17.352,-0.17,0.11
2021-08-19 14:24:17.356,0.07,0.095
2021-08-19 14:24:17.360,0.0,0.075
2021-08-19 14:24:17.364,-0.135,0.1
2021-08-19 14:24:17.368,-0.07,0.135
2021-08-19 14:24:17.372,-0.135,0.13
2021-08-19 14:24:17.376,-0.05,0.03
2021-08-19 14:24:17.380,0.195,0.01
2021-08-19 14:24:17.384,-0.105,0.065
2021-08-19 14:24:17.388,-0.28,0.105
2021-08-19 14:24:17.392,-0.245,0.17
2021-08-19 14:24:17.396,-0.18,0.14
2021-08-19 14:24:17.400,-0.18,0.17
2021-08-19 14:24:17.404,-0.26,0.145
2021-08-19 14:24:17.408,-0.08,0.085
2021-08-19 14:24:17.412,0.045,0.09
2021-08-19 14:24:17.416,-0.185,0.02
2021-08-19 14:24:17.420,-0.225,-0.01
2021-08-19 14:24:17.424,-0.11,0.01
2021-08-19 14:24:17.428,-0.135,0.04
2021-08-19 14:24:17.432,-0.2,0.08
2021-08-19 14:24:17.436,-0.165,0.1
2021-08-19 14:24:17.440,-0.095,0.065
2021-08-19 14:24:17.444,-0.075,0.055
2021-08-19 14:24:17.448,-0.13,0.1
2021-08-19 14:24:17.452,-0.02,0.05
2021-08-19 14:24:17.456,0.08,0.02
2021-08-19 14:24:17.460,-0.105,0.065
2021-08-19 14:24:17.464,-0.315,0.1
2021-08-19 14:24:17.468,-0.265,0.075
2021-08-19 14:24:17.472,-0.13,0.105
2021-08-19 14:24:17.476,-0.025,0.09
2021-08-19 14:24:17.480,-0.15,0.105
2021-08-19 14:24:17.484,-0.135,0.075
2021-08-19 14:24:17.488,-0.195,0.055
2021-08-19 14:24:17.492,-0.16,0.05
2021-08-19 14:24:17.496,-0.12,0.09
2021-08-19 14:24:17.500,-0.175,0.075
2021-08-19 14:24:17.504,-0.16,0.085
2021-08-19 14:24:17.508,-0.15,0.095
2021-08-19 14:24:17.512,-0.035,0.075
2021-08-19 14:24:17.516,-0.12,0.08
2021-08-19 14:24:17.520,-0.17,0.085
2021-08-19 14:24:17.524,-0.095,0.09
2021-08-19 14:24:17.528,0.01,0.095
2021-08-19 14:24:17.532,-0.14,0.1
2021-08-19 14:24:17.536,-0.22,0.09
2021-08-19 14:24:17.540,-0.24,0.11
2021-08-19 14:24:17.544,-0.12,0.075
2021-08-19 14:24:17.548,0.025,0.075
2021-08-19 14:24:17.552,0.02,0.095
2021-08-19 14:24:17.556,-0.115,0.105
2021-08-19 14:24:17.560,-0.23,0.09
2021-08-19 14:24:17.564,-0.205,0.015
2021-08-19 14:24:17.568,-0.09,0.035
2021-08-19 14:24:17.572,-0.05,0.06
2021-08-19 14:24:17.576,-0.02,0.085
2021-08-19 14:24:17.580,-0.135,0.06
2021-08-19 14:24:17.584,-0.16,0.075
2021-08-19 14:24:17.588,-0.2,0.085
2021-08-19 14:24:17.592,-0.07,0.055
2021-08-19 14:24:17.596,0.005,0.085
2021-08-19 14:24:17.600,-0.11,0.07
2021-08-19 14:24:17.604,-0.16,0.09
2021-08-19 14:24:17.608,-0.115,0.11
2021-08-19 14:24:17.612,-0.21,0.12
2021-08-19 14:24:17.616,-0.22,0.09
2021-08-19 14:24:17.620,-0.08,0.1
2021-08-19 14:24:17.624,-0.015,0.13
2021-08-19 14:24:17.628,0.005,0.16
2021-08-19 14:24:17.632,0.08,0.075
2021-08-19 14:24:17.636,0.025,0.115
2021-08-19 14:24:17.640,0.075,0.125
2021-08-19 14:24:17.644,0.09,0.1
2021-08-19 14:24:17.648,0.115,0.045
2021-08-19 14:24:17.652,0.17,0.03
2021-08-19 14:24:17.656,0.22,-0.005
2021-08-19 14:24:17.660,0.325,0.005
2021-08-19 14:24:17.664,0.29,0.05
2021-08-19 14:24:17.668,0.05,0.07
2021-08-19 14:24:17.672,-0.04,0.07
2021-08-19 14:24:17.676,-0.075,0.125
2021-08-19 14:24:17.680,-0.03,0.11
2021-08-19 14:24:17.684,0.12,0.055
2021-08-19 14:24:17.688,-0.125,0.1
2021-08-19 14:24:17.692,-0.315,0.135
2021-08-19 14:24:17.696,-0.17,0.155
2021-08-19 14:24:17.700,-0.12,0.09
2021-08-19 14:24:17.704,-0.075,0.0
2021-08-19 14:24:17.708,0.06,0.0
2021-08-19 14:24:17.712,-0.16,0.07
2021-08-19 14:24:17.716,-0.155,0.09
2021-08-19 14:24:17.720,0.105,0.005
2021-08-19 14:24:17.724,0.23,0.075
2021-08-19 14:24:17.728,-0.3,0.18
2021-08-19 14:24:17.732,-0.5,0.15
2021-08-19 14:24:17.736,-0.285,0.145
2021-08-19 14:24:17.740,-0.255,0.185
2021-08-19 14:24:17.744,-0.18,0.25
2021-08-19 14:24:17.748,-0.05,0.185
2021-08-19 14:24:17.752,0.225,0.06
2021-08-19 14:24:17.756,0.765,0.03
2021-08-19 14:24:17.760,1.54,-0.05
2021-08-19 14:24:17.772,1.76,-0.78
2021-08-19 14:24:17.776,0.845,-0.83
2021-08-19 14:24:17.780,0.0,-0.715
2021-08-19 14:24:17.784,-0.435,-0.625
2021-08-19 14:24:17.788,-0.415,-0.395
2021-08-19 14:24:17.792,-0.24,-0.22
2021-08-19 14:24:17.796,-0.22,-0.15
2021-08-19 14:24:17.800,-0.315,-0.015
2021-08-19 14:24:17.804,-0.26,0.045
2021-08-19 14:24:17.808,-0.155,0.07
2021-08-19 14:24:17.812,-0.085,0.08
2021-08-19 14:24:17.816,-0.135,0.11
2021-08-19 14:24:17.820,-0.15,0.105
2021-08-19 14:24:17.824,-0.18,0.095
2021-08-19 14:24:17.828,-0.195,0.075
2021-08-19 14:24:17.832,-0.24,0.15
2021-08-19 14:24:17.836,-0.24,0.17
2021-08-19 14:24:17.840,-0.11,0.13
2021-08-19 14:24:17.844,-0.18,0.155
2021-08-19 14:24:17.848,-0.25,0.12
2021-08-19 14:24:17.852,0.015,0.135
2021-08-19 14:24:17.856,-0.26,0.18
2021-08-19 14:24:17.860,-0.305,0.19
2021-08-19 14:24:17.864,-0.26,0.18
2021-08-19 14:24:17.868,-0.22,0.175
2021-08-19 14:24:17.872,-0.25,0.205
2021-08-19 14:24:17.876,-0.295,0.18
2021-08-19 14:24:17.880,-0.31,0.185
2021-08-19 14:24:17.884,-0.26,0.17
2021-08-19 14:24:17.888,-0.27,0.16
2021-08-19 14:24:17.892,-0.215,0.195
2021-08-19 14:24:17.896,-0.1,0.19
2021-08-19 14:24:17.900,-0.175,0.205
2021-08-19 14:24:17.904,-0.39,0.195
2021-08-19 14:24:17.908,-0.29,0.155
2021-08-19 14:24:17.912,-0.075,0.18
2021-08-19 14:24:17.916,-0.18,0.195
2021-08-19 14:24:17.920,-0.235,0.215
2021-08-19 14:24:17.924,-0.225,0.23
2021-08-19 14:24:17.928,-0.36,0.25
2021-08-19 14:24:17.932,-0.285,0.26
2021-08-19 14:24:17.936,-0.185,0.2
2021-08-19 14:24:17.940,-0.15,0.21
2021-08-19 14:24:17.944,-0.06,0.19
2021-08-19 14:24:17.948,-0.095,0.115
2021-08-19 14:24:17.952,-0.26,0.18
2021-08-19 14:24:17.956,-0.24,0.205
2021-08-19 14:24:17.960,-0.055,0.135
2021-08-19 14:24:17.964,-0.015,0.15
2021-08-19 14:24:17.968,-0.07,0.18
2021-08-19 14:24:17.972,-0.155,0.21
2021-08-19 14:24:17.976,-0.225,0.24
2021-08-19 14:24:17.980,-0.165,0.21
2021-08-19 14:24:17.984,-0.1,0.125
2021-08-19 14:24:17.988,0.015,0.135
2021-08-19 14:24:17.992,-0.165,0.215
2021-08-19 14:24:17.996,-0.35,0.205
2021-08-19 14:24:18.000,-0.21,0.17
2021-08-19 14:24:18.004,-0.2,0.17
2021-08-19 14:24:18.008,-0.32,0.13
2021-08-19 14:24:18.012,-0.395,0.125
2021-08-19 14:24:18.016,-0.22,0.115
2021-08-19 14:24:18.020,-0.35,0.155
2021-08-19 14:24:18.024,-0.535,0.165
2021-08-19 14:24:18.028,-0.6,0.18
2021-08-19 14:24:18.032,-0.525,0.165
2021-08-19 14:24:18.036,-0.365,0.11
2021-08-19 14:24:18.040,-0.365,0.08
2021-08-19 14:24:18.044,-0.195,0.1
2021-08-19 14:24:18.048,0.065,0.155
2021-08-19 14:24:18.052,0.11,0.235
2021-08-19 14:24:18.056,0.06,0.15
2021-08-19 14:24:18.060,0.16,0.115
2021-08-19 14:24:18.064,0.28,0.135
2021-08-19 14:24:18.068,0.285,0.12
2021-08-19 14:24:18.072,0.105,0.105
2021-08-19 14:24:18.076,0.22,0.125
2021-08-19 14:24:18.080,0.38,0.125
2021-08-19 14:24:18.084,0.425,0.135
2021-08-19 14:24:18.088,0.47,0.135
2021-08-19 14:24:18.092,0.455,0.105
2021-08-19 14:24:18.096,0.31,0.15
2021-08-19 14:24:18.100,0.31,0.13
2021-08-19 14:24:18.104,0.365,0.14
2021-08-19 14:24:18.108,0.335,0.155
2021-08-19 14:24:18.112,0.425,0.125
2021-08-19 14:24:18.116,0.325,0.175
2021-08-19 14:24:18.120,0.09,0.205
2021-08-19 14:24:18.124,0.135,0.155
2021-08-19 14:24:18.128,0.295,0.145
2021-08-19 14:24:18.132,0.36,0.165
2021-08-19 14:24:18.136,0.275,0.185
2021-08-19 14:24:18.140,0.115,0.19
2021-08-19 14:24:18.144,0.175,0.165
2021-08-19 14:24:18.148,0.3,0.18
2021-08-19 14:24:18.152,0.37,0.175
2021-08-19 14:24:18.156,0.365,0.205
2021-08-19 14:24:18.160,0.17,0.17
2021-08-19 14:24:18.164,0.175,0.2
2021-08-19 14:24:18.168,0.36,0.31
2021-08-19 14:24:18.172,0.41,0.41
2021-08-19 14:24:18.176,0.65,0.43
2021-08-19 14:24:18.180,0.855,0.35
2021-08-19 14:24:18.184,1.22,0.095
2021-08-19 14:24:18.188,1.555,-0.28
2021-08-19 14:24:18.192,1.855,-0.61
2021-08-19 14:24:18.196,1.735,-0.9
2021-08-19 14:24:18.200,0.91,-1.02
2021-08-19 14:24:18.204,0.11,-1.025
2021-08-19 14:24:18.208,-0.775,-1.01
2021-08-19 14:24:18.212,-1.405,-0.665
2021-08-19 14:24:18.216,-1.45,-0.275
2021-08-19 14:24:18.220,-1.31,0.24
2021-08-19 14:24:18.224,-1.095,0.69
2021-08-19 14:24:18.228,-0.98,0.72
2021-08-19 14:24:18.232,-0.825,0.585
2021-08-19 14:24:18.236,-0.72,0.51
2021-08-19 14:24:18.240,-0.51,0.445
2021-08-19 14:24:18.244,-0.175,0.315
2021-08-19 14:24:18.248,0.2,0.23
2021-08-19 14:24:18.252,0.195,0.245
2021-08-19 14:24:18.256,-0.1,0.24
2021-08-19 14:24:18.260,-0.135,0.255
2021-08-19 14:24:18.264,-0.06,0.21
2021-08-19 14:24:18.268,0.18,0.2
2021-08-19 14:24:18.272,0.225,0.245
2021-08-19 14:24:18.276,0.055,0.24
2021-08-19 14:24:18.280,-0.03,0.255
2021-08-19 14:24:18.284,0.04,0.22
2021-08-19 14:24:18.288,0.19,0.215
2021-08-19 14:24:18.292,0.12,0.245
2021-08-19 14:24:18.296,0.27,0.24
2021-08-19 14:24:18.300,0.17,0.22
2021-08-19 14:24:18.304,0.05,0.18
2021-08-19 14:24:18.308,0.085,0.21
2021-08-19 14:24:18.312,0.24,0.185
2021-08-19 14:24:18.316,0.145,0.195
2021-08-19 14:24:18.320,0.075,0.195
2021-08-19 14:24:18.324,0.205,0.205
2021-08-19 14:24:18.328,0.17,0.22
2021-08-19 14:24:18.332,0.31,0.24
2021-08-19 14:24:18.336,0.29,0.24
2021-08-19 14:24:18.340,0.095,0.205
2021-08-19 14:24:18.344,0.16,0.205
2021-08-19 14:24:18.348,0.35,0.195
2021-08-19 14:24:18.352,0.4,0.195
2021-08-19 14:24:18.356,0.4,0.225
2021-08-19 14:24:18.360,0.45,0.21
2021-08-19 14:24:18.364,0.44,0.24
2021-08-19 14:24:18.368,0.51,0.22
2021-08-19 14:24:18.372,0.675,0.235
2021-08-19 14:24:18.376,0.675,0.27
2021-08-19 14:24:18.380,0.655,0.24
2021-08-19 14:24:18.384,0.835,0.215
2021-08-19 14:24:18.388,0.79,0.235
2021-08-19 14:24:18.392,0.655,0.25
2021-08-19 14:24:18.396,0.755,0.235
2021-08-19 14:24:18.400,1.015,0.175
2021-08-19 14:24:18.404,1.175,0.19
2021-08-19 14:24:18.408,0.925,0.24
2021-08-19 14:24:18.412,0.86,0.22
2021-08-19 14:24:18.416,1.02,0.21
2021-08-19 14:24:18.420,1.035,0.23
2021-08-19 14:24:18.424,1.155,0.19
2021-08-19 14:24:18.428,1.11,0.16
2021-08-19 14:24:18.432,1.1,0.135
2021-08-19 14:24:18.436,1.07,0.125
2021-08-19 14:24:18.440,1.155,0.11
2021-08-19 14:24:18.444,0.97,0.06
2021-08-19 14:24:18.448,0.955,0.04
2021-08-19 14:24:18.452,0.885,0.015
2021-08-19 14:24:18.456,0.78,0.01
2021-08-19 14:24:18.460,0.755,0.0
2021-08-19 14:24:18.464,0.71,0.045
2021-08-19 14:24:18.468,0.47,0.075
2021-08-19 14:24:18.472,0.375,0.04
2021-08-19 14:24:18.476,0.495,0.12
2021-08-19 14:24:18.480,0.39,0.195
2021-08-19 14:24:18.484,0.2,0.155
2021-08-19 14:24:18.488,0.11,0.08
2021-08-19 14:24:18.492,0.205,0.1
2021-08-19 14:24:18.496,0.28,0.13
2021-08-19 14:24:18.500,0.185,0.135
2021-08-19 14:24:18.504,0.195,0.07
2021-08-19 14:24:18.508,0.34,0.085
2021-08-19 14:24:18.512,0.25,0.165
2021-08-19 14:24:18.516,0.01,0.19
2021-08-19 14:24:18.520,0.12,0.17
2021-08-19 14:24:18.524,0.215,0.185
2021-08-19 14:24:18.528,-0.01,0.16
2021-08-19 14:24:18.532,-0.15,0.155
2021-08-19 14:24:18.536,-0.11,0.195
2021-08-19 14:24:18.540,0.125,0.17
2021-08-19 14:24:18.544,0.195,0.18
2021-08-19 14:24:18.548,0.13,0.175
2021-08-19 14:24:18.552,0.05,0.195
2021-08-19 14:24:18.556,-0.12,0.17
2021-08-19 14:24:18.560,-0.075,0.19
2021-08-19 14:24:18.564,0.105,0.175
2021-08-19 14:24:18.568,0.215,0.155
2021-08-19 14:24:18.572,0.025,0.155
2021-08-19 14:24:18.576,-0.09,0.16
2021-08-19 14:24:18.580,-0.005,0.18
2021-08-19 14:24:18.584,0.035,0.2
2021-08-19 14:24:18.588,0.04,0.145
2021-08-19 14:24:18.592,-0.135,0.14
2021-08-19 14:24:18.596,-0.195,0.14
2021-08-19 14:24:18.600,-0.165,0.15
2021-08-19 14:24:18.604,-0.075,0.145
2021-08-19 14:24:18.608,0.095,0.155
2021-08-19 14:24:18.612,-0.005,0.17
2021-08-19 14:24:18.616,-0.195,0.185
2021-08-19 14:24:18.620,-0.34,0.145
2021-08-19 14:24:18.624,-0.34,0.155
2021-08-19 14:24:18.628,-0.14,0.155
2021-08-19 14:24:18.632,-0.095,0.195
2021-08-19 14:24:18.636,-0.22,0.2
2021-08-19 14:24:18.640,-0.295,0.2
2021-08-19 14:24:18.644,-0.135,0.125
2021-08-19 14:24:18.648,-0.05,0.125
2021-08-19 14:24:18.652,-0.115,0.12
2021-08-19 14:24:18.656,-0.105,0.135
2021-08-19 14:24:18.660,-0.24,0.175
2021-08-19 14:24:18.664,-0.195,0.145
2021-08-19 14:24:18.668,-0.04,0.16
2021-08-19 14:24:18.672,-0.005,0.155
2021-08-19 14:24:18.676,-0.11,0.1
2021-08-19 14:24:18.680,-0.36,0.14
2021-08-19 14:24:18.684,-0.28,0.16
2021-08-19 14:24:18.688,-0.145,0.15
2021-08-19 14:24:18.692,-0.01,0.12
2021-08-19 14:24:18.696,-0.065,0.18
2021-08-19 14:24:18.700,-0.21,0.17
2021-08-19 14:24:18.704,-0.13,0.09
2021-08-19 14:24:18.708,-0.07,0.125
2021-08-19 14:24:18.712,-0.27,0.16
2021-08-19 14:24:18.716,-0.24,0.13
2021-08-19 14:24:18.720,-0.21,0.155
2021-08-19 14:24:18.724,-0.205,0.125
2021-08-19 14:24:18.728,-0.11,0.14
2021-08-19 14:24:18.732,-0.05,0.18
2021-08-19 14:24:18.736,-0.045,0.165
2021-08-19 14:24:18.740,-0.14,0.1
2021-08-19 14:24:18.744,-0.125,0.095
2021-08-19 14:24:18.748,-0.24,0.13
2021-08-19 14:24:18.752,-0.225,0.155
2021-08-19 14:24:18.756,-0.155,0.15
2021-08-19 14:24:18.760,-0.125,0.12
2021-08-19 14:24:18.764,-0.07,0.135
2021-08-19 14:24:18.768,-0.02,0.155
2021-08-19 14:24:18.772,-0.155,0.155
2021-08-19 14:24:18.776,-0.145,0.12
2021-08-19 14:24:18.780,-0.08,0.16
2021-08-19 14:24:18.784,-0.09,0.155
2021-08-19 14:24:18.788,-0.11,0.12
2021-08-19 14:24:18.792,-0.26,0.125
2021-08-19 14:24:18.796,-0.145,0.145
2021-08-19 14:24:18.800,-0.025,0.155
2021-08-19 14:24:18.804,-0.16,0.16
2021-08-19 14:24:18.808,-0.2,0.13
2021-08-19 14:24:18.812,-0.165,0.135
2021-08-19 14:24:18.816,-0.175,0.16
2021-08-19 14:24:18.820,0.02,0.105
2021-08-19 14:24:18.824,0.295,0.135
2021-08-19 14:24:18.828,-0.095,0.16
2021-08-19 14:24:18.832,-0.35,0.135
2021-08-19 14:24:18.836,-0.175,0.145
2021-08-19 14:24:18.840,-0.16,0.17
2021-08-19 14:24:18.844,-0.205,0.19
2021-08-19 14:24:18.848,-0.18,0.155
2021-08-19 14:24:18.852,-0.085,0.185
2021-08-19 14:24:18.856,-0.03,0.14
2021-08-19 14:24:18.860,-0.07,0.115
2021-08-19 14:24:18.864,-0.165,0.15
2021-08-19 14:24:18.868,-0.205,0.17
2021-08-19 14:24:18.872,-0.21,0.12
2021-08-19 14:24:18.876,-0.055,0.11
2021-08-19 14:24:18.880,-0.03,0.14
2021-08-19 14:24:18.884,-0.165,0.17
2021-08-19 14:24:18.888,-0.105,0.12
2021-08-19 14:24:18.892,0.035,0.055
2021-08-19 14:24:18.896,-0.075,0.12
2021-08-19 14:24:18.900,-0.07,0.14
2021-08-19 14:24:18.904,0.225,0.17
2021-08-19 14:24:18.908,0.05,0.225
2021-08-19 14:24:18.912,-0.21,0.205
2021-08-19 14:24:18.916,-0.025,0.17
2021-08-19 14:24:18.920,0.165,0.19
2021-08-19 14:24:18.924,0.245,0.115
2021-08-19 14:24:18.928,0.25,0.04
2021-08-19 14:24:18.932,0.19,0.055
2021-08-19 14:24:18.936,0.1,0.075
2021-08-19 14:24:18.940,0.19,0.11
2021-08-19 14:24:18.944,0.155,0.16
2021-08-19 14:24:18.948,-0.02,0.155
2021-08-19 14:24:18.952,-0.01,0.185
2021-08-19 14:24:18.956,-0.06,0.22
2021-08-19 14:24:18.960,-0.13,0.205
2021-08-19 14:24:18.964,-0.12,0.145
2021-08-19 14:24:18.968,-0.06,0.125
2021-08-19 14:24:18.972,-0.08,0.125
2021-08-19 14:24:18.976,-0.13,0.125
2021-08-19 14:24:18.980,-0.11,0.135
2021-08-19 14:24:18.984,-0.115,0.13
2021-08-19 14:24:18.988,-0.09,0.105
2021-08-19 14:24:18.992,-0.01,0.135
2021-08-19 14:24:18.996,-0.15,0.18
2021-08-19 14:24:19.000,-0.2,0.17
2021-08-19 14:24:19.004,-0.1,0.165
2021-08-19 14:24:19.008,0.02,0.205
2021-08-19 14:24:19.012,-0.09,0.325
2021-08-19 14:24:19.016,-0.275,0.335
2021-08-19 14:24:19.020,-0.03,0.26
2021-08-19 14:24:19.024,0.22,0.09
2021-08-19 14:24:19.028,0.875,0.015
2021-08-19 14:24:19.032,1.545,-0.1
2021-08-19 14:24:19.044,1.605,-0.88
2021-08-19 14:24:19.048,0.72,-0.845
2021-08-19 14:24:19.052,-0.135,-0.67
2021-08-19 14:24:19.056,-0.6,-0.56
2021-08-19 14:24:19.060,-0.585,-0.32
2021-08-19 14:24:19.064,-0.275,-0.175
2021-08-19 14:24:19.068,-0.07,-0.05
2021-08-19 14:24:19.072,-0.09,0.035
2021-08-19 14:24:19.076,-0.17,0.085
2021-08-19 14:24:19.080,-0.17,0.1
2021-08-19 14:24:19.084,-0.11,0.115
2021-08-19 14:24:19.088,-0.07,0.155
2021-08-19 14:24:19.092,-0.1,0.175
2021-08-19 14:24:19.096,-0.135,0.195
2021-08-19 14:24:19.100,-0.18,0.215
2021-08-19 14:24:19.104,-0.145,0.225
2021-08-19 14:24:19.108,-0.315,0.235
2021-08-19 14:24:19.112,-0.225,0.24
2021-08-19 14:24:19.116,-0.095,0.225
2021-08-19 14:24:19.120,-0.175,0.235
2021-08-19 14:24:19.124,-0.205,0.235
2021-08-19 14:24:19.128,-0.13,0.195
2021-08-19 14:24:19.132,-0.08,0.24
2021-08-19 14:24:19.136,-0.27,0.25
2021-08-19 14:24:19.140,-0.26,0.245
2021-08-19 14:24:19.144,-0.175,0.24
2021-08-19 14:24:19.148,-0.09,0.27
2021-08-19 14:24:19.152,-0.23,0.325
2021-08-19 14:24:19.156,-0.195,0.23
2021-08-19 14:24:19.160,-0.145,0.18
2021-08-19 14:24:19.164,-0.2,0.205
2021-08-19 14:24:19.168,-0.22,0.255
2021-08-19 14:24:19.172,-0.255,0.265
2021-08-19 14:24:19.176,-0.195,0.235
2021-08-19 14:24:19.180,-0.125,0.27
2021-08-19 14:24:19.184,-0.19,0.245
2021-08-19 14:24:19.188,-0.26,0.225
2021-08-19 14:24:19.192,-0.225,0.2
2021-08-19 14:24:19.196,-0.155,0.25
2021-08-19 14:24:19.200,-0.23,0.26
2021-08-19 14:24:19.204,-0.185,0.275
2021-08-19 14:24:19.208,-0.135,0.285
2021-08-19 14:24:19.212,-0.16,0.285
2021-08-19 14:24:19.216,-0.16,0.235
2021-08-19 14:24:19.220,-0.095,0.245
2021-08-19 14:24:19.224,-0.105,0.235
2021-08-19 14:24:19.228,-0.11,0.265
2021-08-19 14:24:19.232,-0.155,0.305
2021-08-19 14:24:19.236,-0.12,0.265
2021-08-19 14:24:19.240,0.0,0.245
2021-08-19 14:24:19.244,0.04,0.245
2021-08-19 14:24:19.248,-0.015,0.245
2021-08-19 14:24:19.252,-0.205,0.285
2021-08-19 14:24:19.256,-0.075,0.26
2021-08-19 14:24:19.260,0.06,0.24
2021-08-19 14:24:19.264,-0.09,0.25
2021-08-19 14:24:19.268,-0.17,0.245
2021-08-19 14:24:19.272,-0.22,0.24
2021-08-19 14:24:19.276,-0.315,0.26
2021-08-19 14:24:19.280,-0.155,0.225
2021-08-19 14:24:19.284,-0.105,0.225
2021-08-19 14:24:19.288,-0.36,0.215
2021-08-19 14:24:19.292,-0.505,0.19
2021-08-19 14:24:19.296,-0.42,0.195
2021-08-19 14:24:19.300,-0.19,0.205
2021-08-19 14:24:19.304,-0.185,0.21
2021-08-19 14:24:19.308,-0.38,0.235
2021-08-19 14:24:19.312,-0.355,0.245
2021-08-19 14:24:19.316,-0.08,0.23
2021-08-19 14:24:19.320,0.065,0.21
2021-08-19 14:24:19.324,0.29,0.185
2021-08-19 14:24:19.328,0.16,0.215
2021-08-19 14:24:19.332,0.11,0.155
2021-08-19 14:24:19.336,0.38,0.15
2021-08-19 14:24:19.340,0.405,0.21
2021-08-19 14:24:19.344,0.3,0.19
2021-08-19 14:24:19.348,0.435,0.195
2021-08-19 14:24:19.352,0.475,0.21
2021-08-19 14:24:19.356,0.4,0.215
2021-08-19 14:24:19.360,0.38,0.185
2021-08-19 14:24:19.364,0.41,0.235
2021-08-19 14:24:19.368,0.345,0.23
2021-08-19 14:24:19.372,0.305,0.205
2021-08-19 14:24:19.376,0.41,0.195
2021-08-19 14:24:19.380,0.38,0.195
2021-08-19 14:24:19.384,0.41,0.19
2021-08-19 14:24:19.388,0.405,0.255
2021-08-19 14:24:19.392,0.17,0.275
2021-08-19 14:24:19.396,0.18,0.285
2021-08-19 14:24:19.400,0.185,0.3
2021-08-19 14:24:19.404,0.12,0.285
2021-08-19 14:24:19.408,0.275,0.275
2021-08-19 14:24:19.412,0.405,0.235
2021-08-19 14:24:19.416,0.24,0.185
2021-08-19 14:24:19.420,0.205,0.225
2021-08-19 14:24:19.424,0.29,0.235
2021-08-19 14:24:19.428,0.33,0.215
2021-08-19 14:24:19.432,0.295,0.265
2021-08-19 14:24:19.436,0.31,0.41
2021-08-19 14:24:19.440,0.425,0.51
2021-08-19 14:24:19.444,0.71,0.55
2021-08-19 14:24:19.448,0.965,0.42
2021-08-19 14:24:19.452,1.18,0.05
2021-08-19 14:24:19.456,1.395,-0.35
2021-08-19 14:24:19.460,1.565,-0.725
2021-08-19 14:24:19.464,1.55,-0.995
2021-08-19 14:24:19.468,0.83,-1.045
2021-08-19 14:24:19.472,-0.1,-1.08
2021-08-19 14:24:19.476,-0.995,-1.0
2021-08-19 14:24:19.480,-1.47,-0.575
2021-08-19 14:24:19.484,-1.43,-0.135
2021-08-19 14:24:19.488,-1.215,0.405
2021-08-19 14:24:19.492,-1.075,0.86
2021-08-19 14:24:19.496,-1.01,0.875
2021-08-19 14:24:19.500,-0.88,0.79
2021-08-19 14:24:19.504,-0.68,0.695
2021-08-19 14:24:19.508,-0.505,0.615
2021-08-19 14:24:19.512,-0.37,0.55
2021-08-19 14:24:19.516,-0.285,0.425
2021-08-19 14:24:19.520,-0.01,0.34
2021-08-19 14:24:19.524,0.13,0.315
2021-08-19 14:24:19.528,0.17,0.3
2021-08-19 14:24:19.532,0.265,0.3
2021-08-19 14:24:19.536,0.175,0.335
2021-08-19 14:24:19.540,0.0,0.345
2021-08-19 14:24:19.544,0.04,0.29
2021-08-19 14:24:19.548,0.24,0.29
2021-08-19 14:24:19.552,0.27,0.295
2021-08-19 14:24:19.556,0.195,0.315
2021-08-19 14:24:19.560,0.16,0.31
2021-08-19 14:24:19.564,0.075,0.295
2021-08-19 14:24:19.568,0.265,0.27
2021-08-19 14:24:19.572,0.205,0.255
2021-08-19 14:24:19.576,0.15,0.27
2021-08-19 14:24:19.580,0.105,0.295
2021-08-19 14:24:19.584,0.235,0.275
2021-08-19 14:24:19.588,0.31,0.275
2021-08-19 14:24:19.592,0.24,0.3
2021-08-19 14:24:19.596,0.215,0.32
2021-08-19 14:24:19.600,0.27,0.295
2021-08-19 14:24:19.604,0.255,0.29
2021-08-19 14:24:19.608,0.34,0.285
2021-08-19 14:24:19.612,0.275,0.315
2021-08-19 14:24:19.616,0.385,0.315
2021-08-19 14:24:19.620,0.37,0.295
2021-08-19 14:24:19.624,0.43,0.305
2021-08-19 14:24:19.628,0.52,0.3
2021-08-19 14:24:19.632,0.575,0.265
2021-08-19 14:24:19.636,0.84,0.305
2021-08-19 14:24:19.640,0.8,0.32
2021-08-19 14:24:19.644,0.57,0.31
2021-08-19 14:24:19.648,0.735,0.315
2021-08-19 14:24:19.652,0.83,0.33
2021-08-19 14:24:19.656,0.81,0.3
2021-08-19 14:24:19.660,0.905,0.315
2021-08-19 14:24:19.664,1.06,0.3
2021-08-19 14:24:19.668,0.99,0.285
2021-08-19 14:24:19.672,0.885,0.29
2021-08-19 14:24:19.676,0.9,0.275
2021-08-19 14:24:19.680,1.075,0.28
2021-08-19 14:24:19.684,1.21,0.285
2021-08-19 14:24:19.688,1.24,0.26
2021-08-19 14:24:19.692,1.275,0.28
2021-08-19 14:24:19.696,1.23,0.225
2021-08-19 14:24:19.700,1.335,0.17
2021-08-19 14:24:19.704,1.32,0.155
2021-08-19 14:24:19.708,1.255,0.16
2021-08-19 14:24:19.712,1.075,0.155
2021-08-19 14:24:19.716,0.995,0.13
2021-08-19 14:24:19.720,0.955,0.14
2021-08-19 14:24:19.724,0.97,0.06
2021-08-19 14:24:19.728,0.855,-0.01
2021-08-19 14:24:19.732,0.68,0.015
2021-08-19 14:24:19.736,0.735,0.02
2021-08-19 14:24:19.740,0.62,0.1
2021-08-19 14:24:19.744,0.395,0.13
2021-08-19 14:24:19.748,0.375,0.105
2021-08-19 14:24:19.752,0.455,0.145
2021-08-19 14:24:19.756,0.325,0.195
2021-08-19 14:24:19.760,0.155,0.21
2021-08-19 14:24:19.764,0.105,0.205
2021-08-19 14:24:19.768,0.2,0.205
2021-08-19 14:24:19.772,0.205,0.23
2021-08-19 14:24:19.776,0.165,0.23
2021-08-19 14:24:19.780,0.195,0.205
2021-08-19 14:24:19.784,0.33,0.2
2021-08-19 14:24:19.788,0.285,0.235
2021-08-19 14:24:19.792,0.02,0.25
2021-08-19 14:24:19.796,-0.04,0.27
2021-08-19 14:24:19.800,-0.005,0.285
2021-08-19 14:24:19.804,0.13,0.255
2021-08-19 14:24:19.808,0.07,0.235
2021-08-19 14:24:19.812,0.175,0.225
2021-08-19 14:24:19.816,0.265,0.24
2021-08-19 14:24:19.820,0.115,0.24
2021-08-19 14:24:19.824,0.045,0.235
2021-08-19 14:24:19.828,-0.07,0.235
2021-08-19 14:24:19.832,-0.035,0.2
2021-08-19 14:24:19.836,0.04,0.21
2021-08-19 14:24:19.840,-0.025,0.24
2021-08-19 14:24:19.844,0.035,0.23
2021-08-19 14:24:19.848,0.165,0.245
2021-08-19 14:24:19.852,0.08,0.26
2021-08-19 14:24:19.856,-0.005,0.23
2021-08-19 14:24:19.860,0.075,0.245
2021-08-19 14:24:19.864,0.095,0.245
2021-08-19 14:24:19.868,-0.125,0.275
2021-08-19 14:24:19.872,-0.235,0.25
2021-08-19 14:24:19.876,-0.085,0.22
2021-08-19 14:24:19.880,0.02,0.195
2021-08-19 14:24:19.884,0.045,0.23
2021-08-19 14:24:19.888,-0.19,0.27
2021-08-19 14:24:19.892,-0.14,0.26
2021-08-19 14:24:19.896,-0.05,0.265
2021-08-19 14:24:19.900,-0.11,0.26
2021-08-19 14:24:19.904,-0.13,0.26
2021-08-19 14:24:19.908,-0.08,0.24
2021-08-19 14:24:19.912,-0.09,0.27
2021-08-19 14:24:19.916,-0.035,0.24
2021-08-19 14:24:19.920,-0.09,0.225
2021-08-19 14:24:19.924,-0.075,0.215
2021-08-19 14:24:19.928,0.15,0.185
2021-08-19 14:24:19.932,-0.005,0.255
2021-08-19 14:24:19.936,-0.155,0.26
2021-08-19 14:24:19.940,0.045,0.2
2021-08-19 14:24:19.944,-0.03,0.21
2021-08-19 14:24:19.948,-0.285,0.26
2021-08-19 14:24:19.952,-0.22,0.24
2021-08-19 14:24:19.956,-0.11,0.26
2021-08-19 14:24:19.960,-0.075,0.245
2021-08-19 14:24:19.964,-0.12,0.27
2021-08-19 14:24:19.968,-0.07,0.245
2021-08-19 14:24:19.972,-0.07,0.215
2021-08-19 14:24:19.976,-0.14,0.22
2021-08-19 14:24:19.980,-0.04,0.21
2021-08-19 14:24:19.984,-0.095,0.22
2021-08-19 14:24:19.988,-0.06,0.215
2021-08-19 14:24:19.992,-0.05,0.23
2021-08-19 14:24:19.996,-0.14,0.265
2021-08-19 14:24:20.000,-0.055,0.24
2021-08-19 14:24:20.004,-0.01,0.26
2021-08-19 14:24:20.008,-0.035,0.245
2021-08-19 14:24:20.012,-0.085,0.25
2021-08-19 14:24:20.016,-0.05,0.24
2021-08-19 14:24:20.020,-0.11,0.215
2021-08-19 14:24:20.024,0.06,0.185
2021-08-19 14:24:20.028,0.15,0.23
2021-08-19 14:24:20.032,-0.165,0.255
2021-08-19 14:24:20.036,-0.23,0.265
2021-08-19 14:24:20.040,-0.115,0.28
2021-08-19 14:24:20.044,-0.105,0.255
2021-08-19 14:24:20.048,-0.055,0.235
2021-08-19 14:24:20.052,-0.095,0.255
2021-08-19 14:24:20.056,-0.08,0.26
2021-08-19 14:24:20.060,-0.015,0.255
2021-08-19 14:24:20.064,0.005,0.255
2021-08-19 14:24:20.068,0.0,0.25
2021-08-19 14:24:20.072,-0.1,0.24
2021-08-19 14:24:20.076,-0.075,0.225
2021-08-19 14:24:20.080,0.05,0.27
2021-08-19 14:24:20.084,-0.005,0.29
2021-08-19 14:24:20.088,-0.115,0.265
2021-08-19 14:24:20.092,-0.055,0.255
2021-08-19 14:24:20.096,-0.055,0.28
2021-08-19 14:24:20.100,-0.21,0.255
2021-08-19 14:24:20.104,-0.095,0.25
2021-08-19 14:24:20.108,-0.05,0.26
2021-08-19 14:24:20.112,-0.035,0.25
2021-08-19 14:24:20.116,-0.06,0.265
2021-08-19 14:24:20.120,-0.06,0.28
2021-08-19 14:24:20.124,-0.04,0.24
2021-08-19 14:24:20.128,-0.11,0.255
2021-08-19 14:24:20.132,-0.145,0.26
2021-08-19 14:24:20.136,-0.08,0.235
2021-08-19 14:24:20.140,-0.075,0.23
2021-08-19 14:24:20.144,0.02,0.245
2021-08-19 14:24:20.148,-0.105,0.295
2021-08-19 14:24:20.152,-0.135,0.26
2021-08-19 14:24:20.156,-0.065,0.245
2021-08-19 14:24:20.160,0.065,0.265
2021-08-19 14:24:20.164,0.135,0.24
2021-08-19 14:24:20.168,0.235,0.275
2021-08-19 14:24:20.172,0.06,0.335
2021-08-19 14:24:20.176,0.0,0.345
2021-08-19 14:24:20.180,0.03,0.33
2021-08-19 14:24:20.184,0.035,0.34
2021-08-19 14:24:20.188,0.13,0.3
2021-08-19 14:24:20.192,0.26,0.275
2021-08-19 14:24:20.196,0.28,0.235
2021-08-19 14:24:20.200,0.295,0.21
2021-08-19 14:24:20.204,0.21,0.19
2021-08-19 14:24:20.208,0.21,0.245
2021-08-19 14:24:20.212,0.165,0.265
2021-08-19 14:24:20.216,0.175,0.265
2021-08-19 14:24:20.220,0.055,0.28
2021-08-19 14:24:20.224,0.115,0.25
2021-08-19 14:24:20.228,0.1,0.29
2021-08-19 14:24:20.232,0.055,0.29
2021-08-19 14:24:20.236,0.03,0.28
2021-08-19 14:24:20.240,-0.095,0.295
2021-08-19 14:24:20.244,-0.125,0.27
2021-08-19 14:24:20.248,0.085,0.27
2021-08-19 14:24:20.252,0.06,0.295
2021-08-19 14:24:20.256,-0.085,0.285
2021-08-19 14:24:20.260,-0.12,0.305
2021-08-19 14:24:20.264,-0.06,0.305
2021-08-19 14:24:20.268,-0.07,0.295
2021-08-19 14:24:20.272,-0.035,0.285
2021-08-19 14:24:20.276,0.015,0.3
2021-08-19 14:24:20.280,-0.005,0.375
2021-08-19 14:24:20.284,-0.045,0.425
2021-08-19 14:24:20.288,-0.075,0.505
2021-08-19 14:24:20.292,-0.005,0.47
2021-08-19 14:24:20.296,0.245,0.27
2021-08-19 14:24:20.300,0.72,0.155
2021-08-19 14:24:20.304,1.185,0.08
2021-08-19 14:24:20.308,1.83,-0.165
2021-08-19 14:24:20.320,1.12,-0.83
2021-08-19 14:24:20.324,0.225,-0.62
2021-08-19 14:24:20.328,-0.365,-0.455
2021-08-19 14:24:20.332,-0.36,-0.285
2021-08-19 14:24:20.336,-0.115,-0.02
2021-08-19 14:24:20.340,-0.09,0.085
2021-08-19 14:24:20.344,-0.095,0.145
2021-08-19 14:24:20.348,-0.04,0.19
2021-08-19 14:24:20.352,-0.045,0.255
2021-08-19 14:24:20.356,-0.045,0.315
2021-08-19 14:24:20.360,-0.06,0.32
2021-08-19 14:24:20.364,-0.005,0.34
2021-08-19 14:24:20.368,0.03,0.31
2021-08-19 14:24:20.372,0.04,0.34
2021-08-19 14:24:20.376,0.01,0.36
2021-08-19 14:24:20.380,0.025,0.36
2021-08-19 14:24:20.384,-0.005,0.335
2021-08-19 14:24:20.388,-0.08,0.365
2021-08-19 14:24:20.392,-0.09,0.335
2021-08-19 14:24:20.396,-0.01,0.345
2021-08-19 14:24:20.400,0.015,0.38
2021-08-19 14:24:20.404,-0.115,0.43
2021-08-19 14:24:20.408,-0.21,0.38
2021-08-19 14:24:20.412,-0.075,0.36
2021-08-19 14:24:20.416,0.04,0.42
2021-08-19 14:24:20.420,-0.08,0.45
2021-08-19 14:24:20.424,-0.2,0.42
2021-08-19 14:24:20.428,-0.36,0.405
2021-08-19 14:24:20.432,-0.295,0.39
2021-08-19 14:24:20.436,-0.19,0.4
2021-08-19 14:24:20.440,-0.15,0.395
2021-08-19 14:24:20.444,-0.12,0.36
2021-08-19 14:24:20.448,-0.105,0.33
2021-08-19 14:24:20.452,-0.05,0.37
2021-08-19 14:24:20.456,-0.05,0.37
2021-08-19 14:24:20.460,-0.015,0.38
2021-08-19 14:24:20.464,-0.06,0.385
2021-08-19 14:24:20.468,-0.04,0.37
2021-08-19 14:24:20.472,-0.01,0.395
2021-08-19 14:24:20.476,0.04,0.36
2021-08-19 14:24:20.480,0.07,0.38
2021-08-19 14:24:20.484,-0.02,0.41
2021-08-19 14:24:20.488,-0.185,0.355
2021-08-19 14:24:20.492,-0.08,0.385
2021-08-19 14:24:20.496,0.03,0.39
2021-08-19 14:24:20.500,-0.105,0.425
2021-08-19 14:24:20.504,-0.12,0.425
2021-08-19 14:24:20.508,0.01,0.36
2021-08-19 14:24:20.512,-0.09,0.38
2021-08-19 14:24:20.516,-0.025,0.41
2021-08-19 14:24:20.520,0.065,0.4
2021-08-19 14:24:20.524,0.035,0.445
2021-08-19 14:24:20.528,-0.005,0.445
2021-08-19 14:24:20.532,-0.05,0.405
2021-08-19 14:24:20.536,-0.12,0.34
2021-08-19 14:24:20.540,0.01,0.36
2021-08-19 14:24:20.544,0.02,0.405
2021-08-19 14:24:20.548,-0.315,0.435
2021-08-19 14:24:20.552,-0.36,0.37
2021-08-19 14:24:20.556,-0.31,0.37
2021-08-19 14:24:20.560,-0.28,0.31
2021-08-19 14:24:20.564,-0.11,0.31
2021-08-19 14:24:20.568,-0.045,0.315
2021-08-19 14:24:20.572,-0.275,0.36
2021-08-19 14:24:20.576,-0.455,0.37
2021-08-19 14:24:20.580,-0.27,0.385
2021-08-19 14:24:20.584,0.055,0.4
2021-08-19 14:24:20.588,0.095,0.405
2021-08-19 14:24:20.592,0.105,0.335
2021-08-19 14:24:20.596,0.105,0.36
2021-08-19 14:24:20.600,0.195,0.365
2021-08-19 14:24:20.604,0.27,0.4
2021-08-19 14:24:20.608,0.32,0.35
2021-08-19 14:24:20.612,0.44,0.34
2021-08-19 14:24:20.616,0.51,0.32
2021-08-19 14:24:20.620,0.585,0.31
2021-08-19 14:24:20.624,0.51,0.395
2021-08-19 14:24:20.628,0.385,0.385
2021-08-19 14:24:20.632,0.4,0.35
2021-08-19 14:24:20.636,0.475,0.335
2021-08-19 14:24:20.640,0.43,0.36
2021-08-19 14:24:20.644,0.515,0.365
2021-08-19 14:24:20.648,0.645,0.36
2021-08-19 14:24:20.652,0.515,0.335
2021-08-19 14:24:20.656,0.455,0.385
2021-08-19 14:24:20.660,0.375,0.375
2021-08-19 14:24:20.664,0.275,0.385
2021-08-19 14:24:20.668,0.285,0.37
2021-08-19 14:24:20.672,0.26,0.39
2021-08-19 14:24:20.676,0.22,0.395
2021-08-19 14:24:20.680,0.315,0.44
2021-08-19 14:24:20.684,0.455,0.4
2021-08-19 14:24:20.688,0.495,0.405
2021-08-19 14:24:20.692,0.415,0.43
2021-08-19 14:24:20.696,0.3,0.47
2021-08-19 14:24:20.700,0.29,0.46
2021-08-19 14:24:20.704,0.305,0.42
2021-08-19 14:24:20.708,0.35,0.44
2021-08-19 14:24:20.712,0.37,0.56
2021-08-19 14:24:20.716,0.54,0.68
2021-08-19 14:24:20.720,0.62,0.785
2021-08-19 14:24:20.724,0.77,0.655
2021-08-19 14:24:20.728,1.06,0.315
2021-08-19 14:24:20.732,1.43,-0.14
2021-08-19 14:24:20.736,1.655,-0.495
2021-08-19 14:24:20.740,1.66,-0.86
2021-08-19 14:24:20.744,1.2,-1.095
2021-08-19 14:24:20.748,0.315,-1.135
2021-08-19 14:24:20.752,-0.585,-1.135
2021-08-19 14:24:20.756,-1.25,-0.83
2021-08-19 14:24:20.760,-1.375,-0.295
2021-08-19 14:24:20.764,-1.45,0.265
2021-08-19 14:24:20.768,-1.2,0.83
2021-08-19 14:24:20.772,-0.86,1.06
2021-08-19 14:24:20.776,-0.965,1.045
2021-08-19 14:24:20.780,-0.83,0.955
2021-08-19 14:24:20.784,-0.52,0.825
2021-08-19 14:24:20.788,-0.325,0.76
2021-08-19 14:24:20.792,-0.185,0.69
2021-08-19 14:24:20.796,-0.01,0.58
2021-08-19 14:24:20.800,0.145,0.56
2021-08-19 14:24:20.804,0.085,0.535
2021-08-19 14:24:20.808,0.08,0.53
2021-08-19 14:24:20.812,0.25,0.475
2021-08-19 14:24:20.816,0.305,0.48
2021-08-19 14:24:20.820,0.235,0.5
2021-08-19 14:24:20.824,0.205,0.525
2021-08-19 14:24:20.828,0.205,0.555
2021-08-19 14:24:20.832,0.17,0.535
2021-08-19 14:24:20.836,0.235,0.42
2021-08-19 14:24:20.840,0.39,0.41
2021-08-19 14:24:20.844,0.355,0.42
2021-08-19 14:24:20.848,0.38,0.42
2021-08-19 14:24:20.852,0.365,0.465
2021-08-19 14:24:20.856,0.31,0.54
2021-08-19 14:24:20.860,0.325,0.52
2021-08-19 14:24:20.864,0.335,0.455
2021-08-19 14:24:20.868,0.43,0.455
2021-08-19 14:24:20.872,0.335,0.445
2021-08-19 14:24:20.876,0.46,0.475
2021-08-19 14:24:20.880,0.48,0.51
2021-08-19 14:24:20.884,0.445,0.535
2021-08-19 14:24:20.888,0.52,0.525
2021-08-19 14:24:20.892,0.47,0.535
2021-08-19 14:24:20.896,0.41,0.555
2021-08-19 14:24:20.900,0.425,0.505
2021-08-19 14:24:20.904,0.6,0.475
2021-08-19 14:24:20.908,0.68,0.485
2021-08-19 14:24:20.912,0.56,0.495
2021-08-19 14:24:20.916,0.62,0.475
2021-08-19 14:24:20.920,0.765,0.48
2021-08-19 14:24:20.924,0.725,0.515
2021-08-19 14:24:20.928,0.83,0.515
2021-08-19 14:24:20.932,0.915,0.475
2021-08-19 14:24:20.936,1.015,0.485
2021-08-19 14:24:20.940,1.095,0.505
2021-08-19 14:24:20.944,1.075,0.505
2021-08-19 14:24:20.948,1.075,0.47
2021-08-19 14:24:20.952,1.125,0.465
2021-08-19 14:24:20.956,1.12,0.46
2021-08-19 14:24:20.960,1.275,0.47
2021-08-19 14:24:20.964,1.375,0.42
2021-08-19 14:24:20.968,1.425,0.41
2021-08-19 14:24:20.972,1.295,0.445
2021-08-19 14:24:20.976,1.225,0.42
2021-08-19 14:24:20.980,1.31,0.385
2021-08-19 14:24:20.984,1.15,0.335
2021-08-19 14:24:20.988,1.11,0.31
2021-08-19 14:24:20.992,1.13,0.24
2021-08-19 14:24:20.996,1.11,0.19
2021-08-19 14:24:21.000,0.875,0.22
2021-08-19 14:24:21.004,0.87,0.23
2021-08-19 14:24:21.008,0.91,0.215
2021-08-19 14:24:21.012,0.8,0.265
2021-08-19 14:24:21.016,0.675,0.205
2021-08-19 14:24:21.020,0.67,0.2
2021-08-19 14:24:21.024,0.495,0.2
2021-08-19 14:24:21.028,0.375,0.265
2021-08-19 14:24:21.032,0.3,0.325
2021-08-19 14:24:21.036,0.375,0.32
2021-08-19 14:24:21.040,0.455,0.26
2021-08-19 14:24:21.044,0.35,0.3
2021-08-19 14:24:21.048,0.2,0.34
2021-08-19 14:24:21.052,0.315,0.355
2021-08-19 14:24:21.056,0.24,0.365
2021-08-19 14:24:21.060,0.185,0.315
2021-08-19 14:24:21.064,0.34,0.4
2021-08-19 14:24:21.068,0.13,0.445
2021-08-19 14:24:21.072,0.075,0.365
2021-08-19 14:24:21.076,0.165,0.325
2021-08-19 14:24:21.080,0.37,0.305
2021-08-19 14:24:21.084,0.185,0.36
2021-08-19 14:24:21.088,0.025,0.415
2021-08-19 14:24:21.092,-0.01,0.335
2021-08-19 14:24:21.096,0.155,0.36
2021-08-19 14:24:21.100,0.035,0.385
2021-08-19 14:24:21.104,0.0,0.41
2021-08-19 14:24:21.108,0.095,0.355
2021-08-19 14:24:21.112,0.225,0.375
2021-08-19 14:24:21.116,0.115,0.375
2021-08-19 14:24:21.120,-0.05,0.345
2021-08-19 14:24:21.124,0.01,0.335
2021-08-19 14:24:21.128,0.06,0.36
2021-08-19 14:24:21.132,0.15,0.35
2021-08-19 14:24:21.136,0.07,0.355
2021-08-19 14:24:21.140,-0.11,0.34
2021-08-19 14:24:21.144,-0.115,0.34
2021-08-19 14:24:21.148,-0.095,0.335
2021-08-19 14:24:21.152,-0.03,0.32
2021-08-19 14:24:21.156,-0.075,0.335
2021-08-19 14:24:21.160,-0.13,0.365
2021-08-19 14:24:21.164,-0.075,0.36
2021-08-19 14:24:21.168,-0.13,0.36
2021-08-19 14:24:21.172,-0.015,0.35
2021-08-19 14:24:21.176,-0.065,0.38
2021-08-19 14:24:21.180,-0.065,0.355
2021-08-19 14:24:21.184,-0.02,0.345
2021-08-19 14:24:21.188,0.015,0.33
2021-08-19 14:24:21.192,0.095,0.34
2021-08-19 14:24:21.196,-0.115,0.355
2021-08-19 14:24:21.200,-0.22,0.365
2021-08-19 14:24:21.204,-0.18,0.36
2021-08-19 14:24:21.208,-0.12,0.35
2021-08-19 14:24:21.212,0.02,0.34
2021-08-19 14:24:21.216,0.11,0.345
2021-08-19 14:24:21.220,-0.155,0.36
2021-08-19 14:24:21.224,-0.29,0.355
2021-08-19 14:24:21.228,-0.2,0.34
2021-08-19 14:24:21.232,-0.155,0.37
2021-08-19 14:24:21.236,-0.145,0.355
2021-08-19 14:24:21.240,-0.13,0.33
2021-08-19 14:24:21.244,-0.105,0.34
2021-08-19 14:24:21.248,-0.11,0.355
2021-08-19 14:24:21.252,-0.12,0.36
2021-08-19 14:24:21.256,-0.07,0.35
2021-08-19 14:24:21.260,-0.045,0.38
2021-08-19 14:24:21.264,-0.18,0.365
2021-08-19 14:24:21.268,-0.175,0.34
2021-08-19 14:24:21.272,-0.13,0.335
2021-08-19 14:24:21.276,-0.145,0.35
2021-08-19 14:24:21.280,-0.1,0.37
2021-08-19 14:24:21.284,-0.1,0.37
2021-08-19 14:24:21.288,-0.105,0.39
2021-08-19 14:24:21.292,-0.115,0.37
2021-08-19 14:24:21.296,-0.135,0.38
2021-08-19 14:24:21.300,-0.14,0.355
2021-08-19 14:24:21.304,-0.15,0.37
2021-08-19 14:24:21.308,-0.125,0.37
2021-08-19 14:24:21.312,-0.095,0.365
2021-08-19 14:24:21.316,-0.175,0.385
2021-08-19 14:24:21.320,-0.135,0.375
2021-08-19 14:24:21.324,-0.185,0.39
2021-08-19 14:24:21.328,-0.125,0.385
2021-08-19 14:24:21.332,-0.125,0.355
2021-08-19 14:24:21.336,-0.125,0.36
2021-08-19 14:24:21.340,-0.14,0.365
2021-08-19 14:24:21.344,-0.19,0.405
2021-08-19 14:24:21.348,-0.215,0.415
2021-08-19 14:24:21.352,-0.185,0.42
2021-08-19 14:24:21.356,-0.17,0.415
2021-08-19 14:24:21.360,-0.2,0.375
2021-08-19 14:24:21.364,-0.13,0.34
2021-08-19 14:24:21.368,-0.09,0.355
2021-08-19 14:24:21.372,-0.085,0.36
2021-08-19 14:24:21.376,-0.215,0.38
2021-08-19 14:24:21.380,-0.19,0.365
2021-08-19 14:24:21.384,-0.135,0.39
2021-08-19 14:24:21.388,-0.14,0.41
2021-08-19 14:24:21.392,-0.245,0.425
2021-08-19 14:24:21.396,-0.225,0.41
2021-08-19 14:24:21.400,-0.205,0.375
2021-08-19 14:24:21.404,-0.205,0.38
2021-08-19 14:24:21.408,-0.16,0.42
2021-08-19 14:24:21.412,-0.16,0.41
2021-08-19 14:24:21.416,-0.145,0.4
2021-08-19 14:24:21.420,-0.16,0.395
2021-08-19 14:24:21.424,-0.115,0.41
2021-08-19 14:24:21.428,-0.125,0.435
2021-08-19 14:24:21.432,-0.14,0.405
2021-08-19 14:24:21.436,-0.16,0.435
2021-08-19 14:24:21.440,-0.18,0.44
2021-08-19 14:24:21.444,-0.135,0.415
2021-08-19 14:24:21.448,-0.085,0.43
2021-08-19 14:24:21.452,-0.04,0.47
2021-08-19 14:24:21.456,-0.05,0.485
2021-08-19 14:24:21.460,-0.01,0.465
2021-08-19 14:24:21.464,0.075,0.425
2021-08-19 14:24:21.468,0.115,0.425
2021-08-19 14:24:21.472,0.16,0.44
2021-08-19 14:24:21.476,0.23,0.415
2021-08-19 14:24:21.480,0.17,0.34
2021-08-19 14:24:21.484,0.14,0.275
2021-08-19 14:24:21.488,0.315,0.28
2021-08-19 14:24:21.492,0.47,0.305
2021-08-19 14:24:21.496,0.28,0.36
2021-08-19 14:24:21.500,-0.16,0.405
2021-08-19 14:24:21.504,-0.365,0.44
2021-08-19 14:24:21.508,-0.26,0.48
2021-08-19 14:24:21.512,-0.245,0.48
2021-08-19 14:24:21.516,-0.24,0.465
2021-08-19 14:24:21.520,-0.225,0.435
2021-08-19 14:24:21.524,-0.155,0.42
2021-08-19 14:24:21.528,-0.105,0.445
2021-08-19 14:24:21.532,-0.165,0.46
2021-08-19 14:24:21.536,-0.2,0.435
2021-08-19 14:24:21.540,-0.265,0.415
2021-08-19 14:24:21.544,-0.195,0.415
2021-08-19 14:24:21.548,-0.05,0.435
2021-08-19 14:24:21.552,-0.075,0.455
2021-08-19 14:24:21.556,-0.07,0.46
2021-08-19 14:24:21.560,-0.1,0.525
2021-08-19 14:24:21.564,-0.25,0.6
2021-08-19 14:24:21.568,-0.315,0.65
2021-08-19 14:24:21.572,-0.255,0.61
2021-08-19 14:24:21.576,-0.015,0.35
2021-08-19 14:24:21.580,0.475,0.19
2021-08-19 14:24:21.584,0.975,0.085
2021-08-19 14:24:21.588,1.54,-0.185
2021-08-19 14:24:21.592,1.91,-0.55
2021-08-19 14:24:21.596,1.585,-0.875
2021-08-19 14:24:21.600,0.72,-0.82
2021-08-19 14:24:21.604,0.0,-0.44
2021-08-19 14:24:21.608,-0.47,-0.19
2021-08-19 14:24:21.612,-0.615,-0.025
2021-08-19 14:24:21.616,-0.545,0.165
2021-08-19 14:24:21.620,-0.23,0.215
2021-08-19 14:24:21.624,-0.225,0.255
2021-08-19 14:24:21.628,-0.38,0.27
2021-08-19 14:24:21.632,-0.38,0.31
2021-08-19 14:24:21.636,-0.285,0.375
2021-08-19 14:24:21.640,-0.34,0.4
2021-08-19 14:24:21.644,-0.36,0.455
2021-08-19 14:24:21.648,-0.535,0.485
2021-08-19 14:24:21.652,-0.65,0.51
2021-08-19 14:24:21.656,-0.6,0.53
2021-08-19 14:24:21.660,-0.465,0.505
2021-08-19 14:24:21.664,-0.42,0.465
2021-08-19 14:24:21.668,-0.52,0.49
2021-08-19 14:24:21.672,-0.7,0.495
2021-08-19 14:24:21.676,-0.665,0.51
2021-08-19 14:24:21.680,-0.52,0.48
2021-08-19 14:24:21.684,-0.53,0.515
2021-08-19 14:24:21.688,-0.62,0.53
2021-08-19 14:24:21.692,-0.65,0.535
2021-08-19 14:24:21.696,-0.78,0.54
2021-08-19 14:24:21.700,-0.885,0.53
2021-08-19 14:24:21.704,-0.825,0.525
2021-08-19 14:24:21.708,-0.865,0.54
2021-08-19 14:24:21.712,-0.97,0.55
2021-08-19 14:24:21.716,-0.895,0.505
2021-08-19 14:24:21.720,-0.84,0.38
2021-08-19 14:24:21.724,-0.815,0.375
2021-08-19 14:24:21.728,-0.805,0.41
2021-08-19 14:24:21.732,-0.755,0.42
2021-08-19 14:24:21.736,-0.76,0.425
2021-08-19 14:24:21.740,-0.855,0.465
2021-08-19 14:24:21.744,-0.875,0.515
2021-08-19 14:24:21.748,-0.86,0.49
2021-08-19 14:24:21.752,-0.855,0.42
2021-08-19 14:24:21.756,-0.96,0.41
2021-08-19 14:24:21.760,-0.91,0.375
2021-08-19 14:24:21.764,-0.86,0.385
2021-08-19 14:24:21.768,-0.845,0.41
2021-08-19 14:24:21.772,-0.92,0.44
2021-08-19 14:24:21.776,-0.96,0.42
2021-08-19 14:24:21.780,-0.91,0.43
2021-08-19 14:24:21.784,-0.85,0.425
2021-08-19 14:24:21.788,-0.835,0.405
2021-08-19 14:24:21.792,-0.87,0.425
2021-08-19 14:24:21.796,-0.9,0.41
2021-08-19 14:24:21.800,-0.91,0.35
2021-08-19 14:24:21.804,-0.92,0.39
2021-08-19 14:24:21.808,-0.935,0.405
2021-08-19 14:24:21.812,-0.85,0.395
2021-08-19 14:24:21.816,-0.655,0.38
2021-08-19 14:24:21.820,-0.655,0.435
2021-08-19 14:24:21.824,-0.955,0.57
2021-08-19 14:24:21.828,-1.19,0.545
2021-08-19 14:24:21.832,-1.21,0.395
2021-08-19 14:24:21.836,-1.135,0.32
2021-08-19 14:24:21.840,-1.17,0.31
2021-08-19 14:24:21.844,-1.255,0.43
2021-08-19 14:24:21.848,-1.295,0.475
2021-08-19 14:24:21.852,-1.295,0.325
2021-08-19 14:24:21.856,-1.26,0.195
2021-08-19 14:24:21.860,-1.12,0.27
2021-08-19 14:24:21.864,-0.975,0.335
2021-08-19 14:24:21.868,-0.815,0.325
2021-08-19 14:24:21.872,-0.895,0.28
2021-08-19 14:24:21.876,-0.975,0.33
2021-08-19 14:24:21.880,-1.105,0.425
2021-08-19 14:24:21.884,-1.035,0.4
2021-08-19 14:24:21.888,-0.71,0.405
2021-08-19 14:24:21.892,-0.595,0.38
2021-08-19 14:24:21.896,-0.79,0.4
2021-08-19 14:24:21.900,-0.975,0.435
2021-08-19 14:24:21.904,-0.96,0.375
2021-08-19 14:24:21.908,-0.785,0.305
2021-08-19 14:24:21.912,-0.77,0.315
2021-08-19 14:24:21.916,-0.775,0.225
2021-08-19 14:24:21.920,-0.705,0.2
2021-08-19 14:24:21.924,-0.77,0.23
2021-08-19 14:24:21.928,-0.77,0.24
2021-08-19 14:24:21.932,-0.675,0.245
2021-08-19 14:24:21.936,-0.735,0.235
2021-08-19 14:24:21.940,-0.785,0.245
2021-08-19 14:24:21.944,-0.92,0.285
2021-08-19 14:24:21.948,-1.115,0.335
2021-08-19 14:24:21.952,-1.085,0.33
2021-08-19 14:24:21.956,-0.955,0.335
2021-08-19 14:24:21.960,-0.85,0.27
2021-08-19 14:24:21.964,-0.815,0.265
2021-08-19 14:24:21.968,-0.925,0.27
2021-08-19 14:24:21.972,-0.975,0.3
2021-08-19 14:24:21.976,-0.985,0.32
2021-08-19 14:24:21.980,-0.925,0.325
2021-08-19 14:24:21.984,-0.875,0.33
2021-08-19 14:24:21.988,-0.855,0.315
2021-08-19 14:24:21.992,-0.855,0.34
2021-08-19 14:24:21.996,-0.815,0.37
2021-08-19 14:24:22.000,-0.775,0.445
2021-08-19 14:24:22.004,-0.66,0.52
2021-08-19 14:24:22.008,-0.51,0.56
2021-08-19 14:24:22.012,-0.295,0.33
2021-08-19 14:24:22.016,-0.06,-0.035
2021-08-19 14:24:22.020,0.08,-0.43
2021-08-19 14:24:22.024,0.26,-0.74
2021-08-19 14:24:22.028,0.085,-1.065
2021-08-19 14:24:22.032,-0.8,-1.19
2021-08-19 14:24:22.036,-1.51,-1.13
2021-08-19 14:24:22.040,-1.9,-0.93
2021-08-19 14:24:22.052,-1.975,0.515
2021-08-19 14:24:22.056,-1.625,0.675
2021-08-19 14:24:22.060,-1.56,0.73
2021-08-19 14:24:22.064,-1.705,0.77
2021-08-19 14:24:22.068,-1.745,0.925
2021-08-19 14:24:22.072,-1.725,0.905
2021-08-19 14:24:22.076,-1.58,0.74
2021-08-19 14:24:22.080,-1.4,0.535
2021-08-19 14:24:22.084,-1.15,0.51
2021-08-19 14:24:22.088,-1.045,0.46
2021-08-19 14:24:22.092,-0.845,0.375
2021-08-19 14:24:22.096,-0.905,0.2
2021-08-19 14:24:22.100,-1.04,0.11
2021-08-19 14:24:22.104,-0.905,0.05
2021-08-19 14:24:22.108,-0.795,0.115
2021-08-19 14:24:22.112,-0.85,0.155
2021-08-19 14:24:22.116,-0.815,0.205
2021-08-19 14:24:22.120,-0.93,0.24
2021-08-19 14:24:22.124,-1.08,0.26
2021-08-19 14:24:22.128,-1.08,0.26
2021-08-19 14:24:22.132,-1.02,0.28
2021-08-19 14:24:22.136,-0.99,0.335
2021-08-19 14:24:22.140,-0.795,0.26
2021-08-19 14:24:22.144,-0.71,0.18
2021-08-19 14:24:22.148,-0.81,0.205
2021-08-19 14:24:22.152,-0.94,0.315
2021-08-19 14:24:22.156,-0.975,0.205
2021-08-19 14:24:22.160,-0.81,0.12
2021-08-19 14:24:22.164,-0.825,0.2
2021-08-19 14:24:22.168,-0.915,0.285
2021-08-19 14:24:22.172,-0.93,0.235
2021-08-19 14:24:22.176,-0.89,0.31
2021-08-19 14:24:22.180,-0.88,0.49
2021-08-19 14:24:22.184,-0.76,0.525
2021-08-19 14:24:22.188,-0.74,0.28
2021-08-19 14:24:22.192,-0.71,0.035
2021-08-19 14:24:22.196,-0.59,0.045
2021-08-19 14:24:22.200,-0.705,0.1
2021-08-19 14:24:22.204,-0.74,0.155
2021-08-19 14:24:22.208,-0.66,0.215
2021-08-19 14:24:22.212,-0.575,0.25
2021-08-19 14:24:22.216,-0.54,0.315
2021-08-19 14:24:22.220,-0.605,0.26
2021-08-19 14:24:22.224,-0.465,0.18
2021-08-19 14:24:22.228,-0.31,0.165
2021-08-19 14:24:22.232,-0.21,0.165
2021-08-19 14:24:22.236,-0.08,0.255
2021-08-19 14:24:22.240,0.015,0.265
2021-08-19 14:24:22.244,-0.03,0.175
2021-08-19 14:24:22.248,-0.185,0.115
2021-08-19 14:24:22.252,-0.22,0.165
2021-08-19 14:24:22.256,-0.205,0.285
2021-08-19 14:24:22.260,-0.13,0.335
2021-08-19 14:24:22.264,0.05,0.32
2021-08-19 14:24:22.268,0.24,0.215
2021-08-19 14:24:22.272,0.215,0.07
2021-08-19 14:24:22.276,-0.005,-0.02
2021-08-19 14:24:22.280,-0.05,-0.13
2021-08-19 14:24:22.284,-0.01,-0.17
2021-08-19 14:24:22.288,0.035,-0.14
2021-08-19 14:24:22.292,-0.09,-0.095
2021-08-19 14:24:22.296,-0.27,-0.08
2021-08-19 14:24:22.300,-0.38,-0.02
2021-08-19 14:24:22.304,-0.415,0.02
2021-08-19 14:24:22.308,-0.34,0.025
2021-08-19 14:24:22.312,-0.565,0.08
2021-08-19 14:24:22.316,-0.73,0.09
2021-08-19 14:24:22.320,-0.395,-0.005
2021-08-19 14:24:22.324,-0.405,-0.11
2021-08-19 14:24:22.328,-0.755,-0.08
2021-08-19 14:24:22.332,-0.85,0.035
2021-08-19 14:24:22.336,-0.755,0.075
2021-08-19 14:24:22.340,-0.885,0.255
2021-08-19 14:24:22.344,-1.2,0.415
2021-08-19 14:24:22.348,-1.225,0.31
2021-08-19 14:24:22.352,-1.04,0.12
2021-08-19 14:24:22.356,-0.93,-0.015
2021-08-19 14:24:22.360,-0.885,0.0
2021-08-19 14:24:22.364,-0.78,0.045
2021-08-19 14:24:22.368,-0.775,0.0
2021-08-19 14:24:22.372,-0.745,0.06
2021-08-19 14:24:22.376,-0.79,0.26
2021-08-19 14:24:22.380,-0.935,0.375
2021-08-19 14:24:22.384,-1.015,0.235
2021-08-19 14:24:22.388,-0.915,0.15
2021-08-19 14:24:22.392,-1.05,0.225
2021-08-19 14:24:22.396,-1.21,0.31
2021-08-19 14:24:22.400,-1.2,0.295
2021-08-19 14:24:22.404,-1.19,0.335
2021-08-19 14:24:22.408,-1.13,0.305
2021-08-19 14:24:22.412,-1.17,0.135
2021-08-19 14:24:22.416,-1.22,-0.015
2021-08-19 14:24:22.420,-1.115,0.14
2021-08-19 14:24:22.424,-1.12,0.275
2021-08-19 14:24:22.428,-1.06,0.13
2021-08-19 14:24:22.432,-0.995,0.055
2021-08-19 14:24:22.436,-0.99,0.155
2021-08-19 14:24:22.440,-1.085,0.09
2021-08-19 14:24:22.444,-1.21,-0.135
2021-08-19 14:24:22.448,-1.245,-0.12
2021-08-19 14:24:22.452,-1.165,-0.07
2021-08-19 14:24:22.456,-1.045,0.025
2021-08-19 14:24:22.460,-0.945,0.04
2021-08-19 14:24:22.464,-1.0,0.075
2021-08-19 14:24:22.468,-1.185,0.065
2021-08-19 14:24:22.472,-1.255,0.17
2021-08-19 14:24:22.476,-1.095,0.045
2021-08-19 14:24:22.480,-0.99,-0.045
2021-08-19 14:24:22.484,-1.05,-0.05
2021-08-19 14:24:22.488,-1.17,-0.01
2021-08-19 14:24:22.492,-1.155,0.015
2021-08-19 14:24:22.496,-0.99,0.04
2021-08-19 14:24:22.500,-1.015,0.045
2021-08-19 14:24:22.504,-0.995,0.175
2021-08-19 14:24:22.508,-0.99,0.22
2021-08-19 14:24:22.512,-1.09,0.215
2021-08-19 14:24:22.516,-1.245,0.09
2021-08-19 14:24:22.520,-1.135,0.015
2021-08-19 14:24:22.524,-1.09,0.21
2021-08-19 14:24:22.528,-1.24,0.4
2021-08-19 14:24:22.532,-1.2,0.25
2021-08-19 14:24:22.536,-1.115,0.0
2021-08-19 14:24:22.540,-1.11,-0.075
2021-08-19 14:24:22.544,-1.175,0.015
2021-08-19 14:24:22.548,-1.23,0.105
2021-08-19 14:24:22.552,-1.18,0.045
2021-08-19 14:24:22.556,-1.045,-0.06
2021-08-19 14:24:22.560,-1.03,-0.02
2021-08-19 14:24:22.564,-1.16,0.085
2021-08-19 14:24:22.568,-1.14,0.12
2021-08-19 14:24:22.572,-0.98,0.16
2021-08-19 14:24:22.576,-0.935,0.145
2021-08-19 14:24:22.580,-1.01,0.095
2021-08-19 14:24:22.584,-1.23,0.12
2021-08-19 14:24:22.588,-1.185,0.08
2021-08-19 14:24:22.592,-1.065,0.04
2021-08-19 14:24:22.596,-1.11,0.02
2021-08-19 14:24:22.600,-1.15,0.035
2021-08-19 14:24:22.604,-1.06,0.12
2021-08-19 14:24:22.608,-0.96,0.28
2021-08-19 14:24:22.612,-0.855,0.215
2021-08-19 14:24:22.616,-0.805,-0.075
2021-08-19 14:24:22.620,-0.86,-0.18
2021-08-19 14:24:22.624,-0.96,-0.05
2021-08-19 14:24:22.628,-1.015,0.115
2021-08-19 14:24:22.632,-0.98,0.14
2021-08-19 14:24:22.636,-0.915,0.065
2021-08-19 14:24:22.640,-0.89,0.055
2021-08-19 14:24:22.644,-1.06,0.065
2021-08-19 14:24:22.648,-1.105,0.14
2021-08-19 14:24:22.652,-0.915,0.135
2021-08-19 14:24:22.656,-0.79,-0.04
2021-08-19 14:24:22.660,-0.955,-0.105
2021-08-19 14:24:22.664,-1.04,-0.11
2021-08-19 14:24:22.668,-0.97,-0.06
2021-08-19 14:24:22.672,-0.89,0.125
2021-08-19 14:24:22.676,-1.0,0.235
2021-08-19 14:24:22.680,-1.035,0.17
2021-08-19 14:24:22.684,-0.935,0.095
2021-08-19 14:24:22.688,-1.145,0.03
2021-08-19 14:24:22.692,-1.225,0.0
2021-08-19 14:24:22.696,-0.915,-0.05
2021-08-19 14:24:22.700,-0.765,0.14
2021-08-19 14:24:22.704,-0.88,0.38
2021-08-19 14:24:22.708,-0.995,0.19
2021-08-19 14:24:22.712,-0.925,-0.145
2021-08-19 14:24:22.716,-0.95,-0.16
2021-08-19 14:24:22.720,-1.03,-0.105
2021-08-19 14:24:22.724,-1.115,0.045
2021-08-19 14:24:22.728,-1.11,0.23
2021-08-19 14:24:22.732,-1.13,0.335
2021-08-19 14:24:22.736,-1.09,0.235
2021-08-19 14:24:22.740,-0.955,0.155
2021-08-19 14:24:22.744,-0.845,0.075
2021-08-19 14:24:22.748,-0.805,-0.02
2021-08-19 14:24:22.752,-0.67,0.05
2021-08-19 14:24:22.756,-0.73,0.135
2021-08-19 14:24:22.760,-0.715,0.02
2021-08-19 14:24:22.764,-0.62,-0.08
2021-08-19 14:24:22.768,-0.72,-0.12
2021-08-19 14:24:22.772,-0.7,-0.05
2021-08-19 14:24:22.776,-0.725,-0.055
2021-08-19 14:24:22.780,-0.75,-0.035
2021-08-19 14:24:22.784,-0.815,0.145
2021-08-19 14:24:22.788,-0.875,0.225
2021-08-19 14:24:22.792,-0.92,0.105
2021-08-19 14:24:22.796,-1.01,-0.055
2021-08-19 14:24:22.800,-1.09,-0.11
2021-08-19 14:24:22.804,-1.075,-0.125
2021-08-19 14:24:22.808,-1.035,-0.045
2021-08-19 14:24:22.812,-0.905,-0.02
2021-08-19 14:24:22.816,-0.86,0.01
2021-08-19 14:24:22.820,-1.04,0.185
2021-08-19 14:24:22.824,-1.105,0.195
2021-08-19 14:24:22.828,-1.035,0.095
2021-08-19 14:24:22.832,-1.045,0.045
2021-08-19 14:24:22.836,-0.975,-0.025
2021-08-19 14:24:22.840,-0.865,-0.085
2021-08-19 14:24:22.844,-0.885,0.06
2021-08-19 14:24:22.848,-1.04,0.27
2021-08-19 14:24:22.852,-1.135,0.345
2021-08-19 14:24:22.856,-1.04,0.225
2021-08-19 14:24:22.860,-0.815,0.185
2021-08-19 14:24:22.864,-0.36,0.025
2021-08-19 14:24:22.868,0.345,-0.215
2021-08-19 14:24:22.872,1.24,-0.375
2021-08-19 14:24:22.876,1.725,-0.535
2021-08-19 14:24:22.880,1.295,-0.72
2021-08-19 14:24:22.884,0.25,-0.81
2021-08-19 14:24:22.888,-0.685,-0.68
2021-08-19 14:24:22.892,-1.19,-0.45
2021-08-19 14:24:22.896,-1.135,-0.18
2021-08-19 14:24:22.900,-1.045,-0.05
2021-08-19 14:24:22.904,-0.975,-0.13
2021-08-19 14:24:22.908,-0.83,-0.01
2021-08-19 14:24:22.912,-0.825,-0.03
2021-08-19 14:24:22.916,-0.7,-0.06
2021-08-19 14:24:22.920,-0.68,0.065
2021-08-19 14:24:22.924,-1.045,0.185
2021-08-19 14:24:22.928,-1.23,0.035
2021-08-19 14:24:22.932,-1.015,0.005
2021-08-19 14:24:22.936,-0.88,0.06
2021-08-19 14:24:22.940,-0.81,0.04
2021-08-19 14:24:22.944,-0.91,0.01
2021-08-19 14:24:22.948,-1.16,0.03
2021-08-19 14:24:22.952,-1.14,0.075
2021-08-19 14:24:22.956,-0.985,0.12
2021-08-19 14:24:22.960,-1.005,0.205
2021-08-19 14:24:22.964,-0.995,0.255
2021-08-19 14:24:22.968,-0.94,0.265
2021-08-19 14:24:22.972,-0.93,0.17
2021-08-19 14:24:22.976,-0.955,-0.035
2021-08-19 14:24:22.980,-0.89,-0.045
2021-08-19 14:24:22.984,-0.9,0.06
2021-08-19 14:24:22.988,-1.045,0.05
2021-08-19 14:24:22.992,-1.075,0.07
2021-08-19 14:24:22.996,-1.04,0.115
2021-08-19 14:24:23.000,-0.985,0.135
2021-08-19 14:24:23.004,-0.94,0.105
2021-08-19 14:24:23.008,-1.055,0.135
2021-08-19 14:24:23.012,-1.135,0.155
2021-08-19 14:24:23.016,-1.105,0.205
2021-08-19 14:24:23.020,-1.075,0.22
2021-08-19 14:24:23.024,-1.065,0.21
2021-08-19 14:24:23.028,-1.06,0.23
2021-08-19 14:24:23.032,-1.035,0.185
2021-08-19 14:24:23.036,-1.035,0.185
2021-08-19 14:24:23.040,-0.99,0.15
2021-08-19 14:24:23.044,-0.955,0.06
2021-08-19 14:24:23.048,-0.965,0.16
2021-08-19 14:24:23.052,-0.97,0.285
2021-08-19 14:24:23.056,-1.01,0.415
2021-08-19 14:24:23.060,-1.01,0.515
2021-08-19 14:24:23.064,-0.86,0.335
2021-08-19 14:24:23.068,-0.81,0.035
2021-08-19 14:24:23.072,-0.87,-0.175
2021-08-19 14:24:23.076,-0.775,-0.175
2021-08-19 14:24:23.080,-0.74,-0.115
2021-08-19 14:24:23.084,-0.905,0.04
2021-08-19 14:24:23.088,-0.955,0.155
2021-08-19 14:24:23.092,-0.935,0.19
2021-08-19 14:24:23.096,-1.0,0.055
2021-08-19 14:24:23.100,-0.975,0.03
2021-08-19 14:24:23.104,-0.93,0.09
2021-08-19 14:24:23.108,-1.06,0.17
2021-08-19 14:24:23.112,-1.205,0.215
2021-08-19 14:24:23.116,-1.19,0.205
2021-08-19 14:24:23.120,-1.18,0.145
2021-08-19 14:24:23.124,-1.205,0.14
2021-08-19 14:24:23.128,-1.215,0.19
2021-08-19 14:24:23.132,-1.175,0.185
2021-08-19 14:24:23.136,-1.115,0.17
2021-08-19 14:24:23.140,-1.135,0.185
2021-08-19 14:24:23.144,-1.105,0.195
2021-08-19 14:24:23.148,-0.985,0.235
2021-08-19 14:24:23.152,-0.88,0.27
2021-08-19 14:24:23.156,-0.86,0.27
2021-08-19 14:24:23.160,-0.825,0.225
2021-08-19 14:24:23.164,-0.78,0.24
2021-08-19 14:24:23.168,-0.62,0.255
2021-08-19 14:24:23.172,-0.585,0.21
2021-08-19 14:24:23.176,-0.58,0.185
2021-08-19 14:24:23.180,-0.61,0.2
2021-08-19 14:24:23.184,-0.57,0.19
2021-08-19 14:24:23.188,-0.515,0.16
2021-08-19 14:24:23.192,-0.5,0.18
2021-08-19 14:24:23.196,-0.54,0.22
2021-08-19 14:24:23.200,-0.53,0.185
2021-08-19 14:24:23.204,-0.535,0.305
2021-08-19 14:24:23.208,-0.64,0.55
2021-08-19 14:24:23.212,-0.7,0.53
2021-08-19 14:24:23.216,-0.555,0.4
2021-08-19 14:24:23.220,-0.43,0.24
2021-08-19 14:24:23.224,-0.475,-0.05
2021-08-19 14:24:23.228,-0.52,-0.2
2021-08-19 14:24:23.232,-0.47,-0.09
2021-08-19 14:24:23.236,-0.575,0.07
2021-08-19 14:24:23.240,-0.73,0.17
2021-08-19 14:24:23.244,-0.56,0.185
2021-08-19 14:24:23.248,-0.4,0.15
2021-08-19 14:24:23.252,-0.515,0.145
2021-08-19 14:24:23.256,-0.64,0.21
2021-08-19 14:24:23.260,-0.67,0.235
2021-08-19 14:24:23.264,-0.715,0.265
2021-08-19 14:24:23.268,-0.67,0.275
2021-08-19 14:24:23.272,-0.5,0.31
2021-08-19 14:24:23.276,-0.34,0.32
2021-08-19 14:24:23.280,-0.265,0.435
2021-08-19 14:24:23.284,-0.205,0.505
2021-08-19 14:24:23.288,-0.115,0.485
2021-08-19 14:24:23.292,0.18,0.265
2021-08-19 14:24:23.296,0.57,-0.12
2021-08-19 14:24:23.300,0.96,-0.46
2021-08-19 14:24:23.304,1.15,-0.755
2021-08-19 14:24:23.308,0.79,-0.97
2021-08-19 14:24:23.312,-0.185,-1.015
2021-08-19 14:24:23.316,-1.19,-1.01
2021-08-19 14:24:23.320,-1.805,-0.69
2021-08-19 14:24:23.324,-1.945,-0.22
2021-08-19 14:24:23.328,-1.91,0.24
2021-08-19 14:24:23.332,-1.765,0.7
2021-08-19 14:24:23.336,-1.65,0.95
2021-08-19 14:24:23.340,-1.755,1.1
2021-08-19 14:24:23.344,-1.64,1.05
2021-08-19 14:24:23.348,-1.31,0.855
2021-08-19 14:24:23.352,-1.17,0.77
2021-08-19 14:24:23.356,-1.16,0.715
2021-08-19 14:24:23.360,-1.07,0.545
2021-08-19 14:24:23.364,-0.86,0.245
2021-08-19 14:24:23.368,-0.65,0.41
2021-08-19 14:24:23.372,-0.705,0.955
2021-08-19 14:24:23.376,-1.015,1.1
2021-08-19 14:24:23.380,-0.945,0.715
2021-08-19 14:24:23.384,-0.755,0.13
2021-08-19 14:24:23.388,-0.765,-0.28
2021-08-19 14:24:23.392,-0.465,-0.355
2021-08-19 14:24:23.396,-0.21,-0.2
2021-08-19 14:24:23.400,-0.48,0.02
2021-08-19 14:24:23.404,-0.87,0.31
2021-08-19 14:24:23.408,-0.855,0.43
2021-08-19 14:24:23.412,-0.66,0.185
2021-08-19 14:24:23.416,-0.53,-0.05
2021-08-19 14:24:23.420,-0.45,-0.085
2021-08-19 14:24:23.424,-0.425,0.055
2021-08-19 14:24:23.428,-0.55,0.16
2021-08-19 14:24:23.432,-0.35,0.265
2021-08-19 14:24:23.436,-0.42,0.27
2021-08-19 14:24:23.440,-0.565,0.26
2021-08-19 14:24:23.444,-0.435,0.285
2021-08-19 14:24:23.448,-0.44,0.315
2021-08-19 14:24:23.452,-0.59,0.335
2021-08-19 14:24:23.456,-0.5,0.325
2021-08-19 14:24:23.460,-0.315,0.335
2021-08-19 14:24:23.464,-0.215,0.33
2021-08-19 14:24:23.468,-0.28,0.315
2021-08-19 14:24:23.472,-0.28,0.32
2021-08-19 14:24:23.476,-0.24,0.335
2021-08-19 14:24:23.480,-0.115,0.3
2021-08-19 14:24:23.484,0.09,0.305
2021-08-19 14:24:23.488,0.16,0.32
2021-08-19 14:24:23.492,0.0,0.315
2021-08-19 14:24:23.496,0.05,0.365
2021-08-19 14:24:23.500,0.115,0.5
2021-08-19 14:24:23.504,-0.07,0.58
2021-08-19 14:24:23.508,-0.025,0.66
2021-08-19 14:24:23.512,0.095,0.66
2021-08-19 14:24:23.516,0.1,0.485
2021-08-19 14:24:23.520,0.275,0.345
2021-08-19 14:24:23.524,0.415,0.38
2021-08-19 14:24:23.528,0.565,0.55
2021-08-19 14:24:23.532,0.59,0.525
2021-08-19 14:24:23.536,0.66,0.28
2021-08-19 14:24:23.540,0.71,0.15
2021-08-19 14:24:23.544,0.64,0.135
2021-08-19 14:24:23.548,0.65,0.13
2021-08-19 14:24:23.552,0.85,0.055
2021-08-19 14:24:23.556,0.95,-0.02
2021-08-19 14:24:23.560,0.68,-0.085
2021-08-19 14:24:23.564,0.375,-0.125
2021-08-19 14:24:23.568,0.15,-0.19
2021-08-19 14:24:23.572,-0.01,-0.135
2021-08-19 14:24:23.576,-0.195,-0.085
2021-08-19 14:24:23.580,-0.34,0.02
2021-08-19 14:24:23.584,-0.37,-0.01
2021-08-19 14:24:23.588,-0.435,0.005
2021-08-19 14:24:23.592,-0.53,0.08
2021-08-19 14:24:23.596,-0.645,0.135
2021-08-19 14:24:23.600,-0.64,0.18
2021-08-19 14:24:23.604,-0.635,0.255
2021-08-19 14:24:23.608,-0.66,0.225
2021-08-19 14:24:23.612,-0.64,0.24
2021-08-19 14:24:23.616,-0.605,0.255
2021-08-19 14:24:23.620,-0.6,0.24
2021-08-19 14:24:23.624,-0.52,0.23
2021-08-19 14:24:23.628,-0.49,0.255
2021-08-19 14:24:23.632,-0.495,0.3
2021-08-19 14:24:23.636,-0.5,0.3
2021-08-19 14:24:23.640,-0.575,0.33
2021-08-19 14:24:23.644,-0.59,0.34
2021-08-19 14:24:23.648,-0.575,0.32
2021-08-19 14:24:23.652,-0.535,0.225
2021-08-19 14:24:23.656,-0.495,0.15
2021-08-19 14:24:23.660,-0.49,0.195
2021-08-19 14:24:23.664,-0.45,0.305
2021-08-19 14:24:23.668,-0.43,0.185
2021-08-19 14:24:23.672,-0.46,0.12
2021-08-19 14:24:23.676,-0.52,0.3
2021-08-19 14:24:23.680,-0.54,0.505
2021-08-19 14:24:23.684,-0.57,0.375
2021-08-19 14:24:23.688,-0.57,0.11
2021-08-19 14:24:23.692,-0.495,0.08
2021-08-19 14:24:23.696,-0.55,0.175
2021-08-19 14:24:23.700,-0.58,0.1
2021-08-19 14:24:23.704,-0.555,0.08
2021-08-19 14:24:23.708,-0.535,0.195
2021-08-19 14:24:23.712,-0.525,0.235
2021-08-19 14:24:23.716,-0.52,0.21
2021-08-19 14:24:23.720,-0.515,0.115
2021-08-19 14:24:23.724,-0.455,0.085
2021-08-19 14:24:23.728,-0.43,0.025
2021-08-19 14:24:23.732,-0.47,-0.02
2021-08-19 14:24:23.736,-0.49,0.035
2021-08-19 14:24:23.740,-0.405,0.085
2021-08-19 14:24:23.744,-0.38,0.105
2021-08-19 14:24:23.748,-0.445,0.085
2021-08-19 14:24:23.752,-0.42,0.07
2021-08-19 14:24:23.756,-0.22,0.09
2021-08-19 14:24:23.760,-0.315,0.095
2021-08-19 14:24:23.764,-0.555,0.13
2021-08-19 14:24:23.768,-0.525,0.185
2021-08-19 14:24:23.772,-0.48,0.28
2021-08-19 14:24:23.776,-0.725,0.35
2021-08-19 14:24:23.780,-0.84,0.395
2021-08-19 14:24:23.784,-0.72,0.325
2021-08-19 14:24:23.788,-0.345,0.08
2021-08-19 14:24:23.792,0.21,-0.035
2021-08-19 14:24:23.796,0.85,-0.165
2021-08-19 14:24:23.800,1.5,-0.455
2021-08-19 14:24:23.804,1.79,-0.755
2021-08-19 14:24:23.808,1.325,-0.96
2021-08-19 14:24:23.812,0.63,-0.845
2021-08-19 14:24:23.816,-0.035,-0.515
2021-08-19 14:24:23.820,-0.505,-0.385
2021-08-19 14:24:23.824,-0.685,-0.195
2021-08-19 14:24:23.828,-0.84,0.015
2021-08-19 14:24:23.832,-0.76,0.09
2021-08-19 14:24:23.836,-0.52,0.13
2021-08-19 14:24:23.840,-0.495,0.14
2021-08-19 14:24:23.844,-0.68,0.3
2021-08-19 14:24:23.848,-0.9,0.415
2021-08-19 14:24:23.852,-0.75,0.225
2021-08-19 14:24:23.856,-0.585,0.085
2021-08-19 14:24:23.860,-0.48,0.095
2021-08-19 14:24:23.864,-0.545,0.165
2021-08-19 14:24:23.868,-0.6,0.19
2021-08-19 14:24:23.872,-0.595,0.215
2021-08-19 14:24:23.876,-0.545,0.32
2021-08-19 14:24:23.880,-0.64,0.545
2021-08-19 14:24:23.884,-0.625,0.74
2021-08-19 14:24:23.888,-0.435,0.68
2021-08-19 14:24:23.892,-0.355,0.42
2021-08-19 14:24:23.896,-0.605,0.125
2021-08-19 14:24:23.900,-0.815,0.0
2021-08-19 14:24:23.904,-0.655,0.095
2021-08-19 14:24:23.908,-0.595,0.295
2021-08-19 14:24:23.912,-0.57,0.36
2021-08-19 14:24:23.916,-0.54,0.19
2021-08-19 14:24:23.920,-0.31,0.05
2021-08-19 14:24:23.924,-0.295,0.08
2021-08-19 14:24:23.928,-0.565,0.245
2021-08-19 14:24:23.932,-0.385,0.395
2021-08-19 14:24:23.936,-0.365,0.45
2021-08-19 14:24:23.940,-0.635,0.43
2021-08-19 14:24:23.944,-0.635,0.315
2021-08-19 14:24:23.948,-0.535,0.285
2021-08-19 14:24:23.952,-0.46,0.205
2021-08-19 14:24:23.956,-0.26,0.075
2021-08-19 14:24:23.960,-0.04,0.09
2021-08-19 14:24:23.964,-0.405,0.19
2021-08-19 14:24:23.968,-0.625,0.05
2021-08-19 14:24:23.972,-0.46,-0.09
2021-08-19 14:24:23.976,-0.22,-0.08
2021-08-19 14:24:23.980,-0.34,0.14
2021-08-19 14:24:23.984,-0.815,0.32
2021-08-19 14:24:23.988,-0.73,0.185
2021-08-19 14:24:23.992,-0.445,0.16
2021-08-19 14:24:23.996,-0.53,0.165
2021-08-19 14:24:24.000,-0.645,0.18
2021-08-19 14:24:24.004,-0.595,0.24
2021-08-19 14:24:24.008,-0.575,0.23
2021-08-19 14:24:24.012,-0.675,0.15
2021-08-19 14:24:24.016,-0.835,0.095
2021-08-19 14:24:24.020,-0.76,0.135
2021-08-19 14:24:24.024,-0.615,0.21
2021-08-19 14:24:24.028,-0.715,0.225
2021-08-19 14:24:24.032,-0.955,0.14
2021-08-19 14:24:24.036,-0.995,0.03
2021-08-19 14:24:24.040,-0.875,0.005
2021-08-19 14:24:24.044,-0.765,0.0
2021-08-19 14:24:24.048,-0.825,0.085
2021-08-19 14:24:24.052,-0.965,0.235
2021-08-19 14:24:24.056,-0.975,0.15
2021-08-19 14:24:24.060,-0.89,0.0
2021-08-19 14:24:24.064,-0.945,-0.02
2021-08-19 14:24:24.068,-0.84,-0.02
2021-08-19 14:24:24.072,-0.73,-0.005
2021-08-19 14:24:24.076,-0.69,-0.035
2021-08-19 14:24:24.080,-0.55,-0.055
2021-08-19 14:24:24.084,-0.625,0.07
2021-08-19 14:24:24.088,-0.795,0.135
2021-08-19 14:24:24.092,-0.565,0.165
2021-08-19 14:24:24.096,-0.575,0.18
2021-08-19 14:24:24.100,-0.425,0.17
2021-08-19 14:24:24.104,-0.69,0.23
2021-08-19 14:24:24.108,-0.815,0.42
2021-08-19 14:24:24.112,-0.58,0.465
2021-08-19 14:24:24.116,-0.735,0.41
2021-08-19 14:24:24.120,-0.84,0.315
2021-08-19 14:24:24.124,-0.52,-0.04
2021-08-19 14:24:24.128,-0.66,-0.315
2021-08-19 14:24:24.132,-0.84,-0.2
2021-08-19 14:24:24.136,-0.725,-0.01
2021-08-19 14:24:24.140,-0.585,0.195
2021-08-19 14:24:24.144,-0.61,0.175
2021-08-19 14:24:24.148,-0.77,-0.06
2021-08-19 14:24:24.152,-0.7,-0.04
2021-08-19 14:24:24.156,-0.75,0.12
2021-08-19 14:24:24.160,-0.96,0.13
2021-08-19 14:24:24.164,-0.965,-0.005
2021-08-19 14:24:24.168,-0.73,-0.16
2021-08-19 14:24:24.172,-0.63,-0.15
2021-08-19 14:24:24.176,-0.7,-0.07
2021-08-19 14:24:24.180,-0.78,-0.01
2021-08-19 14:24:24.184,-0.86,0.095
2021-08-19 14:24:24.188,-0.835,0.11
2021-08-19 14:24:24.192,-0.74,0.03
2021-08-19 14:24:24.196,-0.66,-0.14
2021-08-19 14:24:24.200,-0.58,-0.2
2021-08-19 14:24:24.204,-0.61,-0.16
2021-08-19 14:24:24.208,-0.84,-0.03
2021-08-19 14:24:24.212,-0.98,0.05
2021-08-19 14:24:24.216,-0.86,0.095
2021-08-19 14:24:24.220,-0.665,0.01
2021-08-19 14:24:24.224,-0.58,-0.055
2021-08-19 14:24:24.228,-0.585,-0.055
2021-08-19 14:24:24.232,-0.79,0.02
2021-08-19 14:24:24.236,-0.98,0.03
2021-08-19 14:24:24.240,-0.97,0.055
2021-08-19 14:24:24.244,-0.88,0.145
2021-08-19 14:24:24.248,-1.02,0.24
2021-08-19 14:24:24.252,-1.06,0.135
2021-08-19 14:24:24.256,-1.045,0.06
2021-08-19 14:24:24.260,-1.025,0.27
2021-08-19 14:24:24.264,-0.98,0.385
2021-08-19 14:24:24.268,-0.86,0.055
2021-08-19 14:24:24.272,-0.51,-0.32
2021-08-19 14:24:24.276,0.175,-0.505
2021-08-19 14:24:24.280,0.97,-0.625
2021-08-19 14:24:24.284,1.335,-0.87
2021-08-19 14:24:24.288,0.695,-1.005
2021-08-19 14:24:24.292,-0.17,-0.66
2021-08-19 14:24:24.296,-0.94,-0.28
2021-08-19 14:24:24.300,-1.13,-0.065
2021-08-19 14:24:24.304,-1.07,-0.015
2021-08-19 14:24:24.308,-1.05,-0.12
2021-08-19 14:24:24.312,-0.955,-0.06
2021-08-19 14:24:24.316,-0.865,-0.095
2021-08-19 14:24:24.320,-0.85,-0.185
2021-08-19 14:24:24.324,-0.9,-0.315
2021-08-19 14:24:24.328,-0.83,-0.325
2021-08-19 14:24:24.332,-0.875,-0.245
2021-08-19 14:24:24.336,-0.905,-0.18
2021-08-19 14:24:24.340,-0.905,-0.15
2021-08-19 14:24:24.344,-0.93,-0.055
2021-08-19 14:24:24.348,-1.15,-0.02
2021-08-19 14:24:24.352,-1.055,-0.07
2021-08-19 14:24:24.356,-0.875,-0.135
2021-08-19 14:24:24.360,-0.755,-0.075
2021-08-19 14:24:24.364,-0.92,-0.02
2021-08-19 14:24:24.368,-1.105,-0.015
2021-08-19 14:24:24.372,-1.08,-0.025
2021-08-19 14:24:24.376,-1.0,-0.02
2021-08-19 14:24:24.380,-0.845,-0.005
2021-08-19 14:24:24.384,-0.77,-0.02
2021-08-19 14:24:24.388,-0.78,-0.04
2021-08-19 14:24:24.392,-0.99,-0.03
2021-08-19 14:24:24.396,-1.095,-0.02
2021-08-19 14:24:24.400,-0.94,-0.01
2021-08-19 14:24:24.404,-0.895,0.075
2021-08-19 14:24:24.408,-0.905,0.39
2021-08-19 14:24:24.412,-0.85,0.535
2021-08-19 14:24:24.416,-0.775,0.07
2021-08-19 14:24:24.420,-0.665,-0.45
2021-08-19 14:24:24.424,-0.735,-0.4
2021-08-19 14:24:24.428,-0.96,-0.15
2021-08-19 14:24:24.432,-1.155,0.12
2021-08-19 14:24:24.436,-1.11,0.055
2021-08-19 14:24:24.440,-0.825,-0.12
2021-08-19 14:24:24.444,-0.92,-0.175
2021-08-19 14:24:24.448,-0.92,-0.23
2021-08-19 14:24:24.452,-0.89,-0.2
2021-08-19 14:24:24.456,-1.1,-0.17
2021-08-19 14:24:24.460,-0.96,-0.195
2021-08-19 14:24:24.464,-0.855,-0.18
2021-08-19 14:24:24.468,-0.89,-0.08
2021-08-19 14:24:24.472,-0.935,-0.025
2021-08-19 14:24:24.476,-1.02,0.005
2021-08-19 14:24:24.480,-1.11,-0.02
2021-08-19 14:24:24.484,-1.025,-0.085
2021-08-19 14:24:24.488,-0.915,-0.07
2021-08-19 14:24:24.492,-0.81,0.09
2021-08-19 14:24:24.496,-0.905,0.14
2021-08-19 14:24:24.500,-1.04,-0.085
2021-08-19 14:24:24.504,-0.995,-0.275
2021-08-19 14:24:24.508,-1.02,-0.17
2021-08-19 14:24:24.512,-1.2,-0.045
2021-08-19 14:24:24.516,-1.11,-0.095
2021-08-19 14:24:24.520,-0.64,-0.115
2021-08-19 14:24:24.524,-0.49,0.0
2021-08-19 14:24:24.528,-0.9,0.0
2021-08-19 14:24:24.532,-1.045,-0.05
2021-08-19 14:24:24.536,-0.855,-0.115
2021-08-19 14:24:24.540,-0.745,-0.18
2021-08-19 14:24:24.544,-0.54,-0.085
2021-08-19 14:24:24.548,-0.665,0.1
2021-08-19 14:24:24.552,-0.915,0.0
2021-08-19 14:24:24.556,-0.905,-0.155
2021-08-19 14:24:24.560,-0.87,-0.23
2021-08-19 14:24:24.564,-0.805,-0.18
2021-08-19 14:24:24.568,-0.785,-0.115
2021-08-19 14:24:24.572,-0.755,-0.115
2021-08-19 14:24:24.576,-0.685,-0.135
2021-08-19 14:24:24.580,-0.64,-0.085
2021-08-19 14:24:24.584,-0.745,-0.075
2021-08-19 14:24:24.588,-0.685,-0.075
2021-08-19 14:24:24.592,-0.755,-0.045
2021-08-19 14:24:24.596,-0.775,-0.1
2021-08-19 14:24:24.600,-0.76,-0.1
2021-08-19 14:24:24.604,-0.86,-0.055
2021-08-19 14:24:24.608,-0.625,-0.09
2021-08-19 14:24:24.612,-0.54,-0.11
2021-08-19 14:24:24.616,-0.7,-0.055
2021-08-19 14:24:24.620,-0.86,-0.06
2021-08-19 14:24:24.624,-0.76,-0.065
2021-08-19 14:24:24.628,-0.72,-0.065
2021-08-19 14:24:24.632,-0.695,-0.115
2021-08-19 14:24:24.636,-0.805,-0.11
2021-08-19 14:24:24.640,-0.96,-0.05
2021-08-19 14:24:24.644,-0.8,0.02
2021-08-19 14:24:24.648,-0.695,0.04
2021-08-19 14:24:24.652,-0.795,0.0
2021-08-19 14:24:24.656,-0.835,-0.085
2021-08-19 14:24:24.660,-0.605,-0.165
2021-08-19 14:24:24.664,-0.34,-0.045
2021-08-19 14:24:24.668,-0.42,0.32
2021-08-19 14:24:24.672,-0.895,0.39
2021-08-19 14:24:24.676,-1.005,0.145
2021-08-19 14:24:24.680,-0.625,-0.075
2021-08-19 14:24:24.684,-0.45,-0.18
2021-08-19 14:24:24.688,-0.715,-0.3
2021-08-19 14:24:24.692,-0.915,-0.305
2021-08-19 14:24:24.696,-0.93,-0.13
2021-08-19 14:24:24.700,-0.81,-0.035
2021-08-19 14:24:24.704,-0.9,-0.015
2021-08-19 14:24:24.708,-1.01,-0.135
2021-08-19 14:24:24.712,-0.92,-0.275
2021-08-19 14:24:24.716,-0.84,-0.3
2021-08-19 14:24:24.720,-0.63,-0.325
2021-08-19 14:24:24.724,-0.575,-0.25
2021-08-19 14:24:24.728,-0.92,-0.225
2021-08-19 14:24:24.732,-1.045,-0.065
2021-08-19 14:24:24.736,-1.14,0.005
2021-08-19 14:24:24.740,-1.06,0.015
2021-08-19 14:24:24.744,-0.74,0.005
2021-08-19 14:24:24.748,-0.72,0.17
2021-08-19 14:24:24.752,-0.885,0.205
2021-08-19 14:24:24.756,-0.92,0.06
2021-08-19 14:24:24.760,-0.885,0.0
2021-08-19 14:24:24.764,-0.89,0.06
2021-08-19 14:24:24.768,-0.63,0.125
2021-08-19 14:24:24.772,-0.515,0.05
2021-08-19 14:24:24.776,-0.73,-0.105
2021-08-19 14:24:24.780,-0.93,-0.18
2021-08-19 14:24:24.784,-0.765,-0.135
2021-08-19 14:24:24.788,-0.265,-0.13
2021-08-19 14:24:24.792,0.625,-0.28
2021-08-19 14:24:24.796,1.46,-0.52
2021-08-19 14:24:24.800,1.96,-0.735
2021-08-19 14:24:24.804,1.735,-0.94
2021-08-19 14:24:24.808,0.6,-0.955
2021-08-19 14:24:24.812,-0.39,-0.76
2021-08-19 14:24:24.816,-1.14,-0.52
2021-08-19 14:24:24.820,-1.32,-0.385
2021-08-19 14:24:24.824,-1.12,-0.265
2021-08-19 14:24:24.828,-0.925,-0.33
2021-08-19 14:24:24.832,-0.85,-0.32
2021-08-19 14:24:24.836,-0.855,-0.26
2021-08-19 14:24:24.840,-0.775,-0.09
2021-08-19 14:24:24.844,-0.895,0.05
2021-08-19 14:24:24.848,-0.935,-0.015
2021-08-19 14:24:24.852,-0.79,-0.04
2021-08-19 14:24:24.856,-0.77,0.09
2021-08-19 14:24:24.860,-0.8,0.17
2021-08-19 14:24:24.864,-0.8,0.07
2021-08-19 14:24:24.868,-0.805,-0.14
2021-08-19 14:24:24.872,-0.665,-0.17
2021-08-19 14:24:24.876,-0.745,-0.125
2021-08-19 14:24:24.880,-0.935,-0.18
2021-08-19 14:24:24.884,-0.875,-0.26
2021-08-19 14:24:24.888,-0.73,-0.25
2021-08-19 14:24:24.892,-0.67,-0.245
2021-08-19 14:24:24.896,-0.635,-0.125
2021-08-19 14:24:24.900,-0.41,-0.09
2021-08-19 14:24:24.904,-0.525,0.015
2021-08-19 14:24:24.908,-0.89,0.235
2021-08-19 14:24:24.912,-0.79,0.24
2021-08-19 14:24:24.916,-0.56,-0.065
2021-08-19 14:24:24.920,-0.445,-0.145
2021-08-19 14:24:24.924,-0.605,0.01
2021-08-19 14:24:24.928,-0.865,0.015
2021-08-19 14:24:24.932,-0.885,-0.16
2021-08-19 14:24:24.936,-0.725,-0.435
2021-08-19 14:24:24.940,-0.72,-0.49
2021-08-19 14:24:24.944,-0.98,-0.275
2021-08-19 14:24:24.948,-1.015,-0.145
2021-08-19 14:24:24.952,-0.71,-0.16
2021-08-19 14:24:24.956,-0.595,-0.2
2021-08-19 14:24:24.960,-0.53,-0.205
2021-08-19 14:24:24.964,-0.345,-0.155
2021-08-19 14:24:24.968,-0.4,-0.075
2021-08-19 14:24:24.972,-0.705,0.0
2021-08-19 14:24:24.976,-0.735,0.02
2021-08-19 14:24:24.980,-0.585,-0.045
2021-08-19 14:24:24.984,-0.58,0.01
2021-08-19 14:24:24.988,-0.74,0.09
2021-08-19 14:24:24.992,-0.74,0.035
2021-08-19 14:24:24.996,-0.64,-0.02
2021-08-19 14:24:25.000,-0.49,-0.015
2021-08-19 14:24:25.004,-0.32,-0.02
2021-08-19 14:24:25.008,-0.275,-0.055
2021-08-19 14:24:25.012,-0.34,0.01
2021-08-19 14:24:25.016,-0.46,0.1
2021-08-19 14:24:25.020,-0.425,0.21
2021-08-19 14:24:25.024,-0.35,0.335
2021-08-19 14:24:25.028,-0.32,0.16
2021-08-19 14:24:25.032,-0.185,-0.265
2021-08-19 14:24:25.036,-0.26,-0.37
2021-08-19 14:24:25.040,-0.5,-0.09
2021-08-19 14:24:25.044,-0.6,0.055
2021-08-19 14:24:25.048,-0.375,-0.06
2021-08-19 14:24:25.052,-0.12,-0.205
2021-08-19 14:24:25.056,0.02,-0.225
2021-08-19 14:24:25.060,0.01,-0.125
2021-08-19 14:24:25.064,-0.155,0.03
2021-08-19 14:24:25.068,-0.155,0.045
2021-08-19 14:24:25.072,0.145,0.05
2021-08-19 14:24:25.076,0.075,0.19
2021-08-19 14:24:25.080,-0.095,0.22
2021-08-19 14:24:25.084,0.055,0.15
2021-08-19 14:24:25.088,0.175,-0.07
2021-08-19 14:24:25.092,0.015,-0.17
2021-08-19 14:24:25.096,0.02,-0.13
2021-08-19 14:24:25.100,0.35,-0.01
2021-08-19 14:24:25.104,0.43,0.06
2021-08-19 14:24:25.108,-0.075,-0.01
2021-08-19 14:24:25.112,-0.52,-0.23
2021-08-19 14:24:25.116,-0.2,-0.42
2021-08-19 14:24:25.120,0.105,-0.285
2021-08-19 14:24:25.124,-0.13,0.0
2021-08-19 14:24:25.128,-0.555,0.09
2021-08-19 14:24:25.132,-0.46,0.045
2021-08-19 14:24:25.136,-0.14,-0.045
2021-08-19 14:24:25.140,-0.155,-0.16
2021-08-19 14:24:25.144,-0.135,-0.145
2021-08-19 14:24:25.148,-0.14,-0.02
2021-08-19 14:24:25.152,-0.185,0.015
2021-08-19 14:24:25.156,-0.105,-0.025
2021-08-19 14:24:25.160,-0.215,-0.075
2021-08-19 14:24:25.164,-0.32,-0.075
2021-08-19 14:24:25.168,-0.205,-0.065
2021-08-19 14:24:25.172,-0.15,-0.035
2021-08-19 14:24:25.176,-0.105,0.045
2021-08-19 14:24:25.180,-0.2,0.15
2021-08-19 14:24:25.184,-0.37,0.1
2021-08-19 14:24:25.188,-0.305,0.01
2021-08-19 14:24:25.192,-0.115,-0.1
2021-08-19 14:24:25.196,0.035,-0.23
2021-08-19 14:24:25.200,-0.14,-0.16
2021-08-19 14:24:25.204,-0.285,-0.07
2021-08-19 14:24:25.208,-0.225,-0.005
2021-08-19 14:24:25.212,-0.05,0.01
2021-08-19 14:24:25.216,0.115,-0.01
2021-08-19 14:24:25.220,-0.15,0.075
2021-08-19 14:24:25.224,-0.41,0.11
2021-08-19 14:24:25.228,-0.22,0.17
2021-08-19 14:24:25.232,-0.26,0.165
2021-08-19 14:24:25.236,-0.225,0.015
2021-08-19 14:24:25.240,0.15,-0.17
2021-08-19 14:24:25.244,0.315,-0.22
2021-08-19 14:24:25.248,-0.095,-0.04
2021-08-19 14:24:25.252,-0.39,0.155
2021-08-19 14:24:25.256,-0.335,0.2
2021-08-19 14:24:25.260,-0.2,0.15
2021-08-19 14:24:25.264,-0.105,-0.06
2021-08-19 14:24:25.268,0.035,-0.27
2021-08-19 14:24:25.272,0.13,-0.3
2021-08-19 14:24:25.276,-0.055,-0.25
2021-08-19 14:24:25.280,-0.285,-0.185
2021-08-19 14:24:25.284,-0.13,-0.13
2021-08-19 14:24:25.288,-0.14,-0.045
2021-08-19 14:24:25.292,-0.42,-0.025
2021-08-19 14:24:25.296,-0.29,-0.05
2021-08-19 14:24:25.300,0.015,-0.13
2021-08-19 14:24:25.304,0.185,-0.085
2021-08-19 14:24:25.308,-0.065,-0.075
2021-08-19 14:24:25.312,-0.145,-0.06
2021-08-19 14:24:25.316,-0.225,-0.015
2021-08-19 14:24:25.320,-0.325,0.015
2021-08-19 14:24:25.324,-0.3,0.105
2021-08-19 14:24:25.328,-0.42,0.1
2021-08-19 14:24:25.332,-0.33,0.005
2021-08-19 14:24:25.336,-0.135,-0.09
2021-08-19 14:24:25.340,0.02,-0.025
2021-08-19 14:24:25.344,0.0,0.06
2021-08-19 14:24:25.348,-0.02,0.035
2021-08-19 14:24:25.352,-0.105,-0.085
2021-08-19 14:24:25.356,-0.27,-0.11
2021-08-19 14:24:25.360,-0.04,0.11
2021-08-19 14:24:25.364,-0.13,0.31
2021-08-19 14:24:25.368,-0.07,0.2
2021-08-19 14:24:25.372,0.105,-0.05
2021-08-19 14:24:25.376,-0.05,-0.15
2021-08-19 14:24:25.380,-0.205,-0.17
2021-08-19 14:24:25.384,-0.005,-0.23
2021-08-19 14:24:25.388,-0.045,-0.18
2021-08-19 14:24:25.392,-0.16,-0.18
2021-08-19 14:24:25.396,-0.045,-0.155
2021-08-19 14:24:25.400,-0.265,-0.105
2021-08-19 14:24:25.404,-0.355,-0.12
2021-08-19 14:24:25.408,-0.34,-0.095
2021-08-19 14:24:25.412,-0.4,-0.005
2021-08-19 14:24:25.416,-0.235,0.05
2021-08-19 14:24:25.420,-0.1,0.0
2021-08-19 14:24:25.424,-0.085,-0.005
2021-08-19 14:24:25.428,-0.145,0.015
2021-08-19 14:24:25.432,-0.075,0.02
2021-08-19 14:24:25.436,-0.115,0.005
2021-08-19 14:24:25.440,-0.095,0.0
2021-08-19 14:24:25.444,-0.085,0.06
2021-08-19 14:24:25.448,-0.11,0.075
2021-08-19 14:24:25.452,-0.195,0.07
2021-08-19 14:24:25.456,-0.175,0.12
2021-08-19 14:24:25.460,-0.155,0.12
2021-08-19 14:24:25.464,-0.195,0.085
2021-08-19 14:24:25.468,-0.05,0.15
2021-08-19 14:24:25.472,0.13,0.375
2021-08-19 14:24:25.476,0.03,0.635
2021-08-19 14:24:25.480,-0.19,0.67
2021-08-19 14:24:25.484,-0.09,0.26
2021-08-19 14:24:25.488,0.155,-0.33
2021-08-19 14:24:25.492,0.315,-0.585
2021-08-19 14:24:25.496,0.195,-0.35
2021-08-19 14:24:25.500,0.14,-0.18
2021-08-19 14:24:25.504,0.18,-0.115
2021-08-19 14:24:25.508,0.035,0.05
2021-08-19 14:24:25.512,-0.27,0.205
2021-08-19 14:24:25.516,-0.175,0.155
2021-08-19 14:24:25.520,0.235,-0.03
2021-08-19 14:24:25.524,0.625,-0.145
2021-08-19 14:24:25.528,1.38,-0.15
2021-08-19 14:24:25.544,1.655,-0.75
2021-08-19 14:24:25.548,0.665,-0.68
2021-08-19 14:24:25.552,-0.15,-0.595
2021-08-19 14:24:25.556,-0.27,-0.625
2021-08-19 14:24:25.560,-0.005,-0.445
2021-08-19 14:24:25.564,0.08,-0.36
2021-08-19 14:24:25.568,-0.08,-0.195
2021-08-19 14:24:25.572,-0.045,-0.16
2021-08-19 14:24:25.576,0.08,-0.165
2021-08-19 14:24:25.580,0.15,-0.1
2021-08-19 14:24:25.584,0.11,0.03
2021-08-19 14:24:25.588,-0.035,0.21
2021-08-19 14:24:25.592,-0.185,0.36
2021-08-19 14:24:25.596,-0.065,0.225
2021-08-19 14:24:25.600,0.34,-0.045
2021-08-19 14:24:25.604,0.31,0.015
2021-08-19 14:24:25.608,-0.08,0.06
2021-08-19 14:24:25.612,-0.16,-0.095
2021-08-19 14:24:25.616,-0.195,-0.18
2021-08-19 14:24:25.620,-0.08,-0.04
2021-08-19 14:24:25.624,-0.205,0.07
2021-08-19 14:24:25.628,-0.305,0.035
2021-08-19 14:24:25.632,-0.25,0.045
2021-08-19 14:24:25.636,-0.19,0.055
2021-08-19 14:24:25.640,-0.09,0.06
2021-08-19 14:24:25.644,-0.015,0.145
2021-08-19 14:24:25.648,0.01,0.18
2021-08-19 14:24:25.652,-0.135,0.12
2021-08-19 14:24:25.656,-0.235,0.03
2021-08-19 14:24:25.660,-0.275,-0.06
2021-08-19 14:24:25.664,-0.205,-0.105
2021-08-19 14:24:25.668,-0.15,-0.12
2021-08-19 14:24:25.672,-0.125,-0.095
2021-08-19 14:24:25.676,-0.145,0.025
2021-08-19 14:24:25.680,-0.29,0.155
2021-08-19 14:24:25.684,-0.29,0.285
2021-08-19 14:24:25.688,-0.215,0.26
2021-08-19 14:24:25.692,-0.14,0.185
2021-08-19 14:24:25.696,-0.165,0.135
2021-08-19 14:24:25.700,-0.01,0.02
2021-08-19 14:24:25.704,0.23,-0.09
2021-08-19 14:24:25.708,0.175,0.035
2021-08-19 14:24:25.712,-0.165,0.18
2021-08-19 14:24:25.716,-0.24,0.13
2021-08-19 14:24:25.720,-0.155,0.075
2021-08-19 14:24:25.724,-0.03,0.085
2021-08-19 14:24:25.728,-0.055,0.11
2021-08-19 14:24:25.732,-0.095,0.11
2021-08-19 14:24:25.736,-0.085,0.045
2021-08-19 14:24:25.740,-0.025,-0.05
2021-08-19 14:24:25.744,-0.06,-0.135
2021-08-19 14:24:25.748,0.035,-0.095
2021-08-19 14:24:25.752,0.115,-0.04
2021-08-19 14:24:25.756,0.15,-0.075
2021-08-19 14:24:25.760,0.195,-0.12
2021-08-19 14:24:25.764,0.25,-0.08
2021-08-19 14:24:25.768,-0.005,0.0
2021-08-19 14:24:25.772,-0.17,0.03
2021-08-19 14:24:25.776,-0.155,0.025
2021-08-19 14:24:25.780,-0.085,0.035
2021-08-19 14:24:25.784,-0.135,0.045
2021-08-19 14:24:25.788,-0.02,0.035
2021-08-19 14:24:25.792,0.025,0.045
2021-08-19 14:24:25.796,0.01,0.065
2021-08-19 14:24:25.800,0.04,0.03
2021-08-19 14:24:25.804,0.105,0.03
2021-08-19 14:24:25.808,0.11,0.05
2021-08-19 14:24:25.812,0.12,0.125
2021-08-19 14:24:25.816,0.29,0.125
2021-08-19 14:24:25.820,0.47,0.01
2021-08-19 14:24:25.824,0.54,-0.06
2021-08-19 14:24:25.828,0.265,0.0
2021-08-19 14:24:25.832,0.145,0.105
2021-08-19 14:24:25.836,0.29,0.13
2021-08-19 14:24:25.840,0.38,0.075
2021-08-19 14:24:25.844,0.52,0.03
2021-08-19 14:24:25.848,0.51,0.03
2021-08-19 14:24:25.852,0.31,0.135
2021-08-19 14:24:25.856,0.045,0.195
2021-08-19 14:24:25.860,0.025,0.16
2021-08-19 14:24:25.864,0.21,0.08
2021-08-19 14:24:25.868,0.45,-0.01
2021-08-19 14:24:25.872,0.23,0.0
2021-08-19 14:24:25.876,0.06,-0.015
2021-08-19 14:24:25.880,0.095,-0.01
2021-08-19 14:24:25.884,-0.12,-0.01
2021-08-19 14:24:25.888,-0.28,0.025
2021-08-19 14:24:25.892,-0.16,0.04
2021-08-19 14:24:25.896,0.045,0.0
2021-08-19 14:24:25.900,0.25,-0.025
2021-08-19 14:24:25.904,0.07,0.005
2021-08-19 14:24:25.908,-0.185,0.16
2021-08-19 14:24:25.912,-0.545,0.32
2021-08-19 14:24:25.916,-0.64,0.315
2021-08-19 14:24:25.920,-0.235,0.145
2021-08-19 14:24:25.924,0.6,0.025
2021-08-19 14:24:25.928,1.375,-0.215
2021-08-19 14:24:25.940,1.63,-0.58
2021-08-19 14:24:25.944,0.445,-0.315
2021-08-19 14:24:25.948,-0.57,0.095
2021-08-19 14:24:25.952,-0.945,0.375
2021-08-19 14:24:25.956,-0.795,0.65
2021-08-19 14:24:25.960,-0.23,0.63
2021-08-19 14:24:25.964,0.015,0.495
2021-08-19 14:24:25.968,0.005,0.305
2021-08-19 14:24:25.972,-0.02,0.155
2021-08-19 14:24:25.976,-0.145,0.02
2021-08-19 14:24:25.980,-0.12,0.085
2021-08-19 14:24:25.984,-0.045,0.205
2021-08-19 14:24:25.988,0.07,0.34
2021-08-19 14:24:25.992,0.09,0.32
2021-08-19 14:24:25.996,-0.015,0.065
2021-08-19 14:24:26.000,0.165,-0.16
2021-08-19 14:24:26.004,0.015,-0.125
2021-08-19 14:24:26.008,-0.25,0.105
2021-08-19 14:24:26.012,-0.305,0.27
2021-08-19 14:24:26.016,-0.305,0.245
2021-08-19 14:24:26.020,-0.39,0.15
2021-08-19 14:24:26.024,-0.21,0.075
2021-08-19 14:24:26.028,0.02,0.075
2021-08-19 14:24:26.032,-0.145,0.195
2021-08-19 14:24:26.036,-0.44,0.29
2021-08-19 14:24:26.040,-0.265,0.19
2021-08-19 14:24:26.044,0.075,-0.06
2021-08-19 14:24:26.048,0.17,-0.145
2021-08-19 14:24:26.052,-0.105,-0.04
2021-08-19 14:24:26.056,-0.2,0.005
2021-08-19 14:24:26.060,-0.07,0.115
2021-08-19 14:24:26.064,-0.3,0.19
2021-08-19 14:24:26.068,-0.43,0.005
2021-08-19 14:24:26.072,-0.185,-0.225
2021-08-19 14:24:26.076,-0.145,-0.295
2021-08-19 14:24:26.080,-0.085,-0.23
2021-08-19 14:24:26.084,0.03,-0.14
2021-08-19 14:24:26.088,-0.03,-0.08
2021-08-19 14:24:26.092,-0.1,-0.075
2021-08-19 14:24:26.096,-0.14,-0.045
2021-08-19 14:24:26.100,-0.295,0.03
2021-08-19 14:24:26.104,-0.27,0.055
2021-08-19 14:24:26.108,-0.09,0.005
2021-08-19 14:24:26.112,-0.04,-0.035
2021-08-19 14:24:26.116,0.09,-0.08
2021-08-19 14:24:26.120,0.1,-0.035
2021-08-19 14:24:26.124,-0.12,0.075
2021-08-19 14:24:26.128,-0.135,0.07
2021-08-19 14:24:26.132,0.035,0.045
2021-08-19 14:24:26.136,0.055,-0.1
2021-08-19 14:24:26.140,0.025,-0.23
2021-08-19 14:24:26.144,0.145,-0.22
2021-08-19 14:24:26.148,0.15,-0.15
2021-08-19 14:24:26.152,0.01,-0.055
2021-08-19 14:24:26.156,-0.25,0.08
2021-08-19 14:24:26.160,-0.325,0.1
2021-08-19 14:24:26.164,-0.13,-0.045
2021-08-19 14:24:26.168,0.245,-0.125
2021-08-19 14:24:26.172,0.51,-0.075
2021-08-19 14:24:26.176,0.405,-0.09
2021-08-19 14:24:26.180,0.355,-0.1
2021-08-19 14:24:26.184,0.465,-0.115
2021-08-19 14:24:26.188,0.375,-0.03
2021-08-19 14:24:26.192,0.205,0.02
2021-08-19 14:24:26.196,0.395,-0.04
2021-08-19 14:24:26.200,0.555,-0.18
2021-08-19 14:24:26.204,0.4,-0.21
2021-08-19 14:24:26.208,0.22,-0.165
2021-08-19 14:24:26.212,0.275,-0.09
2021-08-19 14:24:26.216,-0.045,-0.03
2021-08-19 14:24:26.220,-0.065,-0.075
2021-08-19 14:24:26.224,0.07,-0.03
2021-08-19 14:24:26.228,-0.12,0.09
2021-08-19 14:24:26.232,-0.25,0.165
2021-08-19 14:24:26.236,0.03,0.06
2021-08-19 14:24:26.240,0.07,0.055
2021-08-19 14:24:26.244,-0.115,0.08
2021-08-19 14:24:26.248,-0.185,0.09
2021-08-19 14:24:26.252,-0.17,0.115
2021-08-19 14:24:26.256,-0.12,0.115
2021-08-19 14:24:26.260,-0.165,0.115
2021-08-19 14:24:26.264,-0.25,0.045
2021-08-19 14:24:26.268,-0.16,-0.02
2021-08-19 14:24:26.272,-0.015,-0.02
2021-08-19 14:24:26.276,0.045,0.005
2021-08-19 14:24:26.280,-0.01,0.05
2021-08-19 14:24:26.284,-0.025,0.1
2021-08-19 14:24:26.288,-0.01,0.125
2021-08-19 14:24:26.292,0.01,0.095
2021-08-19 14:24:26.296,0.085,0.025
2021-08-19 14:24:26.300,0.105,0.065
2021-08-19 14:24:26.304,-0.03,0.18
2021-08-19 14:24:26.308,-0.145,0.245
2021-08-19 14:24:26.312,-0.065,0.26
2021-08-19 14:24:26.316,0.125,0.215
2021-08-19 14:24:26.320,0.48,0.085
2021-08-19 14:24:26.324,1.045,-0.125
2021-08-19 14:24:26.328,1.635,-0.445
2021-08-19 14:24:26.332,1.92,-0.735
2021-08-19 14:24:26.336,1.415,-0.91
2021-08-19 14:24:26.340,0.545,-0.645
2021-08-19 14:24:26.344,-0.19,-0.205
2021-08-19 14:24:26.348,-0.57,-0.045
2021-08-19 14:24:26.352,-0.315,0.12
2021-08-19 14:24:26.356,-0.09,0.14
2021-08-19 14:24:26.360,0.01,0.065
2021-08-19 14:24:26.364,0.165,-0.005
2021-08-19 14:24:26.368,0.29,-0.085
2021-08-19 14:24:26.372,0.315,-0.12
2021-08-19 14:24:26.376,0.31,-0.05
2021-08-19 14:24:26.380,0.21,0.055
2021-08-19 14:24:26.384,-0.02,0.15
2021-08-19 14:24:26.388,-0.13,0.145
2021-08-19 14:24:26.392,-0.15,0.13
2021-08-19 14:24:26.396,-0.11,0.14
2021-08-19 14:24:26.400,0.06,0.1
2021-08-19 14:24:26.404,0.215,0.075
2021-08-19 14:24:26.408,0.005,0.125
2021-08-19 14:24:26.412,-0.17,0.145
2021-08-19 14:24:26.416,-0.115,0.15
2021-08-19 14:24:26.420,-0.05,0.145
2021-08-19 14:24:26.424,-0.08,0.165
2021-08-19 14:24:26.428,0.04,0.165
2021-08-19 14:24:26.432,0.12,0.175
2021-08-19 14:24:26.436,0.03,0.225
2021-08-19 14:24:26.440,0.005,0.165
2021-08-19 14:24:26.444,0.285,0.135
2021-08-19 14:24:26.448,0.42,0.185
2021-08-19 14:24:26.452,0.02,0.21
2021-08-19 14:24:26.456,-0.025,0.21
2021-08-19 14:24:26.460,0.005,0.225
2021-08-19 14:24:26.464,-0.02,0.2
2021-08-19 14:24:26.468,-0.075,0.225
2021-08-19 14:24:26.472,-0.085,0.25
2021-08-19 14:24:26.476,-0.005,0.265
2021-08-19 14:24:26.480,0.06,0.39
2021-08-19 14:24:26.484,-0.005,0.465
2021-08-19 14:24:26.488,-0.155,0.3
2021-08-19 14:24:26.492,-0.06,0.01
2021-08-19 14:24:26.496,-0.035,-0.11
2021-08-19 14:24:26.500,-0.095,-0.03
2021-08-19 14:24:26.504,0.08,0.045
2021-08-19 14:24:26.508,0.29,0.08
2021-08-19 14:24:26.512,-0.085,0.105
2021-08-19 14:24:26.516,-0.47,0.19
2021-08-19 14:24:26.520,-0.36,0.39
2021-08-19 14:24:26.524,-0.215,0.38
2021-08-19 14:24:26.528,-0.19,0.2
2021-08-19 14:24:26.532,-0.135,0.065
2021-08-19 14:24:26.536,-0.035,0.06
2021-08-19 14:24:26.540,-0.03,0.2
2021-08-19 14:24:26.544,-0.03,0.29
2021-08-19 14:24:26.548,0.035,0.33
2021-08-19 14:24:26.552,-0.02,0.25
2021-08-19 14:24:26.556,-0.06,0.135
2021-08-19 14:24:26.560,0.09,0.175
2021-08-19 14:24:26.564,0.235,0.175
2021-08-19 14:24:26.568,0.275,0.15
2021-08-19 14:24:26.572,0.155,0.24
2021-08-19 14:24:26.576,-0.03,0.285
2021-08-19 14:24:26.580,0.01,0.1
2021-08-19 14:24:26.584,0.345,-0.06
2021-08-19 14:24:26.588,0.58,-0.08
2021-08-19 14:24:26.592,0.385,-0.02
2021-08-19 14:24:26.596,0.215,0.025
2021-08-19 14:24:26.600,0.185,0.08
2021-08-19 14:24:26.604,0.125,0.095
2021-08-19 14:24:26.608,0.245,0.085
2021-08-19 14:24:26.612,0.28,0.115
2021-08-19 14:24:26.616,0.15,0.16
2021-08-19 14:24:26.620,0.195,0.155
2021-08-19 14:24:26.624,0.41,0.15
2021-08-19 14:24:26.628,0.365,0.11
2021-08-19 14:24:26.632,0.2,0.11
2021-08-19 14:24:26.636,0.105,0.1
2021-08-19 14:24:26.640,0.06,0.15
2021-08-19 14:24:26.644,-0.06,0.175
2021-08-19 14:24:26.648,-0.035,0.175
2021-08-19 14:24:26.652,0.015,0.235
2021-08-19 14:24:26.656,0.08,0.37
2021-08-19 14:24:26.660,0.045,0.425
2021-08-19 14:24:26.664,-0.075,0.34
2021-08-19 14:24:26.668,0.03,0.13
2021-08-19 14:24:26.672,0.11,0.055
2021-08-19 14:24:26.676,0.03,0.035
2021-08-19 14:24:26.680,-0.005,0.165
2021-08-19 14:24:26.684,0.0,0.24
2021-08-19 14:24:26.688,-0.03,0.15
2021-08-19 14:24:26.692,0.085,-0.005
2021-08-19 14:24:26.696,0.28,-0.12
2021-08-19 14:24:26.700,0.46,-0.02
2021-08-19 14:24:26.704,0.245,0.23
2021-08-19 14:24:26.708,-0.12,0.335
2021-08-19 14:24:26.712,-0.04,0.075
2021-08-19 14:24:26.716,0.155,-0.12
2021-08-19 14:24:26.720,0.105,-0.12
2021-08-19 14:24:26.724,-0.08,-0.005
2021-08-19 14:24:26.728,-0.155,0.205
2021-08-19 14:24:26.732,-0.255,0.395
2021-08-19 14:24:26.736,-0.115,0.275
2021-08-19 14:24:26.740,0.06,0.015
2021-08-19 14:24:26.744,0.065,-0.12
2021-08-19 14:24:26.748,-0.07,-0.05
2021-08-19 14:24:26.752,-0.055,-0.04
2021-08-19 14:24:26.756,-0.03,-0.07
2021-08-19 14:24:26.760,-0.16,-0.04
2021-08-19 14:24:26.764,-0.27,0.005
2021-08-19 14:24:26.768,-0.095,0.0
2021-08-19 14:24:26.772,0.155,0.0
2021-08-19 14:24:26.776,0.04,0.045
2021-08-19 14:24:26.780,-0.33,0.085
2021-08-19 14:24:26.784,-0.33,0.015
2021-08-19 14:24:26.788,-0.135,0.055
2021-08-19 14:24:26.792,-0.335,0.09
2021-08-19 14:24:26.796,-0.375,0.09
2021-08-19 14:24:26.800,-0.26,0.055
2021-08-19 14:24:26.804,-0.175,0.07
2021-08-19 14:24:26.808,-0.215,0.07
2021-08-19 14:24:26.812,-0.22,0.075
2021-08-19 14:24:26.816,-0.215,0.08
2021-08-19 14:24:26.820,-0.335,0.095
2021-08-19 14:24:26.824,-0.36,0.095
2021-08-19 14:24:26.828,-0.25,0.105
2021-08-19 14:24:26.832,-0.205,0.13
2021-08-19 14:24:26.836,-0.255,0.19
2021-08-19 14:24:26.840,-0.275,0.23
2021-08-19 14:24:26.844,-0.21,0.21
2021-08-19 14:24:26.848,-0.095,0.185
2021-08-19 14:24:26.852,-0.275,0.215
2021-08-19 14:24:26.856,-0.28,0.26
2021-08-19 14:24:26.860,-0.125,0.28
2021-08-19 14:24:26.864,-0.275,0.075
2021-08-19 14:24:26.868,-0.44,-0.16
2021-08-19 14:24:26.872,-0.39,-0.22
2021-08-19 14:24:26.876,-0.31,-0.105
2021-08-19 14:24:26.880,-0.18,-0.105
2021-08-19 14:24:26.884,-0.04,-0.115
2021-08-19 14:24:26.888,-0.145,-0.11
2021-08-19 14:24:26.892,-0.27,-0.08
2021-08-19 14:24:26.896,-0.36,-0.025
2021-08-19 14:24:26.900,-0.45,-0.005
2021-08-19 14:24:26.904,-0.375,-0.005
2021-08-19 14:24:26.908,-0.205,-0.01
2021-08-19 14:24:26.912,-0.185,-0.005
2021-08-19 14:24:26.916,-0.18,0.01
2021-08-19 14:24:26.920,-0.27,0.04
2021-08-19 14:24:26.924,-0.39,0.035
2021-08-19 14:24:26.928,-0.215,0.07
2021-08-19 14:24:26.932,-0.11,0.065
2021-08-19 14:24:26.936,-0.245,0.05
2021-08-19 14:24:26.940,-0.375,0.01
2021-08-19 14:24:26.944,-0.425,0.0
2021-08-19 14:24:26.948,-0.46,0.025
2021-08-19 14:24:26.952,-0.435,0.05
2021-08-19 14:24:26.956,-0.3,0.055
2021-08-19 14:24:26.960,-0.245,0.04
2021-08-19 14:24:26.964,-0.355,0.09
2021-08-19 14:24:26.968,-0.4,0.2
2021-08-19 14:24:26.972,-0.34,0.18
2021-08-19 14:24:26.976,-0.36,0.035
2021-08-19 14:24:26.980,-0.4,-0.06
2021-08-19 14:24:26.984,-0.375,-0.045
2021-08-19 14:24:26.988,-0.265,0.025
2021-08-19 14:24:26.992,-0.285,0.0
2021-08-19 14:24:26.996,-0.235,0.0
2021-08-19 14:24:27.000,-0.25,0.03
2021-08-19 14:24:27.004,-0.295,0.12
2021-08-19 14:24:27.008,-0.31,0.16
2021-08-19 14:24:27.012,-0.275,0.18
2021-08-19 14:24:27.016,-0.25,0.105
2021-08-19 14:24:27.020,-0.385,0.07
2021-08-19 14:24:27.024,-0.4,0.09
2021-08-19 14:24:27.028,-0.385,0.055
2021-08-19 14:24:27.032,-0.4,0.015
2021-08-19 14:24:27.036,-0.405,-0.02
2021-08-19 14:24:27.040,-0.355,0.0
2021-08-19 14:24:27.044,-0.4,0.02
2021-08-19 14:24:27.048,-0.36,0.07
2021-08-19 14:24:27.052,-0.185,0.075
2021-08-19 14:24:27.056,-0.06,0.04
2021-08-19 14:24:27.060,-0.23,0.03
2021-08-19 14:24:27.064,-0.49,0.095
2021-08-19 14:24:27.068,-0.415,0.12
2021-08-19 14:24:27.072,-0.18,-0.035
2021-08-19 14:24:27.076,-0.09,-0.14
2021-08-19 14:24:27.080,-0.235,-0.1
2021-08-19 14:24:27.084,-0.255,0.04
2021-08-19 14:24:27.088,-0.53,0.105
2021-08-19 14:24:27.092,-0.575,0.115
2021-08-19 14:24:27.096,-0.33,0.065
2021-08-19 14:24:27.100,-0.44,0.02
2021-08-19 14:24:27.104,-0.425,-0.03
2021-08-19 14:24:27.108,-0.34,-0.04
2021-08-19 14:24:27.112,-0.455,-0.015
2021-08-19 14:24:27.116,-0.565,0.02
2021-08-19 14:24:27.120,-0.495,0.025
2021-08-19 14:24:27.124,-0.42,0.02
2021-08-19 14:24:27.128,-0.31,0.01
2021-08-19 14:24:27.132,-0.37,0.005
2021-08-19 14:24:27.136,-0.375,-0.035
2021-08-19 14:24:27.140,-0.325,-0.03
2021-08-19 14:24:27.144,-0.215,-0.06
2021-08-19 14:24:27.148,-0.2,-0.02
2021-08-19 14:24:27.152,-0.24,0.065
2021-08-19 14:24:27.156,-0.53,0.155
2021-08-19 14:24:27.160,-0.59,0.135
2021-08-19 14:24:27.164,-0.385,0.11
2021-08-19 14:24:27.168,-0.37,0.12
2021-08-19 14:24:27.172,-0.37,0.25
2021-08-19 14:24:27.176,-0.32,0.37
2021-08-19 14:24:27.180,-0.345,0.245
2021-08-19 14:24:27.184,-0.215,-0.01
2021-08-19 14:24:27.188,-0.33,-0.17
2021-08-19 14:24:27.192,-0.545,-0.15
2021-08-19 14:24:27.196,-0.5,-0.095
2021-08-19 14:24:27.200,-0.345,-0.045
2021-08-19 14:24:27.204,-0.28,0.02
2021-08-19 14:24:27.208,-0.29,0.165
2021-08-19 14:24:27.212,-0.38,0.24
2021-08-19 14:24:27.216,-0.48,0.115
2021-08-19 14:24:27.220,-0.445,-0.02
2021-08-19 14:24:27.224,-0.31,-0.065
2021-08-19 14:24:27.228,-0.285,-0.07
2021-08-19 14:24:27.232,-0.36,-0.06
2021-08-19 14:24:27.236,-0.345,0.01
2021-08-19 14:24:27.240,-0.41,0.08
2021-08-19 14:24:27.244,-0.285,0.175
2021-08-19 14:24:27.248,-0.13,0.185
2021-08-19 14:24:27.252,-0.32,0.05
2021-08-19 14:24:27.256,-0.515,-0.055
2021-08-19 14:24:27.260,-0.395,-0.08
2021-08-19 14:24:27.264,-0.36,-0.04
2021-08-19 14:24:27.268,-0.415,0.025
2021-08-19 14:24:27.272,-0.415,0.115
2021-08-19 14:24:27.276,-0.345,0.075
2021-08-19 14:24:27.280,-0.215,0.015
2021-08-19 14:24:27.284,-0.135,0.025
2021-08-19 14:24:27.288,-0.39,0.135
2021-08-19 14:24:27.292,-0.545,0.095
2021-08-19 14:24:27.296,-0.525,0.0
2021-08-19 14:24:27.300,-0.42,-0.005
2021-08-19 14:24:27.304,-0.31,0.025
2021-08-19 14:24:27.308,-0.34,0.09
2021-08-19 14:24:27.312,-0.34,0.095
2021-08-19 14:24:27.316,-0.36,0.055
2021-08-19 14:24:27.320,-0.365,0.015
2021-08-19 14:24:27.324,-0.275,-0.02
2021-08-19 14:24:27.328,-0.15,0.075
2021-08-19 14:24:27.332,-0.285,0.18
2021-08-19 14:24:27.336,-0.45,0.12
2021-08-19 14:24:27.340,-0.385,0.02
2021-08-19 14:24:27.344,-0.32,-0.05
2021-08-19 14:24:27.348,-0.29,-0.06
2021-08-19 14:24:27.352,-0.38,-0.015
2021-08-19 14:24:27.356,-0.4,0.0
2021-08-19 14:24:27.360,-0.44,0.0
2021-08-19 14:24:27.364,-0.415,0.015
2021-08-19 14:24:27.368,-0.32,0.065
2021-08-19 14:24:27.372,-0.32,0.075
2021-08-19 14:24:27.376,-0.385,0.13
