Time,ECG1,ECG2
2021-08-01 04:18:51.500,-0.205,-0.24
2021-08-01 04:18:51.504,-0.195,-0.225
2021-08-01 04:18:51.508,-0.22,-0.25
2021-08-01 04:18:51.512,-0.24,-0.25
2021-08-01 04:18:51.516,-0.22,-0.245
2021-08-01 04:18:51.520,-0.215,-0.26
2021-08-01 04:18:51.524,-0.2,-0.26
2021-08-01 04:18:51.528,-0.215,-0.255
2021-08-01 04:18:51.532,-0.21,-0.25
2021-08-01 04:18:51.536,-0.225,-0.245
2021-08-01 04:18:51.540,-0.225,-0.25
2021-08-01 04:18:51.544,-0.22,-0.225
2021-08-01 04:18:51.548,-0.215,-0.225
2021-08-01 04:18:51.552,-0.21,-0.245
2021-08-01 04:18:51.556,-0.225,-0.24
2021-08-01 04:18:51.560,-0.225,-0.25
2021-08-01 04:18:51.564,-0.185,-0.22
2021-08-01 04:18:51.568,-0.22,-0.25
2021-08-01 04:18:51.572,-0.215,-0.245
2021-08-01 04:18:51.576,-0.215,-0.23
2021-08-01 04:18:51.580,-0.21,-0.24
2021-08-01 04:18:51.584,-0.21,-0.25
2021-08-01 04:18:51.588,-0.23,-0.24
2021-08-01 04:18:51.592,-0.22,-0.245
2021-08-01 04:18:51.596,-0.22,-0.225
2021-08-01 04:18:51.600,-0.24,-0.23
2021-08-01 04:18:51.604,-0.23,-0.245
2021-08-01 04:18:51.608,-0.235,-0.24
2021-08-01 04:18:51.612,-0.225,-0.25
2021-08-01 04:18:51.616,-0.23,-0.24
2021-08-01 04:18:51.620,-0.215,-0.26
2021-08-01 04:18:51.624,-0.23,-0.25
2021-08-01 04:18:51.628,-0.23,-0.26
2021-08-01 04:18:51.632,-0.23,-0.24
2021-08-01 04:18:51.636,-0.23,-0.245
2021-08-01 04:18:51.640,-0.235,-0.25
2021-08-01 04:18:51.644,-0.24,-0.25
2021-08-01 04:18:51.648,-0.22,-0.26
2021-08-01 04:18:51.652,-0.22,-0.265
2021-08-01 04:18:51.656,-0.225,-0.26
2021-08-01 04:18:51.660,-0.235,-0.28
2021-08-01 04:18:51.664,-0.22,-0.24
2021-08-01 04:18:51.668,-0.23,-0.25
2021-08-01 04:18:51.672,-0.235,-0.25
2021-08-01 04:18:51.676,-0.225,-0.265
2021-08-01 04:18:51.680,-0.22,-0.26
2021-08-01 04:18:51.684,-0.23,-0.27
2021-08-01 04:18:51.688,-0.23,-0.26
2021-08-01 04:18:51.692,-0.245,-0.265
2021-08-01 04:18:51.696,-0.23,-0.285
2021-08-01 04:18:51.700,-0.265,-0.26
2021-08-01 04:18:51.704,-0.24,-0.27
2021-08-01 04:18:51.708,-0.235,-0.285
2021-08-01 04:18:51.712,-0.225,-0.25
2021-08-01 04:18:51.716,-0.23,-0.26
2021-08-01 04:18:51.720,-0.24,-0.265
2021-08-01 04:18:51.724,-0.235,-0.26
2021-08-01 04:18:51.728,-0.25,-0.27
2021-08-01 04:18:51.732,-0.24,-0.26
2021-08-01 04:18:51.736,-0.235,-0.25
2021-08-01 04:18:51.740,-0.22,-0.25
2021-08-01 04:18:51.744,-0.215,-0.275
2021-08-01 04:18:51.748,-0.235,-0.25
2021-08-01 04:18:51.752,-0.24,-0.265
2021-08-01 04:18:51.756,-0.23,-0.275
2021-08-01 04:18:51.760,-0.245,-0.265
2021-08-01 04:18:51.764,-0.24,-0.25
2021-08-01 04:18:51.768,-0.235,-0.265
2021-08-01 04:18:51.772,-0.255,-0.27
2021-08-01 04:18:51.776,-0.23,-0.26
2021-08-01 04:18:51.780,-0.24,-0.265
2021-08-01 04:18:51.784,-0.225,-0.27
2021-08-01 04:18:51.788,-0.245,-0.26
2021-08-01 04:18:51.792,-0.23,-0.255
2021-08-01 04:18:51.796,-0.235,-0.235
2021-08-01 04:18:51.800,-0.235,-0.245
2021-08-01 04:18:51.804,-0.24,-0.245
2021-08-01 04:18:51.808,-0.25,-0.255
2021-08-01 04:18:51.812,-0.245,-0.24
2021-08-01 04:18:51.816,-0.24,-0.24
2021-08-01 04:18:51.820,-0.265,-0.265
2021-08-01 04:18:51.824,-0.255,-0.25
2021-08-01 04:18:51.828,-0.25,-0.26
2021-08-01 04:18:51.832,-0.24,-0.26
2021-08-01 04:18:51.836,-0.245,-0.27
2021-08-01 04:18:51.840,-0.24,-0.255
2021-08-01 04:18:51.844,-0.235,-0.235
2021-08-01 04:18:51.848,-0.25,-0.26
2021-08-01 04:18:51.852,-0.25,-0.255
2021-08-01 04:18:51.856,-0.235,-0.265
2021-08-01 04:18:51.860,-0.235,-0.275
2021-08-01 04:18:51.864,-0.245,-0.255
2021-08-01 04:18:51.868,-0.24,-0.27
2021-08-01 04:18:51.872,-0.24,-0.245
2021-08-01 04:18:51.876,-0.23,-0.265
2021-08-01 04:18:51.880,-0.225,-0.26
2021-08-01 04:18:51.884,-0.23,-0.26
2021-08-01 04:18:51.888,-0.24,-0.255
2021-08-01 04:18:51.892,-0.21,-0.25
2021-08-01 04:18:51.896,-0.2,-0.21
2021-08-01 04:18:51.900,-0.175,-0.215
2021-08-01 04:18:51.904,-0.185,-0.21
2021-08-01 04:18:51.908,-0.16,-0.21
2021-08-01 04:18:51.912,-0.175,-0.2
2021-08-01 04:18:51.916,-0.13,-0.2
2021-08-01 04:18:51.920,-0.155,-0.225
2021-08-01 04:18:51.924,-0.15,-0.21
2021-08-01 04:18:51.928,-0.18,-0.24
2021-08-01 04:18:51.932,-0.175,-0.245
2021-08-01 04:18:51.936,-0.195,-0.24
2021-08-01 04:18:51.940,-0.215,-0.26
2021-08-01 04:18:51.944,-0.2,-0.27
2021-08-01 04:18:51.948,-0.23,-0.265
2021-08-01 04:18:51.952,-0.21,-0.28
2021-08-01 04:18:51.956,-0.2,-0.29
2021-08-01 04:18:51.960,-0.205,-0.285
2021-08-01 04:18:51.964,-0.18,-0.29
2021-08-01 04:18:51.968,-0.18,-0.295
2021-08-01 04:18:51.972,-0.165,-0.295
2021-08-01 04:18:51.976,-0.16,-0.27
2021-08-01 04:18:51.980,-0.15,-0.25
2021-08-01 04:18:51.984,-0.165,-0.245
2021-08-01 04:18:51.988,-0.19,-0.25
2021-08-01 04:18:51.992,-0.225,-0.26
2021-08-01 04:18:51.996,-0.25,-0.265
2021-08-01 04:18:52.000,-0.25,-0.275
2021-08-01 04:18:52.004,-0.275,-0.29
2021-08-01 04:18:52.008,-0.265,-0.3
2021-08-01 04:18:52.012,-0.255,-0.28
2021-08-01 04:18:52.016,-0.28,-0.27
2021-08-01 04:18:52.020,-0.27,-0.29
2021-08-01 04:18:52.024,-0.27,-0.27
2021-08-01 04:18:52.028,-0.265,-0.26
2021-08-01 04:18:52.032,-0.25,-0.265
2021-08-01 04:18:52.036,-0.285,-0.26
2021-08-01 04:18:52.040,-0.29,-0.29
2021-08-01 04:18:52.044,-0.26,-0.26
2021-08-01 04:18:52.048,-0.245,-0.26
2021-08-01 04:18:52.052,-0.27,-0.275
2021-08-01 04:18:52.056,-0.26,-0.28
2021-08-01 04:18:52.060,-0.255,-0.27
2021-08-01 04:18:52.064,-0.255,-0.25
2021-08-01 04:18:52.068,-0.28,-0.26
2021-08-01 04:18:52.072,-0.26,-0.275
2021-08-01 04:18:52.076,-0.265,-0.25
2021-08-01 04:18:52.080,-0.265,-0.24
2021-08-01 04:18:52.084,-0.265,-0.245
2021-08-01 04:18:52.088,-0.265,-0.25
2021-08-01 04:18:52.092,-0.26,-0.25
2021-08-01 04:18:52.096,-0.255,-0.27
2021-08-01 04:18:52.100,-0.255,-0.23
2021-08-01 04:18:52.104,-0.255,-0.225
2021-08-01 04:18:52.108,-0.25,-0.25
2021-08-01 04:18:52.112,-0.25,-0.255
2021-08-01 04:18:52.116,-0.215,-0.26
2021-08-01 04:18:52.120,-0.23,-0.245
2021-08-01 04:18:52.124,-0.225,-0.25
2021-08-01 04:18:52.128,-0.21,-0.235
2021-08-01 04:18:52.132,-0.18,-0.22
2021-08-01 04:18:52.136,-0.105,-0.19
2021-08-01 04:18:52.140,-0.04,-0.145
2021-08-01 04:18:52.144,-0.055,-0.125
2021-08-01 04:18:52.148,-0.095,-0.24
2021-08-01 04:18:52.152,-0.145,-0.4
2021-08-01 04:18:52.156,-0.215,-0.595
2021-08-01 04:18:52.160,-0.345,-0.785
2021-08-01 04:18:52.164,-0.47,-1.075
2021-08-01 04:18:52.168,-0.6,-1.375
2021-08-01 04:18:52.172,-0.7,-1.6
2021-08-01 04:18:52.176,-0.78,-1.81
2021-08-01 04:18:52.204,-0.88,-1.935
2021-08-01 04:18:52.208,-0.85,-1.815
2021-08-01 04:18:52.212,-0.8,-1.705
2021-08-01 04:18:52.216,-0.745,-1.645
2021-08-01 04:18:52.220,-0.715,-1.55
2021-08-01 04:18:52.224,-0.735,-1.485
2021-08-01 04:18:52.228,-0.715,-1.4
2021-08-01 04:18:52.232,-0.68,-1.325
2021-08-01 04:18:52.236,-0.64,-1.245
2021-08-01 04:18:52.240,-0.605,-1.12
2021-08-01 04:18:52.244,-0.565,-0.985
2021-08-01 04:18:52.248,-0.55,-0.89
2021-08-01 04:18:52.252,-0.55,-0.78
2021-08-01 04:18:52.256,-0.51,-0.695
2021-08-01 04:18:52.260,-0.48,-0.57
2021-08-01 04:18:52.264,-0.41,-0.5
2021-08-01 04:18:52.268,-0.345,-0.425
2021-08-01 04:18:52.272,-0.28,-0.355
2021-08-01 04:18:52.276,-0.22,-0.295
2021-08-01 04:18:52.280,-0.175,-0.22
2021-08-01 04:18:52.284,-0.135,-0.17
2021-08-01 04:18:52.288,-0.105,-0.09
2021-08-01 04:18:52.292,-0.07,-0.02
2021-08-01 04:18:52.296,-0.075,0.035
2021-08-01 04:18:52.300,-0.07,0.09
2021-08-01 04:18:52.304,-0.065,0.105
2021-08-01 04:18:52.308,-0.065,0.12
2021-08-01 04:18:52.312,-0.05,0.13
2021-08-01 04:18:52.316,-0.045,0.125
2021-08-01 04:18:52.320,-0.035,0.135
2021-08-01 04:18:52.324,-0.04,0.145
2021-08-01 04:18:52.328,-0.035,0.16
2021-08-01 04:18:52.332,-0.04,0.185
2021-08-01 04:18:52.336,-0.02,0.19
2021-08-01 04:18:52.340,-0.005,0.185
2021-08-01 04:18:52.344,0.0,0.19
2021-08-01 04:18:52.348,0.02,0.2
2021-08-01 04:18:52.352,0.0,0.215
2021-08-01 04:18:52.356,0.0,0.205
2021-08-01 04:18:52.360,0.02,0.225
2021-08-01 04:18:52.364,0.015,0.235
2021-08-01 04:18:52.368,0.035,0.215
2021-08-01 04:18:52.372,0.045,0.23
2021-08-01 04:18:52.376,0.04,0.225
2021-08-01 04:18:52.380,0.05,0.23
2021-08-01 04:18:52.384,0.065,0.235
2021-08-01 04:18:52.388,0.065,0.225
2021-08-01 04:18:52.392,0.075,0.245
2021-08-01 04:18:52.396,0.075,0.25
2021-08-01 04:18:52.400,0.08,0.27
2021-08-01 04:18:52.404,0.09,0.245
2021-08-01 04:18:52.408,0.095,0.26
2021-08-01 04:18:52.412,0.095,0.25
2021-08-01 04:18:52.416,0.065,0.29
2021-08-01 04:18:52.420,0.115,0.27
2021-08-01 04:18:52.424,0.105,0.295
2021-08-01 04:18:52.428,0.095,0.285
2021-08-01 04:18:52.432,0.09,0.3
2021-08-01 04:18:52.436,0.085,0.295
2021-08-01 04:18:52.440,0.12,0.295
2021-08-01 04:18:52.444,0.1,0.29
2021-08-01 04:18:52.448,0.085,0.31
2021-08-01 04:18:52.452,0.105,0.295
2021-08-01 04:18:52.456,0.095,0.29
2021-08-01 04:18:52.460,0.1,0.285
2021-08-01 04:18:52.464,0.09,0.295
2021-08-01 04:18:52.468,0.085,0.3
2021-08-01 04:18:52.472,0.085,0.28
2021-08-01 04:18:52.476,0.075,0.285
2021-08-01 04:18:52.480,0.1,0.285
2021-08-01 04:18:52.484,0.08,0.305
2021-08-01 04:18:52.488,0.06,0.295
2021-08-01 04:18:52.492,0.075,0.285
2021-08-01 04:18:52.496,0.07,0.29
2021-08-01 04:18:52.500,0.06,0.285
2021-08-01 04:18:52.504,0.055,0.28
2021-08-01 04:18:52.508,0.06,0.275
2021-08-01 04:18:52.512,0.03,0.255
2021-08-01 04:18:52.516,0.025,0.255
2021-08-01 04:18:52.520,0.025,0.25
2021-08-01 04:18:52.524,0.01,0.24
2021-08-01 04:18:52.528,0.015,0.255
2021-08-01 04:18:52.532,0.005,0.235
2021-08-01 04:18:52.536,0.005,0.225
2021-08-01 04:18:52.540,0.005,0.185
2021-08-01 04:18:52.544,-0.02,0.19
2021-08-01 04:18:52.548,-0.025,0.175
2021-08-01 04:18:52.552,-0.035,0.17
2021-08-01 04:18:52.556,-0.055,0.155
2021-08-01 04:18:52.560,-0.05,0.155
2021-08-01 04:18:52.564,-0.06,0.155
2021-08-01 04:18:52.568,-0.06,0.14
2021-08-01 04:18:52.572,-0.085,0.095
2021-08-01 04:18:52.576,-0.09,0.08
2021-08-01 04:18:52.580,-0.1,0.04
2021-08-01 04:18:52.584,-0.1,0.045
2021-08-01 04:18:52.588,-0.105,0.005
2021-08-01 04:18:52.592,-0.115,0.01
2021-08-01 04:18:52.596,-0.12,0.01
2021-08-01 04:18:52.600,-0.13,0.005
2021-08-01 04:18:52.604,-0.125,-0.01
2021-08-01 04:18:52.608,-0.135,-0.065
2021-08-01 04:18:52.612,-0.14,-0.05
2021-08-01 04:18:52.616,-0.155,-0.07
2021-08-01 04:18:52.620,-0.17,-0.075
2021-08-01 04:18:52.624,-0.16,-0.075
2021-08-01 04:18:52.628,-0.16,-0.11
2021-08-01 04:18:52.632,-0.18,-0.115
2021-08-01 04:18:52.636,-0.18,-0.1
2021-08-01 04:18:52.640,-0.175,-0.14
2021-08-01 04:18:52.644,-0.17,-0.135
2021-08-01 04:18:52.648,-0.185,-0.125
2021-08-01 04:18:52.652,-0.2,-0.12
2021-08-01 04:18:52.656,-0.195,-0.125
2021-08-01 04:18:52.660,-0.185,-0.145
2021-08-01 04:18:52.664,-0.185,-0.15
2021-08-01 04:18:52.668,-0.19,-0.145
2021-08-01 04:18:52.672,-0.195,-0.15
2021-08-01 04:18:52.676,-0.18,-0.13
2021-08-01 04:18:52.680,-0.185,-0.14
2021-08-01 04:18:52.684,-0.165,-0.145
2021-08-01 04:18:52.688,-0.18,-0.125
2021-08-01 04:18:52.692,-0.17,-0.13
2021-08-01 04:18:52.696,-0.185,-0.135
2021-08-01 04:18:52.700,-0.18,-0.14
2021-08-01 04:18:52.704,-0.19,-0.12
2021-08-01 04:18:52.708,-0.175,-0.125
2021-08-01 04:18:52.712,-0.17,-0.135
2021-08-01 04:18:52.716,-0.175,-0.14
2021-08-01 04:18:52.720,-0.175,-0.14
2021-08-01 04:18:52.724,-0.21,-0.12
2021-08-01 04:18:52.728,-0.18,-0.125
2021-08-01 04:18:52.732,-0.2,-0.11
2021-08-01 04:18:52.736,-0.18,-0.125
2021-08-01 04:18:52.740,-0.205,-0.13
2021-08-01 04:18:52.744,-0.205,-0.125
2021-08-01 04:18:52.748,-0.225,-0.12
2021-08-01 04:18:52.752,-0.21,-0.11
2021-08-01 04:18:52.756,-0.215,-0.12
2021-08-01 04:18:52.760,-0.215,-0.14
2021-08-01 04:18:52.764,-0.23,-0.155
2021-08-01 04:18:52.768,-0.22,-0.165
2021-08-01 04:18:52.772,-0.235,-0.155
2021-08-01 04:18:52.776,-0.235,-0.16
2021-08-01 04:18:52.780,-0.225,-0.145
2021-08-01 04:18:52.784,-0.225,-0.165
2021-08-01 04:18:52.788,-0.24,-0.15
2021-08-01 04:18:52.792,-0.245,-0.17
2021-08-01 04:18:52.796,-0.25,-0.17
2021-08-01 04:18:52.800,-0.25,-0.17
2021-08-01 04:18:52.804,-0.245,-0.18
2021-08-01 04:18:52.808,-0.245,-0.165
2021-08-01 04:18:52.812,-0.24,-0.17
2021-08-01 04:18:52.816,-0.27,-0.21
2021-08-01 04:18:52.820,-0.26,-0.195
2021-08-01 04:18:52.824,-0.27,-0.19
2021-08-01 04:18:52.828,-0.245,-0.225
2021-08-01 04:18:52.832,-0.245,-0.21
2021-08-01 04:18:52.836,-0.265,-0.215
2021-08-01 04:18:52.840,-0.265,-0.225
2021-08-01 04:18:52.844,-0.25,-0.215
2021-08-01 04:18:52.848,-0.255,-0.22
2021-08-01 04:18:52.852,-0.25,-0.225
2021-08-01 04:18:52.856,-0.26,-0.215
2021-08-01 04:18:52.860,-0.28,-0.205
2021-08-01 04:18:52.864,-0.285,-0.21
2021-08-01 04:18:52.868,-0.255,-0.21
2021-08-01 04:18:52.872,-0.265,-0.21
2021-08-01 04:18:52.876,-0.255,-0.22
2021-08-01 04:18:52.880,-0.265,-0.23
2021-08-01 04:18:52.884,-0.275,-0.24
2021-08-01 04:18:52.888,-0.255,-0.235
2021-08-01 04:18:52.892,-0.26,-0.23
2021-08-01 04:18:52.896,-0.265,-0.22
2021-08-01 04:18:52.900,-0.275,-0.23
2021-08-01 04:18:52.904,-0.275,-0.24
2021-08-01 04:18:52.908,-0.27,-0.225
2021-08-01 04:18:52.912,-0.275,-0.225
2021-08-01 04:18:52.916,-0.285,-0.235
2021-08-01 04:18:52.920,-0.285,-0.24
2021-08-01 04:18:52.924,-0.28,-0.225
2021-08-01 04:18:52.928,-0.275,-0.255
2021-08-01 04:18:52.932,-0.27,-0.245
2021-08-01 04:18:52.936,-0.28,-0.22
2021-08-01 04:18:52.940,-0.28,-0.21
2021-08-01 04:18:52.944,-0.29,-0.21
2021-08-01 04:18:52.948,-0.265,-0.225
2021-08-01 04:18:52.952,-0.27,-0.225
2021-08-01 04:18:52.956,-0.285,-0.225
2021-08-01 04:18:52.960,-0.29,-0.245
2021-08-01 04:18:52.964,-0.28,-0.24
2021-08-01 04:18:52.968,-0.26,-0.23
2021-08-01 04:18:52.972,-0.26,-0.24
2021-08-01 04:18:52.976,-0.265,-0.22
2021-08-01 04:18:52.980,-0.265,-0.225
2021-08-01 04:18:52.984,-0.285,-0.24
2021-08-01 04:18:52.988,-0.285,-0.24
2021-08-01 04:18:52.992,-0.285,-0.23
2021-08-01 04:18:52.996,-0.29,-0.205
2021-08-01 04:18:53.000,-0.27,-0.215
2021-08-01 04:18:53.004,-0.24,-0.22
2021-08-01 04:18:53.008,-0.245,-0.205
2021-08-01 04:18:53.012,-0.24,-0.195
2021-08-01 04:18:53.016,-0.23,-0.16
2021-08-01 04:18:53.020,-0.21,-0.195
2021-08-01 04:18:53.024,-0.205,-0.155
2021-08-01 04:18:53.028,-0.2,-0.19
2021-08-01 04:18:53.032,-0.18,-0.19
2021-08-01 04:18:53.036,-0.19,-0.19
2021-08-01 04:18:53.040,-0.19,-0.2
2021-08-01 04:18:53.044,-0.195,-0.19
2021-08-01 04:18:53.048,-0.21,-0.195
2021-08-01 04:18:53.052,-0.2,-0.215
2021-08-01 04:18:53.056,-0.225,-0.24
2021-08-01 04:18:53.060,-0.245,-0.225
2021-08-01 04:18:53.064,-0.23,-0.23
2021-08-01 04:18:53.068,-0.225,-0.25
2021-08-01 04:18:53.072,-0.25,-0.265
2021-08-01 04:18:53.076,-0.24,-0.25
2021-08-01 04:18:53.080,-0.24,-0.265
2021-08-01 04:18:53.084,-0.2,-0.245
2021-08-01 04:18:53.088,-0.205,-0.225
2021-08-01 04:18:53.092,-0.21,-0.235
2021-08-01 04:18:53.096,-0.2,-0.225
2021-08-01 04:18:53.100,-0.22,-0.225
2021-08-01 04:18:53.104,-0.245,-0.22
2021-08-01 04:18:53.108,-0.275,-0.23
2021-08-01 04:18:53.112,-0.27,-0.23
2021-08-01 04:18:53.116,-0.295,-0.24
2021-08-01 04:18:53.120,-0.3,-0.25
2021-08-01 04:18:53.124,-0.3,-0.24
2021-08-01 04:18:53.128,-0.285,-0.245
2021-08-01 04:18:53.132,-0.295,-0.26
2021-08-01 04:18:53.136,-0.305,-0.25
2021-08-01 04:18:53.140,-0.305,-0.25
2021-08-01 04:18:53.144,-0.31,-0.22
2021-08-01 04:18:53.148,-0.29,-0.245
2021-08-01 04:18:53.152,-0.31,-0.23
2021-08-01 04:18:53.156,-0.295,-0.225
2021-08-01 04:18:53.160,-0.3,-0.23
2021-08-01 04:18:53.164,-0.3,-0.23
2021-08-01 04:18:53.168,-0.305,-0.225
2021-08-01 04:18:53.172,-0.295,-0.24
2021-08-01 04:18:53.176,-0.305,-0.22
2021-08-01 04:18:53.180,-0.305,-0.23
2021-08-01 04:18:53.184,-0.295,-0.23
2021-08-01 04:18:53.188,-0.31,-0.23
2021-08-01 04:18:53.192,-0.29,-0.23
2021-08-01 04:18:53.196,-0.3,-0.26
2021-08-01 04:18:53.200,-0.275,-0.235
2021-08-01 04:18:53.204,-0.28,-0.215
2021-08-01 04:18:53.208,-0.275,-0.235
2021-08-01 04:18:53.212,-0.27,-0.245
2021-08-01 04:18:53.216,-0.28,-0.225
2021-08-01 04:18:53.220,-0.285,-0.235
2021-08-01 04:18:53.224,-0.265,-0.215
2021-08-01 04:18:53.228,-0.27,-0.21
2021-08-01 04:18:53.232,-0.265,-0.225
2021-08-01 04:18:53.236,-0.245,-0.22
2021-08-01 04:18:53.240,-0.24,-0.23
2021-08-01 04:18:53.244,-0.17,-0.2
2021-08-01 04:18:53.248,-0.1,-0.175
2021-08-01 04:18:53.252,-0.085,-0.15
2021-08-01 04:18:53.256,-0.135,-0.195
2021-08-01 04:18:53.260,-0.18,-0.335
2021-08-01 04:18:53.264,-0.245,-0.505
2021-08-01 04:18:53.268,-0.37,-0.635
2021-08-01 04:18:53.272,-0.525,-0.875
2021-08-01 04:18:53.276,-0.66,-1.165
2021-08-01 04:18:53.280,-0.79,-1.435
2021-08-01 04:18:53.284,-0.88,-1.635
2021-08-01 04:18:53.288,-0.955,-1.865
2021-08-01 04:18:53.316,-0.955,-1.825
2021-08-01 04:18:53.320,-0.88,-1.73
2021-08-01 04:18:53.324,-0.835,-1.62
2021-08-01 04:18:53.328,-0.79,-1.54
2021-08-01 04:18:53.332,-0.775,-1.49
2021-08-01 04:18:53.336,-0.79,-1.41
2021-08-01 04:18:53.340,-0.79,-1.32
2021-08-01 04:18:53.344,-0.76,-1.255
2021-08-01 04:18:53.348,-0.71,-1.17
2021-08-01 04:18:53.352,-0.635,-1.105
2021-08-01 04:18:53.356,-0.6,-0.98
2021-08-01 04:18:53.360,-0.555,-0.85
2021-08-01 04:18:53.364,-0.53,-0.76
2021-08-01 04:18:53.368,-0.505,-0.66
2021-08-01 04:18:53.372,-0.46,-0.54
2021-08-01 04:18:53.376,-0.4,-0.475
2021-08-01 04:18:53.380,-0.32,-0.43
2021-08-01 04:18:53.384,-0.285,-0.35
2021-08-01 04:18:53.388,-0.23,-0.29
2021-08-01 04:18:53.392,-0.185,-0.225
2021-08-01 04:18:53.396,-0.15,-0.165
2021-08-01 04:18:53.400,-0.12,-0.075
2021-08-01 04:18:53.404,-0.1,0.005
2021-08-01 04:18:53.408,-0.08,0.03
2021-08-01 04:18:53.412,-0.06,0.075
2021-08-01 04:18:53.416,-0.06,0.105
2021-08-01 04:18:53.420,-0.04,0.125
2021-08-01 04:18:53.424,-0.045,0.135
2021-08-01 04:18:53.428,-0.035,0.13
2021-08-01 04:18:53.432,-0.02,0.14
2021-08-01 04:18:53.436,-0.02,0.16
2021-08-01 04:18:53.440,-0.03,0.155
2021-08-01 04:18:53.444,-0.025,0.165
2021-08-01 04:18:53.448,-0.005,0.16
2021-08-01 04:18:53.452,0.01,0.175
2021-08-01 04:18:53.456,0.0,0.205
2021-08-01 04:18:53.460,0.005,0.175
2021-08-01 04:18:53.464,0.02,0.205
2021-08-01 04:18:53.468,0.01,0.21
2021-08-01 04:18:53.472,0.01,0.23
2021-08-01 04:18:53.476,0.03,0.21
2021-08-01 04:18:53.480,0.04,0.225
2021-08-01 04:18:53.484,0.04,0.23
2021-08-01 04:18:53.488,0.07,0.235
2021-08-01 04:18:53.492,0.05,0.255
2021-08-01 04:18:53.496,0.055,0.245
2021-08-01 04:18:53.500,0.065,0.26
2021-08-01 04:18:53.504,0.1,0.27
2021-08-01 04:18:53.508,0.08,0.275
2021-08-01 04:18:53.512,0.095,0.26
2021-08-01 04:18:53.516,0.085,0.27
2021-08-01 04:18:53.520,0.105,0.275
2021-08-01 04:18:53.524,0.095,0.275
2021-08-01 04:18:53.528,0.115,0.295
2021-08-01 04:18:53.532,0.125,0.315
2021-08-01 04:18:53.536,0.125,0.295
2021-08-01 04:18:53.540,0.115,0.305
2021-08-01 04:18:53.544,0.095,0.305
2021-08-01 04:18:53.548,0.115,0.3
2021-08-01 04:18:53.552,0.125,0.33
2021-08-01 04:18:53.556,0.125,0.32
2021-08-01 04:18:53.560,0.125,0.31
2021-08-01 04:18:53.564,0.135,0.31
2021-08-01 04:18:53.568,0.12,0.32
2021-08-01 04:18:53.572,0.11,0.305
2021-08-01 04:18:53.576,0.12,0.3
2021-08-01 04:18:53.580,0.11,0.31
2021-08-01 04:18:53.584,0.115,0.32
2021-08-01 04:18:53.588,0.12,0.315
2021-08-01 04:18:53.592,0.105,0.295
2021-08-01 04:18:53.596,0.08,0.295
2021-08-01 04:18:53.600,0.08,0.27
2021-08-01 04:18:53.604,0.09,0.28
2021-08-01 04:18:53.608,0.065,0.29
2021-08-01 04:18:53.612,0.06,0.29
2021-08-01 04:18:53.616,0.065,0.27
2021-08-01 04:18:53.620,0.04,0.285
2021-08-01 04:18:53.624,0.055,0.255
2021-08-01 04:18:53.628,0.03,0.24
2021-08-01 04:18:53.632,0.02,0.24
2021-08-01 04:18:53.636,0.005,0.225
2021-08-01 04:18:53.640,-0.015,0.205
2021-08-01 04:18:53.644,-0.03,0.205
2021-08-01 04:18:53.648,-0.045,0.19
2021-08-01 04:18:53.652,-0.025,0.185
2021-08-01 04:18:53.656,-0.055,0.13
2021-08-01 04:18:53.660,-0.04,0.145
2021-08-01 04:18:53.664,-0.08,0.13
2021-08-01 04:18:53.668,-0.08,0.125
2021-08-01 04:18:53.672,-0.105,0.105
2021-08-01 04:18:53.676,-0.115,0.065
2021-08-01 04:18:53.680,-0.105,0.065
2021-08-01 04:18:53.684,-0.115,0.055
2021-08-01 04:18:53.688,-0.15,0.015
2021-08-01 04:18:53.692,-0.17,0.01
2021-08-01 04:18:53.696,-0.165,-0.01
2021-08-01 04:18:53.700,-0.175,-0.035
2021-08-01 04:18:53.704,-0.185,-0.04
2021-08-01 04:18:53.708,-0.185,-0.065
2021-08-01 04:18:53.712,-0.2,-0.045
2021-08-01 04:18:53.716,-0.2,-0.07
2021-08-01 04:18:53.720,-0.215,-0.1
2021-08-01 04:18:53.724,-0.205,-0.105
2021-08-01 04:18:53.728,-0.21,-0.12
2021-08-01 04:18:53.732,-0.23,-0.115
2021-08-01 04:18:53.736,-0.24,-0.13
2021-08-01 04:18:53.740,-0.255,-0.14
2021-08-01 04:18:53.744,-0.23,-0.145
2021-08-01 04:18:53.748,-0.255,-0.13
2021-08-01 04:18:53.752,-0.26,-0.16
2021-08-01 04:18:53.756,-0.255,-0.165
2021-08-01 04:18:53.760,-0.245,-0.17
2021-08-01 04:18:53.764,-0.255,-0.14
2021-08-01 04:18:53.768,-0.255,-0.165
2021-08-01 04:18:53.772,-0.26,-0.19
2021-08-01 04:18:53.776,-0.26,-0.175
2021-08-01 04:18:53.780,-0.26,-0.185
2021-08-01 04:18:53.784,-0.245,-0.175
2021-08-01 04:18:53.788,-0.27,-0.155
2021-08-01 04:18:53.792,-0.255,-0.18
2021-08-01 04:18:53.796,-0.24,-0.185
2021-08-01 04:18:53.800,-0.24,-0.18
2021-08-01 04:18:53.804,-0.24,-0.16
2021-08-01 04:18:53.808,-0.235,-0.18
2021-08-01 04:18:53.812,-0.245,-0.17
2021-08-01 04:18:53.816,-0.24,-0.155
2021-08-01 04:18:53.820,-0.225,-0.175
2021-08-01 04:18:53.824,-0.22,-0.17
2021-08-01 04:18:53.828,-0.235,-0.185
2021-08-01 04:18:53.832,-0.25,-0.195
2021-08-01 04:18:53.836,-0.265,-0.175
2021-08-01 04:18:53.840,-0.25,-0.17
2021-08-01 04:18:53.844,-0.275,-0.18
2021-08-01 04:18:53.848,-0.245,-0.17
2021-08-01 04:18:53.852,-0.255,-0.175
2021-08-01 04:18:53.856,-0.26,-0.185
2021-08-01 04:18:53.860,-0.265,-0.175
2021-08-01 04:18:53.864,-0.275,-0.175
2021-08-01 04:18:53.868,-0.245,-0.2
2021-08-01 04:18:53.872,-0.28,-0.2
2021-08-01 04:18:53.876,-0.255,-0.175
2021-08-01 04:18:53.880,-0.28,-0.185
2021-08-01 04:18:53.884,-0.25,-0.195
2021-08-01 04:18:53.888,-0.265,-0.19
2021-08-01 04:18:53.892,-0.275,-0.2
2021-08-01 04:18:53.896,-0.275,-0.21
2021-08-01 04:18:53.900,-0.285,-0.22
2021-08-01 04:18:53.904,-0.28,-0.205
2021-08-01 04:18:53.908,-0.275,-0.23
2021-08-01 04:18:53.912,-0.28,-0.2
2021-08-01 04:18:53.916,-0.27,-0.22
2021-08-01 04:18:53.920,-0.275,-0.2
2021-08-01 04:18:53.924,-0.29,-0.205
2021-08-01 04:18:53.928,-0.29,-0.23
2021-08-01 04:18:53.932,-0.27,-0.225
2021-08-01 04:18:53.936,-0.305,-0.225
2021-08-01 04:18:53.940,-0.295,-0.225
2021-08-01 04:18:53.944,-0.28,-0.19
2021-08-01 04:18:53.948,-0.28,-0.21
2021-08-01 04:18:53.952,-0.285,-0.22
2021-08-01 04:18:53.956,-0.275,-0.245
2021-08-01 04:18:53.960,-0.275,-0.24
2021-08-01 04:18:53.964,-0.285,-0.235
2021-08-01 04:18:53.968,-0.3,-0.22
2021-08-01 04:18:53.972,-0.295,-0.23
2021-08-01 04:18:53.976,-0.285,-0.215
2021-08-01 04:18:53.980,-0.275,-0.21
2021-08-01 04:18:53.984,-0.31,-0.22
2021-08-01 04:18:53.988,-0.305,-0.215
2021-08-01 04:18:53.992,-0.29,-0.22
2021-08-01 04:18:53.996,-0.285,-0.22
2021-08-01 04:18:54.000,-0.305,-0.235
2021-08-01 04:18:54.004,-0.305,-0.215
2021-08-01 04:18:54.008,-0.31,-0.23
2021-08-01 04:18:54.012,-0.28,-0.225
2021-08-01 04:18:54.016,-0.305,-0.22
2021-08-01 04:18:54.020,-0.31,-0.24
2021-08-01 04:18:54.024,-0.295,-0.24
2021-08-01 04:18:54.028,-0.295,-0.24
2021-08-01 04:18:54.032,-0.305,-0.215
2021-08-01 04:18:54.036,-0.3,-0.215
2021-08-01 04:18:54.040,-0.295,-0.23
2021-08-01 04:18:54.044,-0.29,-0.235
2021-08-01 04:18:54.048,-0.31,-0.23
2021-08-01 04:18:54.052,-0.3,-0.23
2021-08-01 04:18:54.056,-0.29,-0.255
2021-08-01 04:18:54.060,-0.3,-0.245
2021-08-01 04:18:54.064,-0.305,-0.235
2021-08-01 04:18:54.068,-0.29,-0.235
2021-08-01 04:18:54.072,-0.295,-0.215
2021-08-01 04:18:54.076,-0.29,-0.24
2021-08-01 04:18:54.080,-0.295,-0.23
2021-08-01 04:18:54.084,-0.285,-0.2
2021-08-01 04:18:54.088,-0.27,-0.215
2021-08-01 04:18:54.092,-0.27,-0.215
2021-08-01 04:18:54.096,-0.25,-0.2
2021-08-01 04:18:54.100,-0.24,-0.2
2021-08-01 04:18:54.104,-0.23,-0.175
2021-08-01 04:18:54.108,-0.215,-0.14
2021-08-01 04:18:54.112,-0.18,-0.16
2021-08-01 04:18:54.116,-0.175,-0.17
2021-08-01 04:18:54.120,-0.19,-0.17
2021-08-01 04:18:54.124,-0.18,-0.19
2021-08-01 04:18:54.128,-0.205,-0.19
2021-08-01 04:18:54.132,-0.21,-0.215
2021-08-01 04:18:54.136,-0.21,-0.22
2021-08-01 04:18:54.140,-0.225,-0.23
2021-08-01 04:18:54.144,-0.235,-0.215
2021-08-01 04:18:54.148,-0.235,-0.24
2021-08-01 04:18:54.152,-0.235,-0.24
2021-08-01 04:18:54.156,-0.235,-0.255
2021-08-01 04:18:54.160,-0.215,-0.25
2021-08-01 04:18:54.164,-0.2,-0.235
2021-08-01 04:18:54.168,-0.195,-0.255
2021-08-01 04:18:54.172,-0.185,-0.22
2021-08-01 04:18:54.176,-0.16,-0.2
2021-08-01 04:18:54.180,-0.175,-0.195
2021-08-01 04:18:54.184,-0.2,-0.19
2021-08-01 04:18:54.188,-0.21,-0.21
2021-08-01 04:18:54.192,-0.255,-0.2
2021-08-01 04:18:54.196,-0.26,-0.215
2021-08-01 04:18:54.200,-0.285,-0.235
2021-08-01 04:18:54.204,-0.295,-0.215
2021-08-01 04:18:54.208,-0.31,-0.22
2021-08-01 04:18:54.212,-0.305,-0.215
2021-08-01 04:18:54.216,-0.31,-0.245
2021-08-01 04:18:54.220,-0.295,-0.23
2021-08-01 04:18:54.224,-0.3,-0.215
2021-08-01 04:18:54.228,-0.3,-0.225
2021-08-01 04:18:54.232,-0.305,-0.225
2021-08-01 04:18:54.236,-0.31,-0.23
2021-08-01 04:18:54.240,-0.295,-0.225
2021-08-01 04:18:54.244,-0.29,-0.235
2021-08-01 04:18:54.248,-0.295,-0.235
2021-08-01 04:18:54.252,-0.315,-0.23
2021-08-01 04:18:54.256,-0.3,-0.215
2021-08-01 04:18:54.260,-0.295,-0.225
2021-08-01 04:18:54.264,-0.295,-0.21
2021-08-01 04:18:54.268,-0.295,-0.225
2021-08-01 04:18:54.272,-0.3,-0.245
2021-08-01 04:18:54.276,-0.3,-0.225
2021-08-01 04:18:54.280,-0.305,-0.215
2021-08-01 04:18:54.284,-0.31,-0.215
2021-08-01 04:18:54.288,-0.305,-0.215
2021-08-01 04:18:54.292,-0.295,-0.22
2021-08-01 04:18:54.296,-0.28,-0.22
2021-08-01 04:18:54.300,-0.295,-0.21
2021-08-01 04:18:54.304,-0.29,-0.225
2021-08-01 04:18:54.308,-0.28,-0.225
2021-08-01 04:18:54.312,-0.275,-0.235
2021-08-01 04:18:54.316,-0.27,-0.225
2021-08-01 04:18:54.320,-0.25,-0.235
2021-08-01 04:18:54.324,-0.25,-0.235
2021-08-01 04:18:54.328,-0.175,-0.22
2021-08-01 04:18:54.332,-0.12,-0.18
2021-08-01 04:18:54.336,-0.095,-0.145
2021-08-01 04:18:54.340,-0.115,-0.18
2021-08-01 04:18:54.344,-0.15,-0.295
2021-08-01 04:18:54.348,-0.205,-0.455
2021-08-01 04:18:54.352,-0.32,-0.595
2021-08-01 04:18:54.356,-0.44,-0.775
2021-08-01 04:18:54.360,-0.57,-1.035
2021-08-01 04:18:54.364,-0.7,-1.3
2021-08-01 04:18:54.368,-0.815,-1.485
2021-08-01 04:18:54.372,-0.875,-1.715
2021-08-01 04:18:54.376,-0.94,-1.935
2021-08-01 04:18:54.400,-1.015,-1.96
2021-08-01 04:18:54.404,-0.96,-1.815
2021-08-01 04:18:54.408,-0.91,-1.715
2021-08-01 04:18:54.412,-0.875,-1.62
2021-08-01 04:18:54.416,-0.795,-1.565
2021-08-01 04:18:54.420,-0.78,-1.505
2021-08-01 04:18:54.424,-0.77,-1.445
2021-08-01 04:18:54.428,-0.735,-1.345
2021-08-01 04:18:54.432,-0.7,-1.26
2021-08-01 04:18:54.436,-0.655,-1.155
2021-08-01 04:18:54.440,-0.61,-1.05
2021-08-01 04:18:54.444,-0.57,-0.97
2021-08-01 04:18:54.448,-0.565,-0.865
2021-08-01 04:18:54.452,-0.515,-0.76
2021-08-01 04:18:54.456,-0.505,-0.655
2021-08-01 04:18:54.460,-0.455,-0.585
2021-08-01 04:18:54.464,-0.385,-0.505
2021-08-01 04:18:54.468,-0.33,-0.44
2021-08-01 04:18:54.472,-0.285,-0.37
2021-08-01 04:18:54.476,-0.205,-0.31
2021-08-01 04:18:54.480,-0.15,-0.205
2021-08-01 04:18:54.484,-0.13,-0.135
2021-08-01 04:18:54.488,-0.125,-0.08
2021-08-01 04:18:54.492,-0.09,-0.01
2021-08-01 04:18:54.496,-0.07,0.05
2021-08-01 04:18:54.500,-0.055,0.085
2021-08-01 04:18:54.504,-0.03,0.1
2021-08-01 04:18:54.508,-0.03,0.09
2021-08-01 04:18:54.512,-0.015,0.135
2021-08-01 04:18:54.516,-0.025,0.11
2021-08-01 04:18:54.520,-0.01,0.15
2021-08-01 04:18:54.524,-0.005,0.15
2021-08-01 04:18:54.528,0.0,0.15
2021-08-01 04:18:54.532,-0.005,0.17
2021-08-01 04:18:54.536,0.005,0.17
2021-08-01 04:18:54.540,0.01,0.175
2021-08-01 04:18:54.544,0.015,0.175
2021-08-01 04:18:54.548,0.035,0.205
2021-08-01 04:18:54.552,0.03,0.195
2021-08-01 04:18:54.556,0.045,0.21
2021-08-01 04:18:54.560,0.035,0.22
2021-08-01 04:18:54.564,0.035,0.245
2021-08-01 04:18:54.568,0.045,0.235
2021-08-01 04:18:54.572,0.06,0.25
2021-08-01 04:18:54.576,0.065,0.25
2021-08-01 04:18:54.580,0.065,0.27
2021-08-01 04:18:54.584,0.08,0.275
2021-08-01 04:18:54.588,0.095,0.265
2021-08-01 04:18:54.592,0.08,0.295
2021-08-01 04:18:54.596,0.09,0.3
2021-08-01 04:18:54.600,0.1,0.28
2021-08-01 04:18:54.604,0.105,0.295
2021-08-01 04:18:54.608,0.125,0.285
2021-08-01 04:18:54.612,0.115,0.295
2021-08-01 04:18:54.616,0.11,0.305
2021-08-01 04:18:54.620,0.11,0.315
2021-08-01 04:18:54.624,0.105,0.305
2021-08-01 04:18:54.628,0.11,0.33
2021-08-01 04:18:54.632,0.12,0.325
2021-08-01 04:18:54.636,0.105,0.335
2021-08-01 04:18:54.640,0.115,0.315
2021-08-01 04:18:54.644,0.1,0.335
2021-08-01 04:18:54.648,0.11,0.325
2021-08-01 04:18:54.652,0.11,0.34
2021-08-01 04:18:54.656,0.105,0.33
2021-08-01 04:18:54.660,0.105,0.34
2021-08-01 04:18:54.664,0.095,0.33
2021-08-01 04:18:54.668,0.1,0.325
2021-08-01 04:18:54.672,0.095,0.325
2021-08-01 04:18:54.676,0.09,0.32
2021-08-01 04:18:54.680,0.09,0.33
2021-08-01 04:18:54.684,0.1,0.325
2021-08-01 04:18:54.688,0.085,0.325
2021-08-01 04:18:54.692,0.07,0.315
2021-08-01 04:18:54.696,0.075,0.305
2021-08-01 04:18:54.700,0.065,0.3
2021-08-01 04:18:54.704,0.05,0.28
2021-08-01 04:18:54.708,0.06,0.28
2021-08-01 04:18:54.712,0.035,0.275
2021-08-01 04:18:54.716,0.03,0.265
2021-08-01 04:18:54.720,0.025,0.24
2021-08-01 04:18:54.724,0.015,0.26
2021-08-01 04:18:54.728,-0.015,0.22
2021-08-01 04:18:54.732,-0.015,0.22
2021-08-01 04:18:54.736,-0.04,0.22
2021-08-01 04:18:54.740,-0.04,0.185
2021-08-01 04:18:54.744,-0.05,0.19
2021-08-01 04:18:54.748,-0.05,0.17
2021-08-01 04:18:54.752,-0.075,0.16
2021-08-01 04:18:54.756,-0.095,0.135
2021-08-01 04:18:54.760,-0.08,0.115
2021-08-01 04:18:54.764,-0.11,0.105
2021-08-01 04:18:54.768,-0.12,0.08
2021-08-01 04:18:54.772,-0.115,0.06
2021-08-01 04:18:54.776,-0.145,0.035
2021-08-01 04:18:54.780,-0.145,0.035
2021-08-01 04:18:54.784,-0.145,0.02
2021-08-01 04:18:54.788,-0.155,0.005
2021-08-01 04:18:54.792,-0.175,-0.01
2021-08-01 04:18:54.796,-0.165,-0.035
2021-08-01 04:18:54.800,-0.185,-0.04
2021-08-01 04:18:54.804,-0.185,-0.055
2021-08-01 04:18:54.808,-0.19,-0.07
2021-08-01 04:18:54.812,-0.185,-0.085
2021-08-01 04:18:54.816,-0.205,-0.09
2021-08-01 04:18:54.820,-0.205,-0.095
2021-08-01 04:18:54.824,-0.215,-0.11
2021-08-01 04:18:54.828,-0.205,-0.115
2021-08-01 04:18:54.832,-0.22,-0.125
2021-08-01 04:18:54.836,-0.235,-0.14
2021-08-01 04:18:54.840,-0.215,-0.155
2021-08-01 04:18:54.844,-0.225,-0.14
2021-08-01 04:18:54.848,-0.23,-0.16
2021-08-01 04:18:54.852,-0.2,-0.16
2021-08-01 04:18:54.856,-0.225,-0.155
2021-08-01 04:18:54.860,-0.215,-0.16
2021-08-01 04:18:54.864,-0.22,-0.16
2021-08-01 04:18:54.868,-0.22,-0.175
2021-08-01 04:18:54.872,-0.23,-0.165
2021-08-01 04:18:54.876,-0.235,-0.17
2021-08-01 04:18:54.880,-0.23,-0.175
2021-08-01 04:18:54.884,-0.215,-0.18
2021-08-01 04:18:54.888,-0.225,-0.19
2021-08-01 04:18:54.892,-0.2,-0.165
2021-08-01 04:18:54.896,-0.21,-0.17
2021-08-01 04:18:54.900,-0.22,-0.175
2021-08-01 04:18:54.904,-0.205,-0.17
2021-08-01 04:18:54.908,-0.205,-0.18
2021-08-01 04:18:54.912,-0.215,-0.18
2021-08-01 04:18:54.916,-0.215,-0.16
2021-08-01 04:18:54.920,-0.235,-0.15
2021-08-01 04:18:54.924,-0.21,-0.175
2021-08-01 04:18:54.928,-0.205,-0.2
2021-08-01 04:18:54.932,-0.235,-0.16
2021-08-01 04:18:54.936,-0.22,-0.19
2021-08-01 04:18:54.940,-0.215,-0.14
2021-08-01 04:18:54.944,-0.22,-0.15
2021-08-01 04:18:54.948,-0.2,-0.17
2021-08-01 04:18:54.952,-0.22,-0.175
2021-08-01 04:18:54.956,-0.23,-0.17
2021-08-01 04:18:54.960,-0.225,-0.18
2021-08-01 04:18:54.964,-0.215,-0.16
2021-08-01 04:18:54.968,-0.22,-0.155
2021-08-01 04:18:54.972,-0.23,-0.185
2021-08-01 04:18:54.976,-0.23,-0.16
2021-08-01 04:18:54.980,-0.23,-0.175
2021-08-01 04:18:54.984,-0.24,-0.175
2021-08-01 04:18:54.988,-0.245,-0.17
2021-08-01 04:18:54.992,-0.245,-0.17
2021-08-01 04:18:54.996,-0.245,-0.18
2021-08-01 04:18:55.000,-0.245,-0.185
2021-08-01 04:18:55.004,-0.23,-0.18
2021-08-01 04:18:55.008,-0.24,-0.18
2021-08-01 04:18:55.012,-0.265,-0.185
2021-08-01 04:18:55.016,-0.255,-0.175
2021-08-01 04:18:55.020,-0.275,-0.195
2021-08-01 04:18:55.024,-0.265,-0.195
2021-08-01 04:18:55.028,-0.265,-0.2
2021-08-01 04:18:55.032,-0.265,-0.195
2021-08-01 04:18:55.036,-0.26,-0.205
2021-08-01 04:18:55.040,-0.25,-0.205
2021-08-01 04:18:55.044,-0.265,-0.175
2021-08-01 04:18:55.048,-0.255,-0.19
2021-08-01 04:18:55.052,-0.22,-0.21
2021-08-01 04:18:55.056,-0.245,-0.205
2021-08-01 04:18:55.060,-0.26,-0.2
2021-08-01 04:18:55.064,-0.26,-0.2
2021-08-01 04:18:55.068,-0.27,-0.195
2021-08-01 04:18:55.072,-0.255,-0.21
2021-08-01 04:18:55.076,-0.255,-0.19
2021-08-01 04:18:55.080,-0.275,-0.195
2021-08-01 04:18:55.084,-0.26,-0.195
2021-08-01 04:18:55.088,-0.255,-0.19
2021-08-01 04:18:55.092,-0.27,-0.215
2021-08-01 04:18:55.096,-0.24,-0.19
2021-08-01 04:18:55.100,-0.24,-0.205
2021-08-01 04:18:55.104,-0.245,-0.195
2021-08-01 04:18:55.108,-0.24,-0.185
2021-08-01 04:18:55.112,-0.26,-0.215
2021-08-01 04:18:55.116,-0.27,-0.2
2021-08-01 04:18:55.120,-0.26,-0.205
2021-08-01 04:18:55.124,-0.24,-0.2
2021-08-01 04:18:55.128,-0.265,-0.18
2021-08-01 04:18:55.132,-0.245,-0.175
2021-08-01 04:18:55.136,-0.245,-0.18
2021-08-01 04:18:55.140,-0.24,-0.2
2021-08-01 04:18:55.144,-0.24,-0.2
2021-08-01 04:18:55.148,-0.26,-0.215
2021-08-01 04:18:55.152,-0.23,-0.185
2021-08-01 04:18:55.156,-0.24,-0.2
2021-08-01 04:18:55.160,-0.24,-0.18
2021-08-01 04:18:55.164,-0.245,-0.215
2021-08-01 04:18:55.168,-0.22,-0.2
2021-08-01 04:18:55.172,-0.225,-0.19
2021-08-01 04:18:55.176,-0.24,-0.18
2021-08-01 04:18:55.180,-0.235,-0.18
2021-08-01 04:18:55.184,-0.235,-0.2
2021-08-01 04:18:55.188,-0.25,-0.205
2021-08-01 04:18:55.192,-0.24,-0.205
2021-08-01 04:18:55.196,-0.225,-0.19
2021-08-01 04:18:55.200,-0.225,-0.19
2021-08-01 04:18:55.204,-0.235,-0.155
2021-08-01 04:18:55.208,-0.23,-0.175
2021-08-01 04:18:55.212,-0.225,-0.2
2021-08-01 04:18:55.216,-0.195,-0.155
2021-08-01 04:18:55.220,-0.19,-0.155
2021-08-01 04:18:55.224,-0.18,-0.16
2021-08-01 04:18:55.228,-0.175,-0.15
2021-08-01 04:18:55.232,-0.15,-0.125
2021-08-01 04:18:55.236,-0.135,-0.135
2021-08-01 04:18:55.240,-0.145,-0.12
2021-08-01 04:18:55.244,-0.135,-0.16
2021-08-01 04:18:55.248,-0.115,-0.145
2021-08-01 04:18:55.252,-0.145,-0.16
2021-08-01 04:18:55.256,-0.14,-0.15
2021-08-01 04:18:55.260,-0.15,-0.185
2021-08-01 04:18:55.264,-0.18,-0.17
2021-08-01 04:18:55.268,-0.185,-0.175
2021-08-01 04:18:55.272,-0.215,-0.21
2021-08-01 04:18:55.276,-0.21,-0.22
2021-08-01 04:18:55.280,-0.22,-0.21
2021-08-01 04:18:55.284,-0.21,-0.245
2021-08-01 04:18:55.288,-0.215,-0.22
2021-08-01 04:18:55.292,-0.2,-0.225
2021-08-01 04:18:55.296,-0.18,-0.195
2021-08-01 04:18:55.300,-0.155,-0.2
2021-08-01 04:18:55.304,-0.16,-0.175
2021-08-01 04:18:55.308,-0.16,-0.175
2021-08-01 04:18:55.312,-0.195,-0.155
2021-08-01 04:18:55.316,-0.22,-0.18
2021-08-01 04:18:55.320,-0.22,-0.175
2021-08-01 04:18:55.324,-0.24,-0.185
2021-08-01 04:18:55.328,-0.26,-0.2
2021-08-01 04:18:55.332,-0.275,-0.2
2021-08-01 04:18:55.336,-0.275,-0.21
2021-08-01 04:18:55.340,-0.285,-0.22
2021-08-01 04:18:55.344,-0.26,-0.235
2021-08-01 04:18:55.348,-0.28,-0.21
2021-08-01 04:18:55.352,-0.28,-0.195
2021-08-01 04:18:55.356,-0.27,-0.185
2021-08-01 04:18:55.360,-0.275,-0.195
2021-08-01 04:18:55.364,-0.265,-0.195
2021-08-01 04:18:55.368,-0.26,-0.21
2021-08-01 04:18:55.372,-0.26,-0.205
2021-08-01 04:18:55.376,-0.25,-0.2
2021-08-01 04:18:55.380,-0.26,-0.2
2021-08-01 04:18:55.384,-0.265,-0.205
2021-08-01 04:18:55.388,-0.26,-0.21
2021-08-01 04:18:55.392,-0.265,-0.195
2021-08-01 04:18:55.396,-0.28,-0.2
2021-08-01 04:18:55.400,-0.26,-0.205
2021-08-01 04:18:55.404,-0.26,-0.195
2021-08-01 04:18:55.408,-0.265,-0.185
2021-08-01 04:18:55.412,-0.245,-0.185
2021-08-01 04:18:55.416,-0.25,-0.2
2021-08-01 04:18:55.420,-0.245,-0.21
2021-08-01 04:18:55.424,-0.265,-0.225
2021-08-01 04:18:55.428,-0.26,-0.21
2021-08-01 04:18:55.432,-0.26,-0.2
2021-08-01 04:18:55.436,-0.28,-0.22
2021-08-01 04:18:55.440,-0.245,-0.21
2021-08-01 04:18:55.444,-0.225,-0.2
2021-08-01 04:18:55.448,-0.19,-0.19
2021-08-01 04:18:55.452,-0.16,-0.195
2021-08-01 04:18:55.456,-0.085,-0.145
2021-08-01 04:18:55.460,-0.035,-0.1
2021-08-01 04:18:55.464,-0.06,-0.135
2021-08-01 04:18:55.468,-0.115,-0.255
2021-08-01 04:18:55.472,-0.15,-0.43
2021-08-01 04:18:55.476,-0.23,-0.595
2021-08-01 04:18:55.480,-0.365,-0.81
2021-08-01 04:18:55.484,-0.52,-1.13
2021-08-01 04:18:55.488,-0.635,-1.405
2021-08-01 04:18:55.492,-0.755,-1.615
2021-08-01 04:18:55.496,-0.82,-1.865
2021-08-01 04:18:55.524,-0.94,-1.95
2021-08-01 04:18:55.528,-0.9,-1.81
2021-08-01 04:18:55.532,-0.87,-1.74
2021-08-01 04:18:55.536,-0.81,-1.665
2021-08-01 04:18:55.540,-0.755,-1.58
2021-08-01 04:18:55.544,-0.755,-1.515
2021-08-01 04:18:55.548,-0.75,-1.435
2021-08-01 04:18:55.552,-0.73,-1.36
2021-08-01 04:18:55.556,-0.705,-1.26
2021-08-01 04:18:55.560,-0.645,-1.17
2021-08-01 04:18:55.564,-0.605,-1.06
2021-08-01 04:18:55.568,-0.605,-0.92
2021-08-01 04:18:55.572,-0.555,-0.835
2021-08-01 04:18:55.576,-0.515,-0.74
2021-08-01 04:18:55.580,-0.5,-0.625
2021-08-01 04:18:55.584,-0.45,-0.55
2021-08-01 04:18:55.588,-0.375,-0.475
2021-08-01 04:18:55.592,-0.32,-0.39
2021-08-01 04:18:55.596,-0.26,-0.34
2021-08-01 04:18:55.600,-0.195,-0.27
2021-08-01 04:18:55.604,-0.135,-0.17
2021-08-01 04:18:55.608,-0.11,-0.12
2021-08-01 04:18:55.612,-0.07,-0.05
2021-08-01 04:18:55.616,-0.07,0.035
2021-08-01 04:18:55.620,-0.045,0.095
2021-08-01 04:18:55.624,-0.045,0.12
2021-08-01 04:18:55.628,-0.01,0.125
2021-08-01 04:18:55.632,0.005,0.145
2021-08-01 04:18:55.636,0.015,0.15
2021-08-01 04:18:55.640,0.01,0.18
2021-08-01 04:18:55.644,0.025,0.18
2021-08-01 04:18:55.648,0.025,0.175
2021-08-01 04:18:55.652,0.025,0.21
2021-08-01 04:18:55.656,0.03,0.22
2021-08-01 04:18:55.660,0.03,0.215
2021-08-01 04:18:55.664,0.02,0.23
2021-08-01 04:18:55.668,0.035,0.25
2021-08-01 04:18:55.672,0.035,0.23
2021-08-01 04:18:55.676,0.03,0.245
2021-08-01 04:18:55.680,0.04,0.245
2021-08-01 04:18:55.684,0.065,0.245
2021-08-01 04:18:55.688,0.065,0.25
2021-08-01 04:18:55.692,0.07,0.24
2021-08-01 04:18:55.696,0.08,0.26
2021-08-01 04:18:55.700,0.085,0.265
2021-08-01 04:18:55.704,0.095,0.285
2021-08-01 04:18:55.708,0.1,0.3
2021-08-01 04:18:55.712,0.105,0.31
2021-08-01 04:18:55.716,0.12,0.295
2021-08-01 04:18:55.720,0.115,0.305
2021-08-01 04:18:55.724,0.115,0.31
2021-08-01 04:18:55.728,0.125,0.32
2021-08-01 04:18:55.732,0.125,0.31
2021-08-01 04:18:55.736,0.135,0.32
2021-08-01 04:18:55.740,0.13,0.315
2021-08-01 04:18:55.744,0.14,0.345
2021-08-01 04:18:55.748,0.145,0.33
2021-08-01 04:18:55.752,0.145,0.35
2021-08-01 04:18:55.756,0.165,0.34
2021-08-01 04:18:55.760,0.155,0.34
2021-08-01 04:18:55.764,0.145,0.355
2021-08-01 04:18:55.768,0.16,0.35
2021-08-01 04:18:55.772,0.15,0.35
2021-08-01 04:18:55.776,0.16,0.345
2021-08-01 04:18:55.780,0.145,0.34
2021-08-01 04:18:55.784,0.14,0.33
2021-08-01 04:18:55.788,0.155,0.36
2021-08-01 04:18:55.792,0.14,0.36
2021-08-01 04:18:55.796,0.135,0.345
2021-08-01 04:18:55.800,0.125,0.35
2021-08-01 04:18:55.804,0.135,0.33
2021-08-01 04:18:55.808,0.13,0.345
2021-08-01 04:18:55.812,0.13,0.345
2021-08-01 04:18:55.816,0.105,0.33
2021-08-01 04:18:55.820,0.1,0.325
2021-08-01 04:18:55.824,0.09,0.335
2021-08-01 04:18:55.828,0.095,0.315
2021-08-01 04:18:55.832,0.075,0.3
2021-08-01 04:18:55.836,0.075,0.315
2021-08-01 04:18:55.840,0.075,0.285
2021-08-01 04:18:55.844,0.055,0.27
2021-08-01 04:18:55.848,0.045,0.27
2021-08-01 04:18:55.852,0.03,0.255
2021-08-01 04:18:55.856,0.04,0.23
2021-08-01 04:18:55.860,0.015,0.225
2021-08-01 04:18:55.864,0.005,0.25
2021-08-01 04:18:55.868,-0.01,0.22
2021-08-01 04:18:55.872,-0.01,0.2
2021-08-01 04:18:55.876,-0.03,0.17
2021-08-01 04:18:55.880,-0.05,0.165
2021-08-01 04:18:55.884,-0.055,0.145
2021-08-01 04:18:55.888,-0.075,0.125
2021-08-01 04:18:55.892,-0.07,0.11
2021-08-01 04:18:55.896,-0.07,0.095
2021-08-01 04:18:55.900,-0.08,0.085
2021-08-01 04:18:55.904,-0.105,0.055
2021-08-01 04:18:55.908,-0.115,0.03
2021-08-01 04:18:55.912,-0.135,0.05
2021-08-01 04:18:55.916,-0.125,0.02
2021-08-01 04:18:55.920,-0.14,0.0
2021-08-01 04:18:55.924,-0.155,-0.02
2021-08-01 04:18:55.928,-0.165,-0.03
2021-08-01 04:18:55.932,-0.155,-0.05
2021-08-01 04:18:55.936,-0.18,-0.075
2021-08-01 04:18:55.940,-0.185,-0.065
2021-08-01 04:18:55.944,-0.21,-0.06
2021-08-01 04:18:55.948,-0.21,-0.085
2021-08-01 04:18:55.952,-0.21,-0.085
2021-08-01 04:18:55.956,-0.195,-0.115
2021-08-01 04:18:55.960,-0.2,-0.11
2021-08-01 04:18:55.964,-0.205,-0.1
2021-08-01 04:18:55.968,-0.19,-0.1
2021-08-01 04:18:55.972,-0.19,-0.11
2021-08-01 04:18:55.976,-0.195,-0.105
2021-08-01 04:18:55.980,-0.2,-0.105
2021-08-01 04:18:55.984,-0.205,-0.115
2021-08-01 04:18:55.988,-0.21,-0.125
2021-08-01 04:18:55.992,-0.215,-0.105
2021-08-01 04:18:55.996,-0.215,-0.13
2021-08-01 04:18:56.000,-0.21,-0.125
2021-08-01 04:18:56.004,-0.21,-0.115
2021-08-01 04:18:56.008,-0.215,-0.135
2021-08-01 04:18:56.012,-0.19,-0.125
2021-08-01 04:18:56.016,-0.205,-0.11
2021-08-01 04:18:56.020,-0.2,-0.11
2021-08-01 04:18:56.024,-0.205,-0.115
2021-08-01 04:18:56.028,-0.205,-0.12
2021-08-01 04:18:56.032,-0.19,-0.095
2021-08-01 04:18:56.036,-0.185,-0.13
2021-08-01 04:18:56.040,-0.19,-0.12
2021-08-01 04:18:56.044,-0.185,-0.125
2021-08-01 04:18:56.048,-0.185,-0.125
2021-08-01 04:18:56.052,-0.18,-0.1
2021-08-01 04:18:56.056,-0.18,-0.125
2021-08-01 04:18:56.060,-0.205,-0.11
2021-08-01 04:18:56.064,-0.2,-0.1
2021-08-01 04:18:56.068,-0.19,-0.125
2021-08-01 04:18:56.072,-0.195,-0.105
2021-08-01 04:18:56.076,-0.195,-0.12
2021-08-01 04:18:56.080,-0.22,-0.135
2021-08-01 04:18:56.084,-0.2,-0.12
2021-08-01 04:18:56.088,-0.21,-0.12
2021-08-01 04:18:56.092,-0.215,-0.12
2021-08-01 04:18:56.096,-0.2,-0.135
2021-08-01 04:18:56.100,-0.2,-0.125
2021-08-01 04:18:56.104,-0.215,-0.125
2021-08-01 04:18:56.108,-0.205,-0.12
2021-08-01 04:18:56.112,-0.225,-0.125
2021-08-01 04:18:56.116,-0.215,-0.125
2021-08-01 04:18:56.120,-0.22,-0.13
2021-08-01 04:18:56.124,-0.225,-0.14
2021-08-01 04:18:56.128,-0.21,-0.145
2021-08-01 04:18:56.132,-0.225,-0.155
2021-08-01 04:18:56.136,-0.235,-0.145
2021-08-01 04:18:56.140,-0.225,-0.15
2021-08-01 04:18:56.144,-0.225,-0.155
2021-08-01 04:18:56.148,-0.215,-0.155
2021-08-01 04:18:56.152,-0.24,-0.13
2021-08-01 04:18:56.156,-0.23,-0.16
2021-08-01 04:18:56.160,-0.21,-0.165
2021-08-01 04:18:56.164,-0.215,-0.16
2021-08-01 04:18:56.168,-0.21,-0.16
2021-08-01 04:18:56.172,-0.195,-0.15
2021-08-01 04:18:56.176,-0.185,-0.16
2021-08-01 04:18:56.180,-0.215,-0.14
2021-08-01 04:18:56.184,-0.205,-0.145
2021-08-01 04:18:56.188,-0.215,-0.15
2021-08-01 04:18:56.192,-0.22,-0.15
2021-08-01 04:18:56.196,-0.21,-0.155
2021-08-01 04:18:56.200,-0.21,-0.145
2021-08-01 04:18:56.204,-0.2,-0.145
2021-08-01 04:18:56.208,-0.205,-0.14
2021-08-01 04:18:56.212,-0.2,-0.16
2021-08-01 04:18:56.216,-0.205,-0.15
2021-08-01 04:18:56.220,-0.205,-0.145
2021-08-01 04:18:56.224,-0.2,-0.145
2021-08-01 04:18:56.228,-0.205,-0.145
2021-08-01 04:18:56.232,-0.195,-0.155
2021-08-01 04:18:56.236,-0.225,-0.16
2021-08-01 04:18:56.240,-0.215,-0.16
2021-08-01 04:18:56.244,-0.22,-0.145
2021-08-01 04:18:56.248,-0.21,-0.165
2021-08-01 04:18:56.252,-0.215,-0.13
2021-08-01 04:18:56.256,-0.205,-0.155
2021-08-01 04:18:56.260,-0.215,-0.15
2021-08-01 04:18:56.264,-0.225,-0.145
2021-08-01 04:18:56.268,-0.215,-0.155
2021-08-01 04:18:56.272,-0.215,-0.155
2021-08-01 04:18:56.276,-0.21,-0.17
2021-08-01 04:18:56.280,-0.21,-0.18
2021-08-01 04:18:56.284,-0.21,-0.175
2021-08-01 04:18:56.288,-0.21,-0.155
2021-08-01 04:18:56.292,-0.21,-0.16
2021-08-01 04:18:56.296,-0.21,-0.16
2021-08-01 04:18:56.300,-0.235,-0.135
2021-08-01 04:18:56.304,-0.205,-0.165
2021-08-01 04:18:56.308,-0.195,-0.145
2021-08-01 04:18:56.312,-0.195,-0.155
2021-08-01 04:18:56.316,-0.19,-0.145
2021-08-01 04:18:56.320,-0.165,-0.115
2021-08-01 04:18:56.324,-0.145,-0.1
2021-08-01 04:18:56.328,-0.145,-0.115
2021-08-01 04:18:56.332,-0.135,-0.1
2021-08-01 04:18:56.336,-0.12,-0.105
2021-08-01 04:18:56.340,-0.115,-0.1
2021-08-01 04:18:56.344,-0.12,-0.135
2021-08-01 04:18:56.348,-0.115,-0.14
2021-08-01 04:18:56.352,-0.155,-0.14
2021-08-01 04:18:56.356,-0.13,-0.15
2021-08-01 04:18:56.360,-0.155,-0.15
2021-08-01 04:18:56.364,-0.195,-0.19
2021-08-01 04:18:56.368,-0.16,-0.195
2021-08-01 04:18:56.372,-0.18,-0.19
2021-08-01 04:18:56.376,-0.18,-0.19
2021-08-01 04:18:56.380,-0.185,-0.2
2021-08-01 04:18:56.384,-0.17,-0.205
2021-08-01 04:18:56.388,-0.145,-0.21
2021-08-01 04:18:56.392,-0.13,-0.185
2021-08-01 04:18:56.396,-0.125,-0.16
2021-08-01 04:18:56.400,-0.145,-0.155
2021-08-01 04:18:56.404,-0.16,-0.16
2021-08-01 04:18:56.408,-0.19,-0.17
2021-08-01 04:18:56.412,-0.19,-0.15
2021-08-01 04:18:56.416,-0.21,-0.175
2021-08-01 04:18:56.420,-0.245,-0.185
2021-08-01 04:18:56.424,-0.255,-0.21
2021-08-01 04:18:56.428,-0.27,-0.195
2021-08-01 04:18:56.432,-0.255,-0.18
2021-08-01 04:18:56.436,-0.275,-0.2
2021-08-01 04:18:56.440,-0.27,-0.19
2021-08-01 04:18:56.444,-0.275,-0.185
2021-08-01 04:18:56.448,-0.26,-0.195
2021-08-01 04:18:56.452,-0.245,-0.19
2021-08-01 04:18:56.456,-0.245,-0.19
2021-08-01 04:18:56.460,-0.24,-0.195
2021-08-01 04:18:56.464,-0.23,-0.175
2021-08-01 04:18:56.468,-0.255,-0.19
2021-08-01 04:18:56.472,-0.245,-0.185
2021-08-01 04:18:56.476,-0.26,-0.2
2021-08-01 04:18:56.480,-0.255,-0.19
2021-08-01 04:18:56.484,-0.25,-0.195
2021-08-01 04:18:56.488,-0.265,-0.2
2021-08-01 04:18:56.492,-0.26,-0.2
2021-08-01 04:18:56.496,-0.26,-0.19
2021-08-01 04:18:56.500,-0.25,-0.18
2021-08-01 04:18:56.504,-0.24,-0.19
2021-08-01 04:18:56.508,-0.265,-0.195
2021-08-01 04:18:56.512,-0.255,-0.19
2021-08-01 04:18:56.516,-0.245,-0.175
2021-08-01 04:18:56.520,-0.25,-0.185
2021-08-01 04:18:56.524,-0.255,-0.18
2021-08-01 04:18:56.528,-0.255,-0.17
2021-08-01 04:18:56.532,-0.245,-0.18
2021-08-01 04:18:56.536,-0.215,-0.195
2021-08-01 04:18:56.540,-0.175,-0.145
2021-08-01 04:18:56.544,-0.09,-0.125
2021-08-01 04:18:56.548,-0.06,-0.09
2021-08-01 04:18:56.552,-0.075,-0.085
2021-08-01 04:18:56.556,-0.14,-0.225
2021-08-01 04:18:56.560,-0.175,-0.425
2021-08-01 04:18:56.564,-0.29,-0.56
2021-08-01 04:18:56.568,-0.46,-0.775
2021-08-01 04:18:56.572,-0.595,-1.07
2021-08-01 04:18:56.576,-0.72,-1.39
2021-08-01 04:18:56.580,-0.84,-1.595
2021-08-01 04:18:56.584,-0.88,-1.83
2021-08-01 04:18:56.612,-0.935,-1.89
2021-08-01 04:18:56.616,-0.87,-1.74
2021-08-01 04:18:56.620,-0.83,-1.64
2021-08-01 04:18:56.624,-0.79,-1.57
2021-08-01 04:18:56.628,-0.76,-1.5
2021-08-01 04:18:56.632,-0.775,-1.42
2021-08-01 04:18:56.636,-0.755,-1.335
2021-08-01 04:18:56.640,-0.74,-1.25
2021-08-01 04:18:56.644,-0.68,-1.16
2021-08-01 04:18:56.648,-0.605,-1.035
2021-08-01 04:18:56.652,-0.595,-0.935
2021-08-01 04:18:56.656,-0.56,-0.82
2021-08-01 04:18:56.660,-0.525,-0.7
2021-08-01 04:18:56.664,-0.5,-0.6
2021-08-01 04:18:56.668,-0.45,-0.505
2021-08-01 04:18:56.672,-0.37,-0.43
2021-08-01 04:18:56.676,-0.34,-0.38
2021-08-01 04:18:56.680,-0.27,-0.31
2021-08-01 04:18:56.684,-0.195,-0.24
2021-08-01 04:18:56.688,-0.15,-0.17
2021-08-01 04:18:56.692,-0.12,-0.08
2021-08-01 04:18:56.696,-0.1,-0.02
2021-08-01 04:18:56.700,-0.07,0.035
2021-08-01 04:18:56.704,-0.055,0.095
2021-08-01 04:18:56.708,-0.05,0.12
2021-08-01 04:18:56.712,-0.03,0.14
2021-08-01 04:18:56.716,-0.03,0.135
2021-08-01 04:18:56.720,-0.025,0.15
2021-08-01 04:18:56.724,-0.025,0.165
2021-08-01 04:18:56.728,-0.015,0.205
2021-08-01 04:18:56.732,-0.035,0.185
2021-08-01 04:18:56.736,-0.015,0.2
2021-08-01 04:18:56.740,0.005,0.21
2021-08-01 04:18:56.744,0.005,0.21
2021-08-01 04:18:56.748,-0.005,0.205
2021-08-01 04:18:56.752,0.005,0.21
2021-08-01 04:18:56.756,0.005,0.225
2021-08-01 04:18:56.760,0.0,0.235
2021-08-01 04:18:56.764,0.025,0.24
2021-08-01 04:18:56.768,0.02,0.245
2021-08-01 04:18:56.772,0.05,0.245
2021-08-01 04:18:56.776,0.055,0.245
2021-08-01 04:18:56.780,0.04,0.275
2021-08-01 04:18:56.784,0.05,0.27
2021-08-01 04:18:56.788,0.07,0.285
2021-08-01 04:18:56.792,0.08,0.29
2021-08-01 04:18:56.796,0.085,0.305
2021-08-01 04:18:56.800,0.065,0.315
2021-08-01 04:18:56.804,0.085,0.295
2021-08-01 04:18:56.808,0.075,0.33
2021-08-01 04:18:56.812,0.085,0.315
2021-08-01 04:18:56.816,0.12,0.365
2021-08-01 04:18:56.820,0.1,0.325
2021-08-01 04:18:56.824,0.09,0.325
2021-08-01 04:18:56.828,0.09,0.335
2021-08-01 04:18:56.832,0.1,0.35
2021-08-01 04:18:56.836,0.1,0.365
2021-08-01 04:18:56.840,0.125,0.365
2021-08-01 04:18:56.844,0.11,0.375
2021-08-01 04:18:56.848,0.105,0.38
2021-08-01 04:18:56.852,0.12,0.37
2021-08-01 04:18:56.856,0.115,0.36
2021-08-01 04:18:56.860,0.095,0.38
2021-08-01 04:18:56.864,0.095,0.38
2021-08-01 04:18:56.868,0.095,0.375
2021-08-01 04:18:56.872,0.1,0.395
2021-08-01 04:18:56.876,0.105,0.365
2021-08-01 04:18:56.880,0.09,0.385
2021-08-01 04:18:56.884,0.095,0.355
2021-08-01 04:18:56.888,0.1,0.365
2021-08-01 04:18:56.892,0.095,0.375
2021-08-01 04:18:56.896,0.095,0.35
2021-08-01 04:18:56.900,0.08,0.365
2021-08-01 04:18:56.904,0.055,0.345
2021-08-01 04:18:56.908,0.055,0.345
2021-08-01 04:18:56.912,0.045,0.33
2021-08-01 04:18:56.916,0.025,0.325
2021-08-01 04:18:56.920,0.025,0.3
2021-08-01 04:18:56.924,0.015,0.29
2021-08-01 04:18:56.928,0.015,0.265
2021-08-01 04:18:56.932,0.0,0.285
2021-08-01 04:18:56.936,-0.015,0.28
2021-08-01 04:18:56.940,-0.015,0.26
2021-08-01 04:18:56.944,-0.02,0.245
2021-08-01 04:18:56.948,-0.05,0.205
2021-08-01 04:18:56.952,-0.05,0.2
2021-08-01 04:18:56.956,-0.06,0.195
2021-08-01 04:18:56.960,-0.08,0.195
2021-08-01 04:18:56.964,-0.09,0.155
2021-08-01 04:18:56.968,-0.09,0.13
2021-08-01 04:18:56.972,-0.11,0.12
2021-08-01 04:18:56.976,-0.13,0.1
2021-08-01 04:18:56.980,-0.125,0.095
2021-08-01 04:18:56.984,-0.15,0.07
2021-08-01 04:18:56.988,-0.15,0.065
2021-08-01 04:18:56.992,-0.17,0.03
2021-08-01 04:18:56.996,-0.17,0.0
2021-08-01 04:18:57.000,-0.195,0.015
2021-08-01 04:18:57.004,-0.22,0.0
2021-08-01 04:18:57.008,-0.215,-0.01
2021-08-01 04:18:57.012,-0.23,-0.02
2021-08-01 04:18:57.016,-0.215,-0.035
2021-08-01 04:18:57.020,-0.25,-0.04
2021-08-01 04:18:57.024,-0.24,-0.035
2021-08-01 04:18:57.028,-0.25,-0.035
2021-08-01 04:18:57.032,-0.275,-0.035
2021-08-01 04:18:57.036,-0.26,-0.055
2021-08-01 04:18:57.040,-0.24,-0.06
2021-08-01 04:18:57.044,-0.25,-0.06
2021-08-01 04:18:57.048,-0.23,-0.055
2021-08-01 04:18:57.052,-0.25,-0.1
2021-08-01 04:18:57.056,-0.245,-0.085
2021-08-01 04:18:57.060,-0.215,-0.08
2021-08-01 04:18:57.064,-0.24,-0.08
2021-08-01 04:18:57.068,-0.23,-0.1
2021-08-01 04:18:57.072,-0.23,-0.075
2021-08-01 04:18:57.076,-0.25,-0.09
2021-08-01 04:18:57.080,-0.25,-0.075
2021-08-01 04:18:57.084,-0.235,-0.075
2021-08-01 04:18:57.088,-0.255,-0.095
2021-08-01 04:18:57.092,-0.245,-0.075
2021-08-01 04:18:57.096,-0.225,-0.09
2021-08-01 04:18:57.100,-0.225,-0.065
2021-08-01 04:18:57.104,-0.215,-0.085
2021-08-01 04:18:57.108,-0.22,-0.08
2021-08-01 04:18:57.112,-0.225,-0.07
2021-08-01 04:18:57.116,-0.23,-0.06
2021-08-01 04:18:57.120,-0.225,-0.06
2021-08-01 04:18:57.124,-0.235,-0.08
2021-08-01 04:18:57.128,-0.23,-0.08
2021-08-01 04:18:57.132,-0.235,-0.09
2021-08-01 04:18:57.136,-0.215,-0.075
2021-08-01 04:18:57.140,-0.23,-0.075
2021-08-01 04:18:57.144,-0.225,-0.085
2021-08-01 04:18:57.148,-0.22,-0.075
2021-08-01 04:18:57.152,-0.225,-0.085
2021-08-01 04:18:57.156,-0.24,-0.09
2021-08-01 04:18:57.160,-0.235,-0.105
2021-08-01 04:18:57.164,-0.24,-0.09
2021-08-01 04:18:57.168,-0.23,-0.085
2021-08-01 04:18:57.172,-0.225,-0.1
2021-08-01 04:18:57.176,-0.23,-0.095
2021-08-01 04:18:57.180,-0.25,-0.085
2021-08-01 04:18:57.184,-0.245,-0.09
2021-08-01 04:18:57.188,-0.24,-0.1
2021-08-01 04:18:57.192,-0.255,-0.085
2021-08-01 04:18:57.196,-0.24,-0.09
2021-08-01 04:18:57.200,-0.245,-0.1
2021-08-01 04:18:57.204,-0.27,-0.09
2021-08-01 04:18:57.208,-0.23,-0.095
2021-08-01 04:18:57.212,-0.255,-0.11
2021-08-01 04:18:57.216,-0.255,-0.1
2021-08-01 04:18:57.220,-0.265,-0.13
2021-08-01 04:18:57.224,-0.26,-0.1
2021-08-01 04:18:57.228,-0.265,-0.11
2021-08-01 04:18:57.232,-0.265,-0.12
2021-08-01 04:18:57.236,-0.285,-0.09
2021-08-01 04:18:57.240,-0.275,-0.095
2021-08-01 04:18:57.244,-0.265,-0.13
2021-08-01 04:18:57.248,-0.275,-0.115
2021-08-01 04:18:57.252,-0.27,-0.12
2021-08-01 04:18:57.256,-0.265,-0.1
2021-08-01 04:18:57.260,-0.275,-0.115
2021-08-01 04:18:57.264,-0.27,-0.125
2021-08-01 04:18:57.268,-0.275,-0.115
2021-08-01 04:18:57.272,-0.265,-0.12
2021-08-01 04:18:57.276,-0.255,-0.135
2021-08-01 04:18:57.280,-0.255,-0.135
2021-08-01 04:18:57.284,-0.27,-0.12
2021-08-01 04:18:57.288,-0.27,-0.145
2021-08-01 04:18:57.292,-0.26,-0.12
2021-08-01 04:18:57.296,-0.27,-0.115
2021-08-01 04:18:57.300,-0.275,-0.125
2021-08-01 04:18:57.304,-0.27,-0.135
2021-08-01 04:18:57.308,-0.27,-0.125
2021-08-01 04:18:57.312,-0.265,-0.13
2021-08-01 04:18:57.316,-0.255,-0.12
2021-08-01 04:18:57.320,-0.265,-0.135
2021-08-01 04:18:57.324,-0.265,-0.135
2021-08-01 04:18:57.328,-0.27,-0.125
2021-08-01 04:18:57.332,-0.275,-0.14
2021-08-01 04:18:57.336,-0.26,-0.125
2021-08-01 04:18:57.340,-0.26,-0.135
2021-08-01 04:18:57.344,-0.25,-0.09
2021-08-01 04:18:57.348,-0.235,-0.08
2021-08-01 04:18:57.352,-0.225,-0.08
2021-08-01 04:18:57.356,-0.23,-0.105
2021-08-01 04:18:57.360,-0.17,-0.095
2021-08-01 04:18:57.364,-0.185,-0.11
2021-08-01 04:18:57.368,-0.185,-0.11
2021-08-01 04:18:57.372,-0.215,-0.12
2021-08-01 04:18:57.376,-0.2,-0.145
2021-08-01 04:18:57.380,-0.2,-0.14
2021-08-01 04:18:57.384,-0.21,-0.13
2021-08-01 04:18:57.388,-0.22,-0.15
2021-08-01 04:18:57.392,-0.255,-0.16
2021-08-01 04:18:57.396,-0.245,-0.17
2021-08-01 04:18:57.400,-0.25,-0.18
2021-08-01 04:18:57.404,-0.23,-0.175
2021-08-01 04:18:57.408,-0.23,-0.175
2021-08-01 04:18:57.412,-0.225,-0.16
2021-08-01 04:18:57.416,-0.21,-0.17
2021-08-01 04:18:57.420,-0.185,-0.155
2021-08-01 04:18:57.424,-0.185,-0.125
2021-08-01 04:18:57.428,-0.225,-0.135
2021-08-01 04:18:57.432,-0.215,-0.095
2021-08-01 04:18:57.436,-0.26,-0.12
2021-08-01 04:18:57.440,-0.265,-0.145
2021-08-01 04:18:57.444,-0.29,-0.15
2021-08-01 04:18:57.448,-0.31,-0.155
2021-08-01 04:18:57.452,-0.315,-0.17
2021-08-01 04:18:57.456,-0.305,-0.18
2021-08-01 04:18:57.460,-0.32,-0.165
2021-08-01 04:18:57.464,-0.315,-0.16
2021-08-01 04:18:57.468,-0.305,-0.15
2021-08-01 04:18:57.472,-0.315,-0.18
2021-08-01 04:18:57.476,-0.31,-0.175
2021-08-01 04:18:57.480,-0.32,-0.17
2021-08-01 04:18:57.484,-0.315,-0.195
2021-08-01 04:18:57.488,-0.325,-0.17
2021-08-01 04:18:57.492,-0.32,-0.165
2021-08-01 04:18:57.496,-0.32,-0.155
2021-08-01 04:18:57.500,-0.31,-0.15
2021-08-01 04:18:57.504,-0.31,-0.18
2021-08-01 04:18:57.508,-0.31,-0.165
2021-08-01 04:18:57.512,-0.31,-0.16
2021-08-01 04:18:57.516,-0.33,-0.17
2021-08-01 04:18:57.520,-0.325,-0.175
2021-08-01 04:18:57.524,-0.315,-0.165
2021-08-01 04:18:57.528,-0.315,-0.18
2021-08-01 04:18:57.532,-0.32,-0.175
2021-08-01 04:18:57.536,-0.335,-0.19
2021-08-01 04:18:57.540,-0.34,-0.16
2021-08-01 04:18:57.544,-0.32,-0.175
2021-08-01 04:18:57.548,-0.32,-0.175
2021-08-01 04:18:57.552,-0.32,-0.175
2021-08-01 04:18:57.556,-0.315,-0.17
2021-08-01 04:18:57.560,-0.3,-0.175
2021-08-01 04:18:57.564,-0.26,-0.17
2021-08-01 04:18:57.568,-0.225,-0.14
2021-08-01 04:18:57.572,-0.14,-0.115
2021-08-01 04:18:57.576,-0.105,-0.08
2021-08-01 04:18:57.580,-0.12,-0.115
2021-08-01 04:18:57.584,-0.19,-0.23
2021-08-01 04:18:57.588,-0.24,-0.37
2021-08-01 04:18:57.592,-0.35,-0.525
2021-08-01 04:18:57.596,-0.485,-0.715
2021-08-01 04:18:57.600,-0.64,-0.995
2021-08-01 04:18:57.604,-0.77,-1.25
2021-08-01 04:18:57.608,-0.88,-1.45
2021-08-01 04:18:57.612,-0.98,-1.645
2021-08-01 04:18:57.616,-1.055,-1.935
2021-08-01 04:18:57.636,-1.15,-1.975
2021-08-01 04:18:57.640,-1.055,-1.8
2021-08-01 04:18:57.644,-0.985,-1.665
2021-08-01 04:18:57.648,-0.93,-1.58
2021-08-01 04:18:57.652,-0.875,-1.5
2021-08-01 04:18:57.656,-0.81,-1.44
2021-08-01 04:18:57.660,-0.81,-1.375
2021-08-01 04:18:57.664,-0.835,-1.305
2021-08-01 04:18:57.668,-0.79,-1.25
2021-08-01 04:18:57.672,-0.725,-1.145
2021-08-01 04:18:57.676,-0.68,-1.045
2021-08-01 04:18:57.680,-0.61,-0.935
2021-08-01 04:18:57.684,-0.585,-0.825
2021-08-01 04:18:57.688,-0.555,-0.73
2021-08-01 04:18:57.692,-0.5,-0.64
2021-08-01 04:18:57.696,-0.485,-0.53
2021-08-01 04:18:57.700,-0.435,-0.45
2021-08-01 04:18:57.704,-0.37,-0.395
2021-08-01 04:18:57.708,-0.31,-0.31
2021-08-01 04:18:57.712,-0.28,-0.265
2021-08-01 04:18:57.716,-0.23,-0.205
2021-08-01 04:18:57.720,-0.205,-0.12
2021-08-01 04:18:57.724,-0.155,-0.045
2021-08-01 04:18:57.728,-0.135,0.02
2021-08-01 04:18:57.732,-0.12,0.06
2021-08-01 04:18:57.736,-0.1,0.095
2021-08-01 04:18:57.740,-0.1,0.125
2021-08-01 04:18:57.744,-0.085,0.11
2021-08-01 04:18:57.748,-0.09,0.175
2021-08-01 04:18:57.752,-0.075,0.155
2021-08-01 04:18:57.756,-0.08,0.165
2021-08-01 04:18:57.760,-0.075,0.175
2021-08-01 04:18:57.764,-0.065,0.175
2021-08-01 04:18:57.768,-0.06,0.18
2021-08-01 04:18:57.772,-0.055,0.2
2021-08-01 04:18:57.776,-0.06,0.19
2021-08-01 04:18:57.780,-0.035,0.19
2021-08-01 04:18:57.784,-0.045,0.22
2021-08-01 04:18:57.788,-0.035,0.21
2021-08-01 04:18:57.792,-0.025,0.23
2021-08-01 04:18:57.796,-0.01,0.22
2021-08-01 04:18:57.800,-0.005,0.22
2021-08-01 04:18:57.804,0.0,0.245
2021-08-01 04:18:57.808,0.01,0.235
2021-08-01 04:18:57.812,-0.005,0.245
2021-08-01 04:18:57.816,0.015,0.26
2021-08-01 04:18:57.820,0.02,0.285
2021-08-01 04:18:57.824,0.03,0.275
2021-08-01 04:18:57.828,0.03,0.275
2021-08-01 04:18:57.832,0.03,0.29
2021-08-01 04:18:57.836,0.055,0.29
2021-08-01 04:18:57.840,0.035,0.31
2021-08-01 04:18:57.844,0.035,0.305
2021-08-01 04:18:57.848,0.045,0.31
2021-08-01 04:18:57.852,0.05,0.34
2021-08-01 04:18:57.856,0.055,0.31
2021-08-01 04:18:57.860,0.065,0.33
2021-08-01 04:18:57.864,0.06,0.335
2021-08-01 04:18:57.868,0.05,0.35
2021-08-01 04:18:57.872,0.06,0.34
2021-08-01 04:18:57.876,0.05,0.345
2021-08-01 04:18:57.880,0.055,0.355
2021-08-01 04:18:57.884,0.065,0.345
2021-08-01 04:18:57.888,0.07,0.38
2021-08-01 04:18:57.892,0.08,0.365
2021-08-01 04:18:57.896,0.065,0.365
2021-08-01 04:18:57.900,0.055,0.36
2021-08-01 04:18:57.904,0.07,0.375
2021-08-01 04:18:57.908,0.06,0.38
2021-08-01 04:18:57.912,0.05,0.34
2021-08-01 04:18:57.916,0.055,0.365
2021-08-01 04:18:57.920,0.055,0.365
2021-08-01 04:18:57.924,0.06,0.355
2021-08-01 04:18:57.928,0.01,0.35
2021-08-01 04:18:57.932,0.035,0.34
2021-08-01 04:18:57.936,0.025,0.345
2021-08-01 04:18:57.940,-0.01,0.34
2021-08-01 04:18:57.944,0.005,0.34
2021-08-01 04:18:57.948,0.0,0.325
2021-08-01 04:18:57.952,-0.005,0.31
2021-08-01 04:18:57.956,-0.015,0.315
2021-08-01 04:18:57.960,-0.015,0.315
2021-08-01 04:18:57.964,-0.04,0.285
2021-08-01 04:18:57.968,-0.055,0.3
2021-08-01 04:18:57.972,-0.08,0.27
2021-08-01 04:18:57.976,-0.075,0.25
2021-08-01 04:18:57.980,-0.07,0.235
2021-08-01 04:18:57.984,-0.095,0.24
2021-08-01 04:18:57.988,-0.11,0.215
2021-08-01 04:18:57.992,-0.135,0.19
2021-08-01 04:18:57.996,-0.14,0.165
2021-08-01 04:18:58.000,-0.15,0.165
2021-08-01 04:18:58.004,-0.145,0.14
2021-08-01 04:18:58.008,-0.175,0.15
2021-08-01 04:18:58.012,-0.19,0.135
2021-08-01 04:18:58.016,-0.18,0.095
2021-08-01 04:18:58.020,-0.2,0.09
2021-08-01 04:18:58.024,-0.19,0.05
2021-08-01 04:18:58.028,-0.215,0.06
2021-08-01 04:18:58.032,-0.205,0.035
2021-08-01 04:18:58.036,-0.225,0.035
2021-08-01 04:18:58.040,-0.24,0.015
2021-08-01 04:18:58.044,-0.245,-0.005
2021-08-01 04:18:58.048,-0.26,-0.01
2021-08-01 04:18:58.052,-0.25,-0.03
2021-08-01 04:18:58.056,-0.26,-0.035
2021-08-01 04:18:58.060,-0.275,-0.04
2021-08-01 04:18:58.064,-0.27,-0.05
2021-08-01 04:18:58.068,-0.285,-0.04
2021-08-01 04:18:58.072,-0.29,-0.07
2021-08-01 04:18:58.076,-0.285,-0.055
2021-08-01 04:18:58.080,-0.28,-0.075
2021-08-01 04:18:58.084,-0.285,-0.085
2021-08-01 04:18:58.088,-0.28,-0.08
2021-08-01 04:18:58.092,-0.285,-0.085
2021-08-01 04:18:58.096,-0.28,-0.07
2021-08-01 04:18:58.100,-0.285,-0.09
2021-08-01 04:18:58.104,-0.275,-0.085
2021-08-01 04:18:58.108,-0.265,-0.08
2021-08-01 04:18:58.112,-0.265,-0.105
2021-08-01 04:18:58.116,-0.24,-0.08
2021-08-01 04:18:58.120,-0.27,-0.09
2021-08-01 04:18:58.124,-0.255,-0.075
2021-08-01 04:18:58.128,-0.255,-0.085
2021-08-01 04:18:58.132,-0.245,-0.09
2021-08-01 04:18:58.136,-0.265,-0.075
2021-08-01 04:18:58.140,-0.255,-0.08
2021-08-01 04:18:58.144,-0.25,-0.085
2021-08-01 04:18:58.148,-0.24,-0.08
2021-08-01 04:18:58.152,-0.245,-0.07
2021-08-01 04:18:58.156,-0.255,-0.075
2021-08-01 04:18:58.160,-0.265,-0.065
2021-08-01 04:18:58.164,-0.26,-0.07
2021-08-01 04:18:58.168,-0.25,-0.095
2021-08-01 04:18:58.172,-0.255,-0.08
2021-08-01 04:18:58.176,-0.245,-0.075
2021-08-01 04:18:58.180,-0.245,-0.08
2021-08-01 04:18:58.184,-0.255,-0.075
2021-08-01 04:18:58.188,-0.25,-0.07
2021-08-01 04:18:58.192,-0.255,-0.06
2021-08-01 04:18:58.196,-0.25,-0.07
2021-08-01 04:18:58.200,-0.25,-0.055
2021-08-01 04:18:58.204,-0.25,-0.075
2021-08-01 04:18:58.208,-0.27,-0.055
2021-08-01 04:18:58.212,-0.265,-0.09
2021-08-01 04:18:58.216,-0.25,-0.075
2021-08-01 04:18:58.220,-0.24,-0.09
2021-08-01 04:18:58.224,-0.27,-0.065
2021-08-01 04:18:58.228,-0.26,-0.105
2021-08-01 04:18:58.232,-0.265,-0.09
2021-08-01 04:18:58.236,-0.25,-0.1
2021-08-01 04:18:58.240,-0.275,-0.09
2021-08-01 04:18:58.244,-0.275,-0.095
2021-08-01 04:18:58.248,-0.265,-0.11
2021-08-01 04:18:58.252,-0.285,-0.11
2021-08-01 04:18:58.256,-0.28,-0.095
2021-08-01 04:18:58.260,-0.28,-0.09
2021-08-01 04:18:58.264,-0.29,-0.09
2021-08-01 04:18:58.268,-0.275,-0.09
2021-08-01 04:18:58.272,-0.285,-0.095
2021-08-01 04:18:58.276,-0.3,-0.12
2021-08-01 04:18:58.280,-0.28,-0.12
2021-08-01 04:18:58.284,-0.29,-0.125
2021-08-01 04:18:58.288,-0.29,-0.11
2021-08-01 04:18:58.292,-0.275,-0.1
2021-08-01 04:18:58.296,-0.305,-0.125
2021-08-01 04:18:58.300,-0.285,-0.12
2021-08-01 04:18:58.304,-0.28,-0.11
2021-08-01 04:18:58.308,-0.295,-0.115
2021-08-01 04:18:58.312,-0.27,-0.14
2021-08-01 04:18:58.316,-0.26,-0.12
2021-08-01 04:18:58.320,-0.275,-0.11
2021-08-01 04:18:58.324,-0.25,-0.115
2021-08-01 04:18:58.328,-0.25,-0.12
2021-08-01 04:18:58.332,-0.26,-0.105
2021-08-01 04:18:58.336,-0.225,-0.08
2021-08-01 04:18:58.340,-0.225,-0.07
2021-08-01 04:18:58.344,-0.205,-0.05
2021-08-01 04:18:58.348,-0.215,-0.06
2021-08-01 04:18:58.352,-0.19,-0.04
2021-08-01 04:18:58.356,-0.185,-0.06
2021-08-01 04:18:58.360,-0.21,-0.06
2021-08-01 04:18:58.364,-0.21,-0.09
2021-08-01 04:18:58.368,-0.215,-0.09
2021-08-01 04:18:58.372,-0.2,-0.11
2021-08-01 04:18:58.376,-0.24,-0.11
2021-08-01 04:18:58.380,-0.25,-0.11
2021-08-01 04:18:58.384,-0.27,-0.145
2021-08-01 04:18:58.388,-0.26,-0.15
2021-08-01 04:18:58.392,-0.27,-0.175
2021-08-01 04:18:58.396,-0.25,-0.16
2021-08-01 04:18:58.400,-0.245,-0.16
2021-08-01 04:18:58.404,-0.245,-0.17
2021-08-01 04:18:58.408,-0.24,-0.145
2021-08-01 04:18:58.412,-0.215,-0.125
2021-08-01 04:18:58.416,-0.205,-0.145
2021-08-01 04:18:58.420,-0.195,-0.1
2021-08-01 04:18:58.424,-0.21,-0.125
2021-08-01 04:18:58.428,-0.235,-0.13
2021-08-01 04:18:58.432,-0.27,-0.115
2021-08-01 04:18:58.436,-0.27,-0.13
2021-08-01 04:18:58.440,-0.3,-0.14
2021-08-01 04:18:58.444,-0.34,-0.135
2021-08-01 04:18:58.448,-0.34,-0.135
2021-08-01 04:18:58.452,-0.33,-0.16
2021-08-01 04:18:58.456,-0.34,-0.16
2021-08-01 04:18:58.460,-0.33,-0.155
2021-08-01 04:18:58.464,-0.34,-0.17
2021-08-01 04:18:58.468,-0.315,-0.16
2021-08-01 04:18:58.472,-0.33,-0.175
2021-08-01 04:18:58.476,-0.32,-0.16
2021-08-01 04:18:58.480,-0.335,-0.14
2021-08-01 04:18:58.484,-0.34,-0.145
2021-08-01 04:18:58.488,-0.32,-0.15
2021-08-01 04:18:58.492,-0.325,-0.165
2021-08-01 04:18:58.496,-0.325,-0.17
2021-08-01 04:18:58.500,-0.32,-0.16
2021-08-01 04:18:58.504,-0.3,-0.165
2021-08-01 04:18:58.508,-0.32,-0.16
2021-08-01 04:18:58.512,-0.335,-0.16
2021-08-01 04:18:58.516,-0.325,-0.155
2021-08-01 04:18:58.520,-0.315,-0.15
2021-08-01 04:18:58.524,-0.31,-0.18
2021-08-01 04:18:58.528,-0.31,-0.175
2021-08-01 04:18:58.532,-0.31,-0.16
2021-08-01 04:18:58.536,-0.32,-0.165
2021-08-01 04:18:58.540,-0.31,-0.15
2021-08-01 04:18:58.544,-0.315,-0.16
2021-08-01 04:18:58.548,-0.32,-0.18
2021-08-01 04:18:58.552,-0.305,-0.165
2021-08-01 04:18:58.556,-0.285,-0.17
2021-08-01 04:18:58.560,-0.255,-0.145
2021-08-01 04:18:58.564,-0.2,-0.13
2021-08-01 04:18:58.568,-0.14,-0.09
2021-08-01 04:18:58.572,-0.105,-0.03
2021-08-01 04:18:58.576,-0.175,-0.12
2021-08-01 04:18:58.580,-0.19,-0.275
2021-08-01 04:18:58.584,-0.255,-0.455
2021-08-01 04:18:58.588,-0.36,-0.615
2021-08-01 04:18:58.592,-0.5,-0.87
2021-08-01 04:18:58.596,-0.645,-1.185
2021-08-01 04:18:58.600,-0.745,-1.425
2021-08-01 04:18:58.604,-0.875,-1.605
2021-08-01 04:18:58.608,-0.9,-1.86
2021-08-01 04:18:58.632,-1.085,-1.98
2021-08-01 04:18:58.636,-1.03,-1.835
2021-08-01 04:18:58.640,-0.985,-1.735
2021-08-01 04:18:58.644,-0.955,-1.68
2021-08-01 04:18:58.648,-0.9,-1.595
2021-08-01 04:18:58.652,-0.85,-1.53
2021-08-01 04:18:58.656,-0.845,-1.455
2021-08-01 04:18:58.660,-0.82,-1.365
2021-08-01 04:18:58.664,-0.79,-1.29
2021-08-01 04:18:58.668,-0.745,-1.19
2021-08-01 04:18:58.672,-0.705,-1.085
2021-08-01 04:18:58.676,-0.67,-0.99
2021-08-01 04:18:58.680,-0.64,-0.855
2021-08-01 04:18:58.684,-0.615,-0.75
2021-08-01 04:18:58.688,-0.59,-0.645
2021-08-01 04:18:58.692,-0.57,-0.57
2021-08-01 04:18:58.696,-0.51,-0.485
2021-08-01 04:18:58.700,-0.45,-0.39
2021-08-01 04:18:58.704,-0.395,-0.335
2021-08-01 04:18:58.708,-0.32,-0.275
2021-08-01 04:18:58.712,-0.26,-0.18
2021-08-01 04:18:58.716,-0.225,-0.125
2021-08-01 04:18:58.720,-0.165,-0.04
2021-08-01 04:18:58.724,-0.14,0.01
2021-08-01 04:18:58.728,-0.13,0.08
2021-08-01 04:18:58.732,-0.1,0.13
2021-08-01 04:18:58.736,-0.09,0.17
2021-08-01 04:18:58.740,-0.075,0.18
2021-08-01 04:18:58.744,-0.065,0.165
2021-08-01 04:18:58.748,-0.07,0.195
2021-08-01 04:18:58.752,-0.045,0.2
2021-08-01 04:18:58.756,-0.04,0.21
2021-08-01 04:18:58.760,-0.065,0.21
2021-08-01 04:18:58.764,-0.055,0.22
2021-08-01 04:18:58.768,-0.05,0.225
2021-08-01 04:18:58.772,-0.035,0.245
2021-08-01 04:18:58.776,-0.035,0.25
2021-08-01 04:18:58.780,-0.015,0.235
2021-08-01 04:18:58.784,-0.03,0.255
2021-08-01 04:18:58.788,-0.03,0.26
2021-08-01 04:18:58.792,-0.02,0.28
2021-08-01 04:18:58.796,-0.025,0.28
2021-08-01 04:18:58.800,-0.005,0.28
2021-08-01 04:18:58.804,0.005,0.275
2021-08-01 04:18:58.808,-0.005,0.285
2021-08-01 04:18:58.812,0.005,0.325
2021-08-01 04:18:58.816,0.04,0.31
2021-08-01 04:18:58.820,0.015,0.305
2021-08-01 04:18:58.824,0.015,0.305
2021-08-01 04:18:58.828,0.025,0.335
2021-08-01 04:18:58.832,0.04,0.345
2021-08-01 04:18:58.836,0.035,0.31
2021-08-01 04:18:58.840,0.035,0.33
2021-08-01 04:18:58.844,0.045,0.33
2021-08-01 04:18:58.848,0.055,0.34
2021-08-01 04:18:58.852,0.06,0.36
2021-08-01 04:18:58.856,0.04,0.37
2021-08-01 04:18:58.860,0.08,0.375
2021-08-01 04:18:58.864,0.065,0.37
2021-08-01 04:18:58.868,0.085,0.375
2021-08-01 04:18:58.872,0.075,0.395
2021-08-01 04:18:58.876,0.075,0.395
2021-08-01 04:18:58.880,0.07,0.395
2021-08-01 04:18:58.884,0.08,0.39
2021-08-01 04:18:58.888,0.095,0.41
2021-08-01 04:18:58.892,0.08,0.41
2021-08-01 04:18:58.896,0.075,0.4
2021-08-01 04:18:58.900,0.07,0.38
2021-08-01 04:18:58.904,0.075,0.415
2021-08-01 04:18:58.908,0.07,0.385
2021-08-01 04:18:58.912,0.055,0.385
2021-08-01 04:18:58.916,0.035,0.375
2021-08-01 04:18:58.920,0.05,0.37
2021-08-01 04:18:58.924,0.055,0.385
2021-08-01 04:18:58.928,0.05,0.4
2021-08-01 04:18:58.932,0.05,0.375
2021-08-01 04:18:58.936,0.02,0.385
2021-08-01 04:18:58.940,0.03,0.38
2021-08-01 04:18:58.944,0.01,0.365
2021-08-01 04:18:58.948,-0.005,0.355
2021-08-01 04:18:58.952,0.015,0.34
2021-08-01 04:18:58.956,-0.005,0.35
2021-08-01 04:18:58.960,-0.015,0.33
2021-08-01 04:18:58.964,-0.03,0.325
2021-08-01 04:18:58.968,-0.03,0.295
2021-08-01 04:18:58.972,-0.045,0.3
2021-08-01 04:18:58.976,-0.05,0.255
2021-08-01 04:18:58.980,-0.07,0.275
2021-08-01 04:18:58.984,-0.08,0.235
2021-08-01 04:18:58.988,-0.065,0.24
2021-08-01 04:18:58.992,-0.095,0.235
2021-08-01 04:18:58.996,-0.11,0.185
2021-08-01 04:18:59.000,-0.12,0.19
2021-08-01 04:18:59.004,-0.125,0.175
2021-08-01 04:18:59.008,-0.15,0.155
2021-08-01 04:18:59.012,-0.165,0.125
2021-08-01 04:18:59.016,-0.145,0.125
2021-08-01 04:18:59.020,-0.17,0.12
2021-08-01 04:18:59.024,-0.18,0.095
2021-08-01 04:18:59.028,-0.2,0.08
2021-08-01 04:18:59.032,-0.205,0.055
2021-08-01 04:18:59.036,-0.205,0.04
2021-08-01 04:18:59.040,-0.21,0.025
2021-08-01 04:18:59.044,-0.225,0.035
2021-08-01 04:18:59.048,-0.25,0.03
2021-08-01 04:18:59.052,-0.26,0.0
2021-08-01 04:18:59.056,-0.27,-0.015
2021-08-01 04:18:59.060,-0.28,-0.015
2021-08-01 04:18:59.064,-0.27,-0.025
2021-08-01 04:18:59.068,-0.265,-0.02
2021-08-01 04:18:59.072,-0.28,-0.04
2021-08-01 04:18:59.076,-0.28,-0.03
2021-08-01 04:18:59.080,-0.28,-0.03
2021-08-01 04:18:59.084,-0.275,-0.06
2021-08-01 04:18:59.088,-0.29,-0.055
2021-08-01 04:18:59.092,-0.275,-0.055
2021-08-01 04:18:59.096,-0.285,-0.05
2021-08-01 04:18:59.100,-0.285,-0.065
2021-08-01 04:18:59.104,-0.275,-0.04
2021-08-01 04:18:59.108,-0.275,-0.055
2021-08-01 04:18:59.112,-0.27,-0.045
2021-08-01 04:18:59.116,-0.27,-0.04
2021-08-01 04:18:59.120,-0.265,-0.05
2021-08-01 04:18:59.124,-0.28,-0.065
2021-08-01 04:18:59.128,-0.26,-0.045
2021-08-01 04:18:59.132,-0.25,-0.06
2021-08-01 04:18:59.136,-0.255,-0.04
2021-08-01 04:18:59.140,-0.27,-0.035
2021-08-01 04:18:59.144,-0.26,-0.035
2021-08-01 04:18:59.148,-0.255,-0.035
2021-08-01 04:18:59.152,-0.27,-0.015
2021-08-01 04:18:59.156,-0.265,-0.025
2021-08-01 04:18:59.160,-0.255,-0.045
2021-08-01 04:18:59.164,-0.24,-0.035
2021-08-01 04:18:59.168,-0.265,-0.035
2021-08-01 04:18:59.172,-0.255,-0.03
2021-08-01 04:18:59.176,-0.265,-0.035
2021-08-01 04:18:59.180,-0.255,-0.01
2021-08-01 04:18:59.184,-0.26,-0.03
2021-08-01 04:18:59.188,-0.25,-0.02
2021-08-01 04:18:59.192,-0.275,-0.02
2021-08-01 04:18:59.196,-0.26,-0.04
2021-08-01 04:18:59.200,-0.275,-0.03
2021-08-01 04:18:59.204,-0.25,-0.02
2021-08-01 04:18:59.208,-0.255,-0.04
2021-08-01 04:18:59.212,-0.27,-0.035
2021-08-01 04:18:59.216,-0.255,-0.03
2021-08-01 04:18:59.220,-0.26,-0.05
2021-08-01 04:18:59.224,-0.27,-0.06
2021-08-01 04:18:59.228,-0.28,-0.05
2021-08-01 04:18:59.232,-0.265,-0.06
2021-08-01 04:18:59.236,-0.275,-0.055
2021-08-01 04:18:59.240,-0.27,-0.05
2021-08-01 04:18:59.244,-0.28,-0.06
2021-08-01 04:18:59.248,-0.29,-0.055
2021-08-01 04:18:59.252,-0.27,-0.06
2021-08-01 04:18:59.256,-0.28,-0.05
2021-08-01 04:18:59.260,-0.28,-0.065
2021-08-01 04:18:59.264,-0.29,-0.07
2021-08-01 04:18:59.268,-0.28,-0.08
2021-08-01 04:18:59.272,-0.28,-0.07
2021-08-01 04:18:59.276,-0.285,-0.07
2021-08-01 04:18:59.280,-0.285,-0.065
2021-08-01 04:18:59.284,-0.28,-0.055
2021-08-01 04:18:59.288,-0.28,-0.05
2021-08-01 04:18:59.292,-0.28,-0.06
2021-08-01 04:18:59.296,-0.29,-0.06
2021-08-01 04:18:59.300,-0.275,-0.06
2021-08-01 04:18:59.304,-0.28,-0.05
2021-08-01 04:18:59.308,-0.275,-0.07
2021-08-01 04:18:59.312,-0.275,-0.07
2021-08-01 04:18:59.316,-0.26,-0.06
2021-08-01 04:18:59.320,-0.295,-0.075
2021-08-01 04:18:59.324,-0.275,-0.07
2021-08-01 04:18:59.328,-0.27,-0.08
2021-08-01 04:18:59.332,-0.265,-0.07
2021-08-01 04:18:59.336,-0.26,-0.095
2021-08-01 04:18:59.340,-0.28,-0.075
2021-08-01 04:18:59.344,-0.28,-0.09
2021-08-01 04:18:59.348,-0.285,-0.09
2021-08-01 04:18:59.352,-0.29,-0.085
2021-08-01 04:18:59.356,-0.295,-0.055
2021-08-01 04:18:59.360,-0.3,-0.06
2021-08-01 04:18:59.364,-0.28,-0.065
2021-08-01 04:18:59.368,-0.27,-0.075
2021-08-01 04:18:59.372,-0.295,-0.1
2021-08-01 04:18:59.376,-0.285,-0.09
2021-08-01 04:18:59.380,-0.29,-0.085
2021-08-01 04:18:59.384,-0.265,-0.085
2021-08-01 04:18:59.388,-0.285,-0.07
2021-08-01 04:18:59.392,-0.285,-0.085
2021-08-01 04:18:59.396,-0.28,-0.085
2021-08-01 04:18:59.400,-0.27,-0.06
2021-08-01 04:18:59.404,-0.26,-0.065
2021-08-01 04:18:59.408,-0.24,-0.065
2021-08-01 04:18:59.412,-0.265,-0.04
2021-08-01 04:18:59.416,-0.23,-0.02
2021-08-01 04:18:59.420,-0.23,0.0
2021-08-01 04:18:59.424,-0.215,-0.025
2021-08-01 04:18:59.428,-0.185,-0.02
2021-08-01 04:18:59.432,-0.175,-0.02
2021-08-01 04:18:59.436,-0.18,-0.03
2021-08-01 04:18:59.440,-0.205,-0.045
2021-08-01 04:18:59.444,-0.21,-0.025
2021-08-01 04:18:59.448,-0.205,-0.065
2021-08-01 04:18:59.452,-0.225,-0.075
2021-08-01 04:18:59.456,-0.24,-0.1
2021-08-01 04:18:59.460,-0.255,-0.095
2021-08-01 04:18:59.464,-0.255,-0.12
2021-08-01 04:18:59.468,-0.265,-0.1
2021-08-01 04:18:59.472,-0.25,-0.11
2021-08-01 04:18:59.476,-0.265,-0.135
2021-08-01 04:18:59.480,-0.24,-0.11
2021-08-01 04:18:59.484,-0.22,-0.1
2021-08-01 04:18:59.488,-0.215,-0.1
2021-08-01 04:18:59.492,-0.205,-0.07
2021-08-01 04:18:59.496,-0.205,-0.065
2021-08-01 04:18:59.500,-0.235,-0.065
2021-08-01 04:18:59.504,-0.245,-0.075
2021-08-01 04:18:59.508,-0.28,-0.07
2021-08-01 04:18:59.512,-0.305,-0.08
2021-08-01 04:18:59.516,-0.32,-0.095
2021-08-01 04:18:59.520,-0.335,-0.085
2021-08-01 04:18:59.524,-0.335,-0.09
2021-08-01 04:18:59.528,-0.345,-0.1
2021-08-01 04:18:59.532,-0.33,-0.1
2021-08-01 04:18:59.536,-0.335,-0.105
2021-08-01 04:18:59.540,-0.335,-0.09
2021-08-01 04:18:59.544,-0.355,-0.1
2021-08-01 04:18:59.548,-0.34,-0.105
2021-08-01 04:18:59.552,-0.335,-0.105
2021-08-01 04:18:59.556,-0.345,-0.11
2021-08-01 04:18:59.560,-0.33,-0.12
2021-08-01 04:18:59.564,-0.325,-0.11
2021-08-01 04:18:59.568,-0.325,-0.09
2021-08-01 04:18:59.572,-0.315,-0.09
2021-08-01 04:18:59.576,-0.34,-0.085
2021-08-01 04:18:59.580,-0.34,-0.095
2021-08-01 04:18:59.584,-0.32,-0.095
2021-08-01 04:18:59.588,-0.32,-0.09
2021-08-01 04:18:59.592,-0.34,-0.105
2021-08-01 04:18:59.596,-0.32,-0.075
2021-08-01 04:18:59.600,-0.345,-0.105
2021-08-01 04:18:59.604,-0.32,-0.105
2021-08-01 04:18:59.608,-0.34,-0.105
2021-08-01 04:18:59.612,-0.315,-0.115
2021-08-01 04:18:59.616,-0.32,-0.09
2021-08-01 04:18:59.620,-0.33,-0.1
2021-08-01 04:18:59.624,-0.34,-0.105
2021-08-01 04:18:59.628,-0.32,-0.1
2021-08-01 04:18:59.632,-0.305,-0.085
2021-08-01 04:18:59.636,-0.265,-0.08
2021-08-01 04:18:59.640,-0.205,-0.065
2021-08-01 04:18:59.644,-0.125,-0.01
2021-08-01 04:18:59.648,-0.145,0.005
2021-08-01 04:18:59.652,-0.195,-0.1
2021-08-01 04:18:59.656,-0.25,-0.25
2021-08-01 04:18:59.660,-0.325,-0.455
2021-08-01 04:18:59.664,-0.475,-0.67
2021-08-01 04:18:59.668,-0.63,-0.97
2021-08-01 04:18:59.672,-0.735,-1.245
2021-08-01 04:18:59.676,-0.85,-1.47
2021-08-01 04:18:59.680,-0.955,-1.685
2021-08-01 04:18:59.684,-0.975,-1.975
2021-08-01 04:18:59.708,-1.08,-1.97
2021-08-01 04:18:59.712,-1.045,-1.82
2021-08-01 04:18:59.716,-0.985,-1.73
2021-08-01 04:18:59.720,-0.95,-1.645
2021-08-01 04:18:59.724,-0.91,-1.58
2021-08-01 04:18:59.728,-0.86,-1.495
2021-08-01 04:18:59.732,-0.875,-1.415
2021-08-01 04:18:59.736,-0.83,-1.32
2021-08-01 04:18:59.740,-0.78,-1.235
2021-08-01 04:18:59.744,-0.765,-1.135
2021-08-01 04:18:59.748,-0.715,-1.025
2021-08-01 04:18:59.752,-0.705,-0.935
2021-08-01 04:18:59.756,-0.68,-0.805
2021-08-01 04:18:59.760,-0.645,-0.705
2021-08-01 04:18:59.764,-0.59,-0.58
2021-08-01 04:18:59.768,-0.56,-0.5
2021-08-01 04:18:59.772,-0.515,-0.41
2021-08-01 04:18:59.776,-0.445,-0.345
2021-08-01 04:18:59.780,-0.385,-0.275
2021-08-01 04:18:59.784,-0.305,-0.2
2021-08-01 04:18:59.788,-0.26,-0.11
2021-08-01 04:18:59.792,-0.235,-0.035
2021-08-01 04:18:59.796,-0.2,0.04
2021-08-01 04:18:59.800,-0.18,0.115
2021-08-01 04:18:59.804,-0.15,0.175
2021-08-01 04:18:59.808,-0.15,0.23
2021-08-01 04:18:59.812,-0.125,0.24
2021-08-01 04:18:59.816,-0.105,0.23
2021-08-01 04:18:59.820,-0.105,0.28
2021-08-01 04:18:59.824,-0.105,0.275
2021-08-01 04:18:59.828,-0.1,0.28
2021-08-01 04:18:59.832,-0.09,0.285
2021-08-01 04:18:59.836,-0.09,0.31
2021-08-01 04:18:59.840,-0.08,0.305
2021-08-01 04:18:59.844,-0.065,0.33
2021-08-01 04:18:59.848,-0.065,0.33
2021-08-01 04:18:59.852,-0.075,0.33
2021-08-01 04:18:59.856,-0.065,0.37
2021-08-01 04:18:59.860,-0.045,0.375
2021-08-01 04:18:59.864,-0.035,0.345
2021-08-01 04:18:59.868,-0.02,0.38
2021-08-01 04:18:59.872,-0.02,0.37
2021-08-01 04:18:59.876,-0.01,0.38
2021-08-01 04:18:59.880,-0.03,0.36
2021-08-01 04:18:59.884,-0.01,0.41
2021-08-01 04:18:59.888,-0.01,0.43
2021-08-01 04:18:59.892,0.0,0.415
2021-08-01 04:18:59.896,0.005,0.41
2021-08-01 04:18:59.900,0.005,0.42
2021-08-01 04:18:59.904,0.02,0.425
2021-08-01 04:18:59.908,0.035,0.43
2021-08-01 04:18:59.912,0.005,0.435
2021-08-01 04:18:59.916,0.025,0.44
2021-08-01 04:18:59.920,0.005,0.445
2021-08-01 04:18:59.924,0.035,0.47
2021-08-01 04:18:59.928,0.03,0.455
2021-08-01 04:18:59.932,0.045,0.45
2021-08-01 04:18:59.936,0.03,0.455
2021-08-01 04:18:59.940,0.035,0.47
2021-08-01 04:18:59.944,0.045,0.47
2021-08-01 04:18:59.948,0.06,0.47
2021-08-01 04:18:59.952,0.035,0.465
2021-08-01 04:18:59.956,0.045,0.48
2021-08-01 04:18:59.960,0.05,0.495
2021-08-01 04:18:59.964,0.035,0.475
2021-08-01 04:18:59.968,0.03,0.5
2021-08-01 04:18:59.972,0.055,0.47
2021-08-01 04:18:59.976,0.045,0.485
2021-08-01 04:18:59.980,0.025,0.495
2021-08-01 04:18:59.984,0.02,0.475
2021-08-01 04:18:59.988,0.04,0.45
2021-08-01 04:18:59.992,0.015,0.47
2021-08-01 04:18:59.996,-0.005,0.46
