Time,ECG1,ECG2
2021-08-01 04:10:56.156,-0.22,0.015
2021-08-01 04:10:56.160,-0.2,0.005
2021-08-01 04:10:56.164,-0.215,0.015
2021-08-01 04:10:56.168,-0.225,0.015
2021-08-01 04:10:56.172,-0.2,0.015
2021-08-01 04:10:56.176,-0.215,0.005
2021-08-01 04:10:56.180,-0.225,0.005
2021-08-01 04:10:56.184,-0.215,0.01
2021-08-01 04:10:56.188,-0.235,0.025
2021-08-01 04:10:56.192,-0.235,0.02
2021-08-01 04:10:56.196,-0.235,0.01
2021-08-01 04:10:56.200,-0.225,0.0
2021-08-01 04:10:56.204,-0.235,0.015
2021-08-01 04:10:56.208,-0.235,0.02
2021-08-01 04:10:56.212,-0.22,-0.01
2021-08-01 04:10:56.216,-0.23,0.015
2021-08-01 04:10:56.220,-0.215,0.005
2021-08-01 04:10:56.224,-0.22,0.02
2021-08-01 04:10:56.228,-0.235,0.025
2021-08-01 04:10:56.232,-0.24,0.035
2021-08-01 04:10:56.236,-0.225,0.02
2021-08-01 04:10:56.240,-0.215,0.015
2021-08-01 04:10:56.244,-0.205,0.02
2021-08-01 04:10:56.248,-0.235,0.0
2021-08-01 04:10:56.252,-0.24,0.025
2021-08-01 04:10:56.256,-0.23,0.0
2021-08-01 04:10:56.260,-0.215,0.035
2021-08-01 04:10:56.264,-0.22,0.02
2021-08-01 04:10:56.268,-0.225,0.02
2021-08-01 04:10:56.272,-0.22,0.02
2021-08-01 04:10:56.276,-0.225,0.03
2021-08-01 04:10:56.280,-0.23,0.015
2021-08-01 04:10:56.284,-0.23,0.03
2021-08-01 04:10:56.288,-0.23,0.035
2021-08-01 04:10:56.292,-0.245,0.02
2021-08-01 04:10:56.296,-0.23,0.02
2021-08-01 04:10:56.300,-0.24,0.035
2021-08-01 04:10:56.304,-0.22,0.035
2021-08-01 04:10:56.308,-0.255,0.035
2021-08-01 04:10:56.312,-0.245,0.055
2021-08-01 04:10:56.316,-0.265,0.045
2021-08-01 04:10:56.320,-0.255,0.04
2021-08-01 04:10:56.324,-0.255,0.035
2021-08-01 04:10:56.328,-0.255,0.035
2021-08-01 04:10:56.332,-0.255,0.025
2021-08-01 04:10:56.336,-0.25,0.025
2021-08-01 04:10:56.340,-0.26,0.02
2021-08-01 04:10:56.344,-0.245,0.025
2021-08-01 04:10:56.348,-0.275,0.06
2021-08-01 04:10:56.352,-0.265,0.04
2021-08-01 04:10:56.356,-0.26,0.07
2021-08-01 04:10:56.360,-0.24,0.065
2021-08-01 04:10:56.364,-0.235,0.075
2021-08-01 04:10:56.368,-0.235,0.06
2021-08-01 04:10:56.372,-0.255,0.065
2021-08-01 04:10:56.376,-0.255,0.045
2021-08-01 04:10:56.380,-0.265,0.045
2021-08-01 04:10:56.384,-0.25,0.01
2021-08-01 04:10:56.388,-0.23,-0.005
2021-08-01 04:10:56.392,-0.2,0.005
2021-08-01 04:10:56.396,-0.205,0.03
2021-08-01 04:10:56.400,-0.19,0.025
2021-08-01 04:10:56.404,-0.195,0.025
2021-08-01 04:10:56.408,-0.175,0.03
2021-08-01 04:10:56.412,-0.16,0.025
2021-08-01 04:10:56.416,-0.19,0.015
2021-08-01 04:10:56.420,-0.19,0.025
2021-08-01 04:10:56.424,-0.175,0.025
2021-08-01 04:10:56.428,-0.195,0.055
2021-08-01 04:10:56.432,-0.19,0.035
2021-08-01 04:10:56.436,-0.195,0.035
2021-08-01 04:10:56.440,-0.19,0.025
2021-08-01 04:10:56.444,-0.185,0.055
2021-08-01 04:10:56.448,-0.2,0.025
2021-08-01 04:10:56.452,-0.19,0.025
2021-08-01 04:10:56.456,-0.2,0.02
2021-08-01 04:10:56.460,-0.225,0.03
2021-08-01 04:10:56.464,-0.22,0.035
2021-08-01 04:10:56.468,-0.21,0.01
2021-08-01 04:10:56.472,-0.215,0.035
2021-08-01 04:10:56.476,-0.23,0.035
2021-08-01 04:10:56.480,-0.225,0.02
2021-08-01 04:10:56.484,-0.225,0.025
2021-08-01 04:10:56.488,-0.225,0.02
2021-08-01 04:10:56.492,-0.215,0.045
2021-08-01 04:10:56.496,-0.22,0.03
2021-08-01 04:10:56.500,-0.22,0.04
2021-08-01 04:10:56.504,-0.235,0.035
2021-08-01 04:10:56.508,-0.24,0.055
2021-08-01 04:10:56.512,-0.225,0.035
2021-08-01 04:10:56.516,-0.215,0.04
2021-08-01 04:10:56.520,-0.21,0.035
2021-08-01 04:10:56.524,-0.205,0.025
2021-08-01 04:10:56.528,-0.215,0.045
2021-08-01 04:10:56.532,-0.22,0.035
2021-08-01 04:10:56.536,-0.235,0.03
2021-08-01 04:10:56.540,-0.205,0.045
2021-08-01 04:10:56.544,-0.225,0.035
2021-08-01 04:10:56.548,-0.21,0.025
2021-08-01 04:10:56.552,-0.195,0.005
2021-08-01 04:10:56.556,-0.215,0.035
2021-08-01 04:10:56.560,-0.21,0.04
2021-08-01 04:10:56.564,-0.215,0.02
2021-08-01 04:10:56.568,-0.245,0.025
2021-08-01 04:10:56.572,-0.23,0.035
2021-08-01 04:10:56.576,-0.245,0.025
2021-08-01 04:10:56.580,-0.235,0.04
2021-08-01 04:10:56.584,-0.275,0.02
2021-08-01 04:10:56.588,-0.255,0.04
2021-08-01 04:10:56.592,-0.275,0.025
2021-08-01 04:10:56.596,-0.28,0.025
2021-08-01 04:10:56.600,-0.26,0.02
2021-08-01 04:10:56.604,-0.265,0.035
2021-08-01 04:10:56.608,-0.23,0.02
2021-08-01 04:10:56.612,-0.175,0.035
2021-08-01 04:10:56.616,-0.1,0.055
2021-08-01 04:10:56.620,-0.055,0.1
2021-08-01 04:10:56.624,-0.08,0.08
2021-08-01 04:10:56.628,-0.1,-0.005
2021-08-01 04:10:56.632,-0.175,-0.15
2021-08-01 04:10:56.636,-0.3,-0.31
2021-08-01 04:10:56.640,-0.465,-0.52
2021-08-01 04:10:56.644,-0.615,-0.82
2021-08-01 04:10:56.648,-0.73,-1.1
2021-08-01 04:10:56.652,-0.82,-1.3
2021-08-01 04:10:56.656,-0.86,-1.485
2021-08-01 04:10:56.660,-0.875,-1.685
2021-08-01 04:10:56.664,-0.83,-1.82
2021-08-01 04:10:56.668,-0.825,-1.995
2021-08-01 04:10:56.676,-0.89,-1.9
2021-08-01 04:10:56.680,-0.845,-1.705
2021-08-01 04:10:56.684,-0.76,-1.565
2021-08-01 04:10:56.688,-0.715,-1.475
2021-08-01 04:10:56.692,-0.69,-1.395
2021-08-01 04:10:56.696,-0.64,-1.34
2021-08-01 04:10:56.700,-0.58,-1.295
2021-08-01 04:10:56.704,-0.58,-1.26
2021-08-01 04:10:56.708,-0.58,-1.19
2021-08-01 04:10:56.712,-0.54,-1.095
2021-08-01 04:10:56.716,-0.52,-0.975
2021-08-01 04:10:56.720,-0.475,-0.875
2021-08-01 04:10:56.724,-0.45,-0.8
2021-08-01 04:10:56.728,-0.435,-0.7
2021-08-01 04:10:56.732,-0.415,-0.585
2021-08-01 04:10:56.736,-0.425,-0.49
2021-08-01 04:10:56.740,-0.41,-0.4
2021-08-01 04:10:56.744,-0.375,-0.29
2021-08-01 04:10:56.748,-0.295,-0.25
2021-08-01 04:10:56.752,-0.255,-0.19
2021-08-01 04:10:56.756,-0.175,-0.1
2021-08-01 04:10:56.760,-0.115,-0.055
2021-08-01 04:10:56.764,-0.09,0.02
2021-08-01 04:10:56.768,-0.07,0.12
2021-08-01 04:10:56.772,-0.055,0.165
2021-08-01 04:10:56.776,-0.03,0.23
2021-08-01 04:10:56.780,-0.05,0.285
2021-08-01 04:10:56.784,-0.02,0.34
2021-08-01 04:10:56.788,-0.03,0.365
2021-08-01 04:10:56.792,-0.005,0.37
2021-08-01 04:10:56.796,0.015,0.395
2021-08-01 04:10:56.800,0.0,0.405
2021-08-01 04:10:56.804,0.0,0.425
2021-08-01 04:10:56.808,0.0,0.425
2021-08-01 04:10:56.812,0.02,0.425
2021-08-01 04:10:56.816,0.015,0.425
2021-08-01 04:10:56.820,0.025,0.45
2021-08-01 04:10:56.824,0.015,0.435
2021-08-01 04:10:56.828,0.005,0.43
2021-08-01 04:10:56.832,0.005,0.47
2021-08-01 04:10:56.836,0.01,0.465
2021-08-01 04:10:56.840,0.0,0.455
2021-08-01 04:10:56.844,0.005,0.45
2021-08-01 04:10:56.848,0.005,0.48
2021-08-01 04:10:56.852,0.02,0.49
2021-08-01 04:10:56.856,0.02,0.475
2021-08-01 04:10:56.860,0.01,0.505
2021-08-01 04:10:56.864,0.015,0.5
2021-08-01 04:10:56.868,0.01,0.525
2021-08-01 04:10:56.872,0.02,0.52
2021-08-01 04:10:56.876,0.005,0.525
2021-08-01 04:10:56.880,0.015,0.525
2021-08-01 04:10:56.884,0.005,0.54
2021-08-01 04:10:56.888,0.035,0.53
2021-08-01 04:10:56.892,0.05,0.53
2021-08-01 04:10:56.896,0.025,0.54
2021-08-01 04:10:56.900,0.03,0.555
2021-08-01 04:10:56.904,0.02,0.55
2021-08-01 04:10:56.908,0.025,0.555
2021-08-01 04:10:56.912,0.025,0.54
2021-08-01 04:10:56.916,0.055,0.54
2021-08-01 04:10:56.920,0.06,0.555
2021-08-01 04:10:56.924,0.075,0.565
2021-08-01 04:10:56.928,0.085,0.585
2021-08-01 04:10:56.932,0.11,0.58
2021-08-01 04:10:56.936,0.095,0.585
2021-08-01 04:10:56.940,0.09,0.585
2021-08-01 04:10:56.944,0.11,0.585
2021-08-01 04:10:56.948,0.105,0.57
2021-08-01 04:10:56.952,0.105,0.575
2021-08-01 04:10:56.956,0.115,0.57
2021-08-01 04:10:56.960,0.115,0.56
2021-08-01 04:10:56.964,0.115,0.555
2021-08-01 04:10:56.968,0.105,0.545
2021-08-01 04:10:56.972,0.095,0.565
2021-08-01 04:10:56.976,0.11,0.56
2021-08-01 04:10:56.980,0.105,0.555
2021-08-01 04:10:56.984,0.13,0.555
2021-08-01 04:10:56.988,0.12,0.555
2021-08-01 04:10:56.992,0.125,0.54
2021-08-01 04:10:56.996,0.11,0.52
2021-08-01 04:10:57.000,0.115,0.535
2021-08-01 04:10:57.004,0.12,0.545
2021-08-01 04:10:57.008,0.115,0.545
2021-08-01 04:10:57.012,0.145,0.53
2021-08-01 04:10:57.016,0.14,0.495
2021-08-01 04:10:57.020,0.165,0.465
2021-08-01 04:10:57.024,0.155,0.445
2021-08-01 04:10:57.028,0.13,0.435
2021-08-01 04:10:57.032,0.12,0.415
2021-08-01 04:10:57.036,0.11,0.38
2021-08-01 04:10:57.040,0.12,0.355
2021-08-01 04:10:57.044,0.115,0.34
2021-08-01 04:10:57.048,0.1,0.305
2021-08-01 04:10:57.052,0.095,0.305
2021-08-01 04:10:57.056,0.07,0.29
2021-08-01 04:10:57.060,0.075,0.265
2021-08-01 04:10:57.064,0.06,0.235
2021-08-01 04:10:57.068,0.04,0.25
2021-08-01 04:10:57.072,0.025,0.22
2021-08-01 04:10:57.076,0.015,0.205
2021-08-01 04:10:57.080,0.0,0.18
2021-08-01 04:10:57.084,-0.02,0.165
2021-08-01 04:10:57.088,-0.055,0.16
2021-08-01 04:10:57.092,-0.06,0.165
2021-08-01 04:10:57.096,-0.09,0.175
2021-08-01 04:10:57.100,-0.095,0.19
2021-08-01 04:10:57.104,-0.11,0.165
2021-08-01 04:10:57.108,-0.135,0.16
2021-08-01 04:10:57.112,-0.13,0.185
2021-08-01 04:10:57.116,-0.135,0.18
2021-08-01 04:10:57.120,-0.14,0.17
2021-08-01 04:10:57.124,-0.15,0.16
2021-08-01 04:10:57.128,-0.15,0.15
2021-08-01 04:10:57.132,-0.155,0.15
2021-08-01 04:10:57.136,-0.17,0.165
2021-08-01 04:10:57.140,-0.145,0.15
2021-08-01 04:10:57.144,-0.16,0.135
2021-08-01 04:10:57.148,-0.135,0.155
2021-08-01 04:10:57.152,-0.14,0.155
2021-08-01 04:10:57.156,-0.155,0.15
2021-08-01 04:10:57.160,-0.135,0.14
2021-08-01 04:10:57.164,-0.145,0.16
2021-08-01 04:10:57.168,-0.16,0.15
2021-08-01 04:10:57.172,-0.17,0.165
2021-08-01 04:10:57.176,-0.155,0.155
2021-08-01 04:10:57.180,-0.175,0.15
2021-08-01 04:10:57.184,-0.18,0.145
2021-08-01 04:10:57.188,-0.175,0.17
2021-08-01 04:10:57.192,-0.16,0.175
2021-08-01 04:10:57.196,-0.155,0.175
2021-08-01 04:10:57.200,-0.14,0.155
2021-08-01 04:10:57.204,-0.145,0.165
2021-08-01 04:10:57.208,-0.14,0.16
2021-08-01 04:10:57.212,-0.14,0.15
2021-08-01 04:10:57.216,-0.14,0.17
2021-08-01 04:10:57.220,-0.15,0.15
2021-08-01 04:10:57.224,-0.145,0.14
2021-08-01 04:10:57.228,-0.13,0.15
2021-08-01 04:10:57.232,-0.17,0.145
2021-08-01 04:10:57.236,-0.15,0.13
2021-08-01 04:10:57.240,-0.175,0.13
2021-08-01 04:10:57.244,-0.155,0.135
2021-08-01 04:10:57.248,-0.185,0.1
2021-08-01 04:10:57.252,-0.175,0.105
2021-08-01 04:10:57.256,-0.165,0.105
2021-08-01 04:10:57.260,-0.155,0.125
2021-08-01 04:10:57.264,-0.155,0.13
2021-08-01 04:10:57.268,-0.17,0.11
2021-08-01 04:10:57.272,-0.16,0.11
2021-08-01 04:10:57.276,-0.17,0.115
2021-08-01 04:10:57.280,-0.18,0.105
2021-08-01 04:10:57.284,-0.17,0.065
2021-08-01 04:10:57.288,-0.16,0.095
2021-08-01 04:10:57.292,-0.18,0.075
2021-08-01 04:10:57.296,-0.145,0.075
2021-08-01 04:10:57.300,-0.185,0.09
2021-08-01 04:10:57.304,-0.185,0.085
2021-08-01 04:10:57.308,-0.185,0.085
2021-08-01 04:10:57.312,-0.21,0.085
2021-08-01 04:10:57.316,-0.21,0.085
2021-08-01 04:10:57.320,-0.2,0.075
2021-08-01 04:10:57.324,-0.17,0.08
2021-08-01 04:10:57.328,-0.17,0.1
2021-08-01 04:10:57.332,-0.155,0.09
2021-08-01 04:10:57.336,-0.15,0.075
2021-08-01 04:10:57.340,-0.14,0.04
2021-08-01 04:10:57.344,-0.14,0.03
2021-08-01 04:10:57.348,-0.15,0.065
2021-08-01 04:10:57.352,-0.16,0.035
2021-08-01 04:10:57.356,-0.17,0.04
2021-08-01 04:10:57.360,-0.185,0.035
2021-08-01 04:10:57.364,-0.2,0.035
2021-08-01 04:10:57.368,-0.185,0.01
2021-08-01 04:10:57.372,-0.195,0.02
2021-08-01 04:10:57.376,-0.2,0.01
2021-08-01 04:10:57.380,-0.195,0.01
2021-08-01 04:10:57.384,-0.2,0.01
2021-08-01 04:10:57.388,-0.195,0.005
2021-08-01 04:10:57.392,-0.215,0.02
2021-08-01 04:10:57.396,-0.225,-0.01
2021-08-01 04:10:57.400,-0.245,0.0
2021-08-01 04:10:57.404,-0.25,0.005
2021-08-01 04:10:57.408,-0.26,0.0
2021-08-01 04:10:57.412,-0.275,-0.025
2021-08-01 04:10:57.416,-0.25,0.005
2021-08-01 04:10:57.420,-0.26,-0.01
2021-08-01 04:10:57.424,-0.275,-0.02
2021-08-01 04:10:57.428,-0.275,-0.035
2021-08-01 04:10:57.432,-0.29,0.0
2021-08-01 04:10:57.436,-0.275,0.0
2021-08-01 04:10:57.440,-0.27,-0.02
2021-08-01 04:10:57.444,-0.27,-0.025
2021-08-01 04:10:57.448,-0.285,-0.015
2021-08-01 04:10:57.452,-0.265,0.0
2021-08-01 04:10:57.456,-0.28,0.0
2021-08-01 04:10:57.460,-0.25,0.01
2021-08-01 04:10:57.464,-0.235,0.0
2021-08-01 04:10:57.468,-0.235,0.015
2021-08-01 04:10:57.472,-0.24,0.02
2021-08-01 04:10:57.476,-0.22,0.025
2021-08-01 04:10:57.480,-0.235,0.035
2021-08-01 04:10:57.484,-0.215,0.035
2021-08-01 04:10:57.488,-0.23,0.015
2021-08-01 04:10:57.492,-0.21,0.03
2021-08-01 04:10:57.496,-0.215,0.03
2021-08-01 04:10:57.500,-0.235,0.02
2021-08-01 04:10:57.504,-0.195,0.025
2021-08-01 04:10:57.508,-0.185,0.02
2021-08-01 04:10:57.512,-0.155,0.03
2021-08-01 04:10:57.516,-0.08,0.06
2021-08-01 04:10:57.520,-0.01,0.09
2021-08-01 04:10:57.524,-0.01,0.12
2021-08-01 04:10:57.528,-0.065,0.105
2021-08-01 04:10:57.532,-0.125,-0.06
2021-08-01 04:10:57.536,-0.19,-0.18
2021-08-01 04:10:57.540,-0.32,-0.375
2021-08-01 04:10:57.544,-0.495,-0.625
2021-08-01 04:10:57.548,-0.62,-0.915
2021-08-01 04:10:57.552,-0.765,-1.19
2021-08-01 04:10:57.556,-0.875,-1.385
2021-08-01 04:10:57.560,-0.9,-1.605
2021-08-01 04:10:57.564,-0.94,-1.84
2021-08-01 04:10:57.584,-0.995,-1.81
2021-08-01 04:10:57.588,-0.93,-1.635
2021-08-01 04:10:57.592,-0.87,-1.525
2021-08-01 04:10:57.596,-0.85,-1.435
2021-08-01 04:10:57.600,-0.81,-1.365
2021-08-01 04:10:57.604,-0.78,-1.33
2021-08-01 04:10:57.608,-0.785,-1.27
2021-08-01 04:10:57.612,-0.75,-1.2
2021-08-01 04:10:57.616,-0.705,-1.1
2021-08-01 04:10:57.620,-0.67,-1.01
2021-08-01 04:10:57.624,-0.625,-0.915
2021-08-01 04:10:57.628,-0.56,-0.815
2021-08-01 04:10:57.632,-0.5,-0.695
2021-08-01 04:10:57.636,-0.48,-0.585
2021-08-01 04:10:57.640,-0.445,-0.48
2021-08-01 04:10:57.644,-0.4,-0.385
2021-08-01 04:10:57.648,-0.36,-0.315
2021-08-01 04:10:57.652,-0.32,-0.255
2021-08-01 04:10:57.656,-0.255,-0.19
2021-08-01 04:10:57.660,-0.205,-0.155
2021-08-01 04:10:57.664,-0.135,-0.1
2021-08-01 04:10:57.668,-0.085,-0.025
2021-08-01 04:10:57.672,-0.06,0.04
2021-08-01 04:10:57.676,-0.04,0.135
2021-08-01 04:10:57.680,-0.03,0.19
2021-08-01 04:10:57.684,-0.02,0.235
2021-08-01 04:10:57.688,-0.01,0.285
2021-08-01 04:10:57.692,-0.005,0.28
2021-08-01 04:10:57.696,0.005,0.3
2021-08-01 04:10:57.700,0.0,0.315
2021-08-01 04:10:57.704,0.0,0.32
2021-08-01 04:10:57.708,0.005,0.315
2021-08-01 04:10:57.712,0.015,0.335
2021-08-01 04:10:57.716,-0.005,0.35
2021-08-01 04:10:57.720,0.015,0.345
2021-08-01 04:10:57.724,0.015,0.355
2021-08-01 04:10:57.728,0.025,0.39
2021-08-01 04:10:57.732,0.02,0.39
2021-08-01 04:10:57.736,0.05,0.44
2021-08-01 04:10:57.740,0.055,0.42
2021-08-01 04:10:57.744,0.055,0.455
2021-08-01 04:10:57.748,0.06,0.45
2021-08-01 04:10:57.752,0.06,0.46
2021-08-01 04:10:57.756,0.08,0.455
2021-08-01 04:10:57.760,0.095,0.485
2021-08-01 04:10:57.764,0.085,0.495
2021-08-01 04:10:57.768,0.095,0.505
2021-08-01 04:10:57.772,0.13,0.505
2021-08-01 04:10:57.776,0.11,0.525
2021-08-01 04:10:57.780,0.115,0.535
2021-08-01 04:10:57.784,0.135,0.52
2021-08-01 04:10:57.788,0.145,0.555
2021-08-01 04:10:57.792,0.135,0.535
2021-08-01 04:10:57.796,0.14,0.55
2021-08-01 04:10:57.800,0.15,0.56
2021-08-01 04:10:57.804,0.155,0.58
2021-08-01 04:10:57.808,0.165,0.57
2021-08-01 04:10:57.812,0.165,0.585
2021-08-01 04:10:57.816,0.16,0.58
2021-08-01 04:10:57.820,0.185,0.58
2021-08-01 04:10:57.824,0.195,0.585
2021-08-01 04:10:57.828,0.205,0.59
2021-08-01 04:10:57.832,0.21,0.59
2021-08-01 04:10:57.836,0.2,0.595
2021-08-01 04:10:57.840,0.22,0.595
2021-08-01 04:10:57.844,0.215,0.57
2021-08-01 04:10:57.848,0.215,0.615
2021-08-01 04:10:57.852,0.21,0.6
2021-08-01 04:10:57.856,0.19,0.6
2021-08-01 04:10:57.860,0.205,0.58
2021-08-01 04:10:57.864,0.195,0.58
2021-08-01 04:10:57.868,0.2,0.58
2021-08-01 04:10:57.872,0.195,0.58
2021-08-01 04:10:57.876,0.205,0.575
2021-08-01 04:10:57.880,0.19,0.555
2021-08-01 04:10:57.884,0.16,0.555
2021-08-01 04:10:57.888,0.15,0.555
2021-08-01 04:10:57.892,0.14,0.54
2021-08-01 04:10:57.896,0.135,0.54
2021-08-01 04:10:57.900,0.095,0.535
2021-08-01 04:10:57.904,0.08,0.52
2021-08-01 04:10:57.908,0.06,0.505
2021-08-01 04:10:57.912,0.055,0.47
2021-08-01 04:10:57.916,0.04,0.47
2021-08-01 04:10:57.920,0.03,0.48
2021-08-01 04:10:57.924,0.02,0.45
2021-08-01 04:10:57.928,0.005,0.45
2021-08-01 04:10:57.932,0.02,0.435
2021-08-01 04:10:57.936,0.005,0.435
2021-08-01 04:10:57.940,-0.015,0.385
2021-08-01 04:10:57.944,-0.005,0.375
2021-08-01 04:10:57.948,-0.025,0.335
2021-08-01 04:10:57.952,-0.03,0.275
2021-08-01 04:10:57.956,-0.03,0.26
2021-08-01 04:10:57.960,-0.065,0.23
2021-08-01 04:10:57.964,-0.075,0.205
2021-08-01 04:10:57.968,-0.08,0.165
2021-08-01 04:10:57.972,-0.08,0.155
2021-08-01 04:10:57.976,-0.12,0.135
2021-08-01 04:10:57.980,-0.13,0.115
2021-08-01 04:10:57.984,-0.14,0.09
2021-08-01 04:10:57.988,-0.155,0.07
2021-08-01 04:10:57.992,-0.145,0.07
2021-08-01 04:10:57.996,-0.14,0.07
2021-08-01 04:10:58.000,-0.135,0.075
2021-08-01 04:10:58.004,-0.13,0.065
2021-08-01 04:10:58.008,-0.15,0.04
2021-08-01 04:10:58.012,-0.15,0.04
2021-08-01 04:10:58.016,-0.14,0.05
2021-08-01 04:10:58.020,-0.145,0.04
2021-08-01 04:10:58.024,-0.175,0.03
2021-08-01 04:10:58.028,-0.175,0.015
2021-08-01 04:10:58.032,-0.175,0.02
2021-08-01 04:10:58.036,-0.18,0.015
2021-08-01 04:10:58.040,-0.18,0.03
2021-08-01 04:10:58.044,-0.17,0.045
2021-08-01 04:10:58.048,-0.18,0.05
2021-08-01 04:10:58.052,-0.2,0.045
2021-08-01 04:10:58.056,-0.17,0.06
2021-08-01 04:10:58.060,-0.195,0.045
2021-08-01 04:10:58.064,-0.175,0.05
2021-08-01 04:10:58.068,-0.18,0.055
2021-08-01 04:10:58.072,-0.195,0.06
2021-08-01 04:10:58.076,-0.175,0.05
2021-08-01 04:10:58.080,-0.18,0.065
2021-08-01 04:10:58.084,-0.215,0.075
2021-08-01 04:10:58.088,-0.21,0.05
2021-08-01 04:10:58.092,-0.185,0.05
2021-08-01 04:10:58.096,-0.195,0.055
2021-08-01 04:10:58.100,-0.185,0.055
2021-08-01 04:10:58.104,-0.175,0.035
2021-08-01 04:10:58.108,-0.185,0.055
2021-08-01 04:10:58.112,-0.175,0.05
2021-08-01 04:10:58.116,-0.175,0.045
2021-08-01 04:10:58.120,-0.195,0.07
2021-08-01 04:10:58.124,-0.19,0.065
2021-08-01 04:10:58.128,-0.205,0.055
2021-08-01 04:10:58.132,-0.195,0.025
2021-08-01 04:10:58.136,-0.19,0.035
2021-08-01 04:10:58.140,-0.195,0.015
2021-08-01 04:10:58.144,-0.2,0.04
2021-08-01 04:10:58.148,-0.22,0.02
2021-08-01 04:10:58.152,-0.205,0.035
2021-08-01 04:10:58.156,-0.21,0.005
2021-08-01 04:10:58.160,-0.22,0.015
2021-08-01 04:10:58.164,-0.245,0.01
2021-08-01 04:10:58.168,-0.27,0.015
2021-08-01 04:10:58.172,-0.27,0.015
2021-08-01 04:10:58.176,-0.275,0.035
2021-08-01 04:10:58.180,-0.285,0.02
2021-08-01 04:10:58.184,-0.28,0.005
2021-08-01 04:10:58.188,-0.27,0.005
2021-08-01 04:10:58.192,-0.29,0.0
2021-08-01 04:10:58.196,-0.31,0.015
2021-08-01 04:10:58.200,-0.31,-0.015
2021-08-01 04:10:58.204,-0.285,0.0
2021-08-01 04:10:58.208,-0.28,-0.01
2021-08-01 04:10:58.212,-0.295,-0.02
2021-08-01 04:10:58.216,-0.29,0.005
2021-08-01 04:10:58.220,-0.295,-0.01
2021-08-01 04:10:58.224,-0.28,0.0
2021-08-01 04:10:58.228,-0.265,-0.005
2021-08-01 04:10:58.232,-0.25,0.005
2021-08-01 04:10:58.236,-0.265,0.0
2021-08-01 04:10:58.240,-0.265,-0.025
2021-08-01 04:10:58.244,-0.24,-0.02
2021-08-01 04:10:58.248,-0.265,-0.03
2021-08-01 04:10:58.252,-0.26,-0.045
2021-08-01 04:10:58.256,-0.26,-0.03
2021-08-01 04:10:58.260,-0.245,-0.05
2021-08-01 04:10:58.264,-0.245,-0.035
2021-08-01 04:10:58.268,-0.225,-0.025
2021-08-01 04:10:58.272,-0.23,-0.02
2021-08-01 04:10:58.276,-0.21,-0.035
2021-08-01 04:10:58.280,-0.22,-0.035
2021-08-01 04:10:58.284,-0.22,-0.035
2021-08-01 04:10:58.288,-0.225,-0.04
2021-08-01 04:10:58.292,-0.215,-0.035
2021-08-01 04:10:58.296,-0.225,-0.03
2021-08-01 04:10:58.300,-0.205,-0.035
2021-08-01 04:10:58.304,-0.2,-0.03
2021-08-01 04:10:58.308,-0.2,-0.045
2021-08-01 04:10:58.312,-0.2,-0.045
2021-08-01 04:10:58.316,-0.205,-0.04
2021-08-01 04:10:58.320,-0.225,-0.05
2021-08-01 04:10:58.324,-0.215,-0.04
2021-08-01 04:10:58.328,-0.23,-0.05
2021-08-01 04:10:58.332,-0.225,-0.04
2021-08-01 04:10:58.336,-0.245,-0.045
2021-08-01 04:10:58.340,-0.22,-0.04
2021-08-01 04:10:58.344,-0.22,-0.045
2021-08-01 04:10:58.348,-0.23,-0.04
2021-08-01 04:10:58.352,-0.23,-0.02
2021-08-01 04:10:58.356,-0.24,-0.025
2021-08-01 04:10:58.360,-0.23,-0.02
2021-08-01 04:10:58.364,-0.235,-0.045
2021-08-01 04:10:58.368,-0.21,-0.03
2021-08-01 04:10:58.372,-0.235,-0.02
2021-08-01 04:10:58.376,-0.25,-0.005
2021-08-01 04:10:58.380,-0.22,-0.04
2021-08-01 04:10:58.384,-0.21,-0.02
2021-08-01 04:10:58.388,-0.205,0.0
2021-08-01 04:10:58.392,-0.205,-0.005
2021-08-01 04:10:58.396,-0.2,-0.01
2021-08-01 04:10:58.400,-0.18,-0.005
2021-08-01 04:10:58.404,-0.19,-0.025
2021-08-01 04:10:58.408,-0.195,-0.02
2021-08-01 04:10:58.412,-0.175,-0.015
2021-08-01 04:10:58.416,-0.19,-0.02
2021-08-01 04:10:58.420,-0.18,-0.02
2021-08-01 04:10:58.424,-0.14,0.0
2021-08-01 04:10:58.428,-0.105,0.025
2021-08-01 04:10:58.432,-0.03,0.055
2021-08-01 04:10:58.436,-0.035,0.095
2021-08-01 04:10:58.440,-0.075,0.05
2021-08-01 04:10:58.444,-0.16,-0.09
2021-08-01 04:10:58.448,-0.24,-0.24
2021-08-01 04:10:58.452,-0.4,-0.385
2021-08-01 04:10:58.456,-0.6,-0.63
2021-08-01 04:10:58.460,-0.725,-0.945
2021-08-01 04:10:58.464,-0.875,-1.205
2021-08-01 04:10:58.468,-0.97,-1.37
2021-08-01 04:10:58.472,-1.02,-1.64
2021-08-01 04:10:58.476,-1.04,-1.935
2021-08-01 04:10:58.492,-1.08,-1.945
2021-08-01 04:10:58.496,-1.04,-1.74
2021-08-01 04:10:58.500,-0.915,-1.575
2021-08-01 04:10:58.504,-0.875,-1.475
2021-08-01 04:10:58.508,-0.84,-1.385
2021-08-01 04:10:58.512,-0.79,-1.345
2021-08-01 04:10:58.516,-0.79,-1.3
2021-08-01 04:10:58.520,-0.79,-1.235
2021-08-01 04:10:58.524,-0.755,-1.14
2021-08-01 04:10:58.528,-0.71,-1.065
2021-08-01 04:10:58.532,-0.65,-0.955
2021-08-01 04:10:58.536,-0.59,-0.855
2021-08-01 04:10:58.540,-0.545,-0.695
2021-08-01 04:10:58.544,-0.5,-0.59
2021-08-01 04:10:58.548,-0.465,-0.475
2021-08-01 04:10:58.552,-0.42,-0.375
2021-08-01 04:10:58.556,-0.385,-0.275
2021-08-01 04:10:58.560,-0.325,-0.215
2021-08-01 04:10:58.564,-0.265,-0.165
2021-08-01 04:10:58.568,-0.205,-0.115
2021-08-01 04:10:58.572,-0.145,-0.085
2021-08-01 04:10:58.576,-0.095,-0.005
2021-08-01 04:10:58.580,-0.065,0.05
2021-08-01 04:10:58.584,-0.035,0.125
2021-08-01 04:10:58.588,-0.015,0.16
2021-08-01 04:10:58.592,-0.015,0.215
2021-08-01 04:10:58.596,-0.01,0.285
2021-08-01 04:10:58.600,0.01,0.27
2021-08-01 04:10:58.604,0.015,0.3
2021-08-01 04:10:58.608,0.02,0.3
2021-08-01 04:10:58.612,0.04,0.3
2021-08-01 04:10:58.616,0.02,0.31
2021-08-01 04:10:58.620,0.025,0.31
2021-08-01 04:10:58.624,0.025,0.305
2021-08-01 04:10:58.628,0.035,0.32
2021-08-01 04:10:58.632,0.045,0.32
2021-08-01 04:10:58.636,0.04,0.325
2021-08-01 04:10:58.640,0.07,0.355
2021-08-01 04:10:58.644,0.07,0.385
2021-08-01 04:10:58.648,0.065,0.375
2021-08-01 04:10:58.652,0.08,0.385
2021-08-01 04:10:58.656,0.08,0.4
2021-08-01 04:10:58.660,0.09,0.4
2021-08-01 04:10:58.664,0.09,0.415
2021-08-01 04:10:58.668,0.105,0.41
2021-08-01 04:10:58.672,0.115,0.415
2021-08-01 04:10:58.676,0.125,0.415
2021-08-01 04:10:58.680,0.12,0.425
2021-08-01 04:10:58.684,0.12,0.42
2021-08-01 04:10:58.688,0.105,0.45
2021-08-01 04:10:58.692,0.115,0.43
2021-08-01 04:10:58.696,0.11,0.43
2021-08-01 04:10:58.700,0.085,0.46
2021-08-01 04:10:58.704,0.1,0.46
2021-08-01 04:10:58.708,0.09,0.475
2021-08-01 04:10:58.712,0.085,0.465
2021-08-01 04:10:58.716,0.095,0.475
2021-08-01 04:10:58.720,0.105,0.48
2021-08-01 04:10:58.724,0.09,0.485
2021-08-01 04:10:58.728,0.07,0.48
2021-08-01 04:10:58.732,0.09,0.465
2021-08-01 04:10:58.736,0.09,0.475
2021-08-01 04:10:58.740,0.095,0.495
2021-08-01 04:10:58.744,0.085,0.495
2021-08-01 04:10:58.748,0.075,0.51
2021-08-01 04:10:58.752,0.06,0.505
2021-08-01 04:10:58.756,0.07,0.52
2021-08-01 04:10:58.760,0.065,0.5
2021-08-01 04:10:58.764,0.07,0.52
2021-08-01 04:10:58.768,0.06,0.51
2021-08-01 04:10:58.772,0.035,0.49
2021-08-01 04:10:58.776,0.045,0.49
2021-08-01 04:10:58.780,0.035,0.5
2021-08-01 04:10:58.784,0.025,0.495
2021-08-01 04:10:58.788,0.015,0.475
2021-08-01 04:10:58.792,0.015,0.465
2021-08-01 04:10:58.796,0.035,0.48
2021-08-01 04:10:58.800,0.05,0.46
2021-08-01 04:10:58.804,0.065,0.465
2021-08-01 04:10:58.808,0.035,0.465
2021-08-01 04:10:58.812,0.035,0.46
2021-08-01 04:10:58.816,0.04,0.455
2021-08-01 04:10:58.820,0.025,0.455
2021-08-01 04:10:58.824,0.015,0.435
2021-08-01 04:10:58.828,0.0,0.405
2021-08-01 04:10:58.832,0.0,0.39
2021-08-01 04:10:58.836,-0.015,0.415
2021-08-01 04:10:58.840,-0.01,0.395
2021-08-01 04:10:58.844,-0.025,0.365
2021-08-01 04:10:58.848,-0.035,0.345
2021-08-01 04:10:58.852,-0.015,0.34
2021-08-01 04:10:58.856,-0.02,0.365
2021-08-01 04:10:58.860,-0.035,0.34
2021-08-01 04:10:58.864,-0.035,0.33
2021-08-01 04:10:58.868,-0.05,0.29
2021-08-01 04:10:58.872,-0.035,0.275
2021-08-01 04:10:58.876,-0.035,0.225
2021-08-01 04:10:58.880,-0.055,0.205
2021-08-01 04:10:58.884,-0.045,0.185
2021-08-01 04:10:58.888,-0.055,0.155
2021-08-01 04:10:58.892,-0.06,0.165
2021-08-01 04:10:58.896,-0.065,0.13
2021-08-01 04:10:58.900,-0.075,0.12
2021-08-01 04:10:58.904,-0.07,0.085
2021-08-01 04:10:58.908,-0.08,0.07
2021-08-01 04:10:58.912,-0.095,0.08
2021-08-01 04:10:58.916,-0.095,0.055
2021-08-01 04:10:58.920,-0.11,0.055
2021-08-01 04:10:58.924,-0.145,0.035
2021-08-01 04:10:58.928,-0.16,0.035
2021-08-01 04:10:58.932,-0.155,0.065
2021-08-01 04:10:58.936,-0.18,0.04
2021-08-01 04:10:58.940,-0.17,0.045
2021-08-01 04:10:58.944,-0.19,0.025
2021-08-01 04:10:58.948,-0.205,0.015
2021-08-01 04:10:58.952,-0.22,0.02
2021-08-01 04:10:58.956,-0.205,0.025
2021-08-01 04:10:58.960,-0.205,0.04
2021-08-01 04:10:58.964,-0.215,0.04
2021-08-01 04:10:58.968,-0.22,0.025
2021-08-01 04:10:58.972,-0.225,0.04
2021-08-01 04:10:58.976,-0.22,0.035
2021-08-01 04:10:58.980,-0.215,0.05
2021-08-01 04:10:58.984,-0.245,0.025
2021-08-01 04:10:58.988,-0.23,0.045
2021-08-01 04:10:58.992,-0.25,0.02
2021-08-01 04:10:58.996,-0.26,0.03
2021-08-01 04:10:59.000,-0.235,0.025
2021-08-01 04:10:59.004,-0.23,0.025
2021-08-01 04:10:59.008,-0.25,0.015
2021-08-01 04:10:59.012,-0.265,0.03
2021-08-01 04:10:59.016,-0.28,0.035
2021-08-01 04:10:59.020,-0.27,0.025
2021-08-01 04:10:59.024,-0.285,0.005
2021-08-01 04:10:59.028,-0.275,0.01
2021-08-01 04:10:59.032,-0.285,0.0
2021-08-01 04:10:59.036,-0.305,-0.01
2021-08-01 04:10:59.040,-0.3,-0.01
2021-08-01 04:10:59.044,-0.305,-0.025
2021-08-01 04:10:59.048,-0.315,-0.03
2021-08-01 04:10:59.052,-0.325,-0.02
2021-08-01 04:10:59.056,-0.31,-0.04
2021-08-01 04:10:59.060,-0.31,-0.03
2021-08-01 04:10:59.064,-0.295,0.0
2021-08-01 04:10:59.068,-0.28,0.005
2021-08-01 04:10:59.072,-0.285,-0.005
2021-08-01 04:10:59.076,-0.285,-0.01
2021-08-01 04:10:59.080,-0.275,0.015
2021-08-01 04:10:59.084,-0.28,-0.015
2021-08-01 04:10:59.088,-0.275,-0.005
2021-08-01 04:10:59.092,-0.29,-0.005
2021-08-01 04:10:59.096,-0.3,-0.015
2021-08-01 04:10:59.100,-0.29,-0.005
2021-08-01 04:10:59.104,-0.275,0.005
2021-08-01 04:10:59.108,-0.28,0.0
2021-08-01 04:10:59.112,-0.285,-0.01
2021-08-01 04:10:59.116,-0.295,0.0
2021-08-01 04:10:59.120,-0.28,-0.03
2021-08-01 04:10:59.124,-0.27,-0.015
2021-08-01 04:10:59.128,-0.265,-0.005
2021-08-01 04:10:59.132,-0.275,-0.01
2021-08-01 04:10:59.136,-0.265,-0.01
2021-08-01 04:10:59.140,-0.26,-0.01
2021-08-01 04:10:59.144,-0.27,0.0
2021-08-01 04:10:59.148,-0.255,0.015
2021-08-01 04:10:59.152,-0.26,0.03
2021-08-01 04:10:59.156,-0.235,0.04
2021-08-01 04:10:59.160,-0.225,0.015
2021-08-01 04:10:59.164,-0.23,0.04
2021-08-01 04:10:59.168,-0.215,0.05
2021-08-01 04:10:59.172,-0.185,0.06
2021-08-01 04:10:59.176,-0.195,0.045
2021-08-01 04:10:59.180,-0.215,0.06
2021-08-01 04:10:59.184,-0.19,0.075
2021-08-01 04:10:59.188,-0.19,0.055
2021-08-01 04:10:59.192,-0.195,0.065
2021-08-01 04:10:59.196,-0.215,0.055
2021-08-01 04:10:59.200,-0.205,0.045
2021-08-01 04:10:59.204,-0.21,0.03
2021-08-01 04:10:59.208,-0.23,0.02
2021-08-01 04:10:59.212,-0.235,0.005
2021-08-01 04:10:59.216,-0.245,0.0
2021-08-01 04:10:59.220,-0.21,-0.02
2021-08-01 04:10:59.224,-0.24,-0.02
2021-08-01 04:10:59.228,-0.24,-0.02
2021-08-01 04:10:59.232,-0.265,-0.02
2021-08-01 04:10:59.236,-0.245,-0.03
2021-08-01 04:10:59.240,-0.255,-0.035
2021-08-01 04:10:59.244,-0.26,-0.04
2021-08-01 04:10:59.248,-0.285,-0.045
2021-08-01 04:10:59.252,-0.305,-0.07
2021-08-01 04:10:59.256,-0.285,-0.06
2021-08-01 04:10:59.260,-0.32,-0.055
2021-08-01 04:10:59.264,-0.315,-0.04
2021-08-01 04:10:59.268,-0.305,-0.06
2021-08-01 04:10:59.272,-0.32,-0.07
2021-08-01 04:10:59.276,-0.315,-0.06
2021-08-01 04:10:59.280,-0.325,-0.07
2021-08-01 04:10:59.284,-0.31,-0.07
2021-08-01 04:10:59.288,-0.335,-0.065
2021-08-01 04:10:59.292,-0.31,-0.09
2021-08-01 04:10:59.296,-0.315,-0.065
2021-08-01 04:10:59.300,-0.32,-0.08
2021-08-01 04:10:59.304,-0.33,-0.08
2021-08-01 04:10:59.308,-0.33,-0.08
2021-08-01 04:10:59.312,-0.34,-0.065
2021-08-01 04:10:59.316,-0.335,-0.09
2021-08-01 04:10:59.320,-0.31,-0.08
2021-08-01 04:10:59.324,-0.3,-0.055
2021-08-01 04:10:59.328,-0.305,-0.05
2021-08-01 04:10:59.332,-0.28,-0.04
2021-08-01 04:10:59.336,-0.29,-0.05
2021-08-01 04:10:59.340,-0.29,-0.03
2021-08-01 04:10:59.344,-0.28,-0.055
2021-08-01 04:10:59.348,-0.285,-0.055
2021-08-01 04:10:59.352,-0.29,-0.045
2021-08-01 04:10:59.356,-0.295,-0.045
2021-08-01 04:10:59.360,-0.28,-0.04
2021-08-01 04:10:59.364,-0.305,-0.035
2021-08-01 04:10:59.368,-0.29,-0.04
2021-08-01 04:10:59.372,-0.285,-0.045
2021-08-01 04:10:59.376,-0.28,-0.03
2021-08-01 04:10:59.380,-0.27,-0.015
2021-08-01 04:10:59.384,-0.275,-0.035
2021-08-01 04:10:59.388,-0.265,-0.03
2021-08-01 04:10:59.392,-0.25,-0.025
2021-08-01 04:10:59.396,-0.23,-0.03
2021-08-01 04:10:59.400,-0.175,-0.02
2021-08-01 04:10:59.404,-0.08,0.02
2021-08-01 04:10:59.408,-0.05,0.07
2021-08-01 04:10:59.412,-0.105,0.04
2021-08-01 04:10:59.416,-0.165,-0.085
2021-08-01 04:10:59.420,-0.2,-0.24
2021-08-01 04:10:59.424,-0.33,-0.37
2021-08-01 04:10:59.428,-0.475,-0.6
2021-08-01 04:10:59.432,-0.65,-0.875
2021-08-01 04:10:59.436,-0.78,-1.145
2021-08-01 04:10:59.440,-0.91,-1.315
2021-08-01 04:10:59.444,-0.93,-1.52
2021-08-01 04:10:59.448,-0.975,-1.74
2021-08-01 04:10:59.452,-1.015,-1.975
2021-08-01 04:10:59.464,-1.09,-1.975
2021-08-01 04:10:59.468,-1.03,-1.765
2021-08-01 04:10:59.472,-0.95,-1.56
2021-08-01 04:10:59.476,-0.91,-1.44
2021-08-01 04:10:59.480,-0.865,-1.35
2021-08-01 04:10:59.484,-0.815,-1.32
2021-08-01 04:10:59.488,-0.765,-1.26
2021-08-01 04:10:59.492,-0.77,-1.2
2021-08-01 04:10:59.496,-0.73,-1.12
2021-08-01 04:10:59.500,-0.69,-1.02
2021-08-01 04:10:59.504,-0.63,-0.955
2021-08-01 04:10:59.508,-0.575,-0.855
2021-08-01 04:10:59.512,-0.52,-0.745
2021-08-01 04:10:59.516,-0.48,-0.635
2021-08-01 04:10:59.520,-0.46,-0.54
2021-08-01 04:10:59.524,-0.44,-0.445
2021-08-01 04:10:59.528,-0.375,-0.35
2021-08-01 04:10:59.532,-0.35,-0.27
2021-08-01 04:10:59.536,-0.3,-0.22
2021-08-01 04:10:59.540,-0.255,-0.165
2021-08-01 04:10:59.544,-0.17,-0.12
2021-08-01 04:10:59.548,-0.14,-0.06
2021-08-01 04:10:59.552,-0.105,0.02
2021-08-01 04:10:59.556,-0.095,0.095
2021-08-01 04:10:59.560,-0.095,0.13
2021-08-01 04:10:59.564,-0.08,0.19
2021-08-01 04:10:59.568,-0.09,0.22
2021-08-01 04:10:59.572,-0.095,0.23
2021-08-01 04:10:59.576,-0.065,0.26
2021-08-01 04:10:59.580,-0.05,0.275
2021-08-01 04:10:59.584,-0.045,0.29
2021-08-01 04:10:59.588,-0.03,0.315
2021-08-01 04:10:59.592,-0.03,0.315
2021-08-01 04:10:59.596,-0.03,0.32
2021-08-01 04:10:59.600,-0.02,0.315
2021-08-01 04:10:59.604,-0.005,0.34
2021-08-01 04:10:59.608,-0.02,0.355
2021-08-01 04:10:59.612,-0.01,0.365
2021-08-01 04:10:59.616,-0.025,0.36
2021-08-01 04:10:59.620,-0.005,0.385
2021-08-01 04:10:59.624,-0.015,0.395
2021-08-01 04:10:59.628,0.0,0.38
2021-08-01 04:10:59.632,0.0,0.415
2021-08-01 04:10:59.636,0.03,0.4
2021-08-01 04:10:59.640,0.04,0.415
2021-08-01 04:10:59.644,0.02,0.41
2021-08-01 04:10:59.648,0.035,0.415
2021-08-01 04:10:59.652,0.055,0.425
2021-08-01 04:10:59.656,0.045,0.435
2021-08-01 04:10:59.660,0.06,0.47
2021-08-01 04:10:59.664,0.055,0.47
2021-08-01 04:10:59.668,0.065,0.47
2021-08-01 04:10:59.672,0.065,0.47
2021-08-01 04:10:59.676,0.07,0.475
2021-08-01 04:10:59.680,0.055,0.49
2021-08-01 04:10:59.684,0.095,0.475
2021-08-01 04:10:59.688,0.07,0.495
2021-08-01 04:10:59.692,0.11,0.515
2021-08-01 04:10:59.696,0.095,0.51
2021-08-01 04:10:59.700,0.105,0.505
2021-08-01 04:10:59.704,0.13,0.495
2021-08-01 04:10:59.708,0.13,0.515
2021-08-01 04:10:59.712,0.12,0.525
2021-08-01 04:10:59.716,0.13,0.52
2021-08-01 04:10:59.720,0.12,0.53
2021-08-01 04:10:59.724,0.15,0.53
2021-08-01 04:10:59.728,0.115,0.53
2021-08-01 04:10:59.732,0.11,0.515
2021-08-01 04:10:59.736,0.115,0.545
2021-08-01 04:10:59.740,0.095,0.52
2021-08-01 04:10:59.744,0.075,0.565
2021-08-01 04:10:59.748,0.09,0.52
2021-08-01 04:10:59.752,0.085,0.52
2021-08-01 04:10:59.756,0.085,0.51
2021-08-01 04:10:59.760,0.075,0.505
2021-08-01 04:10:59.764,0.06,0.515
2021-08-01 04:10:59.768,0.07,0.51
2021-08-01 04:10:59.772,0.055,0.515
2021-08-01 04:10:59.776,0.055,0.505
2021-08-01 04:10:59.780,0.055,0.475
2021-08-01 04:10:59.784,0.055,0.485
2021-08-01 04:10:59.788,0.06,0.455
2021-08-01 04:10:59.792,0.045,0.44
2021-08-01 04:10:59.796,0.055,0.415
2021-08-01 04:10:59.800,0.035,0.39
2021-08-01 04:10:59.804,0.0,0.36
2021-08-01 04:10:59.808,-0.005,0.34
2021-08-01 04:10:59.812,-0.005,0.34
2021-08-01 04:10:59.816,-0.03,0.295
2021-08-01 04:10:59.820,-0.03,0.24
2021-08-01 04:10:59.824,-0.075,0.265
2021-08-01 04:10:59.828,-0.095,0.23
2021-08-01 04:10:59.832,-0.09,0.21
2021-08-01 04:10:59.836,-0.1,0.195
2021-08-01 04:10:59.840,-0.07,0.2
2021-08-01 04:10:59.844,-0.08,0.205
2021-08-01 04:10:59.848,-0.065,0.18
2021-08-01 04:10:59.852,-0.105,0.16
2021-08-01 04:10:59.856,-0.095,0.15
2021-08-01 04:10:59.860,-0.11,0.15
2021-08-01 04:10:59.864,-0.12,0.115
2021-08-01 04:10:59.868,-0.115,0.125
2021-08-01 04:10:59.872,-0.135,0.09
2021-08-01 04:10:59.876,-0.14,0.1
2021-08-01 04:10:59.880,-0.14,0.085
2021-08-01 04:10:59.884,-0.17,0.07
2021-08-01 04:10:59.888,-0.165,0.075
2021-08-01 04:10:59.892,-0.175,0.065
2021-08-01 04:10:59.896,-0.18,0.08
2021-08-01 04:10:59.900,-0.18,0.07
2021-08-01 04:10:59.904,-0.185,0.065
2021-08-01 04:10:59.908,-0.19,0.07
2021-08-01 04:10:59.912,-0.18,0.05
2021-08-01 04:10:59.916,-0.205,0.055
2021-08-01 04:10:59.920,-0.195,0.045
2021-08-01 04:10:59.924,-0.195,0.03
2021-08-01 04:10:59.928,-0.2,0.065
2021-08-01 04:10:59.932,-0.195,0.065
2021-08-01 04:10:59.936,-0.195,0.05
2021-08-01 04:10:59.940,-0.195,0.06
2021-08-01 04:10:59.944,-0.195,0.05
2021-08-01 04:10:59.948,-0.19,0.06
2021-08-01 04:10:59.952,-0.19,0.06
2021-08-01 04:10:59.956,-0.19,0.05
2021-08-01 04:10:59.960,-0.195,0.075
2021-08-01 04:10:59.964,-0.205,0.06
2021-08-01 04:10:59.968,-0.195,0.07
2021-08-01 04:10:59.972,-0.19,0.105
2021-08-01 04:10:59.976,-0.175,0.07
2021-08-01 04:10:59.980,-0.18,0.09
2021-08-01 04:10:59.984,-0.185,0.075
2021-08-01 04:10:59.988,-0.21,0.09
2021-08-01 04:10:59.992,-0.21,0.09
2021-08-01 04:10:59.996,-0.2,0.095
2021-08-01 04:11:00.000,-0.22,0.09
2021-08-01 04:11:00.004,-0.225,0.07
2021-08-01 04:11:00.008,-0.24,0.07
2021-08-01 04:11:00.012,-0.245,0.045
2021-08-01 04:11:00.016,-0.23,0.055
2021-08-01 04:11:00.020,-0.235,0.05
2021-08-01 04:11:00.024,-0.26,0.06
2021-08-01 04:11:00.028,-0.255,0.065
2021-08-01 04:11:00.032,-0.25,0.07
2021-08-01 04:11:00.036,-0.25,0.035
2021-08-01 04:11:00.040,-0.245,0.045
2021-08-01 04:11:00.044,-0.24,0.035
2021-08-01 04:11:00.048,-0.24,0.06
2021-08-01 04:11:00.052,-0.24,0.045
2021-08-01 04:11:00.056,-0.245,0.035
2021-08-01 04:11:00.060,-0.24,0.025
2021-08-01 04:11:00.064,-0.225,0.035
2021-08-01 04:11:00.068,-0.235,0.0
2021-08-01 04:11:00.072,-0.225,0.01
2021-08-01 04:11:00.076,-0.245,0.0
2021-08-01 04:11:00.080,-0.27,0.01
2021-08-01 04:11:00.084,-0.265,-0.015
2021-08-01 04:11:00.088,-0.25,0.0
2021-08-01 04:11:00.092,-0.275,-0.04
2021-08-01 04:11:00.096,-0.29,-0.045
2021-08-01 04:11:00.100,-0.28,-0.05
2021-08-01 04:11:00.104,-0.27,-0.05
2021-08-01 04:11:00.108,-0.25,-0.055
2021-08-01 04:11:00.112,-0.245,-0.05
2021-08-01 04:11:00.116,-0.235,-0.03
2021-08-01 04:11:00.120,-0.23,-0.02
2021-08-01 04:11:00.124,-0.24,-0.035
2021-08-01 04:11:00.128,-0.25,-0.03
2021-08-01 04:11:00.132,-0.25,-0.035
2021-08-01 04:11:00.136,-0.24,-0.035
2021-08-01 04:11:00.140,-0.24,-0.04
2021-08-01 04:11:00.144,-0.23,-0.03
2021-08-01 04:11:00.148,-0.265,-0.04
2021-08-01 04:11:00.152,-0.26,-0.05
2021-08-01 04:11:00.156,-0.265,-0.05
2021-08-01 04:11:00.160,-0.255,-0.05
2021-08-01 04:11:00.164,-0.25,-0.04
2021-08-01 04:11:00.168,-0.255,-0.005
2021-08-01 04:11:00.172,-0.265,-0.025
2021-08-01 04:11:00.176,-0.265,-0.035
2021-08-01 04:11:00.180,-0.28,-0.04
2021-08-01 04:11:00.184,-0.27,-0.04
2021-08-01 04:11:00.188,-0.28,-0.035
2021-08-01 04:11:00.192,-0.26,-0.035
2021-08-01 04:11:00.196,-0.27,-0.01
2021-08-01 04:11:00.200,-0.245,-0.015
2021-08-01 04:11:00.204,-0.28,0.0
2021-08-01 04:11:00.208,-0.275,-0.01
2021-08-01 04:11:00.212,-0.295,-0.035
2021-08-01 04:11:00.216,-0.29,-0.02
2021-08-01 04:11:00.220,-0.27,-0.01
2021-08-01 04:11:00.224,-0.275,-0.015
2021-08-01 04:11:00.228,-0.28,-0.02
2021-08-01 04:11:00.232,-0.27,-0.005
2021-08-01 04:11:00.236,-0.26,0.01
2021-08-01 04:11:00.240,-0.25,0.02
2021-08-01 04:11:00.244,-0.235,0.01
2021-08-01 04:11:00.248,-0.24,0.0
2021-08-01 04:11:00.252,-0.24,-0.005
2021-08-01 04:11:00.256,-0.245,-0.01
2021-08-01 04:11:00.260,-0.25,0.02
2021-08-01 04:11:00.264,-0.265,0.035
2021-08-01 04:11:00.268,-0.265,0.03
2021-08-01 04:11:00.272,-0.25,0.03
2021-08-01 04:11:00.276,-0.27,0.035
2021-08-01 04:11:00.280,-0.275,0.025
2021-08-01 04:11:00.284,-0.275,0.03
2021-08-01 04:11:00.288,-0.275,0.035
2021-08-01 04:11:00.292,-0.265,0.02
2021-08-01 04:11:00.296,-0.28,0.015
2021-08-01 04:11:00.300,-0.275,0.03
2021-08-01 04:11:00.304,-0.26,0.04
2021-08-01 04:11:00.308,-0.255,0.04
2021-08-01 04:11:00.312,-0.265,0.02
2021-08-01 04:11:00.316,-0.255,0.02
2021-08-01 04:11:00.320,-0.24,0.025
2021-08-01 04:11:00.324,-0.265,0.02
2021-08-01 04:11:00.328,-0.25,0.035
2021-08-01 04:11:00.332,-0.25,0.04
2021-08-01 04:11:00.336,-0.23,0.015
2021-08-01 04:11:00.340,-0.245,0.01
2021-08-01 04:11:00.344,-0.245,0.005
2021-08-01 04:11:00.348,-0.245,-0.005
2021-08-01 04:11:00.352,-0.23,-0.02
2021-08-01 04:11:00.356,-0.245,-0.01
2021-08-01 04:11:00.360,-0.24,-0.02
2021-08-01 04:11:00.364,-0.235,-0.05
2021-08-01 04:11:00.368,-0.205,-0.045
2021-08-01 04:11:00.372,-0.14,-0.01
2021-08-01 04:11:00.376,-0.06,-0.025
2021-08-01 04:11:00.380,-0.035,0.03
2021-08-01 04:11:00.384,-0.055,0.005
2021-08-01 04:11:00.388,-0.105,-0.125
2021-08-01 04:11:00.392,-0.21,-0.26
2021-08-01 04:11:00.396,-0.375,-0.44
2021-08-01 04:11:00.400,-0.545,-0.67
2021-08-01 04:11:00.404,-0.7,-0.96
2021-08-01 04:11:00.408,-0.835,-1.18
2021-08-01 04:11:00.412,-0.9,-1.415
2021-08-01 04:11:00.416,-0.93,-1.64
2021-08-01 04:11:00.420,-0.925,-1.83
2021-08-01 04:11:00.436,-1.02,-1.92
2021-08-01 04:11:00.440,-0.95,-1.765
2021-08-01 04:11:00.444,-0.89,-1.635
2021-08-01 04:11:00.448,-0.85,-1.52
2021-08-01 04:11:00.452,-0.82,-1.46
2021-08-01 04:11:00.456,-0.77,-1.38
2021-08-01 04:11:00.460,-0.78,-1.335
2021-08-01 04:11:00.464,-0.75,-1.26
2021-08-01 04:11:00.468,-0.715,-1.17
2021-08-01 04:11:00.472,-0.69,-1.07
2021-08-01 04:11:00.476,-0.66,-0.995
2021-08-01 04:11:00.480,-0.605,-0.905
2021-08-01 04:11:00.484,-0.57,-0.8
2021-08-01 04:11:00.488,-0.525,-0.65
2021-08-01 04:11:00.492,-0.515,-0.55
2021-08-01 04:11:00.496,-0.505,-0.475
2021-08-01 04:11:00.500,-0.465,-0.39
2021-08-01 04:11:00.504,-0.4,-0.275
2021-08-01 04:11:00.508,-0.34,-0.215
2021-08-01 04:11:00.512,-0.305,-0.14
2021-08-01 04:11:00.516,-0.22,-0.1
2021-08-01 04:11:00.520,-0.14,-0.03
2021-08-01 04:11:00.524,-0.105,0.035
2021-08-01 04:11:00.528,-0.08,0.145
2021-08-01 04:11:00.532,-0.055,0.195
2021-08-01 04:11:00.536,-0.025,0.27
2021-08-01 04:11:00.540,-0.03,0.315
2021-08-01 04:11:00.544,-0.025,0.345
2021-08-01 04:11:00.548,-0.02,0.38
2021-08-01 04:11:00.552,-0.005,0.385
2021-08-01 04:11:00.556,-0.02,0.395
2021-08-01 04:11:00.560,-0.035,0.395
2021-08-01 04:11:00.564,-0.02,0.44
2021-08-01 04:11:00.568,-0.01,0.44
2021-08-01 04:11:00.572,-0.03,0.425
2021-08-01 04:11:00.576,-0.04,0.435
2021-08-01 04:11:00.580,-0.035,0.465
2021-08-01 04:11:00.584,-0.015,0.445
2021-08-01 04:11:00.588,-0.005,0.475
2021-08-01 04:11:00.592,-0.005,0.49
2021-08-01 04:11:00.596,0.0,0.495
2021-08-01 04:11:00.600,-0.005,0.475
2021-08-01 04:11:00.604,0.02,0.49
2021-08-01 04:11:00.608,0.015,0.495
2021-08-01 04:11:00.612,0.0,0.49
2021-08-01 04:11:00.616,0.015,0.49
2021-08-01 04:11:00.620,0.01,0.505
2021-08-01 04:11:00.624,0.01,0.5
2021-08-01 04:11:00.628,0.005,0.515
2021-08-01 04:11:00.632,0.0,0.535
2021-08-01 04:11:00.636,0.015,0.515
2021-08-01 04:11:00.640,0.05,0.54
2021-08-01 04:11:00.644,0.08,0.55
2021-08-01 04:11:00.648,0.095,0.58
2021-08-01 04:11:00.652,0.115,0.59
2021-08-01 04:11:00.656,0.13,0.59
2021-08-01 04:11:00.660,0.16,0.58
2021-08-01 04:11:00.664,0.15,0.57
2021-08-01 04:11:00.668,0.15,0.545
2021-08-01 04:11:00.672,0.175,0.555
2021-08-01 04:11:00.676,0.16,0.555
2021-08-01 04:11:00.680,0.17,0.555
2021-08-01 04:11:00.684,0.19,0.54
2021-08-01 04:11:00.688,0.19,0.555
2021-08-01 04:11:00.692,0.155,0.54
2021-08-01 04:11:00.696,0.18,0.525
2021-08-01 04:11:00.700,0.16,0.55
2021-08-01 04:11:00.704,0.15,0.555
2021-08-01 04:11:00.708,0.165,0.54
2021-08-01 04:11:00.712,0.155,0.535
2021-08-01 04:11:00.716,0.165,0.525
2021-08-01 04:11:00.720,0.175,0.495
2021-08-01 04:11:00.724,0.17,0.49
2021-08-01 04:11:00.728,0.155,0.495
2021-08-01 04:11:00.732,0.17,0.49
2021-08-01 04:11:00.736,0.13,0.455
2021-08-01 04:11:00.740,0.14,0.49
2021-08-01 04:11:00.744,0.135,0.455
2021-08-01 04:11:00.748,0.13,0.445
2021-08-01 04:11:00.752,0.12,0.455
2021-08-01 04:11:00.756,0.105,0.435
2021-08-01 04:11:00.760,0.115,0.44
2021-08-01 04:11:00.764,0.11,0.43
2021-08-01 04:11:00.768,0.09,0.43
2021-08-01 04:11:00.772,0.075,0.415
2021-08-01 04:11:00.776,0.07,0.415
2021-08-01 04:11:00.780,0.045,0.39
2021-08-01 04:11:00.784,0.05,0.36
2021-08-01 04:11:00.788,0.05,0.375
2021-08-01 04:11:00.792,0.03,0.35
2021-08-01 04:11:00.796,0.03,0.335
2021-08-01 04:11:00.800,0.015,0.325
2021-08-01 04:11:00.804,-0.005,0.315
2021-08-01 04:11:00.808,-0.005,0.305
2021-08-01 04:11:00.812,-0.005,0.31
2021-08-01 04:11:00.816,-0.015,0.29
2021-08-01 04:11:00.820,0.0,0.28
2021-08-01 04:11:00.824,-0.03,0.265
2021-08-01 04:11:00.828,-0.045,0.275
2021-08-01 04:11:00.832,-0.055,0.255
2021-08-01 04:11:00.836,-0.1,0.235
2021-08-01 04:11:00.840,-0.115,0.23
2021-08-01 04:11:00.844,-0.15,0.225
2021-08-01 04:11:00.848,-0.145,0.185
2021-08-01 04:11:00.852,-0.17,0.215
2021-08-01 04:11:00.856,-0.17,0.19
2021-08-01 04:11:00.860,-0.175,0.18
2021-08-01 04:11:00.864,-0.195,0.175
2021-08-01 04:11:00.868,-0.2,0.185
2021-08-01 04:11:00.872,-0.215,0.175
2021-08-01 04:11:00.876,-0.21,0.155
2021-08-01 04:11:00.880,-0.195,0.16
2021-08-01 04:11:00.884,-0.205,0.15
2021-08-01 04:11:00.888,-0.21,0.175
2021-08-01 04:11:00.892,-0.21,0.16
2021-08-01 04:11:00.896,-0.205,0.14
2021-08-01 04:11:00.900,-0.25,0.155
2021-08-01 04:11:00.904,-0.225,0.125
2021-08-01 04:11:00.908,-0.245,0.125
2021-08-01 04:11:00.912,-0.255,0.125
2021-08-01 04:11:00.916,-0.22,0.155
2021-08-01 04:11:00.920,-0.205,0.125
2021-08-01 04:11:00.924,-0.205,0.135
2021-08-01 04:11:00.928,-0.195,0.13
2021-08-01 04:11:00.932,-0.2,0.155
2021-08-01 04:11:00.936,-0.215,0.135
2021-08-01 04:11:00.940,-0.175,0.15
2021-08-01 04:11:00.944,-0.19,0.115
2021-08-01 04:11:00.948,-0.195,0.11
2021-08-01 04:11:00.952,-0.195,0.12
2021-08-01 04:11:00.956,-0.195,0.12
2021-08-01 04:11:00.960,-0.2,0.115
2021-08-01 04:11:00.964,-0.2,0.115
2021-08-01 04:11:00.968,-0.19,0.115
2021-08-01 04:11:00.972,-0.21,0.105
2021-08-01 04:11:00.976,-0.215,0.105
2021-08-01 04:11:00.980,-0.22,0.1
2021-08-01 04:11:00.984,-0.23,0.1
2021-08-01 04:11:00.988,-0.245,0.085
2021-08-01 04:11:00.992,-0.23,0.075
2021-08-01 04:11:00.996,-0.26,0.085
2021-08-01 04:11:01.000,-0.25,0.065
2021-08-01 04:11:01.004,-0.255,0.075
2021-08-01 04:11:01.008,-0.25,0.075
2021-08-01 04:11:01.012,-0.265,0.065
2021-08-01 04:11:01.016,-0.25,0.07
2021-08-01 04:11:01.020,-0.25,0.065
2021-08-01 04:11:01.024,-0.22,0.075
2021-08-01 04:11:01.028,-0.23,0.07
2021-08-01 04:11:01.032,-0.215,0.07
2021-08-01 04:11:01.036,-0.195,0.04
2021-08-01 04:11:01.040,-0.2,0.04
2021-08-01 04:11:01.044,-0.195,0.06
2021-08-01 04:11:01.048,-0.22,0.035
2021-08-01 04:11:01.052,-0.19,0.025
2021-08-01 04:11:01.056,-0.19,0.035
2021-08-01 04:11:01.060,-0.2,0.005
2021-08-01 04:11:01.064,-0.195,0.0
2021-08-01 04:11:01.068,-0.185,0.005
2021-08-01 04:11:01.072,-0.21,0.0
2021-08-01 04:11:01.076,-0.21,0.005
2021-08-01 04:11:01.080,-0.215,0.0
2021-08-01 04:11:01.084,-0.195,0.005
2021-08-01 04:11:01.088,-0.195,0.01
2021-08-01 04:11:01.092,-0.205,-0.005
2021-08-01 04:11:01.096,-0.205,-0.025
2021-08-01 04:11:01.100,-0.185,0.0
2021-08-01 04:11:01.104,-0.175,0.025
2021-08-01 04:11:01.108,-0.185,0.0
2021-08-01 04:11:01.112,-0.195,0.01
2021-08-01 04:11:01.116,-0.18,0.01
2021-08-01 04:11:01.120,-0.195,0.025
2021-08-01 04:11:01.124,-0.21,0.025
2021-08-01 04:11:01.128,-0.195,0.035
2021-08-01 04:11:01.132,-0.195,0.03
2021-08-01 04:11:01.136,-0.215,0.015
2021-08-01 04:11:01.140,-0.215,0.04
2021-08-01 04:11:01.144,-0.245,0.035
2021-08-01 04:11:01.148,-0.24,0.015
2021-08-01 04:11:01.152,-0.24,0.01
2021-08-01 04:11:01.156,-0.265,0.0
2021-08-01 04:11:01.160,-0.255,-0.005
2021-08-01 04:11:01.164,-0.25,-0.005
2021-08-01 04:11:01.168,-0.26,-0.005
2021-08-01 04:11:01.172,-0.255,-0.035
2021-08-01 04:11:01.176,-0.27,-0.01
2021-08-01 04:11:01.180,-0.285,-0.015
2021-08-01 04:11:01.184,-0.285,-0.02
2021-08-01 04:11:01.188,-0.245,0.005
2021-08-01 04:11:01.192,-0.255,-0.015
2021-08-01 04:11:01.196,-0.185,-0.005
2021-08-01 04:11:01.200,-0.125,0.015
2021-08-01 04:11:01.204,-0.05,0.045
2021-08-01 04:11:01.208,-0.04,0.09
2021-08-01 04:11:01.212,-0.115,0.055
2021-08-01 04:11:01.216,-0.17,-0.065
2021-08-01 04:11:01.220,-0.255,-0.23
2021-08-01 04:11:01.224,-0.41,-0.37
2021-08-01 04:11:01.228,-0.585,-0.635
2021-08-01 04:11:01.232,-0.725,-0.94
2021-08-01 04:11:01.236,-0.83,-1.19
2021-08-01 04:11:01.240,-0.925,-1.385
2021-08-01 04:11:01.244,-0.98,-1.61
2021-08-01 04:11:01.248,-1.035,-1.9
2021-08-01 04:11:01.268,-1.065,-1.89
2021-08-01 04:11:01.272,-0.995,-1.715
2021-08-01 04:11:01.276,-0.935,-1.555
2021-08-01 04:11:01.280,-0.91,-1.465
2021-08-01 04:11:01.284,-0.84,-1.415
2021-08-01 04:11:01.288,-0.82,-1.365
2021-08-01 04:11:01.292,-0.81,-1.305
2021-08-01 04:11:01.296,-0.785,-1.235
2021-08-01 04:11:01.300,-0.77,-1.135
2021-08-01 04:11:01.304,-0.73,-1.06
2021-08-01 04:11:01.308,-0.685,-0.955
2021-08-01 04:11:01.312,-0.63,-0.845
2021-08-01 04:11:01.316,-0.57,-0.73
2021-08-01 04:11:01.320,-0.525,-0.625
2021-08-01 04:11:01.324,-0.47,-0.505
2021-08-01 04:11:01.328,-0.445,-0.395
2021-08-01 04:11:01.332,-0.39,-0.32
2021-08-01 04:11:01.336,-0.355,-0.24
2021-08-01 04:11:01.340,-0.275,-0.165
2021-08-01 04:11:01.344,-0.22,-0.1
2021-08-01 04:11:01.348,-0.15,-0.03
2021-08-01 04:11:01.352,-0.105,0.06
2021-08-01 04:11:01.356,-0.1,0.125
2021-08-01 04:11:01.360,-0.055,0.215
2021-08-01 04:11:01.364,-0.035,0.285
2021-08-01 04:11:01.368,-0.02,0.32
2021-08-01 04:11:01.372,-0.005,0.35
2021-08-01 04:11:01.376,-0.02,0.375
2021-08-01 04:11:01.380,0.03,0.405
2021-08-01 04:11:01.384,0.045,0.425
2021-08-01 04:11:01.388,0.085,0.46
2021-08-01 04:11:01.392,0.105,0.455
2021-08-01 04:11:01.396,0.11,0.48
2021-08-01 04:11:01.400,0.135,0.46
2021-08-01 04:11:01.404,0.15,0.48
2021-08-01 04:11:01.408,0.165,0.5
2021-08-01 04:11:01.412,0.19,0.485
2021-08-01 04:11:01.416,0.215,0.48
2021-08-01 04:11:01.420,0.215,0.485
2021-08-01 04:11:01.424,0.215,0.495
2021-08-01 04:11:01.428,0.235,0.5
2021-08-01 04:11:01.432,0.225,0.495
2021-08-01 04:11:01.436,0.23,0.505
2021-08-01 04:11:01.440,0.22,0.5
2021-08-01 04:11:01.444,0.215,0.49
2021-08-01 04:11:01.448,0.195,0.5
2021-08-01 04:11:01.452,0.18,0.49
2021-08-01 04:11:01.456,0.175,0.5
2021-08-01 04:11:01.460,0.165,0.505
2021-08-01 04:11:01.464,0.16,0.505
2021-08-01 04:11:01.468,0.145,0.525
2021-08-01 04:11:01.472,0.135,0.545
2021-08-01 04:11:01.476,0.14,0.535
2021-08-01 04:11:01.480,0.125,0.55
2021-08-01 04:11:01.484,0.15,0.565
2021-08-01 04:11:01.488,0.135,0.545
2021-08-01 04:11:01.492,0.155,0.585
2021-08-01 04:11:01.496,0.145,0.565
2021-08-01 04:11:01.500,0.14,0.575
2021-08-01 04:11:01.504,0.145,0.57
2021-08-01 04:11:01.508,0.145,0.585
2021-08-01 04:11:01.512,0.16,0.585
2021-08-01 04:11:01.516,0.14,0.595
2021-08-01 04:11:01.520,0.14,0.58
2021-08-01 04:11:01.524,0.13,0.58
2021-08-01 04:11:01.528,0.13,0.57
2021-08-01 04:11:01.532,0.135,0.605
2021-08-01 04:11:01.536,0.135,0.575
2021-08-01 04:11:01.540,0.125,0.565
2021-08-01 04:11:01.544,0.125,0.565
2021-08-01 04:11:01.548,0.11,0.56
2021-08-01 04:11:01.552,0.105,0.575
2021-08-01 04:11:01.556,0.105,0.57
2021-08-01 04:11:01.560,0.1,0.575
2021-08-01 04:11:01.564,0.085,0.56
2021-08-01 04:11:01.568,0.07,0.56
2021-08-01 04:11:01.572,0.08,0.53
2021-08-01 04:11:01.576,0.07,0.51
2021-08-01 04:11:01.580,0.075,0.52
2021-08-01 04:11:01.584,0.04,0.515
2021-08-01 04:11:01.588,0.045,0.495
2021-08-01 04:11:01.592,0.03,0.48
2021-08-01 04:11:01.596,0.025,0.445
2021-08-01 04:11:01.600,0.0,0.42
2021-08-01 04:11:01.604,0.01,0.43
2021-08-01 04:11:01.608,-0.015,0.415
2021-08-01 04:11:01.612,-0.02,0.385
2021-08-01 04:11:01.616,-0.04,0.36
2021-08-01 04:11:01.620,-0.03,0.37
2021-08-01 04:11:01.624,-0.055,0.335
2021-08-01 04:11:01.628,-0.06,0.32
2021-08-01 04:11:01.632,-0.085,0.3
2021-08-01 04:11:01.636,-0.065,0.3
2021-08-01 04:11:01.640,-0.1,0.275
2021-08-01 04:11:01.644,-0.1,0.25
2021-08-01 04:11:01.648,-0.12,0.255
2021-08-01 04:11:01.652,-0.145,0.225
2021-08-01 04:11:01.656,-0.145,0.22
2021-08-01 04:11:01.660,-0.16,0.19
2021-08-01 04:11:01.664,-0.17,0.19
2021-08-01 04:11:01.668,-0.18,0.185
2021-08-01 04:11:01.672,-0.16,0.155
2021-08-01 04:11:01.676,-0.19,0.15
2021-08-01 04:11:01.680,-0.185,0.145
2021-08-01 04:11:01.684,-0.185,0.14
2021-08-01 04:11:01.688,-0.18,0.145
2021-08-01 04:11:01.692,-0.19,0.135
2021-08-01 04:11:01.696,-0.19,0.12
2021-08-01 04:11:01.700,-0.18,0.12
2021-08-01 04:11:01.704,-0.195,0.155
2021-08-01 04:11:01.708,-0.19,0.13
2021-08-01 04:11:01.712,-0.185,0.115
2021-08-01 04:11:01.716,-0.18,0.125
2021-08-01 04:11:01.720,-0.175,0.11
2021-08-01 04:11:01.724,-0.185,0.12
2021-08-01 04:11:01.728,-0.185,0.11
2021-08-01 04:11:01.732,-0.185,0.11
2021-08-01 04:11:01.736,-0.175,0.125
2021-08-01 04:11:01.740,-0.195,0.11
2021-08-01 04:11:01.744,-0.175,0.13
2021-08-01 04:11:01.748,-0.19,0.105
2021-08-01 04:11:01.752,-0.185,0.11
2021-08-01 04:11:01.756,-0.185,0.13
2021-08-01 04:11:01.760,-0.19,0.13
2021-08-01 04:11:01.764,-0.19,0.1
2021-08-01 04:11:01.768,-0.185,0.11
2021-08-01 04:11:01.772,-0.195,0.125
2021-08-01 04:11:01.776,-0.195,0.115
2021-08-01 04:11:01.780,-0.205,0.12
2021-08-01 04:11:01.784,-0.21,0.105
2021-08-01 04:11:01.788,-0.19,0.1
2021-08-01 04:11:01.792,-0.2,0.105
2021-08-01 04:11:01.796,-0.18,0.075
2021-08-01 04:11:01.800,-0.205,0.115
2021-08-01 04:11:01.804,-0.21,0.085
2021-08-01 04:11:01.808,-0.225,0.08
2021-08-01 04:11:01.812,-0.2,0.085
2021-08-01 04:11:01.816,-0.19,0.085
2021-08-01 04:11:01.820,-0.22,0.1
2021-08-01 04:11:01.824,-0.21,0.095
2021-08-01 04:11:01.828,-0.23,0.09
2021-08-01 04:11:01.832,-0.21,0.075
2021-08-01 04:11:01.836,-0.215,0.06
2021-08-01 04:11:01.840,-0.225,0.055
2021-08-01 04:11:01.844,-0.215,0.085
2021-08-01 04:11:01.848,-0.235,0.085
2021-08-01 04:11:01.852,-0.215,0.06
2021-08-01 04:11:01.856,-0.215,0.05
2021-08-01 04:11:01.860,-0.23,0.06
2021-08-01 04:11:01.864,-0.235,0.06
2021-08-01 04:11:01.868,-0.23,0.06
2021-08-01 04:11:01.872,-0.235,0.07
2021-08-01 04:11:01.876,-0.235,0.07
2021-08-01 04:11:01.880,-0.235,0.095
2021-08-01 04:11:01.884,-0.23,0.055
2021-08-01 04:11:01.888,-0.24,0.075
2021-08-01 04:11:01.892,-0.245,0.05
2021-08-01 04:11:01.896,-0.245,0.065
2021-08-01 04:11:01.900,-0.24,0.065
2021-08-01 04:11:01.904,-0.245,0.04
2021-08-01 04:11:01.908,-0.25,0.03
2021-08-01 04:11:01.912,-0.245,0.03
2021-08-01 04:11:01.916,-0.265,0.05
2021-08-01 04:11:01.920,-0.245,0.05
2021-08-01 04:11:01.924,-0.265,0.04
2021-08-01 04:11:01.928,-0.255,0.035
2021-08-01 04:11:01.932,-0.275,0.05
2021-08-01 04:11:01.936,-0.255,0.055
2021-08-01 04:11:01.940,-0.275,0.02
2021-08-01 04:11:01.944,-0.27,0.03
2021-08-01 04:11:01.948,-0.265,0.025
2021-08-01 04:11:01.952,-0.265,0.045
2021-08-01 04:11:01.956,-0.25,0.045
2021-08-01 04:11:01.960,-0.27,0.035
2021-08-01 04:11:01.964,-0.25,0.015
2021-08-01 04:11:01.968,-0.265,0.02
2021-08-01 04:11:01.972,-0.265,0.015
2021-08-01 04:11:01.976,-0.26,0.025
2021-08-01 04:11:01.980,-0.245,0.025
2021-08-01 04:11:01.984,-0.24,0.02
2021-08-01 04:11:01.988,-0.25,0.02
2021-08-01 04:11:01.992,-0.27,0.025
2021-08-01 04:11:01.996,-0.295,0.015
2021-08-01 04:11:02.000,-0.27,0.05
2021-08-01 04:11:02.004,-0.275,0.005
2021-08-01 04:11:02.008,-0.26,0.015
2021-08-01 04:11:02.012,-0.27,0.015
2021-08-01 04:11:02.016,-0.28,0.03
2021-08-01 04:11:02.020,-0.265,0.01
2021-08-01 04:11:02.024,-0.295,0.015
2021-08-01 04:11:02.028,-0.275,0.02
2021-08-01 04:11:02.032,-0.28,0.035
2021-08-01 04:11:02.036,-0.275,0.02
2021-08-01 04:11:02.040,-0.285,0.015
2021-08-01 04:11:02.044,-0.26,0.015
2021-08-01 04:11:02.048,-0.28,0.025
2021-08-01 04:11:02.052,-0.255,0.01
2021-08-01 04:11:02.056,-0.295,0.035
2021-08-01 04:11:02.060,-0.27,0.03
2021-08-01 04:11:02.064,-0.28,0.02
2021-08-01 04:11:02.068,-0.265,0.025
2021-08-01 04:11:02.072,-0.29,0.03
2021-08-01 04:11:02.076,-0.28,0.025
2021-08-01 04:11:02.080,-0.26,0.03
2021-08-01 04:11:02.084,-0.26,0.02
2021-08-01 04:11:02.088,-0.25,0.025
2021-08-01 04:11:02.092,-0.25,0.02
2021-08-01 04:11:02.096,-0.26,0.035
2021-08-01 04:11:02.100,-0.25,0.025
2021-08-01 04:11:02.104,-0.275,0.02
2021-08-01 04:11:02.108,-0.275,0.015
2021-08-01 04:11:02.112,-0.265,0.045
2021-08-01 04:11:02.116,-0.25,0.035
2021-08-01 04:11:02.120,-0.27,0.03
2021-08-01 04:11:02.124,-0.255,0.03
2021-08-01 04:11:02.128,-0.265,0.035
2021-08-01 04:11:02.132,-0.265,0.055
2021-08-01 04:11:02.136,-0.285,0.025
2021-08-01 04:11:02.140,-0.28,0.035
2021-08-01 04:11:02.144,-0.27,0.035
2021-08-01 04:11:02.148,-0.265,0.04
2021-08-01 04:11:02.152,-0.25,0.03
2021-08-01 04:11:02.156,-0.27,0.025
2021-08-01 04:11:02.160,-0.27,0.035
2021-08-01 04:11:02.164,-0.265,0.035
2021-08-01 04:11:02.168,-0.27,0.025
2021-08-01 04:11:02.172,-0.275,0.03
2021-08-01 04:11:02.176,-0.275,0.02
2021-08-01 04:11:02.180,-0.28,0.05
2021-08-01 04:11:02.184,-0.275,0.04
2021-08-01 04:11:02.188,-0.275,0.015
2021-08-01 04:11:02.192,-0.28,0.045
2021-08-01 04:11:02.196,-0.275,0.015
2021-08-01 04:11:02.200,-0.265,0.025
2021-08-01 04:11:02.204,-0.26,0.015
2021-08-01 04:11:02.208,-0.27,0.015
2021-08-01 04:11:02.212,-0.27,0.035
2021-08-01 04:11:02.216,-0.29,0.035
2021-08-01 04:11:02.220,-0.28,0.03
2021-08-01 04:11:02.224,-0.255,0.04
2021-08-01 04:11:02.228,-0.28,0.035
2021-08-01 04:11:02.232,-0.275,0.025
2021-08-01 04:11:02.236,-0.27,0.02
2021-08-01 04:11:02.240,-0.255,0.025
2021-08-01 04:11:02.244,-0.275,0.04
2021-08-01 04:11:02.248,-0.275,0.03
2021-08-01 04:11:02.252,-0.27,0.015
2021-08-01 04:11:02.256,-0.26,0.015
2021-08-01 04:11:02.260,-0.285,0.035
2021-08-01 04:11:02.264,-0.285,0.015
2021-08-01 04:11:02.268,-0.26,0.035
2021-08-01 04:11:02.272,-0.28,0.015
2021-08-01 04:11:02.276,-0.265,0.025
2021-08-01 04:11:02.280,-0.265,0.01
2021-08-01 04:11:02.284,-0.265,0.015
2021-08-01 04:11:02.288,-0.275,0.055
2021-08-01 04:11:02.292,-0.275,0.035
2021-08-01 04:11:02.296,-0.27,0.015
2021-08-01 04:11:02.300,-0.275,0.035
2021-08-01 04:11:02.304,-0.28,0.03
2021-08-01 04:11:02.308,-0.255,0.035
2021-08-01 04:11:02.312,-0.27,0.025
2021-08-01 04:11:02.316,-0.295,0.03
2021-08-01 04:11:02.320,-0.275,0.04
2021-08-01 04:11:02.324,-0.295,0.045
2021-08-01 04:11:02.328,-0.28,0.04
2021-08-01 04:11:02.332,-0.265,0.025
2021-08-01 04:11:02.336,-0.275,0.025
2021-08-01 04:11:02.340,-0.285,0.025
2021-08-01 04:11:02.344,-0.27,0.04
2021-08-01 04:11:02.348,-0.3,0.03
2021-08-01 04:11:02.352,-0.275,0.03
2021-08-01 04:11:02.356,-0.27,0.02
2021-08-01 04:11:02.360,-0.29,0.025
2021-08-01 04:11:02.364,-0.28,0.02
2021-08-01 04:11:02.368,-0.265,0.02
2021-08-01 04:11:02.372,-0.28,0.01
2021-08-01 04:11:02.376,-0.27,0.015
2021-08-01 04:11:02.380,-0.26,0.025
2021-08-01 04:11:02.384,-0.26,0.035
2021-08-01 04:11:02.388,-0.27,0.02
2021-08-01 04:11:02.392,-0.27,0.04
2021-08-01 04:11:02.396,-0.255,0.025
2021-08-01 04:11:02.400,-0.25,0.015
2021-08-01 04:11:02.404,-0.265,0.035
2021-08-01 04:11:02.408,-0.255,0.04
2021-08-01 04:11:02.412,-0.285,0.035
2021-08-01 04:11:02.416,-0.275,0.03
2021-08-01 04:11:02.420,-0.255,0.025
2021-08-01 04:11:02.424,-0.25,0.045
2021-08-01 04:11:02.428,-0.275,0.04
2021-08-01 04:11:02.432,-0.27,0.045
2021-08-01 04:11:02.436,-0.27,0.06
2021-08-01 04:11:02.440,-0.265,0.065
2021-08-01 04:11:02.444,-0.25,0.055
2021-08-01 04:11:02.448,-0.27,0.045
2021-08-01 04:11:02.452,-0.265,0.055
2021-08-01 04:11:02.456,-0.24,0.055
2021-08-01 04:11:02.460,-0.25,0.055
2021-08-01 04:11:02.464,-0.25,0.06
2021-08-01 04:11:02.468,-0.255,0.055
2021-08-01 04:11:02.472,-0.24,0.055
2021-08-01 04:11:02.476,-0.26,0.07
2021-08-01 04:11:02.480,-0.245,0.065
2021-08-01 04:11:02.484,-0.245,0.075
2021-08-01 04:11:02.488,-0.255,0.055
2021-08-01 04:11:02.492,-0.23,0.055
2021-08-01 04:11:02.496,-0.225,0.07
2021-08-01 04:11:02.500,-0.25,0.06
2021-08-01 04:11:02.504,-0.23,0.085
2021-08-01 04:11:02.508,-0.25,0.075
2021-08-01 04:11:02.512,-0.24,0.07
2021-08-01 04:11:02.516,-0.23,0.09
2021-08-01 04:11:02.520,-0.24,0.065
2021-08-01 04:11:02.524,-0.23,0.095
2021-08-01 04:11:02.528,-0.24,0.075
2021-08-01 04:11:02.532,-0.245,0.07
2021-08-01 04:11:02.536,-0.235,0.09
2021-08-01 04:11:02.540,-0.245,0.085
2021-08-01 04:11:02.544,-0.235,0.085
2021-08-01 04:11:02.548,-0.23,0.065
2021-08-01 04:11:02.552,-0.26,0.09
2021-08-01 04:11:02.556,-0.235,0.08
2021-08-01 04:11:02.560,-0.245,0.065
2021-08-01 04:11:02.564,-0.23,0.085
2021-08-01 04:11:02.568,-0.215,0.095
2021-08-01 04:11:02.572,-0.24,0.08
2021-08-01 04:11:02.576,-0.25,0.085
2021-08-01 04:11:02.580,-0.24,0.1
2021-08-01 04:11:02.584,-0.245,0.08
2021-08-01 04:11:02.588,-0.24,0.08
2021-08-01 04:11:02.592,-0.235,0.07
2021-08-01 04:11:02.596,-0.235,0.09
2021-08-01 04:11:02.600,-0.23,0.085
2021-08-01 04:11:02.604,-0.22,0.085
2021-08-01 04:11:02.608,-0.24,0.085
2021-08-01 04:11:02.612,-0.23,0.075
2021-08-01 04:11:02.616,-0.23,0.09
2021-08-01 04:11:02.620,-0.25,0.085
2021-08-01 04:11:02.624,-0.25,0.08
2021-08-01 04:11:02.628,-0.255,0.095
2021-08-01 04:11:02.632,-0.255,0.075
2021-08-01 04:11:02.636,-0.23,0.06
2021-08-01 04:11:02.640,-0.25,0.08
2021-08-01 04:11:02.644,-0.24,0.085
2021-08-01 04:11:02.648,-0.24,0.09
2021-08-01 04:11:02.652,-0.265,0.1
2021-08-01 04:11:02.656,-0.24,0.085
2021-08-01 04:11:02.660,-0.235,0.095
2021-08-01 04:11:02.664,-0.235,0.08
2021-08-01 04:11:02.668,-0.235,0.07
2021-08-01 04:11:02.672,-0.235,0.075
2021-08-01 04:11:02.676,-0.245,0.08
2021-08-01 04:11:02.680,-0.245,0.085
2021-08-01 04:11:02.684,-0.245,0.09
2021-08-01 04:11:02.688,-0.23,0.07
2021-08-01 04:11:02.692,-0.23,0.08
2021-08-01 04:11:02.696,-0.225,0.07
2021-08-01 04:11:02.700,-0.225,0.095
2021-08-01 04:11:02.704,-0.225,0.09
2021-08-01 04:11:02.708,-0.235,0.09
2021-08-01 04:11:02.712,-0.24,0.07
2021-08-01 04:11:02.716,-0.23,0.08
2021-08-01 04:11:02.720,-0.23,0.095
2021-08-01 04:11:02.724,-0.24,0.08
2021-08-01 04:11:02.728,-0.24,0.105
2021-08-01 04:11:02.732,-0.235,0.095
2021-08-01 04:11:02.736,-0.235,0.075
2021-08-01 04:11:02.740,-0.22,0.07
2021-08-01 04:11:02.744,-0.245,0.075
2021-08-01 04:11:02.748,-0.24,0.115
2021-08-01 04:11:02.752,-0.255,0.085
2021-08-01 04:11:02.756,-0.23,0.09
2021-08-01 04:11:02.760,-0.23,0.085
2021-08-01 04:11:02.764,-0.225,0.095
2021-08-01 04:11:02.768,-0.21,0.09
2021-08-01 04:11:02.772,-0.215,0.105
2021-08-01 04:11:02.776,-0.2,0.105
2021-08-01 04:11:02.780,-0.2,0.1
2021-08-01 04:11:02.784,-0.155,0.11
2021-08-01 04:11:02.788,-0.16,0.13
2021-08-01 04:11:02.792,-0.15,0.145
2021-08-01 04:11:02.796,-0.14,0.115
2021-08-01 04:11:02.800,-0.15,0.1
2021-08-01 04:11:02.804,-0.16,0.105
2021-08-01 04:11:02.808,-0.185,0.1
2021-08-01 04:11:02.812,-0.175,0.095
2021-08-01 04:11:02.816,-0.18,0.095
2021-08-01 04:11:02.820,-0.19,0.07
2021-08-01 04:11:02.824,-0.19,0.05
2021-08-01 04:11:02.828,-0.185,0.055
2021-08-01 04:11:02.832,-0.2,0.07
2021-08-01 04:11:02.836,-0.2,0.055
2021-08-01 04:11:02.840,-0.18,0.06
2021-08-01 04:11:02.844,-0.165,0.07
2021-08-01 04:11:02.848,-0.16,0.07
2021-08-01 04:11:02.852,-0.15,0.1
2021-08-01 04:11:02.856,-0.16,0.08
2021-08-01 04:11:02.860,-0.175,0.08
2021-08-01 04:11:02.864,-0.215,0.08
2021-08-01 04:11:02.868,-0.23,0.07
2021-08-01 04:11:02.872,-0.24,0.06
2021-08-01 04:11:02.876,-0.255,0.07
2021-08-01 04:11:02.880,-0.275,0.055
2021-08-01 04:11:02.884,-0.27,0.065
2021-08-01 04:11:02.888,-0.275,0.04
2021-08-01 04:11:02.892,-0.27,0.055
2021-08-01 04:11:02.896,-0.28,0.05
2021-08-01 04:11:02.900,-0.285,0.055
2021-08-01 04:11:02.904,-0.28,0.055
2021-08-01 04:11:02.908,-0.285,0.065
2021-08-01 04:11:02.912,-0.285,0.06
2021-08-01 04:11:02.916,-0.295,0.05
2021-08-01 04:11:02.920,-0.285,0.055
2021-08-01 04:11:02.924,-0.295,0.06
2021-08-01 04:11:02.928,-0.29,0.035
2021-08-01 04:11:02.932,-0.28,0.03
2021-08-01 04:11:02.936,-0.29,0.045
2021-08-01 04:11:02.940,-0.275,0.035
2021-08-01 04:11:02.944,-0.275,0.05
2021-08-01 04:11:02.948,-0.29,0.05
2021-08-01 04:11:02.952,-0.285,0.05
2021-08-01 04:11:02.956,-0.3,0.05
2021-08-01 04:11:02.960,-0.3,0.045
2021-08-01 04:11:02.964,-0.275,0.055
2021-08-01 04:11:02.968,-0.275,0.02
2021-08-01 04:11:02.972,-0.28,0.04
2021-08-01 04:11:02.976,-0.285,0.03
2021-08-01 04:11:02.980,-0.265,0.03
2021-08-01 04:11:02.984,-0.285,0.035
2021-08-01 04:11:02.988,-0.28,0.025
2021-08-01 04:11:02.992,-0.25,0.02
2021-08-01 04:11:02.996,-0.225,0.04
2021-08-01 04:11:03.000,-0.215,0.035
2021-08-01 04:11:03.004,-0.09,0.07
2021-08-01 04:11:03.008,-0.075,0.095
2021-08-01 04:11:03.012,-0.1,0.09
2021-08-01 04:11:03.016,-0.145,-0.015
2021-08-01 04:11:03.020,-0.215,-0.185
2021-08-01 04:11:03.024,-0.305,-0.335
2021-08-01 04:11:03.028,-0.455,-0.56
2021-08-01 04:11:03.032,-0.585,-0.845
2021-08-01 04:11:03.036,-0.735,-1.12
2021-08-01 04:11:03.040,-0.815,-1.32
2021-08-01 04:11:03.044,-0.865,-1.53
2021-08-01 04:11:03.048,-0.93,-1.73
2021-08-01 04:11:03.052,-0.96,-1.93
2021-08-01 04:11:03.064,-1.025,-1.86
2021-08-01 04:11:03.068,-0.93,-1.65
2021-08-01 04:11:03.072,-0.865,-1.5
2021-08-01 04:11:03.076,-0.805,-1.405
2021-08-01 04:11:03.080,-0.785,-1.33
2021-08-01 04:11:03.084,-0.71,-1.255
2021-08-01 04:11:03.088,-0.71,-1.205
2021-08-01 04:11:03.092,-0.74,-1.16
2021-08-01 04:11:03.096,-0.75,-1.075
2021-08-01 04:11:03.100,-0.71,-0.995
2021-08-01 04:11:03.104,-0.66,-0.93
2021-08-01 04:11:03.108,-0.605,-0.8
2021-08-01 04:11:03.112,-0.575,-0.72
2021-08-01 04:11:03.116,-0.565,-0.585
2021-08-01 04:11:03.120,-0.54,-0.5
2021-08-01 04:11:03.124,-0.51,-0.4
2021-08-01 04:11:03.128,-0.44,-0.29
2021-08-01 04:11:03.132,-0.405,-0.21
2021-08-01 04:11:03.136,-0.36,-0.145
2021-08-01 04:11:03.140,-0.305,-0.07
2021-08-01 04:11:03.144,-0.26,-0.035
2021-08-01 04:11:03.148,-0.205,0.02
2021-08-01 04:11:03.152,-0.18,0.115
2021-08-01 04:11:03.156,-0.15,0.18
2021-08-01 04:11:03.160,-0.13,0.235
2021-08-01 04:11:03.164,-0.14,0.28
2021-08-01 04:11:03.168,-0.125,0.335
2021-08-01 04:11:03.172,-0.105,0.35
2021-08-01 04:11:03.176,-0.11,0.365
2021-08-01 04:11:03.180,-0.11,0.37
2021-08-01 04:11:03.184,-0.1,0.385
2021-08-01 04:11:03.188,-0.085,0.395
2021-08-01 04:11:03.192,-0.085,0.41
2021-08-01 04:11:03.196,-0.08,0.41
2021-08-01 04:11:03.200,-0.08,0.415
2021-08-01 04:11:03.204,-0.07,0.41
2021-08-01 04:11:03.208,-0.075,0.435
2021-08-01 04:11:03.212,-0.065,0.45
2021-08-01 04:11:03.216,-0.065,0.44
2021-08-01 04:11:03.220,-0.055,0.445
2021-08-01 04:11:03.224,-0.035,0.43
2021-08-01 04:11:03.228,-0.04,0.46
2021-08-01 04:11:03.232,-0.04,0.455
2021-08-01 04:11:03.236,-0.03,0.455
2021-08-01 04:11:03.240,-0.025,0.475
2021-08-01 04:11:03.244,-0.03,0.465
2021-08-01 04:11:03.248,-0.03,0.475
2021-08-01 04:11:03.252,-0.02,0.495
2021-08-01 04:11:03.256,-0.015,0.48
2021-08-01 04:11:03.260,-0.01,0.5
2021-08-01 04:11:03.264,-0.02,0.49
2021-08-01 04:11:03.268,-0.01,0.475
2021-08-01 04:11:03.272,-0.005,0.485
2021-08-01 04:11:03.276,-0.01,0.525
2021-08-01 04:11:03.280,0.005,0.515
2021-08-01 04:11:03.284,0.0,0.505
2021-08-01 04:11:03.288,0.025,0.535
2021-08-01 04:11:03.292,0.005,0.515
2021-08-01 04:11:03.296,0.005,0.53
2021-08-01 04:11:03.300,0.025,0.53
2021-08-01 04:11:03.304,0.01,0.53
2021-08-01 04:11:03.308,0.01,0.535
2021-08-01 04:11:03.312,0.015,0.515
2021-08-01 04:11:03.316,0.02,0.525
2021-08-01 04:11:03.320,0.015,0.53
2021-08-01 04:11:03.324,0.0,0.535
2021-08-01 04:11:03.328,0.0,0.535
2021-08-01 04:11:03.332,0.0,0.54
2021-08-01 04:11:03.336,-0.005,0.535
2021-08-01 04:11:03.340,0.0,0.525
2021-08-01 04:11:03.344,-0.01,0.52
2021-08-01 04:11:03.348,-0.02,0.515
2021-08-01 04:11:03.352,-0.025,0.51
2021-08-01 04:11:03.356,-0.03,0.51
2021-08-01 04:11:03.360,-0.04,0.5
2021-08-01 04:11:03.364,-0.035,0.51
2021-08-01 04:11:03.368,-0.035,0.51
2021-08-01 04:11:03.372,-0.05,0.51
2021-08-01 04:11:03.376,-0.035,0.525
2021-08-01 04:11:03.380,-0.065,0.485
2021-08-01 04:11:03.384,-0.06,0.485
2021-08-01 04:11:03.388,-0.06,0.495
2021-08-01 04:11:03.392,-0.075,0.475
2021-08-01 04:11:03.396,-0.065,0.48
2021-08-01 04:11:03.400,-0.08,0.46
2021-08-01 04:11:03.404,-0.075,0.455
2021-08-01 04:11:03.408,-0.095,0.45
2021-08-01 04:11:03.412,-0.085,0.445
2021-08-01 04:11:03.416,-0.1,0.445
2021-08-01 04:11:03.420,-0.1,0.425
2021-08-01 04:11:03.424,-0.13,0.435
2021-08-01 04:11:03.428,-0.115,0.41
2021-08-01 04:11:03.432,-0.135,0.385
2021-08-01 04:11:03.436,-0.15,0.395
2021-08-01 04:11:03.440,-0.135,0.37
2021-08-01 04:11:03.444,-0.13,0.365
2021-08-01 04:11:03.448,-0.155,0.355
2021-08-01 04:11:03.452,-0.16,0.34
2021-08-01 04:11:03.456,-0.145,0.315
2021-08-01 04:11:03.460,-0.14,0.32
2021-08-01 04:11:03.464,-0.145,0.275
2021-08-01 04:11:03.468,-0.145,0.3
2021-08-01 04:11:03.472,-0.16,0.28
2021-08-01 04:11:03.476,-0.145,0.265
2021-08-01 04:11:03.480,-0.165,0.25
2021-08-01 04:11:03.484,-0.185,0.24
2021-08-01 04:11:03.488,-0.18,0.225
2021-08-01 04:11:03.492,-0.175,0.225
2021-08-01 04:11:03.496,-0.175,0.22
2021-08-01 04:11:03.500,-0.17,0.205
2021-08-01 04:11:03.504,-0.165,0.22
2021-08-01 04:11:03.508,-0.175,0.215
2021-08-01 04:11:03.512,-0.17,0.21
2021-08-01 04:11:03.516,-0.17,0.2
2021-08-01 04:11:03.520,-0.165,0.2
2021-08-01 04:11:03.524,-0.165,0.185
2021-08-01 04:11:03.528,-0.165,0.185
2021-08-01 04:11:03.532,-0.16,0.21
2021-08-01 04:11:03.536,-0.16,0.18
2021-08-01 04:11:03.540,-0.16,0.19
2021-08-01 04:11:03.544,-0.17,0.205
2021-08-01 04:11:03.548,-0.175,0.21
2021-08-01 04:11:03.552,-0.155,0.2
2021-08-01 04:11:03.556,-0.15,0.2
2021-08-01 04:11:03.560,-0.18,0.175
2021-08-01 04:11:03.564,-0.16,0.195
2021-08-01 04:11:03.568,-0.165,0.19
2021-08-01 04:11:03.572,-0.14,0.21
2021-08-01 04:11:03.576,-0.16,0.205
2021-08-01 04:11:03.580,-0.145,0.205
2021-08-01 04:11:03.584,-0.16,0.215
2021-08-01 04:11:03.588,-0.155,0.205
2021-08-01 04:11:03.592,-0.16,0.215
2021-08-01 04:11:03.596,-0.155,0.205
2021-08-01 04:11:03.600,-0.17,0.225
2021-08-01 04:11:03.604,-0.175,0.21
2021-08-01 04:11:03.608,-0.175,0.195
2021-08-01 04:11:03.612,-0.185,0.205
2021-08-01 04:11:03.616,-0.18,0.205
2021-08-01 04:11:03.620,-0.175,0.205
2021-08-01 04:11:03.624,-0.165,0.195
2021-08-01 04:11:03.628,-0.18,0.175
2021-08-01 04:11:03.632,-0.2,0.195
2021-08-01 04:11:03.636,-0.21,0.19
2021-08-01 04:11:03.640,-0.205,0.155
2021-08-01 04:11:03.644,-0.2,0.215
2021-08-01 04:11:03.648,-0.215,0.175
2021-08-01 04:11:03.652,-0.21,0.15
2021-08-01 04:11:03.656,-0.23,0.18
2021-08-01 04:11:03.660,-0.235,0.155
2021-08-01 04:11:03.664,-0.235,0.17
2021-08-01 04:11:03.668,-0.22,0.15
2021-08-01 04:11:03.672,-0.235,0.155
2021-08-01 04:11:03.676,-0.24,0.15
2021-08-01 04:11:03.680,-0.24,0.145
2021-08-01 04:11:03.684,-0.215,0.13
2021-08-01 04:11:03.688,-0.21,0.13
2021-08-01 04:11:03.692,-0.24,0.145
2021-08-01 04:11:03.696,-0.25,0.115
2021-08-01 04:11:03.700,-0.225,0.125
2021-08-01 04:11:03.704,-0.23,0.115
2021-08-01 04:11:03.708,-0.24,0.13
2021-08-01 04:11:03.712,-0.255,0.135
2021-08-01 04:11:03.716,-0.24,0.11
2021-08-01 04:11:03.720,-0.25,0.12
2021-08-01 04:11:03.724,-0.23,0.13
2021-08-01 04:11:03.728,-0.23,0.11
2021-08-01 04:11:03.732,-0.245,0.1
2021-08-01 04:11:03.736,-0.25,0.09
2021-08-01 04:11:03.740,-0.25,0.11
2021-08-01 04:11:03.744,-0.235,0.095
2021-08-01 04:11:03.748,-0.265,0.09
2021-08-01 04:11:03.752,-0.255,0.08
2021-08-01 04:11:03.756,-0.26,0.07
2021-08-01 04:11:03.760,-0.255,0.095
2021-08-01 04:11:03.764,-0.275,0.09
2021-08-01 04:11:03.768,-0.26,0.08
2021-08-01 04:11:03.772,-0.255,0.075
2021-08-01 04:11:03.776,-0.245,0.09
2021-08-01 04:11:03.780,-0.245,0.085
2021-08-01 04:11:03.784,-0.265,0.1
2021-08-01 04:11:03.788,-0.255,0.065
2021-08-01 04:11:03.792,-0.25,0.08
2021-08-01 04:11:03.796,-0.26,0.07
2021-08-01 04:11:03.800,-0.255,0.07
2021-08-01 04:11:03.804,-0.25,0.085
2021-08-01 04:11:03.808,-0.255,0.09
2021-08-01 04:11:03.812,-0.235,0.08
2021-08-01 04:11:03.816,-0.235,0.07
2021-08-01 04:11:03.820,-0.24,0.09
2021-08-01 04:11:03.824,-0.245,0.1
2021-08-01 04:11:03.828,-0.24,0.085
2021-08-01 04:11:03.832,-0.235,0.07
2021-08-01 04:11:03.836,-0.225,0.08
2021-08-01 04:11:03.840,-0.255,0.075
2021-08-01 04:11:03.844,-0.255,0.055
2021-08-01 04:11:03.848,-0.245,0.09
2021-08-01 04:11:03.852,-0.235,0.055
2021-08-01 04:11:03.856,-0.255,0.075
2021-08-01 04:11:03.860,-0.25,0.045
2021-08-01 04:11:03.864,-0.235,0.075
2021-08-01 04:11:03.868,-0.25,0.07
2021-08-01 04:11:03.872,-0.26,0.065
2021-08-01 04:11:03.876,-0.26,0.065
2021-08-01 04:11:03.880,-0.26,0.045
2021-08-01 04:11:03.884,-0.275,0.06
2021-08-01 04:11:03.888,-0.285,0.07
2021-08-01 04:11:03.892,-0.24,0.075
2021-08-01 04:11:03.896,-0.255,0.07
2021-08-01 04:11:03.900,-0.255,0.045
2021-08-01 04:11:03.904,-0.25,0.065
2021-08-01 04:11:03.908,-0.225,0.08
2021-08-01 04:11:03.912,-0.24,0.085
2021-08-01 04:11:03.916,-0.215,0.095
2021-08-01 04:11:03.920,-0.185,0.13
2021-08-01 04:11:03.924,-0.17,0.135
2021-08-01 04:11:03.928,-0.14,0.135
2021-08-01 04:11:03.932,-0.145,0.11
2021-08-01 04:11:03.936,-0.16,0.11
2021-08-01 04:11:03.940,-0.16,0.1
2021-08-01 04:11:03.944,-0.18,0.085
2021-08-01 04:11:03.948,-0.195,0.07
2021-08-01 04:11:03.952,-0.2,0.055
2021-08-01 04:11:03.956,-0.225,0.04
2021-08-01 04:11:03.960,-0.22,0.04
2021-08-01 04:11:03.964,-0.23,0.04
2021-08-01 04:11:03.968,-0.225,0.02
2021-08-01 04:11:03.972,-0.22,0.04
2021-08-01 04:11:03.976,-0.22,0.015
2021-08-01 04:11:03.980,-0.195,0.02
2021-08-01 04:11:03.984,-0.185,0.02
2021-08-01 04:11:03.988,-0.17,0.055
2021-08-01 04:11:03.992,-0.15,0.04
2021-08-01 04:11:03.996,-0.19,0.045
2021-08-01 04:11:04.000,-0.215,0.04
2021-08-01 04:11:04.004,-0.215,0.05
2021-08-01 04:11:04.008,-0.245,0.045
2021-08-01 04:11:04.012,-0.26,0.04
2021-08-01 04:11:04.016,-0.29,0.035
2021-08-01 04:11:04.020,-0.295,0.01
2021-08-01 04:11:04.024,-0.3,0.025
2021-08-01 04:11:04.028,-0.3,0.02
2021-08-01 04:11:04.032,-0.305,0.01
2021-08-01 04:11:04.036,-0.305,0.01
2021-08-01 04:11:04.040,-0.305,0.01
2021-08-01 04:11:04.044,-0.295,0.015
2021-08-01 04:11:04.048,-0.32,0.03
2021-08-01 04:11:04.052,-0.29,0.035
2021-08-01 04:11:04.056,-0.3,0.03
2021-08-01 04:11:04.060,-0.295,0.02
2021-08-01 04:11:04.064,-0.305,0.025
2021-08-01 04:11:04.068,-0.315,0.03
2021-08-01 04:11:04.072,-0.295,0.005
2021-08-01 04:11:04.076,-0.31,0.02
2021-08-01 04:11:04.080,-0.32,0.025
2021-08-01 04:11:04.084,-0.34,0.045
2021-08-01 04:11:04.088,-0.31,0.015
2021-08-01 04:11:04.092,-0.31,0.025
2021-08-01 04:11:04.096,-0.32,0.02
2021-08-01 04:11:04.100,-0.3,0.03
2021-08-01 04:11:04.104,-0.29,0.04
2021-08-01 04:11:04.108,-0.3,0.02
2021-08-01 04:11:04.112,-0.295,0.035
2021-08-01 04:11:04.116,-0.3,0.025
2021-08-01 04:11:04.120,-0.295,0.025
2021-08-01 04:11:04.124,-0.28,0.025
2021-08-01 04:11:04.128,-0.265,0.035
2021-08-01 04:11:04.132,-0.25,0.035
2021-08-01 04:11:04.136,-0.24,0.04
2021-08-01 04:11:04.140,-0.175,0.065
2021-08-01 04:11:04.144,-0.095,0.09
2021-08-01 04:11:04.148,-0.1,0.125
2021-08-01 04:11:04.152,-0.14,0.06
2021-08-01 04:11:04.156,-0.19,-0.095
2021-08-01 04:11:04.160,-0.255,-0.275
2021-08-01 04:11:04.164,-0.375,-0.43
2021-08-01 04:11:04.168,-0.52,-0.69
2021-08-01 04:11:04.172,-0.67,-1.0
2021-08-01 04:11:04.176,-0.765,-1.25
2021-08-01 04:11:04.180,-0.835,-1.465
2021-08-01 04:11:04.184,-0.87,-1.695
2021-08-01 04:11:04.188,-0.935,-1.915
2021-08-01 04:11:04.208,-0.96,-1.795
2021-08-01 04:11:04.212,-0.905,-1.61
2021-08-01 04:11:04.216,-0.855,-1.49
2021-08-01 04:11:04.220,-0.825,-1.405
2021-08-01 04:11:04.224,-0.77,-1.35
2021-08-01 04:11:04.228,-0.765,-1.285
2021-08-01 04:11:04.232,-0.775,-1.225
2021-08-01 04:11:04.236,-0.755,-1.135
2021-08-01 04:11:04.240,-0.735,-1.04
2021-08-01 04:11:04.244,-0.68,-0.945
2021-08-01 04:11:04.248,-0.625,-0.83
2021-08-01 04:11:04.252,-0.605,-0.71
2021-08-01 04:11:04.256,-0.575,-0.595
2021-08-01 04:11:04.260,-0.54,-0.47
2021-08-01 04:11:04.264,-0.5,-0.365
2021-08-01 04:11:04.268,-0.475,-0.295
2021-08-01 04:11:04.272,-0.425,-0.22
2021-08-01 04:11:04.276,-0.35,-0.145
2021-08-01 04:11:04.280,-0.28,-0.075
2021-08-01 04:11:04.284,-0.235,-0.03
2021-08-01 04:11:04.288,-0.205,0.04
2021-08-01 04:11:04.292,-0.155,0.155
2021-08-01 04:11:04.296,-0.13,0.19
2021-08-01 04:11:04.300,-0.095,0.255
2021-08-01 04:11:04.304,-0.085,0.325
2021-08-01 04:11:04.308,-0.09,0.365
2021-08-01 04:11:04.312,-0.05,0.38
2021-08-01 04:11:04.316,-0.055,0.405
2021-08-01 04:11:04.320,-0.045,0.41
2021-08-01 04:11:04.324,-0.03,0.425
2021-08-01 04:11:04.328,-0.03,0.43
2021-08-01 04:11:04.332,-0.025,0.46
2021-08-01 04:11:04.336,-0.015,0.46
2021-08-01 04:11:04.340,-0.005,0.475
2021-08-01 04:11:04.344,-0.005,0.465
2021-08-01 04:11:04.348,0.01,0.47
2021-08-01 04:11:04.352,0.0,0.48
2021-08-01 04:11:04.356,0.005,0.505
2021-08-01 04:11:04.360,-0.005,0.49
2021-08-01 04:11:04.364,0.0,0.51
2021-08-01 04:11:04.368,0.03,0.515
2021-08-01 04:11:04.372,0.025,0.505
2021-08-01 04:11:04.376,0.055,0.52
2021-08-01 04:11:04.380,0.05,0.545
2021-08-01 04:11:04.384,0.04,0.54
2021-08-01 04:11:04.388,0.065,0.535
2021-08-01 04:11:04.392,0.055,0.545
2021-08-01 04:11:04.396,0.06,0.56
2021-08-01 04:11:04.400,0.08,0.545
2021-08-01 04:11:04.404,0.085,0.55
2021-08-01 04:11:04.408,0.085,0.565
2021-08-01 04:11:04.412,0.095,0.56
2021-08-01 04:11:04.416,0.085,0.595
2021-08-01 04:11:04.420,0.11,0.59
2021-08-01 04:11:04.424,0.1,0.575
2021-08-01 04:11:04.428,0.09,0.58
2021-08-01 04:11:04.432,0.115,0.61
2021-08-01 04:11:04.436,0.135,0.605
2021-08-01 04:11:04.440,0.13,0.58
2021-08-01 04:11:04.444,0.11,0.61
2021-08-01 04:11:04.448,0.13,0.59
2021-08-01 04:11:04.452,0.14,0.62
2021-08-01 04:11:04.456,0.13,0.595
2021-08-01 04:11:04.460,0.125,0.6
2021-08-01 04:11:04.464,0.12,0.62
2021-08-01 04:11:04.468,0.115,0.605
2021-08-01 04:11:04.472,0.115,0.6
2021-08-01 04:11:04.476,0.11,0.58
2021-08-01 04:11:04.480,0.13,0.59
2021-08-01 04:11:04.484,0.11,0.595
2021-08-01 04:11:04.488,0.095,0.585
2021-08-01 04:11:04.492,0.08,0.595
2021-08-01 04:11:04.496,0.085,0.605
2021-08-01 04:11:04.500,0.11,0.565
2021-08-01 04:11:04.504,0.075,0.58
2021-08-01 04:11:04.508,0.09,0.585
2021-08-01 04:11:04.512,0.085,0.585
2021-08-01 04:11:04.516,0.06,0.56
2021-08-01 04:11:04.520,0.08,0.565
2021-08-01 04:11:04.524,0.055,0.545
2021-08-01 04:11:04.528,0.03,0.54
2021-08-01 04:11:04.532,0.035,0.535
2021-08-01 04:11:04.536,0.03,0.515
2021-08-01 04:11:04.540,0.015,0.505
2021-08-01 04:11:04.544,0.015,0.49
2021-08-01 04:11:04.548,0.01,0.48
2021-08-01 04:11:04.552,-0.005,0.48
2021-08-01 04:11:04.556,-0.035,0.445
2021-08-01 04:11:04.560,-0.035,0.41
2021-08-01 04:11:04.564,-0.035,0.39
2021-08-01 04:11:04.568,-0.05,0.385
2021-08-01 04:11:04.572,-0.06,0.38
2021-08-01 04:11:04.576,-0.07,0.335
2021-08-01 04:11:04.580,-0.075,0.34
2021-08-01 04:11:04.584,-0.085,0.335
2021-08-01 04:11:04.588,-0.09,0.305
2021-08-01 04:11:04.592,-0.12,0.305
2021-08-01 04:11:04.596,-0.135,0.3
2021-08-01 04:11:04.600,-0.135,0.28
2021-08-01 04:11:04.604,-0.155,0.27
2021-08-01 04:11:04.608,-0.17,0.26
2021-08-01 04:11:04.612,-0.17,0.225
2021-08-01 04:11:04.616,-0.18,0.22
2021-08-01 04:11:04.620,-0.18,0.205
2021-08-01 04:11:04.624,-0.18,0.195
2021-08-01 04:11:04.628,-0.2,0.19
2021-08-01 04:11:04.632,-0.21,0.185
2021-08-01 04:11:04.636,-0.2,0.195
2021-08-01 04:11:04.640,-0.205,0.17
2021-08-01 04:11:04.644,-0.19,0.15
2021-08-01 04:11:04.648,-0.21,0.145
2021-08-01 04:11:04.652,-0.22,0.145
2021-08-01 04:11:04.656,-0.19,0.135
2021-08-01 04:11:04.660,-0.22,0.125
2021-08-01 04:11:04.664,-0.21,0.13
2021-08-01 04:11:04.668,-0.22,0.14
2021-08-01 04:11:04.672,-0.21,0.13
2021-08-01 04:11:04.676,-0.215,0.135
2021-08-01 04:11:04.680,-0.215,0.14
2021-08-01 04:11:04.684,-0.2,0.15
2021-08-01 04:11:04.688,-0.2,0.13
2021-08-01 04:11:04.692,-0.205,0.16
2021-08-01 04:11:04.696,-0.205,0.16
2021-08-01 04:11:04.700,-0.185,0.13
2021-08-01 04:11:04.704,-0.195,0.13
2021-08-01 04:11:04.708,-0.185,0.135
2021-08-01 04:11:04.712,-0.185,0.14
2021-08-01 04:11:04.716,-0.2,0.14
2021-08-01 04:11:04.720,-0.185,0.135
2021-08-01 04:11:04.724,-0.195,0.14
2021-08-01 04:11:04.728,-0.205,0.14
2021-08-01 04:11:04.732,-0.195,0.165
2021-08-01 04:11:04.736,-0.18,0.145
2021-08-01 04:11:04.740,-0.2,0.145
2021-08-01 04:11:04.744,-0.2,0.11
2021-08-01 04:11:04.748,-0.2,0.115
2021-08-01 04:11:04.752,-0.2,0.135
2021-08-01 04:11:04.756,-0.205,0.135
2021-08-01 04:11:04.760,-0.195,0.12
2021-08-01 04:11:04.764,-0.2,0.12
2021-08-01 04:11:04.768,-0.2,0.125
2021-08-01 04:11:04.772,-0.205,0.105
2021-08-01 04:11:04.776,-0.22,0.115
2021-08-01 04:11:04.780,-0.215,0.135
2021-08-01 04:11:04.784,-0.19,0.09
2021-08-01 04:11:04.788,-0.21,0.12
2021-08-01 04:11:04.792,-0.21,0.12
2021-08-01 04:11:04.796,-0.215,0.115
2021-08-01 04:11:04.800,-0.21,0.085
2021-08-01 04:11:04.804,-0.22,0.1
2021-08-01 04:11:04.808,-0.225,0.065
2021-08-01 04:11:04.812,-0.23,0.09
2021-08-01 04:11:04.816,-0.22,0.095
2021-08-01 04:11:04.820,-0.215,0.095
2021-08-01 04:11:04.824,-0.23,0.095
2021-08-01 04:11:04.828,-0.22,0.085
2021-08-01 04:11:04.832,-0.225,0.09
2021-08-01 04:11:04.836,-0.235,0.09
2021-08-01 04:11:04.840,-0.235,0.08
2021-08-01 04:11:04.844,-0.23,0.065
2021-08-01 04:11:04.848,-0.22,0.08
2021-08-01 04:11:04.852,-0.235,0.075
2021-08-01 04:11:04.856,-0.225,0.065
2021-08-01 04:11:04.860,-0.24,0.09
2021-08-01 04:11:04.864,-0.22,0.07
2021-08-01 04:11:04.868,-0.215,0.065
2021-08-01 04:11:04.872,-0.24,0.075
2021-08-01 04:11:04.876,-0.24,0.075
2021-08-01 04:11:04.880,-0.235,0.06
2021-08-01 04:11:04.884,-0.245,0.065
2021-08-01 04:11:04.888,-0.225,0.06
2021-08-01 04:11:04.892,-0.235,0.075
2021-08-01 04:11:04.896,-0.225,0.085
2021-08-01 04:11:04.900,-0.22,0.08
2021-08-01 04:11:04.904,-0.24,0.06
2021-08-01 04:11:04.908,-0.235,0.075
2021-08-01 04:11:04.912,-0.23,0.07
2021-08-01 04:11:04.916,-0.225,0.06
2021-08-01 04:11:04.920,-0.24,0.06
2021-08-01 04:11:04.924,-0.23,0.08
2021-08-01 04:11:04.928,-0.24,0.05
2021-08-01 04:11:04.932,-0.225,0.055
2021-08-01 04:11:04.936,-0.23,0.06
2021-08-01 04:11:04.940,-0.215,0.05
2021-08-01 04:11:04.944,-0.22,0.045
2021-08-01 04:11:04.948,-0.235,0.04
2021-08-01 04:11:04.952,-0.22,0.055
2021-08-01 04:11:04.956,-0.23,0.06
2021-08-01 04:11:04.960,-0.24,0.045
2021-08-01 04:11:04.964,-0.23,0.065
2021-08-01 04:11:04.968,-0.24,0.055
2021-08-01 04:11:04.972,-0.23,0.05
2021-08-01 04:11:04.976,-0.23,0.06
2021-08-01 04:11:04.980,-0.245,0.065
2021-08-01 04:11:04.984,-0.24,0.055
2021-08-01 04:11:04.988,-0.25,0.05
2021-08-01 04:11:04.992,-0.235,0.035
2021-08-01 04:11:04.996,-0.24,0.045
2021-08-01 04:11:05.000,-0.24,0.07
2021-08-01 04:11:05.004,-0.265,0.04
2021-08-01 04:11:05.008,-0.23,0.065
2021-08-01 04:11:05.012,-0.225,0.07
2021-08-01 04:11:05.016,-0.2,0.075
2021-08-01 04:11:05.020,-0.2,0.11
2021-08-01 04:11:05.024,-0.17,0.12
2021-08-01 04:11:05.028,-0.155,0.11
2021-08-01 04:11:05.032,-0.15,0.115
2021-08-01 04:11:05.036,-0.14,0.105
2021-08-01 04:11:05.040,-0.15,0.085
2021-08-01 04:11:05.044,-0.16,0.075
2021-08-01 04:11:05.048,-0.175,0.065
2021-08-01 04:11:05.052,-0.175,0.06
2021-08-01 04:11:05.056,-0.21,0.055
2021-08-01 04:11:05.060,-0.215,0.045
2021-08-01 04:11:05.064,-0.21,0.015
2021-08-01 04:11:05.068,-0.215,0.035
2021-08-01 04:11:05.072,-0.215,0.005
2021-08-01 04:11:05.076,-0.22,0.02
2021-08-01 04:11:05.080,-0.225,0.005
2021-08-01 04:11:05.084,-0.225,0.005
2021-08-01 04:11:05.088,-0.175,0.015
2021-08-01 04:11:05.092,-0.165,0.025
2021-08-01 04:11:05.096,-0.17,0.045
2021-08-01 04:11:05.100,-0.16,0.045
2021-08-01 04:11:05.104,-0.175,0.065
2021-08-01 04:11:05.108,-0.185,0.05
2021-08-01 04:11:05.112,-0.215,0.04
2021-08-01 04:11:05.116,-0.235,0.06
2021-08-01 04:11:05.120,-0.245,0.035
2021-08-01 04:11:05.124,-0.255,0.02
2021-08-01 04:11:05.128,-0.285,0.025
2021-08-01 04:11:05.132,-0.27,0.035
2021-08-01 04:11:05.136,-0.285,0.015
2021-08-01 04:11:05.140,-0.275,0.03
2021-08-01 04:11:05.144,-0.285,0.045
2021-08-01 04:11:05.148,-0.28,0.05
2021-08-01 04:11:05.152,-0.285,0.025
2021-08-01 04:11:05.156,-0.29,0.035
2021-08-01 04:11:05.160,-0.28,0.025
2021-08-01 04:11:05.164,-0.275,0.035
2021-08-01 04:11:05.168,-0.305,0.04
2021-08-01 04:11:05.172,-0.275,0.05
2021-08-01 04:11:05.176,-0.285,0.03
2021-08-01 04:11:05.180,-0.3,0.015
2021-08-01 04:11:05.184,-0.295,0.04
2021-08-01 04:11:05.188,-0.28,0.03
2021-08-01 04:11:05.192,-0.295,0.03
2021-08-01 04:11:05.196,-0.285,0.02
2021-08-01 04:11:05.200,-0.285,0.04
2021-08-01 04:11:05.204,-0.28,0.03
2021-08-01 04:11:05.208,-0.285,0.02
2021-08-01 04:11:05.212,-0.285,0.03
2021-08-01 04:11:05.216,-0.285,0.02
2021-08-01 04:11:05.220,-0.275,0.02
2021-08-01 04:11:05.224,-0.265,0.04
2021-08-01 04:11:05.228,-0.275,0.035
2021-08-01 04:11:05.232,-0.28,0.01
2021-08-01 04:11:05.236,-0.25,0.01
2021-08-01 04:11:05.240,-0.26,0.05
2021-08-01 04:11:05.244,-0.235,0.045
2021-08-01 04:11:05.248,-0.185,0.03
2021-08-01 04:11:05.252,-0.11,0.065
2021-08-01 04:11:05.256,-0.08,0.12
2021-08-01 04:11:05.260,-0.095,0.115
2021-08-01 04:11:05.264,-0.16,0.0
2021-08-01 04:11:05.268,-0.195,-0.17
2021-08-01 04:11:05.272,-0.285,-0.32
2021-08-01 04:11:05.276,-0.435,-0.51
2021-08-01 04:11:05.280,-0.575,-0.81
2021-08-01 04:11:05.284,-0.685,-1.105
2021-08-01 04:11:05.288,-0.78,-1.335
2021-08-01 04:11:05.292,-0.85,-1.555
2021-08-01 04:11:05.296,-0.9,-1.76
2021-08-01 04:11:05.316,-1.0,-1.975
2021-08-01 04:11:05.320,-0.93,-1.75
2021-08-01 04:11:05.324,-0.855,-1.575
2021-08-01 04:11:05.328,-0.805,-1.45
2021-08-01 04:11:05.332,-0.785,-1.395
2021-08-01 04:11:05.336,-0.735,-1.325
2021-08-01 04:11:05.340,-0.735,-1.26
2021-08-01 04:11:05.344,-0.74,-1.2
2021-08-01 04:11:05.348,-0.74,-1.14
2021-08-01 04:11:05.352,-0.715,-1.035
2021-08-01 04:11:05.356,-0.67,-0.945
2021-08-01 04:11:05.360,-0.64,-0.84
2021-08-01 04:11:05.364,-0.575,-0.725
2021-08-01 04:11:05.368,-0.55,-0.61
2021-08-01 04:11:05.372,-0.525,-0.51
2021-08-01 04:11:05.376,-0.47,-0.405
2021-08-01 04:11:05.380,-0.435,-0.315
2021-08-01 04:11:05.384,-0.405,-0.24
2021-08-01 04:11:05.388,-0.32,-0.15
2021-08-01 04:11:05.392,-0.27,-0.095
2021-08-01 04:11:05.396,-0.22,-0.03
2021-08-01 04:11:05.400,-0.18,0.025
2021-08-01 04:11:05.404,-0.145,0.11
2021-08-01 04:11:05.408,-0.1,0.195
2021-08-01 04:11:05.412,-0.075,0.26
2021-08-01 04:11:05.416,-0.05,0.31
2021-08-01 04:11:05.420,-0.03,0.35
2021-08-01 04:11:05.424,-0.025,0.41
2021-08-01 04:11:05.428,-0.035,0.41
2021-08-01 04:11:05.432,-0.02,0.405
2021-08-01 04:11:05.436,-0.01,0.43
2021-08-01 04:11:05.440,0.015,0.45
2021-08-01 04:11:05.444,-0.005,0.455
2021-08-01 04:11:05.448,0.02,0.465
2021-08-01 04:11:05.452,0.035,0.49
2021-08-01 04:11:05.456,0.025,0.49
2021-08-01 04:11:05.460,0.055,0.49
2021-08-01 04:11:05.464,0.03,0.5
2021-08-01 04:11:05.468,0.045,0.505
2021-08-01 04:11:05.472,0.05,0.515
2021-08-01 04:11:05.476,0.06,0.52
2021-08-01 04:11:05.480,0.035,0.535
2021-08-01 04:11:05.484,0.075,0.52
2021-08-01 04:11:05.488,0.07,0.545
2021-08-01 04:11:05.492,0.1,0.545
2021-08-01 04:11:05.496,0.08,0.56
2021-08-01 04:11:05.500,0.1,0.575
2021-08-01 04:11:05.504,0.11,0.56
2021-08-01 04:11:05.508,0.1,0.575
2021-08-01 04:11:05.512,0.115,0.58
2021-08-01 04:11:05.516,0.13,0.58
2021-08-01 04:11:05.520,0.12,0.585
2021-08-01 04:11:05.524,0.125,0.585
2021-08-01 04:11:05.528,0.165,0.605
2021-08-01 04:11:05.532,0.155,0.615
2021-08-01 04:11:05.536,0.145,0.615
2021-08-01 04:11:05.540,0.145,0.605
2021-08-01 04:11:05.544,0.155,0.61
2021-08-01 04:11:05.548,0.16,0.625
2021-08-01 04:11:05.552,0.155,0.62
2021-08-01 04:11:05.556,0.165,0.625
2021-08-01 04:11:05.560,0.15,0.63
2021-08-01 04:11:05.564,0.16,0.635
2021-08-01 04:11:05.568,0.135,0.625
2021-08-01 04:11:05.572,0.155,0.635
2021-08-01 04:11:05.576,0.155,0.625
2021-08-01 04:11:05.580,0.145,0.63
2021-08-01 04:11:05.584,0.145,0.64
2021-08-01 04:11:05.588,0.165,0.625
2021-08-01 04:11:05.592,0.14,0.62
2021-08-01 04:11:05.596,0.125,0.625
2021-08-01 04:11:05.600,0.125,0.625
2021-08-01 04:11:05.604,0.13,0.625
2021-08-01 04:11:05.608,0.13,0.59
2021-08-01 04:11:05.612,0.125,0.61
2021-08-01 04:11:05.616,0.105,0.59
2021-08-01 04:11:05.620,0.105,0.595
2021-08-01 04:11:05.624,0.105,0.6
2021-08-01 04:11:05.628,0.095,0.575
2021-08-01 04:11:05.632,0.09,0.585
2021-08-01 04:11:05.636,0.085,0.585
2021-08-01 04:11:05.640,0.075,0.565
2021-08-01 04:11:05.644,0.055,0.555
2021-08-01 04:11:05.648,0.05,0.525
2021-08-01 04:11:05.652,0.03,0.51
2021-08-01 04:11:05.656,0.025,0.505
2021-08-01 04:11:05.660,0.015,0.495
2021-08-01 04:11:05.664,0.0,0.495
2021-08-01 04:11:05.668,-0.01,0.465
2021-08-01 04:11:05.672,-0.005,0.45
2021-08-01 04:11:05.676,-0.01,0.44
2021-08-01 04:11:05.680,-0.025,0.415
2021-08-01 04:11:05.684,-0.04,0.42
2021-08-01 04:11:05.688,-0.05,0.4
2021-08-01 04:11:05.692,-0.065,0.375
2021-08-01 04:11:05.696,-0.09,0.34
2021-08-01 04:11:05.700,-0.065,0.335
2021-08-01 04:11:05.704,-0.105,0.31
2021-08-01 04:11:05.708,-0.115,0.315
2021-08-01 04:11:05.712,-0.105,0.29
2021-08-01 04:11:05.716,-0.125,0.275
2021-08-01 04:11:05.720,-0.135,0.25
2021-08-01 04:11:05.724,-0.145,0.26
2021-08-01 04:11:05.728,-0.135,0.25
2021-08-01 04:11:05.732,-0.155,0.22
2021-08-01 04:11:05.736,-0.175,0.21
2021-08-01 04:11:05.740,-0.17,0.22
2021-08-01 04:11:05.744,-0.18,0.195
2021-08-01 04:11:05.748,-0.18,0.2
2021-08-01 04:11:05.752,-0.19,0.185
2021-08-01 04:11:05.756,-0.175,0.18
2021-08-01 04:11:05.760,-0.17,0.18
2021-08-01 04:11:05.764,-0.19,0.16
2021-08-01 04:11:05.768,-0.185,0.17
2021-08-01 04:11:05.772,-0.18,0.18
2021-08-01 04:11:05.776,-0.17,0.155
2021-08-01 04:11:05.780,-0.175,0.125
2021-08-01 04:11:05.784,-0.195,0.135
2021-08-01 04:11:05.788,-0.17,0.16
2021-08-01 04:11:05.792,-0.19,0.15
2021-08-01 04:11:05.796,-0.18,0.14
2021-08-01 04:11:05.800,-0.175,0.14
2021-08-01 04:11:05.804,-0.18,0.13
2021-08-01 04:11:05.808,-0.175,0.13
2021-08-01 04:11:05.812,-0.16,0.16
2021-08-01 04:11:05.816,-0.18,0.125
2021-08-01 04:11:05.820,-0.17,0.135
2021-08-01 04:11:05.824,-0.17,0.16
2021-08-01 04:11:05.828,-0.175,0.17
2021-08-01 04:11:05.832,-0.17,0.14
2021-08-01 04:11:05.836,-0.17,0.15
2021-08-01 04:11:05.840,-0.16,0.155
2021-08-01 04:11:05.844,-0.175,0.145
2021-08-01 04:11:05.848,-0.175,0.17
2021-08-01 04:11:05.852,-0.18,0.145
2021-08-01 04:11:05.856,-0.17,0.155
2021-08-01 04:11:05.860,-0.17,0.16
2021-08-01 04:11:05.864,-0.16,0.155
2021-08-01 04:11:05.868,-0.175,0.165
2021-08-01 04:11:05.872,-0.18,0.15
2021-08-01 04:11:05.876,-0.185,0.15
2021-08-01 04:11:05.880,-0.16,0.14
2021-08-01 04:11:05.884,-0.18,0.13
2021-08-01 04:11:05.888,-0.18,0.135
2021-08-01 04:11:05.892,-0.185,0.135
2021-08-01 04:11:05.896,-0.195,0.145
2021-08-01 04:11:05.900,-0.195,0.135
2021-08-01 04:11:05.904,-0.2,0.15
2021-08-01 04:11:05.908,-0.2,0.125
2021-08-01 04:11:05.912,-0.21,0.135
2021-08-01 04:11:05.916,-0.215,0.11
2021-08-01 04:11:05.920,-0.215,0.105
2021-08-01 04:11:05.924,-0.2,0.105
2021-08-01 04:11:05.928,-0.22,0.11
2021-08-01 04:11:05.932,-0.21,0.11
2021-08-01 04:11:05.936,-0.2,0.12
2021-08-01 04:11:05.940,-0.22,0.09
2021-08-01 04:11:05.944,-0.225,0.09
2021-08-01 04:11:05.948,-0.225,0.11
2021-08-01 04:11:05.952,-0.21,0.08
2021-08-01 04:11:05.956,-0.22,0.11
2021-08-01 04:11:05.960,-0.22,0.1
2021-08-01 04:11:05.964,-0.23,0.085
2021-08-01 04:11:05.968,-0.22,0.1
2021-08-01 04:11:05.972,-0.24,0.065
2021-08-01 04:11:05.976,-0.23,0.045
2021-08-01 04:11:05.980,-0.25,0.06
2021-08-01 04:11:05.984,-0.23,0.075
2021-08-01 04:11:05.988,-0.24,0.065
2021-08-01 04:11:05.992,-0.25,0.09
2021-08-01 04:11:05.996,-0.25,0.07
2021-08-01 04:11:06.000,-0.235,0.085
2021-08-01 04:11:06.004,-0.245,0.055
2021-08-01 04:11:06.008,-0.245,0.065
2021-08-01 04:11:06.012,-0.24,0.06
2021-08-01 04:11:06.016,-0.24,0.065
2021-08-01 04:11:06.020,-0.245,0.07
2021-08-01 04:11:06.024,-0.245,0.07
2021-08-01 04:11:06.028,-0.22,0.05
2021-08-01 04:11:06.032,-0.225,0.055
2021-08-01 04:11:06.036,-0.25,0.065
2021-08-01 04:11:06.040,-0.25,0.08
2021-08-01 04:11:06.044,-0.24,0.06
2021-08-01 04:11:06.048,-0.255,0.03
2021-08-01 04:11:06.052,-0.24,0.055
2021-08-01 04:11:06.056,-0.24,0.075
2021-08-01 04:11:06.060,-0.225,0.05
2021-08-01 04:11:06.064,-0.24,0.045
2021-08-01 04:11:06.068,-0.225,0.035
2021-08-01 04:11:06.072,-0.215,0.045
2021-08-01 04:11:06.076,-0.235,0.035
2021-08-01 04:11:06.080,-0.26,0.05
2021-08-01 04:11:06.084,-0.25,0.05
2021-08-01 04:11:06.088,-0.24,0.06
2021-08-01 04:11:06.092,-0.265,0.065
2021-08-01 04:11:06.096,-0.25,0.05
2021-08-01 04:11:06.100,-0.26,0.075
2021-08-01 04:11:06.104,-0.235,0.075
2021-08-01 04:11:06.108,-0.245,0.075
2021-08-01 04:11:06.112,-0.23,0.065
2021-08-01 04:11:06.116,-0.2,0.08
2021-08-01 04:11:06.120,-0.19,0.105
2021-08-01 04:11:06.124,-0.185,0.115
2021-08-01 04:11:06.128,-0.175,0.115
2021-08-01 04:11:06.132,-0.16,0.125
2021-08-01 04:11:06.136,-0.14,0.11
2021-08-01 04:11:06.140,-0.16,0.095
2021-08-01 04:11:06.144,-0.17,0.095
2021-08-01 04:11:06.148,-0.18,0.07
2021-08-01 04:11:06.152,-0.205,0.065
2021-08-01 04:11:06.156,-0.195,0.04
2021-08-01 04:11:06.160,-0.225,0.05
2021-08-01 04:11:06.164,-0.21,0.045
2021-08-01 04:11:06.168,-0.215,0.02
2021-08-01 04:11:06.172,-0.205,0.035
2021-08-01 04:11:06.176,-0.215,0.05
2021-08-01 04:11:06.180,-0.215,0.02
2021-08-01 04:11:06.184,-0.18,0.045
2021-08-01 04:11:06.188,-0.14,0.04
2021-08-01 04:11:06.192,-0.17,0.06
2021-08-01 04:11:06.196,-0.165,0.065
2021-08-01 04:11:06.200,-0.175,0.065
2021-08-01 04:11:06.204,-0.21,0.065
2021-08-01 04:11:06.208,-0.25,0.075
2021-08-01 04:11:06.212,-0.27,0.05
2021-08-01 04:11:06.216,-0.29,0.04
2021-08-01 04:11:06.220,-0.31,0.05
2021-08-01 04:11:06.224,-0.29,0.045
2021-08-01 04:11:06.228,-0.295,0.055
2021-08-01 04:11:06.232,-0.275,0.045
2021-08-01 04:11:06.236,-0.285,0.035
2021-08-01 04:11:06.240,-0.3,0.015
2021-08-01 04:11:06.244,-0.32,0.03
2021-08-01 04:11:06.248,-0.305,0.015
2021-08-01 04:11:06.252,-0.29,0.045
2021-08-01 04:11:06.256,-0.3,0.03
2021-08-01 04:11:06.260,-0.295,0.05
2021-08-01 04:11:06.264,-0.3,0.055
2021-08-01 04:11:06.268,-0.295,0.06
2021-08-01 04:11:06.272,-0.28,0.035
2021-08-01 04:11:06.276,-0.305,0.03
2021-08-01 04:11:06.280,-0.3,0.05
2021-08-01 04:11:06.284,-0.285,0.055
2021-08-01 04:11:06.288,-0.295,0.03
2021-08-01 04:11:06.292,-0.285,0.055
2021-08-01 04:11:06.296,-0.285,0.04
2021-08-01 04:11:06.300,-0.295,0.025
2021-08-01 04:11:06.304,-0.275,0.03
2021-08-01 04:11:06.308,-0.28,0.04
2021-08-01 04:11:06.312,-0.265,0.025
2021-08-01 04:11:06.316,-0.27,0.055
2021-08-01 04:11:06.320,-0.275,0.055
2021-08-01 04:11:06.324,-0.28,0.06
2021-08-01 04:11:06.328,-0.27,0.035
2021-08-01 04:11:06.332,-0.25,0.05
2021-08-01 04:11:06.336,-0.205,0.065
2021-08-01 04:11:06.340,-0.16,0.075
2021-08-01 04:11:06.344,-0.09,0.1
2021-08-01 04:11:06.348,-0.085,0.14
2021-08-01 04:11:06.352,-0.11,0.1
2021-08-01 04:11:06.356,-0.18,-0.05
2021-08-01 04:11:06.360,-0.24,-0.205
2021-08-01 04:11:06.364,-0.345,-0.345
2021-08-01 04:11:06.368,-0.515,-0.605
2021-08-01 04:11:06.372,-0.655,-0.885
2021-08-01 04:11:06.376,-0.76,-1.15
2021-08-01 04:11:06.380,-0.875,-1.36
2021-08-01 04:11:06.384,-0.93,-1.57
2021-08-01 04:11:06.388,-0.975,-1.82
2021-08-01 04:11:06.404,-1.055,-1.99
2021-08-01 04:11:06.408,-1.0,-1.745
2021-08-01 04:11:06.412,-0.91,-1.54
2021-08-01 04:11:06.416,-0.86,-1.395
2021-08-01 04:11:06.420,-0.815,-1.325
2021-08-01 04:11:06.424,-0.77,-1.275
2021-08-01 04:11:06.428,-0.735,-1.215
2021-08-01 04:11:06.432,-0.765,-1.135
2021-08-01 04:11:06.436,-0.78,-1.06
2021-08-01 04:11:06.440,-0.735,-0.995
2021-08-01 04:11:06.444,-0.685,-0.895
2021-08-01 04:11:06.448,-0.605,-0.795
2021-08-01 04:11:06.452,-0.56,-0.68
2021-08-01 04:11:06.456,-0.52,-0.555
2021-08-01 04:11:06.460,-0.475,-0.445
2021-08-01 04:11:06.464,-0.465,-0.355
2021-08-01 04:11:06.468,-0.43,-0.25
2021-08-01 04:11:06.472,-0.37,-0.18
2021-08-01 04:11:06.476,-0.295,-0.1
2021-08-01 04:11:06.480,-0.265,-0.04
2021-08-01 04:11:06.484,-0.17,0.015
2021-08-01 04:11:06.488,-0.15,0.08
2021-08-01 04:11:06.492,-0.11,0.145
2021-08-01 04:11:06.496,-0.08,0.225
2021-08-01 04:11:06.500,-0.04,0.295
2021-08-01 04:11:06.504,-0.05,0.355
2021-08-01 04:11:06.508,-0.02,0.4
2021-08-01 04:11:06.512,-0.035,0.425
2021-08-01 04:11:06.516,-0.005,0.445
2021-08-01 04:11:06.520,-0.01,0.44
2021-08-01 04:11:06.524,0.0,0.435
2021-08-01 04:11:06.528,0.015,0.47
2021-08-01 04:11:06.532,0.01,0.48
2021-08-01 04:11:06.536,0.02,0.485
2021-08-01 04:11:06.540,0.03,0.495
2021-08-01 04:11:06.544,0.04,0.485
2021-08-01 04:11:06.548,0.035,0.52
2021-08-01 04:11:06.552,0.05,0.51
2021-08-01 04:11:06.556,0.05,0.515
2021-08-01 04:11:06.560,0.045,0.5
2021-08-01 04:11:06.564,0.055,0.51
2021-08-01 04:11:06.568,0.06,0.535
2021-08-01 04:11:06.572,0.075,0.545
2021-08-01 04:11:06.576,0.08,0.55
2021-08-01 04:11:06.580,0.08,0.545
2021-08-01 04:11:06.584,0.095,0.57
2021-08-01 04:11:06.588,0.1,0.57
2021-08-01 04:11:06.592,0.115,0.58
2021-08-01 04:11:06.596,0.12,0.575
2021-08-01 04:11:06.600,0.125,0.59
2021-08-01 04:11:06.604,0.12,0.6
2021-08-01 04:11:06.608,0.11,0.595
2021-08-01 04:11:06.612,0.12,0.595
2021-08-01 04:11:06.616,0.115,0.625
2021-08-01 04:11:06.620,0.14,0.62
2021-08-01 04:11:06.624,0.12,0.61
2021-08-01 04:11:06.628,0.165,0.63
2021-08-01 04:11:06.632,0.12,0.635
2021-08-01 04:11:06.636,0.14,0.62
2021-08-01 04:11:06.640,0.12,0.635
2021-08-01 04:11:06.644,0.13,0.645
2021-08-01 04:11:06.648,0.145,0.635
2021-08-01 04:11:06.652,0.135,0.625
2021-08-01 04:11:06.656,0.12,0.635
2021-08-01 04:11:06.660,0.115,0.635
2021-08-01 04:11:06.664,0.12,0.65
2021-08-01 04:11:06.668,0.115,0.645
2021-08-01 04:11:06.672,0.13,0.65
2021-08-01 04:11:06.676,0.13,0.65
2021-08-01 04:11:06.680,0.12,0.615
2021-08-01 04:11:06.684,0.13,0.635
2021-08-01 04:11:06.688,0.11,0.635
2021-08-01 04:11:06.692,0.105,0.62
2021-08-01 04:11:06.696,0.095,0.62
2021-08-01 04:11:06.700,0.105,0.63
2021-08-01 04:11:06.704,0.085,0.605
2021-08-01 04:11:06.708,0.09,0.595
2021-08-01 04:11:06.712,0.07,0.585
2021-08-01 04:11:06.716,0.075,0.575
2021-08-01 04:11:06.720,0.04,0.585
2021-08-01 04:11:06.724,0.05,0.54
2021-08-01 04:11:06.728,0.025,0.54
2021-08-01 04:11:06.732,0.04,0.555
2021-08-01 04:11:06.736,0.015,0.53
2021-08-01 04:11:06.740,-0.01,0.53
2021-08-01 04:11:06.744,0.0,0.53
2021-08-01 04:11:06.748,-0.01,0.5
2021-08-01 04:11:06.752,-0.02,0.465
2021-08-01 04:11:06.756,-0.05,0.465
2021-08-01 04:11:06.760,-0.04,0.44
2021-08-01 04:11:06.764,-0.08,0.425
2021-08-01 04:11:06.768,-0.08,0.405
2021-08-01 04:11:06.772,-0.09,0.39
2021-08-01 04:11:06.776,-0.095,0.39
2021-08-01 04:11:06.780,-0.105,0.365
2021-08-01 04:11:06.784,-0.12,0.325
2021-08-01 04:11:06.788,-0.135,0.33
2021-08-01 04:11:06.792,-0.13,0.3
2021-08-01 04:11:06.796,-0.15,0.285
2021-08-01 04:11:06.800,-0.15,0.29
2021-08-01 04:11:06.804,-0.17,0.235
2021-08-01 04:11:06.808,-0.14,0.26
2021-08-01 04:11:06.812,-0.145,0.25
2021-08-01 04:11:06.816,-0.165,0.22
2021-08-01 04:11:06.820,-0.185,0.23
2021-08-01 04:11:06.824,-0.18,0.21
2021-08-01 04:11:06.828,-0.18,0.195
2021-08-01 04:11:06.832,-0.195,0.205
2021-08-01 04:11:06.836,-0.17,0.22
2021-08-01 04:11:06.840,-0.17,0.205
2021-08-01 04:11:06.844,-0.175,0.21
2021-08-01 04:11:06.848,-0.17,0.2
2021-08-01 04:11:06.852,-0.15,0.2
2021-08-01 04:11:06.856,-0.145,0.195
2021-08-01 04:11:06.860,-0.12,0.195
2021-08-01 04:11:06.864,-0.105,0.205
2021-08-01 04:11:06.868,-0.1,0.215
2021-08-01 04:11:06.872,-0.07,0.24
2021-08-01 04:11:06.876,-0.08,0.245
2021-08-01 04:11:06.880,-0.035,0.26
2021-08-01 04:11:06.884,-0.005,0.25
2021-08-01 04:11:06.888,0.03,0.265
2021-08-01 04:11:06.892,0.03,0.28
2021-08-01 04:11:06.896,0.045,0.315
2021-08-01 04:11:06.900,0.015,0.305
2021-08-01 04:11:06.904,-0.015,0.295
2021-08-01 04:11:06.908,-0.045,0.31
2021-08-01 04:11:06.912,-0.075,0.28
2021-08-01 04:11:06.916,-0.105,0.29
2021-08-01 04:11:06.920,-0.13,0.265
2021-08-01 04:11:06.924,-0.15,0.24
2021-08-01 04:11:06.928,-0.145,0.23
2021-08-01 04:11:06.932,-0.14,0.205
2021-08-01 04:11:06.936,-0.17,0.195
2021-08-01 04:11:06.940,-0.17,0.17
2021-08-01 04:11:06.944,-0.175,0.16
2021-08-01 04:11:06.948,-0.19,0.145
2021-08-01 04:11:06.952,-0.19,0.12
2021-08-01 04:11:06.956,-0.225,0.145
2021-08-01 04:11:06.960,-0.24,0.14
2021-08-01 04:11:06.964,-0.255,0.13
2021-08-01 04:11:06.968,-0.24,0.12
2021-08-01 04:11:06.972,-0.26,0.105
2021-08-01 04:11:06.976,-0.255,0.085
2021-08-01 04:11:06.980,-0.275,0.08
2021-08-01 04:11:06.984,-0.275,0.08
2021-08-01 04:11:06.988,-0.28,0.09
2021-08-01 04:11:06.992,-0.26,0.105
2021-08-01 04:11:06.996,-0.275,0.09
2021-08-01 04:11:07.000,-0.275,0.075
2021-08-01 04:11:07.004,-0.285,0.075
2021-08-01 04:11:07.008,-0.295,0.09
2021-08-01 04:11:07.012,-0.305,0.075
2021-08-01 04:11:07.016,-0.31,0.07
2021-08-01 04:11:07.020,-0.31,0.07
2021-08-01 04:11:07.024,-0.28,0.075
2021-08-01 04:11:07.028,-0.3,0.05
2021-08-01 04:11:07.032,-0.3,0.06
2021-08-01 04:11:07.036,-0.295,0.06
2021-08-01 04:11:07.040,-0.29,0.06
2021-08-01 04:11:07.044,-0.29,0.045
2021-08-01 04:11:07.048,-0.3,0.065
2021-08-01 04:11:07.052,-0.295,0.055
2021-08-01 04:11:07.056,-0.29,0.065
2021-08-01 04:11:07.060,-0.285,0.085
2021-08-01 04:11:07.064,-0.3,0.06
2021-08-01 04:11:07.068,-0.29,0.075
2021-08-01 04:11:07.072,-0.29,0.06
2021-08-01 04:11:07.076,-0.32,0.055
2021-08-01 04:11:07.080,-0.305,0.04
2021-08-01 04:11:07.084,-0.265,0.055
2021-08-01 04:11:07.088,-0.285,0.05
2021-08-01 04:11:07.092,-0.28,0.05
2021-08-01 04:11:07.096,-0.26,0.06
2021-08-01 04:11:07.100,-0.205,0.045
2021-08-01 04:11:07.104,-0.145,0.07
2021-08-01 04:11:07.108,-0.08,0.135
2021-08-01 04:11:07.112,-0.12,0.145
2021-08-01 04:11:07.116,-0.19,0.04
2021-08-01 04:11:07.120,-0.27,-0.105
2021-08-01 04:11:07.124,-0.375,-0.27
2021-08-01 04:11:07.128,-0.54,-0.47
2021-08-01 04:11:07.132,-0.715,-0.735
2021-08-01 04:11:07.136,-0.84,-1.02
2021-08-01 04:11:07.140,-0.97,-1.235
2021-08-01 04:11:07.144,-1.04,-1.45
2021-08-01 04:11:07.148,-1.125,-1.715
2021-08-01 04:11:07.152,-1.18,-1.98
2021-08-01 04:11:07.168,-1.175,-1.895
2021-08-01 04:11:07.172,-1.11,-1.7
2021-08-01 04:11:07.176,-1.075,-1.565
2021-08-01 04:11:07.180,-1.03,-1.47
2021-08-01 04:11:07.184,-0.985,-1.4
2021-08-01 04:11:07.188,-0.91,-1.34
2021-08-01 04:11:07.192,-0.855,-1.28
2021-08-01 04:11:07.196,-0.865,-1.215
2021-08-01 04:11:07.200,-0.825,-1.115
2021-08-01 04:11:07.204,-0.79,-1.04
2021-08-01 04:11:07.208,-0.725,-0.935
2021-08-01 04:11:07.212,-0.66,-0.78
2021-08-01 04:11:07.216,-0.605,-0.665
2021-08-01 04:11:07.220,-0.59,-0.55
2021-08-01 04:11:07.224,-0.535,-0.445
2021-08-01 04:11:07.228,-0.495,-0.36
2021-08-01 04:11:07.232,-0.46,-0.265
2021-08-01 04:11:07.236,-0.41,-0.185
2021-08-01 04:11:07.240,-0.31,-0.11
2021-08-01 04:11:07.244,-0.285,-0.045
2021-08-01 04:11:07.248,-0.205,0.015
2021-08-01 04:11:07.252,-0.16,0.095
2021-08-01 04:11:07.256,-0.135,0.18
2021-08-01 04:11:07.260,-0.12,0.255
2021-08-01 04:11:07.264,-0.075,0.305
2021-08-01 04:11:07.268,-0.07,0.365
2021-08-01 04:11:07.272,-0.05,0.395
2021-08-01 04:11:07.276,-0.06,0.4
2021-08-01 04:11:07.280,-0.04,0.425
2021-08-01 04:11:07.284,-0.025,0.445
2021-08-01 04:11:07.288,-0.01,0.465
2021-08-01 04:11:07.292,0.0,0.46
2021-08-01 04:11:07.296,0.01,0.455
2021-08-01 04:11:07.300,0.03,0.49
2021-08-01 04:11:07.304,0.025,0.485
2021-08-01 04:11:07.308,0.03,0.485
2021-08-01 04:11:07.312,0.035,0.52
2021-08-01 04:11:07.316,0.035,0.525
2021-08-01 04:11:07.320,0.055,0.55
2021-08-01 04:11:07.324,0.055,0.54
2021-08-01 04:11:07.328,0.07,0.535
2021-08-01 04:11:07.332,0.09,0.535
2021-08-01 04:11:07.336,0.07,0.575
2021-08-01 04:11:07.340,0.08,0.545
2021-08-01 04:11:07.344,0.09,0.555
2021-08-01 04:11:07.348,0.11,0.575
2021-08-01 04:11:07.352,0.1,0.59
2021-08-01 04:11:07.356,0.11,0.58
2021-08-01 04:11:07.360,0.125,0.57
2021-08-01 04:11:07.364,0.14,0.58
2021-08-01 04:11:07.368,0.14,0.595
2021-08-01 04:11:07.372,0.14,0.59
2021-08-01 04:11:07.376,0.15,0.6
2021-08-01 04:11:07.380,0.17,0.6
2021-08-01 04:11:07.384,0.15,0.615
2021-08-01 04:11:07.388,0.15,0.625
2021-08-01 04:11:07.392,0.14,0.62
2021-08-01 04:11:07.396,0.175,0.615
2021-08-01 04:11:07.400,0.18,0.63
2021-08-01 04:11:07.404,0.175,0.635
2021-08-01 04:11:07.408,0.155,0.63
2021-08-01 04:11:07.412,0.165,0.635
2021-08-01 04:11:07.416,0.155,0.62
2021-08-01 04:11:07.420,0.135,0.625
2021-08-01 04:11:07.424,0.175,0.635
2021-08-01 04:11:07.428,0.185,0.64
2021-08-01 04:11:07.432,0.16,0.635
2021-08-01 04:11:07.436,0.145,0.645
2021-08-01 04:11:07.440,0.16,0.64
2021-08-01 04:11:07.444,0.145,0.63
2021-08-01 04:11:07.448,0.13,0.63
2021-08-01 04:11:07.452,0.125,0.625
2021-08-01 04:11:07.456,0.125,0.615
2021-08-01 04:11:07.460,0.135,0.62
2021-08-01 04:11:07.464,0.12,0.615
2021-08-01 04:11:07.468,0.105,0.59
2021-08-01 04:11:07.472,0.095,0.605
2021-08-01 04:11:07.476,0.095,0.57
2021-08-01 04:11:07.480,0.065,0.56
2021-08-01 04:11:07.484,0.09,0.575
2021-08-01 04:11:07.488,0.06,0.54
2021-08-01 04:11:07.492,0.06,0.525
2021-08-01 04:11:07.496,0.04,0.515
2021-08-01 04:11:07.500,0.025,0.51
2021-08-01 04:11:07.504,0.01,0.475
2021-08-01 04:11:07.508,-0.005,0.48
2021-08-01 04:11:07.512,-0.01,0.455
2021-08-01 04:11:07.516,-0.015,0.44
2021-08-01 04:11:07.520,-0.035,0.415
2021-08-01 04:11:07.524,-0.035,0.41
2021-08-01 04:11:07.528,-0.06,0.375
2021-08-01 04:11:07.532,-0.07,0.375
2021-08-01 04:11:07.536,-0.085,0.34
2021-08-01 04:11:07.540,-0.095,0.325
2021-08-01 04:11:07.544,-0.115,0.315
2021-08-01 04:11:07.548,-0.125,0.31
2021-08-01 04:11:07.552,-0.14,0.295
2021-08-01 04:11:07.556,-0.14,0.27
2021-08-01 04:11:07.560,-0.135,0.27
2021-08-01 04:11:07.564,-0.145,0.25
2021-08-01 04:11:07.568,-0.16,0.24
2021-08-01 04:11:07.572,-0.15,0.235
2021-08-01 04:11:07.576,-0.16,0.24
2021-08-01 04:11:07.580,-0.17,0.21
2021-08-01 04:11:07.584,-0.17,0.2
2021-08-01 04:11:07.588,-0.185,0.215
2021-08-01 04:11:07.592,-0.18,0.19
2021-08-01 04:11:07.596,-0.165,0.185
2021-08-01 04:11:07.600,-0.185,0.2
2021-08-01 04:11:07.604,-0.16,0.185
2021-08-01 04:11:07.608,-0.185,0.18
2021-08-01 04:11:07.612,-0.185,0.19
2021-08-01 04:11:07.616,-0.175,0.19
2021-08-01 04:11:07.620,-0.175,0.17
2021-08-01 04:11:07.624,-0.18,0.175
2021-08-01 04:11:07.628,-0.185,0.175
2021-08-01 04:11:07.632,-0.185,0.18
2021-08-01 04:11:07.636,-0.165,0.185
2021-08-01 04:11:07.640,-0.18,0.185
2021-08-01 04:11:07.644,-0.185,0.175
2021-08-01 04:11:07.648,-0.185,0.195
2021-08-01 04:11:07.652,-0.17,0.185
2021-08-01 04:11:07.656,-0.19,0.175
2021-08-01 04:11:07.660,-0.17,0.18
2021-08-01 04:11:07.664,-0.19,0.17
2021-08-01 04:11:07.668,-0.175,0.17
2021-08-01 04:11:07.672,-0.18,0.19
2021-08-01 04:11:07.676,-0.185,0.165
2021-08-01 04:11:07.680,-0.16,0.17
2021-08-01 04:11:07.684,-0.18,0.17
2021-08-01 04:11:07.688,-0.185,0.18
2021-08-01 04:11:07.692,-0.17,0.17
2021-08-01 04:11:07.696,-0.2,0.16
2021-08-01 04:11:07.700,-0.18,0.16
2021-08-01 04:11:07.704,-0.18,0.155
2021-08-01 04:11:07.708,-0.195,0.16
2021-08-01 04:11:07.712,-0.2,0.165
2021-08-01 04:11:07.716,-0.205,0.15
2021-08-01 04:11:07.720,-0.195,0.155
2021-08-01 04:11:07.724,-0.19,0.125
2021-08-01 04:11:07.728,-0.205,0.155
2021-08-01 04:11:07.732,-0.2,0.145
2021-08-01 04:11:07.736,-0.2,0.15
2021-08-01 04:11:07.740,-0.215,0.15
2021-08-01 04:11:07.744,-0.225,0.13
2021-08-01 04:11:07.748,-0.2,0.12
2021-08-01 04:11:07.752,-0.2,0.13
2021-08-01 04:11:07.756,-0.21,0.145
2021-08-01 04:11:07.760,-0.21,0.15
2021-08-01 04:11:07.764,-0.21,0.145
2021-08-01 04:11:07.768,-0.225,0.125
2021-08-01 04:11:07.772,-0.205,0.125
2021-08-01 04:11:07.776,-0.21,0.12
2021-08-01 04:11:07.780,-0.225,0.13
2021-08-01 04:11:07.784,-0.205,0.105
2021-08-01 04:11:07.788,-0.23,0.125
2021-08-01 04:11:07.792,-0.215,0.145
2021-08-01 04:11:07.796,-0.2,0.11
2021-08-01 04:11:07.800,-0.23,0.11
2021-08-01 04:11:07.804,-0.225,0.14
2021-08-01 04:11:07.808,-0.22,0.12
2021-08-01 04:11:07.812,-0.215,0.13
2021-08-01 04:11:07.816,-0.21,0.12
2021-08-01 04:11:07.820,-0.215,0.125
2021-08-01 04:11:07.824,-0.225,0.095
2021-08-01 04:11:07.828,-0.235,0.13
2021-08-01 04:11:07.832,-0.215,0.12
2021-08-01 04:11:07.836,-0.22,0.11
2021-08-01 04:11:07.840,-0.225,0.105
2021-08-01 04:11:07.844,-0.215,0.13
2021-08-01 04:11:07.848,-0.24,0.135
2021-08-01 04:11:07.852,-0.235,0.115
2021-08-01 04:11:07.856,-0.23,0.105
2021-08-01 04:11:07.860,-0.23,0.12
2021-08-01 04:11:07.864,-0.24,0.11
2021-08-01 04:11:07.868,-0.24,0.115
2021-08-01 04:11:07.872,-0.225,0.12
2021-08-01 04:11:07.876,-0.24,0.095
2021-08-01 04:11:07.880,-0.225,0.11
2021-08-01 04:11:07.884,-0.24,0.11
2021-08-01 04:11:07.888,-0.235,0.105
2021-08-01 04:11:07.892,-0.24,0.1
2021-08-01 04:11:07.896,-0.235,0.11
2021-08-01 04:11:07.900,-0.25,0.115
2021-08-01 04:11:07.904,-0.22,0.125
2021-08-01 04:11:07.908,-0.24,0.11
2021-08-01 04:11:07.912,-0.225,0.11
2021-08-01 04:11:07.916,-0.215,0.12
2021-08-01 04:11:07.920,-0.23,0.115
2021-08-01 04:11:07.924,-0.24,0.125
2021-08-01 04:11:07.928,-0.25,0.14
2021-08-01 04:11:07.932,-0.225,0.11
2021-08-01 04:11:07.936,-0.23,0.12
2021-08-01 04:11:07.940,-0.235,0.11
2021-08-01 04:11:07.944,-0.23,0.085
2021-08-01 04:11:07.948,-0.235,0.09
2021-08-01 04:11:07.952,-0.235,0.125
2021-08-01 04:11:07.956,-0.225,0.1
2021-08-01 04:11:07.960,-0.235,0.115
2021-08-01 04:11:07.964,-0.23,0.12
2021-08-01 04:11:07.968,-0.225,0.12
2021-08-01 04:11:07.972,-0.225,0.105
2021-08-01 04:11:07.976,-0.225,0.085
2021-08-01 04:11:07.980,-0.235,0.095
2021-08-01 04:11:07.984,-0.215,0.13
2021-08-01 04:11:07.988,-0.215,0.1
2021-08-01 04:11:07.992,-0.235,0.09
2021-08-01 04:11:07.996,-0.245,0.1
2021-08-01 04:11:08.000,-0.25,0.105
2021-08-01 04:11:08.004,-0.24,0.09
2021-08-01 04:11:08.008,-0.23,0.105
2021-08-01 04:11:08.012,-0.245,0.1
2021-08-01 04:11:08.016,-0.24,0.11
2021-08-01 04:11:08.020,-0.245,0.13
2021-08-01 04:11:08.024,-0.24,0.12
2021-08-01 04:11:08.028,-0.24,0.09
2021-08-01 04:11:08.032,-0.225,0.1
2021-08-01 04:11:08.036,-0.23,0.08
2021-08-01 04:11:08.040,-0.25,0.09
2021-08-01 04:11:08.044,-0.235,0.105
2021-08-01 04:11:08.048,-0.24,0.105
2021-08-01 04:11:08.052,-0.25,0.09
2021-08-01 04:11:08.056,-0.235,0.1
2021-08-01 04:11:08.060,-0.24,0.115
2021-08-01 04:11:08.064,-0.25,0.1
2021-08-01 04:11:08.068,-0.24,0.11
2021-08-01 04:11:08.072,-0.245,0.08
2021-08-01 04:11:08.076,-0.25,0.105
2021-08-01 04:11:08.080,-0.25,0.09
2021-08-01 04:11:08.084,-0.25,0.085
2021-08-01 04:11:08.088,-0.24,0.09
2021-08-01 04:11:08.092,-0.25,0.085
2021-08-01 04:11:08.096,-0.24,0.085
2021-08-01 04:11:08.100,-0.255,0.09
2021-08-01 04:11:08.104,-0.235,0.08
2021-08-01 04:11:08.108,-0.24,0.09
2021-08-01 04:11:08.112,-0.23,0.085
2021-08-01 04:11:08.116,-0.23,0.1
2021-08-01 04:11:08.120,-0.225,0.1
2021-08-01 04:11:08.124,-0.235,0.085
2021-08-01 04:11:08.128,-0.22,0.08
2021-08-01 04:11:08.132,-0.245,0.1
2021-08-01 04:11:08.136,-0.225,0.095
2021-08-01 04:11:08.140,-0.245,0.095
2021-08-01 04:11:08.144,-0.26,0.095
2021-08-01 04:11:08.148,-0.24,0.09
2021-08-01 04:11:08.152,-0.235,0.115
2021-08-01 04:11:08.156,-0.25,0.11
2021-08-01 04:11:08.160,-0.235,0.105
2021-08-01 04:11:08.164,-0.255,0.105
2021-08-01 04:11:08.168,-0.23,0.105
2021-08-01 04:11:08.172,-0.23,0.12
2021-08-01 04:11:08.176,-0.22,0.105
2021-08-01 04:11:08.180,-0.235,0.09
2021-08-01 04:11:08.184,-0.225,0.1
2021-08-01 04:11:08.188,-0.255,0.1
2021-08-01 04:11:08.192,-0.255,0.1
2021-08-01 04:11:08.196,-0.235,0.11
2021-08-01 04:11:08.200,-0.225,0.1
2021-08-01 04:11:08.204,-0.225,0.085
2021-08-01 04:11:08.208,-0.235,0.09
2021-08-01 04:11:08.212,-0.215,0.09
2021-08-01 04:11:08.216,-0.22,0.095
2021-08-01 04:11:08.220,-0.21,0.095
2021-08-01 04:11:08.224,-0.19,0.115
2021-08-01 04:11:08.228,-0.175,0.12
2021-08-01 04:11:08.232,-0.16,0.145
2021-08-01 04:11:08.236,-0.145,0.155
2021-08-01 04:11:08.240,-0.13,0.145
2021-08-01 04:11:08.244,-0.13,0.135
2021-08-01 04:11:08.248,-0.13,0.14
2021-08-01 04:11:08.252,-0.125,0.125
2021-08-01 04:11:08.256,-0.165,0.1
2021-08-01 04:11:08.260,-0.15,0.105
2021-08-01 04:11:08.264,-0.175,0.115
2021-08-01 04:11:08.268,-0.205,0.075
2021-08-01 04:11:08.272,-0.195,0.065
2021-08-01 04:11:08.276,-0.19,0.075
2021-08-01 04:11:08.280,-0.185,0.085
2021-08-01 04:11:08.284,-0.18,0.095
2021-08-01 04:11:08.288,-0.195,0.06
2021-08-01 04:11:08.292,-0.175,0.07
2021-08-01 04:11:08.296,-0.145,0.075
2021-08-01 04:11:08.300,-0.14,0.095
2021-08-01 04:11:08.304,-0.175,0.105
2021-08-01 04:11:08.308,-0.2,0.085
2021-08-01 04:11:08.312,-0.205,0.085
2021-08-01 04:11:08.316,-0.22,0.07
2021-08-01 04:11:08.320,-0.24,0.09
2021-08-01 04:11:08.324,-0.26,0.065
2021-08-01 04:11:08.328,-0.275,0.065
2021-08-01 04:11:08.332,-0.275,0.06
2021-08-01 04:11:08.336,-0.295,0.07
2021-08-01 04:11:08.340,-0.275,0.06
2021-08-01 04:11:08.344,-0.28,0.07
2021-08-01 04:11:08.348,-0.26,0.07
2021-08-01 04:11:08.352,-0.265,0.06
2021-08-01 04:11:08.356,-0.275,0.065
2021-08-01 04:11:08.360,-0.275,0.08
2021-08-01 04:11:08.364,-0.265,0.09
2021-08-01 04:11:08.368,-0.28,0.075
2021-08-01 04:11:08.372,-0.275,0.09
2021-08-01 04:11:08.376,-0.285,0.055
2021-08-01 04:11:08.380,-0.26,0.06
2021-08-01 04:11:08.384,-0.27,0.075
2021-08-01 04:11:08.388,-0.265,0.065
2021-08-01 04:11:08.392,-0.27,0.075
2021-08-01 04:11:08.396,-0.265,0.09
2021-08-01 04:11:08.400,-0.285,0.075
2021-08-01 04:11:08.404,-0.27,0.08
2021-08-01 04:11:08.408,-0.275,0.09
2021-08-01 04:11:08.412,-0.27,0.09
2021-08-01 04:11:08.416,-0.26,0.09
2021-08-01 04:11:08.420,-0.26,0.075
2021-08-01 04:11:08.424,-0.245,0.075
2021-08-01 04:11:08.428,-0.26,0.08
2021-08-01 04:11:08.432,-0.265,0.075
2021-08-01 04:11:08.436,-0.23,0.075
2021-08-01 04:11:08.440,-0.22,0.095
2021-08-01 04:11:08.444,-0.18,0.105
2021-08-01 04:11:08.448,-0.095,0.14
2021-08-01 04:11:08.452,-0.05,0.18
2021-08-01 04:11:08.456,-0.08,0.18
2021-08-01 04:11:08.460,-0.135,0.06
2021-08-01 04:11:08.464,-0.18,-0.1
2021-08-01 04:11:08.468,-0.25,-0.29
2021-08-01 04:11:08.472,-0.38,-0.49
2021-08-01 04:11:08.476,-0.515,-0.8
2021-08-01 04:11:08.480,-0.63,-1.105
2021-08-01 04:11:08.484,-0.76,-1.325
2021-08-01 04:11:08.488,-0.8,-1.53
2021-08-01 04:11:08.492,-0.845,-1.76
2021-08-01 04:11:08.496,-0.85,-1.96
2021-08-01 04:11:08.512,-0.915,-1.835
2021-08-01 04:11:08.516,-0.865,-1.61
2021-08-01 04:11:08.520,-0.795,-1.465
2021-08-01 04:11:08.524,-0.75,-1.38
2021-08-01 04:11:08.528,-0.725,-1.31
2021-08-01 04:11:08.532,-0.7,-1.265
2021-08-01 04:11:08.536,-0.7,-1.18
2021-08-01 04:11:08.540,-0.71,-1.105
2021-08-01 04:11:08.544,-0.68,-1.015
2021-08-01 04:11:08.548,-0.64,-0.92
2021-08-01 04:11:08.552,-0.615,-0.84
2021-08-01 04:11:08.556,-0.555,-0.72
2021-08-01 04:11:08.560,-0.525,-0.595
2021-08-01 04:11:08.564,-0.525,-0.475
2021-08-01 04:11:08.568,-0.505,-0.38
2021-08-01 04:11:08.572,-0.45,-0.3
2021-08-01 04:11:08.576,-0.415,-0.21
2021-08-01 04:11:08.580,-0.375,-0.135
2021-08-01 04:11:08.584,-0.32,-0.065
2021-08-01 04:11:08.588,-0.255,0.0
2021-08-01 04:11:08.592,-0.205,0.06
2021-08-01 04:11:08.596,-0.15,0.14
2021-08-01 04:11:08.600,-0.11,0.235
2021-08-01 04:11:08.604,-0.095,0.3
2021-08-01 04:11:08.608,-0.09,0.345
2021-08-01 04:11:08.612,-0.06,0.41
2021-08-01 04:11:08.616,-0.06,0.445
2021-08-01 04:11:08.620,-0.035,0.44
2021-08-01 04:11:08.624,-0.04,0.45
2021-08-01 04:11:08.628,-0.025,0.49
2021-08-01 04:11:08.632,-0.035,0.49
2021-08-01 04:11:08.636,-0.03,0.505
2021-08-01 04:11:08.640,-0.025,0.525
2021-08-01 04:11:08.644,-0.02,0.52
2021-08-01 04:11:08.648,-0.01,0.51
2021-08-01 04:11:08.652,-0.015,0.535
2021-08-01 04:11:08.656,-0.005,0.55
2021-08-01 04:11:08.660,0.005,0.535
2021-08-01 04:11:08.664,0.01,0.55
2021-08-01 04:11:08.668,0.02,0.555
2021-08-01 04:11:08.672,0.01,0.54
2021-08-01 04:11:08.676,0.015,0.57
2021-08-01 04:11:08.680,0.015,0.58
2021-08-01 04:11:08.684,0.01,0.57
2021-08-01 04:11:08.688,0.055,0.56
2021-08-01 04:11:08.692,0.025,0.575
2021-08-01 04:11:08.696,0.03,0.575
2021-08-01 04:11:08.700,0.045,0.575
2021-08-01 04:11:08.704,0.05,0.575
2021-08-01 04:11:08.708,0.06,0.58
2021-08-01 04:11:08.712,0.07,0.56
2021-08-01 04:11:08.716,0.07,0.61
2021-08-01 04:11:08.720,0.075,0.59
2021-08-01 04:11:08.724,0.08,0.59
2021-08-01 04:11:08.728,0.09,0.6
2021-08-01 04:11:08.732,0.095,0.58
2021-08-01 04:11:08.736,0.09,0.605
2021-08-01 04:11:08.740,0.075,0.62
2021-08-01 04:11:08.744,0.09,0.61
2021-08-01 04:11:08.748,0.105,0.615
2021-08-01 04:11:08.752,0.085,0.59
2021-08-01 04:11:08.756,0.09,0.62
2021-08-01 04:11:08.760,0.08,0.605
2021-08-01 04:11:08.764,0.085,0.61
2021-08-01 04:11:08.768,0.075,0.62
2021-08-01 04:11:08.772,0.085,0.62
2021-08-01 04:11:08.776,0.085,0.63
2021-08-01 04:11:08.780,0.075,0.615
2021-08-01 04:11:08.784,0.09,0.605
2021-08-01 04:11:08.788,0.055,0.61
2021-08-01 04:11:08.792,0.06,0.61
2021-08-01 04:11:08.796,0.07,0.605
2021-08-01 04:11:08.800,0.07,0.595
2021-08-01 04:11:08.804,0.06,0.6
2021-08-01 04:11:08.808,0.055,0.58
2021-08-01 04:11:08.812,0.055,0.59
2021-08-01 04:11:08.816,0.065,0.595
2021-08-01 04:11:08.820,0.03,0.605
2021-08-01 04:11:08.824,0.03,0.575
2021-08-01 04:11:08.828,0.03,0.545
2021-08-01 04:11:08.832,0.01,0.54
2021-08-01 04:11:08.836,0.01,0.535
2021-08-01 04:11:08.840,-0.005,0.545
2021-08-01 04:11:08.844,0.01,0.53
2021-08-01 04:11:08.848,-0.01,0.525
2021-08-01 04:11:08.852,-0.015,0.5
2021-08-01 04:11:08.856,-0.025,0.485
2021-08-01 04:11:08.860,-0.04,0.51
2021-08-01 04:11:08.864,-0.045,0.48
2021-08-01 04:11:08.868,-0.035,0.47
2021-08-01 04:11:08.872,-0.05,0.445
2021-08-01 04:11:08.876,-0.07,0.445
2021-08-01 04:11:08.880,-0.055,0.435
2021-08-01 04:11:08.884,-0.09,0.45
2021-08-01 04:11:08.888,-0.095,0.425
2021-08-01 04:11:08.892,-0.08,0.375
2021-08-01 04:11:08.896,-0.09,0.38
2021-08-01 04:11:08.900,-0.12,0.36
2021-08-01 04:11:08.904,-0.135,0.345
2021-08-01 04:11:08.908,-0.13,0.34
2021-08-01 04:11:08.912,-0.13,0.325
2021-08-01 04:11:08.916,-0.145,0.29
2021-08-01 04:11:08.920,-0.145,0.3
2021-08-01 04:11:08.924,-0.175,0.29
2021-08-01 04:11:08.928,-0.14,0.275
2021-08-01 04:11:08.932,-0.14,0.275
2021-08-01 04:11:08.936,-0.155,0.265
2021-08-01 04:11:08.940,-0.16,0.26
2021-08-01 04:11:08.944,-0.165,0.255
2021-08-01 04:11:08.948,-0.16,0.245
2021-08-01 04:11:08.952,-0.185,0.255
2021-08-01 04:11:08.956,-0.18,0.245
2021-08-01 04:11:08.960,-0.18,0.225
2021-08-01 04:11:08.964,-0.195,0.205
2021-08-01 04:11:08.968,-0.185,0.23
2021-08-01 04:11:08.972,-0.195,0.205
2021-08-01 04:11:08.976,-0.185,0.22
2021-08-01 04:11:08.980,-0.19,0.2
2021-08-01 04:11:08.984,-0.185,0.22
2021-08-01 04:11:08.988,-0.19,0.21
2021-08-01 04:11:08.992,-0.175,0.215
2021-08-01 04:11:08.996,-0.195,0.205
2021-08-01 04:11:09.000,-0.2,0.21
2021-08-01 04:11:09.004,-0.195,0.22
2021-08-01 04:11:09.008,-0.22,0.2
2021-08-01 04:11:09.012,-0.19,0.19
2021-08-01 04:11:09.016,-0.2,0.205
2021-08-01 04:11:09.020,-0.2,0.215
2021-08-01 04:11:09.024,-0.18,0.21
2021-08-01 04:11:09.028,-0.165,0.215
2021-08-01 04:11:09.032,-0.19,0.21
2021-08-01 04:11:09.036,-0.18,0.23
2021-08-01 04:11:09.040,-0.195,0.205
2021-08-01 04:11:09.044,-0.17,0.21
2021-08-01 04:11:09.048,-0.175,0.22
2021-08-01 04:11:09.052,-0.205,0.24
2021-08-01 04:11:09.056,-0.185,0.21
2021-08-01 04:11:09.060,-0.16,0.23
2021-08-01 04:11:09.064,-0.195,0.225
2021-08-01 04:11:09.068,-0.19,0.22
2021-08-01 04:11:09.072,-0.195,0.21
2021-08-01 04:11:09.076,-0.19,0.21
2021-08-01 04:11:09.080,-0.2,0.23
2021-08-01 04:11:09.084,-0.21,0.22
2021-08-01 04:11:09.088,-0.22,0.19
2021-08-01 04:11:09.092,-0.225,0.185
2021-08-01 04:11:09.096,-0.225,0.175
2021-08-01 04:11:09.100,-0.225,0.18
2021-08-01 04:11:09.104,-0.23,0.19
2021-08-01 04:11:09.108,-0.23,0.175
2021-08-01 04:11:09.112,-0.225,0.19
2021-08-01 04:11:09.116,-0.22,0.185
2021-08-01 04:11:09.120,-0.24,0.18
2021-08-01 04:11:09.124,-0.235,0.18
2021-08-01 04:11:09.128,-0.24,0.17
2021-08-01 04:11:09.132,-0.245,0.155
2021-08-01 04:11:09.136,-0.24,0.145
2021-08-01 04:11:09.140,-0.26,0.135
2021-08-01 04:11:09.144,-0.255,0.145
2021-08-01 04:11:09.148,-0.275,0.15
2021-08-01 04:11:09.152,-0.26,0.155
2021-08-01 04:11:09.156,-0.255,0.15
2021-08-01 04:11:09.160,-0.24,0.135
2021-08-01 04:11:09.164,-0.215,0.145
2021-08-01 04:11:09.168,-0.25,0.135
2021-08-01 04:11:09.172,-0.26,0.135
2021-08-01 04:11:09.176,-0.255,0.14
2021-08-01 04:11:09.180,-0.245,0.12
2021-08-01 04:11:09.184,-0.25,0.155
2021-08-01 04:11:09.188,-0.265,0.13
2021-08-01 04:11:09.192,-0.27,0.14
2021-08-01 04:11:09.196,-0.24,0.155
2021-08-01 04:11:09.200,-0.26,0.145
2021-08-01 04:11:09.204,-0.265,0.125
2021-08-01 04:11:09.208,-0.26,0.13
2021-08-01 04:11:09.212,-0.24,0.13
2021-08-01 04:11:09.216,-0.245,0.11
2021-08-01 04:11:09.220,-0.26,0.115
2021-08-01 04:11:09.224,-0.26,0.105
2021-08-01 04:11:09.228,-0.24,0.115
2021-08-01 04:11:09.232,-0.24,0.135
2021-08-01 04:11:09.236,-0.25,0.125
2021-08-01 04:11:09.240,-0.25,0.11
2021-08-01 04:11:09.244,-0.26,0.12
2021-08-01 04:11:09.248,-0.26,0.11
2021-08-01 04:11:09.252,-0.275,0.115
2021-08-01 04:11:09.256,-0.265,0.105
2021-08-01 04:11:09.260,-0.275,0.105
2021-08-01 04:11:09.264,-0.28,0.11
2021-08-01 04:11:09.268,-0.265,0.12
2021-08-01 04:11:09.272,-0.275,0.115
2021-08-01 04:11:09.276,-0.27,0.1
2021-08-01 04:11:09.280,-0.275,0.105
2021-08-01 04:11:09.284,-0.27,0.14
2021-08-01 04:11:09.288,-0.26,0.095
2021-08-01 04:11:09.292,-0.27,0.12
2021-08-01 04:11:09.296,-0.265,0.105
2021-08-01 04:11:09.300,-0.26,0.105
2021-08-01 04:11:09.304,-0.27,0.11
2021-08-01 04:11:09.308,-0.275,0.09
2021-08-01 04:11:09.312,-0.265,0.095
