Time,ECG1,ECG2
2021-08-19 13:57:39.572,-0.16,0.045
2021-08-19 13:57:39.576,-0.175,0.03
2021-08-19 13:57:39.580,-0.16,0.035
2021-08-19 13:57:39.584,-0.145,0.03
2021-08-19 13:57:39.588,-0.15,0.04
2021-08-19 13:57:39.592,-0.16,0.04
2021-08-19 13:57:39.596,-0.175,0.045
2021-08-19 13:57:39.600,-0.16,0.05
2021-08-19 13:57:39.604,-0.17,0.035
2021-08-19 13:57:39.608,-0.15,0.045
2021-08-19 13:57:39.612,-0.175,0.04
2021-08-19 13:57:39.616,-0.16,0.035
2021-08-19 13:57:39.620,-0.155,0.035
2021-08-19 13:57:39.624,-0.165,0.035
2021-08-19 13:57:39.628,-0.155,0.03
2021-08-19 13:57:39.632,-0.15,0.055
2021-08-19 13:57:39.636,-0.16,0.025
2021-08-19 13:57:39.640,-0.16,0.035
2021-08-19 13:57:39.644,-0.145,0.04
2021-08-19 13:57:39.648,-0.155,0.03
2021-08-19 13:57:39.652,-0.165,0.045
2021-08-19 13:57:39.656,-0.16,0.055
2021-08-19 13:57:39.660,-0.16,0.055
2021-08-19 13:57:39.664,-0.16,0.045
2021-08-19 13:57:39.668,-0.155,0.045
2021-08-19 13:57:39.672,-0.135,0.05
2021-08-19 13:57:39.676,-0.16,0.045
2021-08-19 13:57:39.680,-0.16,0.055
2021-08-19 13:57:39.684,-0.15,0.045
2021-08-19 13:57:39.688,-0.155,0.055
2021-08-19 13:57:39.692,-0.175,0.045
2021-08-19 13:57:39.696,-0.16,0.04
2021-08-19 13:57:39.700,-0.175,0.045
2021-08-19 13:57:39.704,-0.165,0.045
2021-08-19 13:57:39.708,-0.155,0.04
2021-08-19 13:57:39.712,-0.155,0.045
2021-08-19 13:57:39.716,-0.17,0.035
2021-08-19 13:57:39.720,-0.175,0.045
2021-08-19 13:57:39.724,-0.175,0.035
2021-08-19 13:57:39.728,-0.155,0.04
2021-08-19 13:57:39.732,-0.15,0.03
2021-08-19 13:57:39.736,-0.16,0.035
2021-08-19 13:57:39.740,-0.175,0.045
2021-08-19 13:57:39.744,-0.165,0.045
2021-08-19 13:57:39.748,-0.17,0.04
2021-08-19 13:57:39.752,-0.16,0.05
2021-08-19 13:57:39.756,-0.165,0.04
2021-08-19 13:57:39.760,-0.16,0.045
2021-08-19 13:57:39.764,-0.17,0.045
2021-08-19 13:57:39.768,-0.17,0.045
2021-08-19 13:57:39.772,-0.17,0.035
2021-08-19 13:57:39.776,-0.175,0.03
2021-08-19 13:57:39.780,-0.175,0.03
2021-08-19 13:57:39.784,-0.16,0.04
2021-08-19 13:57:39.788,-0.165,0.045
2021-08-19 13:57:39.792,-0.165,0.035
2021-08-19 13:57:39.796,-0.175,0.035
2021-08-19 13:57:39.800,-0.175,0.03
2021-08-19 13:57:39.804,-0.17,0.04
2021-08-19 13:57:39.808,-0.17,0.045
2021-08-19 13:57:39.812,-0.175,0.045
2021-08-19 13:57:39.816,-0.185,0.035
2021-08-19 13:57:39.820,-0.17,0.035
2021-08-19 13:57:39.824,-0.18,0.03
2021-08-19 13:57:39.828,-0.175,0.035
2021-08-19 13:57:39.832,-0.175,0.02
2021-08-19 13:57:39.836,-0.17,0.025
2021-08-19 13:57:39.840,-0.18,0.025
2021-08-19 13:57:39.844,-0.18,0.04
2021-08-19 13:57:39.848,-0.19,0.03
2021-08-19 13:57:39.852,-0.17,0.03
2021-08-19 13:57:39.856,-0.175,0.025
2021-08-19 13:57:39.860,-0.19,0.03
2021-08-19 13:57:39.864,-0.16,0.01
2021-08-19 13:57:39.868,-0.18,-0.005
2021-08-19 13:57:39.872,-0.18,0.015
2021-08-19 13:57:39.876,-0.155,0.03
2021-08-19 13:57:39.880,-0.18,0.03
2021-08-19 13:57:39.884,-0.17,0.03
2021-08-19 13:57:39.888,-0.175,0.025
2021-08-19 13:57:39.892,-0.18,0.025
2021-08-19 13:57:39.896,-0.18,0.015
2021-08-19 13:57:39.900,-0.18,0.025
2021-08-19 13:57:39.904,-0.18,0.015
2021-08-19 13:57:39.908,-0.195,0.015
2021-08-19 13:57:39.912,-0.185,0.02
2021-08-19 13:57:39.916,-0.175,0.015
2021-08-19 13:57:39.920,-0.17,0.02
2021-08-19 13:57:39.924,-0.18,0.025
2021-08-19 13:57:39.928,-0.185,0.025
2021-08-19 13:57:39.932,-0.18,0.01
2021-08-19 13:57:39.936,-0.175,0.01
2021-08-19 13:57:39.940,-0.19,0.015
2021-08-19 13:57:39.944,-0.185,0.045
2021-08-19 13:57:39.948,-0.175,0.015
2021-08-19 13:57:39.952,-0.17,0.025
2021-08-19 13:57:39.956,-0.17,0.025
2021-08-19 13:57:39.960,-0.18,0.025
2021-08-19 13:57:39.964,-0.16,0.025
2021-08-19 13:57:39.968,-0.155,0.015
2021-08-19 13:57:39.972,-0.16,0.03
2021-08-19 13:57:39.976,-0.16,0.025
2021-08-19 13:57:39.980,-0.175,0.035
2021-08-19 13:57:39.984,-0.145,0.02
2021-08-19 13:57:39.988,-0.165,0.02
2021-08-19 13:57:39.992,-0.175,0.02
2021-08-19 13:57:39.996,-0.175,0.035
2021-08-19 13:57:40.000,-0.175,0.035
2021-08-19 13:57:40.004,-0.17,0.045
2021-08-19 13:57:40.008,-0.18,0.02
2021-08-19 13:57:40.012,-0.18,0.015
2021-08-19 13:57:40.016,-0.175,0.025
2021-08-19 13:57:40.020,-0.18,0.03
2021-08-19 13:57:40.024,-0.16,0.02
2021-08-19 13:57:40.028,-0.16,0.035
2021-08-19 13:57:40.032,-0.175,0.025
2021-08-19 13:57:40.036,-0.19,0.015
2021-08-19 13:57:40.040,-0.175,0.02
2021-08-19 13:57:40.044,-0.18,0.02
2021-08-19 13:57:40.048,-0.18,0.02
2021-08-19 13:57:40.052,-0.17,0.025
2021-08-19 13:57:40.056,-0.18,0.025
2021-08-19 13:57:40.060,-0.185,0.035
2021-08-19 13:57:40.064,-0.17,0.025
2021-08-19 13:57:40.068,-0.175,0.04
2021-08-19 13:57:40.072,-0.175,0.035
2021-08-19 13:57:40.076,-0.175,0.035
2021-08-19 13:57:40.080,-0.18,0.025
2021-08-19 13:57:40.084,-0.17,0.02
2021-08-19 13:57:40.088,-0.18,0.025
2021-08-19 13:57:40.092,-0.18,0.03
2021-08-19 13:57:40.096,-0.165,0.025
2021-08-19 13:57:40.100,-0.185,0.015
2021-08-19 13:57:40.104,-0.18,0.02
2021-08-19 13:57:40.108,-0.17,0.025
2021-08-19 13:57:40.112,-0.175,0.005
2021-08-19 13:57:40.116,-0.155,0.01
2021-08-19 13:57:40.120,-0.185,0.025
2021-08-19 13:57:40.124,-0.175,0.025
2021-08-19 13:57:40.128,-0.17,0.035
2021-08-19 13:57:40.132,-0.175,0.03
2021-08-19 13:57:40.136,-0.17,0.03
2021-08-19 13:57:40.140,-0.165,0.03
2021-08-19 13:57:40.144,-0.15,0.025
2021-08-19 13:57:40.148,-0.14,0.04
2021-08-19 13:57:40.152,-0.13,0.035
2021-08-19 13:57:40.156,-0.145,0.035
2021-08-19 13:57:40.160,-0.135,0.035
2021-08-19 13:57:40.164,-0.135,0.045
2021-08-19 13:57:40.168,-0.125,0.03
2021-08-19 13:57:40.172,-0.15,0.035
2021-08-19 13:57:40.176,-0.15,0.02
2021-08-19 13:57:40.180,-0.13,0.0
2021-08-19 13:57:40.184,-0.135,0.02
2021-08-19 13:57:40.188,-0.14,0.0
2021-08-19 13:57:40.192,-0.14,0.0
2021-08-19 13:57:40.196,-0.145,-0.015
2021-08-19 13:57:40.200,-0.125,-0.005
2021-08-19 13:57:40.204,-0.125,-0.015
2021-08-19 13:57:40.208,-0.12,0.0
2021-08-19 13:57:40.212,-0.12,0.0
2021-08-19 13:57:40.216,-0.13,0.0
2021-08-19 13:57:40.220,-0.13,0.0
2021-08-19 13:57:40.224,-0.135,-0.01
2021-08-19 13:57:40.228,-0.13,-0.01
2021-08-19 13:57:40.232,-0.135,0.01
2021-08-19 13:57:40.236,-0.145,0.005
2021-08-19 13:57:40.240,-0.145,0.005
2021-08-19 13:57:40.244,-0.145,0.005
2021-08-19 13:57:40.248,-0.15,0.02
2021-08-19 13:57:40.252,-0.16,0.03
2021-08-19 13:57:40.256,-0.18,0.04
2021-08-19 13:57:40.260,-0.17,0.02
2021-08-19 13:57:40.264,-0.185,0.03
2021-08-19 13:57:40.268,-0.17,0.03
2021-08-19 13:57:40.272,-0.185,0.035
2021-08-19 13:57:40.276,-0.185,0.035
2021-08-19 13:57:40.280,-0.175,0.03
2021-08-19 13:57:40.284,-0.17,0.035
2021-08-19 13:57:40.288,-0.18,0.025
2021-08-19 13:57:40.292,-0.17,0.03
2021-08-19 13:57:40.296,-0.185,0.03
2021-08-19 13:57:40.300,-0.175,0.03
2021-08-19 13:57:40.304,-0.17,0.02
2021-08-19 13:57:40.308,-0.16,0.035
2021-08-19 13:57:40.312,-0.185,0.025
2021-08-19 13:57:40.316,-0.17,0.025
2021-08-19 13:57:40.320,-0.19,0.02
2021-08-19 13:57:40.324,-0.17,0.015
2021-08-19 13:57:40.328,-0.17,0.02
2021-08-19 13:57:40.332,-0.155,0.025
2021-08-19 13:57:40.336,-0.18,0.04
2021-08-19 13:57:40.340,-0.17,0.04
2021-08-19 13:57:40.344,-0.175,0.03
2021-08-19 13:57:40.348,-0.155,0.025
2021-08-19 13:57:40.352,-0.165,0.035
2021-08-19 13:57:40.356,-0.155,0.03
2021-08-19 13:57:40.360,-0.095,0.05
2021-08-19 13:57:40.364,0.03,0.065
2021-08-19 13:57:40.368,0.25,0.08
2021-08-19 13:57:40.372,0.51,0.045
2021-08-19 13:57:40.376,0.75,0.015
2021-08-19 13:57:40.380,0.975,-0.025
2021-08-19 13:57:40.384,1.09,-0.1
2021-08-19 13:57:40.388,0.965,-0.2
2021-08-19 13:57:40.392,0.61,-0.325
2021-08-19 13:57:40.396,0.11,-0.415
2021-08-19 13:57:40.400,-0.345,-0.495
2021-08-19 13:57:40.404,-0.545,-0.51
2021-08-19 13:57:40.408,-0.6,-0.46
2021-08-19 13:57:40.412,-0.575,-0.385
2021-08-19 13:57:40.416,-0.5,-0.28
2021-08-19 13:57:40.420,-0.39,-0.16
2021-08-19 13:57:40.424,-0.31,-0.075
2021-08-19 13:57:40.428,-0.27,0.005
2021-08-19 13:57:40.432,-0.245,0.065
2021-08-19 13:57:40.436,-0.24,0.1
2021-08-19 13:57:40.440,-0.255,0.11
2021-08-19 13:57:40.444,-0.25,0.115
2021-08-19 13:57:40.448,-0.25,0.11
2021-08-19 13:57:40.452,-0.26,0.08
2021-08-19 13:57:40.456,-0.235,0.1
2021-08-19 13:57:40.460,-0.23,0.085
2021-08-19 13:57:40.464,-0.245,0.085
2021-08-19 13:57:40.468,-0.255,0.08
2021-08-19 13:57:40.472,-0.26,0.065
2021-08-19 13:57:40.476,-0.26,0.075
2021-08-19 13:57:40.480,-0.27,0.07
2021-08-19 13:57:40.484,-0.27,0.065
2021-08-19 13:57:40.488,-0.28,0.07
2021-08-19 13:57:40.492,-0.27,0.065
2021-08-19 13:57:40.496,-0.26,0.065
2021-08-19 13:57:40.500,-0.26,0.065
2021-08-19 13:57:40.504,-0.27,0.065
2021-08-19 13:57:40.508,-0.28,0.055
2021-08-19 13:57:40.512,-0.28,0.06
2021-08-19 13:57:40.516,-0.27,0.06
2021-08-19 13:57:40.520,-0.27,0.06
2021-08-19 13:57:40.524,-0.27,0.065
2021-08-19 13:57:40.528,-0.26,0.06
2021-08-19 13:57:40.532,-0.26,0.055
2021-08-19 13:57:40.536,-0.265,0.065
2021-08-19 13:57:40.540,-0.27,0.055
2021-08-19 13:57:40.544,-0.26,0.06
2021-08-19 13:57:40.548,-0.275,0.055
2021-08-19 13:57:40.552,-0.285,0.055
2021-08-19 13:57:40.556,-0.265,0.075
2021-08-19 13:57:40.560,-0.27,0.07
2021-08-19 13:57:40.564,-0.285,0.06
2021-08-19 13:57:40.568,-0.28,0.065
2021-08-19 13:57:40.572,-0.28,0.065
2021-08-19 13:57:40.576,-0.275,0.075
2021-08-19 13:57:40.580,-0.28,0.07
2021-08-19 13:57:40.584,-0.28,0.06
2021-08-19 13:57:40.588,-0.28,0.07
2021-08-19 13:57:40.592,-0.28,0.075
2021-08-19 13:57:40.596,-0.26,0.07
2021-08-19 13:57:40.600,-0.27,0.075
2021-08-19 13:57:40.604,-0.26,0.075
2021-08-19 13:57:40.608,-0.275,0.07
2021-08-19 13:57:40.612,-0.28,0.075
2021-08-19 13:57:40.616,-0.27,0.075
2021-08-19 13:57:40.620,-0.255,0.07
2021-08-19 13:57:40.624,-0.265,0.065
2021-08-19 13:57:40.628,-0.255,0.075
2021-08-19 13:57:40.632,-0.255,0.07
2021-08-19 13:57:40.636,-0.26,0.075
2021-08-19 13:57:40.640,-0.245,0.055
2021-08-19 13:57:40.644,-0.23,0.06
2021-08-19 13:57:40.648,-0.24,0.055
2021-08-19 13:57:40.652,-0.23,0.055
2021-08-19 13:57:40.656,-0.225,0.06
2021-08-19 13:57:40.660,-0.2,0.06
2021-08-19 13:57:40.664,-0.205,0.05
2021-08-19 13:57:40.668,-0.18,0.045
2021-08-19 13:57:40.672,-0.16,0.045
2021-08-19 13:57:40.676,-0.16,0.045
2021-08-19 13:57:40.680,-0.15,0.04
2021-08-19 13:57:40.684,-0.115,0.03
2021-08-19 13:57:40.688,-0.09,0.035
2021-08-19 13:57:40.692,-0.095,0.03
2021-08-19 13:57:40.696,-0.08,0.04
2021-08-19 13:57:40.700,-0.07,0.025
2021-08-19 13:57:40.704,-0.06,0.02
2021-08-19 13:57:40.708,-0.06,0.02
2021-08-19 13:57:40.712,-0.065,0.03
2021-08-19 13:57:40.716,-0.045,0.025
2021-08-19 13:57:40.720,-0.04,0.02
2021-08-19 13:57:40.724,-0.045,0.025
2021-08-19 13:57:40.728,-0.04,0.03
2021-08-19 13:57:40.732,-0.03,0.03
2021-08-19 13:57:40.736,-0.03,0.035
2021-08-19 13:57:40.740,-0.05,0.03
2021-08-19 13:57:40.744,-0.05,0.025
2021-08-19 13:57:40.748,-0.07,0.03
2021-08-19 13:57:40.752,-0.075,0.03
2021-08-19 13:57:40.756,-0.075,0.035
2021-08-19 13:57:40.760,-0.085,0.035
2021-08-19 13:57:40.764,-0.085,0.02
2021-08-19 13:57:40.768,-0.085,0.03
2021-08-19 13:57:40.772,-0.09,0.025
2021-08-19 13:57:40.776,-0.09,0.03
2021-08-19 13:57:40.780,-0.075,0.02
2021-08-19 13:57:40.784,-0.075,0.04
2021-08-19 13:57:40.788,-0.1,0.035
2021-08-19 13:57:40.792,-0.09,0.05
2021-08-19 13:57:40.796,-0.09,0.05
2021-08-19 13:57:40.800,-0.11,0.035
2021-08-19 13:57:40.804,-0.085,0.025
2021-08-19 13:57:40.808,-0.105,0.03
2021-08-19 13:57:40.812,-0.1,0.045
2021-08-19 13:57:40.816,-0.1,0.045
2021-08-19 13:57:40.820,-0.12,0.03
2021-08-19 13:57:40.824,-0.105,0.04
2021-08-19 13:57:40.828,-0.11,0.04
2021-08-19 13:57:40.832,-0.12,0.02
2021-08-19 13:57:40.836,-0.115,0.02
2021-08-19 13:57:40.840,-0.11,0.03
2021-08-19 13:57:40.844,-0.125,0.015
2021-08-19 13:57:40.848,-0.12,0.025
2021-08-19 13:57:40.852,-0.11,0.03
2021-08-19 13:57:40.856,-0.12,0.02
2021-08-19 13:57:40.860,-0.11,0.02
2021-08-19 13:57:40.864,-0.1,0.03
2021-08-19 13:57:40.868,-0.12,0.025
2021-08-19 13:57:40.872,-0.12,0.015
2021-08-19 13:57:40.876,-0.145,0.025
2021-08-19 13:57:40.880,-0.13,0.02
2021-08-19 13:57:40.884,-0.13,0.01
2021-08-19 13:57:40.888,-0.12,0.02
2021-08-19 13:57:40.892,-0.135,0.025
2021-08-19 13:57:40.896,-0.135,0.025
2021-08-19 13:57:40.900,-0.135,0.02
2021-08-19 13:57:40.904,-0.135,0.03
2021-08-19 13:57:40.908,-0.14,0.025
2021-08-19 13:57:40.912,-0.15,0.03
2021-08-19 13:57:40.916,-0.15,0.03
2021-08-19 13:57:40.920,-0.15,0.015
2021-08-19 13:57:40.924,-0.15,0.025
2021-08-19 13:57:40.928,-0.14,0.025
2021-08-19 13:57:40.932,-0.155,0.015
2021-08-19 13:57:40.936,-0.165,0.01
2021-08-19 13:57:40.940,-0.165,0.025
2021-08-19 13:57:40.944,-0.175,0.015
2021-08-19 13:57:40.948,-0.175,0.005
2021-08-19 13:57:40.952,-0.16,0.005
2021-08-19 13:57:40.956,-0.16,0.015
2021-08-19 13:57:40.960,-0.15,0.015
2021-08-19 13:57:40.964,-0.16,0.015
2021-08-19 13:57:40.968,-0.165,0.005
2021-08-19 13:57:40.972,-0.17,0.03
2021-08-19 13:57:40.976,-0.18,0.02
2021-08-19 13:57:40.980,-0.19,0.025
2021-08-19 13:57:40.984,-0.18,0.01
2021-08-19 13:57:40.988,-0.18,0.01
2021-08-19 13:57:40.992,-0.185,0.01
2021-08-19 13:57:40.996,-0.19,0.01
2021-08-19 13:57:41.000,-0.185,0.005
2021-08-19 13:57:41.004,-0.18,0.005
2021-08-19 13:57:41.008,-0.185,0.015
2021-08-19 13:57:41.012,-0.195,0.025
2021-08-19 13:57:41.016,-0.19,0.005
2021-08-19 13:57:41.020,-0.185,0.02
2021-08-19 13:57:41.024,-0.185,0.015
2021-08-19 13:57:41.028,-0.195,0.0
2021-08-19 13:57:41.032,-0.19,0.005
2021-08-19 13:57:41.036,-0.21,0.005
2021-08-19 13:57:41.040,-0.2,0.02
2021-08-19 13:57:41.044,-0.18,0.015
2021-08-19 13:57:41.048,-0.19,0.015
2021-08-19 13:57:41.052,-0.19,0.015
2021-08-19 13:57:41.056,-0.205,0.03
2021-08-19 13:57:41.060,-0.215,0.015
2021-08-19 13:57:41.064,-0.21,0.015
2021-08-19 13:57:41.068,-0.21,0.02
2021-08-19 13:57:41.072,-0.2,0.015
2021-08-19 13:57:41.076,-0.185,0.02
2021-08-19 13:57:41.080,-0.2,0.015
2021-08-19 13:57:41.084,-0.2,0.0
2021-08-19 13:57:41.088,-0.195,0.0
2021-08-19 13:57:41.092,-0.195,0.01
2021-08-19 13:57:41.096,-0.18,0.005
2021-08-19 13:57:41.100,-0.2,0.015
2021-08-19 13:57:41.104,-0.21,0.025
2021-08-19 13:57:41.108,-0.205,0.005
2021-08-19 13:57:41.112,-0.185,0.015
2021-08-19 13:57:41.116,-0.205,0.005
2021-08-19 13:57:41.120,-0.21,0.005
2021-08-19 13:57:41.124,-0.205,0.0
2021-08-19 13:57:41.128,-0.205,0.005
2021-08-19 13:57:41.132,-0.21,0.02
2021-08-19 13:57:41.136,-0.2,0.02
2021-08-19 13:57:41.140,-0.2,0.02
2021-08-19 13:57:41.144,-0.21,0.005
2021-08-19 13:57:41.148,-0.205,0.005
2021-08-19 13:57:41.152,-0.195,0.0
2021-08-19 13:57:41.156,-0.195,0.005
2021-08-19 13:57:41.160,-0.21,0.0
2021-08-19 13:57:41.164,-0.2,0.0
2021-08-19 13:57:41.168,-0.205,0.01
2021-08-19 13:57:41.172,-0.205,0.0
2021-08-19 13:57:41.176,-0.195,0.0
2021-08-19 13:57:41.180,-0.2,-0.005
2021-08-19 13:57:41.184,-0.2,0.01
2021-08-19 13:57:41.188,-0.205,0.005
2021-08-19 13:57:41.192,-0.195,0.005
2021-08-19 13:57:41.196,-0.205,0.01
2021-08-19 13:57:41.200,-0.21,0.0
2021-08-19 13:57:41.204,-0.22,0.005
2021-08-19 13:57:41.208,-0.21,0.005
2021-08-19 13:57:41.212,-0.195,0.015
2021-08-19 13:57:41.216,-0.195,0.015
2021-08-19 13:57:41.220,-0.22,0.015
2021-08-19 13:57:41.224,-0.2,0.015
2021-08-19 13:57:41.228,-0.22,0.015
2021-08-19 13:57:41.232,-0.21,0.005
2021-08-19 13:57:41.236,-0.2,0.005
2021-08-19 13:57:41.240,-0.2,0.015
2021-08-19 13:57:41.244,-0.205,0.02
2021-08-19 13:57:41.248,-0.205,0.01
2021-08-19 13:57:41.252,-0.21,0.02
2021-08-19 13:57:41.256,-0.205,0.02
2021-08-19 13:57:41.260,-0.21,0.005
2021-08-19 13:57:41.264,-0.205,0.005
2021-08-19 13:57:41.268,-0.21,0.005
2021-08-19 13:57:41.272,-0.21,0.015
2021-08-19 13:57:41.276,-0.205,0.02
2021-08-19 13:57:41.280,-0.2,0.01
2021-08-19 13:57:41.284,-0.2,0.025
2021-08-19 13:57:41.288,-0.21,0.02
2021-08-19 13:57:41.292,-0.215,0.02
2021-08-19 13:57:41.296,-0.215,0.005
2021-08-19 13:57:41.300,-0.2,0.01
2021-08-19 13:57:41.304,-0.205,0.005
2021-08-19 13:57:41.308,-0.205,0.01
2021-08-19 13:57:41.312,-0.205,0.015
2021-08-19 13:57:41.316,-0.195,0.025
2021-08-19 13:57:41.320,-0.195,0.015
2021-08-19 13:57:41.324,-0.195,0.005
2021-08-19 13:57:41.328,-0.19,0.005
2021-08-19 13:57:41.332,-0.195,0.02
2021-08-19 13:57:41.336,-0.205,0.005
2021-08-19 13:57:41.340,-0.185,0.01
2021-08-19 13:57:41.344,-0.205,0.015
2021-08-19 13:57:41.348,-0.2,0.02
2021-08-19 13:57:41.352,-0.195,0.02
2021-08-19 13:57:41.356,-0.185,0.02
2021-08-19 13:57:41.360,-0.19,0.025
2021-08-19 13:57:41.364,-0.175,0.025
2021-08-19 13:57:41.368,-0.19,0.03
2021-08-19 13:57:41.372,-0.205,0.025
2021-08-19 13:57:41.376,-0.195,0.025
2021-08-19 13:57:41.380,-0.17,0.02
2021-08-19 13:57:41.384,-0.19,0.02
2021-08-19 13:57:41.388,-0.2,0.02
2021-08-19 13:57:41.392,-0.19,0.01
2021-08-19 13:57:41.396,-0.195,0.02
2021-08-19 13:57:41.400,-0.18,0.015
2021-08-19 13:57:41.404,-0.18,0.025
2021-08-19 13:57:41.408,-0.18,0.015
2021-08-19 13:57:41.412,-0.18,0.02
2021-08-19 13:57:41.416,-0.17,0.025
2021-08-19 13:57:41.420,-0.14,0.03
2021-08-19 13:57:41.424,-0.14,0.03
2021-08-19 13:57:41.428,-0.135,0.05
2021-08-19 13:57:41.432,-0.12,0.06
2021-08-19 13:57:41.436,-0.14,0.055
2021-08-19 13:57:41.440,-0.13,0.045
2021-08-19 13:57:41.444,-0.14,0.06
2021-08-19 13:57:41.448,-0.14,0.045
2021-08-19 13:57:41.452,-0.145,0.045
2021-08-19 13:57:41.456,-0.135,0.035
2021-08-19 13:57:41.460,-0.135,0.06
2021-08-19 13:57:41.464,-0.135,0.035
2021-08-19 13:57:41.468,-0.15,0.02
2021-08-19 13:57:41.472,-0.16,0.01
2021-08-19 13:57:41.476,-0.17,0.0
2021-08-19 13:57:41.480,-0.15,-0.005
2021-08-19 13:57:41.484,-0.14,-0.015
2021-08-19 13:57:41.488,-0.145,0.0
2021-08-19 13:57:41.492,-0.15,0.0
2021-08-19 13:57:41.496,-0.14,0.0
2021-08-19 13:57:41.500,-0.15,0.005
2021-08-19 13:57:41.504,-0.14,0.0
2021-08-19 13:57:41.508,-0.135,0.0
2021-08-19 13:57:41.512,-0.14,0.0
2021-08-19 13:57:41.516,-0.14,0.01
2021-08-19 13:57:41.520,-0.14,0.015
2021-08-19 13:57:41.524,-0.15,0.02
2021-08-19 13:57:41.528,-0.145,0.025
2021-08-19 13:57:41.532,-0.145,0.03
2021-08-19 13:57:41.536,-0.17,0.015
2021-08-19 13:57:41.540,-0.18,0.035
2021-08-19 13:57:41.544,-0.175,0.035
2021-08-19 13:57:41.548,-0.18,0.045
2021-08-19 13:57:41.552,-0.19,0.035
2021-08-19 13:57:41.556,-0.195,0.035
2021-08-19 13:57:41.560,-0.195,0.035
2021-08-19 13:57:41.564,-0.18,0.03
2021-08-19 13:57:41.568,-0.17,0.03
2021-08-19 13:57:41.572,-0.18,0.02
2021-08-19 13:57:41.576,-0.185,0.03
2021-08-19 13:57:41.580,-0.2,0.03
2021-08-19 13:57:41.584,-0.18,0.04
2021-08-19 13:57:41.588,-0.18,0.035
2021-08-19 13:57:41.592,-0.175,0.03
2021-08-19 13:57:41.596,-0.195,0.015
2021-08-19 13:57:41.600,-0.185,0.015
2021-08-19 13:57:41.604,-0.185,0.025
2021-08-19 13:57:41.608,-0.17,0.015
2021-08-19 13:57:41.612,-0.18,0.015
2021-08-19 13:57:41.616,-0.185,0.01
2021-08-19 13:57:41.620,-0.185,0.03
2021-08-19 13:57:41.624,-0.195,0.02
2021-08-19 13:57:41.628,-0.18,0.01
2021-08-19 13:57:41.632,-0.11,0.03
2021-08-19 13:57:41.636,0.01,0.065
2021-08-19 13:57:41.640,0.22,0.07
2021-08-19 13:57:41.644,0.46,0.045
2021-08-19 13:57:41.648,0.745,0.02
2021-08-19 13:57:41.652,0.97,-0.015
2021-08-19 13:57:41.656,1.12,-0.105
2021-08-19 13:57:41.660,1.055,-0.225
2021-08-19 13:57:41.664,0.73,-0.335
2021-08-19 13:57:41.668,0.255,-0.425
2021-08-19 13:57:41.672,-0.205,-0.49
2021-08-19 13:57:41.676,-0.48,-0.525
2021-08-19 13:57:41.680,-0.575,-0.475
2021-08-19 13:57:41.684,-0.6,-0.39
2021-08-19 13:57:41.688,-0.525,-0.31
2021-08-19 13:57:41.692,-0.415,-0.205
2021-08-19 13:57:41.696,-0.33,-0.095
2021-08-19 13:57:41.700,-0.29,0.0
2021-08-19 13:57:41.704,-0.265,0.065
2021-08-19 13:57:41.708,-0.265,0.085
2021-08-19 13:57:41.712,-0.27,0.095
2021-08-19 13:57:41.716,-0.26,0.09
2021-08-19 13:57:41.720,-0.27,0.085
2021-08-19 13:57:41.724,-0.26,0.075
2021-08-19 13:57:41.728,-0.27,0.055
2021-08-19 13:57:41.732,-0.26,0.07
2021-08-19 13:57:41.736,-0.28,0.075
2021-08-19 13:57:41.740,-0.27,0.065
2021-08-19 13:57:41.744,-0.27,0.055
2021-08-19 13:57:41.748,-0.265,0.05
2021-08-19 13:57:41.752,-0.27,0.045
2021-08-19 13:57:41.756,-0.27,0.03
2021-08-19 13:57:41.760,-0.27,0.055
2021-08-19 13:57:41.764,-0.27,0.035
2021-08-19 13:57:41.768,-0.28,0.04
2021-08-19 13:57:41.772,-0.27,0.04
2021-08-19 13:57:41.776,-0.275,0.035
2021-08-19 13:57:41.780,-0.275,0.025
2021-08-19 13:57:41.784,-0.275,0.03
2021-08-19 13:57:41.788,-0.275,0.035
2021-08-19 13:57:41.792,-0.285,0.03
2021-08-19 13:57:41.796,-0.29,0.045
2021-08-19 13:57:41.800,-0.265,0.03
2021-08-19 13:57:41.804,-0.28,0.035
2021-08-19 13:57:41.808,-0.28,0.04
2021-08-19 13:57:41.812,-0.29,0.05
2021-08-19 13:57:41.816,-0.28,0.045
2021-08-19 13:57:41.820,-0.285,0.045
2021-08-19 13:57:41.824,-0.3,0.04
2021-08-19 13:57:41.828,-0.295,0.045
2021-08-19 13:57:41.832,-0.3,0.055
2021-08-19 13:57:41.836,-0.29,0.05
2021-08-19 13:57:41.840,-0.285,0.055
2021-08-19 13:57:41.844,-0.29,0.06
2021-08-19 13:57:41.848,-0.295,0.06
2021-08-19 13:57:41.852,-0.3,0.055
2021-08-19 13:57:41.856,-0.295,0.055
2021-08-19 13:57:41.860,-0.285,0.06
2021-08-19 13:57:41.864,-0.305,0.06
2021-08-19 13:57:41.868,-0.315,0.06
2021-08-19 13:57:41.872,-0.305,0.055
2021-08-19 13:57:41.876,-0.305,0.065
2021-08-19 13:57:41.880,-0.3,0.055
2021-08-19 13:57:41.884,-0.28,0.055
2021-08-19 13:57:41.888,-0.31,0.045
2021-08-19 13:57:41.892,-0.305,0.045
2021-08-19 13:57:41.896,-0.315,0.04
2021-08-19 13:57:41.900,-0.28,0.045
2021-08-19 13:57:41.904,-0.3,0.05
2021-08-19 13:57:41.908,-0.31,0.03
2021-08-19 13:57:41.912,-0.3,0.025
2021-08-19 13:57:41.916,-0.29,0.04
2021-08-19 13:57:41.920,-0.29,0.03
2021-08-19 13:57:41.924,-0.27,0.02
2021-08-19 13:57:41.928,-0.28,0.035
2021-08-19 13:57:41.932,-0.26,0.03
2021-08-19 13:57:41.936,-0.255,0.0
2021-08-19 13:57:41.940,-0.24,0.01
2021-08-19 13:57:41.944,-0.225,0.0
2021-08-19 13:57:41.948,-0.23,0.0
2021-08-19 13:57:41.952,-0.23,0.0
2021-08-19 13:57:41.956,-0.205,0.005
2021-08-19 13:57:41.960,-0.185,0.005
2021-08-19 13:57:41.964,-0.17,0.0
2021-08-19 13:57:41.968,-0.165,0.0
2021-08-19 13:57:41.972,-0.16,0.0
2021-08-19 13:57:41.976,-0.155,-0.01
2021-08-19 13:57:41.980,-0.13,-0.015
2021-08-19 13:57:41.984,-0.14,-0.01
2021-08-19 13:57:41.988,-0.13,0.0
2021-08-19 13:57:41.992,-0.145,-0.005
2021-08-19 13:57:41.996,-0.13,-0.005
2021-08-19 13:57:42.000,-0.15,-0.005
2021-08-19 13:57:42.004,-0.15,-0.02
2021-08-19 13:57:42.008,-0.135,0.0
2021-08-19 13:57:42.012,-0.15,0.0
2021-08-19 13:57:42.016,-0.155,0.0
2021-08-19 13:57:42.020,-0.15,-0.02
2021-08-19 13:57:42.024,-0.17,-0.01
2021-08-19 13:57:42.028,-0.165,-0.01
2021-08-19 13:57:42.032,-0.18,-0.01
2021-08-19 13:57:42.036,-0.17,0.0
2021-08-19 13:57:42.040,-0.175,-0.005
2021-08-19 13:57:42.044,-0.16,-0.01
2021-08-19 13:57:42.048,-0.165,-0.015
2021-08-19 13:57:42.052,-0.175,-0.005
2021-08-19 13:57:42.056,-0.185,-0.01
2021-08-19 13:57:42.060,-0.18,-0.015
2021-08-19 13:57:42.064,-0.165,-0.01
2021-08-19 13:57:42.068,-0.17,-0.015
2021-08-19 13:57:42.072,-0.18,-0.005
2021-08-19 13:57:42.076,-0.18,-0.005
2021-08-19 13:57:42.080,-0.175,0.0
2021-08-19 13:57:42.084,-0.175,-0.005
2021-08-19 13:57:42.088,-0.17,0.005
2021-08-19 13:57:42.092,-0.16,0.005
2021-08-19 13:57:42.096,-0.165,-0.015
2021-08-19 13:57:42.100,-0.19,0.0
2021-08-19 13:57:42.104,-0.17,0.0
2021-08-19 13:57:42.108,-0.16,-0.01
2021-08-19 13:57:42.112,-0.18,-0.025
2021-08-19 13:57:42.116,-0.18,-0.005
2021-08-19 13:57:42.120,-0.17,-0.015
2021-08-19 13:57:42.124,-0.16,-0.005
2021-08-19 13:57:42.128,-0.17,-0.005
2021-08-19 13:57:42.132,-0.155,0.0
2021-08-19 13:57:42.136,-0.145,0.0
2021-08-19 13:57:42.140,-0.18,-0.015
2021-08-19 13:57:42.144,-0.16,-0.015
2021-08-19 13:57:42.148,-0.15,-0.005
2021-08-19 13:57:42.152,-0.145,0.0
2021-08-19 13:57:42.156,-0.17,0.005
2021-08-19 13:57:42.160,-0.155,0.005
2021-08-19 13:57:42.164,-0.16,0.0
2021-08-19 13:57:42.168,-0.16,0.005
2021-08-19 13:57:42.172,-0.14,0.005
2021-08-19 13:57:42.176,-0.155,0.0
2021-08-19 13:57:42.180,-0.15,0.0
2021-08-19 13:57:42.184,-0.17,0.0
2021-08-19 13:57:42.188,-0.16,0.0
2021-08-19 13:57:42.192,-0.175,-0.01
2021-08-19 13:57:42.196,-0.16,-0.01
2021-08-19 13:57:42.200,-0.16,0.0
2021-08-19 13:57:42.204,-0.18,-0.02
2021-08-19 13:57:42.208,-0.17,0.0
2021-08-19 13:57:42.212,-0.16,0.005
2021-08-19 13:57:42.216,-0.18,0.0
2021-08-19 13:57:42.220,-0.185,-0.025
2021-08-19 13:57:42.224,-0.18,0.0
2021-08-19 13:57:42.228,-0.175,0.0
2021-08-19 13:57:42.232,-0.185,0.0
2021-08-19 13:57:42.236,-0.18,-0.01
2021-08-19 13:57:42.240,-0.19,0.0
2021-08-19 13:57:42.244,-0.195,-0.005
2021-08-19 13:57:42.248,-0.185,-0.02
2021-08-19 13:57:42.252,-0.175,-0.015
2021-08-19 13:57:42.256,-0.185,0.0
2021-08-19 13:57:42.260,-0.195,-0.02
2021-08-19 13:57:42.264,-0.19,-0.005
2021-08-19 13:57:42.268,-0.205,-0.015
2021-08-19 13:57:42.272,-0.19,0.0
2021-08-19 13:57:42.276,-0.19,-0.01
2021-08-19 13:57:42.280,-0.195,-0.015
2021-08-19 13:57:42.284,-0.195,-0.02
2021-08-19 13:57:42.288,-0.225,-0.025
2021-08-19 13:57:42.292,-0.205,-0.03
2021-08-19 13:57:42.296,-0.215,-0.02
2021-08-19 13:57:42.300,-0.195,-0.02
2021-08-19 13:57:42.304,-0.21,-0.02
2021-08-19 13:57:42.308,-0.215,-0.035
2021-08-19 13:57:42.312,-0.22,-0.025
2021-08-19 13:57:42.316,-0.205,-0.015
2021-08-19 13:57:42.320,-0.215,-0.02
2021-08-19 13:57:42.324,-0.21,-0.01
2021-08-19 13:57:42.328,-0.2,-0.02
2021-08-19 13:57:42.332,-0.2,-0.025
2021-08-19 13:57:42.336,-0.21,0.0
2021-08-19 13:57:42.340,-0.205,-0.025
2021-08-19 13:57:42.344,-0.21,-0.025
2021-08-19 13:57:42.348,-0.21,-0.02
2021-08-19 13:57:42.352,-0.215,-0.015
2021-08-19 13:57:42.356,-0.205,-0.025
2021-08-19 13:57:42.360,-0.2,-0.03
2021-08-19 13:57:42.364,-0.205,0.0
2021-08-19 13:57:42.368,-0.205,-0.02
2021-08-19 13:57:42.372,-0.2,-0.015
2021-08-19 13:57:42.376,-0.2,-0.02
2021-08-19 13:57:42.380,-0.19,-0.015
2021-08-19 13:57:42.384,-0.195,-0.02
2021-08-19 13:57:42.388,-0.18,-0.02
2021-08-19 13:57:42.392,-0.18,-0.015
2021-08-19 13:57:42.396,-0.205,0.0
2021-08-19 13:57:42.400,-0.19,-0.02
2021-08-19 13:57:42.404,-0.195,-0.01
2021-08-19 13:57:42.408,-0.195,-0.015
2021-08-19 13:57:42.412,-0.19,-0.025
2021-08-19 13:57:42.416,-0.2,-0.005
2021-08-19 13:57:42.420,-0.195,0.0
2021-08-19 13:57:42.424,-0.18,-0.015
2021-08-19 13:57:42.428,-0.185,-0.015
2021-08-19 13:57:42.432,-0.19,-0.015
2021-08-19 13:57:42.436,-0.19,-0.01
2021-08-19 13:57:42.440,-0.195,-0.01
2021-08-19 13:57:42.444,-0.19,-0.01
2021-08-19 13:57:42.448,-0.19,-0.005
2021-08-19 13:57:42.452,-0.185,-0.005
2021-08-19 13:57:42.456,-0.185,0.0
2021-08-19 13:57:42.460,-0.195,-0.005
2021-08-19 13:57:42.464,-0.175,0.0
2021-08-19 13:57:42.468,-0.18,-0.005
2021-08-19 13:57:42.472,-0.18,-0.01
2021-08-19 13:57:42.476,-0.195,-0.01
2021-08-19 13:57:42.480,-0.185,0.0
2021-08-19 13:57:42.484,-0.18,-0.01
2021-08-19 13:57:42.488,-0.18,0.005
2021-08-19 13:57:42.492,-0.175,0.0
2021-08-19 13:57:42.496,-0.18,-0.015
2021-08-19 13:57:42.500,-0.195,-0.01
2021-08-19 13:57:42.504,-0.19,0.0
2021-08-19 13:57:42.508,-0.17,-0.01
2021-08-19 13:57:42.512,-0.19,0.0
2021-08-19 13:57:42.516,-0.2,0.005
2021-08-19 13:57:42.520,-0.195,0.0
2021-08-19 13:57:42.524,-0.19,0.0
2021-08-19 13:57:42.528,-0.2,-0.005
2021-08-19 13:57:42.532,-0.19,0.0
2021-08-19 13:57:42.536,-0.185,-0.01
2021-08-19 13:57:42.540,-0.2,-0.005
2021-08-19 13:57:42.544,-0.195,0.0
2021-08-19 13:57:42.548,-0.195,0.01
2021-08-19 13:57:42.552,-0.19,0.0
2021-08-19 13:57:42.556,-0.18,0.005
2021-08-19 13:57:42.560,-0.195,0.005
2021-08-19 13:57:42.564,-0.19,0.0
2021-08-19 13:57:42.568,-0.18,0.005
2021-08-19 13:57:42.572,-0.185,0.0
2021-08-19 13:57:42.576,-0.17,-0.01
2021-08-19 13:57:42.580,-0.18,0.01
2021-08-19 13:57:42.584,-0.185,0.005
2021-08-19 13:57:42.588,-0.19,-0.01
2021-08-19 13:57:42.592,-0.185,0.0
2021-08-19 13:57:42.596,-0.185,0.005
2021-08-19 13:57:42.600,-0.185,0.0
2021-08-19 13:57:42.604,-0.195,0.01
2021-08-19 13:57:42.608,-0.19,-0.01
2021-08-19 13:57:42.612,-0.19,-0.005
2021-08-19 13:57:42.616,-0.18,0.01
2021-08-19 13:57:42.620,-0.21,0.0
2021-08-19 13:57:42.624,-0.19,0.005
2021-08-19 13:57:42.628,-0.19,0.0
2021-08-19 13:57:42.632,-0.175,0.01
2021-08-19 13:57:42.636,-0.19,0.005
2021-08-19 13:57:42.640,-0.175,0.0
2021-08-19 13:57:42.644,-0.18,-0.005
2021-08-19 13:57:42.648,-0.18,-0.005
2021-08-19 13:57:42.652,-0.18,-0.01
2021-08-19 13:57:42.656,-0.18,0.0
2021-08-19 13:57:42.660,-0.185,-0.005
2021-08-19 13:57:42.664,-0.165,0.0
2021-08-19 13:57:42.668,-0.2,-0.005
2021-08-19 13:57:42.672,-0.2,-0.005
2021-08-19 13:57:42.676,-0.175,-0.005
2021-08-19 13:57:42.680,-0.175,0.0
2021-08-19 13:57:42.684,-0.17,0.0
2021-08-19 13:57:42.688,-0.165,0.0
2021-08-19 13:57:42.692,-0.16,0.005
2021-08-19 13:57:42.696,-0.145,-0.005
2021-08-19 13:57:42.700,-0.15,-0.005
2021-08-19 13:57:42.704,-0.135,0.01
2021-08-19 13:57:42.708,-0.13,0.01
2021-08-19 13:57:42.712,-0.135,0.005
2021-08-19 13:57:42.716,-0.125,0.02
2021-08-19 13:57:42.720,-0.14,0.01
2021-08-19 13:57:42.724,-0.145,0.025
2021-08-19 13:57:42.728,-0.135,0.02
2021-08-19 13:57:42.732,-0.14,0.01
2021-08-19 13:57:42.736,-0.14,0.01
2021-08-19 13:57:42.740,-0.155,0.0
2021-08-19 13:57:42.744,-0.16,-0.015
2021-08-19 13:57:42.748,-0.16,-0.02
2021-08-19 13:57:42.752,-0.16,-0.035
2021-08-19 13:57:42.756,-0.155,-0.03
2021-08-19 13:57:42.760,-0.145,-0.04
2021-08-19 13:57:42.764,-0.155,-0.05
2021-08-19 13:57:42.768,-0.16,-0.05
2021-08-19 13:57:42.772,-0.17,-0.035
2021-08-19 13:57:42.776,-0.145,-0.04
2021-08-19 13:57:42.780,-0.155,-0.04
2021-08-19 13:57:42.784,-0.16,-0.03
2021-08-19 13:57:42.788,-0.155,-0.06
2021-08-19 13:57:42.792,-0.155,-0.025
2021-08-19 13:57:42.796,-0.15,-0.025
2021-08-19 13:57:42.800,-0.15,-0.02
2021-08-19 13:57:42.804,-0.165,-0.015
2021-08-19 13:57:42.808,-0.17,-0.02
2021-08-19 13:57:42.812,-0.185,-0.02
2021-08-19 13:57:42.816,-0.185,-0.02
2021-08-19 13:57:42.820,-0.2,0.0
2021-08-19 13:57:42.824,-0.19,0.0
2021-08-19 13:57:42.828,-0.195,0.0
2021-08-19 13:57:42.832,-0.21,0.01
2021-08-19 13:57:42.836,-0.205,-0.005
2021-08-19 13:57:42.840,-0.2,0.0
2021-08-19 13:57:42.844,-0.195,-0.005
2021-08-19 13:57:42.848,-0.195,0.0
2021-08-19 13:57:42.852,-0.195,-0.015
2021-08-19 13:57:42.856,-0.205,-0.015
2021-08-19 13:57:42.860,-0.19,-0.02
2021-08-19 13:57:42.864,-0.2,-0.005
2021-08-19 13:57:42.868,-0.195,-0.015
2021-08-19 13:57:42.872,-0.2,-0.02
2021-08-19 13:57:42.876,-0.2,-0.005
2021-08-19 13:57:42.880,-0.19,-0.01
2021-08-19 13:57:42.884,-0.19,-0.015
2021-08-19 13:57:42.888,-0.185,-0.02
2021-08-19 13:57:42.892,-0.18,-0.01
2021-08-19 13:57:42.896,-0.2,-0.015
2021-08-19 13:57:42.900,-0.2,-0.005
2021-08-19 13:57:42.904,-0.165,-0.025
2021-08-19 13:57:42.908,-0.11,0.0
2021-08-19 13:57:42.912,0.04,0.015
2021-08-19 13:57:42.916,0.245,0.005
2021-08-19 13:57:42.920,0.5,-0.005
2021-08-19 13:57:42.924,0.755,-0.04
2021-08-19 13:57:42.928,0.965,-0.09
2021-08-19 13:57:42.932,1.085,-0.165
2021-08-19 13:57:42.936,0.935,-0.27
2021-08-19 13:57:42.940,0.585,-0.385
2021-08-19 13:57:42.944,0.125,-0.465
2021-08-19 13:57:42.948,-0.28,-0.525
2021-08-19 13:57:42.952,-0.49,-0.545
2021-08-19 13:57:42.956,-0.56,-0.49
2021-08-19 13:57:42.960,-0.555,-0.41
2021-08-19 13:57:42.964,-0.475,-0.29
2021-08-19 13:57:42.968,-0.38,-0.19
2021-08-19 13:57:42.972,-0.33,-0.095
2021-08-19 13:57:42.976,-0.285,-0.015
2021-08-19 13:57:42.980,-0.28,0.015
2021-08-19 13:57:42.984,-0.275,0.04
2021-08-19 13:57:42.988,-0.28,0.055
2021-08-19 13:57:42.992,-0.27,0.05
2021-08-19 13:57:42.996,-0.28,0.045
2021-08-19 13:57:43.000,-0.275,0.03
2021-08-19 13:57:43.004,-0.265,0.04
2021-08-19 13:57:43.008,-0.275,0.035
2021-08-19 13:57:43.012,-0.27,0.03
2021-08-19 13:57:43.016,-0.27,0.03
2021-08-19 13:57:43.020,-0.27,0.01
2021-08-19 13:57:43.024,-0.28,0.005
2021-08-19 13:57:43.028,-0.27,0.01
2021-08-19 13:57:43.032,-0.275,0.015
2021-08-19 13:57:43.036,-0.28,0.01
2021-08-19 13:57:43.040,-0.275,0.0
2021-08-19 13:57:43.044,-0.28,0.0
2021-08-19 13:57:43.048,-0.28,0.0
2021-08-19 13:57:43.052,-0.28,0.0
2021-08-19 13:57:43.056,-0.28,0.0
2021-08-19 13:57:43.060,-0.28,0.0
2021-08-19 13:57:43.064,-0.275,-0.005
2021-08-19 13:57:43.068,-0.285,0.0
2021-08-19 13:57:43.072,-0.285,0.01
2021-08-19 13:57:43.076,-0.285,0.015
2021-08-19 13:57:43.080,-0.285,0.01
2021-08-19 13:57:43.084,-0.285,0.015
2021-08-19 13:57:43.088,-0.28,0.02
2021-08-19 13:57:43.092,-0.275,0.015
2021-08-19 13:57:43.096,-0.285,0.015
2021-08-19 13:57:43.100,-0.305,0.02
2021-08-19 13:57:43.104,-0.295,0.005
2021-08-19 13:57:43.108,-0.295,0.01
2021-08-19 13:57:43.112,-0.32,0.005
2021-08-19 13:57:43.116,-0.305,0.005
2021-08-19 13:57:43.120,-0.31,0.025
2021-08-19 13:57:43.124,-0.295,0.005
2021-08-19 13:57:43.128,-0.285,0.01
2021-08-19 13:57:43.132,-0.29,0.01
2021-08-19 13:57:43.136,-0.295,0.02
2021-08-19 13:57:43.140,-0.3,0.025
2021-08-19 13:57:43.144,-0.31,0.02
2021-08-19 13:57:43.148,-0.295,0.015
2021-08-19 13:57:43.152,-0.285,0.02
2021-08-19 13:57:43.156,-0.29,0.02
2021-08-19 13:57:43.160,-0.29,0.01
2021-08-19 13:57:43.164,-0.295,0.02
2021-08-19 13:57:43.168,-0.275,0.025
2021-08-19 13:57:43.172,-0.28,0.03
2021-08-19 13:57:43.176,-0.285,0.02
2021-08-19 13:57:43.180,-0.285,0.015
2021-08-19 13:57:43.184,-0.295,0.02
2021-08-19 13:57:43.188,-0.285,0.005
2021-08-19 13:57:43.192,-0.265,0.0
2021-08-19 13:57:43.196,-0.255,0.005
2021-08-19 13:57:43.200,-0.255,0.0
2021-08-19 13:57:43.204,-0.25,0.01
2021-08-19 13:57:43.208,-0.25,0.0
2021-08-19 13:57:43.212,-0.22,0.0
2021-08-19 13:57:43.216,-0.225,0.0
2021-08-19 13:57:43.220,-0.2,-0.01
2021-08-19 13:57:43.224,-0.195,-0.005
2021-08-19 13:57:43.228,-0.185,0.0
2021-08-19 13:57:43.232,-0.165,0.0
2021-08-19 13:57:43.236,-0.145,0.0
2021-08-19 13:57:43.240,-0.155,-0.005
2021-08-19 13:57:43.244,-0.15,-0.015
2021-08-19 13:57:43.248,-0.145,0.0
2021-08-19 13:57:43.252,-0.14,-0.025
2021-08-19 13:57:43.256,-0.13,-0.015
2021-08-19 13:57:43.260,-0.12,-0.01
2021-08-19 13:57:43.264,-0.125,-0.015
2021-08-19 13:57:43.268,-0.135,-0.02
2021-08-19 13:57:43.272,-0.13,-0.01
2021-08-19 13:57:43.276,-0.135,-0.01
2021-08-19 13:57:43.280,-0.135,-0.015
2021-08-19 13:57:43.284,-0.145,0.0
2021-08-19 13:57:43.288,-0.14,-0.01
2021-08-19 13:57:43.292,-0.135,-0.01
2021-08-19 13:57:43.296,-0.15,-0.02
2021-08-19 13:57:43.300,-0.155,-0.01
2021-08-19 13:57:43.304,-0.16,-0.01
2021-08-19 13:57:43.308,-0.145,-0.01
2021-08-19 13:57:43.312,-0.17,-0.02
2021-08-19 13:57:43.316,-0.16,0.0
2021-08-19 13:57:43.320,-0.175,-0.01
2021-08-19 13:57:43.324,-0.165,-0.02
2021-08-19 13:57:43.328,-0.18,-0.03
2021-08-19 13:57:43.332,-0.16,-0.015
2021-08-19 13:57:43.336,-0.155,-0.02
2021-08-19 13:57:43.340,-0.155,0.0
2021-08-19 13:57:43.344,-0.16,-0.005
2021-08-19 13:57:43.348,-0.15,-0.005
2021-08-19 13:57:43.352,-0.16,-0.005
2021-08-19 13:57:43.356,-0.145,-0.015
2021-08-19 13:57:43.360,-0.155,-0.015
2021-08-19 13:57:43.364,-0.15,-0.01
2021-08-19 13:57:43.368,-0.155,-0.02
2021-08-19 13:57:43.372,-0.14,-0.025
2021-08-19 13:57:43.376,-0.135,0.0
2021-08-19 13:57:43.380,-0.14,0.005
2021-08-19 13:57:43.384,-0.145,0.0
2021-08-19 13:57:43.388,-0.13,-0.01
2021-08-19 13:57:43.392,-0.14,-0.005
2021-08-19 13:57:43.396,-0.13,0.0
2021-08-19 13:57:43.400,-0.135,-0.005
2021-08-19 13:57:43.404,-0.13,-0.005
2021-08-19 13:57:43.408,-0.13,-0.01
2021-08-19 13:57:43.412,-0.125,0.0
2021-08-19 13:57:43.416,-0.12,-0.01
2021-08-19 13:57:43.420,-0.12,-0.005
2021-08-19 13:57:43.424,-0.125,0.005
2021-08-19 13:57:43.428,-0.13,0.0
2021-08-19 13:57:43.432,-0.15,0.0
2021-08-19 13:57:43.436,-0.12,-0.01
2021-08-19 13:57:43.440,-0.11,-0.01
2021-08-19 13:57:43.444,-0.12,-0.005
2021-08-19 13:57:43.448,-0.115,-0.005
2021-08-19 13:57:43.452,-0.12,0.0
2021-08-19 13:57:43.456,-0.12,0.0
2021-08-19 13:57:43.460,-0.115,0.01
2021-08-19 13:57:43.464,-0.12,0.005
2021-08-19 13:57:43.468,-0.125,0.005
2021-08-19 13:57:43.472,-0.125,0.0
2021-08-19 13:57:43.476,-0.12,0.01
2021-08-19 13:57:43.480,-0.115,0.015
2021-08-19 13:57:43.484,-0.11,0.0
2021-08-19 13:57:43.488,-0.13,0.005
2021-08-19 13:57:43.492,-0.14,0.0
2021-08-19 13:57:43.496,-0.135,0.0
2021-08-19 13:57:43.500,-0.135,0.0
2021-08-19 13:57:43.504,-0.135,0.0
2021-08-19 13:57:43.508,-0.13,0.0
2021-08-19 13:57:43.512,-0.15,0.005
2021-08-19 13:57:43.516,-0.155,-0.01
2021-08-19 13:57:43.520,-0.145,0.005
2021-08-19 13:57:43.524,-0.16,0.005
2021-08-19 13:57:43.528,-0.155,0.0
2021-08-19 13:57:43.532,-0.155,-0.005
2021-08-19 13:57:43.536,-0.15,0.0
2021-08-19 13:57:43.540,-0.175,0.01
2021-08-19 13:57:43.544,-0.15,0.0
2021-08-19 13:57:43.548,-0.17,0.0
2021-08-19 13:57:43.552,-0.155,0.005
2021-08-19 13:57:43.556,-0.15,0.005
2021-08-19 13:57:43.560,-0.16,0.0
2021-08-19 13:57:43.564,-0.155,0.0
2021-08-19 13:57:43.568,-0.17,0.005
2021-08-19 13:57:43.572,-0.16,0.0
2021-08-19 13:57:43.576,-0.175,0.01
2021-08-19 13:57:43.580,-0.165,0.0
2021-08-19 13:57:43.584,-0.16,0.0
2021-08-19 13:57:43.588,-0.16,0.005
2021-08-19 13:57:43.592,-0.16,0.01
2021-08-19 13:57:43.596,-0.165,0.005
2021-08-19 13:57:43.600,-0.175,0.0
2021-08-19 13:57:43.604,-0.16,0.005
2021-08-19 13:57:43.608,-0.16,0.01
2021-08-19 13:57:43.612,-0.175,0.0
2021-08-19 13:57:43.616,-0.175,0.01
2021-08-19 13:57:43.620,-0.185,0.0
2021-08-19 13:57:43.624,-0.155,0.01
2021-08-19 13:57:43.628,-0.17,0.015
2021-08-19 13:57:43.632,-0.155,0.02
2021-08-19 13:57:43.636,-0.175,0.015
2021-08-19 13:57:43.640,-0.175,0.025
2021-08-19 13:57:43.644,-0.16,0.015
2021-08-19 13:57:43.648,-0.155,0.005
2021-08-19 13:57:43.652,-0.155,0.02
2021-08-19 13:57:43.656,-0.165,0.01
2021-08-19 13:57:43.660,-0.17,0.01
2021-08-19 13:57:43.664,-0.16,0.015
2021-08-19 13:57:43.668,-0.17,0.01
2021-08-19 13:57:43.672,-0.165,0.01
2021-08-19 13:57:43.676,-0.17,0.015
2021-08-19 13:57:43.680,-0.175,0.02
2021-08-19 13:57:43.684,-0.18,0.0
2021-08-19 13:57:43.688,-0.155,0.015
2021-08-19 13:57:43.692,-0.17,0.01
2021-08-19 13:57:43.696,-0.16,0.01
2021-08-19 13:57:43.700,-0.175,0.0
2021-08-19 13:57:43.704,-0.17,0.015
2021-08-19 13:57:43.708,-0.17,0.0
2021-08-19 13:57:43.712,-0.175,0.01
2021-08-19 13:57:43.716,-0.175,0.0
2021-08-19 13:57:43.720,-0.17,0.01
2021-08-19 13:57:43.724,-0.155,0.0
2021-08-19 13:57:43.728,-0.16,0.005
2021-08-19 13:57:43.732,-0.16,0.005
2021-08-19 13:57:43.736,-0.155,0.0
2021-08-19 13:57:43.740,-0.165,0.005
2021-08-19 13:57:43.744,-0.165,0.02
2021-08-19 13:57:43.748,-0.15,0.0
2021-08-19 13:57:43.752,-0.16,0.01
2021-08-19 13:57:43.756,-0.16,0.01
2021-08-19 13:57:43.760,-0.16,0.005
2021-08-19 13:57:43.764,-0.155,0.0
2021-08-19 13:57:43.768,-0.155,0.005
2021-08-19 13:57:43.772,-0.145,-0.005
2021-08-19 13:57:43.776,-0.15,-0.01
2021-08-19 13:57:43.780,-0.165,0.0
2021-08-19 13:57:43.784,-0.155,0.005
2021-08-19 13:57:43.788,-0.15,-0.005
2021-08-19 13:57:43.792,-0.16,0.0
2021-08-19 13:57:43.796,-0.165,0.005
2021-08-19 13:57:43.800,-0.17,0.0
2021-08-19 13:57:43.804,-0.155,0.005
2021-08-19 13:57:43.808,-0.16,-0.005
2021-08-19 13:57:43.812,-0.16,0.005
2021-08-19 13:57:43.816,-0.15,0.01
2021-08-19 13:57:43.820,-0.16,0.0
2021-08-19 13:57:43.824,-0.16,0.0
2021-08-19 13:57:43.828,-0.145,0.0
2021-08-19 13:57:43.832,-0.155,0.015
2021-08-19 13:57:43.836,-0.155,0.0
2021-08-19 13:57:43.840,-0.155,-0.01
2021-08-19 13:57:43.844,-0.165,0.005
2021-08-19 13:57:43.848,-0.17,0.0
2021-08-19 13:57:43.852,-0.17,0.005
2021-08-19 13:57:43.856,-0.17,0.0
2021-08-19 13:57:43.860,-0.16,0.01
2021-08-19 13:57:43.864,-0.16,-0.005
2021-08-19 13:57:43.868,-0.17,-0.015
2021-08-19 13:57:43.872,-0.16,0.0
2021-08-19 13:57:43.876,-0.16,-0.015
2021-08-19 13:57:43.880,-0.145,-0.01
2021-08-19 13:57:43.884,-0.165,-0.01
2021-08-19 13:57:43.888,-0.165,-0.005
2021-08-19 13:57:43.892,-0.17,0.0
2021-08-19 13:57:43.896,-0.17,-0.005
2021-08-19 13:57:43.900,-0.16,-0.02
2021-08-19 13:57:43.904,-0.155,-0.015
2021-08-19 13:57:43.908,-0.165,-0.01
2021-08-19 13:57:43.912,-0.165,-0.01
2021-08-19 13:57:43.916,-0.155,-0.005
2021-08-19 13:57:43.920,-0.15,-0.01
2021-08-19 13:57:43.924,-0.15,-0.02
2021-08-19 13:57:43.928,-0.13,-0.01
2021-08-19 13:57:43.932,-0.125,-0.01
2021-08-19 13:57:43.936,-0.125,0.0
2021-08-19 13:57:43.940,-0.11,0.015
2021-08-19 13:57:43.944,-0.11,0.01
2021-08-19 13:57:43.948,-0.12,0.015
2021-08-19 13:57:43.952,-0.105,0.01
2021-08-19 13:57:43.956,-0.1,0.005
2021-08-19 13:57:43.960,-0.13,0.0
2021-08-19 13:57:43.964,-0.12,0.005
2021-08-19 13:57:43.968,-0.125,-0.005
2021-08-19 13:57:43.972,-0.14,-0.02
2021-08-19 13:57:43.976,-0.145,-0.035
2021-08-19 13:57:43.980,-0.14,-0.03
2021-08-19 13:57:43.984,-0.155,-0.045
2021-08-19 13:57:43.988,-0.145,-0.055
2021-08-19 13:57:43.992,-0.155,-0.05
2021-08-19 13:57:43.996,-0.135,-0.05
2021-08-19 13:57:44.000,-0.14,-0.035
2021-08-19 13:57:44.004,-0.145,-0.045
2021-08-19 13:57:44.008,-0.125,-0.045
2021-08-19 13:57:44.012,-0.135,-0.055
2021-08-19 13:57:44.016,-0.13,-0.05
2021-08-19 13:57:44.020,-0.125,-0.045
2021-08-19 13:57:44.024,-0.115,-0.03
2021-08-19 13:57:44.028,-0.135,-0.025
2021-08-19 13:57:44.032,-0.15,-0.03
2021-08-19 13:57:44.036,-0.15,-0.02
2021-08-19 13:57:44.040,-0.16,-0.005
2021-08-19 13:57:44.044,-0.185,0.0
2021-08-19 13:57:44.048,-0.175,0.0
2021-08-19 13:57:44.052,-0.18,0.0
2021-08-19 13:57:44.056,-0.185,-0.005
2021-08-19 13:57:44.060,-0.165,-0.015
2021-08-19 13:57:44.064,-0.17,-0.01
2021-08-19 13:57:44.068,-0.165,-0.005
2021-08-19 13:57:44.072,-0.16,-0.02
2021-08-19 13:57:44.076,-0.175,-0.01
2021-08-19 13:57:44.080,-0.17,-0.005
2021-08-19 13:57:44.084,-0.17,-0.015
2021-08-19 13:57:44.088,-0.165,-0.015
2021-08-19 13:57:44.092,-0.175,-0.01
2021-08-19 13:57:44.096,-0.16,-0.01
2021-08-19 13:57:44.100,-0.17,-0.005
2021-08-19 13:57:44.104,-0.165,0.0
2021-08-19 13:57:44.108,-0.155,-0.005
2021-08-19 13:57:44.112,-0.16,-0.01
2021-08-19 13:57:44.116,-0.16,-0.005
2021-08-19 13:57:44.120,-0.185,-0.02
2021-08-19 13:57:44.124,-0.175,-0.01
2021-08-19 13:57:44.128,-0.11,0.0
2021-08-19 13:57:44.132,0.04,0.015
2021-08-19 13:57:44.136,0.27,0.015
2021-08-19 13:57:44.140,0.52,-0.01
2021-08-19 13:57:44.144,0.79,-0.03
2021-08-19 13:57:44.148,1.0,-0.065
2021-08-19 13:57:44.152,1.145,-0.15
2021-08-19 13:57:44.156,1.055,-0.26
2021-08-19 13:57:44.160,0.69,-0.38
2021-08-19 13:57:44.164,0.18,-0.48
2021-08-19 13:57:44.168,-0.26,-0.555
2021-08-19 13:57:44.172,-0.5,-0.565
2021-08-19 13:57:44.176,-0.59,-0.535
2021-08-19 13:57:44.180,-0.585,-0.44
2021-08-19 13:57:44.184,-0.49,-0.335
2021-08-19 13:57:44.188,-0.4,-0.24
2021-08-19 13:57:44.192,-0.3,-0.125
2021-08-19 13:57:44.196,-0.265,-0.05
2021-08-19 13:57:44.200,-0.235,0.0
2021-08-19 13:57:44.204,-0.23,0.03
2021-08-19 13:57:44.208,-0.245,0.055
2021-08-19 13:57:44.212,-0.24,0.03
2021-08-19 13:57:44.216,-0.245,0.045
2021-08-19 13:57:44.220,-0.26,0.035
2021-08-19 13:57:44.224,-0.24,0.045
2021-08-19 13:57:44.228,-0.24,0.04
2021-08-19 13:57:44.232,-0.24,0.025
2021-08-19 13:57:44.236,-0.25,0.03
2021-08-19 13:57:44.240,-0.25,0.04
2021-08-19 13:57:44.244,-0.26,0.03
2021-08-19 13:57:44.248,-0.25,0.025
2021-08-19 13:57:44.252,-0.26,0.005
2021-08-19 13:57:44.256,-0.25,0.015
2021-08-19 13:57:44.260,-0.255,0.025
2021-08-19 13:57:44.264,-0.255,0.045
2021-08-19 13:57:44.268,-0.25,0.015
2021-08-19 13:57:44.272,-0.25,0.01
2021-08-19 13:57:44.276,-0.25,0.015
2021-08-19 13:57:44.280,-0.25,0.01
2021-08-19 13:57:44.284,-0.255,0.015
2021-08-19 13:57:44.288,-0.27,0.01
2021-08-19 13:57:44.292,-0.265,0.01
2021-08-19 13:57:44.296,-0.275,0.015
2021-08-19 13:57:44.300,-0.275,0.015
2021-08-19 13:57:44.304,-0.26,0.005
2021-08-19 13:57:44.308,-0.265,0.0
2021-08-19 13:57:44.312,-0.26,0.02
2021-08-19 13:57:44.316,-0.265,0.015
2021-08-19 13:57:44.320,-0.265,0.03
2021-08-19 13:57:44.324,-0.28,0.015
2021-08-19 13:57:44.328,-0.26,0.025
2021-08-19 13:57:44.332,-0.26,0.025
2021-08-19 13:57:44.336,-0.26,0.02
2021-08-19 13:57:44.340,-0.265,0.02
2021-08-19 13:57:44.344,-0.27,0.02
2021-08-19 13:57:44.348,-0.27,0.015
2021-08-19 13:57:44.352,-0.275,0.03
2021-08-19 13:57:44.356,-0.265,0.04
2021-08-19 13:57:44.360,-0.265,0.025
2021-08-19 13:57:44.364,-0.27,0.04
2021-08-19 13:57:44.368,-0.28,0.05
2021-08-19 13:57:44.372,-0.26,0.04
2021-08-19 13:57:44.376,-0.27,0.035
2021-08-19 13:57:44.380,-0.28,0.035
2021-08-19 13:57:44.384,-0.27,0.035
2021-08-19 13:57:44.388,-0.265,0.045
2021-08-19 13:57:44.392,-0.25,0.04
2021-08-19 13:57:44.396,-0.255,0.055
2021-08-19 13:57:44.400,-0.255,0.045
2021-08-19 13:57:44.404,-0.255,0.03
2021-08-19 13:57:44.408,-0.255,0.04
2021-08-19 13:57:44.412,-0.24,0.04
2021-08-19 13:57:44.416,-0.24,0.01
2021-08-19 13:57:44.420,-0.235,0.03
2021-08-19 13:57:44.424,-0.235,0.015
2021-08-19 13:57:44.428,-0.22,0.025
2021-08-19 13:57:44.432,-0.205,0.015
2021-08-19 13:57:44.436,-0.175,0.02
2021-08-19 13:57:44.440,-0.18,0.005
2021-08-19 13:57:44.444,-0.155,0.0
2021-08-19 13:57:44.448,-0.15,0.005
2021-08-19 13:57:44.452,-0.14,0.0
2021-08-19 13:57:44.456,-0.12,0.005
2021-08-19 13:57:44.460,-0.12,0.0
2021-08-19 13:57:44.464,-0.12,-0.005
2021-08-19 13:57:44.468,-0.1,0.0
2021-08-19 13:57:44.472,-0.1,-0.01
2021-08-19 13:57:44.476,-0.095,-0.015
2021-08-19 13:57:44.480,-0.095,-0.005
2021-08-19 13:57:44.484,-0.09,0.0
2021-08-19 13:57:44.488,-0.08,-0.01
2021-08-19 13:57:44.492,-0.095,-0.02
2021-08-19 13:57:44.496,-0.075,0.005
2021-08-19 13:57:44.500,-0.09,0.0
2021-08-19 13:57:44.504,-0.105,-0.015
2021-08-19 13:57:44.508,-0.095,-0.015
2021-08-19 13:57:44.512,-0.095,-0.015
2021-08-19 13:57:44.516,-0.125,0.0
2021-08-19 13:57:44.520,-0.105,0.0
2021-08-19 13:57:44.524,-0.11,-0.005
2021-08-19 13:57:44.528,-0.125,0.0
2021-08-19 13:57:44.532,-0.12,-0.005
2021-08-19 13:57:44.536,-0.125,-0.02
2021-08-19 13:57:44.540,-0.14,-0.015
2021-08-19 13:57:44.544,-0.135,-0.005
2021-08-19 13:57:44.548,-0.14,-0.02
2021-08-19 13:57:44.552,-0.145,-0.02
2021-08-19 13:57:44.556,-0.14,-0.02
2021-08-19 13:57:44.560,-0.135,-0.005
2021-08-19 13:57:44.564,-0.13,-0.02
2021-08-19 13:57:44.568,-0.135,-0.015
2021-08-19 13:57:44.572,-0.13,-0.01
2021-08-19 13:57:44.576,-0.14,-0.015
2021-08-19 13:57:44.580,-0.135,-0.015
2021-08-19 13:57:44.584,-0.13,-0.02
2021-08-19 13:57:44.588,-0.135,-0.02
2021-08-19 13:57:44.592,-0.13,-0.02
2021-08-19 13:57:44.596,-0.135,-0.015
2021-08-19 13:57:44.600,-0.12,-0.005
2021-08-19 13:57:44.604,-0.12,-0.01
2021-08-19 13:57:44.608,-0.115,-0.005
2021-08-19 13:57:44.612,-0.12,-0.01
2021-08-19 13:57:44.616,-0.11,-0.015
2021-08-19 13:57:44.620,-0.115,-0.015
2021-08-19 13:57:44.624,-0.12,-0.01
2021-08-19 13:57:44.628,-0.115,-0.005
2021-08-19 13:57:44.632,-0.125,-0.01
2021-08-19 13:57:44.636,-0.135,-0.02
2021-08-19 13:57:44.640,-0.11,-0.005
2021-08-19 13:57:44.644,-0.095,0.0
2021-08-19 13:57:44.648,-0.11,-0.015
2021-08-19 13:57:44.652,-0.115,-0.005
2021-08-19 13:57:44.656,-0.11,-0.01
2021-08-19 13:57:44.660,-0.12,-0.01
2021-08-19 13:57:44.664,-0.12,-0.01
2021-08-19 13:57:44.668,-0.11,0.0
2021-08-19 13:57:44.672,-0.12,0.005
2021-08-19 13:57:44.676,-0.115,0.0
2021-08-19 13:57:44.680,-0.11,-0.015
2021-08-19 13:57:44.684,-0.11,-0.01
2021-08-19 13:57:44.688,-0.12,-0.015
2021-08-19 13:57:44.692,-0.11,0.0
2021-08-19 13:57:44.696,-0.12,-0.015
2021-08-19 13:57:44.700,-0.11,0.0
2021-08-19 13:57:44.704,-0.11,0.0
2021-08-19 13:57:44.708,-0.11,-0.01
2021-08-19 13:57:44.712,-0.115,-0.02
2021-08-19 13:57:44.716,-0.125,-0.02
2021-08-19 13:57:44.720,-0.135,-0.01
2021-08-19 13:57:44.724,-0.13,-0.01
2021-08-19 13:57:44.728,-0.14,-0.015
2021-08-19 13:57:44.732,-0.13,-0.005
2021-08-19 13:57:44.736,-0.14,-0.02
2021-08-19 13:57:44.740,-0.14,-0.02
2021-08-19 13:57:44.744,-0.145,-0.03
2021-08-19 13:57:44.748,-0.135,-0.01
2021-08-19 13:57:44.752,-0.13,-0.015
2021-08-19 13:57:44.756,-0.145,-0.015
2021-08-19 13:57:44.760,-0.145,-0.01
2021-08-19 13:57:44.764,-0.15,-0.015
2021-08-19 13:57:44.768,-0.14,-0.02
2021-08-19 13:57:44.772,-0.14,-0.035
2021-08-19 13:57:44.776,-0.165,-0.03
2021-08-19 13:57:44.780,-0.15,-0.025
2021-08-19 13:57:44.784,-0.145,-0.035
2021-08-19 13:57:44.788,-0.15,-0.045
2021-08-19 13:57:44.792,-0.155,-0.025
2021-08-19 13:57:44.796,-0.145,-0.03
2021-08-19 13:57:44.800,-0.15,-0.04
2021-08-19 13:57:44.804,-0.155,-0.025
2021-08-19 13:57:44.808,-0.16,-0.02
2021-08-19 13:57:44.812,-0.155,-0.025
2021-08-19 13:57:44.816,-0.16,-0.025
2021-08-19 13:57:44.820,-0.17,-0.02
2021-08-19 13:57:44.824,-0.17,-0.035
2021-08-19 13:57:44.828,-0.155,-0.035
2021-08-19 13:57:44.832,-0.155,-0.025
2021-08-19 13:57:44.836,-0.17,-0.03
2021-08-19 13:57:44.840,-0.17,-0.03
2021-08-19 13:57:44.844,-0.175,-0.03
2021-08-19 13:57:44.848,-0.17,-0.02
2021-08-19 13:57:44.852,-0.145,-0.025
2021-08-19 13:57:44.856,-0.15,-0.045
2021-08-19 13:57:44.860,-0.16,-0.025
2021-08-19 13:57:44.864,-0.145,-0.03
2021-08-19 13:57:44.868,-0.16,-0.01
2021-08-19 13:57:44.872,-0.14,-0.02
2021-08-19 13:57:44.876,-0.15,-0.025
2021-08-19 13:57:44.880,-0.16,-0.045
2021-08-19 13:57:44.884,-0.175,-0.045
2021-08-19 13:57:44.888,-0.165,-0.035
2021-08-19 13:57:44.892,-0.175,-0.05
2021-08-19 13:57:44.896,-0.18,-0.045
2021-08-19 13:57:44.900,-0.16,-0.04
2021-08-19 13:57:44.904,-0.18,-0.035
2021-08-19 13:57:44.908,-0.165,-0.035
2021-08-19 13:57:44.912,-0.165,-0.04
2021-08-19 13:57:44.916,-0.175,-0.04
2021-08-19 13:57:44.920,-0.18,-0.05
2021-08-19 13:57:44.924,-0.175,-0.025
2021-08-19 13:57:44.928,-0.175,-0.025
2021-08-19 13:57:44.932,-0.175,-0.03
2021-08-19 13:57:44.936,-0.175,-0.035
2021-08-19 13:57:44.940,-0.17,-0.03
2021-08-19 13:57:44.944,-0.165,-0.045
2021-08-19 13:57:44.948,-0.17,-0.025
2021-08-19 13:57:44.952,-0.165,-0.04
2021-08-19 13:57:44.956,-0.17,-0.04
2021-08-19 13:57:44.960,-0.175,-0.05
2021-08-19 13:57:44.964,-0.165,-0.045
2021-08-19 13:57:44.968,-0.185,-0.055
2021-08-19 13:57:44.972,-0.17,-0.04
2021-08-19 13:57:44.976,-0.17,-0.05
2021-08-19 13:57:44.980,-0.175,-0.055
2021-08-19 13:57:44.984,-0.175,-0.045
2021-08-19 13:57:44.988,-0.16,-0.04
2021-08-19 13:57:44.992,-0.18,-0.055
2021-08-19 13:57:44.996,-0.18,-0.045
2021-08-19 13:57:45.000,-0.17,-0.05
2021-08-19 13:57:45.004,-0.165,-0.05
2021-08-19 13:57:45.008,-0.16,-0.04
2021-08-19 13:57:45.012,-0.155,-0.04
2021-08-19 13:57:45.016,-0.18,-0.04
2021-08-19 13:57:45.020,-0.17,-0.045
2021-08-19 13:57:45.024,-0.165,-0.045
2021-08-19 13:57:45.028,-0.18,-0.04
2021-08-19 13:57:45.032,-0.17,-0.05
2021-08-19 13:57:45.036,-0.18,-0.05
2021-08-19 13:57:45.040,-0.175,-0.035
2021-08-19 13:57:45.044,-0.16,-0.045
2021-08-19 13:57:45.048,-0.185,-0.04
2021-08-19 13:57:45.052,-0.17,-0.04
2021-08-19 13:57:45.056,-0.165,-0.04
2021-08-19 13:57:45.060,-0.16,-0.035
2021-08-19 13:57:45.064,-0.175,-0.05
2021-08-19 13:57:45.068,-0.165,-0.025
2021-08-19 13:57:45.072,-0.17,-0.05
2021-08-19 13:57:45.076,-0.18,-0.05
2021-08-19 13:57:45.080,-0.175,-0.06
2021-08-19 13:57:45.084,-0.185,-0.04
2021-08-19 13:57:45.088,-0.17,-0.05
2021-08-19 13:57:45.092,-0.175,-0.045
2021-08-19 13:57:45.096,-0.165,-0.03
2021-08-19 13:57:45.100,-0.18,-0.03
2021-08-19 13:57:45.104,-0.17,-0.04
2021-08-19 13:57:45.108,-0.165,-0.05
2021-08-19 13:57:45.112,-0.16,-0.035
2021-08-19 13:57:45.116,-0.175,-0.04
2021-08-19 13:57:45.120,-0.16,-0.04
2021-08-19 13:57:45.124,-0.16,-0.055
2021-08-19 13:57:45.128,-0.16,-0.04
2021-08-19 13:57:45.132,-0.15,-0.045
2021-08-19 13:57:45.136,-0.135,-0.035
2021-08-19 13:57:45.140,-0.13,-0.04
2021-08-19 13:57:45.144,-0.135,-0.015
2021-08-19 13:57:45.148,-0.115,-0.01
2021-08-19 13:57:45.152,-0.125,-0.01
2021-08-19 13:57:45.156,-0.13,-0.01
2021-08-19 13:57:45.160,-0.125,0.0
2021-08-19 13:57:45.164,-0.135,-0.02
2021-08-19 13:57:45.168,-0.135,-0.03
2021-08-19 13:57:45.172,-0.14,-0.03
2021-08-19 13:57:45.176,-0.14,-0.015
2021-08-19 13:57:45.180,-0.15,-0.04
2021-08-19 13:57:45.184,-0.145,-0.045
2021-08-19 13:57:45.188,-0.145,-0.055
2021-08-19 13:57:45.192,-0.14,-0.07
2021-08-19 13:57:45.196,-0.145,-0.08
2021-08-19 13:57:45.200,-0.14,-0.08
2021-08-19 13:57:45.204,-0.16,-0.08
2021-08-19 13:57:45.208,-0.145,-0.08
2021-08-19 13:57:45.212,-0.145,-0.085
2021-08-19 13:57:45.216,-0.15,-0.07
2021-08-19 13:57:45.220,-0.13,-0.075
2021-08-19 13:57:45.224,-0.155,-0.05
2021-08-19 13:57:45.228,-0.13,-0.065
2021-08-19 13:57:45.232,-0.155,-0.05
2021-08-19 13:57:45.236,-0.16,-0.055
2021-08-19 13:57:45.240,-0.18,-0.055
2021-08-19 13:57:45.244,-0.175,-0.035
2021-08-19 13:57:45.248,-0.175,-0.015
2021-08-19 13:57:45.252,-0.18,-0.03
2021-08-19 13:57:45.256,-0.18,-0.02
2021-08-19 13:57:45.260,-0.175,-0.03
2021-08-19 13:57:45.264,-0.18,-0.035
2021-08-19 13:57:45.268,-0.175,-0.015
2021-08-19 13:57:45.272,-0.175,-0.025
2021-08-19 13:57:45.276,-0.16,-0.03
2021-08-19 13:57:45.280,-0.18,-0.02
2021-08-19 13:57:45.284,-0.195,-0.03
2021-08-19 13:57:45.288,-0.185,-0.04
2021-08-19 13:57:45.292,-0.185,-0.035
2021-08-19 13:57:45.296,-0.175,-0.03
2021-08-19 13:57:45.300,-0.18,-0.02
2021-08-19 13:57:45.304,-0.175,-0.03
2021-08-19 13:57:45.308,-0.17,-0.02
2021-08-19 13:57:45.312,-0.16,-0.04
2021-08-19 13:57:45.316,-0.17,-0.04
2021-08-19 13:57:45.320,-0.16,-0.035
2021-08-19 13:57:45.324,-0.165,-0.03
2021-08-19 13:57:45.328,-0.135,-0.015
2021-08-19 13:57:45.332,-0.06,0.0
2021-08-19 13:57:45.336,0.075,0.01
2021-08-19 13:57:45.340,0.305,0.005
2021-08-19 13:57:45.344,0.55,-0.01
2021-08-19 13:57:45.348,0.785,-0.06
2021-08-19 13:57:45.352,1.005,-0.105
2021-08-19 13:57:45.356,1.115,-0.17
2021-08-19 13:57:45.360,0.985,-0.27
2021-08-19 13:57:45.364,0.635,-0.38
2021-08-19 13:57:45.368,0.2,-0.44
2021-08-19 13:57:45.372,-0.195,-0.51
2021-08-19 13:57:45.376,-0.425,-0.535
2021-08-19 13:57:45.380,-0.51,-0.495
2021-08-19 13:57:45.384,-0.52,-0.42
2021-08-19 13:57:45.388,-0.45,-0.3
2021-08-19 13:57:45.392,-0.375,-0.195
2021-08-19 13:57:45.396,-0.305,-0.11
2021-08-19 13:57:45.400,-0.285,-0.04
2021-08-19 13:57:45.404,-0.25,0.005
2021-08-19 13:57:45.408,-0.25,0.025
2021-08-19 13:57:45.412,-0.245,0.03
2021-08-19 13:57:45.416,-0.245,0.045
2021-08-19 13:57:45.420,-0.245,0.025
2021-08-19 13:57:45.424,-0.255,0.015
2021-08-19 13:57:45.428,-0.24,0.015
2021-08-19 13:57:45.432,-0.245,0.03
2021-08-19 13:57:45.436,-0.235,0.03
2021-08-19 13:57:45.440,-0.25,0.015
2021-08-19 13:57:45.444,-0.255,0.01
2021-08-19 13:57:45.448,-0.245,0.005
2021-08-19 13:57:45.452,-0.24,0.005
2021-08-19 13:57:45.456,-0.25,0.005
2021-08-19 13:57:45.460,-0.25,0.015
2021-08-19 13:57:45.464,-0.26,0.01
2021-08-19 13:57:45.468,-0.255,0.03
2021-08-19 13:57:45.472,-0.25,0.0
2021-08-19 13:57:45.476,-0.25,0.005
2021-08-19 13:57:45.480,-0.245,0.01
2021-08-19 13:57:45.484,-0.255,0.01
2021-08-19 13:57:45.488,-0.245,0.01
2021-08-19 13:57:45.492,-0.245,0.01
2021-08-19 13:57:45.496,-0.255,0.03
2021-08-19 13:57:45.500,-0.25,0.025
2021-08-19 13:57:45.504,-0.25,0.03
2021-08-19 13:57:45.508,-0.26,0.015
2021-08-19 13:57:45.512,-0.26,0.02
2021-08-19 13:57:45.516,-0.25,0.025
2021-08-19 13:57:45.520,-0.24,0.02
2021-08-19 13:57:45.524,-0.265,0.025
2021-08-19 13:57:45.528,-0.265,0.025
2021-08-19 13:57:45.532,-0.265,0.03
2021-08-19 13:57:45.536,-0.27,0.025
2021-08-19 13:57:45.540,-0.26,0.025
2021-08-19 13:57:45.544,-0.255,0.045
2021-08-19 13:57:45.548,-0.27,0.025
2021-08-19 13:57:45.552,-0.26,0.035
2021-08-19 13:57:45.556,-0.25,0.035
2021-08-19 13:57:45.560,-0.265,0.03
2021-08-19 13:57:45.564,-0.25,0.035
2021-08-19 13:57:45.568,-0.255,0.05
2021-08-19 13:57:45.572,-0.275,0.05
2021-08-19 13:57:45.576,-0.265,0.045
2021-08-19 13:57:45.580,-0.265,0.05
2021-08-19 13:57:45.584,-0.26,0.045
2021-08-19 13:57:45.588,-0.27,0.035
2021-08-19 13:57:45.592,-0.255,0.055
2021-08-19 13:57:45.596,-0.255,0.045
2021-08-19 13:57:45.600,-0.25,0.03
2021-08-19 13:57:45.604,-0.26,0.03
2021-08-19 13:57:45.608,-0.23,0.035
2021-08-19 13:57:45.612,-0.255,0.04
2021-08-19 13:57:45.616,-0.245,0.015
2021-08-19 13:57:45.620,-0.225,0.015
2021-08-19 13:57:45.624,-0.23,0.015
2021-08-19 13:57:45.628,-0.235,0.01
2021-08-19 13:57:45.632,-0.215,0.02
2021-08-19 13:57:45.636,-0.215,0.01
2021-08-19 13:57:45.640,-0.2,0.01
2021-08-19 13:57:45.644,-0.185,0.01
2021-08-19 13:57:45.648,-0.175,0.015
2021-08-19 13:57:45.652,-0.165,-0.005
2021-08-19 13:57:45.656,-0.155,-0.01
2021-08-19 13:57:45.660,-0.145,0.0
2021-08-19 13:57:45.664,-0.125,0.0
2021-08-19 13:57:45.668,-0.13,-0.01
2021-08-19 13:57:45.672,-0.11,0.0
2021-08-19 13:57:45.676,-0.12,0.005
2021-08-19 13:57:45.680,-0.09,0.0
2021-08-19 13:57:45.684,-0.105,-0.015
2021-08-19 13:57:45.688,-0.095,-0.015
2021-08-19 13:57:45.692,-0.095,-0.005
2021-08-19 13:57:45.696,-0.11,0.0
2021-08-19 13:57:45.700,-0.11,-0.005
2021-08-19 13:57:45.704,-0.1,0.01
2021-08-19 13:57:45.708,-0.105,-0.005
2021-08-19 13:57:45.712,-0.11,-0.01
2021-08-19 13:57:45.716,-0.13,-0.01
2021-08-19 13:57:45.720,-0.12,-0.015
2021-08-19 13:57:45.724,-0.12,-0.015
2021-08-19 13:57:45.728,-0.12,-0.02
2021-08-19 13:57:45.732,-0.12,-0.025
2021-08-19 13:57:45.736,-0.13,-0.015
2021-08-19 13:57:45.740,-0.14,-0.02
2021-08-19 13:57:45.744,-0.13,-0.005
2021-08-19 13:57:45.748,-0.15,-0.005
2021-08-19 13:57:45.752,-0.15,-0.015
2021-08-19 13:57:45.756,-0.145,-0.02
2021-08-19 13:57:45.760,-0.15,-0.015
2021-08-19 13:57:45.764,-0.145,-0.025
2021-08-19 13:57:45.768,-0.14,-0.025
2021-08-19 13:57:45.772,-0.155,-0.02
2021-08-19 13:57:45.776,-0.15,-0.02
2021-08-19 13:57:45.780,-0.16,-0.01
2021-08-19 13:57:45.784,-0.145,-0.01
2021-08-19 13:57:45.788,-0.145,-0.025
2021-08-19 13:57:45.792,-0.145,-0.025
2021-08-19 13:57:45.796,-0.12,-0.025
2021-08-19 13:57:45.800,-0.15,-0.015
2021-08-19 13:57:45.804,-0.135,-0.01
2021-08-19 13:57:45.808,-0.135,-0.005
2021-08-19 13:57:45.812,-0.125,-0.015
2021-08-19 13:57:45.816,-0.13,-0.01
2021-08-19 13:57:45.820,-0.13,-0.015
2021-08-19 13:57:45.824,-0.135,-0.02
2021-08-19 13:57:45.828,-0.125,-0.02
2021-08-19 13:57:45.832,-0.125,-0.015
2021-08-19 13:57:45.836,-0.13,-0.01
2021-08-19 13:57:45.840,-0.135,-0.03
2021-08-19 13:57:45.844,-0.13,-0.015
2021-08-19 13:57:45.848,-0.125,-0.02
2021-08-19 13:57:45.852,-0.125,-0.01
2021-08-19 13:57:45.856,-0.11,-0.015
2021-08-19 13:57:45.860,-0.12,-0.01
2021-08-19 13:57:45.864,-0.12,-0.02
2021-08-19 13:57:45.868,-0.11,-0.005
2021-08-19 13:57:45.872,-0.125,-0.01
2021-08-19 13:57:45.876,-0.13,-0.02
2021-08-19 13:57:45.880,-0.145,-0.015
2021-08-19 13:57:45.884,-0.13,-0.02
2021-08-19 13:57:45.888,-0.125,-0.02
2021-08-19 13:57:45.892,-0.125,0.0
2021-08-19 13:57:45.896,-0.13,-0.015
2021-08-19 13:57:45.900,-0.125,-0.02
2021-08-19 13:57:45.904,-0.125,-0.025
2021-08-19 13:57:45.908,-0.14,-0.01
2021-08-19 13:57:45.912,-0.13,-0.01
2021-08-19 13:57:45.916,-0.145,-0.02
2021-08-19 13:57:45.920,-0.14,-0.01
2021-08-19 13:57:45.924,-0.14,-0.02
2021-08-19 13:57:45.928,-0.14,-0.035
2021-08-19 13:57:45.932,-0.14,-0.01
2021-08-19 13:57:45.936,-0.155,-0.025
2021-08-19 13:57:45.940,-0.16,-0.025
2021-08-19 13:57:45.944,-0.16,-0.03
2021-08-19 13:57:45.948,-0.17,-0.045
2021-08-19 13:57:45.952,-0.165,-0.035
2021-08-19 13:57:45.956,-0.16,-0.025
2021-08-19 13:57:45.960,-0.165,-0.035
2021-08-19 13:57:45.964,-0.18,-0.02
2021-08-19 13:57:45.968,-0.155,-0.04
2021-08-19 13:57:45.972,-0.16,-0.03
2021-08-19 13:57:45.976,-0.155,-0.04
2021-08-19 13:57:45.980,-0.15,-0.035
2021-08-19 13:57:45.984,-0.17,-0.03
2021-08-19 13:57:45.988,-0.165,-0.025
2021-08-19 13:57:45.992,-0.155,-0.025
2021-08-19 13:57:45.996,-0.16,-0.04
2021-08-19 13:57:46.000,-0.17,-0.04
2021-08-19 13:57:46.004,-0.17,-0.035
2021-08-19 13:57:46.008,-0.18,-0.04
2021-08-19 13:57:46.012,-0.18,-0.02
2021-08-19 13:57:46.016,-0.16,-0.03
2021-08-19 13:57:46.020,-0.175,-0.025
2021-08-19 13:57:46.024,-0.16,-0.03
2021-08-19 13:57:46.028,-0.185,-0.025
2021-08-19 13:57:46.032,-0.18,-0.03
2021-08-19 13:57:46.036,-0.18,-0.01
2021-08-19 13:57:46.040,-0.185,-0.03
2021-08-19 13:57:46.044,-0.18,-0.025
2021-08-19 13:57:46.048,-0.175,-0.025
2021-08-19 13:57:46.052,-0.175,-0.04
2021-08-19 13:57:46.056,-0.18,-0.02
2021-08-19 13:57:46.060,-0.185,-0.02
2021-08-19 13:57:46.064,-0.18,-0.015
2021-08-19 13:57:46.068,-0.195,-0.02
2021-08-19 13:57:46.072,-0.175,-0.02
2021-08-19 13:57:46.076,-0.17,-0.01
2021-08-19 13:57:46.080,-0.18,-0.025
2021-08-19 13:57:46.084,-0.18,-0.02
2021-08-19 13:57:46.088,-0.185,-0.015
2021-08-19 13:57:46.092,-0.185,-0.035
2021-08-19 13:57:46.096,-0.185,-0.02
2021-08-19 13:57:46.100,-0.175,-0.02
2021-08-19 13:57:46.104,-0.175,-0.025
2021-08-19 13:57:46.108,-0.18,-0.025
2021-08-19 13:57:46.112,-0.185,-0.02
2021-08-19 13:57:46.116,-0.18,-0.02
2021-08-19 13:57:46.120,-0.175,-0.04
2021-08-19 13:57:46.124,-0.185,-0.015
2021-08-19 13:57:46.128,-0.185,-0.01
2021-08-19 13:57:46.132,-0.18,-0.02
2021-08-19 13:57:46.136,-0.185,-0.02
2021-08-19 13:57:46.140,-0.19,-0.04
2021-08-19 13:57:46.144,-0.185,-0.025
2021-08-19 13:57:46.148,-0.185,-0.02
2021-08-19 13:57:46.152,-0.185,-0.025
2021-08-19 13:57:46.156,-0.185,-0.015
2021-08-19 13:57:46.160,-0.185,-0.045
2021-08-19 13:57:46.164,-0.175,-0.015
2021-08-19 13:57:46.168,-0.18,-0.02
2021-08-19 13:57:46.172,-0.19,-0.01
2021-08-19 13:57:46.176,-0.185,-0.03
2021-08-19 13:57:46.180,-0.18,-0.02
2021-08-19 13:57:46.184,-0.185,-0.025
2021-08-19 13:57:46.188,-0.195,-0.015
2021-08-19 13:57:46.192,-0.18,-0.01
2021-08-19 13:57:46.196,-0.205,-0.035
2021-08-19 13:57:46.200,-0.19,-0.025
2021-08-19 13:57:46.204,-0.18,-0.03
2021-08-19 13:57:46.208,-0.185,-0.035
2021-08-19 13:57:46.212,-0.18,-0.025
2021-08-19 13:57:46.216,-0.21,-0.04
2021-08-19 13:57:46.220,-0.18,-0.025
2021-08-19 13:57:46.224,-0.185,-0.015
2021-08-19 13:57:46.228,-0.175,-0.02
2021-08-19 13:57:46.232,-0.175,-0.025
2021-08-19 13:57:46.236,-0.185,-0.025
2021-08-19 13:57:46.240,-0.18,-0.025
2021-08-19 13:57:46.244,-0.185,-0.02
2021-08-19 13:57:46.248,-0.18,-0.025
2021-08-19 13:57:46.252,-0.185,-0.03
2021-08-19 13:57:46.256,-0.18,-0.025
2021-08-19 13:57:46.260,-0.195,-0.02
2021-08-19 13:57:46.264,-0.185,-0.03
2021-08-19 13:57:46.268,-0.185,-0.045
2021-08-19 13:57:46.272,-0.19,-0.025
2021-08-19 13:57:46.276,-0.2,-0.04
2021-08-19 13:57:46.280,-0.18,-0.025
2021-08-19 13:57:46.284,-0.185,-0.025
2021-08-19 13:57:46.288,-0.185,-0.025
2021-08-19 13:57:46.292,-0.18,-0.035
2021-08-19 13:57:46.296,-0.18,-0.035
2021-08-19 13:57:46.300,-0.205,-0.03
2021-08-19 13:57:46.304,-0.185,-0.025
2021-08-19 13:57:46.308,-0.185,-0.03
2021-08-19 13:57:46.312,-0.17,-0.02
2021-08-19 13:57:46.316,-0.185,-0.025
2021-08-19 13:57:46.320,-0.19,-0.03
2021-08-19 13:57:46.324,-0.175,-0.025
2021-08-19 13:57:46.328,-0.16,-0.015
2021-08-19 13:57:46.332,-0.155,-0.025
2021-08-19 13:57:46.336,-0.17,-0.025
2021-08-19 13:57:46.340,-0.145,-0.03
2021-08-19 13:57:46.344,-0.13,-0.03
2021-08-19 13:57:46.348,-0.14,-0.02
2021-08-19 13:57:46.352,-0.14,-0.01
2021-08-19 13:57:46.356,-0.125,0.0
2021-08-19 13:57:46.360,-0.125,0.0
2021-08-19 13:57:46.364,-0.13,0.005
2021-08-19 13:57:46.368,-0.135,0.0
2021-08-19 13:57:46.372,-0.13,0.005
2021-08-19 13:57:46.376,-0.13,-0.005
2021-08-19 13:57:46.380,-0.14,0.005
2021-08-19 13:57:46.384,-0.14,-0.005
2021-08-19 13:57:46.388,-0.135,-0.02
2021-08-19 13:57:46.392,-0.145,-0.045
2021-08-19 13:57:46.396,-0.165,-0.025
2021-08-19 13:57:46.400,-0.165,-0.03
2021-08-19 13:57:46.404,-0.165,-0.045
2021-08-19 13:57:46.408,-0.165,-0.055
2021-08-19 13:57:46.412,-0.15,-0.04
2021-08-19 13:57:46.416,-0.15,-0.05
2021-08-19 13:57:46.420,-0.14,-0.04
2021-08-19 13:57:46.424,-0.14,-0.045
2021-08-19 13:57:46.428,-0.13,-0.055
2021-08-19 13:57:46.432,-0.13,-0.045
2021-08-19 13:57:46.436,-0.13,-0.035
2021-08-19 13:57:46.440,-0.14,-0.04
2021-08-19 13:57:46.444,-0.15,-0.03
2021-08-19 13:57:46.448,-0.14,-0.02
2021-08-19 13:57:46.452,-0.14,-0.005
2021-08-19 13:57:46.456,-0.155,0.0
2021-08-19 13:57:46.460,-0.165,0.0
2021-08-19 13:57:46.464,-0.18,0.0
2021-08-19 13:57:46.468,-0.185,0.015
2021-08-19 13:57:46.472,-0.185,-0.005
2021-08-19 13:57:46.476,-0.175,0.005
2021-08-19 13:57:46.480,-0.17,0.005
2021-08-19 13:57:46.484,-0.18,0.0
2021-08-19 13:57:46.488,-0.17,0.0
2021-08-19 13:57:46.492,-0.18,0.0
2021-08-19 13:57:46.496,-0.155,0.0
2021-08-19 13:57:46.500,-0.17,-0.005
2021-08-19 13:57:46.504,-0.17,-0.005
2021-08-19 13:57:46.508,-0.175,-0.005
2021-08-19 13:57:46.512,-0.175,-0.015
2021-08-19 13:57:46.516,-0.16,-0.01
2021-08-19 13:57:46.520,-0.15,-0.015
2021-08-19 13:57:46.524,-0.165,-0.01
2021-08-19 13:57:46.528,-0.165,-0.02
2021-08-19 13:57:46.532,-0.17,0.0
2021-08-19 13:57:46.536,-0.175,-0.02
2021-08-19 13:57:46.540,-0.18,-0.015
2021-08-19 13:57:46.544,-0.15,-0.005
2021-08-19 13:57:46.548,-0.075,0.025
2021-08-19 13:57:46.552,0.085,0.025
2021-08-19 13:57:46.556,0.335,0.03
2021-08-19 13:57:46.560,0.59,-0.01
2021-08-19 13:57:46.564,0.845,-0.04
2021-08-19 13:57:46.568,1.075,-0.07
2021-08-19 13:57:46.572,1.195,-0.16
2021-08-19 13:57:46.576,1.075,-0.265
2021-08-19 13:57:46.580,0.7,-0.38
2021-08-19 13:57:46.584,0.19,-0.46
2021-08-19 13:57:46.588,-0.275,-0.54
2021-08-19 13:57:46.592,-0.505,-0.56
2021-08-19 13:57:46.596,-0.615,-0.54
2021-08-19 13:57:46.600,-0.595,-0.455
2021-08-19 13:57:46.604,-0.515,-0.35
2021-08-19 13:57:46.608,-0.4,-0.25
2021-08-19 13:57:46.612,-0.34,-0.15
2021-08-19 13:57:46.616,-0.275,-0.06
2021-08-19 13:57:46.620,-0.255,0.025
2021-08-19 13:57:46.624,-0.25,0.045
2021-08-19 13:57:46.628,-0.255,0.06
2021-08-19 13:57:46.632,-0.26,0.085
2021-08-19 13:57:46.636,-0.27,0.075
2021-08-19 13:57:46.640,-0.265,0.055
2021-08-19 13:57:46.644,-0.25,0.045
2021-08-19 13:57:46.648,-0.26,0.055
2021-08-19 13:57:46.652,-0.265,0.04
2021-08-19 13:57:46.656,-0.265,0.05
2021-08-19 13:57:46.660,-0.265,0.035
2021-08-19 13:57:46.664,-0.255,0.04
2021-08-19 13:57:46.668,-0.255,0.025
2021-08-19 13:57:46.672,-0.255,0.025
2021-08-19 13:57:46.676,-0.265,0.015
2021-08-19 13:57:46.680,-0.25,0.035
2021-08-19 13:57:46.684,-0.255,0.025
2021-08-19 13:57:46.688,-0.25,0.03
2021-08-19 13:57:46.692,-0.26,0.01
2021-08-19 13:57:46.696,-0.255,0.02
2021-08-19 13:57:46.700,-0.265,0.015
2021-08-19 13:57:46.704,-0.265,0.025
2021-08-19 13:57:46.708,-0.27,0.025
2021-08-19 13:57:46.712,-0.265,0.035
2021-08-19 13:57:46.716,-0.27,0.015
2021-08-19 13:57:46.720,-0.275,0.02
2021-08-19 13:57:46.724,-0.265,0.025
2021-08-19 13:57:46.728,-0.255,0.025
2021-08-19 13:57:46.732,-0.25,0.04
2021-08-19 13:57:46.736,-0.265,0.025
2021-08-19 13:57:46.740,-0.26,0.02
2021-08-19 13:57:46.744,-0.26,0.035
2021-08-19 13:57:46.748,-0.265,0.035
2021-08-19 13:57:46.752,-0.26,0.035
2021-08-19 13:57:46.756,-0.26,0.025
2021-08-19 13:57:46.760,-0.28,0.045
2021-08-19 13:57:46.764,-0.265,0.025
2021-08-19 13:57:46.768,-0.275,0.03
2021-08-19 13:57:46.772,-0.27,0.03
2021-08-19 13:57:46.776,-0.27,0.04
2021-08-19 13:57:46.780,-0.275,0.05
2021-08-19 13:57:46.784,-0.285,0.045
2021-08-19 13:57:46.788,-0.28,0.035
2021-08-19 13:57:46.792,-0.27,0.05
2021-08-19 13:57:46.796,-0.27,0.04
2021-08-19 13:57:46.800,-0.28,0.03
2021-08-19 13:57:46.804,-0.275,0.04
2021-08-19 13:57:46.808,-0.28,0.035
2021-08-19 13:57:46.812,-0.26,0.025
2021-08-19 13:57:46.816,-0.265,0.035
2021-08-19 13:57:46.820,-0.255,0.04
2021-08-19 13:57:46.824,-0.265,0.045
2021-08-19 13:57:46.828,-0.26,0.03
2021-08-19 13:57:46.832,-0.245,0.03
2021-08-19 13:57:46.836,-0.255,0.01
2021-08-19 13:57:46.840,-0.24,0.02
2021-08-19 13:57:46.844,-0.24,0.02
2021-08-19 13:57:46.848,-0.23,0.015
2021-08-19 13:57:46.852,-0.21,0.005
2021-08-19 13:57:46.856,-0.21,0.015
2021-08-19 13:57:46.860,-0.2,0.015
2021-08-19 13:57:46.864,-0.205,0.0
2021-08-19 13:57:46.868,-0.195,-0.01
2021-08-19 13:57:46.872,-0.18,-0.015
2021-08-19 13:57:46.876,-0.16,-0.01
2021-08-19 13:57:46.880,-0.15,-0.015
2021-08-19 13:57:46.884,-0.145,-0.015
2021-08-19 13:57:46.888,-0.14,-0.01
2021-08-19 13:57:46.892,-0.13,-0.02
2021-08-19 13:57:46.896,-0.1,-0.015
2021-08-19 13:57:46.900,-0.12,-0.015
2021-08-19 13:57:46.904,-0.115,-0.02
2021-08-19 13:57:46.908,-0.115,-0.015
2021-08-19 13:57:46.912,-0.12,-0.02
2021-08-19 13:57:46.916,-0.125,-0.01
2021-08-19 13:57:46.920,-0.12,-0.01
2021-08-19 13:57:46.924,-0.125,-0.04
2021-08-19 13:57:46.928,-0.13,-0.035
2021-08-19 13:57:46.932,-0.14,-0.035
2021-08-19 13:57:46.936,-0.135,-0.025
2021-08-19 13:57:46.940,-0.14,-0.02
2021-08-19 13:57:46.944,-0.14,-0.03
2021-08-19 13:57:46.948,-0.17,-0.05
2021-08-19 13:57:46.952,-0.165,-0.035
2021-08-19 13:57:46.956,-0.15,-0.03
2021-08-19 13:57:46.960,-0.16,-0.03
2021-08-19 13:57:46.964,-0.175,-0.03
2021-08-19 13:57:46.968,-0.18,-0.035
2021-08-19 13:57:46.972,-0.2,-0.03
2021-08-19 13:57:46.976,-0.185,-0.035
2021-08-19 13:57:46.980,-0.185,-0.035
2021-08-19 13:57:46.984,-0.185,-0.035
2021-08-19 13:57:46.988,-0.195,-0.035
2021-08-19 13:57:46.992,-0.185,-0.05
2021-08-19 13:57:46.996,-0.185,-0.045
2021-08-19 13:57:47.000,-0.17,-0.045
2021-08-19 13:57:47.004,-0.16,-0.045
2021-08-19 13:57:47.008,-0.175,-0.045
2021-08-19 13:57:47.012,-0.195,-0.04
2021-08-19 13:57:47.016,-0.18,-0.035
2021-08-19 13:57:47.020,-0.185,-0.02
2021-08-19 13:57:47.024,-0.165,-0.035
2021-08-19 13:57:47.028,-0.16,-0.04
2021-08-19 13:57:47.032,-0.175,-0.04
2021-08-19 13:57:47.036,-0.19,-0.04
2021-08-19 13:57:47.040,-0.17,-0.035
2021-08-19 13:57:47.044,-0.165,-0.035
2021-08-19 13:57:47.048,-0.16,-0.025
2021-08-19 13:57:47.052,-0.18,-0.03
2021-08-19 13:57:47.056,-0.155,-0.035
2021-08-19 13:57:47.060,-0.16,-0.025
2021-08-19 13:57:47.064,-0.17,-0.04
2021-08-19 13:57:47.068,-0.165,-0.03
2021-08-19 13:57:47.072,-0.17,-0.025
2021-08-19 13:57:47.076,-0.16,-0.035
2021-08-19 13:57:47.080,-0.15,-0.03
2021-08-19 13:57:47.084,-0.17,-0.025
2021-08-19 13:57:47.088,-0.15,-0.02
2021-08-19 13:57:47.092,-0.165,-0.04
2021-08-19 13:57:47.096,-0.145,-0.03
2021-08-19 13:57:47.100,-0.18,-0.03
2021-08-19 13:57:47.104,-0.165,-0.03
2021-08-19 13:57:47.108,-0.15,-0.035
2021-08-19 13:57:47.112,-0.15,-0.025
2021-08-19 13:57:47.116,-0.18,-0.025
2021-08-19 13:57:47.120,-0.155,-0.01
2021-08-19 13:57:47.124,-0.145,-0.015
2021-08-19 13:57:47.128,-0.16,-0.015
2021-08-19 13:57:47.132,-0.175,-0.03
2021-08-19 13:57:47.136,-0.17,-0.03
2021-08-19 13:57:47.140,-0.175,-0.03
2021-08-19 13:57:47.144,-0.16,-0.02
2021-08-19 13:57:47.148,-0.17,-0.035
2021-08-19 13:57:47.152,-0.17,-0.025
2021-08-19 13:57:47.156,-0.19,-0.03
2021-08-19 13:57:47.160,-0.18,-0.03
2021-08-19 13:57:47.164,-0.16,-0.025
2021-08-19 13:57:47.168,-0.18,-0.025
2021-08-19 13:57:47.172,-0.17,-0.025
2021-08-19 13:57:47.176,-0.175,-0.025
2021-08-19 13:57:47.180,-0.19,-0.035
2021-08-19 13:57:47.184,-0.19,-0.005
2021-08-19 13:57:47.188,-0.19,-0.02
2021-08-19 13:57:47.192,-0.18,-0.025
2021-08-19 13:57:47.196,-0.185,-0.045
2021-08-19 13:57:47.200,-0.19,-0.04
2021-08-19 13:57:47.204,-0.205,-0.04
2021-08-19 13:57:47.208,-0.2,-0.03
2021-08-19 13:57:47.212,-0.195,-0.04
2021-08-19 13:57:47.216,-0.195,-0.03
2021-08-19 13:57:47.220,-0.2,-0.035
2021-08-19 13:57:47.224,-0.2,-0.025
2021-08-19 13:57:47.228,-0.2,-0.04
2021-08-19 13:57:47.232,-0.19,-0.03
2021-08-19 13:57:47.236,-0.205,-0.03
2021-08-19 13:57:47.240,-0.19,-0.03
2021-08-19 13:57:47.244,-0.195,-0.04
2021-08-19 13:57:47.248,-0.2,-0.045
2021-08-19 13:57:47.252,-0.195,-0.03
2021-08-19 13:57:47.256,-0.195,-0.045
2021-08-19 13:57:47.260,-0.2,-0.04
2021-08-19 13:57:47.264,-0.205,-0.03
2021-08-19 13:57:47.268,-0.21,-0.025
2021-08-19 13:57:47.272,-0.19,-0.04
2021-08-19 13:57:47.276,-0.2,-0.035
2021-08-19 13:57:47.280,-0.21,-0.02
2021-08-19 13:57:47.284,-0.205,-0.03
2021-08-19 13:57:47.288,-0.205,-0.035
2021-08-19 13:57:47.292,-0.2,-0.04
2021-08-19 13:57:47.296,-0.2,-0.025
2021-08-19 13:57:47.300,-0.215,-0.025
2021-08-19 13:57:47.304,-0.2,-0.04
2021-08-19 13:57:47.308,-0.2,-0.05
2021-08-19 13:57:47.312,-0.185,-0.04
2021-08-19 13:57:47.316,-0.205,-0.03
2021-08-19 13:57:47.320,-0.21,-0.035
2021-08-19 13:57:47.324,-0.215,-0.03
2021-08-19 13:57:47.328,-0.2,-0.03
2021-08-19 13:57:47.332,-0.2,-0.03
2021-08-19 13:57:47.336,-0.205,-0.04
2021-08-19 13:57:47.340,-0.215,-0.03
2021-08-19 13:57:47.344,-0.2,-0.035
2021-08-19 13:57:47.348,-0.21,-0.02
2021-08-19 13:57:47.352,-0.2,-0.025
2021-08-19 13:57:47.356,-0.195,-0.05
2021-08-19 13:57:47.360,-0.205,-0.045
2021-08-19 13:57:47.364,-0.215,-0.025
2021-08-19 13:57:47.368,-0.215,-0.02
2021-08-19 13:57:47.372,-0.22,-0.025
2021-08-19 13:57:47.376,-0.215,-0.045
2021-08-19 13:57:47.380,-0.21,-0.04
2021-08-19 13:57:47.384,-0.21,-0.04
2021-08-19 13:57:47.388,-0.2,-0.025
2021-08-19 13:57:47.392,-0.205,-0.035
2021-08-19 13:57:47.396,-0.2,-0.02
2021-08-19 13:57:47.400,-0.19,-0.04
2021-08-19 13:57:47.404,-0.2,-0.045
2021-08-19 13:57:47.408,-0.195,-0.035
2021-08-19 13:57:47.412,-0.2,-0.04
2021-08-19 13:57:47.416,-0.2,-0.035
2021-08-19 13:57:47.420,-0.195,-0.025
2021-08-19 13:57:47.424,-0.195,-0.035
2021-08-19 13:57:47.428,-0.195,-0.02
2021-08-19 13:57:47.432,-0.19,-0.02
2021-08-19 13:57:47.436,-0.18,-0.02
2021-08-19 13:57:47.440,-0.2,-0.03
2021-08-19 13:57:47.444,-0.165,-0.025
2021-08-19 13:57:47.448,-0.195,-0.015
2021-08-19 13:57:47.452,-0.195,-0.02
2021-08-19 13:57:47.456,-0.185,-0.04
2021-08-19 13:57:47.460,-0.185,-0.015
2021-08-19 13:57:47.464,-0.195,0.0
2021-08-19 13:57:47.468,-0.185,-0.005
2021-08-19 13:57:47.472,-0.19,0.0
2021-08-19 13:57:47.476,-0.19,-0.02
2021-08-19 13:57:47.480,-0.16,-0.01
2021-08-19 13:57:47.484,-0.185,0.0
2021-08-19 13:57:47.488,-0.185,-0.01
2021-08-19 13:57:47.492,-0.175,0.0
2021-08-19 13:57:47.496,-0.165,-0.015
2021-08-19 13:57:47.500,-0.165,-0.005
2021-08-19 13:57:47.504,-0.17,-0.025
2021-08-19 13:57:47.508,-0.175,-0.015
2021-08-19 13:57:47.512,-0.165,-0.005
2021-08-19 13:57:47.516,-0.17,0.0
2021-08-19 13:57:47.520,-0.155,-0.01
2021-08-19 13:57:47.524,-0.125,0.0
2021-08-19 13:57:47.528,-0.145,0.0
2021-08-19 13:57:47.532,-0.135,-0.01
2021-08-19 13:57:47.536,-0.12,-0.01
2021-08-19 13:57:47.540,-0.12,0.015
2021-08-19 13:57:47.544,-0.105,0.01
2021-08-19 13:57:47.548,-0.115,0.02
2021-08-19 13:57:47.552,-0.14,0.015
2021-08-19 13:57:47.556,-0.125,0.025
2021-08-19 13:57:47.560,-0.125,0.015
2021-08-19 13:57:47.564,-0.13,0.015
2021-08-19 13:57:47.568,-0.135,-0.005
2021-08-19 13:57:47.572,-0.15,-0.01
2021-08-19 13:57:47.576,-0.16,-0.015
2021-08-19 13:57:47.580,-0.15,-0.03
2021-08-19 13:57:47.584,-0.16,-0.035
2021-08-19 13:57:47.588,-0.165,-0.035
2021-08-19 13:57:47.592,-0.165,-0.02
2021-08-19 13:57:47.596,-0.15,-0.05
2021-08-19 13:57:47.600,-0.145,-0.04
2021-08-19 13:57:47.604,-0.145,-0.045
2021-08-19 13:57:47.608,-0.14,-0.04
2021-08-19 13:57:47.612,-0.13,-0.03
2021-08-19 13:57:47.616,-0.14,-0.035
2021-08-19 13:57:47.620,-0.125,-0.045
2021-08-19 13:57:47.624,-0.135,-0.045
2021-08-19 13:57:47.628,-0.15,-0.015
2021-08-19 13:57:47.632,-0.16,-0.015
2021-08-19 13:57:47.636,-0.165,-0.01
2021-08-19 13:57:47.640,-0.165,-0.01
2021-08-19 13:57:47.644,-0.17,0.01
2021-08-19 13:57:47.648,-0.18,0.0
2021-08-19 13:57:47.652,-0.195,0.005
2021-08-19 13:57:47.656,-0.17,0.005
2021-08-19 13:57:47.660,-0.185,0.0
2021-08-19 13:57:47.664,-0.2,0.0
2021-08-19 13:57:47.668,-0.19,-0.005
2021-08-19 13:57:47.672,-0.19,0.0
2021-08-19 13:57:47.676,-0.195,-0.005
2021-08-19 13:57:47.680,-0.185,-0.015
2021-08-19 13:57:47.684,-0.19,-0.025
2021-08-19 13:57:47.688,-0.175,0.0
2021-08-19 13:57:47.692,-0.195,-0.01
2021-08-19 13:57:47.696,-0.2,-0.005
2021-08-19 13:57:47.700,-0.195,-0.005
2021-08-19 13:57:47.704,-0.175,-0.015
2021-08-19 13:57:47.708,-0.18,-0.015
2021-08-19 13:57:47.712,-0.185,-0.015
2021-08-19 13:57:47.716,-0.2,-0.005
2021-08-19 13:57:47.720,-0.195,-0.015
2021-08-19 13:57:47.724,-0.19,-0.025
2021-08-19 13:57:47.728,-0.09,0.005
2021-08-19 13:57:47.732,0.055,0.01
2021-08-19 13:57:47.736,0.31,0.02
2021-08-19 13:57:47.740,0.595,0.0
2021-08-19 13:57:47.744,0.875,-0.045
2021-08-19 13:57:47.748,1.14,-0.075
2021-08-19 13:57:47.752,1.22,-0.16
2021-08-19 13:57:47.756,1.02,-0.255
2021-08-19 13:57:47.760,0.57,-0.355
2021-08-19 13:57:47.764,0.035,-0.455
2021-08-19 13:57:47.768,-0.375,-0.51
2021-08-19 13:57:47.772,-0.545,-0.54
2021-08-19 13:57:47.776,-0.605,-0.48
2021-08-19 13:57:47.780,-0.575,-0.38
2021-08-19 13:57:47.784,-0.47,-0.28
2021-08-19 13:57:47.788,-0.365,-0.185
2021-08-19 13:57:47.792,-0.3,-0.09
2021-08-19 13:57:47.796,-0.28,-0.02
2021-08-19 13:57:47.800,-0.255,0.025
2021-08-19 13:57:47.804,-0.245,0.04
2021-08-19 13:57:47.808,-0.26,0.05
2021-08-19 13:57:47.812,-0.255,0.04
2021-08-19 13:57:47.816,-0.275,0.04
2021-08-19 13:57:47.820,-0.29,0.03
2021-08-19 13:57:47.824,-0.27,0.045
2021-08-19 13:57:47.828,-0.265,0.005
2021-08-19 13:57:47.832,-0.26,0.025
2021-08-19 13:57:47.836,-0.27,0.04
2021-08-19 13:57:47.840,-0.265,0.035
2021-08-19 13:57:47.844,-0.265,0.0
2021-08-19 13:57:47.848,-0.265,0.01
2021-08-19 13:57:47.852,-0.28,0.01
2021-08-19 13:57:47.856,-0.28,0.01
2021-08-19 13:57:47.860,-0.285,0.015
2021-08-19 13:57:47.864,-0.285,0.01
2021-08-19 13:57:47.868,-0.265,0.01
2021-08-19 13:57:47.872,-0.265,0.01
2021-08-19 13:57:47.876,-0.25,0.015
2021-08-19 13:57:47.880,-0.29,0.01
2021-08-19 13:57:47.884,-0.28,0.005
2021-08-19 13:57:47.888,-0.28,0.0
2021-08-19 13:57:47.892,-0.3,0.0
2021-08-19 13:57:47.896,-0.305,0.01
2021-08-19 13:57:47.900,-0.295,0.0
2021-08-19 13:57:47.904,-0.3,0.01
2021-08-19 13:57:47.908,-0.29,0.01
2021-08-19 13:57:47.912,-0.285,0.005
2021-08-19 13:57:47.916,-0.3,0.02
2021-08-19 13:57:47.920,-0.3,0.0
2021-08-19 13:57:47.924,-0.3,0.005
2021-08-19 13:57:47.928,-0.29,0.01
2021-08-19 13:57:47.932,-0.295,0.0
2021-08-19 13:57:47.936,-0.295,0.0
2021-08-19 13:57:47.940,-0.29,0.0
2021-08-19 13:57:47.944,-0.295,0.0
2021-08-19 13:57:47.948,-0.305,0.005
2021-08-19 13:57:47.952,-0.3,0.015
2021-08-19 13:57:47.956,-0.305,0.035
2021-08-19 13:57:47.960,-0.31,0.02
2021-08-19 13:57:47.964,-0.305,0.015
2021-08-19 13:57:47.968,-0.31,0.025
2021-08-19 13:57:47.972,-0.31,0.04
2021-08-19 13:57:47.976,-0.315,0.02
2021-08-19 13:57:47.980,-0.315,0.02
2021-08-19 13:57:47.984,-0.315,0.025
2021-08-19 13:57:47.988,-0.295,0.03
2021-08-19 13:57:47.992,-0.295,0.02
2021-08-19 13:57:47.996,-0.29,0.02
2021-08-19 13:57:48.000,-0.29,0.02
2021-08-19 13:57:48.004,-0.29,0.015
2021-08-19 13:57:48.008,-0.3,0.02
2021-08-19 13:57:48.012,-0.275,0.02
2021-08-19 13:57:48.016,-0.265,0.015
2021-08-19 13:57:48.020,-0.26,0.0
2021-08-19 13:57:48.024,-0.265,0.0
2021-08-19 13:57:48.028,-0.24,0.02
2021-08-19 13:57:48.032,-0.235,0.005
2021-08-19 13:57:48.036,-0.205,0.0
2021-08-19 13:57:48.040,-0.205,0.0
2021-08-19 13:57:48.044,-0.2,-0.005
2021-08-19 13:57:48.048,-0.18,0.0
2021-08-19 13:57:48.052,-0.17,0.0
2021-08-19 13:57:48.056,-0.165,-0.02
2021-08-19 13:57:48.060,-0.16,0.0
2021-08-19 13:57:48.064,-0.14,-0.005
2021-08-19 13:57:48.068,-0.14,-0.015
2021-08-19 13:57:48.072,-0.125,-0.015
2021-08-19 13:57:48.076,-0.13,-0.02
2021-08-19 13:57:48.080,-0.125,-0.02
2021-08-19 13:57:48.084,-0.14,-0.015
2021-08-19 13:57:48.088,-0.125,-0.015
2021-08-19 13:57:48.092,-0.125,-0.025
2021-08-19 13:57:48.096,-0.13,-0.02
2021-08-19 13:57:48.100,-0.14,-0.015
2021-08-19 13:57:48.104,-0.15,-0.01
2021-08-19 13:57:48.108,-0.155,-0.015
2021-08-19 13:57:48.112,-0.145,-0.01
2021-08-19 13:57:48.116,-0.16,-0.02
2021-08-19 13:57:48.120,-0.175,-0.015
2021-08-19 13:57:48.124,-0.165,-0.025
2021-08-19 13:57:48.128,-0.165,-0.025
2021-08-19 13:57:48.132,-0.17,-0.03
2021-08-19 13:57:48.136,-0.165,-0.03
2021-08-19 13:57:48.140,-0.175,-0.045
2021-08-19 13:57:48.144,-0.17,-0.04
2021-08-19 13:57:48.148,-0.175,-0.015
2021-08-19 13:57:48.152,-0.17,-0.025
2021-08-19 13:57:48.156,-0.18,-0.025
2021-08-19 13:57:48.160,-0.175,-0.025
2021-08-19 13:57:48.164,-0.185,-0.02
2021-08-19 13:57:48.168,-0.185,-0.025
2021-08-19 13:57:48.172,-0.19,-0.025
2021-08-19 13:57:48.176,-0.185,-0.005
2021-08-19 13:57:48.180,-0.18,-0.025
2021-08-19 13:57:48.184,-0.185,-0.015
2021-08-19 13:57:48.188,-0.175,-0.025
2021-08-19 13:57:48.192,-0.175,-0.015
2021-08-19 13:57:48.196,-0.175,-0.01
2021-08-19 13:57:48.200,-0.175,-0.005
2021-08-19 13:57:48.204,-0.17,-0.02
2021-08-19 13:57:48.208,-0.16,-0.02
2021-08-19 13:57:48.212,-0.18,-0.015
2021-08-19 13:57:48.216,-0.175,-0.005
2021-08-19 13:57:48.220,-0.17,-0.015
2021-08-19 13:57:48.224,-0.165,-0.025
2021-08-19 13:57:48.228,-0.14,-0.015
2021-08-19 13:57:48.232,-0.17,-0.015
2021-08-19 13:57:48.236,-0.17,-0.01
2021-08-19 13:57:48.240,-0.16,-0.03
2021-08-19 13:57:48.244,-0.16,-0.02
2021-08-19 13:57:48.248,-0.16,-0.01
2021-08-19 13:57:48.252,-0.155,-0.01
2021-08-19 13:57:48.256,-0.16,-0.005
2021-08-19 13:57:48.260,-0.16,0.0
2021-08-19 13:57:48.264,-0.155,-0.01
2021-08-19 13:57:48.268,-0.16,-0.025
2021-08-19 13:57:48.272,-0.17,-0.015
2021-08-19 13:57:48.276,-0.15,-0.02
2021-08-19 13:57:48.280,-0.155,-0.015
2021-08-19 13:57:48.284,-0.155,-0.01
2021-08-19 13:57:48.288,-0.15,-0.015
2021-08-19 13:57:48.292,-0.14,-0.01
2021-08-19 13:57:48.296,-0.175,-0.01
2021-08-19 13:57:48.300,-0.165,-0.01
2021-08-19 13:57:48.304,-0.16,-0.005
2021-08-19 13:57:48.308,-0.16,-0.025
2021-08-19 13:57:48.312,-0.17,-0.005
2021-08-19 13:57:48.316,-0.175,-0.02
2021-08-19 13:57:48.320,-0.175,-0.025
2021-08-19 13:57:48.324,-0.165,-0.025
2021-08-19 13:57:48.328,-0.18,0.0
2021-08-19 13:57:48.332,-0.175,-0.01
2021-08-19 13:57:48.336,-0.2,-0.015
2021-08-19 13:57:48.340,-0.19,-0.015
2021-08-19 13:57:48.344,-0.18,-0.025
2021-08-19 13:57:48.348,-0.19,-0.015
2021-08-19 13:57:48.352,-0.185,-0.02
2021-08-19 13:57:48.356,-0.185,-0.015
2021-08-19 13:57:48.360,-0.18,-0.01
2021-08-19 13:57:48.364,-0.18,-0.02
2021-08-19 13:57:48.368,-0.185,-0.015
2021-08-19 13:57:48.372,-0.19,-0.01
2021-08-19 13:57:48.376,-0.2,-0.02
2021-08-19 13:57:48.380,-0.175,-0.01
2021-08-19 13:57:48.384,-0.18,-0.015
2021-08-19 13:57:48.388,-0.185,-0.02
2021-08-19 13:57:48.392,-0.18,-0.015
2021-08-19 13:57:48.396,-0.19,-0.02
2021-08-19 13:57:48.400,-0.19,-0.02
2021-08-19 13:57:48.404,-0.185,-0.015
2021-08-19 13:57:48.408,-0.2,-0.025
2021-08-19 13:57:48.412,-0.205,-0.015
2021-08-19 13:57:48.416,-0.21,-0.015
2021-08-19 13:57:48.420,-0.195,-0.02
2021-08-19 13:57:48.424,-0.205,-0.01
2021-08-19 13:57:48.428,-0.205,-0.015
2021-08-19 13:57:48.432,-0.195,-0.02
2021-08-19 13:57:48.436,-0.21,-0.015
2021-08-19 13:57:48.440,-0.205,-0.015
2021-08-19 13:57:48.444,-0.19,-0.015
2021-08-19 13:57:48.448,-0.195,-0.015
2021-08-19 13:57:48.452,-0.185,-0.025
2021-08-19 13:57:48.456,-0.205,-0.015
2021-08-19 13:57:48.460,-0.19,-0.015
2021-08-19 13:57:48.464,-0.195,-0.01
2021-08-19 13:57:48.468,-0.18,-0.015
2021-08-19 13:57:48.472,-0.185,-0.005
2021-08-19 13:57:48.476,-0.18,-0.025
2021-08-19 13:57:48.480,-0.19,-0.015
2021-08-19 13:57:48.484,-0.19,-0.015
2021-08-19 13:57:48.488,-0.18,0.0
2021-08-19 13:57:48.492,-0.2,-0.015
2021-08-19 13:57:48.496,-0.195,-0.01
2021-08-19 13:57:48.500,-0.21,-0.01
2021-08-19 13:57:48.504,-0.195,-0.01
2021-08-19 13:57:48.508,-0.19,-0.005
2021-08-19 13:57:48.512,-0.175,0.0
2021-08-19 13:57:48.516,-0.21,-0.01
2021-08-19 13:57:48.520,-0.195,0.0
2021-08-19 13:57:48.524,-0.19,-0.01
2021-08-19 13:57:48.528,-0.19,0.0
2021-08-19 13:57:48.532,-0.19,0.0
2021-08-19 13:57:48.536,-0.185,0.0
2021-08-19 13:57:48.540,-0.185,0.0
2021-08-19 13:57:48.544,-0.19,0.005
2021-08-19 13:57:48.548,-0.18,-0.005
2021-08-19 13:57:48.552,-0.185,-0.005
2021-08-19 13:57:48.556,-0.175,0.0
2021-08-19 13:57:48.560,-0.185,0.0
2021-08-19 13:57:48.564,-0.18,0.0
2021-08-19 13:57:48.568,-0.18,0.005
2021-08-19 13:57:48.572,-0.175,0.0
2021-08-19 13:57:48.576,-0.175,-0.005
2021-08-19 13:57:48.580,-0.18,0.0
2021-08-19 13:57:48.584,-0.185,0.005
2021-08-19 13:57:48.588,-0.18,0.0
2021-08-19 13:57:48.592,-0.155,-0.015
2021-08-19 13:57:48.596,-0.17,-0.015
2021-08-19 13:57:48.600,-0.16,0.01
2021-08-19 13:57:48.604,-0.175,-0.015
2021-08-19 13:57:48.608,-0.19,-0.01
2021-08-19 13:57:48.612,-0.19,-0.02
2021-08-19 13:57:48.616,-0.16,-0.02
2021-08-19 13:57:48.620,-0.175,-0.01
2021-08-19 13:57:48.624,-0.185,-0.01
2021-08-19 13:57:48.628,-0.185,0.0
2021-08-19 13:57:48.632,-0.17,0.0
2021-08-19 13:57:48.636,-0.17,-0.005
2021-08-19 13:57:48.640,-0.175,0.0
2021-08-19 13:57:48.644,-0.18,-0.005
2021-08-19 13:57:48.648,-0.175,0.0
2021-08-19 13:57:48.652,-0.175,-0.02
2021-08-19 13:57:48.656,-0.15,-0.01
2021-08-19 13:57:48.660,-0.175,0.0
2021-08-19 13:57:48.664,-0.15,-0.005
2021-08-19 13:57:48.668,-0.19,-0.015
2021-08-19 13:57:48.672,-0.17,0.0
2021-08-19 13:57:48.676,-0.17,-0.01
2021-08-19 13:57:48.680,-0.16,-0.005
2021-08-19 13:57:48.684,-0.17,-0.02
2021-08-19 13:57:48.688,-0.175,-0.01
2021-08-19 13:57:48.692,-0.175,-0.01
2021-08-19 13:57:48.696,-0.165,-0.005
2021-08-19 13:57:48.700,-0.155,-0.01
2021-08-19 13:57:48.704,-0.135,-0.01
2021-08-19 13:57:48.708,-0.135,-0.005
2021-08-19 13:57:48.712,-0.135,0.005
2021-08-19 13:57:48.716,-0.125,0.01
2021-08-19 13:57:48.720,-0.115,0.01
2021-08-19 13:57:48.724,-0.12,0.015
2021-08-19 13:57:48.728,-0.125,0.025
2021-08-19 13:57:48.732,-0.12,0.015
2021-08-19 13:57:48.736,-0.125,0.01
2021-08-19 13:57:48.740,-0.13,-0.005
2021-08-19 13:57:48.744,-0.145,0.0
2021-08-19 13:57:48.748,-0.155,-0.015
2021-08-19 13:57:48.752,-0.17,-0.02
2021-08-19 13:57:48.756,-0.16,-0.03
2021-08-19 13:57:48.760,-0.14,-0.045
2021-08-19 13:57:48.764,-0.165,-0.055
2021-08-19 13:57:48.768,-0.155,-0.05
2021-08-19 13:57:48.772,-0.14,-0.045
2021-08-19 13:57:48.776,-0.16,-0.045
2021-08-19 13:57:48.780,-0.145,-0.065
2021-08-19 13:57:48.784,-0.135,-0.05
2021-08-19 13:57:48.788,-0.145,-0.035
2021-08-19 13:57:48.792,-0.15,-0.04
2021-08-19 13:57:48.796,-0.15,-0.05
2021-08-19 13:57:48.800,-0.135,-0.03
2021-08-19 13:57:48.804,-0.145,-0.02
2021-08-19 13:57:48.808,-0.16,-0.025
2021-08-19 13:57:48.812,-0.17,-0.02
2021-08-19 13:57:48.816,-0.18,0.005
2021-08-19 13:57:48.820,-0.18,-0.01
2021-08-19 13:57:48.824,-0.19,0.01
2021-08-19 13:57:48.828,-0.185,-0.005
2021-08-19 13:57:48.832,-0.185,-0.005
2021-08-19 13:57:48.836,-0.185,0.0
2021-08-19 13:57:48.840,-0.19,-0.015
2021-08-19 13:57:48.844,-0.185,-0.02
2021-08-19 13:57:48.848,-0.17,-0.01
2021-08-19 13:57:48.852,-0.18,-0.015
2021-08-19 13:57:48.856,-0.185,-0.01
2021-08-19 13:57:48.860,-0.175,-0.02
2021-08-19 13:57:48.864,-0.18,-0.02
2021-08-19 13:57:48.868,-0.18,-0.015
2021-08-19 13:57:48.872,-0.175,-0.025
2021-08-19 13:57:48.876,-0.18,-0.035
2021-08-19 13:57:48.880,-0.185,-0.01
2021-08-19 13:57:48.884,-0.175,-0.02
2021-08-19 13:57:48.888,-0.19,-0.03
2021-08-19 13:57:48.892,-0.21,-0.035
2021-08-19 13:57:48.896,-0.215,-0.03
2021-08-19 13:57:48.900,-0.175,-0.035
2021-08-19 13:57:48.904,-0.075,0.0
2021-08-19 13:57:48.908,0.095,0.025
2021-08-19 13:57:48.912,0.345,0.025
2021-08-19 13:57:48.916,0.6,-0.02
2021-08-19 13:57:48.920,0.87,-0.045
2021-08-19 13:57:48.924,1.11,-0.09
2021-08-19 13:57:48.928,1.205,-0.18
2021-08-19 13:57:48.932,1.045,-0.29
2021-08-19 13:57:48.936,0.645,-0.41
2021-08-19 13:57:48.940,0.1,-0.495
2021-08-19 13:57:48.944,-0.365,-0.565
2021-08-19 13:57:48.948,-0.565,-0.59
2021-08-19 13:57:48.952,-0.645,-0.54
2021-08-19 13:57:48.956,-0.625,-0.47
2021-08-19 13:57:48.960,-0.525,-0.365
2021-08-19 13:57:48.964,-0.395,-0.25
2021-08-19 13:57:48.968,-0.32,-0.15
2021-08-19 13:57:48.972,-0.285,-0.06
2021-08-19 13:57:48.976,-0.275,0.0
2021-08-19 13:57:48.980,-0.28,0.05
2021-08-19 13:57:48.984,-0.275,0.035
2021-08-19 13:57:48.988,-0.275,0.045
2021-08-19 13:57:48.992,-0.275,0.035
2021-08-19 13:57:48.996,-0.275,0.025
2021-08-19 13:57:49.000,-0.265,0.025
2021-08-19 13:57:49.004,-0.275,0.015
2021-08-19 13:57:49.008,-0.27,0.015
2021-08-19 13:57:49.012,-0.275,0.025
2021-08-19 13:57:49.016,-0.28,0.015
2021-08-19 13:57:49.020,-0.28,0.0
2021-08-19 13:57:49.024,-0.28,0.0
2021-08-19 13:57:49.028,-0.28,0.01
2021-08-19 13:57:49.032,-0.27,-0.005
2021-08-19 13:57:49.036,-0.275,0.0
2021-08-19 13:57:49.040,-0.265,-0.005
2021-08-19 13:57:49.044,-0.275,0.005
2021-08-19 13:57:49.048,-0.275,0.0
2021-08-19 13:57:49.052,-0.26,0.0
2021-08-19 13:57:49.056,-0.27,-0.015
2021-08-19 13:57:49.060,-0.28,0.0
2021-08-19 13:57:49.064,-0.26,-0.005
2021-08-19 13:57:49.068,-0.27,0.015
2021-08-19 13:57:49.072,-0.26,0.0
2021-08-19 13:57:49.076,-0.255,0.0
2021-08-19 13:57:49.080,-0.255,-0.01
2021-08-19 13:57:49.084,-0.24,0.0
2021-08-19 13:57:49.088,-0.24,-0.005
2021-08-19 13:57:49.092,-0.24,0.0
2021-08-19 13:57:49.096,-0.225,-0.01
2021-08-19 13:57:49.100,-0.215,0.0
2021-08-19 13:57:49.104,-0.215,0.0
2021-08-19 13:57:49.108,-0.21,0.015
2021-08-19 13:57:49.112,-0.19,0.015
2021-08-19 13:57:49.116,-0.215,0.035
2021-08-19 13:57:49.120,-0.22,0.025
2021-08-19 13:57:49.124,-0.225,0.025
2021-08-19 13:57:49.128,-0.245,0.035
2021-08-19 13:57:49.132,-0.245,0.04
2021-08-19 13:57:49.136,-0.25,0.04
2021-08-19 13:57:49.140,-0.245,0.06
2021-08-19 13:57:49.144,-0.275,0.06
2021-08-19 13:57:49.148,-0.3,0.06
2021-08-19 13:57:49.152,-0.295,0.045
2021-08-19 13:57:49.156,-0.285,0.055
2021-08-19 13:57:49.160,-0.29,0.04
2021-08-19 13:57:49.164,-0.295,0.035
2021-08-19 13:57:49.168,-0.305,0.005
2021-08-19 13:57:49.172,-0.31,-0.01
2021-08-19 13:57:49.176,-0.295,-0.01
2021-08-19 13:57:49.180,-0.28,0.0
2021-08-19 13:57:49.184,-0.3,0.0
2021-08-19 13:57:49.188,-0.3,-0.005
2021-08-19 13:57:49.192,-0.285,-0.005
2021-08-19 13:57:49.196,-0.27,-0.015
2021-08-19 13:57:49.200,-0.255,-0.02
2021-08-19 13:57:49.204,-0.275,-0.025
2021-08-19 13:57:49.208,-0.28,-0.015
2021-08-19 13:57:49.212,-0.26,-0.025
2021-08-19 13:57:49.216,-0.25,-0.045
2021-08-19 13:57:49.220,-0.225,-0.035
2021-08-19 13:57:49.224,-0.225,-0.025
2021-08-19 13:57:49.228,-0.205,-0.02
2021-08-19 13:57:49.232,-0.205,-0.02
2021-08-19 13:57:49.236,-0.185,-0.04
2021-08-19 13:57:49.240,-0.17,-0.045
2021-08-19 13:57:49.244,-0.16,-0.045
2021-08-19 13:57:49.248,-0.145,-0.04
2021-08-19 13:57:49.252,-0.135,-0.035
2021-08-19 13:57:49.256,-0.13,-0.035
2021-08-19 13:57:49.260,-0.125,-0.045
2021-08-19 13:57:49.264,-0.12,-0.06
2021-08-19 13:57:49.268,-0.11,-0.05
2021-08-19 13:57:49.272,-0.125,-0.04
2021-08-19 13:57:49.276,-0.125,-0.04
2021-08-19 13:57:49.280,-0.13,-0.035
2021-08-19 13:57:49.284,-0.135,-0.04
2021-08-19 13:57:49.288,-0.135,-0.035
2021-08-19 13:57:49.292,-0.13,-0.045
2021-08-19 13:57:49.296,-0.13,-0.04
2021-08-19 13:57:49.300,-0.125,-0.055
2021-08-19 13:57:49.304,-0.115,-0.055
2021-08-19 13:57:49.308,-0.115,-0.05
2021-08-19 13:57:49.312,-0.12,-0.045
2021-08-19 13:57:49.316,-0.135,-0.05
2021-08-19 13:57:49.320,-0.13,-0.025
2021-08-19 13:57:49.324,-0.11,-0.04
2021-08-19 13:57:49.328,-0.12,-0.035
2021-08-19 13:57:49.332,-0.145,-0.02
2021-08-19 13:57:49.336,-0.165,-0.025
2021-08-19 13:57:49.340,-0.19,-0.04
2021-08-19 13:57:49.344,-0.21,-0.03
2021-08-19 13:57:49.348,-0.19,-0.02
2021-08-19 13:57:49.352,-0.2,-0.02
2021-08-19 13:57:49.356,-0.22,-0.02
2021-08-19 13:57:49.360,-0.215,-0.01
2021-08-19 13:57:49.364,-0.205,-0.02
2021-08-19 13:57:49.368,-0.205,-0.02
2021-08-19 13:57:49.372,-0.21,-0.01
2021-08-19 13:57:49.376,-0.22,-0.03
2021-08-19 13:57:49.380,-0.21,-0.03
2021-08-19 13:57:49.384,-0.205,-0.035
2021-08-19 13:57:49.388,-0.185,-0.045
2021-08-19 13:57:49.392,-0.19,-0.05
2021-08-19 13:57:49.396,-0.195,-0.04
2021-08-19 13:57:49.400,-0.2,-0.045
2021-08-19 13:57:49.404,-0.195,-0.035
2021-08-19 13:57:49.408,-0.19,-0.04
2021-08-19 13:57:49.412,-0.185,-0.035
2021-08-19 13:57:49.416,-0.17,-0.045
2021-08-19 13:57:49.420,-0.165,-0.045
2021-08-19 13:57:49.424,-0.17,-0.035
2021-08-19 13:57:49.428,-0.155,-0.03
2021-08-19 13:57:49.432,-0.155,-0.04
2021-08-19 13:57:49.436,-0.14,-0.035
2021-08-19 13:57:49.440,-0.15,-0.03
2021-08-19 13:57:49.444,-0.145,-0.015
2021-08-19 13:57:49.448,-0.15,-0.025
2021-08-19 13:57:49.452,-0.145,-0.03
2021-08-19 13:57:49.456,-0.135,-0.025
2021-08-19 13:57:49.460,-0.14,-0.045
2021-08-19 13:57:49.464,-0.14,-0.05
2021-08-19 13:57:49.468,-0.13,-0.035
2021-08-19 13:57:49.472,-0.105,-0.04
2021-08-19 13:57:49.476,-0.115,-0.035
2021-08-19 13:57:49.480,-0.12,-0.03
2021-08-19 13:57:49.484,-0.11,-0.015
2021-08-19 13:57:49.488,-0.11,-0.025
2021-08-19 13:57:49.492,-0.095,-0.035
2021-08-19 13:57:49.496,-0.1,-0.03
2021-08-19 13:57:49.500,-0.105,-0.02
2021-08-19 13:57:49.504,-0.11,-0.015
2021-08-19 13:57:49.508,-0.115,-0.01
2021-08-19 13:57:49.512,-0.12,-0.01
2021-08-19 13:57:49.516,-0.1,-0.025
2021-08-19 13:57:49.520,-0.11,-0.04
2021-08-19 13:57:49.524,-0.12,-0.025
2021-08-19 13:57:49.528,-0.14,-0.025
2021-08-19 13:57:49.532,-0.15,-0.01
2021-08-19 13:57:49.536,-0.15,-0.01
2021-08-19 13:57:49.540,-0.155,-0.015
2021-08-19 13:57:49.544,-0.18,-0.015
2021-08-19 13:57:49.548,-0.19,-0.005
2021-08-19 13:57:49.552,-0.185,0.0
2021-08-19 13:57:49.556,-0.19,-0.005
2021-08-19 13:57:49.560,-0.185,-0.02
2021-08-19 13:57:49.564,-0.2,-0.025
2021-08-19 13:57:49.568,-0.195,-0.02
2021-08-19 13:57:49.572,-0.205,-0.035
2021-08-19 13:57:49.576,-0.175,-0.025
2021-08-19 13:57:49.580,-0.18,-0.025
2021-08-19 13:57:49.584,-0.205,-0.03
2021-08-19 13:57:49.588,-0.195,-0.05
2021-08-19 13:57:49.592,-0.215,-0.04
2021-08-19 13:57:49.596,-0.215,-0.035
2021-08-19 13:57:49.600,-0.195,-0.05
2021-08-19 13:57:49.604,-0.2,-0.05
2021-08-19 13:57:49.608,-0.19,-0.05
2021-08-19 13:57:49.612,-0.215,-0.05
2021-08-19 13:57:49.616,-0.21,-0.05
2021-08-19 13:57:49.620,-0.195,-0.045
2021-08-19 13:57:49.624,-0.185,-0.045
2021-08-19 13:57:49.628,-0.2,-0.04
2021-08-19 13:57:49.632,-0.205,-0.055
2021-08-19 13:57:49.636,-0.2,-0.055
2021-08-19 13:57:49.640,-0.2,-0.045
2021-08-19 13:57:49.644,-0.19,-0.03
2021-08-19 13:57:49.648,-0.21,-0.04
2021-08-19 13:57:49.652,-0.205,-0.035
2021-08-19 13:57:49.656,-0.18,-0.04
2021-08-19 13:57:49.660,-0.185,-0.04
2021-08-19 13:57:49.664,-0.185,-0.03
2021-08-19 13:57:49.668,-0.19,-0.045
2021-08-19 13:57:49.672,-0.19,-0.03
2021-08-19 13:57:49.676,-0.185,-0.045
2021-08-19 13:57:49.680,-0.2,-0.04
2021-08-19 13:57:49.684,-0.195,-0.03
2021-08-19 13:57:49.688,-0.19,-0.04
2021-08-19 13:57:49.692,-0.18,-0.045
2021-08-19 13:57:49.696,-0.19,-0.035
2021-08-19 13:57:49.700,-0.18,-0.04
2021-08-19 13:57:49.704,-0.17,-0.035
2021-08-19 13:57:49.708,-0.165,-0.035
2021-08-19 13:57:49.712,-0.165,-0.035
2021-08-19 13:57:49.716,-0.175,-0.05
2021-08-19 13:57:49.720,-0.18,-0.04
2021-08-19 13:57:49.724,-0.18,-0.035
2021-08-19 13:57:49.728,-0.175,-0.03
2021-08-19 13:57:49.732,-0.18,-0.035
2021-08-19 13:57:49.736,-0.17,-0.02
2021-08-19 13:57:49.740,-0.16,-0.02
2021-08-19 13:57:49.744,-0.15,-0.02
2021-08-19 13:57:49.748,-0.145,-0.02
2021-08-19 13:57:49.752,-0.145,-0.035
2021-08-19 13:57:49.756,-0.13,-0.03
2021-08-19 13:57:49.760,-0.15,-0.02
2021-08-19 13:57:49.764,-0.13,-0.04
2021-08-19 13:57:49.768,-0.115,-0.04
2021-08-19 13:57:49.772,-0.105,-0.045
2021-08-19 13:57:49.776,-0.1,-0.045
2021-08-19 13:57:49.780,-0.1,-0.05
2021-08-19 13:57:49.784,-0.105,-0.04
2021-08-19 13:57:49.788,-0.095,-0.06
2021-08-19 13:57:49.792,-0.11,-0.065
2021-08-19 13:57:49.796,-0.095,-0.06
2021-08-19 13:57:49.800,-0.11,-0.055
2021-08-19 13:57:49.804,-0.105,-0.06
2021-08-19 13:57:49.808,-0.1,-0.045
2021-08-19 13:57:49.812,-0.045,-0.035
2021-08-19 13:57:49.816,0.105,-0.005
2021-08-19 13:57:49.820,0.335,0.015
2021-08-19 13:57:49.824,0.59,-0.005
2021-08-19 13:57:49.828,0.835,-0.02
2021-08-19 13:57:49.832,1.025,-0.055
2021-08-19 13:57:49.836,1.07,-0.13
2021-08-19 13:57:49.840,0.875,-0.22
2021-08-19 13:57:49.844,0.5,-0.32
2021-08-19 13:57:49.848,0.005,-0.39
2021-08-19 13:57:49.852,-0.39,-0.46
2021-08-19 13:57:49.856,-0.57,-0.51
2021-08-19 13:57:49.860,-0.605,-0.485
2021-08-19 13:57:49.864,-0.575,-0.42
2021-08-19 13:57:49.868,-0.48,-0.315
2021-08-19 13:57:49.872,-0.385,-0.21
2021-08-19 13:57:49.876,-0.32,-0.115
2021-08-19 13:57:49.880,-0.275,-0.03
2021-08-19 13:57:49.884,-0.255,0.01
2021-08-19 13:57:49.888,-0.25,0.045
2021-08-19 13:57:49.892,-0.25,0.035
2021-08-19 13:57:49.896,-0.25,0.025
2021-08-19 13:57:49.900,-0.265,0.05
2021-08-19 13:57:49.904,-0.26,0.02
2021-08-19 13:57:49.908,-0.26,0.02
2021-08-19 13:57:49.912,-0.27,0.01
2021-08-19 13:57:49.916,-0.26,0.01
2021-08-19 13:57:49.920,-0.255,0.01
2021-08-19 13:57:49.924,-0.265,0.01
2021-08-19 13:57:49.928,-0.26,0.0
2021-08-19 13:57:49.932,-0.27,-0.01
2021-08-19 13:57:49.936,-0.28,-0.005
2021-08-19 13:57:49.940,-0.27,-0.005
2021-08-19 13:57:49.944,-0.285,-0.01
2021-08-19 13:57:49.948,-0.27,-0.02
2021-08-19 13:57:49.952,-0.275,-0.02
2021-08-19 13:57:49.956,-0.275,-0.015
2021-08-19 13:57:49.960,-0.27,-0.015
2021-08-19 13:57:49.964,-0.285,-0.025
2021-08-19 13:57:49.968,-0.275,-0.025
2021-08-19 13:57:49.972,-0.27,-0.04
2021-08-19 13:57:49.976,-0.28,-0.025
2021-08-19 13:57:49.980,-0.275,-0.025
2021-08-19 13:57:49.984,-0.285,-0.025
2021-08-19 13:57:49.988,-0.275,-0.025
2021-08-19 13:57:49.992,-0.28,-0.02
2021-08-19 13:57:49.996,-0.27,-0.01
2021-08-19 13:57:50.000,-0.28,-0.02
2021-08-19 13:57:50.004,-0.285,-0.005
2021-08-19 13:57:50.008,-0.285,-0.015
2021-08-19 13:57:50.012,-0.265,-0.005
2021-08-19 13:57:50.016,-0.265,0.0
2021-08-19 13:57:50.020,-0.275,-0.005
2021-08-19 13:57:50.024,-0.29,0.0
2021-08-19 13:57:50.028,-0.285,-0.01
2021-08-19 13:57:50.032,-0.27,-0.01
2021-08-19 13:57:50.036,-0.28,0.0
2021-08-19 13:57:50.040,-0.275,0.0
2021-08-19 13:57:50.044,-0.275,0.0
2021-08-19 13:57:50.048,-0.285,0.0
2021-08-19 13:57:50.052,-0.29,0.01
2021-08-19 13:57:50.056,-0.275,0.01
2021-08-19 13:57:50.060,-0.275,0.015
2021-08-19 13:57:50.064,-0.285,0.015
2021-08-19 13:57:50.068,-0.28,0.01
2021-08-19 13:57:50.072,-0.28,0.0
2021-08-19 13:57:50.076,-0.27,0.0
2021-08-19 13:57:50.080,-0.27,0.01
2021-08-19 13:57:50.084,-0.255,0.01
2021-08-19 13:57:50.088,-0.26,0.005
2021-08-19 13:57:50.092,-0.275,-0.005
2021-08-19 13:57:50.096,-0.265,-0.005
2021-08-19 13:57:50.100,-0.25,0.01
2021-08-19 13:57:50.104,-0.24,0.0
2021-08-19 13:57:50.108,-0.235,0.0
2021-08-19 13:57:50.112,-0.22,-0.005
2021-08-19 13:57:50.116,-0.225,0.0
2021-08-19 13:57:50.120,-0.195,0.0
2021-08-19 13:57:50.124,-0.18,-0.005
2021-08-19 13:57:50.128,-0.185,-0.005
2021-08-19 13:57:50.132,-0.17,-0.015
2021-08-19 13:57:50.136,-0.165,-0.02
2021-08-19 13:57:50.140,-0.15,-0.01
2021-08-19 13:57:50.144,-0.14,-0.025
2021-08-19 13:57:50.148,-0.13,-0.02
2021-08-19 13:57:50.152,-0.13,-0.01
2021-08-19 13:57:50.156,-0.135,-0.025
2021-08-19 13:57:50.160,-0.125,-0.025
2021-08-19 13:57:50.164,-0.115,-0.045
2021-08-19 13:57:50.168,-0.1,-0.02
2021-08-19 13:57:50.172,-0.12,-0.03
2021-08-19 13:57:50.176,-0.14,-0.03
2021-08-19 13:57:50.180,-0.135,-0.04
2021-08-19 13:57:50.184,-0.13,-0.035
2021-08-19 13:57:50.188,-0.16,-0.035
2021-08-19 13:57:50.192,-0.16,-0.04
2021-08-19 13:57:50.196,-0.165,-0.035
2021-08-19 13:57:50.200,-0.18,-0.035
2021-08-19 13:57:50.204,-0.175,-0.03
2021-08-19 13:57:50.208,-0.175,-0.03
2021-08-19 13:57:50.212,-0.185,-0.04
2021-08-19 13:57:50.216,-0.18,-0.035
2021-08-19 13:57:50.220,-0.195,-0.035
2021-08-19 13:57:50.224,-0.175,-0.04
2021-08-19 13:57:50.228,-0.185,-0.05
2021-08-19 13:57:50.232,-0.2,-0.05
2021-08-19 13:57:50.236,-0.19,-0.04
2021-08-19 13:57:50.240,-0.19,-0.035
2021-08-19 13:57:50.244,-0.18,-0.04
2021-08-19 13:57:50.248,-0.175,-0.035
2021-08-19 13:57:50.252,-0.2,-0.04
2021-08-19 13:57:50.256,-0.19,-0.04
2021-08-19 13:57:50.260,-0.185,-0.04
2021-08-19 13:57:50.264,-0.17,-0.02
2021-08-19 13:57:50.268,-0.18,-0.04
2021-08-19 13:57:50.272,-0.175,-0.015
2021-08-19 13:57:50.276,-0.185,-0.025
2021-08-19 13:57:50.280,-0.18,-0.015
2021-08-19 13:57:50.284,-0.185,-0.035
2021-08-19 13:57:50.288,-0.18,-0.02
2021-08-19 13:57:50.292,-0.19,-0.03
2021-08-19 13:57:50.296,-0.17,-0.035
2021-08-19 13:57:50.300,-0.185,-0.03
2021-08-19 13:57:50.304,-0.185,-0.035
2021-08-19 13:57:50.308,-0.18,-0.01
2021-08-19 13:57:50.312,-0.18,-0.015
2021-08-19 13:57:50.316,-0.175,-0.035
2021-08-19 13:57:50.320,-0.18,-0.02
2021-08-19 13:57:50.324,-0.17,-0.02
2021-08-19 13:57:50.328,-0.16,-0.015
2021-08-19 13:57:50.332,-0.18,-0.025
2021-08-19 13:57:50.336,-0.165,-0.015
2021-08-19 13:57:50.340,-0.175,-0.025
2021-08-19 13:57:50.344,-0.17,-0.02
2021-08-19 13:57:50.348,-0.17,-0.01
2021-08-19 13:57:50.352,-0.175,-0.02
2021-08-19 13:57:50.356,-0.17,-0.015
2021-08-19 13:57:50.360,-0.17,-0.03
2021-08-19 13:57:50.364,-0.175,-0.015
2021-08-19 13:57:50.368,-0.17,-0.03
2021-08-19 13:57:50.372,-0.16,-0.04
2021-08-19 13:57:50.376,-0.18,-0.025
2021-08-19 13:57:50.380,-0.17,-0.025
2021-08-19 13:57:50.384,-0.165,-0.03
2021-08-19 13:57:50.388,-0.16,-0.035
2021-08-19 13:57:50.392,-0.16,-0.03
2021-08-19 13:57:50.396,-0.15,-0.02
2021-08-19 13:57:50.400,-0.15,-0.035
2021-08-19 13:57:50.404,-0.155,-0.02
2021-08-19 13:57:50.408,-0.13,-0.02
2021-08-19 13:57:50.412,-0.1,-0.02
2021-08-19 13:57:50.416,-0.06,-0.03
2021-08-19 13:57:50.420,-0.02,-0.025
2021-08-19 13:57:50.424,0.015,-0.005
2021-08-19 13:57:50.428,0.09,0.005
2021-08-19 13:57:50.432,0.175,0.06
2021-08-19 13:57:50.436,0.255,0.085
2021-08-19 13:57:50.440,0.315,0.12
2021-08-19 13:57:50.444,0.395,0.155
2021-08-19 13:57:50.448,0.455,0.21
2021-08-19 13:57:50.452,0.535,0.255
2021-08-19 13:57:50.456,0.59,0.29
2021-08-19 13:57:50.460,0.635,0.32
2021-08-19 13:57:50.464,0.695,0.36
2021-08-19 13:57:50.468,0.725,0.395
2021-08-19 13:57:50.472,0.79,0.455
2021-08-19 13:57:50.476,0.85,0.485
2021-08-19 13:57:50.480,0.905,0.52
2021-08-19 13:57:50.484,0.975,0.545
2021-08-19 13:57:50.488,1.045,0.535
2021-08-19 13:57:50.492,1.1,0.54
2021-08-19 13:57:50.496,1.175,0.53
2021-08-19 13:57:50.500,1.23,0.525
2021-08-19 13:57:50.504,1.3,0.505
2021-08-19 13:57:50.508,1.365,0.475
2021-08-19 13:57:50.512,1.425,0.44
2021-08-19 13:57:50.516,1.465,0.38
2021-08-19 13:57:50.520,1.46,0.3
2021-08-19 13:57:50.524,1.39,0.215
2021-08-19 13:57:50.528,1.235,0.125
2021-08-19 13:57:50.532,0.845,0.075
2021-08-19 13:57:50.536,0.41,0.035
2021-08-19 13:57:50.540,0.105,0.005
2021-08-19 13:57:50.544,-0.085,-0.02
2021-08-19 13:57:50.548,-0.23,-0.075
2021-08-19 13:57:50.552,-0.345,-0.14
2021-08-19 13:57:50.556,-0.445,-0.15
2021-08-19 13:57:50.560,-0.485,-0.155
2021-08-19 13:57:50.564,-0.515,-0.17
2021-08-19 13:57:50.568,-0.525,-0.165
2021-08-19 13:57:50.572,-0.54,-0.145
2021-08-19 13:57:50.576,-0.525,-0.155
2021-08-19 13:57:50.580,-0.555,-0.14
2021-08-19 13:57:50.584,-0.545,-0.15
2021-08-19 13:57:50.588,-0.555,-0.15
2021-08-19 13:57:50.592,-0.585,-0.135
2021-08-19 13:57:50.596,-0.57,-0.14
2021-08-19 13:57:50.600,-0.585,-0.135
2021-08-19 13:57:50.604,-0.605,-0.15
2021-08-19 13:57:50.608,-0.62,-0.15
2021-08-19 13:57:50.612,-0.63,-0.155
2021-08-19 13:57:50.616,-0.63,-0.15
2021-08-19 13:57:50.620,-0.645,-0.13
2021-08-19 13:57:50.624,-0.64,-0.145
2021-08-19 13:57:50.628,-0.675,-0.145
2021-08-19 13:57:50.632,-0.685,-0.15
2021-08-19 13:57:50.636,-0.7,-0.17
2021-08-19 13:57:50.640,-0.705,-0.17
2021-08-19 13:57:50.644,-0.725,-0.18
2021-08-19 13:57:50.648,-0.74,-0.165
2021-08-19 13:57:50.652,-0.76,-0.175
2021-08-19 13:57:50.656,-0.79,-0.18
2021-08-19 13:57:50.660,-0.81,-0.195
2021-08-19 13:57:50.664,-0.81,-0.19
2021-08-19 13:57:50.668,-0.845,-0.2
2021-08-19 13:57:50.672,-0.86,-0.2
2021-08-19 13:57:50.676,-0.875,-0.22
2021-08-19 13:57:50.680,-0.89,-0.23
2021-08-19 13:57:50.684,-0.895,-0.235
2021-08-19 13:57:50.688,-0.915,-0.245
2021-08-19 13:57:50.692,-0.93,-0.26
2021-08-19 13:57:50.696,-0.96,-0.26
2021-08-19 13:57:50.700,-0.955,-0.255
2021-08-19 13:57:50.704,-0.96,-0.26
2021-08-19 13:57:50.708,-0.97,-0.25
2021-08-19 13:57:50.712,-0.99,-0.27
2021-08-19 13:57:50.716,-0.985,-0.28
2021-08-19 13:57:50.720,-0.985,-0.275
2021-08-19 13:57:50.724,-1.0,-0.255
2021-08-19 13:57:50.728,-1.0,-0.26
2021-08-19 13:57:50.732,-0.99,-0.255
2021-08-19 13:57:50.736,-1.0,-0.25
2021-08-19 13:57:50.740,-0.98,-0.26
2021-08-19 13:57:50.744,-0.97,-0.245
2021-08-19 13:57:50.748,-0.95,-0.255
2021-08-19 13:57:50.752,-0.95,-0.245
2021-08-19 13:57:50.756,-0.945,-0.24
2021-08-19 13:57:50.760,-0.92,-0.225
2021-08-19 13:57:50.764,-0.91,-0.225
2021-08-19 13:57:50.768,-0.88,-0.225
2021-08-19 13:57:50.772,-0.86,-0.2
2021-08-19 13:57:50.776,-0.84,-0.185
2021-08-19 13:57:50.780,-0.795,-0.18
2021-08-19 13:57:50.784,-0.77,-0.16
2021-08-19 13:57:50.788,-0.74,-0.16
2021-08-19 13:57:50.792,-0.695,-0.14
2021-08-19 13:57:50.796,-0.66,-0.13
2021-08-19 13:57:50.800,-0.625,-0.095
2021-08-19 13:57:50.804,-0.58,-0.08
2021-08-19 13:57:50.808,-0.545,-0.085
2021-08-19 13:57:50.812,-0.525,-0.04
2021-08-19 13:57:50.816,-0.49,-0.035
2021-08-19 13:57:50.820,-0.455,-0.03
2021-08-19 13:57:50.824,-0.42,-0.02
2021-08-19 13:57:50.828,-0.39,-0.025
2021-08-19 13:57:50.832,-0.375,-0.01
2021-08-19 13:57:50.836,-0.35,-0.01
2021-08-19 13:57:50.840,-0.35,-0.02
2021-08-19 13:57:50.844,-0.335,-0.03
2021-08-19 13:57:50.848,-0.32,-0.045
2021-08-19 13:57:50.852,-0.28,-0.05
2021-08-19 13:57:50.856,-0.275,-0.045
2021-08-19 13:57:50.860,-0.25,-0.045
2021-08-19 13:57:50.864,-0.255,-0.05
2021-08-19 13:57:50.868,-0.235,-0.055
2021-08-19 13:57:50.872,-0.22,-0.035
2021-08-19 13:57:50.876,-0.2,-0.04
2021-08-19 13:57:50.880,-0.2,-0.04
2021-08-19 13:57:50.884,-0.18,-0.03
2021-08-19 13:57:50.888,-0.165,-0.05
2021-08-19 13:57:50.892,-0.16,-0.035
2021-08-19 13:57:50.896,-0.14,-0.025
2021-08-19 13:57:50.900,-0.16,-0.015
2021-08-19 13:57:50.904,-0.185,-0.035
2021-08-19 13:57:50.908,-0.185,-0.015
2021-08-19 13:57:50.912,-0.195,0.0
2021-08-19 13:57:50.916,-0.2,0.0
2021-08-19 13:57:50.920,-0.22,0.005
2021-08-19 13:57:50.924,-0.215,0.0
2021-08-19 13:57:50.928,-0.215,0.0
2021-08-19 13:57:50.932,-0.2,0.0
2021-08-19 13:57:50.936,-0.21,-0.005
2021-08-19 13:57:50.940,-0.22,-0.005
2021-08-19 13:57:50.944,-0.215,-0.005
2021-08-19 13:57:50.948,-0.205,-0.01
2021-08-19 13:57:50.952,-0.205,-0.015
2021-08-19 13:57:50.956,-0.205,0.0
2021-08-19 13:57:50.960,-0.23,-0.02
2021-08-19 13:57:50.964,-0.22,-0.02
2021-08-19 13:57:50.968,-0.205,-0.01
2021-08-19 13:57:50.972,-0.215,-0.01
2021-08-19 13:57:50.976,-0.21,-0.01
2021-08-19 13:57:50.980,-0.2,-0.02
2021-08-19 13:57:50.984,-0.215,-0.02
2021-08-19 13:57:50.988,-0.22,-0.02
2021-08-19 13:57:50.992,-0.22,-0.015
2021-08-19 13:57:50.996,-0.21,-0.015
2021-08-19 13:57:51.000,-0.22,-0.03
2021-08-19 13:57:51.004,-0.21,-0.025
2021-08-19 13:57:51.008,-0.22,-0.02
2021-08-19 13:57:51.012,-0.21,-0.015
2021-08-19 13:57:51.016,-0.23,-0.02
2021-08-19 13:57:51.020,-0.225,-0.02
2021-08-19 13:57:51.024,-0.225,-0.005
2021-08-19 13:57:51.028,-0.225,-0.01
2021-08-19 13:57:51.032,-0.235,-0.02
2021-08-19 13:57:51.036,-0.225,-0.02
2021-08-19 13:57:51.040,-0.22,-0.03
2021-08-19 13:57:51.044,-0.21,-0.03
2021-08-19 13:57:51.048,-0.23,-0.02
2021-08-19 13:57:51.052,-0.225,-0.025
2021-08-19 13:57:51.056,-0.22,-0.02
2021-08-19 13:57:51.060,-0.22,-0.01
2021-08-19 13:57:51.064,-0.225,-0.01
2021-08-19 13:57:51.068,-0.21,-0.015
2021-08-19 13:57:51.072,-0.22,-0.02
2021-08-19 13:57:51.076,-0.225,-0.025
2021-08-19 13:57:51.080,-0.2,-0.03
2021-08-19 13:57:51.084,-0.215,-0.025
2021-08-19 13:57:51.088,-0.21,-0.015
2021-08-19 13:57:51.092,-0.205,-0.025
2021-08-19 13:57:51.096,-0.205,-0.01
2021-08-19 13:57:51.100,-0.205,-0.02
2021-08-19 13:57:51.104,-0.2,-0.01
2021-08-19 13:57:51.108,-0.2,-0.02
2021-08-19 13:57:51.112,-0.2,-0.015
2021-08-19 13:57:51.116,-0.175,-0.02
2021-08-19 13:57:51.120,-0.155,-0.01
2021-08-19 13:57:51.124,-0.045,-0.01
2021-08-19 13:57:51.128,0.135,0.025
2021-08-19 13:57:51.132,0.37,0.02
2021-08-19 13:57:51.136,0.615,0.0
2021-08-19 13:57:51.140,0.81,-0.035
2021-08-19 13:57:51.144,0.95,-0.08
2021-08-19 13:57:51.148,0.935,-0.175
2021-08-19 13:57:51.152,0.715,-0.27
2021-08-19 13:57:51.156,0.3,-0.385
2021-08-19 13:57:51.160,-0.17,-0.465
2021-08-19 13:57:51.164,-0.545,-0.545
2021-08-19 13:57:51.168,-0.68,-0.555
2021-08-19 13:57:51.172,-0.71,-0.505
2021-08-19 13:57:51.176,-0.645,-0.45
2021-08-19 13:57:51.180,-0.54,-0.335
2021-08-19 13:57:51.184,-0.41,-0.23
2021-08-19 13:57:51.188,-0.34,-0.115
2021-08-19 13:57:51.192,-0.3,-0.04
2021-08-19 13:57:51.196,-0.275,0.03
2021-08-19 13:57:51.200,-0.265,0.07
2021-08-19 13:57:51.204,-0.275,0.08
2021-08-19 13:57:51.208,-0.27,0.075
2021-08-19 13:57:51.212,-0.27,0.065
2021-08-19 13:57:51.216,-0.285,0.055
2021-08-19 13:57:51.220,-0.29,0.045
2021-08-19 13:57:51.224,-0.27,0.04
2021-08-19 13:57:51.228,-0.285,0.04
2021-08-19 13:57:51.232,-0.285,0.04
2021-08-19 13:57:51.236,-0.275,0.04
2021-08-19 13:57:51.240,-0.285,0.035
2021-08-19 13:57:51.244,-0.285,0.04
2021-08-19 13:57:51.248,-0.285,0.04
2021-08-19 13:57:51.252,-0.295,0.03
2021-08-19 13:57:51.256,-0.28,0.055
2021-08-19 13:57:51.260,-0.29,0.04
2021-08-19 13:57:51.264,-0.28,0.035
2021-08-19 13:57:51.268,-0.275,0.02
2021-08-19 13:57:51.272,-0.27,0.035
2021-08-19 13:57:51.276,-0.295,0.035
2021-08-19 13:57:51.280,-0.285,0.035
2021-08-19 13:57:51.284,-0.275,0.03
2021-08-19 13:57:51.288,-0.275,0.045
2021-08-19 13:57:51.292,-0.28,0.05
2021-08-19 13:57:51.296,-0.27,0.045
2021-08-19 13:57:51.300,-0.29,0.055
2021-08-19 13:57:51.304,-0.285,0.05
2021-08-19 13:57:51.308,-0.27,0.055
2021-08-19 13:57:51.312,-0.26,0.055
2021-08-19 13:57:51.316,-0.27,0.04
2021-08-19 13:57:51.320,-0.265,0.045
2021-08-19 13:57:51.324,-0.275,0.04
2021-08-19 13:57:51.328,-0.27,0.06
2021-08-19 13:57:51.332,-0.265,0.055
2021-08-19 13:57:51.336,-0.265,0.07
2021-08-19 13:57:51.340,-0.275,0.065
2021-08-19 13:57:51.344,-0.28,0.06
2021-08-19 13:57:51.348,-0.265,0.055
2021-08-19 13:57:51.352,-0.26,0.06
2021-08-19 13:57:51.356,-0.26,0.055
2021-08-19 13:57:51.360,-0.255,0.07
2021-08-19 13:57:51.364,-0.255,0.07
2021-08-19 13:57:51.368,-0.245,0.055
2021-08-19 13:57:51.372,-0.245,0.065
2021-08-19 13:57:51.376,-0.235,0.08
2021-08-19 13:57:51.380,-0.235,0.065
2021-08-19 13:57:51.384,-0.225,0.065
2021-08-19 13:57:51.388,-0.215,0.055
2021-08-19 13:57:51.392,-0.22,0.055
2021-08-19 13:57:51.396,-0.21,0.055
2021-08-19 13:57:51.400,-0.205,0.07
2021-08-19 13:57:51.404,-0.21,0.04
2021-08-19 13:57:51.408,-0.175,0.045
2021-08-19 13:57:51.412,-0.175,0.035
2021-08-19 13:57:51.416,-0.14,0.045
2021-08-19 13:57:51.420,-0.15,0.03
2021-08-19 13:57:51.424,-0.14,0.035
2021-08-19 13:57:51.428,-0.125,0.035
2021-08-19 13:57:51.432,-0.12,0.025
2021-08-19 13:57:51.436,-0.105,0.03
2021-08-19 13:57:51.440,-0.09,0.03
2021-08-19 13:57:51.444,-0.09,0.025
2021-08-19 13:57:51.448,-0.095,0.02
2021-08-19 13:57:51.452,-0.08,0.005
2021-08-19 13:57:51.456,-0.075,0.02
2021-08-19 13:57:51.460,-0.09,0.02
2021-08-19 13:57:51.464,-0.095,0.01
2021-08-19 13:57:51.468,-0.1,0.005
2021-08-19 13:57:51.472,-0.1,0.005
2021-08-19 13:57:51.476,-0.105,0.02
2021-08-19 13:57:51.480,-0.12,0.005
2021-08-19 13:57:51.484,-0.105,0.01
2021-08-19 13:57:51.488,-0.135,0.015
2021-08-19 13:57:51.492,-0.145,0.005
2021-08-19 13:57:51.496,-0.155,0.015
2021-08-19 13:57:51.500,-0.14,0.005
2021-08-19 13:57:51.504,-0.165,0.0
2021-08-19 13:57:51.508,-0.17,0.01
2021-08-19 13:57:51.512,-0.185,0.0
2021-08-19 13:57:51.516,-0.175,0.0
2021-08-19 13:57:51.520,-0.17,0.005
2021-08-19 13:57:51.524,-0.17,0.01
2021-08-19 13:57:51.528,-0.18,0.005
2021-08-19 13:57:51.532,-0.19,0.005
2021-08-19 13:57:51.536,-0.185,0.02
2021-08-19 13:57:51.540,-0.19,0.01
2021-08-19 13:57:51.544,-0.19,0.025
2021-08-19 13:57:51.548,-0.205,0.015
2021-08-19 13:57:51.552,-0.18,0.015
2021-08-19 13:57:51.556,-0.185,0.005
2021-08-19 13:57:51.560,-0.165,0.0
2021-08-19 13:57:51.564,-0.19,0.01
2021-08-19 13:57:51.568,-0.185,0.015
2021-08-19 13:57:51.572,-0.175,0.015
2021-08-19 13:57:51.576,-0.17,0.02
2021-08-19 13:57:51.580,-0.18,0.02
2021-08-19 13:57:51.584,-0.175,0.03
2021-08-19 13:57:51.588,-0.175,0.03
2021-08-19 13:57:51.592,-0.16,0.015
2021-08-19 13:57:51.596,-0.17,0.015
2021-08-19 13:57:51.600,-0.17,0.015
2021-08-19 13:57:51.604,-0.165,0.025
2021-08-19 13:57:51.608,-0.15,0.02
2021-08-19 13:57:51.612,-0.165,0.025
2021-08-19 13:57:51.616,-0.165,0.03
2021-08-19 13:57:51.620,-0.18,0.03
2021-08-19 13:57:51.624,-0.17,0.03
2021-08-19 13:57:51.628,-0.165,0.03
2021-08-19 13:57:51.632,-0.175,0.045
2021-08-19 13:57:51.636,-0.19,0.035
2021-08-19 13:57:51.640,-0.175,0.04
2021-08-19 13:57:51.644,-0.17,0.025
2021-08-19 13:57:51.648,-0.17,0.04
2021-08-19 13:57:51.652,-0.17,0.035
2021-08-19 13:57:51.656,-0.175,0.035
2021-08-19 13:57:51.660,-0.165,0.035
2021-08-19 13:57:51.664,-0.165,0.045
2021-08-19 13:57:51.668,-0.175,0.045
2021-08-19 13:57:51.672,-0.185,0.03
2021-08-19 13:57:51.676,-0.195,0.015
2021-08-19 13:57:51.680,-0.19,0.025
2021-08-19 13:57:51.684,-0.19,0.035
2021-08-19 13:57:51.688,-0.175,0.02
2021-08-19 13:57:51.692,-0.185,0.03
2021-08-19 13:57:51.696,-0.19,0.015
2021-08-19 13:57:51.700,-0.2,0.02
2021-08-19 13:57:51.704,-0.195,0.04
2021-08-19 13:57:51.708,-0.2,0.025
2021-08-19 13:57:51.712,-0.195,0.03
2021-08-19 13:57:51.716,-0.22,0.025
2021-08-19 13:57:51.720,-0.19,0.025
2021-08-19 13:57:51.724,-0.2,0.035
2021-08-19 13:57:51.728,-0.2,0.025
2021-08-19 13:57:51.732,-0.2,0.02
2021-08-19 13:57:51.736,-0.21,0.03
2021-08-19 13:57:51.740,-0.21,0.03
2021-08-19 13:57:51.744,-0.2,0.015
2021-08-19 13:57:51.748,-0.205,0.02
2021-08-19 13:57:51.752,-0.215,0.02
2021-08-19 13:57:51.756,-0.23,0.0
2021-08-19 13:57:51.760,-0.225,0.015
2021-08-19 13:57:51.764,-0.215,0.01
2021-08-19 13:57:51.768,-0.2,0.015
2021-08-19 13:57:51.772,-0.22,0.015
2021-08-19 13:57:51.776,-0.215,0.02
2021-08-19 13:57:51.780,-0.2,0.015
2021-08-19 13:57:51.784,-0.21,0.015
2021-08-19 13:57:51.788,-0.2,0.015
2021-08-19 13:57:51.792,-0.2,0.025
2021-08-19 13:57:51.796,-0.22,0.02
2021-08-19 13:57:51.800,-0.215,0.02
2021-08-19 13:57:51.804,-0.22,0.01
2021-08-19 13:57:51.808,-0.22,0.005
2021-08-19 13:57:51.812,-0.215,0.015
2021-08-19 13:57:51.816,-0.235,0.01
2021-08-19 13:57:51.820,-0.245,0.01
2021-08-19 13:57:51.824,-0.23,0.01
2021-08-19 13:57:51.828,-0.23,0.005
2021-08-19 13:57:51.832,-0.22,0.025
2021-08-19 13:57:51.836,-0.225,0.02
2021-08-19 13:57:51.840,-0.23,0.01
2021-08-19 13:57:51.844,-0.22,0.015
2021-08-19 13:57:51.848,-0.215,-0.005
2021-08-19 13:57:51.852,-0.205,0.01
2021-08-19 13:57:51.856,-0.22,0.015
2021-08-19 13:57:51.860,-0.21,0.01
2021-08-19 13:57:51.864,-0.22,0.02
2021-08-19 13:57:51.868,-0.215,0.01
2021-08-19 13:57:51.872,-0.205,0.01
2021-08-19 13:57:51.876,-0.205,0.005
2021-08-19 13:57:51.880,-0.21,0.015
2021-08-19 13:57:51.884,-0.22,0.005
2021-08-19 13:57:51.888,-0.215,0.005
2021-08-19 13:57:51.892,-0.215,0.025
2021-08-19 13:57:51.896,-0.215,0.01
2021-08-19 13:57:51.900,-0.225,0.015
2021-08-19 13:57:51.904,-0.22,0.02
2021-08-19 13:57:51.908,-0.23,0.005
2021-08-19 13:57:51.912,-0.235,0.005
2021-08-19 13:57:51.916,-0.21,0.015
2021-08-19 13:57:51.920,-0.225,0.0
2021-08-19 13:57:51.924,-0.225,0.005
2021-08-19 13:57:51.928,-0.21,0.005
2021-08-19 13:57:51.932,-0.215,0.01
2021-08-19 13:57:51.936,-0.23,0.01
2021-08-19 13:57:51.940,-0.225,0.02
2021-08-19 13:57:51.944,-0.225,0.02
2021-08-19 13:57:51.948,-0.23,0.005
2021-08-19 13:57:51.952,-0.22,0.0
2021-08-19 13:57:51.956,-0.205,0.015
2021-08-19 13:57:51.960,-0.2,0.01
2021-08-19 13:57:51.964,-0.215,0.005
2021-08-19 13:57:51.968,-0.235,0.01
2021-08-19 13:57:51.972,-0.24,0.01
2021-08-19 13:57:51.976,-0.23,0.0
2021-08-19 13:57:51.980,-0.225,0.01
2021-08-19 13:57:51.984,-0.225,0.005
2021-08-19 13:57:51.988,-0.235,0.005
2021-08-19 13:57:51.992,-0.21,0.005
2021-08-19 13:57:51.996,-0.21,0.005
2021-08-19 13:57:52.000,-0.21,0.0
2021-08-19 13:57:52.004,-0.22,0.005
2021-08-19 13:57:52.008,-0.225,0.015
2021-08-19 13:57:52.012,-0.22,0.0
2021-08-19 13:57:52.016,-0.205,0.005
2021-08-19 13:57:52.020,-0.2,0.01
2021-08-19 13:57:52.024,-0.205,0.02
2021-08-19 13:57:52.028,-0.205,0.005
2021-08-19 13:57:52.032,-0.185,0.015
2021-08-19 13:57:52.036,-0.175,0.015
2021-08-19 13:57:52.040,-0.17,0.025
2021-08-19 13:57:52.044,-0.175,0.03
2021-08-19 13:57:52.048,-0.2,0.025
2021-08-19 13:57:52.052,-0.19,0.025
2021-08-19 13:57:52.056,-0.18,0.025
2021-08-19 13:57:52.060,-0.195,0.02
2021-08-19 13:57:52.064,-0.195,0.025
2021-08-19 13:57:52.068,-0.205,0.01
2021-08-19 13:57:52.072,-0.21,0.0
2021-08-19 13:57:52.076,-0.215,0.0
2021-08-19 13:57:52.080,-0.2,-0.02
2021-08-19 13:57:52.084,-0.19,-0.025
2021-08-19 13:57:52.088,-0.2,-0.025
2021-08-19 13:57:52.092,-0.19,-0.03
2021-08-19 13:57:52.096,-0.2,-0.02
2021-08-19 13:57:52.100,-0.205,-0.015
2021-08-19 13:57:52.104,-0.185,-0.035
2021-08-19 13:57:52.108,-0.195,-0.015
2021-08-19 13:57:52.112,-0.185,-0.035
2021-08-19 13:57:52.116,-0.195,-0.02
2021-08-19 13:57:52.120,-0.195,-0.035
2021-08-19 13:57:52.124,-0.21,-0.025
2021-08-19 13:57:52.128,-0.21,-0.005
2021-08-19 13:57:52.132,-0.21,0.0
2021-08-19 13:57:52.136,-0.215,0.01
2021-08-19 13:57:52.140,-0.21,0.01
2021-08-19 13:57:52.144,-0.22,0.02
2021-08-19 13:57:52.148,-0.245,0.01
2021-08-19 13:57:52.152,-0.24,0.0
2021-08-19 13:57:52.156,-0.24,0.01
2021-08-19 13:57:52.160,-0.235,0.005
2021-08-19 13:57:52.164,-0.24,-0.015
2021-08-19 13:57:52.168,-0.245,-0.01
2021-08-19 13:57:52.172,-0.24,-0.01
2021-08-19 13:57:52.176,-0.24,0.0
2021-08-19 13:57:52.180,-0.23,-0.005
2021-08-19 13:57:52.184,-0.24,0.0
2021-08-19 13:57:52.188,-0.25,0.02
2021-08-19 13:57:52.192,-0.23,0.0
2021-08-19 13:57:52.196,-0.24,0.0
2021-08-19 13:57:52.200,-0.265,-0.005
2021-08-19 13:57:52.204,-0.26,0.005
2021-08-19 13:57:52.208,-0.245,0.005
2021-08-19 13:57:52.212,-0.25,0.0
2021-08-19 13:57:52.216,-0.25,-0.005
2021-08-19 13:57:52.220,-0.26,0.005
2021-08-19 13:57:52.224,-0.255,0.01
2021-08-19 13:57:52.228,-0.215,0.01
2021-08-19 13:57:52.232,-0.115,0.01
2021-08-19 13:57:52.236,0.055,0.035
2021-08-19 13:57:52.240,0.295,0.045
2021-08-19 13:57:52.244,0.545,0.015
2021-08-19 13:57:52.248,0.79,-0.015
2021-08-19 13:57:52.252,1.005,-0.055
2021-08-19 13:57:52.256,1.075,-0.145
2021-08-19 13:57:52.260,0.865,-0.255
2021-08-19 13:57:52.264,0.44,-0.35
2021-08-19 13:57:52.268,-0.06,-0.415
2021-08-19 13:57:52.272,-0.42,-0.485
2021-08-19 13:57:52.276,-0.565,-0.505
2021-08-19 13:57:52.280,-0.605,-0.455
2021-08-19 13:57:52.284,-0.56,-0.345
2021-08-19 13:57:52.288,-0.495,-0.225
2021-08-19 13:57:52.292,-0.395,-0.125
2021-08-19 13:57:52.296,-0.36,-0.04
2021-08-19 13:57:52.300,-0.32,0.005
2021-08-19 13:57:52.304,-0.32,0.065
2021-08-19 13:57:52.308,-0.33,0.07
2021-08-19 13:57:52.312,-0.325,0.09
2021-08-19 13:57:52.316,-0.33,0.09
2021-08-19 13:57:52.320,-0.335,0.07
2021-08-19 13:57:52.324,-0.31,0.06
2021-08-19 13:57:52.328,-0.315,0.035
2021-08-19 13:57:52.332,-0.32,0.055
2021-08-19 13:57:52.336,-0.345,0.055
2021-08-19 13:57:52.340,-0.34,0.05
2021-08-19 13:57:52.344,-0.32,0.06
2021-08-19 13:57:52.348,-0.335,0.045
2021-08-19 13:57:52.352,-0.335,0.045
2021-08-19 13:57:52.356,-0.33,0.05
2021-08-19 13:57:52.360,-0.33,0.035
2021-08-19 13:57:52.364,-0.32,0.04
2021-08-19 13:57:52.368,-0.33,0.035
2021-08-19 13:57:52.372,-0.34,0.04
2021-08-19 13:57:52.376,-0.335,0.03
2021-08-19 13:57:52.380,-0.335,0.035
2021-08-19 13:57:52.384,-0.33,0.025
2021-08-19 13:57:52.388,-0.325,0.035
2021-08-19 13:57:52.392,-0.325,0.035
2021-08-19 13:57:52.396,-0.34,0.04
2021-08-19 13:57:52.400,-0.36,0.035
2021-08-19 13:57:52.404,-0.345,0.04
2021-08-19 13:57:52.408,-0.34,0.035
2021-08-19 13:57:52.412,-0.355,0.035
2021-08-19 13:57:52.416,-0.35,0.045
2021-08-19 13:57:52.420,-0.355,0.055
2021-08-19 13:57:52.424,-0.35,0.045
2021-08-19 13:57:52.428,-0.335,0.055
2021-08-19 13:57:52.432,-0.335,0.045
2021-08-19 13:57:52.436,-0.34,0.055
2021-08-19 13:57:52.440,-0.355,0.06
2021-08-19 13:57:52.444,-0.345,0.035
2021-08-19 13:57:52.448,-0.335,0.05
