Time,ECG1,ECG2
2021-08-19 15:34:48.568,-0.31,0.085
2021-08-19 15:34:48.572,-0.3,0.075
2021-08-19 15:34:48.576,-0.295,0.08
2021-08-19 15:34:48.580,-0.305,0.085
2021-08-19 15:34:48.584,-0.295,0.08
2021-08-19 15:34:48.588,-0.305,0.075
2021-08-19 15:34:48.592,-0.295,0.08
2021-08-19 15:34:48.596,-0.305,0.08
2021-08-19 15:34:48.600,-0.3,0.085
2021-08-19 15:34:48.604,-0.3,0.075
2021-08-19 15:34:48.608,-0.28,0.09
2021-08-19 15:34:48.612,-0.3,0.09
2021-08-19 15:34:48.616,-0.3,0.1
2021-08-19 15:34:48.620,-0.3,0.09
2021-08-19 15:34:48.624,-0.3,0.095
2021-08-19 15:34:48.628,-0.305,0.1
2021-08-19 15:34:48.632,-0.305,0.09
2021-08-19 15:34:48.636,-0.295,0.1
2021-08-19 15:34:48.640,-0.3,0.09
2021-08-19 15:34:48.644,-0.29,0.085
2021-08-19 15:34:48.648,-0.305,0.09
2021-08-19 15:34:48.652,-0.295,0.09
2021-08-19 15:34:48.656,-0.285,0.085
2021-08-19 15:34:48.660,-0.29,0.095
2021-08-19 15:34:48.664,-0.3,0.085
2021-08-19 15:34:48.668,-0.285,0.09
2021-08-19 15:34:48.672,-0.295,0.095
2021-08-19 15:34:48.676,-0.3,0.085
2021-08-19 15:34:48.680,-0.295,0.095
2021-08-19 15:34:48.684,-0.295,0.09
2021-08-19 15:34:48.688,-0.28,0.09
2021-08-19 15:34:48.692,-0.28,0.095
2021-08-19 15:34:48.696,-0.27,0.09
2021-08-19 15:34:48.700,-0.28,0.105
2021-08-19 15:34:48.704,-0.295,0.105
2021-08-19 15:34:48.708,-0.285,0.11
2021-08-19 15:34:48.712,-0.275,0.09
2021-08-19 15:34:48.716,-0.28,0.085
2021-08-19 15:34:48.720,-0.285,0.11
2021-08-19 15:34:48.724,-0.28,0.095
2021-08-19 15:34:48.728,-0.285,0.11
2021-08-19 15:34:48.732,-0.285,0.085
2021-08-19 15:34:48.736,-0.28,0.105
2021-08-19 15:34:48.740,-0.295,0.1
2021-08-19 15:34:48.744,-0.285,0.11
2021-08-19 15:34:48.748,-0.28,0.1
2021-08-19 15:34:48.752,-0.27,0.095
2021-08-19 15:34:48.756,-0.275,0.1
2021-08-19 15:34:48.760,-0.26,0.11
2021-08-19 15:34:48.764,-0.275,0.09
2021-08-19 15:34:48.768,-0.25,0.1
2021-08-19 15:34:48.772,-0.275,0.11
2021-08-19 15:34:48.776,-0.27,0.115
2021-08-19 15:34:48.780,-0.28,0.115
2021-08-19 15:34:48.784,-0.265,0.095
2021-08-19 15:34:48.788,-0.265,0.105
2021-08-19 15:34:48.792,-0.27,0.11
2021-08-19 15:34:48.796,-0.265,0.105
2021-08-19 15:34:48.800,-0.26,0.11
2021-08-19 15:34:48.804,-0.26,0.1
2021-08-19 15:34:48.808,-0.275,0.095
2021-08-19 15:34:48.812,-0.265,0.1
2021-08-19 15:34:48.816,-0.275,0.1
2021-08-19 15:34:48.820,-0.26,0.105
2021-08-19 15:34:48.824,-0.26,0.1
2021-08-19 15:34:48.828,-0.28,0.11
2021-08-19 15:34:48.832,-0.26,0.105
2021-08-19 15:34:48.836,-0.26,0.1
2021-08-19 15:34:48.840,-0.27,0.125
2021-08-19 15:34:48.844,-0.265,0.115
2021-08-19 15:34:48.848,-0.27,0.105
2021-08-19 15:34:48.852,-0.25,0.105
2021-08-19 15:34:48.856,-0.26,0.11
2021-08-19 15:34:48.860,-0.26,0.105
2021-08-19 15:34:48.864,-0.27,0.115
2021-08-19 15:34:48.868,-0.26,0.13
2021-08-19 15:34:48.872,-0.27,0.12
2021-08-19 15:34:48.876,-0.255,0.1
2021-08-19 15:34:48.880,-0.265,0.11
2021-08-19 15:34:48.884,-0.26,0.1
2021-08-19 15:34:48.888,-0.285,0.1
2021-08-19 15:34:48.892,-0.27,0.095
2021-08-19 15:34:48.896,-0.26,0.095
2021-08-19 15:34:48.900,-0.27,0.1
2021-08-19 15:34:48.904,-0.265,0.095
2021-08-19 15:34:48.908,-0.265,0.085
2021-08-19 15:34:48.912,-0.275,0.085
2021-08-19 15:34:48.916,-0.285,0.08
2021-08-19 15:34:48.920,-0.275,0.075
2021-08-19 15:34:48.924,-0.27,0.08
2021-08-19 15:34:48.928,-0.27,0.085
2021-08-19 15:34:48.932,-0.27,0.09
2021-08-19 15:34:48.936,-0.27,0.075
2021-08-19 15:34:48.940,-0.265,0.095
2021-08-19 15:34:48.944,-0.26,0.085
2021-08-19 15:34:48.948,-0.275,0.08
2021-08-19 15:34:48.952,-0.26,0.075
2021-08-19 15:34:48.956,-0.26,0.09
2021-08-19 15:34:48.960,-0.25,0.085
2021-08-19 15:34:48.964,-0.26,0.09
2021-08-19 15:34:48.968,-0.25,0.08
2021-08-19 15:34:48.972,-0.26,0.075
2021-08-19 15:34:48.976,-0.26,0.09
2021-08-19 15:34:48.980,-0.25,0.075
2021-08-19 15:34:48.984,-0.25,0.09
2021-08-19 15:34:48.988,-0.255,0.07
2021-08-19 15:34:48.992,-0.25,0.07
2021-08-19 15:34:48.996,-0.26,0.075
2021-08-19 15:34:49.000,-0.25,0.1
2021-08-19 15:34:49.004,-0.26,0.1
2021-08-19 15:34:49.008,-0.255,0.095
2021-08-19 15:34:49.012,-0.255,0.085
2021-08-19 15:34:49.016,-0.255,0.09
2021-08-19 15:34:49.020,-0.24,0.095
2021-08-19 15:34:49.024,-0.26,0.1
2021-08-19 15:34:49.028,-0.245,0.095
2021-08-19 15:34:49.032,-0.25,0.1
2021-08-19 15:34:49.036,-0.26,0.105
2021-08-19 15:34:49.040,-0.265,0.1
2021-08-19 15:34:49.044,-0.255,0.11
2021-08-19 15:34:49.048,-0.265,0.1
2021-08-19 15:34:49.052,-0.25,0.115
2021-08-19 15:34:49.056,-0.255,0.11
2021-08-19 15:34:49.060,-0.25,0.115
2021-08-19 15:34:49.064,-0.255,0.115
2021-08-19 15:34:49.068,-0.24,0.125
2021-08-19 15:34:49.072,-0.24,0.115
2021-08-19 15:34:49.076,-0.255,0.12
2021-08-19 15:34:49.080,-0.255,0.12
2021-08-19 15:34:49.084,-0.245,0.115
2021-08-19 15:34:49.088,-0.265,0.11
2021-08-19 15:34:49.092,-0.24,0.095
2021-08-19 15:34:49.096,-0.25,0.105
2021-08-19 15:34:49.100,-0.25,0.105
2021-08-19 15:34:49.104,-0.24,0.1
2021-08-19 15:34:49.108,-0.245,0.1
2021-08-19 15:34:49.112,-0.24,0.095
2021-08-19 15:34:49.116,-0.24,0.095
2021-08-19 15:34:49.120,-0.24,0.085
2021-08-19 15:34:49.124,-0.235,0.1
2021-08-19 15:34:49.128,-0.235,0.09
2021-08-19 15:34:49.132,-0.255,0.1
2021-08-19 15:34:49.136,-0.245,0.08
2021-08-19 15:34:49.140,-0.26,0.095
2021-08-19 15:34:49.144,-0.25,0.095
2021-08-19 15:34:49.148,-0.25,0.11
2021-08-19 15:34:49.152,-0.25,0.095
2021-08-19 15:34:49.156,-0.245,0.1
2021-08-19 15:34:49.160,-0.245,0.095
2021-08-19 15:34:49.164,-0.25,0.095
2021-08-19 15:34:49.168,-0.26,0.105
2021-08-19 15:34:49.172,-0.255,0.105
2021-08-19 15:34:49.176,-0.265,0.095
2021-08-19 15:34:49.180,-0.245,0.105
2021-08-19 15:34:49.184,-0.24,0.08
2021-08-19 15:34:49.188,-0.26,0.085
2021-08-19 15:34:49.192,-0.25,0.09
2021-08-19 15:34:49.196,-0.245,0.095
2021-08-19 15:34:49.200,-0.25,0.085
2021-08-19 15:34:49.204,-0.235,0.08
2021-08-19 15:34:49.208,-0.24,0.08
2021-08-19 15:34:49.212,-0.255,0.08
2021-08-19 15:34:49.216,-0.245,0.08
2021-08-19 15:34:49.220,-0.26,0.08
2021-08-19 15:34:49.224,-0.255,0.08
2021-08-19 15:34:49.228,-0.245,0.075
2021-08-19 15:34:49.232,-0.25,0.075
2021-08-19 15:34:49.236,-0.265,0.07
2021-08-19 15:34:49.240,-0.245,0.07
2021-08-19 15:34:49.244,-0.245,0.075
2021-08-19 15:34:49.248,-0.255,0.075
2021-08-19 15:34:49.252,-0.255,0.065
2021-08-19 15:34:49.256,-0.26,0.07
2021-08-19 15:34:49.260,-0.245,0.08
2021-08-19 15:34:49.264,-0.255,0.06
2021-08-19 15:34:49.268,-0.24,0.075
2021-08-19 15:34:49.272,-0.245,0.06
2021-08-19 15:34:49.276,-0.245,0.075
2021-08-19 15:34:49.280,-0.25,0.045
2021-08-19 15:34:49.284,-0.245,0.055
2021-08-19 15:34:49.288,-0.24,0.055
2021-08-19 15:34:49.292,-0.245,0.065
2021-08-19 15:34:49.296,-0.23,0.075
2021-08-19 15:34:49.300,-0.235,0.07
2021-08-19 15:34:49.304,-0.23,0.075
2021-08-19 15:34:49.308,-0.235,0.08
2021-08-19 15:34:49.312,-0.23,0.095
2021-08-19 15:34:49.316,-0.225,0.095
2021-08-19 15:34:49.320,-0.225,0.08
2021-08-19 15:34:49.324,-0.215,0.105
2021-08-19 15:34:49.328,-0.2,0.1
2021-08-19 15:34:49.332,-0.225,0.1
2021-08-19 15:34:49.336,-0.225,0.09
2021-08-19 15:34:49.340,-0.235,0.085
2021-08-19 15:34:49.344,-0.22,0.06
2021-08-19 15:34:49.348,-0.225,0.065
2021-08-19 15:34:49.352,-0.215,0.065
2021-08-19 15:34:49.356,-0.205,0.06
2021-08-19 15:34:49.360,-0.2,0.055
2021-08-19 15:34:49.364,-0.205,0.055
2021-08-19 15:34:49.368,-0.21,0.07
2021-08-19 15:34:49.372,-0.23,0.07
2021-08-19 15:34:49.376,-0.22,0.07
2021-08-19 15:34:49.380,-0.225,0.07
2021-08-19 15:34:49.384,-0.22,0.075
2021-08-19 15:34:49.388,-0.23,0.055
2021-08-19 15:34:49.392,-0.22,0.07
2021-08-19 15:34:49.396,-0.225,0.08
2021-08-19 15:34:49.400,-0.225,0.075
2021-08-19 15:34:49.404,-0.23,0.075
2021-08-19 15:34:49.408,-0.24,0.075
2021-08-19 15:34:49.412,-0.245,0.07
2021-08-19 15:34:49.416,-0.24,0.095
2021-08-19 15:34:49.420,-0.245,0.095
2021-08-19 15:34:49.424,-0.245,0.085
2021-08-19 15:34:49.428,-0.24,0.085
2021-08-19 15:34:49.432,-0.26,0.085
2021-08-19 15:34:49.436,-0.24,0.085
2021-08-19 15:34:49.440,-0.245,0.09
2021-08-19 15:34:49.444,-0.235,0.09
2021-08-19 15:34:49.448,-0.255,0.085
2021-08-19 15:34:49.452,-0.235,0.08
2021-08-19 15:34:49.456,-0.235,0.08
2021-08-19 15:34:49.460,-0.21,0.08
2021-08-19 15:34:49.464,-0.17,0.09
2021-08-19 15:34:49.468,-0.055,0.125
2021-08-19 15:34:49.472,0.09,0.115
2021-08-19 15:34:49.476,0.26,0.11
2021-08-19 15:34:49.480,0.415,0.125
2021-08-19 15:34:49.484,0.56,0.135
2021-08-19 15:34:49.488,0.535,0.115
2021-08-19 15:34:49.492,0.34,0.08
2021-08-19 15:34:49.496,-0.02,0.05
2021-08-19 15:34:49.500,-0.4,-0.04
2021-08-19 15:34:49.504,-0.675,-0.115
2021-08-19 15:34:49.508,-0.765,-0.135
2021-08-19 15:34:49.512,-0.72,-0.16
2021-08-19 15:34:49.516,-0.64,-0.14
2021-08-19 15:34:49.520,-0.565,-0.085
2021-08-19 15:34:49.524,-0.505,-0.035
2021-08-19 15:34:49.528,-0.46,0.01
2021-08-19 15:34:49.532,-0.42,0.04
2021-08-19 15:34:49.536,-0.37,0.055
2021-08-19 15:34:49.540,-0.33,0.06
2021-08-19 15:34:49.544,-0.31,0.09
2021-08-19 15:34:49.548,-0.31,0.1
2021-08-19 15:34:49.552,-0.295,0.115
2021-08-19 15:34:49.556,-0.305,0.12
2021-08-19 15:34:49.560,-0.305,0.105
2021-08-19 15:34:49.564,-0.29,0.1
2021-08-19 15:34:49.568,-0.3,0.1
2021-08-19 15:34:49.572,-0.29,0.105
2021-08-19 15:34:49.576,-0.3,0.1
2021-08-19 15:34:49.580,-0.31,0.1
2021-08-19 15:34:49.584,-0.295,0.095
2021-08-19 15:34:49.588,-0.285,0.095
2021-08-19 15:34:49.592,-0.305,0.095
2021-08-19 15:34:49.596,-0.3,0.09
2021-08-19 15:34:49.600,-0.31,0.095
2021-08-19 15:34:49.604,-0.29,0.095
2021-08-19 15:34:49.608,-0.305,0.08
2021-08-19 15:34:49.612,-0.31,0.07
2021-08-19 15:34:49.616,-0.305,0.09
2021-08-19 15:34:49.620,-0.305,0.075
2021-08-19 15:34:49.624,-0.315,0.09
2021-08-19 15:34:49.628,-0.3,0.095
2021-08-19 15:34:49.632,-0.29,0.08
2021-08-19 15:34:49.636,-0.28,0.09
2021-08-19 15:34:49.640,-0.29,0.09
2021-08-19 15:34:49.644,-0.285,0.085
2021-08-19 15:34:49.648,-0.29,0.08
2021-08-19 15:34:49.652,-0.27,0.095
2021-08-19 15:34:49.656,-0.285,0.09
2021-08-19 15:34:49.660,-0.28,0.09
2021-08-19 15:34:49.664,-0.285,0.095
2021-08-19 15:34:49.668,-0.265,0.1
2021-08-19 15:34:49.672,-0.27,0.105
2021-08-19 15:34:49.676,-0.255,0.11
2021-08-19 15:34:49.680,-0.26,0.105
2021-08-19 15:34:49.684,-0.255,0.115
2021-08-19 15:34:49.688,-0.24,0.105
2021-08-19 15:34:49.692,-0.23,0.115
2021-08-19 15:34:49.696,-0.23,0.1
2021-08-19 15:34:49.700,-0.225,0.11
2021-08-19 15:34:49.704,-0.215,0.115
2021-08-19 15:34:49.708,-0.215,0.11
2021-08-19 15:34:49.712,-0.225,0.125
2021-08-19 15:34:49.716,-0.225,0.12
2021-08-19 15:34:49.720,-0.2,0.115
2021-08-19 15:34:49.724,-0.205,0.13
2021-08-19 15:34:49.728,-0.2,0.11
2021-08-19 15:34:49.732,-0.195,0.13
2021-08-19 15:34:49.736,-0.19,0.11
2021-08-19 15:34:49.740,-0.185,0.105
2021-08-19 15:34:49.744,-0.19,0.115
2021-08-19 15:34:49.748,-0.18,0.11
2021-08-19 15:34:49.752,-0.16,0.11
2021-08-19 15:34:49.756,-0.16,0.11
2021-08-19 15:34:49.760,-0.15,0.1
2021-08-19 15:34:49.764,-0.14,0.09
2021-08-19 15:34:49.768,-0.14,0.105
2021-08-19 15:34:49.772,-0.14,0.11
2021-08-19 15:34:49.776,-0.14,0.115
2021-08-19 15:34:49.780,-0.13,0.115
2021-08-19 15:34:49.784,-0.105,0.115
2021-08-19 15:34:49.788,-0.12,0.105
2021-08-19 15:34:49.792,-0.115,0.11
2021-08-19 15:34:49.796,-0.115,0.105
2021-08-19 15:34:49.800,-0.095,0.12
2021-08-19 15:34:49.804,-0.105,0.1
2021-08-19 15:34:49.808,-0.105,0.1
2021-08-19 15:34:49.812,-0.105,0.105
2021-08-19 15:34:49.816,-0.1,0.115
2021-08-19 15:34:49.820,-0.115,0.11
2021-08-19 15:34:49.824,-0.105,0.105
2021-08-19 15:34:49.828,-0.12,0.105
2021-08-19 15:34:49.832,-0.145,0.11
2021-08-19 15:34:49.836,-0.125,0.105
2021-08-19 15:34:49.840,-0.135,0.105
2021-08-19 15:34:49.844,-0.15,0.095
2021-08-19 15:34:49.848,-0.145,0.11
2021-08-19 15:34:49.852,-0.15,0.1
2021-08-19 15:34:49.856,-0.16,0.105
2021-08-19 15:34:49.860,-0.17,0.105
2021-08-19 15:34:49.864,-0.165,0.105
2021-08-19 15:34:49.868,-0.175,0.1
2021-08-19 15:34:49.872,-0.155,0.095
2021-08-19 15:34:49.876,-0.175,0.1
2021-08-19 15:34:49.880,-0.16,0.1
2021-08-19 15:34:49.884,-0.18,0.105
2021-08-19 15:34:49.888,-0.16,0.105
2021-08-19 15:34:49.892,-0.16,0.09
2021-08-19 15:34:49.896,-0.17,0.095
2021-08-19 15:34:49.900,-0.17,0.105
2021-08-19 15:34:49.904,-0.175,0.11
2021-08-19 15:34:49.908,-0.165,0.1
2021-08-19 15:34:49.912,-0.175,0.105
2021-08-19 15:34:49.916,-0.18,0.095
2021-08-19 15:34:49.920,-0.17,0.085
2021-08-19 15:34:49.924,-0.18,0.11
2021-08-19 15:34:49.928,-0.165,0.1
2021-08-19 15:34:49.932,-0.165,0.085
2021-08-19 15:34:49.936,-0.165,0.09
2021-08-19 15:34:49.940,-0.17,0.09
2021-08-19 15:34:49.944,-0.175,0.11
2021-08-19 15:34:49.948,-0.16,0.095
2021-08-19 15:34:49.952,-0.16,0.09
2021-08-19 15:34:49.956,-0.16,0.105
2021-08-19 15:34:49.960,-0.175,0.11
2021-08-19 15:34:49.964,-0.17,0.1
2021-08-19 15:34:49.968,-0.175,0.095
2021-08-19 15:34:49.972,-0.17,0.1
2021-08-19 15:34:49.976,-0.16,0.1
2021-08-19 15:34:49.980,-0.16,0.09
2021-08-19 15:34:49.984,-0.16,0.105
2021-08-19 15:34:49.988,-0.16,0.095
2021-08-19 15:34:49.992,-0.17,0.1
2021-08-19 15:34:49.996,-0.165,0.1
2021-08-19 15:34:50.000,-0.18,0.125
2021-08-19 15:34:50.004,-0.17,0.12
2021-08-19 15:34:50.008,-0.18,0.11
2021-08-19 15:34:50.012,-0.175,0.09
2021-08-19 15:34:50.016,-0.175,0.095
2021-08-19 15:34:50.020,-0.18,0.095
2021-08-19 15:34:50.024,-0.18,0.105
2021-08-19 15:34:50.028,-0.18,0.09
2021-08-19 15:34:50.032,-0.175,0.1
2021-08-19 15:34:50.036,-0.165,0.11
2021-08-19 15:34:50.040,-0.195,0.1
2021-08-19 15:34:50.044,-0.185,0.11
2021-08-19 15:34:50.048,-0.195,0.115
2021-08-19 15:34:50.052,-0.2,0.1
2021-08-19 15:34:50.056,-0.195,0.085
2021-08-19 15:34:50.060,-0.21,0.105
2021-08-19 15:34:50.064,-0.2,0.11
2021-08-19 15:34:50.068,-0.2,0.085
2021-08-19 15:34:50.072,-0.2,0.1
2021-08-19 15:34:50.076,-0.21,0.095
2021-08-19 15:34:50.080,-0.215,0.09
2021-08-19 15:34:50.084,-0.215,0.095
2021-08-19 15:34:50.088,-0.21,0.105
2021-08-19 15:34:50.092,-0.215,0.085
2021-08-19 15:34:50.096,-0.22,0.095
2021-08-19 15:34:50.100,-0.215,0.085
2021-08-19 15:34:50.104,-0.215,0.1
2021-08-19 15:34:50.108,-0.215,0.09
2021-08-19 15:34:50.112,-0.225,0.1
2021-08-19 15:34:50.116,-0.215,0.095
2021-08-19 15:34:50.120,-0.225,0.095
2021-08-19 15:34:50.124,-0.235,0.08
2021-08-19 15:34:50.128,-0.23,0.09
2021-08-19 15:34:50.132,-0.22,0.105
2021-08-19 15:34:50.136,-0.23,0.095
2021-08-19 15:34:50.140,-0.22,0.07
2021-08-19 15:34:50.144,-0.225,0.065
2021-08-19 15:34:50.148,-0.21,0.075
2021-08-19 15:34:50.152,-0.22,0.075
2021-08-19 15:34:50.156,-0.235,0.075
2021-08-19 15:34:50.160,-0.215,0.095
2021-08-19 15:34:50.164,-0.225,0.09
2021-08-19 15:34:50.168,-0.235,0.09
2021-08-19 15:34:50.172,-0.235,0.085
2021-08-19 15:34:50.176,-0.225,0.07
2021-08-19 15:34:50.180,-0.22,0.08
2021-08-19 15:34:50.184,-0.235,0.075
2021-08-19 15:34:50.188,-0.235,0.085
2021-08-19 15:34:50.192,-0.235,0.08
2021-08-19 15:34:50.196,-0.245,0.07
2021-08-19 15:34:50.200,-0.23,0.08
2021-08-19 15:34:50.204,-0.235,0.075
2021-08-19 15:34:50.208,-0.235,0.075
2021-08-19 15:34:50.212,-0.245,0.075
2021-08-19 15:34:50.216,-0.24,0.065
2021-08-19 15:34:50.220,-0.24,0.09
2021-08-19 15:34:50.224,-0.235,0.07
2021-08-19 15:34:50.228,-0.23,0.07
2021-08-19 15:34:50.232,-0.235,0.075
2021-08-19 15:34:50.236,-0.245,0.07
2021-08-19 15:34:50.240,-0.25,0.05
2021-08-19 15:34:50.244,-0.24,0.07
2021-08-19 15:34:50.248,-0.245,0.06
2021-08-19 15:34:50.252,-0.235,0.075
2021-08-19 15:34:50.256,-0.24,0.07
2021-08-19 15:34:50.260,-0.23,0.085
2021-08-19 15:34:50.264,-0.24,0.075
2021-08-19 15:34:50.268,-0.235,0.08
2021-08-19 15:34:50.272,-0.245,0.065
2021-08-19 15:34:50.276,-0.255,0.06
2021-08-19 15:34:50.280,-0.245,0.055
2021-08-19 15:34:50.284,-0.24,0.05
2021-08-19 15:34:50.288,-0.235,0.07
2021-08-19 15:34:50.292,-0.24,0.065
2021-08-19 15:34:50.296,-0.23,0.07
2021-08-19 15:34:50.300,-0.25,0.06
2021-08-19 15:34:50.304,-0.245,0.06
2021-08-19 15:34:50.308,-0.255,0.06
2021-08-19 15:34:50.312,-0.245,0.075
2021-08-19 15:34:50.316,-0.26,0.08
2021-08-19 15:34:50.320,-0.24,0.065
2021-08-19 15:34:50.324,-0.23,0.08
2021-08-19 15:34:50.328,-0.245,0.07
2021-08-19 15:34:50.332,-0.25,0.07
2021-08-19 15:34:50.336,-0.24,0.075
2021-08-19 15:34:50.340,-0.245,0.08
2021-08-19 15:34:50.344,-0.23,0.08
2021-08-19 15:34:50.348,-0.23,0.075
2021-08-19 15:34:50.352,-0.245,0.07
2021-08-19 15:34:50.356,-0.25,0.07
2021-08-19 15:34:50.360,-0.24,0.075
2021-08-19 15:34:50.364,-0.255,0.07
2021-08-19 15:34:50.368,-0.255,0.075
2021-08-19 15:34:50.372,-0.24,0.065
2021-08-19 15:34:50.376,-0.245,0.075
2021-08-19 15:34:50.380,-0.265,0.065
2021-08-19 15:34:50.384,-0.245,0.06
2021-08-19 15:34:50.388,-0.24,0.065
2021-08-19 15:34:50.392,-0.245,0.075
2021-08-19 15:34:50.396,-0.25,0.065
2021-08-19 15:34:50.400,-0.24,0.055
2021-08-19 15:34:50.404,-0.245,0.065
2021-08-19 15:34:50.408,-0.245,0.055
2021-08-19 15:34:50.412,-0.24,0.065
2021-08-19 15:34:50.416,-0.24,0.08
2021-08-19 15:34:50.420,-0.255,0.055
2021-08-19 15:34:50.424,-0.235,0.065
2021-08-19 15:34:50.428,-0.245,0.065
2021-08-19 15:34:50.432,-0.25,0.055
2021-08-19 15:34:50.436,-0.265,0.075
2021-08-19 15:34:50.440,-0.245,0.07
2021-08-19 15:34:50.444,-0.26,0.065
2021-08-19 15:34:50.448,-0.24,0.07
2021-08-19 15:34:50.452,-0.24,0.055
2021-08-19 15:34:50.456,-0.24,0.06
2021-08-19 15:34:50.460,-0.24,0.055
2021-08-19 15:34:50.464,-0.23,0.065
2021-08-19 15:34:50.468,-0.245,0.07
2021-08-19 15:34:50.472,-0.235,0.085
2021-08-19 15:34:50.476,-0.25,0.075
2021-08-19 15:34:50.480,-0.245,0.07
2021-08-19 15:34:50.484,-0.23,0.07
2021-08-19 15:34:50.488,-0.25,0.075
2021-08-19 15:34:50.492,-0.255,0.08
2021-08-19 15:34:50.496,-0.24,0.065
2021-08-19 15:34:50.500,-0.24,0.07
2021-08-19 15:34:50.504,-0.235,0.08
2021-08-19 15:34:50.508,-0.255,0.065
2021-08-19 15:34:50.512,-0.235,0.065
2021-08-19 15:34:50.516,-0.245,0.07
2021-08-19 15:34:50.520,-0.24,0.06
2021-08-19 15:34:50.524,-0.245,0.07
2021-08-19 15:34:50.528,-0.24,0.07
2021-08-19 15:34:50.532,-0.245,0.055
2021-08-19 15:34:50.536,-0.235,0.06
2021-08-19 15:34:50.540,-0.24,0.06
2021-08-19 15:34:50.544,-0.24,0.07
2021-08-19 15:34:50.548,-0.24,0.07
2021-08-19 15:34:50.552,-0.23,0.06
2021-08-19 15:34:50.556,-0.225,0.065
2021-08-19 15:34:50.560,-0.235,0.06
2021-08-19 15:34:50.564,-0.215,0.07
2021-08-19 15:34:50.568,-0.215,0.08
2021-08-19 15:34:50.572,-0.2,0.08
2021-08-19 15:34:50.576,-0.195,0.095
2021-08-19 15:34:50.580,-0.195,0.1
2021-08-19 15:34:50.584,-0.21,0.08
2021-08-19 15:34:50.588,-0.19,0.09
2021-08-19 15:34:50.592,-0.195,0.09
2021-08-19 15:34:50.596,-0.215,0.09
2021-08-19 15:34:50.600,-0.195,0.065
2021-08-19 15:34:50.604,-0.215,0.065
2021-08-19 15:34:50.608,-0.21,0.06
2021-08-19 15:34:50.612,-0.225,0.045
2021-08-19 15:34:50.616,-0.225,0.035
2021-08-19 15:34:50.620,-0.2,0.03
2021-08-19 15:34:50.624,-0.21,0.055
2021-08-19 15:34:50.628,-0.215,0.05
2021-08-19 15:34:50.632,-0.21,0.05
2021-08-19 15:34:50.636,-0.185,0.045
2021-08-19 15:34:50.640,-0.215,0.04
2021-08-19 15:34:50.644,-0.215,0.055
2021-08-19 15:34:50.648,-0.21,0.055
2021-08-19 15:34:50.652,-0.19,0.055
2021-08-19 15:34:50.656,-0.21,0.065
2021-08-19 15:34:50.660,-0.22,0.055
2021-08-19 15:34:50.664,-0.22,0.055
2021-08-19 15:34:50.668,-0.205,0.09
2021-08-19 15:34:50.672,-0.21,0.075
2021-08-19 15:34:50.676,-0.21,0.07
2021-08-19 15:34:50.680,-0.205,0.065
2021-08-19 15:34:50.684,-0.215,0.08
2021-08-19 15:34:50.688,-0.23,0.085
2021-08-19 15:34:50.692,-0.24,0.085
2021-08-19 15:34:50.696,-0.245,0.08
2021-08-19 15:34:50.700,-0.23,0.09
2021-08-19 15:34:50.704,-0.235,0.09
2021-08-19 15:34:50.708,-0.23,0.085
2021-08-19 15:34:50.712,-0.225,0.09
2021-08-19 15:34:50.716,-0.23,0.095
2021-08-19 15:34:50.720,-0.225,0.085
2021-08-19 15:34:50.724,-0.22,0.095
2021-08-19 15:34:50.728,-0.215,0.085
2021-08-19 15:34:50.732,-0.23,0.09
2021-08-19 15:34:50.736,-0.22,0.095
2021-08-19 15:34:50.740,-0.22,0.09
2021-08-19 15:34:50.744,-0.23,0.09
2021-08-19 15:34:50.748,-0.22,0.085
2021-08-19 15:34:50.752,-0.205,0.085
2021-08-19 15:34:50.756,-0.215,0.105
2021-08-19 15:34:50.760,-0.215,0.1
2021-08-19 15:34:50.764,-0.175,0.11
2021-08-19 15:34:50.768,-0.085,0.115
2021-08-19 15:34:50.772,0.075,0.13
2021-08-19 15:34:50.776,0.26,0.11
2021-08-19 15:34:50.780,0.43,0.1
2021-08-19 15:34:50.784,0.58,0.075
2021-08-19 15:34:50.788,0.65,0.04
2021-08-19 15:34:50.792,0.58,-0.04
2021-08-19 15:34:50.796,0.325,-0.135
2021-08-19 15:34:50.800,-0.03,-0.21
2021-08-19 15:34:50.804,-0.405,-0.265
2021-08-19 15:34:50.808,-0.625,-0.315
2021-08-19 15:34:50.812,-0.685,-0.295
2021-08-19 15:34:50.816,-0.65,-0.275
2021-08-19 15:34:50.820,-0.57,-0.2
2021-08-19 15:34:50.824,-0.455,-0.115
2021-08-19 15:34:50.828,-0.345,-0.035
2021-08-19 15:34:50.832,-0.3,0.04
2021-08-19 15:34:50.836,-0.265,0.13
2021-08-19 15:34:50.840,-0.26,0.155
2021-08-19 15:34:50.844,-0.265,0.18
2021-08-19 15:34:50.848,-0.27,0.175
2021-08-19 15:34:50.852,-0.265,0.16
2021-08-19 15:34:50.856,-0.265,0.155
2021-08-19 15:34:50.860,-0.27,0.155
2021-08-19 15:34:50.864,-0.27,0.145
2021-08-19 15:34:50.868,-0.25,0.15
2021-08-19 15:34:50.872,-0.265,0.14
2021-08-19 15:34:50.876,-0.25,0.13
2021-08-19 15:34:50.880,-0.255,0.135
2021-08-19 15:34:50.884,-0.24,0.15
2021-08-19 15:34:50.888,-0.265,0.135
2021-08-19 15:34:50.892,-0.26,0.13
2021-08-19 15:34:50.896,-0.27,0.12
2021-08-19 15:34:50.900,-0.26,0.125
2021-08-19 15:34:50.904,-0.255,0.115
2021-08-19 15:34:50.908,-0.255,0.135
2021-08-19 15:34:50.912,-0.245,0.13
2021-08-19 15:34:50.916,-0.25,0.12
2021-08-19 15:34:50.920,-0.26,0.13
2021-08-19 15:34:50.924,-0.255,0.125
2021-08-19 15:34:50.928,-0.265,0.135
2021-08-19 15:34:50.932,-0.26,0.125
2021-08-19 15:34:50.936,-0.25,0.135
2021-08-19 15:34:50.940,-0.245,0.13
2021-08-19 15:34:50.944,-0.25,0.14
2021-08-19 15:34:50.948,-0.255,0.15
2021-08-19 15:34:50.952,-0.245,0.135
2021-08-19 15:34:50.956,-0.245,0.145
2021-08-19 15:34:50.960,-0.25,0.145
2021-08-19 15:34:50.964,-0.245,0.13
2021-08-19 15:34:50.968,-0.245,0.15
2021-08-19 15:34:50.972,-0.24,0.16
2021-08-19 15:34:50.976,-0.235,0.145
2021-08-19 15:34:50.980,-0.215,0.16
2021-08-19 15:34:50.984,-0.225,0.155
2021-08-19 15:34:50.988,-0.22,0.16
2021-08-19 15:34:50.992,-0.215,0.16
2021-08-19 15:34:50.996,-0.21,0.175
2021-08-19 15:34:51.000,-0.205,0.16
2021-08-19 15:34:51.004,-0.195,0.16
2021-08-19 15:34:51.008,-0.2,0.175
2021-08-19 15:34:51.012,-0.2,0.175
2021-08-19 15:34:51.016,-0.195,0.165
2021-08-19 15:34:51.020,-0.195,0.155
2021-08-19 15:34:51.024,-0.22,0.18
2021-08-19 15:34:51.028,-0.195,0.15
2021-08-19 15:34:51.032,-0.19,0.16
2021-08-19 15:34:51.036,-0.185,0.155
2021-08-19 15:34:51.040,-0.195,0.145
2021-08-19 15:34:51.044,-0.185,0.155
2021-08-19 15:34:51.048,-0.185,0.15
2021-08-19 15:34:51.052,-0.17,0.135
2021-08-19 15:34:51.056,-0.18,0.125
2021-08-19 15:34:51.060,-0.165,0.14
2021-08-19 15:34:51.064,-0.165,0.145
2021-08-19 15:34:51.068,-0.155,0.13
2021-08-19 15:34:51.072,-0.16,0.13
2021-08-19 15:34:51.076,-0.145,0.13
2021-08-19 15:34:51.080,-0.155,0.125
2021-08-19 15:34:51.084,-0.15,0.115
2021-08-19 15:34:51.088,-0.145,0.125
2021-08-19 15:34:51.092,-0.14,0.125
2021-08-19 15:34:51.096,-0.14,0.125
2021-08-19 15:34:51.100,-0.14,0.125
2021-08-19 15:34:51.104,-0.135,0.115
2021-08-19 15:34:51.108,-0.14,0.13
2021-08-19 15:34:51.112,-0.15,0.135
2021-08-19 15:34:51.116,-0.14,0.12
2021-08-19 15:34:51.120,-0.16,0.11
2021-08-19 15:34:51.124,-0.155,0.115
2021-08-19 15:34:51.128,-0.155,0.11
2021-08-19 15:34:51.132,-0.16,0.125
2021-08-19 15:34:51.136,-0.16,0.105
2021-08-19 15:34:51.140,-0.17,0.095
2021-08-19 15:34:51.144,-0.175,0.095
2021-08-19 15:34:51.148,-0.18,0.1
2021-08-19 15:34:51.152,-0.185,0.095
2021-08-19 15:34:51.156,-0.185,0.11
2021-08-19 15:34:51.160,-0.19,0.095
2021-08-19 15:34:51.164,-0.195,0.115
2021-08-19 15:34:51.168,-0.175,0.1
2021-08-19 15:34:51.172,-0.19,0.1
2021-08-19 15:34:51.176,-0.19,0.085
2021-08-19 15:34:51.180,-0.185,0.095
2021-08-19 15:34:51.184,-0.195,0.09
2021-08-19 15:34:51.188,-0.195,0.1
2021-08-19 15:34:51.192,-0.2,0.085
2021-08-19 15:34:51.196,-0.19,0.08
2021-08-19 15:34:51.200,-0.185,0.075
2021-08-19 15:34:51.204,-0.195,0.1
2021-08-19 15:34:51.208,-0.19,0.08
2021-08-19 15:34:51.212,-0.19,0.085
2021-08-19 15:34:51.216,-0.19,0.085
2021-08-19 15:34:51.220,-0.18,0.08
2021-08-19 15:34:51.224,-0.19,0.09
2021-08-19 15:34:51.228,-0.19,0.08
2021-08-19 15:34:51.232,-0.195,0.085
2021-08-19 15:34:51.236,-0.18,0.07
2021-08-19 15:34:51.240,-0.19,0.095
2021-08-19 15:34:51.244,-0.185,0.08
2021-08-19 15:34:51.248,-0.185,0.095
2021-08-19 15:34:51.252,-0.18,0.085
2021-08-19 15:34:51.256,-0.195,0.085
2021-08-19 15:34:51.260,-0.185,0.09
2021-08-19 15:34:51.264,-0.2,0.08
2021-08-19 15:34:51.268,-0.2,0.08
2021-08-19 15:34:51.272,-0.185,0.1
2021-08-19 15:34:51.276,-0.19,0.095
2021-08-19 15:34:51.280,-0.195,0.085
2021-08-19 15:34:51.284,-0.175,0.09
2021-08-19 15:34:51.288,-0.2,0.085
2021-08-19 15:34:51.292,-0.19,0.085
2021-08-19 15:34:51.296,-0.185,0.085
2021-08-19 15:34:51.300,-0.19,0.085
2021-08-19 15:34:51.304,-0.185,0.085
2021-08-19 15:34:51.308,-0.185,0.105
2021-08-19 15:34:51.312,-0.2,0.075
2021-08-19 15:34:51.316,-0.2,0.075
2021-08-19 15:34:51.320,-0.195,0.08
2021-08-19 15:34:51.324,-0.2,0.085
2021-08-19 15:34:51.328,-0.195,0.07
2021-08-19 15:34:51.332,-0.19,0.05
2021-08-19 15:34:51.336,-0.2,0.065
2021-08-19 15:34:51.340,-0.205,0.085
2021-08-19 15:34:51.344,-0.19,0.07
2021-08-19 15:34:51.348,-0.205,0.07
2021-08-19 15:34:51.352,-0.2,0.08
2021-08-19 15:34:51.356,-0.215,0.075
2021-08-19 15:34:51.360,-0.21,0.085
2021-08-19 15:34:51.364,-0.215,0.075
2021-08-19 15:34:51.368,-0.2,0.07
2021-08-19 15:34:51.372,-0.22,0.075
2021-08-19 15:34:51.376,-0.21,0.085
2021-08-19 15:34:51.380,-0.21,0.065
2021-08-19 15:34:51.384,-0.225,0.075
2021-08-19 15:34:51.388,-0.2,0.065
2021-08-19 15:34:51.392,-0.21,0.07
2021-08-19 15:34:51.396,-0.205,0.065
2021-08-19 15:34:51.400,-0.21,0.07
2021-08-19 15:34:51.404,-0.21,0.08
2021-08-19 15:34:51.408,-0.215,0.085
2021-08-19 15:34:51.412,-0.225,0.075
2021-08-19 15:34:51.416,-0.23,0.065
2021-08-19 15:34:51.420,-0.215,0.08
2021-08-19 15:34:51.424,-0.235,0.08
2021-08-19 15:34:51.428,-0.215,0.07
2021-08-19 15:34:51.432,-0.205,0.07
2021-08-19 15:34:51.436,-0.225,0.08
2021-08-19 15:34:51.440,-0.225,0.08
2021-08-19 15:34:51.444,-0.22,0.075
2021-08-19 15:34:51.448,-0.22,0.08
2021-08-19 15:34:51.452,-0.24,0.075
2021-08-19 15:34:51.456,-0.225,0.07
2021-08-19 15:34:51.460,-0.22,0.08
2021-08-19 15:34:51.464,-0.205,0.075
2021-08-19 15:34:51.468,-0.24,0.07
2021-08-19 15:34:51.472,-0.23,0.07
2021-08-19 15:34:51.476,-0.23,0.075
2021-08-19 15:34:51.480,-0.225,0.08
2021-08-19 15:34:51.484,-0.22,0.075
2021-08-19 15:34:51.488,-0.215,0.08
2021-08-19 15:34:51.492,-0.215,0.075
2021-08-19 15:34:51.496,-0.225,0.07
2021-08-19 15:34:51.500,-0.21,0.08
2021-08-19 15:34:51.504,-0.235,0.075
2021-08-19 15:34:51.508,-0.225,0.075
2021-08-19 15:34:51.512,-0.225,0.07
2021-08-19 15:34:51.516,-0.22,0.075
2021-08-19 15:34:51.520,-0.22,0.06
2021-08-19 15:34:51.524,-0.22,0.06
2021-08-19 15:34:51.528,-0.23,0.065
2021-08-19 15:34:51.532,-0.215,0.065
2021-08-19 15:34:51.536,-0.24,0.05
2021-08-19 15:34:51.540,-0.22,0.05
2021-08-19 15:34:51.544,-0.23,0.055
2021-08-19 15:34:51.548,-0.2,0.065
2021-08-19 15:34:51.552,-0.22,0.05
2021-08-19 15:34:51.556,-0.24,0.045
2021-08-19 15:34:51.560,-0.22,0.05
2021-08-19 15:34:51.564,-0.235,0.035
2021-08-19 15:34:51.568,-0.22,0.06
2021-08-19 15:34:51.572,-0.22,0.07
2021-08-19 15:34:51.576,-0.225,0.065
2021-08-19 15:34:51.580,-0.23,0.06
2021-08-19 15:34:51.584,-0.22,0.06
2021-08-19 15:34:51.588,-0.205,0.065
2021-08-19 15:34:51.592,-0.225,0.065
2021-08-19 15:34:51.596,-0.215,0.065
2021-08-19 15:34:51.600,-0.22,0.065
2021-08-19 15:34:51.604,-0.235,0.065
2021-08-19 15:34:51.608,-0.24,0.065
2021-08-19 15:34:51.612,-0.215,0.07
2021-08-19 15:34:51.616,-0.225,0.05
2021-08-19 15:34:51.620,-0.225,0.06
2021-08-19 15:34:51.624,-0.23,0.06
2021-08-19 15:34:51.628,-0.225,0.06
2021-08-19 15:34:51.632,-0.21,0.06
2021-08-19 15:34:51.636,-0.21,0.055
2021-08-19 15:34:51.640,-0.23,0.07
2021-08-19 15:34:51.644,-0.235,0.06
2021-08-19 15:34:51.648,-0.22,0.055
2021-08-19 15:34:51.652,-0.215,0.045
2021-08-19 15:34:51.656,-0.225,0.045
2021-08-19 15:34:51.660,-0.225,0.05
2021-08-19 15:34:51.664,-0.225,0.055
2021-08-19 15:34:51.668,-0.225,0.05
2021-08-19 15:34:51.672,-0.22,0.035
2021-08-19 15:34:51.676,-0.22,0.05
2021-08-19 15:34:51.680,-0.225,0.075
2021-08-19 15:34:51.684,-0.215,0.055
2021-08-19 15:34:51.688,-0.2,0.055
2021-08-19 15:34:51.692,-0.215,0.065
2021-08-19 15:34:51.696,-0.21,0.06
2021-08-19 15:34:51.700,-0.21,0.06
2021-08-19 15:34:51.704,-0.22,0.075
2021-08-19 15:34:51.708,-0.225,0.06
2021-08-19 15:34:51.712,-0.22,0.05
2021-08-19 15:34:51.716,-0.205,0.065
2021-08-19 15:34:51.720,-0.18,0.06
2021-08-19 15:34:51.724,-0.2,0.04
2021-08-19 15:34:51.728,-0.2,0.06
2021-08-19 15:34:51.732,-0.205,0.06
2021-08-19 15:34:51.736,-0.2,0.07
2021-08-19 15:34:51.740,-0.2,0.075
2021-08-19 15:34:51.744,-0.195,0.055
2021-08-19 15:34:51.748,-0.205,0.07
2021-08-19 15:34:51.752,-0.19,0.075
2021-08-19 15:34:51.756,-0.195,0.075
2021-08-19 15:34:51.760,-0.19,0.07
2021-08-19 15:34:51.764,-0.2,0.07
2021-08-19 15:34:51.768,-0.185,0.08
2021-08-19 15:34:51.772,-0.185,0.065
2021-08-19 15:34:51.776,-0.195,0.075
2021-08-19 15:34:51.780,-0.195,0.075
2021-08-19 15:34:51.784,-0.175,0.07
2021-08-19 15:34:51.788,-0.185,0.09
2021-08-19 15:34:51.792,-0.145,0.07
2021-08-19 15:34:51.796,-0.15,0.085
2021-08-19 15:34:51.800,-0.13,0.105
2021-08-19 15:34:51.804,-0.145,0.1
2021-08-19 15:34:51.808,-0.15,0.085
2021-08-19 15:34:51.812,-0.145,0.08
2021-08-19 15:34:51.816,-0.155,0.095
2021-08-19 15:34:51.820,-0.155,0.105
2021-08-19 15:34:51.824,-0.14,0.105
2021-08-19 15:34:51.828,-0.145,0.11
2021-08-19 15:34:51.832,-0.16,0.085
2021-08-19 15:34:51.836,-0.17,0.07
2021-08-19 15:34:51.840,-0.175,0.065
2021-08-19 15:34:51.844,-0.17,0.05
2021-08-19 15:34:51.848,-0.16,0.055
2021-08-19 15:34:51.852,-0.155,0.055
2021-08-19 15:34:51.856,-0.135,0.055
2021-08-19 15:34:51.860,-0.155,0.045
2021-08-19 15:34:51.864,-0.145,0.045
2021-08-19 15:34:51.868,-0.16,0.055
2021-08-19 15:34:51.872,-0.16,0.05
2021-08-19 15:34:51.876,-0.16,0.05
2021-08-19 15:34:51.880,-0.16,0.055
2021-08-19 15:34:51.884,-0.165,0.075
2021-08-19 15:34:51.888,-0.15,0.08
2021-08-19 15:34:51.892,-0.16,0.085
2021-08-19 15:34:51.896,-0.15,0.075
2021-08-19 15:34:51.900,-0.15,0.06
2021-08-19 15:34:51.904,-0.17,0.075
2021-08-19 15:34:51.908,-0.18,0.09
2021-08-19 15:34:51.912,-0.18,0.1
2021-08-19 15:34:51.916,-0.18,0.085
2021-08-19 15:34:51.920,-0.185,0.085
2021-08-19 15:34:51.924,-0.18,0.065
2021-08-19 15:34:51.928,-0.185,0.085
2021-08-19 15:34:51.932,-0.2,0.08
2021-08-19 15:34:51.936,-0.18,0.075
2021-08-19 15:34:51.940,-0.18,0.09
2021-08-19 15:34:51.944,-0.185,0.09
2021-08-19 15:34:51.948,-0.175,0.075
2021-08-19 15:34:51.952,-0.17,0.08
2021-08-19 15:34:51.956,-0.18,0.07
2021-08-19 15:34:51.960,-0.18,0.08
2021-08-19 15:34:51.964,-0.17,0.08
2021-08-19 15:34:51.968,-0.18,0.06
2021-08-19 15:34:51.972,-0.18,0.075
2021-08-19 15:34:51.976,-0.175,0.065
2021-08-19 15:34:51.980,-0.18,0.075
2021-08-19 15:34:51.984,-0.145,0.075
2021-08-19 15:34:51.988,-0.07,0.1
2021-08-19 15:34:51.992,0.04,0.11
2021-08-19 15:34:51.996,0.2,0.095
2021-08-19 15:34:52.000,0.375,0.09
2021-08-19 15:34:52.004,0.525,0.085
2021-08-19 15:34:52.008,0.64,0.065
2021-08-19 15:34:52.012,0.675,0.01
2021-08-19 15:34:52.016,0.53,-0.07
2021-08-19 15:34:52.020,0.24,-0.135
2021-08-19 15:34:52.024,-0.12,-0.22
2021-08-19 15:34:52.028,-0.415,-0.27
2021-08-19 15:34:52.032,-0.57,-0.295
2021-08-19 15:34:52.036,-0.61,-0.27
2021-08-19 15:34:52.040,-0.55,-0.235
2021-08-19 15:34:52.044,-0.455,-0.16
2021-08-19 15:34:52.048,-0.375,-0.07
2021-08-19 15:34:52.052,-0.29,-0.005
2021-08-19 15:34:52.056,-0.26,0.06
2021-08-19 15:34:52.060,-0.24,0.11
2021-08-19 15:34:52.064,-0.225,0.13
2021-08-19 15:34:52.068,-0.25,0.15
2021-08-19 15:34:52.072,-0.26,0.15
2021-08-19 15:34:52.076,-0.235,0.135
2021-08-19 15:34:52.080,-0.245,0.125
2021-08-19 15:34:52.084,-0.235,0.12
2021-08-19 15:34:52.088,-0.245,0.11
2021-08-19 15:34:52.092,-0.235,0.12
2021-08-19 15:34:52.096,-0.23,0.105
2021-08-19 15:34:52.100,-0.24,0.11
2021-08-19 15:34:52.104,-0.23,0.11
2021-08-19 15:34:52.108,-0.24,0.1
2021-08-19 15:34:52.112,-0.25,0.085
2021-08-19 15:34:52.116,-0.235,0.1
2021-08-19 15:34:52.120,-0.245,0.09
2021-08-19 15:34:52.124,-0.25,0.085
2021-08-19 15:34:52.128,-0.245,0.09
2021-08-19 15:34:52.132,-0.23,0.115
2021-08-19 15:34:52.136,-0.235,0.08
2021-08-19 15:34:52.140,-0.24,0.105
2021-08-19 15:34:52.144,-0.235,0.095
2021-08-19 15:34:52.148,-0.24,0.095
2021-08-19 15:34:52.152,-0.225,0.1
2021-08-19 15:34:52.156,-0.235,0.09
2021-08-19 15:34:52.160,-0.23,0.09
2021-08-19 15:34:52.164,-0.24,0.095
2021-08-19 15:34:52.168,-0.22,0.09
2021-08-19 15:34:52.172,-0.22,0.095
2021-08-19 15:34:52.176,-0.225,0.105
2021-08-19 15:34:52.180,-0.215,0.1
2021-08-19 15:34:52.184,-0.21,0.095
2021-08-19 15:34:52.188,-0.195,0.11
2021-08-19 15:34:52.192,-0.19,0.095
2021-08-19 15:34:52.196,-0.185,0.105
2021-08-19 15:34:52.200,-0.19,0.1
2021-08-19 15:34:52.204,-0.19,0.115
2021-08-19 15:34:52.208,-0.19,0.11
2021-08-19 15:34:52.212,-0.2,0.125
2021-08-19 15:34:52.216,-0.19,0.115
2021-08-19 15:34:52.220,-0.175,0.13
2021-08-19 15:34:52.224,-0.17,0.12
2021-08-19 15:34:52.228,-0.18,0.125
2021-08-19 15:34:52.232,-0.175,0.13
2021-08-19 15:34:52.236,-0.175,0.115
2021-08-19 15:34:52.240,-0.17,0.11
2021-08-19 15:34:52.244,-0.18,0.11
2021-08-19 15:34:52.248,-0.175,0.105
2021-08-19 15:34:52.252,-0.185,0.11
2021-08-19 15:34:52.256,-0.175,0.105
2021-08-19 15:34:52.260,-0.185,0.095
2021-08-19 15:34:52.264,-0.175,0.095
2021-08-19 15:34:52.268,-0.17,0.105
2021-08-19 15:34:52.272,-0.17,0.09
2021-08-19 15:34:52.276,-0.16,0.09
2021-08-19 15:34:52.280,-0.16,0.1
2021-08-19 15:34:52.284,-0.16,0.08
2021-08-19 15:34:52.288,-0.16,0.095
2021-08-19 15:34:52.292,-0.15,0.095
2021-08-19 15:34:52.296,-0.14,0.095
2021-08-19 15:34:52.300,-0.14,0.08
2021-08-19 15:34:52.304,-0.135,0.085
2021-08-19 15:34:52.308,-0.145,0.085
2021-08-19 15:34:52.312,-0.145,0.09
2021-08-19 15:34:52.316,-0.13,0.085
2021-08-19 15:34:52.320,-0.12,0.08
2021-08-19 15:34:52.324,-0.145,0.07
2021-08-19 15:34:52.328,-0.135,0.07
2021-08-19 15:34:52.332,-0.145,0.075
2021-08-19 15:34:52.336,-0.155,0.075
2021-08-19 15:34:52.340,-0.165,0.07
2021-08-19 15:34:52.344,-0.155,0.065
2021-08-19 15:34:52.348,-0.155,0.065
2021-08-19 15:34:52.352,-0.155,0.06
2021-08-19 15:34:52.356,-0.17,0.05
2021-08-19 15:34:52.360,-0.185,0.05
2021-08-19 15:34:52.364,-0.165,0.045
2021-08-19 15:34:52.368,-0.195,0.05
2021-08-19 15:34:52.372,-0.18,0.05
2021-08-19 15:34:52.376,-0.205,0.055
2021-08-19 15:34:52.380,-0.205,0.055
2021-08-19 15:34:52.384,-0.19,0.06
2021-08-19 15:34:52.388,-0.195,0.05
2021-08-19 15:34:52.392,-0.195,0.045
2021-08-19 15:34:52.396,-0.195,0.04
2021-08-19 15:34:52.400,-0.21,0.065
2021-08-19 15:34:52.404,-0.2,0.055
2021-08-19 15:34:52.408,-0.205,0.035
2021-08-19 15:34:52.412,-0.205,0.055
2021-08-19 15:34:52.416,-0.195,0.045
2021-08-19 15:34:52.420,-0.2,0.04
2021-08-19 15:34:52.424,-0.195,0.05
2021-08-19 15:34:52.428,-0.205,0.05
2021-08-19 15:34:52.432,-0.205,0.05
2021-08-19 15:34:52.436,-0.195,0.05
2021-08-19 15:34:52.440,-0.18,0.035
2021-08-19 15:34:52.444,-0.19,0.055
2021-08-19 15:34:52.448,-0.185,0.04
2021-08-19 15:34:52.452,-0.195,0.04
2021-08-19 15:34:52.456,-0.19,0.05
2021-08-19 15:34:52.460,-0.19,0.055
2021-08-19 15:34:52.464,-0.185,0.06
2021-08-19 15:34:52.468,-0.18,0.055
2021-08-19 15:34:52.472,-0.18,0.07
2021-08-19 15:34:52.476,-0.175,0.065
2021-08-19 15:34:52.480,-0.16,0.065
2021-08-19 15:34:52.484,-0.175,0.045
2021-08-19 15:34:52.488,-0.17,0.055
2021-08-19 15:34:52.492,-0.18,0.05
2021-08-19 15:34:52.496,-0.18,0.055
2021-08-19 15:34:52.500,-0.17,0.055
2021-08-19 15:34:52.504,-0.2,0.07
2021-08-19 15:34:52.508,-0.2,0.06
2021-08-19 15:34:52.512,-0.195,0.06
2021-08-19 15:34:52.516,-0.18,0.055
2021-08-19 15:34:52.520,-0.175,0.055
2021-08-19 15:34:52.524,-0.19,0.07
2021-08-19 15:34:52.528,-0.185,0.06
2021-08-19 15:34:52.532,-0.2,0.055
2021-08-19 15:34:52.536,-0.19,0.06
2021-08-19 15:34:52.540,-0.195,0.06
2021-08-19 15:34:52.544,-0.18,0.06
2021-08-19 15:34:52.548,-0.185,0.055
2021-08-19 15:34:52.552,-0.21,0.055
2021-08-19 15:34:52.556,-0.21,0.065
2021-08-19 15:34:52.560,-0.205,0.06
2021-08-19 15:34:52.564,-0.21,0.07
2021-08-19 15:34:52.568,-0.21,0.055
2021-08-19 15:34:52.572,-0.2,0.065
2021-08-19 15:34:52.576,-0.21,0.07
2021-08-19 15:34:52.580,-0.2,0.06
2021-08-19 15:34:52.584,-0.215,0.06
2021-08-19 15:34:52.588,-0.215,0.06
2021-08-19 15:34:52.592,-0.21,0.06
2021-08-19 15:34:52.596,-0.21,0.07
2021-08-19 15:34:52.600,-0.215,0.07
2021-08-19 15:34:52.604,-0.21,0.06
2021-08-19 15:34:52.608,-0.215,0.05
2021-08-19 15:34:52.612,-0.22,0.05
2021-08-19 15:34:52.616,-0.215,0.055
2021-08-19 15:34:52.620,-0.225,0.07
2021-08-19 15:34:52.624,-0.215,0.06
2021-08-19 15:34:52.628,-0.215,0.065
2021-08-19 15:34:52.632,-0.22,0.065
2021-08-19 15:34:52.636,-0.22,0.065
2021-08-19 15:34:52.640,-0.225,0.07
2021-08-19 15:34:52.644,-0.22,0.06
2021-08-19 15:34:52.648,-0.21,0.05
2021-08-19 15:34:52.652,-0.22,0.055
2021-08-19 15:34:52.656,-0.215,0.065
2021-08-19 15:34:52.660,-0.22,0.045
2021-08-19 15:34:52.664,-0.225,0.045
2021-08-19 15:34:52.668,-0.23,0.055
2021-08-19 15:34:52.672,-0.23,0.055
2021-08-19 15:34:52.676,-0.23,0.04
2021-08-19 15:34:52.680,-0.22,0.055
2021-08-19 15:34:52.684,-0.205,0.05
2021-08-19 15:34:52.688,-0.235,0.05
2021-08-19 15:34:52.692,-0.23,0.055
2021-08-19 15:34:52.696,-0.23,0.05
2021-08-19 15:34:52.700,-0.22,0.06
2021-08-19 15:34:52.704,-0.215,0.065
2021-08-19 15:34:52.708,-0.235,0.06
2021-08-19 15:34:52.712,-0.22,0.065
2021-08-19 15:34:52.716,-0.205,0.065
2021-08-19 15:34:52.720,-0.225,0.07
2021-08-19 15:34:52.724,-0.225,0.07
2021-08-19 15:34:52.728,-0.22,0.08
2021-08-19 15:34:52.732,-0.23,0.07
2021-08-19 15:34:52.736,-0.24,0.06
2021-08-19 15:34:52.740,-0.22,0.08
2021-08-19 15:34:52.744,-0.215,0.07
2021-08-19 15:34:52.748,-0.235,0.075
2021-08-19 15:34:52.752,-0.225,0.075
2021-08-19 15:34:52.756,-0.22,0.065
2021-08-19 15:34:52.760,-0.225,0.075
2021-08-19 15:34:52.764,-0.225,0.06
2021-08-19 15:34:52.768,-0.21,0.055
2021-08-19 15:34:52.772,-0.21,0.065
2021-08-19 15:34:52.776,-0.215,0.075
2021-08-19 15:34:52.780,-0.225,0.055
2021-08-19 15:34:52.784,-0.215,0.075
2021-08-19 15:34:52.788,-0.22,0.075
2021-08-19 15:34:52.792,-0.21,0.06
2021-08-19 15:34:52.796,-0.23,0.065
2021-08-19 15:34:52.800,-0.215,0.07
2021-08-19 15:34:52.804,-0.23,0.065
2021-08-19 15:34:52.808,-0.22,0.07
2021-08-19 15:34:52.812,-0.21,0.065
2021-08-19 15:34:52.816,-0.215,0.055
2021-08-19 15:34:52.820,-0.21,0.06
2021-08-19 15:34:52.824,-0.2,0.07
2021-08-19 15:34:52.828,-0.225,0.06
2021-08-19 15:34:52.832,-0.215,0.065
2021-08-19 15:34:52.836,-0.225,0.065
2021-08-19 15:34:52.840,-0.22,0.08
2021-08-19 15:34:52.844,-0.22,0.07
2021-08-19 15:34:52.848,-0.225,0.065
2021-08-19 15:34:52.852,-0.225,0.08
2021-08-19 15:34:52.856,-0.21,0.075
2021-08-19 15:34:52.860,-0.22,0.085
2021-08-19 15:34:52.864,-0.215,0.085
2021-08-19 15:34:52.868,-0.21,0.085
2021-08-19 15:34:52.872,-0.205,0.07
2021-08-19 15:34:52.876,-0.21,0.075
2021-08-19 15:34:52.880,-0.215,0.08
2021-08-19 15:34:52.884,-0.21,0.08
2021-08-19 15:34:52.888,-0.205,0.08
2021-08-19 15:34:52.892,-0.2,0.075
2021-08-19 15:34:52.896,-0.205,0.08
2021-08-19 15:34:52.900,-0.195,0.085
2021-08-19 15:34:52.904,-0.21,0.075
2021-08-19 15:34:52.908,-0.215,0.08
2021-08-19 15:34:52.912,-0.2,0.085
2021-08-19 15:34:52.916,-0.21,0.085
2021-08-19 15:34:52.920,-0.215,0.07
2021-08-19 15:34:52.924,-0.215,0.08
2021-08-19 15:34:52.928,-0.22,0.07
2021-08-19 15:34:52.932,-0.215,0.075
2021-08-19 15:34:52.936,-0.21,0.07
2021-08-19 15:34:52.940,-0.21,0.08
2021-08-19 15:34:52.944,-0.2,0.09
2021-08-19 15:34:52.948,-0.2,0.085
2021-08-19 15:34:52.952,-0.21,0.08
2021-08-19 15:34:52.956,-0.205,0.07
2021-08-19 15:34:52.960,-0.22,0.075
2021-08-19 15:34:52.964,-0.2,0.08
2021-08-19 15:34:52.968,-0.21,0.085
2021-08-19 15:34:52.972,-0.21,0.08
2021-08-19 15:34:52.976,-0.21,0.085
2021-08-19 15:34:52.980,-0.195,0.08
2021-08-19 15:34:52.984,-0.195,0.08
2021-08-19 15:34:52.988,-0.165,0.08
2021-08-19 15:34:52.992,-0.175,0.09
2021-08-19 15:34:52.996,-0.185,0.08
2021-08-19 15:34:53.000,-0.16,0.09
2021-08-19 15:34:53.004,-0.175,0.085
2021-08-19 15:34:53.008,-0.15,0.095
2021-08-19 15:34:53.012,-0.15,0.11
2021-08-19 15:34:53.016,-0.16,0.11
2021-08-19 15:34:53.020,-0.155,0.095
2021-08-19 15:34:53.024,-0.165,0.105
2021-08-19 15:34:53.028,-0.18,0.095
2021-08-19 15:34:53.032,-0.16,0.09
2021-08-19 15:34:53.036,-0.165,0.085
2021-08-19 15:34:53.040,-0.19,0.085
2021-08-19 15:34:53.044,-0.195,0.06
2021-08-19 15:34:53.048,-0.205,0.06
2021-08-19 15:34:53.052,-0.19,0.06
2021-08-19 15:34:53.056,-0.17,0.045
2021-08-19 15:34:53.060,-0.19,0.05
2021-08-19 15:34:53.064,-0.19,0.055
2021-08-19 15:34:53.068,-0.18,0.06
2021-08-19 15:34:53.072,-0.175,0.06
2021-08-19 15:34:53.076,-0.18,0.055
2021-08-19 15:34:53.080,-0.205,0.06
2021-08-19 15:34:53.084,-0.19,0.055
2021-08-19 15:34:53.088,-0.185,0.07
2021-08-19 15:34:53.092,-0.185,0.065
2021-08-19 15:34:53.096,-0.19,0.06
2021-08-19 15:34:53.100,-0.175,0.07
2021-08-19 15:34:53.104,-0.185,0.055
2021-08-19 15:34:53.108,-0.195,0.065
2021-08-19 15:34:53.112,-0.19,0.065
2021-08-19 15:34:53.116,-0.2,0.075
2021-08-19 15:34:53.120,-0.21,0.07
2021-08-19 15:34:53.124,-0.22,0.06
2021-08-19 15:34:53.128,-0.21,0.055
2021-08-19 15:34:53.132,-0.225,0.06
2021-08-19 15:34:53.136,-0.22,0.065
2021-08-19 15:34:53.140,-0.225,0.065
2021-08-19 15:34:53.144,-0.225,0.06
2021-08-19 15:34:53.148,-0.215,0.06
2021-08-19 15:34:53.152,-0.215,0.085
2021-08-19 15:34:53.156,-0.22,0.075
2021-08-19 15:34:53.160,-0.21,0.08
2021-08-19 15:34:53.164,-0.22,0.06
2021-08-19 15:34:53.168,-0.21,0.065
2021-08-19 15:34:53.172,-0.215,0.075
2021-08-19 15:34:53.176,-0.205,0.075
2021-08-19 15:34:53.180,-0.225,0.06
2021-08-19 15:34:53.184,-0.215,0.065
2021-08-19 15:34:53.188,-0.205,0.07
2021-08-19 15:34:53.192,-0.2,0.075
2021-08-19 15:34:53.196,-0.17,0.07
2021-08-19 15:34:53.200,-0.095,0.09
2021-08-19 15:34:53.204,0.02,0.11
2021-08-19 15:34:53.208,0.205,0.075
2021-08-19 15:34:53.212,0.37,0.065
2021-08-19 15:34:53.216,0.495,0.04
2021-08-19 15:34:53.220,0.6,0.01
2021-08-19 15:34:53.224,0.59,-0.03
2021-08-19 15:34:53.228,0.375,-0.145
2021-08-19 15:34:53.232,0.025,-0.205
2021-08-19 15:34:53.236,-0.335,-0.275
2021-08-19 15:34:53.240,-0.575,-0.315
2021-08-19 15:34:53.244,-0.665,-0.33
2021-08-19 15:34:53.248,-0.66,-0.295
2021-08-19 15:34:53.252,-0.59,-0.24
2021-08-19 15:34:53.256,-0.48,-0.16
2021-08-19 15:34:53.260,-0.365,-0.07
2021-08-19 15:34:53.264,-0.31,0.005
2021-08-19 15:34:53.268,-0.3,0.08
2021-08-19 15:34:53.272,-0.285,0.12
2021-08-19 15:34:53.276,-0.295,0.135
2021-08-19 15:34:53.280,-0.285,0.14
2021-08-19 15:34:53.284,-0.295,0.125
2021-08-19 15:34:53.288,-0.27,0.13
2021-08-19 15:34:53.292,-0.265,0.105
2021-08-19 15:34:53.296,-0.28,0.1
2021-08-19 15:34:53.300,-0.285,0.095
2021-08-19 15:34:53.304,-0.265,0.085
2021-08-19 15:34:53.308,-0.27,0.085
2021-08-19 15:34:53.312,-0.27,0.105
2021-08-19 15:34:53.316,-0.265,0.1
2021-08-19 15:34:53.320,-0.28,0.085
2021-08-19 15:34:53.324,-0.28,0.09
2021-08-19 15:34:53.328,-0.26,0.09
2021-08-19 15:34:53.332,-0.28,0.08
2021-08-19 15:34:53.336,-0.275,0.08
2021-08-19 15:34:53.340,-0.285,0.075
2021-08-19 15:34:53.344,-0.285,0.085
2021-08-19 15:34:53.348,-0.28,0.075
2021-08-19 15:34:53.352,-0.275,0.085
2021-08-19 15:34:53.356,-0.26,0.08
2021-08-19 15:34:53.360,-0.28,0.075
2021-08-19 15:34:53.364,-0.265,0.07
2021-08-19 15:34:53.368,-0.275,0.075
2021-08-19 15:34:53.372,-0.26,0.075
2021-08-19 15:34:53.376,-0.275,0.085
2021-08-19 15:34:53.380,-0.28,0.085
2021-08-19 15:34:53.384,-0.27,0.09
2021-08-19 15:34:53.388,-0.275,0.075
2021-08-19 15:34:53.392,-0.26,0.08
2021-08-19 15:34:53.396,-0.265,0.09
2021-08-19 15:34:53.400,-0.26,0.095
2021-08-19 15:34:53.404,-0.245,0.1
2021-08-19 15:34:53.408,-0.245,0.1
2021-08-19 15:34:53.412,-0.235,0.1
2021-08-19 15:34:53.416,-0.25,0.1
2021-08-19 15:34:53.420,-0.235,0.1
2021-08-19 15:34:53.424,-0.235,0.12
2021-08-19 15:34:53.428,-0.23,0.125
2021-08-19 15:34:53.432,-0.23,0.12
2021-08-19 15:34:53.436,-0.225,0.125
2021-08-19 15:34:53.440,-0.215,0.115
2021-08-19 15:34:53.444,-0.225,0.125
2021-08-19 15:34:53.448,-0.21,0.11
2021-08-19 15:34:53.452,-0.215,0.115
2021-08-19 15:34:53.456,-0.2,0.105
2021-08-19 15:34:53.460,-0.215,0.105
2021-08-19 15:34:53.464,-0.21,0.105
2021-08-19 15:34:53.468,-0.215,0.095
2021-08-19 15:34:53.472,-0.215,0.11
2021-08-19 15:34:53.476,-0.19,0.09
2021-08-19 15:34:53.480,-0.2,0.095
2021-08-19 15:34:53.484,-0.2,0.075
2021-08-19 15:34:53.488,-0.18,0.085
2021-08-19 15:34:53.492,-0.195,0.085
2021-08-19 15:34:53.496,-0.2,0.1
2021-08-19 15:34:53.500,-0.18,0.08
2021-08-19 15:34:53.504,-0.175,0.08
2021-08-19 15:34:53.508,-0.175,0.075
2021-08-19 15:34:53.512,-0.17,0.055
2021-08-19 15:34:53.516,-0.16,0.08
2021-08-19 15:34:53.520,-0.165,0.075
2021-08-19 15:34:53.524,-0.16,0.07
2021-08-19 15:34:53.528,-0.17,0.055
2021-08-19 15:34:53.532,-0.165,0.06
2021-08-19 15:34:53.536,-0.16,0.065
2021-08-19 15:34:53.540,-0.16,0.07
2021-08-19 15:34:53.544,-0.16,0.07
2021-08-19 15:34:53.548,-0.17,0.07
2021-08-19 15:34:53.552,-0.18,0.06
2021-08-19 15:34:53.556,-0.185,0.055
2021-08-19 15:34:53.560,-0.195,0.045
2021-08-19 15:34:53.564,-0.195,0.065
2021-08-19 15:34:53.568,-0.21,0.065
2021-08-19 15:34:53.572,-0.205,0.06
2021-08-19 15:34:53.576,-0.18,0.06
2021-08-19 15:34:53.580,-0.22,0.05
2021-08-19 15:34:53.584,-0.205,0.05
2021-08-19 15:34:53.588,-0.2,0.045
2021-08-19 15:34:53.592,-0.22,0.035
2021-08-19 15:34:53.596,-0.215,0.045
2021-08-19 15:34:53.600,-0.23,0.035
2021-08-19 15:34:53.604,-0.22,0.04
2021-08-19 15:34:53.608,-0.215,0.035
2021-08-19 15:34:53.612,-0.215,0.05
2021-08-19 15:34:53.616,-0.2,0.04
2021-08-19 15:34:53.620,-0.2,0.05
2021-08-19 15:34:53.624,-0.2,0.05
2021-08-19 15:34:53.628,-0.22,0.055
2021-08-19 15:34:53.632,-0.225,0.04
2021-08-19 15:34:53.636,-0.235,0.045
2021-08-19 15:34:53.640,-0.225,0.045
2021-08-19 15:34:53.644,-0.22,0.06
2021-08-19 15:34:53.648,-0.22,0.055
2021-08-19 15:34:53.652,-0.21,0.04
2021-08-19 15:34:53.656,-0.21,0.055
2021-08-19 15:34:53.660,-0.22,0.04
2021-08-19 15:34:53.664,-0.205,0.03
2021-08-19 15:34:53.668,-0.2,0.035
2021-08-19 15:34:53.672,-0.205,0.03
2021-08-19 15:34:53.676,-0.215,0.045
2021-08-19 15:34:53.680,-0.21,0.04
2021-08-19 15:34:53.684,-0.205,0.05
2021-08-19 15:34:53.688,-0.21,0.05
2021-08-19 15:34:53.692,-0.2,0.06
2021-08-19 15:34:53.696,-0.195,0.05
2021-08-19 15:34:53.700,-0.19,0.04
2021-08-19 15:34:53.704,-0.2,0.045
2021-08-19 15:34:53.708,-0.21,0.06
2021-08-19 15:34:53.712,-0.2,0.05
2021-08-19 15:34:53.716,-0.2,0.06
2021-08-19 15:34:53.720,-0.195,0.055
2021-08-19 15:34:53.724,-0.21,0.06
2021-08-19 15:34:53.728,-0.205,0.06
2021-08-19 15:34:53.732,-0.2,0.06
2021-08-19 15:34:53.736,-0.205,0.06
2021-08-19 15:34:53.740,-0.2,0.055
2021-08-19 15:34:53.744,-0.19,0.055
2021-08-19 15:34:53.748,-0.21,0.055
2021-08-19 15:34:53.752,-0.195,0.045
2021-08-19 15:34:53.756,-0.205,0.075
2021-08-19 15:34:53.760,-0.2,0.07
2021-08-19 15:34:53.764,-0.205,0.055
2021-08-19 15:34:53.768,-0.195,0.055
2021-08-19 15:34:53.772,-0.21,0.07
2021-08-19 15:34:53.776,-0.21,0.06
2021-08-19 15:34:53.780,-0.2,0.06
2021-08-19 15:34:53.784,-0.2,0.06
2021-08-19 15:34:53.788,-0.215,0.05
2021-08-19 15:34:53.792,-0.195,0.06
2021-08-19 15:34:53.796,-0.21,0.06
2021-08-19 15:34:53.800,-0.21,0.065
2021-08-19 15:34:53.804,-0.215,0.065
2021-08-19 15:34:53.808,-0.19,0.055
2021-08-19 15:34:53.812,-0.215,0.07
2021-08-19 15:34:53.816,-0.215,0.055
2021-08-19 15:34:53.820,-0.205,0.05
2021-08-19 15:34:53.824,-0.215,0.075
2021-08-19 15:34:53.828,-0.21,0.065
2021-08-19 15:34:53.832,-0.205,0.065
2021-08-19 15:34:53.836,-0.225,0.06
2021-08-19 15:34:53.840,-0.215,0.07
2021-08-19 15:34:53.844,-0.22,0.06
2021-08-19 15:34:53.848,-0.22,0.07
2021-08-19 15:34:53.852,-0.215,0.06
2021-08-19 15:34:53.856,-0.21,0.06
2021-08-19 15:34:53.860,-0.22,0.055
2021-08-19 15:34:53.864,-0.23,0.06
2021-08-19 15:34:53.868,-0.22,0.06
2021-08-19 15:34:53.872,-0.215,0.06
2021-08-19 15:34:53.876,-0.205,0.065
2021-08-19 15:34:53.880,-0.215,0.055
2021-08-19 15:34:53.884,-0.215,0.07
2021-08-19 15:34:53.888,-0.215,0.06
2021-08-19 15:34:53.892,-0.215,0.05
2021-08-19 15:34:53.896,-0.22,0.05
2021-08-19 15:34:53.900,-0.215,0.06
2021-08-19 15:34:53.904,-0.225,0.04
2021-08-19 15:34:53.908,-0.215,0.045
2021-08-19 15:34:53.912,-0.21,0.065
2021-08-19 15:34:53.916,-0.215,0.045
2021-08-19 15:34:53.920,-0.215,0.055
2021-08-19 15:34:53.924,-0.2,0.045
2021-08-19 15:34:53.928,-0.21,0.065
2021-08-19 15:34:53.932,-0.2,0.05
2021-08-19 15:34:53.936,-0.22,0.055
2021-08-19 15:34:53.940,-0.21,0.05
2021-08-19 15:34:53.944,-0.21,0.045
2021-08-19 15:34:53.948,-0.215,0.055
2021-08-19 15:34:53.952,-0.215,0.05
2021-08-19 15:34:53.956,-0.21,0.06
2021-08-19 15:34:53.960,-0.21,0.05
2021-08-19 15:34:53.964,-0.225,0.055
2021-08-19 15:34:53.968,-0.225,0.05
2021-08-19 15:34:53.972,-0.225,0.055
2021-08-19 15:34:53.976,-0.22,0.05
2021-08-19 15:34:53.980,-0.21,0.055
2021-08-19 15:34:53.984,-0.2,0.045
2021-08-19 15:34:53.988,-0.21,0.07
2021-08-19 15:34:53.992,-0.215,0.055
2021-08-19 15:34:53.996,-0.21,0.055
2021-08-19 15:34:54.000,-0.21,0.045
2021-08-19 15:34:54.004,-0.22,0.06
2021-08-19 15:34:54.008,-0.21,0.045
2021-08-19 15:34:54.012,-0.2,0.05
2021-08-19 15:34:54.016,-0.205,0.045
2021-08-19 15:34:54.020,-0.205,0.06
2021-08-19 15:34:54.024,-0.21,0.055
2021-08-19 15:34:54.028,-0.215,0.055
2021-08-19 15:34:54.032,-0.215,0.06
2021-08-19 15:34:54.036,-0.21,0.065
2021-08-19 15:34:54.040,-0.215,0.055
2021-08-19 15:34:54.044,-0.205,0.055
2021-08-19 15:34:54.048,-0.21,0.055
2021-08-19 15:34:54.052,-0.205,0.055
2021-08-19 15:34:54.056,-0.205,0.04
2021-08-19 15:34:54.060,-0.205,0.035
2021-08-19 15:34:54.064,-0.22,0.055
2021-08-19 15:34:54.068,-0.215,0.04
2021-08-19 15:34:54.072,-0.195,0.05
2021-08-19 15:34:54.076,-0.21,0.06
2021-08-19 15:34:54.080,-0.205,0.05
2021-08-19 15:34:54.084,-0.21,0.055
2021-08-19 15:34:54.088,-0.225,0.04
2021-08-19 15:34:54.092,-0.21,0.035
2021-08-19 15:34:54.096,-0.22,0.045
2021-08-19 15:34:54.100,-0.2,0.04
2021-08-19 15:34:54.104,-0.205,0.04
2021-08-19 15:34:54.108,-0.215,0.05
2021-08-19 15:34:54.112,-0.21,0.035
2021-08-19 15:34:54.116,-0.2,0.04
2021-08-19 15:34:54.120,-0.21,0.05
2021-08-19 15:34:54.124,-0.205,0.055
2021-08-19 15:34:54.128,-0.2,0.035
2021-08-19 15:34:54.132,-0.2,0.035
2021-08-19 15:34:54.136,-0.205,0.045
2021-08-19 15:34:54.140,-0.195,0.06
2021-08-19 15:34:54.144,-0.2,0.035
2021-08-19 15:34:54.148,-0.205,0.035
2021-08-19 15:34:54.152,-0.205,0.035
2021-08-19 15:34:54.156,-0.195,0.035
2021-08-19 15:34:54.160,-0.19,0.04
2021-08-19 15:34:54.164,-0.18,0.025
2021-08-19 15:34:54.168,-0.175,0.045
2021-08-19 15:34:54.172,-0.155,0.055
2021-08-19 15:34:54.176,-0.16,0.05
2021-08-19 15:34:54.180,-0.16,0.06
2021-08-19 15:34:54.184,-0.17,0.07
2021-08-19 15:34:54.188,-0.16,0.065
2021-08-19 15:34:54.192,-0.17,0.07
2021-08-19 15:34:54.196,-0.175,0.06
2021-08-19 15:34:54.200,-0.15,0.04
2021-08-19 15:34:54.204,-0.17,0.055
2021-08-19 15:34:54.208,-0.17,0.055
2021-08-19 15:34:54.212,-0.185,0.045
2021-08-19 15:34:54.216,-0.18,0.035
2021-08-19 15:34:54.220,-0.175,0.02
2021-08-19 15:34:54.224,-0.175,0.01
2021-08-19 15:34:54.228,-0.18,0.01
2021-08-19 15:34:54.232,-0.18,0.01
2021-08-19 15:34:54.236,-0.18,0.01
2021-08-19 15:34:54.240,-0.175,0.01
2021-08-19 15:34:54.244,-0.175,0.0
2021-08-19 15:34:54.248,-0.185,0.005
2021-08-19 15:34:54.252,-0.18,0.02
2021-08-19 15:34:54.256,-0.195,0.01
2021-08-19 15:34:54.260,-0.185,0.01
2021-08-19 15:34:54.264,-0.195,0.01
2021-08-19 15:34:54.268,-0.18,0.02
2021-08-19 15:34:54.272,-0.175,0.02
2021-08-19 15:34:54.276,-0.19,0.035
2021-08-19 15:34:54.280,-0.195,0.05
2021-08-19 15:34:54.284,-0.225,0.05
2021-08-19 15:34:54.288,-0.2,0.04
2021-08-19 15:34:54.292,-0.215,0.03
2021-08-19 15:34:54.296,-0.21,0.025
2021-08-19 15:34:54.300,-0.215,0.035
2021-08-19 15:34:54.304,-0.235,0.045
2021-08-19 15:34:54.308,-0.235,0.03
2021-08-19 15:34:54.312,-0.22,0.04
2021-08-19 15:34:54.316,-0.21,0.03
2021-08-19 15:34:54.320,-0.205,0.03
2021-08-19 15:34:54.324,-0.21,0.035
2021-08-19 15:34:54.328,-0.195,0.035
2021-08-19 15:34:54.332,-0.19,0.045
2021-08-19 15:34:54.336,-0.2,0.045
2021-08-19 15:34:54.340,-0.205,0.025
2021-08-19 15:34:54.344,-0.21,0.045
2021-08-19 15:34:54.348,-0.205,0.055
2021-08-19 15:34:54.352,-0.21,0.045
2021-08-19 15:34:54.356,-0.145,0.05
2021-08-19 15:34:54.360,-0.06,0.055
2021-08-19 15:34:54.364,0.09,0.065
2021-08-19 15:34:54.368,0.28,0.055
2021-08-19 15:34:54.372,0.445,0.035
2021-08-19 15:34:54.376,0.575,0.03
2021-08-19 15:34:54.380,0.64,-0.015
2021-08-19 15:34:54.384,0.55,-0.085
2021-08-19 15:34:54.388,0.285,-0.15
2021-08-19 15:34:54.392,-0.06,-0.225
2021-08-19 15:34:54.396,-0.37,-0.295
2021-08-19 15:34:54.400,-0.595,-0.335
2021-08-19 15:34:54.404,-0.64,-0.335
2021-08-19 15:34:54.408,-0.605,-0.29
2021-08-19 15:34:54.412,-0.53,-0.22
2021-08-19 15:34:54.416,-0.44,-0.14
2021-08-19 15:34:54.420,-0.32,-0.055
2021-08-19 15:34:54.424,-0.29,0.005
2021-08-19 15:34:54.428,-0.265,0.045
2021-08-19 15:34:54.432,-0.265,0.095
2021-08-19 15:34:54.436,-0.27,0.095
2021-08-19 15:34:54.440,-0.265,0.11
2021-08-19 15:34:54.444,-0.265,0.11
2021-08-19 15:34:54.448,-0.27,0.09
2021-08-19 15:34:54.452,-0.27,0.1
2021-08-19 15:34:54.456,-0.27,0.085
2021-08-19 15:34:54.460,-0.26,0.08
2021-08-19 15:34:54.464,-0.26,0.07
2021-08-19 15:34:54.468,-0.275,0.07
2021-08-19 15:34:54.472,-0.27,0.08
2021-08-19 15:34:54.476,-0.26,0.075
2021-08-19 15:34:54.480,-0.27,0.065
2021-08-19 15:34:54.484,-0.27,0.065
2021-08-19 15:34:54.488,-0.265,0.065
2021-08-19 15:34:54.492,-0.26,0.07
2021-08-19 15:34:54.496,-0.255,0.055
2021-08-19 15:34:54.500,-0.25,0.065
2021-08-19 15:34:54.504,-0.28,0.065
2021-08-19 15:34:54.508,-0.26,0.055
2021-08-19 15:34:54.512,-0.245,0.06
2021-08-19 15:34:54.516,-0.255,0.06
2021-08-19 15:34:54.520,-0.255,0.05
2021-08-19 15:34:54.524,-0.26,0.06
2021-08-19 15:34:54.528,-0.24,0.065
2021-08-19 15:34:54.532,-0.27,0.07
2021-08-19 15:34:54.536,-0.27,0.065
2021-08-19 15:34:54.540,-0.265,0.06
2021-08-19 15:34:54.544,-0.25,0.06
2021-08-19 15:34:54.548,-0.25,0.06
2021-08-19 15:34:54.552,-0.265,0.065
2021-08-19 15:34:54.556,-0.24,0.075
2021-08-19 15:34:54.560,-0.235,0.07
2021-08-19 15:34:54.564,-0.235,0.085
2021-08-19 15:34:54.568,-0.23,0.085
2021-08-19 15:34:54.572,-0.235,0.09
2021-08-19 15:34:54.576,-0.22,0.085
2021-08-19 15:34:54.580,-0.225,0.08
2021-08-19 15:34:54.584,-0.205,0.1
2021-08-19 15:34:54.588,-0.22,0.075
2021-08-19 15:34:54.592,-0.21,0.09
2021-08-19 15:34:54.596,-0.205,0.095
2021-08-19 15:34:54.600,-0.19,0.095
2021-08-19 15:34:54.604,-0.19,0.09
2021-08-19 15:34:54.608,-0.195,0.075
2021-08-19 15:34:54.612,-0.18,0.095
2021-08-19 15:34:54.616,-0.18,0.095
2021-08-19 15:34:54.620,-0.195,0.095
2021-08-19 15:34:54.624,-0.18,0.095
2021-08-19 15:34:54.628,-0.18,0.085
2021-08-19 15:34:54.632,-0.16,0.075
2021-08-19 15:34:54.636,-0.195,0.08
2021-08-19 15:34:54.640,-0.18,0.075
2021-08-19 15:34:54.644,-0.17,0.075
2021-08-19 15:34:54.648,-0.17,0.08
2021-08-19 15:34:54.652,-0.155,0.075
2021-08-19 15:34:54.656,-0.16,0.08
2021-08-19 15:34:54.660,-0.16,0.07
2021-08-19 15:34:54.664,-0.155,0.08
2021-08-19 15:34:54.668,-0.135,0.075
2021-08-19 15:34:54.672,-0.155,0.07
2021-08-19 15:34:54.676,-0.16,0.08
2021-08-19 15:34:54.680,-0.155,0.06
2021-08-19 15:34:54.684,-0.15,0.06
2021-08-19 15:34:54.688,-0.14,0.055
2021-08-19 15:34:54.692,-0.145,0.065
2021-08-19 15:34:54.696,-0.155,0.055
2021-08-19 15:34:54.700,-0.14,0.055
2021-08-19 15:34:54.704,-0.14,0.055
2021-08-19 15:34:54.708,-0.14,0.055
2021-08-19 15:34:54.712,-0.15,0.06
2021-08-19 15:34:54.716,-0.17,0.045
2021-08-19 15:34:54.720,-0.17,0.05
2021-08-19 15:34:54.724,-0.175,0.05
2021-08-19 15:34:54.728,-0.18,0.04
2021-08-19 15:34:54.732,-0.18,0.055
2021-08-19 15:34:54.736,-0.175,0.04
2021-08-19 15:34:54.740,-0.2,0.04
2021-08-19 15:34:54.744,-0.185,0.05
2021-08-19 15:34:54.748,-0.18,0.045
2021-08-19 15:34:54.752,-0.18,0.045
2021-08-19 15:34:54.756,-0.195,0.045
2021-08-19 15:34:54.760,-0.2,0.04
2021-08-19 15:34:54.764,-0.19,0.04
2021-08-19 15:34:54.768,-0.205,0.04
2021-08-19 15:34:54.772,-0.2,0.05
2021-08-19 15:34:54.776,-0.19,0.06
2021-08-19 15:34:54.780,-0.19,0.06
2021-08-19 15:34:54.784,-0.18,0.055
2021-08-19 15:34:54.788,-0.19,0.045
2021-08-19 15:34:54.792,-0.185,0.045
2021-08-19 15:34:54.796,-0.19,0.045
2021-08-19 15:34:54.800,-0.17,0.04
2021-08-19 15:34:54.804,-0.2,0.045
2021-08-19 15:34:54.808,-0.185,0.05
2021-08-19 15:34:54.812,-0.185,0.045
2021-08-19 15:34:54.816,-0.17,0.055
2021-08-19 15:34:54.820,-0.185,0.045
2021-08-19 15:34:54.824,-0.17,0.055
2021-08-19 15:34:54.828,-0.175,0.055
2021-08-19 15:34:54.832,-0.175,0.065
2021-08-19 15:34:54.836,-0.165,0.055
2021-08-19 15:34:54.840,-0.165,0.05
2021-08-19 15:34:54.844,-0.175,0.06
2021-08-19 15:34:54.848,-0.19,0.065
2021-08-19 15:34:54.852,-0.17,0.055
2021-08-19 15:34:54.856,-0.185,0.065
2021-08-19 15:34:54.860,-0.17,0.07
2021-08-19 15:34:54.864,-0.17,0.07
2021-08-19 15:34:54.868,-0.17,0.065
2021-08-19 15:34:54.872,-0.17,0.07
2021-08-19 15:34:54.876,-0.16,0.075
2021-08-19 15:34:54.880,-0.17,0.06
2021-08-19 15:34:54.884,-0.165,0.055
2021-08-19 15:34:54.888,-0.17,0.065
2021-08-19 15:34:54.892,-0.17,0.06
2021-08-19 15:34:54.896,-0.16,0.07
2021-08-19 15:34:54.900,-0.16,0.06
2021-08-19 15:34:54.904,-0.17,0.05
2021-08-19 15:34:54.908,-0.175,0.055
2021-08-19 15:34:54.912,-0.175,0.055
2021-08-19 15:34:54.916,-0.17,0.085
2021-08-19 15:34:54.920,-0.18,0.065
2021-08-19 15:34:54.924,-0.18,0.065
2021-08-19 15:34:54.928,-0.155,0.06
2021-08-19 15:34:54.932,-0.17,0.08
2021-08-19 15:34:54.936,-0.18,0.065
2021-08-19 15:34:54.940,-0.19,0.07
2021-08-19 15:34:54.944,-0.185,0.065
2021-08-19 15:34:54.948,-0.185,0.08
2021-08-19 15:34:54.952,-0.175,0.065
2021-08-19 15:34:54.956,-0.2,0.06
2021-08-19 15:34:54.960,-0.185,0.065
2021-08-19 15:34:54.964,-0.195,0.07
2021-08-19 15:34:54.968,-0.205,0.055
2021-08-19 15:34:54.972,-0.19,0.075
2021-08-19 15:34:54.976,-0.2,0.06
2021-08-19 15:34:54.980,-0.195,0.075
2021-08-19 15:34:54.984,-0.2,0.075
2021-08-19 15:34:54.988,-0.195,0.07
2021-08-19 15:34:54.992,-0.205,0.05
2021-08-19 15:34:54.996,-0.2,0.06
2021-08-19 15:34:55.000,-0.19,0.055
2021-08-19 15:34:55.004,-0.21,0.06
2021-08-19 15:34:55.008,-0.2,0.065
2021-08-19 15:34:55.012,-0.205,0.07
2021-08-19 15:34:55.016,-0.205,0.08
2021-08-19 15:34:55.020,-0.195,0.075
2021-08-19 15:34:55.024,-0.2,0.07
2021-08-19 15:34:55.028,-0.19,0.06
2021-08-19 15:34:55.032,-0.195,0.07
2021-08-19 15:34:55.036,-0.2,0.065
2021-08-19 15:34:55.040,-0.205,0.075
2021-08-19 15:34:55.044,-0.195,0.055
2021-08-19 15:34:55.048,-0.21,0.06
2021-08-19 15:34:55.052,-0.2,0.07
2021-08-19 15:34:55.056,-0.21,0.065
2021-08-19 15:34:55.060,-0.21,0.075
2021-08-19 15:34:55.064,-0.22,0.045
2021-08-19 15:34:55.068,-0.205,0.05
2021-08-19 15:34:55.072,-0.2,0.06
2021-08-19 15:34:55.076,-0.195,0.075
2021-08-19 15:34:55.080,-0.19,0.055
2021-08-19 15:34:55.084,-0.205,0.065
2021-08-19 15:34:55.088,-0.225,0.06
2021-08-19 15:34:55.092,-0.21,0.055
2021-08-19 15:34:55.096,-0.205,0.06
2021-08-19 15:34:55.100,-0.215,0.06
2021-08-19 15:34:55.104,-0.19,0.05
2021-08-19 15:34:55.108,-0.205,0.055
2021-08-19 15:34:55.112,-0.2,0.06
2021-08-19 15:34:55.116,-0.215,0.065
2021-08-19 15:34:55.120,-0.21,0.05
2021-08-19 15:34:55.124,-0.2,0.06
2021-08-19 15:34:55.128,-0.2,0.055
2021-08-19 15:34:55.132,-0.21,0.05
2021-08-19 15:34:55.136,-0.2,0.055
2021-08-19 15:34:55.140,-0.21,0.055
2021-08-19 15:34:55.144,-0.21,0.05
2021-08-19 15:34:55.148,-0.205,0.055
2021-08-19 15:34:55.152,-0.2,0.05
2021-08-19 15:34:55.156,-0.215,0.06
2021-08-19 15:34:55.160,-0.195,0.06
2021-08-19 15:34:55.164,-0.205,0.045
2021-08-19 15:34:55.168,-0.21,0.06
2021-08-19 15:34:55.172,-0.21,0.07
2021-08-19 15:34:55.176,-0.21,0.05
2021-08-19 15:34:55.180,-0.215,0.055
2021-08-19 15:34:55.184,-0.215,0.05
2021-08-19 15:34:55.188,-0.21,0.07
2021-08-19 15:34:55.192,-0.205,0.055
2021-08-19 15:34:55.196,-0.2,0.045
2021-08-19 15:34:55.200,-0.195,0.065
2021-08-19 15:34:55.204,-0.205,0.05
2021-08-19 15:34:55.208,-0.215,0.045
2021-08-19 15:34:55.212,-0.21,0.05
2021-08-19 15:34:55.216,-0.215,0.055
2021-08-19 15:34:55.220,-0.2,0.06
2021-08-19 15:34:55.224,-0.195,0.055
2021-08-19 15:34:55.228,-0.195,0.06
2021-08-19 15:34:55.232,-0.205,0.055
2021-08-19 15:34:55.236,-0.19,0.065
2021-08-19 15:34:55.240,-0.2,0.055
2021-08-19 15:34:55.244,-0.21,0.06
2021-08-19 15:34:55.248,-0.215,0.055
2021-08-19 15:34:55.252,-0.22,0.06
2021-08-19 15:34:55.256,-0.2,0.055
2021-08-19 15:34:55.260,-0.225,0.075
2021-08-19 15:34:55.264,-0.215,0.075
2021-08-19 15:34:55.268,-0.215,0.06
2021-08-19 15:34:55.272,-0.2,0.055
2021-08-19 15:34:55.276,-0.205,0.045
2021-08-19 15:34:55.280,-0.21,0.045
2021-08-19 15:34:55.284,-0.215,0.055
2021-08-19 15:34:55.288,-0.225,0.07
2021-08-19 15:34:55.292,-0.215,0.04
2021-08-19 15:34:55.296,-0.2,0.04
2021-08-19 15:34:55.300,-0.21,0.035
2021-08-19 15:34:55.304,-0.205,0.045
2021-08-19 15:34:55.308,-0.2,0.05
2021-08-19 15:34:55.312,-0.21,0.045
2021-08-19 15:34:55.316,-0.2,0.05
2021-08-19 15:34:55.320,-0.185,0.055
2021-08-19 15:34:55.324,-0.175,0.06
2021-08-19 15:34:55.328,-0.18,0.05
2021-08-19 15:34:55.332,-0.155,0.055
2021-08-19 15:34:55.336,-0.165,0.065
2021-08-19 15:34:55.340,-0.185,0.06
2021-08-19 15:34:55.344,-0.16,0.065
2021-08-19 15:34:55.348,-0.165,0.08
2021-08-19 15:34:55.352,-0.165,0.065
2021-08-19 15:34:55.356,-0.17,0.08
2021-08-19 15:34:55.360,-0.17,0.06
2021-08-19 15:34:55.364,-0.185,0.065
2021-08-19 15:34:55.368,-0.185,0.055
2021-08-19 15:34:55.372,-0.195,0.04
2021-08-19 15:34:55.376,-0.195,0.04
2021-08-19 15:34:55.380,-0.185,0.02
2021-08-19 15:34:55.384,-0.2,0.02
2021-08-19 15:34:55.388,-0.18,0.03
2021-08-19 15:34:55.392,-0.195,0.015
2021-08-19 15:34:55.396,-0.2,0.025
2021-08-19 15:34:55.400,-0.205,0.025
2021-08-19 15:34:55.404,-0.195,0.015
2021-08-19 15:34:55.408,-0.195,0.015
2021-08-19 15:34:55.412,-0.19,0.015
2021-08-19 15:34:55.416,-0.195,0.025
2021-08-19 15:34:55.420,-0.2,0.035
2021-08-19 15:34:55.424,-0.195,0.05
2021-08-19 15:34:55.428,-0.185,0.045
2021-08-19 15:34:55.432,-0.195,0.03
2021-08-19 15:34:55.436,-0.195,0.055
2021-08-19 15:34:55.440,-0.205,0.05
2021-08-19 15:34:55.444,-0.21,0.055
2021-08-19 15:34:55.448,-0.22,0.055
2021-08-19 15:34:55.452,-0.22,0.065
2021-08-19 15:34:55.456,-0.215,0.07
2021-08-19 15:34:55.460,-0.225,0.07
2021-08-19 15:34:55.464,-0.235,0.055
2021-08-19 15:34:55.468,-0.23,0.07
2021-08-19 15:34:55.472,-0.22,0.06
2021-08-19 15:34:55.476,-0.225,0.05
2021-08-19 15:34:55.480,-0.215,0.07
2021-08-19 15:34:55.484,-0.22,0.06
2021-08-19 15:34:55.488,-0.22,0.06
2021-08-19 15:34:55.492,-0.21,0.065
2021-08-19 15:34:55.496,-0.2,0.065
2021-08-19 15:34:55.500,-0.21,0.07
2021-08-19 15:34:55.504,-0.21,0.055
2021-08-19 15:34:55.508,-0.215,0.045
2021-08-19 15:34:55.512,-0.225,0.045
2021-08-19 15:34:55.516,-0.2,0.07
2021-08-19 15:34:55.520,-0.155,0.07
2021-08-19 15:34:55.524,-0.045,0.075
2021-08-19 15:34:55.528,0.07,0.085
2021-08-19 15:34:55.532,0.27,0.075
2021-08-19 15:34:55.536,0.425,0.06
2021-08-19 15:34:55.540,0.545,0.025
2021-08-19 15:34:55.544,0.59,-0.025
2021-08-19 15:34:55.548,0.525,-0.11
2021-08-19 15:34:55.552,0.26,-0.19
2021-08-19 15:34:55.556,-0.075,-0.25
2021-08-19 15:34:55.560,-0.425,-0.32
2021-08-19 15:34:55.564,-0.615,-0.36
2021-08-19 15:34:55.568,-0.675,-0.34
2021-08-19 15:34:55.572,-0.65,-0.32
2021-08-19 15:34:55.576,-0.585,-0.26
2021-08-19 15:34:55.580,-0.465,-0.17
2021-08-19 15:34:55.584,-0.37,-0.1
2021-08-19 15:34:55.588,-0.31,-0.02
2021-08-19 15:34:55.592,-0.285,0.055
2021-08-19 15:34:55.596,-0.28,0.095
2021-08-19 15:34:55.600,-0.275,0.11
2021-08-19 15:34:55.604,-0.275,0.125
2021-08-19 15:34:55.608,-0.285,0.11
2021-08-19 15:34:55.612,-0.265,0.115
2021-08-19 15:34:55.616,-0.285,0.11
2021-08-19 15:34:55.620,-0.28,0.09
2021-08-19 15:34:55.624,-0.275,0.085
2021-08-19 15:34:55.628,-0.275,0.075
2021-08-19 15:34:55.632,-0.27,0.085
2021-08-19 15:34:55.636,-0.26,0.085
2021-08-19 15:34:55.640,-0.265,0.06
2021-08-19 15:34:55.644,-0.27,0.06
2021-08-19 15:34:55.648,-0.265,0.065
2021-08-19 15:34:55.652,-0.255,0.06
2021-08-19 15:34:55.656,-0.26,0.065
2021-08-19 15:34:55.660,-0.265,0.055
2021-08-19 15:34:55.664,-0.265,0.055
2021-08-19 15:34:55.668,-0.265,0.07
2021-08-19 15:34:55.672,-0.275,0.06
2021-08-19 15:34:55.676,-0.255,0.06
2021-08-19 15:34:55.680,-0.26,0.06
2021-08-19 15:34:55.684,-0.255,0.055
2021-08-19 15:34:55.688,-0.25,0.065
2021-08-19 15:34:55.692,-0.27,0.06
2021-08-19 15:34:55.696,-0.25,0.06
2021-08-19 15:34:55.700,-0.255,0.065
2021-08-19 15:34:55.704,-0.25,0.07
2021-08-19 15:34:55.708,-0.25,0.07
2021-08-19 15:34:55.712,-0.24,0.07
2021-08-19 15:34:55.716,-0.235,0.08
2021-08-19 15:34:55.720,-0.22,0.075
2021-08-19 15:34:55.724,-0.24,0.07
2021-08-19 15:34:55.728,-0.23,0.08
2021-08-19 15:34:55.732,-0.225,0.085
2021-08-19 15:34:55.736,-0.215,0.1
2021-08-19 15:34:55.740,-0.225,0.085
2021-08-19 15:34:55.744,-0.23,0.09
2021-08-19 15:34:55.748,-0.205,0.09
2021-08-19 15:34:55.752,-0.195,0.105
2021-08-19 15:34:55.756,-0.2,0.095
2021-08-19 15:34:55.760,-0.18,0.1
2021-08-19 15:34:55.764,-0.185,0.11
2021-08-19 15:34:55.768,-0.175,0.115
2021-08-19 15:34:55.772,-0.16,0.115
2021-08-19 15:34:55.776,-0.185,0.1
2021-08-19 15:34:55.780,-0.175,0.115
2021-08-19 15:34:55.784,-0.165,0.095
2021-08-19 15:34:55.788,-0.18,0.1
2021-08-19 15:34:55.792,-0.175,0.1
2021-08-19 15:34:55.796,-0.16,0.105
2021-08-19 15:34:55.800,-0.165,0.1
2021-08-19 15:34:55.804,-0.165,0.09
2021-08-19 15:34:55.808,-0.15,0.1
2021-08-19 15:34:55.812,-0.135,0.09
2021-08-19 15:34:55.816,-0.15,0.1
2021-08-19 15:34:55.820,-0.14,0.08
2021-08-19 15:34:55.824,-0.145,0.085
2021-08-19 15:34:55.828,-0.12,0.09
2021-08-19 15:34:55.832,-0.13,0.085
2021-08-19 15:34:55.836,-0.12,0.085
2021-08-19 15:34:55.840,-0.13,0.095
2021-08-19 15:34:55.844,-0.12,0.09
2021-08-19 15:34:55.848,-0.105,0.08
2021-08-19 15:34:55.852,-0.11,0.085
2021-08-19 15:34:55.856,-0.115,0.09
2021-08-19 15:34:55.860,-0.11,0.08
2021-08-19 15:34:55.864,-0.125,0.08
2021-08-19 15:34:55.868,-0.115,0.065
2021-08-19 15:34:55.872,-0.12,0.065
2021-08-19 15:34:55.876,-0.11,0.08
2021-08-19 15:34:55.880,-0.12,0.075
2021-08-19 15:34:55.884,-0.12,0.07
2021-08-19 15:34:55.888,-0.14,0.08
2021-08-19 15:34:55.892,-0.145,0.065
2021-08-19 15:34:55.896,-0.155,0.055
2021-08-19 15:34:55.900,-0.16,0.055
2021-08-19 15:34:55.904,-0.16,0.07
2021-08-19 15:34:55.908,-0.155,0.06
2021-08-19 15:34:55.912,-0.16,0.06
2021-08-19 15:34:55.916,-0.175,0.07
2021-08-19 15:34:55.920,-0.16,0.05
2021-08-19 15:34:55.924,-0.15,0.045
2021-08-19 15:34:55.928,-0.175,0.055
2021-08-19 15:34:55.932,-0.18,0.05
2021-08-19 15:34:55.936,-0.17,0.045
2021-08-19 15:34:55.940,-0.175,0.05
2021-08-19 15:34:55.944,-0.18,0.045
2021-08-19 15:34:55.948,-0.185,0.045
2021-08-19 15:34:55.952,-0.18,0.045
2021-08-19 15:34:55.956,-0.165,0.05
2021-08-19 15:34:55.960,-0.18,0.045
2021-08-19 15:34:55.964,-0.185,0.04
2021-08-19 15:34:55.968,-0.19,0.05
2021-08-19 15:34:55.972,-0.18,0.025
2021-08-19 15:34:55.976,-0.185,0.04
2021-08-19 15:34:55.980,-0.175,0.04
2021-08-19 15:34:55.984,-0.175,0.05
2021-08-19 15:34:55.988,-0.175,0.04
2021-08-19 15:34:55.992,-0.155,0.04
2021-08-19 15:34:55.996,-0.17,0.055
2021-08-19 15:34:56.000,-0.17,0.05
2021-08-19 15:34:56.004,-0.16,0.045
2021-08-19 15:34:56.008,-0.18,0.05
2021-08-19 15:34:56.012,-0.175,0.04
2021-08-19 15:34:56.016,-0.16,0.04
2021-08-19 15:34:56.020,-0.165,0.05
2021-08-19 15:34:56.024,-0.165,0.045
2021-08-19 15:34:56.028,-0.155,0.06
2021-08-19 15:34:56.032,-0.16,0.05
2021-08-19 15:34:56.036,-0.15,0.05
2021-08-19 15:34:56.040,-0.15,0.06
2021-08-19 15:34:56.044,-0.155,0.065
2021-08-19 15:34:56.048,-0.155,0.06
2021-08-19 15:34:56.052,-0.15,0.07
2021-08-19 15:34:56.056,-0.145,0.06
2021-08-19 15:34:56.060,-0.16,0.055
2021-08-19 15:34:56.064,-0.145,0.07
2021-08-19 15:34:56.068,-0.16,0.05
2021-08-19 15:34:56.072,-0.15,0.055
2021-08-19 15:34:56.076,-0.16,0.045
2021-08-19 15:34:56.080,-0.165,0.055
2021-08-19 15:34:56.084,-0.17,0.05
2021-08-19 15:34:56.088,-0.15,0.055
2021-08-19 15:34:56.092,-0.16,0.075
2021-08-19 15:34:56.096,-0.165,0.055
2021-08-19 15:34:56.100,-0.165,0.06
2021-08-19 15:34:56.104,-0.16,0.08
2021-08-19 15:34:56.108,-0.17,0.06
2021-08-19 15:34:56.112,-0.17,0.06
2021-08-19 15:34:56.116,-0.175,0.055
2021-08-19 15:34:56.120,-0.16,0.065
2021-08-19 15:34:56.124,-0.16,0.055
2021-08-19 15:34:56.128,-0.18,0.045
2021-08-19 15:34:56.132,-0.185,0.055
2021-08-19 15:34:56.136,-0.185,0.05
2021-08-19 15:34:56.140,-0.175,0.045
2021-08-19 15:34:56.144,-0.18,0.055
2021-08-19 15:34:56.148,-0.175,0.06
2021-08-19 15:34:56.152,-0.165,0.06
2021-08-19 15:34:56.156,-0.175,0.06
2021-08-19 15:34:56.160,-0.18,0.04
2021-08-19 15:34:56.164,-0.195,0.05
2021-08-19 15:34:56.168,-0.19,0.045
2021-08-19 15:34:56.172,-0.19,0.045
2021-08-19 15:34:56.176,-0.17,0.04
2021-08-19 15:34:56.180,-0.195,0.04
2021-08-19 15:34:56.184,-0.2,0.04
2021-08-19 15:34:56.188,-0.2,0.04
2021-08-19 15:34:56.192,-0.19,0.045
2021-08-19 15:34:56.196,-0.185,0.05
2021-08-19 15:34:56.200,-0.18,0.055
2021-08-19 15:34:56.204,-0.175,0.065
2021-08-19 15:34:56.208,-0.185,0.065
2021-08-19 15:34:56.212,-0.18,0.045
2021-08-19 15:34:56.216,-0.185,0.05
2021-08-19 15:34:56.220,-0.19,0.04
2021-08-19 15:34:56.224,-0.19,0.035
2021-08-19 15:34:56.228,-0.19,0.035
2021-08-19 15:34:56.232,-0.19,0.04
2021-08-19 15:34:56.236,-0.19,0.04
2021-08-19 15:34:56.240,-0.2,0.035
2021-08-19 15:34:56.244,-0.19,0.035
2021-08-19 15:34:56.248,-0.185,0.04
2021-08-19 15:34:56.252,-0.195,0.04
2021-08-19 15:34:56.256,-0.195,0.035
2021-08-19 15:34:56.260,-0.195,0.045
2021-08-19 15:34:56.264,-0.18,0.035
2021-08-19 15:34:56.268,-0.21,0.04
2021-08-19 15:34:56.272,-0.19,0.03
2021-08-19 15:34:56.276,-0.2,0.02
2021-08-19 15:34:56.280,-0.19,0.015
2021-08-19 15:34:56.284,-0.205,0.02
2021-08-19 15:34:56.288,-0.19,0.02
2021-08-19 15:34:56.292,-0.2,0.015
2021-08-19 15:34:56.296,-0.2,0.025
2021-08-19 15:34:56.300,-0.195,0.025
2021-08-19 15:34:56.304,-0.185,0.01
2021-08-19 15:34:56.308,-0.2,0.01
2021-08-19 15:34:56.312,-0.195,0.015
2021-08-19 15:34:56.316,-0.2,0.01
2021-08-19 15:34:56.320,-0.2,0.02
2021-08-19 15:34:56.324,-0.195,0.015
2021-08-19 15:34:56.328,-0.205,0.015
2021-08-19 15:34:56.332,-0.21,0.015
2021-08-19 15:34:56.336,-0.2,0.025
2021-08-19 15:34:56.340,-0.2,0.02
2021-08-19 15:34:56.344,-0.2,0.015
2021-08-19 15:34:56.348,-0.195,0.015
2021-08-19 15:34:56.352,-0.195,0.015
2021-08-19 15:34:56.356,-0.205,0.01
2021-08-19 15:34:56.360,-0.19,0.01
2021-08-19 15:34:56.364,-0.2,0.02
2021-08-19 15:34:56.368,-0.21,0.005
2021-08-19 15:34:56.372,-0.215,0.01
2021-08-19 15:34:56.376,-0.19,0.01
2021-08-19 15:34:56.380,-0.195,0.02
2021-08-19 15:34:56.384,-0.19,0.03
2021-08-19 15:34:56.388,-0.195,0.03
2021-08-19 15:34:56.392,-0.215,0.025
2021-08-19 15:34:56.396,-0.195,0.03
2021-08-19 15:34:56.400,-0.21,0.02
2021-08-19 15:34:56.404,-0.21,0.015
2021-08-19 15:34:56.408,-0.195,0.025
2021-08-19 15:34:56.412,-0.2,0.02
2021-08-19 15:34:56.416,-0.2,0.015
2021-08-19 15:34:56.420,-0.21,0.02
2021-08-19 15:34:56.424,-0.195,0.02
2021-08-19 15:34:56.428,-0.205,0.015
2021-08-19 15:34:56.432,-0.21,0.025
2021-08-19 15:34:56.436,-0.22,0.02
2021-08-19 15:34:56.440,-0.185,0.015
2021-08-19 15:34:56.444,-0.2,0.005
2021-08-19 15:34:56.448,-0.21,0.015
2021-08-19 15:34:56.452,-0.2,0.035
2021-08-19 15:34:56.456,-0.21,0.015
2021-08-19 15:34:56.460,-0.2,0.035
2021-08-19 15:34:56.464,-0.2,0.025
2021-08-19 15:34:56.468,-0.175,0.025
2021-08-19 15:34:56.472,-0.18,0.015
2021-08-19 15:34:56.476,-0.18,0.035
2021-08-19 15:34:56.480,-0.18,0.045
2021-08-19 15:34:56.484,-0.16,0.05
2021-08-19 15:34:56.488,-0.155,0.055
2021-08-19 15:34:56.492,-0.16,0.055
2021-08-19 15:34:56.496,-0.16,0.045
2021-08-19 15:34:56.500,-0.16,0.045
2021-08-19 15:34:56.504,-0.16,0.045
2021-08-19 15:34:56.508,-0.16,0.04
2021-08-19 15:34:56.512,-0.175,0.005
2021-08-19 15:34:56.516,-0.18,0.02
2021-08-19 15:34:56.520,-0.2,0.0
2021-08-19 15:34:56.524,-0.19,0.0
2021-08-19 15:34:56.528,-0.175,0.0
2021-08-19 15:34:56.532,-0.18,-0.005
2021-08-19 15:34:56.536,-0.185,0.005
2021-08-19 15:34:56.540,-0.17,-0.01
2021-08-19 15:34:56.544,-0.18,0.01
2021-08-19 15:34:56.548,-0.185,0.0
2021-08-19 15:34:56.552,-0.185,-0.01
2021-08-19 15:34:56.556,-0.175,0.0
2021-08-19 15:34:56.560,-0.17,-0.01
2021-08-19 15:34:56.564,-0.175,0.005
2021-08-19 15:34:56.568,-0.18,0.0
2021-08-19 15:34:56.572,-0.175,0.015
2021-08-19 15:34:56.576,-0.175,0.015
2021-08-19 15:34:56.580,-0.17,0.03
2021-08-19 15:34:56.584,-0.185,0.03
2021-08-19 15:34:56.588,-0.205,0.03
2021-08-19 15:34:56.592,-0.21,0.025
2021-08-19 15:34:56.596,-0.215,0.035
2021-08-19 15:34:56.600,-0.215,0.035
2021-08-19 15:34:56.604,-0.2,0.035
2021-08-19 15:34:56.608,-0.205,0.02
2021-08-19 15:34:56.612,-0.205,0.02
2021-08-19 15:34:56.616,-0.205,0.03
2021-08-19 15:34:56.620,-0.19,0.04
2021-08-19 15:34:56.624,-0.21,0.01
2021-08-19 15:34:56.628,-0.21,0.015
2021-08-19 15:34:56.632,-0.18,0.03
2021-08-19 15:34:56.636,-0.205,0.025
2021-08-19 15:34:56.640,-0.205,0.025
2021-08-19 15:34:56.644,-0.19,0.015
2021-08-19 15:34:56.648,-0.2,0.02
2021-08-19 15:34:56.652,-0.215,0.02
2021-08-19 15:34:56.656,-0.19,0.03
2021-08-19 15:34:56.660,-0.16,0.045
2021-08-19 15:34:56.664,-0.08,0.05
2021-08-19 15:34:56.668,0.06,0.06
2021-08-19 15:34:56.672,0.235,0.045
2021-08-19 15:34:56.676,0.405,0.03
2021-08-19 15:34:56.680,0.565,0.01
2021-08-19 15:34:56.684,0.64,-0.005
2021-08-19 15:34:56.688,0.58,-0.07
2021-08-19 15:34:56.692,0.335,-0.155
2021-08-19 15:34:56.696,-0.01,-0.23
2021-08-19 15:34:56.700,-0.385,-0.315
2021-08-19 15:34:56.704,-0.605,-0.345
2021-08-19 15:34:56.708,-0.665,-0.35
2021-08-19 15:34:56.712,-0.65,-0.325
2021-08-19 15:34:56.716,-0.565,-0.255
2021-08-19 15:34:56.720,-0.46,-0.195
2021-08-19 15:34:56.724,-0.35,-0.11
2021-08-19 15:34:56.728,-0.295,-0.03
2021-08-19 15:34:56.732,-0.26,0.03
2021-08-19 15:34:56.736,-0.26,0.08
2021-08-19 15:34:56.740,-0.245,0.085
2021-08-19 15:34:56.744,-0.275,0.09
2021-08-19 15:34:56.748,-0.26,0.105
2021-08-19 15:34:56.752,-0.255,0.09
2021-08-19 15:34:56.756,-0.27,0.075
2021-08-19 15:34:56.760,-0.26,0.075
2021-08-19 15:34:56.764,-0.25,0.07
2021-08-19 15:34:56.768,-0.245,0.07
2021-08-19 15:34:56.772,-0.25,0.075
2021-08-19 15:34:56.776,-0.245,0.08
2021-08-19 15:34:56.780,-0.245,0.08
2021-08-19 15:34:56.784,-0.255,0.085
2021-08-19 15:34:56.788,-0.25,0.075
2021-08-19 15:34:56.792,-0.245,0.08
2021-08-19 15:34:56.796,-0.255,0.065
2021-08-19 15:34:56.800,-0.25,0.065
2021-08-19 15:34:56.804,-0.24,0.06
2021-08-19 15:34:56.808,-0.24,0.08
2021-08-19 15:34:56.812,-0.235,0.06
2021-08-19 15:34:56.816,-0.255,0.07
2021-08-19 15:34:56.820,-0.23,0.075
2021-08-19 15:34:56.824,-0.24,0.08
2021-08-19 15:34:56.828,-0.235,0.07
2021-08-19 15:34:56.832,-0.225,0.07
2021-08-19 15:34:56.836,-0.23,0.07
2021-08-19 15:34:56.840,-0.225,0.07
2021-08-19 15:34:56.844,-0.225,0.07
2021-08-19 15:34:56.848,-0.22,0.07
2021-08-19 15:34:56.852,-0.205,0.075
2021-08-19 15:34:56.856,-0.215,0.075
2021-08-19 15:34:56.860,-0.2,0.075
2021-08-19 15:34:56.864,-0.215,0.085
2021-08-19 15:34:56.868,-0.195,0.1
2021-08-19 15:34:56.872,-0.21,0.105
2021-08-19 15:34:56.876,-0.185,0.11
2021-08-19 15:34:56.880,-0.185,0.11
2021-08-19 15:34:56.884,-0.18,0.1
2021-08-19 15:34:56.888,-0.185,0.1
2021-08-19 15:34:56.892,-0.17,0.105
2021-08-19 15:34:56.896,-0.165,0.1
2021-08-19 15:34:56.900,-0.17,0.125
2021-08-19 15:34:56.904,-0.165,0.11
2021-08-19 15:34:56.908,-0.155,0.105
2021-08-19 15:34:56.912,-0.145,0.105
2021-08-19 15:34:56.916,-0.155,0.11
2021-08-19 15:34:56.920,-0.145,0.115
2021-08-19 15:34:56.924,-0.145,0.095
2021-08-19 15:34:56.928,-0.16,0.095
2021-08-19 15:34:56.932,-0.145,0.09
2021-08-19 15:34:56.936,-0.155,0.095
2021-08-19 15:34:56.940,-0.155,0.105
2021-08-19 15:34:56.944,-0.155,0.1
2021-08-19 15:34:56.948,-0.135,0.09
2021-08-19 15:34:56.952,-0.14,0.085
2021-08-19 15:34:56.956,-0.125,0.09
2021-08-19 15:34:56.960,-0.125,0.085
2021-08-19 15:34:56.964,-0.13,0.08
2021-08-19 15:34:56.968,-0.125,0.085
2021-08-19 15:34:56.972,-0.12,0.085
2021-08-19 15:34:56.976,-0.125,0.07
2021-08-19 15:34:56.980,-0.12,0.07
2021-08-19 15:34:56.984,-0.11,0.075
2021-08-19 15:34:56.988,-0.12,0.07
2021-08-19 15:34:56.992,-0.12,0.07
2021-08-19 15:34:56.996,-0.105,0.065
2021-08-19 15:34:57.000,-0.12,0.07
2021-08-19 15:34:57.004,-0.12,0.065
2021-08-19 15:34:57.008,-0.11,0.07
2021-08-19 15:34:57.012,-0.12,0.07
2021-08-19 15:34:57.016,-0.125,0.065
2021-08-19 15:34:57.020,-0.13,0.06
2021-08-19 15:34:57.024,-0.14,0.06
2021-08-19 15:34:57.028,-0.135,0.04
2021-08-19 15:34:57.032,-0.15,0.04
2021-08-19 15:34:57.036,-0.155,0.065
2021-08-19 15:34:57.040,-0.16,0.055
2021-08-19 15:34:57.044,-0.16,0.03
2021-08-19 15:34:57.048,-0.155,0.045
2021-08-19 15:34:57.052,-0.15,0.05
2021-08-19 15:34:57.056,-0.175,0.035
2021-08-19 15:34:57.060,-0.17,0.04
2021-08-19 15:34:57.064,-0.17,0.04
2021-08-19 15:34:57.068,-0.185,0.045
2021-08-19 15:34:57.072,-0.195,0.035
2021-08-19 15:34:57.076,-0.175,0.04
2021-08-19 15:34:57.080,-0.18,0.05
2021-08-19 15:34:57.084,-0.185,0.045
2021-08-19 15:34:57.088,-0.185,0.045
2021-08-19 15:34:57.092,-0.18,0.04
2021-08-19 15:34:57.096,-0.18,0.045
2021-08-19 15:34:57.100,-0.17,0.04
2021-08-19 15:34:57.104,-0.17,0.05
2021-08-19 15:34:57.108,-0.175,0.05
2021-08-19 15:34:57.112,-0.175,0.04
2021-08-19 15:34:57.116,-0.18,0.03
2021-08-19 15:34:57.120,-0.165,0.03
2021-08-19 15:34:57.124,-0.17,0.035
2021-08-19 15:34:57.128,-0.18,0.045
2021-08-19 15:34:57.132,-0.175,0.03
2021-08-19 15:34:57.136,-0.175,0.035
2021-08-19 15:34:57.140,-0.16,0.04
2021-08-19 15:34:57.144,-0.155,0.04
2021-08-19 15:34:57.148,-0.165,0.03
2021-08-19 15:34:57.152,-0.175,0.045
2021-08-19 15:34:57.156,-0.165,0.045
2021-08-19 15:34:57.160,-0.165,0.03
2021-08-19 15:34:57.164,-0.18,0.055
2021-08-19 15:34:57.168,-0.18,0.045
2021-08-19 15:34:57.172,-0.17,0.035
2021-08-19 15:34:57.176,-0.18,0.035
2021-08-19 15:34:57.180,-0.17,0.04
2021-08-19 15:34:57.184,-0.17,0.035
2021-08-19 15:34:57.188,-0.18,0.05
2021-08-19 15:34:57.192,-0.18,0.055
2021-08-19 15:34:57.196,-0.195,0.045
2021-08-19 15:34:57.200,-0.175,0.05
2021-08-19 15:34:57.204,-0.17,0.045
2021-08-19 15:34:57.208,-0.165,0.055
2021-08-19 15:34:57.212,-0.175,0.045
2021-08-19 15:34:57.216,-0.17,0.045
2021-08-19 15:34:57.220,-0.175,0.055
2021-08-19 15:34:57.224,-0.18,0.045
2021-08-19 15:34:57.228,-0.175,0.045
2021-08-19 15:34:57.232,-0.18,0.04
2021-08-19 15:34:57.236,-0.175,0.05
2021-08-19 15:34:57.240,-0.18,0.065
2021-08-19 15:34:57.244,-0.18,0.06
2021-08-19 15:34:57.248,-0.18,0.045
2021-08-19 15:34:57.252,-0.17,0.05
2021-08-19 15:34:57.256,-0.185,0.055
2021-08-19 15:34:57.260,-0.195,0.045
2021-08-19 15:34:57.264,-0.19,0.05
2021-08-19 15:34:57.268,-0.19,0.05
2021-08-19 15:34:57.272,-0.18,0.04
2021-08-19 15:34:57.276,-0.19,0.04
2021-08-19 15:34:57.280,-0.2,0.04
2021-08-19 15:34:57.284,-0.2,0.05
2021-08-19 15:34:57.288,-0.195,0.035
2021-08-19 15:34:57.292,-0.205,0.045
2021-08-19 15:34:57.296,-0.21,0.04
2021-08-19 15:34:57.300,-0.21,0.04
2021-08-19 15:34:57.304,-0.215,0.045
2021-08-19 15:34:57.308,-0.205,0.045
2021-08-19 15:34:57.312,-0.2,0.04
2021-08-19 15:34:57.316,-0.2,0.035
2021-08-19 15:34:57.320,-0.2,0.025
2021-08-19 15:34:57.324,-0.2,0.03
2021-08-19 15:34:57.328,-0.215,0.03
2021-08-19 15:34:57.332,-0.21,0.03
2021-08-19 15:34:57.336,-0.2,0.035
2021-08-19 15:34:57.340,-0.195,0.055
2021-08-19 15:34:57.344,-0.205,0.04
2021-08-19 15:34:57.348,-0.195,0.035
2021-08-19 15:34:57.352,-0.2,0.035
2021-08-19 15:34:57.356,-0.19,0.04
2021-08-19 15:34:57.360,-0.21,0.04
2021-08-19 15:34:57.364,-0.205,0.03
2021-08-19 15:34:57.368,-0.205,0.04
2021-08-19 15:34:57.372,-0.185,0.045
2021-08-19 15:34:57.376,-0.205,0.04
2021-08-19 15:34:57.380,-0.18,0.04
2021-08-19 15:34:57.384,-0.19,0.03
2021-08-19 15:34:57.388,-0.225,0.03
2021-08-19 15:34:57.392,-0.205,0.04
2021-08-19 15:34:57.396,-0.195,0.055
2021-08-19 15:34:57.400,-0.2,0.045
2021-08-19 15:34:57.404,-0.2,0.05
2021-08-19 15:34:57.408,-0.195,0.04
2021-08-19 15:34:57.412,-0.195,0.04
2021-08-19 15:34:57.416,-0.2,0.035
2021-08-19 15:34:57.420,-0.19,0.035
2021-08-19 15:34:57.424,-0.205,0.03
2021-08-19 15:34:57.428,-0.205,0.02
2021-08-19 15:34:57.432,-0.19,0.03
2021-08-19 15:34:57.436,-0.19,0.03
2021-08-19 15:34:57.440,-0.185,0.035
2021-08-19 15:34:57.444,-0.21,0.025
2021-08-19 15:34:57.448,-0.2,0.025
2021-08-19 15:34:57.452,-0.21,0.035
2021-08-19 15:34:57.456,-0.205,0.035
2021-08-19 15:34:57.460,-0.2,0.045
2021-08-19 15:34:57.464,-0.2,0.025
2021-08-19 15:34:57.468,-0.2,0.035
2021-08-19 15:34:57.472,-0.18,0.03
2021-08-19 15:34:57.476,-0.2,0.045
2021-08-19 15:34:57.480,-0.19,0.02
2021-08-19 15:34:57.484,-0.21,0.045
2021-08-19 15:34:57.488,-0.185,0.055
2021-08-19 15:34:57.492,-0.195,0.06
2021-08-19 15:34:57.496,-0.19,0.05
2021-08-19 15:34:57.500,-0.205,0.055
2021-08-19 15:34:57.504,-0.195,0.045
2021-08-19 15:34:57.508,-0.19,0.04
2021-08-19 15:34:57.512,-0.195,0.035
2021-08-19 15:34:57.516,-0.185,0.045
2021-08-19 15:34:57.520,-0.2,0.045
2021-08-19 15:34:57.524,-0.18,0.04
2021-08-19 15:34:57.528,-0.19,0.035
2021-08-19 15:34:57.532,-0.205,0.05
2021-08-19 15:34:57.536,-0.21,0.035
2021-08-19 15:34:57.540,-0.195,0.035
2021-08-19 15:34:57.544,-0.185,0.045
2021-08-19 15:34:57.548,-0.185,0.055
2021-08-19 15:34:57.552,-0.21,0.04
2021-08-19 15:34:57.556,-0.205,0.055
2021-08-19 15:34:57.560,-0.195,0.05
2021-08-19 15:34:57.564,-0.2,0.05
2021-08-19 15:34:57.568,-0.18,0.05
2021-08-19 15:34:57.572,-0.195,0.045
2021-08-19 15:34:57.576,-0.175,0.035
2021-08-19 15:34:57.580,-0.195,0.055
2021-08-19 15:34:57.584,-0.215,0.06
2021-08-19 15:34:57.588,-0.2,0.05
2021-08-19 15:34:57.592,-0.21,0.05
2021-08-19 15:34:57.596,-0.2,0.055
2021-08-19 15:34:57.600,-0.19,0.055
2021-08-19 15:34:57.604,-0.185,0.055
2021-08-19 15:34:57.608,-0.18,0.065
2021-08-19 15:34:57.612,-0.17,0.055
2021-08-19 15:34:57.616,-0.16,0.06
2021-08-19 15:34:57.620,-0.165,0.055
2021-08-19 15:34:57.624,-0.15,0.07
2021-08-19 15:34:57.628,-0.16,0.07
2021-08-19 15:34:57.632,-0.15,0.085
2021-08-19 15:34:57.636,-0.17,0.085
2021-08-19 15:34:57.640,-0.145,0.09
2021-08-19 15:34:57.644,-0.135,0.07
2021-08-19 15:34:57.648,-0.14,0.065
2021-08-19 15:34:57.652,-0.165,0.055
2021-08-19 15:34:57.656,-0.155,0.065
2021-08-19 15:34:57.660,-0.165,0.045
2021-08-19 15:34:57.664,-0.17,0.045
2021-08-19 15:34:57.668,-0.18,0.03
2021-08-19 15:34:57.672,-0.165,0.025
2021-08-19 15:34:57.676,-0.17,0.04
2021-08-19 15:34:57.680,-0.16,0.03
2021-08-19 15:34:57.684,-0.18,0.015
2021-08-19 15:34:57.688,-0.18,0.02
2021-08-19 15:34:57.692,-0.18,0.03
2021-08-19 15:34:57.696,-0.175,0.03
2021-08-19 15:34:57.700,-0.18,0.02
2021-08-19 15:34:57.704,-0.175,0.04
2021-08-19 15:34:57.708,-0.17,0.025
2021-08-19 15:34:57.712,-0.155,0.045
2021-08-19 15:34:57.716,-0.17,0.035
2021-08-19 15:34:57.720,-0.16,0.05
2021-08-19 15:34:57.724,-0.17,0.055
2021-08-19 15:34:57.728,-0.18,0.055
2021-08-19 15:34:57.732,-0.18,0.065
2021-08-19 15:34:57.736,-0.175,0.07
2021-08-19 15:34:57.740,-0.195,0.06
2021-08-19 15:34:57.744,-0.2,0.055
2021-08-19 15:34:57.748,-0.2,0.055
2021-08-19 15:34:57.752,-0.185,0.055
2021-08-19 15:34:57.756,-0.195,0.07
2021-08-19 15:34:57.760,-0.185,0.065
2021-08-19 15:34:57.764,-0.19,0.05
2021-08-19 15:34:57.768,-0.19,0.06
2021-08-19 15:34:57.772,-0.185,0.065
2021-08-19 15:34:57.776,-0.19,0.065
2021-08-19 15:34:57.780,-0.185,0.04
2021-08-19 15:34:57.784,-0.165,0.06
2021-08-19 15:34:57.788,-0.17,0.045
2021-08-19 15:34:57.792,-0.18,0.06
2021-08-19 15:34:57.796,-0.185,0.055
2021-08-19 15:34:57.800,-0.18,0.05
2021-08-19 15:34:57.804,-0.135,0.06
2021-08-19 15:34:57.808,-0.045,0.085
2021-08-19 15:34:57.812,0.075,0.095
2021-08-19 15:34:57.816,0.26,0.075
2021-08-19 15:34:57.820,0.435,0.055
2021-08-19 15:34:57.824,0.565,0.04
2021-08-19 15:34:57.828,0.67,0.02
2021-08-19 15:34:57.832,0.65,-0.045
2021-08-19 15:34:57.836,0.42,-0.125
2021-08-19 15:34:57.840,0.075,-0.2
2021-08-19 15:34:57.844,-0.29,-0.26
2021-08-19 15:34:57.848,-0.56,-0.33
2021-08-19 15:34:57.852,-0.65,-0.35
2021-08-19 15:34:57.856,-0.64,-0.32
2021-08-19 15:34:57.860,-0.545,-0.26
2021-08-19 15:34:57.864,-0.445,-0.17
2021-08-19 15:34:57.868,-0.34,-0.075
2021-08-19 15:34:57.872,-0.27,-0.02
2021-08-19 15:34:57.876,-0.23,0.05
2021-08-19 15:34:57.880,-0.22,0.105
2021-08-19 15:34:57.884,-0.22,0.13
2021-08-19 15:34:57.888,-0.23,0.14
2021-08-19 15:34:57.892,-0.215,0.12
2021-08-19 15:34:57.896,-0.24,0.12
2021-08-19 15:34:57.900,-0.225,0.12
2021-08-19 15:34:57.904,-0.225,0.1
2021-08-19 15:34:57.908,-0.235,0.115
2021-08-19 15:34:57.912,-0.22,0.12
2021-08-19 15:34:57.916,-0.21,0.1
2021-08-19 15:34:57.920,-0.205,0.105
2021-08-19 15:34:57.924,-0.215,0.1
2021-08-19 15:34:57.928,-0.22,0.095
2021-08-19 15:34:57.932,-0.21,0.09
2021-08-19 15:34:57.936,-0.225,0.095
2021-08-19 15:34:57.940,-0.24,0.09
2021-08-19 15:34:57.944,-0.22,0.09
2021-08-19 15:34:57.948,-0.21,0.09
2021-08-19 15:34:57.952,-0.21,0.09
2021-08-19 15:34:57.956,-0.23,0.075
2021-08-19 15:34:57.960,-0.22,0.085
2021-08-19 15:34:57.964,-0.225,0.095
2021-08-19 15:34:57.968,-0.22,0.095
2021-08-19 15:34:57.972,-0.21,0.085
2021-08-19 15:34:57.976,-0.22,0.08
2021-08-19 15:34:57.980,-0.21,0.075
2021-08-19 15:34:57.984,-0.21,0.075
2021-08-19 15:34:57.988,-0.195,0.08
2021-08-19 15:34:57.992,-0.19,0.08
2021-08-19 15:34:57.996,-0.21,0.08
2021-08-19 15:34:58.000,-0.215,0.09
2021-08-19 15:34:58.004,-0.2,0.09
2021-08-19 15:34:58.008,-0.205,0.075
2021-08-19 15:34:58.012,-0.195,0.085
2021-08-19 15:34:58.016,-0.18,0.075
2021-08-19 15:34:58.020,-0.175,0.085
2021-08-19 15:34:58.024,-0.165,0.09
2021-08-19 15:34:58.028,-0.165,0.105
2021-08-19 15:34:58.032,-0.165,0.09
2021-08-19 15:34:58.036,-0.17,0.1
2021-08-19 15:34:58.040,-0.165,0.1
2021-08-19 15:34:58.044,-0.165,0.125
2021-08-19 15:34:58.048,-0.155,0.115
2021-08-19 15:34:58.052,-0.155,0.115
2021-08-19 15:34:58.056,-0.145,0.115
2021-08-19 15:34:58.060,-0.145,0.12
2021-08-19 15:34:58.064,-0.13,0.11
2021-08-19 15:34:58.068,-0.13,0.09
2021-08-19 15:34:58.072,-0.14,0.105
2021-08-19 15:34:58.076,-0.145,0.11
2021-08-19 15:34:58.080,-0.14,0.095
2021-08-19 15:34:58.084,-0.145,0.105
2021-08-19 15:34:58.088,-0.145,0.085
2021-08-19 15:34:58.092,-0.125,0.115
2021-08-19 15:34:58.096,-0.13,0.095
2021-08-19 15:34:58.100,-0.13,0.085
2021-08-19 15:34:58.104,-0.12,0.075
2021-08-19 15:34:58.108,-0.12,0.08
2021-08-19 15:34:58.112,-0.12,0.09
2021-08-19 15:34:58.116,-0.105,0.085
2021-08-19 15:34:58.120,-0.09,0.07
2021-08-19 15:34:58.124,-0.105,0.075
2021-08-19 15:34:58.128,-0.105,0.075
2021-08-19 15:34:58.132,-0.105,0.065
2021-08-19 15:34:58.136,-0.09,0.06
2021-08-19 15:34:58.140,-0.09,0.065
2021-08-19 15:34:58.144,-0.09,0.085
2021-08-19 15:34:58.148,-0.11,0.075
2021-08-19 15:34:58.152,-0.1,0.08
2021-08-19 15:34:58.156,-0.1,0.07
2021-08-19 15:34:58.160,-0.125,0.075
2021-08-19 15:34:58.164,-0.125,0.075
2021-08-19 15:34:58.168,-0.105,0.08
2021-08-19 15:34:58.172,-0.12,0.07
2021-08-19 15:34:58.176,-0.115,0.055
2021-08-19 15:34:58.180,-0.13,0.065
2021-08-19 15:34:58.184,-0.13,0.065
2021-08-19 15:34:58.188,-0.135,0.06
2021-08-19 15:34:58.192,-0.135,0.06
2021-08-19 15:34:58.196,-0.14,0.065
2021-08-19 15:34:58.200,-0.14,0.065
2021-08-19 15:34:58.204,-0.14,0.07
2021-08-19 15:34:58.208,-0.15,0.06
2021-08-19 15:34:58.212,-0.145,0.065
2021-08-19 15:34:58.216,-0.145,0.065
2021-08-19 15:34:58.220,-0.155,0.06
2021-08-19 15:34:58.224,-0.15,0.075
2021-08-19 15:34:58.228,-0.17,0.065
2021-08-19 15:34:58.232,-0.155,0.07
2021-08-19 15:34:58.236,-0.17,0.06
2021-08-19 15:34:58.240,-0.155,0.06
2021-08-19 15:34:58.244,-0.15,0.07
2021-08-19 15:34:58.248,-0.14,0.06
2021-08-19 15:34:58.252,-0.155,0.065
2021-08-19 15:34:58.256,-0.15,0.055
2021-08-19 15:34:58.260,-0.16,0.05
2021-08-19 15:34:58.264,-0.155,0.055
2021-08-19 15:34:58.268,-0.145,0.05
2021-08-19 15:34:58.272,-0.15,0.06
2021-08-19 15:34:58.276,-0.145,0.06
2021-08-19 15:34:58.280,-0.16,0.06
2021-08-19 15:34:58.284,-0.145,0.055
2021-08-19 15:34:58.288,-0.15,0.045
2021-08-19 15:34:58.292,-0.14,0.055
2021-08-19 15:34:58.296,-0.13,0.055
2021-08-19 15:34:58.300,-0.15,0.07
2021-08-19 15:34:58.304,-0.15,0.055
2021-08-19 15:34:58.308,-0.145,0.05
2021-08-19 15:34:58.312,-0.145,0.06
2021-08-19 15:34:58.316,-0.14,0.05
2021-08-19 15:34:58.320,-0.145,0.07
2021-08-19 15:34:58.324,-0.145,0.06
2021-08-19 15:34:58.328,-0.15,0.045
2021-08-19 15:34:58.332,-0.14,0.055
2021-08-19 15:34:58.336,-0.145,0.07
2021-08-19 15:34:58.340,-0.13,0.055
2021-08-19 15:34:58.344,-0.14,0.055
2021-08-19 15:34:58.348,-0.13,0.055
2021-08-19 15:34:58.352,-0.13,0.04
2021-08-19 15:34:58.356,-0.14,0.035
2021-08-19 15:34:58.360,-0.145,0.025
2021-08-19 15:34:58.364,-0.15,0.045
2021-08-19 15:34:58.368,-0.145,0.045
2021-08-19 15:34:58.372,-0.135,0.06
2021-08-19 15:34:58.376,-0.14,0.04
2021-08-19 15:34:58.380,-0.155,0.045
2021-08-19 15:34:58.384,-0.16,0.04
2021-08-19 15:34:58.388,-0.14,0.055
2021-08-19 15:34:58.392,-0.155,0.06
2021-08-19 15:34:58.396,-0.155,0.05
2021-08-19 15:34:58.400,-0.16,0.045
2021-08-19 15:34:58.404,-0.155,0.045
2021-08-19 15:34:58.408,-0.155,0.04
2021-08-19 15:34:58.412,-0.175,0.05
2021-08-19 15:34:58.416,-0.175,0.06
2021-08-19 15:34:58.420,-0.16,0.05
2021-08-19 15:34:58.424,-0.17,0.035
2021-08-19 15:34:58.428,-0.175,0.05
2021-08-19 15:34:58.432,-0.17,0.045
2021-08-19 15:34:58.436,-0.175,0.055
2021-08-19 15:34:58.440,-0.155,0.045
2021-08-19 15:34:58.444,-0.155,0.04
2021-08-19 15:34:58.448,-0.16,0.045
2021-08-19 15:34:58.452,-0.17,0.035
2021-08-19 15:34:58.456,-0.185,0.045
2021-08-19 15:34:58.460,-0.165,0.05
2021-08-19 15:34:58.464,-0.175,0.06
2021-08-19 15:34:58.468,-0.17,0.04
2021-08-19 15:34:58.472,-0.175,0.04
2021-08-19 15:34:58.476,-0.18,0.035
2021-08-19 15:34:58.480,-0.17,0.055
2021-08-19 15:34:58.484,-0.16,0.055
2021-08-19 15:34:58.488,-0.17,0.05
2021-08-19 15:34:58.492,-0.18,0.045
2021-08-19 15:34:58.496,-0.18,0.05
2021-08-19 15:34:58.500,-0.155,0.06
2021-08-19 15:34:58.504,-0.18,0.06
2021-08-19 15:34:58.508,-0.19,0.05
2021-08-19 15:34:58.512,-0.175,0.055
2021-08-19 15:34:58.516,-0.18,0.06
2021-08-19 15:34:58.520,-0.175,0.05
2021-08-19 15:34:58.524,-0.175,0.06
2021-08-19 15:34:58.528,-0.16,0.07
2021-08-19 15:34:58.532,-0.17,0.055
2021-08-19 15:34:58.536,-0.17,0.045
2021-08-19 15:34:58.540,-0.17,0.045
2021-08-19 15:34:58.544,-0.19,0.055
2021-08-19 15:34:58.548,-0.195,0.05
2021-08-19 15:34:58.552,-0.18,0.05
2021-08-19 15:34:58.556,-0.19,0.055
2021-08-19 15:34:58.560,-0.185,0.045
2021-08-19 15:34:58.564,-0.185,0.045
2021-08-19 15:34:58.568,-0.2,0.03
2021-08-19 15:34:58.572,-0.185,0.035
2021-08-19 15:34:58.576,-0.195,0.055
2021-08-19 15:34:58.580,-0.195,0.045
2021-08-19 15:34:58.584,-0.195,0.04
2021-08-19 15:34:58.588,-0.19,0.035
2021-08-19 15:34:58.592,-0.19,0.04
2021-08-19 15:34:58.596,-0.18,0.055
2021-08-19 15:34:58.600,-0.19,0.05
2021-08-19 15:34:58.604,-0.19,0.045
2021-08-19 15:34:58.608,-0.19,0.045
2021-08-19 15:34:58.612,-0.19,0.06
2021-08-19 15:34:58.616,-0.19,0.05
2021-08-19 15:34:58.620,-0.19,0.055
2021-08-19 15:34:58.624,-0.18,0.045
2021-08-19 15:34:58.628,-0.195,0.045
2021-08-19 15:34:58.632,-0.17,0.045
2021-08-19 15:34:58.636,-0.18,0.045
2021-08-19 15:34:58.640,-0.195,0.055
2021-08-19 15:34:58.644,-0.165,0.055
2021-08-19 15:34:58.648,-0.185,0.05
2021-08-19 15:34:58.652,-0.175,0.055
2021-08-19 15:34:58.656,-0.175,0.045
2021-08-19 15:34:58.660,-0.17,0.04
2021-08-19 15:34:58.664,-0.17,0.055
2021-08-19 15:34:58.668,-0.175,0.045
2021-08-19 15:34:58.672,-0.175,0.05
2021-08-19 15:34:58.676,-0.17,0.05
2021-08-19 15:34:58.680,-0.18,0.06
2021-08-19 15:34:58.684,-0.175,0.055
2021-08-19 15:34:58.688,-0.16,0.05
2021-08-19 15:34:58.692,-0.17,0.06
2021-08-19 15:34:58.696,-0.175,0.05
2021-08-19 15:34:58.700,-0.165,0.05
2021-08-19 15:34:58.704,-0.18,0.04
2021-08-19 15:34:58.708,-0.155,0.05
2021-08-19 15:34:58.712,-0.17,0.055
2021-08-19 15:34:58.716,-0.165,0.055
2021-08-19 15:34:58.720,-0.175,0.06
2021-08-19 15:34:58.724,-0.17,0.055
2021-08-19 15:34:58.728,-0.165,0.06
2021-08-19 15:34:58.732,-0.16,0.05
2021-08-19 15:34:58.736,-0.155,0.055
2021-08-19 15:34:58.740,-0.15,0.065
2021-08-19 15:34:58.744,-0.125,0.06
2021-08-19 15:34:58.748,-0.13,0.065
2021-08-19 15:34:58.752,-0.14,0.075
2021-08-19 15:34:58.756,-0.11,0.095
2021-08-19 15:34:58.760,-0.125,0.085
2021-08-19 15:34:58.764,-0.105,0.085
2021-08-19 15:34:58.768,-0.115,0.075
2021-08-19 15:34:58.772,-0.11,0.08
2021-08-19 15:34:58.776,-0.115,0.06
2021-08-19 15:34:58.780,-0.12,0.065
2021-08-19 15:34:58.784,-0.125,0.055
2021-08-19 15:34:58.788,-0.13,0.05
2021-08-19 15:34:58.792,-0.14,0.045
2021-08-19 15:34:58.796,-0.14,0.055
2021-08-19 15:34:58.800,-0.145,0.06
2021-08-19 15:34:58.804,-0.135,0.06
2021-08-19 15:34:58.808,-0.14,0.065
2021-08-19 15:34:58.812,-0.135,0.035
2021-08-19 15:34:58.816,-0.125,0.045
2021-08-19 15:34:58.820,-0.12,0.045
2021-08-19 15:34:58.824,-0.13,0.05
2021-08-19 15:34:58.828,-0.135,0.045
2021-08-19 15:34:58.832,-0.12,0.055
2021-08-19 15:34:58.836,-0.12,0.06
2021-08-19 15:34:58.840,-0.135,0.075
2021-08-19 15:34:58.844,-0.13,0.08
2021-08-19 15:34:58.848,-0.145,0.075
2021-08-19 15:34:58.852,-0.14,0.085
2021-08-19 15:34:58.856,-0.16,0.09
2021-08-19 15:34:58.860,-0.17,0.075
2021-08-19 15:34:58.864,-0.16,0.08
2021-08-19 15:34:58.868,-0.15,0.08
2021-08-19 15:34:58.872,-0.155,0.09
2021-08-19 15:34:58.876,-0.16,0.085
2021-08-19 15:34:58.880,-0.155,0.07
2021-08-19 15:34:58.884,-0.15,0.07
2021-08-19 15:34:58.888,-0.155,0.07
2021-08-19 15:34:58.892,-0.155,0.075
2021-08-19 15:34:58.896,-0.13,0.065
2021-08-19 15:34:58.900,-0.145,0.09
2021-08-19 15:34:58.904,-0.145,0.075
2021-08-19 15:34:58.908,-0.15,0.065
2021-08-19 15:34:58.912,-0.155,0.08
2021-08-19 15:34:58.916,-0.145,0.075
2021-08-19 15:34:58.920,-0.125,0.08
2021-08-19 15:34:58.924,-0.075,0.1
2021-08-19 15:34:58.928,0.04,0.11
2021-08-19 15:34:58.932,0.205,0.115
2021-08-19 15:34:58.936,0.41,0.085
2021-08-19 15:34:58.940,0.57,0.075
2021-08-19 15:34:58.944,0.685,0.055
2021-08-19 15:34:58.948,0.71,-0.01
2021-08-19 15:34:58.952,0.52,-0.085
2021-08-19 15:34:58.956,0.185,-0.16
2021-08-19 15:34:58.960,-0.215,-0.245
2021-08-19 15:34:58.964,-0.52,-0.305
2021-08-19 15:34:58.968,-0.625,-0.32
2021-08-19 15:34:58.972,-0.64,-0.31
2021-08-19 15:34:58.976,-0.575,-0.27
2021-08-19 15:34:58.980,-0.475,-0.195
2021-08-19 15:34:58.984,-0.345,-0.115
2021-08-19 15:34:58.988,-0.275,-0.02
2021-08-19 15:34:58.992,-0.225,0.055
2021-08-19 15:34:58.996,-0.21,0.11
2021-08-19 15:34:59.000,-0.195,0.14
2021-08-19 15:34:59.004,-0.2,0.135
2021-08-19 15:34:59.008,-0.215,0.16
2021-08-19 15:34:59.012,-0.215,0.15
2021-08-19 15:34:59.016,-0.205,0.145
2021-08-19 15:34:59.020,-0.19,0.125
2021-08-19 15:34:59.024,-0.195,0.14
2021-08-19 15:34:59.028,-0.19,0.12
2021-08-19 15:34:59.032,-0.185,0.115
2021-08-19 15:34:59.036,-0.2,0.12
2021-08-19 15:34:59.040,-0.19,0.115
2021-08-19 15:34:59.044,-0.205,0.115
2021-08-19 15:34:59.048,-0.2,0.09
2021-08-19 15:34:59.052,-0.2,0.11
2021-08-19 15:34:59.056,-0.18,0.105
2021-08-19 15:34:59.060,-0.185,0.09
2021-08-19 15:34:59.064,-0.19,0.105
2021-08-19 15:34:59.068,-0.195,0.1
2021-08-19 15:34:59.072,-0.185,0.1
2021-08-19 15:34:59.076,-0.185,0.11
2021-08-19 15:34:59.080,-0.175,0.09
2021-08-19 15:34:59.084,-0.17,0.09
2021-08-19 15:34:59.088,-0.175,0.095
2021-08-19 15:34:59.092,-0.19,0.095
2021-08-19 15:34:59.096,-0.195,0.1
2021-08-19 15:34:59.100,-0.17,0.1
2021-08-19 15:34:59.104,-0.16,0.085
2021-08-19 15:34:59.108,-0.17,0.095
2021-08-19 15:34:59.112,-0.16,0.105
2021-08-19 15:34:59.116,-0.16,0.105
2021-08-19 15:34:59.120,-0.155,0.115
2021-08-19 15:34:59.124,-0.16,0.115
2021-08-19 15:34:59.128,-0.16,0.115
2021-08-19 15:34:59.132,-0.15,0.12
2021-08-19 15:34:59.136,-0.155,0.125
2021-08-19 15:34:59.140,-0.15,0.13
2021-08-19 15:34:59.144,-0.155,0.13
2021-08-19 15:34:59.148,-0.145,0.12
2021-08-19 15:34:59.152,-0.145,0.13
2021-08-19 15:34:59.156,-0.135,0.14
2021-08-19 15:34:59.160,-0.12,0.145
2021-08-19 15:34:59.164,-0.125,0.14
2021-08-19 15:34:59.168,-0.115,0.135
2021-08-19 15:34:59.172,-0.115,0.125
2021-08-19 15:34:59.176,-0.105,0.125
2021-08-19 15:34:59.180,-0.11,0.115
2021-08-19 15:34:59.184,-0.115,0.125
2021-08-19 15:34:59.188,-0.1,0.12
2021-08-19 15:34:59.192,-0.095,0.11
2021-08-19 15:34:59.196,-0.095,0.115
2021-08-19 15:34:59.200,-0.1,0.105
2021-08-19 15:34:59.204,-0.105,0.105
2021-08-19 15:34:59.208,-0.12,0.095
2021-08-19 15:34:59.212,-0.1,0.1
2021-08-19 15:34:59.216,-0.085,0.115
2021-08-19 15:34:59.220,-0.08,0.095
2021-08-19 15:34:59.224,-0.07,0.105
2021-08-19 15:34:59.228,-0.08,0.105
2021-08-19 15:34:59.232,-0.04,0.095
2021-08-19 15:34:59.236,-0.075,0.08
2021-08-19 15:34:59.240,-0.06,0.085
2021-08-19 15:34:59.244,-0.06,0.08
2021-08-19 15:34:59.248,-0.05,0.095
2021-08-19 15:34:59.252,-0.07,0.085
2021-08-19 15:34:59.256,-0.045,0.075
2021-08-19 15:34:59.260,-0.055,0.075
2021-08-19 15:34:59.264,-0.055,0.09
2021-08-19 15:34:59.268,-0.065,0.09
2021-08-19 15:34:59.272,-0.07,0.08
2021-08-19 15:34:59.276,-0.07,0.065
2021-08-19 15:34:59.280,-0.065,0.075
2021-08-19 15:34:59.284,-0.08,0.085
2021-08-19 15:34:59.288,-0.09,0.085
2021-08-19 15:34:59.292,-0.095,0.07
2021-08-19 15:34:59.296,-0.115,0.045
2021-08-19 15:34:59.300,-0.105,0.06
2021-08-19 15:34:59.304,-0.1,0.06
2021-08-19 15:34:59.308,-0.11,0.055
2021-08-19 15:34:59.312,-0.12,0.075
2021-08-19 15:34:59.316,-0.125,0.06
2021-08-19 15:34:59.320,-0.135,0.06
2021-08-19 15:34:59.324,-0.14,0.055
2021-08-19 15:34:59.328,-0.12,0.06
2021-08-19 15:34:59.332,-0.12,0.07
2021-08-19 15:34:59.336,-0.12,0.065
2021-08-19 15:34:59.340,-0.13,0.055
2021-08-19 15:34:59.344,-0.13,0.06
2021-08-19 15:34:59.348,-0.13,0.065
2021-08-19 15:34:59.352,-0.135,0.06
2021-08-19 15:34:59.356,-0.135,0.08
2021-08-19 15:34:59.360,-0.13,0.075
2021-08-19 15:34:59.364,-0.13,0.075
2021-08-19 15:34:59.368,-0.125,0.065
2021-08-19 15:34:59.372,-0.125,0.07
2021-08-19 15:34:59.376,-0.12,0.07
2021-08-19 15:34:59.380,-0.13,0.08
2021-08-19 15:34:59.384,-0.135,0.085
2021-08-19 15:34:59.388,-0.115,0.075
2021-08-19 15:34:59.392,-0.115,0.065
2021-08-19 15:34:59.396,-0.11,0.07
2021-08-19 15:34:59.400,-0.13,0.075
2021-08-19 15:34:59.404,-0.12,0.09
2021-08-19 15:34:59.408,-0.115,0.08
2021-08-19 15:34:59.412,-0.115,0.07
2021-08-19 15:34:59.416,-0.115,0.065
2021-08-19 15:34:59.420,-0.12,0.075
2021-08-19 15:34:59.424,-0.12,0.08
2021-08-19 15:34:59.428,-0.11,0.1
2021-08-19 15:34:59.432,-0.115,0.085
2021-08-19 15:34:59.436,-0.11,0.075
2021-08-19 15:34:59.440,-0.095,0.085
2021-08-19 15:34:59.444,-0.1,0.085
2021-08-19 15:34:59.448,-0.1,0.07
2021-08-19 15:34:59.452,-0.105,0.085
2021-08-19 15:34:59.456,-0.105,0.075
2021-08-19 15:34:59.460,-0.1,0.085
2021-08-19 15:34:59.464,-0.115,0.075
2021-08-19 15:34:59.468,-0.11,0.085
2021-08-19 15:34:59.472,-0.12,0.08
2021-08-19 15:34:59.476,-0.13,0.085
2021-08-19 15:34:59.480,-0.1,0.07
2021-08-19 15:34:59.484,-0.11,0.075
2021-08-19 15:34:59.488,-0.12,0.085
2021-08-19 15:34:59.492,-0.12,0.08
2021-08-19 15:34:59.496,-0.115,0.07
2021-08-19 15:34:59.500,-0.12,0.065
2021-08-19 15:34:59.504,-0.12,0.07
2021-08-19 15:34:59.508,-0.115,0.09
2021-08-19 15:34:59.512,-0.11,0.075
2021-08-19 15:34:59.516,-0.125,0.085
2021-08-19 15:34:59.520,-0.125,0.085
2021-08-19 15:34:59.524,-0.13,0.07
2021-08-19 15:34:59.528,-0.13,0.065
2021-08-19 15:34:59.532,-0.13,0.075
2021-08-19 15:34:59.536,-0.135,0.085
2021-08-19 15:34:59.540,-0.13,0.08
2021-08-19 15:34:59.544,-0.135,0.065
2021-08-19 15:34:59.548,-0.155,0.065
2021-08-19 15:34:59.552,-0.145,0.06
2021-08-19 15:34:59.556,-0.135,0.065
2021-08-19 15:34:59.560,-0.135,0.06
2021-08-19 15:34:59.564,-0.14,0.055
2021-08-19 15:34:59.568,-0.13,0.045
2021-08-19 15:34:59.572,-0.13,0.055
2021-08-19 15:34:59.576,-0.15,0.065
2021-08-19 15:34:59.580,-0.145,0.07
2021-08-19 15:34:59.584,-0.15,0.065
2021-08-19 15:34:59.588,-0.145,0.06
2021-08-19 15:34:59.592,-0.145,0.07
2021-08-19 15:34:59.596,-0.155,0.07
2021-08-19 15:34:59.600,-0.14,0.075
2021-08-19 15:34:59.604,-0.145,0.075
2021-08-19 15:34:59.608,-0.145,0.07
2021-08-19 15:34:59.612,-0.15,0.065
2021-08-19 15:34:59.616,-0.145,0.06
2021-08-19 15:34:59.620,-0.155,0.06
2021-08-19 15:34:59.624,-0.155,0.055
2021-08-19 15:34:59.628,-0.145,0.065
2021-08-19 15:34:59.632,-0.15,0.07
2021-08-19 15:34:59.636,-0.13,0.06
2021-08-19 15:34:59.640,-0.135,0.06
2021-08-19 15:34:59.644,-0.145,0.065
2021-08-19 15:34:59.648,-0.15,0.06
2021-08-19 15:34:59.652,-0.14,0.05
2021-08-19 15:34:59.656,-0.145,0.055
2021-08-19 15:34:59.660,-0.14,0.065
2021-08-19 15:34:59.664,-0.145,0.06
2021-08-19 15:34:59.668,-0.145,0.065
2021-08-19 15:34:59.672,-0.125,0.075
2021-08-19 15:34:59.676,-0.13,0.07
2021-08-19 15:34:59.680,-0.14,0.075
2021-08-19 15:34:59.684,-0.145,0.065
2021-08-19 15:34:59.688,-0.14,0.06
2021-08-19 15:34:59.692,-0.135,0.055
2021-08-19 15:34:59.696,-0.125,0.07
2021-08-19 15:34:59.700,-0.14,0.07
2021-08-19 15:34:59.704,-0.14,0.06
2021-08-19 15:34:59.708,-0.14,0.06
2021-08-19 15:34:59.712,-0.125,0.07
2021-08-19 15:34:59.716,-0.13,0.07
2021-08-19 15:34:59.720,-0.11,0.06
2021-08-19 15:34:59.724,-0.115,0.065
2021-08-19 15:34:59.728,-0.14,0.065
2021-08-19 15:34:59.732,-0.135,0.06
2021-08-19 15:34:59.736,-0.13,0.065
2021-08-19 15:34:59.740,-0.125,0.08
2021-08-19 15:34:59.744,-0.12,0.075
2021-08-19 15:34:59.748,-0.125,0.06
2021-08-19 15:34:59.752,-0.13,0.065
2021-08-19 15:34:59.756,-0.12,0.07
2021-08-19 15:34:59.760,-0.135,0.07
2021-08-19 15:34:59.764,-0.125,0.075
2021-08-19 15:34:59.768,-0.11,0.085
2021-08-19 15:34:59.772,-0.1,0.06
2021-08-19 15:34:59.776,-0.125,0.055
2021-08-19 15:34:59.780,-0.12,0.07
2021-08-19 15:34:59.784,-0.1,0.08
2021-08-19 15:34:59.788,-0.12,0.075
2021-08-19 15:34:59.792,-0.11,0.075
2021-08-19 15:34:59.796,-0.11,0.085
2021-08-19 15:34:59.800,-0.11,0.075
2021-08-19 15:34:59.804,-0.115,0.09
2021-08-19 15:34:59.808,-0.115,0.09
2021-08-19 15:34:59.812,-0.105,0.09
2021-08-19 15:34:59.816,-0.11,0.08
2021-08-19 15:34:59.820,-0.105,0.08
2021-08-19 15:34:59.824,-0.105,0.095
2021-08-19 15:34:59.828,-0.115,0.09
2021-08-19 15:34:59.832,-0.115,0.07
2021-08-19 15:34:59.836,-0.11,0.075
2021-08-19 15:34:59.840,-0.1,0.08
2021-08-19 15:34:59.844,-0.1,0.085
2021-08-19 15:34:59.848,-0.085,0.09
2021-08-19 15:34:59.852,-0.08,0.09
2021-08-19 15:34:59.856,-0.075,0.09
2021-08-19 15:34:59.860,-0.06,0.1
2021-08-19 15:34:59.864,-0.06,0.105
2021-08-19 15:34:59.868,-0.06,0.1
2021-08-19 15:34:59.872,-0.07,0.095
2021-08-19 15:34:59.876,-0.05,0.115
2021-08-19 15:34:59.880,-0.055,0.105
2021-08-19 15:34:59.884,-0.045,0.095
2021-08-19 15:34:59.888,-0.06,0.09
2021-08-19 15:34:59.892,-0.075,0.08
2021-08-19 15:34:59.896,-0.08,0.07
2021-08-19 15:34:59.900,-0.075,0.065
2021-08-19 15:34:59.904,-0.085,0.06
2021-08-19 15:34:59.908,-0.065,0.055
2021-08-19 15:34:59.912,-0.075,0.065
2021-08-19 15:34:59.916,-0.07,0.05
2021-08-19 15:34:59.920,-0.07,0.055
2021-08-19 15:34:59.924,-0.075,0.04
2021-08-19 15:34:59.928,-0.08,0.05
2021-08-19 15:34:59.932,-0.085,0.05
2021-08-19 15:34:59.936,-0.065,0.055
2021-08-19 15:34:59.940,-0.07,0.065
2021-08-19 15:34:59.944,-0.07,0.08
2021-08-19 15:34:59.948,-0.055,0.085
2021-08-19 15:34:59.952,-0.055,0.095
2021-08-19 15:34:59.956,-0.07,0.085
2021-08-19 15:34:59.960,-0.075,0.085
2021-08-19 15:34:59.964,-0.08,0.095
2021-08-19 15:34:59.968,-0.105,0.11
2021-08-19 15:34:59.972,-0.095,0.115
2021-08-19 15:34:59.976,-0.095,0.1
2021-08-19 15:34:59.980,-0.095,0.095
2021-08-19 15:34:59.984,-0.1,0.09
2021-08-19 15:34:59.988,-0.095,0.095
2021-08-19 15:34:59.992,-0.095,0.11
2021-08-19 15:34:59.996,-0.09,0.1
2021-08-19 15:50:00.000,-0.05,0.005
2021-08-19 15:50:00.004,-0.035,0.01
2021-08-19 15:50:00.008,-0.025,0.02
2021-08-19 15:50:00.012,-0.02,0.01
2021-08-19 15:50:00.016,0.0,0.015
2021-08-19 15:50:00.020,0.0,0.025
2021-08-19 15:50:00.024,0.005,0.025
2021-08-19 15:50:00.028,-0.015,0.005
2021-08-19 15:50:00.032,-0.015,0.01
2021-08-19 15:50:00.036,-0.015,0.02
2021-08-19 15:50:00.040,-0.015,0.0
2021-08-19 15:50:00.044,-0.02,0.01
2021-08-19 15:50:00.048,-0.015,0.0
2021-08-19 15:50:00.052,-0.01,0.0
2021-08-19 15:50:00.056,-0.025,0.0
2021-08-19 15:50:00.060,-0.035,0.01
2021-08-19 15:50:00.064,-0.025,0.015
2021-08-19 15:50:00.068,-0.035,0.0
2021-08-19 15:50:00.072,-0.03,0.015
2021-08-19 15:50:00.076,-0.04,0.0
2021-08-19 15:50:00.080,-0.045,0.01
2021-08-19 15:50:00.084,-0.04,0.0
2021-08-19 15:50:00.088,-0.05,0.0
2021-08-19 15:50:00.092,-0.05,0.0
2021-08-19 15:50:00.096,-0.055,0.0
2021-08-19 15:50:00.100,-0.06,0.005
2021-08-19 15:50:00.104,-0.045,0.015
2021-08-19 15:50:00.108,-0.065,0.01
2021-08-19 15:50:00.112,-0.065,0.005
2021-08-19 15:50:00.116,-0.07,-0.015
2021-08-19 15:50:00.120,-0.06,0.01
2021-08-19 15:50:00.124,-0.07,-0.01
2021-08-19 15:50:00.128,-0.06,0.01
2021-08-19 15:50:00.132,-0.055,0.005
2021-08-19 15:50:00.136,-0.055,0.005
2021-08-19 15:50:00.140,-0.04,0.01
2021-08-19 15:50:00.144,-0.04,0.005
2021-08-19 15:50:00.148,-0.035,0.01
2021-08-19 15:50:00.152,-0.035,0.005
2021-08-19 15:50:00.156,-0.03,0.005
2021-08-19 15:50:00.160,-0.035,0.015
2021-08-19 15:50:00.164,-0.035,0.0
2021-08-19 15:50:00.168,-0.045,0.015
2021-08-19 15:50:00.172,-0.06,0.01
2021-08-19 15:50:00.176,-0.05,0.005
2021-08-19 15:50:00.180,-0.055,0.01
2021-08-19 15:50:00.184,-0.045,0.01
2021-08-19 15:50:00.188,-0.045,0.005
2021-08-19 15:50:00.192,-0.045,-0.005
2021-08-19 15:50:00.196,-0.045,0.005
2021-08-19 15:50:00.200,-0.045,0.01
2021-08-19 15:50:00.204,-0.04,-0.005
2021-08-19 15:50:00.208,-0.04,0.005
2021-08-19 15:50:00.212,-0.04,0.0
2021-08-19 15:50:00.216,-0.03,0.01
2021-08-19 15:50:00.220,-0.04,0.0
2021-08-19 15:50:00.224,-0.035,0.0
2021-08-19 15:50:00.228,-0.05,0.015
2021-08-19 15:50:00.232,-0.05,0.005
2021-08-19 15:50:00.236,-0.055,0.0
2021-08-19 15:50:00.240,-0.065,0.005
2021-08-19 15:50:00.244,-0.065,0.0
2021-08-19 15:50:00.248,-0.06,0.0
2021-08-19 15:50:00.252,-0.07,-0.005
2021-08-19 15:50:00.256,-0.05,-0.005
2021-08-19 15:50:00.260,-0.07,0.005
2021-08-19 15:50:00.264,-0.065,-0.005
2021-08-19 15:50:00.268,-0.065,-0.005
2021-08-19 15:50:00.272,-0.065,0.0
2021-08-19 15:50:00.276,-0.07,-0.015
2021-08-19 15:50:00.280,-0.075,-0.02
2021-08-19 15:50:00.284,-0.065,-0.005
2021-08-19 15:50:00.288,-0.08,-0.005
2021-08-19 15:50:00.292,-0.09,-0.01
2021-08-19 15:50:00.296,-0.085,0.0
2021-08-19 15:50:00.300,-0.09,-0.01
2021-08-19 15:50:00.304,-0.1,-0.015
2021-08-19 15:50:00.308,-0.1,-0.005
2021-08-19 15:50:00.312,-0.1,-0.01
2021-08-19 15:50:00.316,-0.105,0.0
2021-08-19 15:50:00.320,-0.095,-0.01
2021-08-19 15:50:00.324,-0.1,0.0
2021-08-19 15:50:00.328,-0.1,-0.005
2021-08-19 15:50:00.332,-0.1,-0.02
2021-08-19 15:50:00.336,-0.1,0.0
2021-08-19 15:50:00.340,-0.09,0.0
2021-08-19 15:50:00.344,-0.09,-0.02
2021-08-19 15:50:00.348,-0.105,-0.015
2021-08-19 15:50:00.352,-0.105,-0.02
2021-08-19 15:50:00.356,-0.09,-0.02
2021-08-19 15:50:00.360,-0.115,-0.02
2021-08-19 15:50:00.364,-0.12,-0.025
2021-08-19 15:50:00.368,-0.12,-0.035
2021-08-19 15:50:00.372,-0.125,-0.02
2021-08-19 15:50:00.376,-0.115,-0.01
2021-08-19 15:50:00.380,-0.12,-0.005
2021-08-19 15:50:00.384,-0.1,-0.025
2021-08-19 15:50:00.388,-0.11,-0.02
2021-08-19 15:50:00.392,-0.11,-0.02
2021-08-19 15:50:00.396,-0.12,-0.035
2021-08-19 15:50:00.400,-0.11,-0.04
2021-08-19 15:50:00.404,-0.115,-0.04
2021-08-19 15:50:00.408,-0.12,-0.03
2021-08-19 15:50:00.412,-0.12,-0.03
2021-08-19 15:50:00.416,-0.105,-0.045
2021-08-19 15:50:00.420,-0.105,-0.05
2021-08-19 15:50:00.424,-0.11,-0.035
2021-08-19 15:50:00.428,-0.12,-0.025
2021-08-19 15:50:00.432,-0.115,-0.035
2021-08-19 15:50:00.436,-0.11,-0.015
2021-08-19 15:50:00.440,-0.115,-0.03
2021-08-19 15:50:00.444,-0.115,-0.05
2021-08-19 15:50:00.448,-0.115,-0.04
2021-08-19 15:50:00.452,-0.125,-0.045
2021-08-19 15:50:00.456,-0.12,-0.035
2021-08-19 15:50:00.460,-0.115,-0.025
2021-08-19 15:50:00.464,-0.11,-0.01
2021-08-19 15:50:00.468,-0.11,-0.04
2021-08-19 15:50:00.472,-0.11,-0.05
2021-08-19 15:50:00.476,-0.11,-0.01
2021-08-19 15:50:00.480,-0.095,-0.035
2021-08-19 15:50:00.484,-0.11,-0.015
2021-08-19 15:50:00.488,-0.11,-0.025
2021-08-19 15:50:00.492,-0.125,-0.025
2021-08-19 15:50:00.496,-0.12,-0.015
2021-08-19 15:50:00.500,-0.115,-0.015
2021-08-19 15:50:00.504,-0.12,-0.015
2021-08-19 15:50:00.508,-0.12,-0.005
2021-08-19 15:50:00.512,-0.12,0.0
2021-08-19 15:50:00.516,-0.11,0.0
2021-08-19 15:50:00.520,-0.115,-0.01
2021-08-19 15:50:00.524,-0.125,-0.01
2021-08-19 15:50:00.528,-0.115,-0.02
2021-08-19 15:50:00.532,-0.105,0.0
2021-08-19 15:50:00.536,-0.085,0.0
2021-08-19 15:50:00.540,-0.11,-0.02
2021-08-19 15:50:00.544,-0.09,-0.015
2021-08-19 15:50:00.548,-0.085,-0.025
2021-08-19 15:50:00.552,-0.085,-0.02
2021-08-19 15:50:00.556,-0.08,0.0
2021-08-19 15:50:00.560,-0.08,0.01
2021-08-19 15:50:00.564,-0.09,0.015
2021-08-19 15:50:00.568,-0.08,0.015
2021-08-19 15:50:00.572,-0.075,0.015
2021-08-19 15:50:00.576,-0.085,0.005
2021-08-19 15:50:00.580,-0.085,0.0
2021-08-19 15:50:00.584,-0.095,0.0
2021-08-19 15:50:00.588,-0.1,-0.005
2021-08-19 15:50:00.592,-0.1,0.0
2021-08-19 15:50:00.596,-0.11,-0.02
2021-08-19 15:50:00.600,-0.1,-0.025
2021-08-19 15:50:00.604,-0.1,-0.015
2021-08-19 15:50:00.608,-0.095,-0.025
2021-08-19 15:50:00.612,-0.115,-0.02
2021-08-19 15:50:00.616,-0.08,0.0
2021-08-19 15:50:00.620,-0.095,-0.025
2021-08-19 15:50:00.624,-0.105,-0.02
2021-08-19 15:50:00.628,-0.115,-0.015
2021-08-19 15:50:00.632,-0.105,-0.02
2021-08-19 15:50:00.636,-0.115,-0.02
2021-08-19 15:50:00.640,-0.115,-0.02
2021-08-19 15:50:00.644,-0.095,-0.015
2021-08-19 15:50:00.648,-0.095,-0.005
2021-08-19 15:50:00.652,-0.105,-0.005
2021-08-19 15:50:00.656,-0.1,-0.005
2021-08-19 15:50:00.660,-0.11,-0.005
2021-08-19 15:50:00.664,-0.115,0.0
2021-08-19 15:50:00.668,-0.11,0.0
2021-08-19 15:50:00.672,-0.11,-0.005
2021-08-19 15:50:00.676,-0.11,-0.015
2021-08-19 15:50:00.680,-0.11,0.0
2021-08-19 15:50:00.684,-0.11,0.005
2021-08-19 15:50:00.688,-0.115,-0.01
2021-08-19 15:50:00.692,-0.135,0.0
2021-08-19 15:50:00.696,-0.115,-0.015
2021-08-19 15:50:00.700,-0.125,-0.005
2021-08-19 15:50:00.704,-0.12,0.0
2021-08-19 15:50:00.708,-0.11,-0.01
2021-08-19 15:50:00.712,-0.105,-0.01
2021-08-19 15:50:00.716,-0.12,0.01
2021-08-19 15:50:00.720,-0.11,0.005
2021-08-19 15:50:00.724,-0.1,0.01
2021-08-19 15:50:00.728,-0.12,0.015
2021-08-19 15:50:00.732,-0.105,0.0
2021-08-19 15:50:00.736,-0.055,0.01
2021-08-19 15:50:00.740,0.08,0.04
2021-08-19 15:50:00.744,0.26,0.02
2021-08-19 15:50:00.748,0.485,0.01
2021-08-19 15:50:00.752,0.67,0.0
2021-08-19 15:50:00.756,0.825,-0.02
2021-08-19 15:50:00.760,0.95,-0.055
2021-08-19 15:50:00.764,0.92,-0.095
2021-08-19 15:50:00.768,0.72,-0.155
2021-08-19 15:50:00.772,0.365,-0.21
2021-08-19 15:50:00.776,-0.07,-0.26
2021-08-19 15:50:00.780,-0.41,-0.295
2021-08-19 15:50:00.784,-0.53,-0.295
2021-08-19 15:50:00.788,-0.54,-0.24
2021-08-19 15:50:00.792,-0.475,-0.18
2021-08-19 15:50:00.796,-0.365,-0.115
2021-08-19 15:50:00.800,-0.26,-0.06
2021-08-19 15:50:00.804,-0.2,-0.01
2021-08-19 15:50:00.808,-0.16,0.04
2021-08-19 15:50:00.812,-0.145,0.045
2021-08-19 15:50:00.816,-0.135,0.055
2021-08-19 15:50:00.820,-0.155,0.05
2021-08-19 15:50:00.824,-0.165,0.045
2021-08-19 15:50:00.828,-0.16,0.045
2021-08-19 15:50:00.832,-0.14,0.035
2021-08-19 15:50:00.836,-0.15,0.035
2021-08-19 15:50:00.840,-0.14,0.04
2021-08-19 15:50:00.844,-0.135,0.015
2021-08-19 15:50:00.848,-0.15,0.01
2021-08-19 15:50:00.852,-0.13,0.015
2021-08-19 15:50:00.856,-0.13,0.025
2021-08-19 15:50:00.860,-0.125,0.035
2021-08-19 15:50:00.864,-0.14,0.015
2021-08-19 15:50:00.868,-0.125,0.015
2021-08-19 15:50:00.872,-0.14,0.03
2021-08-19 15:50:00.876,-0.13,0.035
2021-08-19 15:50:00.880,-0.145,0.02
2021-08-19 15:50:00.884,-0.13,0.03
2021-08-19 15:50:00.888,-0.145,0.035
2021-08-19 15:50:00.892,-0.15,0.02
2021-08-19 15:50:00.896,-0.135,0.015
2021-08-19 15:50:00.900,-0.135,0.025
2021-08-19 15:50:00.904,-0.15,0.02
2021-08-19 15:50:00.908,-0.14,0.05
2021-08-19 15:50:00.912,-0.145,0.035
2021-08-19 15:50:00.916,-0.125,0.03
2021-08-19 15:50:00.920,-0.13,0.025
2021-08-19 15:50:00.924,-0.125,0.025
2021-08-19 15:50:00.928,-0.12,0.035
2021-08-19 15:50:00.932,-0.13,0.035
2021-08-19 15:50:00.936,-0.11,0.03
2021-08-19 15:50:00.940,-0.115,0.035
2021-08-19 15:50:00.944,-0.12,0.04
2021-08-19 15:50:00.948,-0.135,0.03
2021-08-19 15:50:00.952,-0.125,0.03
2021-08-19 15:50:00.956,-0.115,0.055
2021-08-19 15:50:00.960,-0.12,0.03
2021-08-19 15:50:00.964,-0.11,0.035
2021-08-19 15:50:00.968,-0.11,0.045
2021-08-19 15:50:00.972,-0.1,0.055
2021-08-19 15:50:00.976,-0.11,0.055
2021-08-19 15:50:00.980,-0.105,0.05
2021-08-19 15:50:00.984,-0.105,0.045
2021-08-19 15:50:00.988,-0.09,0.04
2021-08-19 15:50:00.992,-0.085,0.055
2021-08-19 15:50:00.996,-0.09,0.04
2021-08-19 15:50:01.000,-0.09,0.04
2021-08-19 15:50:01.004,-0.08,0.035
2021-08-19 15:50:01.008,-0.085,0.04
2021-08-19 15:50:01.012,-0.095,0.04
2021-08-19 15:50:01.016,-0.105,0.035
2021-08-19 15:50:01.020,-0.1,0.03
2021-08-19 15:50:01.024,-0.115,0.035
2021-08-19 15:50:01.028,-0.105,0.04
2021-08-19 15:50:01.032,-0.1,0.045
2021-08-19 15:50:01.036,-0.09,0.03
2021-08-19 15:50:01.040,-0.095,0.045
2021-08-19 15:50:01.044,-0.085,0.03
2021-08-19 15:50:01.048,-0.06,0.025
2021-08-19 15:50:01.052,-0.06,0.02
2021-08-19 15:50:01.056,-0.06,0.02
2021-08-19 15:50:01.060,-0.05,0.005
2021-08-19 15:50:01.064,-0.055,0.01
2021-08-19 15:50:01.068,-0.05,0.01
2021-08-19 15:50:01.072,-0.035,0.01
2021-08-19 15:50:01.076,-0.03,0.01
2021-08-19 15:50:01.080,-0.035,0.02
2021-08-19 15:50:01.084,-0.025,0.02
2021-08-19 15:50:01.088,-0.02,0.02
2021-08-19 15:50:01.092,-0.025,0.01
2021-08-19 15:50:01.096,-0.025,0.005
2021-08-19 15:50:01.100,-0.025,0.005
2021-08-19 15:50:01.104,-0.03,0.005
2021-08-19 15:50:01.108,-0.03,0.01
2021-08-19 15:50:01.112,-0.045,0.005
2021-08-19 15:50:01.116,-0.035,0.0
2021-08-19 15:50:01.120,-0.04,0.0
2021-08-19 15:50:01.124,-0.045,0.0
2021-08-19 15:50:01.128,-0.05,0.0
2021-08-19 15:50:01.132,-0.045,0.005
2021-08-19 15:50:01.136,-0.07,0.005
2021-08-19 15:50:01.140,-0.065,0.005
2021-08-19 15:50:01.144,-0.085,0.005
2021-08-19 15:50:01.148,-0.08,0.0
2021-08-19 15:50:01.152,-0.09,0.01
2021-08-19 15:50:01.156,-0.095,0.015
2021-08-19 15:50:01.160,-0.08,0.005
2021-08-19 15:50:01.164,-0.09,-0.01
2021-08-19 15:50:01.168,-0.105,0.0
2021-08-19 15:50:01.172,-0.09,0.005
2021-08-19 15:50:01.176,-0.075,0.0
2021-08-19 15:50:01.180,-0.085,0.0
2021-08-19 15:50:01.184,-0.085,0.0
2021-08-19 15:50:01.188,-0.07,0.0
2021-08-19 15:50:01.192,-0.085,0.01
2021-08-19 15:50:01.196,-0.07,0.0
2021-08-19 15:50:01.200,-0.065,0.0
2021-08-19 15:50:01.204,-0.075,0.005
2021-08-19 15:50:01.208,-0.06,-0.005
2021-08-19 15:50:01.212,-0.085,0.0
2021-08-19 15:50:01.216,-0.08,0.005
2021-08-19 15:50:01.220,-0.065,0.01
2021-08-19 15:50:01.224,-0.065,0.01
2021-08-19 15:50:01.228,-0.055,0.0
2021-08-19 15:50:01.232,-0.055,0.01
2021-08-19 15:50:01.236,-0.065,0.01
2021-08-19 15:50:01.240,-0.06,0.01
2021-08-19 15:50:01.244,-0.035,0.015
2021-08-19 15:50:01.248,-0.035,0.01
2021-08-19 15:50:01.252,-0.035,0.015
2021-08-19 15:50:01.256,-0.04,0.02
2021-08-19 15:50:01.260,-0.05,0.015
2021-08-19 15:50:01.264,-0.055,0.01
2021-08-19 15:50:01.268,-0.045,0.02
2021-08-19 15:50:01.272,-0.065,0.005
2021-08-19 15:50:01.276,-0.075,0.005
2021-08-19 15:50:01.280,-0.055,0.01
2021-08-19 15:50:01.284,-0.075,0.015
2021-08-19 15:50:01.288,-0.075,0.005
2021-08-19 15:50:01.292,-0.075,0.005
2021-08-19 15:50:01.296,-0.065,0.005
2021-08-19 15:50:01.300,-0.075,0.015
2021-08-19 15:50:01.304,-0.075,0.005
2021-08-19 15:50:01.308,-0.085,0.015
2021-08-19 15:50:01.312,-0.085,-0.005
2021-08-19 15:50:01.316,-0.075,0.0
2021-08-19 15:50:01.320,-0.08,0.005
2021-08-19 15:50:01.324,-0.09,0.0
2021-08-19 15:50:01.328,-0.09,-0.005
2021-08-19 15:50:01.332,-0.085,0.005
2021-08-19 15:50:01.336,-0.105,0.005
2021-08-19 15:50:01.340,-0.1,-0.005
2021-08-19 15:50:01.344,-0.12,0.0
2021-08-19 15:50:01.348,-0.105,-0.005
2021-08-19 15:50:01.352,-0.125,-0.005
2021-08-19 15:50:01.356,-0.11,-0.01
2021-08-19 15:50:01.360,-0.11,-0.01
2021-08-19 15:50:01.364,-0.125,0.0
2021-08-19 15:50:01.368,-0.125,-0.01
2021-08-19 15:50:01.372,-0.125,-0.01
2021-08-19 15:50:01.376,-0.12,-0.025
2021-08-19 15:50:01.380,-0.12,0.0
2021-08-19 15:50:01.384,-0.125,0.0
2021-08-19 15:50:01.388,-0.125,0.005
2021-08-19 15:50:01.392,-0.12,0.0
2021-08-19 15:50:01.396,-0.125,-0.01
2021-08-19 15:50:01.400,-0.125,-0.015
2021-08-19 15:50:01.404,-0.14,-0.02
2021-08-19 15:50:01.408,-0.12,0.0
2021-08-19 15:50:01.412,-0.13,-0.005
2021-08-19 15:50:01.416,-0.135,-0.015
2021-08-19 15:50:01.420,-0.14,-0.02
2021-08-19 15:50:01.424,-0.15,-0.02
2021-08-19 15:50:01.428,-0.145,-0.015
2021-08-19 15:50:01.432,-0.15,0.0
2021-08-19 15:50:01.436,-0.14,-0.005
2021-08-19 15:50:01.440,-0.145,-0.005
2021-08-19 15:50:01.444,-0.145,-0.01
2021-08-19 15:50:01.448,-0.135,-0.005
2021-08-19 15:50:01.452,-0.15,0.0
2021-08-19 15:50:01.456,-0.145,-0.01
2021-08-19 15:50:01.460,-0.14,-0.015
2021-08-19 15:50:01.464,-0.14,-0.01
2021-08-19 15:50:01.468,-0.14,0.0
2021-08-19 15:50:01.472,-0.155,-0.015
2021-08-19 15:50:01.476,-0.15,-0.02
2021-08-19 15:50:01.480,-0.155,-0.01
2021-08-19 15:50:01.484,-0.15,-0.01
2021-08-19 15:50:01.488,-0.155,-0.01
2021-08-19 15:50:01.492,-0.145,0.0
2021-08-19 15:50:01.496,-0.14,0.0
2021-08-19 15:50:01.500,-0.15,-0.005
2021-08-19 15:50:01.504,-0.145,-0.01
2021-08-19 15:50:01.508,-0.14,-0.015
2021-08-19 15:50:01.512,-0.14,-0.01
2021-08-19 15:50:01.516,-0.14,-0.015
2021-08-19 15:50:01.520,-0.145,-0.01
2021-08-19 15:50:01.524,-0.15,0.0
2021-08-19 15:50:01.528,-0.14,0.0
2021-08-19 15:50:01.532,-0.14,-0.01
2021-08-19 15:50:01.536,-0.155,-0.01
2021-08-19 15:50:01.540,-0.16,-0.01
2021-08-19 15:50:01.544,-0.145,0.0
2021-08-19 15:50:01.548,-0.155,0.0
2021-08-19 15:50:01.552,-0.165,0.0
2021-08-19 15:50:01.556,-0.155,-0.005
2021-08-19 15:50:01.560,-0.165,0.01
2021-08-19 15:50:01.564,-0.155,0.0
2021-08-19 15:50:01.568,-0.15,-0.02
2021-08-19 15:50:01.572,-0.15,-0.015
