Time,ECG1,ECG2
2021-08-01 01:26:41.184,0.125,-0.06
2021-08-01 01:26:41.188,0.12,-0.05
2021-08-01 01:26:41.192,0.12,-0.035
2021-08-01 01:26:41.196,0.125,-0.055
2021-08-01 01:26:41.200,0.13,-0.075
2021-08-01 01:26:41.204,0.12,-0.045
2021-08-01 01:26:41.208,0.115,-0.05
2021-08-01 01:26:41.212,0.13,-0.05
2021-08-01 01:26:41.216,0.145,-0.06
2021-08-01 01:26:41.220,0.145,-0.045
2021-08-01 01:26:41.224,0.155,-0.05
2021-08-01 01:26:41.228,0.145,-0.04
2021-08-01 01:26:41.232,0.145,-0.06
2021-08-01 01:26:41.236,0.145,-0.055
2021-08-01 01:26:41.240,0.145,-0.08
2021-08-01 01:26:41.244,0.165,-0.065
2021-08-01 01:26:41.248,0.14,-0.045
2021-08-01 01:26:41.252,0.145,-0.05
2021-08-01 01:26:41.256,0.15,-0.06
2021-08-01 01:26:41.260,0.16,-0.05
2021-08-01 01:26:41.264,0.175,-0.075
2021-08-01 01:26:41.268,0.175,-0.06
2021-08-01 01:26:41.272,0.155,-0.06
2021-08-01 01:26:41.276,0.18,-0.07
2021-08-01 01:26:41.280,0.155,-0.075
2021-08-01 01:26:41.284,0.185,-0.06
2021-08-01 01:26:41.288,0.17,-0.05
2021-08-01 01:26:41.292,0.18,-0.06
2021-08-01 01:26:41.296,0.19,-0.07
2021-08-01 01:26:41.300,0.195,-0.055
2021-08-01 01:26:41.304,0.17,-0.04
2021-08-01 01:26:41.308,0.19,-0.065
2021-08-01 01:26:41.312,0.19,-0.055
2021-08-01 01:26:41.316,0.185,-0.06
2021-08-01 01:26:41.320,0.2,-0.06
2021-08-01 01:26:41.324,0.2,-0.05
2021-08-01 01:26:41.328,0.2,-0.05
2021-08-01 01:26:41.332,0.22,-0.06
2021-08-01 01:26:41.336,0.22,-0.06
2021-08-01 01:26:41.340,0.225,-0.055
2021-08-01 01:26:41.344,0.215,-0.04
2021-08-01 01:26:41.348,0.215,-0.06
2021-08-01 01:26:41.352,0.225,-0.065
2021-08-01 01:26:41.356,0.225,-0.065
2021-08-01 01:26:41.360,0.225,-0.06
2021-08-01 01:26:41.364,0.235,-0.055
2021-08-01 01:26:41.368,0.24,-0.055
2021-08-01 01:26:41.372,0.245,-0.05
2021-08-01 01:26:41.376,0.24,-0.06
2021-08-01 01:26:41.380,0.25,-0.045
2021-08-01 01:26:41.384,0.235,-0.055
2021-08-01 01:26:41.388,0.25,-0.055
2021-08-01 01:26:41.392,0.26,-0.055
2021-08-01 01:26:41.396,0.265,-0.065
2021-08-01 01:26:41.400,0.245,-0.06
2021-08-01 01:26:41.404,0.245,-0.045
2021-08-01 01:26:41.408,0.265,-0.04
2021-08-01 01:26:41.412,0.25,-0.045
2021-08-01 01:26:41.416,0.27,-0.075
2021-08-01 01:26:41.420,0.27,-0.06
2021-08-01 01:26:41.424,0.265,-0.05
2021-08-01 01:26:41.428,0.28,-0.035
2021-08-01 01:26:41.432,0.275,-0.045
2021-08-01 01:26:41.436,0.275,-0.055
2021-08-01 01:26:41.440,0.27,-0.055
2021-08-01 01:26:41.444,0.29,-0.06
2021-08-01 01:26:41.448,0.29,-0.05
2021-08-01 01:26:41.452,0.265,-0.055
2021-08-01 01:26:41.456,0.29,-0.065
2021-08-01 01:26:41.460,0.3,-0.06
2021-08-01 01:26:41.464,0.27,-0.06
2021-08-01 01:26:41.468,0.275,-0.055
2021-08-01 01:26:41.472,0.275,-0.09
2021-08-01 01:26:41.476,0.3,-0.075
2021-08-01 01:26:41.480,0.295,-0.05
2021-08-01 01:26:41.484,0.305,-0.05
2021-08-01 01:26:41.488,0.32,-0.05
2021-08-01 01:26:41.492,0.325,-0.06
2021-08-01 01:26:41.496,0.3,-0.065
2021-08-01 01:26:41.500,0.31,-0.07
2021-08-01 01:26:41.504,0.31,-0.04
2021-08-01 01:26:41.508,0.285,-0.06
2021-08-01 01:26:41.512,0.295,-0.065
2021-08-01 01:26:41.516,0.305,-0.07
2021-08-01 01:26:41.520,0.31,-0.065
2021-08-01 01:26:41.524,0.31,-0.055
2021-08-01 01:26:41.528,0.315,-0.055
2021-08-01 01:26:41.532,0.325,-0.065
2021-08-01 01:26:41.536,0.315,-0.065
2021-08-01 01:26:41.540,0.325,-0.065
2021-08-01 01:26:41.544,0.34,-0.065
2021-08-01 01:26:41.548,0.325,-0.05
2021-08-01 01:26:41.552,0.31,-0.065
2021-08-01 01:26:41.556,0.325,-0.08
2021-08-01 01:26:41.560,0.335,-0.08
2021-08-01 01:26:41.564,0.32,-0.065
2021-08-01 01:26:41.568,0.325,-0.07
2021-08-01 01:26:41.572,0.34,-0.075
2021-08-01 01:26:41.576,0.33,-0.08
2021-08-01 01:26:41.580,0.345,-0.07
2021-08-01 01:26:41.584,0.33,-0.07
2021-08-01 01:26:41.588,0.335,-0.07
2021-08-01 01:26:41.592,0.325,-0.07
2021-08-01 01:26:41.596,0.345,-0.08
2021-08-01 01:26:41.600,0.35,-0.07
2021-08-01 01:26:41.604,0.35,-0.06
2021-08-01 01:26:41.608,0.355,-0.075
2021-08-01 01:26:41.612,0.355,-0.06
2021-08-01 01:26:41.616,0.355,-0.075
2021-08-01 01:26:41.620,0.35,-0.05
2021-08-01 01:26:41.624,0.355,-0.055
2021-08-01 01:26:41.628,0.375,-0.06
2021-08-01 01:26:41.632,0.35,-0.055
2021-08-01 01:26:41.636,0.365,-0.055
2021-08-01 01:26:41.640,0.35,-0.065
2021-08-01 01:26:41.644,0.36,-0.065
2021-08-01 01:26:41.648,0.35,-0.05
2021-08-01 01:26:41.652,0.37,-0.07
2021-08-01 01:26:41.656,0.37,-0.07
2021-08-01 01:26:41.660,0.35,-0.065
2021-08-01 01:26:41.664,0.35,-0.08
2021-08-01 01:26:41.668,0.365,-0.075
2021-08-01 01:26:41.672,0.365,-0.06
2021-08-01 01:26:41.676,0.36,-0.06
2021-08-01 01:26:41.680,0.37,-0.07
2021-08-01 01:26:41.684,0.375,-0.075
2021-08-01 01:26:41.688,0.385,-0.075
2021-08-01 01:26:41.692,0.385,-0.09
2021-08-01 01:26:41.696,0.38,-0.07
2021-08-01 01:26:41.700,0.375,-0.06
2021-08-01 01:26:41.704,0.37,-0.07
2021-08-01 01:26:41.708,0.37,-0.09
2021-08-01 01:26:41.712,0.375,-0.08
2021-08-01 01:26:41.716,0.39,-0.075
2021-08-01 01:26:41.720,0.385,-0.08
2021-08-01 01:26:41.724,0.38,-0.06
2021-08-01 01:26:41.728,0.39,-0.085
2021-08-01 01:26:41.732,0.39,-0.09
2021-08-01 01:26:41.736,0.4,-0.075
2021-08-01 01:26:41.740,0.38,-0.07
2021-08-01 01:26:41.744,0.385,-0.075
2021-08-01 01:26:41.748,0.41,-0.1
2021-08-01 01:26:41.752,0.39,-0.09
2021-08-01 01:26:41.756,0.405,-0.08
2021-08-01 01:26:41.760,0.4,-0.085
2021-08-01 01:26:41.764,0.39,-0.13
2021-08-01 01:26:41.768,0.365,-0.165
2021-08-01 01:26:41.772,0.36,-0.21
2021-08-01 01:26:41.776,0.37,-0.21
2021-08-01 01:26:41.780,0.35,-0.205
2021-08-01 01:26:41.784,0.365,-0.21
2021-08-01 01:26:41.788,0.39,-0.18
2021-08-01 01:26:41.792,0.42,-0.13
2021-08-01 01:26:41.796,0.435,-0.13
2021-08-01 01:26:41.800,0.44,-0.13
2021-08-01 01:26:41.804,0.425,-0.125
2021-08-01 01:26:41.808,0.415,-0.12
2021-08-01 01:26:41.812,0.42,-0.16
2021-08-01 01:26:41.816,0.4,-0.16
2021-08-01 01:26:41.820,0.38,-0.145
2021-08-01 01:26:41.824,0.375,-0.17
2021-08-01 01:26:41.828,0.395,-0.17
2021-08-01 01:26:41.832,0.4,-0.16
2021-08-01 01:26:41.836,0.4,-0.155
2021-08-01 01:26:41.840,0.395,-0.16
2021-08-01 01:26:41.844,0.395,-0.16
2021-08-01 01:26:41.848,0.4,-0.16
2021-08-01 01:26:41.852,0.38,-0.16
2021-08-01 01:26:41.856,0.4,-0.155
2021-08-01 01:26:41.860,0.395,-0.15
2021-08-01 01:26:41.864,0.385,-0.14
2021-08-01 01:26:41.868,0.41,-0.17
2021-08-01 01:26:41.872,0.4,-0.185
2021-08-01 01:26:41.876,0.405,-0.16
2021-08-01 01:26:41.880,0.415,-0.08
2021-08-01 01:26:41.884,0.44,0.09
2021-08-01 01:26:41.888,0.47,0.29
2021-08-01 01:26:41.892,0.495,0.48
2021-08-01 01:26:41.896,0.57,0.615
2021-08-01 01:26:41.900,0.66,0.65
2021-08-01 01:26:41.904,0.71,0.61
2021-08-01 01:26:41.908,0.725,0.515
2021-08-01 01:26:41.912,0.7,0.15
2021-08-01 01:26:41.916,0.68,-0.255
2021-08-01 01:26:41.920,0.53,-0.51
2021-08-01 01:26:41.924,0.27,-0.64
2021-08-01 01:26:41.928,0.095,-0.605
2021-08-01 01:26:41.932,0.04,-0.505
2021-08-01 01:26:41.936,0.055,-0.39
2021-08-01 01:26:41.940,0.075,-0.32
2021-08-01 01:26:41.944,0.16,-0.25
2021-08-01 01:26:41.948,0.27,-0.21
2021-08-01 01:26:41.952,0.335,-0.185
2021-08-01 01:26:41.956,0.38,-0.19
2021-08-01 01:26:41.960,0.425,-0.195
2021-08-01 01:26:41.964,0.42,-0.215
2021-08-01 01:26:41.968,0.435,-0.205
2021-08-01 01:26:41.972,0.43,-0.2
2021-08-01 01:26:41.976,0.42,-0.21
2021-08-01 01:26:41.980,0.44,-0.21
2021-08-01 01:26:41.984,0.425,-0.215
2021-08-01 01:26:41.988,0.42,-0.22
2021-08-01 01:26:41.992,0.42,-0.205
2021-08-01 01:26:41.996,0.445,-0.19
2021-08-01 01:26:42.000,0.44,-0.205
2021-08-01 01:26:42.004,0.44,-0.215
2021-08-01 01:26:42.008,0.455,-0.215
2021-08-01 01:26:42.012,0.44,-0.205
2021-08-01 01:26:42.016,0.45,-0.215
2021-08-01 01:26:42.020,0.445,-0.2
2021-08-01 01:26:42.024,0.435,-0.205
2021-08-01 01:26:42.028,0.435,-0.19
2021-08-01 01:26:42.032,0.44,-0.18
2021-08-01 01:26:42.036,0.44,-0.2
2021-08-01 01:26:42.040,0.455,-0.2
2021-08-01 01:26:42.044,0.445,-0.2
2021-08-01 01:26:42.048,0.455,-0.18
2021-08-01 01:26:42.052,0.45,-0.185
2021-08-01 01:26:42.056,0.46,-0.185
2021-08-01 01:26:42.060,0.465,-0.175
2021-08-01 01:26:42.064,0.485,-0.18
2021-08-01 01:26:42.068,0.46,-0.175
2021-08-01 01:26:42.072,0.465,-0.17
2021-08-01 01:26:42.076,0.47,-0.175
2021-08-01 01:26:42.080,0.475,-0.17
2021-08-01 01:26:42.084,0.485,-0.165
2021-08-01 01:26:42.088,0.485,-0.155
2021-08-01 01:26:42.092,0.485,-0.14
2021-08-01 01:26:42.096,0.505,-0.14
2021-08-01 01:26:42.100,0.485,-0.16
2021-08-01 01:26:42.104,0.475,-0.155
2021-08-01 01:26:42.108,0.5,-0.145
2021-08-01 01:26:42.112,0.5,-0.135
2021-08-01 01:26:42.116,0.51,-0.135
2021-08-01 01:26:42.120,0.505,-0.145
2021-08-01 01:26:42.124,0.505,-0.13
2021-08-01 01:26:42.128,0.51,-0.14
2021-08-01 01:26:42.132,0.49,-0.12
2021-08-01 01:26:42.136,0.48,-0.11
2021-08-01 01:26:42.140,0.505,-0.125
2021-08-01 01:26:42.144,0.52,-0.135
2021-08-01 01:26:42.148,0.51,-0.105
2021-08-01 01:26:42.152,0.49,-0.115
2021-08-01 01:26:42.156,0.51,-0.105
2021-08-01 01:26:42.160,0.505,-0.1
2021-08-01 01:26:42.164,0.51,-0.085
2021-08-01 01:26:42.168,0.52,-0.07
2021-08-01 01:26:42.172,0.52,-0.065
2021-08-01 01:26:42.176,0.515,-0.045
2021-08-01 01:26:42.180,0.515,-0.05
2021-08-01 01:26:42.184,0.53,-0.04
2021-08-01 01:26:42.188,0.505,-0.015
2021-08-01 01:26:42.192,0.53,0.0
2021-08-01 01:26:42.196,0.525,-0.005
2021-08-01 01:26:42.200,0.525,0.0
2021-08-01 01:26:42.204,0.54,0.005
2021-08-01 01:26:42.208,0.53,0.005
2021-08-01 01:26:42.212,0.54,0.005
2021-08-01 01:26:42.216,0.555,-0.005
2021-08-01 01:26:42.220,0.545,-0.005
2021-08-01 01:26:42.224,0.54,-0.01
2021-08-01 01:26:42.228,0.535,-0.005
2021-08-01 01:26:42.232,0.53,-0.02
2021-08-01 01:26:42.236,0.525,-0.04
2021-08-01 01:26:42.240,0.53,-0.035
2021-08-01 01:26:42.244,0.515,-0.045
2021-08-01 01:26:42.248,0.54,-0.05
2021-08-01 01:26:42.252,0.535,-0.06
2021-08-01 01:26:42.256,0.525,-0.05
2021-08-01 01:26:42.260,0.535,-0.06
2021-08-01 01:26:42.264,0.545,-0.075
2021-08-01 01:26:42.268,0.525,-0.075
2021-08-01 01:26:42.272,0.525,-0.055
2021-08-01 01:26:42.276,0.535,-0.055
2021-08-01 01:26:42.280,0.53,-0.075
2021-08-01 01:26:42.284,0.53,-0.05
2021-08-01 01:26:42.288,0.52,-0.065
2021-08-01 01:26:42.292,0.53,-0.065
2021-08-01 01:26:42.296,0.51,-0.055
2021-08-01 01:26:42.300,0.525,-0.06
2021-08-01 01:26:42.304,0.54,-0.055
2021-08-01 01:26:42.308,0.545,-0.055
2021-08-01 01:26:42.312,0.525,-0.04
2021-08-01 01:26:42.316,0.525,-0.06
2021-08-01 01:26:42.320,0.52,-0.065
2021-08-01 01:26:42.324,0.53,-0.065
2021-08-01 01:26:42.328,0.535,-0.06
2021-08-01 01:26:42.332,0.53,-0.08
2021-08-01 01:26:42.336,0.525,-0.065
2021-08-01 01:26:42.340,0.52,-0.07
2021-08-01 01:26:42.344,0.535,-0.07
2021-08-01 01:26:42.348,0.53,-0.07
2021-08-01 01:26:42.352,0.53,-0.075
2021-08-01 01:26:42.356,0.535,-0.08
2021-08-01 01:26:42.360,0.52,-0.08
2021-08-01 01:26:42.364,0.515,-0.065
2021-08-01 01:26:42.368,0.53,-0.07
2021-08-01 01:26:42.372,0.53,-0.08
2021-08-01 01:26:42.376,0.52,-0.08
2021-08-01 01:26:42.380,0.53,-0.095
2021-08-01 01:26:42.384,0.515,-0.1
2021-08-01 01:26:42.388,0.53,-0.1
2021-08-01 01:26:42.392,0.53,-0.095
2021-08-01 01:26:42.396,0.535,-0.1
2021-08-01 01:26:42.400,0.525,-0.1
2021-08-01 01:26:42.404,0.545,-0.11
2021-08-01 01:26:42.408,0.525,-0.11
2021-08-01 01:26:42.412,0.54,-0.1
2021-08-01 01:26:42.416,0.525,-0.1
2021-08-01 01:26:42.420,0.52,-0.115
2021-08-01 01:26:42.424,0.52,-0.085
2021-08-01 01:26:42.428,0.54,-0.105
2021-08-01 01:26:42.432,0.51,-0.095
2021-08-01 01:26:42.436,0.535,-0.105
2021-08-01 01:26:42.440,0.55,-0.1
2021-08-01 01:26:42.444,0.535,-0.09
2021-08-01 01:26:42.448,0.545,-0.09
2021-08-01 01:26:42.452,0.535,-0.1
2021-08-01 01:26:42.456,0.545,-0.1
2021-08-01 01:26:42.460,0.545,-0.095
2021-08-01 01:26:42.464,0.54,-0.1
2021-08-01 01:26:42.468,0.545,-0.115
2021-08-01 01:26:42.472,0.525,-0.095
2021-08-01 01:26:42.476,0.53,-0.12
2021-08-01 01:26:42.480,0.525,-0.105
2021-08-01 01:26:42.484,0.54,-0.11
2021-08-01 01:26:42.488,0.51,-0.085
2021-08-01 01:26:42.492,0.515,-0.095
2021-08-01 01:26:42.496,0.535,-0.1
2021-08-01 01:26:42.500,0.53,-0.095
2021-08-01 01:26:42.504,0.525,-0.1
2021-08-01 01:26:42.508,0.545,-0.12
2021-08-01 01:26:42.512,0.53,-0.115
2021-08-01 01:26:42.516,0.515,-0.115
2021-08-01 01:26:42.520,0.53,-0.115
2021-08-01 01:26:42.524,0.525,-0.105
2021-08-01 01:26:42.528,0.545,-0.085
2021-08-01 01:26:42.532,0.525,-0.11
2021-08-01 01:26:42.536,0.525,-0.125
2021-08-01 01:26:42.540,0.525,-0.13
2021-08-01 01:26:42.544,0.53,-0.11
2021-08-01 01:26:42.548,0.535,-0.1
2021-08-01 01:26:42.552,0.53,-0.115
2021-08-01 01:26:42.556,0.52,-0.1
2021-08-01 01:26:42.560,0.53,-0.1
2021-08-01 01:26:42.564,0.54,-0.11
2021-08-01 01:26:42.568,0.53,-0.115
2021-08-01 01:26:42.572,0.53,-0.11
2021-08-01 01:26:42.576,0.525,-0.11
2021-08-01 01:26:42.580,0.525,-0.11
2021-08-01 01:26:42.584,0.5,-0.105
2021-08-01 01:26:42.588,0.515,-0.115
2021-08-01 01:26:42.592,0.505,-0.11
2021-08-01 01:26:42.596,0.53,-0.105
2021-08-01 01:26:42.600,0.505,-0.1
2021-08-01 01:26:42.604,0.495,-0.11
2021-08-01 01:26:42.608,0.525,-0.13
2021-08-01 01:26:42.612,0.515,-0.115
2021-08-01 01:26:42.616,0.52,-0.115
2021-08-01 01:26:42.620,0.535,-0.115
2021-08-01 01:26:42.624,0.525,-0.105
2021-08-01 01:26:42.628,0.515,-0.075
2021-08-01 01:26:42.632,0.52,-0.095
2021-08-01 01:26:42.636,0.5,-0.13
2021-08-01 01:26:42.640,0.485,-0.115
2021-08-01 01:26:42.644,0.5,-0.12
2021-08-01 01:26:42.648,0.52,-0.11
2021-08-01 01:26:42.652,0.5,-0.105
2021-08-01 01:26:42.656,0.495,-0.105
2021-08-01 01:26:42.660,0.52,-0.12
2021-08-01 01:26:42.664,0.515,-0.105
2021-08-01 01:26:42.668,0.495,-0.09
2021-08-01 01:26:42.672,0.495,-0.125
2021-08-01 01:26:42.676,0.5,-0.115
2021-08-01 01:26:42.680,0.495,-0.105
2021-08-01 01:26:42.684,0.51,-0.105
2021-08-01 01:26:42.688,0.5,-0.115
2021-08-01 01:26:42.692,0.505,-0.12
2021-08-01 01:26:42.696,0.505,-0.12
2021-08-01 01:26:42.700,0.5,-0.105
2021-08-01 01:26:42.704,0.52,-0.13
2021-08-01 01:26:42.708,0.5,-0.13
2021-08-01 01:26:42.712,0.49,-0.115
2021-08-01 01:26:42.716,0.495,-0.105
2021-08-01 01:26:42.720,0.495,-0.105
2021-08-01 01:26:42.724,0.495,-0.105
2021-08-01 01:26:42.728,0.495,-0.085
2021-08-01 01:26:42.732,0.495,-0.105
2021-08-01 01:26:42.736,0.485,-0.1
2021-08-01 01:26:42.740,0.495,-0.095
2021-08-01 01:26:42.744,0.5,-0.075
2021-08-01 01:26:42.748,0.495,-0.06
2021-08-01 01:26:42.752,0.49,-0.04
2021-08-01 01:26:42.756,0.51,-0.035
2021-08-01 01:26:42.760,0.515,-0.02
2021-08-01 01:26:42.764,0.52,-0.04
2021-08-01 01:26:42.768,0.535,-0.005
2021-08-01 01:26:42.772,0.53,0.005
2021-08-01 01:26:42.776,0.525,-0.02
2021-08-01 01:26:42.780,0.52,-0.05
2021-08-01 01:26:42.784,0.5,-0.07
2021-08-01 01:26:42.788,0.455,-0.09
2021-08-01 01:26:42.792,0.445,-0.12
2021-08-01 01:26:42.796,0.44,-0.12
2021-08-01 01:26:42.800,0.435,-0.105
2021-08-01 01:26:42.804,0.415,-0.08
2021-08-01 01:26:42.808,0.425,-0.08
2021-08-01 01:26:42.812,0.435,-0.1
2021-08-01 01:26:42.816,0.44,-0.095
2021-08-01 01:26:42.820,0.475,-0.1
2021-08-01 01:26:42.824,0.465,-0.135
2021-08-01 01:26:42.828,0.46,-0.15
2021-08-01 01:26:42.832,0.455,-0.165
2021-08-01 01:26:42.836,0.475,-0.17
2021-08-01 01:26:42.840,0.46,-0.195
2021-08-01 01:26:42.844,0.46,-0.2
2021-08-01 01:26:42.848,0.47,-0.21
2021-08-01 01:26:42.852,0.425,-0.215
2021-08-01 01:26:42.856,0.425,-0.21
2021-08-01 01:26:42.860,0.425,-0.2
2021-08-01 01:26:42.864,0.44,-0.225
2021-08-01 01:26:42.868,0.415,-0.21
2021-08-01 01:26:42.872,0.435,-0.205
2021-08-01 01:26:42.876,0.43,-0.215
2021-08-01 01:26:42.880,0.43,-0.225
2021-08-01 01:26:42.884,0.42,-0.21
2021-08-01 01:26:42.888,0.435,-0.245
2021-08-01 01:26:42.892,0.425,-0.24
2021-08-01 01:26:42.896,0.445,-0.21
2021-08-01 01:26:42.900,0.425,-0.125
2021-08-01 01:26:42.904,0.46,0.035
2021-08-01 01:26:42.908,0.47,0.24
2021-08-01 01:26:42.912,0.495,0.445
2021-08-01 01:26:42.916,0.585,0.575
2021-08-01 01:26:42.920,0.67,0.635
2021-08-01 01:26:42.924,0.73,0.625
2021-08-01 01:26:42.928,0.785,0.45
2021-08-01 01:26:42.932,0.805,0.03
2021-08-01 01:26:42.936,0.78,-0.385
2021-08-01 01:26:42.940,0.63,-0.6
2021-08-01 01:26:42.944,0.395,-0.725
2021-08-01 01:26:42.948,0.21,-0.745
2021-08-01 01:26:42.952,0.1,-0.69
2021-08-01 01:26:42.956,0.08,-0.575
2021-08-01 01:26:42.960,0.09,-0.46
2021-08-01 01:26:42.964,0.135,-0.38
2021-08-01 01:26:42.968,0.21,-0.3
2021-08-01 01:26:42.972,0.265,-0.25
2021-08-01 01:26:42.976,0.34,-0.24
2021-08-01 01:26:42.980,0.4,-0.25
2021-08-01 01:26:42.984,0.4,-0.26
2021-08-01 01:26:42.988,0.415,-0.255
2021-08-01 01:26:42.992,0.425,-0.245
2021-08-01 01:26:42.996,0.42,-0.25
2021-08-01 01:26:43.000,0.415,-0.25
2021-08-01 01:26:43.004,0.4,-0.25
2021-08-01 01:26:43.008,0.42,-0.26
2021-08-01 01:26:43.012,0.42,-0.26
2021-08-01 01:26:43.016,0.41,-0.235
2021-08-01 01:26:43.020,0.415,-0.245
2021-08-01 01:26:43.024,0.405,-0.245
2021-08-01 01:26:43.028,0.42,-0.25
2021-08-01 01:26:43.032,0.4,-0.255
2021-08-01 01:26:43.036,0.405,-0.245
2021-08-01 01:26:43.040,0.41,-0.25
2021-08-01 01:26:43.044,0.415,-0.255
2021-08-01 01:26:43.048,0.4,-0.245
2021-08-01 01:26:43.052,0.39,-0.255
2021-08-01 01:26:43.056,0.42,-0.25
2021-08-01 01:26:43.060,0.42,-0.235
2021-08-01 01:26:43.064,0.4,-0.245
2021-08-01 01:26:43.068,0.41,-0.22
2021-08-01 01:26:43.072,0.405,-0.225
2021-08-01 01:26:43.076,0.395,-0.21
2021-08-01 01:26:43.080,0.395,-0.24
2021-08-01 01:26:43.084,0.4,-0.235
2021-08-01 01:26:43.088,0.39,-0.215
2021-08-01 01:26:43.092,0.415,-0.215
2021-08-01 01:26:43.096,0.405,-0.22
2021-08-01 01:26:43.100,0.41,-0.21
2021-08-01 01:26:43.104,0.385,-0.22
2021-08-01 01:26:43.108,0.395,-0.21
2021-08-01 01:26:43.112,0.4,-0.2
2021-08-01 01:26:43.116,0.395,-0.195
2021-08-01 01:26:43.120,0.4,-0.21
2021-08-01 01:26:43.124,0.38,-0.19
2021-08-01 01:26:43.128,0.42,-0.185
2021-08-01 01:26:43.132,0.39,-0.18
2021-08-01 01:26:43.136,0.42,-0.17
2021-08-01 01:26:43.140,0.41,-0.18
2021-08-01 01:26:43.144,0.405,-0.185
2021-08-01 01:26:43.148,0.405,-0.16
2021-08-01 01:26:43.152,0.41,-0.175
2021-08-01 01:26:43.156,0.405,-0.15
2021-08-01 01:26:43.160,0.41,-0.15
2021-08-01 01:26:43.164,0.415,-0.16
2021-08-01 01:26:43.168,0.415,-0.15
2021-08-01 01:26:43.172,0.43,-0.145
2021-08-01 01:26:43.176,0.42,-0.125
2021-08-01 01:26:43.180,0.42,-0.14
2021-08-01 01:26:43.184,0.41,-0.11
2021-08-01 01:26:43.188,0.425,-0.095
2021-08-01 01:26:43.192,0.425,-0.085
2021-08-01 01:26:43.196,0.44,-0.08
2021-08-01 01:26:43.200,0.435,-0.085
2021-08-01 01:26:43.204,0.425,-0.07
2021-08-01 01:26:43.208,0.445,-0.075
2021-08-01 01:26:43.212,0.44,-0.07
2021-08-01 01:26:43.216,0.44,-0.06
2021-08-01 01:26:43.220,0.465,-0.08
2021-08-01 01:26:43.224,0.46,-0.09
2021-08-01 01:26:43.228,0.435,-0.095
2021-08-01 01:26:43.232,0.455,-0.085
2021-08-01 01:26:43.236,0.445,-0.095
2021-08-01 01:26:43.240,0.445,-0.105
2021-08-01 01:26:43.244,0.43,-0.1
2021-08-01 01:26:43.248,0.425,-0.105
2021-08-01 01:26:43.252,0.425,-0.095
2021-08-01 01:26:43.256,0.43,-0.115
2021-08-01 01:26:43.260,0.435,-0.12
2021-08-01 01:26:43.264,0.445,-0.11
2021-08-01 01:26:43.268,0.43,-0.11
2021-08-01 01:26:43.272,0.44,-0.11
2021-08-01 01:26:43.276,0.44,-0.095
2021-08-01 01:26:43.280,0.43,-0.115
2021-08-01 01:26:43.284,0.42,-0.115
2021-08-01 01:26:43.288,0.43,-0.11
2021-08-01 01:26:43.292,0.43,-0.09
2021-08-01 01:26:43.296,0.435,-0.11
2021-08-01 01:26:43.300,0.43,-0.115
2021-08-01 01:26:43.304,0.455,-0.1
2021-08-01 01:26:43.308,0.415,-0.095
2021-08-01 01:26:43.312,0.425,-0.105
2021-08-01 01:26:43.316,0.41,-0.105
2021-08-01 01:26:43.320,0.44,-0.11
2021-08-01 01:26:43.324,0.43,-0.1
2021-08-01 01:26:43.328,0.44,-0.095
2021-08-01 01:26:43.332,0.43,-0.08
2021-08-01 01:26:43.336,0.43,-0.1
2021-08-01 01:26:43.340,0.415,-0.11
2021-08-01 01:26:43.344,0.44,-0.095
2021-08-01 01:26:43.348,0.42,-0.095
2021-08-01 01:26:43.352,0.415,-0.095
2021-08-01 01:26:43.356,0.41,-0.095
2021-08-01 01:26:43.360,0.41,-0.105
2021-08-01 01:26:43.364,0.405,-0.11
2021-08-01 01:26:43.368,0.41,-0.095
2021-08-01 01:26:43.372,0.415,-0.095
2021-08-01 01:26:43.376,0.395,-0.1
2021-08-01 01:26:43.380,0.4,-0.105
2021-08-01 01:26:43.384,0.415,-0.1
2021-08-01 01:26:43.388,0.41,-0.1
2021-08-01 01:26:43.392,0.41,-0.115
2021-08-01 01:26:43.396,0.41,-0.115
2021-08-01 01:26:43.400,0.43,-0.125
2021-08-01 01:26:43.404,0.405,-0.14
2021-08-01 01:26:43.408,0.415,-0.125
2021-08-01 01:26:43.412,0.4,-0.12
2021-08-01 01:26:43.416,0.41,-0.13
2021-08-01 01:26:43.420,0.42,-0.14
2021-08-01 01:26:43.424,0.41,-0.12
2021-08-01 01:26:43.428,0.395,-0.135
2021-08-01 01:26:43.432,0.395,-0.12
2021-08-01 01:26:43.436,0.395,-0.15
2021-08-01 01:26:43.440,0.41,-0.145
2021-08-01 01:26:43.444,0.395,-0.13
2021-08-01 01:26:43.448,0.41,-0.13
2021-08-01 01:26:43.452,0.395,-0.14
2021-08-01 01:26:43.456,0.405,-0.135
2021-08-01 01:26:43.460,0.395,-0.135
2021-08-01 01:26:43.464,0.41,-0.135
2021-08-01 01:26:43.468,0.385,-0.13
2021-08-01 01:26:43.472,0.395,-0.13
2021-08-01 01:26:43.476,0.39,-0.125
2021-08-01 01:26:43.480,0.38,-0.13
2021-08-01 01:26:43.484,0.39,-0.13
2021-08-01 01:26:43.488,0.395,-0.145
2021-08-01 01:26:43.492,0.375,-0.135
2021-08-01 01:26:43.496,0.385,-0.135
2021-08-01 01:26:43.500,0.38,-0.14
2021-08-01 01:26:43.504,0.39,-0.13
2021-08-01 01:26:43.508,0.385,-0.125
2021-08-01 01:26:43.512,0.385,-0.145
2021-08-01 01:26:43.516,0.38,-0.13
2021-08-01 01:26:43.520,0.39,-0.14
2021-08-01 01:26:43.524,0.37,-0.14
2021-08-01 01:26:43.528,0.37,-0.14
2021-08-01 01:26:43.532,0.375,-0.14
2021-08-01 01:26:43.536,0.375,-0.135
2021-08-01 01:26:43.540,0.38,-0.15
2021-08-01 01:26:43.544,0.385,-0.135
2021-08-01 01:26:43.548,0.37,-0.14
2021-08-01 01:26:43.552,0.37,-0.135
2021-08-01 01:26:43.556,0.38,-0.145
2021-08-01 01:26:43.560,0.38,-0.135
2021-08-01 01:26:43.564,0.365,-0.13
2021-08-01 01:26:43.568,0.38,-0.14
2021-08-01 01:26:43.572,0.365,-0.145
2021-08-01 01:26:43.576,0.36,-0.145
2021-08-01 01:26:43.580,0.355,-0.135
2021-08-01 01:26:43.584,0.365,-0.12
2021-08-01 01:26:43.588,0.345,-0.14
2021-08-01 01:26:43.592,0.375,-0.13
2021-08-01 01:26:43.596,0.38,-0.115
2021-08-01 01:26:43.600,0.375,-0.105
2021-08-01 01:26:43.604,0.375,-0.07
2021-08-01 01:26:43.608,0.36,-0.055
2021-08-01 01:26:43.612,0.375,-0.06
2021-08-01 01:26:43.616,0.395,-0.075
2021-08-01 01:26:43.620,0.405,-0.07
2021-08-01 01:26:43.624,0.405,-0.01
2021-08-01 01:26:43.628,0.425,-0.015
2021-08-01 01:26:43.632,0.425,-0.03
2021-08-01 01:26:43.636,0.415,-0.09
2021-08-01 01:26:43.640,0.375,-0.11
2021-08-01 01:26:43.644,0.34,-0.12
2021-08-01 01:26:43.648,0.295,-0.12
2021-08-01 01:26:43.652,0.31,-0.145
2021-08-01 01:26:43.656,0.32,-0.145
2021-08-01 01:26:43.660,0.29,-0.135
2021-08-01 01:26:43.664,0.295,-0.13
2021-08-01 01:26:43.668,0.295,-0.13
2021-08-01 01:26:43.672,0.3,-0.125
2021-08-01 01:26:43.676,0.33,-0.125
2021-08-01 01:26:43.680,0.335,-0.15
2021-08-01 01:26:43.684,0.33,-0.18
2021-08-01 01:26:43.688,0.325,-0.185
2021-08-01 01:26:43.692,0.315,-0.195
2021-08-01 01:26:43.696,0.35,-0.215
2021-08-01 01:26:43.700,0.34,-0.22
2021-08-01 01:26:43.704,0.315,-0.235
2021-08-01 01:26:43.708,0.315,-0.245
2021-08-01 01:26:43.712,0.325,-0.235
2021-08-01 01:26:43.716,0.305,-0.23
2021-08-01 01:26:43.720,0.3,-0.235
2021-08-01 01:26:43.724,0.315,-0.245
2021-08-01 01:26:43.728,0.305,-0.235
2021-08-01 01:26:43.732,0.3,-0.225
2021-08-01 01:26:43.736,0.315,-0.24
2021-08-01 01:26:43.740,0.295,-0.225
2021-08-01 01:26:43.744,0.295,-0.235
2021-08-01 01:26:43.748,0.315,-0.255
2021-08-01 01:26:43.752,0.3,-0.275
2021-08-01 01:26:43.756,0.3,-0.22
2021-08-01 01:26:43.760,0.315,-0.11
2021-08-01 01:26:43.764,0.345,0.075
2021-08-01 01:26:43.768,0.365,0.275
2021-08-01 01:26:43.772,0.405,0.49
2021-08-01 01:26:43.776,0.49,0.61
2021-08-01 01:26:43.780,0.555,0.665
2021-08-01 01:26:43.784,0.62,0.64
2021-08-01 01:26:43.788,0.625,0.445
2021-08-01 01:26:43.792,0.585,0.01
2021-08-01 01:26:43.796,0.545,-0.385
2021-08-01 01:26:43.800,0.385,-0.625
2021-08-01 01:26:43.804,0.165,-0.725
2021-08-01 01:26:43.808,0.03,-0.725
2021-08-01 01:26:43.812,-0.06,-0.63
2021-08-01 01:26:43.816,-0.055,-0.495
2021-08-01 01:26:43.820,-0.055,-0.395
2021-08-01 01:26:43.824,0.01,-0.32
2021-08-01 01:26:43.828,0.1,-0.285
2021-08-01 01:26:43.832,0.19,-0.24
2021-08-01 01:26:43.836,0.22,-0.255
2021-08-01 01:26:43.840,0.265,-0.28
2021-08-01 01:26:43.844,0.285,-0.28
2021-08-01 01:26:43.848,0.27,-0.25
2021-08-01 01:26:43.852,0.275,-0.25
2021-08-01 01:26:43.856,0.29,-0.24
2021-08-01 01:26:43.860,0.275,-0.22
2021-08-01 01:26:43.864,0.265,-0.235
2021-08-01 01:26:43.868,0.265,-0.245
2021-08-01 01:26:43.872,0.275,-0.26
2021-08-01 01:26:43.876,0.265,-0.24
2021-08-01 01:26:43.880,0.26,-0.245
2021-08-01 01:26:43.884,0.265,-0.25
2021-08-01 01:26:43.888,0.255,-0.25
2021-08-01 01:26:43.892,0.25,-0.24
2021-08-01 01:26:43.896,0.265,-0.24
2021-08-01 01:26:43.900,0.24,-0.24
2021-08-01 01:26:43.904,0.24,-0.24
2021-08-01 01:26:43.908,0.24,-0.25
2021-08-01 01:26:43.912,0.25,-0.235
2021-08-01 01:26:43.916,0.23,-0.23
2021-08-01 01:26:43.920,0.245,-0.23
2021-08-01 01:26:43.924,0.24,-0.22
2021-08-01 01:26:43.928,0.245,-0.21
2021-08-01 01:26:43.932,0.245,-0.22
2021-08-01 01:26:43.936,0.24,-0.22
2021-08-01 01:26:43.940,0.255,-0.21
2021-08-01 01:26:43.944,0.25,-0.21
2021-08-01 01:26:43.948,0.26,-0.215
2021-08-01 01:26:43.952,0.26,-0.2
2021-08-01 01:26:43.956,0.26,-0.145
2021-08-01 01:26:43.960,0.265,-0.14
2021-08-01 01:26:43.964,0.27,-0.12
2021-08-01 01:26:43.968,0.28,-0.155
2021-08-01 01:26:43.972,0.275,-0.16
2021-08-01 01:26:43.976,0.265,-0.16
2021-08-01 01:26:43.980,0.28,-0.185
2021-08-01 01:26:43.984,0.3,-0.21
2021-08-01 01:26:43.988,0.295,-0.225
2021-08-01 01:26:43.992,0.315,-0.2
2021-08-01 01:26:43.996,0.3,-0.17
2021-08-01 01:26:44.000,0.295,-0.13
2021-08-01 01:26:44.004,0.3,-0.13
2021-08-01 01:26:44.008,0.325,-0.135
2021-08-01 01:26:44.012,0.285,-0.125
2021-08-01 01:26:44.016,0.265,-0.135
2021-08-01 01:26:44.020,0.24,-0.135
2021-08-01 01:26:44.024,0.22,-0.14
2021-08-01 01:26:44.028,0.21,-0.11
2021-08-01 01:26:44.032,0.225,-0.13
2021-08-01 01:26:44.036,0.235,-0.125
2021-08-01 01:26:44.040,0.225,-0.105
2021-08-01 01:26:44.044,0.225,-0.1
2021-08-01 01:26:44.048,0.235,-0.09
2021-08-01 01:26:44.052,0.225,-0.075
2021-08-01 01:26:44.056,0.215,-0.06
2021-08-01 01:26:44.060,0.23,-0.085
2021-08-01 01:26:44.064,0.23,-0.095
2021-08-01 01:26:44.068,0.23,-0.1
2021-08-01 01:26:44.072,0.23,-0.115
2021-08-01 01:26:44.076,0.235,-0.125
2021-08-01 01:26:44.080,0.22,-0.13
2021-08-01 01:26:44.084,0.22,-0.11
2021-08-01 01:26:44.088,0.215,-0.135
2021-08-01 01:26:44.092,0.195,-0.15
2021-08-01 01:26:44.096,0.185,-0.17
2021-08-01 01:26:44.100,0.205,-0.16
2021-08-01 01:26:44.104,0.195,-0.16
2021-08-01 01:26:44.108,0.19,-0.145
2021-08-01 01:26:44.112,0.2,-0.15
2021-08-01 01:26:44.116,0.195,-0.16
2021-08-01 01:26:44.120,0.205,-0.155
2021-08-01 01:26:44.124,0.19,-0.12
2021-08-01 01:26:44.128,0.21,-0.145
2021-08-01 01:26:44.132,0.23,-0.17
2021-08-01 01:26:44.136,0.19,-0.145
2021-08-01 01:26:44.140,0.195,-0.02
2021-08-01 01:26:44.144,0.2,0.185
2021-08-01 01:26:44.148,0.235,0.43
2021-08-01 01:26:44.152,0.265,0.625
2021-08-01 01:26:44.156,0.295,0.7
2021-08-01 01:26:44.160,0.385,0.615
2021-08-01 01:26:44.164,0.47,0.405
2021-08-01 01:26:44.168,0.495,-0.07
2021-08-01 01:26:44.172,0.44,-0.555
2021-08-01 01:26:44.176,0.24,-0.835
2021-08-01 01:26:44.180,0.0,-0.79
2021-08-01 01:26:44.184,-0.175,-0.635
2021-08-01 01:26:44.188,-0.21,-0.6
2021-08-01 01:26:44.192,-0.14,-0.48
2021-08-01 01:26:44.196,-0.09,-0.335
2021-08-01 01:26:44.200,-0.02,-0.25
2021-08-01 01:26:44.204,0.065,-0.225
2021-08-01 01:26:44.208,0.15,-0.24
2021-08-01 01:26:44.212,0.2,-0.225
2021-08-01 01:26:44.216,0.215,-0.22
2021-08-01 01:26:44.220,0.205,-0.205
2021-08-01 01:26:44.224,0.21,-0.225
2021-08-01 01:26:44.228,0.205,-0.225
2021-08-01 01:26:44.232,0.205,-0.245
2021-08-01 01:26:44.236,0.205,-0.25
2021-08-01 01:26:44.240,0.215,-0.27
2021-08-01 01:26:44.244,0.225,-0.28
2021-08-01 01:26:44.248,0.255,-0.32
2021-08-01 01:26:44.252,0.26,-0.33
2021-08-01 01:26:44.256,0.235,-0.3
2021-08-01 01:26:44.260,0.24,-0.24
2021-08-01 01:26:44.264,0.255,-0.235
2021-08-01 01:26:44.268,0.24,-0.23
2021-08-01 01:26:44.272,0.195,-0.235
2021-08-01 01:26:44.276,0.175,-0.23
2021-08-01 01:26:44.280,0.155,-0.245
2021-08-01 01:26:44.284,0.115,-0.245
2021-08-01 01:26:44.288,0.12,-0.23
2021-08-01 01:26:44.292,0.135,-0.24
2021-08-01 01:26:44.296,0.145,-0.24
2021-08-01 01:26:44.300,0.135,-0.22
2021-08-01 01:26:44.304,0.13,-0.215
2021-08-01 01:26:44.308,0.135,-0.195
2021-08-01 01:26:44.312,0.13,-0.21
2021-08-01 01:26:44.316,0.125,-0.19
2021-08-01 01:26:44.320,0.135,-0.195
2021-08-01 01:26:44.324,0.145,-0.17
2021-08-01 01:26:44.328,0.13,-0.16
2021-08-01 01:26:44.332,0.11,-0.18
2021-08-01 01:26:44.336,0.12,-0.155
2021-08-01 01:26:44.340,0.135,-0.12
2021-08-01 01:26:44.344,0.145,-0.115
2021-08-01 01:26:44.348,0.145,-0.11
2021-08-01 01:26:44.352,0.135,-0.09
2021-08-01 01:26:44.356,0.16,-0.075
2021-08-01 01:26:44.360,0.165,-0.045
2021-08-01 01:26:44.364,0.16,-0.035
2021-08-01 01:26:44.368,0.18,-0.02
2021-08-01 01:26:44.372,0.18,-0.02
2021-08-01 01:26:44.376,0.175,0.0
2021-08-01 01:26:44.380,0.185,0.02
2021-08-01 01:26:44.384,0.195,0.02
2021-08-01 01:26:44.388,0.175,0.035
2021-08-01 01:26:44.392,0.195,0.05
2021-08-01 01:26:44.396,0.205,0.07
2021-08-01 01:26:44.400,0.23,0.045
2021-08-01 01:26:44.404,0.22,0.075
2021-08-01 01:26:44.408,0.215,0.08
2021-08-01 01:26:44.412,0.205,0.05
2021-08-01 01:26:44.416,0.22,0.035
2021-08-01 01:26:44.420,0.195,0.06
2021-08-01 01:26:44.424,0.22,0.01
2021-08-01 01:26:44.428,0.21,0.0
2021-08-01 01:26:44.432,0.225,-0.025
2021-08-01 01:26:44.436,0.235,-0.04
2021-08-01 01:26:44.440,0.215,-0.075
2021-08-01 01:26:44.444,0.22,-0.08
2021-08-01 01:26:44.448,0.205,-0.105
2021-08-01 01:26:44.452,0.2,-0.11
2021-08-01 01:26:44.456,0.205,-0.145
2021-08-01 01:26:44.460,0.2,-0.11
2021-08-01 01:26:44.464,0.215,-0.135
2021-08-01 01:26:44.468,0.205,-0.145
2021-08-01 01:26:44.472,0.195,-0.145
2021-08-01 01:26:44.476,0.205,-0.145
2021-08-01 01:26:44.480,0.18,-0.145
2021-08-01 01:26:44.484,0.18,-0.145
2021-08-01 01:26:44.488,0.205,-0.16
2021-08-01 01:26:44.492,0.195,-0.16
2021-08-01 01:26:44.496,0.2,-0.155
2021-08-01 01:26:44.500,0.195,-0.145
2021-08-01 01:26:44.504,0.185,-0.15
2021-08-01 01:26:44.508,0.18,-0.165
2021-08-01 01:26:44.512,0.185,-0.17
2021-08-01 01:26:44.516,0.18,-0.16
2021-08-01 01:26:44.520,0.185,-0.15
2021-08-01 01:26:44.524,0.2,-0.155
2021-08-01 01:26:44.528,0.175,-0.16
2021-08-01 01:26:44.532,0.165,-0.165
2021-08-01 01:26:44.536,0.15,-0.16
2021-08-01 01:26:44.540,0.155,-0.15
2021-08-01 01:26:44.544,0.16,-0.155
2021-08-01 01:26:44.548,0.165,-0.17
2021-08-01 01:26:44.552,0.175,-0.185
2021-08-01 01:26:44.556,0.16,-0.17
2021-08-01 01:26:44.560,0.16,-0.165
2021-08-01 01:26:44.564,0.155,-0.16
2021-08-01 01:26:44.568,0.16,-0.17
2021-08-01 01:26:44.572,0.145,-0.16
2021-08-01 01:26:44.576,0.155,-0.18
2021-08-01 01:26:44.580,0.17,-0.195
2021-08-01 01:26:44.584,0.165,-0.175
2021-08-01 01:26:44.588,0.15,-0.185
2021-08-01 01:26:44.592,0.145,-0.185
2021-08-01 01:26:44.596,0.16,-0.185
2021-08-01 01:26:44.600,0.155,-0.165
2021-08-01 01:26:44.604,0.145,-0.205
2021-08-01 01:26:44.608,0.155,-0.2
2021-08-01 01:26:44.612,0.14,-0.195
2021-08-01 01:26:44.616,0.16,-0.185
2021-08-01 01:26:44.620,0.135,-0.195
2021-08-01 01:26:44.624,0.145,-0.195
2021-08-01 01:26:44.628,0.125,-0.19
2021-08-01 01:26:44.632,0.145,-0.195
2021-08-01 01:26:44.636,0.135,-0.185
2021-08-01 01:26:44.640,0.135,-0.175
2021-08-01 01:26:44.644,0.13,-0.19
2021-08-01 01:26:44.648,0.14,-0.2
2021-08-01 01:26:44.652,0.15,-0.2
2021-08-01 01:26:44.656,0.13,-0.18
2021-08-01 01:26:44.660,0.13,-0.18
2021-08-01 01:26:44.664,0.14,-0.19
2021-08-01 01:26:44.668,0.14,-0.185
2021-08-01 01:26:44.672,0.135,-0.185
2021-08-01 01:26:44.676,0.15,-0.19
2021-08-01 01:26:44.680,0.135,-0.185
2021-08-01 01:26:44.684,0.13,-0.18
2021-08-01 01:26:44.688,0.115,-0.19
2021-08-01 01:26:44.692,0.145,-0.195
2021-08-01 01:26:44.696,0.125,-0.185
2021-08-01 01:26:44.700,0.115,-0.195
2021-08-01 01:26:44.704,0.12,-0.185
2021-08-01 01:26:44.708,0.125,-0.19
2021-08-01 01:26:44.712,0.105,-0.17
2021-08-01 01:26:44.716,0.135,-0.175
2021-08-01 01:26:44.720,0.13,-0.18
2021-08-01 01:26:44.724,0.105,-0.18
2021-08-01 01:26:44.728,0.115,-0.195
2021-08-01 01:26:44.732,0.125,-0.185
2021-08-01 01:26:44.736,0.115,-0.175
2021-08-01 01:26:44.740,0.115,-0.18
2021-08-01 01:26:44.744,0.11,-0.18
2021-08-01 01:26:44.748,0.11,-0.18
2021-08-01 01:26:44.752,0.115,-0.17
2021-08-01 01:26:44.756,0.13,-0.175
2021-08-01 01:26:44.760,0.105,-0.185
2021-08-01 01:26:44.764,0.11,-0.19
2021-08-01 01:26:44.768,0.105,-0.18
2021-08-01 01:26:44.772,0.095,-0.19
2021-08-01 01:26:44.776,0.08,-0.19
2021-08-01 01:26:44.780,0.11,-0.2
2021-08-01 01:26:44.784,0.105,-0.2
2021-08-01 01:26:44.788,0.095,-0.185
2021-08-01 01:26:44.792,0.105,-0.185
2021-08-01 01:26:44.796,0.095,-0.18
2021-08-01 01:26:44.800,0.11,-0.195
2021-08-01 01:26:44.804,0.11,-0.19
2021-08-01 01:26:44.808,0.1,-0.185
2021-08-01 01:26:44.812,0.095,-0.185
2021-08-01 01:26:44.816,0.08,-0.16
2021-08-01 01:26:44.820,0.085,-0.2
2021-08-01 01:26:44.824,0.095,-0.185
2021-08-01 01:26:44.828,0.095,-0.17
2021-08-01 01:26:44.832,0.09,-0.16
2021-08-01 01:26:44.836,0.08,-0.17
2021-08-01 01:26:44.840,0.08,-0.17
2021-08-01 01:26:44.844,0.07,-0.175
2021-08-01 01:26:44.848,0.08,-0.18
2021-08-01 01:26:44.852,0.08,-0.17
2021-08-01 01:26:44.856,0.06,-0.16
2021-08-01 01:26:44.860,0.07,-0.19
2021-08-01 01:26:44.864,0.095,-0.18
2021-08-01 01:26:44.868,0.09,-0.16
2021-08-01 01:26:44.872,0.07,-0.18
2021-08-01 01:26:44.876,0.075,-0.19
2021-08-01 01:26:44.880,0.085,-0.195
2021-08-01 01:26:44.884,0.075,-0.185
2021-08-01 01:26:44.888,0.07,-0.185
2021-08-01 01:26:44.892,0.075,-0.175
2021-08-01 01:26:44.896,0.065,-0.185
2021-08-01 01:26:44.900,0.07,-0.18
2021-08-01 01:26:44.904,0.075,-0.175
2021-08-01 01:26:44.908,0.07,-0.175
2021-08-01 01:26:44.912,0.065,-0.18
2021-08-01 01:26:44.916,0.075,-0.195
2021-08-01 01:26:44.920,0.045,-0.19
2021-08-01 01:26:44.924,0.065,-0.19
2021-08-01 01:26:44.928,0.05,-0.18
2021-08-01 01:26:44.932,0.065,-0.175
2021-08-01 01:26:44.936,0.045,-0.185
2021-08-01 01:26:44.940,0.06,-0.205
2021-08-01 01:26:44.944,0.065,-0.185
2021-08-01 01:26:44.948,0.055,-0.18
2021-08-01 01:26:44.952,0.045,-0.175
2021-08-01 01:26:44.956,0.05,-0.205
2021-08-01 01:26:44.960,0.065,-0.18
2021-08-01 01:26:44.964,0.055,-0.17
2021-08-01 01:26:44.968,0.045,-0.19
2021-08-01 01:26:44.972,0.055,-0.19
2021-08-01 01:26:44.976,0.06,-0.195
2021-08-01 01:26:44.980,0.05,-0.2
2021-08-01 01:26:44.984,0.05,-0.2
2021-08-01 01:26:44.988,0.04,-0.19
2021-08-01 01:26:44.992,0.035,-0.17
2021-08-01 01:26:44.996,0.035,-0.18
2021-08-01 01:26:45.000,0.06,-0.18
2021-08-01 01:26:45.004,0.06,-0.19
2021-08-01 01:26:45.008,0.03,-0.17
2021-08-01 01:26:45.012,0.045,-0.205
2021-08-01 01:26:45.016,0.03,-0.205
2021-08-01 01:26:45.020,0.02,-0.175
2021-08-01 01:26:45.024,0.045,-0.2
2021-08-01 01:26:45.028,0.04,-0.19
2021-08-01 01:26:45.032,0.035,-0.19
2021-08-01 01:26:45.036,0.05,-0.185
2021-08-01 01:26:45.040,0.04,-0.205
2021-08-01 01:26:45.044,0.04,-0.19
2021-08-01 01:26:45.048,0.035,-0.175
2021-08-01 01:26:45.052,0.025,-0.195
2021-08-01 01:26:45.056,0.05,-0.21
2021-08-01 01:26:45.060,0.04,-0.195
2021-08-01 01:26:45.064,0.03,-0.19
2021-08-01 01:26:45.068,0.03,-0.185
2021-08-01 01:26:45.072,0.025,-0.195
2021-08-01 01:26:45.076,0.035,-0.19
2021-08-01 01:26:45.080,0.025,-0.205
2021-08-01 01:26:45.084,0.045,-0.19
2021-08-01 01:26:45.088,0.03,-0.18
2021-08-01 01:26:45.092,0.04,-0.18
2021-08-01 01:26:45.096,0.03,-0.205
2021-08-01 01:26:45.100,0.03,-0.2
2021-08-01 01:26:45.104,0.025,-0.18
2021-08-01 01:26:45.108,0.035,-0.2
2021-08-01 01:26:45.112,0.035,-0.21
2021-08-01 01:26:45.116,0.035,-0.2
2021-08-01 01:26:45.120,0.015,-0.19
2021-08-01 01:26:45.124,0.035,-0.19
2021-08-01 01:26:45.128,0.03,-0.2
2021-08-01 01:26:45.132,0.02,-0.195
2021-08-01 01:26:45.136,0.035,-0.2
2021-08-01 01:26:45.140,0.035,-0.18
2021-08-01 01:26:45.144,0.04,-0.16
2021-08-01 01:26:45.148,0.03,-0.185
2021-08-01 01:26:45.152,0.025,-0.215
2021-08-01 01:26:45.156,0.015,-0.2
2021-08-01 01:26:45.160,0.015,-0.185
2021-08-01 01:26:45.164,0.035,-0.185
2021-08-01 01:26:45.168,0.05,-0.15
2021-08-01 01:26:45.172,0.03,-0.145
2021-08-01 01:26:45.176,0.025,-0.14
2021-08-01 01:26:45.180,0.055,-0.115
2021-08-01 01:26:45.184,0.05,-0.14
2021-08-01 01:26:45.188,0.065,-0.14
2021-08-01 01:26:45.192,0.07,-0.115
2021-08-01 01:26:45.196,0.075,-0.13
2021-08-01 01:26:45.200,0.065,-0.14
2021-08-01 01:26:45.204,0.025,-0.15
2021-08-01 01:26:45.208,0.015,-0.16
2021-08-01 01:26:45.212,0.01,-0.195
2021-08-01 01:26:45.216,-0.02,-0.21
2021-08-01 01:26:45.220,-0.005,-0.205
2021-08-01 01:26:45.224,-0.025,-0.195
2021-08-01 01:26:45.228,-0.025,-0.18
2021-08-01 01:26:45.232,-0.02,-0.19
2021-08-01 01:26:45.236,0.0,-0.17
2021-08-01 01:26:45.240,0.0,-0.175
2021-08-01 01:26:45.244,0.02,-0.21
2021-08-01 01:26:45.248,0.015,-0.22
2021-08-01 01:26:45.252,0.0,-0.24
2021-08-01 01:26:45.256,0.0,-0.25
2021-08-01 01:26:45.260,0.025,-0.27
2021-08-01 01:26:45.264,0.0,-0.27
2021-08-01 01:26:45.268,0.0,-0.285
2021-08-01 01:26:45.272,-0.005,-0.3
2021-08-01 01:26:45.276,-0.01,-0.29
2021-08-01 01:26:45.280,-0.005,-0.29
2021-08-01 01:26:45.284,-0.01,-0.295
2021-08-01 01:26:45.288,-0.015,-0.29
2021-08-01 01:26:45.292,-0.015,-0.29
2021-08-01 01:26:45.296,-0.01,-0.285
2021-08-01 01:26:45.300,-0.005,-0.285
2021-08-01 01:26:45.304,0.0,-0.31
2021-08-01 01:26:45.308,0.01,-0.305
2021-08-01 01:26:45.312,-0.005,-0.28
2021-08-01 01:26:45.316,0.01,-0.155
2021-08-01 01:26:45.320,0.0,0.065
2021-08-01 01:26:45.324,0.04,0.265
2021-08-01 01:26:45.328,0.085,0.465
2021-08-01 01:26:45.332,0.165,0.565
2021-08-01 01:26:45.336,0.25,0.58
2021-08-01 01:26:45.340,0.32,0.535
2021-08-01 01:26:45.344,0.32,0.375
2021-08-01 01:26:45.348,0.32,-0.055
2021-08-01 01:26:45.352,0.29,-0.475
2021-08-01 01:26:45.356,0.105,-0.705
2021-08-01 01:26:45.360,-0.14,-0.785
2021-08-01 01:26:45.364,-0.285,-0.77
2021-08-01 01:26:45.368,-0.36,-0.67
2021-08-01 01:26:45.372,-0.37,-0.565
2021-08-01 01:26:45.376,-0.34,-0.47
2021-08-01 01:26:45.380,-0.27,-0.41
2021-08-01 01:26:45.384,-0.18,-0.345
2021-08-01 01:26:45.388,-0.115,-0.33
2021-08-01 01:26:45.392,-0.07,-0.335
2021-08-01 01:26:45.396,-0.025,-0.33
2021-08-01 01:26:45.400,-0.005,-0.315
2021-08-01 01:26:45.404,0.0,-0.32
2021-08-01 01:26:45.408,-0.005,-0.325
2021-08-01 01:26:45.412,-0.015,-0.33
2021-08-01 01:26:45.416,0.0,-0.32
2021-08-01 01:26:45.420,-0.01,-0.32
2021-08-01 01:26:45.424,0.0,-0.32
2021-08-01 01:26:45.428,0.0,-0.3
2021-08-01 01:26:45.432,-0.01,-0.31
2021-08-01 01:26:45.436,0.0,-0.305
2021-08-01 01:26:45.440,0.0,-0.32
2021-08-01 01:26:45.444,-0.01,-0.31
2021-08-01 01:26:45.448,-0.01,-0.325
2021-08-01 01:26:45.452,0.005,-0.325
2021-08-01 01:26:45.456,-0.01,-0.31
2021-08-01 01:26:45.460,0.0,-0.32
2021-08-01 01:26:45.464,0.0,-0.325
2021-08-01 01:26:45.468,-0.005,-0.32
2021-08-01 01:26:45.472,0.005,-0.31
2021-08-01 01:26:45.476,0.01,-0.3
2021-08-01 01:26:45.480,0.0,-0.29
2021-08-01 01:26:45.484,0.0,-0.285
2021-08-01 01:26:45.488,0.0,-0.3
2021-08-01 01:26:45.492,-0.005,-0.295
2021-08-01 01:26:45.496,-0.01,-0.28
2021-08-01 01:26:45.500,0.0,-0.28
2021-08-01 01:26:45.504,0.005,-0.275
2021-08-01 01:26:45.508,0.0,-0.26
2021-08-01 01:26:45.512,0.01,-0.245
2021-08-01 01:26:45.516,0.0,-0.255
2021-08-01 01:26:45.520,0.005,-0.255
2021-08-01 01:26:45.524,0.02,-0.245
2021-08-01 01:26:45.528,0.01,-0.25
2021-08-01 01:26:45.532,0.015,-0.23
2021-08-01 01:26:45.536,0.005,-0.24
2021-08-01 01:26:45.540,0.01,-0.22
2021-08-01 01:26:45.544,0.015,-0.235
2021-08-01 01:26:45.548,0.005,-0.235
2021-08-01 01:26:45.552,0.015,-0.205
2021-08-01 01:26:45.556,0.02,-0.21
2021-08-01 01:26:45.560,0.01,-0.215
2021-08-01 01:26:45.564,0.015,-0.215
2021-08-01 01:26:45.568,0.025,-0.195
2021-08-01 01:26:45.572,0.01,-0.195
2021-08-01 01:26:45.576,0.02,-0.195
2021-08-01 01:26:45.580,0.025,-0.19
2021-08-01 01:26:45.584,0.015,-0.195
2021-08-01 01:26:45.588,0.03,-0.18
2021-08-01 01:26:45.592,0.03,-0.18
2021-08-01 01:26:45.596,0.02,-0.18
2021-08-01 01:26:45.600,0.015,-0.185
2021-08-01 01:26:45.604,0.005,-0.17
2021-08-01 01:26:45.608,0.0,-0.15
2021-08-01 01:26:45.612,0.01,-0.14
2021-08-01 01:26:45.616,0.015,-0.14
2021-08-01 01:26:45.620,0.01,-0.13
2021-08-01 01:26:45.624,0.025,-0.135
2021-08-01 01:26:45.628,0.015,-0.12
2021-08-01 01:26:45.632,0.015,-0.135
2021-08-01 01:26:45.636,0.0,-0.125
2021-08-01 01:26:45.640,0.02,-0.14
2021-08-01 01:26:45.644,0.015,-0.14
2021-08-01 01:26:45.648,0.025,-0.13
2021-08-01 01:26:45.652,0.01,-0.125
2021-08-01 01:26:45.656,0.005,-0.14
2021-08-01 01:26:45.660,0.015,-0.16
2021-08-01 01:26:45.664,0.005,-0.145
2021-08-01 01:26:45.668,0.015,-0.155
2021-08-01 01:26:45.672,0.01,-0.16
2021-08-01 01:26:45.676,0.0,-0.17
2021-08-01 01:26:45.680,0.02,-0.18
2021-08-01 01:26:45.684,0.025,-0.195
2021-08-01 01:26:45.688,0.0,-0.175
2021-08-01 01:26:45.692,0.015,-0.17
2021-08-01 01:26:45.696,0.015,-0.18
2021-08-01 01:26:45.700,0.0,-0.185
2021-08-01 01:26:45.704,0.0,-0.18
2021-08-01 01:26:45.708,0.0,-0.175
2021-08-01 01:26:45.712,0.025,-0.185
2021-08-01 01:26:45.716,0.01,-0.16
2021-08-01 01:26:45.720,0.015,-0.18
2021-08-01 01:26:45.724,0.025,-0.175
2021-08-01 01:26:45.728,0.01,-0.17
2021-08-01 01:26:45.732,0.0,-0.17
2021-08-01 01:26:45.736,-0.015,-0.175
2021-08-01 01:26:45.740,0.0,-0.175
2021-08-01 01:26:45.744,0.01,-0.165
2021-08-01 01:26:45.748,0.015,-0.17
2021-08-01 01:26:45.752,-0.005,-0.16
2021-08-01 01:26:45.756,0.0,-0.16
2021-08-01 01:26:45.760,0.01,-0.16
2021-08-01 01:26:45.764,0.005,-0.17
2021-08-01 01:26:45.768,0.005,-0.17
2021-08-01 01:26:45.772,-0.01,-0.175
2021-08-01 01:26:45.776,0.0,-0.19
2021-08-01 01:26:45.780,0.0,-0.175
2021-08-01 01:26:45.784,-0.015,-0.17
2021-08-01 01:26:45.788,-0.005,-0.185
2021-08-01 01:26:45.792,0.0,-0.19
2021-08-01 01:26:45.796,-0.01,-0.185
2021-08-01 01:26:45.800,-0.015,-0.195
2021-08-01 01:26:45.804,0.0,-0.195
2021-08-01 01:26:45.808,-0.01,-0.2
2021-08-01 01:26:45.812,-0.005,-0.205
2021-08-01 01:26:45.816,-0.015,-0.205
2021-08-01 01:26:45.820,-0.01,-0.21
2021-08-01 01:26:45.824,-0.03,-0.215
2021-08-01 01:26:45.828,-0.02,-0.215
2021-08-01 01:26:45.832,-0.01,-0.22
2021-08-01 01:26:45.836,-0.025,-0.23
2021-08-01 01:26:45.840,0.0,-0.24
2021-08-01 01:26:45.844,-0.005,-0.225
2021-08-01 01:26:45.848,-0.005,-0.225
2021-08-01 01:26:45.852,-0.02,-0.23
2021-08-01 01:26:45.856,-0.025,-0.235
2021-08-01 01:26:45.860,-0.02,-0.25
2021-08-01 01:26:45.864,-0.02,-0.245
2021-08-01 01:26:45.868,-0.025,-0.25
2021-08-01 01:26:45.872,-0.04,-0.24
2021-08-01 01:26:45.876,-0.04,-0.24
2021-08-01 01:26:45.880,-0.02,-0.24
2021-08-01 01:26:45.884,-0.04,-0.255
2021-08-01 01:26:45.888,-0.03,-0.235
2021-08-01 01:26:45.892,-0.045,-0.24
2021-08-01 01:26:45.896,-0.05,-0.26
2021-08-01 01:26:45.900,-0.03,-0.265
2021-08-01 01:26:45.904,-0.02,-0.265
2021-08-01 01:26:45.908,-0.035,-0.245
2021-08-01 01:26:45.912,-0.04,-0.255
2021-08-01 01:26:45.916,-0.03,-0.27
2021-08-01 01:26:45.920,-0.05,-0.255
2021-08-01 01:26:45.924,-0.035,-0.255
2021-08-01 01:26:45.928,-0.04,-0.24
2021-08-01 01:26:45.932,-0.035,-0.26
2021-08-01 01:26:45.936,-0.055,-0.255
2021-08-01 01:26:45.940,-0.03,-0.265
2021-08-01 01:26:45.944,-0.035,-0.26
2021-08-01 01:26:45.948,-0.06,-0.25
2021-08-01 01:26:45.952,-0.025,-0.255
2021-08-01 01:26:45.956,-0.055,-0.28
2021-08-01 01:26:45.960,-0.05,-0.255
2021-08-01 01:26:45.964,-0.05,-0.26
2021-08-01 01:26:45.968,-0.055,-0.26
2021-08-01 01:26:45.972,-0.055,-0.255
2021-08-01 01:26:45.976,-0.05,-0.255
2021-08-01 01:26:45.980,-0.045,-0.275
2021-08-01 01:26:45.984,-0.06,-0.265
2021-08-01 01:26:45.988,-0.055,-0.27
2021-08-01 01:26:45.992,-0.065,-0.25
2021-08-01 01:26:45.996,-0.07,-0.255
2021-08-01 01:26:46.000,-0.055,-0.245
2021-08-01 01:26:46.004,-0.075,-0.245
2021-08-01 01:26:46.008,-0.06,-0.235
2021-08-01 01:26:46.012,-0.055,-0.225
2021-08-01 01:26:46.016,-0.055,-0.195
2021-08-01 01:26:46.020,-0.05,-0.19
2021-08-01 01:26:46.024,-0.04,-0.175
2021-08-01 01:26:46.028,-0.03,-0.2
2021-08-01 01:26:46.032,-0.01,-0.2
2021-08-01 01:26:46.036,-0.025,-0.145
2021-08-01 01:26:46.040,-0.01,-0.13
2021-08-01 01:26:46.044,-0.005,-0.16
2021-08-01 01:26:46.048,-0.035,-0.205
2021-08-01 01:26:46.052,-0.065,-0.235
2021-08-01 01:26:46.056,-0.105,-0.245
2021-08-01 01:26:46.060,-0.125,-0.26
2021-08-01 01:26:46.064,-0.115,-0.265
2021-08-01 01:26:46.068,-0.11,-0.285
2021-08-01 01:26:46.072,-0.13,-0.255
2021-08-01 01:26:46.076,-0.115,-0.245
2021-08-01 01:26:46.080,-0.105,-0.24
2021-08-01 01:26:46.084,-0.1,-0.24
2021-08-01 01:26:46.088,-0.08,-0.25
2021-08-01 01:26:46.092,-0.065,-0.295
2021-08-01 01:26:46.096,-0.075,-0.315
2021-08-01 01:26:46.100,-0.055,-0.305
2021-08-01 01:26:46.104,-0.05,-0.33
2021-08-01 01:26:46.108,-0.05,-0.36
2021-08-01 01:26:46.112,-0.08,-0.365
2021-08-01 01:26:46.116,-0.06,-0.36
2021-08-01 01:26:46.120,-0.075,-0.355
2021-08-01 01:26:46.124,-0.075,-0.35
2021-08-01 01:26:46.128,-0.08,-0.36
2021-08-01 01:26:46.132,-0.07,-0.37
2021-08-01 01:26:46.136,-0.07,-0.355
2021-08-01 01:26:46.140,-0.07,-0.36
2021-08-01 01:26:46.144,-0.095,-0.345
2021-08-01 01:26:46.148,-0.085,-0.365
2021-08-01 01:26:46.152,-0.09,-0.35
2021-08-01 01:26:46.156,-0.09,-0.375
2021-08-01 01:26:46.160,-0.09,-0.39
2021-08-01 01:26:46.164,-0.075,-0.385
2021-08-01 01:26:46.168,-0.085,-0.28
2021-08-01 01:26:46.172,-0.05,-0.14
2021-08-01 01:26:46.176,-0.04,0.09
2021-08-01 01:26:46.180,-0.005,0.31
2021-08-01 01:26:46.184,0.065,0.48
2021-08-01 01:26:46.188,0.15,0.52
2021-08-01 01:26:46.192,0.23,0.535
2021-08-01 01:26:46.196,0.23,0.395
2021-08-01 01:26:46.200,0.18,-0.025
2021-08-01 01:26:46.204,0.165,-0.47
2021-08-01 01:26:46.208,0.025,-0.73
2021-08-01 01:26:46.212,-0.195,-0.825
2021-08-01 01:26:46.216,-0.335,-0.825
2021-08-01 01:26:46.220,-0.42,-0.725
2021-08-01 01:26:46.224,-0.445,-0.6
2021-08-01 01:26:46.228,-0.415,-0.52
2021-08-01 01:26:46.232,-0.32,-0.42
2021-08-01 01:26:46.236,-0.23,-0.375
2021-08-01 01:26:46.240,-0.19,-0.38
2021-08-01 01:26:46.244,-0.11,-0.395
2021-08-01 01:26:46.248,-0.1,-0.38
2021-08-01 01:26:46.252,-0.1,-0.39
2021-08-01 01:26:46.256,-0.1,-0.38
2021-08-01 01:26:46.260,-0.1,-0.365
2021-08-01 01:26:46.264,-0.095,-0.38
2021-08-01 01:26:46.268,-0.08,-0.39
2021-08-01 01:26:46.272,-0.085,-0.365
2021-08-01 01:26:46.276,-0.1,-0.38
2021-08-01 01:26:46.280,-0.085,-0.375
2021-08-01 01:26:46.284,-0.08,-0.38
2021-08-01 01:26:46.288,-0.1,-0.365
2021-08-01 01:26:46.292,-0.105,-0.38
2021-08-01 01:26:46.296,-0.085,-0.37
2021-08-01 01:26:46.300,-0.095,-0.36
2021-08-01 01:26:46.304,-0.075,-0.36
2021-08-01 01:26:46.308,-0.075,-0.375
2021-08-01 01:26:46.312,-0.08,-0.36
2021-08-01 01:26:46.316,-0.075,-0.355
2021-08-01 01:26:46.320,-0.1,-0.37
2021-08-01 01:26:46.324,-0.095,-0.36
2021-08-01 01:26:46.328,-0.095,-0.35
2021-08-01 01:26:46.332,-0.09,-0.34
2021-08-01 01:26:46.336,-0.08,-0.34
2021-08-01 01:26:46.340,-0.075,-0.35
2021-08-01 01:26:46.344,-0.09,-0.335
2021-08-01 01:26:46.348,-0.08,-0.34
2021-08-01 01:26:46.352,-0.07,-0.33
2021-08-01 01:26:46.356,-0.06,-0.325
2021-08-01 01:26:46.360,-0.08,-0.315
2021-08-01 01:26:46.364,-0.08,-0.27
2021-08-01 01:26:46.368,-0.08,-0.24
2021-08-01 01:26:46.372,-0.06,-0.23
2021-08-01 01:26:46.376,-0.035,-0.26
2021-08-01 01:26:46.380,-0.055,-0.28
2021-08-01 01:26:46.384,-0.06,-0.28
2021-08-01 01:26:46.388,-0.04,-0.29
2021-08-01 01:26:46.392,-0.03,-0.3
2021-08-01 01:26:46.396,0.0,-0.32
2021-08-01 01:26:46.400,-0.01,-0.32
2021-08-01 01:26:46.404,0.0,-0.29
2021-08-01 01:26:46.408,0.0,-0.25
2021-08-01 01:26:46.412,0.005,-0.235
2021-08-01 01:26:46.416,-0.02,-0.23
2021-08-01 01:26:46.420,-0.02,-0.235
2021-08-01 01:26:46.424,-0.055,-0.23
2021-08-01 01:26:46.428,-0.065,-0.245
2021-08-01 01:26:46.432,-0.08,-0.245
2021-08-01 01:26:46.436,-0.1,-0.24
2021-08-01 01:26:46.440,-0.09,-0.24
2021-08-01 01:26:46.444,-0.07,-0.235
2021-08-01 01:26:46.448,-0.085,-0.22
2021-08-01 01:26:46.452,-0.055,-0.205
2021-08-01 01:26:46.456,-0.06,-0.2
2021-08-01 01:26:46.460,-0.09,-0.195
2021-08-01 01:26:46.464,-0.09,-0.18
2021-08-01 01:26:46.468,-0.065,-0.17
2021-08-01 01:26:46.472,-0.07,-0.175
2021-08-01 01:26:46.476,-0.075,-0.165
2021-08-01 01:26:46.480,-0.075,-0.18
2021-08-01 01:26:46.484,-0.065,-0.185
2021-08-01 01:26:46.488,-0.075,-0.2
2021-08-01 01:26:46.492,-0.09,-0.2
2021-08-01 01:26:46.496,-0.075,-0.215
2021-08-01 01:26:46.500,-0.065,-0.22
2021-08-01 01:26:46.504,-0.08,-0.23
2021-08-01 01:26:46.508,-0.085,-0.245
2021-08-01 01:26:46.512,-0.09,-0.25
2021-08-01 01:26:46.516,-0.09,-0.245
2021-08-01 01:26:46.520,-0.115,-0.26
2021-08-01 01:26:46.524,-0.1,-0.24
2021-08-01 01:26:46.528,-0.095,-0.24
2021-08-01 01:26:46.532,-0.08,-0.245
2021-08-01 01:26:46.536,-0.095,-0.26
2021-08-01 01:26:46.540,-0.08,-0.295
2021-08-01 01:26:46.544,-0.095,-0.295
2021-08-01 01:26:46.548,-0.1,-0.195
2021-08-01 01:26:46.552,-0.11,-0.01
2021-08-01 01:26:46.556,-0.095,0.25
2021-08-01 01:26:46.560,-0.1,0.48
2021-08-01 01:26:46.564,-0.045,0.595
2021-08-01 01:26:46.568,0.05,0.58
2021-08-01 01:26:46.572,0.13,0.47
2021-08-01 01:26:46.576,0.2,0.13
2021-08-01 01:26:46.580,0.23,-0.375
2021-08-01 01:26:46.584,0.18,-0.835
2021-08-01 01:26:46.588,0.0,-0.995
2021-08-01 01:26:46.592,-0.21,-0.86
2021-08-01 01:26:46.596,-0.35,-0.72
2021-08-01 01:26:46.600,-0.365,-0.635
2021-08-01 01:26:46.604,-0.3,-0.47
2021-08-01 01:26:46.608,-0.26,-0.32
2021-08-01 01:26:46.612,-0.225,-0.235
2021-08-01 01:26:46.616,-0.18,-0.205
2021-08-01 01:26:46.620,-0.13,-0.21
2021-08-01 01:26:46.624,-0.06,-0.225
2021-08-01 01:26:46.628,-0.08,-0.24
2021-08-01 01:26:46.632,-0.12,-0.26
2021-08-01 01:26:46.636,-0.11,-0.295
2021-08-01 01:26:46.640,-0.125,-0.305
2021-08-01 01:26:46.644,-0.12,-0.3
2021-08-01 01:26:46.648,-0.145,-0.305
2021-08-01 01:26:46.652,-0.15,-0.315
2021-08-01 01:26:46.656,-0.15,-0.315
2021-08-01 01:26:46.660,-0.145,-0.32
2021-08-01 01:26:46.664,-0.145,-0.325
2021-08-01 01:26:46.668,-0.14,-0.32
2021-08-01 01:26:46.672,-0.155,-0.335
2021-08-01 01:26:46.676,-0.16,-0.32
2021-08-01 01:26:46.680,-0.145,-0.345
2021-08-01 01:26:46.684,-0.15,-0.32
2021-08-01 01:26:46.688,-0.165,-0.34
2021-08-01 01:26:46.692,-0.145,-0.345
2021-08-01 01:26:46.696,-0.15,-0.36
2021-08-01 01:26:46.700,-0.165,-0.345
2021-08-01 01:26:46.704,-0.16,-0.35
2021-08-01 01:26:46.708,-0.155,-0.35
2021-08-01 01:26:46.712,-0.17,-0.345
2021-08-01 01:26:46.716,-0.17,-0.34
2021-08-01 01:26:46.720,-0.17,-0.325
2021-08-01 01:26:46.724,-0.165,-0.31
2021-08-01 01:26:46.728,-0.15,-0.285
2021-08-01 01:26:46.732,-0.125,-0.295
2021-08-01 01:26:46.736,-0.105,-0.275
2021-08-01 01:26:46.740,-0.105,-0.24
2021-08-01 01:26:46.744,-0.09,-0.18
2021-08-01 01:26:46.748,-0.07,-0.12
2021-08-01 01:26:46.752,-0.04,-0.115
2021-08-01 01:26:46.756,-0.05,-0.11
2021-08-01 01:26:46.760,-0.055,-0.1
2021-08-01 01:26:46.764,-0.075,-0.105
2021-08-01 01:26:46.768,-0.09,-0.095
2021-08-01 01:26:46.772,-0.08,-0.08
2021-08-01 01:26:46.776,-0.11,-0.075
2021-08-01 01:26:46.780,-0.11,-0.06
2021-08-01 01:26:46.784,-0.09,-0.065
2021-08-01 01:26:46.788,-0.11,-0.06
2021-08-01 01:26:46.792,-0.115,-0.04
2021-08-01 01:26:46.796,-0.115,-0.035
2021-08-01 01:26:46.800,-0.12,-0.04
2021-08-01 01:26:46.804,-0.13,-0.04
2021-08-01 01:26:46.808,-0.135,-0.025
2021-08-01 01:26:46.812,-0.125,-0.045
2021-08-01 01:26:46.816,-0.125,-0.06
2021-08-01 01:26:46.820,-0.11,-0.04
2021-08-01 01:26:46.824,-0.115,-0.075
2021-08-01 01:26:46.828,-0.125,-0.08
2021-08-01 01:26:46.832,-0.13,-0.105
2021-08-01 01:26:46.836,-0.115,-0.13
2021-08-01 01:26:46.840,-0.105,-0.155
2021-08-01 01:26:46.844,-0.11,-0.18
2021-08-01 01:26:46.848,-0.12,-0.21
2021-08-01 01:26:46.852,-0.12,-0.235
2021-08-01 01:26:46.856,-0.13,-0.245
2021-08-01 01:26:46.860,-0.11,-0.255
2021-08-01 01:26:46.864,-0.115,-0.27
2021-08-01 01:26:46.868,-0.105,-0.295
2021-08-01 01:26:46.872,-0.125,-0.3
2021-08-01 01:26:46.876,-0.125,-0.3
2021-08-01 01:26:46.880,-0.12,-0.32
2021-08-01 01:26:46.884,-0.145,-0.335
2021-08-01 01:26:46.888,-0.13,-0.32
2021-08-01 01:26:46.892,-0.13,-0.335
2021-08-01 01:26:46.896,-0.13,-0.35
2021-08-01 01:26:46.900,-0.145,-0.355
2021-08-01 01:26:46.904,-0.135,-0.38
2021-08-01 01:26:46.908,-0.135,-0.35
2021-08-01 01:26:46.912,-0.13,-0.27
2021-08-01 01:26:46.916,-0.12,-0.195
2021-08-01 01:26:46.920,-0.095,-0.145
2021-08-01 01:26:46.924,-0.11,-0.135
2021-08-01 01:26:46.928,-0.09,-0.14
2021-08-01 01:26:46.932,-0.085,-0.125
2021-08-01 01:26:46.936,-0.09,-0.145
2021-08-01 01:26:46.940,-0.1,-0.135
2021-08-01 01:26:46.944,-0.1,-0.17
2021-08-01 01:26:46.948,-0.07,-0.195
2021-08-01 01:26:46.952,-0.11,-0.205
2021-08-01 01:26:46.956,-0.09,-0.23
2021-08-01 01:26:46.960,-0.08,-0.235
2021-08-01 01:26:46.964,-0.1,-0.24
2021-08-01 01:26:46.968,-0.115,-0.24
2021-08-01 01:26:46.972,-0.12,-0.25
2021-08-01 01:26:46.976,-0.11,-0.26
2021-08-01 01:26:46.980,-0.12,-0.26
2021-08-01 01:26:46.984,-0.1,-0.26
2021-08-01 01:26:46.988,-0.115,-0.26
2021-08-01 01:26:46.992,-0.12,-0.29
2021-08-01 01:26:46.996,-0.125,-0.315
2021-08-01 01:26:47.000,-0.125,-0.29
2021-08-01 01:26:47.004,-0.12,-0.21
2021-08-01 01:26:47.008,-0.11,-0.045
2021-08-01 01:26:47.012,-0.1,0.15
2021-08-01 01:26:47.016,-0.035,0.355
2021-08-01 01:26:47.020,0.02,0.495
2021-08-01 01:26:47.024,0.095,0.53
2021-08-01 01:26:47.028,0.155,0.475
2021-08-01 01:26:47.032,0.19,0.255
2021-08-01 01:26:47.036,0.12,-0.21
2021-08-01 01:26:47.040,0.04,-0.61
2021-08-01 01:26:47.044,-0.15,-0.77
2021-08-01 01:26:47.048,-0.38,-0.8
2021-08-01 01:26:47.052,-0.525,-0.745
2021-08-01 01:26:47.056,-0.535,-0.63
2021-08-01 01:26:47.060,-0.54,-0.54
2021-08-01 01:26:47.064,-0.48,-0.44
2021-08-01 01:26:47.068,-0.345,-0.415
2021-08-01 01:26:47.072,-0.245,-0.435
2021-08-01 01:26:47.076,-0.22,-0.465
2021-08-01 01:26:47.080,-0.205,-0.47
2021-08-01 01:26:47.084,-0.19,-0.425
2021-08-01 01:26:47.088,-0.185,-0.33
2021-08-01 01:26:47.092,-0.2,-0.27
2021-08-01 01:26:47.096,-0.17,-0.25
2021-08-01 01:26:47.100,-0.165,-0.26
2021-08-01 01:26:47.104,-0.19,-0.26
2021-08-01 01:26:47.108,-0.195,-0.275
2021-08-01 01:26:47.112,-0.18,-0.28
2021-08-01 01:26:47.116,-0.19,-0.3
2021-08-01 01:26:47.120,-0.185,-0.295
2021-08-01 01:26:47.124,-0.18,-0.32
2021-08-01 01:26:47.128,-0.16,-0.335
2021-08-01 01:26:47.132,-0.17,-0.325
2021-08-01 01:26:47.136,-0.15,-0.335
2021-08-01 01:26:47.140,-0.135,-0.335
2021-08-01 01:26:47.144,-0.13,-0.355
2021-08-01 01:26:47.148,-0.15,-0.365
2021-08-01 01:26:47.152,-0.14,-0.355
2021-08-01 01:26:47.156,-0.125,-0.335
2021-08-01 01:26:47.160,-0.135,-0.355
2021-08-01 01:26:47.164,-0.14,-0.365
2021-08-01 01:26:47.168,-0.135,-0.37
2021-08-01 01:26:47.172,-0.15,-0.365
2021-08-01 01:26:47.176,-0.14,-0.36
2021-08-01 01:26:47.180,-0.14,-0.355
2021-08-01 01:26:47.184,-0.13,-0.335
2021-08-01 01:26:47.188,-0.145,-0.32
2021-08-01 01:26:47.192,-0.14,-0.34
2021-08-01 01:26:47.196,-0.13,-0.33
2021-08-01 01:26:47.200,-0.12,-0.325
2021-08-01 01:26:47.204,-0.135,-0.335
2021-08-01 01:26:47.208,-0.12,-0.32
2021-08-01 01:26:47.212,-0.13,-0.31
2021-08-01 01:26:47.216,-0.14,-0.305
2021-08-01 01:26:47.220,-0.13,-0.32
2021-08-01 01:26:47.224,-0.115,-0.3
2021-08-01 01:26:47.228,-0.13,-0.285
2021-08-01 01:26:47.232,-0.12,-0.265
2021-08-01 01:26:47.236,-0.095,-0.265
2021-08-01 01:26:47.240,-0.11,-0.245
2021-08-01 01:26:47.244,-0.12,-0.255
2021-08-01 01:26:47.248,-0.115,-0.25
2021-08-01 01:26:47.252,-0.095,-0.24
2021-08-01 01:26:47.256,-0.095,-0.235
2021-08-01 01:26:47.260,-0.11,-0.24
2021-08-01 01:26:47.264,-0.085,-0.205
2021-08-01 01:26:47.268,-0.095,-0.185
2021-08-01 01:26:47.272,-0.085,-0.165
2021-08-01 01:26:47.276,-0.095,-0.17
2021-08-01 01:26:47.280,-0.08,-0.165
2021-08-01 01:26:47.284,-0.09,-0.16
2021-08-01 01:26:47.288,-0.07,-0.16
2021-08-01 01:26:47.292,-0.07,-0.185
2021-08-01 01:26:47.296,-0.085,-0.19
2021-08-01 01:26:47.300,-0.085,-0.2
2021-08-01 01:26:47.304,-0.07,-0.2
2021-08-01 01:26:47.308,-0.075,-0.225
2021-08-01 01:26:47.312,-0.055,-0.25
2021-08-01 01:26:47.316,-0.075,-0.265
2021-08-01 01:26:47.320,-0.1,-0.275
2021-08-01 01:26:47.324,-0.12,-0.295
2021-08-01 01:26:47.328,-0.115,-0.315
2021-08-01 01:26:47.332,-0.125,-0.3
2021-08-01 01:26:47.336,-0.145,-0.28
2021-08-01 01:26:47.340,-0.12,-0.28
2021-08-01 01:26:47.344,-0.085,-0.275
2021-08-01 01:26:47.348,-0.07,-0.255
2021-08-01 01:26:47.352,-0.06,-0.28
2021-08-01 01:26:47.356,-0.045,-0.28
2021-08-01 01:26:47.360,-0.03,-0.275
2021-08-01 01:26:47.364,-0.04,-0.215
2021-08-01 01:26:47.368,-0.025,-0.185
2021-08-01 01:26:47.372,-0.015,-0.17
2021-08-01 01:26:47.376,-0.025,-0.2
2021-08-01 01:26:47.380,-0.04,-0.21
2021-08-01 01:26:47.384,-0.06,-0.23
2021-08-01 01:26:47.388,-0.075,-0.235
2021-08-01 01:26:47.392,-0.095,-0.235
2021-08-01 01:26:47.396,-0.1,-0.24
2021-08-01 01:26:47.400,-0.14,-0.235
2021-08-01 01:26:47.404,-0.125,-0.25
2021-08-01 01:26:47.408,-0.135,-0.25
2021-08-01 01:26:47.412,-0.125,-0.25
2021-08-01 01:26:47.416,-0.135,-0.245
2021-08-01 01:26:47.420,-0.125,-0.255
2021-08-01 01:26:47.424,-0.13,-0.255
2021-08-01 01:26:47.428,-0.13,-0.255
2021-08-01 01:26:47.432,-0.145,-0.245
2021-08-01 01:26:47.436,-0.145,-0.245
2021-08-01 01:26:47.440,-0.135,-0.265
2021-08-01 01:26:47.444,-0.135,-0.255
2021-08-01 01:26:47.448,-0.14,-0.25
2021-08-01 01:26:47.452,-0.14,-0.26
2021-08-01 01:26:47.456,-0.145,-0.275
2021-08-01 01:26:47.460,-0.145,-0.255
2021-08-01 01:26:47.464,-0.13,-0.24
2021-08-01 01:26:47.468,-0.15,-0.27
2021-08-01 01:26:47.472,-0.14,-0.26
2021-08-01 01:26:47.476,-0.145,-0.285
2021-08-01 01:26:47.480,-0.145,-0.29
2021-08-01 01:26:47.484,-0.145,-0.275
2021-08-01 01:26:47.488,-0.13,-0.27
2021-08-01 01:26:47.492,-0.115,-0.27
2021-08-01 01:26:47.496,-0.135,-0.25
2021-08-01 01:26:47.500,-0.13,-0.27
2021-08-01 01:26:47.504,-0.13,-0.27
2021-08-01 01:26:47.508,-0.12,-0.28
2021-08-01 01:26:47.512,-0.12,-0.285
2021-08-01 01:26:47.516,-0.125,-0.295
2021-08-01 01:26:47.520,-0.11,-0.3
2021-08-01 01:26:47.524,-0.14,-0.3
2021-08-01 01:26:47.528,-0.13,-0.3
2021-08-01 01:26:47.532,-0.13,-0.22
2021-08-01 01:26:47.536,-0.11,-0.095
2021-08-01 01:26:47.540,-0.065,0.13
2021-08-01 01:26:47.544,-0.015,0.385
2021-08-01 01:26:47.548,0.03,0.6
2021-08-01 01:26:47.552,0.105,0.73
2021-08-01 01:26:47.556,0.22,0.745
2021-08-01 01:26:47.560,0.33,0.62
2021-08-01 01:26:47.564,0.36,0.185
2021-08-01 01:26:47.568,0.325,-0.32
2021-08-01 01:26:47.572,0.25,-0.65
2021-08-01 01:26:47.576,0.035,-0.74
2021-08-01 01:26:47.580,-0.205,-0.73
2021-08-01 01:26:47.584,-0.36,-0.7
2021-08-01 01:26:47.588,-0.4,-0.6
2021-08-01 01:26:47.592,-0.405,-0.48
2021-08-01 01:26:47.596,-0.405,-0.375
2021-08-01 01:26:47.600,-0.32,-0.32
2021-08-01 01:26:47.604,-0.245,-0.32
2021-08-01 01:26:47.608,-0.2,-0.315
2021-08-01 01:26:47.612,-0.16,-0.355
2021-08-01 01:26:47.616,-0.155,-0.34
2021-08-01 01:26:47.620,-0.145,-0.35
2021-08-01 01:26:47.624,-0.145,-0.355
2021-08-01 01:26:47.628,-0.15,-0.36
2021-08-01 01:26:47.632,-0.15,-0.345
2021-08-01 01:26:47.636,-0.155,-0.34
2021-08-01 01:26:47.640,-0.16,-0.355
2021-08-01 01:26:47.644,-0.165,-0.365
2021-08-01 01:26:47.648,-0.155,-0.36
2021-08-01 01:26:47.652,-0.165,-0.345
2021-08-01 01:26:47.656,-0.17,-0.37
2021-08-01 01:26:47.660,-0.135,-0.36
2021-08-01 01:26:47.664,-0.13,-0.34
2021-08-01 01:26:47.668,-0.145,-0.37
2021-08-01 01:26:47.672,-0.14,-0.38
2021-08-01 01:26:47.676,-0.155,-0.36
2021-08-01 01:26:47.680,-0.155,-0.375
2021-08-01 01:26:47.684,-0.17,-0.385
2021-08-01 01:26:47.688,-0.145,-0.39
2021-08-01 01:26:47.692,-0.145,-0.37
2021-08-01 01:26:47.696,-0.13,-0.335
2021-08-01 01:26:47.700,-0.125,-0.335
2021-08-01 01:26:47.704,-0.12,-0.32
2021-08-01 01:26:47.708,-0.11,-0.34
2021-08-01 01:26:47.712,-0.095,-0.33
2021-08-01 01:26:47.716,-0.08,-0.37
2021-08-01 01:26:47.720,-0.08,-0.33
2021-08-01 01:26:47.724,-0.07,-0.285
2021-08-01 01:26:47.728,-0.075,-0.26
2021-08-01 01:26:47.732,-0.095,-0.26
2021-08-01 01:26:47.736,-0.08,-0.255
2021-08-01 01:26:47.740,-0.08,-0.255
2021-08-01 01:26:47.744,-0.105,-0.26
2021-08-01 01:26:47.748,-0.12,-0.265
2021-08-01 01:26:47.752,-0.115,-0.26
2021-08-01 01:26:47.756,-0.14,-0.25
2021-08-01 01:26:47.760,-0.155,-0.25
2021-08-01 01:26:47.764,-0.145,-0.28
2021-08-01 01:26:47.768,-0.16,-0.27
2021-08-01 01:26:47.772,-0.16,-0.28
2021-08-01 01:26:47.776,-0.17,-0.255
2021-08-01 01:26:47.780,-0.18,-0.245
2021-08-01 01:26:47.784,-0.18,-0.255
2021-08-01 01:26:47.788,-0.175,-0.25
2021-08-01 01:26:47.792,-0.17,-0.23
2021-08-01 01:26:47.796,-0.16,-0.23
2021-08-01 01:26:47.800,-0.18,-0.22
2021-08-01 01:26:47.804,-0.17,-0.21
2021-08-01 01:26:47.808,-0.155,-0.195
2021-08-01 01:26:47.812,-0.165,-0.165
2021-08-01 01:26:47.816,-0.14,-0.155
2021-08-01 01:26:47.820,-0.14,-0.145
2021-08-01 01:26:47.824,-0.12,-0.135
2021-08-01 01:26:47.828,-0.12,-0.145
2021-08-01 01:26:47.832,-0.12,-0.155
2021-08-01 01:26:47.836,-0.1,-0.175
2021-08-01 01:26:47.840,-0.11,-0.185
2021-08-01 01:26:47.844,-0.095,-0.215
2021-08-01 01:26:47.848,-0.08,-0.235
2021-08-01 01:26:47.852,-0.09,-0.245
2021-08-01 01:26:47.856,-0.08,-0.25
2021-08-01 01:26:47.860,-0.08,-0.255
2021-08-01 01:26:47.864,-0.105,-0.25
2021-08-01 01:26:47.868,-0.105,-0.235
2021-08-01 01:26:47.872,-0.09,-0.21
2021-08-01 01:26:47.876,-0.075,-0.205
2021-08-01 01:26:47.880,-0.065,-0.205
2021-08-01 01:26:47.884,-0.04,-0.19
2021-08-01 01:26:47.888,-0.02,-0.135
2021-08-01 01:26:47.892,-0.015,-0.075
2021-08-01 01:26:47.896,0.0,-0.045
2021-08-01 01:26:47.900,0.015,-0.055
2021-08-01 01:26:47.904,0.0,-0.075
2021-08-01 01:26:47.908,-0.005,-0.095
2021-08-01 01:26:47.912,-0.005,-0.1
2021-08-01 01:26:47.916,-0.015,-0.1
2021-08-01 01:26:47.920,-0.035,-0.115
2021-08-01 01:26:47.924,-0.05,-0.13
2021-08-01 01:26:47.928,-0.045,-0.15
2021-08-01 01:26:47.932,-0.055,-0.135
2021-08-01 01:26:47.936,-0.075,-0.15
2021-08-01 01:26:47.940,-0.065,-0.18
2021-08-01 01:26:47.944,-0.065,-0.2
2021-08-01 01:26:47.948,-0.08,-0.185
2021-08-01 01:26:47.952,-0.08,-0.2
2021-08-01 01:26:47.956,-0.085,-0.21
2021-08-01 01:26:47.960,-0.095,-0.22
2021-08-01 01:26:47.964,-0.105,-0.245
2021-08-01 01:26:47.968,-0.1,-0.24
2021-08-01 01:26:47.972,-0.115,-0.235
2021-08-01 01:26:47.976,-0.11,-0.26
2021-08-01 01:26:47.980,-0.11,-0.275
2021-08-01 01:26:47.984,-0.11,-0.285
2021-08-01 01:26:47.988,-0.12,-0.28
2021-08-01 01:26:47.992,-0.115,-0.285
2021-08-01 01:26:47.996,-0.11,-0.285
2021-08-01 01:26:48.000,-0.115,-0.28
2021-08-01 01:26:48.004,-0.115,-0.295
2021-08-01 01:26:48.008,-0.11,-0.3
2021-08-01 01:26:48.012,-0.115,-0.32
2021-08-01 01:26:48.016,-0.14,-0.34
2021-08-01 01:26:48.020,-0.14,-0.35
2021-08-01 01:26:48.024,-0.125,-0.37
2021-08-01 01:26:48.028,-0.135,-0.355
2021-08-01 01:26:48.032,-0.145,-0.355
2021-08-01 01:26:48.036,-0.14,-0.36
2021-08-01 01:26:48.040,-0.145,-0.37
2021-08-01 01:26:48.044,-0.145,-0.375
2021-08-01 01:26:48.048,-0.16,-0.375
2021-08-01 01:26:48.052,-0.14,-0.36
2021-08-01 01:26:48.056,-0.11,-0.365
2021-08-01 01:26:48.060,-0.125,-0.37
2021-08-01 01:26:48.064,-0.12,-0.32
2021-08-01 01:26:48.068,-0.105,-0.22
2021-08-01 01:26:48.072,-0.105,-0.17
2021-08-01 01:26:48.076,-0.115,-0.15
2021-08-01 01:26:48.080,-0.115,-0.145
2021-08-01 01:26:48.084,-0.075,-0.165
2021-08-01 01:26:48.088,-0.05,-0.205
2021-08-01 01:26:48.092,-0.05,-0.22
2021-08-01 01:26:48.096,-0.045,-0.23
2021-08-01 01:26:48.100,-0.075,-0.225
2021-08-01 01:26:48.104,-0.075,-0.24
2021-08-01 01:26:48.108,-0.065,-0.25
2021-08-01 01:26:48.112,-0.08,-0.255
2021-08-01 01:26:48.116,-0.085,-0.255
2021-08-01 01:26:48.120,-0.08,-0.275
2021-08-01 01:26:48.124,-0.085,-0.26
2021-08-01 01:26:48.128,-0.08,-0.27
2021-08-01 01:26:48.132,-0.085,-0.275
2021-08-01 01:26:48.136,-0.07,-0.305
2021-08-01 01:26:48.140,-0.08,-0.27
2021-08-01 01:26:48.144,-0.08,-0.27
2021-08-01 01:26:48.148,-0.075,-0.27
2021-08-01 01:26:48.152,-0.08,-0.28
2021-08-01 01:26:48.156,-0.075,-0.3
2021-08-01 01:26:48.160,-0.085,-0.295
2021-08-01 01:26:48.164,-0.075,-0.195
2021-08-01 01:26:48.168,-0.05,-0.03
2021-08-01 01:26:48.172,-0.035,0.195
2021-08-01 01:26:48.176,-0.005,0.41
2021-08-01 01:26:48.180,0.045,0.57
2021-08-01 01:26:48.184,0.135,0.6
2021-08-01 01:26:48.188,0.235,0.56
2021-08-01 01:26:48.192,0.275,0.325
2021-08-01 01:26:48.196,0.25,-0.16
2021-08-01 01:26:48.200,0.22,-0.615
2021-08-01 01:26:48.204,0.045,-0.845
2021-08-01 01:26:48.208,-0.21,-0.895
2021-08-01 01:26:48.212,-0.37,-0.865
2021-08-01 01:26:48.216,-0.48,-0.77
2021-08-01 01:26:48.220,-0.49,-0.625
2021-08-01 01:26:48.224,-0.465,-0.515
2021-08-01 01:26:48.228,-0.37,-0.43
2021-08-01 01:26:48.232,-0.28,-0.375
2021-08-01 01:26:48.236,-0.21,-0.315
2021-08-01 01:26:48.240,-0.15,-0.255
2021-08-01 01:26:48.244,-0.12,-0.25
2021-08-01 01:26:48.248,-0.115,-0.205
2021-08-01 01:26:48.252,-0.12,-0.22
2021-08-01 01:26:48.256,-0.08,-0.225
2021-08-01 01:26:48.260,-0.065,-0.235
2021-08-01 01:26:48.264,-0.05,-0.25
2021-08-01 01:26:48.268,-0.06,-0.275
2021-08-01 01:26:48.272,-0.04,-0.285
2021-08-01 01:26:48.276,-0.06,-0.305
2021-08-01 01:26:48.280,-0.07,-0.32
2021-08-01 01:26:48.284,-0.075,-0.325
2021-08-01 01:26:48.288,-0.08,-0.315
2021-08-01 01:26:48.292,-0.08,-0.32
2021-08-01 01:26:48.296,-0.07,-0.34
2021-08-01 01:26:48.300,-0.085,-0.33
2021-08-01 01:26:48.304,-0.085,-0.325
2021-08-01 01:26:48.308,-0.09,-0.35
2021-08-01 01:26:48.312,-0.075,-0.375
2021-08-01 01:26:48.316,-0.075,-0.355
2021-08-01 01:26:48.320,-0.065,-0.36
2021-08-01 01:26:48.324,-0.075,-0.345
2021-08-01 01:26:48.328,-0.08,-0.34
2021-08-01 01:26:48.332,-0.085,-0.36
2021-08-01 01:26:48.336,-0.07,-0.35
2021-08-01 01:26:48.340,-0.07,-0.365
2021-08-01 01:26:48.344,-0.08,-0.355
2021-08-01 01:26:48.348,-0.08,-0.375
2021-08-01 01:26:48.352,-0.06,-0.39
2021-08-01 01:26:48.356,-0.075,-0.375
2021-08-01 01:26:48.360,-0.1,-0.36
2021-08-01 01:26:48.364,-0.09,-0.38
2021-08-01 01:26:48.368,-0.075,-0.36
2021-08-01 01:26:48.372,-0.085,-0.35
2021-08-01 01:26:48.376,-0.085,-0.345
2021-08-01 01:26:48.380,-0.08,-0.365
2021-08-01 01:26:48.384,-0.075,-0.36
2021-08-01 01:26:48.388,-0.08,-0.37
2021-08-01 01:26:48.392,-0.06,-0.34
2021-08-01 01:26:48.396,-0.055,-0.275
2021-08-01 01:26:48.400,-0.035,-0.225
2021-08-01 01:26:48.404,-0.025,-0.19
2021-08-01 01:26:48.408,-0.03,-0.165
2021-08-01 01:26:48.412,-0.04,-0.15
2021-08-01 01:26:48.416,-0.04,-0.13
2021-08-01 01:26:48.420,-0.04,-0.105
2021-08-01 01:26:48.424,-0.03,-0.11
2021-08-01 01:26:48.428,-0.03,-0.12
2021-08-01 01:26:48.432,-0.02,-0.125
2021-08-01 01:26:48.436,-0.01,-0.13
2021-08-01 01:26:48.440,-0.02,-0.12
2021-08-01 01:26:48.444,-0.01,-0.11
2021-08-01 01:26:48.448,-0.005,-0.13
2021-08-01 01:26:48.452,-0.015,-0.13
2021-08-01 01:26:48.456,-0.01,-0.14
2021-08-01 01:26:48.460,0.0,-0.14
2021-08-01 01:26:48.464,-0.015,-0.145
2021-08-01 01:26:48.468,-0.02,-0.15
2021-08-01 01:26:48.472,0.0,-0.16
2021-08-01 01:26:48.476,-0.005,-0.14
2021-08-01 01:26:48.480,0.0,-0.16
2021-08-01 01:26:48.484,-0.015,-0.18
2021-08-01 01:26:48.488,-0.02,-0.19
2021-08-01 01:26:48.492,-0.04,-0.2
2021-08-01 01:26:48.496,0.0,-0.205
2021-08-01 01:26:48.500,-0.02,-0.215
2021-08-01 01:26:48.504,-0.05,-0.21
2021-08-01 01:26:48.508,-0.06,-0.225
2021-08-01 01:26:48.512,-0.015,-0.24
2021-08-01 01:26:48.516,-0.035,-0.23
2021-08-01 01:26:48.520,-0.045,-0.225
2021-08-01 01:26:48.524,-0.03,-0.22
2021-08-01 01:26:48.528,-0.03,-0.245
2021-08-01 01:26:48.532,-0.035,-0.23
2021-08-01 01:26:48.536,-0.04,-0.235
2021-08-01 01:26:48.540,-0.04,-0.23
2021-08-01 01:26:48.544,-0.02,-0.24
2021-08-01 01:26:48.548,-0.03,-0.24
2021-08-01 01:26:48.552,-0.025,-0.245
2021-08-01 01:26:48.556,-0.04,-0.24
2021-08-01 01:26:48.560,-0.01,-0.235
2021-08-01 01:26:48.564,-0.02,-0.22
2021-08-01 01:26:48.568,-0.02,-0.25
2021-08-01 01:26:48.572,-0.02,-0.24
2021-08-01 01:26:48.576,-0.025,-0.22
2021-08-01 01:26:48.580,-0.035,-0.25
2021-08-01 01:26:48.584,0.015,-0.225
2021-08-01 01:26:48.588,0.005,-0.14
2021-08-01 01:26:48.592,0.01,-0.07
2021-08-01 01:26:48.596,0.01,-0.06
2021-08-01 01:26:48.600,0.02,-0.055
2021-08-01 01:26:48.604,0.005,-0.065
2021-08-01 01:26:48.608,-0.005,-0.07
2021-08-01 01:26:48.612,0.005,-0.075
2021-08-01 01:26:48.616,0.015,-0.085
2021-08-01 01:26:48.620,0.03,-0.115
2021-08-01 01:26:48.624,0.035,-0.16
2021-08-01 01:26:48.628,0.025,-0.165
2021-08-01 01:26:48.632,0.02,-0.18
2021-08-01 01:26:48.636,0.01,-0.19
2021-08-01 01:26:48.640,0.0,-0.22
2021-08-01 01:26:48.644,-0.015,-0.225
2021-08-01 01:26:48.648,0.005,-0.225
2021-08-01 01:26:48.652,-0.015,-0.22
2021-08-01 01:26:48.656,-0.01,-0.245
2021-08-01 01:26:48.660,-0.015,-0.24
2021-08-01 01:26:48.664,-0.005,-0.26
2021-08-01 01:26:48.668,-0.02,-0.225
2021-08-01 01:26:48.672,-0.025,-0.25
2021-08-01 01:26:48.676,-0.02,-0.225
2021-08-01 01:26:48.680,-0.02,-0.255
2021-08-01 01:26:48.684,-0.025,-0.255
2021-08-01 01:26:48.688,-0.04,-0.25
2021-08-01 01:26:48.692,-0.025,-0.26
2021-08-01 01:26:48.696,-0.02,-0.26
2021-08-01 01:26:48.700,-0.03,-0.255
2021-08-01 01:26:48.704,-0.025,-0.26
2021-08-01 01:26:48.708,-0.02,-0.255
2021-08-01 01:26:48.712,-0.01,-0.235
2021-08-01 01:26:48.716,-0.02,-0.24
2021-08-01 01:26:48.720,-0.03,-0.25
2021-08-01 01:26:48.724,-0.02,-0.255
2021-08-01 01:26:48.728,-0.015,-0.255
2021-08-01 01:26:48.732,-0.025,-0.28
2021-08-01 01:26:48.736,-0.005,-0.31
2021-08-01 01:26:48.740,-0.015,-0.26
2021-08-01 01:26:48.744,-0.015,-0.135
2021-08-01 01:26:48.748,0.015,0.085
2021-08-01 01:26:48.752,0.06,0.325
2021-08-01 01:26:48.756,0.11,0.55
2021-08-01 01:26:48.760,0.21,0.625
2021-08-01 01:26:48.764,0.29,0.635
2021-08-01 01:26:48.768,0.34,0.51
2021-08-01 01:26:48.772,0.3,0.135
2021-08-01 01:26:48.776,0.185,-0.345
2021-08-01 01:26:48.780,0.05,-0.645
2021-08-01 01:26:48.784,-0.15,-0.755
2021-08-01 01:26:48.788,-0.32,-0.71
2021-08-01 01:26:48.792,-0.4,-0.595
2021-08-01 01:26:48.796,-0.415,-0.475
2021-08-01 01:26:48.800,-0.365,-0.38
2021-08-01 01:26:48.804,-0.28,-0.29
2021-08-01 01:26:48.808,-0.16,-0.27
2021-08-01 01:26:48.812,-0.08,-0.28
2021-08-01 01:26:48.816,-0.04,-0.295
2021-08-01 01:26:48.820,-0.035,-0.29
2021-08-01 01:26:48.824,-0.02,-0.28
2021-08-01 01:26:48.828,-0.02,-0.285
2021-08-01 01:26:48.832,-0.025,-0.26
2021-08-01 01:26:48.836,-0.025,-0.29
2021-08-01 01:26:48.840,-0.03,-0.295
2021-08-01 01:26:48.844,-0.035,-0.275
2021-08-01 01:26:48.848,-0.04,-0.265
2021-08-01 01:26:48.852,-0.03,-0.29
2021-08-01 01:26:48.856,-0.03,-0.29
2021-08-01 01:26:48.860,-0.025,-0.29
2021-08-01 01:26:48.864,-0.015,-0.29
2021-08-01 01:26:48.868,-0.015,-0.295
2021-08-01 01:26:48.872,0.0,-0.29
2021-08-01 01:26:48.876,0.0,-0.31
2021-08-01 01:26:48.880,0.0,-0.335
2021-08-01 01:26:48.884,-0.03,-0.335
2021-08-01 01:26:48.888,-0.04,-0.315
2021-08-01 01:26:48.892,-0.025,-0.295
2021-08-01 01:26:48.896,-0.03,-0.285
2021-08-01 01:26:48.900,0.0,-0.28
2021-08-01 01:26:48.904,0.0,-0.29
2021-08-01 01:26:48.908,0.005,-0.295
2021-08-01 01:26:48.912,0.0,-0.295
2021-08-01 01:26:48.916,0.005,-0.315
2021-08-01 01:26:48.920,0.01,-0.365
2021-08-01 01:26:48.924,0.03,-0.355
2021-08-01 01:26:48.928,0.03,-0.32
2021-08-01 01:26:48.932,0.03,-0.285
2021-08-01 01:26:48.936,0.055,-0.29
2021-08-01 01:26:48.940,0.025,-0.28
2021-08-01 01:26:48.944,0.0,-0.29
2021-08-01 01:26:48.948,-0.005,-0.285
2021-08-01 01:26:48.952,-0.02,-0.285
2021-08-01 01:26:48.956,-0.055,-0.29
2021-08-01 01:26:48.960,-0.04,-0.285
2021-08-01 01:26:48.964,-0.025,-0.285
2021-08-01 01:26:48.968,-0.04,-0.245
2021-08-01 01:26:48.972,-0.025,-0.255
2021-08-01 01:26:48.976,-0.03,-0.265
2021-08-01 01:26:48.980,-0.035,-0.255
2021-08-01 01:26:48.984,-0.015,-0.245
2021-08-01 01:26:48.988,-0.015,-0.23
2021-08-01 01:26:48.992,-0.03,-0.235
2021-08-01 01:26:48.996,-0.015,-0.205
2021-08-01 01:26:49.000,0.0,-0.2
2021-08-01 01:26:49.004,0.005,-0.19
2021-08-01 01:26:49.008,0.0,-0.165
2021-08-01 01:26:49.012,0.0,-0.165
2021-08-01 01:26:49.016,0.01,-0.145
2021-08-01 01:26:49.020,0.015,-0.12
2021-08-01 01:26:49.024,0.005,-0.1
2021-08-01 01:26:49.028,0.02,-0.1
2021-08-01 01:26:49.032,0.025,-0.1
2021-08-01 01:26:49.036,0.035,-0.11
2021-08-01 01:26:49.040,0.025,-0.1
2021-08-01 01:26:49.044,0.01,-0.105
2021-08-01 01:26:49.048,0.005,-0.13
2021-08-01 01:26:49.052,0.01,-0.115
2021-08-01 01:26:49.056,0.02,-0.125
2021-08-01 01:26:49.060,0.03,-0.135
2021-08-01 01:26:49.064,0.015,-0.145
2021-08-01 01:26:49.068,0.02,-0.175
2021-08-01 01:26:49.072,0.01,-0.215
2021-08-01 01:26:49.076,0.02,-0.19
2021-08-01 01:26:49.080,0.0,-0.045
2021-08-01 01:26:49.084,0.0,0.165
2021-08-01 01:26:49.088,0.025,0.405
2021-08-01 01:26:49.092,0.03,0.66
2021-08-01 01:26:49.096,0.1,0.74
2021-08-01 01:26:49.100,0.215,0.66
2021-08-01 01:26:49.104,0.305,0.28
2021-08-01 01:26:49.108,0.275,-0.24
2021-08-01 01:26:49.112,0.1,-0.665
2021-08-01 01:26:49.116,-0.18,-0.87
2021-08-01 01:26:49.120,-0.365,-0.775
2021-08-01 01:26:49.124,-0.445,-0.69
2021-08-01 01:26:49.128,-0.41,-0.575
2021-08-01 01:26:49.132,-0.325,-0.405
2021-08-01 01:26:49.136,-0.275,-0.26
2021-08-01 01:26:49.140,-0.185,-0.215
2021-08-01 01:26:49.144,-0.08,-0.21
2021-08-01 01:26:49.148,-0.005,-0.24
2021-08-01 01:26:49.152,0.0,-0.265
2021-08-01 01:26:49.156,0.005,-0.255
2021-08-01 01:26:49.160,0.02,-0.24
2021-08-01 01:26:49.164,0.0,-0.25
2021-08-01 01:26:49.168,-0.015,-0.265
2021-08-01 01:26:49.172,0.01,-0.25
2021-08-01 01:26:49.176,0.0,-0.26
2021-08-01 01:26:49.180,-0.015,-0.26
2021-08-01 01:26:49.184,0.01,-0.26
2021-08-01 01:26:49.188,0.01,-0.275
2021-08-01 01:26:49.192,0.0,-0.265
2021-08-01 01:26:49.196,0.0,-0.26
2021-08-01 01:26:49.200,0.01,-0.27
2021-08-01 01:26:49.204,0.0,-0.27
2021-08-01 01:26:49.208,0.01,-0.27
2021-08-01 01:26:49.212,0.015,-0.26
2021-08-01 01:26:49.216,0.015,-0.26
2021-08-01 01:26:49.220,0.02,-0.26
2021-08-01 01:26:49.224,0.015,-0.255
2021-08-01 01:26:49.228,0.025,-0.255
2021-08-01 01:26:49.232,0.01,-0.24
2021-08-01 01:26:49.236,0.015,-0.245
2021-08-01 01:26:49.240,0.03,-0.24
2021-08-01 01:26:49.244,0.01,-0.23
2021-08-01 01:26:49.248,0.025,-0.225
2021-08-01 01:26:49.252,0.035,-0.225
2021-08-01 01:26:49.256,0.035,-0.2
2021-08-01 01:26:49.260,0.05,-0.19
2021-08-01 01:26:49.264,0.05,-0.195
2021-08-01 01:26:49.268,0.05,-0.18
2021-08-01 01:26:49.272,0.05,-0.16
2021-08-01 01:26:49.276,0.065,-0.13
2021-08-01 01:26:49.280,0.04,-0.125
2021-08-01 01:26:49.284,0.05,-0.11
2021-08-01 01:26:49.288,0.07,-0.105
2021-08-01 01:26:49.292,0.08,-0.1
2021-08-01 01:26:49.296,0.07,-0.07
2021-08-01 01:26:49.300,0.08,-0.05
2021-08-01 01:26:49.304,0.085,-0.04
2021-08-01 01:26:49.308,0.1,-0.02
2021-08-01 01:26:49.312,0.08,-0.015
2021-08-01 01:26:49.316,0.09,0.01
2021-08-01 01:26:49.320,0.12,0.02
2021-08-01 01:26:49.324,0.105,0.035
2021-08-01 01:26:49.328,0.1,0.02
2021-08-01 01:26:49.332,0.12,0.05
2021-08-01 01:26:49.336,0.115,0.075
2021-08-01 01:26:49.340,0.115,0.095
2021-08-01 01:26:49.344,0.115,0.065
2021-08-01 01:26:49.348,0.135,0.075
2021-08-01 01:26:49.352,0.11,0.07
2021-08-01 01:26:49.356,0.12,0.04
2021-08-01 01:26:49.360,0.125,0.02
2021-08-01 01:26:49.364,0.12,0.005
2021-08-01 01:26:49.368,0.125,-0.01
2021-08-01 01:26:49.372,0.105,-0.03
2021-08-01 01:26:49.376,0.12,-0.045
2021-08-01 01:26:49.380,0.11,-0.07
2021-08-01 01:26:49.384,0.09,-0.09
2021-08-01 01:26:49.388,0.095,-0.11
2021-08-01 01:26:49.392,0.09,-0.12
2021-08-01 01:26:49.396,0.1,-0.14
2021-08-01 01:26:49.400,0.07,-0.135
2021-08-01 01:26:49.404,0.105,-0.14
2021-08-01 01:26:49.408,0.08,-0.15
2021-08-01 01:26:49.412,0.1,-0.16
2021-08-01 01:26:49.416,0.075,-0.16
2021-08-01 01:26:49.420,0.09,-0.16
2021-08-01 01:26:49.424,0.065,-0.165
2021-08-01 01:26:49.428,0.08,-0.16
2021-08-01 01:26:49.432,0.08,-0.16
2021-08-01 01:26:49.436,0.07,-0.16
2021-08-01 01:26:49.440,0.065,-0.165
2021-08-01 01:26:49.444,0.07,-0.17
2021-08-01 01:26:49.448,0.075,-0.18
2021-08-01 01:26:49.452,0.1,-0.17
2021-08-01 01:26:49.456,0.08,-0.175
2021-08-01 01:26:49.460,0.08,-0.18
2021-08-01 01:26:49.464,0.075,-0.185
2021-08-01 01:26:49.468,0.09,-0.195
2021-08-01 01:26:49.472,0.07,-0.18
2021-08-01 01:26:49.476,0.08,-0.175
2021-08-01 01:26:49.480,0.065,-0.17
2021-08-01 01:26:49.484,0.075,-0.18
2021-08-01 01:26:49.488,0.08,-0.185
2021-08-01 01:26:49.492,0.105,-0.18
2021-08-01 01:26:49.496,0.08,-0.17
2021-08-01 01:26:49.500,0.095,-0.165
2021-08-01 01:26:49.504,0.08,-0.185
2021-08-01 01:26:49.508,0.095,-0.175
2021-08-01 01:26:49.512,0.085,-0.175
2021-08-01 01:26:49.516,0.1,-0.165
2021-08-01 01:26:49.520,0.1,-0.185
2021-08-01 01:26:49.524,0.1,-0.18
2021-08-01 01:26:49.528,0.09,-0.185
2021-08-01 01:26:49.532,0.105,-0.185
2021-08-01 01:26:49.536,0.095,-0.18
2021-08-01 01:26:49.540,0.09,-0.19
2021-08-01 01:26:49.544,0.095,-0.205
2021-08-01 01:26:49.548,0.095,-0.19
2021-08-01 01:26:49.552,0.09,-0.2
2021-08-01 01:26:49.556,0.1,-0.18
2021-08-01 01:26:49.560,0.1,-0.18
2021-08-01 01:26:49.564,0.105,-0.185
2021-08-01 01:26:49.568,0.095,-0.19
2021-08-01 01:26:49.572,0.08,-0.19
2021-08-01 01:26:49.576,0.085,-0.195
2021-08-01 01:26:49.580,0.1,-0.18
2021-08-01 01:26:49.584,0.09,-0.2
2021-08-01 01:26:49.588,0.07,-0.19
2021-08-01 01:26:49.592,0.09,-0.18
2021-08-01 01:26:49.596,0.08,-0.18
2021-08-01 01:26:49.600,0.085,-0.19
2021-08-01 01:26:49.604,0.08,-0.185
2021-08-01 01:26:49.608,0.085,-0.19
2021-08-01 01:26:49.612,0.065,-0.185
2021-08-01 01:26:49.616,0.085,-0.19
2021-08-01 01:26:49.620,0.085,-0.18
2021-08-01 01:26:49.624,0.08,-0.19
2021-08-01 01:26:49.628,0.105,-0.185
2021-08-01 01:26:49.632,0.09,-0.19
2021-08-01 01:26:49.636,0.1,-0.18
2021-08-01 01:26:49.640,0.09,-0.18
2021-08-01 01:26:49.644,0.09,-0.21
2021-08-01 01:26:49.648,0.095,-0.2
2021-08-01 01:26:49.652,0.1,-0.18
2021-08-01 01:26:49.656,0.085,-0.195
2021-08-01 01:26:49.660,0.115,-0.21
2021-08-01 01:26:49.664,0.095,-0.19
2021-08-01 01:26:49.668,0.095,-0.175
2021-08-01 01:26:49.672,0.075,-0.17
2021-08-01 01:26:49.676,0.095,-0.18
2021-08-01 01:26:49.680,0.08,-0.18
2021-08-01 01:26:49.684,0.095,-0.18
2021-08-01 01:26:49.688,0.095,-0.19
2021-08-01 01:26:49.692,0.11,-0.175
2021-08-01 01:26:49.696,0.095,-0.18
2021-08-01 01:26:49.700,0.08,-0.17
2021-08-01 01:26:49.704,0.105,-0.185
2021-08-01 01:26:49.708,0.09,-0.165
2021-08-01 01:26:49.712,0.11,-0.17
2021-08-01 01:26:49.716,0.09,-0.17
2021-08-01 01:26:49.720,0.095,-0.175
2021-08-01 01:26:49.724,0.105,-0.16
2021-08-01 01:26:49.728,0.1,-0.165
2021-08-01 01:26:49.732,0.095,-0.165
2021-08-01 01:26:49.736,0.09,-0.17
2021-08-01 01:26:49.740,0.09,-0.175
2021-08-01 01:26:49.744,0.095,-0.185
2021-08-01 01:26:49.748,0.1,-0.175
2021-08-01 01:26:49.752,0.085,-0.18
2021-08-01 01:26:49.756,0.105,-0.18
2021-08-01 01:26:49.760,0.09,-0.175
2021-08-01 01:26:49.764,0.1,-0.165
2021-08-01 01:26:49.768,0.11,-0.17
2021-08-01 01:26:49.772,0.11,-0.155
2021-08-01 01:26:49.776,0.1,-0.18
2021-08-01 01:26:49.780,0.105,-0.18
2021-08-01 01:26:49.784,0.1,-0.185
2021-08-01 01:26:49.788,0.09,-0.17
2021-08-01 01:26:49.792,0.09,-0.175
2021-08-01 01:26:49.796,0.11,-0.17
2021-08-01 01:26:49.800,0.11,-0.17
2021-08-01 01:26:49.804,0.11,-0.18
2021-08-01 01:26:49.808,0.12,-0.18
2021-08-01 01:26:49.812,0.105,-0.175
2021-08-01 01:26:49.816,0.105,-0.165
2021-08-01 01:26:49.820,0.11,-0.175
2021-08-01 01:26:49.824,0.125,-0.175
2021-08-01 01:26:49.828,0.12,-0.155
2021-08-01 01:26:49.832,0.115,-0.16
2021-08-01 01:26:49.836,0.11,-0.16
2021-08-01 01:26:49.840,0.095,-0.17
2021-08-01 01:26:49.844,0.105,-0.185
2021-08-01 01:26:49.848,0.11,-0.17
2021-08-01 01:26:49.852,0.115,-0.165
2021-08-01 01:26:49.856,0.1,-0.165
2021-08-01 01:26:49.860,0.095,-0.18
2021-08-01 01:26:49.864,0.11,-0.175
2021-08-01 01:26:49.868,0.115,-0.165
2021-08-01 01:26:49.872,0.09,-0.16
2021-08-01 01:26:49.876,0.12,-0.17
2021-08-01 01:26:49.880,0.12,-0.15
2021-08-01 01:26:49.884,0.115,-0.16
2021-08-01 01:26:49.888,0.11,-0.12
2021-08-01 01:26:49.892,0.13,-0.105
2021-08-01 01:26:49.896,0.115,-0.095
2021-08-01 01:26:49.900,0.11,-0.12
2021-08-01 01:26:49.904,0.13,-0.115
2021-08-01 01:26:49.908,0.135,-0.105
2021-08-01 01:26:49.912,0.145,-0.075
2021-08-01 01:26:49.916,0.14,-0.055
2021-08-01 01:26:49.920,0.16,-0.08
2021-08-01 01:26:49.924,0.15,-0.09
2021-08-01 01:26:49.928,0.115,-0.12
2021-08-01 01:26:49.932,0.1,-0.14
2021-08-01 01:26:49.936,0.06,-0.155
2021-08-01 01:26:49.940,0.05,-0.175
2021-08-01 01:26:49.944,0.06,-0.175
2021-08-01 01:26:49.948,0.05,-0.16
2021-08-01 01:26:49.952,0.04,-0.15
2021-08-01 01:26:49.956,0.055,-0.165
2021-08-01 01:26:49.960,0.07,-0.15
2021-08-01 01:26:49.964,0.08,-0.16
2021-08-01 01:26:49.968,0.085,-0.19
2021-08-01 01:26:49.972,0.11,-0.2
2021-08-01 01:26:49.976,0.1,-0.225
2021-08-01 01:26:49.980,0.1,-0.245
2021-08-01 01:26:49.984,0.12,-0.27
2021-08-01 01:26:49.988,0.105,-0.265
2021-08-01 01:26:49.992,0.09,-0.26
2021-08-01 01:26:49.996,0.09,-0.275
2021-08-01 01:26:50.000,0.09,-0.28
2021-08-01 01:26:50.004,0.07,-0.265
2021-08-01 01:26:50.008,0.08,-0.27
2021-08-01 01:26:50.012,0.085,-0.255
2021-08-01 01:26:50.016,0.085,-0.27
2021-08-01 01:26:50.020,0.08,-0.275
2021-08-01 01:26:50.024,0.085,-0.275
2021-08-01 01:26:50.028,0.085,-0.26
2021-08-01 01:26:50.032,0.08,-0.265
2021-08-01 01:26:50.036,0.075,-0.3
2021-08-01 01:26:50.040,0.085,-0.3
2021-08-01 01:26:50.044,0.095,-0.23
2021-08-01 01:26:50.048,0.105,-0.085
2021-08-01 01:26:50.052,0.12,0.12
2021-08-01 01:26:50.056,0.155,0.345
2021-08-01 01:26:50.060,0.22,0.53
2021-08-01 01:26:50.064,0.28,0.585
2021-08-01 01:26:50.068,0.37,0.575
2021-08-01 01:26:50.072,0.405,0.49
2021-08-01 01:26:50.076,0.405,0.13
2021-08-01 01:26:50.080,0.42,-0.33
2021-08-01 01:26:50.084,0.315,-0.6
2021-08-01 01:26:50.088,0.08,-0.72
2021-08-01 01:26:50.092,-0.12,-0.77
2021-08-01 01:26:50.096,-0.23,-0.69
2021-08-01 01:26:50.100,-0.255,-0.565
2021-08-01 01:26:50.104,-0.245,-0.47
2021-08-01 01:26:50.108,-0.175,-0.385
2021-08-01 01:26:50.112,-0.11,-0.33
2021-08-01 01:26:50.116,-0.04,-0.31
2021-08-01 01:26:50.120,0.025,-0.3
2021-08-01 01:26:50.124,0.075,-0.3
2021-08-01 01:26:50.128,0.085,-0.3
2021-08-01 01:26:50.132,0.085,-0.315
2021-08-01 01:26:50.136,0.095,-0.305
2021-08-01 01:26:50.140,0.08,-0.295
2021-08-01 01:26:50.144,0.085,-0.29
2021-08-01 01:26:50.148,0.075,-0.31
2021-08-01 01:26:50.152,0.09,-0.29
2021-08-01 01:26:50.156,0.08,-0.29
2021-08-01 01:26:50.160,0.085,-0.295
2021-08-01 01:26:50.164,0.105,-0.31
2021-08-01 01:26:50.168,0.095,-0.305
2021-08-01 01:26:50.172,0.085,-0.315
2021-08-01 01:26:50.176,0.095,-0.305
2021-08-01 01:26:50.180,0.1,-0.305
2021-08-01 01:26:50.184,0.095,-0.285
2021-08-01 01:26:50.188,0.09,-0.28
2021-08-01 01:26:50.192,0.1,-0.28
2021-08-01 01:26:50.196,0.1,-0.28
2021-08-01 01:26:50.200,0.095,-0.275
2021-08-01 01:26:50.204,0.09,-0.285
2021-08-01 01:26:50.208,0.095,-0.275
2021-08-01 01:26:50.212,0.095,-0.275
2021-08-01 01:26:50.216,0.08,-0.27
2021-08-01 01:26:50.220,0.095,-0.27
2021-08-01 01:26:50.224,0.08,-0.255
2021-08-01 01:26:50.228,0.1,-0.265
2021-08-01 01:26:50.232,0.11,-0.255
2021-08-01 01:26:50.236,0.1,-0.23
2021-08-01 01:26:50.240,0.09,-0.235
2021-08-01 01:26:50.244,0.095,-0.24
2021-08-01 01:26:50.248,0.095,-0.235
2021-08-01 01:26:50.252,0.095,-0.24
2021-08-01 01:26:50.256,0.105,-0.23
2021-08-01 01:26:50.260,0.115,-0.22
2021-08-01 01:26:50.264,0.1,-0.21
2021-08-01 01:26:50.268,0.115,-0.225
2021-08-01 01:26:50.272,0.12,-0.22
2021-08-01 01:26:50.276,0.12,-0.2
2021-08-01 01:26:50.280,0.125,-0.185
2021-08-01 01:26:50.284,0.125,-0.195
2021-08-01 01:26:50.288,0.125,-0.2
2021-08-01 01:26:50.292,0.12,-0.195
2021-08-01 01:26:50.296,0.135,-0.18
2021-08-01 01:26:50.300,0.125,-0.175
2021-08-01 01:26:50.304,0.135,-0.16
2021-08-01 01:26:50.308,0.11,-0.165
2021-08-01 01:26:50.312,0.11,-0.155
2021-08-01 01:26:50.316,0.115,-0.16
2021-08-01 01:26:50.320,0.115,-0.14
2021-08-01 01:26:50.324,0.12,-0.13
2021-08-01 01:26:50.328,0.14,-0.125
2021-08-01 01:26:50.332,0.12,-0.11
2021-08-01 01:26:50.336,0.115,-0.095
2021-08-01 01:26:50.340,0.135,-0.07
2021-08-01 01:26:50.344,0.115,-0.055
2021-08-01 01:26:50.348,0.155,-0.055
2021-08-01 01:26:50.352,0.145,-0.04
2021-08-01 01:26:50.356,0.15,-0.025
2021-08-01 01:26:50.360,0.15,-0.015
2021-08-01 01:26:50.364,0.16,-0.01
2021-08-01 01:26:50.368,0.16,-0.01
2021-08-01 01:26:50.372,0.17,-0.005
2021-08-01 01:26:50.376,0.175,-0.015
2021-08-01 01:26:50.380,0.175,-0.025
2021-08-01 01:26:50.384,0.19,-0.02
2021-08-01 01:26:50.388,0.16,-0.055
2021-08-01 01:26:50.392,0.175,-0.06
2021-08-01 01:26:50.396,0.175,-0.065
2021-08-01 01:26:50.400,0.165,-0.075
2021-08-01 01:26:50.404,0.175,-0.075
2021-08-01 01:26:50.408,0.155,-0.085
2021-08-01 01:26:50.412,0.165,-0.095
2021-08-01 01:26:50.416,0.17,-0.08
2021-08-01 01:26:50.420,0.18,-0.1
2021-08-01 01:26:50.424,0.155,-0.09
2021-08-01 01:26:50.428,0.16,-0.1
2021-08-01 01:26:50.432,0.165,-0.09
2021-08-01 01:26:50.436,0.155,-0.1
2021-08-01 01:26:50.440,0.17,-0.08
2021-08-01 01:26:50.444,0.16,-0.095
2021-08-01 01:26:50.448,0.165,-0.095
2021-08-01 01:26:50.452,0.165,-0.08
2021-08-01 01:26:50.456,0.17,-0.08
2021-08-01 01:26:50.460,0.185,-0.1
2021-08-01 01:26:50.464,0.15,-0.09
2021-08-01 01:26:50.468,0.15,-0.1
2021-08-01 01:26:50.472,0.16,-0.1
2021-08-01 01:26:50.476,0.175,-0.095
2021-08-01 01:26:50.480,0.155,-0.085
2021-08-01 01:26:50.484,0.15,-0.105
2021-08-01 01:26:50.488,0.18,-0.095
2021-08-01 01:26:50.492,0.165,-0.1
2021-08-01 01:26:50.496,0.15,-0.11
2021-08-01 01:26:50.500,0.16,-0.12
2021-08-01 01:26:50.504,0.16,-0.12
2021-08-01 01:26:50.508,0.145,-0.11
2021-08-01 01:26:50.512,0.14,-0.12
2021-08-01 01:26:50.516,0.16,-0.125
2021-08-01 01:26:50.520,0.155,-0.11
2021-08-01 01:26:50.524,0.16,-0.13
2021-08-01 01:26:50.528,0.17,-0.125
2021-08-01 01:26:50.532,0.16,-0.13
2021-08-01 01:26:50.536,0.155,-0.12
2021-08-01 01:26:50.540,0.165,-0.155
2021-08-01 01:26:50.544,0.16,-0.135
2021-08-01 01:26:50.548,0.165,-0.14
2021-08-01 01:26:50.552,0.16,-0.125
2021-08-01 01:26:50.556,0.15,-0.125
2021-08-01 01:26:50.560,0.15,-0.14
2021-08-01 01:26:50.564,0.15,-0.145
2021-08-01 01:26:50.568,0.14,-0.17
2021-08-01 01:26:50.572,0.15,-0.145
2021-08-01 01:26:50.576,0.14,-0.135
2021-08-01 01:26:50.580,0.16,-0.15
2021-08-01 01:26:50.584,0.155,-0.155
2021-08-01 01:26:50.588,0.175,-0.165
2021-08-01 01:26:50.592,0.14,-0.145
2021-08-01 01:26:50.596,0.145,-0.175
2021-08-01 01:26:50.600,0.13,-0.165
2021-08-01 01:26:50.604,0.15,-0.16
2021-08-01 01:26:50.608,0.15,-0.175
2021-08-01 01:26:50.612,0.16,-0.155
2021-08-01 01:26:50.616,0.135,-0.165
2021-08-01 01:26:50.620,0.145,-0.16
2021-08-01 01:26:50.624,0.135,-0.17
2021-08-01 01:26:50.628,0.15,-0.17
2021-08-01 01:26:50.632,0.155,-0.15
2021-08-01 01:26:50.636,0.135,-0.17
2021-08-01 01:26:50.640,0.15,-0.16
2021-08-01 01:26:50.644,0.155,-0.165
2021-08-01 01:26:50.648,0.13,-0.15
2021-08-01 01:26:50.652,0.15,-0.16
2021-08-01 01:26:50.656,0.15,-0.135
2021-08-01 01:26:50.660,0.15,-0.11
2021-08-01 01:26:50.664,0.155,-0.095
2021-08-01 01:26:50.668,0.175,-0.095
2021-08-01 01:26:50.672,0.175,-0.045
2021-08-01 01:26:50.676,0.19,-0.06
2021-08-01 01:26:50.680,0.195,-0.065
2021-08-01 01:26:50.684,0.21,-0.04
2021-08-01 01:26:50.688,0.195,-0.005
2021-08-01 01:26:50.692,0.22,0.0
2021-08-01 01:26:50.696,0.19,0.0
2021-08-01 01:26:50.700,0.205,-0.03
2021-08-01 01:26:50.704,0.185,-0.06
2021-08-01 01:26:50.708,0.17,-0.12
2021-08-01 01:26:50.712,0.16,-0.135
2021-08-01 01:26:50.716,0.115,-0.14
2021-08-01 01:26:50.720,0.105,-0.16
2021-08-01 01:26:50.724,0.115,-0.16
2021-08-01 01:26:50.728,0.095,-0.14
2021-08-01 01:26:50.732,0.12,-0.15
2021-08-01 01:26:50.736,0.11,-0.17
2021-08-01 01:26:50.740,0.125,-0.21
2021-08-01 01:26:50.744,0.12,-0.215
2021-08-01 01:26:50.748,0.135,-0.225
2021-08-01 01:26:50.752,0.14,-0.22
2021-08-01 01:26:50.756,0.125,-0.255
2021-08-01 01:26:50.760,0.14,-0.265
2021-08-01 01:26:50.764,0.13,-0.265
2021-08-01 01:26:50.768,0.115,-0.26
2021-08-01 01:26:50.772,0.115,-0.265
2021-08-01 01:26:50.776,0.115,-0.27
2021-08-01 01:26:50.780,0.12,-0.27
2021-08-01 01:26:50.784,0.12,-0.28
2021-08-01 01:26:50.788,0.115,-0.28
2021-08-01 01:26:50.792,0.11,-0.28
2021-08-01 01:26:50.796,0.115,-0.28
2021-08-01 01:26:50.800,0.12,-0.285
2021-08-01 01:26:50.804,0.11,-0.28
2021-08-01 01:26:50.808,0.11,-0.27
2021-08-01 01:26:50.812,0.11,-0.275
2021-08-01 01:26:50.816,0.125,-0.29
2021-08-01 01:26:50.820,0.145,-0.32
2021-08-01 01:26:50.824,0.115,-0.305
2021-08-01 01:26:50.828,0.125,-0.26
2021-08-01 01:26:50.832,0.13,-0.12
2021-08-01 01:26:50.836,0.155,0.07
2021-08-01 01:26:50.840,0.18,0.285
2021-08-01 01:26:50.844,0.23,0.48
2021-08-01 01:26:50.848,0.315,0.55
2021-08-01 01:26:50.852,0.395,0.585
2021-08-01 01:26:50.856,0.43,0.475
2021-08-01 01:26:50.860,0.45,0.13
2021-08-01 01:26:50.864,0.43,-0.315
2021-08-01 01:26:50.868,0.355,-0.59
2021-08-01 01:26:50.872,0.15,-0.695
2021-08-01 01:26:50.876,-0.035,-0.735
2021-08-01 01:26:50.880,-0.145,-0.71
2021-08-01 01:26:50.884,-0.195,-0.595
2021-08-01 01:26:50.888,-0.205,-0.475
2021-08-01 01:26:50.892,-0.18,-0.415
2021-08-01 01:26:50.896,-0.095,-0.34
2021-08-01 01:26:50.900,-0.025,-0.3
2021-08-01 01:26:50.904,0.01,-0.28
2021-08-01 01:26:50.908,0.085,-0.29
2021-08-01 01:26:50.912,0.09,-0.295
2021-08-01 01:26:50.916,0.1,-0.295
2021-08-01 01:26:50.920,0.1,-0.31
2021-08-01 01:26:50.924,0.12,-0.305
2021-08-01 01:26:50.928,0.11,-0.29
2021-08-01 01:26:50.932,0.1,-0.28
2021-08-01 01:26:50.936,0.1,-0.29
2021-08-01 01:26:50.940,0.105,-0.29
2021-08-01 01:26:50.944,0.09,-0.28
2021-08-01 01:26:50.948,0.095,-0.3
2021-08-01 01:26:50.952,0.085,-0.295
2021-08-01 01:26:50.956,0.1,-0.29
2021-08-01 01:26:50.960,0.095,-0.305
2021-08-01 01:26:50.964,0.095,-0.29
2021-08-01 01:26:50.968,0.105,-0.275
2021-08-01 01:26:50.972,0.105,-0.285
2021-08-01 01:26:50.976,0.095,-0.285
2021-08-01 01:26:50.980,0.085,-0.285
2021-08-01 01:26:50.984,0.09,-0.275
2021-08-01 01:26:50.988,0.085,-0.275
2021-08-01 01:26:50.992,0.085,-0.275
2021-08-01 01:26:50.996,0.08,-0.275
2021-08-01 01:26:51.000,0.095,-0.26
2021-08-01 01:26:51.004,0.09,-0.26
2021-08-01 01:26:51.008,0.095,-0.265
2021-08-01 01:26:51.012,0.08,-0.265
2021-08-01 01:26:51.016,0.08,-0.295
2021-08-01 01:26:51.020,0.09,-0.275
2021-08-01 01:26:51.024,0.085,-0.235
2021-08-01 01:26:51.028,0.1,-0.2
2021-08-01 01:26:51.032,0.115,-0.19
2021-08-01 01:26:51.036,0.115,-0.21
2021-08-01 01:26:51.040,0.1,-0.245
2021-08-01 01:26:51.044,0.105,-0.265
2021-08-01 01:26:51.048,0.105,-0.27
2021-08-01 01:26:51.052,0.11,-0.305
2021-08-01 01:26:51.056,0.12,-0.33
2021-08-01 01:26:51.060,0.14,-0.355
2021-08-01 01:26:51.064,0.14,-0.315
2021-08-01 01:26:51.068,0.155,-0.26
2021-08-01 01:26:51.072,0.16,-0.25
2021-08-01 01:26:51.076,0.155,-0.24
2021-08-01 01:26:51.080,0.135,-0.245
2021-08-01 01:26:51.084,0.1,-0.24
2021-08-01 01:26:51.088,0.085,-0.26
2021-08-01 01:26:51.092,0.07,-0.26
2021-08-01 01:26:51.096,0.045,-0.25
2021-08-01 01:26:51.100,0.045,-0.22
2021-08-01 01:26:51.104,0.065,-0.23
2021-08-01 01:26:51.108,0.045,-0.215
2021-08-01 01:26:51.112,0.065,-0.205
2021-08-01 01:26:51.116,0.07,-0.195
2021-08-01 01:26:51.120,0.06,-0.16
2021-08-01 01:26:51.124,0.06,-0.15
2021-08-01 01:26:51.128,0.06,-0.15
2021-08-01 01:26:51.132,0.08,-0.14
2021-08-01 01:26:51.136,0.09,-0.14
2021-08-01 01:26:51.140,0.08,-0.125
2021-08-01 01:26:51.144,0.08,-0.12
2021-08-01 01:26:51.148,0.075,-0.125
2021-08-01 01:26:51.152,0.09,-0.15
2021-08-01 01:26:51.156,0.095,-0.16
2021-08-01 01:26:51.160,0.065,-0.15
2021-08-01 01:26:51.164,0.055,-0.15
2021-08-01 01:26:51.168,0.07,-0.15
2021-08-01 01:26:51.172,0.09,-0.155
2021-08-01 01:26:51.176,0.065,-0.15
2021-08-01 01:26:51.180,0.07,-0.14
2021-08-01 01:26:51.184,0.08,-0.155
2021-08-01 01:26:51.188,0.065,-0.15
2021-08-01 01:26:51.192,0.07,-0.15
2021-08-01 01:26:51.196,0.07,-0.15
2021-08-01 01:26:51.200,0.06,-0.17
2021-08-01 01:26:51.204,0.07,-0.185
2021-08-01 01:26:51.208,0.07,-0.16
2021-08-01 01:26:51.212,0.045,-0.025
2021-08-01 01:26:51.216,0.065,0.175
2021-08-01 01:26:51.220,0.085,0.43
2021-08-01 01:26:51.224,0.11,0.58
2021-08-01 01:26:51.228,0.165,0.585
2021-08-01 01:26:51.232,0.265,0.5
2021-08-01 01:26:51.236,0.32,0.22
2021-08-01 01:26:51.240,0.29,-0.255
2021-08-01 01:26:51.244,0.145,-0.585
2021-08-01 01:26:51.248,-0.04,-0.775
2021-08-01 01:26:51.252,-0.23,-0.735
2021-08-01 01:26:51.256,-0.31,-0.68
2021-08-01 01:26:51.260,-0.32,-0.555
2021-08-01 01:26:51.264,-0.26,-0.42
2021-08-01 01:26:51.268,-0.19,-0.3
2021-08-01 01:26:51.272,-0.135,-0.24
2021-08-01 01:26:51.276,-0.035,-0.23
2021-08-01 01:26:51.280,0.02,-0.235
2021-08-01 01:26:51.284,0.055,-0.215
2021-08-01 01:26:51.288,0.065,-0.22
2021-08-01 01:26:51.292,0.065,-0.24
2021-08-01 01:26:51.296,0.065,-0.25
2021-08-01 01:26:51.300,0.08,-0.25
2021-08-01 01:26:51.304,0.065,-0.27
2021-08-01 01:26:51.308,0.09,-0.28
2021-08-01 01:26:51.312,0.09,-0.315
2021-08-01 01:26:51.316,0.115,-0.325
2021-08-01 01:26:51.320,0.145,-0.29
2021-08-01 01:26:51.324,0.11,-0.24
2021-08-01 01:26:51.328,0.115,-0.24
2021-08-01 01:26:51.332,0.09,-0.245
2021-08-01 01:26:51.336,0.095,-0.235
2021-08-01 01:26:51.340,0.04,-0.24
2021-08-01 01:26:51.344,0.005,-0.265
2021-08-01 01:26:51.348,0.0,-0.255
2021-08-01 01:26:51.352,-0.005,-0.265
2021-08-01 01:26:51.356,0.0,-0.265
2021-08-01 01:26:51.360,0.005,-0.25
2021-08-01 01:26:51.364,0.0,-0.245
2021-08-01 01:26:51.368,-0.005,-0.26
2021-08-01 01:26:51.372,0.0,-0.255
2021-08-01 01:26:51.376,-0.005,-0.235
2021-08-01 01:26:51.380,-0.01,-0.21
2021-08-01 01:26:51.384,0.0,-0.21
2021-08-01 01:26:51.388,0.0,-0.22
2021-08-01 01:26:51.392,-0.005,-0.2
2021-08-01 01:26:51.396,-0.005,-0.195
2021-08-01 01:26:51.400,0.02,-0.19
2021-08-01 01:26:51.404,0.01,-0.19
2021-08-01 01:26:51.408,0.005,-0.165
2021-08-01 01:26:51.412,0.01,-0.16
2021-08-01 01:26:51.416,0.01,-0.14
2021-08-01 01:26:51.420,0.0,-0.13
2021-08-01 01:26:51.424,0.015,-0.115
2021-08-01 01:26:51.428,0.025,-0.125
2021-08-01 01:26:51.432,0.025,-0.095
2021-08-01 01:26:51.436,0.035,-0.07
2021-08-01 01:26:51.440,0.03,-0.045
2021-08-01 01:26:51.444,0.035,-0.05
2021-08-01 01:26:51.448,0.035,-0.03
2021-08-01 01:26:51.452,0.04,-0.02
2021-08-01 01:26:51.456,0.055,0.005
2021-08-01 01:26:51.460,0.055,0.02
2021-08-01 01:26:51.464,0.055,0.03
2021-08-01 01:26:51.468,0.06,0.035
2021-08-01 01:26:51.472,0.07,0.045
2021-08-01 01:26:51.476,0.065,0.05
2021-08-01 01:26:51.480,0.065,0.075
2021-08-01 01:26:51.484,0.065,0.045
2021-08-01 01:26:51.488,0.075,0.04
2021-08-01 01:26:51.492,0.075,0.035
2021-08-01 01:26:51.496,0.08,0.015
2021-08-01 01:26:51.500,0.065,0.0
2021-08-01 01:26:51.504,0.07,-0.035
2021-08-01 01:26:51.508,0.075,-0.05
2021-08-01 01:26:51.512,0.07,-0.07
2021-08-01 01:26:51.516,0.055,-0.075
2021-08-01 01:26:51.520,0.065,-0.09
2021-08-01 01:26:51.524,0.06,-0.13
2021-08-01 01:26:51.528,0.035,-0.125
2021-08-01 01:26:51.532,0.055,-0.115
2021-08-01 01:26:51.536,0.05,-0.11
2021-08-01 01:26:51.540,0.03,-0.135
2021-08-01 01:26:51.544,0.05,-0.135
2021-08-01 01:26:51.548,0.03,-0.14
2021-08-01 01:26:51.552,0.015,-0.145
2021-08-01 01:26:51.556,0.015,-0.155
2021-08-01 01:26:51.560,0.02,-0.155
2021-08-01 01:26:51.564,0.03,-0.165
2021-08-01 01:26:51.568,0.035,-0.15
2021-08-01 01:26:51.572,0.03,-0.155
2021-08-01 01:26:51.576,0.005,-0.17
2021-08-01 01:26:51.580,0.025,-0.175
2021-08-01 01:26:51.584,0.03,-0.165
2021-08-01 01:26:51.588,0.005,-0.18
2021-08-01 01:26:51.592,0.02,-0.175
2021-08-01 01:26:51.596,0.015,-0.18
2021-08-01 01:26:51.600,0.0,-0.17
2021-08-01 01:26:51.604,0.0,-0.18
2021-08-01 01:26:51.608,0.02,-0.17
2021-08-01 01:26:51.612,0.005,-0.185
2021-08-01 01:26:51.616,0.005,-0.185
2021-08-01 01:26:51.620,0.005,-0.195
2021-08-01 01:26:51.624,-0.01,-0.19
2021-08-01 01:26:51.628,-0.005,-0.185
2021-08-01 01:26:51.632,-0.005,-0.165
2021-08-01 01:26:51.636,-0.01,-0.185
2021-08-01 01:26:51.640,-0.015,-0.19
2021-08-01 01:26:51.644,-0.01,-0.185
2021-08-01 01:26:51.648,-0.01,-0.175
2021-08-01 01:26:51.652,-0.02,-0.2
2021-08-01 01:26:51.656,-0.01,-0.185
2021-08-01 01:26:51.660,-0.025,-0.215
2021-08-01 01:26:51.664,-0.02,-0.2
2021-08-01 01:26:51.668,-0.04,-0.195
2021-08-01 01:26:51.672,-0.015,-0.2
2021-08-01 01:26:51.676,-0.04,-0.185
2021-08-01 01:26:51.680,-0.05,-0.195
2021-08-01 01:26:51.684,-0.045,-0.195
2021-08-01 01:26:51.688,-0.03,-0.175
2021-08-01 01:26:51.692,-0.035,-0.2
2021-08-01 01:26:51.696,-0.03,-0.195
2021-08-01 01:26:51.700,-0.045,-0.205
2021-08-01 01:26:51.704,-0.04,-0.205
2021-08-01 01:26:51.708,-0.045,-0.19
2021-08-01 01:26:51.712,-0.05,-0.19
2021-08-01 01:26:51.716,-0.03,-0.205
2021-08-01 01:26:51.720,-0.055,-0.2
2021-08-01 01:26:51.724,-0.05,-0.2
2021-08-01 01:26:51.728,-0.035,-0.205
2021-08-01 01:26:51.732,-0.035,-0.195
2021-08-01 01:26:51.736,-0.05,-0.19
2021-08-01 01:26:51.740,-0.055,-0.205
2021-08-01 01:26:51.744,-0.045,-0.2
2021-08-01 01:26:51.748,-0.05,-0.19
2021-08-01 01:26:51.752,-0.05,-0.18
2021-08-01 01:26:51.756,-0.045,-0.205
2021-08-01 01:26:51.760,-0.045,-0.205
2021-08-01 01:26:51.764,-0.055,-0.175
2021-08-01 01:26:51.768,-0.06,-0.185
2021-08-01 01:26:51.772,-0.05,-0.2
2021-08-01 01:26:51.776,-0.06,-0.2
2021-08-01 01:26:51.780,-0.065,-0.205
2021-08-01 01:26:51.784,-0.045,-0.2
2021-08-01 01:26:51.788,-0.07,-0.195
2021-08-01 01:26:51.792,-0.075,-0.205
2021-08-01 01:26:51.796,-0.07,-0.225
2021-08-01 01:26:51.800,-0.08,-0.205
2021-08-01 01:26:51.804,-0.08,-0.185
2021-08-01 01:26:51.808,-0.075,-0.185
2021-08-01 01:26:51.812,-0.085,-0.2
2021-08-01 01:26:51.816,-0.08,-0.195
2021-08-01 01:26:51.820,-0.085,-0.2
2021-08-01 01:26:51.824,-0.07,-0.205
2021-08-01 01:26:51.828,-0.075,-0.205
2021-08-01 01:26:51.832,-0.095,-0.2
2021-08-01 01:26:51.836,-0.065,-0.21
2021-08-01 01:26:51.840,-0.085,-0.2
2021-08-01 01:26:51.844,-0.085,-0.18
2021-08-01 01:26:51.848,-0.09,-0.185
2021-08-01 01:26:51.852,-0.105,-0.19
2021-08-01 01:26:51.856,-0.105,-0.195
2021-08-01 01:26:51.860,-0.11,-0.2
2021-08-01 01:26:51.864,-0.105,-0.19
2021-08-01 01:26:51.868,-0.11,-0.2
2021-08-01 01:26:51.872,-0.11,-0.19
2021-08-01 01:26:51.876,-0.11,-0.21
2021-08-01 01:26:51.880,-0.105,-0.215
2021-08-01 01:26:51.884,-0.11,-0.21
2021-08-01 01:26:51.888,-0.11,-0.19
2021-08-01 01:26:51.892,-0.1,-0.205
2021-08-01 01:26:51.896,-0.12,-0.2
2021-08-01 01:26:51.900,-0.12,-0.2
2021-08-01 01:26:51.904,-0.12,-0.195
2021-08-01 01:26:51.908,-0.12,-0.205
2021-08-01 01:26:51.912,-0.12,-0.21
2021-08-01 01:26:51.916,-0.125,-0.205
2021-08-01 01:26:51.920,-0.1,-0.225
2021-08-01 01:26:51.924,-0.115,-0.205
2021-08-01 01:26:51.928,-0.12,-0.205
2021-08-01 01:26:51.932,-0.115,-0.2
2021-08-01 01:26:51.936,-0.12,-0.205
2021-08-01 01:26:51.940,-0.14,-0.19
2021-08-01 01:26:51.944,-0.135,-0.2
2021-08-01 01:26:51.948,-0.13,-0.205
2021-08-01 01:26:51.952,-0.14,-0.215
2021-08-01 01:26:51.956,-0.15,-0.22
2021-08-01 01:26:51.960,-0.145,-0.22
2021-08-01 01:26:51.964,-0.15,-0.205
2021-08-01 01:26:51.968,-0.125,-0.2
2021-08-01 01:26:51.972,-0.14,-0.21
2021-08-01 01:26:51.976,-0.15,-0.225
2021-08-01 01:26:51.980,-0.135,-0.215
2021-08-01 01:26:51.984,-0.135,-0.2
2021-08-01 01:26:51.988,-0.135,-0.21
2021-08-01 01:26:51.992,-0.145,-0.205
2021-08-01 01:26:51.996,-0.145,-0.21
2021-08-01 01:26:52.000,-0.135,-0.22
2021-08-01 01:26:52.004,-0.16,-0.205
2021-08-01 01:26:52.008,-0.16,-0.22
2021-08-01 01:26:52.012,-0.16,-0.23
2021-08-01 01:26:52.016,-0.15,-0.225
2021-08-01 01:26:52.020,-0.15,-0.215
2021-08-01 01:26:52.024,-0.16,-0.215
2021-08-01 01:26:52.028,-0.17,-0.21
2021-08-01 01:26:52.032,-0.16,-0.22
2021-08-01 01:26:52.036,-0.16,-0.215
2021-08-01 01:26:52.040,-0.17,-0.22
2021-08-01 01:26:52.044,-0.15,-0.225
2021-08-01 01:26:52.048,-0.17,-0.21
2021-08-01 01:26:52.052,-0.17,-0.215
2021-08-01 01:26:52.056,-0.175,-0.23
2021-08-01 01:26:52.060,-0.165,-0.23
2021-08-01 01:26:52.064,-0.17,-0.225
2021-08-01 01:26:52.068,-0.17,-0.215
2021-08-01 01:26:52.072,-0.175,-0.225
2021-08-01 01:26:52.076,-0.185,-0.22
2021-08-01 01:26:52.080,-0.19,-0.225
2021-08-01 01:26:52.084,-0.175,-0.21
2021-08-01 01:26:52.088,-0.18,-0.21
2021-08-01 01:26:52.092,-0.17,-0.22
2021-08-01 01:26:52.096,-0.18,-0.22
2021-08-01 01:26:52.100,-0.175,-0.215
2021-08-01 01:26:52.104,-0.19,-0.195
2021-08-01 01:26:52.108,-0.17,-0.19
2021-08-01 01:26:52.112,-0.175,-0.17
2021-08-01 01:26:52.116,-0.185,-0.155
2021-08-01 01:26:52.120,-0.185,-0.135
2021-08-01 01:26:52.124,-0.165,-0.135
2021-08-01 01:26:52.128,-0.155,-0.12
2021-08-01 01:26:52.132,-0.15,-0.105
2021-08-01 01:26:52.136,-0.14,-0.08
2021-08-01 01:26:52.140,-0.125,-0.045
2021-08-01 01:26:52.144,-0.145,-0.035
2021-08-01 01:26:52.148,-0.115,-0.055
2021-08-01 01:26:52.152,-0.145,-0.095
2021-08-01 01:26:52.156,-0.15,-0.13
2021-08-01 01:26:52.160,-0.175,-0.185
2021-08-01 01:26:52.164,-0.21,-0.205
2021-08-01 01:26:52.168,-0.22,-0.2
2021-08-01 01:26:52.172,-0.235,-0.185
2021-08-01 01:26:52.176,-0.23,-0.175
2021-08-01 01:26:52.180,-0.23,-0.175
2021-08-01 01:26:52.184,-0.22,-0.16
2021-08-01 01:26:52.188,-0.205,-0.195
2021-08-01 01:26:52.192,-0.19,-0.22
2021-08-01 01:26:52.196,-0.17,-0.25
2021-08-01 01:26:52.200,-0.195,-0.25
2021-08-01 01:26:52.204,-0.19,-0.265
2021-08-01 01:26:52.208,-0.2,-0.295
2021-08-01 01:26:52.212,-0.195,-0.295
2021-08-01 01:26:52.216,-0.2,-0.3
2021-08-01 01:26:52.220,-0.21,-0.3
2021-08-01 01:26:52.224,-0.21,-0.325
2021-08-01 01:26:52.228,-0.215,-0.33
2021-08-01 01:26:52.232,-0.225,-0.335
2021-08-01 01:26:52.236,-0.22,-0.315
2021-08-01 01:26:52.240,-0.22,-0.3
2021-08-01 01:26:52.244,-0.21,-0.295
2021-08-01 01:26:52.248,-0.2,-0.31
2021-08-01 01:26:52.252,-0.205,-0.305
2021-08-01 01:26:52.256,-0.21,-0.3
2021-08-01 01:26:52.260,-0.215,-0.3
2021-08-01 01:26:52.264,-0.21,-0.32
2021-08-01 01:26:52.268,-0.2,-0.3
2021-08-01 01:26:52.272,-0.19,-0.215
2021-08-01 01:26:52.276,-0.17,-0.03
2021-08-01 01:26:52.280,-0.16,0.2
2021-08-01 01:26:52.284,-0.105,0.42
2021-08-01 01:26:52.288,-0.015,0.555
2021-08-01 01:26:52.292,0.05,0.58
2021-08-01 01:26:52.296,0.125,0.56
2021-08-01 01:26:52.300,0.125,0.43
2021-08-01 01:26:52.304,0.085,0.04
2021-08-01 01:26:52.308,0.045,-0.395
2021-08-01 01:26:52.312,-0.09,-0.675
2021-08-01 01:26:52.316,-0.305,-0.765
2021-08-01 01:26:52.320,-0.46,-0.755
2021-08-01 01:26:52.324,-0.545,-0.645
2021-08-01 01:26:52.328,-0.56,-0.55
2021-08-01 01:26:52.332,-0.535,-0.45
2021-08-01 01:26:52.336,-0.455,-0.38
2021-08-01 01:26:52.340,-0.345,-0.335
2021-08-01 01:26:52.344,-0.295,-0.335
2021-08-01 01:26:52.348,-0.235,-0.315
2021-08-01 01:26:52.352,-0.205,-0.335
2021-08-01 01:26:52.356,-0.195,-0.33
2021-08-01 01:26:52.360,-0.2,-0.335
2021-08-01 01:26:52.364,-0.2,-0.34
2021-08-01 01:26:52.368,-0.16,-0.355
2021-08-01 01:26:52.372,-0.185,-0.335
2021-08-01 01:26:52.376,-0.19,-0.345
2021-08-01 01:26:52.380,-0.195,-0.34
2021-08-01 01:26:52.384,-0.17,-0.335
2021-08-01 01:26:52.388,-0.2,-0.32
2021-08-01 01:26:52.392,-0.19,-0.315
2021-08-01 01:26:52.396,-0.2,-0.305
2021-08-01 01:26:52.400,-0.205,-0.32
2021-08-01 01:26:52.404,-0.195,-0.32
2021-08-01 01:26:52.408,-0.18,-0.335
2021-08-01 01:26:52.412,-0.2,-0.31
2021-08-01 01:26:52.416,-0.195,-0.315
2021-08-01 01:26:52.420,-0.2,-0.32
2021-08-01 01:26:52.424,-0.185,-0.305
2021-08-01 01:26:52.428,-0.21,-0.3
2021-08-01 01:26:52.432,-0.2,-0.305
2021-08-01 01:26:52.436,-0.195,-0.295
2021-08-01 01:26:52.440,-0.195,-0.275
2021-08-01 01:26:52.444,-0.19,-0.29
2021-08-01 01:26:52.448,-0.19,-0.28
2021-08-01 01:26:52.452,-0.18,-0.27
2021-08-01 01:26:52.456,-0.175,-0.25
2021-08-01 01:26:52.460,-0.2,-0.265
2021-08-01 01:26:52.464,-0.185,-0.27
2021-08-01 01:26:52.468,-0.16,-0.25
2021-08-01 01:26:52.472,-0.17,-0.245
2021-08-01 01:26:52.476,-0.16,-0.235
2021-08-01 01:26:52.480,-0.17,-0.23
2021-08-01 01:26:52.484,-0.15,-0.235
2021-08-01 01:26:52.488,-0.16,-0.23
2021-08-01 01:26:52.492,-0.16,-0.23
2021-08-01 01:26:52.496,-0.16,-0.205
2021-08-01 01:26:52.500,-0.14,-0.225
2021-08-01 01:26:52.504,-0.16,-0.21
2021-08-01 01:26:52.508,-0.14,-0.195
2021-08-01 01:26:52.512,-0.145,-0.19
2021-08-01 01:26:52.516,-0.13,-0.185
2021-08-01 01:26:52.520,-0.12,-0.17
2021-08-01 01:26:52.524,-0.145,-0.16
2021-08-01 01:26:52.528,-0.12,-0.16
2021-08-01 01:26:52.532,-0.12,-0.16
2021-08-01 01:26:52.536,-0.12,-0.145
2021-08-01 01:26:52.540,-0.14,-0.15
2021-08-01 01:26:52.544,-0.145,-0.14
2021-08-01 01:26:52.548,-0.14,-0.135
2021-08-01 01:26:52.552,-0.11,-0.125
2021-08-01 01:26:52.556,-0.125,-0.12
2021-08-01 01:26:52.560,-0.13,-0.115
2021-08-01 01:26:52.564,-0.125,-0.085
2021-08-01 01:26:52.568,-0.12,-0.08
2021-08-01 01:26:52.572,-0.125,-0.06
2021-08-01 01:26:52.576,-0.11,-0.055
2021-08-01 01:26:52.580,-0.115,-0.04
2021-08-01 01:26:52.584,-0.105,-0.03
2021-08-01 01:26:52.588,-0.115,-0.01
2021-08-01 01:26:52.592,-0.1,-0.005
2021-08-01 01:26:52.596,-0.085,-0.015
2021-08-01 01:26:52.600,-0.095,-0.02
2021-08-01 01:26:52.604,-0.09,-0.015
2021-08-01 01:26:52.608,-0.1,-0.03
2021-08-01 01:26:52.612,-0.1,-0.02
2021-08-01 01:26:52.616,-0.08,-0.045
2021-08-01 01:26:52.620,-0.09,-0.055
2021-08-01 01:26:52.624,-0.09,-0.065
2021-08-01 01:26:52.628,-0.09,-0.075
2021-08-01 01:26:52.632,-0.1,-0.075
2021-08-01 01:26:52.636,-0.1,-0.09
2021-08-01 01:26:52.640,-0.095,-0.1
2021-08-01 01:26:52.644,-0.105,-0.095
2021-08-01 01:26:52.648,-0.12,-0.09
2021-08-01 01:26:52.652,-0.12,-0.095
2021-08-01 01:26:52.656,-0.11,-0.09
2021-08-01 01:26:52.660,-0.12,-0.09
2021-08-01 01:26:52.664,-0.11,-0.075
2021-08-01 01:26:52.668,-0.125,-0.09
2021-08-01 01:26:52.672,-0.12,-0.095
2021-08-01 01:26:52.676,-0.13,-0.1
2021-08-01 01:26:52.680,-0.12,-0.1
2021-08-01 01:26:52.684,-0.1,-0.085
2021-08-01 01:26:52.688,-0.12,-0.075
2021-08-01 01:26:52.692,-0.115,-0.095
2021-08-01 01:26:52.696,-0.12,-0.095
2021-08-01 01:26:52.700,-0.12,-0.105
2021-08-01 01:26:52.704,-0.115,-0.095
2021-08-01 01:26:52.708,-0.12,-0.09
2021-08-01 01:26:52.712,-0.12,-0.1
2021-08-01 01:26:52.716,-0.115,-0.115
2021-08-01 01:26:52.720,-0.1,-0.11
2021-08-01 01:26:52.724,-0.13,-0.115
2021-08-01 01:26:52.728,-0.11,-0.11
2021-08-01 01:26:52.732,-0.12,-0.115
2021-08-01 01:26:52.736,-0.12,-0.125
2021-08-01 01:26:52.740,-0.125,-0.115
2021-08-01 01:26:52.744,-0.11,-0.11
2021-08-01 01:26:52.748,-0.12,-0.11
2021-08-01 01:26:52.752,-0.12,-0.11
2021-08-01 01:26:52.756,-0.12,-0.135
2021-08-01 01:26:52.760,-0.11,-0.14
2021-08-01 01:26:52.764,-0.13,-0.125
2021-08-01 01:26:52.768,-0.125,-0.13
2021-08-01 01:26:52.772,-0.12,-0.12
2021-08-01 01:26:52.776,-0.105,-0.14
2021-08-01 01:26:52.780,-0.12,-0.14
2021-08-01 01:26:52.784,-0.12,-0.13
2021-08-01 01:26:52.788,-0.135,-0.15
2021-08-01 01:26:52.792,-0.12,-0.14
2021-08-01 01:26:52.796,-0.115,-0.145
2021-08-01 01:26:52.800,-0.15,-0.135
2021-08-01 01:26:52.804,-0.12,-0.135
2021-08-01 01:26:52.808,-0.11,-0.15
2021-08-01 01:26:52.812,-0.135,-0.155
2021-08-01 01:26:52.816,-0.125,-0.15
2021-08-01 01:26:52.820,-0.125,-0.145
2021-08-01 01:26:52.824,-0.12,-0.13
2021-08-01 01:26:52.828,-0.12,-0.095
2021-08-01 01:26:52.832,-0.1,-0.085
2021-08-01 01:26:52.836,-0.1,-0.065
2021-08-01 01:26:52.840,-0.1,-0.075
2021-08-01 01:26:52.844,-0.08,-0.065
2021-08-01 01:26:52.848,-0.045,-0.06
2021-08-01 01:26:52.852,-0.065,-0.02
2021-08-01 01:26:52.856,-0.05,0.0
2021-08-01 01:26:52.860,-0.045,0.005
2021-08-01 01:26:52.864,-0.035,0.03
2021-08-01 01:26:52.868,-0.045,0.025
2021-08-01 01:26:52.872,-0.04,-0.02
2021-08-01 01:26:52.876,-0.08,-0.05
2021-08-01 01:26:52.880,-0.105,-0.11
2021-08-01 01:26:52.884,-0.13,-0.14
2021-08-01 01:26:52.888,-0.135,-0.155
2021-08-01 01:26:52.892,-0.16,-0.155
2021-08-01 01:26:52.896,-0.17,-0.145
2021-08-01 01:26:52.900,-0.165,-0.145
2021-08-01 01:26:52.904,-0.15,-0.14
2021-08-01 01:26:52.908,-0.135,-0.16
2021-08-01 01:26:52.912,-0.13,-0.2
2021-08-01 01:26:52.916,-0.115,-0.2
2021-08-01 01:26:52.920,-0.105,-0.22
2021-08-01 01:26:52.924,-0.11,-0.23
2021-08-01 01:26:52.928,-0.105,-0.25
2021-08-01 01:26:52.932,-0.115,-0.26
2021-08-01 01:26:52.936,-0.115,-0.285
2021-08-01 01:26:52.940,-0.135,-0.28
2021-08-01 01:26:52.944,-0.13,-0.265
2021-08-01 01:26:52.948,-0.155,-0.265
2021-08-01 01:26:52.952,-0.13,-0.26
2021-08-01 01:26:52.956,-0.125,-0.27
2021-08-01 01:26:52.960,-0.145,-0.28
2021-08-01 01:26:52.964,-0.14,-0.28
2021-08-01 01:26:52.968,-0.15,-0.28
2021-08-01 01:26:52.972,-0.14,-0.28
2021-08-01 01:26:52.976,-0.15,-0.29
2021-08-01 01:26:52.980,-0.125,-0.285
2021-08-01 01:26:52.984,-0.135,-0.27
2021-08-01 01:26:52.988,-0.135,-0.28
2021-08-01 01:26:52.992,-0.12,-0.34
2021-08-01 01:26:52.996,-0.12,-0.305
2021-08-01 01:26:53.000,-0.14,-0.215
2021-08-01 01:26:53.004,-0.11,-0.05
2021-08-01 01:26:53.008,-0.085,0.155
2021-08-01 01:26:53.012,-0.06,0.37
2021-08-01 01:26:53.016,0.0,0.5
2021-08-01 01:26:53.020,0.1,0.535
2021-08-01 01:26:53.024,0.185,0.535
2021-08-01 01:26:53.028,0.2,0.32
2021-08-01 01:26:53.032,0.215,-0.15
2021-08-01 01:26:53.036,0.2,-0.535
2021-08-01 01:26:53.040,0.065,-0.71
2021-08-01 01:26:53.044,-0.16,-0.77
2021-08-01 01:26:53.048,-0.32,-0.775
2021-08-01 01:26:53.052,-0.4,-0.69
2021-08-01 01:26:53.056,-0.42,-0.54
2021-08-01 01:26:53.060,-0.415,-0.47
2021-08-01 01:26:53.064,-0.35,-0.385
2021-08-01 01:26:53.068,-0.275,-0.3
2021-08-01 01:26:53.072,-0.22,-0.31
2021-08-01 01:26:53.076,-0.16,-0.305
2021-08-01 01:26:53.080,-0.14,-0.315
2021-08-01 01:26:53.084,-0.13,-0.305
2021-08-01 01:26:53.088,-0.135,-0.315
2021-08-01 01:26:53.092,-0.12,-0.305
2021-08-01 01:26:53.096,-0.115,-0.3
2021-08-01 01:26:53.100,-0.115,-0.28
2021-08-01 01:26:53.104,-0.105,-0.3
2021-08-01 01:26:53.108,-0.12,-0.305
2021-08-01 01:26:53.112,-0.105,-0.31
2021-08-01 01:26:53.116,-0.1,-0.3
2021-08-01 01:26:53.120,-0.1,-0.3
2021-08-01 01:26:53.124,-0.12,-0.3
2021-08-01 01:26:53.128,-0.115,-0.32
2021-08-01 01:26:53.132,-0.08,-0.31
2021-08-01 01:26:53.136,-0.115,-0.29
2021-08-01 01:26:53.140,-0.115,-0.305
2021-08-01 01:26:53.144,-0.1,-0.3
2021-08-01 01:26:53.148,-0.11,-0.315
2021-08-01 01:26:53.152,-0.115,-0.305
2021-08-01 01:26:53.156,-0.105,-0.295
2021-08-01 01:26:53.160,-0.11,-0.3
2021-08-01 01:26:53.164,-0.125,-0.29
2021-08-01 01:26:53.168,-0.105,-0.3
2021-08-01 01:26:53.172,-0.105,-0.315
2021-08-01 01:26:53.176,-0.1,-0.285
2021-08-01 01:26:53.180,-0.09,-0.27
2021-08-01 01:26:53.184,-0.1,-0.28
2021-08-01 01:26:53.188,-0.095,-0.29
2021-08-01 01:26:53.192,-0.1,-0.265
2021-08-01 01:26:53.196,-0.095,-0.26
2021-08-01 01:26:53.200,-0.085,-0.27
2021-08-01 01:26:53.204,-0.095,-0.27
2021-08-01 01:26:53.208,-0.1,-0.25
2021-08-01 01:26:53.212,-0.08,-0.245
2021-08-01 01:26:53.216,-0.085,-0.25
2021-08-01 01:26:53.220,-0.085,-0.23
2021-08-01 01:26:53.224,-0.06,-0.245
2021-08-01 01:26:53.228,-0.07,-0.25
2021-08-01 01:26:53.232,-0.085,-0.235
2021-08-01 01:26:53.236,-0.065,-0.22
2021-08-01 01:26:53.240,-0.065,-0.22
2021-08-01 01:26:53.244,-0.06,-0.24
2021-08-01 01:26:53.248,-0.055,-0.23
2021-08-01 01:26:53.252,-0.06,-0.22
2021-08-01 01:26:53.256,-0.06,-0.21
2021-08-01 01:26:53.260,-0.06,-0.2
2021-08-01 01:26:53.264,-0.06,-0.205
2021-08-01 01:26:53.268,-0.065,-0.195
2021-08-01 01:26:53.272,-0.075,-0.185
2021-08-01 01:26:53.276,-0.06,-0.17
2021-08-01 01:26:53.280,-0.035,-0.175
2021-08-01 01:26:53.284,-0.045,-0.16
2021-08-01 01:26:53.288,-0.045,-0.14
2021-08-01 01:26:53.292,-0.04,-0.12
2021-08-01 01:26:53.296,-0.04,-0.11
2021-08-01 01:26:53.300,-0.005,-0.1
2021-08-01 01:26:53.304,-0.035,-0.11
2021-08-01 01:26:53.308,-0.035,-0.115
2021-08-01 01:26:53.312,-0.015,-0.125
2021-08-01 01:26:53.316,-0.01,-0.11
2021-08-01 01:26:53.320,-0.015,-0.135
2021-08-01 01:26:53.324,0.005,-0.125
2021-08-01 01:26:53.328,-0.015,-0.145
2021-08-01 01:26:53.332,0.0,-0.15
2021-08-01 01:26:53.336,0.0,-0.13
2021-08-01 01:26:53.340,0.0,-0.135
2021-08-01 01:26:53.344,0.0,-0.15
2021-08-01 01:26:53.348,0.005,-0.145
2021-08-01 01:26:53.352,0.005,-0.145
2021-08-01 01:26:53.356,0.015,-0.14
2021-08-01 01:26:53.360,0.01,-0.14
2021-08-01 01:26:53.364,0.005,-0.16
2021-08-01 01:26:53.368,-0.01,-0.155
2021-08-01 01:26:53.372,0.01,-0.15
2021-08-01 01:26:53.376,0.0,-0.15
2021-08-01 01:26:53.380,0.0,-0.15
2021-08-01 01:26:53.384,0.0,-0.135
2021-08-01 01:26:53.388,0.015,-0.155
2021-08-01 01:26:53.392,0.015,-0.14
2021-08-01 01:26:53.396,0.02,-0.145
2021-08-01 01:26:53.400,0.025,-0.13
2021-08-01 01:26:53.404,0.02,-0.16
2021-08-01 01:26:53.408,0.03,-0.135
2021-08-01 01:26:53.412,0.025,-0.14
2021-08-01 01:26:53.416,0.03,-0.155
2021-08-01 01:26:53.420,0.04,-0.145
2021-08-01 01:26:53.424,0.03,-0.15
2021-08-01 01:26:53.428,0.02,-0.145
2021-08-01 01:26:53.432,0.045,-0.14
2021-08-01 01:26:53.436,0.03,-0.13
2021-08-01 01:26:53.440,0.035,-0.145
2021-08-01 01:26:53.444,0.055,-0.145
2021-08-01 01:26:53.448,0.045,-0.15
2021-08-01 01:26:53.452,0.05,-0.14
2021-08-01 01:26:53.456,0.04,-0.155
2021-08-01 01:26:53.460,0.045,-0.16
2021-08-01 01:26:53.464,0.045,-0.155
2021-08-01 01:26:53.468,0.06,-0.16
2021-08-01 01:26:53.472,0.06,-0.15
2021-08-01 01:26:53.476,0.07,-0.155
2021-08-01 01:26:53.480,0.065,-0.15
2021-08-01 01:26:53.484,0.055,-0.175
2021-08-01 01:26:53.488,0.065,-0.17
2021-08-01 01:26:53.492,0.055,-0.15
2021-08-01 01:26:53.496,0.05,-0.175
2021-08-01 01:26:53.500,0.06,-0.175
2021-08-01 01:26:53.504,0.05,-0.18
2021-08-01 01:26:53.508,0.06,-0.185
2021-08-01 01:26:53.512,0.075,-0.15
2021-08-01 01:26:53.516,0.075,-0.155
2021-08-01 01:26:53.520,0.065,-0.175
2021-08-01 01:26:53.524,0.08,-0.175
2021-08-01 01:26:53.528,0.065,-0.165
2021-08-01 01:26:53.532,0.075,-0.155
2021-08-01 01:26:53.536,0.085,-0.155
2021-08-01 01:26:53.540,0.1,-0.16
2021-08-01 01:26:53.544,0.065,-0.12
2021-08-01 01:26:53.548,0.095,-0.095
2021-08-01 01:26:53.552,0.095,-0.075
2021-08-01 01:26:53.556,0.12,-0.045
2021-08-01 01:26:53.560,0.11,-0.04
2021-08-01 01:26:53.564,0.135,-0.045
2021-08-01 01:26:53.568,0.145,-0.035
2021-08-01 01:26:53.572,0.16,0.005
2021-08-01 01:26:53.576,0.165,0.01
2021-08-01 01:26:53.580,0.17,0.005
2021-08-01 01:26:53.584,0.155,-0.005
2021-08-01 01:26:53.588,0.14,-0.045
2021-08-01 01:26:53.592,0.13,-0.07
2021-08-01 01:26:53.596,0.11,-0.125
2021-08-01 01:26:53.600,0.08,-0.17
2021-08-01 01:26:53.604,0.08,-0.15
2021-08-01 01:26:53.608,0.065,-0.145
2021-08-01 01:26:53.612,0.07,-0.145
2021-08-01 01:26:53.616,0.05,-0.14
2021-08-01 01:26:53.620,0.07,-0.165
2021-08-01 01:26:53.624,0.095,-0.18
2021-08-01 01:26:53.628,0.075,-0.19
2021-08-01 01:26:53.632,0.095,-0.2
2021-08-01 01:26:53.636,0.11,-0.225
2021-08-01 01:26:53.640,0.13,-0.24
2021-08-01 01:26:53.644,0.12,-0.25
2021-08-01 01:26:53.648,0.115,-0.245
2021-08-01 01:26:53.652,0.11,-0.26
2021-08-01 01:26:53.656,0.085,-0.265
2021-08-01 01:26:53.660,0.09,-0.26
2021-08-01 01:26:53.664,0.085,-0.255
2021-08-01 01:26:53.668,0.1,-0.255
2021-08-01 01:26:53.672,0.085,-0.265
2021-08-01 01:26:53.676,0.115,-0.27
2021-08-01 01:26:53.680,0.1,-0.26
2021-08-01 01:26:53.684,0.08,-0.265
2021-08-01 01:26:53.688,0.095,-0.285
2021-08-01 01:26:53.692,0.1,-0.26
2021-08-01 01:26:53.696,0.08,-0.275
2021-08-01 01:26:53.700,0.09,-0.275
2021-08-01 01:26:53.704,0.105,-0.31
2021-08-01 01:26:53.708,0.1,-0.31
2021-08-01 01:26:53.712,0.105,-0.255
2021-08-01 01:26:53.716,0.105,-0.115
2021-08-01 01:26:53.720,0.155,0.085
2021-08-01 01:26:53.724,0.18,0.315
2021-08-01 01:26:53.728,0.21,0.485
2021-08-01 01:26:53.732,0.31,0.555
2021-08-01 01:26:53.736,0.385,0.57
2021-08-01 01:26:53.740,0.43,0.495
2021-08-01 01:26:53.744,0.4,0.14
2021-08-01 01:26:53.748,0.395,-0.325
2021-08-01 01:26:53.752,0.295,-0.615
2021-08-01 01:26:53.756,0.11,-0.735
2021-08-01 01:26:53.760,-0.095,-0.745
2021-08-01 01:26:53.764,-0.2,-0.685
2021-08-01 01:26:53.768,-0.24,-0.565
2021-08-01 01:26:53.772,-0.21,-0.465
2021-08-01 01:26:53.776,-0.19,-0.39
2021-08-01 01:26:53.780,-0.075,-0.305
2021-08-01 01:26:53.784,0.0,-0.295
2021-08-01 01:26:53.788,0.055,-0.275
2021-08-01 01:26:53.792,0.105,-0.29
2021-08-01 01:26:53.796,0.135,-0.3
2021-08-01 01:26:53.800,0.105,-0.29
2021-08-01 01:26:53.804,0.13,-0.285
2021-08-01 01:26:53.808,0.13,-0.29
2021-08-01 01:26:53.812,0.13,-0.28
2021-08-01 01:26:53.816,0.135,-0.275
2021-08-01 01:26:53.820,0.13,-0.29
2021-08-01 01:26:53.824,0.12,-0.28
2021-08-01 01:26:53.828,0.145,-0.28
2021-08-01 01:26:53.832,0.12,-0.275
2021-08-01 01:26:53.836,0.14,-0.27
2021-08-01 01:26:53.840,0.14,-0.27
2021-08-01 01:26:53.844,0.13,-0.255
2021-08-01 01:26:53.848,0.125,-0.265
2021-08-01 01:26:53.852,0.13,-0.275
2021-08-01 01:26:53.856,0.135,-0.28
2021-08-01 01:26:53.860,0.14,-0.27
2021-08-01 01:26:53.864,0.13,-0.255
2021-08-01 01:26:53.868,0.155,-0.255
2021-08-01 01:26:53.872,0.135,-0.26
2021-08-01 01:26:53.876,0.14,-0.275
2021-08-01 01:26:53.880,0.145,-0.25
2021-08-01 01:26:53.884,0.14,-0.25
2021-08-01 01:26:53.888,0.155,-0.245
2021-08-01 01:26:53.892,0.145,-0.26
2021-08-01 01:26:53.896,0.15,-0.25
2021-08-01 01:26:53.900,0.15,-0.235
2021-08-01 01:26:53.904,0.135,-0.225
2021-08-01 01:26:53.908,0.145,-0.225
2021-08-01 01:26:53.912,0.145,-0.225
2021-08-01 01:26:53.916,0.165,-0.215
2021-08-01 01:26:53.920,0.165,-0.22
2021-08-01 01:26:53.924,0.16,-0.2
2021-08-01 01:26:53.928,0.155,-0.195
2021-08-01 01:26:53.932,0.165,-0.205
2021-08-01 01:26:53.936,0.17,-0.205
2021-08-01 01:26:53.940,0.16,-0.16
2021-08-01 01:26:53.944,0.175,-0.165
2021-08-01 01:26:53.948,0.17,-0.175
2021-08-01 01:26:53.952,0.18,-0.185
2021-08-01 01:26:53.956,0.19,-0.17
2021-08-01 01:26:53.960,0.195,-0.17
2021-08-01 01:26:53.964,0.2,-0.15
2021-08-01 01:26:53.968,0.18,-0.145
2021-08-01 01:26:53.972,0.18,-0.15
2021-08-01 01:26:53.976,0.195,-0.15
2021-08-01 01:26:53.980,0.195,-0.145
2021-08-01 01:26:53.984,0.21,-0.135
2021-08-01 01:26:53.988,0.2,-0.135
2021-08-01 01:26:53.992,0.19,-0.11
2021-08-01 01:26:53.996,0.205,-0.12
2021-08-01 01:26:54.000,0.195,-0.11
2021-08-01 01:26:54.004,0.205,-0.09
2021-08-01 01:26:54.008,0.195,-0.1
2021-08-01 01:26:54.012,0.2,-0.095
2021-08-01 01:26:54.016,0.205,-0.085
2021-08-01 01:26:54.020,0.205,-0.07
2021-08-01 01:26:54.024,0.205,-0.075
2021-08-01 01:26:54.028,0.22,-0.085
2021-08-01 01:26:54.032,0.205,-0.115
2021-08-01 01:26:54.036,0.21,-0.115
2021-08-01 01:26:54.040,0.21,-0.125
2021-08-01 01:26:54.044,0.21,-0.14
2021-08-01 01:26:54.048,0.19,-0.145
2021-08-01 01:26:54.052,0.205,-0.155
2021-08-01 01:26:54.056,0.215,-0.145
2021-08-01 01:26:54.060,0.215,-0.14
2021-08-01 01:26:54.064,0.185,-0.13
2021-08-01 01:26:54.068,0.215,-0.155
2021-08-01 01:26:54.072,0.23,-0.16
2021-08-01 01:26:54.076,0.195,-0.155
2021-08-01 01:26:54.080,0.22,-0.135
2021-08-01 01:26:54.084,0.225,-0.165
2021-08-01 01:26:54.088,0.2,-0.14
2021-08-01 01:26:54.092,0.215,-0.145
2021-08-01 01:26:54.096,0.22,-0.15
2021-08-01 01:26:54.100,0.22,-0.145
2021-08-01 01:26:54.104,0.205,-0.14
2021-08-01 01:26:54.108,0.21,-0.16
2021-08-01 01:26:54.112,0.2,-0.155
