Time,ECG1,ECG2
2021-08-01 02:06:59.072,-0.05,-0.145
2021-08-01 02:06:59.076,-0.05,-0.135
2021-08-01 02:06:59.080,-0.035,-0.13
2021-08-01 02:06:59.084,-0.055,-0.12
2021-08-01 02:06:59.088,-0.045,-0.13
2021-08-01 02:06:59.092,-0.04,-0.12
2021-08-01 02:06:59.096,-0.06,-0.115
2021-08-01 02:06:59.100,-0.055,-0.13
2021-08-01 02:06:59.104,-0.04,-0.15
2021-08-01 02:06:59.108,-0.055,-0.145
2021-08-01 02:06:59.112,-0.04,-0.145
2021-08-01 02:06:59.116,-0.045,-0.13
2021-08-01 02:06:59.120,-0.04,-0.125
2021-08-01 02:06:59.124,-0.045,-0.13
2021-08-01 02:06:59.128,-0.02,-0.14
2021-08-01 02:06:59.132,-0.04,-0.12
2021-08-01 02:06:59.136,-0.035,-0.12
2021-08-01 02:06:59.140,-0.045,-0.12
2021-08-01 02:06:59.144,-0.03,-0.135
2021-08-01 02:06:59.148,-0.05,-0.125
2021-08-01 02:06:59.152,-0.04,-0.12
2021-08-01 02:06:59.156,-0.02,-0.13
2021-08-01 02:06:59.160,-0.035,-0.14
2021-08-01 02:06:59.164,-0.035,-0.13
2021-08-01 02:06:59.168,-0.045,-0.135
2021-08-01 02:06:59.172,-0.045,-0.135
2021-08-01 02:06:59.176,-0.025,-0.125
2021-08-01 02:06:59.180,-0.05,-0.13
2021-08-01 02:06:59.184,-0.03,-0.13
2021-08-01 02:06:59.188,-0.045,-0.125
2021-08-01 02:06:59.192,-0.045,-0.115
2021-08-01 02:06:59.196,-0.035,-0.11
2021-08-01 02:06:59.200,-0.025,-0.125
2021-08-01 02:06:59.204,-0.04,-0.145
2021-08-01 02:06:59.208,-0.03,-0.135
2021-08-01 02:06:59.212,-0.03,-0.13
2021-08-01 02:06:59.216,-0.035,-0.13
2021-08-01 02:06:59.220,-0.055,-0.115
2021-08-01 02:06:59.224,-0.05,-0.14
2021-08-01 02:06:59.228,-0.035,-0.135
2021-08-01 02:06:59.232,-0.05,-0.115
2021-08-01 02:06:59.236,-0.04,-0.13
2021-08-01 02:06:59.240,-0.035,-0.14
2021-08-01 02:06:59.244,-0.055,-0.14
2021-08-01 02:06:59.248,-0.055,-0.135
2021-08-01 02:06:59.252,-0.035,-0.145
2021-08-01 02:06:59.256,-0.03,-0.135
2021-08-01 02:06:59.260,-0.04,-0.13
2021-08-01 02:06:59.264,-0.035,-0.13
2021-08-01 02:06:59.268,-0.03,-0.145
2021-08-01 02:06:59.272,-0.05,-0.13
2021-08-01 02:06:59.276,-0.04,-0.125
2021-08-01 02:06:59.280,-0.045,-0.15
2021-08-01 02:06:59.284,-0.045,-0.16
2021-08-01 02:06:59.288,-0.05,-0.14
2021-08-01 02:06:59.292,-0.055,-0.13
2021-08-01 02:06:59.296,-0.04,-0.13
2021-08-01 02:06:59.300,-0.045,-0.13
2021-08-01 02:06:59.304,-0.03,-0.14
2021-08-01 02:06:59.308,-0.035,-0.14
2021-08-01 02:06:59.312,-0.015,-0.135
2021-08-01 02:06:59.316,-0.02,-0.14
2021-08-01 02:06:59.320,-0.045,-0.15
2021-08-01 02:06:59.324,-0.025,-0.14
2021-08-01 02:06:59.328,-0.015,-0.135
2021-08-01 02:06:59.332,-0.035,-0.14
2021-08-01 02:06:59.336,-0.02,-0.135
2021-08-01 02:06:59.340,-0.02,-0.135
2021-08-01 02:06:59.344,-0.035,-0.135
2021-08-01 02:06:59.348,-0.03,-0.145
2021-08-01 02:06:59.352,0.0,-0.13
2021-08-01 02:06:59.356,-0.02,-0.13
2021-08-01 02:06:59.360,-0.025,-0.14
2021-08-01 02:06:59.364,-0.03,-0.15
2021-08-01 02:06:59.368,-0.035,-0.125
2021-08-01 02:06:59.372,-0.04,-0.11
2021-08-01 02:06:59.376,0.0,-0.13
2021-08-01 02:06:59.380,-0.01,-0.14
2021-08-01 02:06:59.384,-0.02,-0.14
2021-08-01 02:06:59.388,-0.03,-0.135
2021-08-01 02:06:59.392,-0.02,-0.13
2021-08-01 02:06:59.396,-0.025,-0.145
2021-08-01 02:06:59.400,-0.01,-0.165
2021-08-01 02:06:59.404,-0.02,-0.16
2021-08-01 02:06:59.408,-0.02,-0.135
2021-08-01 02:06:59.412,-0.03,-0.135
2021-08-01 02:06:59.416,0.0,-0.13
2021-08-01 02:06:59.420,-0.02,-0.125
2021-08-01 02:06:59.424,-0.01,-0.125
2021-08-01 02:06:59.428,-0.015,-0.14
2021-08-01 02:06:59.432,-0.025,-0.135
2021-08-01 02:06:59.436,-0.02,-0.135
2021-08-01 02:06:59.440,-0.025,-0.15
2021-08-01 02:06:59.444,0.0,-0.155
2021-08-01 02:06:59.448,-0.005,-0.145
2021-08-01 02:06:59.452,-0.025,-0.145
2021-08-01 02:06:59.456,-0.015,-0.13
2021-08-01 02:06:59.460,-0.03,-0.15
2021-08-01 02:06:59.464,-0.02,-0.14
2021-08-01 02:06:59.468,-0.035,-0.14
2021-08-01 02:06:59.472,-0.025,-0.13
2021-08-01 02:06:59.476,-0.03,-0.12
2021-08-01 02:06:59.480,-0.035,-0.14
2021-08-01 02:06:59.484,-0.02,-0.135
2021-08-01 02:06:59.488,-0.03,-0.12
2021-08-01 02:06:59.492,-0.045,-0.135
2021-08-01 02:06:59.496,-0.04,-0.135
2021-08-01 02:06:59.500,-0.025,-0.135
2021-08-01 02:06:59.504,-0.04,-0.13
2021-08-01 02:06:59.508,-0.03,-0.135
2021-08-01 02:06:59.512,-0.03,-0.13
2021-08-01 02:06:59.516,-0.035,-0.135
2021-08-01 02:06:59.520,-0.05,-0.14
2021-08-01 02:06:59.524,-0.035,-0.145
2021-08-01 02:06:59.528,-0.03,-0.135
2021-08-01 02:06:59.532,-0.03,-0.115
2021-08-01 02:06:59.536,-0.04,-0.13
2021-08-01 02:06:59.540,-0.035,-0.145
2021-08-01 02:06:59.544,-0.06,-0.14
2021-08-01 02:06:59.548,-0.05,-0.13
2021-08-01 02:06:59.552,-0.03,-0.13
2021-08-01 02:06:59.556,-0.065,-0.15
2021-08-01 02:06:59.560,-0.04,-0.15
2021-08-01 02:06:59.564,-0.04,-0.135
2021-08-01 02:06:59.568,-0.04,-0.115
2021-08-01 02:06:59.572,-0.04,-0.105
2021-08-01 02:06:59.576,-0.055,-0.095
2021-08-01 02:06:59.580,-0.03,-0.085
2021-08-01 02:06:59.584,-0.035,-0.085
2021-08-01 02:06:59.588,-0.04,-0.075
2021-08-01 02:06:59.592,-0.035,-0.075
2021-08-01 02:06:59.596,-0.03,-0.08
2021-08-01 02:06:59.600,-0.025,-0.13
2021-08-01 02:06:59.604,-0.015,-0.14
2021-08-01 02:06:59.608,-0.025,-0.15
2021-08-01 02:06:59.612,-0.065,-0.16
2021-08-01 02:06:59.616,-0.055,-0.19
2021-08-01 02:06:59.620,-0.06,-0.2
2021-08-01 02:06:59.624,-0.095,-0.195
2021-08-01 02:06:59.628,-0.11,-0.185
2021-08-01 02:06:59.632,-0.105,-0.18
2021-08-01 02:06:59.636,-0.1,-0.19
2021-08-01 02:06:59.640,-0.09,-0.195
2021-08-01 02:06:59.644,-0.08,-0.205
2021-08-01 02:06:59.648,-0.075,-0.205
2021-08-01 02:06:59.652,-0.08,-0.195
2021-08-01 02:06:59.656,-0.065,-0.235
2021-08-01 02:06:59.660,-0.06,-0.25
2021-08-01 02:06:59.664,-0.09,-0.245
2021-08-01 02:06:59.668,-0.095,-0.25
2021-08-01 02:06:59.672,-0.105,-0.24
2021-08-01 02:06:59.676,-0.11,-0.27
2021-08-01 02:06:59.680,-0.13,-0.26
2021-08-01 02:06:59.684,-0.105,-0.265
2021-08-01 02:06:59.688,-0.105,-0.25
2021-08-01 02:06:59.692,-0.115,-0.235
2021-08-01 02:06:59.696,-0.12,-0.255
2021-08-01 02:06:59.700,-0.11,-0.245
2021-08-01 02:06:59.704,-0.1,-0.255
2021-08-01 02:06:59.708,-0.125,-0.24
2021-08-01 02:06:59.712,-0.105,-0.215
2021-08-01 02:06:59.716,-0.09,-0.2
2021-08-01 02:06:59.720,-0.09,-0.12
2021-08-01 02:06:59.724,-0.075,0.02
2021-08-01 02:06:59.728,-0.065,0.255
2021-08-01 02:06:59.732,-0.04,0.48
2021-08-01 02:06:59.736,-0.005,0.605
2021-08-01 02:06:59.740,0.07,0.49
2021-08-01 02:06:59.744,0.16,0.23
2021-08-01 02:06:59.748,0.15,-0.12
2021-08-01 02:06:59.752,0.1,-0.54
2021-08-01 02:06:59.756,0.06,-0.935
2021-08-01 02:06:59.760,-0.04,-1.095
2021-08-01 02:06:59.764,-0.225,-1.085
2021-08-01 02:06:59.768,-0.35,-0.96
2021-08-01 02:06:59.772,-0.42,-0.795
2021-08-01 02:06:59.776,-0.41,-0.665
2021-08-01 02:06:59.780,-0.395,-0.55
2021-08-01 02:06:59.784,-0.36,-0.44
2021-08-01 02:06:59.788,-0.255,-0.345
2021-08-01 02:06:59.792,-0.195,-0.295
2021-08-01 02:06:59.796,-0.12,-0.28
2021-08-01 02:06:59.800,-0.095,-0.29
2021-08-01 02:06:59.804,-0.095,-0.28
2021-08-01 02:06:59.808,-0.095,-0.285
2021-08-01 02:06:59.812,-0.105,-0.28
2021-08-01 02:06:59.816,-0.095,-0.28
2021-08-01 02:06:59.820,-0.105,-0.275
2021-08-01 02:06:59.824,-0.08,-0.295
2021-08-01 02:06:59.828,-0.09,-0.275
2021-08-01 02:06:59.832,-0.085,-0.27
2021-08-01 02:06:59.836,-0.105,-0.3
2021-08-01 02:06:59.840,-0.085,-0.3
2021-08-01 02:06:59.844,-0.085,-0.275
2021-08-01 02:06:59.848,-0.09,-0.265
2021-08-01 02:06:59.852,-0.095,-0.26
2021-08-01 02:06:59.856,-0.09,-0.27
2021-08-01 02:06:59.860,-0.095,-0.27
2021-08-01 02:06:59.864,-0.11,-0.27
2021-08-01 02:06:59.868,-0.1,-0.275
2021-08-01 02:06:59.872,-0.11,-0.27
2021-08-01 02:06:59.876,-0.11,-0.28
2021-08-01 02:06:59.880,-0.11,-0.265
2021-08-01 02:06:59.884,-0.1,-0.25
2021-08-01 02:06:59.888,-0.1,-0.25
2021-08-01 02:06:59.892,-0.105,-0.25
2021-08-01 02:06:59.896,-0.1,-0.245
2021-08-01 02:06:59.900,-0.095,-0.23
2021-08-01 02:06:59.904,-0.09,-0.245
2021-08-01 02:06:59.908,-0.085,-0.23
2021-08-01 02:06:59.912,-0.11,-0.23
2021-08-01 02:06:59.916,-0.125,-0.215
2021-08-01 02:06:59.920,-0.09,-0.21
2021-08-01 02:06:59.924,-0.095,-0.195
2021-08-01 02:06:59.928,-0.1,-0.21
2021-08-01 02:06:59.932,-0.1,-0.215
2021-08-01 02:06:59.936,-0.095,-0.21
2021-08-01 02:06:59.940,-0.08,-0.205
2021-08-01 02:06:59.944,-0.09,-0.195
2021-08-01 02:06:59.948,-0.08,-0.195
2021-08-01 02:06:59.952,-0.095,-0.195
2021-08-01 02:06:59.956,-0.08,-0.17
2021-08-01 02:06:59.960,-0.075,-0.165
2021-08-01 02:06:59.964,-0.08,-0.16
2021-08-01 02:06:59.968,-0.085,-0.17
2021-08-01 02:06:59.972,-0.075,-0.175
2021-08-01 02:06:59.976,-0.075,-0.165
2021-08-01 02:06:59.980,-0.075,-0.17
2021-08-01 02:06:59.984,-0.075,-0.16
2021-08-01 02:06:59.988,-0.065,-0.175
2021-08-01 02:06:59.992,-0.08,-0.15
2021-08-01 02:06:59.996,-0.09,-0.16
2021-08-01 02:07:00.000,-0.08,-0.155
2021-08-01 02:07:00.004,-0.065,-0.15
2021-08-01 02:07:00.008,-0.1,-0.13
2021-08-01 02:07:00.012,-0.08,-0.155
2021-08-01 02:07:00.016,-0.075,-0.14
2021-08-01 02:07:00.020,-0.055,-0.125
2021-08-01 02:07:00.024,-0.055,-0.13
2021-08-01 02:07:00.028,-0.055,-0.115
2021-08-01 02:07:00.032,-0.085,-0.095
2021-08-01 02:07:00.036,-0.065,-0.09
2021-08-01 02:07:00.040,-0.04,-0.075
2021-08-01 02:07:00.044,-0.045,-0.065
2021-08-01 02:07:00.048,-0.04,-0.08
2021-08-01 02:07:00.052,-0.035,-0.09
2021-08-01 02:07:00.056,-0.025,-0.09
2021-08-01 02:07:00.060,-0.035,-0.065
2021-08-01 02:07:00.064,-0.03,-0.095
2021-08-01 02:07:00.068,-0.005,-0.095
2021-08-01 02:07:00.072,-0.005,-0.105
2021-08-01 02:07:00.076,-0.035,-0.105
2021-08-01 02:07:00.080,-0.015,-0.12
2021-08-01 02:07:00.084,-0.015,-0.115
2021-08-01 02:07:00.088,-0.02,-0.1
2021-08-01 02:07:00.092,-0.005,-0.1
2021-08-01 02:07:00.096,0.0,-0.125
2021-08-01 02:07:00.100,-0.015,-0.11
2021-08-01 02:07:00.104,-0.01,-0.115
2021-08-01 02:07:00.108,-0.005,-0.09
2021-08-01 02:07:00.112,-0.005,-0.105
2021-08-01 02:07:00.116,-0.01,-0.11
2021-08-01 02:07:00.120,-0.02,-0.115
2021-08-01 02:07:00.124,-0.005,-0.095
2021-08-01 02:07:00.128,-0.005,-0.09
2021-08-01 02:07:00.132,-0.03,-0.095
2021-08-01 02:07:00.136,-0.005,-0.105
2021-08-01 02:07:00.140,-0.01,-0.06
2021-08-01 02:07:00.144,-0.02,-0.085
2021-08-01 02:07:00.148,0.0,-0.095
2021-08-01 02:07:00.152,0.005,-0.095
2021-08-01 02:07:00.156,-0.02,-0.105
2021-08-01 02:07:00.160,-0.015,-0.1
2021-08-01 02:07:00.164,-0.005,-0.1
2021-08-01 02:07:00.168,-0.01,-0.09
2021-08-01 02:07:00.172,-0.03,-0.1
2021-08-01 02:07:00.176,-0.015,-0.1
2021-08-01 02:07:00.180,0.0,-0.09
2021-08-01 02:07:00.184,-0.02,-0.1
2021-08-01 02:07:00.188,-0.01,-0.11
2021-08-01 02:07:00.192,-0.01,-0.125
2021-08-01 02:07:00.196,-0.035,-0.12
2021-08-01 02:07:00.200,-0.015,-0.125
2021-08-01 02:07:00.204,-0.01,-0.11
2021-08-01 02:07:00.208,-0.01,-0.115
2021-08-01 02:07:00.212,-0.015,-0.125
2021-08-01 02:07:00.216,-0.01,-0.135
2021-08-01 02:07:00.220,0.0,-0.125
2021-08-01 02:07:00.224,-0.015,-0.12
2021-08-01 02:07:00.228,-0.03,-0.14
2021-08-01 02:07:00.232,-0.01,-0.155
2021-08-01 02:07:00.236,-0.01,-0.15
2021-08-01 02:07:00.240,-0.025,-0.13
2021-08-01 02:07:00.244,-0.04,-0.12
2021-08-01 02:07:00.248,-0.015,-0.145
2021-08-01 02:07:00.252,-0.025,-0.145
2021-08-01 02:07:00.256,-0.02,-0.14
2021-08-01 02:07:00.260,-0.025,-0.15
2021-08-01 02:07:00.264,-0.02,-0.15
2021-08-01 02:07:00.268,-0.03,-0.145
2021-08-01 02:07:00.272,-0.05,-0.16
2021-08-01 02:07:00.276,-0.02,-0.155
2021-08-01 02:07:00.280,-0.025,-0.15
2021-08-01 02:07:00.284,-0.025,-0.15
2021-08-01 02:07:00.288,-0.035,-0.15
2021-08-01 02:07:00.292,-0.04,-0.155
2021-08-01 02:07:00.296,-0.055,-0.16
2021-08-01 02:07:00.300,-0.04,-0.17
2021-08-01 02:07:00.304,-0.04,-0.15
2021-08-01 02:07:00.308,-0.035,-0.14
2021-08-01 02:07:00.312,-0.025,-0.16
2021-08-01 02:07:00.316,-0.03,-0.14
2021-08-01 02:07:00.320,-0.035,-0.15
2021-08-01 02:07:00.324,-0.04,-0.145
2021-08-01 02:07:00.328,-0.045,-0.155
2021-08-01 02:07:00.332,-0.035,-0.145
2021-08-01 02:07:00.336,-0.02,-0.16
2021-08-01 02:07:00.340,-0.055,-0.14
2021-08-01 02:07:00.344,-0.015,-0.17
2021-08-01 02:07:00.348,-0.04,-0.155
2021-08-01 02:07:00.352,-0.03,-0.16
2021-08-01 02:07:00.356,-0.035,-0.15
2021-08-01 02:07:00.360,-0.02,-0.145
2021-08-01 02:07:00.364,-0.03,-0.145
2021-08-01 02:07:00.368,-0.035,-0.155
2021-08-01 02:07:00.372,-0.02,-0.16
2021-08-01 02:07:00.376,-0.015,-0.155
2021-08-01 02:07:00.380,-0.02,-0.14
2021-08-01 02:07:00.384,-0.01,-0.145
2021-08-01 02:07:00.388,-0.02,-0.165
2021-08-01 02:07:00.392,-0.035,-0.16
2021-08-01 02:07:00.396,-0.035,-0.155
2021-08-01 02:07:00.400,-0.02,-0.155
2021-08-01 02:07:00.404,-0.04,-0.13
2021-08-01 02:07:00.408,-0.03,-0.145
2021-08-01 02:07:00.412,-0.025,-0.15
2021-08-01 02:07:00.416,-0.035,-0.14
2021-08-01 02:07:00.420,-0.04,-0.155
2021-08-01 02:07:00.424,-0.005,-0.15
2021-08-01 02:07:00.428,-0.025,-0.16
2021-08-01 02:07:00.432,-0.02,-0.15
2021-08-01 02:07:00.436,-0.04,-0.15
2021-08-01 02:07:00.440,-0.025,-0.15
2021-08-01 02:07:00.444,-0.055,-0.145
2021-08-01 02:07:00.448,-0.05,-0.16
2021-08-01 02:07:00.452,-0.04,-0.145
2021-08-01 02:07:00.456,-0.03,-0.155
2021-08-01 02:07:00.460,-0.04,-0.145
2021-08-01 02:07:00.464,-0.025,-0.16
2021-08-01 02:07:00.468,-0.035,-0.165
2021-08-01 02:07:00.472,-0.04,-0.15
2021-08-01 02:07:00.476,-0.035,-0.155
2021-08-01 02:07:00.480,-0.025,-0.165
2021-08-01 02:07:00.484,-0.04,-0.16
2021-08-01 02:07:00.488,-0.035,-0.15
2021-08-01 02:07:00.492,-0.035,-0.15
2021-08-01 02:07:00.496,-0.01,-0.14
2021-08-01 02:07:00.500,-0.04,-0.145
2021-08-01 02:07:00.504,-0.03,-0.165
2021-08-01 02:07:00.508,-0.03,-0.16
2021-08-01 02:07:00.512,-0.03,-0.155
2021-08-01 02:07:00.516,-0.025,-0.155
2021-08-01 02:07:00.520,-0.03,-0.15
2021-08-01 02:07:00.524,-0.04,-0.155
2021-08-01 02:07:00.528,-0.035,-0.17
2021-08-01 02:07:00.532,-0.035,-0.155
2021-08-01 02:07:00.536,-0.03,-0.145
2021-08-01 02:07:00.540,-0.035,-0.17
2021-08-01 02:07:00.544,-0.035,-0.17
2021-08-01 02:07:00.548,-0.035,-0.16
2021-08-01 02:07:00.552,-0.04,-0.155
2021-08-01 02:07:00.556,-0.045,-0.16
2021-08-01 02:07:00.560,-0.04,-0.15
2021-08-01 02:07:00.564,-0.04,-0.155
2021-08-01 02:07:00.568,-0.03,-0.155
2021-08-01 02:07:00.572,-0.04,-0.13
2021-08-01 02:07:00.576,-0.04,-0.1
2021-08-01 02:07:00.580,-0.04,-0.08
2021-08-01 02:07:00.584,-0.02,-0.055
2021-08-01 02:07:00.588,-0.025,-0.06
2021-08-01 02:07:00.592,0.0,-0.035
2021-08-01 02:07:00.596,-0.005,-0.035
2021-08-01 02:07:00.600,0.005,-0.03
2021-08-01 02:07:00.604,0.025,-0.01
2021-08-01 02:07:00.608,0.03,-0.035
2021-08-01 02:07:00.612,0.01,-0.095
2021-08-01 02:07:00.616,-0.015,-0.125
2021-08-01 02:07:00.620,-0.05,-0.17
2021-08-01 02:07:00.624,-0.08,-0.205
2021-08-01 02:07:00.628,-0.095,-0.215
2021-08-01 02:07:00.632,-0.1,-0.22
2021-08-01 02:07:00.636,-0.09,-0.18
2021-08-01 02:07:00.640,-0.11,-0.175
2021-08-01 02:07:00.644,-0.09,-0.165
2021-08-01 02:07:00.648,-0.095,-0.165
2021-08-01 02:07:00.652,-0.085,-0.17
2021-08-01 02:07:00.656,-0.085,-0.175
2021-08-01 02:07:00.660,-0.06,-0.185
2021-08-01 02:07:00.664,-0.055,-0.225
2021-08-01 02:07:00.668,-0.045,-0.235
2021-08-01 02:07:00.672,-0.05,-0.255
2021-08-01 02:07:00.676,-0.06,-0.25
2021-08-01 02:07:00.680,-0.07,-0.25
2021-08-01 02:07:00.684,-0.075,-0.275
2021-08-01 02:07:00.688,-0.09,-0.27
2021-08-01 02:07:00.692,-0.08,-0.28
2021-08-01 02:07:00.696,-0.09,-0.27
2021-08-01 02:07:00.700,-0.09,-0.24
2021-08-01 02:07:00.704,-0.085,-0.265
2021-08-01 02:07:00.708,-0.07,-0.28
2021-08-01 02:07:00.712,-0.075,-0.265
2021-08-01 02:07:00.716,-0.085,-0.275
2021-08-01 02:07:00.720,-0.08,-0.265
2021-08-01 02:07:00.724,-0.075,-0.26
2021-08-01 02:07:00.728,-0.08,-0.26
2021-08-01 02:07:00.732,-0.075,-0.24
2021-08-01 02:07:00.736,-0.075,-0.215
2021-08-01 02:07:00.740,-0.05,-0.12
2021-08-01 02:07:00.744,-0.03,0.035
2021-08-01 02:07:00.748,-0.03,0.265
2021-08-01 02:07:00.752,0.0,0.495
2021-08-01 02:07:00.756,0.055,0.645
2021-08-01 02:07:00.760,0.12,0.55
2021-08-01 02:07:00.764,0.2,0.325
2021-08-01 02:07:00.768,0.175,-0.045
2021-08-01 02:07:00.772,0.135,-0.51
2021-08-01 02:07:00.776,0.055,-0.925
2021-08-01 02:07:00.780,-0.06,-1.105
2021-08-01 02:07:00.784,-0.24,-1.115
2021-08-01 02:07:00.788,-0.365,-0.965
2021-08-01 02:07:00.792,-0.415,-0.785
2021-08-01 02:07:00.796,-0.41,-0.625
2021-08-01 02:07:00.800,-0.36,-0.535
2021-08-01 02:07:00.804,-0.32,-0.425
2021-08-01 02:07:00.808,-0.24,-0.32
2021-08-01 02:07:00.812,-0.17,-0.28
2021-08-01 02:07:00.816,-0.09,-0.27
2021-08-01 02:07:00.820,-0.065,-0.275
2021-08-01 02:07:00.824,-0.055,-0.28
2021-08-01 02:07:00.828,-0.05,-0.27
2021-08-01 02:07:00.832,-0.06,-0.28
2021-08-01 02:07:00.836,-0.055,-0.26
2021-08-01 02:07:00.840,-0.075,-0.255
2021-08-01 02:07:00.844,-0.04,-0.27
2021-08-01 02:07:00.848,-0.045,-0.27
2021-08-01 02:07:00.852,-0.055,-0.245
2021-08-01 02:07:00.856,-0.05,-0.255
2021-08-01 02:07:00.860,-0.06,-0.26
2021-08-01 02:07:00.864,-0.04,-0.26
2021-08-01 02:07:00.868,-0.035,-0.26
2021-08-01 02:07:00.872,-0.065,-0.255
2021-08-01 02:07:00.876,-0.055,-0.25
2021-08-01 02:07:00.880,-0.055,-0.245
2021-08-01 02:07:00.884,-0.065,-0.25
2021-08-01 02:07:00.888,-0.055,-0.245
2021-08-01 02:07:00.892,-0.055,-0.24
2021-08-01 02:07:00.896,-0.04,-0.235
2021-08-01 02:07:00.900,-0.06,-0.235
2021-08-01 02:07:00.904,-0.065,-0.24
2021-08-01 02:07:00.908,-0.075,-0.22
2021-08-01 02:07:00.912,-0.065,-0.225
2021-08-01 02:07:00.916,-0.055,-0.23
2021-08-01 02:07:00.920,-0.05,-0.215
2021-08-01 02:07:00.924,-0.055,-0.21
2021-08-01 02:07:00.928,-0.055,-0.2
2021-08-01 02:07:00.932,-0.065,-0.19
2021-08-01 02:07:00.936,-0.07,-0.195
2021-08-01 02:07:00.940,-0.06,-0.195
2021-08-01 02:07:00.944,-0.06,-0.195
2021-08-01 02:07:00.948,-0.05,-0.18
2021-08-01 02:07:00.952,-0.05,-0.175
2021-08-01 02:07:00.956,-0.065,-0.17
2021-08-01 02:07:00.960,-0.065,-0.155
2021-08-01 02:07:00.964,-0.055,-0.15
2021-08-01 02:07:00.968,-0.065,-0.135
2021-08-01 02:07:00.972,-0.065,-0.13
2021-08-01 02:07:00.976,-0.055,-0.125
2021-08-01 02:07:00.980,-0.045,-0.13
2021-08-01 02:07:00.984,-0.04,-0.145
2021-08-01 02:07:00.988,-0.05,-0.14
2021-08-01 02:07:00.992,-0.055,-0.135
2021-08-01 02:07:00.996,-0.045,-0.14
2021-08-01 02:07:01.000,-0.055,-0.125
2021-08-01 02:07:01.004,-0.055,-0.13
2021-08-01 02:07:01.008,-0.06,-0.135
2021-08-01 02:07:01.012,-0.045,-0.115
2021-08-01 02:07:01.016,-0.065,-0.12
2021-08-01 02:07:01.020,-0.06,-0.12
2021-08-01 02:07:01.024,-0.045,-0.125
2021-08-01 02:07:01.028,-0.065,-0.115
2021-08-01 02:07:01.032,-0.04,-0.105
2021-08-01 02:07:01.036,-0.045,-0.095
2021-08-01 02:07:01.040,-0.045,-0.08
2021-08-01 02:07:01.044,-0.04,-0.095
2021-08-01 02:07:01.048,-0.03,-0.08
2021-08-01 02:07:01.052,-0.025,-0.07
2021-08-01 02:07:01.056,-0.025,-0.07
2021-08-01 02:07:01.060,-0.03,-0.095
2021-08-01 02:07:01.064,-0.015,-0.085
2021-08-01 02:07:01.068,-0.035,-0.085
2021-08-01 02:07:01.072,0.0,-0.09
2021-08-01 02:07:01.076,-0.005,-0.115
2021-08-01 02:07:01.080,-0.01,-0.105
2021-08-01 02:07:01.084,-0.015,-0.11
2021-08-01 02:07:01.088,-0.005,-0.11
2021-08-01 02:07:01.092,0.0,-0.105
2021-08-01 02:07:01.096,-0.015,-0.105
2021-08-01 02:07:01.100,-0.005,-0.12
2021-08-01 02:07:01.104,-0.005,-0.12
2021-08-01 02:07:01.108,-0.02,-0.105
2021-08-01 02:07:01.112,-0.01,-0.1
2021-08-01 02:07:01.116,-0.01,-0.115
2021-08-01 02:07:01.120,-0.01,-0.1
2021-08-01 02:07:01.124,-0.015,-0.1
2021-08-01 02:07:01.128,-0.005,-0.105
2021-08-01 02:07:01.132,0.0,-0.09
2021-08-01 02:07:01.136,-0.015,-0.07
2021-08-01 02:07:01.140,-0.015,-0.105
2021-08-01 02:07:01.144,-0.015,-0.09
2021-08-01 02:07:01.148,-0.005,-0.09
2021-08-01 02:07:01.152,0.0,-0.075
2021-08-01 02:07:01.156,0.005,-0.085
2021-08-01 02:07:01.160,0.0,-0.09
2021-08-01 02:07:01.164,0.0,-0.095
2021-08-01 02:07:01.168,-0.01,-0.085
2021-08-01 02:07:01.172,-0.01,-0.08
2021-08-01 02:07:01.176,0.0,-0.075
2021-08-01 02:07:01.180,0.0,-0.08
2021-08-01 02:07:01.184,0.005,-0.085
2021-08-01 02:07:01.188,0.0,-0.08
2021-08-01 02:07:01.192,0.005,-0.08
2021-08-01 02:07:01.196,-0.005,-0.09
2021-08-01 02:07:01.200,-0.005,-0.105
2021-08-01 02:07:01.204,-0.01,-0.1
2021-08-01 02:07:01.208,-0.005,-0.085
2021-08-01 02:07:01.212,-0.005,-0.095
2021-08-01 02:07:01.216,-0.01,-0.11
2021-08-01 02:07:01.220,-0.005,-0.095
2021-08-01 02:07:01.224,0.0,-0.115
2021-08-01 02:07:01.228,0.0,-0.11
2021-08-01 02:07:01.232,-0.01,-0.11
2021-08-01 02:07:01.236,-0.01,-0.115
2021-08-01 02:07:01.240,0.0,-0.125
2021-08-01 02:07:01.244,0.0,-0.13
2021-08-01 02:07:01.248,-0.01,-0.125
2021-08-01 02:07:01.252,-0.02,-0.11
2021-08-01 02:07:01.256,-0.015,-0.125
2021-08-01 02:07:01.260,-0.025,-0.13
2021-08-01 02:07:01.264,-0.025,-0.135
2021-08-01 02:07:01.268,0.01,-0.12
2021-08-01 02:07:01.272,-0.015,-0.12
2021-08-01 02:07:01.276,-0.015,-0.11
2021-08-01 02:07:01.280,-0.02,-0.135
2021-08-01 02:07:01.284,-0.005,-0.14
2021-08-01 02:07:01.288,-0.025,-0.13
2021-08-01 02:07:01.292,-0.02,-0.125
2021-08-01 02:07:01.296,-0.02,-0.125
2021-08-01 02:07:01.300,-0.02,-0.135
2021-08-01 02:07:01.304,-0.035,-0.14
2021-08-01 02:07:01.308,-0.01,-0.13
2021-08-01 02:07:01.312,-0.015,-0.135
2021-08-01 02:07:01.316,-0.03,-0.135
2021-08-01 02:07:01.320,-0.025,-0.135
2021-08-01 02:07:01.324,0.0,-0.135
2021-08-01 02:07:01.328,-0.025,-0.115
2021-08-01 02:07:01.332,-0.02,-0.115
2021-08-01 02:07:01.336,-0.04,-0.125
2021-08-01 02:07:01.340,-0.02,-0.145
2021-08-01 02:07:01.344,-0.025,-0.125
2021-08-01 02:07:01.348,-0.015,-0.115
2021-08-01 02:07:01.352,-0.01,-0.09
2021-08-01 02:07:01.356,-0.015,-0.06
2021-08-01 02:07:01.360,0.0,-0.035
2021-08-01 02:07:01.364,0.0,-0.02
2021-08-01 02:07:01.368,0.015,0.0
2021-08-01 02:07:01.372,0.025,0.01
2021-08-01 02:07:01.376,0.045,0.01
2021-08-01 02:07:01.380,0.065,0.035
2021-08-01 02:07:01.384,0.065,0.045
2021-08-01 02:07:01.388,0.045,0.05
2021-08-01 02:07:01.392,0.04,0.035
2021-08-01 02:07:01.396,0.04,0.0
2021-08-01 02:07:01.400,0.005,-0.065
2021-08-01 02:07:01.404,-0.01,-0.12
2021-08-01 02:07:01.408,-0.03,-0.16
2021-08-01 02:07:01.412,-0.045,-0.16
2021-08-01 02:07:01.416,-0.075,-0.165
2021-08-01 02:07:01.420,-0.06,-0.155
2021-08-01 02:07:01.424,-0.065,-0.13
2021-08-01 02:07:01.428,-0.07,-0.12
2021-08-01 02:07:01.432,-0.05,-0.135
2021-08-01 02:07:01.436,-0.035,-0.15
2021-08-01 02:07:01.440,-0.02,-0.195
2021-08-01 02:07:01.444,-0.035,-0.2
2021-08-01 02:07:01.448,-0.04,-0.21
2021-08-01 02:07:01.452,-0.05,-0.225
2021-08-01 02:07:01.456,-0.04,-0.24
2021-08-01 02:07:01.460,-0.055,-0.245
2021-08-01 02:07:01.464,-0.065,-0.245
2021-08-01 02:07:01.468,-0.075,-0.235
2021-08-01 02:07:01.472,-0.06,-0.24
2021-08-01 02:07:01.476,-0.055,-0.25
2021-08-01 02:07:01.480,-0.065,-0.25
2021-08-01 02:07:01.484,-0.07,-0.25
2021-08-01 02:07:01.488,-0.065,-0.255
2021-08-01 02:07:01.492,-0.075,-0.25
2021-08-01 02:07:01.496,-0.08,-0.25
2021-08-01 02:07:01.500,-0.065,-0.24
2021-08-01 02:07:01.504,-0.055,-0.25
2021-08-01 02:07:01.508,-0.055,-0.245
2021-08-01 02:07:01.512,-0.065,-0.24
2021-08-01 02:07:01.516,-0.07,-0.24
2021-08-01 02:07:01.520,-0.07,-0.235
2021-08-01 02:07:01.524,-0.06,-0.19
2021-08-01 02:07:01.528,-0.05,-0.08
2021-08-01 02:07:01.532,-0.045,0.115
2021-08-01 02:07:01.536,-0.02,0.345
2021-08-01 02:07:01.540,0.02,0.545
2021-08-01 02:07:01.544,0.075,0.62
2021-08-01 02:07:01.548,0.145,0.495
2021-08-01 02:07:01.552,0.195,0.175
2021-08-01 02:07:01.556,0.195,-0.26
2021-08-01 02:07:01.560,0.14,-0.76
2021-08-01 02:07:01.564,0.095,-1.07
2021-08-01 02:07:01.568,-0.04,-1.16
2021-08-01 02:07:01.572,-0.2,-1.11
2021-08-01 02:07:01.576,-0.31,-0.955
2021-08-01 02:07:01.580,-0.37,-0.8
2021-08-01 02:07:01.584,-0.385,-0.655
2021-08-01 02:07:01.588,-0.345,-0.54
2021-08-01 02:07:01.592,-0.295,-0.425
2021-08-01 02:07:01.596,-0.225,-0.315
2021-08-01 02:07:01.600,-0.175,-0.28
2021-08-01 02:07:01.604,-0.11,-0.28
2021-08-01 02:07:01.608,-0.08,-0.26
2021-08-01 02:07:01.612,-0.08,-0.255
2021-08-01 02:07:01.616,-0.07,-0.265
2021-08-01 02:07:01.620,-0.065,-0.26
2021-08-01 02:07:01.624,-0.065,-0.275
2021-08-01 02:07:01.628,-0.07,-0.27
2021-08-01 02:07:01.632,-0.065,-0.27
2021-08-01 02:07:01.636,-0.07,-0.27
2021-08-01 02:07:01.640,-0.075,-0.27
2021-08-01 02:07:01.644,-0.08,-0.255
2021-08-01 02:07:01.648,-0.075,-0.26
2021-08-01 02:07:01.652,-0.065,-0.27
2021-08-01 02:07:01.656,-0.065,-0.275
2021-08-01 02:07:01.660,-0.075,-0.26
2021-08-01 02:07:01.664,-0.065,-0.26
2021-08-01 02:07:01.668,-0.075,-0.255
2021-08-01 02:07:01.672,-0.08,-0.27
2021-08-01 02:07:01.676,-0.08,-0.27
2021-08-01 02:07:01.680,-0.09,-0.26
2021-08-01 02:07:01.684,-0.085,-0.265
2021-08-01 02:07:01.688,-0.08,-0.245
2021-08-01 02:07:01.692,-0.095,-0.235
2021-08-01 02:07:01.696,-0.08,-0.255
2021-08-01 02:07:01.700,-0.08,-0.255
2021-08-01 02:07:01.704,-0.07,-0.245
2021-08-01 02:07:01.708,-0.095,-0.225
2021-08-01 02:07:01.712,-0.09,-0.235
2021-08-01 02:07:01.716,-0.08,-0.235
2021-08-01 02:07:01.720,-0.095,-0.23
2021-08-01 02:07:01.724,-0.1,-0.225
2021-08-01 02:07:01.728,-0.075,-0.215
2021-08-01 02:07:01.732,-0.075,-0.2
2021-08-01 02:07:01.736,-0.09,-0.2
2021-08-01 02:07:01.740,-0.07,-0.2
2021-08-01 02:07:01.744,-0.06,-0.18
2021-08-01 02:07:01.748,-0.085,-0.16
2021-08-01 02:07:01.752,-0.09,-0.155
2021-08-01 02:07:01.756,-0.095,-0.15
2021-08-01 02:07:01.760,-0.085,-0.16
2021-08-01 02:07:01.764,-0.09,-0.16
2021-08-01 02:07:01.768,-0.085,-0.14
2021-08-01 02:07:01.772,-0.07,-0.145
2021-08-01 02:07:01.776,-0.05,-0.145
2021-08-01 02:07:01.780,-0.06,-0.15
2021-08-01 02:07:01.784,-0.06,-0.135
2021-08-01 02:07:01.788,-0.065,-0.135
2021-08-01 02:07:01.792,-0.05,-0.12
2021-08-01 02:07:01.796,-0.065,-0.135
2021-08-01 02:07:01.800,-0.05,-0.125
2021-08-01 02:07:01.804,-0.055,-0.11
2021-08-01 02:07:01.808,-0.06,-0.105
2021-08-01 02:07:01.812,-0.04,-0.1
2021-08-01 02:07:01.816,-0.045,-0.105
2021-08-01 02:07:01.820,-0.05,-0.1
2021-08-01 02:07:01.824,-0.05,-0.08
2021-08-01 02:07:01.828,-0.03,-0.105
2021-08-01 02:07:01.832,-0.03,-0.095
2021-08-01 02:07:01.836,-0.035,-0.115
2021-08-01 02:07:01.840,-0.015,-0.12
2021-08-01 02:07:01.844,-0.03,-0.11
2021-08-01 02:07:01.848,-0.035,-0.12
2021-08-01 02:07:01.852,-0.025,-0.135
2021-08-01 02:07:01.856,-0.02,-0.14
2021-08-01 02:07:01.860,-0.03,-0.14
2021-08-01 02:07:01.864,-0.02,-0.15
2021-08-01 02:07:01.868,-0.01,-0.155
2021-08-01 02:07:01.872,-0.015,-0.15
2021-08-01 02:07:01.876,-0.005,-0.155
2021-08-01 02:07:01.880,-0.03,-0.165
2021-08-01 02:07:01.884,-0.015,-0.17
2021-08-01 02:07:01.888,-0.03,-0.155
2021-08-01 02:07:01.892,-0.025,-0.165
2021-08-01 02:07:01.896,-0.005,-0.155
2021-08-01 02:07:01.900,-0.02,-0.145
2021-08-01 02:07:01.904,-0.015,-0.145
2021-08-01 02:07:01.908,-0.025,-0.14
2021-08-01 02:07:01.912,-0.02,-0.14
2021-08-01 02:07:01.916,-0.02,-0.15
2021-08-01 02:07:01.920,-0.03,-0.14
2021-08-01 02:07:01.924,-0.035,-0.14
2021-08-01 02:07:01.928,-0.03,-0.135
2021-08-01 02:07:01.932,0.005,-0.145
2021-08-01 02:07:01.936,-0.02,-0.13
2021-08-01 02:07:01.940,-0.03,-0.12
2021-08-01 02:07:01.944,-0.015,-0.11
2021-08-01 02:07:01.948,-0.015,-0.13
2021-08-01 02:07:01.952,-0.015,-0.14
2021-08-01 02:07:01.956,-0.025,-0.13
2021-08-01 02:07:01.960,-0.01,-0.13
2021-08-01 02:07:01.964,-0.015,-0.12
2021-08-01 02:07:01.968,-0.02,-0.125
2021-08-01 02:07:01.972,-0.025,-0.145
2021-08-01 02:07:01.976,-0.035,-0.13
2021-08-01 02:07:01.980,-0.015,-0.14
2021-08-01 02:07:01.984,-0.025,-0.12
2021-08-01 02:07:01.988,-0.015,-0.125
2021-08-01 02:07:01.992,-0.01,-0.14
2021-08-01 02:07:01.996,-0.025,-0.16
2021-08-01 02:07:02.000,-0.025,-0.14
2021-08-01 02:07:02.004,-0.015,-0.13
2021-08-01 02:07:02.008,-0.02,-0.13
2021-08-01 02:07:02.012,-0.02,-0.145
2021-08-01 02:07:02.016,0.0,-0.155
2021-08-01 02:07:02.020,-0.01,-0.15
2021-08-01 02:07:02.024,-0.005,-0.145
2021-08-01 02:07:02.028,0.0,-0.17
2021-08-01 02:07:02.032,-0.02,-0.16
2021-08-01 02:07:02.036,-0.03,-0.155
2021-08-01 02:07:02.040,-0.015,-0.145
2021-08-01 02:07:02.044,-0.015,-0.16
2021-08-01 02:07:02.048,-0.01,-0.15
2021-08-01 02:07:02.052,-0.02,-0.16
2021-08-01 02:07:02.056,0.0,-0.16
2021-08-01 02:07:02.060,-0.015,-0.14
2021-08-01 02:07:02.064,-0.005,-0.145
2021-08-01 02:07:02.068,0.0,-0.145
2021-08-01 02:07:02.072,-0.015,-0.155
2021-08-01 02:07:02.076,-0.01,-0.155
2021-08-01 02:07:02.080,-0.01,-0.14
2021-08-01 02:07:02.084,-0.02,-0.105
2021-08-01 02:07:02.088,-0.005,-0.07
2021-08-01 02:07:02.092,0.0,-0.055
2021-08-01 02:07:02.096,0.0,-0.02
2021-08-01 02:07:02.100,0.035,0.01
2021-08-01 02:07:02.104,0.05,0.03
2021-08-01 02:07:02.108,0.06,0.01
2021-08-01 02:07:02.112,0.075,0.025
2021-08-01 02:07:02.116,0.07,0.05
2021-08-01 02:07:02.120,0.065,0.025
2021-08-01 02:07:02.124,0.04,0.03
2021-08-01 02:07:02.128,0.055,-0.005
2021-08-01 02:07:02.132,0.055,-0.06
2021-08-01 02:07:02.136,0.03,-0.12
2021-08-01 02:07:02.140,0.01,-0.165
2021-08-01 02:07:02.144,-0.015,-0.17
2021-08-01 02:07:02.148,-0.035,-0.17
2021-08-01 02:07:02.152,-0.045,-0.15
2021-08-01 02:07:02.156,-0.055,-0.125
2021-08-01 02:07:02.160,-0.04,-0.125
2021-08-01 02:07:02.164,-0.015,-0.145
2021-08-01 02:07:02.168,-0.025,-0.155
2021-08-01 02:07:02.172,0.02,-0.18
2021-08-01 02:07:02.176,0.0,-0.185
2021-08-01 02:07:02.180,0.0,-0.215
2021-08-01 02:07:02.184,0.01,-0.22
2021-08-01 02:07:02.188,-0.01,-0.23
2021-08-01 02:07:02.192,-0.01,-0.255
2021-08-01 02:07:02.196,-0.01,-0.235
2021-08-01 02:07:02.200,-0.04,-0.21
2021-08-01 02:07:02.204,-0.03,-0.235
2021-08-01 02:07:02.208,-0.02,-0.235
2021-08-01 02:07:02.212,-0.025,-0.255
2021-08-01 02:07:02.216,-0.03,-0.24
2021-08-01 02:07:02.220,-0.02,-0.235
2021-08-01 02:07:02.224,-0.03,-0.24
2021-08-01 02:07:02.228,-0.02,-0.24
2021-08-01 02:07:02.232,-0.035,-0.255
2021-08-01 02:07:02.236,-0.03,-0.235
2021-08-01 02:07:02.240,-0.04,-0.235
2021-08-01 02:07:02.244,-0.03,-0.24
2021-08-01 02:07:02.248,-0.01,-0.22
2021-08-01 02:07:02.252,-0.02,-0.23
2021-08-01 02:07:02.256,-0.015,-0.21
2021-08-01 02:07:02.260,-0.01,-0.145
2021-08-01 02:07:02.264,0.015,0.0
2021-08-01 02:07:02.268,0.03,0.235
2021-08-01 02:07:02.272,0.035,0.485
2021-08-01 02:07:02.276,0.09,0.65
2021-08-01 02:07:02.280,0.15,0.62
2021-08-01 02:07:02.284,0.235,0.385
2021-08-01 02:07:02.288,0.24,-0.015
2021-08-01 02:07:02.292,0.215,-0.57
2021-08-01 02:07:02.296,0.15,-0.96
2021-08-01 02:07:02.300,0.035,-1.115
2021-08-01 02:07:02.304,-0.125,-1.1
2021-08-01 02:07:02.308,-0.245,-0.935
2021-08-01 02:07:02.312,-0.315,-0.785
2021-08-01 02:07:02.316,-0.31,-0.66
2021-08-01 02:07:02.320,-0.295,-0.525
2021-08-01 02:07:02.324,-0.265,-0.42
2021-08-01 02:07:02.328,-0.205,-0.325
2021-08-01 02:07:02.332,-0.12,-0.26
2021-08-01 02:07:02.336,-0.065,-0.225
2021-08-01 02:07:02.340,-0.025,-0.24
2021-08-01 02:07:02.344,0.0,-0.24
2021-08-01 02:07:02.348,-0.01,-0.24
2021-08-01 02:07:02.352,-0.025,-0.245
2021-08-01 02:07:02.356,-0.01,-0.23
2021-08-01 02:07:02.360,-0.005,-0.225
2021-08-01 02:07:02.364,-0.01,-0.22
2021-08-01 02:07:02.368,-0.025,-0.225
2021-08-01 02:07:02.372,-0.01,-0.23
2021-08-01 02:07:02.376,-0.015,-0.215
2021-08-01 02:07:02.380,-0.005,-0.205
2021-08-01 02:07:02.384,-0.015,-0.205
2021-08-01 02:07:02.388,0.0,-0.23
2021-08-01 02:07:02.392,-0.01,-0.215
2021-08-01 02:07:02.396,-0.02,-0.22
2021-08-01 02:07:02.400,-0.01,-0.2
2021-08-01 02:07:02.404,-0.025,-0.205
2021-08-01 02:07:02.408,-0.03,-0.21
2021-08-01 02:07:02.412,-0.005,-0.22
2021-08-01 02:07:02.416,-0.01,-0.195
2021-08-01 02:07:02.420,-0.02,-0.195
2021-08-01 02:07:02.424,-0.035,-0.19
2021-08-01 02:07:02.428,-0.025,-0.185
2021-08-01 02:07:02.432,-0.035,-0.205
2021-08-01 02:07:02.436,-0.01,-0.195
2021-08-01 02:07:02.440,-0.025,-0.185
2021-08-01 02:07:02.444,-0.03,-0.165
2021-08-01 02:07:02.448,-0.03,-0.165
2021-08-01 02:07:02.452,-0.01,-0.16
2021-08-01 02:07:02.456,-0.015,-0.16
2021-08-01 02:07:02.460,-0.025,-0.13
2021-08-01 02:07:02.464,-0.025,-0.12
2021-08-01 02:07:02.468,-0.015,-0.12
2021-08-01 02:07:02.472,-0.035,-0.11
2021-08-01 02:07:02.476,-0.015,-0.08
2021-08-01 02:07:02.480,-0.015,-0.095
2021-08-01 02:07:02.484,-0.015,-0.08
2021-08-01 02:07:02.488,-0.01,-0.08
2021-08-01 02:07:02.492,-0.015,-0.085
2021-08-01 02:07:02.496,-0.03,-0.07
2021-08-01 02:07:02.500,-0.015,-0.06
2021-08-01 02:07:02.504,-0.015,-0.065
2021-08-01 02:07:02.508,0.0,-0.06
2021-08-01 02:07:02.512,-0.015,-0.05
2021-08-01 02:07:02.516,-0.005,-0.04
2021-08-01 02:07:02.520,0.0,-0.03
2021-08-01 02:07:02.524,-0.005,-0.035
2021-08-01 02:07:02.528,0.005,-0.05
2021-08-01 02:07:02.532,0.0,-0.06
2021-08-01 02:07:02.536,0.005,-0.035
2021-08-01 02:07:02.540,-0.005,-0.03
2021-08-01 02:07:02.544,0.005,-0.015
2021-08-01 02:07:02.548,0.005,-0.04
2021-08-01 02:07:02.552,0.0,-0.035
2021-08-01 02:07:02.556,0.015,-0.025
2021-08-01 02:07:02.560,0.01,-0.025
2021-08-01 02:07:02.564,0.02,-0.025
2021-08-01 02:07:02.568,0.02,-0.04
2021-08-01 02:07:02.572,0.02,-0.06
2021-08-01 02:07:02.576,0.04,-0.05
2021-08-01 02:07:02.580,0.015,-0.06
2021-08-01 02:07:02.584,0.02,-0.075
2021-08-01 02:07:02.588,0.025,-0.08
2021-08-01 02:07:02.592,0.005,-0.08
2021-08-01 02:07:02.596,0.035,-0.08
2021-08-01 02:07:02.600,0.035,-0.09
2021-08-01 02:07:02.604,0.04,-0.085
2021-08-01 02:07:02.608,0.005,-0.1
2021-08-01 02:07:02.612,0.015,-0.12
2021-08-01 02:07:02.616,0.015,-0.13
2021-08-01 02:07:02.620,0.015,-0.095
2021-08-01 02:07:02.624,0.005,-0.115
2021-08-01 02:07:02.628,0.005,-0.11
2021-08-01 02:07:02.632,0.01,-0.105
2021-08-01 02:07:02.636,0.02,-0.085
2021-08-01 02:07:02.640,0.02,-0.08
2021-08-01 02:07:02.644,0.005,-0.095
2021-08-01 02:07:02.648,0.025,-0.095
2021-08-01 02:07:02.652,0.0,-0.095
2021-08-01 02:07:02.656,0.015,-0.09
2021-08-01 02:07:02.660,0.015,-0.08
2021-08-01 02:07:02.664,0.0,-0.08
2021-08-01 02:07:02.668,0.0,-0.08
2021-08-01 02:07:02.672,0.015,-0.075
2021-08-01 02:07:02.676,0.01,-0.07
2021-08-01 02:07:02.680,0.025,-0.075
2021-08-01 02:07:02.684,0.035,-0.08
2021-08-01 02:07:02.688,0.01,-0.09
2021-08-01 02:07:02.692,0.0,-0.09
2021-08-01 02:07:02.696,0.005,-0.085
2021-08-01 02:07:02.700,0.015,-0.09
2021-08-01 02:07:02.704,0.005,-0.08
2021-08-01 02:07:02.708,0.025,-0.09
2021-08-01 02:07:02.712,0.005,-0.095
2021-08-01 02:07:02.716,-0.01,-0.075
2021-08-01 02:07:02.720,0.005,-0.085
2021-08-01 02:07:02.724,0.01,-0.09
2021-08-01 02:07:02.728,-0.005,-0.09
2021-08-01 02:07:02.732,0.0,-0.12
2021-08-01 02:07:02.736,0.005,-0.115
2021-08-01 02:07:02.740,0.0,-0.11
2021-08-01 02:07:02.744,-0.005,-0.11
2021-08-01 02:07:02.748,-0.015,-0.125
2021-08-01 02:07:02.752,0.005,-0.13
2021-08-01 02:07:02.756,0.0,-0.115
2021-08-01 02:07:02.760,-0.01,-0.12
2021-08-01 02:07:02.764,0.0,-0.125
2021-08-01 02:07:02.768,-0.005,-0.125
2021-08-01 02:07:02.772,-0.01,-0.125
2021-08-01 02:07:02.776,-0.03,-0.135
2021-08-01 02:07:02.780,-0.01,-0.13
2021-08-01 02:07:02.784,-0.01,-0.12
2021-08-01 02:07:02.788,-0.01,-0.125
2021-08-01 02:07:02.792,0.0,-0.13
2021-08-01 02:07:02.796,-0.01,-0.11
2021-08-01 02:07:02.800,0.005,-0.095
2021-08-01 02:07:02.804,0.0,-0.07
2021-08-01 02:07:02.808,0.015,-0.03
2021-08-01 02:07:02.812,0.02,0.0
2021-08-01 02:07:02.816,0.03,0.025
2021-08-01 02:07:02.820,0.05,0.035
2021-08-01 02:07:02.824,0.07,0.03
2021-08-01 02:07:02.828,0.065,0.03
2021-08-01 02:07:02.832,0.09,0.04
2021-08-01 02:07:02.836,0.065,0.035
2021-08-01 02:07:02.840,0.065,0.045
2021-08-01 02:07:02.844,0.05,0.0
2021-08-01 02:07:02.848,0.05,-0.055
2021-08-01 02:07:02.852,0.005,-0.11
2021-08-01 02:07:02.856,-0.01,-0.165
2021-08-01 02:07:02.860,-0.035,-0.18
2021-08-01 02:07:02.864,-0.03,-0.17
2021-08-01 02:07:02.868,-0.065,-0.14
2021-08-01 02:07:02.872,-0.065,-0.11
2021-08-01 02:07:02.876,-0.04,-0.125
2021-08-01 02:07:02.880,-0.02,-0.12
2021-08-01 02:07:02.884,0.0,-0.145
2021-08-01 02:07:02.888,0.005,-0.175
2021-08-01 02:07:02.892,0.005,-0.185
2021-08-01 02:07:02.896,0.0,-0.19
2021-08-01 02:07:02.900,-0.02,-0.225
2021-08-01 02:07:02.904,0.0,-0.225
2021-08-01 02:07:02.908,-0.02,-0.24
2021-08-01 02:07:02.912,-0.005,-0.25
2021-08-01 02:07:02.916,-0.01,-0.255
2021-08-01 02:07:02.920,-0.01,-0.235
2021-08-01 02:07:02.924,-0.035,-0.235
2021-08-01 02:07:02.928,-0.035,-0.24
2021-08-01 02:07:02.932,-0.03,-0.225
2021-08-01 02:07:02.936,-0.035,-0.23
2021-08-01 02:07:02.940,-0.02,-0.235
2021-08-01 02:07:02.944,-0.03,-0.255
2021-08-01 02:07:02.948,-0.02,-0.245
2021-08-01 02:07:02.952,-0.015,-0.24
2021-08-01 02:07:02.956,-0.015,-0.23
2021-08-01 02:07:02.960,-0.01,-0.23
2021-08-01 02:07:02.964,-0.035,-0.225
2021-08-01 02:07:02.968,-0.015,-0.22
2021-08-01 02:07:02.972,-0.015,-0.16
2021-08-01 02:07:02.976,0.0,-0.025
2021-08-01 02:07:02.980,0.025,0.185
2021-08-01 02:07:02.984,0.05,0.435
2021-08-01 02:07:02.988,0.095,0.63
2021-08-01 02:07:02.992,0.14,0.66
2021-08-01 02:07:02.996,0.21,0.505
2021-08-01 02:07:03.000,0.26,0.2
2021-08-01 02:07:03.004,0.22,-0.24
2021-08-01 02:07:03.008,0.135,-0.77
2021-08-01 02:07:03.012,0.025,-1.055
2021-08-01 02:07:03.016,-0.15,-1.14
2021-08-01 02:07:03.020,-0.32,-1.07
2021-08-01 02:07:03.024,-0.4,-0.885
2021-08-01 02:07:03.028,-0.4,-0.7
2021-08-01 02:07:03.032,-0.36,-0.555
2021-08-01 02:07:03.036,-0.3,-0.43
2021-08-01 02:07:03.040,-0.225,-0.305
2021-08-01 02:07:03.044,-0.16,-0.265
2021-08-01 02:07:03.048,-0.06,-0.26
2021-08-01 02:07:03.052,-0.035,-0.245
2021-08-01 02:07:03.056,-0.015,-0.23
2021-08-01 02:07:03.060,0.0,-0.245
2021-08-01 02:07:03.064,-0.005,-0.245
2021-08-01 02:07:03.068,-0.01,-0.235
2021-08-01 02:07:03.072,-0.005,-0.22
2021-08-01 02:07:03.076,0.0,-0.22
2021-08-01 02:07:03.080,0.0,-0.235
2021-08-01 02:07:03.084,0.0,-0.23
2021-08-01 02:07:03.088,0.0,-0.24
2021-08-01 02:07:03.092,0.0,-0.235
2021-08-01 02:07:03.096,-0.005,-0.22
2021-08-01 02:07:03.100,0.005,-0.225
2021-08-01 02:07:03.104,0.0,-0.22
2021-08-01 02:07:03.108,-0.01,-0.22
2021-08-01 02:07:03.112,0.005,-0.21
2021-08-01 02:07:03.116,-0.005,-0.205
2021-08-01 02:07:03.120,0.005,-0.2
2021-08-01 02:07:03.124,0.005,-0.205
2021-08-01 02:07:03.128,0.01,-0.215
2021-08-01 02:07:03.132,0.015,-0.21
2021-08-01 02:07:03.136,0.005,-0.185
2021-08-01 02:07:03.140,0.015,-0.19
2021-08-01 02:07:03.144,0.03,-0.185
2021-08-01 02:07:03.148,0.015,-0.175
2021-08-01 02:07:03.152,0.01,-0.16
2021-08-01 02:07:03.156,0.01,-0.175
2021-08-01 02:07:03.160,0.02,-0.155
2021-08-01 02:07:03.164,0.0,-0.155
2021-08-01 02:07:03.168,0.015,-0.16
2021-08-01 02:07:03.172,0.02,-0.14
2021-08-01 02:07:03.176,0.025,-0.115
2021-08-01 02:07:03.180,0.02,-0.105
2021-08-01 02:07:03.184,0.01,-0.105
2021-08-01 02:07:03.188,0.025,-0.09
2021-08-01 02:07:03.192,0.02,-0.075
2021-08-01 02:07:03.196,0.025,-0.075
2021-08-01 02:07:03.200,0.025,-0.06
2021-08-01 02:07:03.204,0.035,-0.04
2021-08-01 02:07:03.208,0.015,-0.03
2021-08-01 02:07:03.212,0.025,-0.045
2021-08-01 02:07:03.216,0.04,-0.035
2021-08-01 02:07:03.220,0.025,-0.02
2021-08-01 02:07:03.224,0.03,-0.025
2021-08-01 02:07:03.228,0.01,-0.02
2021-08-01 02:07:03.232,0.03,-0.01
2021-08-01 02:07:03.236,0.02,0.005
2021-08-01 02:07:03.240,0.055,-0.005
2021-08-01 02:07:03.244,0.04,0.0
2021-08-01 02:07:03.248,0.05,0.005
2021-08-01 02:07:03.252,0.035,0.005
2021-08-01 02:07:03.256,0.055,0.005
2021-08-01 02:07:03.260,0.04,0.0
2021-08-01 02:07:03.264,0.05,0.0
2021-08-01 02:07:03.268,0.055,-0.005
2021-08-01 02:07:03.272,0.06,0.0
2021-08-01 02:07:03.276,0.06,0.015
2021-08-01 02:07:03.280,0.055,-0.015
2021-08-01 02:07:03.284,0.065,-0.035
2021-08-01 02:07:03.288,0.06,-0.045
2021-08-01 02:07:03.292,0.065,-0.06
2021-08-01 02:07:03.296,0.07,-0.05
2021-08-01 02:07:03.300,0.05,-0.07
2021-08-01 02:07:03.304,0.06,-0.075
2021-08-01 02:07:03.308,0.055,-0.095
2021-08-01 02:07:03.312,0.055,-0.08
2021-08-01 02:07:03.316,0.05,-0.08
2021-08-01 02:07:03.320,0.06,-0.08
2021-08-01 02:07:03.324,0.05,-0.1
2021-08-01 02:07:03.328,0.055,-0.1
2021-08-01 02:07:03.332,0.05,-0.09
2021-08-01 02:07:03.336,0.045,-0.095
2021-08-01 02:07:03.340,0.05,-0.12
2021-08-01 02:07:03.344,0.045,-0.095
2021-08-01 02:07:03.348,0.05,-0.09
2021-08-01 02:07:03.352,0.065,-0.09
2021-08-01 02:07:03.356,0.06,-0.07
2021-08-01 02:07:03.360,0.065,-0.075
2021-08-01 02:07:03.364,0.075,-0.08
2021-08-01 02:07:03.368,0.08,-0.08
2021-08-01 02:07:03.372,0.065,-0.07
2021-08-01 02:07:03.376,0.065,-0.085
2021-08-01 02:07:03.380,0.07,-0.095
2021-08-01 02:07:03.384,0.05,-0.08
2021-08-01 02:07:03.388,0.065,-0.09
2021-08-01 02:07:03.392,0.07,-0.08
2021-08-01 02:07:03.396,0.08,-0.08
2021-08-01 02:07:03.400,0.075,-0.075
2021-08-01 02:07:03.404,0.08,-0.095
2021-08-01 02:07:03.408,0.075,-0.08
2021-08-01 02:07:03.412,0.07,-0.08
2021-08-01 02:07:03.416,0.075,-0.075
2021-08-01 02:07:03.420,0.085,-0.095
2021-08-01 02:07:03.424,0.07,-0.095
2021-08-01 02:07:03.428,0.06,-0.09
2021-08-01 02:07:03.432,0.065,-0.075
2021-08-01 02:07:03.436,0.05,-0.075
2021-08-01 02:07:03.440,0.075,-0.085
2021-08-01 02:07:03.444,0.055,-0.1
2021-08-01 02:07:03.448,0.06,-0.11
2021-08-01 02:07:03.452,0.04,-0.105
2021-08-01 02:07:03.456,0.045,-0.1
2021-08-01 02:07:03.460,0.06,-0.1
2021-08-01 02:07:03.464,0.065,-0.1
2021-08-01 02:07:03.468,0.05,-0.1
2021-08-01 02:07:03.472,0.045,-0.105
2021-08-01 02:07:03.476,0.04,-0.105
2021-08-01 02:07:03.480,0.055,-0.105
2021-08-01 02:07:03.484,0.03,-0.11
2021-08-01 02:07:03.488,0.055,-0.115
2021-08-01 02:07:03.492,0.035,-0.105
2021-08-01 02:07:03.496,0.045,-0.1
2021-08-01 02:07:03.500,0.035,-0.105
2021-08-01 02:07:03.504,0.025,-0.085
2021-08-01 02:07:03.508,0.02,-0.08
2021-08-01 02:07:03.512,0.035,-0.045
2021-08-01 02:07:03.516,0.035,-0.005
2021-08-01 02:07:03.520,0.05,0.0
2021-08-01 02:07:03.524,0.065,0.04
2021-08-01 02:07:03.528,0.07,0.05
2021-08-01 02:07:03.532,0.09,0.06
2021-08-01 02:07:03.536,0.095,0.065
2021-08-01 02:07:03.540,0.115,0.06
2021-08-01 02:07:03.544,0.105,0.07
2021-08-01 02:07:03.548,0.11,0.05
2021-08-01 02:07:03.552,0.075,0.015
2021-08-01 02:07:03.556,0.07,-0.01
2021-08-01 02:07:03.560,0.055,-0.07
2021-08-01 02:07:03.564,0.025,-0.135
2021-08-01 02:07:03.568,0.005,-0.15
2021-08-01 02:07:03.572,-0.005,-0.145
2021-08-01 02:07:03.576,-0.02,-0.125
2021-08-01 02:07:03.580,-0.01,-0.115
2021-08-01 02:07:03.584,-0.01,-0.105
2021-08-01 02:07:03.588,-0.005,-0.125
2021-08-01 02:07:03.592,0.02,-0.135
2021-08-01 02:07:03.596,0.02,-0.17
2021-08-01 02:07:03.600,0.03,-0.16
2021-08-01 02:07:03.604,0.02,-0.19
2021-08-01 02:07:03.608,0.01,-0.2
2021-08-01 02:07:03.612,0.0,-0.21
2021-08-01 02:07:03.616,0.015,-0.245
2021-08-01 02:07:03.620,0.015,-0.25
2021-08-01 02:07:03.624,0.01,-0.245
2021-08-01 02:07:03.628,-0.03,-0.235
2021-08-01 02:07:03.632,-0.01,-0.235
2021-08-01 02:07:03.636,-0.015,-0.235
2021-08-01 02:07:03.640,-0.01,-0.225
2021-08-01 02:07:03.644,-0.005,-0.215
2021-08-01 02:07:03.648,-0.01,-0.23
2021-08-01 02:07:03.652,0.0,-0.245
2021-08-01 02:07:03.656,0.0,-0.245
2021-08-01 02:07:03.660,-0.005,-0.25
2021-08-01 02:07:03.664,-0.02,-0.24
2021-08-01 02:07:03.668,-0.015,-0.24
2021-08-01 02:07:03.672,-0.015,-0.24
2021-08-01 02:07:03.676,-0.01,-0.225
2021-08-01 02:07:03.680,-0.01,-0.205
2021-08-01 02:07:03.684,0.0,-0.12
2021-08-01 02:07:03.688,0.0,0.035
2021-08-01 02:07:03.692,0.015,0.275
2021-08-01 02:07:03.696,0.035,0.5
2021-08-01 02:07:03.700,0.09,0.595
2021-08-01 02:07:03.704,0.17,0.49
2021-08-01 02:07:03.708,0.235,0.23
2021-08-01 02:07:03.712,0.23,-0.225
2021-08-01 02:07:03.716,0.19,-0.74
2021-08-01 02:07:03.720,0.15,-1.06
2021-08-01 02:07:03.724,0.025,-1.18
2021-08-01 02:07:03.728,-0.135,-1.13
2021-08-01 02:07:03.732,-0.27,-0.975
2021-08-01 02:07:03.736,-0.335,-0.79
2021-08-01 02:07:03.740,-0.33,-0.655
2021-08-01 02:07:03.744,-0.305,-0.555
2021-08-01 02:07:03.748,-0.265,-0.42
2021-08-01 02:07:03.752,-0.19,-0.32
2021-08-01 02:07:03.756,-0.12,-0.3
2021-08-01 02:07:03.760,-0.065,-0.26
2021-08-01 02:07:03.764,-0.035,-0.26
2021-08-01 02:07:03.768,-0.02,-0.265
2021-08-01 02:07:03.772,-0.015,-0.26
2021-08-01 02:07:03.776,-0.01,-0.235
2021-08-01 02:07:03.780,-0.01,-0.25
2021-08-01 02:07:03.784,-0.015,-0.265
2021-08-01 02:07:03.788,-0.005,-0.275
2021-08-01 02:07:03.792,-0.01,-0.245
2021-08-01 02:07:03.796,-0.02,-0.255
2021-08-01 02:07:03.800,-0.005,-0.26
2021-08-01 02:07:03.804,-0.03,-0.23
2021-08-01 02:07:03.808,-0.025,-0.225
2021-08-01 02:07:03.812,-0.015,-0.255
2021-08-01 02:07:03.816,-0.01,-0.25
2021-08-01 02:07:03.820,-0.035,-0.25
2021-08-01 02:07:03.824,-0.02,-0.255
2021-08-01 02:07:03.828,-0.02,-0.245
2021-08-01 02:07:03.832,-0.02,-0.24
2021-08-01 02:07:03.836,-0.035,-0.225
2021-08-01 02:07:03.840,-0.03,-0.235
2021-08-01 02:07:03.844,-0.015,-0.23
2021-08-01 02:07:03.848,-0.025,-0.22
2021-08-01 02:07:03.852,-0.02,-0.23
2021-08-01 02:07:03.856,-0.025,-0.215
2021-08-01 02:07:03.860,-0.025,-0.22
2021-08-01 02:07:03.864,-0.03,-0.22
2021-08-01 02:07:03.868,-0.01,-0.21
2021-08-01 02:07:03.872,-0.025,-0.195
2021-08-01 02:07:03.876,-0.04,-0.18
2021-08-01 02:07:03.880,-0.035,-0.195
2021-08-01 02:07:03.884,-0.02,-0.18
2021-08-01 02:07:03.888,-0.025,-0.17
2021-08-01 02:07:03.892,-0.035,-0.145
2021-08-01 02:07:03.896,-0.03,-0.15
2021-08-01 02:07:03.900,-0.04,-0.135
2021-08-01 02:07:03.904,-0.025,-0.135
2021-08-01 02:07:03.908,-0.02,-0.11
2021-08-01 02:07:03.912,-0.01,-0.115
2021-08-01 02:07:03.916,-0.005,-0.1
2021-08-01 02:07:03.920,-0.02,-0.105
2021-08-01 02:07:03.924,-0.005,-0.1
2021-08-01 02:07:03.928,-0.01,-0.095
2021-08-01 02:07:03.932,-0.01,-0.09
2021-08-01 02:07:03.936,-0.015,-0.08
2021-08-01 02:07:03.940,-0.005,-0.075
2021-08-01 02:07:03.944,0.0,-0.075
2021-08-01 02:07:03.948,-0.015,-0.085
2021-08-01 02:07:03.952,-0.005,-0.075
2021-08-01 02:07:03.956,-0.015,-0.065
2021-08-01 02:07:03.960,-0.025,-0.075
2021-08-01 02:07:03.964,0.0,-0.06
2021-08-01 02:07:03.968,-0.005,-0.03
2021-08-01 02:07:03.972,-0.005,-0.045
2021-08-01 02:07:03.976,0.0,-0.055
2021-08-01 02:07:03.980,0.005,-0.055
2021-08-01 02:07:03.984,0.02,-0.055
2021-08-01 02:07:03.988,0.01,-0.06
2021-08-01 02:07:03.992,0.02,-0.065
2021-08-01 02:07:03.996,0.015,-0.09
2021-08-01 02:07:04.000,0.015,-0.11
2021-08-01 02:07:04.004,0.01,-0.105
2021-08-01 02:07:04.008,0.02,-0.12
2021-08-01 02:07:04.012,0.02,-0.115
2021-08-01 02:07:04.016,0.035,-0.12
2021-08-01 02:07:04.020,0.015,-0.12
2021-08-01 02:07:04.024,0.005,-0.135
2021-08-01 02:07:04.028,0.015,-0.14
2021-08-01 02:07:04.032,0.01,-0.135
2021-08-01 02:07:04.036,0.015,-0.115
2021-08-01 02:07:04.040,0.015,-0.14
2021-08-01 02:07:04.044,0.015,-0.135
2021-08-01 02:07:04.048,0.035,-0.125
2021-08-01 02:07:04.052,0.03,-0.115
2021-08-01 02:07:04.056,0.015,-0.13
2021-08-01 02:07:04.060,0.015,-0.145
2021-08-01 02:07:04.064,0.01,-0.12
2021-08-01 02:07:04.068,0.02,-0.115
2021-08-01 02:07:04.072,0.025,-0.12
2021-08-01 02:07:04.076,0.025,-0.115
2021-08-01 02:07:04.080,0.04,-0.125
2021-08-01 02:07:04.084,0.025,-0.105
2021-08-01 02:07:04.088,0.04,-0.1
2021-08-01 02:07:04.092,0.04,-0.11
2021-08-01 02:07:04.096,0.03,-0.12
2021-08-01 02:07:04.100,0.025,-0.105
2021-08-01 02:07:04.104,0.025,-0.11
2021-08-01 02:07:04.108,0.025,-0.08
2021-08-01 02:07:04.112,0.035,-0.095
2021-08-01 02:07:04.116,0.025,-0.095
2021-08-01 02:07:04.120,0.025,-0.095
2021-08-01 02:07:04.124,0.03,-0.095
2021-08-01 02:07:04.128,0.04,-0.09
2021-08-01 02:07:04.132,0.045,-0.09
2021-08-01 02:07:04.136,0.035,-0.115
2021-08-01 02:07:04.140,0.045,-0.12
2021-08-01 02:07:04.144,0.035,-0.115
2021-08-01 02:07:04.148,0.03,-0.12
2021-08-01 02:07:04.152,0.025,-0.1
2021-08-01 02:07:04.156,0.03,-0.105
2021-08-01 02:07:04.160,0.045,-0.125
2021-08-01 02:07:04.164,0.045,-0.115
2021-08-01 02:07:04.168,0.04,-0.11
2021-08-01 02:07:04.172,0.015,-0.115
2021-08-01 02:07:04.176,0.04,-0.13
2021-08-01 02:07:04.180,0.03,-0.125
2021-08-01 02:07:04.184,0.01,-0.11
2021-08-01 02:07:04.188,0.025,-0.12
2021-08-01 02:07:04.192,0.055,-0.115
2021-08-01 02:07:04.196,0.025,-0.105
2021-08-01 02:07:04.200,0.025,-0.105
2021-08-01 02:07:04.204,0.025,-0.07
2021-08-01 02:07:04.208,0.045,-0.055
2021-08-01 02:07:04.212,0.04,-0.015
2021-08-01 02:07:04.216,0.045,0.02
2021-08-01 02:07:04.220,0.07,0.045
2021-08-01 02:07:04.224,0.1,0.05
2021-08-01 02:07:04.228,0.11,0.065
2021-08-01 02:07:04.232,0.11,0.065
2021-08-01 02:07:04.236,0.115,0.07
2021-08-01 02:07:04.240,0.09,0.065
2021-08-01 02:07:04.244,0.095,0.05
2021-08-01 02:07:04.248,0.085,-0.005
2021-08-01 02:07:04.252,0.07,-0.045
2021-08-01 02:07:04.256,0.035,-0.125
2021-08-01 02:07:04.260,0.0,-0.155
2021-08-01 02:07:04.264,-0.015,-0.155
2021-08-01 02:07:04.268,-0.02,-0.13
2021-08-01 02:07:04.272,-0.015,-0.115
2021-08-01 02:07:04.276,-0.015,-0.11
2021-08-01 02:07:04.280,-0.01,-0.12
2021-08-01 02:07:04.284,-0.01,-0.13
2021-08-01 02:07:04.288,0.015,-0.16
2021-08-01 02:07:04.292,0.035,-0.185
2021-08-01 02:07:04.296,0.015,-0.185
2021-08-01 02:07:04.300,0.0,-0.195
2021-08-01 02:07:04.304,0.025,-0.215
2021-08-01 02:07:04.308,0.0,-0.21
2021-08-01 02:07:04.312,0.0,-0.235
2021-08-01 02:07:04.316,-0.005,-0.23
2021-08-01 02:07:04.320,-0.015,-0.225
2021-08-01 02:07:04.324,-0.03,-0.235
2021-08-01 02:07:04.328,-0.015,-0.23
2021-08-01 02:07:04.332,0.0,-0.225
2021-08-01 02:07:04.336,-0.01,-0.235
2021-08-01 02:07:04.340,-0.015,-0.24
2021-08-01 02:07:04.344,-0.02,-0.235
2021-08-01 02:07:04.348,-0.01,-0.235
2021-08-01 02:07:04.352,-0.01,-0.235
2021-08-01 02:07:04.356,-0.005,-0.24
2021-08-01 02:07:04.360,0.0,-0.225
2021-08-01 02:07:04.364,0.0,-0.205
2021-08-01 02:07:04.368,-0.01,-0.22
2021-08-01 02:07:04.372,0.0,-0.2
2021-08-01 02:07:04.376,0.01,-0.145
2021-08-01 02:07:04.380,-0.005,-0.045
2021-08-01 02:07:04.384,0.02,0.17
2021-08-01 02:07:04.388,0.035,0.41
2021-08-01 02:07:04.392,0.07,0.625
2021-08-01 02:07:04.396,0.135,0.645
2021-08-01 02:07:04.400,0.2,0.465
2021-08-01 02:07:04.404,0.255,0.165
2021-08-01 02:07:04.408,0.23,-0.34
2021-08-01 02:07:04.412,0.175,-0.825
2021-08-01 02:07:04.416,0.12,-1.065
2021-08-01 02:07:04.420,-0.04,-1.115
2021-08-01 02:07:04.424,-0.19,-1.005
2021-08-01 02:07:04.428,-0.275,-0.835
2021-08-01 02:07:04.432,-0.3,-0.71
2021-08-01 02:07:04.436,-0.3,-0.57
2021-08-01 02:07:04.440,-0.29,-0.49
2021-08-01 02:07:04.444,-0.24,-0.355
2021-08-01 02:07:04.448,-0.17,-0.26
2021-08-01 02:07:04.452,-0.105,-0.24
2021-08-01 02:07:04.456,-0.03,-0.24
2021-08-01 02:07:04.460,-0.035,-0.23
2021-08-01 02:07:04.464,-0.03,-0.24
2021-08-01 02:07:04.468,-0.015,-0.225
2021-08-01 02:07:04.472,-0.01,-0.23
2021-08-01 02:07:04.476,-0.025,-0.225
2021-08-01 02:07:04.480,-0.01,-0.22
2021-08-01 02:07:04.484,0.0,-0.225
2021-08-01 02:07:04.488,-0.01,-0.215
2021-08-01 02:07:04.492,-0.025,-0.22
2021-08-01 02:07:04.496,0.0,-0.21
2021-08-01 02:07:04.500,-0.02,-0.215
2021-08-01 02:07:04.504,-0.02,-0.22
2021-08-01 02:07:04.508,-0.015,-0.21
2021-08-01 02:07:04.512,-0.02,-0.22
2021-08-01 02:07:04.516,-0.03,-0.24
2021-08-01 02:07:04.520,-0.02,-0.225
2021-08-01 02:07:04.524,-0.03,-0.195
2021-08-01 02:07:04.528,-0.04,-0.205
2021-08-01 02:07:04.532,-0.045,-0.215
2021-08-01 02:07:04.536,-0.025,-0.205
2021-08-01 02:07:04.540,-0.03,-0.2
2021-08-01 02:07:04.544,-0.025,-0.19
2021-08-01 02:07:04.548,-0.03,-0.195
2021-08-01 02:07:04.552,-0.02,-0.19
2021-08-01 02:07:04.556,-0.015,-0.19
2021-08-01 02:07:04.560,-0.01,-0.18
2021-08-01 02:07:04.564,-0.01,-0.16
2021-08-01 02:07:04.568,-0.045,-0.155
2021-08-01 02:07:04.572,-0.02,-0.155
2021-08-01 02:07:04.576,-0.015,-0.16
2021-08-01 02:07:04.580,-0.015,-0.14
2021-08-01 02:07:04.584,-0.015,-0.135
2021-08-01 02:07:04.588,-0.03,-0.12
2021-08-01 02:07:04.592,-0.03,-0.11
2021-08-01 02:07:04.596,-0.015,-0.11
2021-08-01 02:07:04.600,-0.005,-0.11
2021-08-01 02:07:04.604,-0.035,-0.08
2021-08-01 02:07:04.608,-0.035,-0.085
2021-08-01 02:07:04.612,-0.025,-0.075
2021-08-01 02:07:04.616,-0.02,-0.065
2021-08-01 02:07:04.620,-0.045,-0.07
2021-08-01 02:07:04.624,-0.02,-0.055
2021-08-01 02:07:04.628,-0.015,-0.065
2021-08-01 02:07:04.632,-0.02,-0.065
2021-08-01 02:07:04.636,-0.02,-0.06
2021-08-01 02:07:04.640,-0.015,-0.06
2021-08-01 02:07:04.644,-0.01,-0.055
2021-08-01 02:07:04.648,-0.025,-0.05
2021-08-01 02:07:04.652,-0.035,-0.07
2021-08-01 02:07:04.656,-0.025,-0.055
2021-08-01 02:07:04.660,-0.025,-0.025
2021-08-01 02:07:04.664,-0.03,-0.04
2021-08-01 02:07:04.668,-0.015,-0.03
2021-08-01 02:07:04.672,-0.005,-0.035
2021-08-01 02:07:04.676,-0.01,-0.04
2021-08-01 02:07:04.680,-0.005,-0.05
2021-08-01 02:07:04.684,0.005,-0.04
2021-08-01 02:07:04.688,-0.01,-0.05
2021-08-01 02:07:04.692,-0.01,-0.07
2021-08-01 02:07:04.696,0.0,-0.07
2021-08-01 02:07:04.700,0.0,-0.08
2021-08-01 02:07:04.704,0.0,-0.07
2021-08-01 02:07:04.708,-0.015,-0.075
2021-08-01 02:07:04.712,-0.01,-0.095
2021-08-01 02:07:04.716,-0.015,-0.105
2021-08-01 02:07:04.720,-0.02,-0.1
2021-08-01 02:07:04.724,0.0,-0.095
2021-08-01 02:07:04.728,-0.02,-0.1
2021-08-01 02:07:04.732,0.005,-0.105
2021-08-01 02:07:04.736,0.0,-0.125
2021-08-01 02:07:04.740,0.005,-0.115
2021-08-01 02:07:04.744,-0.02,-0.1
2021-08-01 02:07:04.748,-0.015,-0.11
2021-08-01 02:07:04.752,0.0,-0.1
2021-08-01 02:07:04.756,-0.01,-0.1
2021-08-01 02:07:04.760,-0.005,-0.115
2021-08-01 02:07:04.764,0.0,-0.105
2021-08-01 02:07:04.768,-0.025,-0.105
2021-08-01 02:07:04.772,-0.02,-0.095
2021-08-01 02:07:04.776,-0.02,-0.105
2021-08-01 02:07:04.780,-0.005,-0.095
2021-08-01 02:07:04.784,0.0,-0.1
2021-08-01 02:07:04.788,0.025,-0.09
2021-08-01 02:07:04.792,0.005,-0.08
2021-08-01 02:07:04.796,-0.005,-0.105
2021-08-01 02:07:04.800,-0.02,-0.09
2021-08-01 02:07:04.804,0.005,-0.11
2021-08-01 02:07:04.808,0.005,-0.095
2021-08-01 02:07:04.812,-0.005,-0.085
2021-08-01 02:07:04.816,-0.005,-0.08
2021-08-01 02:07:04.820,0.015,-0.095
2021-08-01 02:07:04.824,0.005,-0.07
2021-08-01 02:07:04.828,0.01,-0.07
2021-08-01 02:07:04.832,0.0,-0.09
2021-08-01 02:07:04.836,0.005,-0.1
2021-08-01 02:07:04.840,-0.02,-0.09
2021-08-01 02:07:04.844,0.0,-0.09
2021-08-01 02:07:04.848,-0.02,-0.11
2021-08-01 02:07:04.852,0.0,-0.1
2021-08-01 02:07:04.856,-0.005,-0.105
2021-08-01 02:07:04.860,-0.01,-0.11
2021-08-01 02:07:04.864,-0.01,-0.1
2021-08-01 02:07:04.868,-0.01,-0.085
2021-08-01 02:07:04.872,-0.01,-0.12
2021-08-01 02:07:04.876,0.005,-0.12
2021-08-01 02:07:04.880,-0.02,-0.115
2021-08-01 02:07:04.884,-0.005,-0.1
2021-08-01 02:07:04.888,-0.005,-0.095
2021-08-01 02:07:04.892,0.0,-0.075
2021-08-01 02:07:04.896,-0.005,-0.045
2021-08-01 02:07:04.900,0.005,-0.03
2021-08-01 02:07:04.904,0.03,0.015
2021-08-01 02:07:04.908,0.035,0.06
2021-08-01 02:07:04.912,0.035,0.04
2021-08-01 02:07:04.916,0.065,0.045
2021-08-01 02:07:04.920,0.07,0.06
2021-08-01 02:07:04.924,0.075,0.06
2021-08-01 02:07:04.928,0.075,0.055
2021-08-01 02:07:04.932,0.055,0.025
2021-08-01 02:07:04.936,0.025,0.0
2021-08-01 02:07:04.940,0.02,-0.035
2021-08-01 02:07:04.944,0.01,-0.11
2021-08-01 02:07:04.948,0.0,-0.145
2021-08-01 02:07:04.952,-0.025,-0.155
2021-08-01 02:07:04.956,-0.045,-0.155
2021-08-01 02:07:04.960,-0.055,-0.12
2021-08-01 02:07:04.964,-0.055,-0.1
2021-08-01 02:07:04.968,-0.05,-0.135
2021-08-01 02:07:04.972,-0.005,-0.14
2021-08-01 02:07:04.976,-0.02,-0.16
2021-08-01 02:07:04.980,0.005,-0.18
2021-08-01 02:07:04.984,0.005,-0.18
2021-08-01 02:07:04.988,0.005,-0.19
2021-08-01 02:07:04.992,-0.01,-0.215
2021-08-01 02:07:04.996,0.0,-0.23
2021-08-01 02:07:05.000,-0.005,-0.24
2021-08-01 02:07:05.004,-0.015,-0.22
2021-08-01 02:07:05.008,-0.03,-0.23
2021-08-01 02:07:05.012,-0.03,-0.255
2021-08-01 02:07:05.016,-0.03,-0.245
2021-08-01 02:07:05.020,-0.03,-0.24
2021-08-01 02:07:05.024,-0.03,-0.235
2021-08-01 02:07:05.028,-0.025,-0.235
2021-08-01 02:07:05.032,-0.03,-0.24
2021-08-01 02:07:05.036,-0.02,-0.235
2021-08-01 02:07:05.040,-0.02,-0.23
2021-08-01 02:07:05.044,-0.03,-0.23
2021-08-01 02:07:05.048,-0.025,-0.225
2021-08-01 02:07:05.052,-0.035,-0.235
2021-08-01 02:07:05.056,-0.04,-0.22
2021-08-01 02:07:05.060,-0.04,-0.21
2021-08-01 02:07:05.064,-0.015,-0.165
2021-08-01 02:07:05.068,0.01,-0.025
2021-08-01 02:07:05.072,0.01,0.175
2021-08-01 02:07:05.076,0.045,0.42
2021-08-01 02:07:05.080,0.075,0.62
2021-08-01 02:07:05.084,0.13,0.665
2021-08-01 02:07:05.088,0.195,0.475
2021-08-01 02:07:05.092,0.22,0.165
2021-08-01 02:07:05.096,0.195,-0.27
2021-08-01 02:07:05.100,0.125,-0.76
2021-08-01 02:07:05.104,0.015,-1.05
2021-08-01 02:07:05.108,-0.17,-1.16
2021-08-01 02:07:05.112,-0.32,-1.095
2021-08-01 02:07:05.116,-0.41,-0.9
2021-08-01 02:07:05.120,-0.41,-0.7
2021-08-01 02:07:05.124,-0.37,-0.56
2021-08-01 02:07:05.128,-0.32,-0.455
2021-08-01 02:07:05.132,-0.25,-0.335
2021-08-01 02:07:05.136,-0.155,-0.275
2021-08-01 02:07:05.140,-0.095,-0.25
2021-08-01 02:07:05.144,-0.03,-0.245
2021-08-01 02:07:05.148,0.0,-0.24
2021-08-01 02:07:05.152,-0.015,-0.235
2021-08-01 02:07:05.156,-0.025,-0.24
2021-08-01 02:07:05.160,-0.02,-0.22
2021-08-01 02:07:05.164,-0.035,-0.225
2021-08-01 02:07:05.168,-0.025,-0.225
2021-08-01 02:07:05.172,-0.025,-0.235
2021-08-01 02:07:05.176,-0.02,-0.225
2021-08-01 02:07:05.180,-0.01,-0.22
2021-08-01 02:07:05.184,0.0,-0.225
2021-08-01 02:07:05.188,-0.01,-0.215
2021-08-01 02:07:05.192,-0.035,-0.22
2021-08-01 02:07:05.196,-0.01,-0.23
2021-08-01 02:07:05.200,-0.025,-0.225
2021-08-01 02:07:05.204,-0.02,-0.21
2021-08-01 02:07:05.208,-0.015,-0.22
2021-08-01 02:07:05.212,0.0,-0.215
2021-08-01 02:07:05.216,0.0,-0.2
2021-08-01 02:07:05.220,0.0,-0.2
2021-08-01 02:07:05.224,-0.01,-0.2
2021-08-01 02:07:05.228,0.0,-0.215
2021-08-01 02:07:05.232,-0.03,-0.19
2021-08-01 02:07:05.236,0.0,-0.195
2021-08-01 02:07:05.240,0.01,-0.2
2021-08-01 02:07:05.244,0.005,-0.17
2021-08-01 02:07:05.248,-0.01,-0.165
2021-08-01 02:07:05.252,-0.005,-0.17
2021-08-01 02:07:05.256,0.0,-0.16
2021-08-01 02:07:05.260,0.0,-0.13
2021-08-01 02:07:05.264,0.0,-0.135
2021-08-01 02:07:05.268,0.005,-0.14
2021-08-01 02:07:05.272,0.01,-0.13
2021-08-01 02:07:05.276,-0.015,-0.1
2021-08-01 02:07:05.280,-0.005,-0.085
2021-08-01 02:07:05.284,0.0,-0.06
2021-08-01 02:07:05.288,-0.005,-0.06
2021-08-01 02:07:05.292,0.005,-0.055
2021-08-01 02:07:05.296,0.005,-0.06
2021-08-01 02:07:05.300,-0.015,-0.025
2021-08-01 02:07:05.304,-0.015,-0.015
2021-08-01 02:07:05.308,-0.005,-0.03
2021-08-01 02:07:05.312,0.01,-0.035
2021-08-01 02:07:05.316,0.015,-0.03
2021-08-01 02:07:05.320,0.015,-0.005
2021-08-01 02:07:05.324,0.01,-0.01
2021-08-01 02:07:05.328,0.005,-0.015
2021-08-01 02:07:05.332,0.01,0.0
2021-08-01 02:07:05.336,0.005,-0.005
2021-08-01 02:07:05.340,0.015,0.0
2021-08-01 02:07:05.344,0.0,0.005
2021-08-01 02:07:05.348,0.03,0.01
2021-08-01 02:07:05.352,0.015,0.01
2021-08-01 02:07:05.356,0.005,0.03
2021-08-01 02:07:05.360,0.02,0.005
2021-08-01 02:07:05.364,0.02,0.01
2021-08-01 02:07:05.368,0.015,0.0
2021-08-01 02:07:05.372,0.015,-0.01
2021-08-01 02:07:05.376,0.015,-0.03
2021-08-01 02:07:05.380,0.025,-0.035
2021-08-01 02:07:05.384,0.035,-0.04
2021-08-01 02:07:05.388,0.025,-0.07
2021-08-01 02:07:05.392,0.02,-0.075
2021-08-01 02:07:05.396,0.04,-0.08
2021-08-01 02:07:05.400,0.025,-0.07
2021-08-01 02:07:05.404,0.02,-0.1
2021-08-01 02:07:05.408,0.04,-0.105
2021-08-01 02:07:05.412,0.01,-0.085
2021-08-01 02:07:05.416,0.005,-0.11
2021-08-01 02:07:05.420,0.035,-0.1
2021-08-01 02:07:05.424,0.025,-0.09
2021-08-01 02:07:05.428,0.015,-0.09
2021-08-01 02:07:05.432,0.025,-0.1
2021-08-01 02:07:05.436,0.015,-0.08
2021-08-01 02:07:05.440,0.01,-0.085
2021-08-01 02:07:05.444,0.025,-0.075
2021-08-01 02:07:05.448,0.015,-0.085
2021-08-01 02:07:05.452,0.01,-0.085
2021-08-01 02:07:05.456,0.03,-0.09
2021-08-01 02:07:05.460,0.035,-0.08
2021-08-01 02:07:05.464,0.035,-0.075
2021-08-01 02:07:05.468,0.01,-0.065
2021-08-01 02:07:05.472,0.02,-0.085
2021-08-01 02:07:05.476,0.015,-0.09
2021-08-01 02:07:05.480,0.01,-0.07
2021-08-01 02:07:05.484,0.035,-0.065
2021-08-01 02:07:05.488,0.03,-0.085
2021-08-01 02:07:05.492,0.03,-0.085
2021-08-01 02:07:05.496,0.035,-0.075
2021-08-01 02:07:05.500,0.03,-0.07
2021-08-01 02:07:05.504,0.04,-0.085
2021-08-01 02:07:05.508,0.025,-0.09
2021-08-01 02:07:05.512,0.03,-0.1
2021-08-01 02:07:05.516,0.025,-0.095
2021-08-01 02:07:05.520,0.015,-0.095
2021-08-01 02:07:05.524,0.02,-0.1
2021-08-01 02:07:05.528,0.035,-0.1
2021-08-01 02:07:05.532,0.02,-0.09
2021-08-01 02:07:05.536,0.015,-0.1
2021-08-01 02:07:05.540,0.03,-0.105
2021-08-01 02:07:05.544,0.025,-0.1
2021-08-01 02:07:05.548,0.02,-0.1
2021-08-01 02:07:05.552,0.02,-0.12
2021-08-01 02:07:05.556,0.025,-0.095
2021-08-01 02:07:05.560,0.01,-0.085
2021-08-01 02:07:05.564,0.015,-0.105
2021-08-01 02:07:05.568,0.01,-0.105
2021-08-01 02:07:05.572,0.01,-0.13
2021-08-01 02:07:05.576,0.015,-0.09
2021-08-01 02:07:05.580,0.03,-0.075
2021-08-01 02:07:05.584,0.005,-0.055
2021-08-01 02:07:05.588,0.02,-0.04
2021-08-01 02:07:05.592,0.025,-0.005
2021-08-01 02:07:05.596,0.05,0.03
2021-08-01 02:07:05.600,0.06,0.065
2021-08-01 02:07:05.604,0.085,0.05
2021-08-01 02:07:05.608,0.085,0.05
2021-08-01 02:07:05.612,0.11,0.055
2021-08-01 02:07:05.616,0.085,0.035
2021-08-01 02:07:05.620,0.09,0.04
2021-08-01 02:07:05.624,0.07,0.02
2021-08-01 02:07:05.628,0.05,-0.02
2021-08-01 02:07:05.632,0.035,-0.07
2021-08-01 02:07:05.636,0.01,-0.13
2021-08-01 02:07:05.640,0.0,-0.145
2021-08-01 02:07:05.644,-0.03,-0.155
2021-08-01 02:07:05.648,-0.05,-0.15
2021-08-01 02:07:05.652,-0.06,-0.12
2021-08-01 02:07:05.656,-0.055,-0.11
2021-08-01 02:07:05.660,-0.045,-0.115
2021-08-01 02:07:05.664,-0.02,-0.14
2021-08-01 02:07:05.668,-0.015,-0.165
2021-08-01 02:07:05.672,-0.015,-0.19
2021-08-01 02:07:05.676,-0.01,-0.18
2021-08-01 02:07:05.680,-0.01,-0.185
2021-08-01 02:07:05.684,-0.005,-0.205
2021-08-01 02:07:05.688,0.0,-0.24
2021-08-01 02:07:05.692,-0.04,-0.245
2021-08-01 02:07:05.696,-0.025,-0.225
2021-08-01 02:07:05.700,-0.035,-0.24
2021-08-01 02:07:05.704,-0.035,-0.24
2021-08-01 02:07:05.708,-0.045,-0.24
2021-08-01 02:07:05.712,-0.03,-0.225
2021-08-01 02:07:05.716,-0.045,-0.235
2021-08-01 02:07:05.720,-0.04,-0.235
2021-08-01 02:07:05.724,-0.055,-0.235
2021-08-01 02:07:05.728,-0.05,-0.26
2021-08-01 02:07:05.732,-0.04,-0.255
2021-08-01 02:07:05.736,-0.04,-0.23
2021-08-01 02:07:05.740,-0.035,-0.23
2021-08-01 02:07:05.744,-0.03,-0.23
2021-08-01 02:07:05.748,-0.055,-0.235
2021-08-01 02:07:05.752,-0.035,-0.2
2021-08-01 02:07:05.756,-0.045,-0.14
2021-08-01 02:07:05.760,0.0,0.015
2021-08-01 02:07:05.764,-0.005,0.235
2021-08-01 02:07:05.768,0.01,0.455
2021-08-01 02:07:05.772,0.07,0.615
2021-08-01 02:07:05.776,0.14,0.585
2021-08-01 02:07:05.780,0.19,0.36
2021-08-01 02:07:05.784,0.21,-0.045
2021-08-01 02:07:05.788,0.175,-0.57
2021-08-01 02:07:05.792,0.11,-0.98
2021-08-01 02:07:05.796,0.005,-1.155
2021-08-01 02:07:05.800,-0.155,-1.14
2021-08-01 02:07:05.804,-0.3,-1.005
2021-08-01 02:07:05.808,-0.385,-0.82
2021-08-01 02:07:05.812,-0.39,-0.64
2021-08-01 02:07:05.816,-0.345,-0.525
2021-08-01 02:07:05.820,-0.32,-0.4
2021-08-01 02:07:05.824,-0.22,-0.31
2021-08-01 02:07:05.828,-0.15,-0.275
2021-08-01 02:07:05.832,-0.09,-0.25
2021-08-01 02:07:05.836,-0.07,-0.25
2021-08-01 02:07:05.840,-0.06,-0.245
2021-08-01 02:07:05.844,-0.05,-0.26
2021-08-01 02:07:05.848,-0.045,-0.265
2021-08-01 02:07:05.852,-0.035,-0.27
2021-08-01 02:07:05.856,-0.035,-0.255
2021-08-01 02:07:05.860,-0.045,-0.245
2021-08-01 02:07:05.864,-0.045,-0.24
2021-08-01 02:07:05.868,-0.04,-0.265
2021-08-01 02:07:05.872,-0.03,-0.25
2021-08-01 02:07:05.876,-0.055,-0.235
2021-08-01 02:07:05.880,-0.05,-0.23
2021-08-01 02:07:05.884,-0.055,-0.235
2021-08-01 02:07:05.888,-0.045,-0.235
2021-08-01 02:07:05.892,-0.03,-0.245
2021-08-01 02:07:05.896,-0.035,-0.225
2021-08-01 02:07:05.900,-0.04,-0.22
2021-08-01 02:07:05.904,-0.045,-0.215
2021-08-01 02:07:05.908,-0.045,-0.225
2021-08-01 02:07:05.912,-0.04,-0.23
2021-08-01 02:07:05.916,-0.035,-0.22
2021-08-01 02:07:05.920,-0.04,-0.22
2021-08-01 02:07:05.924,-0.035,-0.235
2021-08-01 02:07:05.928,-0.035,-0.205
2021-08-01 02:07:05.932,-0.04,-0.21
2021-08-01 02:07:05.936,-0.04,-0.205
2021-08-01 02:07:05.940,-0.04,-0.195
2021-08-01 02:07:05.944,-0.05,-0.185
2021-08-01 02:07:05.948,-0.05,-0.19
2021-08-01 02:07:05.952,-0.055,-0.165
2021-08-01 02:07:05.956,-0.04,-0.16
2021-08-01 02:07:05.960,-0.04,-0.155
2021-08-01 02:07:05.964,-0.03,-0.16
2021-08-01 02:07:05.968,-0.045,-0.125
2021-08-01 02:07:05.972,-0.025,-0.12
2021-08-01 02:07:05.976,-0.03,-0.125
2021-08-01 02:07:05.980,-0.025,-0.115
2021-08-01 02:07:05.984,-0.035,-0.1
2021-08-01 02:07:05.988,-0.04,-0.115
2021-08-01 02:07:05.992,-0.045,-0.1
2021-08-01 02:07:05.996,-0.045,-0.1
2021-08-01 02:07:06.000,-0.04,-0.09
2021-08-01 02:07:06.004,-0.035,-0.085
2021-08-01 02:07:06.008,-0.05,-0.08
2021-08-01 02:07:06.012,-0.045,-0.085
2021-08-01 02:07:06.016,-0.035,-0.065
2021-08-01 02:07:06.020,-0.04,-0.06
2021-08-01 02:07:06.024,-0.055,-0.05
2021-08-01 02:07:06.028,-0.03,-0.07
2021-08-01 02:07:06.032,-0.01,-0.06
2021-08-01 02:07:06.036,-0.03,-0.04
2021-08-01 02:07:06.040,-0.04,-0.045
2021-08-01 02:07:06.044,-0.02,-0.03
2021-08-01 02:07:06.048,-0.02,-0.04
2021-08-01 02:07:06.052,-0.01,-0.04
2021-08-01 02:07:06.056,-0.005,-0.045
2021-08-01 02:07:06.060,-0.005,-0.06
2021-08-01 02:07:06.064,0.0,-0.05
2021-08-01 02:07:06.068,-0.01,-0.07
2021-08-01 02:07:06.072,0.005,-0.07
2021-08-01 02:07:06.076,0.0,-0.075
2021-08-01 02:07:06.080,0.015,-0.095
2021-08-01 02:07:06.084,0.015,-0.11
2021-08-01 02:07:06.088,0.01,-0.12
2021-08-01 02:07:06.092,0.005,-0.12
2021-08-01 02:07:06.096,0.0,-0.145
2021-08-01 02:07:06.100,0.0,-0.14
2021-08-01 02:07:06.104,0.0,-0.12
2021-08-01 02:07:06.108,0.01,-0.115
2021-08-01 02:07:06.112,0.005,-0.115
2021-08-01 02:07:06.116,0.0,-0.125
2021-08-01 02:07:06.120,0.0,-0.12
2021-08-01 02:07:06.124,0.02,-0.145
2021-08-01 02:07:06.128,0.015,-0.14
2021-08-01 02:07:06.132,0.0,-0.12
2021-08-01 02:07:06.136,0.0,-0.11
2021-08-01 02:07:06.140,0.01,-0.105
2021-08-01 02:07:06.144,0.01,-0.11
2021-08-01 02:07:06.148,0.02,-0.135
2021-08-01 02:07:06.152,0.025,-0.11
2021-08-01 02:07:06.156,0.015,-0.09
2021-08-01 02:07:06.160,0.015,-0.095
2021-08-01 02:07:06.164,0.03,-0.11
2021-08-01 02:07:06.168,0.01,-0.105
2021-08-01 02:07:06.172,0.015,-0.11
2021-08-01 02:07:06.176,0.0,-0.1
2021-08-01 02:07:06.180,0.02,-0.105
2021-08-01 02:07:06.184,0.005,-0.09
2021-08-01 02:07:06.188,0.015,-0.115
2021-08-01 02:07:06.192,0.01,-0.1
2021-08-01 02:07:06.196,0.015,-0.09
2021-08-01 02:07:06.200,0.015,-0.09
2021-08-01 02:07:06.204,0.02,-0.1
2021-08-01 02:07:06.208,0.02,-0.115
2021-08-01 02:07:06.212,0.005,-0.115
2021-08-01 02:07:06.216,0.01,-0.12
2021-08-01 02:07:06.220,0.035,-0.105
2021-08-01 02:07:06.224,0.02,-0.11
2021-08-01 02:07:06.228,0.02,-0.125
2021-08-01 02:07:06.232,0.02,-0.125
2021-08-01 02:07:06.236,0.03,-0.125
2021-08-01 02:07:06.240,0.005,-0.125
2021-08-01 02:07:06.244,0.015,-0.13
2021-08-01 02:07:06.248,0.005,-0.135
2021-08-01 02:07:06.252,0.0,-0.12
2021-08-01 02:07:06.256,0.01,-0.13
2021-08-01 02:07:06.260,0.015,-0.14
2021-08-01 02:07:06.264,0.01,-0.12
2021-08-01 02:07:06.268,0.0,-0.09
2021-08-01 02:07:06.272,0.01,-0.065
2021-08-01 02:07:06.276,0.01,-0.03
2021-08-01 02:07:06.280,0.035,-0.005
2021-08-01 02:07:06.284,0.07,0.02
2021-08-01 02:07:06.288,0.065,0.005
2021-08-01 02:07:06.292,0.09,0.015
2021-08-01 02:07:06.296,0.075,0.04
2021-08-01 02:07:06.300,0.095,0.045
2021-08-01 02:07:06.304,0.095,0.03
2021-08-01 02:07:06.308,0.095,0.025
2021-08-01 02:07:06.312,0.065,-0.01
2021-08-01 02:07:06.316,0.045,-0.06
2021-08-01 02:07:06.320,0.03,-0.13
2021-08-01 02:07:06.324,0.02,-0.175
2021-08-01 02:07:06.328,-0.01,-0.195
2021-08-01 02:07:06.332,-0.025,-0.16
2021-08-01 02:07:06.336,-0.035,-0.145
2021-08-01 02:07:06.340,-0.025,-0.14
2021-08-01 02:07:06.344,0.0,-0.15
2021-08-01 02:07:06.348,-0.005,-0.17
2021-08-01 02:07:06.352,0.0,-0.18
2021-08-01 02:07:06.356,0.02,-0.205
2021-08-01 02:07:06.360,0.005,-0.215
2021-08-01 02:07:06.364,0.01,-0.225
2021-08-01 02:07:06.368,0.01,-0.245
2021-08-01 02:07:06.372,0.015,-0.255
2021-08-01 02:07:06.376,-0.005,-0.26
2021-08-01 02:07:06.380,-0.025,-0.255
2021-08-01 02:07:06.384,-0.03,-0.275
2021-08-01 02:07:06.388,-0.02,-0.26
2021-08-01 02:07:06.392,-0.025,-0.26
2021-08-01 02:07:06.396,-0.035,-0.255
2021-08-01 02:07:06.400,-0.01,-0.255
2021-08-01 02:07:06.404,-0.015,-0.265
2021-08-01 02:07:06.408,-0.02,-0.25
2021-08-01 02:07:06.412,-0.02,-0.255
2021-08-01 02:07:06.416,-0.015,-0.245
2021-08-01 02:07:06.420,-0.02,-0.245
2021-08-01 02:07:06.424,-0.015,-0.255
2021-08-01 02:07:06.428,-0.015,-0.26
2021-08-01 02:07:06.432,-0.025,-0.225
2021-08-01 02:07:06.436,-0.02,-0.22
2021-08-01 02:07:06.440,-0.005,-0.175
2021-08-01 02:07:06.444,-0.01,-0.04
2021-08-01 02:07:06.448,0.005,0.165
2021-08-01 02:07:06.452,0.01,0.4
2021-08-01 02:07:06.456,0.06,0.58
2021-08-01 02:07:06.460,0.13,0.525
2021-08-01 02:07:06.464,0.195,0.295
2021-08-01 02:07:06.468,0.235,-0.095
2021-08-01 02:07:06.472,0.205,-0.57
2021-08-01 02:07:06.476,0.165,-0.99
2021-08-01 02:07:06.480,0.095,-1.15
2021-08-01 02:07:06.484,-0.045,-1.145
2021-08-01 02:07:06.488,-0.195,-0.995
2021-08-01 02:07:06.492,-0.275,-0.85
2021-08-01 02:07:06.496,-0.31,-0.7
2021-08-01 02:07:06.500,-0.285,-0.565
2021-08-01 02:07:06.504,-0.275,-0.47
2021-08-01 02:07:06.508,-0.215,-0.365
2021-08-01 02:07:06.512,-0.16,-0.265
2021-08-01 02:07:06.516,-0.115,-0.25
2021-08-01 02:07:06.520,-0.05,-0.255
2021-08-01 02:07:06.524,-0.045,-0.25
2021-08-01 02:07:06.528,-0.045,-0.24
2021-08-01 02:07:06.532,-0.035,-0.245
2021-08-01 02:07:06.536,-0.03,-0.25
2021-08-01 02:07:06.540,-0.05,-0.245
2021-08-01 02:07:06.544,-0.05,-0.245
2021-08-01 02:07:06.548,-0.045,-0.24
2021-08-01 02:07:06.552,-0.065,-0.225
2021-08-01 02:07:06.556,-0.06,-0.24
2021-08-01 02:07:06.560,-0.04,-0.26
2021-08-01 02:07:06.564,-0.05,-0.26
2021-08-01 02:07:06.568,-0.065,-0.23
2021-08-01 02:07:06.572,-0.055,-0.24
2021-08-01 02:07:06.576,-0.055,-0.235
2021-08-01 02:07:06.580,-0.045,-0.25
2021-08-01 02:07:06.584,-0.04,-0.245
2021-08-01 02:07:06.588,-0.055,-0.23
2021-08-01 02:07:06.592,-0.055,-0.215
2021-08-01 02:07:06.596,-0.06,-0.23
2021-08-01 02:07:06.600,-0.065,-0.225
2021-08-01 02:07:06.604,-0.06,-0.23
2021-08-01 02:07:06.608,-0.045,-0.205
2021-08-01 02:07:06.612,-0.06,-0.225
2021-08-01 02:07:06.616,-0.065,-0.21
2021-08-01 02:07:06.620,-0.06,-0.205
2021-08-01 02:07:06.624,-0.055,-0.21
2021-08-01 02:07:06.628,-0.06,-0.2
2021-08-01 02:07:06.632,-0.05,-0.185
2021-08-01 02:07:06.636,-0.075,-0.2
2021-08-01 02:07:06.640,-0.075,-0.185
2021-08-01 02:07:06.644,-0.065,-0.19
2021-08-01 02:07:06.648,-0.07,-0.16
2021-08-01 02:07:06.652,-0.075,-0.17
2021-08-01 02:07:06.656,-0.05,-0.14
2021-08-01 02:07:06.660,-0.065,-0.125
2021-08-01 02:07:06.664,-0.07,-0.14
2021-08-01 02:07:06.668,-0.055,-0.115
2021-08-01 02:07:06.672,-0.07,-0.115
2021-08-01 02:07:06.676,-0.06,-0.135
2021-08-01 02:07:06.680,-0.065,-0.13
2021-08-01 02:07:06.684,-0.075,-0.12
2021-08-01 02:07:06.688,-0.065,-0.11
2021-08-01 02:07:06.692,-0.055,-0.105
2021-08-01 02:07:06.696,-0.05,-0.105
2021-08-01 02:07:06.700,-0.06,-0.105
2021-08-01 02:07:06.704,-0.045,-0.11
2021-08-01 02:07:06.708,-0.07,-0.1
2021-08-01 02:07:06.712,-0.06,-0.085
2021-08-01 02:07:06.716,-0.065,-0.09
2021-08-01 02:07:06.720,-0.055,-0.11
2021-08-01 02:07:06.724,-0.05,-0.09
2021-08-01 02:07:06.728,-0.035,-0.085
2021-08-01 02:07:06.732,-0.03,-0.06
2021-08-01 02:07:06.736,-0.04,-0.065
2021-08-01 02:07:06.740,-0.03,-0.075
2021-08-01 02:07:06.744,-0.04,-0.065
2021-08-01 02:07:06.748,-0.04,-0.08
2021-08-01 02:07:06.752,-0.025,-0.085
2021-08-01 02:07:06.756,-0.02,-0.095
2021-08-01 02:07:06.760,-0.03,-0.105
2021-08-01 02:07:06.764,-0.03,-0.13
2021-08-01 02:07:06.768,-0.01,-0.115
2021-08-01 02:07:06.772,-0.02,-0.11
2021-08-01 02:07:06.776,-0.02,-0.115
2021-08-01 02:07:06.780,-0.02,-0.13
2021-08-01 02:07:06.784,-0.015,-0.125
2021-08-01 02:07:06.788,-0.015,-0.125
2021-08-01 02:07:06.792,0.01,-0.14
2021-08-01 02:07:06.796,-0.005,-0.135
2021-08-01 02:07:06.800,-0.01,-0.13
2021-08-01 02:07:06.804,-0.015,-0.145
2021-08-01 02:07:06.808,-0.005,-0.13
2021-08-01 02:07:06.812,-0.01,-0.125
2021-08-01 02:07:06.816,0.0,-0.135
2021-08-01 02:07:06.820,-0.015,-0.135
2021-08-01 02:07:06.824,-0.02,-0.125
2021-08-01 02:07:06.828,-0.02,-0.12
2021-08-01 02:07:06.832,-0.015,-0.115
2021-08-01 02:07:06.836,-0.01,-0.11
2021-08-01 02:07:06.840,-0.015,-0.11
2021-08-01 02:07:06.844,-0.035,-0.12
2021-08-01 02:07:06.848,-0.005,-0.095
2021-08-01 02:07:06.852,-0.015,-0.105
2021-08-01 02:07:06.856,-0.01,-0.105
2021-08-01 02:07:06.860,-0.03,-0.105
2021-08-01 02:07:06.864,-0.01,-0.1
2021-08-01 02:07:06.868,0.0,-0.09
2021-08-01 02:07:06.872,-0.025,-0.095
2021-08-01 02:07:06.876,-0.04,-0.105
2021-08-01 02:07:06.880,-0.015,-0.105
2021-08-01 02:07:06.884,-0.015,-0.095
2021-08-01 02:07:06.888,-0.02,-0.115
2021-08-01 02:07:06.892,-0.025,-0.105
2021-08-01 02:07:06.896,-0.03,-0.09
2021-08-01 02:07:06.900,-0.02,-0.115
2021-08-01 02:07:06.904,-0.015,-0.11
2021-08-01 02:07:06.908,-0.015,-0.09
2021-08-01 02:07:06.912,-0.025,-0.115
2021-08-01 02:07:06.916,-0.025,-0.115
2021-08-01 02:07:06.920,-0.025,-0.12
2021-08-01 02:07:06.924,-0.04,-0.115
2021-08-01 02:07:06.928,-0.015,-0.14
2021-08-01 02:07:06.932,-0.025,-0.11
2021-08-01 02:07:06.936,-0.03,-0.11
2021-08-01 02:07:06.940,-0.045,-0.11
2021-08-01 02:07:06.944,-0.015,-0.105
2021-08-01 02:07:06.948,-0.015,-0.075
2021-08-01 02:07:06.952,-0.02,-0.04
2021-08-01 02:07:06.956,-0.015,-0.01
2021-08-01 02:07:06.960,0.0,0.005
2021-08-01 02:07:06.964,0.005,0.025
2021-08-01 02:07:06.968,0.05,0.03
2021-08-01 02:07:06.972,0.045,0.05
2021-08-01 02:07:06.976,0.045,0.05
2021-08-01 02:07:06.980,0.045,0.04
2021-08-01 02:07:06.984,0.065,0.04
2021-08-01 02:07:06.988,0.03,0.01
2021-08-01 02:07:06.992,0.02,-0.03
2021-08-01 02:07:06.996,0.015,-0.115
2021-08-01 02:07:07.000,-0.01,-0.16
2021-08-01 02:07:07.004,-0.055,-0.165
2021-08-01 02:07:07.008,-0.06,-0.16
2021-08-01 02:07:07.012,-0.065,-0.14
2021-08-01 02:07:07.016,-0.055,-0.125
2021-08-01 02:07:07.020,-0.075,-0.115
2021-08-01 02:07:07.024,-0.025,-0.135
2021-08-01 02:07:07.028,-0.03,-0.15
2021-08-01 02:07:07.032,-0.025,-0.16
2021-08-01 02:07:07.036,-0.015,-0.19
2021-08-01 02:07:07.040,-0.02,-0.205
2021-08-01 02:07:07.044,-0.025,-0.22
2021-08-01 02:07:07.048,-0.02,-0.225
2021-08-01 02:07:07.052,-0.04,-0.23
2021-08-01 02:07:07.056,-0.045,-0.235
2021-08-01 02:07:07.060,-0.05,-0.23
2021-08-01 02:07:07.064,-0.045,-0.245
2021-08-01 02:07:07.068,-0.055,-0.24
2021-08-01 02:07:07.072,-0.06,-0.235
2021-08-01 02:07:07.076,-0.05,-0.25
2021-08-01 02:07:07.080,-0.05,-0.245
2021-08-01 02:07:07.084,-0.07,-0.245
2021-08-01 02:07:07.088,-0.05,-0.24
2021-08-01 02:07:07.092,-0.05,-0.245
2021-08-01 02:07:07.096,-0.05,-0.24
2021-08-01 02:07:07.100,-0.06,-0.245
2021-08-01 02:07:07.104,-0.05,-0.24
2021-08-01 02:07:07.108,-0.045,-0.245
2021-08-01 02:07:07.112,-0.04,-0.245
2021-08-01 02:07:07.116,-0.055,-0.2
2021-08-01 02:07:07.120,-0.025,-0.09
2021-08-01 02:07:07.124,-0.02,0.07
2021-08-01 02:07:07.128,0.015,0.34
2021-08-01 02:07:07.132,0.03,0.565
2021-08-01 02:07:07.136,0.09,0.685
2021-08-01 02:07:07.140,0.165,0.55
2021-08-01 02:07:07.144,0.21,0.305
2021-08-01 02:07:07.148,0.21,-0.09
2021-08-01 02:07:07.152,0.125,-0.615
2021-08-01 02:07:07.156,0.03,-1.01
2021-08-01 02:07:07.160,-0.095,-1.145
2021-08-01 02:07:07.164,-0.275,-1.105
2021-08-01 02:07:07.168,-0.385,-0.935
2021-08-01 02:07:07.172,-0.41,-0.76
2021-08-01 02:07:07.176,-0.385,-0.61
2021-08-01 02:07:07.180,-0.355,-0.505
2021-08-01 02:07:07.184,-0.28,-0.37
2021-08-01 02:07:07.188,-0.2,-0.285
2021-08-01 02:07:07.192,-0.135,-0.26
2021-08-01 02:07:07.196,-0.075,-0.245
2021-08-01 02:07:07.200,-0.055,-0.24
2021-08-01 02:07:07.204,-0.025,-0.245
2021-08-01 02:07:07.208,-0.035,-0.245
2021-08-01 02:07:07.212,-0.035,-0.245
2021-08-01 02:07:07.216,-0.045,-0.225
2021-08-01 02:07:07.220,-0.055,-0.23
2021-08-01 02:07:07.224,-0.045,-0.245
2021-08-01 02:07:07.228,-0.025,-0.23
2021-08-01 02:07:07.232,-0.05,-0.22
2021-08-01 02:07:07.236,-0.035,-0.21
2021-08-01 02:07:07.240,-0.04,-0.22
2021-08-01 02:07:07.244,-0.03,-0.215
2021-08-01 02:07:07.248,-0.025,-0.215
2021-08-01 02:07:07.252,-0.025,-0.225
2021-08-01 02:07:07.256,-0.025,-0.225
2021-08-01 02:07:07.260,-0.045,-0.21
2021-08-01 02:07:07.264,-0.02,-0.19
2021-08-01 02:07:07.268,-0.015,-0.2
2021-08-01 02:07:07.272,-0.035,-0.205
2021-08-01 02:07:07.276,-0.04,-0.21
2021-08-01 02:07:07.280,-0.045,-0.21
2021-08-01 02:07:07.284,-0.04,-0.195
2021-08-01 02:07:07.288,-0.05,-0.16
2021-08-01 02:07:07.292,-0.035,-0.185
2021-08-01 02:07:07.296,-0.02,-0.16
2021-08-01 02:07:07.300,-0.025,-0.185
2021-08-01 02:07:07.304,-0.03,-0.15
2021-08-01 02:07:07.308,-0.05,-0.155
2021-08-01 02:07:07.312,-0.025,-0.15
2021-08-01 02:07:07.316,-0.03,-0.13
2021-08-01 02:07:07.320,-0.01,-0.13
2021-08-01 02:07:07.324,0.0,-0.12
2021-08-01 02:07:07.328,-0.02,-0.09
2021-08-01 02:07:07.332,-0.025,-0.105
2021-08-01 02:07:07.336,-0.03,-0.105
2021-08-01 02:07:07.340,-0.02,-0.08
2021-08-01 02:07:07.344,-0.015,-0.04
2021-08-01 02:07:07.348,-0.04,-0.05
2021-08-01 02:07:07.352,-0.025,-0.06
2021-08-01 02:07:07.356,-0.02,-0.04
2021-08-01 02:07:07.360,-0.025,-0.035
2021-08-01 02:07:07.364,-0.045,-0.03
2021-08-01 02:07:07.368,-0.03,-0.04
2021-08-01 02:07:07.372,-0.03,-0.025
2021-08-01 02:07:07.376,-0.015,-0.025
2021-08-01 02:07:07.380,-0.02,-0.015
2021-08-01 02:07:07.384,-0.01,-0.005
2021-08-01 02:07:07.388,-0.02,-0.02
2021-08-01 02:07:07.392,-0.015,0.0
2021-08-01 02:07:07.396,-0.01,0.0
2021-08-01 02:07:07.400,-0.025,-0.01
2021-08-01 02:07:07.404,0.0,0.01
2021-08-01 02:07:07.408,-0.02,0.0
2021-08-01 02:07:07.412,-0.03,0.005
2021-08-01 02:07:07.416,-0.005,0.0
2021-08-01 02:07:07.420,0.005,-0.005
2021-08-01 02:07:07.424,0.01,-0.015
2021-08-01 02:07:07.428,0.0,-0.015
2021-08-01 02:07:07.432,-0.01,-0.04
2021-08-01 02:07:07.436,0.005,-0.065
2021-08-01 02:07:07.440,-0.005,-0.04
2021-08-01 02:07:07.444,0.005,-0.075
2021-08-01 02:07:07.448,0.01,-0.075
2021-08-01 02:07:07.452,-0.005,-0.1
2021-08-01 02:07:07.456,-0.01,-0.095
2021-08-01 02:07:07.460,-0.005,-0.09
2021-08-01 02:07:07.464,0.0,-0.075
2021-08-01 02:07:07.468,-0.005,-0.075
2021-08-01 02:07:07.472,-0.005,-0.08
2021-08-01 02:07:07.476,-0.01,-0.1
2021-08-01 02:07:07.480,-0.005,-0.09
2021-08-01 02:07:07.484,-0.005,-0.095
2021-08-01 02:07:07.488,0.0,-0.095
2021-08-01 02:07:07.492,-0.005,-0.08
2021-08-01 02:07:07.496,-0.005,-0.08
2021-08-01 02:07:07.500,-0.005,-0.08
2021-08-01 02:07:07.504,0.0,-0.08
2021-08-01 02:07:07.508,-0.015,-0.075
2021-08-01 02:07:07.512,-0.01,-0.075
2021-08-01 02:07:07.516,-0.005,-0.09
2021-08-01 02:07:07.520,-0.005,-0.075
2021-08-01 02:07:07.524,0.0,-0.085
2021-08-01 02:07:07.528,0.0,-0.07
2021-08-01 02:07:07.532,-0.005,-0.1
2021-08-01 02:07:07.536,0.0,-0.095
2021-08-01 02:07:07.540,0.005,-0.085
2021-08-01 02:07:07.544,0.0,-0.075
2021-08-01 02:07:07.548,-0.01,-0.075
2021-08-01 02:07:07.552,0.005,-0.09
2021-08-01 02:07:07.556,0.0,-0.065
2021-08-01 02:07:07.560,0.0,-0.07
2021-08-01 02:07:07.564,-0.01,-0.07
2021-08-01 02:07:07.568,0.01,-0.095
2021-08-01 02:07:07.572,-0.005,-0.1
2021-08-01 02:07:07.576,0.0,-0.1
2021-08-01 02:07:07.580,-0.01,-0.1
2021-08-01 02:07:07.584,-0.01,-0.09
2021-08-01 02:07:07.588,-0.015,-0.085
2021-08-01 02:07:07.592,-0.015,-0.12
2021-08-01 02:07:07.596,-0.015,-0.105
2021-08-01 02:07:07.600,-0.02,-0.12
2021-08-01 02:07:07.604,-0.015,-0.12
2021-08-01 02:07:07.608,0.0,-0.1
2021-08-01 02:07:07.612,-0.015,-0.125
2021-08-01 02:07:07.616,-0.01,-0.115
2021-08-01 02:07:07.620,-0.005,-0.1
2021-08-01 02:07:07.624,-0.005,-0.1
2021-08-01 02:07:07.628,-0.03,-0.08
2021-08-01 02:07:07.632,-0.015,-0.06
2021-08-01 02:07:07.636,-0.005,-0.03
2021-08-01 02:07:07.640,0.0,0.01
2021-08-01 02:07:07.644,0.005,0.04
2021-08-01 02:07:07.648,0.04,0.04
2021-08-01 02:07:07.652,0.045,0.05
2021-08-01 02:07:07.656,0.035,0.055
2021-08-01 02:07:07.660,0.05,0.05
2021-08-01 02:07:07.664,0.055,0.035
2021-08-01 02:07:07.668,0.01,0.01
2021-08-01 02:07:07.672,0.01,-0.02
2021-08-01 02:07:07.676,-0.005,-0.055
2021-08-01 02:07:07.680,-0.01,-0.12
2021-08-01 02:07:07.684,-0.04,-0.165
2021-08-01 02:07:07.688,-0.06,-0.18
2021-08-01 02:07:07.692,-0.095,-0.17
2021-08-01 02:07:07.696,-0.08,-0.145
2021-08-01 02:07:07.700,-0.085,-0.12
2021-08-01 02:07:07.704,-0.075,-0.125
2021-08-01 02:07:07.708,-0.065,-0.125
2021-08-01 02:07:07.712,-0.04,-0.165
2021-08-01 02:07:07.716,-0.025,-0.19
2021-08-01 02:07:07.720,-0.03,-0.185
2021-08-01 02:07:07.724,-0.04,-0.18
2021-08-01 02:07:07.728,-0.03,-0.22
2021-08-01 02:07:07.732,-0.04,-0.24
2021-08-01 02:07:07.736,-0.045,-0.24
2021-08-01 02:07:07.740,-0.055,-0.25
2021-08-01 02:07:07.744,-0.05,-0.245
2021-08-01 02:07:07.748,-0.065,-0.25
2021-08-01 02:07:07.752,-0.075,-0.255
2021-08-01 02:07:07.756,-0.075,-0.25
2021-08-01 02:07:07.760,-0.05,-0.24
2021-08-01 02:07:07.764,-0.085,-0.25
2021-08-01 02:07:07.768,-0.085,-0.235
2021-08-01 02:07:07.772,-0.075,-0.26
2021-08-01 02:07:07.776,-0.07,-0.255
2021-08-01 02:07:07.780,-0.06,-0.255
2021-08-01 02:07:07.784,-0.075,-0.255
2021-08-01 02:07:07.788,-0.075,-0.25
2021-08-01 02:07:07.792,-0.075,-0.245
2021-08-01 02:07:07.796,-0.055,-0.22
2021-08-01 02:07:07.800,-0.06,-0.135
2021-08-01 02:07:07.804,-0.04,0.03
2021-08-01 02:07:07.808,0.0,0.265
2021-08-01 02:07:07.812,0.005,0.495
2021-08-01 02:07:07.816,0.05,0.645
2021-08-01 02:07:07.820,0.145,0.58
2021-08-01 02:07:07.824,0.195,0.33
2021-08-01 02:07:07.828,0.2,-0.065
2021-08-01 02:07:07.832,0.115,-0.615
2021-08-01 02:07:07.836,0.015,-1.005
2021-08-01 02:07:07.840,-0.12,-1.175
2021-08-01 02:07:07.844,-0.31,-1.13
2021-08-01 02:07:07.848,-0.42,-0.96
2021-08-01 02:07:07.852,-0.465,-0.765
2021-08-01 02:07:07.856,-0.415,-0.595
2021-08-01 02:07:07.860,-0.365,-0.475
2021-08-01 02:07:07.864,-0.29,-0.365
2021-08-01 02:07:07.868,-0.205,-0.305
2021-08-01 02:07:07.872,-0.14,-0.29
2021-08-01 02:07:07.876,-0.105,-0.27
2021-08-01 02:07:07.880,-0.07,-0.27
2021-08-01 02:07:07.884,-0.07,-0.26
2021-08-01 02:07:07.888,-0.065,-0.265
2021-08-01 02:07:07.892,-0.075,-0.27
2021-08-01 02:07:07.896,-0.06,-0.265
2021-08-01 02:07:07.900,-0.065,-0.265
2021-08-01 02:07:07.904,-0.075,-0.265
2021-08-01 02:07:07.908,-0.05,-0.26
2021-08-01 02:07:07.912,-0.075,-0.265
2021-08-01 02:07:07.916,-0.055,-0.235
2021-08-01 02:07:07.920,-0.06,-0.25
2021-08-01 02:07:07.924,-0.065,-0.25
2021-08-01 02:07:07.928,-0.05,-0.25
2021-08-01 02:07:07.932,-0.06,-0.24
2021-08-01 02:07:07.936,-0.06,-0.255
2021-08-01 02:07:07.940,-0.045,-0.245
2021-08-01 02:07:07.944,-0.06,-0.25
2021-08-01 02:07:07.948,-0.06,-0.25
2021-08-01 02:07:07.952,-0.055,-0.24
2021-08-01 02:07:07.956,-0.06,-0.235
2021-08-01 02:07:07.960,-0.06,-0.23
2021-08-01 02:07:07.964,-0.05,-0.21
2021-08-01 02:07:07.968,-0.055,-0.225
2021-08-01 02:07:07.972,-0.065,-0.2
2021-08-01 02:07:07.976,-0.065,-0.215
2021-08-01 02:07:07.980,-0.05,-0.2
2021-08-01 02:07:07.984,-0.065,-0.2
2021-08-01 02:07:07.988,-0.055,-0.185
2021-08-01 02:07:07.992,-0.06,-0.175
2021-08-01 02:07:07.996,-0.06,-0.16
2021-08-01 02:07:08.000,-0.06,-0.15
2021-08-01 02:07:08.004,-0.05,-0.16
2021-08-01 02:07:08.008,-0.04,-0.145
2021-08-01 02:07:08.012,-0.06,-0.125
2021-08-01 02:07:08.016,-0.06,-0.125
2021-08-01 02:07:08.020,-0.07,-0.11
2021-08-01 02:07:08.024,-0.035,-0.105
2021-08-01 02:07:08.028,-0.055,-0.11
2021-08-01 02:07:08.032,-0.04,-0.085
2021-08-01 02:07:08.036,-0.045,-0.065
2021-08-01 02:07:08.040,-0.035,-0.06
2021-08-01 02:07:08.044,-0.05,-0.07
2021-08-01 02:07:08.048,-0.04,-0.055
2021-08-01 02:07:08.052,-0.06,-0.055
2021-08-01 02:07:08.056,-0.05,-0.065
2021-08-01 02:07:08.060,-0.045,-0.045
2021-08-01 02:07:08.064,-0.045,-0.035
2021-08-01 02:07:08.068,-0.065,-0.045
2021-08-01 02:07:08.072,-0.035,-0.03
2021-08-01 02:07:08.076,-0.065,-0.015
2021-08-01 02:07:08.080,-0.055,-0.005
2021-08-01 02:07:08.084,-0.06,-0.005
2021-08-01 02:07:08.088,-0.02,-0.025
2021-08-01 02:07:08.092,-0.04,-0.01
2021-08-01 02:07:08.096,-0.045,-0.015
2021-08-01 02:07:08.100,-0.035,0.0
2021-08-01 02:07:08.104,-0.02,-0.025
2021-08-01 02:07:08.108,-0.025,-0.06
2021-08-01 02:07:08.112,-0.02,-0.07
2021-08-01 02:07:08.116,-0.025,-0.06
2021-08-01 02:07:08.120,-0.03,-0.075
2021-08-01 02:07:08.124,-0.02,-0.085
2021-08-01 02:07:08.128,-0.03,-0.1
2021-08-01 02:07:08.132,-0.03,-0.09
2021-08-01 02:07:08.136,-0.02,-0.1
2021-08-01 02:07:08.140,-0.02,-0.1
2021-08-01 02:07:08.144,-0.03,-0.11
2021-08-01 02:07:08.148,-0.045,-0.11
2021-08-01 02:07:08.152,-0.035,-0.115
2021-08-01 02:07:08.156,-0.025,-0.095
2021-08-01 02:07:08.160,-0.025,-0.105
2021-08-01 02:07:08.164,-0.01,-0.105
2021-08-01 02:07:08.168,-0.015,-0.115
2021-08-01 02:07:08.172,-0.045,-0.105
2021-08-01 02:07:08.176,-0.045,-0.11
2021-08-01 02:07:08.180,-0.03,-0.105
2021-08-01 02:07:08.184,-0.035,-0.105
2021-08-01 02:07:08.188,-0.03,-0.115
2021-08-01 02:07:08.192,-0.02,-0.13
2021-08-01 02:07:08.196,-0.03,-0.095
2021-08-01 02:07:08.200,-0.03,-0.095
2021-08-01 02:07:08.204,-0.025,-0.095
2021-08-01 02:07:08.208,-0.025,-0.1
2021-08-01 02:07:08.212,-0.02,-0.1
2021-08-01 02:07:08.216,-0.015,-0.095
2021-08-01 02:07:08.220,0.0,-0.095
2021-08-01 02:07:08.224,-0.025,-0.1
2021-08-01 02:07:08.228,-0.035,-0.11
2021-08-01 02:07:08.232,-0.025,-0.12
2021-08-01 02:07:08.236,-0.01,-0.105
2021-08-01 02:07:08.240,-0.015,-0.105
2021-08-01 02:07:08.244,-0.01,-0.11
2021-08-01 02:07:08.248,-0.005,-0.09
2021-08-01 02:07:08.252,-0.01,-0.1
2021-08-01 02:07:08.256,-0.025,-0.11
2021-08-01 02:07:08.260,-0.03,-0.115
2021-08-01 02:07:08.264,-0.03,-0.115
2021-08-01 02:07:08.268,-0.03,-0.12
2021-08-01 02:07:08.272,-0.035,-0.115
2021-08-01 02:07:08.276,-0.01,-0.105
2021-08-01 02:07:08.280,-0.02,-0.115
2021-08-01 02:07:08.284,-0.025,-0.125
2021-08-01 02:07:08.288,-0.04,-0.13
2021-08-01 02:07:08.292,-0.03,-0.125
2021-08-01 02:07:08.296,-0.035,-0.115
2021-08-01 02:07:08.300,-0.04,-0.11
2021-08-01 02:07:08.304,-0.035,-0.1
2021-08-01 02:07:08.308,-0.035,-0.07
2021-08-01 02:07:08.312,-0.025,-0.035
2021-08-01 02:07:08.316,-0.03,-0.02
2021-08-01 02:07:08.320,-0.005,0.025
2021-08-01 02:07:08.324,-0.02,0.035
2021-08-01 02:07:08.328,0.005,0.03
2021-08-01 02:07:08.332,0.04,0.045
2021-08-01 02:07:08.336,0.04,0.055
2021-08-01 02:07:08.340,0.035,0.05
2021-08-01 02:07:08.344,0.04,0.04
2021-08-01 02:07:08.348,0.02,0.005
2021-08-01 02:07:08.352,0.0,-0.035
2021-08-01 02:07:08.356,-0.015,-0.075
2021-08-01 02:07:08.360,-0.05,-0.14
2021-08-01 02:07:08.364,-0.075,-0.16
2021-08-01 02:07:08.368,-0.075,-0.175
2021-08-01 02:07:08.372,-0.1,-0.155
2021-08-01 02:07:08.376,-0.09,-0.145
2021-08-01 02:07:08.380,-0.095,-0.115
2021-08-01 02:07:08.384,-0.07,-0.16
2021-08-01 02:07:08.388,-0.06,-0.175
2021-08-01 02:07:08.392,-0.035,-0.185
2021-08-01 02:07:08.396,-0.055,-0.205
2021-08-01 02:07:08.400,-0.05,-0.215
2021-08-01 02:07:08.404,-0.035,-0.22
2021-08-01 02:07:08.408,-0.06,-0.235
2021-08-01 02:07:08.412,-0.065,-0.245
2021-08-01 02:07:08.416,-0.07,-0.25
2021-08-01 02:07:08.420,-0.075,-0.24
2021-08-01 02:07:08.424,-0.08,-0.27
2021-08-01 02:07:08.428,-0.06,-0.26
2021-08-01 02:07:08.432,-0.07,-0.245
2021-08-01 02:07:08.436,-0.07,-0.24
2021-08-01 02:07:08.440,-0.08,-0.24
2021-08-01 02:07:08.444,-0.085,-0.255
2021-08-01 02:07:08.448,-0.09,-0.25
2021-08-01 02:07:08.452,-0.09,-0.255
2021-08-01 02:07:08.456,-0.07,-0.235
2021-08-01 02:07:08.460,-0.08,-0.24
2021-08-01 02:07:08.464,-0.07,-0.255
2021-08-01 02:07:08.468,-0.07,-0.26
2021-08-01 02:07:08.472,-0.08,-0.23
2021-08-01 02:07:08.476,-0.08,-0.19
2021-08-01 02:07:08.480,-0.06,-0.13
2021-08-01 02:07:08.484,-0.06,0.06
2021-08-01 02:07:08.488,-0.055,0.28
2021-08-01 02:07:08.492,-0.045,0.49
2021-08-01 02:07:08.496,0.02,0.53
2021-08-01 02:07:08.500,0.095,0.385
2021-08-01 02:07:08.504,0.13,0.06
2021-08-01 02:07:08.508,0.15,-0.435
2021-08-01 02:07:08.512,0.13,-0.91
2021-08-01 02:07:08.516,0.065,-1.13
2021-08-01 02:07:08.520,-0.04,-1.17
2021-08-01 02:07:08.524,-0.2,-1.065
2021-08-01 02:07:08.528,-0.31,-0.895
2021-08-01 02:07:08.532,-0.375,-0.765
2021-08-01 02:07:08.536,-0.37,-0.61
2021-08-01 02:07:08.540,-0.355,-0.485
2021-08-01 02:07:08.544,-0.315,-0.385
2021-08-01 02:07:08.548,-0.24,-0.29
2021-08-01 02:07:08.552,-0.185,-0.27
2021-08-01 02:07:08.556,-0.14,-0.255
2021-08-01 02:07:08.560,-0.09,-0.275
2021-08-01 02:07:08.564,-0.08,-0.265
2021-08-01 02:07:08.568,-0.1,-0.265
2021-08-01 02:07:08.572,-0.085,-0.255
2021-08-01 02:07:08.576,-0.09,-0.245
2021-08-01 02:07:08.580,-0.095,-0.255
2021-08-01 02:07:08.584,-0.105,-0.255
2021-08-01 02:07:08.588,-0.095,-0.255
2021-08-01 02:07:08.592,-0.105,-0.245
2021-08-01 02:07:08.596,-0.11,-0.255
2021-08-01 02:07:08.600,-0.105,-0.265
2021-08-01 02:07:08.604,-0.09,-0.27
2021-08-01 02:07:08.608,-0.09,-0.255
2021-08-01 02:07:08.612,-0.095,-0.255
2021-08-01 02:07:08.616,-0.095,-0.25
2021-08-01 02:07:08.620,-0.1,-0.245
2021-08-01 02:07:08.624,-0.095,-0.255
2021-08-01 02:07:08.628,-0.1,-0.25
2021-08-01 02:07:08.632,-0.095,-0.255
2021-08-01 02:07:08.636,-0.1,-0.24
2021-08-01 02:07:08.640,-0.12,-0.25
2021-08-01 02:07:08.644,-0.11,-0.26
2021-08-01 02:07:08.648,-0.115,-0.24
2021-08-01 02:07:08.652,-0.12,-0.22
2021-08-01 02:07:08.656,-0.09,-0.24
2021-08-01 02:07:08.660,-0.09,-0.235
2021-08-01 02:07:08.664,-0.115,-0.22
2021-08-01 02:07:08.668,-0.115,-0.225
2021-08-01 02:07:08.672,-0.1,-0.22
2021-08-01 02:07:08.676,-0.12,-0.21
2021-08-01 02:07:08.680,-0.12,-0.23
2021-08-01 02:07:08.684,-0.135,-0.21
2021-08-01 02:07:08.688,-0.105,-0.195
2021-08-01 02:07:08.692,-0.115,-0.19
2021-08-01 02:07:08.696,-0.12,-0.18
2021-08-01 02:07:08.700,-0.105,-0.18
2021-08-01 02:07:08.704,-0.125,-0.16
2021-08-01 02:07:08.708,-0.105,-0.17
2021-08-01 02:07:08.712,-0.115,-0.155
2021-08-01 02:07:08.716,-0.13,-0.145
2021-08-01 02:07:08.720,-0.12,-0.155
2021-08-01 02:07:08.724,-0.1,-0.16
2021-08-01 02:07:08.728,-0.115,-0.145
2021-08-01 02:07:08.732,-0.1,-0.115
2021-08-01 02:07:08.736,-0.12,-0.125
2021-08-01 02:07:08.740,-0.11,-0.145
2021-08-01 02:07:08.744,-0.13,-0.125
2021-08-01 02:07:08.748,-0.11,-0.125
2021-08-01 02:07:08.752,-0.115,-0.125
2021-08-01 02:07:08.756,-0.11,-0.105
2021-08-01 02:07:08.760,-0.12,-0.11
2021-08-01 02:07:08.764,-0.115,-0.11
2021-08-01 02:07:08.768,-0.105,-0.1
2021-08-01 02:07:08.772,-0.09,-0.085
2021-08-01 02:07:08.776,-0.105,-0.085
2021-08-01 02:07:08.780,-0.1,-0.09
2021-08-01 02:07:08.784,-0.09,-0.095
2021-08-01 02:07:08.788,-0.1,-0.11
2021-08-01 02:07:08.792,-0.08,-0.125
2021-08-01 02:07:08.796,-0.075,-0.125
2021-08-01 02:07:08.800,-0.08,-0.14
2021-08-01 02:07:08.804,-0.07,-0.155
2021-08-01 02:07:08.808,-0.055,-0.155
2021-08-01 02:07:08.812,-0.065,-0.15
2021-08-01 02:07:08.816,-0.065,-0.155
2021-08-01 02:07:08.820,-0.06,-0.165
2021-08-01 02:07:08.824,-0.05,-0.17
2021-08-01 02:07:08.828,-0.06,-0.16
2021-08-01 02:07:08.832,-0.075,-0.15
2021-08-01 02:07:08.836,-0.06,-0.175
2021-08-01 02:07:08.840,-0.07,-0.175
2021-08-01 02:07:08.844,-0.07,-0.155
2021-08-01 02:07:08.848,-0.06,-0.155
2021-08-01 02:07:08.852,-0.055,-0.145
2021-08-01 02:07:08.856,-0.075,-0.12
2021-08-01 02:07:08.860,-0.06,-0.14
2021-08-01 02:07:08.864,-0.055,-0.14
2021-08-01 02:07:08.868,-0.055,-0.13
2021-08-01 02:07:08.872,-0.07,-0.115
2021-08-01 02:07:08.876,-0.06,-0.125
2021-08-01 02:07:08.880,-0.06,-0.14
2021-08-01 02:07:08.884,-0.055,-0.135
2021-08-01 02:07:08.888,-0.08,-0.14
2021-08-01 02:07:08.892,-0.07,-0.125
2021-08-01 02:07:08.896,-0.06,-0.125
2021-08-01 02:07:08.900,-0.065,-0.135
2021-08-01 02:07:08.904,-0.05,-0.12
2021-08-01 02:07:08.908,-0.06,-0.13
2021-08-01 02:07:08.912,-0.065,-0.105
2021-08-01 02:07:08.916,-0.085,-0.11
2021-08-01 02:07:08.920,-0.065,-0.14
2021-08-01 02:07:08.924,-0.055,-0.135
2021-08-01 02:07:08.928,-0.06,-0.13
2021-08-01 02:07:08.932,-0.055,-0.14
2021-08-01 02:07:08.936,-0.075,-0.14
2021-08-01 02:07:08.940,-0.085,-0.14
2021-08-01 02:07:08.944,-0.08,-0.135
2021-08-01 02:07:08.948,-0.085,-0.11
2021-08-01 02:07:08.952,-0.08,-0.125
2021-08-01 02:07:08.956,-0.065,-0.14
2021-08-01 02:07:08.960,-0.07,-0.145
2021-08-01 02:07:08.964,-0.095,-0.13
2021-08-01 02:07:08.968,-0.095,-0.14
2021-08-01 02:07:08.972,-0.05,-0.15
2021-08-01 02:07:08.976,-0.075,-0.11
2021-08-01 02:07:08.980,-0.075,-0.095
2021-08-01 02:07:08.984,-0.085,-0.07
2021-08-01 02:07:08.988,-0.06,-0.05
2021-08-01 02:07:08.992,-0.045,-0.015
2021-08-01 02:07:08.996,-0.015,0.01
2021-08-01 02:07:09.000,-0.005,0.0
2021-08-01 02:07:09.004,0.005,0.015
2021-08-01 02:07:09.008,0.005,0.045
2021-08-01 02:07:09.012,0.035,0.05
2021-08-01 02:07:09.016,0.01,0.035
2021-08-01 02:07:09.020,0.015,-0.01
2021-08-01 02:07:09.024,-0.005,-0.06
2021-08-01 02:07:09.028,-0.025,-0.09
2021-08-01 02:07:09.032,-0.06,-0.13
2021-08-01 02:07:09.036,-0.08,-0.205
2021-08-01 02:07:09.040,-0.1,-0.2
2021-08-01 02:07:09.044,-0.125,-0.185
2021-08-01 02:07:09.048,-0.14,-0.16
2021-08-01 02:07:09.052,-0.12,-0.14
2021-08-01 02:07:09.056,-0.105,-0.145
2021-08-01 02:07:09.060,-0.08,-0.17
2021-08-01 02:07:09.064,-0.085,-0.2
2021-08-01 02:07:09.068,-0.08,-0.205
2021-08-01 02:07:09.072,-0.095,-0.2
2021-08-01 02:07:09.076,-0.07,-0.225
2021-08-01 02:07:09.080,-0.085,-0.245
2021-08-01 02:07:09.084,-0.08,-0.255
2021-08-01 02:07:09.088,-0.08,-0.265
2021-08-01 02:07:09.092,-0.095,-0.255
2021-08-01 02:07:09.096,-0.125,-0.26
2021-08-01 02:07:09.100,-0.105,-0.26
2021-08-01 02:07:09.104,-0.11,-0.255
2021-08-01 02:07:09.108,-0.115,-0.26
2021-08-01 02:07:09.112,-0.115,-0.255
2021-08-01 02:07:09.116,-0.11,-0.26
2021-08-01 02:07:09.120,-0.105,-0.26
2021-08-01 02:07:09.124,-0.1,-0.255
2021-08-01 02:07:09.128,-0.105,-0.255
2021-08-01 02:07:09.132,-0.075,-0.26
2021-08-01 02:07:09.136,-0.085,-0.265
2021-08-01 02:07:09.140,-0.09,-0.265
2021-08-01 02:07:09.144,-0.1,-0.245
2021-08-01 02:07:09.148,-0.085,-0.23
2021-08-01 02:07:09.152,-0.09,-0.18
2021-08-01 02:07:09.156,-0.06,-0.05
2021-08-01 02:07:09.160,-0.045,0.16
2021-08-01 02:07:09.164,-0.03,0.42
2021-08-01 02:07:09.168,-0.005,0.61
2021-08-01 02:07:09.172,0.07,0.605
2021-08-01 02:07:09.176,0.145,0.43
2021-08-01 02:07:09.180,0.19,0.07
2021-08-01 02:07:09.184,0.17,-0.415
2021-08-01 02:07:09.188,0.115,-0.885
2021-08-01 02:07:09.192,0.015,-1.095
2021-08-01 02:07:09.196,-0.11,-1.15
2021-08-01 02:07:09.200,-0.255,-1.06
2021-08-01 02:07:09.204,-0.355,-0.895
2021-08-01 02:07:09.208,-0.395,-0.75
2021-08-01 02:07:09.212,-0.34,-0.615
2021-08-01 02:07:09.216,-0.35,-0.515
2021-08-01 02:07:09.220,-0.315,-0.39
2021-08-01 02:07:09.224,-0.25,-0.305
2021-08-01 02:07:09.228,-0.165,-0.255
2021-08-01 02:07:09.232,-0.12,-0.25
2021-08-01 02:07:09.236,-0.08,-0.26
2021-08-01 02:07:09.240,-0.075,-0.25
2021-08-01 02:07:09.244,-0.075,-0.26
2021-08-01 02:07:09.248,-0.08,-0.24
2021-08-01 02:07:09.252,-0.065,-0.255
2021-08-01 02:07:09.256,-0.07,-0.25
2021-08-01 02:07:09.260,-0.065,-0.245
2021-08-01 02:07:09.264,-0.06,-0.23
2021-08-01 02:07:09.268,-0.055,-0.235
2021-08-01 02:07:09.272,-0.07,-0.24
2021-08-01 02:07:09.276,-0.08,-0.24
2021-08-01 02:07:09.280,-0.075,-0.235
2021-08-01 02:07:09.284,-0.055,-0.22
2021-08-01 02:07:09.288,-0.065,-0.225
2021-08-01 02:07:09.292,-0.085,-0.235
2021-08-01 02:07:09.296,-0.06,-0.245
2021-08-01 02:07:09.300,-0.075,-0.22
2021-08-01 02:07:09.304,-0.085,-0.22
2021-08-01 02:07:09.308,-0.085,-0.21
2021-08-01 02:07:09.312,-0.075,-0.215
2021-08-01 02:07:09.316,-0.07,-0.22
2021-08-01 02:07:09.320,-0.08,-0.21
2021-08-01 02:07:09.324,-0.075,-0.2
2021-08-01 02:07:09.328,-0.06,-0.2
2021-08-01 02:07:09.332,-0.07,-0.19
2021-08-01 02:07:09.336,-0.065,-0.185
2021-08-01 02:07:09.340,-0.05,-0.195
2021-08-01 02:07:09.344,-0.075,-0.18
2021-08-01 02:07:09.348,-0.07,-0.16
2021-08-01 02:07:09.352,-0.085,-0.165
2021-08-01 02:07:09.356,-0.075,-0.15
2021-08-01 02:07:09.360,-0.1,-0.15
2021-08-01 02:07:09.364,-0.065,-0.15
2021-08-01 02:07:09.368,-0.08,-0.12
2021-08-01 02:07:09.372,-0.075,-0.11
2021-08-01 02:07:09.376,-0.08,-0.12
2021-08-01 02:07:09.380,-0.06,-0.115
2021-08-01 02:07:09.384,-0.055,-0.115
2021-08-01 02:07:09.388,-0.055,-0.09
2021-08-01 02:07:09.392,-0.08,-0.095
2021-08-01 02:07:09.396,-0.08,-0.09
2021-08-01 02:07:09.400,-0.075,-0.09
2021-08-01 02:07:09.404,-0.065,-0.085
2021-08-01 02:07:09.408,-0.065,-0.085
2021-08-01 02:07:09.412,-0.06,-0.075
2021-08-01 02:07:09.416,-0.06,-0.06
2021-08-01 02:07:09.420,-0.045,-0.075
2021-08-01 02:07:09.424,-0.055,-0.05
2021-08-01 02:07:09.428,-0.055,-0.055
2021-08-01 02:07:09.432,-0.06,-0.065
2021-08-01 02:07:09.436,-0.04,-0.05
2021-08-01 02:07:09.440,-0.045,-0.045
2021-08-01 02:07:09.444,-0.045,-0.035
2021-08-01 02:07:09.448,-0.055,-0.04
2021-08-01 02:07:09.452,-0.02,-0.035
2021-08-01 02:07:09.456,-0.05,-0.055
2021-08-01 02:07:09.460,-0.04,-0.06
2021-08-01 02:07:09.464,-0.025,-0.075
2021-08-01 02:07:09.468,-0.04,-0.06
2021-08-01 02:07:09.472,-0.03,-0.09
2021-08-01 02:07:09.476,-0.015,-0.11
2021-08-01 02:07:09.480,-0.025,-0.11
2021-08-01 02:07:09.484,-0.02,-0.095
2021-08-01 02:07:09.488,-0.04,-0.105
2021-08-01 02:07:09.492,-0.035,-0.115
2021-08-01 02:07:09.496,-0.035,-0.115
2021-08-01 02:07:09.500,-0.04,-0.12
2021-08-01 02:07:09.504,-0.025,-0.115
2021-08-01 02:07:09.508,-0.045,-0.1
2021-08-01 02:07:09.512,-0.05,-0.105
2021-08-01 02:07:09.516,-0.015,-0.12
2021-08-01 02:07:09.520,-0.03,-0.105
2021-08-01 02:07:09.524,-0.05,-0.095
2021-08-01 02:07:09.528,-0.02,-0.095
2021-08-01 02:07:09.532,-0.01,-0.09
2021-08-01 02:07:09.536,-0.025,-0.085
2021-08-01 02:07:09.540,-0.03,-0.085
2021-08-01 02:07:09.544,-0.01,-0.1
2021-08-01 02:07:09.548,-0.03,-0.09
2021-08-01 02:07:09.552,-0.02,-0.09
2021-08-01 02:07:09.556,-0.01,-0.095
2021-08-01 02:07:09.560,-0.015,-0.065
2021-08-01 02:07:09.564,-0.045,-0.07
2021-08-01 02:07:09.568,-0.02,-0.07
2021-08-01 02:07:09.572,-0.02,-0.085
2021-08-01 02:07:09.576,-0.015,-0.085
2021-08-01 02:07:09.580,-0.04,-0.075
2021-08-01 02:07:09.584,-0.005,-0.065
2021-08-01 02:07:09.588,-0.02,-0.07
2021-08-01 02:07:09.592,-0.02,-0.085
2021-08-01 02:07:09.596,-0.01,-0.095
2021-08-01 02:07:09.600,-0.02,-0.09
2021-08-01 02:07:09.604,-0.03,-0.085
2021-08-01 02:07:09.608,-0.035,-0.09
2021-08-01 02:07:09.612,-0.025,-0.095
2021-08-01 02:07:09.616,-0.04,-0.105
2021-08-01 02:07:09.620,-0.025,-0.1
2021-08-01 02:07:09.624,-0.02,-0.105
2021-08-01 02:07:09.628,-0.02,-0.11
2021-08-01 02:07:09.632,-0.035,-0.12
2021-08-01 02:07:09.636,-0.03,-0.11
2021-08-01 02:07:09.640,-0.025,-0.115
2021-08-01 02:07:09.644,-0.03,-0.1
2021-08-01 02:07:09.648,-0.03,-0.09
2021-08-01 02:07:09.652,-0.03,-0.08
2021-08-01 02:07:09.656,-0.04,-0.035
2021-08-01 02:07:09.660,-0.03,-0.025
2021-08-01 02:07:09.664,-0.015,0.005
2021-08-01 02:07:09.668,0.0,0.04
2021-08-01 02:07:09.672,0.005,0.03
2021-08-01 02:07:09.676,0.035,0.03
2021-08-01 02:07:09.680,0.025,0.05
2021-08-01 02:07:09.684,0.035,0.06
2021-08-01 02:07:09.688,0.02,0.05
2021-08-01 02:07:09.692,0.025,0.015
2021-08-01 02:07:09.696,0.0,-0.005
2021-08-01 02:07:09.700,-0.015,-0.065
2021-08-01 02:07:09.704,-0.045,-0.105
2021-08-01 02:07:09.708,-0.04,-0.155
2021-08-01 02:07:09.712,-0.08,-0.185
2021-08-01 02:07:09.716,-0.085,-0.17
2021-08-01 02:07:09.720,-0.09,-0.15
2021-08-01 02:07:09.724,-0.11,-0.12
2021-08-01 02:07:09.728,-0.095,-0.12
2021-08-01 02:07:09.732,-0.065,-0.14
2021-08-01 02:07:09.736,-0.075,-0.16
2021-08-01 02:07:09.740,-0.055,-0.18
2021-08-01 02:07:09.744,-0.03,-0.18
2021-08-01 02:07:09.748,-0.04,-0.195
2021-08-01 02:07:09.752,-0.06,-0.205
2021-08-01 02:07:09.756,-0.08,-0.245
2021-08-01 02:07:09.760,-0.07,-0.255
2021-08-01 02:07:09.764,-0.08,-0.255
2021-08-01 02:07:09.768,-0.09,-0.235
2021-08-01 02:07:09.772,-0.07,-0.24
2021-08-01 02:07:09.776,-0.09,-0.245
2021-08-01 02:07:09.780,-0.09,-0.24
2021-08-01 02:07:09.784,-0.095,-0.255
2021-08-01 02:07:09.788,-0.085,-0.245
2021-08-01 02:07:09.792,-0.09,-0.23
2021-08-01 02:07:09.796,-0.095,-0.24
2021-08-01 02:07:09.800,-0.08,-0.25
2021-08-01 02:07:09.804,-0.085,-0.235
2021-08-01 02:07:09.808,-0.06,-0.24
2021-08-01 02:07:09.812,-0.095,-0.25
2021-08-01 02:07:09.816,-0.07,-0.245
2021-08-01 02:07:09.820,-0.085,-0.21
2021-08-01 02:07:09.824,-0.07,-0.125
2021-08-01 02:07:09.828,-0.05,0.02
2021-08-01 02:07:09.832,-0.04,0.26
2021-08-01 02:07:09.836,-0.01,0.49
2021-08-01 02:07:09.840,0.03,0.645
2021-08-01 02:07:09.844,0.11,0.59
2021-08-01 02:07:09.848,0.165,0.37
2021-08-01 02:07:09.852,0.18,-0.005
2021-08-01 02:07:09.856,0.11,-0.525
2021-08-01 02:07:09.860,0.02,-0.955
2021-08-01 02:07:09.864,-0.12,-1.13
2021-08-01 02:07:09.868,-0.29,-1.13
2021-08-01 02:07:09.872,-0.41,-1.0
2021-08-01 02:07:09.876,-0.465,-0.81
2021-08-01 02:07:09.880,-0.45,-0.64
2021-08-01 02:07:09.884,-0.41,-0.5
2021-08-01 02:07:09.888,-0.345,-0.37
2021-08-01 02:07:09.892,-0.265,-0.315
2021-08-01 02:07:09.896,-0.18,-0.29
2021-08-01 02:07:09.900,-0.12,-0.275
2021-08-01 02:07:09.904,-0.105,-0.255
2021-08-01 02:07:09.908,-0.08,-0.26
2021-08-01 02:07:09.912,-0.075,-0.255
2021-08-01 02:07:09.916,-0.08,-0.255
2021-08-01 02:07:09.920,-0.07,-0.26
2021-08-01 02:07:09.924,-0.065,-0.26
2021-08-01 02:07:09.928,-0.07,-0.26
2021-08-01 02:07:09.932,-0.09,-0.255
2021-08-01 02:07:09.936,-0.075,-0.26
2021-08-01 02:07:09.940,-0.07,-0.255
2021-08-01 02:07:09.944,-0.07,-0.24
2021-08-01 02:07:09.948,-0.085,-0.245
2021-08-01 02:07:09.952,-0.08,-0.24
2021-08-01 02:07:09.956,-0.05,-0.235
2021-08-01 02:07:09.960,-0.08,-0.23
2021-08-01 02:07:09.964,-0.07,-0.24
2021-08-01 02:07:09.968,-0.07,-0.23
2021-08-01 02:07:09.972,-0.08,-0.225
2021-08-01 02:07:09.976,-0.095,-0.215
2021-08-01 02:07:09.980,-0.06,-0.22
2021-08-01 02:07:09.984,-0.08,-0.21
2021-08-01 02:07:09.988,-0.065,-0.205
2021-08-01 02:07:09.992,-0.075,-0.195
2021-08-01 02:07:09.996,-0.08,-0.2
2021-08-01 02:07:10.000,-0.075,-0.185
2021-08-01 02:07:10.004,-0.065,-0.2
2021-08-01 02:07:10.008,-0.07,-0.18
2021-08-01 02:07:10.012,-0.06,-0.18
2021-08-01 02:07:10.016,-0.08,-0.155
2021-08-01 02:07:10.020,-0.055,-0.16
2021-08-01 02:07:10.024,-0.07,-0.125
2021-08-01 02:07:10.028,-0.065,-0.125
2021-08-01 02:07:10.032,-0.06,-0.15
2021-08-01 02:07:10.036,-0.05,-0.12
2021-08-01 02:07:10.040,-0.06,-0.1
2021-08-01 02:07:10.044,-0.06,-0.115
2021-08-01 02:07:10.048,-0.06,-0.085
2021-08-01 02:07:10.052,-0.05,-0.07
2021-08-01 02:07:10.056,-0.055,-0.075
2021-08-01 02:07:10.060,-0.07,-0.07
2021-08-01 02:07:10.064,-0.045,-0.055
2021-08-01 02:07:10.068,-0.05,-0.055
2021-08-01 02:07:10.072,-0.045,-0.05
2021-08-01 02:07:10.076,-0.05,-0.055
2021-08-01 02:07:10.080,-0.05,-0.045
2021-08-01 02:07:10.084,-0.04,-0.035
2021-08-01 02:07:10.088,-0.035,-0.02
2021-08-01 02:07:10.092,-0.045,0.0
2021-08-01 02:07:10.096,-0.04,-0.02
2021-08-01 02:07:10.100,-0.035,-0.005
2021-08-01 02:07:10.104,-0.035,-0.015
2021-08-01 02:07:10.108,-0.04,-0.005
2021-08-01 02:07:10.112,-0.03,-0.01
2021-08-01 02:07:10.116,-0.02,-0.04
2021-08-01 02:07:10.120,-0.03,-0.015
2021-08-01 02:07:10.124,-0.035,-0.015
2021-08-01 02:07:10.128,-0.015,-0.025
2021-08-01 02:07:10.132,-0.02,-0.04
2021-08-01 02:07:10.136,-0.01,-0.065
2021-08-01 02:07:10.140,-0.005,-0.065
2021-08-01 02:07:10.144,-0.01,-0.075
2021-08-01 02:07:10.148,-0.005,-0.08
2021-08-01 02:07:10.152,-0.005,-0.1
2021-08-01 02:07:10.156,-0.01,-0.105
2021-08-01 02:07:10.160,-0.03,-0.1
2021-08-01 02:07:10.164,-0.01,-0.08
2021-08-01 02:07:10.168,-0.02,-0.1
2021-08-01 02:07:10.172,-0.01,-0.115
2021-08-01 02:07:10.176,-0.015,-0.105
2021-08-01 02:07:10.180,-0.005,-0.1
2021-08-01 02:07:10.184,0.0,-0.085
2021-08-01 02:07:10.188,-0.005,-0.095
2021-08-01 02:07:10.192,-0.02,-0.11
2021-08-01 02:07:10.196,0.005,-0.095
2021-08-01 02:07:10.200,-0.005,-0.1
2021-08-01 02:07:10.204,-0.01,-0.095
2021-08-01 02:07:10.208,0.005,-0.095
2021-08-01 02:07:10.212,0.0,-0.085
2021-08-01 02:07:10.216,0.0,-0.08
2021-08-01 02:07:10.220,0.01,-0.1
2021-08-01 02:07:10.224,0.0,-0.095
2021-08-01 02:07:10.228,0.01,-0.08
2021-08-01 02:07:10.232,-0.01,-0.1
2021-08-01 02:07:10.236,0.005,-0.1
2021-08-01 02:07:10.240,0.0,-0.08
2021-08-01 02:07:10.244,0.005,-0.1
2021-08-01 02:07:10.248,0.005,-0.09
2021-08-01 02:07:10.252,0.0,-0.095
2021-08-01 02:07:10.256,0.005,-0.09
2021-08-01 02:07:10.260,-0.005,-0.105
2021-08-01 02:07:10.264,0.02,-0.085
2021-08-01 02:07:10.268,0.005,-0.085
2021-08-01 02:07:10.272,0.0,-0.095
2021-08-01 02:07:10.276,0.005,-0.105
2021-08-01 02:07:10.280,0.01,-0.095
2021-08-01 02:07:10.284,0.005,-0.08
2021-08-01 02:07:10.288,0.0,-0.095
2021-08-01 02:07:10.292,0.01,-0.115
2021-08-01 02:07:10.296,0.0,-0.12
2021-08-01 02:07:10.300,-0.015,-0.1
2021-08-01 02:07:10.304,0.0,-0.11
2021-08-01 02:07:10.308,-0.01,-0.105
2021-08-01 02:07:10.312,-0.01,-0.12
2021-08-01 02:07:10.316,0.01,-0.12
2021-08-01 02:07:10.320,-0.015,-0.1
2021-08-01 02:07:10.324,-0.005,-0.105
2021-08-01 02:07:10.328,-0.005,-0.085
2021-08-01 02:07:10.332,-0.01,-0.065
2021-08-01 02:07:10.336,0.0,-0.03
2021-08-01 02:07:10.340,0.03,0.01
2021-08-01 02:07:10.344,0.025,0.035
2021-08-01 02:07:10.348,0.065,0.03
2021-08-01 02:07:10.352,0.07,0.03
2021-08-01 02:07:10.356,0.085,0.05
2021-08-01 02:07:10.360,0.08,0.055
2021-08-01 02:07:10.364,0.075,0.045
2021-08-01 02:07:10.368,0.065,0.015
2021-08-01 02:07:10.372,0.045,-0.01
2021-08-01 02:07:10.376,0.025,-0.055
2021-08-01 02:07:10.380,0.0,-0.125
2021-08-01 02:07:10.384,-0.03,-0.155
2021-08-01 02:07:10.388,-0.025,-0.165
2021-08-01 02:07:10.392,-0.06,-0.145
2021-08-01 02:07:10.396,-0.055,-0.13
2021-08-01 02:07:10.400,-0.06,-0.12
2021-08-01 02:07:10.404,-0.05,-0.125
2021-08-01 02:07:10.408,-0.05,-0.12
2021-08-01 02:07:10.412,-0.03,-0.165
2021-08-01 02:07:10.416,-0.02,-0.17
2021-08-01 02:07:10.420,-0.02,-0.155
2021-08-01 02:07:10.424,-0.01,-0.18
2021-08-01 02:07:10.428,-0.02,-0.22
2021-08-01 02:07:10.432,-0.02,-0.22
2021-08-01 02:07:10.436,-0.025,-0.225
2021-08-01 02:07:10.440,-0.045,-0.215
2021-08-01 02:07:10.444,-0.03,-0.22
2021-08-01 02:07:10.448,-0.05,-0.215
2021-08-01 02:07:10.452,-0.04,-0.23
2021-08-01 02:07:10.456,-0.055,-0.21
2021-08-01 02:07:10.460,-0.055,-0.22
2021-08-01 02:07:10.464,-0.06,-0.225
2021-08-01 02:07:10.468,-0.055,-0.225
2021-08-01 02:07:10.472,-0.06,-0.23
2021-08-01 02:07:10.476,-0.055,-0.22
2021-08-01 02:07:10.480,-0.04,-0.205
2021-08-01 02:07:10.484,-0.05,-0.205
2021-08-01 02:07:10.488,-0.04,-0.195
2021-08-01 02:07:10.492,-0.045,-0.22
2021-08-01 02:07:10.496,-0.035,-0.195
2021-08-01 02:07:10.500,-0.04,-0.13
2021-08-01 02:07:10.504,-0.03,0.0
2021-08-01 02:07:10.508,-0.015,0.215
2021-08-01 02:07:10.512,0.0,0.435
2021-08-01 02:07:10.516,0.05,0.63
2021-08-01 02:07:10.520,0.11,0.605
2021-08-01 02:07:10.524,0.195,0.395
2021-08-01 02:07:10.528,0.195,0.02
2021-08-01 02:07:10.532,0.18,-0.51
2021-08-01 02:07:10.536,0.12,-0.93
2021-08-01 02:07:10.540,0.045,-1.1
2021-08-01 02:07:10.544,-0.11,-1.12
2021-08-01 02:07:10.548,-0.285,-0.985
2021-08-01 02:07:10.552,-0.35,-0.82
2021-08-01 02:07:10.556,-0.405,-0.65
2021-08-01 02:07:10.560,-0.37,-0.53
2021-08-01 02:07:10.564,-0.325,-0.41
2021-08-01 02:07:10.568,-0.255,-0.285
2021-08-01 02:07:10.572,-0.18,-0.265
2021-08-01 02:07:10.576,-0.13,-0.245
2021-08-01 02:07:10.580,-0.08,-0.23
2021-08-01 02:07:10.584,-0.08,-0.245
2021-08-01 02:07:10.588,-0.06,-0.255
2021-08-01 02:07:10.592,-0.065,-0.245
2021-08-01 02:07:10.596,-0.065,-0.235
2021-08-01 02:07:10.600,-0.08,-0.23
2021-08-01 02:07:10.604,-0.06,-0.22
2021-08-01 02:07:10.608,-0.075,-0.22
2021-08-01 02:07:10.612,-0.075,-0.22
2021-08-01 02:07:10.616,-0.07,-0.235
2021-08-01 02:07:10.620,-0.065,-0.22
2021-08-01 02:07:10.624,-0.07,-0.22
2021-08-01 02:07:10.628,-0.075,-0.24
2021-08-01 02:07:10.632,-0.075,-0.25
2021-08-01 02:07:10.636,-0.05,-0.215
2021-08-01 02:07:10.640,-0.08,-0.215
2021-08-01 02:07:10.644,-0.06,-0.215
2021-08-01 02:07:10.648,-0.06,-0.22
2021-08-01 02:07:10.652,-0.06,-0.22
2021-08-01 02:07:10.656,-0.055,-0.22
2021-08-01 02:07:10.660,-0.065,-0.24
2021-08-01 02:07:10.664,-0.06,-0.205
2021-08-01 02:07:10.668,-0.08,-0.21
2021-08-01 02:07:10.672,-0.07,-0.22
2021-08-01 02:07:10.676,-0.075,-0.2
2021-08-01 02:07:10.680,-0.065,-0.2
2021-08-01 02:07:10.684,-0.065,-0.185
2021-08-01 02:07:10.688,-0.075,-0.175
2021-08-01 02:07:10.692,-0.08,-0.185
2021-08-01 02:07:10.696,-0.07,-0.185
2021-08-01 02:07:10.700,-0.06,-0.175
2021-08-01 02:07:10.704,-0.085,-0.155
2021-08-01 02:07:10.708,-0.085,-0.165
2021-08-01 02:07:10.712,-0.085,-0.17
2021-08-01 02:07:10.716,-0.085,-0.135
2021-08-01 02:07:10.720,-0.075,-0.125
2021-08-01 02:07:10.724,-0.075,-0.11
2021-08-01 02:07:10.728,-0.07,-0.125
2021-08-01 02:07:10.732,-0.075,-0.12
2021-08-01 02:07:10.736,-0.08,-0.095
2021-08-01 02:07:10.740,-0.075,-0.075
2021-08-01 02:07:10.744,-0.085,-0.095
2021-08-01 02:07:10.748,-0.08,-0.09
2021-08-01 02:07:10.752,-0.06,-0.095
2021-08-01 02:07:10.756,-0.07,-0.075
2021-08-01 02:07:10.760,-0.06,-0.08
2021-08-01 02:07:10.764,-0.09,-0.085
2021-08-01 02:07:10.768,-0.07,-0.08
2021-08-01 02:07:10.772,-0.085,-0.075
2021-08-01 02:07:10.776,-0.07,-0.045
2021-08-01 02:07:10.780,-0.04,-0.035
2021-08-01 02:07:10.784,-0.055,-0.04
2021-08-01 02:07:10.788,-0.07,-0.04
2021-08-01 02:07:10.792,-0.065,-0.05
2021-08-01 02:07:10.796,-0.055,-0.045
2021-08-01 02:07:10.800,-0.075,-0.04
2021-08-01 02:07:10.804,-0.07,-0.045
2021-08-01 02:07:10.808,-0.04,-0.055
2021-08-01 02:07:10.812,-0.045,-0.07
2021-08-01 02:07:10.816,-0.035,-0.06
2021-08-01 02:07:10.820,-0.05,-0.075
2021-08-01 02:07:10.824,-0.045,-0.1
2021-08-01 02:07:10.828,-0.045,-0.095
2021-08-01 02:07:10.832,-0.04,-0.105
2021-08-01 02:07:10.836,-0.02,-0.125
2021-08-01 02:07:10.840,-0.02,-0.115
2021-08-01 02:07:10.844,-0.02,-0.12
2021-08-01 02:07:10.848,-0.03,-0.14
2021-08-01 02:07:10.852,-0.025,-0.14
2021-08-01 02:07:10.856,-0.03,-0.145
2021-08-01 02:07:10.860,-0.025,-0.12
2021-08-01 02:07:10.864,-0.045,-0.13
2021-08-01 02:07:10.868,-0.04,-0.135
2021-08-01 02:07:10.872,-0.04,-0.105
2021-08-01 02:07:10.876,-0.045,-0.12
2021-08-01 02:07:10.880,-0.04,-0.115
2021-08-01 02:07:10.884,-0.055,-0.095
2021-08-01 02:07:10.888,-0.04,-0.12
2021-08-01 02:07:10.892,-0.03,-0.105
2021-08-01 02:07:10.896,-0.04,-0.11
2021-08-01 02:07:10.900,-0.025,-0.105
2021-08-01 02:07:10.904,-0.035,-0.12
2021-08-01 02:07:10.908,-0.03,-0.125
2021-08-01 02:07:10.912,-0.03,-0.11
2021-08-01 02:07:10.916,-0.03,-0.11
2021-08-01 02:07:10.920,-0.01,-0.105
2021-08-01 02:07:10.924,-0.05,-0.11
2021-08-01 02:07:10.928,-0.035,-0.11
2021-08-01 02:07:10.932,-0.035,-0.11
2021-08-01 02:07:10.936,-0.04,-0.105
2021-08-01 02:07:10.940,-0.04,-0.1
2021-08-01 02:07:10.944,-0.05,-0.125
2021-08-01 02:07:10.948,-0.035,-0.13
2021-08-01 02:07:10.952,-0.015,-0.13
2021-08-01 02:07:10.956,-0.03,-0.135
2021-08-01 02:07:10.960,-0.05,-0.13
2021-08-01 02:07:10.964,-0.05,-0.135
2021-08-01 02:07:10.968,-0.045,-0.145
2021-08-01 02:07:10.972,-0.055,-0.13
2021-08-01 02:07:10.976,-0.045,-0.13
2021-08-01 02:07:10.980,-0.05,-0.13
2021-08-01 02:07:10.984,-0.055,-0.135
2021-08-01 02:07:10.988,-0.045,-0.135
2021-08-01 02:07:10.992,-0.04,-0.13
2021-08-01 02:07:10.996,-0.045,-0.12
2021-08-01 02:07:11.000,-0.03,-0.11
2021-08-01 02:07:11.004,-0.035,-0.075
2021-08-01 02:07:11.008,-0.035,-0.04
2021-08-01 02:07:11.012,-0.025,-0.015
2021-08-01 02:07:11.016,0.005,0.02
2021-08-01 02:07:11.020,0.0,0.02
2021-08-01 02:07:11.024,0.025,0.01
2021-08-01 02:07:11.028,0.04,0.04
2021-08-01 02:07:11.032,0.04,0.045
2021-08-01 02:07:11.036,0.045,0.05
2021-08-01 02:07:11.040,0.065,0.03
2021-08-01 02:07:11.044,0.04,-0.01
2021-08-01 02:07:11.048,0.0,-0.065
2021-08-01 02:07:11.052,-0.015,-0.1
2021-08-01 02:07:11.056,-0.04,-0.175
2021-08-01 02:07:11.060,-0.075,-0.185
2021-08-01 02:07:11.064,-0.065,-0.185
2021-08-01 02:07:11.068,-0.085,-0.175
2021-08-01 02:07:11.072,-0.09,-0.145
2021-08-01 02:07:11.076,-0.06,-0.13
2021-08-01 02:07:11.080,-0.065,-0.155
2021-08-01 02:07:11.084,-0.06,-0.19
2021-08-01 02:07:11.088,-0.04,-0.2
2021-08-01 02:07:11.092,-0.04,-0.195
2021-08-01 02:07:11.096,-0.04,-0.205
2021-08-01 02:07:11.100,-0.065,-0.22
2021-08-01 02:07:11.104,-0.05,-0.24
2021-08-01 02:07:11.108,-0.05,-0.24
2021-08-01 02:07:11.112,-0.055,-0.235
2021-08-01 02:07:11.116,-0.075,-0.255
2021-08-01 02:07:11.120,-0.075,-0.26
2021-08-01 02:07:11.124,-0.08,-0.26
2021-08-01 02:07:11.128,-0.07,-0.255
2021-08-01 02:07:11.132,-0.07,-0.25
2021-08-01 02:07:11.136,-0.07,-0.255
2021-08-01 02:07:11.140,-0.06,-0.245
2021-08-01 02:07:11.144,-0.07,-0.25
2021-08-01 02:07:11.148,-0.065,-0.25
2021-08-01 02:07:11.152,-0.06,-0.245
2021-08-01 02:07:11.156,-0.07,-0.25
2021-08-01 02:07:11.160,-0.05,-0.255
2021-08-01 02:07:11.164,-0.065,-0.24
2021-08-01 02:07:11.168,-0.06,-0.245
2021-08-01 02:07:11.172,-0.06,-0.225
2021-08-01 02:07:11.176,-0.055,-0.14
2021-08-01 02:07:11.180,-0.06,-0.02
2021-08-01 02:07:11.184,-0.02,0.175
2021-08-01 02:07:11.188,-0.01,0.4
2021-08-01 02:07:11.192,0.03,0.56
2021-08-01 02:07:11.196,0.085,0.505
2021-08-01 02:07:11.200,0.145,0.295
2021-08-01 02:07:11.204,0.195,-0.105
2021-08-01 02:07:11.208,0.175,-0.555
2021-08-01 02:07:11.212,0.13,-0.955
2021-08-01 02:07:11.216,0.09,-1.115
2021-08-01 02:07:11.220,-0.025,-1.11
2021-08-01 02:07:11.224,-0.18,-0.97
2021-08-01 02:07:11.228,-0.265,-0.84
2021-08-01 02:07:11.232,-0.32,-0.68
2021-08-01 02:07:11.236,-0.32,-0.56
2021-08-01 02:07:11.240,-0.29,-0.45
2021-08-01 02:07:11.244,-0.27,-0.345
2021-08-01 02:07:11.248,-0.225,-0.255
2021-08-01 02:07:11.252,-0.145,-0.245
2021-08-01 02:07:11.256,-0.08,-0.24
2021-08-01 02:07:11.260,-0.075,-0.215
2021-08-01 02:07:11.264,-0.07,-0.215
2021-08-01 02:07:11.268,-0.06,-0.225
2021-08-01 02:07:11.272,-0.05,-0.225
2021-08-01 02:07:11.276,-0.065,-0.22
2021-08-01 02:07:11.280,-0.05,-0.21
2021-08-01 02:07:11.284,-0.06,-0.22
2021-08-01 02:07:11.288,-0.06,-0.21
2021-08-01 02:07:11.292,-0.055,-0.215
2021-08-01 02:07:11.296,-0.05,-0.2
2021-08-01 02:07:11.300,-0.045,-0.225
2021-08-01 02:07:11.304,-0.05,-0.205
2021-08-01 02:07:11.308,-0.045,-0.215
2021-08-01 02:07:11.312,-0.045,-0.21
2021-08-01 02:07:11.316,-0.05,-0.21
2021-08-01 02:07:11.320,-0.05,-0.205
2021-08-01 02:07:11.324,-0.05,-0.225
2021-08-01 02:07:11.328,-0.06,-0.2
2021-08-01 02:07:11.332,-0.075,-0.19
2021-08-01 02:07:11.336,-0.05,-0.19
2021-08-01 02:07:11.340,-0.05,-0.2
2021-08-01 02:07:11.344,-0.05,-0.19
2021-08-01 02:07:11.348,-0.065,-0.18
2021-08-01 02:07:11.352,-0.055,-0.185
2021-08-01 02:07:11.356,-0.05,-0.19
2021-08-01 02:07:11.360,-0.055,-0.18
2021-08-01 02:07:11.364,-0.05,-0.19
2021-08-01 02:07:11.368,-0.05,-0.185
2021-08-01 02:07:11.372,-0.06,-0.16
2021-08-01 02:07:11.376,-0.08,-0.155
2021-08-01 02:07:11.380,-0.06,-0.16
2021-08-01 02:07:11.384,-0.04,-0.135
2021-08-01 02:07:11.388,-0.075,-0.125
2021-08-01 02:07:11.392,-0.045,-0.115
2021-08-01 02:07:11.396,-0.055,-0.1
2021-08-01 02:07:11.400,-0.035,-0.095
2021-08-01 02:07:11.404,-0.055,-0.085
2021-08-01 02:07:11.408,-0.06,-0.09
2021-08-01 02:07:11.412,-0.06,-0.095
2021-08-01 02:07:11.416,-0.05,-0.075
2021-08-01 02:07:11.420,-0.055,-0.085
2021-08-01 02:07:11.424,-0.04,-0.085
2021-08-01 02:07:11.428,-0.055,-0.075
2021-08-01 02:07:11.432,-0.045,-0.055
2021-08-01 02:07:11.436,-0.03,-0.07
2021-08-01 02:07:11.440,-0.045,-0.065
2021-08-01 02:07:11.444,-0.055,-0.06
2021-08-01 02:07:11.448,-0.05,-0.035
2021-08-01 02:07:11.452,-0.045,-0.035
2021-08-01 02:07:11.456,-0.04,-0.03
2021-08-01 02:07:11.460,-0.025,-0.05
2021-08-01 02:07:11.464,-0.03,-0.045
2021-08-01 02:07:11.468,-0.025,-0.025
2021-08-01 02:07:11.472,-0.03,-0.015
2021-08-01 02:07:11.476,-0.02,-0.02
2021-08-01 02:07:11.480,-0.01,-0.025
2021-08-01 02:07:11.484,0.0,-0.035
2021-08-01 02:07:11.488,-0.01,-0.035
2021-08-01 02:07:11.492,-0.01,-0.05
2021-08-01 02:07:11.496,0.0,-0.05
2021-08-01 02:07:11.500,0.0,-0.075
2021-08-01 02:07:11.504,0.0,-0.085
2021-08-01 02:07:11.508,0.005,-0.06
2021-08-01 02:07:11.512,0.0,-0.065
2021-08-01 02:07:11.516,-0.005,-0.07
2021-08-01 02:07:11.520,0.01,-0.07
2021-08-01 02:07:11.524,0.0,-0.07
2021-08-01 02:07:11.528,0.02,-0.075
2021-08-01 02:07:11.532,0.02,-0.075
2021-08-01 02:07:11.536,0.01,-0.065
2021-08-01 02:07:11.540,0.0,-0.09
2021-08-01 02:07:11.544,0.025,-0.07
2021-08-01 02:07:11.548,0.005,-0.05
2021-08-01 02:07:11.552,-0.01,-0.06
2021-08-01 02:07:11.556,0.005,-0.07
2021-08-01 02:07:11.560,0.0,-0.075
2021-08-01 02:07:11.564,-0.015,-0.04
2021-08-01 02:07:11.568,-0.005,-0.05
2021-08-01 02:07:11.572,0.005,-0.06
2021-08-01 02:07:11.576,-0.005,-0.07
2021-08-01 02:07:11.580,-0.01,-0.07
2021-08-01 02:07:11.584,0.015,-0.055
2021-08-01 02:07:11.588,0.0,-0.035
2021-08-01 02:07:11.592,0.0,-0.05
2021-08-01 02:07:11.596,0.005,-0.05
2021-08-01 02:07:11.600,0.005,-0.06
2021-08-01 02:07:11.604,-0.01,-0.045
2021-08-01 02:07:11.608,-0.01,-0.05
2021-08-01 02:07:11.612,0.005,-0.06
2021-08-01 02:07:11.616,-0.01,-0.06
2021-08-01 02:07:11.620,-0.01,-0.07
2021-08-01 02:07:11.624,-0.005,-0.06
2021-08-01 02:07:11.628,-0.005,-0.055
2021-08-01 02:07:11.632,-0.025,-0.05
2021-08-01 02:07:11.636,-0.02,-0.065
2021-08-01 02:07:11.640,0.0,-0.09
2021-08-01 02:07:11.644,-0.02,-0.065
2021-08-01 02:07:11.648,-0.005,-0.07
2021-08-01 02:07:11.652,-0.02,-0.065
2021-08-01 02:07:11.656,-0.015,-0.055
2021-08-01 02:07:11.660,-0.015,-0.07
2021-08-01 02:07:11.664,-0.015,-0.08
2021-08-01 02:07:11.668,-0.015,-0.06
2021-08-01 02:07:11.672,-0.03,-0.045
2021-08-01 02:07:11.676,-0.025,-0.02
2021-08-01 02:07:11.680,-0.015,0.0
2021-08-01 02:07:11.684,0.005,0.02
2021-08-01 02:07:11.688,0.01,0.04
2021-08-01 02:07:11.692,0.035,0.06
2021-08-01 02:07:11.696,0.04,0.08
2021-08-01 02:07:11.700,0.035,0.075
2021-08-01 02:07:11.704,0.055,0.085
2021-08-01 02:07:11.708,0.055,0.09
2021-08-01 02:07:11.712,0.05,0.08
2021-08-01 02:07:11.716,0.035,0.04
2021-08-01 02:07:11.720,0.035,0.0
2021-08-01 02:07:11.724,0.02,-0.045
2021-08-01 02:07:11.728,-0.005,-0.095
2021-08-01 02:07:11.732,-0.025,-0.105
2021-08-01 02:07:11.736,-0.05,-0.105
2021-08-01 02:07:11.740,-0.05,-0.105
2021-08-01 02:07:11.744,-0.045,-0.115
2021-08-01 02:07:11.748,-0.065,-0.11
2021-08-01 02:07:11.752,-0.06,-0.115
2021-08-01 02:07:11.756,-0.05,-0.145
2021-08-01 02:07:11.760,-0.035,-0.17
2021-08-01 02:07:11.764,-0.045,-0.195
2021-08-01 02:07:11.768,-0.055,-0.2
2021-08-01 02:07:11.772,-0.035,-0.2
2021-08-01 02:07:11.776,-0.04,-0.2
2021-08-01 02:07:11.780,-0.02,-0.205
2021-08-01 02:07:11.784,-0.045,-0.22
2021-08-01 02:07:11.788,-0.065,-0.215
2021-08-01 02:07:11.792,-0.05,-0.205
2021-08-01 02:07:11.796,-0.06,-0.22
2021-08-01 02:07:11.800,-0.04,-0.23
2021-08-01 02:07:11.804,-0.05,-0.225
2021-08-01 02:07:11.808,-0.075,-0.21
2021-08-01 02:07:11.812,-0.055,-0.22
2021-08-01 02:07:11.816,-0.055,-0.21
2021-08-01 02:07:11.820,-0.055,-0.2
2021-08-01 02:07:11.824,-0.05,-0.225
2021-08-01 02:07:11.828,-0.04,-0.205
2021-08-01 02:07:11.832,-0.02,-0.205
2021-08-01 02:07:11.836,-0.05,-0.215
2021-08-01 02:07:11.840,-0.055,-0.21
2021-08-01 02:07:11.844,-0.05,-0.145
2021-08-01 02:07:11.848,-0.025,-0.01
2021-08-01 02:07:11.852,0.0,0.225
2021-08-01 02:07:11.856,0.005,0.47
2021-08-01 02:07:11.860,0.04,0.66
2021-08-01 02:07:11.864,0.105,0.66
2021-08-01 02:07:11.868,0.155,0.46
2021-08-01 02:07:11.872,0.195,0.12
