Time,ECG1,ECG2
2021-08-19 05:24:35.864,-0.13,-0.265
2021-08-19 05:24:35.868,-0.135,-0.27
2021-08-19 05:24:35.872,-0.16,-0.28
2021-08-19 05:24:35.876,-0.15,-0.255
2021-08-19 05:24:35.880,-0.155,-0.27
2021-08-19 05:24:35.884,-0.14,-0.255
2021-08-19 05:24:35.888,-0.155,-0.26
2021-08-19 05:24:35.892,-0.16,-0.255
2021-08-19 05:24:35.896,-0.16,-0.26
2021-08-19 05:24:35.900,-0.145,-0.255
2021-08-19 05:24:35.904,-0.145,-0.275
2021-08-19 05:24:35.908,-0.14,-0.29
2021-08-19 05:24:35.912,-0.15,-0.235
2021-08-19 05:24:35.916,-0.155,-0.265
2021-08-19 05:24:35.920,-0.135,-0.28
2021-08-19 05:24:35.924,-0.14,-0.245
2021-08-19 05:24:35.928,-0.14,-0.26
2021-08-19 05:24:35.932,-0.15,-0.285
2021-08-19 05:24:35.936,-0.15,-0.27
2021-08-19 05:24:35.940,-0.165,-0.235
2021-08-19 05:24:35.944,-0.145,-0.265
2021-08-19 05:24:35.948,-0.145,-0.28
2021-08-19 05:24:35.952,-0.175,-0.265
2021-08-19 05:24:35.956,-0.175,-0.245
2021-08-19 05:24:35.960,-0.165,-0.245
2021-08-19 05:24:35.964,-0.135,-0.235
2021-08-19 05:24:35.968,-0.14,-0.275
2021-08-19 05:24:35.972,-0.145,-0.28
2021-08-19 05:24:35.976,-0.145,-0.29
2021-08-19 05:24:35.980,-0.14,-0.28
2021-08-19 05:24:35.984,-0.125,-0.255
2021-08-19 05:24:35.988,-0.125,-0.28
2021-08-19 05:24:35.992,-0.135,-0.285
2021-08-19 05:24:35.996,-0.175,-0.25
2021-08-19 05:24:36.000,-0.14,-0.245
2021-08-19 05:24:36.004,-0.12,-0.23
2021-08-19 05:24:36.008,-0.11,-0.25
2021-08-19 05:24:36.012,-0.14,-0.215
2021-08-19 05:24:36.016,-0.135,-0.235
2021-08-19 05:24:36.020,-0.145,-0.23
2021-08-19 05:24:36.024,-0.105,-0.25
2021-08-19 05:24:36.028,-0.135,-0.245
2021-08-19 05:24:36.032,-0.125,-0.245
2021-08-19 05:24:36.036,-0.14,-0.265
2021-08-19 05:24:36.040,-0.105,-0.215
2021-08-19 05:24:36.044,-0.14,-0.26
2021-08-19 05:24:36.048,-0.115,-0.265
2021-08-19 05:24:36.052,-0.115,-0.25
2021-08-19 05:24:36.056,-0.115,-0.24
2021-08-19 05:24:36.060,-0.12,-0.27
2021-08-19 05:24:36.064,-0.115,-0.28
2021-08-19 05:24:36.068,-0.125,-0.26
2021-08-19 05:24:36.072,-0.115,-0.26
2021-08-19 05:24:36.076,-0.125,-0.305
2021-08-19 05:24:36.080,-0.1,-0.265
2021-08-19 05:24:36.084,-0.115,-0.23
2021-08-19 05:24:36.088,-0.105,-0.27
2021-08-19 05:24:36.092,-0.125,-0.255
2021-08-19 05:24:36.096,-0.15,-0.24
2021-08-19 05:24:36.100,-0.125,-0.265
2021-08-19 05:24:36.104,-0.1,-0.245
2021-08-19 05:24:36.108,-0.085,-0.28
2021-08-19 05:24:36.112,-0.11,-0.245
2021-08-19 05:24:36.116,-0.12,-0.255
2021-08-19 05:24:36.120,-0.11,-0.235
2021-08-19 05:24:36.124,-0.115,-0.22
2021-08-19 05:24:36.128,-0.105,-0.25
2021-08-19 05:24:36.132,-0.145,-0.29
2021-08-19 05:24:36.136,-0.14,-0.245
2021-08-19 05:24:36.140,-0.1,-0.25
2021-08-19 05:24:36.144,-0.11,-0.235
2021-08-19 05:24:36.148,-0.125,-0.245
2021-08-19 05:24:36.152,-0.125,-0.26
2021-08-19 05:24:36.156,-0.13,-0.225
2021-08-19 05:24:36.160,-0.155,-0.285
2021-08-19 05:24:36.164,-0.12,-0.25
2021-08-19 05:24:36.168,-0.13,-0.245
2021-08-19 05:24:36.172,-0.115,-0.24
2021-08-19 05:24:36.176,-0.13,-0.26
2021-08-19 05:24:36.180,-0.12,-0.225
2021-08-19 05:24:36.184,-0.12,-0.21
2021-08-19 05:24:36.188,-0.09,-0.26
2021-08-19 05:24:36.192,-0.105,-0.265
2021-08-19 05:24:36.196,-0.125,-0.26
2021-08-19 05:24:36.200,-0.12,-0.285
2021-08-19 05:24:36.204,-0.115,-0.26
2021-08-19 05:24:36.208,-0.095,-0.28
2021-08-19 05:24:36.212,-0.115,-0.29
2021-08-19 05:24:36.216,-0.135,-0.25
2021-08-19 05:24:36.220,-0.13,-0.26
2021-08-19 05:24:36.224,-0.125,-0.295
2021-08-19 05:24:36.228,-0.105,-0.275
2021-08-19 05:24:36.232,-0.125,-0.235
2021-08-19 05:24:36.236,-0.11,-0.26
2021-08-19 05:24:36.240,-0.12,-0.25
2021-08-19 05:24:36.244,-0.15,-0.24
2021-08-19 05:24:36.248,-0.14,-0.255
2021-08-19 05:24:36.252,-0.115,-0.28
2021-08-19 05:24:36.256,-0.12,-0.265
2021-08-19 05:24:36.260,-0.145,-0.27
2021-08-19 05:24:36.264,-0.145,-0.265
2021-08-19 05:24:36.268,-0.105,-0.255
2021-08-19 05:24:36.272,-0.12,-0.25
2021-08-19 05:24:36.276,-0.12,-0.255
2021-08-19 05:24:36.280,-0.13,-0.285
2021-08-19 05:24:36.284,-0.135,-0.24
2021-08-19 05:24:36.288,-0.08,-0.26
2021-08-19 05:24:36.292,-0.06,-0.265
2021-08-19 05:24:36.296,-0.04,-0.215
2021-08-19 05:24:36.300,-0.075,-0.21
2021-08-19 05:24:36.304,-0.04,-0.18
2021-08-19 05:24:36.308,-0.02,-0.18
2021-08-19 05:24:36.312,-0.01,-0.16
2021-08-19 05:24:36.316,0.015,-0.16
2021-08-19 05:24:36.320,0.01,-0.14
2021-08-19 05:24:36.324,0.04,-0.16
2021-08-19 05:24:36.328,0.065,-0.11
2021-08-19 05:24:36.332,0.075,-0.115
2021-08-19 05:24:36.336,0.095,-0.14
2021-08-19 05:24:36.340,0.075,-0.17
2021-08-19 05:24:36.344,0.055,-0.12
2021-08-19 05:24:36.348,0.035,-0.12
2021-08-19 05:24:36.352,-0.01,-0.195
2021-08-19 05:24:36.356,-0.04,-0.22
2021-08-19 05:24:36.360,-0.08,-0.22
2021-08-19 05:24:36.364,-0.08,-0.265
2021-08-19 05:24:36.368,-0.155,-0.26
2021-08-19 05:24:36.372,-0.12,-0.3
2021-08-19 05:24:36.376,-0.15,-0.315
2021-08-19 05:24:36.380,-0.16,-0.295
2021-08-19 05:24:36.384,-0.2,-0.32
2021-08-19 05:24:36.388,-0.19,-0.34
2021-08-19 05:24:36.392,-0.155,-0.35
2021-08-19 05:24:36.396,-0.205,-0.32
2021-08-19 05:24:36.400,-0.2,-0.33
2021-08-19 05:24:36.404,-0.2,-0.335
2021-08-19 05:24:36.408,-0.19,-0.345
2021-08-19 05:24:36.412,-0.205,-0.35
2021-08-19 05:24:36.416,-0.185,-0.335
2021-08-19 05:24:36.420,-0.19,-0.345
2021-08-19 05:24:36.424,-0.2,-0.345
2021-08-19 05:24:36.428,-0.195,-0.345
2021-08-19 05:24:36.432,-0.17,-0.35
2021-08-19 05:24:36.436,-0.175,-0.35
2021-08-19 05:24:36.440,-0.21,-0.36
2021-08-19 05:24:36.444,-0.22,-0.365
2021-08-19 05:24:36.448,-0.195,-0.35
2021-08-19 05:24:36.452,-0.18,-0.335
2021-08-19 05:24:36.456,-0.195,-0.325
2021-08-19 05:24:36.460,-0.17,-0.345
2021-08-19 05:24:36.464,-0.19,-0.335
2021-08-19 05:24:36.468,-0.16,-0.355
2021-08-19 05:24:36.472,-0.165,-0.33
2021-08-19 05:24:36.476,-0.205,-0.33
2021-08-19 05:24:36.480,-0.305,-0.365
2021-08-19 05:24:36.484,-0.38,-0.37
2021-08-19 05:24:36.488,-0.385,-0.41
2021-08-19 05:24:36.492,-0.315,-0.455
2021-08-19 05:24:36.496,-0.355,-0.54
2021-08-19 05:24:36.500,-0.26,-0.665
2021-08-19 05:24:36.504,-0.16,-0.82
2021-08-19 05:24:36.508,-0.16,-0.78
2021-08-19 05:24:36.512,-0.24,-0.625
2021-08-19 05:24:36.516,-0.09,-0.565
2021-08-19 05:24:36.520,-0.06,-0.17
2021-08-19 05:24:36.524,-0.445,0.52
2021-08-19 05:24:36.528,-1.0,0.99
2021-08-19 05:24:36.532,-1.51,0.59
2021-08-19 05:24:36.536,-1.955,-0.81
2021-08-19 05:24:36.564,-1.775,-1.775
2021-08-19 05:24:36.568,-1.465,-1.465
2021-08-19 05:24:36.572,-1.045,-1.22
2021-08-19 05:24:36.576,-0.7,-1.06
2021-08-19 05:24:36.580,-0.465,-0.855
2021-08-19 05:24:36.584,-0.32,-0.62
2021-08-19 05:24:36.588,-0.21,-0.515
2021-08-19 05:24:36.592,-0.095,-0.445
2021-08-19 05:24:36.596,-0.04,-0.38
2021-08-19 05:24:36.600,-0.035,-0.355
2021-08-19 05:24:36.604,-0.03,-0.325
2021-08-19 05:24:36.608,-0.02,-0.345
2021-08-19 05:24:36.612,0.035,-0.31
2021-08-19 05:24:36.616,0.06,-0.335
2021-08-19 05:24:36.620,0.02,-0.295
2021-08-19 05:24:36.624,0.03,-0.305
2021-08-19 05:24:36.628,0.045,-0.305
2021-08-19 05:24:36.632,0.045,-0.315
2021-08-19 05:24:36.636,0.04,-0.32
2021-08-19 05:24:36.640,0.055,-0.34
2021-08-19 05:24:36.644,0.05,-0.33
2021-08-19 05:24:36.648,0.07,-0.305
2021-08-19 05:24:36.652,0.075,-0.315
2021-08-19 05:24:36.656,0.1,-0.3
2021-08-19 05:24:36.660,0.1,-0.33
2021-08-19 05:24:36.664,0.1,-0.31
2021-08-19 05:24:36.668,0.11,-0.28
2021-08-19 05:24:36.672,0.12,-0.275
2021-08-19 05:24:36.676,0.14,-0.26
2021-08-19 05:24:36.680,0.165,-0.3
2021-08-19 05:24:36.684,0.14,-0.3
2021-08-19 05:24:36.688,0.17,-0.265
2021-08-19 05:24:36.692,0.205,-0.24
2021-08-19 05:24:36.696,0.21,-0.23
2021-08-19 05:24:36.700,0.23,-0.22
2021-08-19 05:24:36.704,0.25,-0.215
2021-08-19 05:24:36.708,0.27,-0.19
2021-08-19 05:24:36.712,0.315,-0.19
2021-08-19 05:24:36.716,0.32,-0.18
2021-08-19 05:24:36.720,0.35,-0.105
2021-08-19 05:24:36.724,0.365,-0.085
2021-08-19 05:24:36.728,0.38,-0.05
2021-08-19 05:24:36.732,0.385,-0.045
2021-08-19 05:24:36.736,0.435,0.005
2021-08-19 05:24:36.740,0.46,0.01
2021-08-19 05:24:36.744,0.445,0.075
2021-08-19 05:24:36.748,0.5,0.075
2021-08-19 05:24:36.752,0.53,0.09
2021-08-19 05:24:36.756,0.545,0.155
2021-08-19 05:24:36.760,0.565,0.235
2021-08-19 05:24:36.764,0.6,0.25
2021-08-19 05:24:36.768,0.61,0.27
2021-08-19 05:24:36.772,0.61,0.285
2021-08-19 05:24:36.776,0.63,0.34
2021-08-19 05:24:36.780,0.66,0.33
2021-08-19 05:24:36.784,0.62,0.36
2021-08-19 05:24:36.788,0.645,0.43
2021-08-19 05:24:36.792,0.625,0.455
2021-08-19 05:24:36.796,0.66,0.46
2021-08-19 05:24:36.800,0.68,0.47
2021-08-19 05:24:36.804,0.69,0.555
2021-08-19 05:24:36.808,0.67,0.54
2021-08-19 05:24:36.812,0.675,0.585
2021-08-19 05:24:36.816,0.67,0.62
2021-08-19 05:24:36.820,0.67,0.665
2021-08-19 05:24:36.824,0.685,0.685
2021-08-19 05:24:36.828,0.665,0.73
2021-08-19 05:24:36.832,0.625,0.75
2021-08-19 05:24:36.836,0.615,0.755
2021-08-19 05:24:36.840,0.595,0.76
2021-08-19 05:24:36.844,0.585,0.78
2021-08-19 05:24:36.848,0.53,0.755
2021-08-19 05:24:36.852,0.48,0.785
2021-08-19 05:24:36.856,0.47,0.77
2021-08-19 05:24:36.860,0.45,0.74
2021-08-19 05:24:36.864,0.44,0.685
2021-08-19 05:24:36.868,0.38,0.69
2021-08-19 05:24:36.872,0.325,0.655
2021-08-19 05:24:36.876,0.315,0.615
2021-08-19 05:24:36.880,0.295,0.56
2021-08-19 05:24:36.884,0.27,0.505
2021-08-19 05:24:36.888,0.215,0.47
2021-08-19 05:24:36.892,0.175,0.45
2021-08-19 05:24:36.896,0.18,0.37
2021-08-19 05:24:36.900,0.16,0.355
2021-08-19 05:24:36.904,0.155,0.315
2021-08-19 05:24:36.908,0.115,0.27
2021-08-19 05:24:36.912,0.085,0.235
2021-08-19 05:24:36.916,0.105,0.205
2021-08-19 05:24:36.920,0.1,0.2
2021-08-19 05:24:36.924,0.08,0.135
2021-08-19 05:24:36.928,0.065,0.14
2021-08-19 05:24:36.932,0.075,0.075
2021-08-19 05:24:36.936,0.095,0.075
2021-08-19 05:24:36.940,0.095,0.065
2021-08-19 05:24:36.944,0.1,0.07
2021-08-19 05:24:36.948,0.075,0.005
2021-08-19 05:24:36.952,0.06,-0.025
2021-08-19 05:24:36.956,0.065,0.0
2021-08-19 05:24:36.960,0.085,-0.04
2021-08-19 05:24:36.964,0.055,-0.04
2021-08-19 05:24:36.968,0.02,-0.045
2021-08-19 05:24:36.972,0.035,-0.06
2021-08-19 05:24:36.976,0.01,-0.085
2021-08-19 05:24:36.980,0.025,-0.085
2021-08-19 05:24:36.984,0.02,-0.125
2021-08-19 05:24:36.988,0.005,-0.125
2021-08-19 05:24:36.992,0.015,-0.125
2021-08-19 05:24:36.996,-0.01,-0.17
2021-08-19 05:24:37.000,-0.015,-0.155
2021-08-19 05:24:37.004,0.03,-0.16
2021-08-19 05:24:37.008,-0.005,-0.19
2021-08-19 05:24:37.012,0.0,-0.185
2021-08-19 05:24:37.016,0.0,-0.18
2021-08-19 05:24:37.020,0.005,-0.19
2021-08-19 05:24:37.024,0.01,-0.22
2021-08-19 05:24:37.028,-0.01,-0.225
2021-08-19 05:24:37.032,-0.03,-0.235
2021-08-19 05:24:37.036,-0.01,-0.235
2021-08-19 05:24:37.040,-0.02,-0.27
2021-08-19 05:24:37.044,-0.035,-0.265
2021-08-19 05:24:37.048,-0.025,-0.28
2021-08-19 05:24:37.052,-0.06,-0.285
2021-08-19 05:24:37.056,-0.04,-0.285
2021-08-19 05:24:37.060,-0.015,-0.305
2021-08-19 05:24:37.064,-0.05,-0.3
2021-08-19 05:24:37.068,-0.035,-0.28
2021-08-19 05:24:37.072,-0.055,-0.29
2021-08-19 05:24:37.076,-0.03,-0.29
2021-08-19 05:24:37.080,-0.025,-0.285
2021-08-19 05:24:37.084,-0.01,-0.305
2021-08-19 05:24:37.088,-0.01,-0.33
2021-08-19 05:24:37.092,-0.04,-0.325
2021-08-19 05:24:37.096,-0.04,-0.3
2021-08-19 05:24:37.100,-0.04,-0.32
2021-08-19 05:24:37.104,-0.035,-0.32
2021-08-19 05:24:37.108,-0.04,-0.31
2021-08-19 05:24:37.112,-0.05,-0.34
2021-08-19 05:24:37.116,-0.055,-0.335
2021-08-19 05:24:37.120,-0.03,-0.305
2021-08-19 05:24:37.124,-0.015,-0.32
2021-08-19 05:24:37.128,-0.02,-0.31
2021-08-19 05:24:37.132,-0.055,-0.32
2021-08-19 05:24:37.136,-0.035,-0.325
2021-08-19 05:24:37.140,-0.035,-0.325
2021-08-19 05:24:37.144,-0.03,-0.33
2021-08-19 05:24:37.148,-0.04,-0.345
2021-08-19 05:24:37.152,-0.055,-0.305
2021-08-19 05:24:37.156,-0.05,-0.34
2021-08-19 05:24:37.160,-0.005,-0.355
2021-08-19 05:24:37.164,-0.02,-0.34
2021-08-19 05:24:37.168,-0.06,-0.325
2021-08-19 05:24:37.172,-0.07,-0.34
2021-08-19 05:24:37.176,-0.08,-0.335
2021-08-19 05:24:37.180,0.0,-0.32
2021-08-19 05:24:37.184,-0.02,-0.34
2021-08-19 05:24:37.188,-0.03,-0.39
2021-08-19 05:24:37.192,-0.075,-0.375
2021-08-19 05:24:37.196,-0.075,-0.345
2021-08-19 05:24:37.200,-0.055,-0.35
2021-08-19 05:24:37.204,-0.04,-0.35
2021-08-19 05:24:37.208,-0.025,-0.35
2021-08-19 05:24:37.212,-0.05,-0.355
2021-08-19 05:24:37.216,-0.045,-0.335
2021-08-19 05:24:37.220,-0.05,-0.35
2021-08-19 05:24:37.224,-0.035,-0.335
2021-08-19 05:24:37.228,-0.045,-0.335
2021-08-19 05:24:37.232,-0.075,-0.335
2021-08-19 05:24:37.236,-0.075,-0.335
2021-08-19 05:24:37.240,-0.055,-0.38
2021-08-19 05:24:37.244,-0.06,-0.365
2021-08-19 05:24:37.248,-0.045,-0.355
2021-08-19 05:24:37.252,-0.045,-0.35
2021-08-19 05:24:37.256,-0.07,-0.37
2021-08-19 05:24:37.260,-0.065,-0.365
2021-08-19 05:24:37.264,-0.04,-0.345
2021-08-19 05:24:37.268,-0.06,-0.375
2021-08-19 05:24:37.272,-0.075,-0.35
2021-08-19 05:24:37.276,-0.1,-0.36
2021-08-19 05:24:37.280,-0.08,-0.34
2021-08-19 05:24:37.284,-0.06,-0.35
2021-08-19 05:24:37.288,-0.055,-0.365
2021-08-19 05:24:37.292,-0.065,-0.395
2021-08-19 05:24:37.296,-0.065,-0.375
2021-08-19 05:24:37.300,-0.075,-0.36
2021-08-19 05:24:37.304,-0.055,-0.32
2021-08-19 05:24:37.308,-0.06,-0.38
2021-08-19 05:24:37.312,-0.075,-0.37
2021-08-19 05:24:37.316,-0.04,-0.365
2021-08-19 05:24:37.320,0.005,-0.31
2021-08-19 05:24:37.324,0.01,-0.315
2021-08-19 05:24:37.328,-0.015,-0.28
2021-08-19 05:24:37.332,-0.005,-0.255
2021-08-19 05:24:37.336,0.01,-0.265
2021-08-19 05:24:37.340,0.035,-0.255
2021-08-19 05:24:37.344,0.085,-0.2
2021-08-19 05:24:37.348,0.08,-0.2
2021-08-19 05:24:37.352,0.095,-0.245
2021-08-19 05:24:37.356,0.095,-0.295
2021-08-19 05:24:37.360,0.085,-0.305
2021-08-19 05:24:37.364,0.1,-0.275
2021-08-19 05:24:37.368,0.1,-0.285
2021-08-19 05:24:37.372,0.12,-0.285
2021-08-19 05:24:37.376,0.075,-0.27
2021-08-19 05:24:37.380,0.02,-0.29
2021-08-19 05:24:37.384,0.02,-0.33
2021-08-19 05:24:37.388,0.015,-0.335
2021-08-19 05:24:37.392,-0.055,-0.36
2021-08-19 05:24:37.396,-0.08,-0.42
2021-08-19 05:24:37.400,-0.085,-0.42
2021-08-19 05:24:37.404,-0.1,-0.43
2021-08-19 05:24:37.408,-0.125,-0.43
2021-08-19 05:24:37.412,-0.17,-0.435
2021-08-19 05:24:37.416,-0.185,-0.45
2021-08-19 05:24:37.420,-0.18,-0.485
2021-08-19 05:24:37.424,-0.165,-0.48
2021-08-19 05:24:37.428,-0.19,-0.45
2021-08-19 05:24:37.432,-0.14,-0.43
2021-08-19 05:24:37.436,-0.185,-0.465
2021-08-19 05:24:37.440,-0.19,-0.44
2021-08-19 05:24:37.444,-0.17,-0.405
2021-08-19 05:24:37.448,-0.185,-0.42
2021-08-19 05:24:37.452,-0.14,-0.43
2021-08-19 05:24:37.456,-0.2,-0.47
2021-08-19 05:24:37.460,-0.2,-0.43
2021-08-19 05:24:37.464,-0.18,-0.445
2021-08-19 05:24:37.468,-0.18,-0.47
2021-08-19 05:24:37.472,-0.16,-0.46
2021-08-19 05:24:37.476,-0.205,-0.445
2021-08-19 05:24:37.480,-0.2,-0.44
2021-08-19 05:24:37.484,-0.185,-0.42
2021-08-19 05:24:37.488,-0.165,-0.435
2021-08-19 05:24:37.492,-0.205,-0.43
2021-08-19 05:24:37.496,-0.215,-0.425
2021-08-19 05:24:37.500,-0.28,-0.45
2021-08-19 05:24:37.504,-0.36,-0.48
2021-08-19 05:24:37.508,-0.395,-0.465
2021-08-19 05:24:37.512,-0.365,-0.525
2021-08-19 05:24:37.516,-0.375,-0.59
2021-08-19 05:24:37.520,-0.395,-0.695
2021-08-19 05:24:37.524,-0.29,-0.83
2021-08-19 05:24:37.528,-0.185,-0.96
2021-08-19 05:24:37.532,-0.285,-0.89
2021-08-19 05:24:37.536,-0.49,-0.74
2021-08-19 05:24:37.540,-0.42,-0.695
2021-08-19 05:24:37.544,-0.5,-0.275
2021-08-19 05:24:37.548,-0.875,0.29
2021-08-19 05:24:37.552,-1.415,0.51
2021-08-19 05:24:37.556,-1.935,-0.22
2021-08-19 05:24:37.588,-1.955,-1.965
2021-08-19 05:24:37.592,-1.595,-1.605
2021-08-19 05:24:37.596,-1.085,-1.275
2021-08-19 05:24:37.600,-0.715,-1.04
2021-08-19 05:24:37.604,-0.47,-0.78
2021-08-19 05:24:37.608,-0.305,-0.6
2021-08-19 05:24:37.612,-0.16,-0.54
2021-08-19 05:24:37.616,-0.09,-0.48
2021-08-19 05:24:37.620,-0.095,-0.425
2021-08-19 05:24:37.624,-0.03,-0.385
2021-08-19 05:24:37.628,-0.005,-0.4
2021-08-19 05:24:37.632,0.005,-0.38
2021-08-19 05:24:37.636,0.02,-0.395
2021-08-19 05:24:37.640,0.02,-0.405
2021-08-19 05:24:37.644,0.02,-0.415
2021-08-19 05:24:37.648,0.035,-0.425
2021-08-19 05:24:37.652,0.03,-0.395
2021-08-19 05:24:37.656,0.04,-0.405
2021-08-19 05:24:37.660,0.03,-0.445
2021-08-19 05:24:37.664,0.025,-0.475
2021-08-19 05:24:37.668,0.045,-0.44
2021-08-19 05:24:37.672,0.065,-0.46
2021-08-19 05:24:37.676,0.06,-0.425
2021-08-19 05:24:37.680,0.075,-0.47
2021-08-19 05:24:37.684,0.065,-0.465
2021-08-19 05:24:37.688,0.08,-0.43
2021-08-19 05:24:37.692,0.1,-0.435
2021-08-19 05:24:37.696,0.08,-0.465
2021-08-19 05:24:37.700,0.115,-0.455
2021-08-19 05:24:37.704,0.1,-0.47
2021-08-19 05:24:37.708,0.11,-0.44
2021-08-19 05:24:37.712,0.17,-0.455
2021-08-19 05:24:37.716,0.145,-0.475
2021-08-19 05:24:37.720,0.155,-0.455
2021-08-19 05:24:37.724,0.195,-0.425
2021-08-19 05:24:37.728,0.195,-0.4
2021-08-19 05:24:37.732,0.26,-0.39
2021-08-19 05:24:37.736,0.275,-0.345
2021-08-19 05:24:37.740,0.28,-0.33
2021-08-19 05:24:37.744,0.33,-0.31
2021-08-19 05:24:37.748,0.325,-0.29
2021-08-19 05:24:37.752,0.375,-0.21
2021-08-19 05:24:37.756,0.405,-0.21
2021-08-19 05:24:37.760,0.43,-0.19
2021-08-19 05:24:37.764,0.44,-0.125
2021-08-19 05:24:37.768,0.445,-0.115
2021-08-19 05:24:37.772,0.5,-0.105
2021-08-19 05:24:37.776,0.525,-0.065
2021-08-19 05:24:37.780,0.495,-0.01
2021-08-19 05:24:37.784,0.5,-0.005
2021-08-19 05:24:37.788,0.49,0.05
2021-08-19 05:24:37.792,0.53,0.065
2021-08-19 05:24:37.796,0.55,0.085
2021-08-19 05:24:37.800,0.535,0.115
2021-08-19 05:24:37.804,0.54,0.115
2021-08-19 05:24:37.808,0.53,0.12
2021-08-19 05:24:37.812,0.54,0.13
2021-08-19 05:24:37.816,0.59,0.195
2021-08-19 05:24:37.820,0.58,0.195
2021-08-19 05:24:37.824,0.565,0.22
2021-08-19 05:24:37.828,0.55,0.28
2021-08-19 05:24:37.832,0.58,0.28
2021-08-19 05:24:37.836,0.56,0.285
2021-08-19 05:24:37.840,0.545,0.295
2021-08-19 05:24:37.844,0.495,0.315
2021-08-19 05:24:37.848,0.48,0.325
2021-08-19 05:24:37.852,0.485,0.315
2021-08-19 05:24:37.856,0.465,0.3
2021-08-19 05:24:37.860,0.425,0.295
2021-08-19 05:24:37.864,0.365,0.285
2021-08-19 05:24:37.868,0.3,0.265
2021-08-19 05:24:37.872,0.285,0.26
2021-08-19 05:24:37.876,0.26,0.235
2021-08-19 05:24:37.880,0.225,0.25
2021-08-19 05:24:37.884,0.165,0.2
2021-08-19 05:24:37.888,0.115,0.205
2021-08-19 05:24:37.892,0.095,0.15
2021-08-19 05:24:37.896,0.08,0.145
2021-08-19 05:24:37.900,0.075,0.085
2021-08-19 05:24:37.904,0.05,0.07
2021-08-19 05:24:37.908,0.03,0.04
2021-08-19 05:24:37.912,0.01,-0.03
2021-08-19 05:24:37.916,-0.03,-0.055
2021-08-19 05:24:37.920,-0.035,-0.07
2021-08-19 05:24:37.924,-0.025,-0.085
2021-08-19 05:24:37.928,-0.07,-0.13
2021-08-19 05:24:37.932,-0.06,-0.15
2021-08-19 05:24:37.936,-0.045,-0.16
2021-08-19 05:24:37.940,-0.015,-0.19
2021-08-19 05:24:37.944,-0.065,-0.215
2021-08-19 05:24:37.948,-0.02,-0.25
2021-08-19 05:24:37.952,-0.06,-0.225
2021-08-19 05:24:37.956,-0.04,-0.24
2021-08-19 05:24:37.960,-0.01,-0.25
2021-08-19 05:24:37.964,-0.005,-0.265
2021-08-19 05:24:37.968,-0.035,-0.27
2021-08-19 05:24:37.972,-0.055,-0.285
2021-08-19 05:24:37.976,-0.03,-0.27
2021-08-19 05:24:37.980,-0.04,-0.335
2021-08-19 05:24:37.984,-0.025,-0.325
2021-08-19 05:24:37.988,-0.025,-0.32
2021-08-19 05:24:37.992,-0.035,-0.355
2021-08-19 05:24:37.996,-0.04,-0.335
2021-08-19 05:24:38.000,-0.05,-0.36
2021-08-19 05:24:38.004,-0.045,-0.36
2021-08-19 05:24:38.008,-0.07,-0.395
2021-08-19 05:24:38.012,-0.03,-0.395
2021-08-19 05:24:38.016,-0.04,-0.39
2021-08-19 05:24:38.020,-0.03,-0.425
2021-08-19 05:24:38.024,-0.06,-0.435
2021-08-19 05:24:38.028,-0.08,-0.415
2021-08-19 05:24:38.032,-0.055,-0.45
2021-08-19 05:24:38.036,-0.045,-0.41
2021-08-19 05:24:38.040,-0.02,-0.44
2021-08-19 05:24:38.044,-0.01,-0.43
2021-08-19 05:24:38.048,-0.035,-0.415
2021-08-19 05:24:38.052,-0.06,-0.43
2021-08-19 05:24:38.056,-0.05,-0.445
2021-08-19 05:24:38.060,-0.02,-0.485
2021-08-19 05:24:38.064,-0.015,-0.45
2021-08-19 05:24:38.068,-0.06,-0.45
2021-08-19 05:24:38.072,-0.06,-0.455
2021-08-19 05:24:38.076,-0.04,-0.45
2021-08-19 05:24:38.080,-0.085,-0.445
2021-08-19 05:24:38.084,-0.065,-0.48
2021-08-19 05:24:38.088,-0.025,-0.445
2021-08-19 05:24:38.092,-0.04,-0.495
2021-08-19 05:24:38.096,-0.035,-0.445
2021-08-19 05:24:38.100,-0.055,-0.46
2021-08-19 05:24:38.104,-0.02,-0.475
2021-08-19 05:24:38.108,-0.045,-0.505
2021-08-19 05:24:38.112,-0.055,-0.48
2021-08-19 05:24:38.116,-0.02,-0.48
2021-08-19 05:24:38.120,-0.025,-0.485
2021-08-19 05:24:38.124,-0.04,-0.465
2021-08-19 05:24:38.128,-0.07,-0.465
2021-08-19 05:24:38.132,-0.08,-0.48
2021-08-19 05:24:38.136,-0.02,-0.485
2021-08-19 05:24:38.140,-0.04,-0.47
2021-08-19 05:24:38.144,-0.035,-0.5
2021-08-19 05:24:38.148,-0.06,-0.505
2021-08-19 05:24:38.152,-0.05,-0.48
2021-08-19 05:24:38.156,-0.06,-0.48
2021-08-19 05:24:38.160,-0.04,-0.465
2021-08-19 05:24:38.164,-0.05,-0.475
2021-08-19 05:24:38.168,-0.07,-0.45
2021-08-19 05:24:38.172,-0.07,-0.52
2021-08-19 05:24:38.176,-0.065,-0.465
2021-08-19 05:24:38.180,-0.07,-0.5
2021-08-19 05:24:38.184,-0.045,-0.455
2021-08-19 05:24:38.188,-0.04,-0.465
2021-08-19 05:24:38.192,-0.08,-0.505
2021-08-19 05:24:38.196,-0.06,-0.47
2021-08-19 05:24:38.200,-0.04,-0.455
2021-08-19 05:24:38.204,-0.025,-0.46
2021-08-19 05:24:38.208,-0.035,-0.495
2021-08-19 05:24:38.212,-0.065,-0.485
2021-08-19 05:24:38.216,-0.085,-0.485
2021-08-19 05:24:38.220,-0.035,-0.48
2021-08-19 05:24:38.224,-0.045,-0.48
2021-08-19 05:24:38.228,-0.075,-0.46
2021-08-19 05:24:38.232,-0.11,-0.465
2021-08-19 05:24:38.236,-0.06,-0.475
2021-08-19 05:24:38.240,-0.065,-0.47
2021-08-19 05:24:38.244,-0.05,-0.48
2021-08-19 05:24:38.248,-0.055,-0.455
2021-08-19 05:24:38.252,-0.055,-0.47
2021-08-19 05:24:38.256,-0.065,-0.49
2021-08-19 05:24:38.260,-0.055,-0.465
2021-08-19 05:24:38.264,-0.055,-0.475
2021-08-19 05:24:38.268,-0.06,-0.48
2021-08-19 05:24:38.272,-0.08,-0.5
2021-08-19 05:24:38.276,-0.095,-0.47
2021-08-19 05:24:38.280,-0.09,-0.48
2021-08-19 05:24:38.284,-0.035,-0.48
2021-08-19 05:24:38.288,0.015,-0.475
2021-08-19 05:24:38.292,-0.005,-0.44
2021-08-19 05:24:38.296,-0.005,-0.395
2021-08-19 05:24:38.300,-0.015,-0.375
2021-08-19 05:24:38.304,-0.015,-0.335
2021-08-19 05:24:38.308,0.015,-0.345
2021-08-19 05:24:38.312,0.02,-0.365
2021-08-19 05:24:38.316,0.0,-0.335
2021-08-19 05:24:38.320,0.045,-0.32
2021-08-19 05:24:38.324,0.055,-0.34
2021-08-19 05:24:38.328,0.045,-0.365
2021-08-19 05:24:38.332,0.045,-0.395
2021-08-19 05:24:38.336,0.06,-0.425
2021-08-19 05:24:38.340,0.075,-0.4
2021-08-19 05:24:38.344,0.095,-0.375
2021-08-19 05:24:38.348,0.065,-0.355
2021-08-19 05:24:38.352,0.035,-0.39
2021-08-19 05:24:38.356,-0.015,-0.43
2021-08-19 05:24:38.360,-0.035,-0.405
2021-08-19 05:24:38.364,-0.055,-0.44
2021-08-19 05:24:38.368,-0.08,-0.485
2021-08-19 05:24:38.372,-0.12,-0.515
2021-08-19 05:24:38.376,-0.145,-0.51
2021-08-19 05:24:38.380,-0.155,-0.51
2021-08-19 05:24:38.384,-0.175,-0.52
2021-08-19 05:24:38.388,-0.18,-0.53
2021-08-19 05:24:38.392,-0.19,-0.515
2021-08-19 05:24:38.396,-0.18,-0.5
2021-08-19 05:24:38.400,-0.18,-0.525
2021-08-19 05:24:38.404,-0.175,-0.525
2021-08-19 05:24:38.408,-0.185,-0.53
2021-08-19 05:24:38.412,-0.195,-0.535
2021-08-19 05:24:38.416,-0.22,-0.535
2021-08-19 05:24:38.420,-0.195,-0.52
2021-08-19 05:24:38.424,-0.18,-0.515
2021-08-19 05:24:38.428,-0.2,-0.515
2021-08-19 05:24:38.432,-0.195,-0.495
2021-08-19 05:24:38.436,-0.195,-0.51
2021-08-19 05:24:38.440,-0.22,-0.53
2021-08-19 05:24:38.444,-0.195,-0.51
2021-08-19 05:24:38.448,-0.18,-0.48
2021-08-19 05:24:38.452,-0.185,-0.495
2021-08-19 05:24:38.456,-0.19,-0.51
2021-08-19 05:24:38.460,-0.2,-0.48
2021-08-19 05:24:38.464,-0.18,-0.495
2021-08-19 05:24:38.468,-0.22,-0.47
2021-08-19 05:24:38.472,-0.325,-0.51
2021-08-19 05:24:38.476,-0.42,-0.46
2021-08-19 05:24:38.480,-0.45,-0.465
2021-08-19 05:24:38.484,-0.405,-0.575
2021-08-19 05:24:38.488,-0.4,-0.655
2021-08-19 05:24:38.492,-0.32,-0.69
2021-08-19 05:24:38.496,-0.135,-0.855
2021-08-19 05:24:38.500,-0.105,-0.85
2021-08-19 05:24:38.504,-0.145,-0.64
2021-08-19 05:24:38.508,0.015,-0.59
2021-08-19 05:24:38.512,0.205,-0.4
2021-08-19 05:24:38.516,0.06,0.135
2021-08-19 05:24:38.520,-0.38,0.755
2021-08-19 05:24:38.524,-1.02,0.925
2021-08-19 05:24:38.528,-1.605,-0.02
2021-08-19 05:24:38.532,-1.915,-1.55
2021-08-19 05:24:38.560,-1.565,-1.805
2021-08-19 05:24:38.564,-1.275,-1.485
2021-08-19 05:24:38.568,-0.88,-1.275
2021-08-19 05:24:38.572,-0.595,-1.085
2021-08-19 05:24:38.576,-0.41,-0.845
2021-08-19 05:24:38.580,-0.275,-0.71
2021-08-19 05:24:38.584,-0.15,-0.585
2021-08-19 05:24:38.588,-0.095,-0.53
2021-08-19 05:24:38.592,-0.08,-0.475
2021-08-19 05:24:38.596,-0.05,-0.45
2021-08-19 05:24:38.600,-0.04,-0.455
2021-08-19 05:24:38.604,-0.025,-0.43
2021-08-19 05:24:38.608,0.0,-0.42
2021-08-19 05:24:38.612,0.025,-0.395
2021-08-19 05:24:38.616,0.0,-0.425
2021-08-19 05:24:38.620,0.0,-0.41
2021-08-19 05:24:38.624,0.0,-0.42
2021-08-19 05:24:38.628,0.045,-0.405
2021-08-19 05:24:38.632,0.04,-0.425
2021-08-19 05:24:38.636,0.015,-0.415
2021-08-19 05:24:38.640,0.015,-0.44
2021-08-19 05:24:38.644,0.045,-0.43
2021-08-19 05:24:38.648,0.05,-0.41
2021-08-19 05:24:38.652,0.07,-0.415
2021-08-19 05:24:38.656,0.085,-0.435
2021-08-19 05:24:38.660,0.045,-0.415
2021-08-19 05:24:38.664,0.1,-0.44
2021-08-19 05:24:38.668,0.115,-0.385
2021-08-19 05:24:38.672,0.135,-0.38
2021-08-19 05:24:38.676,0.14,-0.395
2021-08-19 05:24:38.680,0.15,-0.39
2021-08-19 05:24:38.684,0.17,-0.36
2021-08-19 05:24:38.688,0.205,-0.34
2021-08-19 05:24:38.692,0.24,-0.34
2021-08-19 05:24:38.696,0.235,-0.335
2021-08-19 05:24:38.700,0.25,-0.305
2021-08-19 05:24:38.704,0.285,-0.3
2021-08-19 05:24:38.708,0.31,-0.23
2021-08-19 05:24:38.712,0.355,-0.21
2021-08-19 05:24:38.716,0.365,-0.165
2021-08-19 05:24:38.720,0.37,-0.14
2021-08-19 05:24:38.724,0.38,-0.09
2021-08-19 05:24:38.728,0.455,-0.09
2021-08-19 05:24:38.732,0.46,-0.01
2021-08-19 05:24:38.736,0.49,0.01
2021-08-19 05:24:38.740,0.51,0.025
2021-08-19 05:24:38.744,0.55,0.085
2021-08-19 05:24:38.748,0.565,0.135
2021-08-19 05:24:38.752,0.59,0.155
2021-08-19 05:24:38.756,0.61,0.195
2021-08-19 05:24:38.760,0.595,0.225
2021-08-19 05:24:38.764,0.605,0.245
2021-08-19 05:24:38.768,0.615,0.27
2021-08-19 05:24:38.772,0.625,0.285
2021-08-19 05:24:38.776,0.6,0.29
2021-08-19 05:24:38.780,0.605,0.315
2021-08-19 05:24:38.784,0.585,0.38
2021-08-19 05:24:38.788,0.615,0.335
2021-08-19 05:24:38.792,0.625,0.38
2021-08-19 05:24:38.796,0.625,0.415
2021-08-19 05:24:38.800,0.585,0.435
2021-08-19 05:24:38.804,0.585,0.445
2021-08-19 05:24:38.808,0.605,0.45
2021-08-19 05:24:38.812,0.57,0.5
2021-08-19 05:24:38.816,0.53,0.5
2021-08-19 05:24:38.820,0.49,0.48
2021-08-19 05:24:38.824,0.445,0.515
2021-08-19 05:24:38.828,0.425,0.485
2021-08-19 05:24:38.832,0.345,0.445
2021-08-19 05:24:38.836,0.315,0.42
2021-08-19 05:24:38.840,0.26,0.405
2021-08-19 05:24:38.844,0.22,0.41
2021-08-19 05:24:38.848,0.175,0.39
2021-08-19 05:24:38.852,0.175,0.365
2021-08-19 05:24:38.856,0.145,0.315
2021-08-19 05:24:38.860,0.08,0.295
2021-08-19 05:24:38.864,0.055,0.27
2021-08-19 05:24:38.868,0.055,0.22
2021-08-19 05:24:38.872,0.035,0.215
2021-08-19 05:24:38.876,0.005,0.22
2021-08-19 05:24:38.880,-0.01,0.165
2021-08-19 05:24:38.884,-0.035,0.16
2021-08-19 05:24:38.888,-0.025,0.11
2021-08-19 05:24:38.892,-0.005,0.115
2021-08-19 05:24:38.896,-0.02,0.06
2021-08-19 05:24:38.900,-0.005,0.07
2021-08-19 05:24:38.904,-0.03,0.055
2021-08-19 05:24:38.908,-0.015,0.045
2021-08-19 05:24:38.912,-0.005,0.015
2021-08-19 05:24:38.916,-0.01,0.01
2021-08-19 05:24:38.920,-0.015,0.03
2021-08-19 05:24:38.924,-0.02,0.015
2021-08-19 05:24:38.928,-0.02,0.0
2021-08-19 05:24:38.932,-0.01,0.0
2021-08-19 05:24:38.936,-0.02,0.0
2021-08-19 05:24:38.940,-0.05,-0.03
2021-08-19 05:24:38.944,-0.025,-0.055
2021-08-19 05:24:38.948,-0.04,-0.03
2021-08-19 05:24:38.952,-0.035,-0.08
2021-08-19 05:24:38.956,-0.005,-0.09
2021-08-19 05:24:38.960,-0.035,-0.13
2021-08-19 05:24:38.964,-0.055,-0.1
2021-08-19 05:24:38.968,-0.06,-0.095
2021-08-19 05:24:38.972,-0.035,-0.135
2021-08-19 05:24:38.976,-0.04,-0.15
2021-08-19 05:24:38.980,-0.065,-0.16
2021-08-19 05:24:38.984,-0.085,-0.155
2021-08-19 05:24:38.988,-0.07,-0.16
2021-08-19 05:24:38.992,-0.05,-0.175
2021-08-19 05:24:38.996,-0.055,-0.19
2021-08-19 05:24:39.000,-0.065,-0.195
2021-08-19 05:24:39.004,-0.08,-0.22
2021-08-19 05:24:39.008,-0.07,-0.22
2021-08-19 05:24:39.012,-0.085,-0.185
2021-08-19 05:24:39.016,-0.095,-0.22
2021-08-19 05:24:39.020,-0.08,-0.215
2021-08-19 05:24:39.024,-0.105,-0.225
2021-08-19 05:24:39.028,-0.12,-0.225
2021-08-19 05:24:39.032,-0.095,-0.205
2021-08-19 05:24:39.036,-0.08,-0.235
2021-08-19 05:24:39.040,-0.095,-0.245
2021-08-19 05:24:39.044,-0.12,-0.245
2021-08-19 05:24:39.048,-0.115,-0.21
2021-08-19 05:24:39.052,-0.08,-0.215
2021-08-19 05:24:39.056,-0.08,-0.26
2021-08-19 05:24:39.060,-0.09,-0.225
2021-08-19 05:24:39.064,-0.13,-0.23
2021-08-19 05:24:39.068,-0.1,-0.23
2021-08-19 05:24:39.072,-0.095,-0.27
2021-08-19 05:24:39.076,-0.115,-0.25
2021-08-19 05:24:39.080,-0.095,-0.24
2021-08-19 05:24:39.084,-0.125,-0.22
2021-08-19 05:24:39.088,-0.12,-0.265
2021-08-19 05:24:39.092,-0.095,-0.255
2021-08-19 05:24:39.096,-0.1,-0.235
2021-08-19 05:24:39.100,-0.11,-0.225
2021-08-19 05:24:39.104,-0.13,-0.265
2021-08-19 05:24:39.108,-0.105,-0.26
2021-08-19 05:24:39.112,-0.105,-0.255
2021-08-19 05:24:39.116,-0.12,-0.265
2021-08-19 05:24:39.120,-0.11,-0.27
2021-08-19 05:24:39.124,-0.13,-0.24
2021-08-19 05:24:39.128,-0.12,-0.26
2021-08-19 05:24:39.132,-0.105,-0.225
2021-08-19 05:24:39.136,-0.1,-0.265
2021-08-19 05:24:39.140,-0.13,-0.25
2021-08-19 05:24:39.144,-0.115,-0.215
2021-08-19 05:24:39.148,-0.13,-0.24
2021-08-19 05:24:39.152,-0.125,-0.235
2021-08-19 05:24:39.156,-0.125,-0.255
2021-08-19 05:24:39.160,-0.135,-0.26
2021-08-19 05:24:39.164,-0.165,-0.245
2021-08-19 05:24:39.168,-0.135,-0.24
2021-08-19 05:24:39.172,-0.14,-0.245
2021-08-19 05:24:39.176,-0.145,-0.225
2021-08-19 05:24:39.180,-0.145,-0.25
2021-08-19 05:24:39.184,-0.125,-0.225
2021-08-19 05:24:39.188,-0.14,-0.255
2021-08-19 05:24:39.192,-0.145,-0.26
2021-08-19 05:24:39.196,-0.12,-0.245
2021-08-19 05:24:39.200,-0.11,-0.225
2021-08-19 05:24:39.204,-0.115,-0.255
2021-08-19 05:24:39.208,-0.15,-0.23
2021-08-19 05:24:39.212,-0.15,-0.26
2021-08-19 05:24:39.216,-0.125,-0.255
2021-08-19 05:24:39.220,-0.12,-0.245
2021-08-19 05:24:39.224,-0.145,-0.25
2021-08-19 05:24:39.228,-0.175,-0.215
2021-08-19 05:24:39.232,-0.16,-0.22
2021-08-19 05:24:39.236,-0.125,-0.23
2021-08-19 05:24:39.240,-0.13,-0.22
2021-08-19 05:24:39.244,-0.13,-0.25
2021-08-19 05:24:39.248,-0.155,-0.23
2021-08-19 05:24:39.252,-0.14,-0.265
2021-08-19 05:24:39.256,-0.085,-0.22
2021-08-19 05:24:39.260,-0.055,-0.195
2021-08-19 05:24:39.264,-0.075,-0.18
2021-08-19 05:24:39.268,-0.055,-0.155
2021-08-19 05:24:39.272,-0.065,-0.14
2021-08-19 05:24:39.276,-0.08,-0.13
2021-08-19 05:24:39.280,-0.01,-0.13
2021-08-19 05:24:39.284,-0.025,-0.095
2021-08-19 05:24:39.288,-0.045,-0.125
2021-08-19 05:24:39.292,-0.025,-0.13
2021-08-19 05:24:39.296,0.015,-0.12
2021-08-19 05:24:39.300,0.02,-0.2
2021-08-19 05:24:39.304,0.03,-0.21
2021-08-19 05:24:39.308,0.01,-0.22
2021-08-19 05:24:39.312,0.015,-0.175
2021-08-19 05:24:39.316,-0.015,-0.21
2021-08-19 05:24:39.320,-0.015,-0.175
2021-08-19 05:24:39.324,-0.075,-0.21
2021-08-19 05:24:39.328,-0.1,-0.24
2021-08-19 05:24:39.332,-0.12,-0.265
2021-08-19 05:24:39.336,-0.16,-0.285
2021-08-19 05:24:39.340,-0.175,-0.315
2021-08-19 05:24:39.344,-0.21,-0.32
2021-08-19 05:24:39.348,-0.255,-0.34
2021-08-19 05:24:39.352,-0.265,-0.355
2021-08-19 05:24:39.356,-0.285,-0.315
2021-08-19 05:24:39.360,-0.275,-0.35
2021-08-19 05:24:39.364,-0.27,-0.38
2021-08-19 05:24:39.368,-0.28,-0.37
2021-08-19 05:24:39.372,-0.275,-0.38
2021-08-19 05:24:39.376,-0.305,-0.39
2021-08-19 05:24:39.380,-0.255,-0.385
2021-08-19 05:24:39.384,-0.265,-0.385
2021-08-19 05:24:39.388,-0.305,-0.41
2021-08-19 05:24:39.392,-0.28,-0.4
2021-08-19 05:24:39.396,-0.285,-0.41
2021-08-19 05:24:39.400,-0.27,-0.38
2021-08-19 05:24:39.404,-0.3,-0.39
2021-08-19 05:24:39.408,-0.305,-0.38
2021-08-19 05:24:39.412,-0.31,-0.37
2021-08-19 05:24:39.416,-0.32,-0.37
2021-08-19 05:24:39.420,-0.29,-0.37
2021-08-19 05:24:39.424,-0.275,-0.36
2021-08-19 05:24:39.428,-0.3,-0.385
2021-08-19 05:24:39.432,-0.32,-0.355
2021-08-19 05:24:39.436,-0.35,-0.36
2021-08-19 05:24:39.440,-0.385,-0.33
2021-08-19 05:24:39.444,-0.475,-0.36
2021-08-19 05:24:39.448,-0.54,-0.45
2021-08-19 05:24:39.452,-0.51,-0.495
2021-08-19 05:24:39.456,-0.51,-0.57
2021-08-19 05:24:39.460,-0.425,-0.66
2021-08-19 05:24:39.464,-0.265,-0.795
2021-08-19 05:24:39.468,-0.23,-0.765
2021-08-19 05:24:39.472,-0.355,-0.51
2021-08-19 05:24:39.476,-0.195,-0.415
2021-08-19 05:24:39.480,0.01,-0.11
2021-08-19 05:24:39.484,-0.245,0.59
2021-08-19 05:24:39.488,-0.735,1.155
2021-08-19 05:24:39.492,-1.37,1.04
2021-08-19 05:24:39.496,-1.885,-0.155
2021-08-19 05:24:39.524,-1.85,-1.865
2021-08-19 05:24:39.528,-1.58,-1.57
2021-08-19 05:24:39.532,-1.185,-1.29
2021-08-19 05:24:39.536,-0.86,-1.07
2021-08-19 05:24:39.540,-0.58,-0.84
2021-08-19 05:24:39.544,-0.435,-0.59
2021-08-19 05:24:39.548,-0.33,-0.51
2021-08-19 05:24:39.552,-0.24,-0.435
2021-08-19 05:24:39.556,-0.21,-0.39
2021-08-19 05:24:39.560,-0.21,-0.365
2021-08-19 05:24:39.564,-0.185,-0.335
2021-08-19 05:24:39.568,-0.17,-0.32
2021-08-19 05:24:39.572,-0.16,-0.335
2021-08-19 05:24:39.576,-0.175,-0.34
2021-08-19 05:24:39.580,-0.145,-0.35
2021-08-19 05:24:39.584,-0.11,-0.33
2021-08-19 05:24:39.588,-0.125,-0.295
2021-08-19 05:24:39.592,-0.13,-0.315
2021-08-19 05:24:39.596,-0.13,-0.35
2021-08-19 05:24:39.600,-0.13,-0.31
2021-08-19 05:24:39.604,-0.1,-0.345
2021-08-19 05:24:39.608,-0.125,-0.345
2021-08-19 05:24:39.612,-0.13,-0.335
2021-08-19 05:24:39.616,-0.135,-0.325
2021-08-19 05:24:39.620,-0.105,-0.33
2021-08-19 05:24:39.624,-0.075,-0.355
2021-08-19 05:24:39.628,-0.075,-0.32
2021-08-19 05:24:39.632,-0.08,-0.3
2021-08-19 05:24:39.636,-0.085,-0.3
2021-08-19 05:24:39.640,-0.05,-0.32
2021-08-19 05:24:39.644,-0.015,-0.28
2021-08-19 05:24:39.648,-0.03,-0.3
2021-08-19 05:24:39.652,-0.005,-0.275
2021-08-19 05:24:39.656,0.01,-0.22
2021-08-19 05:24:39.660,0.04,-0.205
2021-08-19 05:24:39.664,0.05,-0.16
2021-08-19 05:24:39.668,0.1,-0.165
2021-08-19 05:24:39.672,0.1,-0.17
2021-08-19 05:24:39.676,0.11,-0.13
2021-08-19 05:24:39.680,0.17,-0.1
2021-08-19 05:24:39.684,0.19,-0.05
2021-08-19 05:24:39.688,0.195,-0.05
2021-08-19 05:24:39.692,0.22,0.03
2021-08-19 05:24:39.696,0.235,0.07
2021-08-19 05:24:39.700,0.265,0.13
2021-08-19 05:24:39.704,0.325,0.15
2021-08-19 05:24:39.708,0.35,0.2
2021-08-19 05:24:39.712,0.35,0.23
2021-08-19 05:24:39.716,0.335,0.26
2021-08-19 05:24:39.720,0.36,0.325
2021-08-19 05:24:39.724,0.38,0.35
2021-08-19 05:24:39.728,0.405,0.375
2021-08-19 05:24:39.732,0.395,0.385
2021-08-19 05:24:39.736,0.415,0.465
2021-08-19 05:24:39.740,0.385,0.44
2021-08-19 05:24:39.744,0.44,0.475
2021-08-19 05:24:39.748,0.415,0.515
2021-08-19 05:24:39.752,0.45,0.57
2021-08-19 05:24:39.756,0.405,0.55
2021-08-19 05:24:39.760,0.43,0.62
2021-08-19 05:24:39.764,0.44,0.6
2021-08-19 05:24:39.768,0.425,0.635
2021-08-19 05:24:39.772,0.4,0.635
2021-08-19 05:24:39.776,0.36,0.675
2021-08-19 05:24:39.780,0.355,0.665
2021-08-19 05:24:39.784,0.345,0.68
2021-08-19 05:24:39.788,0.34,0.65
2021-08-19 05:24:39.792,0.28,0.665
2021-08-19 05:24:39.796,0.245,0.635
2021-08-19 05:24:39.800,0.195,0.66
2021-08-19 05:24:39.804,0.145,0.6
2021-08-19 05:24:39.808,0.12,0.6
2021-08-19 05:24:39.812,0.09,0.555
2021-08-19 05:24:39.816,0.0,0.535
2021-08-19 05:24:39.820,-0.03,0.465
2021-08-19 05:24:39.824,-0.05,0.45
2021-08-19 05:24:39.828,-0.065,0.435
2021-08-19 05:24:39.832,-0.085,0.38
2021-08-19 05:24:39.836,-0.14,0.345
2021-08-19 05:24:39.840,-0.135,0.32
2021-08-19 05:24:39.844,-0.18,0.23
2021-08-19 05:24:39.848,-0.18,0.205
2021-08-19 05:24:39.852,-0.18,0.19
2021-08-19 05:24:39.856,-0.21,0.155
2021-08-19 05:24:39.860,-0.23,0.12
2021-08-19 05:24:39.864,-0.235,0.125
2021-08-19 05:24:39.868,-0.22,0.105
2021-08-19 05:24:39.872,-0.2,0.065
2021-08-19 05:24:39.876,-0.225,0.06
2021-08-19 05:24:39.880,-0.22,0.035
2021-08-19 05:24:39.884,-0.255,0.015
2021-08-19 05:24:39.888,-0.215,0.025
2021-08-19 05:24:39.892,-0.225,0.0
2021-08-19 05:24:39.896,-0.23,-0.015
2021-08-19 05:24:39.900,-0.25,-0.025
2021-08-19 05:24:39.904,-0.23,-0.015
2021-08-19 05:24:39.908,-0.21,-0.005
2021-08-19 05:24:39.912,-0.21,-0.04
2021-08-19 05:24:39.916,-0.26,-0.03
2021-08-19 05:24:39.920,-0.24,-0.055
2021-08-19 05:24:39.924,-0.255,-0.09
2021-08-19 05:24:39.928,-0.24,-0.08
2021-08-19 05:24:39.932,-0.23,-0.13
2021-08-19 05:24:39.936,-0.225,-0.11
2021-08-19 05:24:39.940,-0.235,-0.13
2021-08-19 05:24:39.944,-0.24,-0.135
2021-08-19 05:24:39.948,-0.25,-0.14
2021-08-19 05:24:39.952,-0.245,-0.175
2021-08-19 05:24:39.956,-0.265,-0.16
2021-08-19 05:24:39.960,-0.265,-0.195
2021-08-19 05:24:39.964,-0.285,-0.18
2021-08-19 05:24:39.968,-0.25,-0.18
2021-08-19 05:24:39.972,-0.25,-0.215
2021-08-19 05:24:39.976,-0.29,-0.24
2021-08-19 05:24:39.980,-0.315,-0.2
2021-08-19 05:24:39.984,-0.295,-0.23
2021-08-19 05:24:39.988,-0.285,-0.215
2021-08-19 05:24:39.992,-0.275,-0.235
2021-08-19 05:24:39.996,-0.295,-0.22
2021-08-19 05:24:40.000,-0.27,-0.205
2021-08-19 05:24:40.004,-0.28,-0.275
2021-08-19 05:24:40.008,-0.285,-0.21
2021-08-19 05:24:40.012,-0.28,-0.235
2021-08-19 05:24:40.016,-0.29,-0.23
2021-08-19 05:24:40.020,-0.29,-0.27
2021-08-19 05:24:40.024,-0.285,-0.265
2021-08-19 05:24:40.028,-0.28,-0.275
2021-08-19 05:24:40.032,-0.29,-0.265
2021-08-19 05:24:40.036,-0.295,-0.28
2021-08-19 05:24:40.040,-0.32,-0.29
2021-08-19 05:24:40.044,-0.325,-0.28
2021-08-19 05:24:40.048,-0.295,-0.245
2021-08-19 05:24:40.052,-0.28,-0.29
2021-08-19 05:24:40.056,-0.3,-0.28
2021-08-19 05:24:40.060,-0.32,-0.305
2021-08-19 05:24:40.064,-0.315,-0.275
2021-08-19 05:24:40.068,-0.3,-0.285
2021-08-19 05:24:40.072,-0.29,-0.255
2021-08-19 05:24:40.076,-0.29,-0.295
2021-08-19 05:24:40.080,-0.3,-0.31
2021-08-19 05:24:40.084,-0.285,-0.315
2021-08-19 05:24:40.088,-0.295,-0.305
2021-08-19 05:24:40.092,-0.29,-0.32
2021-08-19 05:24:40.096,-0.27,-0.33
2021-08-19 05:24:40.100,-0.3,-0.32
2021-08-19 05:24:40.104,-0.3,-0.33
2021-08-19 05:24:40.108,-0.31,-0.31
2021-08-19 05:24:40.112,-0.29,-0.3
2021-08-19 05:24:40.116,-0.3,-0.28
2021-08-19 05:24:40.120,-0.295,-0.34
2021-08-19 05:24:40.124,-0.315,-0.32
2021-08-19 05:24:40.128,-0.305,-0.31
2021-08-19 05:24:40.132,-0.3,-0.34
2021-08-19 05:24:40.136,-0.305,-0.32
2021-08-19 05:24:40.140,-0.295,-0.37
2021-08-19 05:24:40.144,-0.34,-0.355
2021-08-19 05:24:40.148,-0.345,-0.335
2021-08-19 05:24:40.152,-0.315,-0.36
2021-08-19 05:24:40.156,-0.315,-0.34
2021-08-19 05:24:40.160,-0.32,-0.33
2021-08-19 05:24:40.164,-0.345,-0.325
2021-08-19 05:24:40.168,-0.32,-0.335
2021-08-19 05:24:40.172,-0.31,-0.32
2021-08-19 05:24:40.176,-0.315,-0.355
2021-08-19 05:24:40.180,-0.32,-0.36
2021-08-19 05:24:40.184,-0.345,-0.365
2021-08-19 05:24:40.188,-0.315,-0.345
2021-08-19 05:24:40.192,-0.305,-0.36
2021-08-19 05:24:40.196,-0.29,-0.375
2021-08-19 05:24:40.200,-0.32,-0.36
2021-08-19 05:24:40.204,-0.305,-0.33
2021-08-19 05:24:40.208,-0.3,-0.34
2021-08-19 05:24:40.212,-0.285,-0.33
2021-08-19 05:24:40.216,-0.21,-0.31
2021-08-19 05:24:40.220,-0.215,-0.305
2021-08-19 05:24:40.224,-0.215,-0.255
2021-08-19 05:24:40.228,-0.21,-0.21
2021-08-19 05:24:40.232,-0.195,-0.235
2021-08-19 05:24:40.236,-0.175,-0.24
2021-08-19 05:24:40.240,-0.2,-0.2
2021-08-19 05:24:40.244,-0.225,-0.19
2021-08-19 05:24:40.248,-0.185,-0.19
2021-08-19 05:24:40.252,-0.125,-0.235
2021-08-19 05:24:40.256,-0.13,-0.26
2021-08-19 05:24:40.260,-0.115,-0.245
2021-08-19 05:24:40.264,-0.125,-0.27
2021-08-19 05:24:40.268,-0.12,-0.29
2021-08-19 05:24:40.272,-0.15,-0.28
2021-08-19 05:24:40.276,-0.17,-0.295
2021-08-19 05:24:40.280,-0.215,-0.295
2021-08-19 05:24:40.284,-0.27,-0.37
2021-08-19 05:24:40.288,-0.29,-0.36
2021-08-19 05:24:40.292,-0.305,-0.38
2021-08-19 05:24:40.296,-0.32,-0.425
2021-08-19 05:24:40.300,-0.345,-0.42
2021-08-19 05:24:40.304,-0.36,-0.425
2021-08-19 05:24:40.308,-0.4,-0.42
2021-08-19 05:24:40.312,-0.405,-0.435
2021-08-19 05:24:40.316,-0.405,-0.48
2021-08-19 05:24:40.320,-0.395,-0.475
2021-08-19 05:24:40.324,-0.43,-0.475
2021-08-19 05:24:40.328,-0.43,-0.505
2021-08-19 05:24:40.332,-0.42,-0.505
2021-08-19 05:24:40.336,-0.395,-0.46
2021-08-19 05:24:40.340,-0.41,-0.47
2021-08-19 05:24:40.344,-0.435,-0.46
2021-08-19 05:24:40.348,-0.435,-0.49
2021-08-19 05:24:40.352,-0.415,-0.455
2021-08-19 05:24:40.356,-0.425,-0.445
2021-08-19 05:24:40.360,-0.42,-0.475
2021-08-19 05:24:40.364,-0.405,-0.49
2021-08-19 05:24:40.368,-0.445,-0.485
2021-08-19 05:24:40.372,-0.425,-0.445
2021-08-19 05:24:40.376,-0.38,-0.455
2021-08-19 05:24:40.380,-0.42,-0.445
2021-08-19 05:24:40.384,-0.435,-0.47
2021-08-19 05:24:40.388,-0.45,-0.465
2021-08-19 05:24:40.392,-0.48,-0.46
2021-08-19 05:24:40.396,-0.51,-0.48
2021-08-19 05:24:40.400,-0.59,-0.52
2021-08-19 05:24:40.404,-0.62,-0.555
2021-08-19 05:24:40.408,-0.585,-0.65
2021-08-19 05:24:40.412,-0.59,-0.74
2021-08-19 05:24:40.416,-0.505,-0.83
2021-08-19 05:24:40.420,-0.365,-0.975
2021-08-19 05:24:40.424,-0.445,-0.84
2021-08-19 05:24:40.428,-0.615,-0.695
2021-08-19 05:24:40.432,-0.475,-0.55
2021-08-19 05:24:40.436,-0.425,-0.11
2021-08-19 05:24:40.440,-0.735,0.57
2021-08-19 05:24:40.444,-1.265,0.95
2021-08-19 05:24:40.448,-1.77,0.42
2021-08-19 05:24:40.480,-1.96,-1.97
2021-08-19 05:24:40.484,-1.635,-1.68
2021-08-19 05:24:40.488,-1.235,-1.34
2021-08-19 05:24:40.492,-0.865,-1.11
2021-08-19 05:24:40.496,-0.59,-0.865
2021-08-19 05:24:40.500,-0.475,-0.665
2021-08-19 05:24:40.504,-0.365,-0.585
2021-08-19 05:24:40.508,-0.33,-0.515
2021-08-19 05:24:40.512,-0.29,-0.465
2021-08-19 05:24:40.516,-0.265,-0.4
2021-08-19 05:24:40.520,-0.25,-0.4
2021-08-19 05:24:40.524,-0.215,-0.415
2021-08-19 05:24:40.528,-0.22,-0.425
2021-08-19 05:24:40.532,-0.21,-0.4
2021-08-19 05:24:40.536,-0.2,-0.41
2021-08-19 05:24:40.540,-0.18,-0.42
2021-08-19 05:24:40.544,-0.2,-0.435
2021-08-19 05:24:40.548,-0.23,-0.435
2021-08-19 05:24:40.552,-0.215,-0.4
2021-08-19 05:24:40.556,-0.185,-0.41
2021-08-19 05:24:40.560,-0.17,-0.415
2021-08-19 05:24:40.564,-0.185,-0.41
2021-08-19 05:24:40.568,-0.16,-0.43
2021-08-19 05:24:40.572,-0.185,-0.425
2021-08-19 05:24:40.576,-0.14,-0.445
2021-08-19 05:24:40.580,-0.155,-0.4
2021-08-19 05:24:40.584,-0.135,-0.405
2021-08-19 05:24:40.588,-0.15,-0.36
2021-08-19 05:24:40.592,-0.115,-0.375
2021-08-19 05:24:40.596,-0.095,-0.405
2021-08-19 05:24:40.600,-0.105,-0.355
2021-08-19 05:24:40.604,-0.08,-0.35
2021-08-19 05:24:40.608,-0.045,-0.32
2021-08-19 05:24:40.612,-0.035,-0.33
2021-08-19 05:24:40.616,-0.04,-0.265
2021-08-19 05:24:40.620,0.01,-0.255
2021-08-19 05:24:40.624,0.025,-0.225
2021-08-19 05:24:40.628,0.065,-0.23
2021-08-19 05:24:40.632,0.065,-0.2
2021-08-19 05:24:40.636,0.05,-0.14
2021-08-19 05:24:40.640,0.15,-0.105
2021-08-19 05:24:40.644,0.175,-0.1
2021-08-19 05:24:40.648,0.17,-0.02
2021-08-19 05:24:40.652,0.17,0.03
2021-08-19 05:24:40.656,0.21,0.045
2021-08-19 05:24:40.660,0.245,0.105
2021-08-19 05:24:40.664,0.28,0.14
2021-08-19 05:24:40.668,0.285,0.195
2021-08-19 05:24:40.672,0.29,0.255
2021-08-19 05:24:40.676,0.32,0.255
2021-08-19 05:24:40.680,0.34,0.275
2021-08-19 05:24:40.684,0.335,0.335
2021-08-19 05:24:40.688,0.36,0.33
2021-08-19 05:24:40.692,0.335,0.37
2021-08-19 05:24:40.696,0.34,0.39
2021-08-19 05:24:40.700,0.355,0.42
2021-08-19 05:24:40.704,0.375,0.45
2021-08-19 05:24:40.708,0.345,0.47
2021-08-19 05:24:40.712,0.37,0.455
2021-08-19 05:24:40.716,0.345,0.52
2021-08-19 05:24:40.720,0.36,0.5
2021-08-19 05:24:40.724,0.36,0.555
2021-08-19 05:24:40.728,0.335,0.555
2021-08-19 05:24:40.732,0.305,0.595
2021-08-19 05:24:40.736,0.285,0.58
2021-08-19 05:24:40.740,0.275,0.62
2021-08-19 05:24:40.744,0.245,0.605
2021-08-19 05:24:40.748,0.195,0.615
2021-08-19 05:24:40.752,0.145,0.58
2021-08-19 05:24:40.756,0.08,0.565
2021-08-19 05:24:40.760,0.09,0.555
2021-08-19 05:24:40.764,0.035,0.535
2021-08-19 05:24:40.768,-0.015,0.495
2021-08-19 05:24:40.772,-0.075,0.47
2021-08-19 05:24:40.776,-0.105,0.415
2021-08-19 05:24:40.780,-0.14,0.375
2021-08-19 05:24:40.784,-0.15,0.34
2021-08-19 05:24:40.788,-0.145,0.3
2021-08-19 05:24:40.792,-0.205,0.235
2021-08-19 05:24:40.796,-0.255,0.185
2021-08-19 05:24:40.800,-0.245,0.155
2021-08-19 05:24:40.804,-0.225,0.11
2021-08-19 05:24:40.808,-0.265,0.075
2021-08-19 05:24:40.812,-0.265,0.04
2021-08-19 05:24:40.816,-0.285,0.04
2021-08-19 05:24:40.820,-0.29,0.015
2021-08-19 05:24:40.824,-0.26,-0.055
2021-08-19 05:24:40.828,-0.275,-0.055
2021-08-19 05:24:40.832,-0.29,-0.04
2021-08-19 05:24:40.836,-0.28,-0.075
2021-08-19 05:24:40.840,-0.26,-0.095
2021-08-19 05:24:40.844,-0.26,-0.1
2021-08-19 05:24:40.848,-0.28,-0.1
2021-08-19 05:24:40.852,-0.295,-0.12
2021-08-19 05:24:40.856,-0.26,-0.14
2021-08-19 05:24:40.860,-0.255,-0.145
2021-08-19 05:24:40.864,-0.28,-0.125
2021-08-19 05:24:40.868,-0.26,-0.115
2021-08-19 05:24:40.872,-0.27,-0.155
2021-08-19 05:24:40.876,-0.27,-0.14
2021-08-19 05:24:40.880,-0.275,-0.145
2021-08-19 05:24:40.884,-0.245,-0.17
2021-08-19 05:24:40.888,-0.25,-0.17
2021-08-19 05:24:40.892,-0.265,-0.19
2021-08-19 05:24:40.896,-0.26,-0.19
2021-08-19 05:24:40.900,-0.275,-0.235
2021-08-19 05:24:40.904,-0.24,-0.225
2021-08-19 05:24:40.908,-0.26,-0.245
2021-08-19 05:24:40.912,-0.28,-0.26
2021-08-19 05:24:40.916,-0.275,-0.265
2021-08-19 05:24:40.920,-0.28,-0.25
2021-08-19 05:24:40.924,-0.295,-0.28
2021-08-19 05:24:40.928,-0.275,-0.275
2021-08-19 05:24:40.932,-0.28,-0.29
2021-08-19 05:24:40.936,-0.3,-0.285
2021-08-19 05:24:40.940,-0.275,-0.25
2021-08-19 05:24:40.944,-0.295,-0.31
2021-08-19 05:24:40.948,-0.305,-0.3
2021-08-19 05:24:40.952,-0.3,-0.325
2021-08-19 05:24:40.956,-0.32,-0.33
2021-08-19 05:24:40.960,-0.29,-0.295
2021-08-19 05:24:40.964,-0.315,-0.32
2021-08-19 05:24:40.968,-0.3,-0.295
2021-08-19 05:24:40.972,-0.315,-0.33
2021-08-19 05:24:40.976,-0.33,-0.305
2021-08-19 05:24:40.980,-0.32,-0.32
2021-08-19 05:24:40.984,-0.29,-0.315
2021-08-19 05:24:40.988,-0.285,-0.335
2021-08-19 05:24:40.992,-0.295,-0.34
2021-08-19 05:24:40.996,-0.33,-0.335
2021-08-19 05:24:41.000,-0.31,-0.36
2021-08-19 05:24:41.004,-0.29,-0.31
2021-08-19 05:24:41.008,-0.31,-0.33
2021-08-19 05:24:41.012,-0.305,-0.365
2021-08-19 05:24:41.016,-0.325,-0.355
2021-08-19 05:24:41.020,-0.31,-0.35
2021-08-19 05:24:41.024,-0.285,-0.365
2021-08-19 05:24:41.028,-0.27,-0.355
2021-08-19 05:24:41.032,-0.315,-0.34
2021-08-19 05:24:41.036,-0.32,-0.4
2021-08-19 05:24:41.040,-0.325,-0.33
2021-08-19 05:24:41.044,-0.32,-0.355
2021-08-19 05:24:41.048,-0.32,-0.39
2021-08-19 05:24:41.052,-0.29,-0.38
2021-08-19 05:24:41.056,-0.34,-0.35
2021-08-19 05:24:41.060,-0.32,-0.35
2021-08-19 05:24:41.064,-0.3,-0.345
2021-08-19 05:24:41.068,-0.285,-0.36
2021-08-19 05:24:41.072,-0.31,-0.395
2021-08-19 05:24:41.076,-0.31,-0.37
2021-08-19 05:24:41.080,-0.32,-0.36
2021-08-19 05:24:41.084,-0.31,-0.36
2021-08-19 05:24:41.088,-0.29,-0.385
2021-08-19 05:24:41.092,-0.295,-0.375
2021-08-19 05:24:41.096,-0.295,-0.34
2021-08-19 05:24:41.100,-0.29,-0.38
2021-08-19 05:24:41.104,-0.32,-0.365
2021-08-19 05:24:41.108,-0.29,-0.385
2021-08-19 05:24:41.112,-0.3,-0.395
2021-08-19 05:24:41.116,-0.305,-0.365
2021-08-19 05:24:41.120,-0.315,-0.35
2021-08-19 05:24:41.124,-0.305,-0.37
2021-08-19 05:24:41.128,-0.26,-0.36
2021-08-19 05:24:41.132,-0.28,-0.365
2021-08-19 05:24:41.136,-0.31,-0.41
2021-08-19 05:24:41.140,-0.295,-0.36
2021-08-19 05:24:41.144,-0.285,-0.39
2021-08-19 05:24:41.148,-0.275,-0.415
2021-08-19 05:24:41.152,-0.28,-0.39
2021-08-19 05:24:41.156,-0.26,-0.36
2021-08-19 05:24:41.160,-0.235,-0.315
2021-08-19 05:24:41.164,-0.19,-0.285
2021-08-19 05:24:41.168,-0.18,-0.285
2021-08-19 05:24:41.172,-0.195,-0.285
2021-08-19 05:24:41.176,-0.18,-0.24
2021-08-19 05:24:41.180,-0.195,-0.215
2021-08-19 05:24:41.184,-0.155,-0.2
2021-08-19 05:24:41.188,-0.145,-0.235
2021-08-19 05:24:41.192,-0.135,-0.235
2021-08-19 05:24:41.196,-0.11,-0.315
2021-08-19 05:24:41.200,-0.11,-0.33
2021-08-19 05:24:41.204,-0.12,-0.32
2021-08-19 05:24:41.208,-0.09,-0.285
2021-08-19 05:24:41.212,-0.105,-0.285
2021-08-19 05:24:41.216,-0.145,-0.315
2021-08-19 05:24:41.220,-0.155,-0.325
2021-08-19 05:24:41.224,-0.175,-0.37
2021-08-19 05:24:41.228,-0.205,-0.39
2021-08-19 05:24:41.232,-0.25,-0.39
2021-08-19 05:24:41.236,-0.29,-0.44
2021-08-19 05:24:41.240,-0.32,-0.435
2021-08-19 05:24:41.244,-0.33,-0.465
2021-08-19 05:24:41.248,-0.33,-0.475
2021-08-19 05:24:41.252,-0.365,-0.515
2021-08-19 05:24:41.256,-0.4,-0.48
2021-08-19 05:24:41.260,-0.38,-0.51
2021-08-19 05:24:41.264,-0.405,-0.495
2021-08-19 05:24:41.268,-0.39,-0.475
2021-08-19 05:24:41.272,-0.365,-0.48
2021-08-19 05:24:41.276,-0.345,-0.485
2021-08-19 05:24:41.280,-0.365,-0.485
2021-08-19 05:24:41.284,-0.385,-0.475
2021-08-19 05:24:41.288,-0.39,-0.485
2021-08-19 05:24:41.292,-0.37,-0.505
2021-08-19 05:24:41.296,-0.36,-0.49
2021-08-19 05:24:41.300,-0.38,-0.49
2021-08-19 05:24:41.304,-0.4,-0.495
2021-08-19 05:24:41.308,-0.38,-0.5
2021-08-19 05:24:41.312,-0.38,-0.5
2021-08-19 05:24:41.316,-0.395,-0.49
2021-08-19 05:24:41.320,-0.395,-0.485
2021-08-19 05:24:41.324,-0.425,-0.5
2021-08-19 05:24:41.328,-0.395,-0.52
2021-08-19 05:24:41.332,-0.395,-0.5
2021-08-19 05:24:41.336,-0.45,-0.505
2021-08-19 05:24:41.340,-0.52,-0.47
2021-08-19 05:24:41.344,-0.575,-0.53
2021-08-19 05:24:41.348,-0.525,-0.6
2021-08-19 05:24:41.352,-0.545,-0.665
2021-08-19 05:24:41.356,-0.565,-0.745
2021-08-19 05:24:41.360,-0.47,-0.985
2021-08-19 05:24:41.364,-0.445,-1.0
2021-08-19 05:24:41.368,-0.645,-0.83
2021-08-19 05:24:41.372,-0.73,-0.74
2021-08-19 05:24:41.376,-0.615,-0.545
2021-08-19 05:24:41.380,-0.82,-0.045
2021-08-19 05:24:41.384,-1.24,0.495
2021-08-19 05:24:41.388,-1.685,0.39
2021-08-19 05:24:41.424,-1.965,-1.875
2021-08-19 05:24:41.428,-1.555,-1.555
2021-08-19 05:24:41.432,-1.07,-1.22
2021-08-19 05:24:41.436,-0.695,-0.995
2021-08-19 05:24:41.440,-0.5,-0.74
2021-08-19 05:24:41.444,-0.38,-0.575
2021-08-19 05:24:41.448,-0.28,-0.5
2021-08-19 05:24:41.452,-0.235,-0.45
2021-08-19 05:24:41.456,-0.22,-0.41
2021-08-19 05:24:41.460,-0.19,-0.385
2021-08-19 05:24:41.464,-0.2,-0.405
2021-08-19 05:24:41.468,-0.185,-0.365
2021-08-19 05:24:41.472,-0.155,-0.35
2021-08-19 05:24:41.476,-0.145,-0.38
2021-08-19 05:24:41.480,-0.17,-0.415
2021-08-19 05:24:41.484,-0.16,-0.37
2021-08-19 05:24:41.488,-0.135,-0.385
2021-08-19 05:24:41.492,-0.105,-0.41
2021-08-19 05:24:41.496,-0.12,-0.385
2021-08-19 05:24:41.500,-0.12,-0.42
2021-08-19 05:24:41.504,-0.13,-0.4
2021-08-19 05:24:41.508,-0.1,-0.415
2021-08-19 05:24:41.512,-0.12,-0.435
2021-08-19 05:24:41.516,-0.09,-0.4
2021-08-19 05:24:41.520,-0.085,-0.4
2021-08-19 05:24:41.524,-0.08,-0.435
2021-08-19 05:24:41.528,-0.065,-0.405
2021-08-19 05:24:41.532,-0.05,-0.39
2021-08-19 05:24:41.536,-0.015,-0.41
2021-08-19 05:24:41.540,-0.035,-0.4
2021-08-19 05:24:41.544,-0.025,-0.38
2021-08-19 05:24:41.548,0.005,-0.37
2021-08-19 05:24:41.552,0.01,-0.35
2021-08-19 05:24:41.556,0.025,-0.355
2021-08-19 05:24:41.560,0.055,-0.305
2021-08-19 05:24:41.564,0.03,-0.3
2021-08-19 05:24:41.568,0.07,-0.3
2021-08-19 05:24:41.572,0.115,-0.26
2021-08-19 05:24:41.576,0.13,-0.185
2021-08-19 05:24:41.580,0.13,-0.2
2021-08-19 05:24:41.584,0.17,-0.19
2021-08-19 05:24:41.588,0.21,-0.165
2021-08-19 05:24:41.592,0.24,-0.1
2021-08-19 05:24:41.596,0.255,-0.075
2021-08-19 05:24:41.600,0.26,-0.035
2021-08-19 05:24:41.604,0.25,-0.04
2021-08-19 05:24:41.608,0.315,0.02
2021-08-19 05:24:41.612,0.335,0.015
2021-08-19 05:24:41.616,0.355,0.055
2021-08-19 05:24:41.620,0.35,0.06
2021-08-19 05:24:41.624,0.355,0.06
2021-08-19 05:24:41.628,0.335,0.115
2021-08-19 05:24:41.632,0.355,0.115
2021-08-19 05:24:41.636,0.39,0.14
2021-08-19 05:24:41.640,0.4,0.15
2021-08-19 05:24:41.644,0.39,0.14
2021-08-19 05:24:41.648,0.39,0.205
2021-08-19 05:24:41.652,0.395,0.185
2021-08-19 05:24:41.656,0.38,0.18
2021-08-19 05:24:41.660,0.355,0.205
2021-08-19 05:24:41.664,0.335,0.23
2021-08-19 05:24:41.668,0.33,0.225
2021-08-19 05:24:41.672,0.295,0.255
2021-08-19 05:24:41.676,0.3,0.265
2021-08-19 05:24:41.680,0.245,0.22
2021-08-19 05:24:41.684,0.215,0.28
2021-08-19 05:24:41.688,0.185,0.21
2021-08-19 05:24:41.692,0.145,0.22
2021-08-19 05:24:41.696,0.075,0.165
2021-08-19 05:24:41.700,0.07,0.17
2021-08-19 05:24:41.704,-0.01,0.15
2021-08-19 05:24:41.708,-0.035,0.08
2021-08-19 05:24:41.712,-0.11,0.085
2021-08-19 05:24:41.716,-0.12,0.045
2021-08-19 05:24:41.720,-0.145,0.015
2021-08-19 05:24:41.724,-0.19,-0.045
2021-08-19 05:24:41.728,-0.215,-0.055
2021-08-19 05:24:41.732,-0.27,-0.075
2021-08-19 05:24:41.736,-0.265,-0.13
2021-08-19 05:24:41.740,-0.28,-0.19
2021-08-19 05:24:41.744,-0.295,-0.24
2021-08-19 05:24:41.748,-0.34,-0.265
2021-08-19 05:24:41.752,-0.335,-0.305
2021-08-19 05:24:41.756,-0.345,-0.32
2021-08-19 05:24:41.760,-0.35,-0.32
2021-08-19 05:24:41.764,-0.39,-0.34
2021-08-19 05:24:41.768,-0.385,-0.37
2021-08-19 05:24:41.772,-0.385,-0.39
2021-08-19 05:24:41.776,-0.37,-0.385
2021-08-19 05:24:41.780,-0.36,-0.405
2021-08-19 05:24:41.784,-0.35,-0.41
2021-08-19 05:24:41.788,-0.4,-0.38
2021-08-19 05:24:41.792,-0.37,-0.38
2021-08-19 05:24:41.796,-0.375,-0.405
2021-08-19 05:24:41.800,-0.335,-0.415
2021-08-19 05:24:41.804,-0.35,-0.43
2021-08-19 05:24:41.808,-0.35,-0.48
2021-08-19 05:24:41.812,-0.345,-0.42
2021-08-19 05:24:41.816,-0.315,-0.46
2021-08-19 05:24:41.820,-0.305,-0.47
2021-08-19 05:24:41.824,-0.31,-0.47
2021-08-19 05:24:41.828,-0.345,-0.465
2021-08-19 05:24:41.832,-0.33,-0.48
2021-08-19 05:24:41.836,-0.335,-0.48
2021-08-19 05:24:41.840,-0.31,-0.45
2021-08-19 05:24:41.844,-0.285,-0.5
2021-08-19 05:24:41.848,-0.335,-0.46
2021-08-19 05:24:41.852,-0.32,-0.515
2021-08-19 05:24:41.856,-0.32,-0.53
2021-08-19 05:24:41.860,-0.305,-0.5
2021-08-19 05:24:41.864,-0.265,-0.53
2021-08-19 05:24:41.868,-0.34,-0.545
2021-08-19 05:24:41.872,-0.315,-0.535
2021-08-19 05:24:41.876,-0.31,-0.485
2021-08-19 05:24:41.880,-0.32,-0.52
2021-08-19 05:24:41.884,-0.325,-0.525
2021-08-19 05:24:41.888,-0.335,-0.52
2021-08-19 05:24:41.892,-0.34,-0.52
2021-08-19 05:24:41.896,-0.325,-0.535
2021-08-19 05:24:41.900,-0.3,-0.555
2021-08-19 05:24:41.904,-0.31,-0.54
2021-08-19 05:24:41.908,-0.315,-0.565
2021-08-19 05:24:41.912,-0.32,-0.53
2021-08-19 05:24:41.916,-0.3,-0.545
2021-08-19 05:24:41.920,-0.31,-0.51
2021-08-19 05:24:41.924,-0.34,-0.525
2021-08-19 05:24:41.928,-0.33,-0.51
2021-08-19 05:24:41.932,-0.335,-0.51
2021-08-19 05:24:41.936,-0.31,-0.52
2021-08-19 05:24:41.940,-0.295,-0.53
2021-08-19 05:24:41.944,-0.29,-0.53
2021-08-19 05:24:41.948,-0.3,-0.505
2021-08-19 05:24:41.952,-0.305,-0.51
2021-08-19 05:24:41.956,-0.3,-0.52
2021-08-19 05:24:41.960,-0.265,-0.515
2021-08-19 05:24:41.964,-0.28,-0.53
2021-08-19 05:24:41.968,-0.295,-0.515
2021-08-19 05:24:41.972,-0.315,-0.51
2021-08-19 05:24:41.976,-0.305,-0.53
2021-08-19 05:24:41.980,-0.305,-0.535
2021-08-19 05:24:41.984,-0.295,-0.54
2021-08-19 05:24:41.988,-0.3,-0.525
2021-08-19 05:24:41.992,-0.295,-0.53
2021-08-19 05:24:41.996,-0.305,-0.55
2021-08-19 05:24:42.000,-0.27,-0.53
2021-08-19 05:24:42.004,-0.28,-0.525
2021-08-19 05:24:42.008,-0.29,-0.53
2021-08-19 05:24:42.012,-0.275,-0.53
2021-08-19 05:24:42.016,-0.27,-0.545
2021-08-19 05:24:42.020,-0.27,-0.525
2021-08-19 05:24:42.024,-0.285,-0.5
2021-08-19 05:24:42.028,-0.3,-0.525
2021-08-19 05:24:42.032,-0.325,-0.54
2021-08-19 05:24:42.036,-0.27,-0.51
2021-08-19 05:24:42.040,-0.28,-0.5
2021-08-19 05:24:42.044,-0.245,-0.525
2021-08-19 05:24:42.048,-0.24,-0.47
2021-08-19 05:24:42.052,-0.29,-0.51
2021-08-19 05:24:42.056,-0.29,-0.49
2021-08-19 05:24:42.060,-0.26,-0.48
2021-08-19 05:24:42.064,-0.21,-0.49
2021-08-19 05:24:42.068,-0.21,-0.495
2021-08-19 05:24:42.072,-0.225,-0.455
2021-08-19 05:24:42.076,-0.18,-0.38
2021-08-19 05:24:42.080,-0.17,-0.415
2021-08-19 05:24:42.084,-0.18,-0.385
2021-08-19 05:24:42.088,-0.175,-0.345
2021-08-19 05:24:42.092,-0.13,-0.35
2021-08-19 05:24:42.096,-0.1,-0.335
2021-08-19 05:24:42.100,-0.075,-0.32
2021-08-19 05:24:42.104,-0.07,-0.345
2021-08-19 05:24:42.108,-0.055,-0.385
2021-08-19 05:24:42.112,-0.065,-0.42
2021-08-19 05:24:42.116,-0.065,-0.42
2021-08-19 05:24:42.120,-0.04,-0.43
2021-08-19 05:24:42.124,-0.02,-0.415
2021-08-19 05:24:42.128,-0.06,-0.4
2021-08-19 05:24:42.132,-0.09,-0.39
2021-08-19 05:24:42.136,-0.13,-0.415
2021-08-19 05:24:42.140,-0.13,-0.455
2021-08-19 05:24:42.144,-0.13,-0.505
2021-08-19 05:24:42.148,-0.17,-0.53
2021-08-19 05:24:42.152,-0.205,-0.535
2021-08-19 05:24:42.156,-0.23,-0.515
2021-08-19 05:24:42.160,-0.235,-0.53
2021-08-19 05:24:42.164,-0.235,-0.545
2021-08-19 05:24:42.168,-0.265,-0.53
2021-08-19 05:24:42.172,-0.31,-0.52
2021-08-19 05:24:42.176,-0.31,-0.57
2021-08-19 05:24:42.180,-0.305,-0.59
2021-08-19 05:24:42.184,-0.28,-0.595
2021-08-19 05:24:42.188,-0.28,-0.535
2021-08-19 05:24:42.192,-0.295,-0.58
2021-08-19 05:24:42.196,-0.305,-0.58
2021-08-19 05:24:42.200,-0.275,-0.56
2021-08-19 05:24:42.204,-0.26,-0.535
2021-08-19 05:24:42.208,-0.27,-0.525
2021-08-19 05:24:42.212,-0.285,-0.54
2021-08-19 05:24:42.216,-0.32,-0.575
2021-08-19 05:24:42.220,-0.305,-0.555
2021-08-19 05:24:42.224,-0.29,-0.56
2021-08-19 05:24:42.228,-0.295,-0.555
2021-08-19 05:24:42.232,-0.295,-0.56
2021-08-19 05:24:42.236,-0.31,-0.54
2021-08-19 05:24:42.240,-0.27,-0.54
2021-08-19 05:24:42.244,-0.26,-0.545
2021-08-19 05:24:42.248,-0.295,-0.55
2021-08-19 05:24:42.252,-0.375,-0.56
2021-08-19 05:24:42.256,-0.485,-0.53
2021-08-19 05:24:42.260,-0.535,-0.56
2021-08-19 05:24:42.264,-0.475,-0.575
2021-08-19 05:24:42.268,-0.53,-0.65
2021-08-19 05:24:42.272,-0.53,-0.74
2021-08-19 05:24:42.276,-0.395,-0.97
2021-08-19 05:24:42.280,-0.32,-1.07
2021-08-19 05:24:42.284,-0.42,-0.955
2021-08-19 05:24:42.288,-0.335,-0.985
2021-08-19 05:24:42.292,-0.2,-0.92
2021-08-19 05:24:42.296,-0.365,-0.45
2021-08-19 05:24:42.300,-0.785,0.1
2021-08-19 05:24:42.304,-1.385,0.21
2021-08-19 05:24:42.308,-1.865,-0.765
2021-08-19 05:24:42.340,-1.825,-1.81
2021-08-19 05:24:42.344,-1.47,-1.465
2021-08-19 05:24:42.348,-1.005,-1.24
2021-08-19 05:24:42.352,-0.7,-1.055
2021-08-19 05:24:42.356,-0.465,-0.855
2021-08-19 05:24:42.360,-0.31,-0.7
2021-08-19 05:24:42.364,-0.205,-0.645
2021-08-19 05:24:42.368,-0.17,-0.58
2021-08-19 05:24:42.372,-0.135,-0.515
2021-08-19 05:24:42.376,-0.105,-0.505
2021-08-19 05:24:42.380,-0.105,-0.53
2021-08-19 05:24:42.384,-0.06,-0.5
2021-08-19 05:24:42.388,-0.04,-0.525
2021-08-19 05:24:42.392,-0.07,-0.49
2021-08-19 05:24:42.396,-0.085,-0.495
2021-08-19 05:24:42.400,-0.095,-0.475
2021-08-19 05:24:42.404,-0.02,-0.465
2021-08-19 05:24:42.408,-0.03,-0.505
2021-08-19 05:24:42.412,-0.04,-0.51
2021-08-19 05:24:42.416,-0.06,-0.48
2021-08-19 05:24:42.420,-0.025,-0.505
2021-08-19 05:24:42.424,0.015,-0.5
2021-08-19 05:24:42.428,0.0,-0.465
2021-08-19 05:24:42.432,0.005,-0.515
2021-08-19 05:24:42.436,-0.005,-0.51
2021-08-19 05:24:42.440,0.0,-0.495
2021-08-19 05:24:42.444,0.025,-0.48
2021-08-19 05:24:42.448,0.065,-0.47
2021-08-19 05:24:42.452,0.065,-0.505
2021-08-19 05:24:42.456,0.065,-0.495
2021-08-19 05:24:42.460,0.115,-0.455
2021-08-19 05:24:42.464,0.125,-0.43
2021-08-19 05:24:42.468,0.14,-0.42
2021-08-19 05:24:42.472,0.185,-0.41
2021-08-19 05:24:42.476,0.175,-0.41
2021-08-19 05:24:42.480,0.205,-0.34
2021-08-19 05:24:42.484,0.23,-0.32
2021-08-19 05:24:42.488,0.27,-0.28
2021-08-19 05:24:42.492,0.305,-0.27
2021-08-19 05:24:42.496,0.305,-0.245
2021-08-19 05:24:42.500,0.35,-0.21
2021-08-19 05:24:42.504,0.385,-0.16
2021-08-19 05:24:42.508,0.44,-0.12
2021-08-19 05:24:42.512,0.43,-0.11
2021-08-19 05:24:42.516,0.435,-0.06
2021-08-19 05:24:42.520,0.46,-0.02
2021-08-19 05:24:42.524,0.495,0.01
2021-08-19 05:24:42.528,0.515,0.05
2021-08-19 05:24:42.532,0.53,0.075
2021-08-19 05:24:42.536,0.525,0.095
2021-08-19 05:24:42.540,0.52,0.13
2021-08-19 05:24:42.544,0.53,0.135
2021-08-19 05:24:42.548,0.565,0.165
2021-08-19 05:24:42.552,0.545,0.19
2021-08-19 05:24:42.556,0.535,0.195
2021-08-19 05:24:42.560,0.535,0.18
2021-08-19 05:24:42.564,0.5,0.235
2021-08-19 05:24:42.568,0.515,0.255
2021-08-19 05:24:42.572,0.5,0.29
2021-08-19 05:24:42.576,0.485,0.315
2021-08-19 05:24:42.580,0.495,0.305
2021-08-19 05:24:42.584,0.485,0.32
2021-08-19 05:24:42.588,0.47,0.3
2021-08-19 05:24:42.592,0.425,0.315
2021-08-19 05:24:42.596,0.385,0.315
2021-08-19 05:24:42.600,0.34,0.305
2021-08-19 05:24:42.604,0.31,0.295
2021-08-19 05:24:42.608,0.255,0.305
2021-08-19 05:24:42.612,0.185,0.265
2021-08-19 05:24:42.616,0.16,0.255
2021-08-19 05:24:42.620,0.085,0.235
2021-08-19 05:24:42.624,0.07,0.25
2021-08-19 05:24:42.628,-0.01,0.215
2021-08-19 05:24:42.632,0.0,0.195
2021-08-19 05:24:42.636,-0.035,0.145
2021-08-19 05:24:42.640,-0.075,0.14
2021-08-19 05:24:42.644,-0.08,0.08
2021-08-19 05:24:42.648,-0.08,0.06
2021-08-19 05:24:42.652,-0.09,0.065
2021-08-19 05:24:42.656,-0.11,0.045
2021-08-19 05:24:42.660,-0.125,0.02
2021-08-19 05:24:42.664,-0.155,0.0
2021-08-19 05:24:42.668,-0.14,-0.005
2021-08-19 05:24:42.672,-0.125,-0.02
2021-08-19 05:24:42.676,-0.14,-0.02
2021-08-19 05:24:42.680,-0.16,-0.03
2021-08-19 05:24:42.684,-0.145,-0.075
2021-08-19 05:24:42.688,-0.15,-0.06
2021-08-19 05:24:42.692,-0.115,-0.075
2021-08-19 05:24:42.696,-0.105,-0.065
2021-08-19 05:24:42.700,-0.12,-0.095
2021-08-19 05:24:42.704,-0.165,-0.1
2021-08-19 05:24:42.708,-0.14,-0.07
2021-08-19 05:24:42.712,-0.135,-0.11
2021-08-19 05:24:42.716,-0.12,-0.12
2021-08-19 05:24:42.720,-0.13,-0.12
2021-08-19 05:24:42.724,-0.14,-0.11
2021-08-19 05:24:42.728,-0.165,-0.145
2021-08-19 05:24:42.732,-0.135,-0.15
2021-08-19 05:24:42.736,-0.16,-0.155
2021-08-19 05:24:42.740,-0.15,-0.16
2021-08-19 05:24:42.744,-0.19,-0.17
2021-08-19 05:24:42.748,-0.16,-0.22
2021-08-19 05:24:42.752,-0.14,-0.23
2021-08-19 05:24:42.756,-0.14,-0.195
2021-08-19 05:24:42.760,-0.15,-0.225
2021-08-19 05:24:42.764,-0.18,-0.205
2021-08-19 05:24:42.768,-0.15,-0.255
2021-08-19 05:24:42.772,-0.16,-0.22
2021-08-19 05:24:42.776,-0.16,-0.255
2021-08-19 05:24:42.780,-0.17,-0.25
2021-08-19 05:24:42.784,-0.2,-0.26
2021-08-19 05:24:42.788,-0.2,-0.255
2021-08-19 05:24:42.792,-0.18,-0.255
2021-08-19 05:24:42.796,-0.16,-0.255
2021-08-19 05:24:42.800,-0.165,-0.235
2021-08-19 05:24:42.804,-0.215,-0.26
2021-08-19 05:24:42.808,-0.195,-0.22
2021-08-19 05:24:42.812,-0.18,-0.245
2021-08-19 05:24:42.816,-0.185,-0.25
2021-08-19 05:24:42.820,-0.2,-0.29
2021-08-19 05:24:42.824,-0.2,-0.29
2021-08-19 05:24:42.828,-0.215,-0.27
2021-08-19 05:24:42.832,-0.2,-0.275
2021-08-19 05:24:42.836,-0.21,-0.27
2021-08-19 05:24:42.840,-0.195,-0.27
2021-08-19 05:24:42.844,-0.225,-0.275
2021-08-19 05:24:42.848,-0.205,-0.255
2021-08-19 05:24:42.852,-0.18,-0.265
2021-08-19 05:24:42.856,-0.19,-0.275
2021-08-19 05:24:42.860,-0.17,-0.3
2021-08-19 05:24:42.864,-0.19,-0.3
2021-08-19 05:24:42.868,-0.195,-0.3
2021-08-19 05:24:42.872,-0.205,-0.305
2021-08-19 05:24:42.876,-0.205,-0.255
2021-08-19 05:24:42.880,-0.23,-0.275
2021-08-19 05:24:42.884,-0.235,-0.275
2021-08-19 05:24:42.888,-0.23,-0.28
2021-08-19 05:24:42.892,-0.205,-0.25
2021-08-19 05:24:42.896,-0.18,-0.245
2021-08-19 05:24:42.900,-0.21,-0.28
2021-08-19 05:24:42.904,-0.22,-0.27
2021-08-19 05:24:42.908,-0.195,-0.255
2021-08-19 05:24:42.912,-0.21,-0.265
2021-08-19 05:24:42.916,-0.19,-0.25
2021-08-19 05:24:42.920,-0.19,-0.265
2021-08-19 05:24:42.924,-0.205,-0.275
2021-08-19 05:24:42.928,-0.21,-0.28
2021-08-19 05:24:42.932,-0.2,-0.26
2021-08-19 05:24:42.936,-0.21,-0.275
2021-08-19 05:24:42.940,-0.185,-0.27
2021-08-19 05:24:42.944,-0.2,-0.28
2021-08-19 05:24:42.948,-0.21,-0.275
2021-08-19 05:24:42.952,-0.19,-0.275
2021-08-19 05:24:42.956,-0.175,-0.23
2021-08-19 05:24:42.960,-0.19,-0.255
2021-08-19 05:24:42.964,-0.19,-0.275
2021-08-19 05:24:42.968,-0.21,-0.265
2021-08-19 05:24:42.972,-0.185,-0.25
2021-08-19 05:24:42.976,-0.155,-0.26
2021-08-19 05:24:42.980,-0.17,-0.255
2021-08-19 05:24:42.984,-0.19,-0.285
2021-08-19 05:24:42.988,-0.215,-0.285
2021-08-19 05:24:42.992,-0.22,-0.275
2021-08-19 05:24:42.996,-0.195,-0.265
2021-08-19 05:24:43.000,-0.19,-0.285
2021-08-19 05:24:43.004,-0.185,-0.27
2021-08-19 05:24:43.008,-0.125,-0.265
2021-08-19 05:24:43.012,-0.09,-0.26
2021-08-19 05:24:43.016,-0.08,-0.195
2021-08-19 05:24:43.020,-0.07,-0.175
2021-08-19 05:24:43.024,-0.08,-0.14
2021-08-19 05:24:43.028,-0.095,-0.135
2021-08-19 05:24:43.032,-0.055,-0.11
2021-08-19 05:24:43.036,-0.065,-0.11
2021-08-19 05:24:43.040,-0.035,-0.1
2021-08-19 05:24:43.044,-0.055,-0.14
2021-08-19 05:24:43.048,-0.05,-0.15
2021-08-19 05:24:43.052,-0.06,-0.21
2021-08-19 05:24:43.056,-0.01,-0.225
2021-08-19 05:24:43.060,0.02,-0.21
2021-08-19 05:24:43.064,0.02,-0.19
2021-08-19 05:24:43.068,-0.015,-0.195
2021-08-19 05:24:43.072,-0.075,-0.17
2021-08-19 05:24:43.076,-0.09,-0.22
2021-08-19 05:24:43.080,-0.125,-0.215
2021-08-19 05:24:43.084,-0.15,-0.275
2021-08-19 05:24:43.088,-0.185,-0.275
2021-08-19 05:24:43.092,-0.18,-0.315
2021-08-19 05:24:43.096,-0.21,-0.285
2021-08-19 05:24:43.100,-0.22,-0.32
2021-08-19 05:24:43.104,-0.245,-0.33
2021-08-19 05:24:43.108,-0.275,-0.375
2021-08-19 05:24:43.112,-0.265,-0.37
2021-08-19 05:24:43.116,-0.26,-0.34
2021-08-19 05:24:43.120,-0.255,-0.35
2021-08-19 05:24:43.124,-0.265,-0.38
2021-08-19 05:24:43.128,-0.27,-0.36
2021-08-19 05:24:43.132,-0.26,-0.365
2021-08-19 05:24:43.136,-0.23,-0.345
2021-08-19 05:24:43.140,-0.255,-0.35
2021-08-19 05:24:43.144,-0.23,-0.34
2021-08-19 05:24:43.148,-0.255,-0.35
2021-08-19 05:24:43.152,-0.235,-0.345
2021-08-19 05:24:43.156,-0.22,-0.345
2021-08-19 05:24:43.160,-0.225,-0.32
2021-08-19 05:24:43.164,-0.23,-0.35
2021-08-19 05:24:43.168,-0.24,-0.31
2021-08-19 05:24:43.172,-0.26,-0.29
2021-08-19 05:24:43.176,-0.235,-0.345
2021-08-19 05:24:43.180,-0.22,-0.295
2021-08-19 05:24:43.184,-0.29,-0.31
2021-08-19 05:24:43.188,-0.345,-0.315
2021-08-19 05:24:43.192,-0.43,-0.36
2021-08-19 05:24:43.196,-0.46,-0.35
2021-08-19 05:24:43.200,-0.42,-0.44
2021-08-19 05:24:43.204,-0.41,-0.52
2021-08-19 05:24:43.208,-0.395,-0.6
2021-08-19 05:24:43.212,-0.27,-0.695
2021-08-19 05:24:43.216,-0.135,-0.705
2021-08-19 05:24:43.220,-0.185,-0.515
2021-08-19 05:24:43.224,-0.19,-0.4
2021-08-19 05:24:43.228,0.0,-0.205
2021-08-19 05:24:43.232,0.06,0.29
2021-08-19 05:24:43.236,-0.27,1.005
2021-08-19 05:24:43.240,-0.805,1.32
2021-08-19 05:24:43.244,-1.46,0.67
2021-08-19 05:24:43.248,-1.915,-0.815
2021-08-19 05:24:43.276,-1.66,-1.71
2021-08-19 05:24:43.280,-1.38,-1.37
2021-08-19 05:24:43.284,-0.98,-1.14
2021-08-19 05:24:43.288,-0.715,-0.935
2021-08-19 05:24:43.292,-0.505,-0.71
2021-08-19 05:24:43.296,-0.375,-0.525
2021-08-19 05:24:43.300,-0.255,-0.445
2021-08-19 05:24:43.304,-0.185,-0.385
2021-08-19 05:24:43.308,-0.19,-0.335
2021-08-19 05:24:43.312,-0.14,-0.285
2021-08-19 05:24:43.316,-0.125,-0.28
2021-08-19 05:24:43.320,-0.1,-0.285
2021-08-19 05:24:43.324,-0.08,-0.305
2021-08-19 05:24:43.328,-0.085,-0.31
2021-08-19 05:24:43.332,-0.115,-0.29
2021-08-19 05:24:43.336,-0.085,-0.27
2021-08-19 05:24:43.340,-0.055,-0.3
2021-08-19 05:24:43.344,-0.08,-0.3
2021-08-19 05:24:43.348,-0.075,-0.275
2021-08-19 05:24:43.352,-0.105,-0.32
2021-08-19 05:24:43.356,-0.07,-0.315
2021-08-19 05:24:43.360,-0.085,-0.3
2021-08-19 05:24:43.364,-0.065,-0.295
2021-08-19 05:24:43.368,-0.07,-0.3
2021-08-19 05:24:43.372,-0.08,-0.295
2021-08-19 05:24:43.376,-0.075,-0.3
2021-08-19 05:24:43.380,-0.035,-0.285
2021-08-19 05:24:43.384,0.0,-0.26
2021-08-19 05:24:43.388,0.0,-0.27
2021-08-19 05:24:43.392,0.0,-0.255
2021-08-19 05:24:43.396,0.0,-0.22
2021-08-19 05:24:43.400,0.04,-0.22
2021-08-19 05:24:43.404,0.095,-0.215
2021-08-19 05:24:43.408,0.06,-0.2
2021-08-19 05:24:43.412,0.085,-0.18
2021-08-19 05:24:43.416,0.11,-0.15
2021-08-19 05:24:43.420,0.15,-0.11
2021-08-19 05:24:43.424,0.165,-0.115
2021-08-19 05:24:43.428,0.185,-0.105
2021-08-19 05:24:43.432,0.24,-0.04
2021-08-19 05:24:43.436,0.245,-0.02
2021-08-19 05:24:43.440,0.295,0.04
2021-08-19 05:24:43.444,0.315,0.105
2021-08-19 05:24:43.448,0.345,0.13
2021-08-19 05:24:43.452,0.36,0.195
2021-08-19 05:24:43.456,0.405,0.205
2021-08-19 05:24:43.460,0.435,0.265
2021-08-19 05:24:43.464,0.45,0.325
2021-08-19 05:24:43.468,0.465,0.325
2021-08-19 05:24:43.472,0.47,0.35
2021-08-19 05:24:43.476,0.465,0.435
2021-08-19 05:24:43.480,0.52,0.45
2021-08-19 05:24:43.484,0.515,0.45
2021-08-19 05:24:43.488,0.505,0.475
2021-08-19 05:24:43.492,0.495,0.525
2021-08-19 05:24:43.496,0.48,0.515
2021-08-19 05:24:43.500,0.5,0.525
2021-08-19 05:24:43.504,0.495,0.575
2021-08-19 05:24:43.508,0.485,0.615
2021-08-19 05:24:43.512,0.48,0.625
2021-08-19 05:24:43.516,0.475,0.605
2021-08-19 05:24:43.520,0.49,0.655
2021-08-19 05:24:43.524,0.425,0.67
2021-08-19 05:24:43.528,0.425,0.65
2021-08-19 05:24:43.532,0.395,0.685
2021-08-19 05:24:43.536,0.35,0.68
2021-08-19 05:24:43.540,0.31,0.635
2021-08-19 05:24:43.544,0.275,0.63
2021-08-19 05:24:43.548,0.215,0.62
2021-08-19 05:24:43.552,0.15,0.6
2021-08-19 05:24:43.556,0.1,0.59
2021-08-19 05:24:43.560,0.08,0.55
2021-08-19 05:24:43.564,0.075,0.52
2021-08-19 05:24:43.568,0.03,0.46
2021-08-19 05:24:43.572,-0.03,0.405
2021-08-19 05:24:43.576,-0.07,0.395
2021-08-19 05:24:43.580,-0.075,0.34
2021-08-19 05:24:43.584,-0.07,0.325
2021-08-19 05:24:43.588,-0.13,0.28
2021-08-19 05:24:43.592,-0.155,0.225
2021-08-19 05:24:43.596,-0.155,0.23
2021-08-19 05:24:43.600,-0.16,0.165
2021-08-19 05:24:43.604,-0.155,0.145
2021-08-19 05:24:43.608,-0.17,0.13
2021-08-19 05:24:43.612,-0.18,0.07
2021-08-19 05:24:43.616,-0.195,0.065
2021-08-19 05:24:43.620,-0.205,0.07
2021-08-19 05:24:43.624,-0.2,0.05
2021-08-19 05:24:43.628,-0.185,0.015
2021-08-19 05:24:43.632,-0.165,0.02
2021-08-19 05:24:43.636,-0.22,0.0
2021-08-19 05:24:43.640,-0.195,0.035
2021-08-19 05:24:43.644,-0.18,0.01
2021-08-19 05:24:43.648,-0.17,-0.03
2021-08-19 05:24:43.652,-0.19,-0.03
2021-08-19 05:24:43.656,-0.22,-0.03
2021-08-19 05:24:43.660,-0.195,-0.025
2021-08-19 05:24:43.664,-0.16,-0.045
2021-08-19 05:24:43.668,-0.185,-0.04
2021-08-19 05:24:43.672,-0.165,-0.07
2021-08-19 05:24:43.676,-0.175,-0.085
2021-08-19 05:24:43.680,-0.19,-0.11
2021-08-19 05:24:43.684,-0.18,-0.105
2021-08-19 05:24:43.688,-0.175,-0.09
2021-08-19 05:24:43.692,-0.19,-0.12
2021-08-19 05:24:43.696,-0.195,-0.13
2021-08-19 05:24:43.700,-0.22,-0.16
2021-08-19 05:24:43.704,-0.215,-0.12
2021-08-19 05:24:43.708,-0.195,-0.16
2021-08-19 05:24:43.712,-0.215,-0.135
2021-08-19 05:24:43.716,-0.245,-0.17
2021-08-19 05:24:43.720,-0.22,-0.18
2021-08-19 05:24:43.724,-0.215,-0.19
2021-08-19 05:24:43.728,-0.18,-0.19
2021-08-19 05:24:43.732,-0.195,-0.205
2021-08-19 05:24:43.736,-0.225,-0.205
2021-08-19 05:24:43.740,-0.205,-0.21
2021-08-19 05:24:43.744,-0.225,-0.21
2021-08-19 05:24:43.748,-0.215,-0.23
2021-08-19 05:24:43.752,-0.255,-0.235
2021-08-19 05:24:43.756,-0.235,-0.19
2021-08-19 05:24:43.760,-0.255,-0.21
2021-08-19 05:24:43.764,-0.205,-0.26
2021-08-19 05:24:43.768,-0.22,-0.235
2021-08-19 05:24:43.772,-0.25,-0.235
2021-08-19 05:24:43.776,-0.255,-0.23
2021-08-19 05:24:43.780,-0.265,-0.23
2021-08-19 05:24:43.784,-0.245,-0.255
2021-08-19 05:24:43.788,-0.24,-0.235
2021-08-19 05:24:43.792,-0.23,-0.25
2021-08-19 05:24:43.796,-0.26,-0.22
2021-08-19 05:24:43.800,-0.275,-0.25
2021-08-19 05:24:43.804,-0.235,-0.255
2021-08-19 05:24:43.808,-0.22,-0.25
2021-08-19 05:24:43.812,-0.235,-0.285
2021-08-19 05:24:43.816,-0.255,-0.245
2021-08-19 05:24:43.820,-0.26,-0.245
2021-08-19 05:24:43.824,-0.245,-0.245
2021-08-19 05:24:43.828,-0.225,-0.265
2021-08-19 05:24:43.832,-0.225,-0.26
2021-08-19 05:24:43.836,-0.28,-0.24
2021-08-19 05:24:43.840,-0.24,-0.265
2021-08-19 05:24:43.844,-0.24,-0.24
2021-08-19 05:24:43.848,-0.27,-0.235
2021-08-19 05:24:43.852,-0.235,-0.245
2021-08-19 05:24:43.856,-0.24,-0.255
2021-08-19 05:24:43.860,-0.295,-0.275
2021-08-19 05:24:43.864,-0.24,-0.265
2021-08-19 05:24:43.868,-0.25,-0.245
2021-08-19 05:24:43.872,-0.24,-0.22
2021-08-19 05:24:43.876,-0.26,-0.25
2021-08-19 05:24:43.880,-0.26,-0.24
2021-08-19 05:24:43.884,-0.27,-0.25
2021-08-19 05:24:43.888,-0.275,-0.26
2021-08-19 05:24:43.892,-0.24,-0.275
2021-08-19 05:24:43.896,-0.24,-0.255
2021-08-19 05:24:43.900,-0.25,-0.235
2021-08-19 05:24:43.904,-0.245,-0.22
2021-08-19 05:24:43.908,-0.245,-0.265
2021-08-19 05:24:43.912,-0.255,-0.21
2021-08-19 05:24:43.916,-0.265,-0.225
2021-08-19 05:24:43.920,-0.28,-0.235
2021-08-19 05:24:43.924,-0.27,-0.265
2021-08-19 05:24:43.928,-0.205,-0.27
2021-08-19 05:24:43.932,-0.18,-0.27
2021-08-19 05:24:43.936,-0.175,-0.23
2021-08-19 05:24:43.940,-0.145,-0.16
2021-08-19 05:24:43.944,-0.165,-0.17
2021-08-19 05:24:43.948,-0.155,-0.145
2021-08-19 05:24:43.952,-0.165,-0.12
2021-08-19 05:24:43.956,-0.105,-0.095
2021-08-19 05:24:43.960,-0.105,-0.08
2021-08-19 05:24:43.964,-0.09,-0.115
2021-08-19 05:24:43.968,-0.065,-0.115
2021-08-19 05:24:43.972,-0.06,-0.16
2021-08-19 05:24:43.976,-0.045,-0.21
2021-08-19 05:24:43.980,-0.06,-0.215
2021-08-19 05:24:43.984,-0.03,-0.185
2021-08-19 05:24:43.988,-0.03,-0.18
2021-08-19 05:24:43.992,-0.05,-0.21
2021-08-19 05:24:43.996,-0.095,-0.195
2021-08-19 05:24:44.000,-0.155,-0.24
2021-08-19 05:24:44.004,-0.175,-0.245
2021-08-19 05:24:44.008,-0.225,-0.31
2021-08-19 05:24:44.012,-0.24,-0.29
2021-08-19 05:24:44.016,-0.27,-0.32
2021-08-19 05:24:44.020,-0.3,-0.355
2021-08-19 05:24:44.024,-0.345,-0.34
2021-08-19 05:24:44.028,-0.31,-0.39
2021-08-19 05:24:44.032,-0.335,-0.365
2021-08-19 05:24:44.036,-0.365,-0.39
2021-08-19 05:24:44.040,-0.365,-0.395
2021-08-19 05:24:44.044,-0.36,-0.4
2021-08-19 05:24:44.048,-0.33,-0.395
2021-08-19 05:24:44.052,-0.32,-0.395
2021-08-19 05:24:44.056,-0.325,-0.395
2021-08-19 05:24:44.060,-0.37,-0.4
2021-08-19 05:24:44.064,-0.34,-0.4
2021-08-19 05:24:44.068,-0.3,-0.375
2021-08-19 05:24:44.072,-0.3,-0.395
2021-08-19 05:24:44.076,-0.35,-0.395
2021-08-19 05:24:44.080,-0.34,-0.41
2021-08-19 05:24:44.084,-0.33,-0.37
2021-08-19 05:24:44.088,-0.345,-0.38
2021-08-19 05:24:44.092,-0.31,-0.415
2021-08-19 05:24:44.096,-0.31,-0.39
2021-08-19 05:24:44.100,-0.33,-0.41
2021-08-19 05:24:44.104,-0.32,-0.395
2021-08-19 05:24:44.108,-0.36,-0.4
2021-08-19 05:24:44.112,-0.43,-0.395
2021-08-19 05:24:44.116,-0.48,-0.41
2021-08-19 05:24:44.120,-0.51,-0.44
2021-08-19 05:24:44.124,-0.505,-0.51
2021-08-19 05:24:44.128,-0.49,-0.595
2021-08-19 05:24:44.132,-0.465,-0.71
2021-08-19 05:24:44.136,-0.34,-0.885
2021-08-19 05:24:44.140,-0.37,-0.84
2021-08-19 05:24:44.144,-0.56,-0.65
2021-08-19 05:24:44.148,-0.44,-0.55
2021-08-19 05:24:44.152,-0.38,-0.24
2021-08-19 05:24:44.156,-0.62,0.41
2021-08-19 05:24:44.160,-1.12,0.855
2021-08-19 05:24:44.164,-1.6,0.435
2021-08-19 05:24:44.200,-1.79,-1.715
2021-08-19 05:24:44.204,-1.44,-1.39
2021-08-19 05:24:44.208,-0.96,-1.135
2021-08-19 05:24:44.212,-0.625,-0.905
2021-08-19 05:24:44.216,-0.4,-0.665
2021-08-19 05:24:44.220,-0.27,-0.505
2021-08-19 05:24:44.224,-0.2,-0.445
2021-08-19 05:24:44.228,-0.15,-0.385
2021-08-19 05:24:44.232,-0.115,-0.33
2021-08-19 05:24:44.236,-0.12,-0.32
2021-08-19 05:24:44.240,-0.085,-0.335
2021-08-19 05:24:44.244,-0.115,-0.34
2021-08-19 05:24:44.248,-0.08,-0.325
2021-08-19 05:24:44.252,-0.075,-0.325
2021-08-19 05:24:44.256,-0.03,-0.31
2021-08-19 05:24:44.260,-0.055,-0.305
2021-08-19 05:24:44.264,-0.065,-0.31
2021-08-19 05:24:44.268,-0.03,-0.33
2021-08-19 05:24:44.272,-0.02,-0.31
2021-08-19 05:24:44.276,-0.04,-0.31
2021-08-19 05:24:44.280,-0.035,-0.34
2021-08-19 05:24:44.284,-0.04,-0.34
2021-08-19 05:24:44.288,-0.04,-0.28
2021-08-19 05:24:44.292,-0.015,-0.29
2021-08-19 05:24:44.296,0.0,-0.305
2021-08-19 05:24:44.300,0.015,-0.285
2021-08-19 05:24:44.304,0.015,-0.315
2021-08-19 05:24:44.308,0.03,-0.29
2021-08-19 05:24:44.312,0.025,-0.265
2021-08-19 05:24:44.316,0.055,-0.275
2021-08-19 05:24:44.320,0.055,-0.25
2021-08-19 05:24:44.324,0.055,-0.255
2021-08-19 05:24:44.328,0.075,-0.245
2021-08-19 05:24:44.332,0.105,-0.225
2021-08-19 05:24:44.336,0.15,-0.22
2021-08-19 05:24:44.340,0.16,-0.185
2021-08-19 05:24:44.344,0.16,-0.16
2021-08-19 05:24:44.348,0.2,-0.115
2021-08-19 05:24:44.352,0.235,-0.1
2021-08-19 05:24:44.356,0.255,-0.065
2021-08-19 05:24:44.360,0.285,-0.005
2021-08-19 05:24:44.364,0.3,0.045
2021-08-19 05:24:44.368,0.335,0.055
2021-08-19 05:24:44.372,0.375,0.105
2021-08-19 05:24:44.376,0.4,0.135
2021-08-19 05:24:44.380,0.435,0.18
2021-08-19 05:24:44.384,0.445,0.24
2021-08-19 05:24:44.388,0.44,0.24
2021-08-19 05:24:44.392,0.46,0.295
2021-08-19 05:24:44.396,0.465,0.29
2021-08-19 05:24:44.400,0.5,0.315
2021-08-19 05:24:44.404,0.465,0.355
2021-08-19 05:24:44.408,0.475,0.38
2021-08-19 05:24:44.412,0.48,0.4
2021-08-19 05:24:44.416,0.515,0.41
2021-08-19 05:24:44.420,0.515,0.445
2021-08-19 05:24:44.424,0.49,0.44
2021-08-19 05:24:44.428,0.475,0.465
2021-08-19 05:24:44.432,0.485,0.495
2021-08-19 05:24:44.436,0.505,0.51
2021-08-19 05:24:44.440,0.44,0.515
2021-08-19 05:24:44.444,0.445,0.52
2021-08-19 05:24:44.448,0.415,0.52
2021-08-19 05:24:44.452,0.39,0.54
2021-08-19 05:24:44.456,0.365,0.54
2021-08-19 05:24:44.460,0.315,0.525
2021-08-19 05:24:44.464,0.26,0.495
2021-08-19 05:24:44.468,0.22,0.45
2021-08-19 05:24:44.472,0.18,0.47
2021-08-19 05:24:44.476,0.135,0.46
2021-08-19 05:24:44.480,0.09,0.395
2021-08-19 05:24:44.484,0.025,0.39
2021-08-19 05:24:44.488,-0.045,0.365
2021-08-19 05:24:44.492,-0.055,0.315
2021-08-19 05:24:44.496,-0.1,0.265
2021-08-19 05:24:44.500,-0.115,0.205
2021-08-19 05:24:44.504,-0.14,0.2
2021-08-19 05:24:44.508,-0.18,0.18
2021-08-19 05:24:44.512,-0.21,0.11
2021-08-19 05:24:44.516,-0.215,0.06
2021-08-19 05:24:44.520,-0.205,0.06
2021-08-19 05:24:44.524,-0.225,0.01
2021-08-19 05:24:44.528,-0.225,0.02
2021-08-19 05:24:44.532,-0.23,-0.025
2021-08-19 05:24:44.536,-0.225,-0.045
2021-08-19 05:24:44.540,-0.23,-0.085
2021-08-19 05:24:44.544,-0.225,-0.105
2021-08-19 05:24:44.548,-0.26,-0.1
2021-08-19 05:24:44.552,-0.265,-0.09
2021-08-19 05:24:44.556,-0.25,-0.13
2021-08-19 05:24:44.560,-0.24,-0.125
2021-08-19 05:24:44.564,-0.26,-0.115
2021-08-19 05:24:44.568,-0.285,-0.125
2021-08-19 05:24:44.572,-0.24,-0.15
2021-08-19 05:24:44.576,-0.215,-0.13
2021-08-19 05:24:44.580,-0.24,-0.145
2021-08-19 05:24:44.584,-0.255,-0.17
2021-08-19 05:24:44.588,-0.24,-0.15
2021-08-19 05:24:44.592,-0.28,-0.145
2021-08-19 05:24:44.596,-0.25,-0.2
2021-08-19 05:24:44.600,-0.26,-0.205
2021-08-19 05:24:44.604,-0.265,-0.17
2021-08-19 05:24:44.608,-0.235,-0.185
2021-08-19 05:24:44.612,-0.275,-0.205
2021-08-19 05:24:44.616,-0.265,-0.225
2021-08-19 05:24:44.620,-0.265,-0.24
2021-08-19 05:24:44.624,-0.275,-0.245
2021-08-19 05:24:44.628,-0.25,-0.235
2021-08-19 05:24:44.632,-0.285,-0.265
2021-08-19 05:24:44.636,-0.265,-0.27
2021-08-19 05:24:44.640,-0.255,-0.26
2021-08-19 05:24:44.644,-0.29,-0.28
2021-08-19 05:24:44.648,-0.28,-0.27
2021-08-19 05:24:44.652,-0.285,-0.28
2021-08-19 05:24:44.656,-0.28,-0.26
2021-08-19 05:24:44.660,-0.285,-0.285
2021-08-19 05:24:44.664,-0.305,-0.315
2021-08-19 05:24:44.668,-0.32,-0.305
2021-08-19 05:24:44.672,-0.305,-0.3
2021-08-19 05:24:44.676,-0.315,-0.29
2021-08-19 05:24:44.680,-0.315,-0.34
2021-08-19 05:24:44.684,-0.31,-0.315
2021-08-19 05:24:44.688,-0.295,-0.315
2021-08-19 05:24:44.692,-0.29,-0.325
2021-08-19 05:24:44.696,-0.32,-0.33
2021-08-19 05:24:44.700,-0.295,-0.325
2021-08-19 05:24:44.704,-0.3,-0.315
2021-08-19 05:24:44.708,-0.33,-0.355
2021-08-19 05:24:44.712,-0.345,-0.32
2021-08-19 05:24:44.716,-0.315,-0.315
2021-08-19 05:24:44.720,-0.31,-0.33
2021-08-19 05:24:44.724,-0.275,-0.29
2021-08-19 05:24:44.728,-0.305,-0.31
2021-08-19 05:24:44.732,-0.365,-0.325
2021-08-19 05:24:44.736,-0.36,-0.315
2021-08-19 05:24:44.740,-0.345,-0.31
2021-08-19 05:24:44.744,-0.32,-0.32
2021-08-19 05:24:44.748,-0.315,-0.33
2021-08-19 05:24:44.752,-0.34,-0.32
2021-08-19 05:24:44.756,-0.34,-0.315
2021-08-19 05:24:44.760,-0.32,-0.32
2021-08-19 05:24:44.764,-0.3,-0.315
2021-08-19 05:24:44.768,-0.32,-0.28
2021-08-19 05:24:44.772,-0.32,-0.3
2021-08-19 05:24:44.776,-0.32,-0.315
2021-08-19 05:24:44.780,-0.31,-0.3
2021-08-19 05:24:44.784,-0.315,-0.3
2021-08-19 05:24:44.788,-0.32,-0.305
2021-08-19 05:24:44.792,-0.345,-0.285
2021-08-19 05:24:44.796,-0.31,-0.315
2021-08-19 05:24:44.800,-0.315,-0.295
2021-08-19 05:24:44.804,-0.315,-0.315
2021-08-19 05:24:44.808,-0.315,-0.29
2021-08-19 05:24:44.812,-0.315,-0.325
2021-08-19 05:24:44.816,-0.31,-0.3
2021-08-19 05:24:44.820,-0.3,-0.29
2021-08-19 05:24:44.824,-0.29,-0.305
2021-08-19 05:24:44.828,-0.285,-0.28
2021-08-19 05:24:44.832,-0.3,-0.265
2021-08-19 05:24:44.836,-0.3,-0.295
2021-08-19 05:24:44.840,-0.31,-0.305
2021-08-19 05:24:44.844,-0.285,-0.325
2021-08-19 05:24:44.848,-0.255,-0.325
2021-08-19 05:24:44.852,-0.23,-0.28
2021-08-19 05:24:44.856,-0.215,-0.235
2021-08-19 05:24:44.860,-0.19,-0.2
2021-08-19 05:24:44.864,-0.205,-0.155
2021-08-19 05:24:44.868,-0.2,-0.15
2021-08-19 05:24:44.872,-0.175,-0.13
2021-08-19 05:24:44.876,-0.14,-0.13
2021-08-19 05:24:44.880,-0.115,-0.1
2021-08-19 05:24:44.884,-0.105,-0.115
2021-08-19 05:24:44.888,-0.075,-0.18
2021-08-19 05:24:44.892,-0.115,-0.23
2021-08-19 05:24:44.896,-0.125,-0.19
2021-08-19 05:24:44.900,-0.07,-0.18
2021-08-19 05:24:44.904,-0.065,-0.19
2021-08-19 05:24:44.908,-0.08,-0.165
2021-08-19 05:24:44.912,-0.14,-0.18
2021-08-19 05:24:44.916,-0.175,-0.22
2021-08-19 05:24:44.920,-0.195,-0.235
2021-08-19 05:24:44.924,-0.21,-0.28
2021-08-19 05:24:44.928,-0.22,-0.31
2021-08-19 05:24:44.932,-0.28,-0.315
2021-08-19 05:24:44.936,-0.3,-0.33
2021-08-19 05:24:44.940,-0.31,-0.34
2021-08-19 05:24:44.944,-0.33,-0.325
2021-08-19 05:24:44.948,-0.355,-0.32
2021-08-19 05:24:44.952,-0.375,-0.35
2021-08-19 05:24:44.956,-0.375,-0.355
2021-08-19 05:24:44.960,-0.34,-0.35
2021-08-19 05:24:44.964,-0.335,-0.355
2021-08-19 05:24:44.968,-0.32,-0.35
2021-08-19 05:24:44.972,-0.33,-0.33
2021-08-19 05:24:44.976,-0.36,-0.34
2021-08-19 05:24:44.980,-0.34,-0.32
2021-08-19 05:24:44.984,-0.335,-0.335
2021-08-19 05:24:44.988,-0.305,-0.325
2021-08-19 05:24:44.992,-0.325,-0.32
2021-08-19 05:24:44.996,-0.33,-0.31
2021-08-19 05:24:45.000,-0.32,-0.31
2021-08-19 05:24:45.004,-0.305,-0.335
2021-08-19 05:24:45.008,-0.305,-0.32
2021-08-19 05:24:45.012,-0.315,-0.335
2021-08-19 05:24:45.016,-0.33,-0.3
2021-08-19 05:24:45.020,-0.33,-0.33
2021-08-19 05:24:45.024,-0.36,-0.31
2021-08-19 05:24:45.028,-0.42,-0.31
2021-08-19 05:24:45.032,-0.515,-0.325
2021-08-19 05:24:45.036,-0.49,-0.35
2021-08-19 05:24:45.040,-0.48,-0.41
2021-08-19 05:24:45.044,-0.525,-0.48
2021-08-19 05:24:45.048,-0.47,-0.665
2021-08-19 05:24:45.052,-0.36,-0.86
2021-08-19 05:24:45.056,-0.515,-0.76
2021-08-19 05:24:45.060,-0.64,-0.69
2021-08-19 05:24:45.064,-0.585,-0.74
2021-08-19 05:24:45.068,-0.595,-0.465
2021-08-19 05:24:45.072,-0.935,0.065
2021-08-19 05:24:45.076,-1.395,0.285
2021-08-19 05:24:45.080,-1.85,-0.16
2021-08-19 05:24:45.116,-1.83,-1.395
2021-08-19 05:24:45.120,-1.35,-1.04
2021-08-19 05:24:45.124,-0.83,-0.835
2021-08-19 05:24:45.128,-0.56,-0.585
2021-08-19 05:24:45.132,-0.36,-0.355
2021-08-19 05:24:45.136,-0.26,-0.29
2021-08-19 05:24:45.140,-0.21,-0.255
2021-08-19 05:24:45.144,-0.135,-0.165
2021-08-19 05:24:45.148,-0.125,-0.18
2021-08-19 05:24:45.152,-0.105,-0.13
2021-08-19 05:24:45.156,-0.105,-0.14
2021-08-19 05:24:45.160,-0.08,-0.185
2021-08-19 05:24:45.164,-0.05,-0.135
2021-08-19 05:24:45.168,-0.025,-0.145
2021-08-19 05:24:45.172,-0.035,-0.15
2021-08-19 05:24:45.176,-0.045,-0.16
2021-08-19 05:24:45.180,-0.03,-0.125
2021-08-19 05:24:45.184,-0.025,-0.15
2021-08-19 05:24:45.188,0.01,-0.19
2021-08-19 05:24:45.192,-0.02,-0.14
2021-08-19 05:24:45.196,-0.02,-0.16
2021-08-19 05:24:45.200,-0.025,-0.155
2021-08-19 05:24:45.204,0.005,-0.155
2021-08-19 05:24:45.208,0.0,-0.16
2021-08-19 05:24:45.212,-0.02,-0.18
2021-08-19 05:24:45.216,-0.01,-0.18
2021-08-19 05:24:45.220,0.0,-0.165
2021-08-19 05:24:45.224,0.035,-0.145
2021-08-19 05:24:45.228,0.06,-0.13
2021-08-19 05:24:45.232,0.08,-0.14
2021-08-19 05:24:45.236,0.085,-0.1
2021-08-19 05:24:45.240,0.085,-0.135
2021-08-19 05:24:45.244,0.115,-0.08
2021-08-19 05:24:45.248,0.155,-0.11
2021-08-19 05:24:45.252,0.155,-0.09
2021-08-19 05:24:45.256,0.185,-0.08
2021-08-19 05:24:45.260,0.18,-0.045
2021-08-19 05:24:45.264,0.215,-0.03
2021-08-19 05:24:45.268,0.275,-0.015
2021-08-19 05:24:45.272,0.285,0.04
2021-08-19 05:24:45.276,0.355,0.055
2021-08-19 05:24:45.280,0.33,0.105
2021-08-19 05:24:45.284,0.375,0.14
2021-08-19 05:24:45.288,0.415,0.145
2021-08-19 05:24:45.292,0.45,0.225
2021-08-19 05:24:45.296,0.47,0.245
2021-08-19 05:24:45.300,0.475,0.265
2021-08-19 05:24:45.304,0.475,0.325
2021-08-19 05:24:45.308,0.49,0.315
2021-08-19 05:24:45.312,0.54,0.36
2021-08-19 05:24:45.316,0.55,0.395
2021-08-19 05:24:45.320,0.52,0.425
2021-08-19 05:24:45.324,0.53,0.415
2021-08-19 05:24:45.328,0.535,0.435
2021-08-19 05:24:45.332,0.545,0.455
2021-08-19 05:24:45.336,0.57,0.475
2021-08-19 05:24:45.340,0.525,0.47
2021-08-19 05:24:45.344,0.535,0.515
2021-08-19 05:24:45.348,0.535,0.515
2021-08-19 05:24:45.352,0.55,0.52
2021-08-19 05:24:45.356,0.515,0.515
2021-08-19 05:24:45.360,0.485,0.555
2021-08-19 05:24:45.364,0.455,0.535
2021-08-19 05:24:45.368,0.435,0.555
2021-08-19 05:24:45.372,0.43,0.52
2021-08-19 05:24:45.376,0.395,0.54
2021-08-19 05:24:45.380,0.355,0.515
2021-08-19 05:24:45.384,0.3,0.5
2021-08-19 05:24:45.388,0.25,0.505
2021-08-19 05:24:45.392,0.19,0.48
2021-08-19 05:24:45.396,0.165,0.48
2021-08-19 05:24:45.400,0.085,0.45
2021-08-19 05:24:45.404,0.04,0.415
2021-08-19 05:24:45.408,-0.04,0.4
2021-08-19 05:24:45.412,-0.015,0.35
2021-08-19 05:24:45.416,-0.045,0.315
2021-08-19 05:24:45.420,-0.095,0.32
2021-08-19 05:24:45.424,-0.145,0.27
2021-08-19 05:24:45.428,-0.175,0.265
2021-08-19 05:24:45.432,-0.155,0.2
2021-08-19 05:24:45.436,-0.17,0.19
2021-08-19 05:24:45.440,-0.2,0.145
2021-08-19 05:24:45.444,-0.225,0.155
2021-08-19 05:24:45.448,-0.2,0.12
2021-08-19 05:24:45.452,-0.24,0.05
2021-08-19 05:24:45.456,-0.24,0.065
2021-08-19 05:24:45.460,-0.26,0.025
2021-08-19 05:24:45.464,-0.25,0.015
2021-08-19 05:24:45.468,-0.23,0.015
2021-08-19 05:24:45.472,-0.25,0.005
2021-08-19 05:24:45.476,-0.205,-0.01
2021-08-19 05:24:45.480,-0.225,0.01
2021-08-19 05:24:45.484,-0.23,-0.02
2021-08-19 05:24:45.488,-0.225,-0.015
2021-08-19 05:24:45.492,-0.215,-0.005
2021-08-19 05:24:45.496,-0.205,-0.03
2021-08-19 05:24:45.500,-0.195,-0.02
2021-08-19 05:24:45.504,-0.225,-0.045
2021-08-19 05:24:45.508,-0.245,-0.05
2021-08-19 05:24:45.512,-0.215,-0.07
2021-08-19 05:24:45.516,-0.21,-0.095
2021-08-19 05:24:45.520,-0.21,-0.09
2021-08-19 05:24:45.524,-0.24,-0.1
2021-08-19 05:24:45.528,-0.23,-0.12
2021-08-19 05:24:45.532,-0.22,-0.13
2021-08-19 05:24:45.536,-0.225,-0.13
2021-08-19 05:24:45.540,-0.23,-0.115
2021-08-19 05:24:45.544,-0.235,-0.13
2021-08-19 05:24:45.548,-0.23,-0.155
2021-08-19 05:24:45.552,-0.26,-0.125
2021-08-19 05:24:45.556,-0.24,-0.155
2021-08-19 05:24:45.560,-0.235,-0.17
2021-08-19 05:24:45.564,-0.28,-0.215
2021-08-19 05:24:45.568,-0.285,-0.2
2021-08-19 05:24:45.572,-0.275,-0.225
2021-08-19 05:24:45.576,-0.24,-0.18
2021-08-19 05:24:45.580,-0.28,-0.225
2021-08-19 05:24:45.584,-0.27,-0.22
2021-08-19 05:24:45.588,-0.27,-0.215
2021-08-19 05:24:45.592,-0.29,-0.24
2021-08-19 05:24:45.596,-0.255,-0.225
2021-08-19 05:24:45.600,-0.26,-0.25
2021-08-19 05:24:45.604,-0.29,-0.245
2021-08-19 05:24:45.608,-0.295,-0.25
2021-08-19 05:24:45.612,-0.295,-0.24
2021-08-19 05:24:45.616,-0.285,-0.24
2021-08-19 05:24:45.620,-0.27,-0.255
2021-08-19 05:24:45.624,-0.28,-0.235
2021-08-19 05:24:45.628,-0.3,-0.25
2021-08-19 05:24:45.632,-0.275,-0.285
2021-08-19 05:24:45.636,-0.255,-0.255
2021-08-19 05:24:45.640,-0.27,-0.24
2021-08-19 05:24:45.644,-0.275,-0.26
2021-08-19 05:24:45.648,-0.28,-0.295
2021-08-19 05:24:45.652,-0.305,-0.25
2021-08-19 05:24:45.656,-0.25,-0.245
2021-08-19 05:24:45.660,-0.265,-0.245
2021-08-19 05:24:45.664,-0.275,-0.245
2021-08-19 05:24:45.668,-0.3,-0.245
2021-08-19 05:24:45.672,-0.275,-0.28
2021-08-19 05:24:45.676,-0.26,-0.265
2021-08-19 05:24:45.680,-0.255,-0.26
2021-08-19 05:24:45.684,-0.275,-0.25
2021-08-19 05:24:45.688,-0.285,-0.25
2021-08-19 05:24:45.692,-0.295,-0.27
2021-08-19 05:24:45.696,-0.27,-0.28
2021-08-19 05:24:45.700,-0.255,-0.235
2021-08-19 05:24:45.704,-0.265,-0.26
2021-08-19 05:24:45.708,-0.28,-0.285
2021-08-19 05:24:45.712,-0.285,-0.26
2021-08-19 05:24:45.716,-0.28,-0.27
2021-08-19 05:24:45.720,-0.25,-0.28
2021-08-19 05:24:45.724,-0.255,-0.275
2021-08-19 05:24:45.728,-0.275,-0.265
2021-08-19 05:24:45.732,-0.265,-0.29
2021-08-19 05:24:45.736,-0.245,-0.265
2021-08-19 05:24:45.740,-0.24,-0.26
2021-08-19 05:24:45.744,-0.25,-0.265
2021-08-19 05:24:45.748,-0.285,-0.285
2021-08-19 05:24:45.752,-0.245,-0.245
2021-08-19 05:24:45.756,-0.23,-0.28
2021-08-19 05:24:45.760,-0.2,-0.235
2021-08-19 05:24:45.764,-0.19,-0.22
2021-08-19 05:24:45.768,-0.195,-0.13
2021-08-19 05:24:45.772,-0.19,-0.155
2021-08-19 05:24:45.776,-0.155,-0.16
2021-08-19 05:24:45.780,-0.15,-0.105
2021-08-19 05:24:45.784,-0.11,-0.13
2021-08-19 05:24:45.788,-0.1,-0.11
2021-08-19 05:24:45.792,-0.09,-0.15
2021-08-19 05:24:45.796,-0.065,-0.155
2021-08-19 05:24:45.800,-0.07,-0.195
2021-08-19 05:24:45.804,-0.08,-0.175
2021-08-19 05:24:45.808,-0.085,-0.21
2021-08-19 05:24:45.812,-0.07,-0.2
2021-08-19 05:24:45.816,-0.085,-0.165
2021-08-19 05:24:45.820,-0.1,-0.17
2021-08-19 05:24:45.824,-0.13,-0.21
2021-08-19 05:24:45.828,-0.175,-0.235
2021-08-19 05:24:45.832,-0.205,-0.275
2021-08-19 05:24:45.836,-0.205,-0.26
2021-08-19 05:24:45.840,-0.2,-0.285
2021-08-19 05:24:45.844,-0.235,-0.27
2021-08-19 05:24:45.848,-0.28,-0.3
2021-08-19 05:24:45.852,-0.32,-0.285
2021-08-19 05:24:45.856,-0.335,-0.32
2021-08-19 05:24:45.860,-0.295,-0.305
2021-08-19 05:24:45.864,-0.32,-0.34
2021-08-19 05:24:45.868,-0.32,-0.295
2021-08-19 05:24:45.872,-0.32,-0.285
2021-08-19 05:24:45.876,-0.31,-0.3
2021-08-19 05:24:45.880,-0.305,-0.315
2021-08-19 05:24:45.884,-0.285,-0.3
2021-08-19 05:24:45.888,-0.315,-0.3
2021-08-19 05:24:45.892,-0.285,-0.27
2021-08-19 05:24:45.896,-0.285,-0.27
2021-08-19 05:24:45.900,-0.275,-0.275
2021-08-19 05:24:45.904,-0.29,-0.245
2021-08-19 05:24:45.908,-0.295,-0.3
2021-08-19 05:24:45.912,-0.29,-0.305
2021-08-19 05:24:45.916,-0.31,-0.26
2021-08-19 05:24:45.920,-0.31,-0.28
2021-08-19 05:24:45.924,-0.285,-0.285
2021-08-19 05:24:45.928,-0.295,-0.305
2021-08-19 05:24:45.932,-0.325,-0.28
2021-08-19 05:24:45.936,-0.39,-0.27
2021-08-19 05:24:45.940,-0.44,-0.3
2021-08-19 05:24:45.944,-0.47,-0.315
2021-08-19 05:24:45.948,-0.455,-0.345
2021-08-19 05:24:45.952,-0.48,-0.395
2021-08-19 05:24:45.956,-0.45,-0.5
2021-08-19 05:24:45.960,-0.28,-0.67
2021-08-19 05:24:45.964,-0.23,-0.74
2021-08-19 05:24:45.968,-0.385,-0.575
2021-08-19 05:24:45.972,-0.355,-0.56
2021-08-19 05:24:45.976,-0.27,-0.375
2021-08-19 05:24:45.980,-0.465,0.19
2021-08-19 05:24:45.984,-0.93,0.735
2021-08-19 05:24:45.988,-1.465,0.79
2021-08-19 05:24:45.992,-1.97,-0.32
2021-08-19 05:24:46.024,-1.76,-1.585
2021-08-19 05:24:46.028,-1.455,-1.245
2021-08-19 05:24:46.032,-1.03,-1.02
2021-08-19 05:24:46.036,-0.685,-0.815
2021-08-19 05:24:46.040,-0.455,-0.58
2021-08-19 05:24:46.044,-0.305,-0.38
2021-08-19 05:24:46.048,-0.215,-0.305
2021-08-19 05:24:46.052,-0.17,-0.255
2021-08-19 05:24:46.056,-0.12,-0.205
2021-08-19 05:24:46.060,-0.08,-0.13
2021-08-19 05:24:46.064,-0.05,-0.155
2021-08-19 05:24:46.068,-0.05,-0.15
2021-08-19 05:24:46.072,-0.04,-0.17
2021-08-19 05:24:46.076,-0.075,-0.15
2021-08-19 05:24:46.080,-0.04,-0.155
2021-08-19 05:24:46.084,-0.02,-0.175
2021-08-19 05:24:46.088,-0.02,-0.165
2021-08-19 05:24:46.092,-0.02,-0.17
2021-08-19 05:24:46.096,-0.02,-0.17
2021-08-19 05:24:46.100,-0.03,-0.15
2021-08-19 05:24:46.104,0.005,-0.15
2021-08-19 05:24:46.108,-0.005,-0.19
2021-08-19 05:24:46.112,-0.01,-0.16
2021-08-19 05:24:46.116,-0.03,-0.19
2021-08-19 05:24:46.120,0.01,-0.155
2021-08-19 05:24:46.124,0.005,-0.165
2021-08-19 05:24:46.128,0.0,-0.15
2021-08-19 05:24:46.132,0.02,-0.115
2021-08-19 05:24:46.136,0.015,-0.13
2021-08-19 05:24:46.140,0.04,-0.12
2021-08-19 05:24:46.144,0.085,-0.1
2021-08-19 05:24:46.148,0.105,-0.105
2021-08-19 05:24:46.152,0.12,-0.09
2021-08-19 05:24:46.156,0.125,-0.1
2021-08-19 05:24:46.160,0.14,-0.055
2021-08-19 05:24:46.164,0.165,-0.035
2021-08-19 05:24:46.168,0.21,-0.04
2021-08-19 05:24:46.172,0.23,0.0
2021-08-19 05:24:46.176,0.235,0.035
2021-08-19 05:24:46.180,0.26,0.08
2021-08-19 05:24:46.184,0.3,0.105
2021-08-19 05:24:46.188,0.345,0.14
2021-08-19 05:24:46.192,0.38,0.2
2021-08-19 05:24:46.196,0.42,0.245
2021-08-19 05:24:46.200,0.425,0.28
2021-08-19 05:24:46.204,0.47,0.3
2021-08-19 05:24:46.208,0.485,0.33
2021-08-19 05:24:46.212,0.53,0.37
2021-08-19 05:24:46.216,0.505,0.405
2021-08-19 05:24:46.220,0.52,0.425
2021-08-19 05:24:46.224,0.54,0.48
2021-08-19 05:24:46.228,0.575,0.46
2021-08-19 05:24:46.232,0.585,0.495
2021-08-19 05:24:46.236,0.575,0.505
2021-08-19 05:24:46.240,0.55,0.565
2021-08-19 05:24:46.244,0.565,0.565
2021-08-19 05:24:46.248,0.6,0.555
2021-08-19 05:24:46.252,0.58,0.585
2021-08-19 05:24:46.256,0.56,0.57
2021-08-19 05:24:46.260,0.52,0.635
2021-08-19 05:24:46.264,0.53,0.595
2021-08-19 05:24:46.268,0.55,0.63
2021-08-19 05:24:46.272,0.51,0.655
2021-08-19 05:24:46.276,0.475,0.66
2021-08-19 05:24:46.280,0.44,0.64
2021-08-19 05:24:46.284,0.405,0.64
2021-08-19 05:24:46.288,0.38,0.665
2021-08-19 05:24:46.292,0.32,0.645
2021-08-19 05:24:46.296,0.31,0.61
2021-08-19 05:24:46.300,0.215,0.575
2021-08-19 05:24:46.304,0.16,0.58
2021-08-19 05:24:46.308,0.125,0.535
2021-08-19 05:24:46.312,0.075,0.52
2021-08-19 05:24:46.316,-0.01,0.49
2021-08-19 05:24:46.320,-0.02,0.47
2021-08-19 05:24:46.324,-0.1,0.425
2021-08-19 05:24:46.328,-0.09,0.41
2021-08-19 05:24:46.332,-0.11,0.375
2021-08-19 05:24:46.336,-0.145,0.31
2021-08-19 05:24:46.340,-0.175,0.3
2021-08-19 05:24:46.344,-0.185,0.27
2021-08-19 05:24:46.348,-0.19,0.245
2021-08-19 05:24:46.352,-0.19,0.245
2021-08-19 05:24:46.356,-0.19,0.215
2021-08-19 05:24:46.360,-0.19,0.175
2021-08-19 05:24:46.364,-0.185,0.15
2021-08-19 05:24:46.368,-0.18,0.15
2021-08-19 05:24:46.372,-0.2,0.085
2021-08-19 05:24:46.376,-0.21,0.1
2021-08-19 05:24:46.380,-0.25,0.075
2021-08-19 05:24:46.384,-0.24,0.095
2021-08-19 05:24:46.388,-0.22,0.08
2021-08-19 05:24:46.392,-0.2,0.035
2021-08-19 05:24:46.396,-0.185,0.03
2021-08-19 05:24:46.400,-0.22,0.03
2021-08-19 05:24:46.404,-0.22,0.04
2021-08-19 05:24:46.408,-0.215,0.01
2021-08-19 05:24:46.412,-0.18,0.03
2021-08-19 05:24:46.416,-0.22,0.01
2021-08-19 05:24:46.420,-0.23,0.0
2021-08-19 05:24:46.424,-0.25,-0.02
2021-08-19 05:24:46.428,-0.24,-0.015
2021-08-19 05:24:46.432,-0.2,-0.055
2021-08-19 05:24:46.436,-0.215,-0.05
2021-08-19 05:24:46.440,-0.24,-0.055
2021-08-19 05:24:46.444,-0.235,-0.07
2021-08-19 05:24:46.448,-0.22,-0.055
2021-08-19 05:24:46.452,-0.225,-0.065
2021-08-19 05:24:46.456,-0.21,-0.09
2021-08-19 05:24:46.460,-0.24,-0.115
2021-08-19 05:24:46.464,-0.265,-0.095
2021-08-19 05:24:46.468,-0.26,-0.1
2021-08-19 05:24:46.472,-0.25,-0.1
2021-08-19 05:24:46.476,-0.27,-0.105
2021-08-19 05:24:46.480,-0.27,-0.12
2021-08-19 05:24:46.484,-0.27,-0.11
2021-08-19 05:24:46.488,-0.27,-0.145
2021-08-19 05:24:46.492,-0.245,-0.14
2021-08-19 05:24:46.496,-0.23,-0.15
2021-08-19 05:24:46.500,-0.265,-0.135
2021-08-19 05:24:46.504,-0.28,-0.14
2021-08-19 05:24:46.508,-0.265,-0.13
2021-08-19 05:24:46.512,-0.26,-0.145
2021-08-19 05:24:46.516,-0.275,-0.185
2021-08-19 05:24:46.520,-0.31,-0.18
2021-08-19 05:24:46.524,-0.32,-0.175
2021-08-19 05:24:46.528,-0.285,-0.18
2021-08-19 05:24:46.532,-0.255,-0.17
2021-08-19 05:24:46.536,-0.275,-0.17
2021-08-19 05:24:46.540,-0.3,-0.15
2021-08-19 05:24:46.544,-0.31,-0.17
2021-08-19 05:24:46.548,-0.3,-0.185
2021-08-19 05:24:46.552,-0.275,-0.165
2021-08-19 05:24:46.556,-0.27,-0.195
2021-08-19 05:24:46.560,-0.275,-0.18
2021-08-19 05:24:46.564,-0.3,-0.215
2021-08-19 05:24:46.568,-0.31,-0.19
2021-08-19 05:24:46.572,-0.28,-0.185
2021-08-19 05:24:46.576,-0.315,-0.21
2021-08-19 05:24:46.580,-0.29,-0.225
2021-08-19 05:24:46.584,-0.32,-0.21
2021-08-19 05:24:46.588,-0.32,-0.205
2021-08-19 05:24:46.592,-0.27,-0.215
2021-08-19 05:24:46.596,-0.28,-0.18
2021-08-19 05:24:46.600,-0.29,-0.225
2021-08-19 05:24:46.604,-0.32,-0.215
2021-08-19 05:24:46.608,-0.32,-0.225
2021-08-19 05:24:46.612,-0.285,-0.185
2021-08-19 05:24:46.616,-0.29,-0.19
2021-08-19 05:24:46.620,-0.32,-0.19
2021-08-19 05:24:46.624,-0.33,-0.19
2021-08-19 05:24:46.628,-0.31,-0.21
2021-08-19 05:24:46.632,-0.295,-0.19
2021-08-19 05:24:46.636,-0.275,-0.19
2021-08-19 05:24:46.640,-0.315,-0.21
2021-08-19 05:24:46.644,-0.29,-0.23
2021-08-19 05:24:46.648,-0.28,-0.165
2021-08-19 05:24:46.652,-0.27,-0.16
2021-08-19 05:24:46.656,-0.26,-0.18
2021-08-19 05:24:46.660,-0.295,-0.17
2021-08-19 05:24:46.664,-0.29,-0.17
2021-08-19 05:24:46.668,-0.28,-0.165
2021-08-19 05:24:46.672,-0.255,-0.13
2021-08-19 05:24:46.676,-0.24,-0.16
2021-08-19 05:24:46.680,-0.195,-0.15
2021-08-19 05:24:46.684,-0.17,-0.06
2021-08-19 05:24:46.688,-0.19,-0.045
2021-08-19 05:24:46.692,-0.165,-0.025
2021-08-19 05:24:46.696,-0.155,-0.045
2021-08-19 05:24:46.700,-0.15,-0.025
2021-08-19 05:24:46.704,-0.11,-0.015
2021-08-19 05:24:46.708,-0.125,0.02
2021-08-19 05:24:46.712,-0.1,0.015
2021-08-19 05:24:46.716,-0.09,-0.02
2021-08-19 05:24:46.720,-0.08,-0.06
2021-08-19 05:24:46.724,-0.085,-0.07
2021-08-19 05:24:46.728,-0.07,-0.06
2021-08-19 05:24:46.732,-0.04,-0.07
2021-08-19 05:24:46.736,-0.075,-0.035
2021-08-19 05:24:46.740,-0.12,-0.04
2021-08-19 05:24:46.744,-0.14,-0.08
2021-08-19 05:24:46.748,-0.175,-0.06
2021-08-19 05:24:46.752,-0.235,-0.125
2021-08-19 05:24:46.756,-0.235,-0.115
2021-08-19 05:24:46.760,-0.24,-0.14
2021-08-19 05:24:46.764,-0.28,-0.175
2021-08-19 05:24:46.768,-0.3,-0.185
2021-08-19 05:24:46.772,-0.315,-0.2
2021-08-19 05:24:46.776,-0.325,-0.135
2021-08-19 05:24:46.780,-0.305,-0.22
2021-08-19 05:24:46.784,-0.34,-0.175
2021-08-19 05:24:46.788,-0.355,-0.2
2021-08-19 05:24:46.792,-0.335,-0.18
2021-08-19 05:24:46.796,-0.3,-0.18
2021-08-19 05:24:46.800,-0.305,-0.185
2021-08-19 05:24:46.804,-0.31,-0.18
2021-08-19 05:24:46.808,-0.325,-0.185
2021-08-19 05:24:46.812,-0.305,-0.11
2021-08-19 05:24:46.816,-0.305,-0.115
2021-08-19 05:24:46.820,-0.315,-0.14
2021-08-19 05:24:46.824,-0.285,-0.18
2021-08-19 05:24:46.828,-0.315,-0.145
2021-08-19 05:24:46.832,-0.335,-0.15
2021-08-19 05:24:46.836,-0.29,-0.1
2021-08-19 05:24:46.840,-0.285,-0.11
2021-08-19 05:24:46.844,-0.3,-0.145
2021-08-19 05:24:46.848,-0.305,-0.155
2021-08-19 05:24:46.852,-0.355,-0.12
2021-08-19 05:24:46.856,-0.385,-0.125
2021-08-19 05:24:46.860,-0.435,-0.16
2021-08-19 05:24:46.864,-0.49,-0.155
2021-08-19 05:24:46.868,-0.47,-0.21
2021-08-19 05:24:46.872,-0.48,-0.32
2021-08-19 05:24:46.876,-0.47,-0.38
2021-08-19 05:24:46.880,-0.31,-0.57
2021-08-19 05:24:46.884,-0.2,-0.6
2021-08-19 05:24:46.888,-0.32,-0.445
2021-08-19 05:24:46.892,-0.375,-0.355
2021-08-19 05:24:46.896,-0.2,-0.195
2021-08-19 05:24:46.900,-0.315,0.325
2021-08-19 05:24:46.904,-0.73,1.02
2021-08-19 05:24:46.908,-1.3,1.17
2021-08-19 05:24:46.912,-1.86,0.22
2021-08-19 05:24:46.940,-2.0,-1.8
2021-08-19 05:24:46.944,-1.715,-1.435
2021-08-19 05:24:46.948,-1.34,-1.09
2021-08-19 05:24:46.952,-0.94,-0.855
2021-08-19 05:24:46.956,-0.61,-0.64
2021-08-19 05:24:46.960,-0.38,-0.42
2021-08-19 05:24:46.964,-0.265,-0.245
2021-08-19 05:24:46.968,-0.185,-0.155
2021-08-19 05:24:46.972,-0.12,-0.095
2021-08-19 05:24:46.976,-0.125,-0.045
2021-08-19 05:24:46.980,-0.085,-0.045
2021-08-19 05:24:46.984,-0.05,-0.035
2021-08-19 05:24:46.988,-0.065,-0.04
2021-08-19 05:24:46.992,-0.06,-0.05
2021-08-19 05:24:46.996,-0.06,-0.05
2021-08-19 05:24:47.000,-0.055,-0.03
2021-08-19 05:24:47.004,-0.02,-0.02
2021-08-19 05:24:47.008,-0.015,-0.03
2021-08-19 05:24:47.012,-0.05,-0.035
2021-08-19 05:24:47.016,-0.05,-0.04
2021-08-19 05:24:47.020,-0.015,-0.005
2021-08-19 05:24:47.024,-0.005,-0.06
2021-08-19 05:24:47.028,0.015,-0.035
2021-08-19 05:24:47.032,0.0,-0.05
2021-08-19 05:24:47.036,0.01,-0.05
2021-08-19 05:24:47.040,-0.01,-0.03
2021-08-19 05:24:47.044,0.01,-0.03
2021-08-19 05:24:47.048,0.01,-0.03
2021-08-19 05:24:47.052,0.055,-0.045
2021-08-19 05:24:47.056,0.025,-0.035
2021-08-19 05:24:47.060,0.075,-0.035
2021-08-19 05:24:47.064,0.095,-0.01
2021-08-19 05:24:47.068,0.11,0.005
2021-08-19 05:24:47.072,0.13,0.005
2021-08-19 05:24:47.076,0.135,0.02
2021-08-19 05:24:47.080,0.18,0.05
2021-08-19 05:24:47.084,0.21,0.07
2021-08-19 05:24:47.088,0.215,0.105
2021-08-19 05:24:47.092,0.215,0.16
2021-08-19 05:24:47.096,0.265,0.18
2021-08-19 05:24:47.100,0.29,0.22
2021-08-19 05:24:47.104,0.33,0.255
2021-08-19 05:24:47.108,0.345,0.31
2021-08-19 05:24:47.112,0.37,0.35
2021-08-19 05:24:47.116,0.38,0.385
2021-08-19 05:24:47.120,0.455,0.43
2021-08-19 05:24:47.124,0.46,0.48
2021-08-19 05:24:47.128,0.49,0.535
2021-08-19 05:24:47.132,0.49,0.54
2021-08-19 05:24:47.136,0.535,0.575
2021-08-19 05:24:47.140,0.545,0.59
2021-08-19 05:24:47.144,0.585,0.61
2021-08-19 05:24:47.148,0.595,0.66
2021-08-19 05:24:47.152,0.555,0.675
2021-08-19 05:24:47.156,0.58,0.675
2021-08-19 05:24:47.160,0.585,0.71
2021-08-19 05:24:47.164,0.585,0.71
2021-08-19 05:24:47.168,0.56,0.725
2021-08-19 05:24:47.172,0.55,0.78
2021-08-19 05:24:47.176,0.575,0.78
2021-08-19 05:24:47.180,0.585,0.79
2021-08-19 05:24:47.184,0.56,0.805
2021-08-19 05:24:47.188,0.545,0.795
2021-08-19 05:24:47.192,0.535,0.8
2021-08-19 05:24:47.196,0.475,0.8
2021-08-19 05:24:47.200,0.465,0.805
2021-08-19 05:24:47.204,0.43,0.8
2021-08-19 05:24:47.208,0.39,0.765
2021-08-19 05:24:47.212,0.325,0.745
2021-08-19 05:24:47.216,0.275,0.71
2021-08-19 05:24:47.220,0.21,0.73
2021-08-19 05:24:47.224,0.17,0.695
2021-08-19 05:24:47.228,0.165,0.675
2021-08-19 05:24:47.232,0.085,0.62
2021-08-19 05:24:47.236,0.025,0.59
2021-08-19 05:24:47.240,0.005,0.56
2021-08-19 05:24:47.244,-0.03,0.525
2021-08-19 05:24:47.248,-0.05,0.525
2021-08-19 05:24:47.252,-0.05,0.48
2021-08-19 05:24:47.256,-0.12,0.41
2021-08-19 05:24:47.260,-0.135,0.38
2021-08-19 05:24:47.264,-0.115,0.355
2021-08-19 05:24:47.268,-0.12,0.305
2021-08-19 05:24:47.272,-0.145,0.28
2021-08-19 05:24:47.276,-0.17,0.29
2021-08-19 05:24:47.280,-0.13,0.24
2021-08-19 05:24:47.284,-0.145,0.255
2021-08-19 05:24:47.288,-0.14,0.19
2021-08-19 05:24:47.292,-0.16,0.155
2021-08-19 05:24:47.296,-0.21,0.17
2021-08-19 05:24:47.300,-0.18,0.15
2021-08-19 05:24:47.304,-0.155,0.11
2021-08-19 05:24:47.308,-0.14,0.125
2021-08-19 05:24:47.312,-0.15,0.105
2021-08-19 05:24:47.316,-0.195,0.08
2021-08-19 05:24:47.320,-0.155,0.09
2021-08-19 05:24:47.324,-0.18,0.09
2021-08-19 05:24:47.328,-0.165,0.075
2021-08-19 05:24:47.332,-0.18,0.06
2021-08-19 05:24:47.336,-0.16,0.05
2021-08-19 05:24:47.340,-0.19,0.01
2021-08-19 05:24:47.344,-0.18,0.065
2021-08-19 05:24:47.348,-0.17,0.05
2021-08-19 05:24:47.352,-0.15,0.0
2021-08-19 05:24:47.356,-0.17,0.0
2021-08-19 05:24:47.360,-0.205,-0.015
2021-08-19 05:24:47.364,-0.23,-0.015
2021-08-19 05:24:47.368,-0.195,-0.03
2021-08-19 05:24:47.372,-0.205,-0.04
2021-08-19 05:24:47.376,-0.185,-0.015
2021-08-19 05:24:47.380,-0.21,-0.08
2021-08-19 05:24:47.384,-0.215,-0.08
2021-08-19 05:24:47.388,-0.215,-0.08
2021-08-19 05:24:47.392,-0.215,-0.095
2021-08-19 05:24:47.396,-0.23,-0.105
2021-08-19 05:24:47.400,-0.24,-0.105
2021-08-19 05:24:47.404,-0.22,-0.115
2021-08-19 05:24:47.408,-0.22,-0.105
2021-08-19 05:24:47.412,-0.22,-0.13
2021-08-19 05:24:47.416,-0.225,-0.145
2021-08-19 05:24:47.420,-0.225,-0.155
2021-08-19 05:24:47.424,-0.23,-0.145
2021-08-19 05:24:47.428,-0.245,-0.14
2021-08-19 05:24:47.432,-0.255,-0.155
2021-08-19 05:24:47.436,-0.26,-0.135
2021-08-19 05:24:47.440,-0.255,-0.155
2021-08-19 05:24:47.444,-0.24,-0.145
2021-08-19 05:24:47.448,-0.245,-0.145
2021-08-19 05:24:47.452,-0.265,-0.155
2021-08-19 05:24:47.456,-0.29,-0.14
2021-08-19 05:24:47.460,-0.295,-0.185
2021-08-19 05:24:47.464,-0.26,-0.18
2021-08-19 05:24:47.468,-0.245,-0.185
2021-08-19 05:24:47.472,-0.285,-0.175
2021-08-19 05:24:47.476,-0.27,-0.155
2021-08-19 05:24:47.480,-0.265,-0.17
2021-08-19 05:24:47.484,-0.285,-0.145
2021-08-19 05:24:47.488,-0.26,-0.175
2021-08-19 05:24:47.492,-0.26,-0.16
2021-08-19 05:24:47.496,-0.275,-0.155
2021-08-19 05:24:47.500,-0.305,-0.19
2021-08-19 05:24:47.504,-0.295,-0.17
2021-08-19 05:24:47.508,-0.28,-0.18
2021-08-19 05:24:47.512,-0.29,-0.18
2021-08-19 05:24:47.516,-0.29,-0.185
2021-08-19 05:24:47.520,-0.28,-0.19
2021-08-19 05:24:47.524,-0.295,-0.21
2021-08-19 05:24:47.528,-0.27,-0.205
2021-08-19 05:24:47.532,-0.28,-0.195
2021-08-19 05:24:47.536,-0.28,-0.17
2021-08-19 05:24:47.540,-0.315,-0.175
2021-08-19 05:24:47.544,-0.29,-0.195
2021-08-19 05:24:47.548,-0.305,-0.195
2021-08-19 05:24:47.552,-0.27,-0.21
2021-08-19 05:24:47.556,-0.295,-0.155
2021-08-19 05:24:47.560,-0.31,-0.205
2021-08-19 05:24:47.564,-0.315,-0.195
2021-08-19 05:24:47.568,-0.3,-0.185
2021-08-19 05:24:47.572,-0.285,-0.16
2021-08-19 05:24:47.576,-0.275,-0.2
2021-08-19 05:24:47.580,-0.305,-0.195
2021-08-19 05:24:47.584,-0.3,-0.175
2021-08-19 05:24:47.588,-0.265,-0.18
2021-08-19 05:24:47.592,-0.245,-0.185
2021-08-19 05:24:47.596,-0.225,-0.2
2021-08-19 05:24:47.600,-0.205,-0.13
2021-08-19 05:24:47.604,-0.25,-0.115
2021-08-19 05:24:47.608,-0.21,-0.075
2021-08-19 05:24:47.612,-0.2,-0.12
2021-08-19 05:24:47.616,-0.16,-0.1
2021-08-19 05:24:47.620,-0.145,-0.095
2021-08-19 05:24:47.624,-0.16,-0.05
2021-08-19 05:24:47.628,-0.14,-0.08
2021-08-19 05:24:47.632,-0.125,-0.135
2021-08-19 05:24:47.636,-0.145,-0.11
2021-08-19 05:24:47.640,-0.13,-0.15
2021-08-19 05:24:47.644,-0.12,-0.155
2021-08-19 05:24:47.648,-0.135,-0.165
2021-08-19 05:24:47.652,-0.145,-0.18
2021-08-19 05:24:47.656,-0.16,-0.16
2021-08-19 05:24:47.660,-0.195,-0.21
2021-08-19 05:24:47.664,-0.26,-0.26
2021-08-19 05:24:47.668,-0.295,-0.275
2021-08-19 05:24:47.672,-0.295,-0.305
2021-08-19 05:24:47.676,-0.34,-0.32
2021-08-19 05:24:47.680,-0.365,-0.335
2021-08-19 05:24:47.684,-0.4,-0.38
2021-08-19 05:24:47.688,-0.405,-0.375
2021-08-19 05:24:47.692,-0.385,-0.37
2021-08-19 05:24:47.696,-0.41,-0.395
2021-08-19 05:24:47.700,-0.42,-0.39
2021-08-19 05:24:47.704,-0.425,-0.435
2021-08-19 05:24:47.708,-0.42,-0.405
2021-08-19 05:24:47.712,-0.4,-0.425
2021-08-19 05:24:47.716,-0.4,-0.445
2021-08-19 05:24:47.720,-0.4,-0.425
2021-08-19 05:24:47.724,-0.425,-0.385
2021-08-19 05:24:47.728,-0.415,-0.4
2021-08-19 05:24:47.732,-0.41,-0.39
2021-08-19 05:24:47.736,-0.415,-0.415
2021-08-19 05:24:47.740,-0.41,-0.415
2021-08-19 05:24:47.744,-0.425,-0.405
2021-08-19 05:24:47.748,-0.425,-0.43
2021-08-19 05:24:47.752,-0.425,-0.4
2021-08-19 05:24:47.756,-0.42,-0.395
2021-08-19 05:24:47.760,-0.415,-0.41
2021-08-19 05:24:47.764,-0.45,-0.405
2021-08-19 05:24:47.768,-0.49,-0.43
2021-08-19 05:24:47.772,-0.535,-0.415
2021-08-19 05:24:47.776,-0.575,-0.445
2021-08-19 05:24:47.780,-0.57,-0.48
2021-08-19 05:24:47.784,-0.55,-0.545
2021-08-19 05:24:47.788,-0.615,-0.63
2021-08-19 05:24:47.792,-0.575,-0.755
2021-08-19 05:24:47.796,-0.435,-0.975
2021-08-19 05:24:47.800,-0.49,-0.89
2021-08-19 05:24:47.804,-0.76,-0.76
2021-08-19 05:24:47.808,-0.715,-0.735
2021-08-19 05:24:47.812,-0.655,-0.44
2021-08-19 05:24:47.816,-0.975,0.165
2021-08-19 05:24:47.820,-1.42,0.43
2021-08-19 05:24:47.824,-1.96,-0.115
2021-08-19 05:24:47.860,-1.875,-1.705
2021-08-19 05:24:47.864,-1.47,-1.34
2021-08-19 05:24:47.868,-0.975,-1.05
2021-08-19 05:24:47.872,-0.68,-0.82
2021-08-19 05:24:47.876,-0.45,-0.575
2021-08-19 05:24:47.880,-0.31,-0.425
2021-08-19 05:24:47.884,-0.265,-0.345
2021-08-19 05:24:47.888,-0.22,-0.32
2021-08-19 05:24:47.892,-0.21,-0.25
2021-08-19 05:24:47.896,-0.18,-0.24
2021-08-19 05:24:47.900,-0.145,-0.225
2021-08-19 05:24:47.904,-0.135,-0.24
2021-08-19 05:24:47.908,-0.115,-0.235
2021-08-19 05:24:47.912,-0.115,-0.235
2021-08-19 05:24:47.916,-0.09,-0.23
2021-08-19 05:24:47.920,-0.12,-0.215
2021-08-19 05:24:47.924,-0.11,-0.225
2021-08-19 05:24:47.928,-0.12,-0.225
2021-08-19 05:24:47.932,-0.125,-0.22
2021-08-19 05:24:47.936,-0.085,-0.25
2021-08-19 05:24:47.940,-0.085,-0.23
2021-08-19 05:24:47.944,-0.06,-0.22
2021-08-19 05:24:47.948,-0.1,-0.215
2021-08-19 05:24:47.952,-0.1,-0.22
2021-08-19 05:24:47.956,-0.07,-0.225
2021-08-19 05:24:47.960,-0.025,-0.215
2021-08-19 05:24:47.964,-0.055,-0.23
2021-08-19 05:24:47.968,-0.06,-0.195
2021-08-19 05:24:47.972,-0.04,-0.18
2021-08-19 05:24:47.976,-0.005,-0.18
2021-08-19 05:24:47.980,0.04,-0.175
2021-08-19 05:24:47.984,0.03,-0.175
2021-08-19 05:24:47.988,0.025,-0.17
2021-08-19 05:24:47.992,0.05,-0.145
2021-08-19 05:24:47.996,0.09,-0.115
2021-08-19 05:24:48.000,0.12,-0.08
2021-08-19 05:24:48.004,0.15,-0.04
2021-08-19 05:24:48.008,0.17,-0.03
2021-08-19 05:24:48.012,0.185,-0.005
2021-08-19 05:24:48.016,0.235,0.035
2021-08-19 05:24:48.020,0.27,0.08
2021-08-19 05:24:48.024,0.3,0.12
2021-08-19 05:24:48.028,0.32,0.135
2021-08-19 05:24:48.032,0.325,0.235
2021-08-19 05:24:48.036,0.375,0.295
2021-08-19 05:24:48.040,0.405,0.3
2021-08-19 05:24:48.044,0.425,0.355
2021-08-19 05:24:48.048,0.415,0.385
2021-08-19 05:24:48.052,0.43,0.43
2021-08-19 05:24:48.056,0.47,0.455
2021-08-19 05:24:48.060,0.465,0.46
2021-08-19 05:24:48.064,0.475,0.45
2021-08-19 05:24:48.068,0.465,0.5
2021-08-19 05:24:48.072,0.45,0.515
2021-08-19 05:24:48.076,0.445,0.51
2021-08-19 05:24:48.080,0.455,0.54
2021-08-19 05:24:48.084,0.46,0.56
2021-08-19 05:24:48.088,0.465,0.56
2021-08-19 05:24:48.092,0.475,0.585
2021-08-19 05:24:48.096,0.425,0.595
2021-08-19 05:24:48.100,0.41,0.615
2021-08-19 05:24:48.104,0.42,0.64
2021-08-19 05:24:48.108,0.355,0.62
2021-08-19 05:24:48.112,0.315,0.62
2021-08-19 05:24:48.116,0.31,0.605
2021-08-19 05:24:48.120,0.235,0.59
2021-08-19 05:24:48.124,0.22,0.555
2021-08-19 05:24:48.128,0.15,0.525
2021-08-19 05:24:48.132,0.12,0.49
2021-08-19 05:24:48.136,0.06,0.485
2021-08-19 05:24:48.140,0.055,0.465
2021-08-19 05:24:48.144,-0.01,0.445
2021-08-19 05:24:48.148,-0.08,0.415
2021-08-19 05:24:48.152,-0.1,0.38
2021-08-19 05:24:48.156,-0.13,0.36
2021-08-19 05:24:48.160,-0.15,0.275
2021-08-19 05:24:48.164,-0.16,0.285
2021-08-19 05:24:48.168,-0.195,0.25
2021-08-19 05:24:48.172,-0.225,0.17
2021-08-19 05:24:48.176,-0.22,0.17
2021-08-19 05:24:48.180,-0.235,0.13
2021-08-19 05:24:48.184,-0.255,0.07
2021-08-19 05:24:48.188,-0.27,0.03
2021-08-19 05:24:48.192,-0.285,0.005
2021-08-19 05:24:48.196,-0.27,-0.02
2021-08-19 05:24:48.200,-0.295,-0.02
2021-08-19 05:24:48.204,-0.255,-0.075
2021-08-19 05:24:48.208,-0.26,-0.075
2021-08-19 05:24:48.212,-0.3,-0.09
2021-08-19 05:24:48.216,-0.275,-0.105
2021-08-19 05:24:48.220,-0.265,-0.115
2021-08-19 05:24:48.224,-0.26,-0.14
2021-08-19 05:24:48.228,-0.285,-0.155
2021-08-19 05:24:48.232,-0.29,-0.13
2021-08-19 05:24:48.236,-0.3,-0.16
2021-08-19 05:24:48.240,-0.285,-0.17
2021-08-19 05:24:48.244,-0.28,-0.165
2021-08-19 05:24:48.248,-0.285,-0.18
2021-08-19 05:24:48.252,-0.315,-0.2
2021-08-19 05:24:48.256,-0.285,-0.205
2021-08-19 05:24:48.260,-0.255,-0.195
2021-08-19 05:24:48.264,-0.26,-0.185
2021-08-19 05:24:48.268,-0.26,-0.23
2021-08-19 05:24:48.272,-0.315,-0.245
2021-08-19 05:24:48.276,-0.285,-0.245
2021-08-19 05:24:48.280,-0.28,-0.23
2021-08-19 05:24:48.284,-0.265,-0.25
2021-08-19 05:24:48.288,-0.25,-0.245
2021-08-19 05:24:48.292,-0.265,-0.265
2021-08-19 05:24:48.296,-0.315,-0.255
2021-08-19 05:24:48.300,-0.275,-0.265
2021-08-19 05:24:48.304,-0.24,-0.295
2021-08-19 05:24:48.308,-0.24,-0.255
2021-08-19 05:24:48.312,-0.28,-0.28
2021-08-19 05:24:48.316,-0.3,-0.255
2021-08-19 05:24:48.320,-0.255,-0.265
2021-08-19 05:24:48.324,-0.27,-0.285
2021-08-19 05:24:48.328,-0.265,-0.285
2021-08-19 05:24:48.332,-0.28,-0.295
2021-08-19 05:24:48.336,-0.3,-0.295
2021-08-19 05:24:48.340,-0.3,-0.3
2021-08-19 05:24:48.344,-0.27,-0.28
2021-08-19 05:24:48.348,-0.275,-0.28
2021-08-19 05:24:48.352,-0.285,-0.265
2021-08-19 05:24:48.356,-0.285,-0.29
2021-08-19 05:24:48.360,-0.305,-0.27
2021-08-19 05:24:48.364,-0.28,-0.285
2021-08-19 05:24:48.368,-0.275,-0.29
2021-08-19 05:24:48.372,-0.28,-0.285
2021-08-19 05:24:48.376,-0.295,-0.275
2021-08-19 05:24:48.380,-0.295,-0.295
2021-08-19 05:24:48.384,-0.29,-0.31
2021-08-19 05:24:48.388,-0.31,-0.295
2021-08-19 05:24:48.392,-0.3,-0.295
2021-08-19 05:24:48.396,-0.3,-0.265
2021-08-19 05:24:48.400,-0.28,-0.265
2021-08-19 05:24:48.404,-0.27,-0.26
2021-08-19 05:24:48.408,-0.265,-0.27
2021-08-19 05:24:48.412,-0.26,-0.255
2021-08-19 05:24:48.416,-0.295,-0.27
2021-08-19 05:24:48.420,-0.265,-0.275
2021-08-19 05:24:48.424,-0.265,-0.27
2021-08-19 05:24:48.428,-0.255,-0.27
2021-08-19 05:24:48.432,-0.25,-0.24
2021-08-19 05:24:48.436,-0.29,-0.265
2021-08-19 05:24:48.440,-0.29,-0.26
2021-08-19 05:24:48.444,-0.295,-0.255
2021-08-19 05:24:48.448,-0.26,-0.26
2021-08-19 05:24:48.452,-0.27,-0.245
2021-08-19 05:24:48.456,-0.29,-0.23
2021-08-19 05:24:48.460,-0.285,-0.2
2021-08-19 05:24:48.464,-0.265,-0.23
2021-08-19 05:24:48.468,-0.255,-0.235
2021-08-19 05:24:48.472,-0.29,-0.225
2021-08-19 05:24:48.476,-0.275,-0.245
2021-08-19 05:24:48.480,-0.3,-0.23
2021-08-19 05:24:48.484,-0.295,-0.24
2021-08-19 05:24:48.488,-0.26,-0.22
2021-08-19 05:24:48.492,-0.24,-0.24
2021-08-19 05:24:48.496,-0.2,-0.255
2021-08-19 05:24:48.500,-0.2,-0.19
2021-08-19 05:24:48.504,-0.17,-0.135
2021-08-19 05:24:48.508,-0.19,-0.09
2021-08-19 05:24:48.512,-0.15,-0.105
2021-08-19 05:24:48.516,-0.165,-0.1
2021-08-19 05:24:48.520,-0.115,-0.075
2021-08-19 05:24:48.524,-0.12,-0.04
2021-08-19 05:24:48.528,-0.1,-0.055
2021-08-19 05:24:48.532,-0.11,-0.135
2021-08-19 05:24:48.536,-0.105,-0.175
2021-08-19 05:24:48.540,-0.095,-0.14
2021-08-19 05:24:48.544,-0.075,-0.14
2021-08-19 05:24:48.548,-0.035,-0.15
2021-08-19 05:24:48.552,-0.095,-0.14
2021-08-19 05:24:48.556,-0.14,-0.12
2021-08-19 05:24:48.560,-0.165,-0.15
2021-08-19 05:24:48.564,-0.2,-0.205
2021-08-19 05:24:48.568,-0.23,-0.23
2021-08-19 05:24:48.572,-0.27,-0.225
2021-08-19 05:24:48.576,-0.295,-0.26
2021-08-19 05:24:48.580,-0.305,-0.28
2021-08-19 05:24:48.584,-0.335,-0.26
2021-08-19 05:24:48.588,-0.36,-0.26
2021-08-19 05:24:48.592,-0.37,-0.255
2021-08-19 05:24:48.596,-0.4,-0.285
2021-08-19 05:24:48.600,-0.375,-0.305
2021-08-19 05:24:48.604,-0.38,-0.3
2021-08-19 05:24:48.608,-0.365,-0.29
2021-08-19 05:24:48.612,-0.355,-0.32
2021-08-19 05:24:48.616,-0.355,-0.285
2021-08-19 05:24:48.620,-0.365,-0.315
2021-08-19 05:24:48.624,-0.365,-0.305
2021-08-19 05:24:48.628,-0.32,-0.305
2021-08-19 05:24:48.632,-0.36,-0.29
2021-08-19 05:24:48.636,-0.38,-0.31
2021-08-19 05:24:48.640,-0.38,-0.31
2021-08-19 05:24:48.644,-0.365,-0.3
2021-08-19 05:24:48.648,-0.35,-0.305
2021-08-19 05:24:48.652,-0.38,-0.285
2021-08-19 05:24:48.656,-0.39,-0.3
2021-08-19 05:24:48.660,-0.4,-0.23
2021-08-19 05:24:48.664,-0.39,-0.3
2021-08-19 05:24:48.668,-0.415,-0.295
2021-08-19 05:24:48.672,-0.52,-0.265
2021-08-19 05:24:48.676,-0.575,-0.3
2021-08-19 05:24:48.680,-0.58,-0.37
2021-08-19 05:24:48.684,-0.575,-0.43
2021-08-19 05:24:48.688,-0.575,-0.495
2021-08-19 05:24:48.692,-0.475,-0.655
2021-08-19 05:24:48.696,-0.32,-0.795
2021-08-19 05:24:48.700,-0.34,-0.705
2021-08-19 05:24:48.704,-0.43,-0.54
2021-08-19 05:24:48.708,-0.245,-0.425
2021-08-19 05:24:48.712,-0.12,-0.11
2021-08-19 05:24:48.716,-0.415,0.55
2021-08-19 05:24:48.720,-0.975,1.04
2021-08-19 05:24:48.724,-1.545,0.82
2021-08-19 05:24:48.756,-1.98,-1.98
2021-08-19 05:24:48.760,-1.75,-1.63
2021-08-19 05:24:48.764,-1.375,-1.28
2021-08-19 05:24:48.768,-0.94,-1.005
2021-08-19 05:24:48.772,-0.69,-0.825
2021-08-19 05:24:48.776,-0.48,-0.605
2021-08-19 05:24:48.780,-0.38,-0.435
2021-08-19 05:24:48.784,-0.315,-0.375
2021-08-19 05:24:48.788,-0.28,-0.305
2021-08-19 05:24:48.792,-0.21,-0.22
2021-08-19 05:24:48.796,-0.2,-0.2
2021-08-19 05:24:48.800,-0.205,-0.2
2021-08-19 05:24:48.804,-0.21,-0.21
2021-08-19 05:24:48.808,-0.175,-0.19
2021-08-19 05:24:48.812,-0.165,-0.2
2021-08-19 05:24:48.816,-0.145,-0.18
2021-08-19 05:24:48.820,-0.14,-0.22
2021-08-19 05:24:48.824,-0.14,-0.21
2021-08-19 05:24:48.828,-0.11,-0.24
2021-08-19 05:24:48.832,-0.115,-0.22
2021-08-19 05:24:48.836,-0.12,-0.2
2021-08-19 05:24:48.840,-0.14,-0.235
2021-08-19 05:24:48.844,-0.125,-0.2
2021-08-19 05:24:48.848,-0.125,-0.25
2021-08-19 05:24:48.852,-0.09,-0.235
2021-08-19 05:24:48.856,-0.07,-0.2
2021-08-19 05:24:48.860,-0.09,-0.2
2021-08-19 05:24:48.864,-0.09,-0.2
2021-08-19 05:24:48.868,-0.08,-0.17
2021-08-19 05:24:48.872,-0.07,-0.16
2021-08-19 05:24:48.876,-0.005,-0.17
2021-08-19 05:24:48.880,-0.04,-0.16
2021-08-19 05:24:48.884,-0.03,-0.13
2021-08-19 05:24:48.888,0.0,-0.115
2021-08-19 05:24:48.892,0.02,-0.115
2021-08-19 05:24:48.896,0.07,-0.08
2021-08-19 05:24:48.900,0.095,-0.045
2021-08-19 05:24:48.904,0.11,-0.04
2021-08-19 05:24:48.908,0.15,-0.01
2021-08-19 05:24:48.912,0.16,0.005
2021-08-19 05:24:48.916,0.21,0.085
2021-08-19 05:24:48.920,0.225,0.085
2021-08-19 05:24:48.924,0.26,0.13
2021-08-19 05:24:48.928,0.255,0.18
2021-08-19 05:24:48.932,0.3,0.23
2021-08-19 05:24:48.936,0.34,0.28
2021-08-19 05:24:48.940,0.35,0.31
2021-08-19 05:24:48.944,0.38,0.3
2021-08-19 05:24:48.948,0.39,0.4
2021-08-19 05:24:48.952,0.41,0.43
2021-08-19 05:24:48.956,0.45,0.475
2021-08-19 05:24:48.960,0.465,0.525
2021-08-19 05:24:48.964,0.46,0.535
2021-08-19 05:24:48.968,0.455,0.57
2021-08-19 05:24:48.972,0.485,0.57
2021-08-19 05:24:48.976,0.495,0.605
2021-08-19 05:24:48.980,0.46,0.595
2021-08-19 05:24:48.984,0.455,0.595
2021-08-19 05:24:48.988,0.465,0.615
2021-08-19 05:24:48.992,0.47,0.63
2021-08-19 05:24:48.996,0.445,0.635
2021-08-19 05:24:49.000,0.455,0.69
2021-08-19 05:24:49.004,0.41,0.68
2021-08-19 05:24:49.008,0.37,0.675
2021-08-19 05:24:49.012,0.355,0.665
2021-08-19 05:24:49.016,0.325,0.675
2021-08-19 05:24:49.020,0.32,0.665
2021-08-19 05:24:49.024,0.265,0.61
2021-08-19 05:24:49.028,0.195,0.615
2021-08-19 05:24:49.032,0.15,0.59
2021-08-19 05:24:49.036,0.11,0.57
2021-08-19 05:24:49.040,0.08,0.535
2021-08-19 05:24:49.044,-0.005,0.47
2021-08-19 05:24:49.048,-0.065,0.455
2021-08-19 05:24:49.052,-0.08,0.43
2021-08-19 05:24:49.056,-0.095,0.385
2021-08-19 05:24:49.060,-0.13,0.37
2021-08-19 05:24:49.064,-0.16,0.315
2021-08-19 05:24:49.068,-0.215,0.305
2021-08-19 05:24:49.072,-0.215,0.25
2021-08-19 05:24:49.076,-0.21,0.24
2021-08-19 05:24:49.080,-0.24,0.17
2021-08-19 05:24:49.084,-0.245,0.145
2021-08-19 05:24:49.088,-0.28,0.095
2021-08-19 05:24:49.092,-0.265,0.1
