Time,ECG1,ECG2
2021-08-19 05:34:24.696,-0.615,-0.04
2021-08-19 05:34:24.700,-0.595,0.0
2021-08-19 05:34:24.704,-0.595,0.045
2021-08-19 05:34:24.708,-0.54,0.105
2021-08-19 05:34:24.712,-0.565,0.095
2021-08-19 05:34:24.716,-0.555,0.04
2021-08-19 05:34:24.720,-0.57,0.085
2021-08-19 05:34:24.724,-0.57,0.0
2021-08-19 05:34:24.728,-0.635,0.125
2021-08-19 05:34:24.732,-0.685,0.235
2021-08-19 05:34:24.736,-0.625,0.0
2021-08-19 05:34:24.740,-0.575,-0.135
2021-08-19 05:34:24.744,-0.605,0.115
2021-08-19 05:34:24.748,-0.59,0.235
2021-08-19 05:34:24.752,-0.53,0.165
2021-08-19 05:34:24.756,-0.57,-0.065
2021-08-19 05:34:24.760,-0.59,0.04
2021-08-19 05:34:24.764,-0.585,0.18
2021-08-19 05:34:24.768,-0.585,0.15
2021-08-19 05:34:24.772,-0.53,0.045
2021-08-19 05:34:24.776,-0.565,-0.04
2021-08-19 05:34:24.780,-0.55,0.125
2021-08-19 05:34:24.784,-0.52,0.09
2021-08-19 05:34:24.788,-0.53,0.065
2021-08-19 05:34:24.792,-0.52,0.19
2021-08-19 05:34:24.796,-0.53,0.08
2021-08-19 05:34:24.800,-0.54,0.07
2021-08-19 05:34:24.804,-0.52,0.095
2021-08-19 05:34:24.808,-0.51,0.065
2021-08-19 05:34:24.812,-0.5,0.16
2021-08-19 05:34:24.816,-0.485,0.085
2021-08-19 05:34:24.820,-0.54,0.08
2021-08-19 05:34:24.824,-0.52,0.165
2021-08-19 05:34:24.828,-0.455,0.09
2021-08-19 05:34:24.832,-0.485,0.075
2021-08-19 05:34:24.836,-0.52,0.22
2021-08-19 05:34:24.840,-0.535,0.295
2021-08-19 05:34:24.844,-0.49,0.235
2021-08-19 05:34:24.848,-0.46,0.01
2021-08-19 05:34:24.852,-0.455,0.0
2021-08-19 05:34:24.856,-0.44,0.145
2021-08-19 05:34:24.860,-0.5,0.165
2021-08-19 05:34:24.864,-0.48,0.185
2021-08-19 05:34:24.868,-0.415,0.22
2021-08-19 05:34:24.872,-0.41,0.18
2021-08-19 05:34:24.876,-0.465,0.2
2021-08-19 05:34:24.880,-0.48,0.2
2021-08-19 05:34:24.884,-0.48,0.085
2021-08-19 05:34:24.888,-0.46,0.16
2021-08-19 05:34:24.892,-0.49,0.165
2021-08-19 05:34:24.896,-0.48,0.12
2021-08-19 05:34:24.900,-0.475,0.08
2021-08-19 05:34:24.904,-0.44,0.14
2021-08-19 05:34:24.908,-0.38,0.22
2021-08-19 05:34:24.912,-0.34,0.14
2021-08-19 05:34:24.916,-0.345,0.085
2021-08-19 05:34:24.920,-0.42,0.11
2021-08-19 05:34:24.924,-0.46,0.185
2021-08-19 05:34:24.928,-0.4,0.18
2021-08-19 05:34:24.932,-0.42,0.085
2021-08-19 05:34:24.936,-0.47,0.045
2021-08-19 05:34:24.940,-0.435,0.1
2021-08-19 05:34:24.944,-0.375,0.1
2021-08-19 05:34:24.948,-0.34,0.15
2021-08-19 05:34:24.952,-0.32,0.22
2021-08-19 05:34:24.956,-0.285,0.235
2021-08-19 05:34:24.960,-0.34,0.23
2021-08-19 05:34:24.964,-0.32,0.25
2021-08-19 05:34:24.968,-0.33,0.25
2021-08-19 05:34:24.972,-0.28,0.305
2021-08-19 05:34:24.976,-0.255,0.185
2021-08-19 05:34:24.980,-0.235,0.165
2021-08-19 05:34:24.984,-0.285,0.285
2021-08-19 05:34:24.988,-0.22,0.205
2021-08-19 05:34:24.992,-0.19,0.26
2021-08-19 05:34:24.996,-0.215,0.295
2021-08-19 05:34:25.000,-0.225,0.275
2021-08-19 05:34:25.004,-0.195,0.15
2021-08-19 05:34:25.008,-0.175,0.195
2021-08-19 05:34:25.012,-0.23,0.18
2021-08-19 05:34:25.016,-0.315,0.165
2021-08-19 05:34:25.020,-0.36,0.155
2021-08-19 05:34:25.024,-0.29,0.06
2021-08-19 05:34:25.028,-0.3,0.1
2021-08-19 05:34:25.032,-0.32,0.015
2021-08-19 05:34:25.036,-0.4,0.025
2021-08-19 05:34:25.040,-0.435,0.085
2021-08-19 05:34:25.044,-0.43,0.015
2021-08-19 05:34:25.048,-0.37,0.005
2021-08-19 05:34:25.052,-0.39,0.01
2021-08-19 05:34:25.056,-0.435,0.015
2021-08-19 05:34:25.060,-0.455,-0.025
2021-08-19 05:34:25.064,-0.415,-0.07
2021-08-19 05:34:25.068,-0.38,-0.04
2021-08-19 05:34:25.072,-0.41,0.0
2021-08-19 05:34:25.076,-0.46,-0.01
2021-08-19 05:34:25.080,-0.405,-0.025
2021-08-19 05:34:25.084,-0.39,0.08
2021-08-19 05:34:25.088,-0.37,0.03
2021-08-19 05:34:25.092,-0.365,-0.135
2021-08-19 05:34:25.096,-0.38,-0.03
2021-08-19 05:34:25.100,-0.395,-0.05
2021-08-19 05:34:25.104,-0.415,0.005
2021-08-19 05:34:25.108,-0.43,0.005
2021-08-19 05:34:25.112,-0.41,0.085
2021-08-19 05:34:25.116,-0.42,0.0
2021-08-19 05:34:25.120,-0.35,-0.045
2021-08-19 05:34:25.124,-0.325,-0.12
2021-08-19 05:34:25.128,-0.405,-0.06
2021-08-19 05:34:25.132,-0.505,0.085
2021-08-19 05:34:25.136,-0.555,-0.005
2021-08-19 05:34:25.140,-0.52,-0.14
2021-08-19 05:34:25.144,-0.405,-0.02
2021-08-19 05:34:25.148,-0.32,0.03
2021-08-19 05:34:25.152,-0.285,-0.005
2021-08-19 05:34:25.156,-0.21,-0.14
2021-08-19 05:34:25.160,-0.255,-0.295
2021-08-19 05:34:25.164,-0.66,-0.215
2021-08-19 05:34:25.168,-0.955,-0.295
2021-08-19 05:34:25.172,-0.835,-0.735
2021-08-19 05:34:25.176,-0.81,-0.96
2021-08-19 05:34:25.180,-1.05,-0.55
2021-08-19 05:34:25.184,-1.515,-0.145
2021-08-19 05:34:25.188,-1.995,-0.05
2021-08-19 05:34:25.224,-1.835,-0.69
2021-08-19 05:34:25.228,-1.505,-0.525
2021-08-19 05:34:25.232,-1.15,-0.58
2021-08-19 05:34:25.236,-0.86,-0.59
2021-08-19 05:34:25.240,-0.64,-0.45
2021-08-19 05:34:25.244,-0.445,-0.315
2021-08-19 05:34:25.248,-0.28,-0.24
2021-08-19 05:34:25.252,-0.175,-0.14
2021-08-19 05:34:25.256,-0.155,-0.065
2021-08-19 05:34:25.260,-0.145,0.035
2021-08-19 05:34:25.264,-0.165,0.0
2021-08-19 05:34:25.268,-0.12,-0.04
2021-08-19 05:34:25.272,-0.12,-0.04
2021-08-19 05:34:25.276,-0.145,-0.045
2021-08-19 05:34:25.280,-0.16,-0.18
2021-08-19 05:34:25.284,-0.085,-0.2
2021-08-19 05:34:25.288,-0.06,-0.13
2021-08-19 05:34:25.292,-0.14,-0.11
2021-08-19 05:34:25.296,-0.205,-0.11
2021-08-19 05:34:25.300,-0.14,-0.07
2021-08-19 05:34:25.304,-0.01,-0.05
2021-08-19 05:34:25.308,-0.02,-0.14
2021-08-19 05:34:25.312,-0.04,-0.145
2021-08-19 05:34:25.316,-0.06,-0.235
2021-08-19 05:34:25.320,-0.06,-0.255
2021-08-19 05:34:25.324,-0.075,-0.14
2021-08-19 05:34:25.328,-0.07,-0.11
2021-08-19 05:34:25.332,-0.095,-0.115
2021-08-19 05:34:25.336,-0.005,-0.21
2021-08-19 05:34:25.340,0.09,-0.31
2021-08-19 05:34:25.344,0.105,-0.175
2021-08-19 05:34:25.348,0.095,-0.075
2021-08-19 05:34:25.352,0.095,-0.185
2021-08-19 05:34:25.356,0.065,-0.16
2021-08-19 05:34:25.360,0.085,-0.085
2021-08-19 05:34:25.364,0.155,-0.205
2021-08-19 05:34:25.368,0.155,-0.09
2021-08-19 05:34:25.372,0.185,0.0
2021-08-19 05:34:25.376,0.18,-0.245
2021-08-19 05:34:25.380,0.24,-0.17
2021-08-19 05:34:25.384,0.225,-0.14
2021-08-19 05:34:25.388,0.15,-0.09
2021-08-19 05:34:25.392,0.25,-0.045
2021-08-19 05:34:25.396,0.35,-0.055
2021-08-19 05:34:25.400,0.355,-0.16
2021-08-19 05:34:25.404,0.355,-0.17
2021-08-19 05:34:25.408,0.31,-0.08
2021-08-19 05:34:25.412,0.33,-0.01
2021-08-19 05:34:25.416,0.37,-0.12
2021-08-19 05:34:25.420,0.4,-0.085
2021-08-19 05:34:25.424,0.43,0.09
2021-08-19 05:34:25.428,0.375,0.12
2021-08-19 05:34:25.432,0.37,-0.16
2021-08-19 05:34:25.436,0.395,-0.14
2021-08-19 05:34:25.440,0.425,0.015
2021-08-19 05:34:25.444,0.435,0.21
2021-08-19 05:34:25.448,0.405,0.095
2021-08-19 05:34:25.452,0.37,0.075
2021-08-19 05:34:25.456,0.36,0.085
2021-08-19 05:34:25.460,0.34,0.18
2021-08-19 05:34:25.464,0.45,0.205
2021-08-19 05:34:25.468,0.49,0.14
2021-08-19 05:34:25.472,0.445,0.21
2021-08-19 05:34:25.476,0.305,0.2
2021-08-19 05:34:25.480,0.225,0.38
2021-08-19 05:34:25.484,0.215,0.305
2021-08-19 05:34:25.488,0.23,0.295
2021-08-19 05:34:25.492,0.255,0.375
2021-08-19 05:34:25.496,0.275,0.385
2021-08-19 05:34:25.500,0.14,0.25
2021-08-19 05:34:25.504,0.09,0.34
2021-08-19 05:34:25.508,0.05,0.455
2021-08-19 05:34:25.512,0.0,0.585
2021-08-19 05:34:25.516,0.005,0.43
2021-08-19 05:34:25.520,0.0,0.365
2021-08-19 05:34:25.524,-0.06,0.485
2021-08-19 05:34:25.528,-0.105,0.395
2021-08-19 05:34:25.532,-0.08,0.405
2021-08-19 05:34:25.536,-0.07,0.535
2021-08-19 05:34:25.540,-0.16,0.455
2021-08-19 05:34:25.544,-0.28,0.435
2021-08-19 05:34:25.548,-0.35,0.315
2021-08-19 05:34:25.552,-0.31,0.32
2021-08-19 05:34:25.556,-0.23,0.33
2021-08-19 05:34:25.560,-0.185,0.295
2021-08-19 05:34:25.564,-0.24,0.19
2021-08-19 05:34:25.568,-0.34,0.35
2021-08-19 05:34:25.572,-0.355,0.435
2021-08-19 05:34:25.576,-0.295,0.26
2021-08-19 05:34:25.580,-0.3,0.275
2021-08-19 05:34:25.584,-0.4,0.255
2021-08-19 05:34:25.588,-0.44,0.145
2021-08-19 05:34:25.592,-0.465,0.01
2021-08-19 05:34:25.596,-0.415,0.155
2021-08-19 05:34:25.600,-0.43,0.25
2021-08-19 05:34:25.604,-0.435,0.19
2021-08-19 05:34:25.608,-0.505,0.06
2021-08-19 05:34:25.612,-0.54,0.125
2021-08-19 05:34:25.616,-0.555,-0.09
2021-08-19 05:34:25.620,-0.54,-0.06
2021-08-19 05:34:25.624,-0.515,-0.005
2021-08-19 05:34:25.628,-0.545,0.035
2021-08-19 05:34:25.632,-0.595,0.0
2021-08-19 05:34:25.636,-0.6,-0.015
2021-08-19 05:34:25.640,-0.65,0.095
2021-08-19 05:34:25.644,-0.63,0.06
2021-08-19 05:34:25.648,-0.64,-0.295
2021-08-19 05:34:25.652,-0.7,-0.22
2021-08-19 05:34:25.656,-0.76,0.035
2021-08-19 05:34:25.660,-0.715,0.005
2021-08-19 05:34:25.664,-0.635,-0.14
2021-08-19 05:34:25.668,-0.635,0.0
2021-08-19 05:34:25.672,-0.655,-0.06
2021-08-19 05:34:25.676,-0.71,-0.23
2021-08-19 05:34:25.680,-0.76,-0.225
2021-08-19 05:34:25.684,-0.81,-0.12
2021-08-19 05:34:25.688,-0.795,-0.035
2021-08-19 05:34:25.692,-0.74,-0.13
2021-08-19 05:34:25.696,-0.765,-0.175
2021-08-19 05:34:25.700,-0.835,-0.055
2021-08-19 05:34:25.704,-0.875,0.015
2021-08-19 05:34:25.708,-0.855,-0.015
2021-08-19 05:34:25.712,-0.765,-0.32
2021-08-19 05:34:25.716,-0.825,-0.25
2021-08-19 05:34:25.720,-0.905,-0.095
2021-08-19 05:34:25.724,-0.905,-0.005
2021-08-19 05:34:25.728,-0.84,0.11
2021-08-19 05:34:25.732,-0.85,0.04
2021-08-19 05:34:25.736,-0.92,-0.05
2021-08-19 05:34:25.740,-0.855,-0.14
2021-08-19 05:34:25.744,-0.815,-0.315
2021-08-19 05:34:25.748,-0.86,-0.145
2021-08-19 05:34:25.752,-0.875,-0.01
2021-08-19 05:34:25.756,-0.81,-0.07
2021-08-19 05:34:25.760,-0.8,-0.075
2021-08-19 05:34:25.764,-0.84,-0.05
2021-08-19 05:34:25.768,-0.825,0.03
2021-08-19 05:34:25.772,-0.865,-0.085
2021-08-19 05:34:25.776,-0.855,0.065
2021-08-19 05:34:25.780,-0.83,-0.03
2021-08-19 05:34:25.784,-0.89,-0.16
2021-08-19 05:34:25.788,-0.85,-0.16
2021-08-19 05:34:25.792,-0.785,-0.295
2021-08-19 05:34:25.796,-0.78,-0.095
2021-08-19 05:34:25.800,-0.805,-0.08
2021-08-19 05:34:25.804,-0.85,0.115
2021-08-19 05:34:25.808,-0.91,0.19
2021-08-19 05:34:25.812,-0.905,-0.085
2021-08-19 05:34:25.816,-0.875,-0.5
2021-08-19 05:34:25.820,-0.89,-0.425
2021-08-19 05:34:25.824,-0.94,-0.19
2021-08-19 05:34:25.828,-0.92,-0.035
2021-08-19 05:34:25.832,-0.855,-0.035
2021-08-19 05:34:25.836,-0.825,-0.035
2021-08-19 05:34:25.840,-0.755,-0.165
2021-08-19 05:34:25.844,-0.805,-0.18
2021-08-19 05:34:25.848,-0.855,0.015
2021-08-19 05:34:25.852,-0.82,-0.12
2021-08-19 05:34:25.856,-0.78,-0.43
2021-08-19 05:34:25.860,-0.82,-0.23
2021-08-19 05:34:25.864,-0.79,-0.2
2021-08-19 05:34:25.868,-0.805,-0.07
2021-08-19 05:34:25.872,-0.825,-0.045
2021-08-19 05:34:25.876,-0.78,-0.04
2021-08-19 05:34:25.880,-0.735,-0.3
2021-08-19 05:34:25.884,-0.835,-0.17
2021-08-19 05:34:25.888,-0.82,0.04
2021-08-19 05:34:25.892,-0.8,0.025
2021-08-19 05:34:25.896,-0.695,-0.085
2021-08-19 05:34:25.900,-0.725,-0.225
2021-08-19 05:34:25.904,-0.74,-0.055
2021-08-19 05:34:25.908,-0.735,0.105
2021-08-19 05:34:25.912,-0.665,0.065
2021-08-19 05:34:25.916,-0.6,-0.305
2021-08-19 05:34:25.920,-0.585,-0.3
2021-08-19 05:34:25.924,-0.64,-0.16
2021-08-19 05:34:25.928,-0.64,-0.145
2021-08-19 05:34:25.932,-0.66,-0.075
2021-08-19 05:34:25.936,-0.72,-0.035
2021-08-19 05:34:25.940,-0.74,-0.12
2021-08-19 05:34:25.944,-0.725,-0.365
2021-08-19 05:34:25.948,-0.78,-0.285
2021-08-19 05:34:25.952,-0.835,-0.105
2021-08-19 05:34:25.956,-0.935,-0.195
2021-08-19 05:34:25.960,-0.92,-0.32
2021-08-19 05:34:25.964,-0.905,-0.56
2021-08-19 05:34:25.968,-0.96,-0.36
2021-08-19 05:34:25.972,-0.93,-0.28
2021-08-19 05:34:25.976,-0.925,-0.34
2021-08-19 05:34:25.980,-0.895,-0.32
2021-08-19 05:34:25.984,-0.95,-0.3
2021-08-19 05:34:25.988,-1.02,-0.2
2021-08-19 05:34:25.992,-0.955,-0.265
2021-08-19 05:34:25.996,-0.9,-0.48
2021-08-19 05:34:26.000,-0.855,-0.455
2021-08-19 05:34:26.004,-0.885,-0.36
2021-08-19 05:34:26.008,-0.945,-0.225
2021-08-19 05:34:26.012,-0.955,-0.295
2021-08-19 05:34:26.016,-0.96,-0.42
2021-08-19 05:34:26.020,-0.91,-0.255
2021-08-19 05:34:26.024,-0.94,-0.135
2021-08-19 05:34:26.028,-0.925,-0.3
2021-08-19 05:34:26.032,-0.97,-0.485
2021-08-19 05:34:26.036,-1.055,-0.38
2021-08-19 05:34:26.040,-1.03,-0.315
2021-08-19 05:34:26.044,-0.915,-0.315
2021-08-19 05:34:26.048,-0.875,-0.415
2021-08-19 05:34:26.052,-0.945,-0.35
2021-08-19 05:34:26.056,-1.065,-0.24
2021-08-19 05:34:26.060,-1.08,-0.355
2021-08-19 05:34:26.064,-0.995,-0.35
2021-08-19 05:34:26.068,-0.91,-0.175
2021-08-19 05:34:26.072,-0.82,-0.385
2021-08-19 05:34:26.076,-0.69,-0.445
2021-08-19 05:34:26.080,-0.64,-0.545
2021-08-19 05:34:26.084,-1.0,-0.6
2021-08-19 05:34:26.088,-1.275,-0.495
2021-08-19 05:34:26.092,-1.22,-0.52
2021-08-19 05:34:26.096,-1.185,-0.68
2021-08-19 05:34:26.100,-1.39,-0.545
2021-08-19 05:34:26.104,-1.81,-0.155
2021-08-19 05:34:26.152,-1.77,-1.225
2021-08-19 05:34:26.156,-1.46,-0.97
2021-08-19 05:34:26.160,-1.235,-0.725
2021-08-19 05:34:26.164,-1.055,-0.74
2021-08-19 05:34:26.168,-0.91,-0.655
2021-08-19 05:34:26.172,-0.785,-0.48
2021-08-19 05:34:26.176,-0.77,-0.35
2021-08-19 05:34:26.180,-0.725,-0.355
2021-08-19 05:34:26.184,-0.755,-0.35
2021-08-19 05:34:26.188,-0.81,-0.3
2021-08-19 05:34:26.192,-0.83,-0.335
2021-08-19 05:34:26.196,-0.735,-0.485
2021-08-19 05:34:26.200,-0.625,-0.535
2021-08-19 05:34:26.204,-0.62,-0.44
2021-08-19 05:34:26.208,-0.64,-0.32
2021-08-19 05:34:26.212,-0.66,-0.24
2021-08-19 05:34:26.216,-0.705,-0.27
2021-08-19 05:34:26.220,-0.69,-0.505
2021-08-19 05:34:26.224,-0.7,-0.5
2021-08-19 05:34:26.228,-0.695,-0.455
2021-08-19 05:34:26.232,-0.69,-0.365
2021-08-19 05:34:26.236,-0.64,-0.44
2021-08-19 05:34:26.240,-0.61,-0.62
2021-08-19 05:34:26.244,-0.585,-0.44
2021-08-19 05:34:26.248,-0.57,-0.36
2021-08-19 05:34:26.252,-0.545,-0.475
2021-08-19 05:34:26.256,-0.57,-0.46
2021-08-19 05:34:26.260,-0.605,-0.41
2021-08-19 05:34:26.264,-0.55,-0.365
2021-08-19 05:34:26.268,-0.545,-0.485
2021-08-19 05:34:26.272,-0.475,-0.435
2021-08-19 05:34:26.276,-0.465,-0.51
2021-08-19 05:34:26.280,-0.505,-0.52
2021-08-19 05:34:26.284,-0.5,-0.44
2021-08-19 05:34:26.288,-0.395,-0.425
2021-08-19 05:34:26.292,-0.28,-0.44
2021-08-19 05:34:26.296,-0.285,-0.41
2021-08-19 05:34:26.300,-0.325,-0.28
2021-08-19 05:34:26.304,-0.25,-0.34
2021-08-19 05:34:26.308,-0.205,-0.39
2021-08-19 05:34:26.312,-0.145,-0.26
2021-08-19 05:34:26.316,-0.115,-0.385
2021-08-19 05:34:26.320,-0.13,-0.405
2021-08-19 05:34:26.324,-0.15,-0.3
2021-08-19 05:34:26.328,-0.155,-0.275
2021-08-19 05:34:26.332,-0.17,-0.23
2021-08-19 05:34:26.336,-0.13,-0.205
2021-08-19 05:34:26.340,-0.09,-0.22
2021-08-19 05:34:26.344,-0.07,-0.39
2021-08-19 05:34:26.348,-0.08,-0.3
2021-08-19 05:34:26.352,-0.05,-0.2
2021-08-19 05:34:26.356,-0.045,-0.13
2021-08-19 05:34:26.360,0.0,-0.185
2021-08-19 05:34:26.364,-0.045,-0.16
2021-08-19 05:34:26.368,-0.06,-0.15
2021-08-19 05:34:26.372,-0.08,-0.15
2021-08-19 05:34:26.376,-0.12,-0.055
2021-08-19 05:34:26.380,-0.13,-0.025
2021-08-19 05:34:26.384,-0.09,-0.06
2021-08-19 05:34:26.388,-0.105,-0.105
2021-08-19 05:34:26.392,-0.155,0.055
2021-08-19 05:34:26.396,-0.12,0.04
2021-08-19 05:34:26.400,-0.15,0.02
2021-08-19 05:34:26.404,-0.245,0.165
2021-08-19 05:34:26.408,-0.28,0.155
2021-08-19 05:34:26.412,-0.32,0.11
2021-08-19 05:34:26.416,-0.33,0.195
2021-08-19 05:34:26.420,-0.345,0.22
2021-08-19 05:34:26.424,-0.385,0.21
2021-08-19 05:34:26.428,-0.435,0.305
2021-08-19 05:34:26.432,-0.47,0.29
2021-08-19 05:34:26.436,-0.475,0.205
2021-08-19 05:34:26.440,-0.495,0.185
2021-08-19 05:34:26.444,-0.56,0.23
2021-08-19 05:34:26.448,-0.555,0.32
2021-08-19 05:34:26.452,-0.535,0.26
2021-08-19 05:34:26.456,-0.555,0.23
2021-08-19 05:34:26.460,-0.61,0.255
2021-08-19 05:34:26.464,-0.605,0.24
2021-08-19 05:34:26.468,-0.61,0.15
2021-08-19 05:34:26.472,-0.635,0.095
2021-08-19 05:34:26.476,-0.58,0.19
2021-08-19 05:34:26.480,-0.625,0.225
2021-08-19 05:34:26.484,-0.63,0.235
2021-08-19 05:34:26.488,-0.605,0.135
2021-08-19 05:34:26.492,-0.595,0.065
2021-08-19 05:34:26.496,-0.6,0.005
2021-08-19 05:34:26.500,-0.62,0.095
2021-08-19 05:34:26.504,-0.64,0.18
2021-08-19 05:34:26.508,-0.64,0.13
2021-08-19 05:34:26.512,-0.575,0.075
2021-08-19 05:34:26.516,-0.56,0.06
2021-08-19 05:34:26.520,-0.58,0.06
2021-08-19 05:34:26.524,-0.61,0.035
2021-08-19 05:34:26.528,-0.635,0.085
2021-08-19 05:34:26.532,-0.635,0.12
2021-08-19 05:34:26.536,-0.595,0.0
2021-08-19 05:34:26.540,-0.61,-0.07
2021-08-19 05:34:26.544,-0.655,0.05
2021-08-19 05:34:26.548,-0.665,0.105
2021-08-19 05:34:26.552,-0.64,0.035
2021-08-19 05:34:26.556,-0.615,-0.075
2021-08-19 05:34:26.560,-0.615,-0.04
2021-08-19 05:34:26.564,-0.6,0.005
2021-08-19 05:34:26.568,-0.63,0.06
2021-08-19 05:34:26.572,-0.635,0.065
2021-08-19 05:34:26.576,-0.575,0.07
2021-08-19 05:34:26.580,-0.595,0.095
2021-08-19 05:34:26.584,-0.65,0.115
2021-08-19 05:34:26.588,-0.635,0.07
2021-08-19 05:34:26.592,-0.64,0.055
2021-08-19 05:34:26.596,-0.645,0.09
2021-08-19 05:34:26.600,-0.66,0.11
2021-08-19 05:34:26.604,-0.705,0.09
2021-08-19 05:34:26.608,-0.715,0.085
2021-08-19 05:34:26.612,-0.675,0.04
2021-08-19 05:34:26.616,-0.665,0.005
2021-08-19 05:34:26.620,-0.625,0.015
2021-08-19 05:34:26.624,-0.615,-0.025
2021-08-19 05:34:26.628,-0.66,0.045
2021-08-19 05:34:26.632,-0.715,0.05
2021-08-19 05:34:26.636,-0.665,0.035
2021-08-19 05:34:26.640,-0.625,-0.04
2021-08-19 05:34:26.644,-0.645,-0.08
2021-08-19 05:34:26.648,-0.62,-0.045
2021-08-19 05:34:26.652,-0.665,-0.04
2021-08-19 05:34:26.656,-0.635,0.015
2021-08-19 05:34:26.660,-0.62,-0.06
2021-08-19 05:34:26.664,-0.6,-0.125
2021-08-19 05:34:26.668,-0.645,-0.07
2021-08-19 05:34:26.672,-0.67,-0.03
2021-08-19 05:34:26.676,-0.68,0.005
2021-08-19 05:34:26.680,-0.605,0.005
2021-08-19 05:34:26.684,-0.59,-0.1
2021-08-19 05:34:26.688,-0.61,-0.1
2021-08-19 05:34:26.692,-0.61,-0.105
2021-08-19 05:34:26.696,-0.61,-0.075
2021-08-19 05:34:26.700,-0.62,-0.085
2021-08-19 05:34:26.704,-0.61,-0.095
2021-08-19 05:34:26.708,-0.595,-0.035
2021-08-19 05:34:26.712,-0.58,0.005
2021-08-19 05:34:26.716,-0.575,0.0
2021-08-19 05:34:26.720,-0.585,-0.07
2021-08-19 05:34:26.724,-0.61,-0.195
2021-08-19 05:34:26.728,-0.615,-0.175
2021-08-19 05:34:26.732,-0.595,-0.125
2021-08-19 05:34:26.736,-0.59,-0.115
2021-08-19 05:34:26.740,-0.565,-0.21
2021-08-19 05:34:26.744,-0.56,-0.185
2021-08-19 05:34:26.748,-0.56,-0.15
2021-08-19 05:34:26.752,-0.525,-0.09
2021-08-19 05:34:26.756,-0.52,-0.075
2021-08-19 05:34:26.760,-0.515,-0.065
2021-08-19 05:34:26.764,-0.52,-0.095
2021-08-19 05:34:26.768,-0.54,-0.13
2021-08-19 05:34:26.772,-0.525,-0.145
2021-08-19 05:34:26.776,-0.515,-0.115
2021-08-19 05:34:26.780,-0.515,-0.085
2021-08-19 05:34:26.784,-0.47,-0.125
2021-08-19 05:34:26.788,-0.435,-0.21
2021-08-19 05:34:26.792,-0.41,-0.16
2021-08-19 05:34:26.796,-0.415,-0.085
2021-08-19 05:34:26.800,-0.405,0.005
2021-08-19 05:34:26.804,-0.46,0.0
2021-08-19 05:34:26.808,-0.445,-0.02
2021-08-19 05:34:26.812,-0.365,0.01
2021-08-19 05:34:26.816,-0.305,0.065
2021-08-19 05:34:26.820,-0.23,0.045
2021-08-19 05:34:26.824,-0.25,-0.005
2021-08-19 05:34:26.828,-0.265,-0.005
2021-08-19 05:34:26.832,-0.28,-0.025
2021-08-19 05:34:26.836,-0.275,-0.055
2021-08-19 05:34:26.840,-0.29,-0.07
2021-08-19 05:34:26.844,-0.35,-0.05
2021-08-19 05:34:26.848,-0.35,-0.06
2021-08-19 05:34:26.852,-0.405,-0.135
2021-08-19 05:34:26.856,-0.425,-0.145
2021-08-19 05:34:26.860,-0.45,-0.14
2021-08-19 05:34:26.864,-0.435,-0.12
2021-08-19 05:34:26.868,-0.455,-0.14
2021-08-19 05:34:26.872,-0.505,-0.17
2021-08-19 05:34:26.876,-0.55,-0.13
2021-08-19 05:34:26.880,-0.54,-0.18
2021-08-19 05:34:26.884,-0.545,-0.22
2021-08-19 05:34:26.888,-0.535,-0.23
2021-08-19 05:34:26.892,-0.615,-0.21
2021-08-19 05:34:26.896,-0.56,-0.195
2021-08-19 05:34:26.900,-0.48,-0.22
2021-08-19 05:34:26.904,-0.5,-0.255
2021-08-19 05:34:26.908,-0.515,-0.32
2021-08-19 05:34:26.912,-0.54,-0.29
2021-08-19 05:34:26.916,-0.56,-0.265
2021-08-19 05:34:26.920,-0.525,-0.21
2021-08-19 05:34:26.924,-0.49,-0.18
2021-08-19 05:34:26.928,-0.49,-0.285
2021-08-19 05:34:26.932,-0.505,-0.325
2021-08-19 05:34:26.936,-0.535,-0.25
2021-08-19 05:34:26.940,-0.54,-0.265
2021-08-19 05:34:26.944,-0.5,-0.28
2021-08-19 05:34:26.948,-0.48,-0.32
2021-08-19 05:34:26.952,-0.52,-0.275
2021-08-19 05:34:26.956,-0.61,-0.24
2021-08-19 05:34:26.960,-0.605,-0.27
2021-08-19 05:34:26.964,-0.58,-0.31
2021-08-19 05:34:26.968,-0.58,-0.285
2021-08-19 05:34:26.972,-0.64,-0.225
2021-08-19 05:34:26.976,-0.56,-0.185
2021-08-19 05:34:26.980,-0.515,-0.215
2021-08-19 05:34:26.984,-0.49,-0.295
2021-08-19 05:34:26.988,-0.47,-0.53
2021-08-19 05:34:26.992,-0.765,-0.67
2021-08-19 05:34:26.996,-1.225,-0.675
2021-08-19 05:34:27.000,-1.28,-0.8
2021-08-19 05:34:27.004,-1.15,-0.865
2021-08-19 05:34:27.008,-1.355,-0.72
2021-08-19 05:34:27.012,-1.78,-0.45
2021-08-19 05:34:27.056,-1.785,-0.995
2021-08-19 05:34:27.060,-1.33,-0.89
2021-08-19 05:34:27.064,-0.94,-0.91
2021-08-19 05:34:27.068,-0.69,-0.72
2021-08-19 05:34:27.072,-0.565,-0.49
2021-08-19 05:34:27.076,-0.45,-0.32
2021-08-19 05:34:27.080,-0.38,-0.245
2021-08-19 05:34:27.084,-0.3,-0.16
2021-08-19 05:34:27.088,-0.275,-0.2
2021-08-19 05:34:27.092,-0.235,-0.23
2021-08-19 05:34:27.096,-0.3,-0.225
2021-08-19 05:34:27.100,-0.32,-0.205
2021-08-19 05:34:27.104,-0.32,-0.175
2021-08-19 05:34:27.108,-0.21,-0.255
2021-08-19 05:34:27.112,-0.155,-0.255
2021-08-19 05:34:27.116,-0.205,-0.19
2021-08-19 05:34:27.120,-0.22,-0.195
2021-08-19 05:34:27.124,-0.23,-0.245
2021-08-19 05:34:27.128,-0.225,-0.215
2021-08-19 05:34:27.132,-0.24,-0.205
2021-08-19 05:34:27.136,-0.16,-0.24
2021-08-19 05:34:27.140,-0.14,-0.245
2021-08-19 05:34:27.144,-0.11,-0.25
2021-08-19 05:34:27.148,-0.13,-0.285
2021-08-19 05:34:27.152,-0.19,-0.305
2021-08-19 05:34:27.156,-0.185,-0.175
2021-08-19 05:34:27.160,-0.18,-0.105
2021-08-19 05:34:27.164,-0.1,-0.24
2021-08-19 05:34:27.168,-0.075,-0.32
2021-08-19 05:34:27.172,-0.085,-0.315
2021-08-19 05:34:27.176,-0.07,-0.235
2021-08-19 05:34:27.180,-0.095,-0.21
2021-08-19 05:34:27.184,-0.045,-0.16
2021-08-19 05:34:27.188,0.05,-0.18
2021-08-19 05:34:27.192,0.08,-0.23
2021-08-19 05:34:27.196,0.07,-0.2
2021-08-19 05:34:27.200,0.11,-0.24
2021-08-19 05:34:27.204,0.145,-0.235
2021-08-19 05:34:27.208,0.175,-0.19
2021-08-19 05:34:27.212,0.2,-0.125
2021-08-19 05:34:27.216,0.2,-0.065
2021-08-19 05:34:27.220,0.205,-0.055
2021-08-19 05:34:27.224,0.265,-0.11
2021-08-19 05:34:27.228,0.305,-0.1
2021-08-19 05:34:27.232,0.27,-0.115
2021-08-19 05:34:27.236,0.265,-0.085
2021-08-19 05:34:27.240,0.31,-0.075
2021-08-19 05:34:27.244,0.365,-0.045
2021-08-19 05:34:27.248,0.345,-0.05
2021-08-19 05:34:27.252,0.335,0.01
2021-08-19 05:34:27.256,0.325,-0.01
2021-08-19 05:34:27.260,0.325,-0.05
2021-08-19 05:34:27.264,0.315,0.01
2021-08-19 05:34:27.268,0.27,0.09
2021-08-19 05:34:27.272,0.31,0.09
2021-08-19 05:34:27.276,0.315,-0.01
2021-08-19 05:34:27.280,0.32,0.02
2021-08-19 05:34:27.284,0.315,0.165
2021-08-19 05:34:27.288,0.305,0.115
2021-08-19 05:34:27.292,0.3,-0.015
2021-08-19 05:34:27.296,0.27,0.02
2021-08-19 05:34:27.300,0.265,0.15
2021-08-19 05:34:27.304,0.18,0.135
2021-08-19 05:34:27.308,0.13,0.19
2021-08-19 05:34:27.312,0.15,0.215
2021-08-19 05:34:27.316,0.095,0.24
2021-08-19 05:34:27.320,0.035,0.155
2021-08-19 05:34:27.324,0.0,0.135
2021-08-19 05:34:27.328,-0.06,0.215
2021-08-19 05:34:27.332,-0.135,0.235
2021-08-19 05:34:27.336,-0.085,0.21
2021-08-19 05:34:27.340,-0.075,0.25
2021-08-19 05:34:27.344,-0.105,0.245
2021-08-19 05:34:27.348,-0.15,0.205
2021-08-19 05:34:27.352,-0.195,0.17
2021-08-19 05:34:27.356,-0.25,0.175
2021-08-19 05:34:27.360,-0.335,0.19
2021-08-19 05:34:27.364,-0.34,0.2
2021-08-19 05:34:27.368,-0.295,0.185
2021-08-19 05:34:27.372,-0.25,0.055
2021-08-19 05:34:27.376,-0.24,0.055
2021-08-19 05:34:27.380,-0.35,0.05
2021-08-19 05:34:27.384,-0.375,0.065
2021-08-19 05:34:27.388,-0.34,0.065
2021-08-19 05:34:27.392,-0.37,0.095
2021-08-19 05:34:27.396,-0.395,0.095
2021-08-19 05:34:27.400,-0.36,0.115
2021-08-19 05:34:27.404,-0.34,0.085
2021-08-19 05:34:27.408,-0.37,-0.05
2021-08-19 05:34:27.412,-0.385,-0.12
2021-08-19 05:34:27.416,-0.4,-0.07
2021-08-19 05:34:27.420,-0.41,-0.005
2021-08-19 05:34:27.424,-0.44,0.0
2021-08-19 05:34:27.428,-0.435,-0.04
2021-08-19 05:34:27.432,-0.41,-0.08
2021-08-19 05:34:27.436,-0.41,-0.15
2021-08-19 05:34:27.440,-0.445,-0.2
2021-08-19 05:34:27.444,-0.495,-0.14
2021-08-19 05:34:27.448,-0.49,-0.115
2021-08-19 05:34:27.452,-0.435,-0.175
2021-08-19 05:34:27.456,-0.45,-0.17
2021-08-19 05:34:27.460,-0.475,-0.15
2021-08-19 05:34:27.464,-0.52,-0.25
2021-08-19 05:34:27.468,-0.55,-0.22
2021-08-19 05:34:27.472,-0.505,-0.25
2021-08-19 05:34:27.476,-0.48,-0.245
2021-08-19 05:34:27.480,-0.515,-0.145
2021-08-19 05:34:27.484,-0.59,-0.195
2021-08-19 05:34:27.488,-0.625,-0.305
2021-08-19 05:34:27.492,-0.55,-0.265
2021-08-19 05:34:27.496,-0.52,-0.275
2021-08-19 05:34:27.500,-0.5,-0.305
2021-08-19 05:34:27.504,-0.515,-0.295
2021-08-19 05:34:27.508,-0.55,-0.285
2021-08-19 05:34:27.512,-0.575,-0.27
2021-08-19 05:34:27.516,-0.53,-0.255
2021-08-19 05:34:27.520,-0.51,-0.275
2021-08-19 05:34:27.524,-0.555,-0.27
2021-08-19 05:34:27.528,-0.56,-0.24
2021-08-19 05:34:27.532,-0.585,-0.26
2021-08-19 05:34:27.536,-0.54,-0.26
2021-08-19 05:34:27.540,-0.56,-0.29
2021-08-19 05:34:27.544,-0.6,-0.34
2021-08-19 05:34:27.548,-0.605,-0.355
2021-08-19 05:34:27.552,-0.555,-0.32
2021-08-19 05:34:27.556,-0.55,-0.36
2021-08-19 05:34:27.560,-0.53,-0.305
2021-08-19 05:34:27.564,-0.575,-0.225
2021-08-19 05:34:27.568,-0.54,-0.245
2021-08-19 05:34:27.572,-0.495,-0.315
2021-08-19 05:34:27.576,-0.54,-0.315
2021-08-19 05:34:27.580,-0.545,-0.205
2021-08-19 05:34:27.584,-0.575,-0.28
2021-08-19 05:34:27.588,-0.535,-0.345
2021-08-19 05:34:27.592,-0.545,-0.335
2021-08-19 05:34:27.596,-0.53,-0.305
2021-08-19 05:34:27.600,-0.565,-0.235
2021-08-19 05:34:27.604,-0.57,-0.31
2021-08-19 05:34:27.608,-0.53,-0.39
2021-08-19 05:34:27.612,-0.505,-0.37
2021-08-19 05:34:27.616,-0.55,-0.32
2021-08-19 05:34:27.620,-0.605,-0.295
2021-08-19 05:34:27.624,-0.62,-0.295
2021-08-19 05:34:27.628,-0.555,-0.285
2021-08-19 05:34:27.632,-0.51,-0.245
2021-08-19 05:34:27.636,-0.465,-0.295
2021-08-19 05:34:27.640,-0.5,-0.34
2021-08-19 05:34:27.644,-0.51,-0.33
2021-08-19 05:34:27.648,-0.535,-0.315
2021-08-19 05:34:27.652,-0.475,-0.305
2021-08-19 05:34:27.656,-0.54,-0.225
2021-08-19 05:34:27.660,-0.52,-0.17
2021-08-19 05:34:27.664,-0.5,-0.22
2021-08-19 05:34:27.668,-0.445,-0.325
2021-08-19 05:34:27.672,-0.42,-0.325
2021-08-19 05:34:27.676,-0.46,-0.245
2021-08-19 05:34:27.680,-0.455,-0.16
2021-08-19 05:34:27.684,-0.48,-0.055
2021-08-19 05:34:27.688,-0.475,-0.115
2021-08-19 05:34:27.692,-0.43,-0.315
2021-08-19 05:34:27.696,-0.4,-0.25
2021-08-19 05:34:27.700,-0.405,-0.125
2021-08-19 05:34:27.704,-0.39,-0.15
2021-08-19 05:34:27.708,-0.345,-0.135
2021-08-19 05:34:27.712,-0.31,-0.125
2021-08-19 05:34:27.716,-0.28,-0.1
2021-08-19 05:34:27.720,-0.25,-0.12
2021-08-19 05:34:27.724,-0.3,-0.25
2021-08-19 05:34:27.728,-0.37,-0.205
2021-08-19 05:34:27.732,-0.405,-0.11
2021-08-19 05:34:27.736,-0.385,-0.07
2021-08-19 05:34:27.740,-0.38,-0.17
2021-08-19 05:34:27.744,-0.465,-0.16
2021-08-19 05:34:27.748,-0.525,-0.195
2021-08-19 05:34:27.752,-0.53,-0.29
2021-08-19 05:34:27.756,-0.485,-0.295
2021-08-19 05:34:27.760,-0.48,-0.295
2021-08-19 05:34:27.764,-0.52,-0.285
2021-08-19 05:34:27.768,-0.535,-0.3
2021-08-19 05:34:27.772,-0.545,-0.26
2021-08-19 05:34:27.776,-0.585,-0.2
2021-08-19 05:34:27.780,-0.565,-0.235
2021-08-19 05:34:27.784,-0.575,-0.42
2021-08-19 05:34:27.788,-0.59,-0.425
2021-08-19 05:34:27.792,-0.59,-0.335
2021-08-19 05:34:27.796,-0.525,-0.305
2021-08-19 05:34:27.800,-0.525,-0.255
2021-08-19 05:34:27.804,-0.53,-0.26
2021-08-19 05:34:27.808,-0.53,-0.265
2021-08-19 05:34:27.812,-0.52,-0.275
2021-08-19 05:34:27.816,-0.535,-0.33
2021-08-19 05:34:27.820,-0.525,-0.335
2021-08-19 05:34:27.824,-0.575,-0.305
2021-08-19 05:34:27.828,-0.535,-0.235
2021-08-19 05:34:27.832,-0.49,-0.21
2021-08-19 05:34:27.836,-0.495,-0.225
2021-08-19 05:34:27.840,-0.505,-0.235
2021-08-19 05:34:27.844,-0.555,-0.285
2021-08-19 05:34:27.848,-0.58,-0.325
2021-08-19 05:34:27.852,-0.625,-0.315
2021-08-19 05:34:27.856,-0.665,-0.21
2021-08-19 05:34:27.860,-0.565,-0.155
2021-08-19 05:34:27.864,-0.57,-0.36
2021-08-19 05:34:27.868,-0.565,-0.51
2021-08-19 05:34:27.872,-0.46,-0.59
2021-08-19 05:34:27.876,-0.54,-0.74
2021-08-19 05:34:27.880,-0.895,-0.73
2021-08-19 05:34:27.884,-0.995,-0.64
2021-08-19 05:34:27.888,-0.98,-0.655
2021-08-19 05:34:27.892,-1.255,-0.435
2021-08-19 05:34:27.896,-1.67,0.015
2021-08-19 05:34:27.940,-1.81,-1.15
2021-08-19 05:34:27.944,-1.33,-0.84
2021-08-19 05:34:27.948,-0.98,-0.675
2021-08-19 05:34:27.952,-0.715,-0.535
2021-08-19 05:34:27.956,-0.48,-0.395
2021-08-19 05:34:27.960,-0.355,-0.275
2021-08-19 05:34:27.964,-0.295,-0.2
2021-08-19 05:34:27.968,-0.27,-0.21
2021-08-19 05:34:27.972,-0.25,-0.125
2021-08-19 05:34:27.976,-0.265,-0.015
2021-08-19 05:34:27.980,-0.29,0.055
2021-08-19 05:34:27.984,-0.25,-0.03
2021-08-19 05:34:27.988,-0.215,-0.15
2021-08-19 05:34:27.992,-0.225,-0.135
2021-08-19 05:34:27.996,-0.19,-0.09
2021-08-19 05:34:28.000,-0.19,-0.025
2021-08-19 05:34:28.004,-0.175,-0.07
2021-08-19 05:34:28.008,-0.14,-0.135
2021-08-19 05:34:28.012,-0.16,-0.13
2021-08-19 05:34:28.016,-0.2,-0.04
2021-08-19 05:34:28.020,-0.19,-0.05
2021-08-19 05:34:28.024,-0.15,-0.11
2021-08-19 05:34:28.028,-0.16,-0.16
2021-08-19 05:34:28.032,-0.13,-0.21
2021-08-19 05:34:28.036,-0.13,-0.125
2021-08-19 05:34:28.040,-0.065,-0.075
2021-08-19 05:34:28.044,-0.02,-0.11
2021-08-19 05:34:28.048,-0.015,-0.115
2021-08-19 05:34:28.052,-0.045,-0.14
2021-08-19 05:34:28.056,-0.05,-0.09
2021-08-19 05:34:28.060,-0.005,-0.07
2021-08-19 05:34:28.064,0.045,-0.09
2021-08-19 05:34:28.068,0.055,-0.075
2021-08-19 05:34:28.072,0.09,-0.12
2021-08-19 05:34:28.076,0.11,-0.145
2021-08-19 05:34:28.080,0.18,-0.045
2021-08-19 05:34:28.084,0.205,-0.015
2021-08-19 05:34:28.088,0.225,0.035
2021-08-19 05:34:28.092,0.28,0.1
2021-08-19 05:34:28.096,0.335,0.09
2021-08-19 05:34:28.100,0.35,0.04
2021-08-19 05:34:28.104,0.335,0.035
2021-08-19 05:34:28.108,0.365,0.005
2021-08-19 05:34:28.112,0.415,-0.03
2021-08-19 05:34:28.116,0.445,-0.015
2021-08-19 05:34:28.120,0.495,0.135
2021-08-19 05:34:28.124,0.53,0.22
2021-08-19 05:34:28.128,0.485,0.315
2021-08-19 05:34:28.132,0.45,0.23
2021-08-19 05:34:28.136,0.47,0.09
2021-08-19 05:34:28.140,0.51,0.14
2021-08-19 05:34:28.144,0.52,0.285
2021-08-19 05:34:28.148,0.5,0.305
2021-08-19 05:34:28.152,0.525,0.185
2021-08-19 05:34:28.156,0.495,0.175
2021-08-19 05:34:28.160,0.495,0.29
2021-08-19 05:34:28.164,0.485,0.345
2021-08-19 05:34:28.168,0.47,0.32
2021-08-19 05:34:28.172,0.435,0.27
2021-08-19 05:34:28.176,0.445,0.335
2021-08-19 05:34:28.180,0.385,0.42
2021-08-19 05:34:28.184,0.29,0.46
2021-08-19 05:34:28.188,0.28,0.425
2021-08-19 05:34:28.192,0.27,0.31
2021-08-19 05:34:28.196,0.26,0.245
2021-08-19 05:34:28.200,0.255,0.29
2021-08-19 05:34:28.204,0.23,0.39
2021-08-19 05:34:28.208,0.1,0.41
2021-08-19 05:34:28.212,0.025,0.45
2021-08-19 05:34:28.216,-0.005,0.415
2021-08-19 05:34:28.220,0.0,0.395
2021-08-19 05:34:28.224,-0.015,0.335
2021-08-19 05:34:28.228,-0.1,0.33
2021-08-19 05:34:28.232,-0.135,0.405
2021-08-19 05:34:28.236,-0.105,0.44
2021-08-19 05:34:28.240,-0.105,0.415
2021-08-19 05:34:28.244,-0.095,0.4
2021-08-19 05:34:28.248,-0.135,0.375
2021-08-19 05:34:28.252,-0.215,0.38
2021-08-19 05:34:28.256,-0.25,0.3
2021-08-19 05:34:28.260,-0.245,0.265
2021-08-19 05:34:28.264,-0.27,0.235
2021-08-19 05:34:28.268,-0.275,0.21
2021-08-19 05:34:28.272,-0.31,0.21
2021-08-19 05:34:28.276,-0.24,0.25
2021-08-19 05:34:28.280,-0.22,0.29
2021-08-19 05:34:28.284,-0.255,0.225
2021-08-19 05:34:28.288,-0.34,0.13
2021-08-19 05:34:28.292,-0.365,0.155
2021-08-19 05:34:28.296,-0.375,0.14
2021-08-19 05:34:28.300,-0.385,0.045
2021-08-19 05:34:28.304,-0.34,-0.005
2021-08-19 05:34:28.308,-0.32,0.015
2021-08-19 05:34:28.312,-0.32,0.05
2021-08-19 05:34:28.316,-0.375,0.09
2021-08-19 05:34:28.320,-0.38,0.09
2021-08-19 05:34:28.324,-0.335,0.09
2021-08-19 05:34:28.328,-0.365,0.06
2021-08-19 05:34:28.332,-0.41,0.0
2021-08-19 05:34:28.336,-0.365,-0.11
2021-08-19 05:34:28.340,-0.35,-0.09
2021-08-19 05:34:28.344,-0.345,-0.01
2021-08-19 05:34:28.348,-0.42,0.03
2021-08-19 05:34:28.352,-0.45,0.01
2021-08-19 05:34:28.356,-0.445,-0.105
2021-08-19 05:34:28.360,-0.425,-0.14
2021-08-19 05:34:28.364,-0.37,-0.08
2021-08-19 05:34:28.368,-0.39,-0.13
2021-08-19 05:34:28.372,-0.435,-0.17
2021-08-19 05:34:28.376,-0.45,-0.105
2021-08-19 05:34:28.380,-0.47,-0.055
2021-08-19 05:34:28.384,-0.51,-0.045
2021-08-19 05:34:28.388,-0.435,-0.045
2021-08-19 05:34:28.392,-0.4,-0.1
2021-08-19 05:34:28.396,-0.41,-0.11
2021-08-19 05:34:28.400,-0.405,-0.13
2021-08-19 05:34:28.404,-0.41,-0.19
2021-08-19 05:34:28.408,-0.44,-0.21
2021-08-19 05:34:28.412,-0.5,-0.15
2021-08-19 05:34:28.416,-0.49,-0.115
2021-08-19 05:34:28.420,-0.44,-0.23
2021-08-19 05:34:28.424,-0.37,-0.19
2021-08-19 05:34:28.428,-0.4,-0.14
2021-08-19 05:34:28.432,-0.44,-0.095
2021-08-19 05:34:28.436,-0.47,-0.075
2021-08-19 05:34:28.440,-0.465,-0.09
2021-08-19 05:34:28.444,-0.445,-0.2
2021-08-19 05:34:28.448,-0.435,-0.25
2021-08-19 05:34:28.452,-0.46,-0.22
2021-08-19 05:34:28.456,-0.47,-0.19
2021-08-19 05:34:28.460,-0.435,-0.13
2021-08-19 05:34:28.464,-0.42,-0.18
2021-08-19 05:34:28.468,-0.395,-0.175
2021-08-19 05:34:28.472,-0.43,-0.13
2021-08-19 05:34:28.476,-0.455,-0.155
2021-08-19 05:34:28.480,-0.465,-0.16
2021-08-19 05:34:28.484,-0.4,-0.17
2021-08-19 05:34:28.488,-0.42,-0.255
2021-08-19 05:34:28.492,-0.485,-0.245
2021-08-19 05:34:28.496,-0.515,-0.17
2021-08-19 05:34:28.500,-0.445,-0.135
2021-08-19 05:34:28.504,-0.37,-0.175
2021-08-19 05:34:28.508,-0.385,-0.11
2021-08-19 05:34:28.512,-0.39,-0.065
2021-08-19 05:34:28.516,-0.45,-0.03
2021-08-19 05:34:28.520,-0.455,-0.09
2021-08-19 05:34:28.524,-0.44,-0.19
2021-08-19 05:34:28.528,-0.435,-0.295
2021-08-19 05:34:28.532,-0.38,-0.22
2021-08-19 05:34:28.536,-0.36,-0.175
2021-08-19 05:34:28.540,-0.36,-0.12
2021-08-19 05:34:28.544,-0.325,-0.035
2021-08-19 05:34:28.548,-0.32,0.045
2021-08-19 05:34:28.552,-0.37,0.065
2021-08-19 05:34:28.556,-0.35,0.01
2021-08-19 05:34:28.560,-0.27,0.02
2021-08-19 05:34:28.564,-0.25,0.065
2021-08-19 05:34:28.568,-0.235,0.045
2021-08-19 05:34:28.572,-0.255,-0.05
2021-08-19 05:34:28.576,-0.275,-0.085
2021-08-19 05:34:28.580,-0.315,-0.075
2021-08-19 05:34:28.584,-0.225,-0.03
2021-08-19 05:34:28.588,-0.185,-0.01
2021-08-19 05:34:28.592,-0.235,0.01
2021-08-19 05:34:28.596,-0.305,0.03
2021-08-19 05:34:28.600,-0.34,0.025
2021-08-19 05:34:28.604,-0.345,-0.06
2021-08-19 05:34:28.608,-0.345,-0.195
2021-08-19 05:34:28.612,-0.39,-0.165
2021-08-19 05:34:28.616,-0.43,-0.04
2021-08-19 05:34:28.620,-0.46,-0.035
2021-08-19 05:34:28.624,-0.47,-0.105
2021-08-19 05:34:28.628,-0.475,-0.24
2021-08-19 05:34:28.632,-0.48,-0.215
2021-08-19 05:34:28.636,-0.515,-0.16
2021-08-19 05:34:28.640,-0.525,-0.12
2021-08-19 05:34:28.644,-0.52,-0.1
2021-08-19 05:34:28.648,-0.52,-0.115
2021-08-19 05:34:28.652,-0.525,-0.19
2021-08-19 05:34:28.656,-0.52,-0.28
2021-08-19 05:34:28.660,-0.5,-0.25
2021-08-19 05:34:28.664,-0.5,-0.185
2021-08-19 05:34:28.668,-0.51,-0.12
2021-08-19 05:34:28.672,-0.49,-0.135
2021-08-19 05:34:28.676,-0.49,-0.115
2021-08-19 05:34:28.680,-0.485,-0.17
2021-08-19 05:34:28.684,-0.465,-0.245
2021-08-19 05:34:28.688,-0.48,-0.16
2021-08-19 05:34:28.692,-0.465,-0.125
2021-08-19 05:34:28.696,-0.49,-0.105
2021-08-19 05:34:28.700,-0.505,-0.08
2021-08-19 05:34:28.704,-0.495,-0.1
2021-08-19 05:34:28.708,-0.54,-0.105
2021-08-19 05:34:28.712,-0.625,-0.165
2021-08-19 05:34:28.716,-0.69,-0.155
2021-08-19 05:34:28.720,-0.635,-0.175
2021-08-19 05:34:28.724,-0.545,-0.21
2021-08-19 05:34:28.728,-0.505,-0.26
2021-08-19 05:34:28.732,-0.375,-0.36
2021-08-19 05:34:28.736,-0.405,-0.495
2021-08-19 05:34:28.740,-0.81,-0.52
2021-08-19 05:34:28.744,-0.96,-0.495
2021-08-19 05:34:28.748,-0.885,-0.475
2021-08-19 05:34:28.752,-1.075,-0.345
2021-08-19 05:34:28.756,-1.5,0.075
2021-08-19 05:34:28.760,-1.955,0.51
2021-08-19 05:34:28.800,-1.805,-1.105
2021-08-19 05:34:28.804,-1.36,-0.8
2021-08-19 05:34:28.808,-0.965,-0.61
2021-08-19 05:34:28.812,-0.675,-0.43
2021-08-19 05:34:28.816,-0.54,-0.225
2021-08-19 05:34:28.820,-0.42,-0.19
2021-08-19 05:34:28.824,-0.265,-0.205
2021-08-19 05:34:28.828,-0.225,-0.135
2021-08-19 05:34:28.832,-0.19,0.0
2021-08-19 05:34:28.836,-0.16,0.075
2021-08-19 05:34:28.840,-0.18,0.125
2021-08-19 05:34:28.844,-0.19,0.12
2021-08-19 05:34:28.848,-0.18,0.1
2021-08-19 05:34:28.852,-0.125,0.095
2021-08-19 05:34:28.856,-0.085,0.065
2021-08-19 05:34:28.860,-0.085,0.055
2021-08-19 05:34:28.864,-0.1,-0.01
2021-08-19 05:34:28.868,-0.065,0.05
2021-08-19 05:34:28.872,-0.06,0.1
2021-08-19 05:34:28.876,-0.08,0.075
2021-08-19 05:34:28.880,-0.145,0.025
2021-08-19 05:34:28.884,-0.13,0.03
2021-08-19 05:34:28.888,-0.15,0.12
2021-08-19 05:34:28.892,-0.11,-0.01
2021-08-19 05:34:28.896,-0.07,-0.1
2021-08-19 05:34:28.900,-0.085,-0.025
2021-08-19 05:34:28.904,-0.05,0.055
2021-08-19 05:34:28.908,-0.005,0.075
2021-08-19 05:34:28.912,0.015,0.06
2021-08-19 05:34:28.916,0.05,0.05
2021-08-19 05:34:28.920,0.05,0.06
2021-08-19 05:34:28.924,0.08,0.04
2021-08-19 05:34:28.928,0.12,0.085
2021-08-19 05:34:28.932,0.125,0.135
2021-08-19 05:34:28.936,0.185,0.145
2021-08-19 05:34:28.940,0.16,0.07
2021-08-19 05:34:28.944,0.17,0.1
2021-08-19 05:34:28.948,0.245,0.2
2021-08-19 05:34:28.952,0.315,0.135
2021-08-19 05:34:28.956,0.34,0.085
2021-08-19 05:34:28.960,0.345,0.195
2021-08-19 05:34:28.964,0.33,0.28
2021-08-19 05:34:28.968,0.38,0.265
2021-08-19 05:34:28.972,0.475,0.27
2021-08-19 05:34:28.976,0.52,0.285
2021-08-19 05:34:28.980,0.48,0.345
2021-08-19 05:34:28.984,0.54,0.36
2021-08-19 05:34:28.988,0.585,0.275
2021-08-19 05:34:28.992,0.57,0.28
2021-08-19 05:34:28.996,0.55,0.375
2021-08-19 05:34:29.000,0.58,0.395
2021-08-19 05:34:29.004,0.625,0.405
2021-08-19 05:34:29.008,0.625,0.49
2021-08-19 05:34:29.012,0.59,0.545
2021-08-19 05:34:29.016,0.59,0.515
2021-08-19 05:34:29.020,0.61,0.51
2021-08-19 05:34:29.024,0.58,0.565
2021-08-19 05:34:29.028,0.63,0.455
2021-08-19 05:34:29.032,0.605,0.4
2021-08-19 05:34:29.036,0.615,0.5
2021-08-19 05:34:29.040,0.54,0.495
2021-08-19 05:34:29.044,0.52,0.51
2021-08-19 05:34:29.048,0.505,0.59
2021-08-19 05:34:29.052,0.44,0.665
2021-08-19 05:34:29.056,0.38,0.695
2021-08-19 05:34:29.060,0.295,0.57
2021-08-19 05:34:29.064,0.255,0.55
2021-08-19 05:34:29.068,0.17,0.635
2021-08-19 05:34:29.072,0.085,0.7
2021-08-19 05:34:29.076,0.09,0.57
2021-08-19 05:34:29.080,0.075,0.465
2021-08-19 05:34:29.084,0.015,0.58
2021-08-19 05:34:29.088,0.0,0.65
2021-08-19 05:34:29.092,0.0,0.58
2021-08-19 05:34:29.096,-0.02,0.535
2021-08-19 05:34:29.100,-0.075,0.57
2021-08-19 05:34:29.104,-0.115,0.595
2021-08-19 05:34:29.108,-0.085,0.57
2021-08-19 05:34:29.112,-0.075,0.555
2021-08-19 05:34:29.116,-0.105,0.515
2021-08-19 05:34:29.120,-0.15,0.495
2021-08-19 05:34:29.124,-0.16,0.495
2021-08-19 05:34:29.128,-0.16,0.415
2021-08-19 05:34:29.132,-0.15,0.43
2021-08-19 05:34:29.136,-0.155,0.445
2021-08-19 05:34:29.140,-0.17,0.435
2021-08-19 05:34:29.144,-0.235,0.4
2021-08-19 05:34:29.148,-0.225,0.375
2021-08-19 05:34:29.152,-0.13,0.345
2021-08-19 05:34:29.156,-0.13,0.355
2021-08-19 05:34:29.160,-0.21,0.36
2021-08-19 05:34:29.164,-0.245,0.385
2021-08-19 05:34:29.168,-0.24,0.41
2021-08-19 05:34:29.172,-0.235,0.38
2021-08-19 05:34:29.176,-0.24,0.245
2021-08-19 05:34:29.180,-0.27,0.185
2021-08-19 05:34:29.184,-0.26,0.245
2021-08-19 05:34:29.188,-0.265,0.27
2021-08-19 05:34:29.192,-0.24,0.23
2021-08-19 05:34:29.196,-0.28,0.18
2021-08-19 05:34:29.200,-0.275,0.195
2021-08-19 05:34:29.204,-0.29,0.235
2021-08-19 05:34:29.208,-0.29,0.25
2021-08-19 05:34:29.212,-0.29,0.205
2021-08-19 05:34:29.216,-0.285,0.205
2021-08-19 05:34:29.220,-0.285,0.185
2021-08-19 05:34:29.224,-0.305,0.145
2021-08-19 05:34:29.228,-0.33,0.16
2021-08-19 05:34:29.232,-0.385,0.17
2021-08-19 05:34:29.236,-0.345,0.155
2021-08-19 05:34:29.240,-0.33,0.085
2021-08-19 05:34:29.244,-0.305,0.03
2021-08-19 05:34:29.248,-0.315,0.09
2021-08-19 05:34:29.252,-0.33,0.095
2021-08-19 05:34:29.256,-0.33,0.105
2021-08-19 05:34:29.260,-0.36,0.125
2021-08-19 05:34:29.264,-0.38,0.06
2021-08-19 05:34:29.268,-0.315,0.005
2021-08-19 05:34:29.272,-0.345,0.105
2021-08-19 05:34:29.276,-0.365,0.205
2021-08-19 05:34:29.280,-0.395,0.145
2021-08-19 05:34:29.284,-0.36,0.11
2021-08-19 05:34:29.288,-0.395,0.0
2021-08-19 05:34:29.292,-0.335,0.0
2021-08-19 05:34:29.296,-0.345,0.06
2021-08-19 05:34:29.300,-0.295,0.02
2021-08-19 05:34:29.304,-0.33,0.025
2021-08-19 05:34:29.308,-0.31,0.055
2021-08-19 05:34:29.312,-0.325,0.12
2021-08-19 05:34:29.316,-0.35,0.115
2021-08-19 05:34:29.320,-0.35,0.055
2021-08-19 05:34:29.324,-0.37,0.08
2021-08-19 05:34:29.328,-0.38,0.135
2021-08-19 05:34:29.332,-0.355,0.19
2021-08-19 05:34:29.336,-0.335,0.045
2021-08-19 05:34:29.340,-0.335,-0.075
2021-08-19 05:34:29.344,-0.33,-0.03
2021-08-19 05:34:29.348,-0.31,0.015
2021-08-19 05:34:29.352,-0.345,0.035
2021-08-19 05:34:29.356,-0.335,0.065
2021-08-19 05:34:29.360,-0.34,0.055
2021-08-19 05:34:29.364,-0.32,0.045
2021-08-19 05:34:29.368,-0.29,0.065
2021-08-19 05:34:29.372,-0.29,0.115
2021-08-19 05:34:29.376,-0.29,0.065
2021-08-19 05:34:29.380,-0.315,0.045
2021-08-19 05:34:29.384,-0.34,0.01
2021-08-19 05:34:29.388,-0.245,0.04
2021-08-19 05:34:29.392,-0.24,0.18
2021-08-19 05:34:29.396,-0.27,0.305
2021-08-19 05:34:29.400,-0.255,0.235
2021-08-19 05:34:29.404,-0.225,0.06
2021-08-19 05:34:29.408,-0.21,0.045
2021-08-19 05:34:29.412,-0.195,0.19
2021-08-19 05:34:29.416,-0.145,0.24
2021-08-19 05:34:29.420,-0.16,0.26
2021-08-19 05:34:29.424,-0.2,0.19
2021-08-19 05:34:29.428,-0.18,0.135
2021-08-19 05:34:29.432,-0.115,0.075
2021-08-19 05:34:29.436,-0.06,0.12
2021-08-19 05:34:29.440,-0.01,0.09
2021-08-19 05:34:29.444,-0.105,0.065
2021-08-19 05:34:29.448,-0.155,0.175
2021-08-19 05:34:29.452,-0.2,0.22
2021-08-19 05:34:29.456,-0.2,0.205
2021-08-19 05:34:29.460,-0.27,0.055
2021-08-19 05:34:29.464,-0.29,-0.045
2021-08-19 05:34:29.468,-0.31,-0.07
2021-08-19 05:34:29.472,-0.355,0.01
2021-08-19 05:34:29.476,-0.34,0.07
2021-08-19 05:34:29.480,-0.32,0.065
2021-08-19 05:34:29.484,-0.32,-0.01
2021-08-19 05:34:29.488,-0.39,-0.04
2021-08-19 05:34:29.492,-0.365,-0.015
2021-08-19 05:34:29.496,-0.365,-0.055
2021-08-19 05:34:29.500,-0.36,-0.045
2021-08-19 05:34:29.504,-0.365,0.005
2021-08-19 05:34:29.508,-0.385,0.0
2021-08-19 05:34:29.512,-0.4,-0.035
2021-08-19 05:34:29.516,-0.4,-0.05
2021-08-19 05:34:29.520,-0.435,0.005
2021-08-19 05:34:29.524,-0.395,-0.015
2021-08-19 05:34:29.528,-0.38,-0.105
2021-08-19 05:34:29.532,-0.375,-0.07
2021-08-19 05:34:29.536,-0.415,-0.03
2021-08-19 05:34:29.540,-0.375,0.005
2021-08-19 05:34:29.544,-0.37,-0.05
2021-08-19 05:34:29.548,-0.415,-0.02
2021-08-19 05:34:29.552,-0.42,-0.01
2021-08-19 05:34:29.556,-0.43,0.02
2021-08-19 05:34:29.560,-0.455,-0.04
2021-08-19 05:34:29.564,-0.56,-0.14
2021-08-19 05:34:29.568,-0.575,-0.1
2021-08-19 05:34:29.572,-0.49,-0.02
2021-08-19 05:34:29.576,-0.48,-0.07
2021-08-19 05:34:29.580,-0.4,-0.16
2021-08-19 05:34:29.584,-0.195,-0.26
2021-08-19 05:34:29.588,-0.33,-0.37
2021-08-19 05:34:29.592,-0.605,-0.375
2021-08-19 05:34:29.596,-0.59,-0.285
2021-08-19 05:34:29.600,-0.51,-0.225
2021-08-19 05:34:29.604,-0.86,0.085
2021-08-19 05:34:29.608,-1.4,0.58
2021-08-19 05:34:29.612,-2.0,0.86
2021-08-19 05:34:29.648,-1.975,-1.42
2021-08-19 05:34:29.652,-1.675,-1.09
2021-08-19 05:34:29.656,-1.29,-0.805
2021-08-19 05:34:29.660,-0.905,-0.67
2021-08-19 05:34:29.664,-0.545,-0.635
2021-08-19 05:34:29.668,-0.355,-0.44
2021-08-19 05:34:29.672,-0.195,-0.145
2021-08-19 05:34:29.676,-0.15,-0.04
2021-08-19 05:34:29.680,-0.125,0.02
2021-08-19 05:34:29.684,-0.125,0.045
2021-08-19 05:34:29.688,-0.12,0.06
2021-08-19 05:34:29.692,-0.1,0.09
2021-08-19 05:34:29.696,-0.075,0.055
2021-08-19 05:34:29.700,-0.1,-0.02
2021-08-19 05:34:29.704,-0.135,0.01
2021-08-19 05:34:29.708,-0.125,0.025
2021-08-19 05:34:29.712,-0.17,0.0
2021-08-19 05:34:29.716,-0.105,0.0
2021-08-19 05:34:29.720,-0.07,-0.03
2021-08-19 05:34:29.724,-0.115,-0.03
2021-08-19 05:34:29.728,-0.04,0.01
2021-08-19 05:34:29.732,-0.045,-0.005
2021-08-19 05:34:29.736,-0.025,-0.01
2021-08-19 05:34:29.740,-0.095,0.01
2021-08-19 05:34:29.744,-0.005,-0.025
2021-08-19 05:34:29.748,0.01,-0.035
2021-08-19 05:34:29.752,0.01,0.0
2021-08-19 05:34:29.756,0.02,0.085
2021-08-19 05:34:29.760,0.055,0.1
2021-08-19 05:34:29.764,0.055,0.065
2021-08-19 05:34:29.768,0.035,0.04
2021-08-19 05:34:29.772,0.09,0.01
2021-08-19 05:34:29.776,0.125,-0.025
2021-08-19 05:34:29.780,0.15,-0.025
2021-08-19 05:34:29.784,0.2,0.02
2021-08-19 05:34:29.788,0.18,0.095
2021-08-19 05:34:29.792,0.18,0.125
2021-08-19 05:34:29.796,0.25,0.1
2021-08-19 05:34:29.800,0.375,0.115
2021-08-19 05:34:29.804,0.39,0.12
2021-08-19 05:34:29.808,0.445,0.225
2021-08-19 05:34:29.812,0.42,0.175
2021-08-19 05:34:29.816,0.455,0.195
2021-08-19 05:34:29.820,0.52,0.27
2021-08-19 05:34:29.824,0.545,0.395
2021-08-19 05:34:29.828,0.565,0.36
2021-08-19 05:34:29.832,0.58,0.29
2021-08-19 05:34:29.836,0.6,0.275
2021-08-19 05:34:29.840,0.61,0.33
2021-08-19 05:34:29.844,0.625,0.395
2021-08-19 05:34:29.848,0.675,0.45
2021-08-19 05:34:29.852,0.64,0.4
2021-08-19 05:34:29.856,0.65,0.38
2021-08-19 05:34:29.860,0.67,0.41
2021-08-19 05:34:29.864,0.72,0.495
2021-08-19 05:34:29.868,0.69,0.53
2021-08-19 05:34:29.872,0.68,0.555
2021-08-19 05:34:29.876,0.69,0.5
2021-08-19 05:34:29.880,0.68,0.47
2021-08-19 05:34:29.884,0.66,0.445
2021-08-19 05:34:29.888,0.635,0.53
2021-08-19 05:34:29.892,0.58,0.6
2021-08-19 05:34:29.896,0.51,0.61
2021-08-19 05:34:29.900,0.51,0.535
2021-08-19 05:34:29.904,0.51,0.575
2021-08-19 05:34:29.908,0.43,0.665
2021-08-19 05:34:29.912,0.33,0.655
2021-08-19 05:34:29.916,0.225,0.635
2021-08-19 05:34:29.920,0.23,0.61
2021-08-19 05:34:29.924,0.21,0.525
2021-08-19 05:34:29.928,0.185,0.52
2021-08-19 05:34:29.932,0.145,0.51
2021-08-19 05:34:29.936,0.045,0.565
2021-08-19 05:34:29.940,0.04,0.585
2021-08-19 05:34:29.944,0.05,0.545
2021-08-19 05:34:29.948,0.05,0.5
2021-08-19 05:34:29.952,0.02,0.525
2021-08-19 05:34:29.956,-0.04,0.565
2021-08-19 05:34:29.960,-0.1,0.61
2021-08-19 05:34:29.964,-0.09,0.605
2021-08-19 05:34:29.968,-0.065,0.56
2021-08-19 05:34:29.972,-0.085,0.41
2021-08-19 05:34:29.976,-0.1,0.265
2021-08-19 05:34:29.980,-0.1,0.295
2021-08-19 05:34:29.984,-0.08,0.385
2021-08-19 05:34:29.988,-0.11,0.4
2021-08-19 05:34:29.992,-0.12,0.45
2021-08-19 05:34:29.996,-0.16,0.455
2021-08-19 05:34:30.000,-0.175,0.4
2021-08-19 05:34:30.004,-0.12,0.305
2021-08-19 05:34:30.008,-0.13,0.27
2021-08-19 05:34:30.012,-0.18,0.35
2021-08-19 05:34:30.016,-0.175,0.345
2021-08-19 05:34:30.020,-0.155,0.24
2021-08-19 05:34:30.024,-0.11,0.175
2021-08-19 05:34:30.028,-0.115,0.23
2021-08-19 05:34:30.032,-0.14,0.225
2021-08-19 05:34:30.036,-0.17,0.25
2021-08-19 05:34:30.040,-0.15,0.285
2021-08-19 05:34:30.044,-0.165,0.225
2021-08-19 05:34:30.048,-0.215,0.18
2021-08-19 05:34:30.052,-0.21,0.08
2021-08-19 05:34:30.056,-0.2,0.015
2021-08-19 05:34:30.060,-0.195,0.03
2021-08-19 05:34:30.064,-0.22,0.07
2021-08-19 05:34:30.068,-0.185,0.075
2021-08-19 05:34:30.072,-0.215,-0.015
2021-08-19 05:34:30.076,-0.21,-0.04
2021-08-19 05:34:30.080,-0.19,-0.015
2021-08-19 05:34:30.084,-0.205,-0.01
2021-08-19 05:34:30.088,-0.255,-0.06
2021-08-19 05:34:30.092,-0.285,-0.1
2021-08-19 05:34:30.096,-0.305,-0.14
2021-08-19 05:34:30.100,-0.22,-0.17
2021-08-19 05:34:30.104,-0.14,-0.22
2021-08-19 05:34:30.108,-0.16,-0.235
2021-08-19 05:34:30.112,-0.215,-0.16
2021-08-19 05:34:30.116,-0.23,-0.055
2021-08-19 05:34:30.120,-0.27,-0.08
2021-08-19 05:34:30.124,-0.23,-0.16
2021-08-19 05:34:30.128,-0.25,-0.235
2021-08-19 05:34:30.132,-0.25,-0.3
2021-08-19 05:34:30.136,-0.2,-0.31
2021-08-19 05:34:30.140,-0.24,-0.215
2021-08-19 05:34:30.144,-0.26,-0.345
2021-08-19 05:34:30.148,-0.235,-0.405
2021-08-19 05:34:30.152,-0.17,-0.315
2021-08-19 05:34:30.156,-0.185,-0.17
2021-08-19 05:34:30.160,-0.285,-0.18
2021-08-19 05:34:30.164,-0.26,-0.28
2021-08-19 05:34:30.168,-0.25,-0.335
2021-08-19 05:34:30.172,-0.22,-0.295
2021-08-19 05:34:30.176,-0.26,-0.345
2021-08-19 05:34:30.180,-0.255,-0.3
2021-08-19 05:34:30.184,-0.225,-0.225
2021-08-19 05:34:30.188,-0.215,-0.165
2021-08-19 05:34:30.192,-0.175,-0.18
2021-08-19 05:34:30.196,-0.16,-0.33
2021-08-19 05:34:30.200,-0.2,-0.355
2021-08-19 05:34:30.204,-0.23,-0.315
2021-08-19 05:34:30.208,-0.21,-0.305
2021-08-19 05:34:30.212,-0.23,-0.35
2021-08-19 05:34:30.216,-0.245,-0.415
2021-08-19 05:34:30.220,-0.225,-0.38
2021-08-19 05:34:30.224,-0.215,-0.375
2021-08-19 05:34:30.228,-0.18,-0.325
2021-08-19 05:34:30.232,-0.125,-0.23
2021-08-19 05:34:30.236,-0.09,-0.185
2021-08-19 05:34:30.240,-0.11,-0.2
2021-08-19 05:34:30.244,-0.13,-0.185
2021-08-19 05:34:30.248,-0.125,-0.185
2021-08-19 05:34:30.252,-0.09,-0.175
2021-08-19 05:34:30.256,-0.1,-0.235
2021-08-19 05:34:30.260,-0.055,-0.36
2021-08-19 05:34:30.264,-0.015,-0.36
2021-08-19 05:34:30.268,0.005,-0.28
2021-08-19 05:34:30.272,0.02,-0.21
2021-08-19 05:34:30.276,0.025,-0.21
2021-08-19 05:34:30.280,0.005,-0.16
2021-08-19 05:34:30.284,-0.04,-0.11
2021-08-19 05:34:30.288,-0.035,-0.14
2021-08-19 05:34:30.292,-0.02,-0.38
2021-08-19 05:34:30.296,-0.08,-0.49
2021-08-19 05:34:30.300,-0.06,-0.43
2021-08-19 05:34:30.304,-0.055,-0.405
2021-08-19 05:34:30.308,-0.11,-0.39
2021-08-19 05:34:30.312,-0.14,-0.4
2021-08-19 05:34:30.316,-0.135,-0.375
2021-08-19 05:34:30.320,-0.18,-0.36
2021-08-19 05:34:30.324,-0.24,-0.32
2021-08-19 05:34:30.328,-0.295,-0.32
2021-08-19 05:34:30.332,-0.295,-0.38
2021-08-19 05:34:30.336,-0.3,-0.485
2021-08-19 05:34:30.340,-0.335,-0.44
2021-08-19 05:34:30.344,-0.355,-0.5
2021-08-19 05:34:30.348,-0.33,-0.605
2021-08-19 05:34:30.352,-0.31,-0.59
2021-08-19 05:34:30.356,-0.32,-0.49
2021-08-19 05:34:30.360,-0.285,-0.43
2021-08-19 05:34:30.364,-0.28,-0.485
2021-08-19 05:34:30.368,-0.27,-0.48
2021-08-19 05:34:30.372,-0.275,-0.5
2021-08-19 05:34:30.376,-0.255,-0.47
2021-08-19 05:34:30.380,-0.31,-0.46
2021-08-19 05:34:30.384,-0.33,-0.42
2021-08-19 05:34:30.388,-0.315,-0.47
2021-08-19 05:34:30.392,-0.28,-0.475
2021-08-19 05:34:30.396,-0.315,-0.485
2021-08-19 05:34:30.400,-0.38,-0.545
2021-08-19 05:34:30.404,-0.405,-0.525
2021-08-19 05:34:30.408,-0.465,-0.565
2021-08-19 05:34:30.412,-0.485,-0.62
2021-08-19 05:34:30.416,-0.48,-0.615
2021-08-19 05:34:30.420,-0.455,-0.54
2021-08-19 05:34:30.424,-0.405,-0.605
2021-08-19 05:34:30.428,-0.37,-0.665
2021-08-19 05:34:30.432,-0.2,-0.76
2021-08-19 05:34:30.436,-0.19,-0.835
2021-08-19 05:34:30.440,-0.49,-0.79
2021-08-19 05:34:30.444,-0.65,-0.71
2021-08-19 05:34:30.448,-0.53,-0.835
2021-08-19 05:34:30.452,-0.725,-0.63
2021-08-19 05:34:30.456,-1.19,-0.1
2021-08-19 05:34:30.460,-1.75,0.2
2021-08-19 05:34:30.500,-1.7,-1.685
2021-08-19 05:34:30.504,-1.2,-1.465
2021-08-19 05:34:30.508,-0.73,-1.28
2021-08-19 05:34:30.512,-0.445,-1.055
2021-08-19 05:34:30.516,-0.265,-0.76
2021-08-19 05:34:30.520,-0.23,-0.625
2021-08-19 05:34:30.524,-0.14,-0.64
2021-08-19 05:34:30.528,-0.155,-0.635
2021-08-19 05:34:30.532,-0.11,-0.59
2021-08-19 05:34:30.536,-0.085,-0.565
2021-08-19 05:34:30.540,-0.035,-0.495
2021-08-19 05:34:30.544,0.02,-0.49
2021-08-19 05:34:30.548,0.0,-0.49
2021-08-19 05:34:30.552,-0.02,-0.6
2021-08-19 05:34:30.556,-0.04,-0.535
2021-08-19 05:34:30.560,-0.08,-0.47
2021-08-19 05:34:30.564,-0.045,-0.56
2021-08-19 05:34:30.568,0.005,-0.71
2021-08-19 05:34:30.572,0.005,-0.725
2021-08-19 05:34:30.576,0.07,-0.595
2021-08-19 05:34:30.580,0.035,-0.575
2021-08-19 05:34:30.584,-0.025,-0.565
2021-08-19 05:34:30.588,0.0,-0.54
2021-08-19 05:34:30.592,0.0,-0.605
2021-08-19 05:34:30.596,-0.01,-0.53
2021-08-19 05:34:30.600,-0.01,-0.52
2021-08-19 05:34:30.604,0.065,-0.565
2021-08-19 05:34:30.608,0.09,-0.625
2021-08-19 05:34:30.612,0.11,-0.64
2021-08-19 05:34:30.616,0.125,-0.57
2021-08-19 05:34:30.620,0.115,-0.62
2021-08-19 05:34:30.624,0.145,-0.575
2021-08-19 05:34:30.628,0.17,-0.585
2021-08-19 05:34:30.632,0.24,-0.525
2021-08-19 05:34:30.636,0.27,-0.43
2021-08-19 05:34:30.640,0.27,-0.45
2021-08-19 05:34:30.644,0.325,-0.5
2021-08-19 05:34:30.648,0.395,-0.475
2021-08-19 05:34:30.652,0.435,-0.41
2021-08-19 05:34:30.656,0.435,-0.45
2021-08-19 05:34:30.660,0.495,-0.445
2021-08-19 05:34:30.664,0.51,-0.385
2021-08-19 05:34:30.668,0.5,-0.315
2021-08-19 05:34:30.672,0.535,-0.27
2021-08-19 05:34:30.676,0.61,-0.315
2021-08-19 05:34:30.680,0.625,-0.23
2021-08-19 05:34:30.684,0.65,-0.235
2021-08-19 05:34:30.688,0.655,-0.32
2021-08-19 05:34:30.692,0.655,-0.225
2021-08-19 05:34:30.696,0.62,-0.18
2021-08-19 05:34:30.700,0.555,-0.16
2021-08-19 05:34:30.704,0.59,-0.25
2021-08-19 05:34:30.708,0.61,-0.34
2021-08-19 05:34:30.712,0.6,-0.21
2021-08-19 05:34:30.716,0.605,-0.09
2021-08-19 05:34:30.720,0.57,-0.09
2021-08-19 05:34:30.724,0.545,-0.115
2021-08-19 05:34:30.728,0.51,-0.045
2021-08-19 05:34:30.732,0.5,-0.075
2021-08-19 05:34:30.736,0.435,-0.105
2021-08-19 05:34:30.740,0.395,-0.125
2021-08-19 05:34:30.744,0.345,-0.115
2021-08-19 05:34:30.748,0.36,-0.16
2021-08-19 05:34:30.752,0.325,-0.055
2021-08-19 05:34:30.756,0.28,-0.03
2021-08-19 05:34:30.760,0.25,0.005
2021-08-19 05:34:30.764,0.175,0.02
2021-08-19 05:34:30.768,0.08,0.04
2021-08-19 05:34:30.772,0.035,-0.02
2021-08-19 05:34:30.776,0.035,-0.11
2021-08-19 05:34:30.780,-0.01,-0.195
2021-08-19 05:34:30.784,-0.035,-0.1
2021-08-19 05:34:30.788,-0.065,-0.05
2021-08-19 05:34:30.792,-0.13,0.005
2021-08-19 05:34:30.796,-0.175,-0.08
2021-08-19 05:34:30.800,-0.17,-0.23
2021-08-19 05:34:30.804,-0.215,-0.25
2021-08-19 05:34:30.808,-0.205,-0.205
2021-08-19 05:34:30.812,-0.185,-0.14
2021-08-19 05:34:30.816,-0.205,-0.09
2021-08-19 05:34:30.820,-0.235,-0.165
2021-08-19 05:34:30.824,-0.215,-0.26
2021-08-19 05:34:30.828,-0.24,-0.24
2021-08-19 05:34:30.832,-0.3,-0.115
2021-08-19 05:34:30.836,-0.315,-0.145
2021-08-19 05:34:30.840,-0.3,-0.315
2021-08-19 05:34:30.844,-0.27,-0.31
2021-08-19 05:34:30.848,-0.27,-0.24
2021-08-19 05:34:30.852,-0.31,-0.265
2021-08-19 05:34:30.856,-0.3,-0.33
2021-08-19 05:34:30.860,-0.26,-0.365
2021-08-19 05:34:30.864,-0.29,-0.3
2021-08-19 05:34:30.868,-0.29,-0.315
2021-08-19 05:34:30.872,-0.265,-0.41
2021-08-19 05:34:30.876,-0.26,-0.36
2021-08-19 05:34:30.880,-0.27,-0.29
2021-08-19 05:34:30.884,-0.33,-0.355
2021-08-19 05:34:30.888,-0.335,-0.4
2021-08-19 05:34:30.892,-0.35,-0.42
2021-08-19 05:34:30.896,-0.355,-0.375
2021-08-19 05:34:30.900,-0.385,-0.415
2021-08-19 05:34:30.904,-0.385,-0.46
2021-08-19 05:34:30.908,-0.425,-0.48
2021-08-19 05:34:30.912,-0.445,-0.525
2021-08-19 05:34:30.916,-0.385,-0.52
2021-08-19 05:34:30.920,-0.34,-0.48
2021-08-19 05:34:30.924,-0.355,-0.45
2021-08-19 05:34:30.928,-0.375,-0.515
2021-08-19 05:34:30.932,-0.375,-0.485
2021-08-19 05:34:30.936,-0.35,-0.46
2021-08-19 05:34:30.940,-0.38,-0.445
2021-08-19 05:34:30.944,-0.415,-0.49
2021-08-19 05:34:30.948,-0.48,-0.605
2021-08-19 05:34:30.952,-0.495,-0.61
2021-08-19 05:34:30.956,-0.455,-0.595
2021-08-19 05:34:30.960,-0.395,-0.555
2021-08-19 05:34:30.964,-0.38,-0.525
2021-08-19 05:34:30.968,-0.395,-0.5
2021-08-19 05:34:30.972,-0.43,-0.535
2021-08-19 05:34:30.976,-0.385,-0.68
2021-08-19 05:34:30.980,-0.435,-0.61
2021-08-19 05:34:30.984,-0.485,-0.55
2021-08-19 05:34:30.988,-0.49,-0.59
2021-08-19 05:34:30.992,-0.475,-0.67
2021-08-19 05:34:30.996,-0.425,-0.69
2021-08-19 05:34:31.000,-0.375,-0.69
2021-08-19 05:34:31.004,-0.4,-0.72
2021-08-19 05:34:31.008,-0.48,-0.54
2021-08-19 05:34:31.012,-0.495,-0.51
2021-08-19 05:34:31.016,-0.47,-0.52
2021-08-19 05:34:31.020,-0.395,-0.595
2021-08-19 05:34:31.024,-0.425,-0.64
2021-08-19 05:34:31.028,-0.44,-0.665
2021-08-19 05:34:31.032,-0.445,-0.72
2021-08-19 05:34:31.036,-0.47,-0.645
2021-08-19 05:34:31.040,-0.44,-0.61
2021-08-19 05:34:31.044,-0.44,-0.68
2021-08-19 05:34:31.048,-0.5,-0.615
2021-08-19 05:34:31.052,-0.5,-0.55
2021-08-19 05:34:31.056,-0.51,-0.515
2021-08-19 05:34:31.060,-0.485,-0.65
2021-08-19 05:34:31.064,-0.475,-0.75
2021-08-19 05:34:31.068,-0.465,-0.68
2021-08-19 05:34:31.072,-0.455,-0.575
2021-08-19 05:34:31.076,-0.445,-0.525
2021-08-19 05:34:31.080,-0.375,-0.505
2021-08-19 05:34:31.084,-0.345,-0.685
2021-08-19 05:34:31.088,-0.375,-0.665
2021-08-19 05:34:31.092,-0.355,-0.565
2021-08-19 05:34:31.096,-0.335,-0.445
2021-08-19 05:34:31.100,-0.295,-0.385
2021-08-19 05:34:31.104,-0.31,-0.43
2021-08-19 05:34:31.108,-0.335,-0.525
2021-08-19 05:34:31.112,-0.39,-0.535
2021-08-19 05:34:31.116,-0.38,-0.54
2021-08-19 05:34:31.120,-0.35,-0.705
2021-08-19 05:34:31.124,-0.27,-0.83
2021-08-19 05:34:31.128,-0.275,-0.695
2021-08-19 05:34:31.132,-0.35,-0.52
2021-08-19 05:34:31.136,-0.375,-0.505
2021-08-19 05:34:31.140,-0.38,-0.665
2021-08-19 05:34:31.144,-0.455,-0.715
2021-08-19 05:34:31.148,-0.48,-0.62
2021-08-19 05:34:31.152,-0.48,-0.57
2021-08-19 05:34:31.156,-0.5,-0.695
2021-08-19 05:34:31.160,-0.535,-0.78
2021-08-19 05:34:31.164,-0.555,-0.715
2021-08-19 05:34:31.168,-0.53,-0.805
2021-08-19 05:34:31.172,-0.53,-0.88
2021-08-19 05:34:31.176,-0.535,-0.785
2021-08-19 05:34:31.180,-0.545,-0.715
2021-08-19 05:34:31.184,-0.54,-0.755
2021-08-19 05:34:31.188,-0.565,-0.77
2021-08-19 05:34:31.192,-0.54,-0.78
2021-08-19 05:34:31.196,-0.565,-0.785
2021-08-19 05:34:31.200,-0.59,-0.74
2021-08-19 05:34:31.204,-0.575,-0.675
2021-08-19 05:34:31.208,-0.6,-0.71
2021-08-19 05:34:31.212,-0.61,-0.85
2021-08-19 05:34:31.216,-0.59,-0.945
2021-08-19 05:34:31.220,-0.585,-0.89
2021-08-19 05:34:31.224,-0.595,-0.775
2021-08-19 05:34:31.228,-0.61,-0.64
2021-08-19 05:34:31.232,-0.61,-0.61
2021-08-19 05:34:31.236,-0.585,-0.785
2021-08-19 05:34:31.240,-0.665,-0.87
2021-08-19 05:34:31.244,-0.76,-0.775
2021-08-19 05:34:31.248,-0.745,-0.74
2021-08-19 05:34:31.252,-0.715,-0.815
2021-08-19 05:34:31.256,-0.695,-0.82
2021-08-19 05:34:31.260,-0.64,-0.925
2021-08-19 05:34:31.264,-0.48,-1.12
2021-08-19 05:34:31.268,-0.505,-1.16
2021-08-19 05:34:31.272,-0.83,-1.15
2021-08-19 05:34:31.276,-1.04,-1.23
2021-08-19 05:34:31.280,-0.98,-1.29
2021-08-19 05:34:31.284,-1.14,-1.075
2021-08-19 05:34:31.288,-1.545,-0.615
2021-08-19 05:34:31.336,-1.855,-1.65
2021-08-19 05:34:31.340,-1.265,-1.51
2021-08-19 05:34:31.344,-0.885,-1.49
2021-08-19 05:34:31.348,-0.695,-1.15
2021-08-19 05:34:31.352,-0.59,-0.86
2021-08-19 05:34:31.356,-0.51,-0.775
2021-08-19 05:34:31.360,-0.465,-0.825
2021-08-19 05:34:31.364,-0.405,-0.82
2021-08-19 05:34:31.368,-0.37,-0.745
2021-08-19 05:34:31.372,-0.325,-0.675
2021-08-19 05:34:31.376,-0.345,-0.635
2021-08-19 05:34:31.380,-0.37,-0.57
2021-08-19 05:34:31.384,-0.415,-0.61
2021-08-19 05:34:31.388,-0.425,-0.67
2021-08-19 05:34:31.392,-0.455,-0.795
2021-08-19 05:34:31.396,-0.43,-0.845
2021-08-19 05:34:31.400,-0.375,-0.76
2021-08-19 05:34:31.404,-0.36,-0.73
2021-08-19 05:34:31.408,-0.36,-0.755
2021-08-19 05:34:31.412,-0.4,-0.66
2021-08-19 05:34:31.416,-0.365,-0.66
2021-08-19 05:34:31.420,-0.385,-0.77
2021-08-19 05:34:31.424,-0.345,-0.705
2021-08-19 05:34:31.428,-0.31,-0.715
2021-08-19 05:34:31.432,-0.29,-0.805
2021-08-19 05:34:31.436,-0.26,-0.8
2021-08-19 05:34:31.440,-0.24,-0.66
2021-08-19 05:34:31.444,-0.26,-0.605
2021-08-19 05:34:31.448,-0.25,-0.665
2021-08-19 05:34:31.452,-0.25,-0.71
2021-08-19 05:34:31.456,-0.26,-0.71
2021-08-19 05:34:31.460,-0.23,-0.765
2021-08-19 05:34:31.464,-0.16,-0.76
2021-08-19 05:34:31.468,-0.155,-0.7
2021-08-19 05:34:31.472,-0.13,-0.565
2021-08-19 05:34:31.476,-0.075,-0.55
2021-08-19 05:34:31.480,0.0,-0.64
2021-08-19 05:34:31.484,0.085,-0.765
2021-08-19 05:34:31.488,0.115,-0.69
2021-08-19 05:34:31.492,0.115,-0.59
2021-08-19 05:34:31.496,0.12,-0.545
2021-08-19 05:34:31.500,0.17,-0.445
2021-08-19 05:34:31.504,0.21,-0.415
2021-08-19 05:34:31.508,0.225,-0.46
2021-08-19 05:34:31.512,0.195,-0.445
2021-08-19 05:34:31.516,0.18,-0.39
2021-08-19 05:34:31.520,0.19,-0.34
2021-08-19 05:34:31.524,0.225,-0.415
2021-08-19 05:34:31.528,0.26,-0.44
2021-08-19 05:34:31.532,0.26,-0.405
2021-08-19 05:34:31.536,0.255,-0.41
2021-08-19 05:34:31.540,0.24,-0.45
2021-08-19 05:34:31.544,0.23,-0.365
2021-08-19 05:34:31.548,0.215,-0.26
2021-08-19 05:34:31.552,0.215,-0.24
2021-08-19 05:34:31.556,0.235,-0.375
2021-08-19 05:34:31.560,0.255,-0.41
2021-08-19 05:34:31.564,0.25,-0.34
2021-08-19 05:34:31.568,0.215,-0.325
2021-08-19 05:34:31.572,0.105,-0.3
2021-08-19 05:34:31.576,0.055,-0.21
2021-08-19 05:34:31.580,0.075,-0.09
2021-08-19 05:34:31.584,0.02,-0.2
2021-08-19 05:34:31.588,-0.01,-0.405
2021-08-19 05:34:31.592,-0.03,-0.35
2021-08-19 05:34:31.596,-0.12,-0.19
2021-08-19 05:34:31.600,-0.16,-0.19
2021-08-19 05:34:31.604,-0.165,-0.225
2021-08-19 05:34:31.608,-0.205,-0.205
2021-08-19 05:34:31.612,-0.29,-0.13
2021-08-19 05:34:31.616,-0.38,-0.215
2021-08-19 05:34:31.620,-0.39,-0.245
2021-08-19 05:34:31.624,-0.385,-0.335
2021-08-19 05:34:31.628,-0.33,-0.36
2021-08-19 05:34:31.632,-0.4,-0.24
2021-08-19 05:34:31.636,-0.48,-0.23
2021-08-19 05:34:31.640,-0.48,-0.245
2021-08-19 05:34:31.644,-0.45,-0.355
2021-08-19 05:34:31.648,-0.46,-0.39
2021-08-19 05:34:31.652,-0.525,-0.275
2021-08-19 05:34:31.656,-0.54,-0.24
2021-08-19 05:34:31.660,-0.535,-0.395
2021-08-19 05:34:31.664,-0.5,-0.5
2021-08-19 05:34:31.668,-0.525,-0.48
2021-08-19 05:34:31.672,-0.57,-0.475
2021-08-19 05:34:31.676,-0.565,-0.475
2021-08-19 05:34:31.680,-0.53,-0.45
2021-08-19 05:34:31.684,-0.54,-0.4
2021-08-19 05:34:31.688,-0.52,-0.385
2021-08-19 05:34:31.692,-0.535,-0.4
2021-08-19 05:34:31.696,-0.55,-0.505
2021-08-19 05:34:31.700,-0.55,-0.465
2021-08-19 05:34:31.704,-0.57,-0.445
2021-08-19 05:34:31.708,-0.585,-0.495
2021-08-19 05:34:31.712,-0.59,-0.5
2021-08-19 05:34:31.716,-0.585,-0.58
2021-08-19 05:34:31.720,-0.59,-0.585
2021-08-19 05:34:31.724,-0.61,-0.53
2021-08-19 05:34:31.728,-0.595,-0.545
2021-08-19 05:34:31.732,-0.605,-0.585
2021-08-19 05:34:31.736,-0.625,-0.59
2021-08-19 05:34:31.740,-0.615,-0.495
2021-08-19 05:34:31.744,-0.595,-0.465
2021-08-19 05:34:31.748,-0.6,-0.6
2021-08-19 05:34:31.752,-0.6,-0.705
2021-08-19 05:34:31.756,-0.615,-0.675
2021-08-19 05:34:31.760,-0.615,-0.575
2021-08-19 05:34:31.764,-0.62,-0.54
2021-08-19 05:34:31.768,-0.655,-0.5
2021-08-19 05:34:31.772,-0.725,-0.59
2021-08-19 05:34:31.776,-0.665,-0.655
2021-08-19 05:34:31.780,-0.585,-0.645
2021-08-19 05:34:31.784,-0.615,-0.695
2021-08-19 05:34:31.788,-0.63,-0.68
2021-08-19 05:34:31.792,-0.625,-0.67
2021-08-19 05:34:31.796,-0.66,-0.645
2021-08-19 05:34:31.800,-0.665,-0.59
2021-08-19 05:34:31.804,-0.63,-0.605
2021-08-19 05:34:31.808,-0.6,-0.67
2021-08-19 05:34:31.812,-0.6,-0.575
2021-08-19 05:34:31.816,-0.625,-0.565
2021-08-19 05:34:31.820,-0.635,-0.615
2021-08-19 05:34:31.824,-0.625,-0.745
2021-08-19 05:34:31.828,-0.61,-0.77
2021-08-19 05:34:31.832,-0.64,-0.665
2021-08-19 05:34:31.836,-0.65,-0.635
2021-08-19 05:34:31.840,-0.655,-0.61
2021-08-19 05:34:31.844,-0.655,-0.65
2021-08-19 05:34:31.848,-0.62,-0.59
2021-08-19 05:34:31.852,-0.625,-0.57
2021-08-19 05:34:31.856,-0.655,-0.63
2021-08-19 05:34:31.860,-0.69,-0.655
2021-08-19 05:34:31.864,-0.6,-0.63
2021-08-19 05:34:31.868,-0.545,-0.605
2021-08-19 05:34:31.872,-0.565,-0.675
2021-08-19 05:34:31.876,-0.6,-0.64
2021-08-19 05:34:31.880,-0.6,-0.62
2021-08-19 05:34:31.884,-0.575,-0.64
2021-08-19 05:34:31.888,-0.56,-0.585
2021-08-19 05:34:31.892,-0.52,-0.635
2021-08-19 05:34:31.896,-0.49,-0.715
2021-08-19 05:34:31.900,-0.39,-0.675
2021-08-19 05:34:31.904,-0.395,-0.585
2021-08-19 05:34:31.908,-0.425,-0.52
2021-08-19 05:34:31.912,-0.455,-0.455
2021-08-19 05:34:31.916,-0.445,-0.495
2021-08-19 05:34:31.920,-0.395,-0.57
2021-08-19 05:34:31.924,-0.34,-0.59
2021-08-19 05:34:31.928,-0.35,-0.45
2021-08-19 05:34:31.932,-0.36,-0.375
2021-08-19 05:34:31.936,-0.33,-0.485
2021-08-19 05:34:31.940,-0.305,-0.64
2021-08-19 05:34:31.944,-0.265,-0.615
2021-08-19 05:34:31.948,-0.295,-0.52
2021-08-19 05:34:31.952,-0.285,-0.46
2021-08-19 05:34:31.956,-0.3,-0.485
2021-08-19 05:34:31.960,-0.36,-0.595
2021-08-19 05:34:31.964,-0.435,-0.615
2021-08-19 05:34:31.968,-0.435,-0.59
2021-08-19 05:34:31.972,-0.4,-0.605
2021-08-19 05:34:31.976,-0.47,-0.695
2021-08-19 05:34:31.980,-0.51,-0.685
2021-08-19 05:34:31.984,-0.475,-0.64
2021-08-19 05:34:31.988,-0.475,-0.64
2021-08-19 05:34:31.992,-0.52,-0.7
2021-08-19 05:34:31.996,-0.555,-0.74
2021-08-19 05:34:32.000,-0.515,-0.685
2021-08-19 05:34:32.004,-0.545,-0.665
2021-08-19 05:34:32.008,-0.575,-0.63
2021-08-19 05:34:32.012,-0.585,-0.62
2021-08-19 05:34:32.016,-0.565,-0.64
2021-08-19 05:34:32.020,-0.575,-0.695
2021-08-19 05:34:32.024,-0.59,-0.765
2021-08-19 05:34:32.028,-0.525,-0.805
2021-08-19 05:34:32.032,-0.525,-0.76
2021-08-19 05:34:32.036,-0.545,-0.7
2021-08-19 05:34:32.040,-0.585,-0.595
2021-08-19 05:34:32.044,-0.585,-0.605
2021-08-19 05:34:32.048,-0.555,-0.63
2021-08-19 05:34:32.052,-0.625,-0.715
2021-08-19 05:34:32.056,-0.62,-0.69
2021-08-19 05:34:32.060,-0.595,-0.74
2021-08-19 05:34:32.064,-0.59,-0.76
2021-08-19 05:34:32.068,-0.62,-0.72
2021-08-19 05:34:32.072,-0.695,-0.705
2021-08-19 05:34:32.076,-0.665,-0.66
2021-08-19 05:34:32.080,-0.61,-0.675
2021-08-19 05:34:32.084,-0.615,-0.745
2021-08-19 05:34:32.088,-0.48,-0.785
2021-08-19 05:34:32.092,-0.425,-0.97
2021-08-19 05:34:32.096,-0.775,-1.11
2021-08-19 05:34:32.100,-1.06,-1.115
2021-08-19 05:34:32.104,-1.01,-1.16
2021-08-19 05:34:32.108,-1.055,-1.07
2021-08-19 05:34:32.112,-1.415,-0.735
2021-08-19 05:34:32.116,-1.87,-0.365
2021-08-19 05:34:32.160,-1.845,-1.735
2021-08-19 05:34:32.164,-1.345,-1.415
2021-08-19 05:34:32.168,-0.995,-1.165
2021-08-19 05:34:32.172,-0.73,-1.015
2021-08-19 05:34:32.176,-0.515,-0.845
2021-08-19 05:34:32.180,-0.385,-0.69
2021-08-19 05:34:32.184,-0.33,-0.57
2021-08-19 05:34:32.188,-0.32,-0.55
2021-08-19 05:34:32.192,-0.335,-0.56
2021-08-19 05:34:32.196,-0.34,-0.615
2021-08-19 05:34:32.200,-0.295,-0.62
2021-08-19 05:34:32.204,-0.31,-0.63
2021-08-19 05:34:32.208,-0.25,-0.61
2021-08-19 05:34:32.212,-0.26,-0.61
2021-08-19 05:34:32.216,-0.25,-0.59
2021-08-19 05:34:32.220,-0.25,-0.58
2021-08-19 05:34:32.224,-0.26,-0.545
2021-08-19 05:34:32.228,-0.29,-0.51
2021-08-19 05:34:32.232,-0.295,-0.58
2021-08-19 05:34:32.236,-0.29,-0.645
2021-08-19 05:34:32.240,-0.29,-0.675
2021-08-19 05:34:32.244,-0.25,-0.675
2021-08-19 05:34:32.248,-0.22,-0.615
2021-08-19 05:34:32.252,-0.21,-0.59
2021-08-19 05:34:32.256,-0.195,-0.6
2021-08-19 05:34:32.260,-0.21,-0.595
2021-08-19 05:34:32.264,-0.205,-0.585
2021-08-19 05:34:32.268,-0.16,-0.635
2021-08-19 05:34:32.272,-0.12,-0.69
2021-08-19 05:34:32.276,-0.165,-0.655
2021-08-19 05:34:32.280,-0.145,-0.59
2021-08-19 05:34:32.284,-0.16,-0.56
2021-08-19 05:34:32.288,-0.085,-0.64
2021-08-19 05:34:32.292,0.03,-0.655
2021-08-19 05:34:32.296,0.04,-0.615
2021-08-19 05:34:32.300,0.035,-0.6
2021-08-19 05:34:32.304,0.045,-0.535
2021-08-19 05:34:32.308,0.105,-0.495
2021-08-19 05:34:32.312,0.1,-0.465
2021-08-19 05:34:32.316,0.09,-0.375
2021-08-19 05:34:32.320,0.115,-0.37
2021-08-19 05:34:32.324,0.225,-0.56
2021-08-19 05:34:32.328,0.31,-0.555
2021-08-19 05:34:32.332,0.305,-0.455
2021-08-19 05:34:32.336,0.325,-0.375
2021-08-19 05:34:32.340,0.375,-0.335
2021-08-19 05:34:32.344,0.36,-0.305
2021-08-19 05:34:32.348,0.335,-0.275
2021-08-19 05:34:32.352,0.335,-0.32
2021-08-19 05:34:32.356,0.39,-0.355
2021-08-19 05:34:32.360,0.39,-0.29
2021-08-19 05:34:32.364,0.38,-0.195
2021-08-19 05:34:32.368,0.38,-0.2
2021-08-19 05:34:32.372,0.38,-0.26
2021-08-19 05:34:32.376,0.35,-0.27
2021-08-19 05:34:32.380,0.315,-0.29
2021-08-19 05:34:32.384,0.275,-0.295
2021-08-19 05:34:32.388,0.3,-0.225
2021-08-19 05:34:32.392,0.28,-0.2
2021-08-19 05:34:32.396,0.27,-0.17
2021-08-19 05:34:32.400,0.225,-0.13
2021-08-19 05:34:32.404,0.17,-0.105
2021-08-19 05:34:32.408,0.155,-0.2
2021-08-19 05:34:32.412,0.075,-0.205
2021-08-19 05:34:32.416,-0.01,-0.215
2021-08-19 05:34:32.420,-0.03,-0.185
2021-08-19 05:34:32.424,-0.055,-0.125
2021-08-19 05:34:32.428,-0.135,-0.05
2021-08-19 05:34:32.432,-0.135,-0.045
2021-08-19 05:34:32.436,-0.175,-0.13
2021-08-19 05:34:32.440,-0.245,-0.175
2021-08-19 05:34:32.444,-0.27,-0.205
2021-08-19 05:34:32.448,-0.295,-0.185
2021-08-19 05:34:32.452,-0.345,-0.225
2021-08-19 05:34:32.456,-0.345,-0.185
2021-08-19 05:34:32.460,-0.39,-0.14
2021-08-19 05:34:32.464,-0.395,-0.16
2021-08-19 05:34:32.468,-0.455,-0.27
2021-08-19 05:34:32.472,-0.465,-0.31
2021-08-19 05:34:32.476,-0.43,-0.24
2021-08-19 05:34:32.480,-0.395,-0.2
2021-08-19 05:34:32.484,-0.45,-0.27
2021-08-19 05:34:32.488,-0.47,-0.355
2021-08-19 05:34:32.492,-0.505,-0.31
2021-08-19 05:34:32.496,-0.515,-0.295
2021-08-19 05:34:32.500,-0.515,-0.25
2021-08-19 05:34:32.504,-0.52,-0.38
2021-08-19 05:34:32.508,-0.44,-0.47
2021-08-19 05:34:32.512,-0.455,-0.35
2021-08-19 05:34:32.516,-0.45,-0.32
2021-08-19 05:34:32.520,-0.5,-0.36
2021-08-19 05:34:32.524,-0.52,-0.45
2021-08-19 05:34:32.528,-0.5,-0.505
2021-08-19 05:34:32.532,-0.48,-0.355
2021-08-19 05:34:32.536,-0.48,-0.32
2021-08-19 05:34:32.540,-0.55,-0.345
2021-08-19 05:34:32.544,-0.53,-0.425
2021-08-19 05:34:32.548,-0.52,-0.54
2021-08-19 05:34:32.552,-0.545,-0.56
2021-08-19 05:34:32.556,-0.585,-0.445
2021-08-19 05:34:32.560,-0.605,-0.4
2021-08-19 05:34:32.564,-0.545,-0.42
2021-08-19 05:34:32.568,-0.535,-0.495
2021-08-19 05:34:32.572,-0.535,-0.575
2021-08-19 05:34:32.576,-0.585,-0.59
2021-08-19 05:34:32.580,-0.605,-0.5
2021-08-19 05:34:32.584,-0.595,-0.585
2021-08-19 05:34:32.588,-0.55,-0.58
2021-08-19 05:34:32.592,-0.55,-0.55
2021-08-19 05:34:32.596,-0.585,-0.48
2021-08-19 05:34:32.600,-0.6,-0.52
2021-08-19 05:34:32.604,-0.6,-0.505
2021-08-19 05:34:32.608,-0.61,-0.515
2021-08-19 05:34:32.612,-0.595,-0.545
2021-08-19 05:34:32.616,-0.58,-0.65
2021-08-19 05:34:32.620,-0.61,-0.655
2021-08-19 05:34:32.624,-0.625,-0.665
2021-08-19 05:34:32.628,-0.675,-0.63
2021-08-19 05:34:32.632,-0.59,-0.56
2021-08-19 05:34:32.636,-0.595,-0.44
2021-08-19 05:34:32.640,-0.635,-0.465
2021-08-19 05:34:32.644,-0.64,-0.575
2021-08-19 05:34:32.648,-0.615,-0.705
2021-08-19 05:34:32.652,-0.625,-0.68
2021-08-19 05:34:32.656,-0.64,-0.6
2021-08-19 05:34:32.660,-0.68,-0.565
2021-08-19 05:34:32.664,-0.665,-0.595
2021-08-19 05:34:32.668,-0.635,-0.635
2021-08-19 05:34:32.672,-0.585,-0.545
2021-08-19 05:34:32.676,-0.6,-0.5
2021-08-19 05:34:32.680,-0.63,-0.55
2021-08-19 05:34:32.684,-0.665,-0.585
2021-08-19 05:34:32.688,-0.685,-0.56
2021-08-19 05:34:32.692,-0.64,-0.61
2021-08-19 05:34:32.696,-0.63,-0.715
2021-08-19 05:34:32.700,-0.675,-0.625
2021-08-19 05:34:32.704,-0.68,-0.605
2021-08-19 05:34:32.708,-0.64,-0.64
2021-08-19 05:34:32.712,-0.56,-0.545
2021-08-19 05:34:32.716,-0.56,-0.58
2021-08-19 05:34:32.720,-0.515,-0.55
2021-08-19 05:34:32.724,-0.565,-0.56
2021-08-19 05:34:32.728,-0.57,-0.38
2021-08-19 05:34:32.732,-0.56,-0.385
2021-08-19 05:34:32.736,-0.555,-0.48
2021-08-19 05:34:32.740,-0.59,-0.5
2021-08-19 05:34:32.744,-0.585,-0.435
2021-08-19 05:34:32.748,-0.54,-0.475
2021-08-19 05:34:32.752,-0.48,-0.605
2021-08-19 05:34:32.756,-0.425,-0.535
2021-08-19 05:34:32.760,-0.42,-0.57
2021-08-19 05:34:32.764,-0.44,-0.54
2021-08-19 05:34:32.768,-0.5,-0.455
2021-08-19 05:34:32.772,-0.49,-0.425
2021-08-19 05:34:32.776,-0.51,-0.48
2021-08-19 05:34:32.780,-0.535,-0.495
2021-08-19 05:34:32.784,-0.6,-0.46
2021-08-19 05:34:32.788,-0.555,-0.535
2021-08-19 05:34:32.792,-0.545,-0.7
2021-08-19 05:34:32.796,-0.585,-0.705
2021-08-19 05:34:32.800,-0.64,-0.685
2021-08-19 05:34:32.804,-0.64,-0.61
2021-08-19 05:34:32.808,-0.63,-0.535
2021-08-19 05:34:32.812,-0.64,-0.51
2021-08-19 05:34:32.816,-0.66,-0.58
2021-08-19 05:34:32.820,-0.665,-0.6
2021-08-19 05:34:32.824,-0.655,-0.65
2021-08-19 05:34:32.828,-0.68,-0.57
2021-08-19 05:34:32.832,-0.685,-0.535
2021-08-19 05:34:32.836,-0.685,-0.705
2021-08-19 05:34:32.840,-0.68,-0.715
2021-08-19 05:34:32.844,-0.68,-0.71
2021-08-19 05:34:32.848,-0.705,-0.6
2021-08-19 05:34:32.852,-0.71,-0.53
2021-08-19 05:34:32.856,-0.68,-0.745
2021-08-19 05:34:32.860,-0.68,-0.775
2021-08-19 05:34:32.864,-0.69,-0.625
2021-08-19 05:34:32.868,-0.71,-0.54
2021-08-19 05:34:32.872,-0.675,-0.63
2021-08-19 05:34:32.876,-0.695,-0.665
2021-08-19 05:34:32.880,-0.695,-0.62
2021-08-19 05:34:32.884,-0.75,-0.595
2021-08-19 05:34:32.888,-0.8,-0.62
2021-08-19 05:34:32.892,-0.865,-0.68
2021-08-19 05:34:32.896,-0.79,-0.595
2021-08-19 05:34:32.900,-0.74,-0.495
2021-08-19 05:34:32.904,-0.715,-0.64
2021-08-19 05:34:32.908,-0.525,-0.79
2021-08-19 05:34:32.912,-0.35,-1.035
2021-08-19 05:34:32.916,-0.61,-1.08
2021-08-19 05:34:32.920,-1.0,-0.915
2021-08-19 05:34:32.924,-0.945,-0.96
2021-08-19 05:34:32.928,-0.965,-0.995
2021-08-19 05:34:32.932,-1.265,-0.67
2021-08-19 05:34:32.936,-1.76,-0.155
2021-08-19 05:34:32.980,-1.82,-1.59
2021-08-19 05:34:32.984,-1.38,-1.56
2021-08-19 05:34:32.988,-1.03,-1.25
2021-08-19 05:34:32.992,-0.83,-0.97
2021-08-19 05:34:32.996,-0.67,-0.69
2021-08-19 05:34:33.000,-0.54,-0.68
2021-08-19 05:34:33.004,-0.505,-0.68
2021-08-19 05:34:33.008,-0.5,-0.55
2021-08-19 05:34:33.012,-0.455,-0.585
2021-08-19 05:34:33.016,-0.42,-0.575
2021-08-19 05:34:33.020,-0.445,-0.445
2021-08-19 05:34:33.024,-0.45,-0.41
2021-08-19 05:34:33.028,-0.42,-0.535
2021-08-19 05:34:33.032,-0.4,-0.72
2021-08-19 05:34:33.036,-0.395,-0.63
2021-08-19 05:34:33.040,-0.415,-0.52
2021-08-19 05:34:33.044,-0.41,-0.545
2021-08-19 05:34:33.048,-0.405,-0.575
2021-08-19 05:34:33.052,-0.375,-0.485
2021-08-19 05:34:33.056,-0.36,-0.53
2021-08-19 05:34:33.060,-0.37,-0.62
2021-08-19 05:34:33.064,-0.36,-0.59
2021-08-19 05:34:33.068,-0.365,-0.515
2021-08-19 05:34:33.072,-0.345,-0.575
2021-08-19 05:34:33.076,-0.345,-0.645
2021-08-19 05:34:33.080,-0.305,-0.64
2021-08-19 05:34:33.084,-0.32,-0.59
2021-08-19 05:34:33.088,-0.255,-0.51
2021-08-19 05:34:33.092,-0.22,-0.52
2021-08-19 05:34:33.096,-0.205,-0.51
2021-08-19 05:34:33.100,-0.155,-0.54
2021-08-19 05:34:33.104,-0.145,-0.55
2021-08-19 05:34:33.108,-0.17,-0.485
2021-08-19 05:34:33.112,-0.155,-0.41
2021-08-19 05:34:33.116,-0.1,-0.435
2021-08-19 05:34:33.120,-0.085,-0.465
2021-08-19 05:34:33.124,-0.005,-0.43
2021-08-19 05:34:33.128,0.035,-0.51
2021-08-19 05:34:33.132,0.085,-0.515
2021-08-19 05:34:33.136,0.145,-0.4
2021-08-19 05:34:33.140,0.19,-0.3
2021-08-19 05:34:33.144,0.215,-0.25
2021-08-19 05:34:33.148,0.21,-0.29
2021-08-19 05:34:33.152,0.195,-0.34
2021-08-19 05:34:33.156,0.245,-0.195
2021-08-19 05:34:33.160,0.25,-0.05
2021-08-19 05:34:33.164,0.235,-0.015
2021-08-19 05:34:33.168,0.27,-0.28
2021-08-19 05:34:33.172,0.295,-0.475
2021-08-19 05:34:33.176,0.335,-0.345
2021-08-19 05:34:33.180,0.335,-0.155
2021-08-19 05:34:33.184,0.335,-0.075
2021-08-19 05:34:33.188,0.3,0.005
2021-08-19 05:34:33.192,0.255,0.025
2021-08-19 05:34:33.196,0.28,-0.06
2021-08-19 05:34:33.200,0.305,-0.27
2021-08-19 05:34:33.204,0.245,-0.215
2021-08-19 05:34:33.208,0.215,-0.105
2021-08-19 05:34:33.212,0.16,-0.055
2021-08-19 05:34:33.216,0.15,-0.015
2021-08-19 05:34:33.220,0.14,-0.015
2021-08-19 05:34:33.224,0.125,-0.005
2021-08-19 05:34:33.228,0.07,-0.025
2021-08-19 05:34:33.232,-0.01,-0.065
2021-08-19 05:34:33.236,-0.06,-0.02
2021-08-19 05:34:33.240,-0.075,0.025
2021-08-19 05:34:33.244,-0.145,0.025
2021-08-19 05:34:33.248,-0.2,-0.01
2021-08-19 05:34:33.252,-0.285,-0.11
2021-08-19 05:34:33.256,-0.305,-0.095
2021-08-19 05:34:33.260,-0.335,0.0
2021-08-19 05:34:33.264,-0.32,0.005
2021-08-19 05:34:33.268,-0.36,-0.02
2021-08-19 05:34:33.272,-0.38,-0.03
2021-08-19 05:34:33.276,-0.44,-0.015
2021-08-19 05:34:33.280,-0.455,-0.05
2021-08-19 05:34:33.284,-0.49,-0.07
2021-08-19 05:34:33.288,-0.51,-0.135
2021-08-19 05:34:33.292,-0.515,-0.18
2021-08-19 05:34:33.296,-0.515,-0.19
2021-08-19 05:34:33.300,-0.55,-0.15
2021-08-19 05:34:33.304,-0.55,-0.03
2021-08-19 05:34:33.308,-0.585,-0.14
2021-08-19 05:34:33.312,-0.555,-0.24
2021-08-19 05:34:33.316,-0.51,-0.225
2021-08-19 05:34:33.320,-0.5,-0.12
2021-08-19 05:34:33.324,-0.535,-0.12
2021-08-19 05:34:33.328,-0.575,-0.23
2021-08-19 05:34:33.332,-0.555,-0.295
2021-08-19 05:34:33.336,-0.53,-0.335
2021-08-19 05:34:33.340,-0.545,-0.315
2021-08-19 05:34:33.344,-0.555,-0.175
2021-08-19 05:34:33.348,-0.56,-0.145
2021-08-19 05:34:33.352,-0.6,-0.28
2021-08-19 05:34:33.356,-0.595,-0.33
2021-08-19 05:34:33.360,-0.59,-0.24
2021-08-19 05:34:33.364,-0.605,-0.31
2021-08-19 05:34:33.368,-0.585,-0.445
2021-08-19 05:34:33.372,-0.61,-0.42
2021-08-19 05:34:33.376,-0.63,-0.425
2021-08-19 05:34:33.380,-0.58,-0.465
2021-08-19 05:34:33.384,-0.585,-0.45
2021-08-19 05:34:33.388,-0.625,-0.375
2021-08-19 05:34:33.392,-0.635,-0.335
2021-08-19 05:34:33.396,-0.66,-0.37
2021-08-19 05:34:33.400,-0.705,-0.36
2021-08-19 05:34:33.404,-0.64,-0.42
2021-08-19 05:34:33.408,-0.595,-0.52
2021-08-19 05:34:33.412,-0.595,-0.57
2021-08-19 05:34:33.416,-0.61,-0.535
2021-08-19 05:34:33.420,-0.605,-0.44
2021-08-19 05:34:33.424,-0.595,-0.435
2021-08-19 05:34:33.428,-0.655,-0.435
2021-08-19 05:34:33.432,-0.675,-0.5
2021-08-19 05:34:33.436,-0.67,-0.575
2021-08-19 05:34:33.440,-0.655,-0.495
2021-08-19 05:34:33.444,-0.665,-0.425
2021-08-19 05:34:33.448,-0.645,-0.48
2021-08-19 05:34:33.452,-0.66,-0.655
2021-08-19 05:34:33.456,-0.64,-0.67
2021-08-19 05:34:33.460,-0.62,-0.565
2021-08-19 05:34:33.464,-0.66,-0.52
2021-08-19 05:34:33.468,-0.655,-0.47
2021-08-19 05:34:33.472,-0.68,-0.48
2021-08-19 05:34:33.476,-0.7,-0.57
2021-08-19 05:34:33.480,-0.7,-0.56
2021-08-19 05:34:33.484,-0.66,-0.55
2021-08-19 05:34:33.488,-0.64,-0.625
2021-08-19 05:34:33.492,-0.6,-0.68
2021-08-19 05:34:33.496,-0.605,-0.655
2021-08-19 05:34:33.500,-0.635,-0.62
2021-08-19 05:34:33.504,-0.61,-0.55
2021-08-19 05:34:33.508,-0.625,-0.515
2021-08-19 05:34:33.512,-0.64,-0.525
2021-08-19 05:34:33.516,-0.66,-0.565
2021-08-19 05:34:33.520,-0.63,-0.54
2021-08-19 05:34:33.524,-0.64,-0.625
2021-08-19 05:34:33.528,-0.67,-0.645
2021-08-19 05:34:33.532,-0.675,-0.665
2021-08-19 05:34:33.536,-0.655,-0.705
2021-08-19 05:34:33.540,-0.61,-0.665
2021-08-19 05:34:33.544,-0.535,-0.54
2021-08-19 05:34:33.548,-0.52,-0.455
2021-08-19 05:34:33.552,-0.555,-0.425
2021-08-19 05:34:33.556,-0.56,-0.48
2021-08-19 05:34:33.560,-0.52,-0.565
2021-08-19 05:34:33.564,-0.49,-0.5
2021-08-19 05:34:33.568,-0.485,-0.425
2021-08-19 05:34:33.572,-0.48,-0.41
2021-08-19 05:34:33.576,-0.5,-0.605
2021-08-19 05:34:33.580,-0.445,-0.765
2021-08-19 05:34:33.584,-0.41,-0.69
2021-08-19 05:34:33.588,-0.39,-0.585
2021-08-19 05:34:33.592,-0.44,-0.53
2021-08-19 05:34:33.596,-0.48,-0.42
2021-08-19 05:34:33.600,-0.505,-0.475
2021-08-19 05:34:33.604,-0.465,-0.69
2021-08-19 05:34:33.608,-0.555,-0.67
2021-08-19 05:34:33.612,-0.58,-0.635
2021-08-19 05:34:33.616,-0.605,-0.575
2021-08-19 05:34:33.620,-0.6,-0.67
2021-08-19 05:34:33.624,-0.64,-0.825
2021-08-19 05:34:33.628,-0.64,-0.735
2021-08-19 05:34:33.632,-0.635,-0.665
2021-08-19 05:34:33.636,-0.65,-0.67
2021-08-19 05:34:33.640,-0.685,-0.665
2021-08-19 05:34:33.644,-0.685,-0.645
2021-08-19 05:34:33.648,-0.715,-0.655
2021-08-19 05:34:33.652,-0.74,-0.715
2021-08-19 05:34:33.656,-0.69,-0.81
2021-08-19 05:34:33.660,-0.715,-0.86
2021-08-19 05:34:33.664,-0.68,-0.86
2021-08-19 05:34:33.668,-0.61,-0.75
2021-08-19 05:34:33.672,-0.65,-0.655
2021-08-19 05:34:33.676,-0.665,-0.67
2021-08-19 05:34:33.680,-0.665,-0.765
2021-08-19 05:34:33.684,-0.625,-0.77
2021-08-19 05:34:33.688,-0.635,-0.775
2021-08-19 05:34:33.692,-0.665,-0.74
2021-08-19 05:34:33.696,-0.69,-0.655
2021-08-19 05:34:33.700,-0.67,-0.78
2021-08-19 05:34:33.704,-0.69,-0.89
2021-08-19 05:34:33.708,-0.72,-0.865
2021-08-19 05:34:33.712,-0.79,-0.785
2021-08-19 05:34:33.716,-0.79,-0.81
2021-08-19 05:34:33.720,-0.67,-0.78
2021-08-19 05:34:33.724,-0.66,-0.755
2021-08-19 05:34:33.728,-0.595,-0.84
2021-08-19 05:34:33.732,-0.425,-0.985
2021-08-19 05:34:33.736,-0.58,-1.285
2021-08-19 05:34:33.740,-1.025,-1.26
2021-08-19 05:34:33.744,-1.205,-1.13
2021-08-19 05:34:33.748,-1.08,-1.215
2021-08-19 05:34:33.752,-1.27,-1.16
2021-08-19 05:34:33.756,-1.66,-0.775
2021-08-19 05:34:33.804,-1.73,-1.64
2021-08-19 05:34:33.808,-1.265,-1.41
2021-08-19 05:34:33.812,-0.9,-1.3
2021-08-19 05:34:33.816,-0.67,-1.06
2021-08-19 05:34:33.820,-0.51,-0.8
2021-08-19 05:34:33.824,-0.45,-0.705
2021-08-19 05:34:33.828,-0.43,-0.69
2021-08-19 05:34:33.832,-0.42,-0.65
2021-08-19 05:34:33.836,-0.375,-0.63
2021-08-19 05:34:33.840,-0.3,-0.705
2021-08-19 05:34:33.844,-0.315,-0.69
2021-08-19 05:34:33.848,-0.335,-0.65
2021-08-19 05:34:33.852,-0.34,-0.66
2021-08-19 05:34:33.856,-0.305,-0.65
2021-08-19 05:34:33.860,-0.3,-0.56
2021-08-19 05:34:33.864,-0.285,-0.6
2021-08-19 05:34:33.868,-0.26,-0.71
2021-08-19 05:34:33.872,-0.275,-0.675
2021-08-19 05:34:33.876,-0.295,-0.64
2021-08-19 05:34:33.880,-0.3,-0.585
2021-08-19 05:34:33.884,-0.285,-0.58
2021-08-19 05:34:33.888,-0.255,-0.655
2021-08-19 05:34:33.892,-0.265,-0.73
2021-08-19 05:34:33.896,-0.27,-0.7
2021-08-19 05:34:33.900,-0.28,-0.675
2021-08-19 05:34:33.904,-0.215,-0.67
2021-08-19 05:34:33.908,-0.16,-0.65
2021-08-19 05:34:33.912,-0.09,-0.635
2021-08-19 05:34:33.916,-0.08,-0.63
2021-08-19 05:34:33.920,-0.04,-0.595
2021-08-19 05:34:33.924,-0.045,-0.57
2021-08-19 05:34:33.928,-0.025,-0.52
2021-08-19 05:34:33.932,0.01,-0.495
2021-08-19 05:34:33.936,-0.025,-0.555
2021-08-19 05:34:33.940,0.005,-0.6
2021-08-19 05:34:33.944,0.085,-0.545
2021-08-19 05:34:33.948,0.155,-0.575
2021-08-19 05:34:33.952,0.165,-0.575
2021-08-19 05:34:33.956,0.275,-0.49
2021-08-19 05:34:33.960,0.26,-0.385
2021-08-19 05:34:33.964,0.275,-0.34
2021-08-19 05:34:33.968,0.27,-0.41
2021-08-19 05:34:33.972,0.29,-0.295
2021-08-19 05:34:33.976,0.36,-0.255
2021-08-19 05:34:33.980,0.435,-0.235
2021-08-19 05:34:33.984,0.44,-0.345
2021-08-19 05:34:33.988,0.445,-0.34
2021-08-19 05:34:33.992,0.46,-0.27
2021-08-19 05:34:33.996,0.45,-0.32
2021-08-19 05:34:34.000,0.385,-0.315
2021-08-19 05:34:34.004,0.405,-0.28
2021-08-19 05:34:34.008,0.435,-0.23
2021-08-19 05:34:34.012,0.44,-0.135
2021-08-19 05:34:34.016,0.445,-0.2
2021-08-19 05:34:34.020,0.465,-0.24
2021-08-19 05:34:34.024,0.4,-0.2
2021-08-19 05:34:34.028,0.385,-0.105
2021-08-19 05:34:34.032,0.335,-0.06
2021-08-19 05:34:34.036,0.285,-0.04
2021-08-19 05:34:34.040,0.285,-0.075
2021-08-19 05:34:34.044,0.29,-0.125
2021-08-19 05:34:34.048,0.27,-0.2
2021-08-19 05:34:34.052,0.27,-0.205
2021-08-19 05:34:34.056,0.165,-0.155
2021-08-19 05:34:34.060,0.06,-0.065
2021-08-19 05:34:34.064,0.005,-0.03
2021-08-19 05:34:34.068,-0.02,-0.065
2021-08-19 05:34:34.072,-0.035,-0.155
2021-08-19 05:34:34.076,-0.05,-0.135
2021-08-19 05:34:34.080,-0.065,-0.06
2021-08-19 05:34:34.084,-0.12,-0.07
2021-08-19 05:34:34.088,-0.165,-0.1
2021-08-19 05:34:34.092,-0.145,-0.125
2021-08-19 05:34:34.096,-0.23,-0.095
2021-08-19 05:34:34.100,-0.3,-0.1
2021-08-19 05:34:34.104,-0.305,-0.105
2021-08-19 05:34:34.108,-0.27,-0.09
2021-08-19 05:34:34.112,-0.275,-0.09
2021-08-19 05:34:34.116,-0.335,-0.235
2021-08-19 05:34:34.120,-0.345,-0.27
2021-08-19 05:34:34.124,-0.34,-0.17
2021-08-19 05:34:34.128,-0.33,-0.175
2021-08-19 05:34:34.132,-0.33,-0.235
2021-08-19 05:34:34.136,-0.355,-0.23
2021-08-19 05:34:34.140,-0.37,-0.215
2021-08-19 05:34:34.144,-0.38,-0.255
2021-08-19 05:34:34.148,-0.34,-0.33
2021-08-19 05:34:34.152,-0.29,-0.36
2021-08-19 05:34:34.156,-0.34,-0.28
2021-08-19 05:34:34.160,-0.37,-0.21
2021-08-19 05:34:34.164,-0.375,-0.29
2021-08-19 05:34:34.168,-0.355,-0.36
2021-08-19 05:34:34.172,-0.365,-0.34
2021-08-19 05:34:34.176,-0.39,-0.325
2021-08-19 05:34:34.180,-0.395,-0.39
2021-08-19 05:34:34.184,-0.335,-0.355
2021-08-19 05:34:34.188,-0.39,-0.355
2021-08-19 05:34:34.192,-0.42,-0.385
2021-08-19 05:34:34.196,-0.4,-0.41
2021-08-19 05:34:34.200,-0.395,-0.37
2021-08-19 05:34:34.204,-0.42,-0.4
2021-08-19 05:34:34.208,-0.39,-0.5
2021-08-19 05:34:34.212,-0.38,-0.485
2021-08-19 05:34:34.216,-0.42,-0.43
2021-08-19 05:34:34.220,-0.435,-0.365
2021-08-19 05:34:34.224,-0.49,-0.35
2021-08-19 05:34:34.228,-0.48,-0.37
2021-08-19 05:34:34.232,-0.45,-0.42
2021-08-19 05:34:34.236,-0.405,-0.49
2021-08-19 05:34:34.240,-0.435,-0.49
2021-08-19 05:34:34.244,-0.46,-0.495
2021-08-19 05:34:34.248,-0.455,-0.45
2021-08-19 05:34:34.252,-0.48,-0.44
2021-08-19 05:34:34.256,-0.415,-0.435
2021-08-19 05:34:34.260,-0.415,-0.555
2021-08-19 05:34:34.264,-0.45,-0.555
2021-08-19 05:34:34.268,-0.46,-0.445
2021-08-19 05:34:34.272,-0.44,-0.49
2021-08-19 05:34:34.276,-0.435,-0.515
2021-08-19 05:34:34.280,-0.47,-0.46
2021-08-19 05:34:34.284,-0.475,-0.45
2021-08-19 05:34:34.288,-0.495,-0.555
2021-08-19 05:34:34.292,-0.465,-0.545
2021-08-19 05:34:34.296,-0.45,-0.515
2021-08-19 05:34:34.300,-0.47,-0.47
2021-08-19 05:34:34.304,-0.455,-0.5
2021-08-19 05:34:34.308,-0.46,-0.425
2021-08-19 05:34:34.312,-0.455,-0.48
2021-08-19 05:34:34.316,-0.51,-0.44
2021-08-19 05:34:34.320,-0.48,-0.425
2021-08-19 05:34:34.324,-0.475,-0.535
2021-08-19 05:34:34.328,-0.46,-0.615
2021-08-19 05:34:34.332,-0.53,-0.55
2021-08-19 05:34:34.336,-0.5,-0.535
2021-08-19 05:34:34.340,-0.45,-0.545
2021-08-19 05:34:34.344,-0.46,-0.535
2021-08-19 05:34:34.348,-0.54,-0.485
2021-08-19 05:34:34.352,-0.54,-0.495
2021-08-19 05:34:34.356,-0.455,-0.51
2021-08-19 05:34:34.360,-0.385,-0.42
2021-08-19 05:34:34.364,-0.37,-0.375
2021-08-19 05:34:34.368,-0.385,-0.455
2021-08-19 05:34:34.372,-0.415,-0.4
2021-08-19 05:34:34.376,-0.41,-0.31
2021-08-19 05:34:34.380,-0.435,-0.385
2021-08-19 05:34:34.384,-0.425,-0.465
2021-08-19 05:34:34.388,-0.45,-0.46
2021-08-19 05:34:34.392,-0.42,-0.36
2021-08-19 05:34:34.396,-0.365,-0.33
2021-08-19 05:34:34.400,-0.315,-0.405
2021-08-19 05:34:34.404,-0.3,-0.425
2021-08-19 05:34:34.408,-0.305,-0.38
2021-08-19 05:34:34.412,-0.305,-0.315
2021-08-19 05:34:34.416,-0.31,-0.345
2021-08-19 05:34:34.420,-0.355,-0.425
2021-08-19 05:34:34.424,-0.455,-0.51
2021-08-19 05:34:34.428,-0.485,-0.53
2021-08-19 05:34:34.432,-0.495,-0.495
2021-08-19 05:34:34.436,-0.445,-0.495
2021-08-19 05:34:34.440,-0.42,-0.445
2021-08-19 05:34:34.444,-0.45,-0.44
2021-08-19 05:34:34.448,-0.51,-0.51
2021-08-19 05:34:34.452,-0.55,-0.52
2021-08-19 05:34:34.456,-0.535,-0.475
2021-08-19 05:34:34.460,-0.585,-0.38
2021-08-19 05:34:34.464,-0.575,-0.51
2021-08-19 05:34:34.468,-0.615,-0.56
2021-08-19 05:34:34.472,-0.64,-0.52
2021-08-19 05:34:34.476,-0.615,-0.51
2021-08-19 05:34:34.480,-0.565,-0.64
2021-08-19 05:34:34.484,-0.53,-0.62
2021-08-19 05:34:34.488,-0.605,-0.565
2021-08-19 05:34:34.492,-0.595,-0.575
2021-08-19 05:34:34.496,-0.56,-0.54
2021-08-19 05:34:34.500,-0.515,-0.585
2021-08-19 05:34:34.504,-0.52,-0.59
2021-08-19 05:34:34.508,-0.55,-0.585
2021-08-19 05:34:34.512,-0.555,-0.49
2021-08-19 05:34:34.516,-0.595,-0.465
2021-08-19 05:34:34.520,-0.6,-0.46
2021-08-19 05:34:34.524,-0.58,-0.575
2021-08-19 05:34:34.528,-0.625,-0.605
2021-08-19 05:34:34.532,-0.745,-0.54
2021-08-19 05:34:34.536,-0.73,-0.545
2021-08-19 05:34:34.540,-0.635,-0.58
2021-08-19 05:34:34.544,-0.555,-0.64
2021-08-19 05:34:34.548,-0.47,-0.68
2021-08-19 05:34:34.552,-0.32,-0.775
2021-08-19 05:34:34.556,-0.48,-0.85
2021-08-19 05:34:34.560,-0.915,-0.885
2021-08-19 05:34:34.564,-1.035,-0.92
2021-08-19 05:34:34.568,-1.01,-0.94
2021-08-19 05:34:34.572,-1.25,-0.715
2021-08-19 05:34:34.576,-1.67,-0.305
2021-08-19 05:34:34.620,-1.96,-1.475
2021-08-19 05:34:34.624,-1.5,-1.31
2021-08-19 05:34:34.628,-1.12,-1.17
2021-08-19 05:34:34.632,-0.815,-0.985
2021-08-19 05:34:34.636,-0.615,-0.715
2021-08-19 05:34:34.640,-0.46,-0.58
2021-08-19 05:34:34.644,-0.36,-0.5
2021-08-19 05:34:34.648,-0.36,-0.435
2021-08-19 05:34:34.652,-0.35,-0.375
2021-08-19 05:34:34.656,-0.31,-0.37
2021-08-19 05:34:34.660,-0.325,-0.405
2021-08-19 05:34:34.664,-0.32,-0.42
2021-08-19 05:34:34.668,-0.3,-0.42
2021-08-19 05:34:34.672,-0.3,-0.43
2021-08-19 05:34:34.676,-0.34,-0.415
2021-08-19 05:34:34.680,-0.33,-0.465
2021-08-19 05:34:34.684,-0.27,-0.455
2021-08-19 05:34:34.688,-0.23,-0.45
2021-08-19 05:34:34.692,-0.23,-0.4
2021-08-19 05:34:34.696,-0.25,-0.35
2021-08-19 05:34:34.700,-0.255,-0.28
2021-08-19 05:34:34.704,-0.235,-0.44
2021-08-19 05:34:34.708,-0.29,-0.46
2021-08-19 05:34:34.712,-0.275,-0.445
2021-08-19 05:34:34.716,-0.2,-0.43
2021-08-19 05:34:34.720,-0.16,-0.44
2021-08-19 05:34:34.724,-0.17,-0.405
2021-08-19 05:34:34.728,-0.17,-0.35
2021-08-19 05:34:34.732,-0.15,-0.41
2021-08-19 05:34:34.736,-0.11,-0.425
2021-08-19 05:34:34.740,-0.095,-0.38
2021-08-19 05:34:34.744,-0.1,-0.395
2021-08-19 05:34:34.748,-0.105,-0.37
2021-08-19 05:34:34.752,-0.03,-0.265
2021-08-19 05:34:34.756,0.01,-0.33
2021-08-19 05:34:34.760,0.03,-0.36
2021-08-19 05:34:34.764,0.035,-0.325
2021-08-19 05:34:34.768,0.085,-0.295
2021-08-19 05:34:34.772,0.185,-0.28
2021-08-19 05:34:34.776,0.235,-0.215
2021-08-19 05:34:34.780,0.25,-0.155
2021-08-19 05:34:34.784,0.285,-0.16
2021-08-19 05:34:34.788,0.33,-0.165
2021-08-19 05:34:34.792,0.3,-0.15
2021-08-19 05:34:34.796,0.325,-0.135
2021-08-19 05:34:34.800,0.38,-0.11
2021-08-19 05:34:34.804,0.42,-0.11
2021-08-19 05:34:34.808,0.39,-0.03
2021-08-19 05:34:34.812,0.375,0.0
2021-08-19 05:34:34.816,0.385,-0.01
2021-08-19 05:34:34.820,0.425,0.055
2021-08-19 05:34:34.824,0.445,0.055
2021-08-19 05:34:34.828,0.47,0.045
2021-08-19 05:34:34.832,0.43,0.025
2021-08-19 05:34:34.836,0.42,0.005
2021-08-19 05:34:34.840,0.365,-0.01
2021-08-19 05:34:34.844,0.38,0.11
2021-08-19 05:34:34.848,0.3,0.12
2021-08-19 05:34:34.852,0.335,0.07
2021-08-19 05:34:34.856,0.32,0.085
2021-08-19 05:34:34.860,0.3,0.135
2021-08-19 05:34:34.864,0.285,0.19
2021-08-19 05:34:34.868,0.28,0.135
2021-08-19 05:34:34.872,0.26,0.14
2021-08-19 05:34:34.876,0.18,0.18
2021-08-19 05:34:34.880,0.095,0.2
2021-08-19 05:34:34.884,0.08,0.235
2021-08-19 05:34:34.888,0.045,0.135
2021-08-19 05:34:34.892,0.0,0.125
2021-08-19 05:34:34.896,-0.055,0.155
2021-08-19 05:34:34.900,-0.135,0.195
2021-08-19 05:34:34.904,-0.18,0.185
2021-08-19 05:34:34.908,-0.205,0.225
2021-08-19 05:34:34.912,-0.19,0.24
2021-08-19 05:34:34.916,-0.22,0.14
2021-08-19 05:34:34.920,-0.22,0.065
2021-08-19 05:34:34.924,-0.21,0.105
2021-08-19 05:34:34.928,-0.23,0.145
2021-08-19 05:34:34.932,-0.275,0.15
2021-08-19 05:34:34.936,-0.345,0.115
2021-08-19 05:34:34.940,-0.36,0.135
2021-08-19 05:34:34.944,-0.35,0.12
2021-08-19 05:34:34.948,-0.305,0.05
2021-08-19 05:34:34.952,-0.285,0.06
2021-08-19 05:34:34.956,-0.36,0.12
2021-08-19 05:34:34.960,-0.385,0.14
2021-08-19 05:34:34.964,-0.385,0.01
2021-08-19 05:34:34.968,-0.38,-0.04
2021-08-19 05:34:34.972,-0.41,0.005
2021-08-19 05:34:34.976,-0.38,0.005
2021-08-19 05:34:34.980,-0.395,-0.05
2021-08-19 05:34:34.984,-0.385,-0.045
2021-08-19 05:34:34.988,-0.355,-0.05
2021-08-19 05:34:34.992,-0.38,-0.035
2021-08-19 05:34:34.996,-0.39,-0.045
2021-08-19 05:34:35.000,-0.425,-0.075
2021-08-19 05:34:35.004,-0.43,-0.015
2021-08-19 05:34:35.008,-0.45,0.045
2021-08-19 05:34:35.012,-0.455,0.055
2021-08-19 05:34:35.016,-0.415,-0.04
2021-08-19 05:34:35.020,-0.375,-0.245
2021-08-19 05:34:35.024,-0.385,-0.235
2021-08-19 05:34:35.028,-0.42,-0.19
2021-08-19 05:34:35.032,-0.435,-0.245
2021-08-19 05:34:35.036,-0.46,-0.145
2021-08-19 05:34:35.040,-0.495,-0.15
2021-08-19 05:34:35.044,-0.46,-0.185
2021-08-19 05:34:35.048,-0.435,-0.23
2021-08-19 05:34:35.052,-0.43,-0.24
2021-08-19 05:34:35.056,-0.465,-0.19
2021-08-19 05:34:35.060,-0.465,-0.195
2021-08-19 05:34:35.064,-0.44,-0.145
2021-08-19 05:34:35.068,-0.455,-0.155
2021-08-19 05:34:35.072,-0.49,-0.185
2021-08-19 05:34:35.076,-0.535,-0.17
2021-08-19 05:34:35.080,-0.505,-0.255
2021-08-19 05:34:35.084,-0.46,-0.315
2021-08-19 05:34:35.088,-0.435,-0.315
2021-08-19 05:34:35.092,-0.46,-0.235
2021-08-19 05:34:35.096,-0.48,-0.25
2021-08-19 05:34:35.100,-0.46,-0.31
2021-08-19 05:34:35.104,-0.495,-0.34
2021-08-19 05:34:35.108,-0.495,-0.29
2021-08-19 05:34:35.112,-0.47,-0.23
2021-08-19 05:34:35.116,-0.455,-0.24
2021-08-19 05:34:35.120,-0.485,-0.255
2021-08-19 05:34:35.124,-0.455,-0.215
2021-08-19 05:34:35.128,-0.49,-0.225
2021-08-19 05:34:35.132,-0.48,-0.26
2021-08-19 05:34:35.136,-0.435,-0.31
2021-08-19 05:34:35.140,-0.43,-0.285
2021-08-19 05:34:35.144,-0.435,-0.275
2021-08-19 05:34:35.148,-0.415,-0.33
2021-08-19 05:34:35.152,-0.375,-0.275
2021-08-19 05:34:35.156,-0.38,-0.185
2021-08-19 05:34:35.160,-0.45,-0.17
2021-08-19 05:34:35.164,-0.485,-0.26
2021-08-19 05:34:35.168,-0.48,-0.285
2021-08-19 05:34:35.172,-0.47,-0.24
2021-08-19 05:34:35.176,-0.46,-0.23
2021-08-19 05:34:35.180,-0.465,-0.135
2021-08-19 05:34:35.184,-0.455,-0.05
2021-08-19 05:34:35.188,-0.48,-0.095
2021-08-19 05:34:35.192,-0.46,-0.23
2021-08-19 05:34:35.196,-0.47,-0.34
2021-08-19 05:34:35.200,-0.46,-0.315
2021-08-19 05:34:35.204,-0.47,-0.27
2021-08-19 05:34:35.208,-0.475,-0.255
2021-08-19 05:34:35.212,-0.51,-0.37
2021-08-19 05:34:35.216,-0.53,-0.395
2021-08-19 05:34:35.220,-0.545,-0.43
2021-08-19 05:34:35.224,-0.495,-0.375
2021-08-19 05:34:35.228,-0.5,-0.305
2021-08-19 05:34:35.232,-0.495,-0.31
2021-08-19 05:34:35.236,-0.485,-0.36
2021-08-19 05:34:35.240,-0.51,-0.33
2021-08-19 05:34:35.244,-0.505,-0.32
2021-08-19 05:34:35.248,-0.475,-0.44
2021-08-19 05:34:35.252,-0.46,-0.4
2021-08-19 05:34:35.256,-0.475,-0.28
2021-08-19 05:34:35.260,-0.49,-0.355
2021-08-19 05:34:35.264,-0.51,-0.33
2021-08-19 05:34:35.268,-0.48,-0.33
2021-08-19 05:34:35.272,-0.47,-0.34
2021-08-19 05:34:35.276,-0.46,-0.33
2021-08-19 05:34:35.280,-0.44,-0.36
2021-08-19 05:34:35.284,-0.465,-0.38
2021-08-19 05:34:35.288,-0.48,-0.33
2021-08-19 05:34:35.292,-0.525,-0.265
2021-08-19 05:34:35.296,-0.62,-0.36
2021-08-19 05:34:35.300,-0.62,-0.405
2021-08-19 05:34:35.304,-0.555,-0.39
2021-08-19 05:34:35.308,-0.495,-0.33
2021-08-19 05:34:35.312,-0.355,-0.4
2021-08-19 05:34:35.316,-0.17,-0.56
2021-08-19 05:34:35.320,-0.27,-0.67
2021-08-19 05:34:35.324,-0.71,-0.71
2021-08-19 05:34:35.328,-0.93,-0.7
2021-08-19 05:34:35.332,-0.89,-0.765
2021-08-19 05:34:35.336,-1.015,-0.63
2021-08-19 05:34:35.340,-1.39,-0.185
2021-08-19 05:34:35.344,-1.895,0.16
2021-08-19 05:34:35.384,-1.995,-1.54
2021-08-19 05:34:35.388,-1.565,-1.29
2021-08-19 05:34:35.392,-1.065,-1.05
2021-08-19 05:34:35.396,-0.74,-0.875
2021-08-19 05:34:35.400,-0.53,-0.69
2021-08-19 05:34:35.404,-0.39,-0.46
2021-08-19 05:34:35.408,-0.275,-0.335
2021-08-19 05:34:35.412,-0.25,-0.24
2021-08-19 05:34:35.416,-0.24,-0.165
2021-08-19 05:34:35.420,-0.25,-0.29
2021-08-19 05:34:35.424,-0.16,-0.445
2021-08-19 05:34:35.428,-0.075,-0.425
2021-08-19 05:34:35.432,-0.09,-0.39
2021-08-19 05:34:35.436,-0.1,-0.32
2021-08-19 05:34:35.440,-0.13,-0.285
2021-08-19 05:34:35.444,-0.12,-0.25
2021-08-19 05:34:35.448,-0.12,-0.305
2021-08-19 05:34:35.452,-0.09,-0.325
2021-08-19 05:34:35.456,-0.06,-0.325
2021-08-19 05:34:35.460,-0.04,-0.345
2021-08-19 05:34:35.464,-0.035,-0.355
2021-08-19 05:34:35.468,-0.04,-0.28
2021-08-19 05:34:35.472,-0.06,-0.28
2021-08-19 05:34:35.476,-0.05,-0.29
2021-08-19 05:34:35.480,-0.03,-0.395
2021-08-19 05:34:35.484,-0.025,-0.41
2021-08-19 05:34:35.488,0.055,-0.375
2021-08-19 05:34:35.492,0.04,-0.31
2021-08-19 05:34:35.496,0.045,-0.275
2021-08-19 05:34:35.500,0.065,-0.305
2021-08-19 05:34:35.504,0.12,-0.38
2021-08-19 05:34:35.508,0.13,-0.405
2021-08-19 05:34:35.512,0.18,-0.38
2021-08-19 05:34:35.516,0.215,-0.35
2021-08-19 05:34:35.520,0.235,-0.3
2021-08-19 05:34:35.524,0.29,-0.31
2021-08-19 05:34:35.528,0.315,-0.2
2021-08-19 05:34:35.532,0.365,-0.11
2021-08-19 05:34:35.536,0.395,-0.17
2021-08-19 05:34:35.540,0.445,-0.245
2021-08-19 05:34:35.544,0.475,-0.235
2021-08-19 05:34:35.548,0.51,-0.135
2021-08-19 05:34:35.552,0.565,-0.005
2021-08-19 05:34:35.556,0.575,-0.025
2021-08-19 05:34:35.560,0.605,-0.19
2021-08-19 05:34:35.564,0.63,-0.175
2021-08-19 05:34:35.568,0.64,-0.005
2021-08-19 05:34:35.572,0.64,0.06
2021-08-19 05:34:35.576,0.675,0.03
2021-08-19 05:34:35.580,0.67,-0.05
2021-08-19 05:34:35.584,0.685,-0.035
2021-08-19 05:34:35.588,0.715,-0.01
2021-08-19 05:34:35.592,0.695,0.07
2021-08-19 05:34:35.596,0.665,0.075
2021-08-19 05:34:35.600,0.665,0.1
2021-08-19 05:34:35.604,0.67,0.07
2021-08-19 05:34:35.608,0.68,0.08
2021-08-19 05:34:35.612,0.685,0.105
2021-08-19 05:34:35.616,0.635,0.125
2021-08-19 05:34:35.620,0.6,0.135
2021-08-19 05:34:35.624,0.575,0.105
2021-08-19 05:34:35.628,0.555,0.075
2021-08-19 05:34:35.632,0.475,0.09
2021-08-19 05:34:35.636,0.43,0.125
2021-08-19 05:34:35.640,0.385,0.145
2021-08-19 05:34:35.644,0.355,0.185
2021-08-19 05:34:35.648,0.29,0.155
2021-08-19 05:34:35.652,0.255,0.07
2021-08-19 05:34:35.656,0.195,0.075
2021-08-19 05:34:35.660,0.14,0.17
2021-08-19 05:34:35.664,0.09,0.135
2021-08-19 05:34:35.668,0.065,0.07
2021-08-19 05:34:35.672,0.06,0.09
2021-08-19 05:34:35.676,0.06,0.105
2021-08-19 05:34:35.680,-0.015,0.13
2021-08-19 05:34:35.684,-0.03,0.12
2021-08-19 05:34:35.688,-0.015,0.05
2021-08-19 05:34:35.692,-0.015,0.045
2021-08-19 05:34:35.696,-0.07,0.045
2021-08-19 05:34:35.700,-0.05,0.005
2021-08-19 05:34:35.704,-0.02,-0.065
2021-08-19 05:34:35.708,-0.075,-0.015
2021-08-19 05:34:35.712,-0.07,-0.035
2021-08-19 05:34:35.716,-0.09,-0.035
2021-08-19 05:34:35.720,-0.09,-0.075
2021-08-19 05:34:35.724,-0.07,-0.075
2021-08-19 05:34:35.728,-0.065,-0.065
2021-08-19 05:34:35.732,-0.055,-0.09
2021-08-19 05:34:35.736,-0.035,-0.115
2021-08-19 05:34:35.740,-0.04,-0.125
2021-08-19 05:34:35.744,-0.08,-0.115
2021-08-19 05:34:35.748,-0.08,-0.11
2021-08-19 05:34:35.752,-0.035,-0.11
2021-08-19 05:34:35.756,-0.09,-0.11
2021-08-19 05:34:35.760,-0.065,-0.125
2021-08-19 05:34:35.764,-0.11,-0.145
2021-08-19 05:34:35.768,-0.08,-0.18
2021-08-19 05:34:35.772,-0.055,-0.215
2021-08-19 05:34:35.776,-0.06,-0.265
2021-08-19 05:34:35.780,-0.05,-0.265
2021-08-19 05:34:35.784,-0.045,-0.29
2021-08-19 05:34:35.788,-0.005,-0.23
2021-08-19 05:34:35.792,0.005,-0.23
2021-08-19 05:34:35.796,-0.065,-0.2
2021-08-19 05:34:35.800,-0.135,-0.27
2021-08-19 05:34:35.804,-0.11,-0.35
2021-08-19 05:34:35.808,-0.09,-0.34
2021-08-19 05:34:35.812,-0.04,-0.3
2021-08-19 05:34:35.816,0.0,-0.305
2021-08-19 05:34:35.820,0.0,-0.315
2021-08-19 05:34:35.824,-0.055,-0.315
2021-08-19 05:34:35.828,-0.05,-0.29
2021-08-19 05:34:35.832,-0.05,-0.335
2021-08-19 05:34:35.836,0.02,-0.29
2021-08-19 05:34:35.840,0.045,-0.295
2021-08-19 05:34:35.844,0.065,-0.285
2021-08-19 05:34:35.848,0.015,-0.36
2021-08-19 05:34:35.852,-0.07,-0.3
2021-08-19 05:34:35.856,-0.08,-0.29
2021-08-19 05:34:35.860,-0.02,-0.3
2021-08-19 05:34:35.864,-0.04,-0.415
2021-08-19 05:34:35.868,0.005,-0.415
2021-08-19 05:34:35.872,-0.01,-0.385
2021-08-19 05:34:35.876,-0.015,-0.375
2021-08-19 05:34:35.880,-0.015,-0.365
2021-08-19 05:34:35.884,-0.005,-0.35
2021-08-19 05:34:35.888,-0.055,-0.365
2021-08-19 05:34:35.892,0.005,-0.38
2021-08-19 05:34:35.896,0.015,-0.395
2021-08-19 05:34:35.900,-0.015,-0.365
2021-08-19 05:34:35.904,0.025,-0.37
2021-08-19 05:34:35.908,0.02,-0.4
2021-08-19 05:34:35.912,0.0,-0.39
2021-08-19 05:34:35.916,-0.06,-0.37
2021-08-19 05:34:35.920,0.005,-0.35
2021-08-19 05:34:35.924,0.055,-0.345
2021-08-19 05:34:35.928,0.005,-0.37
2021-08-19 05:34:35.932,0.005,-0.385
2021-08-19 05:34:35.936,0.05,-0.385
2021-08-19 05:34:35.940,0.02,-0.365
2021-08-19 05:34:35.944,0.035,-0.295
2021-08-19 05:34:35.948,0.03,-0.32
2021-08-19 05:34:35.952,0.02,-0.36
2021-08-19 05:34:35.956,0.07,-0.39
2021-08-19 05:34:35.960,0.03,-0.38
2021-08-19 05:34:35.964,0.015,-0.37
2021-08-19 05:34:35.968,0.06,-0.345
2021-08-19 05:34:35.972,0.07,-0.345
2021-08-19 05:34:35.976,0.105,-0.35
2021-08-19 05:34:35.980,0.17,-0.31
2021-08-19 05:34:35.984,0.195,-0.275
2021-08-19 05:34:35.988,0.155,-0.24
2021-08-19 05:34:35.992,0.185,-0.22
2021-08-19 05:34:35.996,0.195,-0.2
2021-08-19 05:34:36.000,0.24,-0.165
2021-08-19 05:34:36.004,0.28,-0.18
2021-08-19 05:34:36.008,0.195,-0.15
2021-08-19 05:34:36.012,0.23,-0.195
2021-08-19 05:34:36.016,0.295,-0.19
2021-08-19 05:34:36.020,0.27,-0.22
2021-08-19 05:34:36.024,0.285,-0.22
2021-08-19 05:34:36.028,0.33,-0.23
2021-08-19 05:34:36.032,0.33,-0.21
2021-08-19 05:34:36.036,0.325,-0.14
2021-08-19 05:34:36.040,0.225,-0.17
2021-08-19 05:34:36.044,0.14,-0.29
2021-08-19 05:34:36.048,0.09,-0.355
2021-08-19 05:34:36.052,0.115,-0.365
2021-08-19 05:34:36.056,0.065,-0.37
2021-08-19 05:34:36.060,0.055,-0.33
2021-08-19 05:34:36.064,0.03,-0.355
2021-08-19 05:34:36.068,0.025,-0.35
2021-08-19 05:34:36.072,0.0,-0.375
2021-08-19 05:34:36.076,0.01,-0.36
2021-08-19 05:34:36.080,0.01,-0.345
2021-08-19 05:34:36.084,0.0,-0.32
2021-08-19 05:34:36.088,0.045,-0.335
2021-08-19 05:34:36.092,0.005,-0.335
2021-08-19 05:34:36.096,0.015,-0.35
2021-08-19 05:34:36.100,0.035,-0.355
2021-08-19 05:34:36.104,0.02,-0.38
2021-08-19 05:34:36.108,-0.01,-0.385
2021-08-19 05:34:36.112,0.03,-0.4
2021-08-19 05:34:36.116,0.025,-0.375
2021-08-19 05:34:36.120,0.055,-0.38
2021-08-19 05:34:36.124,0.035,-0.345
2021-08-19 05:34:36.128,0.015,-0.33
2021-08-19 05:34:36.132,0.0,-0.3
2021-08-19 05:34:36.136,0.0,-0.35
2021-08-19 05:34:36.140,-0.02,-0.34
2021-08-19 05:34:36.144,-0.1,-0.35
2021-08-19 05:34:36.148,-0.16,-0.34
2021-08-19 05:34:36.152,-0.19,-0.355
2021-08-19 05:34:36.156,-0.085,-0.4
2021-08-19 05:34:36.160,0.0,-0.435
2021-08-19 05:34:36.164,0.18,-0.485
2021-08-19 05:34:36.168,0.385,-0.61
2021-08-19 05:34:36.172,0.285,-0.635
2021-08-19 05:34:36.176,0.035,-0.465
2021-08-19 05:34:36.180,0.0,-0.45
2021-08-19 05:34:36.184,0.1,-0.515
2021-08-19 05:34:36.188,-0.185,-0.27
2021-08-19 05:34:36.192,-0.66,0.245
2021-08-19 05:34:36.196,-1.28,0.65
2021-08-19 05:34:36.200,-1.82,0.325
2021-08-19 05:34:36.204,-2.0,-0.68
2021-08-19 05:34:36.228,-1.915,-1.905
2021-08-19 05:34:36.232,-1.735,-1.7
2021-08-19 05:34:36.236,-1.52,-1.485
2021-08-19 05:34:36.240,-1.04,-1.245
2021-08-19 05:34:36.244,-0.65,-1.115
2021-08-19 05:34:36.248,-0.4,-0.975
2021-08-19 05:34:36.252,-0.165,-0.76
2021-08-19 05:34:36.256,0.03,-0.565
2021-08-19 05:34:36.260,0.155,-0.465
2021-08-19 05:34:36.264,0.17,-0.385
2021-08-19 05:34:36.268,0.145,-0.32
2021-08-19 05:34:36.272,0.18,-0.31
2021-08-19 05:34:36.276,0.22,-0.295
2021-08-19 05:34:36.280,0.235,-0.285
2021-08-19 05:34:36.284,0.31,-0.36
2021-08-19 05:34:36.288,0.325,-0.33
2021-08-19 05:34:36.292,0.285,-0.325
2021-08-19 05:34:36.296,0.265,-0.31
2021-08-19 05:34:36.300,0.225,-0.29
2021-08-19 05:34:36.304,0.22,-0.28
2021-08-19 05:34:36.308,0.295,-0.28
2021-08-19 05:34:36.312,0.315,-0.36
2021-08-19 05:34:36.316,0.315,-0.395
2021-08-19 05:34:36.320,0.31,-0.39
2021-08-19 05:34:36.324,0.285,-0.35
2021-08-19 05:34:36.328,0.295,-0.39
2021-08-19 05:34:36.332,0.29,-0.38
2021-08-19 05:34:36.336,0.31,-0.375
2021-08-19 05:34:36.340,0.39,-0.395
2021-08-19 05:34:36.344,0.395,-0.355
2021-08-19 05:34:36.348,0.37,-0.36
2021-08-19 05:34:36.352,0.435,-0.375
2021-08-19 05:34:36.356,0.375,-0.3
2021-08-19 05:34:36.360,0.415,-0.305
2021-08-19 05:34:36.364,0.435,-0.345
2021-08-19 05:34:36.368,0.44,-0.365
2021-08-19 05:34:36.372,0.445,-0.35
2021-08-19 05:34:36.376,0.55,-0.3
2021-08-19 05:34:36.380,0.59,-0.28
2021-08-19 05:34:36.384,0.63,-0.245
2021-08-19 05:34:36.388,0.68,-0.23
2021-08-19 05:34:36.392,0.665,-0.22
2021-08-19 05:34:36.396,0.71,-0.21
2021-08-19 05:34:36.400,0.755,-0.16
2021-08-19 05:34:36.404,0.775,-0.165
2021-08-19 05:34:36.408,0.785,-0.17
2021-08-19 05:34:36.412,0.86,-0.075
2021-08-19 05:34:36.416,0.88,-0.035
2021-08-19 05:34:36.420,0.955,-0.01
2021-08-19 05:34:36.424,0.92,-0.01
2021-08-19 05:34:36.428,0.885,-0.04
2021-08-19 05:34:36.432,0.865,-0.04
2021-08-19 05:34:36.436,0.925,-0.02
2021-08-19 05:34:36.440,0.98,-0.005
2021-08-19 05:34:36.444,0.97,-0.005
2021-08-19 05:34:36.448,0.955,0.005
2021-08-19 05:34:36.452,0.96,0.05
2021-08-19 05:34:36.456,0.945,0.045
2021-08-19 05:34:36.460,0.94,0.1
2021-08-19 05:34:36.464,0.94,0.085
2021-08-19 05:34:36.468,0.925,0.06
2021-08-19 05:34:36.472,0.89,0.06
2021-08-19 05:34:36.476,0.825,0.175
2021-08-19 05:34:36.480,0.785,0.185
2021-08-19 05:34:36.484,0.81,0.17
2021-08-19 05:34:36.488,0.74,0.19
2021-08-19 05:34:36.492,0.68,0.145
2021-08-19 05:34:36.496,0.635,0.17
2021-08-19 05:34:36.500,0.605,0.19
2021-08-19 05:34:36.504,0.545,0.22
2021-08-19 05:34:36.508,0.515,0.23
2021-08-19 05:34:36.512,0.49,0.195
2021-08-19 05:34:36.516,0.43,0.18
2021-08-19 05:34:36.520,0.42,0.19
2021-08-19 05:34:36.524,0.38,0.255
2021-08-19 05:34:36.528,0.335,0.25
2021-08-19 05:34:36.532,0.3,0.165
2021-08-19 05:34:36.536,0.295,0.155
2021-08-19 05:34:36.540,0.295,0.155
2021-08-19 05:34:36.544,0.295,0.185
2021-08-19 05:34:36.548,0.29,0.17
2021-08-19 05:34:36.552,0.24,0.2
2021-08-19 05:34:36.556,0.19,0.145
2021-08-19 05:34:36.560,0.215,0.11
2021-08-19 05:34:36.564,0.255,0.105
2021-08-19 05:34:36.568,0.255,0.09
2021-08-19 05:34:36.572,0.195,0.095
2021-08-19 05:34:36.576,0.145,0.11
2021-08-19 05:34:36.580,0.12,0.105
2021-08-19 05:34:36.584,0.15,0.07
2021-08-19 05:34:36.588,0.15,-0.02
2021-08-19 05:34:36.592,0.21,0.02
2021-08-19 05:34:36.596,0.215,0.03
2021-08-19 05:34:36.600,0.195,0.02
2021-08-19 05:34:36.604,0.195,0.005
2021-08-19 05:34:36.608,0.21,-0.04
2021-08-19 05:34:36.612,0.205,-0.01
2021-08-19 05:34:36.616,0.18,-0.01
2021-08-19 05:34:36.620,0.17,-0.045
2021-08-19 05:34:36.624,0.155,-0.05
2021-08-19 05:34:36.628,0.115,-0.025
2021-08-19 05:34:36.632,0.115,-0.08
2021-08-19 05:34:36.636,0.075,-0.14
2021-08-19 05:34:36.640,0.115,-0.145
2021-08-19 05:34:36.644,0.15,-0.085
2021-08-19 05:34:36.648,0.16,-0.02
2021-08-19 05:34:36.652,0.105,-0.065
2021-08-19 05:34:36.656,0.115,-0.1
2021-08-19 05:34:36.660,0.11,-0.095
2021-08-19 05:34:36.664,0.11,-0.095
2021-08-19 05:34:36.668,0.08,-0.215
2021-08-19 05:34:36.672,0.075,-0.18
2021-08-19 05:34:36.676,0.095,-0.08
2021-08-19 05:34:36.680,0.095,-0.1
2021-08-19 05:34:36.684,0.105,-0.12
2021-08-19 05:34:36.688,0.065,-0.185
2021-08-19 05:34:36.692,0.1,-0.195
2021-08-19 05:34:36.696,0.07,-0.195
2021-08-19 05:34:36.700,0.03,-0.225
2021-08-19 05:34:36.704,0.075,-0.255
2021-08-19 05:34:36.708,0.07,-0.225
2021-08-19 05:34:36.712,0.105,-0.145
2021-08-19 05:34:36.716,0.075,-0.11
2021-08-19 05:34:36.720,0.055,-0.14
2021-08-19 05:34:36.724,0.05,-0.155
2021-08-19 05:34:36.728,0.035,-0.175
2021-08-19 05:34:36.732,0.02,-0.23
2021-08-19 05:34:36.736,0.035,-0.235
2021-08-19 05:34:36.740,0.035,-0.195
2021-08-19 05:34:36.744,0.045,-0.195
2021-08-19 05:34:36.748,0.07,-0.17
2021-08-19 05:34:36.752,0.08,-0.215
2021-08-19 05:34:36.756,0.08,-0.29
2021-08-19 05:34:36.760,0.06,-0.195
2021-08-19 05:34:36.764,0.035,-0.115
2021-08-19 05:34:36.768,0.035,-0.16
2021-08-19 05:34:36.772,0.015,-0.26
2021-08-19 05:34:36.776,0.045,-0.21
2021-08-19 05:34:36.780,0.015,-0.18
2021-08-19 05:34:36.784,0.06,-0.1
2021-08-19 05:34:36.788,0.125,-0.05
2021-08-19 05:34:36.792,0.14,-0.07
2021-08-19 05:34:36.796,0.125,-0.19
2021-08-19 05:34:36.800,0.115,-0.16
2021-08-19 05:34:36.804,0.13,-0.07
2021-08-19 05:34:36.808,0.16,-0.005
2021-08-19 05:34:36.812,0.15,0.01
2021-08-19 05:34:36.816,0.14,-0.07
2021-08-19 05:34:36.820,0.155,-0.08
2021-08-19 05:34:36.824,0.175,-0.075
2021-08-19 05:34:36.828,0.245,-0.055
2021-08-19 05:34:36.832,0.26,-0.06
2021-08-19 05:34:36.836,0.28,-0.205
2021-08-19 05:34:36.840,0.21,-0.17
2021-08-19 05:34:36.844,0.17,-0.1
2021-08-19 05:34:36.848,0.12,-0.025
2021-08-19 05:34:36.852,0.1,-0.11
2021-08-19 05:34:36.856,0.07,-0.215
2021-08-19 05:34:36.860,0.06,-0.23
2021-08-19 05:34:36.864,0.005,-0.17
2021-08-19 05:34:36.868,0.0,-0.14
2021-08-19 05:34:36.872,0.0,-0.16
2021-08-19 05:34:36.876,-0.045,-0.24
2021-08-19 05:34:36.880,-0.09,-0.2
2021-08-19 05:34:36.884,-0.095,-0.215
2021-08-19 05:34:36.888,-0.055,-0.28
2021-08-19 05:34:36.892,-0.065,-0.295
2021-08-19 05:34:36.896,-0.07,-0.25
2021-08-19 05:34:36.900,-0.04,-0.25
2021-08-19 05:34:36.904,-0.065,-0.24
2021-08-19 05:34:36.908,-0.095,-0.185
2021-08-19 05:34:36.912,-0.07,-0.205
2021-08-19 05:34:36.916,-0.105,-0.19
2021-08-19 05:34:36.920,-0.08,-0.175
2021-08-19 05:34:36.924,-0.075,-0.265
2021-08-19 05:34:36.928,-0.075,-0.245
2021-08-19 05:34:36.932,-0.08,-0.18
2021-08-19 05:34:36.936,-0.085,-0.26
2021-08-19 05:34:36.940,-0.09,-0.39
2021-08-19 05:34:36.944,-0.07,-0.345
2021-08-19 05:34:36.948,-0.1,-0.2
2021-08-19 05:34:36.952,-0.185,-0.195
2021-08-19 05:34:36.956,-0.27,-0.21
2021-08-19 05:34:36.960,-0.235,-0.205
2021-08-19 05:34:36.964,-0.145,-0.195
2021-08-19 05:34:36.968,-0.05,-0.25
2021-08-19 05:34:36.972,0.075,-0.375
2021-08-19 05:34:36.976,0.215,-0.465
2021-08-19 05:34:36.980,0.035,-0.51
2021-08-19 05:34:36.984,-0.405,-0.395
2021-08-19 05:34:36.988,-0.47,-0.365
2021-08-19 05:34:36.992,-0.34,-0.5
2021-08-19 05:34:36.996,-0.56,-0.36
2021-08-19 05:34:37.000,-1.015,0.125
2021-08-19 05:34:37.004,-1.615,0.475
2021-08-19 05:34:37.008,-1.96,0.255
2021-08-19 05:34:37.036,-1.995,-1.665
2021-08-19 05:34:37.040,-1.775,-1.465
2021-08-19 05:34:37.044,-1.455,-1.275
2021-08-19 05:34:37.048,-0.98,-1.045
2021-08-19 05:34:37.052,-0.595,-0.965
2021-08-19 05:34:37.056,-0.315,-0.795
2021-08-19 05:34:37.060,-0.12,-0.51
2021-08-19 05:34:37.064,0.025,-0.36
2021-08-19 05:34:37.068,0.105,-0.275
2021-08-19 05:34:37.072,0.08,-0.17
2021-08-19 05:34:37.076,0.095,-0.08
2021-08-19 05:34:37.080,0.115,-0.095
2021-08-19 05:34:37.084,0.165,-0.245
2021-08-19 05:34:37.088,0.17,-0.295
2021-08-19 05:34:37.092,0.215,-0.19
2021-08-19 05:34:37.096,0.22,-0.14
2021-08-19 05:34:37.100,0.155,-0.08
2021-08-19 05:34:37.104,0.18,-0.205
2021-08-19 05:34:37.108,0.21,-0.275
2021-08-19 05:34:37.112,0.18,-0.205
2021-08-19 05:34:37.116,0.21,-0.115
2021-08-19 05:34:37.120,0.25,-0.17
2021-08-19 05:34:37.124,0.225,-0.225
2021-08-19 05:34:37.128,0.22,-0.21
2021-08-19 05:34:37.132,0.235,-0.16
2021-08-19 05:34:37.136,0.23,-0.18
2021-08-19 05:34:37.140,0.25,-0.26
2021-08-19 05:34:37.144,0.25,-0.25
2021-08-19 05:34:37.148,0.325,-0.18
2021-08-19 05:34:37.152,0.315,-0.14
2021-08-19 05:34:37.156,0.33,-0.12
2021-08-19 05:34:37.160,0.305,-0.14
2021-08-19 05:34:37.164,0.3,-0.145
2021-08-19 05:34:37.168,0.335,-0.205
2021-08-19 05:34:37.172,0.435,-0.26
2021-08-19 05:34:37.176,0.465,-0.19
2021-08-19 05:34:37.180,0.465,-0.08
2021-08-19 05:34:37.184,0.47,-0.15
2021-08-19 05:34:37.188,0.5,-0.165
2021-08-19 05:34:37.192,0.525,-0.125
2021-08-19 05:34:37.196,0.55,-0.035
2021-08-19 05:34:37.200,0.655,0.005
2021-08-19 05:34:37.204,0.695,-0.005
2021-08-19 05:34:37.208,0.72,0.01
2021-08-19 05:34:37.212,0.71,0.11
2021-08-19 05:34:37.216,0.735,0.13
2021-08-19 05:34:37.220,0.775,0.055
2021-08-19 05:34:37.224,0.79,0.015
2021-08-19 05:34:37.228,0.835,0.07
2021-08-19 05:34:37.232,0.87,0.08
2021-08-19 05:34:37.236,0.865,0.18
2021-08-19 05:34:37.240,0.815,0.31
2021-08-19 05:34:37.244,0.8,0.31
2021-08-19 05:34:37.248,0.86,0.11
2021-08-19 05:34:37.252,0.855,0.125
2021-08-19 05:34:37.256,0.805,0.27
2021-08-19 05:34:37.260,0.75,0.325
2021-08-19 05:34:37.264,0.825,0.25
2021-08-19 05:34:37.268,0.855,0.205
2021-08-19 05:34:37.272,0.795,0.26
2021-08-19 05:34:37.276,0.745,0.31
2021-08-19 05:34:37.280,0.715,0.355
2021-08-19 05:34:37.284,0.66,0.36
2021-08-19 05:34:37.288,0.63,0.385
2021-08-19 05:34:37.292,0.675,0.385
2021-08-19 05:34:37.296,0.635,0.28
2021-08-19 05:34:37.300,0.545,0.265
2021-08-19 05:34:37.304,0.47,0.345
2021-08-19 05:34:37.308,0.455,0.35
2021-08-19 05:34:37.312,0.39,0.43
2021-08-19 05:34:37.316,0.395,0.485
2021-08-19 05:34:37.320,0.375,0.46
2021-08-19 05:34:37.324,0.305,0.46
2021-08-19 05:34:37.328,0.24,0.45
2021-08-19 05:34:37.332,0.235,0.32
2021-08-19 05:34:37.336,0.275,0.25
2021-08-19 05:34:37.340,0.205,0.37
2021-08-19 05:34:37.344,0.17,0.445
2021-08-19 05:34:37.348,0.065,0.47
2021-08-19 05:34:37.352,-0.01,0.4
2021-08-19 05:34:37.356,0.045,0.145
2021-08-19 05:34:37.360,0.095,0.125
2021-08-19 05:34:37.364,0.09,0.255
2021-08-19 05:34:37.368,0.03,0.225
2021-08-19 05:34:37.372,0.075,0.215
2021-08-19 05:34:37.376,0.055,0.255
2021-08-19 05:34:37.380,0.06,0.295
2021-08-19 05:34:37.384,-0.03,0.355
2021-08-19 05:34:37.388,-0.12,0.355
2021-08-19 05:34:37.392,-0.075,0.255
2021-08-19 05:34:37.396,-0.005,0.14
2021-08-19 05:34:37.400,0.035,0.03
2021-08-19 05:34:37.404,-0.005,0.03
2021-08-19 05:34:37.408,-0.03,0.225
2021-08-19 05:34:37.412,-0.04,0.245
2021-08-19 05:34:37.416,-0.04,0.23
2021-08-19 05:34:37.420,-0.015,0.175
2021-08-19 05:34:37.424,-0.035,0.04
2021-08-19 05:34:37.428,-0.04,0.075
2021-08-19 05:34:37.432,-0.07,0.165
2021-08-19 05:34:37.436,-0.125,0.145
2021-08-19 05:34:37.440,-0.115,0.035
2021-08-19 05:34:37.444,-0.065,0.0
2021-08-19 05:34:37.448,-0.03,0.05
2021-08-19 05:34:37.452,-0.04,0.045
2021-08-19 05:34:37.456,-0.1,0.12
2021-08-19 05:34:37.460,-0.12,0.12
2021-08-19 05:34:37.464,-0.135,0.02
2021-08-19 05:34:37.468,-0.185,-0.01
2021-08-19 05:34:37.472,-0.16,0.01
2021-08-19 05:34:37.476,-0.15,-0.005
2021-08-19 05:34:37.480,-0.07,0.025
2021-08-19 05:34:37.484,-0.07,0.045
2021-08-19 05:34:37.488,-0.115,0.01
2021-08-19 05:34:37.492,-0.135,0.055
2021-08-19 05:34:37.496,-0.16,0.035
2021-08-19 05:34:37.500,-0.185,0.01
2021-08-19 05:34:37.504,-0.175,-0.045
2021-08-19 05:34:37.508,-0.185,-0.12
2021-08-19 05:34:37.512,-0.17,-0.095
2021-08-19 05:34:37.516,-0.16,-0.02
2021-08-19 05:34:37.520,-0.165,0.0
2021-08-19 05:34:37.524,-0.135,0.025
2021-08-19 05:34:37.528,-0.18,-0.035
2021-08-19 05:34:37.532,-0.19,0.0
2021-08-19 05:34:37.536,-0.195,0.055
2021-08-19 05:34:37.540,-0.205,-0.01
2021-08-19 05:34:37.544,-0.23,-0.12
2021-08-19 05:34:37.548,-0.255,-0.04
2021-08-19 05:34:37.552,-0.26,0.02
2021-08-19 05:34:37.556,-0.15,-0.035
2021-08-19 05:34:37.560,-0.125,-0.04
2021-08-19 05:34:37.564,-0.18,-0.01
2021-08-19 05:34:37.568,-0.21,-0.035
2021-08-19 05:34:37.572,-0.215,-0.055
2021-08-19 05:34:37.576,-0.19,-0.14
2021-08-19 05:34:37.580,-0.24,-0.07
2021-08-19 05:34:37.584,-0.24,0.055
2021-08-19 05:34:37.588,-0.185,-0.005
2021-08-19 05:34:37.592,-0.175,-0.11
2021-08-19 05:34:37.596,-0.14,-0.09
2021-08-19 05:34:37.600,-0.125,0.005
2021-08-19 05:34:37.604,-0.17,0.07
2021-08-19 05:34:37.608,-0.17,0.095
2021-08-19 05:34:37.612,-0.155,0.18
2021-08-19 05:34:37.616,-0.155,0.2
2021-08-19 05:34:37.620,-0.13,0.165
2021-08-19 05:34:37.624,-0.065,0.065
2021-08-19 05:34:37.628,-0.085,0.01
2021-08-19 05:34:37.632,-0.065,0.025
2021-08-19 05:34:37.636,-0.025,0.0
2021-08-19 05:34:37.640,-0.055,0.0
2021-08-19 05:34:37.644,-0.105,0.005
2021-08-19 05:34:37.648,-0.195,0.05
2021-08-19 05:34:37.652,-0.18,0.035
2021-08-19 05:34:37.656,-0.175,0.02
2021-08-19 05:34:37.660,-0.23,-0.02
2021-08-19 05:34:37.664,-0.355,-0.06
2021-08-19 05:34:37.668,-0.385,-0.04
2021-08-19 05:34:37.672,-0.39,0.04
2021-08-19 05:34:37.676,-0.41,0.03
2021-08-19 05:34:37.680,-0.35,0.11
2021-08-19 05:34:37.684,-0.34,0.005
2021-08-19 05:34:37.688,-0.385,-0.05
2021-08-19 05:34:37.692,-0.41,-0.05
2021-08-19 05:34:37.696,-0.495,-0.07
2021-08-19 05:34:37.700,-0.48,-0.06
2021-08-19 05:34:37.704,-0.44,-0.09
2021-08-19 05:34:37.708,-0.43,-0.1
2021-08-19 05:34:37.712,-0.43,-0.11
2021-08-19 05:34:37.716,-0.445,-0.14
2021-08-19 05:34:37.720,-0.445,-0.045
2021-08-19 05:34:37.724,-0.45,0.065
2021-08-19 05:34:37.728,-0.47,0.025
2021-08-19 05:34:37.732,-0.46,-0.125
2021-08-19 05:34:37.736,-0.48,-0.095
2021-08-19 05:34:37.740,-0.45,-0.02
2021-08-19 05:34:37.744,-0.44,-0.04
2021-08-19 05:34:37.748,-0.455,-0.09
2021-08-19 05:34:37.752,-0.545,-0.04
2021-08-19 05:34:37.756,-0.565,0.01
2021-08-19 05:34:37.760,-0.54,0.0
2021-08-19 05:34:37.764,-0.525,-0.02
2021-08-19 05:34:37.768,-0.495,-0.05
2021-08-19 05:34:37.772,-0.54,-0.02
2021-08-19 05:34:37.776,-0.5,-0.17
2021-08-19 05:34:37.780,-0.26,-0.305
2021-08-19 05:34:37.784,-0.265,-0.41
2021-08-19 05:34:37.788,-0.665,-0.44
2021-08-19 05:34:37.792,-0.925,-0.325
2021-08-19 05:34:37.796,-0.86,-0.445
2021-08-19 05:34:37.800,-0.98,-0.295
2021-08-19 05:34:37.804,-1.395,0.16
2021-08-19 05:34:37.808,-1.95,0.47
2021-08-19 05:34:37.852,-1.8,-1.135
2021-08-19 05:34:37.856,-1.345,-0.775
2021-08-19 05:34:37.860,-0.96,-0.625
2021-08-19 05:34:37.864,-0.7,-0.36
2021-08-19 05:34:37.868,-0.55,-0.13
2021-08-19 05:34:37.872,-0.445,0.005
2021-08-19 05:34:37.876,-0.42,0.075
2021-08-19 05:34:37.880,-0.385,0.145
2021-08-19 05:34:37.884,-0.37,0.135
2021-08-19 05:34:37.888,-0.295,0.015
2021-08-19 05:34:37.892,-0.235,-0.055
2021-08-19 05:34:37.896,-0.24,0.05
2021-08-19 05:34:37.900,-0.265,0.105
2021-08-19 05:34:37.904,-0.295,0.22
2021-08-19 05:34:37.908,-0.335,0.29
2021-08-19 05:34:37.912,-0.345,0.18
2021-08-19 05:34:37.916,-0.33,-0.01
2021-08-19 05:34:37.920,-0.29,-0.055
2021-08-19 05:34:37.924,-0.235,-0.06
2021-08-19 05:34:37.928,-0.245,-0.05
2021-08-19 05:34:37.932,-0.205,-0.05
2021-08-19 05:34:37.936,-0.175,-0.03
2021-08-19 05:34:37.940,-0.11,0.055
2021-08-19 05:34:37.944,-0.12,0.19
2021-08-19 05:34:37.948,-0.16,0.285
2021-08-19 05:34:37.952,-0.165,0.26
2021-08-19 05:34:37.956,-0.12,0.015
2021-08-19 05:34:37.960,-0.1,-0.06
2021-08-19 05:34:37.964,-0.045,-0.005
2021-08-19 05:34:37.968,0.015,0.02
2021-08-19 05:34:37.972,0.035,0.06
2021-08-19 05:34:37.976,0.055,0.08
2021-08-19 05:34:37.980,0.085,0.115
2021-08-19 05:34:37.984,0.155,0.13
2021-08-19 05:34:37.988,0.195,0.205
2021-08-19 05:34:37.992,0.24,0.245
2021-08-19 05:34:37.996,0.22,0.31
2021-08-19 05:34:38.000,0.24,0.31
2021-08-19 05:34:38.004,0.31,0.195
2021-08-19 05:34:38.008,0.335,0.145
2021-08-19 05:34:38.012,0.355,0.185
2021-08-19 05:34:38.016,0.435,0.275
2021-08-19 05:34:38.020,0.53,0.395
2021-08-19 05:34:38.024,0.545,0.53
2021-08-19 05:34:38.028,0.59,0.525
2021-08-19 05:34:38.032,0.625,0.4
2021-08-19 05:34:38.036,0.575,0.37
2021-08-19 05:34:38.040,0.565,0.325
2021-08-19 05:34:38.044,0.57,0.32
2021-08-19 05:34:38.048,0.63,0.55
2021-08-19 05:34:38.052,0.65,0.57
2021-08-19 05:34:38.056,0.67,0.5
2021-08-19 05:34:38.060,0.66,0.475
2021-08-19 05:34:38.064,0.655,0.56
2021-08-19 05:34:38.068,0.63,0.615
2021-08-19 05:34:38.072,0.59,0.615
2021-08-19 05:34:38.076,0.545,0.44
2021-08-19 05:34:38.080,0.615,0.39
2021-08-19 05:34:38.084,0.635,0.52
2021-08-19 05:34:38.088,0.595,0.645
2021-08-19 05:34:38.092,0.535,0.68
2021-08-19 05:34:38.096,0.47,0.745
2021-08-19 05:34:38.100,0.425,0.685
2021-08-19 05:34:38.104,0.38,0.665
2021-08-19 05:34:38.108,0.35,0.585
2021-08-19 05:34:38.112,0.335,0.535
2021-08-19 05:34:38.116,0.3,0.665
2021-08-19 05:34:38.120,0.175,0.85
2021-08-19 05:34:38.124,0.185,0.785
2021-08-19 05:34:38.128,0.125,0.625
2021-08-19 05:34:38.132,0.13,0.52
2021-08-19 05:34:38.136,0.115,0.6
2021-08-19 05:34:38.140,0.05,0.705
2021-08-19 05:34:38.144,0.015,0.765
