Time,ECG1,ECG2
2021-08-01 01:13:55.964,0.18,-0.34
2021-08-01 01:13:55.968,0.17,-0.335
2021-08-01 01:13:55.972,0.17,-0.31
2021-08-01 01:13:55.976,0.175,-0.32
2021-08-01 01:13:55.980,0.165,-0.335
2021-08-01 01:13:55.984,0.17,-0.35
2021-08-01 01:13:55.988,0.155,-0.345
2021-08-01 01:13:55.992,0.15,-0.355
2021-08-01 01:13:55.996,0.16,-0.33
2021-08-01 01:13:56.000,0.165,-0.355
2021-08-01 01:13:56.004,0.15,-0.355
2021-08-01 01:13:56.008,0.145,-0.345
2021-08-01 01:13:56.012,0.16,-0.34
2021-08-01 01:13:56.016,0.155,-0.335
2021-08-01 01:13:56.020,0.155,-0.34
2021-08-01 01:13:56.024,0.145,-0.35
2021-08-01 01:13:56.028,0.15,-0.355
2021-08-01 01:13:56.032,0.15,-0.35
2021-08-01 01:13:56.036,0.145,-0.36
2021-08-01 01:13:56.040,0.14,-0.35
2021-08-01 01:13:56.044,0.13,-0.365
2021-08-01 01:13:56.048,0.135,-0.355
2021-08-01 01:13:56.052,0.145,-0.355
2021-08-01 01:13:56.056,0.145,-0.35
2021-08-01 01:13:56.060,0.13,-0.355
2021-08-01 01:13:56.064,0.14,-0.36
2021-08-01 01:13:56.068,0.14,-0.355
2021-08-01 01:13:56.072,0.135,-0.36
2021-08-01 01:13:56.076,0.13,-0.36
2021-08-01 01:13:56.080,0.135,-0.355
2021-08-01 01:13:56.084,0.115,-0.365
2021-08-01 01:13:56.088,0.13,-0.365
2021-08-01 01:13:56.092,0.14,-0.365
2021-08-01 01:13:56.096,0.125,-0.36
2021-08-01 01:13:56.100,0.125,-0.385
2021-08-01 01:13:56.104,0.125,-0.365
2021-08-01 01:13:56.108,0.125,-0.35
2021-08-01 01:13:56.112,0.11,-0.365
2021-08-01 01:13:56.116,0.115,-0.375
2021-08-01 01:13:56.120,0.115,-0.37
2021-08-01 01:13:56.124,0.105,-0.36
2021-08-01 01:13:56.128,0.105,-0.35
2021-08-01 01:13:56.132,0.115,-0.355
2021-08-01 01:13:56.136,0.105,-0.365
2021-08-01 01:13:56.140,0.1,-0.365
2021-08-01 01:13:56.144,0.1,-0.365
2021-08-01 01:13:56.148,0.11,-0.365
2021-08-01 01:13:56.152,0.1,-0.36
2021-08-01 01:13:56.156,0.12,-0.38
2021-08-01 01:13:56.160,0.125,-0.37
2021-08-01 01:13:56.164,0.11,-0.365
2021-08-01 01:13:56.168,0.115,-0.37
2021-08-01 01:13:56.172,0.105,-0.365
2021-08-01 01:13:56.176,0.095,-0.37
2021-08-01 01:13:56.180,0.08,-0.355
2021-08-01 01:13:56.184,0.09,-0.365
2021-08-01 01:13:56.188,0.095,-0.355
2021-08-01 01:13:56.192,0.11,-0.345
2021-08-01 01:13:56.196,0.09,-0.375
2021-08-01 01:13:56.200,0.1,-0.36
2021-08-01 01:13:56.204,0.1,-0.36
2021-08-01 01:13:56.208,0.1,-0.355
2021-08-01 01:13:56.212,0.1,-0.35
2021-08-01 01:13:56.216,0.09,-0.37
2021-08-01 01:13:56.220,0.09,-0.365
2021-08-01 01:13:56.224,0.08,-0.365
2021-08-01 01:13:56.228,0.09,-0.36
2021-08-01 01:13:56.232,0.105,-0.375
2021-08-01 01:13:56.236,0.1,-0.365
2021-08-01 01:13:56.240,0.085,-0.36
2021-08-01 01:13:56.244,0.08,-0.36
2021-08-01 01:13:56.248,0.09,-0.365
2021-08-01 01:13:56.252,0.075,-0.345
2021-08-01 01:13:56.256,0.075,-0.375
2021-08-01 01:13:56.260,0.08,-0.365
2021-08-01 01:13:56.264,0.08,-0.365
2021-08-01 01:13:56.268,0.06,-0.375
2021-08-01 01:13:56.272,0.07,-0.385
2021-08-01 01:13:56.276,0.055,-0.36
2021-08-01 01:13:56.280,0.065,-0.37
2021-08-01 01:13:56.284,0.06,-0.365
2021-08-01 01:13:56.288,0.055,-0.38
2021-08-01 01:13:56.292,0.055,-0.375
2021-08-01 01:13:56.296,0.055,-0.385
2021-08-01 01:13:56.300,0.065,-0.365
2021-08-01 01:13:56.304,0.06,-0.36
2021-08-01 01:13:56.308,0.055,-0.365
2021-08-01 01:13:56.312,0.06,-0.37
2021-08-01 01:13:56.316,0.055,-0.355
2021-08-01 01:13:56.320,0.035,-0.35
2021-08-01 01:13:56.324,0.055,-0.35
2021-08-01 01:13:56.328,0.04,-0.37
2021-08-01 01:13:56.332,0.04,-0.37
2021-08-01 01:13:56.336,0.045,-0.37
2021-08-01 01:13:56.340,0.035,-0.375
2021-08-01 01:13:56.344,0.02,-0.37
2021-08-01 01:13:56.348,0.02,-0.365
2021-08-01 01:13:56.352,0.045,-0.38
2021-08-01 01:13:56.356,0.025,-0.37
2021-08-01 01:13:56.360,0.03,-0.365
2021-08-01 01:13:56.364,0.03,-0.345
2021-08-01 01:13:56.368,0.025,-0.365
2021-08-01 01:13:56.372,0.0,-0.36
2021-08-01 01:13:56.376,0.015,-0.38
2021-08-01 01:13:56.380,0.02,-0.36
2021-08-01 01:13:56.384,0.01,-0.365
2021-08-01 01:13:56.388,0.01,-0.37
2021-08-01 01:13:56.392,0.03,-0.37
2021-08-01 01:13:56.396,0.02,-0.35
2021-08-01 01:13:56.400,0.01,-0.34
2021-08-01 01:13:56.404,0.005,-0.345
2021-08-01 01:13:56.408,0.0,-0.355
2021-08-01 01:13:56.412,0.0,-0.33
2021-08-01 01:13:56.416,0.005,-0.325
2021-08-01 01:13:56.420,0.02,-0.315
2021-08-01 01:13:56.424,0.01,-0.295
2021-08-01 01:13:56.428,0.0,-0.285
2021-08-01 01:13:56.432,0.01,-0.305
2021-08-01 01:13:56.436,0.015,-0.3
2021-08-01 01:13:56.440,0.0,-0.28
2021-08-01 01:13:56.444,0.01,-0.245
2021-08-01 01:13:56.448,0.025,-0.24
2021-08-01 01:13:56.452,0.02,-0.28
2021-08-01 01:13:56.456,0.01,-0.32
2021-08-01 01:13:56.460,-0.005,-0.33
2021-08-01 01:13:56.464,-0.05,-0.355
2021-08-01 01:13:56.468,-0.045,-0.365
2021-08-01 01:13:56.472,-0.065,-0.385
2021-08-01 01:13:56.476,-0.06,-0.36
2021-08-01 01:13:56.480,-0.065,-0.36
2021-08-01 01:13:56.484,-0.08,-0.35
2021-08-01 01:13:56.488,-0.06,-0.355
2021-08-01 01:13:56.492,-0.08,-0.335
2021-08-01 01:13:56.496,-0.07,-0.35
2021-08-01 01:13:56.500,-0.04,-0.34
2021-08-01 01:13:56.504,-0.045,-0.37
2021-08-01 01:13:56.508,-0.045,-0.39
2021-08-01 01:13:56.512,-0.045,-0.415
2021-08-01 01:13:56.516,-0.05,-0.385
2021-08-01 01:13:56.520,-0.075,-0.405
2021-08-01 01:13:56.524,-0.07,-0.425
2021-08-01 01:13:56.528,-0.065,-0.425
2021-08-01 01:13:56.532,-0.08,-0.42
2021-08-01 01:13:56.536,-0.07,-0.42
2021-08-01 01:13:56.540,-0.08,-0.42
2021-08-01 01:13:56.544,-0.08,-0.415
2021-08-01 01:13:56.548,-0.08,-0.405
2021-08-01 01:13:56.552,-0.095,-0.42
2021-08-01 01:13:56.556,-0.085,-0.405
2021-08-01 01:13:56.560,-0.085,-0.405
2021-08-01 01:13:56.564,-0.095,-0.41
2021-08-01 01:13:56.568,-0.075,-0.43
2021-08-01 01:13:56.572,-0.1,-0.42
2021-08-01 01:13:56.576,-0.07,-0.36
2021-08-01 01:13:56.580,-0.065,-0.245
2021-08-01 01:13:56.584,-0.045,-0.06
2021-08-01 01:13:56.588,-0.05,0.17
2021-08-01 01:13:56.592,0.015,0.35
2021-08-01 01:13:56.596,0.12,0.45
2021-08-01 01:13:56.600,0.2,0.475
2021-08-01 01:13:56.604,0.215,0.4
2021-08-01 01:13:56.608,0.195,0.11
2021-08-01 01:13:56.612,0.16,-0.34
2021-08-01 01:13:56.616,0.055,-0.64
2021-08-01 01:13:56.620,-0.14,-0.8
2021-08-01 01:13:56.624,-0.315,-0.855
2021-08-01 01:13:56.628,-0.41,-0.78
2021-08-01 01:13:56.632,-0.425,-0.685
2021-08-01 01:13:56.636,-0.395,-0.595
2021-08-01 01:13:56.640,-0.355,-0.525
2021-08-01 01:13:56.644,-0.28,-0.47
2021-08-01 01:13:56.648,-0.225,-0.42
2021-08-01 01:13:56.652,-0.175,-0.4
2021-08-01 01:13:56.656,-0.145,-0.405
2021-08-01 01:13:56.660,-0.115,-0.41
2021-08-01 01:13:56.664,-0.115,-0.41
2021-08-01 01:13:56.668,-0.13,-0.4
2021-08-01 01:13:56.672,-0.11,-0.405
2021-08-01 01:13:56.676,-0.135,-0.4
2021-08-01 01:13:56.680,-0.13,-0.395
2021-08-01 01:13:56.684,-0.14,-0.395
2021-08-01 01:13:56.688,-0.14,-0.41
2021-08-01 01:13:56.692,-0.13,-0.41
2021-08-01 01:13:56.696,-0.14,-0.385
2021-08-01 01:13:56.700,-0.15,-0.375
2021-08-01 01:13:56.704,-0.145,-0.41
2021-08-01 01:13:56.708,-0.15,-0.395
2021-08-01 01:13:56.712,-0.16,-0.375
2021-08-01 01:13:56.716,-0.15,-0.385
2021-08-01 01:13:56.720,-0.14,-0.38
2021-08-01 01:13:56.724,-0.16,-0.37
2021-08-01 01:13:56.728,-0.16,-0.37
2021-08-01 01:13:56.732,-0.17,-0.36
2021-08-01 01:13:56.736,-0.165,-0.365
2021-08-01 01:13:56.740,-0.17,-0.365
2021-08-01 01:13:56.744,-0.16,-0.365
2021-08-01 01:13:56.748,-0.17,-0.35
2021-08-01 01:13:56.752,-0.17,-0.33
2021-08-01 01:13:56.756,-0.175,-0.345
2021-08-01 01:13:56.760,-0.165,-0.34
2021-08-01 01:13:56.764,-0.18,-0.335
2021-08-01 01:13:56.768,-0.18,-0.31
2021-08-01 01:13:56.772,-0.18,-0.305
2021-08-01 01:13:56.776,-0.165,-0.315
2021-08-01 01:13:56.780,-0.18,-0.285
2021-08-01 01:13:56.784,-0.17,-0.295
2021-08-01 01:13:56.788,-0.165,-0.285
2021-08-01 01:13:56.792,-0.175,-0.275
2021-08-01 01:13:56.796,-0.175,-0.255
2021-08-01 01:13:56.800,-0.18,-0.27
2021-08-01 01:13:56.804,-0.18,-0.265
2021-08-01 01:13:56.808,-0.195,-0.25
2021-08-01 01:13:56.812,-0.17,-0.255
2021-08-01 01:13:56.816,-0.165,-0.235
2021-08-01 01:13:56.820,-0.18,-0.245
2021-08-01 01:13:56.824,-0.16,-0.24
2021-08-01 01:13:56.828,-0.175,-0.23
2021-08-01 01:13:56.832,-0.175,-0.215
2021-08-01 01:13:56.836,-0.19,-0.215
2021-08-01 01:13:56.840,-0.18,-0.225
2021-08-01 01:13:56.844,-0.19,-0.21
2021-08-01 01:13:56.848,-0.2,-0.195
2021-08-01 01:13:56.852,-0.2,-0.19
2021-08-01 01:13:56.856,-0.185,-0.195
2021-08-01 01:13:56.860,-0.185,-0.185
2021-08-01 01:13:56.864,-0.185,-0.18
2021-08-01 01:13:56.868,-0.18,-0.155
2021-08-01 01:13:56.872,-0.205,-0.145
2021-08-01 01:13:56.876,-0.215,-0.145
2021-08-01 01:13:56.880,-0.21,-0.14
2021-08-01 01:13:56.884,-0.175,-0.125
2021-08-01 01:13:56.888,-0.195,-0.12
2021-08-01 01:13:56.892,-0.19,-0.11
2021-08-01 01:13:56.896,-0.19,-0.12
2021-08-01 01:13:56.900,-0.185,-0.115
2021-08-01 01:13:56.904,-0.2,-0.105
2021-08-01 01:13:56.908,-0.185,-0.11
2021-08-01 01:13:56.912,-0.195,-0.115
2021-08-01 01:13:56.916,-0.18,-0.13
2021-08-01 01:13:56.920,-0.185,-0.135
2021-08-01 01:13:56.924,-0.2,-0.12
2021-08-01 01:13:56.928,-0.205,-0.12
2021-08-01 01:13:56.932,-0.2,-0.15
2021-08-01 01:13:56.936,-0.19,-0.15
2021-08-01 01:13:56.940,-0.205,-0.13
2021-08-01 01:13:56.944,-0.215,-0.14
2021-08-01 01:13:56.948,-0.21,-0.155
2021-08-01 01:13:56.952,-0.22,-0.15
2021-08-01 01:13:56.956,-0.225,-0.15
2021-08-01 01:13:56.960,-0.22,-0.15
2021-08-01 01:13:56.964,-0.21,-0.155
2021-08-01 01:13:56.968,-0.21,-0.135
2021-08-01 01:13:56.972,-0.215,-0.15
2021-08-01 01:13:56.976,-0.215,-0.125
2021-08-01 01:13:56.980,-0.22,-0.135
2021-08-01 01:13:56.984,-0.22,-0.13
2021-08-01 01:13:56.988,-0.22,-0.13
2021-08-01 01:13:56.992,-0.225,-0.135
2021-08-01 01:13:56.996,-0.23,-0.12
2021-08-01 01:13:57.000,-0.235,-0.135
2021-08-01 01:13:57.004,-0.23,-0.11
2021-08-01 01:13:57.008,-0.22,-0.11
2021-08-01 01:13:57.012,-0.23,-0.115
2021-08-01 01:13:57.016,-0.245,-0.13
2021-08-01 01:13:57.020,-0.235,-0.12
2021-08-01 01:13:57.024,-0.24,-0.12
2021-08-01 01:13:57.028,-0.235,-0.125
2021-08-01 01:13:57.032,-0.24,-0.13
2021-08-01 01:13:57.036,-0.25,-0.13
2021-08-01 01:13:57.040,-0.245,-0.14
2021-08-01 01:13:57.044,-0.255,-0.13
2021-08-01 01:13:57.048,-0.265,-0.13
2021-08-01 01:13:57.052,-0.27,-0.125
2021-08-01 01:13:57.056,-0.255,-0.15
2021-08-01 01:13:57.060,-0.27,-0.145
2021-08-01 01:13:57.064,-0.265,-0.13
2021-08-01 01:13:57.068,-0.265,-0.125
2021-08-01 01:13:57.072,-0.275,-0.145
2021-08-01 01:13:57.076,-0.27,-0.16
2021-08-01 01:13:57.080,-0.265,-0.15
2021-08-01 01:13:57.084,-0.295,-0.145
2021-08-01 01:13:57.088,-0.265,-0.14
2021-08-01 01:13:57.092,-0.28,-0.14
2021-08-01 01:13:57.096,-0.29,-0.16
2021-08-01 01:13:57.100,-0.27,-0.17
2021-08-01 01:13:57.104,-0.275,-0.155
2021-08-01 01:13:57.108,-0.28,-0.16
2021-08-01 01:13:57.112,-0.285,-0.16
2021-08-01 01:13:57.116,-0.29,-0.155
2021-08-01 01:13:57.120,-0.285,-0.155
2021-08-01 01:13:57.124,-0.29,-0.155
2021-08-01 01:13:57.128,-0.29,-0.17
2021-08-01 01:13:57.132,-0.285,-0.165
2021-08-01 01:13:57.136,-0.295,-0.16
2021-08-01 01:13:57.140,-0.285,-0.15
2021-08-01 01:13:57.144,-0.29,-0.14
2021-08-01 01:13:57.148,-0.31,-0.15
2021-08-01 01:13:57.152,-0.3,-0.175
2021-08-01 01:13:57.156,-0.29,-0.155
2021-08-01 01:13:57.160,-0.305,-0.15
2021-08-01 01:13:57.164,-0.3,-0.16
2021-08-01 01:13:57.168,-0.3,-0.16
2021-08-01 01:13:57.172,-0.315,-0.16
2021-08-01 01:13:57.176,-0.31,-0.15
2021-08-01 01:13:57.180,-0.3,-0.15
2021-08-01 01:13:57.184,-0.31,-0.155
2021-08-01 01:13:57.188,-0.305,-0.15
2021-08-01 01:13:57.192,-0.29,-0.16
2021-08-01 01:13:57.196,-0.305,-0.14
2021-08-01 01:13:57.200,-0.31,-0.145
2021-08-01 01:13:57.204,-0.31,-0.16
2021-08-01 01:13:57.208,-0.295,-0.16
2021-08-01 01:13:57.212,-0.3,-0.155
2021-08-01 01:13:57.216,-0.32,-0.14
2021-08-01 01:13:57.220,-0.315,-0.15
2021-08-01 01:13:57.224,-0.315,-0.14
2021-08-01 01:13:57.228,-0.31,-0.135
2021-08-01 01:13:57.232,-0.295,-0.14
2021-08-01 01:13:57.236,-0.295,-0.145
2021-08-01 01:13:57.240,-0.3,-0.13
2021-08-01 01:13:57.244,-0.305,-0.13
2021-08-01 01:13:57.248,-0.31,-0.14
2021-08-01 01:13:57.252,-0.29,-0.14
2021-08-01 01:13:57.256,-0.295,-0.13
2021-08-01 01:13:57.260,-0.3,-0.135
2021-08-01 01:13:57.264,-0.305,-0.14
2021-08-01 01:13:57.268,-0.29,-0.13
2021-08-01 01:13:57.272,-0.305,-0.115
2021-08-01 01:13:57.276,-0.315,-0.11
2021-08-01 01:13:57.280,-0.285,-0.08
2021-08-01 01:13:57.284,-0.305,-0.055
2021-08-01 01:13:57.288,-0.29,-0.05
2021-08-01 01:13:57.292,-0.275,-0.03
2021-08-01 01:13:57.296,-0.26,-0.03
2021-08-01 01:13:57.300,-0.265,-0.02
2021-08-01 01:13:57.304,-0.27,-0.015
2021-08-01 01:13:57.308,-0.25,0.015
2021-08-01 01:13:57.312,-0.255,0.035
2021-08-01 01:13:57.316,-0.25,0.03
2021-08-01 01:13:57.320,-0.245,0.015
2021-08-01 01:13:57.324,-0.265,-0.01
2021-08-01 01:13:57.328,-0.28,-0.045
2021-08-01 01:13:57.332,-0.285,-0.095
2021-08-01 01:13:57.336,-0.315,-0.1
2021-08-01 01:13:57.340,-0.325,-0.095
2021-08-01 01:13:57.344,-0.355,-0.11
2021-08-01 01:13:57.348,-0.34,-0.08
2021-08-01 01:13:57.352,-0.345,-0.08
2021-08-01 01:13:57.356,-0.31,-0.08
2021-08-01 01:13:57.360,-0.3,-0.105
2021-08-01 01:13:57.364,-0.3,-0.125
2021-08-01 01:13:57.368,-0.29,-0.155
2021-08-01 01:13:57.372,-0.28,-0.155
2021-08-01 01:13:57.376,-0.3,-0.155
2021-08-01 01:13:57.380,-0.31,-0.17
2021-08-01 01:13:57.384,-0.3,-0.195
2021-08-01 01:13:57.388,-0.295,-0.19
2021-08-01 01:13:57.392,-0.33,-0.19
2021-08-01 01:13:57.396,-0.32,-0.195
2021-08-01 01:13:57.400,-0.32,-0.2
2021-08-01 01:13:57.404,-0.31,-0.21
2021-08-01 01:13:57.408,-0.345,-0.2
2021-08-01 01:13:57.412,-0.32,-0.18
2021-08-01 01:13:57.416,-0.32,-0.185
2021-08-01 01:13:57.420,-0.32,-0.21
2021-08-01 01:13:57.424,-0.335,-0.205
2021-08-01 01:13:57.428,-0.32,-0.2
2021-08-01 01:13:57.432,-0.3,-0.17
2021-08-01 01:13:57.436,-0.315,-0.17
2021-08-01 01:13:57.440,-0.315,-0.205
2021-08-01 01:13:57.444,-0.31,-0.2
2021-08-01 01:13:57.448,-0.315,-0.2
2021-08-01 01:13:57.452,-0.3,-0.165
2021-08-01 01:13:57.456,-0.305,-0.015
2021-08-01 01:13:57.460,-0.265,0.175
2021-08-01 01:13:57.464,-0.265,0.385
2021-08-01 01:13:57.468,-0.195,0.57
2021-08-01 01:13:57.472,-0.12,0.655
2021-08-01 01:13:57.476,-0.035,0.67
2021-08-01 01:13:57.480,-0.02,0.63
2021-08-01 01:13:57.484,-0.05,0.4
2021-08-01 01:13:57.488,-0.08,-0.06
2021-08-01 01:13:57.492,-0.155,-0.405
2021-08-01 01:13:57.496,-0.335,-0.59
2021-08-01 01:13:57.500,-0.505,-0.655
2021-08-01 01:13:57.504,-0.59,-0.625
2021-08-01 01:13:57.508,-0.62,-0.495
2021-08-01 01:13:57.512,-0.605,-0.375
2021-08-01 01:13:57.516,-0.555,-0.305
2021-08-01 01:13:57.520,-0.5,-0.235
2021-08-01 01:13:57.524,-0.415,-0.175
2021-08-01 01:13:57.528,-0.355,-0.17
2021-08-01 01:13:57.532,-0.325,-0.175
2021-08-01 01:13:57.536,-0.315,-0.19
2021-08-01 01:13:57.540,-0.32,-0.18
2021-08-01 01:13:57.544,-0.31,-0.165
2021-08-01 01:13:57.548,-0.3,-0.16
2021-08-01 01:13:57.552,-0.3,-0.155
2021-08-01 01:13:57.556,-0.305,-0.13
2021-08-01 01:13:57.560,-0.29,-0.18
2021-08-01 01:13:57.564,-0.295,-0.16
2021-08-01 01:13:57.568,-0.31,-0.15
2021-08-01 01:13:57.572,-0.29,-0.14
2021-08-01 01:13:57.576,-0.3,-0.13
2021-08-01 01:13:57.580,-0.295,-0.135
2021-08-01 01:13:57.584,-0.295,-0.145
2021-08-01 01:13:57.588,-0.295,-0.12
2021-08-01 01:13:57.592,-0.305,-0.125
2021-08-01 01:13:57.596,-0.3,-0.13
2021-08-01 01:13:57.600,-0.315,-0.13
2021-08-01 01:13:57.604,-0.275,-0.135
2021-08-01 01:13:57.608,-0.29,-0.105
2021-08-01 01:13:57.612,-0.28,-0.1
2021-08-01 01:13:57.616,-0.29,-0.12
2021-08-01 01:13:57.620,-0.285,-0.11
2021-08-01 01:13:57.624,-0.3,-0.1
2021-08-01 01:13:57.628,-0.275,-0.11
2021-08-01 01:13:57.632,-0.285,-0.1
2021-08-01 01:13:57.636,-0.295,-0.09
2021-08-01 01:13:57.640,-0.285,-0.1
2021-08-01 01:13:57.644,-0.295,-0.075
2021-08-01 01:13:57.648,-0.3,-0.06
2021-08-01 01:13:57.652,-0.315,-0.065
2021-08-01 01:13:57.656,-0.28,-0.055
2021-08-01 01:13:57.660,-0.29,-0.06
2021-08-01 01:13:57.664,-0.285,-0.05
2021-08-01 01:13:57.668,-0.275,-0.04
2021-08-01 01:13:57.672,-0.275,-0.03
2021-08-01 01:13:57.676,-0.285,-0.035
2021-08-01 01:13:57.680,-0.28,-0.025
2021-08-01 01:13:57.684,-0.27,-0.035
2021-08-01 01:13:57.688,-0.275,-0.035
2021-08-01 01:13:57.692,-0.275,-0.025
2021-08-01 01:13:57.696,-0.29,-0.03
2021-08-01 01:13:57.700,-0.265,-0.01
2021-08-01 01:13:57.704,-0.295,0.0
2021-08-01 01:13:57.708,-0.27,0.0
2021-08-01 01:13:57.712,-0.27,0.0
2021-08-01 01:13:57.716,-0.275,0.005
2021-08-01 01:13:57.720,-0.28,0.015
2021-08-01 01:13:57.724,-0.27,0.03
2021-08-01 01:13:57.728,-0.27,0.025
2021-08-01 01:13:57.732,-0.275,0.04
2021-08-01 01:13:57.736,-0.27,0.035
2021-08-01 01:13:57.740,-0.255,0.05
2021-08-01 01:13:57.744,-0.25,0.035
2021-08-01 01:13:57.748,-0.245,0.06
2021-08-01 01:13:57.752,-0.245,0.07
2021-08-01 01:13:57.756,-0.25,0.065
2021-08-01 01:13:57.760,-0.235,0.08
2021-08-01 01:13:57.764,-0.265,0.07
2021-08-01 01:13:57.768,-0.245,0.065
2021-08-01 01:13:57.772,-0.24,0.055
2021-08-01 01:13:57.776,-0.26,0.055
2021-08-01 01:13:57.780,-0.225,0.045
2021-08-01 01:13:57.784,-0.24,0.045
2021-08-01 01:13:57.788,-0.24,0.06
2021-08-01 01:13:57.792,-0.235,0.035
2021-08-01 01:13:57.796,-0.235,0.035
2021-08-01 01:13:57.800,-0.235,0.02
2021-08-01 01:13:57.804,-0.235,0.045
2021-08-01 01:13:57.808,-0.235,0.025
2021-08-01 01:13:57.812,-0.23,0.01
2021-08-01 01:13:57.816,-0.27,0.02
2021-08-01 01:13:57.820,-0.255,0.04
2021-08-01 01:13:57.824,-0.245,0.035
2021-08-01 01:13:57.828,-0.225,0.04
2021-08-01 01:13:57.832,-0.24,0.035
2021-08-01 01:13:57.836,-0.24,0.04
2021-08-01 01:13:57.840,-0.245,0.045
2021-08-01 01:13:57.844,-0.23,0.06
2021-08-01 01:13:57.848,-0.235,0.035
2021-08-01 01:13:57.852,-0.225,0.045
2021-08-01 01:13:57.856,-0.25,0.05
2021-08-01 01:13:57.860,-0.23,0.065
2021-08-01 01:13:57.864,-0.225,0.045
2021-08-01 01:13:57.868,-0.22,0.07
2021-08-01 01:13:57.872,-0.245,0.055
2021-08-01 01:13:57.876,-0.225,0.055
2021-08-01 01:13:57.880,-0.225,0.06
2021-08-01 01:13:57.884,-0.245,0.06
2021-08-01 01:13:57.888,-0.24,0.045
2021-08-01 01:13:57.892,-0.245,0.05
2021-08-01 01:13:57.896,-0.245,0.065
2021-08-01 01:13:57.900,-0.25,0.065
2021-08-01 01:13:57.904,-0.225,0.045
2021-08-01 01:13:57.908,-0.23,0.055
2021-08-01 01:13:57.912,-0.255,0.045
2021-08-01 01:13:57.916,-0.225,0.05
2021-08-01 01:13:57.920,-0.225,0.06
2021-08-01 01:13:57.924,-0.235,0.055
2021-08-01 01:13:57.928,-0.23,0.055
2021-08-01 01:13:57.932,-0.24,0.04
2021-08-01 01:13:57.936,-0.24,0.055
2021-08-01 01:13:57.940,-0.24,0.025
2021-08-01 01:13:57.944,-0.25,0.015
2021-08-01 01:13:57.948,-0.23,0.025
2021-08-01 01:13:57.952,-0.24,0.02
2021-08-01 01:13:57.956,-0.23,0.035
2021-08-01 01:13:57.960,-0.235,0.035
2021-08-01 01:13:57.964,-0.24,0.05
2021-08-01 01:13:57.968,-0.24,0.01
2021-08-01 01:13:57.972,-0.24,0.03
2021-08-01 01:13:57.976,-0.24,0.045
2021-08-01 01:13:57.980,-0.245,0.02
2021-08-01 01:13:57.984,-0.24,0.005
2021-08-01 01:13:57.988,-0.22,0.02
2021-08-01 01:13:57.992,-0.235,0.02
2021-08-01 01:13:57.996,-0.235,0.025
2021-08-01 01:13:58.000,-0.25,0.02
2021-08-01 01:13:58.004,-0.24,0.045
2021-08-01 01:13:58.008,-0.25,0.005
2021-08-01 01:13:58.012,-0.24,0.01
2021-08-01 01:13:58.016,-0.235,0.03
2021-08-01 01:13:58.020,-0.245,0.025
2021-08-01 01:13:58.024,-0.24,0.015
2021-08-01 01:13:58.028,-0.25,0.035
2021-08-01 01:13:58.032,-0.25,0.02
2021-08-01 01:13:58.036,-0.255,0.015
2021-08-01 01:13:58.040,-0.24,0.01
2021-08-01 01:13:58.044,-0.25,0.025
2021-08-01 01:13:58.048,-0.24,0.015
2021-08-01 01:13:58.052,-0.25,0.03
2021-08-01 01:13:58.056,-0.245,0.025
2021-08-01 01:13:58.060,-0.255,0.02
2021-08-01 01:13:58.064,-0.23,0.01
2021-08-01 01:13:58.068,-0.245,0.0
2021-08-01 01:13:58.072,-0.245,0.03
2021-08-01 01:13:58.076,-0.25,0.06
2021-08-01 01:13:58.080,-0.235,0.06
2021-08-01 01:13:58.084,-0.24,0.07
2021-08-01 01:13:58.088,-0.24,0.08
2021-08-01 01:13:58.092,-0.225,0.105
2021-08-01 01:13:58.096,-0.23,0.115
2021-08-01 01:13:58.100,-0.2,0.105
2021-08-01 01:13:58.104,-0.21,0.12
2021-08-01 01:13:58.108,-0.195,0.135
2021-08-01 01:13:58.112,-0.2,0.175
2021-08-01 01:13:58.116,-0.19,0.195
2021-08-01 01:13:58.120,-0.21,0.185
2021-08-01 01:13:58.124,-0.215,0.165
2021-08-01 01:13:58.128,-0.24,0.135
2021-08-01 01:13:58.132,-0.245,0.08
2021-08-01 01:13:58.136,-0.24,0.045
2021-08-01 01:13:58.140,-0.29,0.05
2021-08-01 01:13:58.144,-0.295,0.035
2021-08-01 01:13:58.148,-0.295,0.035
2021-08-01 01:13:58.152,-0.29,0.06
2021-08-01 01:13:58.156,-0.3,0.045
2021-08-01 01:13:58.160,-0.29,0.04
2021-08-01 01:13:58.164,-0.26,0.035
2021-08-01 01:13:58.168,-0.275,0.01
2021-08-01 01:13:58.172,-0.265,-0.01
2021-08-01 01:13:58.176,-0.285,-0.005
2021-08-01 01:13:58.180,-0.27,-0.015
2021-08-01 01:13:58.184,-0.275,-0.04
2021-08-01 01:13:58.188,-0.285,-0.06
2021-08-01 01:13:58.192,-0.29,-0.06
2021-08-01 01:13:58.196,-0.32,-0.055
2021-08-01 01:13:58.200,-0.305,-0.065
2021-08-01 01:13:58.204,-0.315,-0.055
2021-08-01 01:13:58.208,-0.3,-0.04
2021-08-01 01:13:58.212,-0.315,-0.055
2021-08-01 01:13:58.216,-0.325,-0.05
2021-08-01 01:13:58.220,-0.32,-0.065
2021-08-01 01:13:58.224,-0.325,-0.07
2021-08-01 01:13:58.228,-0.32,-0.055
2021-08-01 01:13:58.232,-0.31,-0.065
2021-08-01 01:13:58.236,-0.315,-0.04
2021-08-01 01:13:58.240,-0.35,-0.04
2021-08-01 01:13:58.244,-0.335,-0.045
2021-08-01 01:13:58.248,-0.315,-0.07
2021-08-01 01:13:58.252,-0.315,-0.07
2021-08-01 01:13:58.256,-0.32,-0.015
2021-08-01 01:13:58.260,-0.31,0.105
2021-08-01 01:13:58.264,-0.3,0.295
2021-08-01 01:13:58.268,-0.275,0.52
2021-08-01 01:13:58.272,-0.23,0.7
2021-08-01 01:13:58.276,-0.15,0.77
2021-08-01 01:13:58.280,-0.055,0.79
2021-08-01 01:13:58.284,-0.025,0.69
2021-08-01 01:13:58.288,-0.025,0.345
2021-08-01 01:13:58.292,-0.075,-0.105
2021-08-01 01:13:58.296,-0.18,-0.425
2021-08-01 01:13:58.300,-0.39,-0.52
2021-08-01 01:13:58.304,-0.545,-0.525
2021-08-01 01:13:58.308,-0.645,-0.48
2021-08-01 01:13:58.312,-0.64,-0.365
2021-08-01 01:13:58.316,-0.61,-0.265
2021-08-01 01:13:58.320,-0.58,-0.16
2021-08-01 01:13:58.324,-0.51,-0.075
2021-08-01 01:13:58.328,-0.46,-0.045
2021-08-01 01:13:58.332,-0.41,-0.035
2021-08-01 01:13:58.336,-0.36,-0.05
2021-08-01 01:13:58.340,-0.365,-0.04
2021-08-01 01:13:58.344,-0.375,-0.03
2021-08-01 01:13:58.348,-0.38,-0.025
2021-08-01 01:13:58.352,-0.38,-0.02
2021-08-01 01:13:58.356,-0.385,-0.04
2021-08-01 01:13:58.360,-0.39,-0.03
2021-08-01 01:13:58.364,-0.38,-0.03
2021-08-01 01:13:58.368,-0.4,-0.015
2021-08-01 01:13:58.372,-0.39,-0.035
2021-08-01 01:13:58.376,-0.395,-0.02
2021-08-01 01:13:58.380,-0.375,0.0
2021-08-01 01:13:58.384,-0.39,0.02
2021-08-01 01:13:58.388,-0.41,0.0
2021-08-01 01:13:58.392,-0.405,-0.005
2021-08-01 01:13:58.396,-0.4,0.0
2021-08-01 01:13:58.400,-0.42,0.0
2021-08-01 01:13:58.404,-0.42,0.005
2021-08-01 01:13:58.408,-0.4,0.005
2021-08-01 01:13:58.412,-0.43,0.02
2021-08-01 01:13:58.416,-0.43,0.015
2021-08-01 01:13:58.420,-0.435,0.025
2021-08-01 01:13:58.424,-0.425,0.035
2021-08-01 01:13:58.428,-0.455,0.04
2021-08-01 01:13:58.432,-0.44,0.04
2021-08-01 01:13:58.436,-0.44,0.035
2021-08-01 01:13:58.440,-0.45,0.06
2021-08-01 01:13:58.444,-0.46,0.04
2021-08-01 01:13:58.448,-0.445,0.07
2021-08-01 01:13:58.452,-0.455,0.065
2021-08-01 01:13:58.456,-0.46,0.055
2021-08-01 01:13:58.460,-0.45,0.08
2021-08-01 01:13:58.464,-0.465,0.095
2021-08-01 01:13:58.468,-0.48,0.095
2021-08-01 01:13:58.472,-0.46,0.085
2021-08-01 01:13:58.476,-0.465,0.105
2021-08-01 01:13:58.480,-0.46,0.125
2021-08-01 01:13:58.484,-0.445,0.11
2021-08-01 01:13:58.488,-0.445,0.135
2021-08-01 01:13:58.492,-0.46,0.145
2021-08-01 01:13:58.496,-0.47,0.155
2021-08-01 01:13:58.500,-0.46,0.14
2021-08-01 01:13:58.504,-0.46,0.165
2021-08-01 01:13:58.508,-0.48,0.185
2021-08-01 01:13:58.512,-0.48,0.165
2021-08-01 01:13:58.516,-0.485,0.175
2021-08-01 01:13:58.520,-0.495,0.195
2021-08-01 01:13:58.524,-0.475,0.215
2021-08-01 01:13:58.528,-0.475,0.22
2021-08-01 01:13:58.532,-0.47,0.205
2021-08-01 01:13:58.536,-0.475,0.23
2021-08-01 01:13:58.540,-0.47,0.245
2021-08-01 01:13:58.544,-0.47,0.26
2021-08-01 01:13:58.548,-0.47,0.27
2021-08-01 01:13:58.552,-0.465,0.275
2021-08-01 01:13:58.556,-0.46,0.275
2021-08-01 01:13:58.560,-0.47,0.285
2021-08-01 01:13:58.564,-0.455,0.25
2021-08-01 01:13:58.568,-0.455,0.255
2021-08-01 01:13:58.572,-0.455,0.245
2021-08-01 01:13:58.576,-0.46,0.25
2021-08-01 01:13:58.580,-0.465,0.235
2021-08-01 01:13:58.584,-0.455,0.235
2021-08-01 01:13:58.588,-0.455,0.225
2021-08-01 01:13:58.592,-0.46,0.215
2021-08-01 01:13:58.596,-0.48,0.23
2021-08-01 01:13:58.600,-0.485,0.235
2021-08-01 01:13:58.604,-0.485,0.235
2021-08-01 01:13:58.608,-0.475,0.225
2021-08-01 01:13:58.612,-0.485,0.225
2021-08-01 01:13:58.616,-0.485,0.245
2021-08-01 01:13:58.620,-0.48,0.245
2021-08-01 01:13:58.624,-0.475,0.25
2021-08-01 01:13:58.628,-0.48,0.225
2021-08-01 01:13:58.632,-0.49,0.23
2021-08-01 01:13:58.636,-0.48,0.23
2021-08-01 01:13:58.640,-0.48,0.25
2021-08-01 01:13:58.644,-0.49,0.26
2021-08-01 01:13:58.648,-0.48,0.265
2021-08-01 01:13:58.652,-0.485,0.24
2021-08-01 01:13:58.656,-0.48,0.265
2021-08-01 01:13:58.660,-0.5,0.27
2021-08-01 01:13:58.664,-0.49,0.26
2021-08-01 01:13:58.668,-0.48,0.24
2021-08-01 01:13:58.672,-0.5,0.29
2021-08-01 01:13:58.676,-0.485,0.27
2021-08-01 01:13:58.680,-0.48,0.28
2021-08-01 01:13:58.684,-0.49,0.28
2021-08-01 01:13:58.688,-0.495,0.285
2021-08-01 01:13:58.692,-0.495,0.265
2021-08-01 01:13:58.696,-0.505,0.26
2021-08-01 01:13:58.700,-0.505,0.29
2021-08-01 01:13:58.704,-0.51,0.28
2021-08-01 01:13:58.708,-0.505,0.285
2021-08-01 01:13:58.712,-0.515,0.3
2021-08-01 01:13:58.716,-0.475,0.29
2021-08-01 01:13:58.720,-0.52,0.295
2021-08-01 01:13:58.724,-0.505,0.275
2021-08-01 01:13:58.728,-0.53,0.275
2021-08-01 01:13:58.732,-0.52,0.275
2021-08-01 01:13:58.736,-0.515,0.3
2021-08-01 01:13:58.740,-0.52,0.29
2021-08-01 01:13:58.744,-0.525,0.27
2021-08-01 01:13:58.748,-0.525,0.265
2021-08-01 01:13:58.752,-0.52,0.27
2021-08-01 01:13:58.756,-0.515,0.285
2021-08-01 01:13:58.760,-0.535,0.27
2021-08-01 01:13:58.764,-0.535,0.275
2021-08-01 01:13:58.768,-0.52,0.28
2021-08-01 01:13:58.772,-0.525,0.26
2021-08-01 01:13:58.776,-0.54,0.28
2021-08-01 01:13:58.780,-0.51,0.275
2021-08-01 01:13:58.784,-0.54,0.285
2021-08-01 01:13:58.788,-0.525,0.26
2021-08-01 01:13:58.792,-0.515,0.275
2021-08-01 01:13:58.796,-0.525,0.285
2021-08-01 01:13:58.800,-0.515,0.28
2021-08-01 01:13:58.804,-0.515,0.275
2021-08-01 01:13:58.808,-0.515,0.285
2021-08-01 01:13:58.812,-0.525,0.295
2021-08-01 01:13:58.816,-0.535,0.285
2021-08-01 01:13:58.820,-0.54,0.275
2021-08-01 01:13:58.824,-0.56,0.29
2021-08-01 01:13:58.828,-0.525,0.31
2021-08-01 01:13:58.832,-0.515,0.335
2021-08-01 01:13:58.836,-0.525,0.35
2021-08-01 01:13:58.840,-0.52,0.365
2021-08-01 01:13:58.844,-0.495,0.385
2021-08-01 01:13:58.848,-0.52,0.405
2021-08-01 01:13:58.852,-0.485,0.41
2021-08-01 01:13:58.856,-0.48,0.43
2021-08-01 01:13:58.860,-0.48,0.44
2021-08-01 01:13:58.864,-0.48,0.465
2021-08-01 01:13:58.868,-0.475,0.455
2021-08-01 01:13:58.872,-0.46,0.44
2021-08-01 01:13:58.876,-0.49,0.43
2021-08-01 01:13:58.880,-0.49,0.4
2021-08-01 01:13:58.884,-0.52,0.36
2021-08-01 01:13:58.888,-0.53,0.345
2021-08-01 01:13:58.892,-0.55,0.33
2021-08-01 01:13:58.896,-0.56,0.335
2021-08-01 01:13:58.900,-0.56,0.325
2021-08-01 01:13:58.904,-0.575,0.33
2021-08-01 01:13:58.908,-0.56,0.35
2021-08-01 01:13:58.912,-0.525,0.335
2021-08-01 01:13:58.916,-0.525,0.325
2021-08-01 01:13:58.920,-0.54,0.3
2021-08-01 01:13:58.924,-0.51,0.295
2021-08-01 01:13:58.928,-0.505,0.3
2021-08-01 01:13:58.932,-0.515,0.275
2021-08-01 01:13:58.936,-0.515,0.265
2021-08-01 01:13:58.940,-0.515,0.235
2021-08-01 01:13:58.944,-0.525,0.245
2021-08-01 01:13:58.948,-0.52,0.26
2021-08-01 01:13:58.952,-0.535,0.26
2021-08-01 01:13:58.956,-0.54,0.26
2021-08-01 01:13:58.960,-0.55,0.25
2021-08-01 01:13:58.964,-0.53,0.25
2021-08-01 01:13:58.968,-0.53,0.26
2021-08-01 01:13:58.972,-0.525,0.255
2021-08-01 01:13:58.976,-0.535,0.25
2021-08-01 01:13:58.980,-0.525,0.26
2021-08-01 01:13:58.984,-0.505,0.275
2021-08-01 01:13:58.988,-0.515,0.265
2021-08-01 01:13:58.992,-0.52,0.255
2021-08-01 01:13:58.996,-0.52,0.25
2021-08-01 01:13:59.000,-0.525,0.23
2021-08-01 01:13:59.004,-0.51,0.26
2021-08-01 01:13:59.008,-0.51,0.325
2021-08-01 01:13:59.012,-0.495,0.48
2021-08-01 01:13:59.016,-0.46,0.66
2021-08-01 01:13:59.020,-0.425,0.855
2021-08-01 01:13:59.024,-0.38,1.015
2021-08-01 01:13:59.028,-0.3,1.06
2021-08-01 01:13:59.032,-0.22,1.085
2021-08-01 01:13:59.036,-0.215,0.985
2021-08-01 01:13:59.040,-0.24,0.635
2021-08-01 01:13:59.044,-0.245,0.185
2021-08-01 01:13:59.048,-0.365,-0.08
2021-08-01 01:13:59.052,-0.565,-0.2
2021-08-01 01:13:59.056,-0.685,-0.21
2021-08-01 01:13:59.060,-0.755,-0.15
2021-08-01 01:13:59.064,-0.765,0.005
2021-08-01 01:13:59.068,-0.75,0.095
2021-08-01 01:13:59.072,-0.695,0.18
2021-08-01 01:13:59.076,-0.635,0.245
2021-08-01 01:13:59.080,-0.565,0.265
2021-08-01 01:13:59.084,-0.525,0.275
2021-08-01 01:13:59.088,-0.475,0.27
2021-08-01 01:13:59.092,-0.475,0.28
2021-08-01 01:13:59.096,-0.465,0.275
2021-08-01 01:13:59.100,-0.45,0.285
2021-08-01 01:13:59.104,-0.465,0.29
2021-08-01 01:13:59.108,-0.475,0.305
2021-08-01 01:13:59.112,-0.475,0.285
2021-08-01 01:13:59.116,-0.45,0.3
2021-08-01 01:13:59.120,-0.46,0.305
2021-08-01 01:13:59.124,-0.44,0.305
2021-08-01 01:13:59.128,-0.44,0.33
2021-08-01 01:13:59.132,-0.45,0.32
2021-08-01 01:13:59.136,-0.47,0.305
2021-08-01 01:13:59.140,-0.465,0.31
2021-08-01 01:13:59.144,-0.465,0.31
2021-08-01 01:13:59.148,-0.47,0.345
2021-08-01 01:13:59.152,-0.45,0.33
2021-08-01 01:13:59.156,-0.44,0.315
2021-08-01 01:13:59.160,-0.435,0.335
2021-08-01 01:13:59.164,-0.445,0.345
2021-08-01 01:13:59.168,-0.435,0.335
2021-08-01 01:13:59.172,-0.44,0.34
2021-08-01 01:13:59.176,-0.45,0.35
2021-08-01 01:13:59.180,-0.445,0.355
2021-08-01 01:13:59.184,-0.415,0.355
2021-08-01 01:13:59.188,-0.43,0.365
2021-08-01 01:13:59.192,-0.435,0.37
2021-08-01 01:13:59.196,-0.44,0.38
2021-08-01 01:13:59.200,-0.425,0.395
2021-08-01 01:13:59.204,-0.435,0.4
2021-08-01 01:13:59.208,-0.43,0.39
2021-08-01 01:13:59.212,-0.425,0.4
2021-08-01 01:13:59.216,-0.425,0.43
2021-08-01 01:13:59.220,-0.41,0.425
2021-08-01 01:13:59.224,-0.41,0.425
2021-08-01 01:13:59.228,-0.425,0.44
2021-08-01 01:13:59.232,-0.42,0.445
2021-08-01 01:13:59.236,-0.4,0.45
2021-08-01 01:13:59.240,-0.425,0.47
2021-08-01 01:13:59.244,-0.405,0.475
2021-08-01 01:13:59.248,-0.405,0.46
2021-08-01 01:13:59.252,-0.4,0.46
2021-08-01 01:13:59.256,-0.4,0.475
2021-08-01 01:13:59.260,-0.39,0.495
2021-08-01 01:13:59.264,-0.39,0.48
2021-08-01 01:13:59.268,-0.37,0.475
2021-08-01 01:13:59.272,-0.39,0.48
2021-08-01 01:13:59.276,-0.38,0.505
2021-08-01 01:13:59.280,-0.375,0.51
2021-08-01 01:13:59.284,-0.375,0.515
2021-08-01 01:13:59.288,-0.375,0.53
2021-08-01 01:13:59.292,-0.385,0.52
2021-08-01 01:13:59.296,-0.365,0.53
2021-08-01 01:13:59.300,-0.36,0.53
2021-08-01 01:13:59.304,-0.355,0.53
2021-08-01 01:13:59.308,-0.335,0.515
2021-08-01 01:13:59.312,-0.355,0.505
2021-08-01 01:13:59.316,-0.355,0.515
2021-08-01 01:13:59.320,-0.36,0.495
2021-08-01 01:13:59.324,-0.365,0.495
2021-08-01 01:13:59.328,-0.36,0.48
2021-08-01 01:13:59.332,-0.355,0.475
2021-08-01 01:13:59.336,-0.355,0.485
2021-08-01 01:13:59.340,-0.355,0.48
2021-08-01 01:13:59.344,-0.365,0.475
2021-08-01 01:13:59.348,-0.355,0.475
2021-08-01 01:13:59.352,-0.355,0.47
2021-08-01 01:13:59.356,-0.355,0.475
2021-08-01 01:13:59.360,-0.345,0.465
2021-08-01 01:13:59.364,-0.365,0.455
2021-08-01 01:13:59.368,-0.375,0.465
2021-08-01 01:13:59.372,-0.36,0.465
2021-08-01 01:13:59.376,-0.35,0.48
2021-08-01 01:13:59.380,-0.345,0.48
2021-08-01 01:13:59.384,-0.345,0.48
2021-08-01 01:13:59.388,-0.365,0.475
2021-08-01 01:13:59.392,-0.37,0.46
2021-08-01 01:13:59.396,-0.37,0.505
2021-08-01 01:13:59.400,-0.37,0.5
2021-08-01 01:13:59.404,-0.345,0.48
2021-08-01 01:13:59.408,-0.36,0.5
2021-08-01 01:13:59.412,-0.355,0.51
2021-08-01 01:13:59.416,-0.345,0.495
2021-08-01 01:13:59.420,-0.35,0.49
2021-08-01 01:13:59.424,-0.33,0.49
2021-08-01 01:13:59.428,-0.335,0.49
2021-08-01 01:13:59.432,-0.325,0.5
2021-08-01 01:13:59.436,-0.35,0.505
2021-08-01 01:13:59.440,-0.35,0.51
2021-08-01 01:13:59.444,-0.33,0.495
2021-08-01 01:13:59.448,-0.335,0.505
2021-08-01 01:13:59.452,-0.34,0.5
2021-08-01 01:13:59.456,-0.32,0.51
2021-08-01 01:13:59.460,-0.34,0.505
2021-08-01 01:13:59.464,-0.34,0.48
2021-08-01 01:13:59.468,-0.35,0.5
2021-08-01 01:13:59.472,-0.34,0.5
2021-08-01 01:13:59.476,-0.34,0.505
2021-08-01 01:13:59.480,-0.34,0.49
2021-08-01 01:13:59.484,-0.345,0.49
2021-08-01 01:13:59.488,-0.335,0.495
2021-08-01 01:13:59.492,-0.345,0.51
2021-08-01 01:13:59.496,-0.32,0.505
2021-08-01 01:13:59.500,-0.355,0.505
2021-08-01 01:13:59.504,-0.345,0.495
2021-08-01 01:13:59.508,-0.32,0.495
2021-08-01 01:13:59.512,-0.335,0.485
2021-08-01 01:13:59.516,-0.345,0.505
2021-08-01 01:13:59.520,-0.335,0.495
2021-08-01 01:13:59.524,-0.34,0.505
2021-08-01 01:13:59.528,-0.33,0.505
2021-08-01 01:13:59.532,-0.34,0.505
2021-08-01 01:13:59.536,-0.33,0.495
2021-08-01 01:13:59.540,-0.325,0.5
2021-08-01 01:13:59.544,-0.32,0.5
2021-08-01 01:13:59.548,-0.315,0.505
2021-08-01 01:13:59.552,-0.32,0.515
2021-08-01 01:13:59.556,-0.33,0.505
2021-08-01 01:13:59.560,-0.325,0.5
2021-08-01 01:13:59.564,-0.325,0.495
2021-08-01 01:13:59.568,-0.325,0.515
2021-08-01 01:13:59.572,-0.31,0.54
2021-08-01 01:13:59.576,-0.305,0.54
2021-08-01 01:13:59.580,-0.32,0.565
2021-08-01 01:13:59.584,-0.3,0.575
2021-08-01 01:13:59.588,-0.31,0.595
2021-08-01 01:13:59.592,-0.29,0.59
2021-08-01 01:13:59.596,-0.29,0.605
2021-08-01 01:13:59.600,-0.265,0.615
2021-08-01 01:13:59.604,-0.235,0.635
2021-08-01 01:13:59.608,-0.245,0.645
2021-08-01 01:13:59.612,-0.26,0.635
2021-08-01 01:13:59.616,-0.275,0.61
2021-08-01 01:13:59.620,-0.265,0.58
2021-08-01 01:13:59.624,-0.29,0.555
2021-08-01 01:13:59.628,-0.31,0.51
2021-08-01 01:13:59.632,-0.32,0.5
2021-08-01 01:13:59.636,-0.315,0.505
2021-08-01 01:13:59.640,-0.335,0.515
2021-08-01 01:13:59.644,-0.33,0.51
2021-08-01 01:13:59.648,-0.315,0.515
2021-08-01 01:13:59.652,-0.3,0.52
2021-08-01 01:13:59.656,-0.27,0.48
2021-08-01 01:13:59.660,-0.28,0.47
2021-08-01 01:13:59.664,-0.275,0.465
2021-08-01 01:13:59.668,-0.29,0.46
2021-08-01 01:13:59.672,-0.26,0.43
2021-08-01 01:13:59.676,-0.265,0.415
2021-08-01 01:13:59.680,-0.26,0.425
2021-08-01 01:13:59.684,-0.28,0.405
2021-08-01 01:13:59.688,-0.265,0.405
2021-08-01 01:13:59.692,-0.275,0.39
2021-08-01 01:13:59.696,-0.29,0.4
2021-08-01 01:13:59.700,-0.29,0.39
2021-08-01 01:13:59.704,-0.265,0.395
2021-08-01 01:13:59.708,-0.295,0.405
2021-08-01 01:13:59.712,-0.265,0.41
2021-08-01 01:13:59.716,-0.275,0.38
2021-08-01 01:13:59.720,-0.27,0.39
2021-08-01 01:13:59.724,-0.28,0.4
2021-08-01 01:13:59.728,-0.265,0.405
2021-08-01 01:13:59.732,-0.265,0.385
2021-08-01 01:13:59.736,-0.265,0.36
2021-08-01 01:13:59.740,-0.255,0.355
2021-08-01 01:13:59.744,-0.255,0.4
2021-08-01 01:13:59.748,-0.235,0.505
2021-08-01 01:13:59.752,-0.215,0.655
2021-08-01 01:13:59.756,-0.2,0.82
2021-08-01 01:13:59.760,-0.17,1.02
2021-08-01 01:13:59.764,-0.105,1.15
2021-08-01 01:13:59.768,-0.01,1.18
2021-08-01 01:13:59.772,0.025,1.15
2021-08-01 01:13:59.776,0.01,0.94
2021-08-01 01:13:59.780,-0.025,0.505
2021-08-01 01:13:59.784,-0.065,0.14
2021-08-01 01:13:59.788,-0.26,-0.04
2021-08-01 01:13:59.792,-0.44,-0.095
2021-08-01 01:13:59.796,-0.515,-0.035
2021-08-01 01:13:59.800,-0.505,0.085
2021-08-01 01:13:59.804,-0.52,0.215
2021-08-01 01:13:59.808,-0.455,0.29
2021-08-01 01:13:59.812,-0.365,0.34
2021-08-01 01:13:59.816,-0.315,0.355
2021-08-01 01:13:59.820,-0.27,0.375
2021-08-01 01:13:59.824,-0.22,0.375
2021-08-01 01:13:59.828,-0.215,0.355
2021-08-01 01:13:59.832,-0.215,0.37
2021-08-01 01:13:59.836,-0.22,0.35
2021-08-01 01:13:59.840,-0.205,0.38
2021-08-01 01:13:59.844,-0.22,0.38
2021-08-01 01:13:59.848,-0.21,0.365
2021-08-01 01:13:59.852,-0.195,0.36
2021-08-01 01:13:59.856,-0.2,0.36
2021-08-01 01:13:59.860,-0.19,0.37
2021-08-01 01:13:59.864,-0.18,0.38
2021-08-01 01:13:59.868,-0.195,0.35
2021-08-01 01:13:59.872,-0.19,0.36
2021-08-01 01:13:59.876,-0.195,0.365
2021-08-01 01:13:59.880,-0.195,0.365
2021-08-01 01:13:59.884,-0.2,0.365
2021-08-01 01:13:59.888,-0.2,0.345
2021-08-01 01:13:59.892,-0.18,0.345
2021-08-01 01:13:59.896,-0.185,0.365
2021-08-01 01:13:59.900,-0.18,0.37
2021-08-01 01:13:59.904,-0.19,0.375
2021-08-01 01:13:59.908,-0.18,0.38
2021-08-01 01:13:59.912,-0.19,0.38
2021-08-01 01:13:59.916,-0.175,0.375
2021-08-01 01:13:59.920,-0.185,0.385
2021-08-01 01:13:59.924,-0.18,0.385
2021-08-01 01:13:59.928,-0.19,0.38
2021-08-01 01:13:59.932,-0.18,0.38
2021-08-01 01:13:59.936,-0.18,0.405
2021-08-01 01:13:59.940,-0.195,0.41
2021-08-01 01:13:59.944,-0.195,0.415
2021-08-01 01:13:59.948,-0.18,0.41
2021-08-01 01:13:59.952,-0.185,0.415
2021-08-01 01:13:59.956,-0.19,0.425
2021-08-01 01:13:59.960,-0.16,0.44
2021-08-01 01:13:59.964,-0.195,0.435
2021-08-01 01:13:59.968,-0.175,0.435
2021-08-01 01:13:59.972,-0.185,0.42
2021-08-01 01:13:59.976,-0.175,0.445
2021-08-01 01:13:59.980,-0.18,0.44
2021-08-01 01:13:59.984,-0.17,0.435
2021-08-01 01:13:59.988,-0.175,0.45
2021-08-01 01:13:59.992,-0.155,0.445
2021-08-01 01:13:59.996,-0.165,0.455
2021-08-01 01:14:00.000,-0.135,0.455
2021-08-01 01:14:00.004,-0.145,0.455
2021-08-01 01:14:00.008,-0.165,0.455
2021-08-01 01:14:00.012,-0.145,0.47
2021-08-01 01:14:00.016,-0.125,0.475
2021-08-01 01:14:00.020,-0.155,0.47
2021-08-01 01:14:00.024,-0.14,0.495
2021-08-01 01:14:00.028,-0.14,0.48
2021-08-01 01:14:00.032,-0.135,0.49
2021-08-01 01:14:00.036,-0.125,0.485
2021-08-01 01:14:00.040,-0.125,0.48
2021-08-01 01:14:00.044,-0.13,0.465
2021-08-01 01:14:00.048,-0.15,0.46
2021-08-01 01:14:00.052,-0.115,0.44
2021-08-01 01:14:00.056,-0.115,0.445
2021-08-01 01:14:00.060,-0.13,0.43
2021-08-01 01:14:00.064,-0.105,0.405
2021-08-01 01:14:00.068,-0.12,0.385
2021-08-01 01:14:00.072,-0.125,0.395
2021-08-01 01:14:00.076,-0.12,0.405
2021-08-01 01:14:00.080,-0.115,0.415
2021-08-01 01:14:00.084,-0.115,0.38
2021-08-01 01:14:00.088,-0.105,0.38
2021-08-01 01:14:00.092,-0.105,0.38
2021-08-01 01:14:00.096,-0.1,0.39
2021-08-01 01:14:00.100,-0.115,0.375
2021-08-01 01:14:00.104,-0.105,0.365
2021-08-01 01:14:00.108,-0.1,0.37
2021-08-01 01:14:00.112,-0.1,0.375
2021-08-01 01:14:00.116,-0.1,0.37
2021-08-01 01:14:00.120,-0.12,0.355
2021-08-01 01:14:00.124,-0.11,0.355
2021-08-01 01:14:00.128,-0.095,0.38
2021-08-01 01:14:00.132,-0.1,0.36
2021-08-01 01:14:00.136,-0.1,0.35
2021-08-01 01:14:00.140,-0.1,0.365
2021-08-01 01:14:00.144,-0.1,0.355
2021-08-01 01:14:00.148,-0.085,0.38
2021-08-01 01:14:00.152,-0.09,0.375
2021-08-01 01:14:00.156,-0.09,0.37
2021-08-01 01:14:00.160,-0.08,0.35
2021-08-01 01:14:00.164,-0.06,0.37
2021-08-01 01:14:00.168,-0.075,0.38
2021-08-01 01:14:00.172,-0.08,0.38
2021-08-01 01:14:00.176,-0.09,0.35
2021-08-01 01:14:00.180,-0.07,0.35
2021-08-01 01:14:00.184,-0.06,0.36
2021-08-01 01:14:00.188,-0.07,0.35
2021-08-01 01:14:00.192,-0.07,0.36
2021-08-01 01:14:00.196,-0.06,0.365
2021-08-01 01:14:00.200,-0.055,0.355
2021-08-01 01:14:00.204,-0.05,0.35
2021-08-01 01:14:00.208,-0.04,0.34
2021-08-01 01:14:00.212,-0.055,0.33
2021-08-01 01:14:00.216,-0.05,0.335
2021-08-01 01:14:00.220,-0.045,0.315
2021-08-01 01:14:00.224,-0.045,0.32
2021-08-01 01:14:00.228,-0.04,0.335
2021-08-01 01:14:00.232,-0.05,0.315
2021-08-01 01:14:00.236,-0.02,0.32
2021-08-01 01:14:00.240,-0.04,0.335
2021-08-01 01:14:00.244,-0.04,0.315
2021-08-01 01:14:00.248,-0.025,0.325
2021-08-01 01:14:00.252,-0.025,0.33
2021-08-01 01:14:00.256,-0.03,0.315
2021-08-01 01:14:00.260,-0.01,0.285
2021-08-01 01:14:00.264,-0.02,0.275
2021-08-01 01:14:00.268,-0.035,0.305
2021-08-01 01:14:00.272,-0.015,0.295
2021-08-01 01:14:00.276,0.0,0.29
2021-08-01 01:14:00.280,0.0,0.305
2021-08-01 01:14:00.284,0.0,0.285
2021-08-01 01:14:00.288,-0.01,0.29
2021-08-01 01:14:00.292,0.0,0.29
2021-08-01 01:14:00.296,0.01,0.305
2021-08-01 01:14:00.300,0.005,0.32
2021-08-01 01:14:00.304,0.015,0.34
2021-08-01 01:14:00.308,0.03,0.345
2021-08-01 01:14:00.312,0.035,0.345
2021-08-01 01:14:00.316,0.065,0.37
2021-08-01 01:14:00.320,0.07,0.375
2021-08-01 01:14:00.324,0.06,0.385
2021-08-01 01:14:00.328,0.08,0.39
2021-08-01 01:14:00.332,0.095,0.42
2021-08-01 01:14:00.336,0.065,0.415
2021-08-01 01:14:00.340,0.09,0.395
2021-08-01 01:14:00.344,0.085,0.375
2021-08-01 01:14:00.348,0.075,0.355
2021-08-01 01:14:00.352,0.04,0.31
2021-08-01 01:14:00.356,0.01,0.29
2021-08-01 01:14:00.360,0.02,0.29
2021-08-01 01:14:00.364,0.015,0.28
2021-08-01 01:14:00.368,0.02,0.27
2021-08-01 01:14:00.372,0.025,0.265
2021-08-01 01:14:00.376,0.02,0.28
2021-08-01 01:14:00.380,0.04,0.255
2021-08-01 01:14:00.384,0.045,0.23
2021-08-01 01:14:00.388,0.05,0.21
2021-08-01 01:14:00.392,0.065,0.195
2021-08-01 01:14:00.396,0.07,0.18
2021-08-01 01:14:00.400,0.07,0.185
2021-08-01 01:14:00.404,0.075,0.17
2021-08-01 01:14:00.408,0.07,0.14
2021-08-01 01:14:00.412,0.05,0.135
2021-08-01 01:14:00.416,0.035,0.135
2021-08-01 01:14:00.420,0.055,0.145
2021-08-01 01:14:00.424,0.08,0.15
2021-08-01 01:14:00.428,0.065,0.135
2021-08-01 01:14:00.432,0.075,0.115
2021-08-01 01:14:00.436,0.07,0.12
2021-08-01 01:14:00.440,0.08,0.135
2021-08-01 01:14:00.444,0.07,0.13
2021-08-01 01:14:00.448,0.085,0.115
2021-08-01 01:14:00.452,0.075,0.115
2021-08-01 01:14:00.456,0.085,0.11
2021-08-01 01:14:00.460,0.09,0.09
2021-08-01 01:14:00.464,0.105,0.075
2021-08-01 01:14:00.468,0.08,0.095
2021-08-01 01:14:00.472,0.07,0.135
2021-08-01 01:14:00.476,0.095,0.255
2021-08-01 01:14:00.480,0.13,0.42
2021-08-01 01:14:00.484,0.13,0.62
2021-08-01 01:14:00.488,0.185,0.775
2021-08-01 01:14:00.492,0.285,0.865
2021-08-01 01:14:00.496,0.355,0.9
2021-08-01 01:14:00.500,0.41,0.855
2021-08-01 01:14:00.504,0.41,0.605
2021-08-01 01:14:00.508,0.37,0.14
2021-08-01 01:14:00.512,0.3,-0.195
2021-08-01 01:14:00.516,0.115,-0.345
2021-08-01 01:14:00.520,-0.065,-0.415
2021-08-01 01:14:00.524,-0.165,-0.39
2021-08-01 01:14:00.528,-0.2,-0.29
2021-08-01 01:14:00.532,-0.185,-0.16
2021-08-01 01:14:00.536,-0.14,-0.08
2021-08-01 01:14:00.540,-0.09,0.015
2021-08-01 01:14:00.544,-0.005,0.045
2021-08-01 01:14:00.548,0.07,0.055
2021-08-01 01:14:00.552,0.095,0.045
2021-08-01 01:14:00.556,0.12,0.06
2021-08-01 01:14:00.560,0.12,0.05
2021-08-01 01:14:00.564,0.125,0.055
2021-08-01 01:14:00.568,0.115,0.05
2021-08-01 01:14:00.572,0.135,0.045
2021-08-01 01:14:00.576,0.13,0.05
2021-08-01 01:14:00.580,0.135,0.06
2021-08-01 01:14:00.584,0.14,0.05
2021-08-01 01:14:00.588,0.145,0.04
2021-08-01 01:14:00.592,0.155,0.025
2021-08-01 01:14:00.596,0.135,0.055
2021-08-01 01:14:00.600,0.145,0.045
2021-08-01 01:14:00.604,0.15,0.055
2021-08-01 01:14:00.608,0.15,0.035
2021-08-01 01:14:00.612,0.165,0.06
2021-08-01 01:14:00.616,0.16,0.05
2021-08-01 01:14:00.620,0.145,0.055
2021-08-01 01:14:00.624,0.155,0.035
2021-08-01 01:14:00.628,0.175,0.05
2021-08-01 01:14:00.632,0.145,0.035
2021-08-01 01:14:00.636,0.145,0.045
2021-08-01 01:14:00.640,0.165,0.04
2021-08-01 01:14:00.644,0.175,0.06
2021-08-01 01:14:00.648,0.16,0.04
2021-08-01 01:14:00.652,0.165,0.06
2021-08-01 01:14:00.656,0.18,0.06
2021-08-01 01:14:00.660,0.155,0.06
2021-08-01 01:14:00.664,0.16,0.065
2021-08-01 01:14:00.668,0.185,0.065
2021-08-01 01:14:00.672,0.19,0.07
2021-08-01 01:14:00.676,0.175,0.085
2021-08-01 01:14:00.680,0.18,0.065
2021-08-01 01:14:00.684,0.195,0.065
2021-08-01 01:14:00.688,0.17,0.1
2021-08-01 01:14:00.692,0.185,0.115
2021-08-01 01:14:00.696,0.21,0.115
2021-08-01 01:14:00.700,0.2,0.12
2021-08-01 01:14:00.704,0.185,0.12
2021-08-01 01:14:00.708,0.2,0.12
2021-08-01 01:14:00.712,0.195,0.125
2021-08-01 01:14:00.716,0.19,0.145
2021-08-01 01:14:00.720,0.21,0.11
2021-08-01 01:14:00.724,0.205,0.13
2021-08-01 01:14:00.728,0.215,0.145
2021-08-01 01:14:00.732,0.2,0.145
2021-08-01 01:14:00.736,0.215,0.145
2021-08-01 01:14:00.740,0.2,0.15
2021-08-01 01:14:00.744,0.2,0.145
2021-08-01 01:14:00.748,0.205,0.155
2021-08-01 01:14:00.752,0.22,0.155
2021-08-01 01:14:00.756,0.22,0.175
2021-08-01 01:14:00.760,0.215,0.17
2021-08-01 01:14:00.764,0.22,0.155
2021-08-01 01:14:00.768,0.25,0.16
2021-08-01 01:14:00.772,0.235,0.18
2021-08-01 01:14:00.776,0.25,0.14
2021-08-01 01:14:00.780,0.25,0.105
2021-08-01 01:14:00.784,0.24,0.1
2021-08-01 01:14:00.788,0.25,0.105
2021-08-01 01:14:00.792,0.26,0.095
2021-08-01 01:14:00.796,0.23,0.075
2021-08-01 01:14:00.800,0.23,0.07
2021-08-01 01:14:00.804,0.24,0.06
2021-08-01 01:14:00.808,0.26,0.06
2021-08-01 01:14:00.812,0.25,0.065
2021-08-01 01:14:00.816,0.26,0.05
2021-08-01 01:14:00.820,0.255,0.055
2021-08-01 01:14:00.824,0.245,0.05
2021-08-01 01:14:00.828,0.25,0.06
2021-08-01 01:14:00.832,0.255,0.03
2021-08-01 01:14:00.836,0.245,0.035
2021-08-01 01:14:00.840,0.25,0.04
2021-08-01 01:14:00.844,0.255,0.045
2021-08-01 01:14:00.848,0.255,0.05
2021-08-01 01:14:00.852,0.245,0.05
2021-08-01 01:14:00.856,0.255,0.03
2021-08-01 01:14:00.860,0.27,0.03
2021-08-01 01:14:00.864,0.26,0.025
2021-08-01 01:14:00.868,0.245,0.045
2021-08-01 01:14:00.872,0.25,0.045
2021-08-01 01:14:00.876,0.25,0.035
2021-08-01 01:14:00.880,0.285,0.05
2021-08-01 01:14:00.884,0.265,0.045
2021-08-01 01:14:00.888,0.28,0.025
2021-08-01 01:14:00.892,0.27,0.03
2021-08-01 01:14:00.896,0.27,0.015
2021-08-01 01:14:00.900,0.275,0.015
2021-08-01 01:14:00.904,0.265,0.025
2021-08-01 01:14:00.908,0.28,0.025
2021-08-01 01:14:00.912,0.265,0.03
2021-08-01 01:14:00.916,0.28,0.01
2021-08-01 01:14:00.920,0.27,0.03
2021-08-01 01:14:00.924,0.27,0.025
2021-08-01 01:14:00.928,0.285,0.015
2021-08-01 01:14:00.932,0.28,0.01
2021-08-01 01:14:00.936,0.285,0.0
2021-08-01 01:14:00.940,0.26,-0.005
2021-08-01 01:14:00.944,0.275,0.0
2021-08-01 01:14:00.948,0.27,0.01
2021-08-01 01:14:00.952,0.265,-0.025
2021-08-01 01:14:00.956,0.29,-0.02
2021-08-01 01:14:00.960,0.285,-0.005
2021-08-01 01:14:00.964,0.265,-0.025
2021-08-01 01:14:00.968,0.275,-0.02
2021-08-01 01:14:00.972,0.27,-0.025
2021-08-01 01:14:00.976,0.265,-0.025
2021-08-01 01:14:00.980,0.285,-0.04
2021-08-01 01:14:00.984,0.28,-0.025
2021-08-01 01:14:00.988,0.265,-0.025
2021-08-01 01:14:00.992,0.27,-0.055
2021-08-01 01:14:00.996,0.27,-0.05
2021-08-01 01:14:01.000,0.27,-0.05
2021-08-01 01:14:01.004,0.275,-0.055
2021-08-01 01:14:01.008,0.27,-0.045
2021-08-01 01:14:01.012,0.27,-0.02
2021-08-01 01:14:01.016,0.285,-0.01
2021-08-01 01:14:01.020,0.27,0.005
2021-08-01 01:14:01.024,0.285,0.02
2021-08-01 01:14:01.028,0.27,0.045
2021-08-01 01:14:01.032,0.305,0.045
2021-08-01 01:14:01.036,0.32,0.045
2021-08-01 01:14:01.040,0.32,0.055
2021-08-01 01:14:01.044,0.345,0.09
2021-08-01 01:14:01.048,0.35,0.085
2021-08-01 01:14:01.052,0.34,0.085
2021-08-01 01:14:01.056,0.345,0.065
2021-08-01 01:14:01.060,0.33,0.04
2021-08-01 01:14:01.064,0.31,0.0
2021-08-01 01:14:01.068,0.285,-0.03
2021-08-01 01:14:01.072,0.25,-0.095
2021-08-01 01:14:01.076,0.245,-0.095
2021-08-01 01:14:01.080,0.23,-0.11
2021-08-01 01:14:01.084,0.22,-0.09
2021-08-01 01:14:01.088,0.24,-0.1
2021-08-01 01:14:01.092,0.25,-0.11
2021-08-01 01:14:01.096,0.255,-0.105
2021-08-01 01:14:01.100,0.24,-0.12
2021-08-01 01:14:01.104,0.27,-0.135
2021-08-01 01:14:01.108,0.26,-0.14
2021-08-01 01:14:01.112,0.27,-0.185
2021-08-01 01:14:01.116,0.28,-0.205
2021-08-01 01:14:01.120,0.26,-0.2
2021-08-01 01:14:01.124,0.24,-0.225
2021-08-01 01:14:01.128,0.245,-0.23
2021-08-01 01:14:01.132,0.25,-0.215
2021-08-01 01:14:01.136,0.225,-0.22
2021-08-01 01:14:01.140,0.22,-0.23
2021-08-01 01:14:01.144,0.245,-0.245
2021-08-01 01:14:01.148,0.25,-0.23
2021-08-01 01:14:01.152,0.24,-0.235
2021-08-01 01:14:01.156,0.235,-0.225
2021-08-01 01:14:01.160,0.25,-0.24
2021-08-01 01:14:01.164,0.235,-0.255
2021-08-01 01:14:01.168,0.245,-0.25
2021-08-01 01:14:01.172,0.26,-0.26
2021-08-01 01:14:01.176,0.245,-0.27
2021-08-01 01:14:01.180,0.255,-0.285
2021-08-01 01:14:01.184,0.24,-0.28
2021-08-01 01:14:01.188,0.26,-0.205
2021-08-01 01:14:01.192,0.275,-0.05
2021-08-01 01:14:01.196,0.285,0.16
2021-08-01 01:14:01.200,0.335,0.35
2021-08-01 01:14:01.204,0.395,0.495
2021-08-01 01:14:01.208,0.49,0.54
2021-08-01 01:14:01.212,0.565,0.5
2021-08-01 01:14:01.216,0.575,0.265
2021-08-01 01:14:01.220,0.545,-0.2
2021-08-01 01:14:01.224,0.49,-0.555
2021-08-01 01:14:01.228,0.32,-0.695
2021-08-01 01:14:01.232,0.14,-0.735
2021-08-01 01:14:01.236,0.025,-0.73
2021-08-01 01:14:01.240,-0.015,-0.66
2021-08-01 01:14:01.244,0.01,-0.56
2021-08-01 01:14:01.248,0.02,-0.475
2021-08-01 01:14:01.252,0.075,-0.38
2021-08-01 01:14:01.256,0.145,-0.32
2021-08-01 01:14:01.260,0.185,-0.31
2021-08-01 01:14:01.264,0.245,-0.32
2021-08-01 01:14:01.268,0.28,-0.34
2021-08-01 01:14:01.272,0.28,-0.345
2021-08-01 01:14:01.276,0.27,-0.31
2021-08-01 01:14:01.280,0.275,-0.315
2021-08-01 01:14:01.284,0.28,-0.32
2021-08-01 01:14:01.288,0.285,-0.325
2021-08-01 01:14:01.292,0.29,-0.33
2021-08-01 01:14:01.296,0.29,-0.3
2021-08-01 01:14:01.300,0.275,-0.31
2021-08-01 01:14:01.304,0.29,-0.325
2021-08-01 01:14:01.308,0.27,-0.345
2021-08-01 01:14:01.312,0.295,-0.33
2021-08-01 01:14:01.316,0.3,-0.32
2021-08-01 01:14:01.320,0.29,-0.315
2021-08-01 01:14:01.324,0.31,-0.325
2021-08-01 01:14:01.328,0.29,-0.31
2021-08-01 01:14:01.332,0.295,-0.325
2021-08-01 01:14:01.336,0.285,-0.33
2021-08-01 01:14:01.340,0.295,-0.335
2021-08-01 01:14:01.344,0.285,-0.31
2021-08-01 01:14:01.348,0.285,-0.31
2021-08-01 01:14:01.352,0.305,-0.315
2021-08-01 01:14:01.356,0.295,-0.3
2021-08-01 01:14:01.360,0.3,-0.31
2021-08-01 01:14:01.364,0.31,-0.305
2021-08-01 01:14:01.368,0.3,-0.29
2021-08-01 01:14:01.372,0.31,-0.29
2021-08-01 01:14:01.376,0.3,-0.29
2021-08-01 01:14:01.380,0.315,-0.295
2021-08-01 01:14:01.384,0.31,-0.285
2021-08-01 01:14:01.388,0.315,-0.27
2021-08-01 01:14:01.392,0.32,-0.26
2021-08-01 01:14:01.396,0.33,-0.24
2021-08-01 01:14:01.400,0.335,-0.26
2021-08-01 01:14:01.404,0.325,-0.26
2021-08-01 01:14:01.408,0.34,-0.245
2021-08-01 01:14:01.412,0.35,-0.22
2021-08-01 01:14:01.416,0.335,-0.24
2021-08-01 01:14:01.420,0.355,-0.24
2021-08-01 01:14:01.424,0.34,-0.23
2021-08-01 01:14:01.428,0.345,-0.215
2021-08-01 01:14:01.432,0.355,-0.195
2021-08-01 01:14:01.436,0.365,-0.22
2021-08-01 01:14:01.440,0.355,-0.205
2021-08-01 01:14:01.444,0.375,-0.205
2021-08-01 01:14:01.448,0.355,-0.19
2021-08-01 01:14:01.452,0.37,-0.185
2021-08-01 01:14:01.456,0.38,-0.19
2021-08-01 01:14:01.460,0.37,-0.185
2021-08-01 01:14:01.464,0.365,-0.165
2021-08-01 01:14:01.468,0.37,-0.175
2021-08-01 01:14:01.472,0.395,-0.165
2021-08-01 01:14:01.476,0.37,-0.165
2021-08-01 01:14:01.480,0.375,-0.18
2021-08-01 01:14:01.484,0.375,-0.185
2021-08-01 01:14:01.488,0.385,-0.19
2021-08-01 01:14:01.492,0.395,-0.195
2021-08-01 01:14:01.496,0.385,-0.225
2021-08-01 01:14:01.500,0.395,-0.22
2021-08-01 01:14:01.504,0.385,-0.225
2021-08-01 01:14:01.508,0.39,-0.225
2021-08-01 01:14:01.512,0.39,-0.245
2021-08-01 01:14:01.516,0.385,-0.24
2021-08-01 01:14:01.520,0.395,-0.255
2021-08-01 01:14:01.524,0.385,-0.25
2021-08-01 01:14:01.528,0.39,-0.25
2021-08-01 01:14:01.532,0.38,-0.255
2021-08-01 01:14:01.536,0.39,-0.28
2021-08-01 01:14:01.540,0.4,-0.26
2021-08-01 01:14:01.544,0.38,-0.255
2021-08-01 01:14:01.548,0.4,-0.25
2021-08-01 01:14:01.552,0.405,-0.265
2021-08-01 01:14:01.556,0.41,-0.26
2021-08-01 01:14:01.560,0.385,-0.26
2021-08-01 01:14:01.564,0.405,-0.255
2021-08-01 01:14:01.568,0.41,-0.26
2021-08-01 01:14:01.572,0.39,-0.255
2021-08-01 01:14:01.576,0.395,-0.265
2021-08-01 01:14:01.580,0.41,-0.27
2021-08-01 01:14:01.584,0.4,-0.265
2021-08-01 01:14:01.588,0.42,-0.25
2021-08-01 01:14:01.592,0.42,-0.265
2021-08-01 01:14:01.596,0.42,-0.275
2021-08-01 01:14:01.600,0.42,-0.255
2021-08-01 01:14:01.604,0.405,-0.255
2021-08-01 01:14:01.608,0.415,-0.24
2021-08-01 01:14:01.612,0.435,-0.245
2021-08-01 01:14:01.616,0.415,-0.265
2021-08-01 01:14:01.620,0.425,-0.26
2021-08-01 01:14:01.624,0.405,-0.245
2021-08-01 01:14:01.628,0.425,-0.255
2021-08-01 01:14:01.632,0.42,-0.265
2021-08-01 01:14:01.636,0.425,-0.28
2021-08-01 01:14:01.640,0.41,-0.265
2021-08-01 01:14:01.644,0.415,-0.265
2021-08-01 01:14:01.648,0.435,-0.26
2021-08-01 01:14:01.652,0.43,-0.275
2021-08-01 01:14:01.656,0.425,-0.285
2021-08-01 01:14:01.660,0.44,-0.265
2021-08-01 01:14:01.664,0.43,-0.275
2021-08-01 01:14:01.668,0.41,-0.29
2021-08-01 01:14:01.672,0.405,-0.3
2021-08-01 01:14:01.676,0.435,-0.29
2021-08-01 01:14:01.680,0.43,-0.29
2021-08-01 01:14:01.684,0.43,-0.29
2021-08-01 01:14:01.688,0.415,-0.3
2021-08-01 01:14:01.692,0.415,-0.32
2021-08-01 01:14:01.696,0.42,-0.305
2021-08-01 01:14:01.700,0.435,-0.31
2021-08-01 01:14:01.704,0.435,-0.305
2021-08-01 01:14:01.708,0.415,-0.3
2021-08-01 01:14:01.712,0.435,-0.3
2021-08-01 01:14:01.716,0.43,-0.315
2021-08-01 01:14:01.720,0.42,-0.28
2021-08-01 01:14:01.724,0.42,-0.27
2021-08-01 01:14:01.728,0.43,-0.26
2021-08-01 01:14:01.732,0.435,-0.25
2021-08-01 01:14:01.736,0.45,-0.22
2021-08-01 01:14:01.740,0.45,-0.205
2021-08-01 01:14:01.744,0.465,-0.2
2021-08-01 01:14:01.748,0.5,-0.2
2021-08-01 01:14:01.752,0.48,-0.16
2021-08-01 01:14:01.756,0.49,-0.16
2021-08-01 01:14:01.760,0.49,-0.16
2021-08-01 01:14:01.764,0.48,-0.17
2021-08-01 01:14:01.768,0.465,-0.215
2021-08-01 01:14:01.772,0.465,-0.25
2021-08-01 01:14:01.776,0.445,-0.305
2021-08-01 01:14:01.780,0.415,-0.32
2021-08-01 01:14:01.784,0.395,-0.33
2021-08-01 01:14:01.788,0.385,-0.33
2021-08-01 01:14:01.792,0.375,-0.32
2021-08-01 01:14:01.796,0.395,-0.315
2021-08-01 01:14:01.800,0.405,-0.32
2021-08-01 01:14:01.804,0.42,-0.345
2021-08-01 01:14:01.808,0.42,-0.375
2021-08-01 01:14:01.812,0.43,-0.38
2021-08-01 01:14:01.816,0.43,-0.39
2021-08-01 01:14:01.820,0.44,-0.395
2021-08-01 01:14:01.824,0.425,-0.42
2021-08-01 01:14:01.828,0.425,-0.445
2021-08-01 01:14:01.832,0.415,-0.44
2021-08-01 01:14:01.836,0.425,-0.445
2021-08-01 01:14:01.840,0.405,-0.45
2021-08-01 01:14:01.844,0.41,-0.46
2021-08-01 01:14:01.848,0.395,-0.455
2021-08-01 01:14:01.852,0.41,-0.45
2021-08-01 01:14:01.856,0.405,-0.45
2021-08-01 01:14:01.860,0.41,-0.46
2021-08-01 01:14:01.864,0.415,-0.455
2021-08-01 01:14:01.868,0.425,-0.45
2021-08-01 01:14:01.872,0.41,-0.45
2021-08-01 01:14:01.876,0.405,-0.44
2021-08-01 01:14:01.880,0.41,-0.48
2021-08-01 01:14:01.884,0.415,-0.485
2021-08-01 01:14:01.888,0.405,-0.49
2021-08-01 01:14:01.892,0.41,-0.445
2021-08-01 01:14:01.896,0.435,-0.335
2021-08-01 01:14:01.900,0.46,-0.16
2021-08-01 01:14:01.904,0.475,0.015
2021-08-01 01:14:01.908,0.53,0.22
2021-08-01 01:14:01.912,0.58,0.35
2021-08-01 01:14:01.916,0.675,0.39
2021-08-01 01:14:01.920,0.7,0.38
2021-08-01 01:14:01.924,0.695,0.2
2021-08-01 01:14:01.928,0.64,-0.21
2021-08-01 01:14:01.932,0.59,-0.64
2021-08-01 01:14:01.936,0.44,-0.855
2021-08-01 01:14:01.940,0.235,-0.93
2021-08-01 01:14:01.944,0.11,-0.945
2021-08-01 01:14:01.948,0.065,-0.83
2021-08-01 01:14:01.952,0.06,-0.71
2021-08-01 01:14:01.956,0.12,-0.63
2021-08-01 01:14:01.960,0.185,-0.545
2021-08-01 01:14:01.964,0.275,-0.51
2021-08-01 01:14:01.968,0.325,-0.495
2021-08-01 01:14:01.972,0.38,-0.49
2021-08-01 01:14:01.976,0.405,-0.495
2021-08-01 01:14:01.980,0.42,-0.5
2021-08-01 01:14:01.984,0.4,-0.51
2021-08-01 01:14:01.988,0.425,-0.51
2021-08-01 01:14:01.992,0.42,-0.49
2021-08-01 01:14:01.996,0.4,-0.495
2021-08-01 01:14:02.000,0.415,-0.5
2021-08-01 01:14:02.004,0.42,-0.505
2021-08-01 01:14:02.008,0.425,-0.505
2021-08-01 01:14:02.012,0.42,-0.49
2021-08-01 01:14:02.016,0.43,-0.5
2021-08-01 01:14:02.020,0.425,-0.49
2021-08-01 01:14:02.024,0.41,-0.51
2021-08-01 01:14:02.028,0.42,-0.495
2021-08-01 01:14:02.032,0.4,-0.485
2021-08-01 01:14:02.036,0.4,-0.495
2021-08-01 01:14:02.040,0.405,-0.515
2021-08-01 01:14:02.044,0.41,-0.51
2021-08-01 01:14:02.048,0.395,-0.49
2021-08-01 01:14:02.052,0.4,-0.49
2021-08-01 01:14:02.056,0.4,-0.485
2021-08-01 01:14:02.060,0.415,-0.48
2021-08-01 01:14:02.064,0.39,-0.465
2021-08-01 01:14:02.068,0.405,-0.465
2021-08-01 01:14:02.072,0.42,-0.47
2021-08-01 01:14:02.076,0.41,-0.46
2021-08-01 01:14:02.080,0.4,-0.46
2021-08-01 01:14:02.084,0.42,-0.445
2021-08-01 01:14:02.088,0.415,-0.445
2021-08-01 01:14:02.092,0.39,-0.44
2021-08-01 01:14:02.096,0.42,-0.445
2021-08-01 01:14:02.100,0.395,-0.435
2021-08-01 01:14:02.104,0.39,-0.415
2021-08-01 01:14:02.108,0.41,-0.42
2021-08-01 01:14:02.112,0.43,-0.4
2021-08-01 01:14:02.116,0.395,-0.395
2021-08-01 01:14:02.120,0.4,-0.395
2021-08-01 01:14:02.124,0.43,-0.385
2021-08-01 01:14:02.128,0.4,-0.38
2021-08-01 01:14:02.132,0.42,-0.37
2021-08-01 01:14:02.136,0.41,-0.38
2021-08-01 01:14:02.140,0.425,-0.38
2021-08-01 01:14:02.144,0.415,-0.365
2021-08-01 01:14:02.148,0.44,-0.355
2021-08-01 01:14:02.152,0.43,-0.355
2021-08-01 01:14:02.156,0.425,-0.345
2021-08-01 01:14:02.160,0.425,-0.345
2021-08-01 01:14:02.164,0.435,-0.335
2021-08-01 01:14:02.168,0.435,-0.32
2021-08-01 01:14:02.172,0.42,-0.325
2021-08-01 01:14:02.176,0.42,-0.325
2021-08-01 01:14:02.180,0.44,-0.325
2021-08-01 01:14:02.184,0.435,-0.31
2021-08-01 01:14:02.188,0.445,-0.315
2021-08-01 01:14:02.192,0.44,-0.32
2021-08-01 01:14:02.196,0.445,-0.33
2021-08-01 01:14:02.200,0.44,-0.35
2021-08-01 01:14:02.204,0.445,-0.38
2021-08-01 01:14:02.208,0.445,-0.36
2021-08-01 01:14:02.212,0.435,-0.375
2021-08-01 01:14:02.216,0.435,-0.39
2021-08-01 01:14:02.220,0.44,-0.41
2021-08-01 01:14:02.224,0.43,-0.4
2021-08-01 01:14:02.228,0.435,-0.42
2021-08-01 01:14:02.232,0.42,-0.43
2021-08-01 01:14:02.236,0.395,-0.435
2021-08-01 01:14:02.240,0.42,-0.425
2021-08-01 01:14:02.244,0.405,-0.42
2021-08-01 01:14:02.248,0.415,-0.45
2021-08-01 01:14:02.252,0.415,-0.44
2021-08-01 01:14:02.256,0.405,-0.44
2021-08-01 01:14:02.260,0.415,-0.44
2021-08-01 01:14:02.264,0.42,-0.43
2021-08-01 01:14:02.268,0.415,-0.435
2021-08-01 01:14:02.272,0.42,-0.425
2021-08-01 01:14:02.276,0.425,-0.435
2021-08-01 01:14:02.280,0.425,-0.435
2021-08-01 01:14:02.284,0.42,-0.43
2021-08-01 01:14:02.288,0.41,-0.45
2021-08-01 01:14:02.292,0.4,-0.43
2021-08-01 01:14:02.296,0.43,-0.415
2021-08-01 01:14:02.300,0.43,-0.435
2021-08-01 01:14:02.304,0.43,-0.415
2021-08-01 01:14:02.308,0.425,-0.415
2021-08-01 01:14:02.312,0.42,-0.425
2021-08-01 01:14:02.316,0.43,-0.435
2021-08-01 01:14:02.320,0.405,-0.43
2021-08-01 01:14:02.324,0.405,-0.415
2021-08-01 01:14:02.328,0.415,-0.43
2021-08-01 01:14:02.332,0.41,-0.415
2021-08-01 01:14:02.336,0.41,-0.425
2021-08-01 01:14:02.340,0.42,-0.43
2021-08-01 01:14:02.344,0.42,-0.425
2021-08-01 01:14:02.348,0.425,-0.43
2021-08-01 01:14:02.352,0.42,-0.435
2021-08-01 01:14:02.356,0.415,-0.44
2021-08-01 01:14:02.360,0.41,-0.445
2021-08-01 01:14:02.364,0.42,-0.45
2021-08-01 01:14:02.368,0.415,-0.465
2021-08-01 01:14:02.372,0.415,-0.465
2021-08-01 01:14:02.376,0.415,-0.46
2021-08-01 01:14:02.380,0.405,-0.44
2021-08-01 01:14:02.384,0.405,-0.465
2021-08-01 01:14:02.388,0.405,-0.465
2021-08-01 01:14:02.392,0.385,-0.47
2021-08-01 01:14:02.396,0.415,-0.48
2021-08-01 01:14:02.400,0.415,-0.465
2021-08-01 01:14:02.404,0.405,-0.465
2021-08-01 01:14:02.408,0.395,-0.495
2021-08-01 01:14:02.412,0.4,-0.48
2021-08-01 01:14:02.416,0.415,-0.47
2021-08-01 01:14:02.420,0.395,-0.475
2021-08-01 01:14:02.424,0.4,-0.475
2021-08-01 01:14:02.428,0.39,-0.46
2021-08-01 01:14:02.432,0.385,-0.435
2021-08-01 01:14:02.436,0.41,-0.41
2021-08-01 01:14:02.440,0.415,-0.39
2021-08-01 01:14:02.444,0.435,-0.38
2021-08-01 01:14:02.448,0.435,-0.37
2021-08-01 01:14:02.452,0.45,-0.38
2021-08-01 01:14:02.456,0.45,-0.335
2021-08-01 01:14:02.460,0.465,-0.305
2021-08-01 01:14:02.464,0.455,-0.315
2021-08-01 01:14:02.468,0.45,-0.325
2021-08-01 01:14:02.472,0.44,-0.355
2021-08-01 01:14:02.476,0.43,-0.37
2021-08-01 01:14:02.480,0.41,-0.39
2021-08-01 01:14:02.484,0.385,-0.45
2021-08-01 01:14:02.488,0.375,-0.495
2021-08-01 01:14:02.492,0.355,-0.495
2021-08-01 01:14:02.496,0.36,-0.485
2021-08-01 01:14:02.500,0.35,-0.465
2021-08-01 01:14:02.504,0.35,-0.47
2021-08-01 01:14:02.508,0.37,-0.495
2021-08-01 01:14:02.512,0.375,-0.505
2021-08-01 01:14:02.516,0.38,-0.535
2021-08-01 01:14:02.520,0.405,-0.535
2021-08-01 01:14:02.524,0.39,-0.535
2021-08-01 01:14:02.528,0.4,-0.56
2021-08-01 01:14:02.532,0.39,-0.58
2021-08-01 01:14:02.536,0.385,-0.585
2021-08-01 01:14:02.540,0.38,-0.59
2021-08-01 01:14:02.544,0.365,-0.61
2021-08-01 01:14:02.548,0.37,-0.58
2021-08-01 01:14:02.552,0.355,-0.585
2021-08-01 01:14:02.556,0.36,-0.595
2021-08-01 01:14:02.560,0.375,-0.58
2021-08-01 01:14:02.564,0.35,-0.595
2021-08-01 01:14:02.568,0.365,-0.59
2021-08-01 01:14:02.572,0.37,-0.6
2021-08-01 01:14:02.576,0.37,-0.59
2021-08-01 01:14:02.580,0.355,-0.59
2021-08-01 01:14:02.584,0.37,-0.595
2021-08-01 01:14:02.588,0.375,-0.6
2021-08-01 01:14:02.592,0.365,-0.59
2021-08-01 01:14:02.596,0.38,-0.62
2021-08-01 01:14:02.600,0.4,-0.62
2021-08-01 01:14:02.604,0.38,-0.555
2021-08-01 01:14:02.608,0.405,-0.405
2021-08-01 01:14:02.612,0.42,-0.195
2021-08-01 01:14:02.616,0.455,0.02
2021-08-01 01:14:02.620,0.515,0.17
2021-08-01 01:14:02.624,0.595,0.235
2021-08-01 01:14:02.628,0.645,0.245
2021-08-01 01:14:02.632,0.655,0.155
2021-08-01 01:14:02.636,0.62,-0.23
2021-08-01 01:14:02.640,0.575,-0.695
2021-08-01 01:14:02.644,0.45,-0.95
2021-08-01 01:14:02.648,0.245,-1.04
2021-08-01 01:14:02.652,0.09,-1.035
2021-08-01 01:14:02.656,0.03,-0.94
2021-08-01 01:14:02.660,0.055,-0.825
2021-08-01 01:14:02.664,0.1,-0.735
2021-08-01 01:14:02.668,0.185,-0.65
2021-08-01 01:14:02.672,0.255,-0.59
2021-08-01 01:14:02.676,0.31,-0.58
2021-08-01 01:14:02.680,0.365,-0.6
2021-08-01 01:14:02.684,0.385,-0.625
2021-08-01 01:14:02.688,0.385,-0.62
2021-08-01 01:14:02.692,0.385,-0.625
2021-08-01 01:14:02.696,0.4,-0.62
2021-08-01 01:14:02.700,0.385,-0.62
2021-08-01 01:14:02.704,0.385,-0.615
2021-08-01 01:14:02.708,0.39,-0.605
2021-08-01 01:14:02.712,0.39,-0.6
2021-08-01 01:14:02.716,0.385,-0.6
2021-08-01 01:14:02.720,0.385,-0.595
2021-08-01 01:14:02.724,0.385,-0.615
2021-08-01 01:14:02.728,0.385,-0.585
2021-08-01 01:14:02.732,0.38,-0.595
2021-08-01 01:14:02.736,0.39,-0.61
2021-08-01 01:14:02.740,0.395,-0.61
2021-08-01 01:14:02.744,0.38,-0.605
2021-08-01 01:14:02.748,0.395,-0.595
2021-08-01 01:14:02.752,0.4,-0.575
2021-08-01 01:14:02.756,0.395,-0.585
2021-08-01 01:14:02.760,0.38,-0.565
2021-08-01 01:14:02.764,0.36,-0.585
2021-08-01 01:14:02.768,0.375,-0.58
2021-08-01 01:14:02.772,0.375,-0.57
2021-08-01 01:14:02.776,0.38,-0.545
2021-08-01 01:14:02.780,0.39,-0.565
2021-08-01 01:14:02.784,0.375,-0.555
2021-08-01 01:14:02.788,0.39,-0.545
2021-08-01 01:14:02.792,0.375,-0.525
2021-08-01 01:14:02.796,0.385,-0.555
2021-08-01 01:14:02.800,0.375,-0.535
2021-08-01 01:14:02.804,0.39,-0.53
2021-08-01 01:14:02.808,0.39,-0.505
2021-08-01 01:14:02.812,0.39,-0.505
2021-08-01 01:14:02.816,0.395,-0.5
2021-08-01 01:14:02.820,0.395,-0.49
2021-08-01 01:14:02.824,0.395,-0.47
2021-08-01 01:14:02.828,0.39,-0.44
2021-08-01 01:14:02.832,0.395,-0.43
2021-08-01 01:14:02.836,0.425,-0.465
2021-08-01 01:14:02.840,0.39,-0.435
2021-08-01 01:14:02.844,0.41,-0.445
2021-08-01 01:14:02.848,0.4,-0.43
2021-08-01 01:14:02.852,0.4,-0.425
2021-08-01 01:14:02.856,0.405,-0.415
2021-08-01 01:14:02.860,0.42,-0.415
2021-08-01 01:14:02.864,0.41,-0.39
2021-08-01 01:14:02.868,0.42,-0.39
2021-08-01 01:14:02.872,0.4,-0.385
2021-08-01 01:14:02.876,0.41,-0.39
2021-08-01 01:14:02.880,0.4,-0.365
2021-08-01 01:14:02.884,0.4,-0.38
2021-08-01 01:14:02.888,0.43,-0.365
2021-08-01 01:14:02.892,0.43,-0.37
2021-08-01 01:14:02.896,0.415,-0.365
2021-08-01 01:14:02.900,0.405,-0.38
2021-08-01 01:14:02.904,0.42,-0.385
2021-08-01 01:14:02.908,0.415,-0.38
2021-08-01 01:14:02.912,0.405,-0.415
2021-08-01 01:14:02.916,0.415,-0.43
2021-08-01 01:14:02.920,0.415,-0.43
2021-08-01 01:14:02.924,0.42,-0.44
2021-08-01 01:14:02.928,0.415,-0.445
2021-08-01 01:14:02.932,0.415,-0.47
2021-08-01 01:14:02.936,0.41,-0.44
2021-08-01 01:14:02.940,0.4,-0.47
2021-08-01 01:14:02.944,0.4,-0.46
2021-08-01 01:14:02.948,0.39,-0.47
2021-08-01 01:14:02.952,0.405,-0.47
2021-08-01 01:14:02.956,0.41,-0.46
2021-08-01 01:14:02.960,0.405,-0.47
2021-08-01 01:14:02.964,0.415,-0.48
2021-08-01 01:14:02.968,0.405,-0.49
2021-08-01 01:14:02.972,0.395,-0.475
2021-08-01 01:14:02.976,0.39,-0.47
2021-08-01 01:14:02.980,0.405,-0.475
2021-08-01 01:14:02.984,0.405,-0.45
2021-08-01 01:14:02.988,0.405,-0.46
2021-08-01 01:14:02.992,0.395,-0.46
2021-08-01 01:14:02.996,0.41,-0.445
2021-08-01 01:14:03.000,0.395,-0.45
2021-08-01 01:14:03.004,0.39,-0.46
2021-08-01 01:14:03.008,0.405,-0.46
2021-08-01 01:14:03.012,0.385,-0.48
2021-08-01 01:14:03.016,0.39,-0.47
2021-08-01 01:14:03.020,0.38,-0.47
2021-08-01 01:14:03.024,0.39,-0.465
2021-08-01 01:14:03.028,0.395,-0.47
2021-08-01 01:14:03.032,0.4,-0.465
2021-08-01 01:14:03.036,0.4,-0.465
2021-08-01 01:14:03.040,0.405,-0.43
2021-08-01 01:14:03.044,0.39,-0.44
2021-08-01 01:14:03.048,0.385,-0.47
2021-08-01 01:14:03.052,0.38,-0.48
2021-08-01 01:14:03.056,0.385,-0.46
2021-08-01 01:14:03.060,0.38,-0.465
2021-08-01 01:14:03.064,0.365,-0.47
2021-08-01 01:14:03.068,0.38,-0.475
2021-08-01 01:14:03.072,0.37,-0.5
2021-08-01 01:14:03.076,0.38,-0.505
2021-08-01 01:14:03.080,0.365,-0.48
2021-08-01 01:14:03.084,0.375,-0.475
2021-08-01 01:14:03.088,0.35,-0.495
2021-08-01 01:14:03.092,0.375,-0.49
2021-08-01 01:14:03.096,0.345,-0.5
2021-08-01 01:14:03.100,0.365,-0.495
2021-08-01 01:14:03.104,0.36,-0.495
2021-08-01 01:14:03.108,0.355,-0.5
2021-08-01 01:14:03.112,0.36,-0.5
2021-08-01 01:14:03.116,0.36,-0.5
2021-08-01 01:14:03.120,0.36,-0.52
2021-08-01 01:14:03.124,0.35,-0.505
2021-08-01 01:14:03.128,0.34,-0.5
2021-08-01 01:14:03.132,0.35,-0.47
2021-08-01 01:14:03.136,0.345,-0.465
2021-08-01 01:14:03.140,0.365,-0.435
2021-08-01 01:14:03.144,0.375,-0.39
2021-08-01 01:14:03.148,0.39,-0.4
2021-08-01 01:14:03.152,0.385,-0.42
2021-08-01 01:14:03.156,0.405,-0.375
2021-08-01 01:14:03.160,0.415,-0.355
2021-08-01 01:14:03.164,0.415,-0.345
2021-08-01 01:14:03.168,0.395,-0.345
2021-08-01 01:14:03.172,0.425,-0.34
2021-08-01 01:14:03.176,0.4,-0.37
2021-08-01 01:14:03.180,0.365,-0.4
2021-08-01 01:14:03.184,0.35,-0.465
2021-08-01 01:14:03.188,0.345,-0.535
2021-08-01 01:14:03.192,0.325,-0.53
2021-08-01 01:14:03.196,0.29,-0.515
2021-08-01 01:14:03.200,0.29,-0.48
2021-08-01 01:14:03.204,0.295,-0.49
2021-08-01 01:14:03.208,0.3,-0.51
2021-08-01 01:14:03.212,0.315,-0.525
2021-08-01 01:14:03.216,0.335,-0.545
2021-08-01 01:14:03.220,0.345,-0.53
2021-08-01 01:14:03.224,0.33,-0.555
2021-08-01 01:14:03.228,0.35,-0.57
2021-08-01 01:14:03.232,0.345,-0.59
2021-08-01 01:14:03.236,0.34,-0.59
2021-08-01 01:14:03.240,0.34,-0.6
2021-08-01 01:14:03.244,0.315,-0.635
2021-08-01 01:14:03.248,0.31,-0.63
2021-08-01 01:14:03.252,0.315,-0.615
2021-08-01 01:14:03.256,0.32,-0.6
2021-08-01 01:14:03.260,0.31,-0.61
2021-08-01 01:14:03.264,0.305,-0.61
2021-08-01 01:14:03.268,0.31,-0.605
2021-08-01 01:14:03.272,0.315,-0.595
2021-08-01 01:14:03.276,0.32,-0.595
2021-08-01 01:14:03.280,0.305,-0.61
2021-08-01 01:14:03.284,0.32,-0.615
2021-08-01 01:14:03.288,0.31,-0.61
2021-08-01 01:14:03.292,0.325,-0.63
2021-08-01 01:14:03.296,0.325,-0.655
2021-08-01 01:14:03.300,0.305,-0.625
2021-08-01 01:14:03.304,0.305,-0.54
2021-08-01 01:14:03.308,0.335,-0.365
2021-08-01 01:14:03.312,0.35,-0.145
2021-08-01 01:14:03.316,0.385,0.055
2021-08-01 01:14:03.320,0.44,0.18
2021-08-01 01:14:03.324,0.52,0.21
2021-08-01 01:14:03.328,0.595,0.195
2021-08-01 01:14:03.332,0.62,0.0
2021-08-01 01:14:03.336,0.6,-0.475
2021-08-01 01:14:03.340,0.545,-0.875
2021-08-01 01:14:03.344,0.38,-1.045
2021-08-01 01:14:03.348,0.175,-1.105
2021-08-01 01:14:03.352,0.055,-1.085
2021-08-01 01:14:03.356,0.0,-1.005
2021-08-01 01:14:03.360,0.005,-0.91
2021-08-01 01:14:03.364,0.025,-0.81
2021-08-01 01:14:03.368,0.08,-0.73
2021-08-01 01:14:03.372,0.145,-0.64
2021-08-01 01:14:03.376,0.205,-0.63
2021-08-01 01:14:03.380,0.275,-0.63
2021-08-01 01:14:03.384,0.295,-0.64
2021-08-01 01:14:03.388,0.295,-0.64
2021-08-01 01:14:03.392,0.3,-0.63
2021-08-01 01:14:03.396,0.295,-0.63
2021-08-01 01:14:03.400,0.29,-0.63
2021-08-01 01:14:03.404,0.29,-0.64
2021-08-01 01:14:03.408,0.29,-0.635
2021-08-01 01:14:03.412,0.285,-0.625
2021-08-01 01:14:03.416,0.295,-0.635
2021-08-01 01:14:03.420,0.275,-0.64
2021-08-01 01:14:03.424,0.29,-0.635
2021-08-01 01:14:03.428,0.285,-0.635
2021-08-01 01:14:03.432,0.295,-0.635
2021-08-01 01:14:03.436,0.29,-0.615
2021-08-01 01:14:03.440,0.295,-0.62
2021-08-01 01:14:03.444,0.295,-0.615
2021-08-01 01:14:03.448,0.3,-0.62
2021-08-01 01:14:03.452,0.295,-0.61
2021-08-01 01:14:03.456,0.285,-0.625
2021-08-01 01:14:03.460,0.28,-0.625
2021-08-01 01:14:03.464,0.27,-0.595
2021-08-01 01:14:03.468,0.29,-0.59
2021-08-01 01:14:03.472,0.29,-0.615
2021-08-01 01:14:03.476,0.29,-0.595
2021-08-01 01:14:03.480,0.28,-0.595
2021-08-01 01:14:03.484,0.285,-0.595
2021-08-01 01:14:03.488,0.285,-0.595
2021-08-01 01:14:03.492,0.265,-0.59
2021-08-01 01:14:03.496,0.285,-0.59
2021-08-01 01:14:03.500,0.285,-0.565
2021-08-01 01:14:03.504,0.275,-0.57
2021-08-01 01:14:03.508,0.29,-0.565
2021-08-01 01:14:03.512,0.325,-0.555
2021-08-01 01:14:03.516,0.285,-0.535
2021-08-01 01:14:03.520,0.29,-0.535
2021-08-01 01:14:03.524,0.295,-0.525
2021-08-01 01:14:03.528,0.315,-0.5
2021-08-01 01:14:03.532,0.3,-0.505
2021-08-01 01:14:03.536,0.305,-0.505
2021-08-01 01:14:03.540,0.305,-0.505
2021-08-01 01:14:03.544,0.305,-0.485
2021-08-01 01:14:03.548,0.3,-0.465
2021-08-01 01:14:03.552,0.31,-0.48
2021-08-01 01:14:03.556,0.31,-0.46
2021-08-01 01:14:03.560,0.32,-0.465
2021-08-01 01:14:03.564,0.315,-0.45
2021-08-01 01:14:03.568,0.31,-0.445
2021-08-01 01:14:03.572,0.295,-0.415
2021-08-01 01:14:03.576,0.3,-0.4
2021-08-01 01:14:03.580,0.33,-0.405
2021-08-01 01:14:03.584,0.34,-0.39
2021-08-01 01:14:03.588,0.325,-0.395
2021-08-01 01:14:03.592,0.335,-0.4
2021-08-01 01:14:03.596,0.33,-0.39
2021-08-01 01:14:03.600,0.33,-0.41
2021-08-01 01:14:03.604,0.34,-0.41
2021-08-01 01:14:03.608,0.34,-0.415
2021-08-01 01:14:03.612,0.34,-0.435
2021-08-01 01:14:03.616,0.34,-0.435
2021-08-01 01:14:03.620,0.33,-0.44
2021-08-01 01:14:03.624,0.335,-0.445
2021-08-01 01:14:03.628,0.345,-0.46
2021-08-01 01:14:03.632,0.34,-0.47
2021-08-01 01:14:03.636,0.34,-0.475
2021-08-01 01:14:03.640,0.34,-0.475
2021-08-01 01:14:03.644,0.335,-0.475
2021-08-01 01:14:03.648,0.325,-0.475
2021-08-01 01:14:03.652,0.33,-0.49
2021-08-01 01:14:03.656,0.325,-0.485
2021-08-01 01:14:03.660,0.345,-0.485
2021-08-01 01:14:03.664,0.33,-0.485
2021-08-01 01:14:03.668,0.33,-0.485
2021-08-01 01:14:03.672,0.335,-0.48
2021-08-01 01:14:03.676,0.33,-0.49
2021-08-01 01:14:03.680,0.33,-0.475
2021-08-01 01:14:03.684,0.32,-0.48
2021-08-01 01:14:03.688,0.34,-0.46
2021-08-01 01:14:03.692,0.33,-0.475
2021-08-01 01:14:03.696,0.315,-0.475
2021-08-01 01:14:03.700,0.32,-0.475
2021-08-01 01:14:03.704,0.32,-0.48
2021-08-01 01:14:03.708,0.325,-0.475
2021-08-01 01:14:03.712,0.33,-0.48
2021-08-01 01:14:03.716,0.33,-0.475
2021-08-01 01:14:03.720,0.34,-0.46
2021-08-01 01:14:03.724,0.315,-0.455
2021-08-01 01:14:03.728,0.325,-0.465
2021-08-01 01:14:03.732,0.315,-0.47
2021-08-01 01:14:03.736,0.315,-0.465
2021-08-01 01:14:03.740,0.32,-0.46
2021-08-01 01:14:03.744,0.335,-0.465
2021-08-01 01:14:03.748,0.32,-0.46
2021-08-01 01:14:03.752,0.305,-0.47
2021-08-01 01:14:03.756,0.305,-0.495
2021-08-01 01:14:03.760,0.33,-0.47
2021-08-01 01:14:03.764,0.315,-0.465
2021-08-01 01:14:03.768,0.305,-0.485
2021-08-01 01:14:03.772,0.315,-0.48
2021-08-01 01:14:03.776,0.315,-0.48
2021-08-01 01:14:03.780,0.3,-0.475
2021-08-01 01:14:03.784,0.305,-0.47
2021-08-01 01:14:03.788,0.315,-0.485
2021-08-01 01:14:03.792,0.305,-0.495
2021-08-01 01:14:03.796,0.31,-0.48
2021-08-01 01:14:03.800,0.31,-0.49
2021-08-01 01:14:03.804,0.31,-0.49
2021-08-01 01:14:03.808,0.285,-0.48
2021-08-01 01:14:03.812,0.285,-0.505
2021-08-01 01:14:03.816,0.295,-0.5
2021-08-01 01:14:03.820,0.29,-0.475
2021-08-01 01:14:03.824,0.3,-0.475
2021-08-01 01:14:03.828,0.295,-0.47
2021-08-01 01:14:03.832,0.3,-0.44
2021-08-01 01:14:03.836,0.32,-0.415
2021-08-01 01:14:03.840,0.32,-0.395
2021-08-01 01:14:03.844,0.335,-0.385
2021-08-01 01:14:03.848,0.33,-0.38
2021-08-01 01:14:03.852,0.34,-0.38
2021-08-01 01:14:03.856,0.365,-0.335
2021-08-01 01:14:03.860,0.35,-0.31
2021-08-01 01:14:03.864,0.355,-0.315
2021-08-01 01:14:03.868,0.345,-0.34
2021-08-01 01:14:03.872,0.345,-0.36
2021-08-01 01:14:03.876,0.315,-0.395
2021-08-01 01:14:03.880,0.305,-0.445
2021-08-01 01:14:03.884,0.29,-0.49
2021-08-01 01:14:03.888,0.26,-0.5
2021-08-01 01:14:03.892,0.26,-0.495
2021-08-01 01:14:03.896,0.245,-0.495
2021-08-01 01:14:03.900,0.24,-0.475
2021-08-01 01:14:03.904,0.265,-0.49
2021-08-01 01:14:03.908,0.275,-0.51
2021-08-01 01:14:03.912,0.29,-0.53
2021-08-01 01:14:03.916,0.285,-0.53
2021-08-01 01:14:03.920,0.28,-0.54
2021-08-01 01:14:03.924,0.295,-0.565
2021-08-01 01:14:03.928,0.28,-0.56
2021-08-01 01:14:03.932,0.265,-0.59
2021-08-01 01:14:03.936,0.285,-0.58
2021-08-01 01:14:03.940,0.26,-0.58
2021-08-01 01:14:03.944,0.25,-0.595
2021-08-01 01:14:03.948,0.255,-0.59
2021-08-01 01:14:03.952,0.255,-0.6
2021-08-01 01:14:03.956,0.25,-0.59
2021-08-01 01:14:03.960,0.265,-0.595
2021-08-01 01:14:03.964,0.26,-0.59
2021-08-01 01:14:03.968,0.255,-0.585
2021-08-01 01:14:03.972,0.27,-0.595
2021-08-01 01:14:03.976,0.26,-0.59
2021-08-01 01:14:03.980,0.255,-0.585
2021-08-01 01:14:03.984,0.24,-0.6
2021-08-01 01:14:03.988,0.26,-0.615
2021-08-01 01:14:03.992,0.245,-0.605
2021-08-01 01:14:03.996,0.255,-0.605
2021-08-01 01:14:04.000,0.265,-0.525
2021-08-01 01:14:04.004,0.285,-0.375
2021-08-01 01:14:04.008,0.29,-0.185
2021-08-01 01:14:04.012,0.31,0.03
2021-08-01 01:14:04.016,0.395,0.2
2021-08-01 01:14:04.020,0.47,0.275
2021-08-01 01:14:04.024,0.53,0.255
2021-08-01 01:14:04.028,0.535,0.13
2021-08-01 01:14:04.032,0.51,-0.265
2021-08-01 01:14:04.036,0.455,-0.695
2021-08-01 01:14:04.040,0.33,-0.935
2021-08-01 01:14:04.044,0.13,-1.055
2021-08-01 01:14:04.048,-0.01,-1.055
2021-08-01 01:14:04.052,-0.09,-0.98
2021-08-01 01:14:04.056,-0.08,-0.85
2021-08-01 01:14:04.060,-0.055,-0.785
2021-08-01 01:14:04.064,0.0,-0.7
2021-08-01 01:14:04.068,0.07,-0.635
2021-08-01 01:14:04.072,0.14,-0.625
2021-08-01 01:14:04.076,0.19,-0.605
2021-08-01 01:14:04.080,0.21,-0.64
2021-08-01 01:14:04.084,0.22,-0.64
2021-08-01 01:14:04.088,0.235,-0.625
2021-08-01 01:14:04.092,0.23,-0.63
2021-08-01 01:14:04.096,0.225,-0.64
2021-08-01 01:14:04.100,0.215,-0.635
2021-08-01 01:14:04.104,0.23,-0.64
2021-08-01 01:14:04.108,0.195,-0.635
2021-08-01 01:14:04.112,0.225,-0.62
2021-08-01 01:14:04.116,0.225,-0.62
2021-08-01 01:14:04.120,0.215,-0.625
2021-08-01 01:14:04.124,0.225,-0.635
2021-08-01 01:14:04.128,0.21,-0.61
2021-08-01 01:14:04.132,0.215,-0.62
2021-08-01 01:14:04.136,0.24,-0.615
2021-08-01 01:14:04.140,0.21,-0.63
2021-08-01 01:14:04.144,0.2,-0.61
2021-08-01 01:14:04.148,0.205,-0.61
2021-08-01 01:14:04.152,0.21,-0.6
2021-08-01 01:14:04.156,0.205,-0.605
2021-08-01 01:14:04.160,0.215,-0.61
2021-08-01 01:14:04.164,0.205,-0.61
2021-08-01 01:14:04.168,0.2,-0.595
2021-08-01 01:14:04.172,0.18,-0.585
2021-08-01 01:14:04.176,0.19,-0.575
2021-08-01 01:14:04.180,0.19,-0.575
2021-08-01 01:14:04.184,0.21,-0.57
2021-08-01 01:14:04.188,0.205,-0.565
2021-08-01 01:14:04.192,0.195,-0.545
2021-08-01 01:14:04.196,0.205,-0.545
2021-08-01 01:14:04.200,0.205,-0.54
2021-08-01 01:14:04.204,0.2,-0.535
2021-08-01 01:14:04.208,0.19,-0.53
2021-08-01 01:14:04.212,0.205,-0.525
2021-08-01 01:14:04.216,0.205,-0.51
2021-08-01 01:14:04.220,0.21,-0.5
2021-08-01 01:14:04.224,0.22,-0.48
2021-08-01 01:14:04.228,0.205,-0.485
2021-08-01 01:14:04.232,0.22,-0.49
2021-08-01 01:14:04.236,0.225,-0.49
2021-08-01 01:14:04.240,0.22,-0.47
2021-08-01 01:14:04.244,0.215,-0.455
2021-08-01 01:14:04.248,0.22,-0.45
2021-08-01 01:14:04.252,0.21,-0.455
2021-08-01 01:14:04.256,0.225,-0.44
2021-08-01 01:14:04.260,0.21,-0.455
2021-08-01 01:14:04.264,0.225,-0.445
2021-08-01 01:14:04.268,0.21,-0.415
2021-08-01 01:14:04.272,0.225,-0.4
2021-08-01 01:14:04.276,0.22,-0.4
2021-08-01 01:14:04.280,0.23,-0.39
2021-08-01 01:14:04.284,0.245,-0.39
2021-08-01 01:14:04.288,0.245,-0.39
2021-08-01 01:14:04.292,0.245,-0.405
2021-08-01 01:14:04.296,0.23,-0.41
2021-08-01 01:14:04.300,0.22,-0.405
2021-08-01 01:14:04.304,0.24,-0.425
2021-08-01 01:14:04.308,0.245,-0.445
2021-08-01 01:14:04.312,0.25,-0.46
2021-08-01 01:14:04.316,0.24,-0.475
2021-08-01 01:14:04.320,0.24,-0.47
2021-08-01 01:14:04.324,0.225,-0.46
2021-08-01 01:14:04.328,0.22,-0.48
2021-08-01 01:14:04.332,0.255,-0.49
2021-08-01 01:14:04.336,0.24,-0.475
2021-08-01 01:14:04.340,0.215,-0.48
2021-08-01 01:14:04.344,0.245,-0.48
2021-08-01 01:14:04.348,0.215,-0.48
2021-08-01 01:14:04.352,0.22,-0.48
2021-08-01 01:14:04.356,0.205,-0.495
2021-08-01 01:14:04.360,0.23,-0.49
2021-08-01 01:14:04.364,0.22,-0.475
2021-08-01 01:14:04.368,0.215,-0.485
2021-08-01 01:14:04.372,0.215,-0.485
2021-08-01 01:14:04.376,0.215,-0.475
2021-08-01 01:14:04.380,0.205,-0.47
2021-08-01 01:14:04.384,0.21,-0.475
2021-08-01 01:14:04.388,0.21,-0.48
2021-08-01 01:14:04.392,0.21,-0.475
2021-08-01 01:14:04.396,0.215,-0.48
2021-08-01 01:14:04.400,0.225,-0.47
2021-08-01 01:14:04.404,0.21,-0.45
2021-08-01 01:14:04.408,0.215,-0.46
2021-08-01 01:14:04.412,0.21,-0.47
2021-08-01 01:14:04.416,0.205,-0.455
2021-08-01 01:14:04.420,0.215,-0.47
2021-08-01 01:14:04.424,0.225,-0.465
2021-08-01 01:14:04.428,0.19,-0.465
2021-08-01 01:14:04.432,0.195,-0.47
2021-08-01 01:14:04.436,0.205,-0.48
2021-08-01 01:14:04.440,0.215,-0.455
2021-08-01 01:14:04.444,0.21,-0.465
2021-08-01 01:14:04.448,0.2,-0.46
2021-08-01 01:14:04.452,0.205,-0.465
2021-08-01 01:14:04.456,0.215,-0.465
2021-08-01 01:14:04.460,0.2,-0.47
2021-08-01 01:14:04.464,0.2,-0.46
2021-08-01 01:14:04.468,0.205,-0.465
2021-08-01 01:14:04.472,0.2,-0.475
2021-08-01 01:14:04.476,0.185,-0.475
2021-08-01 01:14:04.480,0.2,-0.47
2021-08-01 01:14:04.484,0.185,-0.47
2021-08-01 01:14:04.488,0.19,-0.475
2021-08-01 01:14:04.492,0.195,-0.48
2021-08-01 01:14:04.496,0.19,-0.47
2021-08-01 01:14:04.500,0.195,-0.47
2021-08-01 01:14:04.504,0.195,-0.475
2021-08-01 01:14:04.508,0.195,-0.49
2021-08-01 01:14:04.512,0.195,-0.48
2021-08-01 01:14:04.516,0.19,-0.48
2021-08-01 01:14:04.520,0.175,-0.455
2021-08-01 01:14:04.524,0.19,-0.415
2021-08-01 01:14:04.528,0.175,-0.405
2021-08-01 01:14:04.532,0.2,-0.4
2021-08-01 01:14:04.536,0.205,-0.375
2021-08-01 01:14:04.540,0.225,-0.375
2021-08-01 01:14:04.544,0.235,-0.38
2021-08-01 01:14:04.548,0.25,-0.36
2021-08-01 01:14:04.552,0.24,-0.33
2021-08-01 01:14:04.556,0.22,-0.3
2021-08-01 01:14:04.560,0.23,-0.305
2021-08-01 01:14:04.564,0.22,-0.325
2021-08-01 01:14:04.568,0.215,-0.375
2021-08-01 01:14:04.572,0.21,-0.4
2021-08-01 01:14:04.576,0.17,-0.45
2021-08-01 01:14:04.580,0.155,-0.465
2021-08-01 01:14:04.584,0.14,-0.475
2021-08-01 01:14:04.588,0.13,-0.465
2021-08-01 01:14:04.592,0.13,-0.455
2021-08-01 01:14:04.596,0.135,-0.45
2021-08-01 01:14:04.600,0.15,-0.455
2021-08-01 01:14:04.604,0.185,-0.475
2021-08-01 01:14:04.608,0.18,-0.5
2021-08-01 01:14:04.612,0.175,-0.515
2021-08-01 01:14:04.616,0.195,-0.515
2021-08-01 01:14:04.620,0.19,-0.525
2021-08-01 01:14:04.624,0.17,-0.55
2021-08-01 01:14:04.628,0.175,-0.565
2021-08-01 01:14:04.632,0.175,-0.565
2021-08-01 01:14:04.636,0.17,-0.565
2021-08-01 01:14:04.640,0.165,-0.55
2021-08-01 01:14:04.644,0.155,-0.56
2021-08-01 01:14:04.648,0.155,-0.58
2021-08-01 01:14:04.652,0.155,-0.555
2021-08-01 01:14:04.656,0.155,-0.555
2021-08-01 01:14:04.660,0.155,-0.555
2021-08-01 01:14:04.664,0.165,-0.56
2021-08-01 01:14:04.668,0.155,-0.56
2021-08-01 01:14:04.672,0.165,-0.555
2021-08-01 01:14:04.676,0.155,-0.55
2021-08-01 01:14:04.680,0.17,-0.575
2021-08-01 01:14:04.684,0.18,-0.585
2021-08-01 01:14:04.688,0.16,-0.58
2021-08-01 01:14:04.692,0.155,-0.54
2021-08-01 01:14:04.696,0.18,-0.435
2021-08-01 01:14:04.700,0.195,-0.235
2021-08-01 01:14:04.704,0.22,-0.025
2021-08-01 01:14:04.708,0.26,0.155
2021-08-01 01:14:04.712,0.325,0.265
2021-08-01 01:14:04.716,0.41,0.315
2021-08-01 01:14:04.720,0.425,0.26
2021-08-01 01:14:04.724,0.415,-0.025
2021-08-01 01:14:04.728,0.36,-0.515
2021-08-01 01:14:04.732,0.27,-0.83
2021-08-01 01:14:04.736,0.075,-0.965
2021-08-01 01:14:04.740,-0.085,-0.985
2021-08-01 01:14:04.744,-0.175,-0.94
2021-08-01 01:14:04.748,-0.2,-0.8
2021-08-01 01:14:04.752,-0.155,-0.705
2021-08-01 01:14:04.756,-0.1,-0.625
2021-08-01 01:14:04.760,-0.015,-0.59
2021-08-01 01:14:04.764,0.05,-0.57
2021-08-01 01:14:04.768,0.115,-0.58
2021-08-01 01:14:04.772,0.125,-0.57
2021-08-01 01:14:04.776,0.135,-0.585
2021-08-01 01:14:04.780,0.155,-0.585
2021-08-01 01:14:04.784,0.15,-0.555
2021-08-01 01:14:04.788,0.155,-0.555
2021-08-01 01:14:04.792,0.145,-0.565
2021-08-01 01:14:04.796,0.155,-0.555
2021-08-01 01:14:04.800,0.15,-0.555
2021-08-01 01:14:04.804,0.135,-0.575
2021-08-01 01:14:04.808,0.14,-0.57
2021-08-01 01:14:04.812,0.13,-0.55
2021-08-01 01:14:04.816,0.145,-0.56
2021-08-01 01:14:04.820,0.15,-0.555
2021-08-01 01:14:04.824,0.14,-0.555
2021-08-01 01:14:04.828,0.155,-0.535
2021-08-01 01:14:04.832,0.13,-0.545
2021-08-01 01:14:04.836,0.135,-0.54
2021-08-01 01:14:04.840,0.14,-0.545
2021-08-01 01:14:04.844,0.13,-0.535
2021-08-01 01:14:04.848,0.135,-0.525
2021-08-01 01:14:04.852,0.145,-0.515
2021-08-01 01:14:04.856,0.145,-0.525
2021-08-01 01:14:04.860,0.155,-0.51
2021-08-01 01:14:04.864,0.15,-0.525
2021-08-01 01:14:04.868,0.135,-0.49
2021-08-01 01:14:04.872,0.14,-0.515
2021-08-01 01:14:04.876,0.145,-0.485
2021-08-01 01:14:04.880,0.15,-0.485
2021-08-01 01:14:04.884,0.145,-0.47
2021-08-01 01:14:04.888,0.155,-0.46
2021-08-01 01:14:04.892,0.15,-0.46
2021-08-01 01:14:04.896,0.15,-0.445
2021-08-01 01:14:04.900,0.125,-0.46
2021-08-01 01:14:04.904,0.145,-0.435
2021-08-01 01:14:04.908,0.14,-0.415
2021-08-01 01:14:04.912,0.155,-0.425
2021-08-01 01:14:04.916,0.16,-0.42
2021-08-01 01:14:04.920,0.175,-0.4
2021-08-01 01:14:04.924,0.17,-0.39
2021-08-01 01:14:04.928,0.165,-0.375
2021-08-01 01:14:04.932,0.175,-0.39
2021-08-01 01:14:04.936,0.17,-0.38
2021-08-01 01:14:04.940,0.16,-0.39
2021-08-01 01:14:04.944,0.155,-0.39
2021-08-01 01:14:04.948,0.14,-0.36
2021-08-01 01:14:04.952,0.165,-0.37
2021-08-01 01:14:04.956,0.14,-0.35
2021-08-01 01:14:04.960,0.16,-0.34
2021-08-01 01:14:04.964,0.16,-0.325
2021-08-01 01:14:04.968,0.165,-0.33
2021-08-01 01:14:04.972,0.165,-0.32
2021-08-01 01:14:04.976,0.165,-0.315
2021-08-01 01:14:04.980,0.165,-0.32
2021-08-01 01:14:04.984,0.17,-0.305
2021-08-01 01:14:04.988,0.16,-0.305
2021-08-01 01:14:04.992,0.165,-0.335
2021-08-01 01:14:04.996,0.18,-0.345
2021-08-01 01:14:05.000,0.17,-0.355
2021-08-01 01:14:05.004,0.165,-0.35
2021-08-01 01:14:05.008,0.165,-0.375
2021-08-01 01:14:05.012,0.175,-0.39
2021-08-01 01:14:05.016,0.16,-0.395
2021-08-01 01:14:05.020,0.145,-0.4
2021-08-01 01:14:05.024,0.15,-0.385
2021-08-01 01:14:05.028,0.135,-0.405
2021-08-01 01:14:05.032,0.16,-0.42
2021-08-01 01:14:05.036,0.15,-0.43
2021-08-01 01:14:05.040,0.15,-0.4
2021-08-01 01:14:05.044,0.145,-0.405
2021-08-01 01:14:05.048,0.14,-0.41
2021-08-01 01:14:05.052,0.145,-0.42
2021-08-01 01:14:05.056,0.155,-0.41
2021-08-01 01:14:05.060,0.145,-0.405
2021-08-01 01:14:05.064,0.145,-0.42
2021-08-01 01:14:05.068,0.12,-0.405
2021-08-01 01:14:05.072,0.135,-0.415
2021-08-01 01:14:05.076,0.15,-0.415
2021-08-01 01:14:05.080,0.15,-0.4
2021-08-01 01:14:05.084,0.14,-0.39
2021-08-01 01:14:05.088,0.14,-0.4
2021-08-01 01:14:05.092,0.14,-0.4
2021-08-01 01:14:05.096,0.145,-0.41
2021-08-01 01:14:05.100,0.125,-0.4
2021-08-01 01:14:05.104,0.125,-0.405
2021-08-01 01:14:05.108,0.13,-0.39
2021-08-01 01:14:05.112,0.13,-0.4
2021-08-01 01:14:05.116,0.14,-0.41
2021-08-01 01:14:05.120,0.145,-0.405
2021-08-01 01:14:05.124,0.12,-0.39
2021-08-01 01:14:05.128,0.11,-0.39
2021-08-01 01:14:05.132,0.115,-0.405
2021-08-01 01:14:05.136,0.125,-0.4
2021-08-01 01:14:05.140,0.125,-0.415
2021-08-01 01:14:05.144,0.135,-0.41
2021-08-01 01:14:05.148,0.125,-0.39
2021-08-01 01:14:05.152,0.115,-0.415
2021-08-01 01:14:05.156,0.115,-0.41
2021-08-01 01:14:05.160,0.125,-0.425
2021-08-01 01:14:05.164,0.135,-0.41
2021-08-01 01:14:05.168,0.095,-0.425
2021-08-01 01:14:05.172,0.1,-0.435
2021-08-01 01:14:05.176,0.1,-0.415
2021-08-01 01:14:05.180,0.1,-0.425
2021-08-01 01:14:05.184,0.115,-0.43
2021-08-01 01:14:05.188,0.105,-0.43
2021-08-01 01:14:05.192,0.095,-0.435
2021-08-01 01:14:05.196,0.085,-0.415
2021-08-01 01:14:05.200,0.1,-0.43
2021-08-01 01:14:05.204,0.085,-0.43
2021-08-01 01:14:05.208,0.105,-0.43
2021-08-01 01:14:05.212,0.105,-0.41
2021-08-01 01:14:05.216,0.095,-0.39
2021-08-01 01:14:05.220,0.085,-0.355
2021-08-01 01:14:05.224,0.1,-0.355
2021-08-01 01:14:05.228,0.115,-0.33
2021-08-01 01:14:05.232,0.125,-0.33
2021-08-01 01:14:05.236,0.14,-0.33
2021-08-01 01:14:05.240,0.15,-0.31
2021-08-01 01:14:05.244,0.16,-0.275
2021-08-01 01:14:05.248,0.155,-0.27
2021-08-01 01:14:05.252,0.155,-0.275
2021-08-01 01:14:05.256,0.155,-0.28
2021-08-01 01:14:05.260,0.145,-0.285
2021-08-01 01:14:05.264,0.125,-0.325
2021-08-01 01:14:05.268,0.11,-0.37
2021-08-01 01:14:05.272,0.08,-0.4
2021-08-01 01:14:05.276,0.06,-0.42
2021-08-01 01:14:05.280,0.05,-0.42
2021-08-01 01:14:05.284,0.05,-0.415
2021-08-01 01:14:05.288,0.045,-0.415
2021-08-01 01:14:05.292,0.055,-0.4
2021-08-01 01:14:05.296,0.085,-0.425
2021-08-01 01:14:05.300,0.07,-0.44
2021-08-01 01:14:05.304,0.1,-0.44
2021-08-01 01:14:05.308,0.095,-0.455
2021-08-01 01:14:05.312,0.1,-0.47
2021-08-01 01:14:05.316,0.085,-0.485
2021-08-01 01:14:05.320,0.09,-0.53
2021-08-01 01:14:05.324,0.085,-0.52
2021-08-01 01:14:05.328,0.09,-0.535
2021-08-01 01:14:05.332,0.075,-0.53
2021-08-01 01:14:05.336,0.075,-0.53
2021-08-01 01:14:05.340,0.055,-0.525
2021-08-01 01:14:05.344,0.05,-0.52
2021-08-01 01:14:05.348,0.05,-0.51
2021-08-01 01:14:05.352,0.08,-0.505
2021-08-01 01:14:05.356,0.07,-0.5
2021-08-01 01:14:05.360,0.07,-0.51
2021-08-01 01:14:05.364,0.07,-0.53
2021-08-01 01:14:05.368,0.055,-0.535
2021-08-01 01:14:05.372,0.045,-0.52
2021-08-01 01:14:05.376,0.06,-0.545
2021-08-01 01:14:05.380,0.07,-0.55
2021-08-01 01:14:05.384,0.065,-0.505
2021-08-01 01:14:05.388,0.095,-0.395
2021-08-01 01:14:05.392,0.115,-0.175
2021-08-01 01:14:05.396,0.105,0.04
2021-08-01 01:14:05.400,0.155,0.235
2021-08-01 01:14:05.404,0.22,0.3
2021-08-01 01:14:05.408,0.31,0.325
2021-08-01 01:14:05.412,0.33,0.28
2021-08-01 01:14:05.416,0.34,-0.01
2021-08-01 01:14:05.420,0.31,-0.505
2021-08-01 01:14:05.424,0.235,-0.805
2021-08-01 01:14:05.428,0.035,-0.94
2021-08-01 01:14:05.432,-0.125,-0.97
2021-08-01 01:14:05.436,-0.24,-0.915
2021-08-01 01:14:05.440,-0.265,-0.835
2021-08-01 01:14:05.444,-0.26,-0.745
2021-08-01 01:14:05.448,-0.23,-0.655
2021-08-01 01:14:05.452,-0.15,-0.57
2021-08-01 01:14:05.456,-0.08,-0.545
2021-08-01 01:14:05.460,-0.01,-0.545
2021-08-01 01:14:05.464,0.015,-0.545
2021-08-01 01:14:05.468,0.025,-0.54
2021-08-01 01:14:05.472,0.05,-0.53
2021-08-01 01:14:05.476,0.025,-0.525
2021-08-01 01:14:05.480,0.045,-0.545
2021-08-01 01:14:05.484,0.04,-0.54
2021-08-01 01:14:05.488,0.04,-0.525
2021-08-01 01:14:05.492,0.025,-0.535
2021-08-01 01:14:05.496,0.05,-0.55
2021-08-01 01:14:05.500,0.035,-0.545
2021-08-01 01:14:05.504,0.03,-0.545
2021-08-01 01:14:05.508,0.025,-0.545
2021-08-01 01:14:05.512,0.025,-0.545
2021-08-01 01:14:05.516,0.015,-0.52
2021-08-01 01:14:05.520,0.005,-0.53
2021-08-01 01:14:05.524,0.025,-0.525
2021-08-01 01:14:05.528,0.03,-0.525
2021-08-01 01:14:05.532,0.03,-0.515
2021-08-01 01:14:05.536,0.015,-0.54
2021-08-01 01:14:05.540,0.02,-0.525
2021-08-01 01:14:05.544,0.025,-0.5
2021-08-01 01:14:05.548,0.03,-0.525
2021-08-01 01:14:05.552,0.025,-0.515
2021-08-01 01:14:05.556,0.025,-0.52
2021-08-01 01:14:05.560,0.03,-0.49
2021-08-01 01:14:05.564,0.03,-0.49
2021-08-01 01:14:05.568,0.04,-0.48
2021-08-01 01:14:05.572,0.015,-0.47
2021-08-01 01:14:05.576,0.03,-0.475
2021-08-01 01:14:05.580,0.02,-0.48
2021-08-01 01:14:05.584,0.045,-0.47
2021-08-01 01:14:05.588,0.025,-0.46
2021-08-01 01:14:05.592,0.04,-0.435
2021-08-01 01:14:05.596,0.03,-0.43
2021-08-01 01:14:05.600,0.015,-0.425
2021-08-01 01:14:05.604,0.03,-0.425
2021-08-01 01:14:05.608,0.035,-0.405
2021-08-01 01:14:05.612,0.035,-0.385
2021-08-01 01:14:05.616,0.03,-0.39
2021-08-01 01:14:05.620,0.05,-0.395
2021-08-01 01:14:05.624,0.045,-0.37
2021-08-01 01:14:05.628,0.06,-0.36
2021-08-01 01:14:05.632,0.055,-0.355
2021-08-01 01:14:05.636,0.06,-0.355
2021-08-01 01:14:05.640,0.05,-0.36
2021-08-01 01:14:05.644,0.035,-0.345
2021-08-01 01:14:05.648,0.055,-0.335
2021-08-01 01:14:05.652,0.055,-0.315
2021-08-01 01:14:05.656,0.035,-0.315
2021-08-01 01:14:05.660,0.055,-0.315
2021-08-01 01:14:05.664,0.06,-0.32
2021-08-01 01:14:05.668,0.045,-0.295
2021-08-01 01:14:05.672,0.05,-0.285
2021-08-01 01:14:05.676,0.065,-0.285
2021-08-01 01:14:05.680,0.055,-0.28
2021-08-01 01:14:05.684,0.065,-0.285
2021-08-01 01:14:05.688,0.065,-0.29
2021-08-01 01:14:05.692,0.085,-0.3
2021-08-01 01:14:05.696,0.07,-0.32
2021-08-01 01:14:05.700,0.08,-0.32
2021-08-01 01:14:05.704,0.075,-0.345
2021-08-01 01:14:05.708,0.065,-0.345
2021-08-01 01:14:05.712,0.05,-0.355
2021-08-01 01:14:05.716,0.06,-0.375
2021-08-01 01:14:05.720,0.06,-0.355
2021-08-01 01:14:05.724,0.06,-0.37
2021-08-01 01:14:05.728,0.055,-0.365
2021-08-01 01:14:05.732,0.06,-0.38
2021-08-01 01:14:05.736,0.04,-0.39
2021-08-01 01:14:05.740,0.04,-0.385
2021-08-01 01:14:05.744,0.06,-0.39
2021-08-01 01:14:05.748,0.065,-0.385
2021-08-01 01:14:05.752,0.045,-0.38
2021-08-01 01:14:05.756,0.05,-0.37
2021-08-01 01:14:05.760,0.055,-0.39
2021-08-01 01:14:05.764,0.06,-0.385
2021-08-01 01:14:05.768,0.045,-0.36
2021-08-01 01:14:05.772,0.035,-0.36
2021-08-01 01:14:05.776,0.035,-0.365
2021-08-01 01:14:05.780,0.025,-0.37
2021-08-01 01:14:05.784,0.05,-0.36
2021-08-01 01:14:05.788,0.055,-0.355
2021-08-01 01:14:05.792,0.035,-0.355
2021-08-01 01:14:05.796,0.04,-0.365
2021-08-01 01:14:05.800,0.02,-0.36
2021-08-01 01:14:05.804,0.05,-0.355
2021-08-01 01:14:05.808,0.03,-0.34
2021-08-01 01:14:05.812,0.04,-0.36
2021-08-01 01:14:05.816,0.03,-0.365
2021-08-01 01:14:05.820,0.03,-0.365
2021-08-01 01:14:05.824,0.02,-0.355
2021-08-01 01:14:05.828,0.025,-0.36
2021-08-01 01:14:05.832,0.035,-0.355
2021-08-01 01:14:05.836,0.01,-0.345
2021-08-01 01:14:05.840,0.03,-0.335
2021-08-01 01:14:05.844,0.015,-0.35
2021-08-01 01:14:05.848,0.015,-0.35
2021-08-01 01:14:05.852,0.015,-0.365
2021-08-01 01:14:05.856,0.01,-0.36
2021-08-01 01:14:05.860,0.03,-0.36
2021-08-01 01:14:05.864,0.01,-0.36
2021-08-01 01:14:05.868,0.025,-0.365
2021-08-01 01:14:05.872,0.01,-0.37
2021-08-01 01:14:05.876,0.01,-0.39
2021-08-01 01:14:05.880,0.01,-0.365
2021-08-01 01:14:05.884,0.02,-0.375
2021-08-01 01:14:05.888,0.005,-0.385
2021-08-01 01:14:05.892,0.0,-0.39
2021-08-01 01:14:05.896,0.0,-0.37
2021-08-01 01:14:05.900,0.005,-0.34
2021-08-01 01:14:05.904,-0.005,-0.345
2021-08-01 01:14:05.908,0.005,-0.325
2021-08-01 01:14:05.912,0.01,-0.3
2021-08-01 01:14:05.916,0.01,-0.275
2021-08-01 01:14:05.920,0.02,-0.25
2021-08-01 01:14:05.924,0.05,-0.26
2021-08-01 01:14:05.928,0.035,-0.26
2021-08-01 01:14:05.932,0.055,-0.22
2021-08-01 01:14:05.936,0.065,-0.205
2021-08-01 01:14:05.940,0.06,-0.19
2021-08-01 01:14:05.944,0.06,-0.21
2021-08-01 01:14:05.948,0.045,-0.235
2021-08-01 01:14:05.952,0.035,-0.275
2021-08-01 01:14:05.956,0.01,-0.305
2021-08-01 01:14:05.960,-0.015,-0.35
2021-08-01 01:14:05.964,-0.025,-0.38
2021-08-01 01:14:05.968,-0.06,-0.38
2021-08-01 01:14:05.972,-0.055,-0.375
2021-08-01 01:14:05.976,-0.06,-0.36
2021-08-01 01:14:05.980,-0.045,-0.355
2021-08-01 01:14:05.984,-0.045,-0.365
2021-08-01 01:14:05.988,-0.025,-0.4
2021-08-01 01:14:05.992,-0.02,-0.405
2021-08-01 01:14:05.996,-0.01,-0.415
2021-08-01 01:14:06.000,-0.02,-0.425
2021-08-01 01:14:06.004,-0.005,-0.445
2021-08-01 01:14:06.008,-0.04,-0.47
2021-08-01 01:14:06.012,-0.03,-0.48
2021-08-01 01:14:06.016,-0.045,-0.475
2021-08-01 01:14:06.020,-0.055,-0.465
2021-08-01 01:14:06.024,-0.055,-0.465
2021-08-01 01:14:06.028,-0.04,-0.48
2021-08-01 01:14:06.032,-0.06,-0.485
2021-08-01 01:14:06.036,-0.06,-0.48
2021-08-01 01:14:06.040,-0.05,-0.495
2021-08-01 01:14:06.044,-0.045,-0.47
2021-08-01 01:14:06.048,-0.07,-0.48
2021-08-01 01:14:06.052,-0.07,-0.485
2021-08-01 01:14:06.056,-0.065,-0.48
2021-08-01 01:14:06.060,-0.055,-0.475
2021-08-01 01:14:06.064,-0.055,-0.49
2021-08-01 01:14:06.068,-0.05,-0.505
2021-08-01 01:14:06.072,-0.045,-0.51
2021-08-01 01:14:06.076,-0.07,-0.47
2021-08-01 01:14:06.080,-0.065,-0.345
2021-08-01 01:14:06.084,-0.04,-0.165
2021-08-01 01:14:06.088,-0.015,0.035
2021-08-01 01:14:06.092,0.01,0.22
2021-08-01 01:14:06.096,0.09,0.315
2021-08-01 01:14:06.100,0.165,0.355
2021-08-01 01:14:06.104,0.21,0.315
2021-08-01 01:14:06.108,0.215,0.025
2021-08-01 01:14:06.112,0.195,-0.435
2021-08-01 01:14:06.116,0.12,-0.75
2021-08-01 01:14:06.120,-0.06,-0.905
2021-08-01 01:14:06.124,-0.25,-0.94
2021-08-01 01:14:06.128,-0.355,-0.93
2021-08-01 01:14:06.132,-0.4,-0.835
2021-08-01 01:14:06.136,-0.38,-0.7
2021-08-01 01:14:06.140,-0.355,-0.64
2021-08-01 01:14:06.144,-0.31,-0.565
2021-08-01 01:14:06.148,-0.245,-0.525
2021-08-01 01:14:06.152,-0.18,-0.52
2021-08-01 01:14:06.156,-0.13,-0.505
2021-08-01 01:14:06.160,-0.12,-0.515
2021-08-01 01:14:06.164,-0.105,-0.515
2021-08-01 01:14:06.168,-0.135,-0.51
2021-08-01 01:14:06.172,-0.13,-0.515
2021-08-01 01:14:06.176,-0.125,-0.515
2021-08-01 01:14:06.180,-0.12,-0.51
2021-08-01 01:14:06.184,-0.135,-0.52
2021-08-01 01:14:06.188,-0.125,-0.51
2021-08-01 01:14:06.192,-0.145,-0.51
2021-08-01 01:14:06.196,-0.115,-0.5
2021-08-01 01:14:06.200,-0.135,-0.51
2021-08-01 01:14:06.204,-0.13,-0.5
2021-08-01 01:14:06.208,-0.13,-0.495
2021-08-01 01:14:06.212,-0.135,-0.48
2021-08-01 01:14:06.216,-0.145,-0.51
2021-08-01 01:14:06.220,-0.14,-0.49
2021-08-01 01:14:06.224,-0.14,-0.495
2021-08-01 01:14:06.228,-0.15,-0.505
2021-08-01 01:14:06.232,-0.145,-0.49
2021-08-01 01:14:06.236,-0.15,-0.49
2021-08-01 01:14:06.240,-0.15,-0.475
2021-08-01 01:14:06.244,-0.16,-0.49
2021-08-01 01:14:06.248,-0.155,-0.49
2021-08-01 01:14:06.252,-0.15,-0.45
2021-08-01 01:14:06.256,-0.16,-0.46
2021-08-01 01:14:06.260,-0.145,-0.455
2021-08-01 01:14:06.264,-0.155,-0.47
2021-08-01 01:14:06.268,-0.155,-0.465
2021-08-01 01:14:06.272,-0.16,-0.445
2021-08-01 01:14:06.276,-0.16,-0.435
2021-08-01 01:14:06.280,-0.16,-0.425
2021-08-01 01:14:06.284,-0.16,-0.42
2021-08-01 01:14:06.288,-0.145,-0.41
2021-08-01 01:14:06.292,-0.16,-0.4
2021-08-01 01:14:06.296,-0.16,-0.39
2021-08-01 01:14:06.300,-0.165,-0.395
2021-08-01 01:14:06.304,-0.155,-0.385
2021-08-01 01:14:06.308,-0.13,-0.375
2021-08-01 01:14:06.312,-0.13,-0.365
2021-08-01 01:14:06.316,-0.13,-0.36
2021-08-01 01:14:06.320,-0.145,-0.365
2021-08-01 01:14:06.324,-0.14,-0.355
2021-08-01 01:14:06.328,-0.14,-0.35
2021-08-01 01:14:06.332,-0.14,-0.335
2021-08-01 01:14:06.336,-0.155,-0.33
2021-08-01 01:14:06.340,-0.155,-0.32
2021-08-01 01:14:06.344,-0.14,-0.315
2021-08-01 01:14:06.348,-0.145,-0.29
2021-08-01 01:14:06.352,-0.145,-0.285
2021-08-01 01:14:06.356,-0.145,-0.285
2021-08-01 01:14:06.360,-0.145,-0.28
2021-08-01 01:14:06.364,-0.15,-0.27
2021-08-01 01:14:06.368,-0.15,-0.26
2021-08-01 01:14:06.372,-0.14,-0.28
2021-08-01 01:14:06.376,-0.145,-0.28
2021-08-01 01:14:06.380,-0.14,-0.3
2021-08-01 01:14:06.384,-0.15,-0.29
2021-08-01 01:14:06.388,-0.15,-0.305
2021-08-01 01:14:06.392,-0.165,-0.31
2021-08-01 01:14:06.396,-0.16,-0.325
2021-08-01 01:14:06.400,-0.15,-0.335
2021-08-01 01:14:06.404,-0.155,-0.33
2021-08-01 01:14:06.408,-0.16,-0.33
2021-08-01 01:14:06.412,-0.145,-0.35
2021-08-01 01:14:06.416,-0.165,-0.33
2021-08-01 01:14:06.420,-0.175,-0.345
2021-08-01 01:14:06.424,-0.18,-0.345
2021-08-01 01:14:06.428,-0.17,-0.335
2021-08-01 01:14:06.432,-0.19,-0.335
2021-08-01 01:14:06.436,-0.18,-0.345
2021-08-01 01:14:06.440,-0.19,-0.355
2021-08-01 01:14:06.444,-0.19,-0.34
2021-08-01 01:14:06.448,-0.18,-0.34
2021-08-01 01:14:06.452,-0.18,-0.34
2021-08-01 01:14:06.456,-0.19,-0.33
2021-08-01 01:14:06.460,-0.175,-0.335
2021-08-01 01:14:06.464,-0.19,-0.335
2021-08-01 01:14:06.468,-0.16,-0.32
2021-08-01 01:14:06.472,-0.195,-0.325
2021-08-01 01:14:06.476,-0.19,-0.32
2021-08-01 01:14:06.480,-0.195,-0.325
2021-08-01 01:14:06.484,-0.19,-0.315
2021-08-01 01:14:06.488,-0.205,-0.31
2021-08-01 01:14:06.492,-0.205,-0.32
2021-08-01 01:14:06.496,-0.215,-0.3
2021-08-01 01:14:06.500,-0.21,-0.32
2021-08-01 01:14:06.504,-0.21,-0.305
2021-08-01 01:14:06.508,-0.22,-0.295
2021-08-01 01:14:06.512,-0.22,-0.305
2021-08-01 01:14:06.516,-0.205,-0.32
2021-08-01 01:14:06.520,-0.21,-0.325
2021-08-01 01:14:06.524,-0.22,-0.3
2021-08-01 01:14:06.528,-0.23,-0.31
2021-08-01 01:14:06.532,-0.21,-0.3
2021-08-01 01:14:06.536,-0.23,-0.31
2021-08-01 01:14:06.540,-0.24,-0.32
2021-08-01 01:14:06.544,-0.235,-0.315
2021-08-01 01:14:06.548,-0.23,-0.315
2021-08-01 01:14:06.552,-0.255,-0.315
2021-08-01 01:14:06.556,-0.26,-0.32
2021-08-01 01:14:06.560,-0.26,-0.33
2021-08-01 01:14:06.564,-0.26,-0.32
2021-08-01 01:14:06.568,-0.255,-0.32
2021-08-01 01:14:06.572,-0.26,-0.325
2021-08-01 01:14:06.576,-0.26,-0.315
2021-08-01 01:14:06.580,-0.265,-0.31
2021-08-01 01:14:06.584,-0.265,-0.315
2021-08-01 01:14:06.588,-0.26,-0.31
2021-08-01 01:14:06.592,-0.26,-0.29
2021-08-01 01:14:06.596,-0.28,-0.285
2021-08-01 01:14:06.600,-0.26,-0.265
2021-08-01 01:14:06.604,-0.265,-0.23
2021-08-01 01:14:06.608,-0.265,-0.21
2021-08-01 01:14:06.612,-0.235,-0.195
2021-08-01 01:14:06.616,-0.245,-0.185
2021-08-01 01:14:06.620,-0.23,-0.195
2021-08-01 01:14:06.624,-0.23,-0.145
2021-08-01 01:14:06.628,-0.225,-0.155
2021-08-01 01:14:06.632,-0.23,-0.135
2021-08-01 01:14:06.636,-0.23,-0.155
2021-08-01 01:14:06.640,-0.24,-0.17
2021-08-01 01:14:06.644,-0.25,-0.185
2021-08-01 01:14:06.648,-0.275,-0.215
2021-08-01 01:14:06.652,-0.285,-0.27
2021-08-01 01:14:06.656,-0.31,-0.29
2021-08-01 01:14:06.660,-0.335,-0.29
2021-08-01 01:14:06.664,-0.35,-0.27
2021-08-01 01:14:06.668,-0.355,-0.26
2021-08-01 01:14:06.672,-0.345,-0.27
2021-08-01 01:14:06.676,-0.32,-0.28
2021-08-01 01:14:06.680,-0.32,-0.315
2021-08-01 01:14:06.684,-0.315,-0.3
2021-08-01 01:14:06.688,-0.32,-0.31
2021-08-01 01:14:06.692,-0.32,-0.345
2021-08-01 01:14:06.696,-0.315,-0.35
2021-08-01 01:14:06.700,-0.32,-0.36
2021-08-01 01:14:06.704,-0.34,-0.375
2021-08-01 01:14:06.708,-0.345,-0.375
2021-08-01 01:14:06.712,-0.345,-0.365
2021-08-01 01:14:06.716,-0.345,-0.365
2021-08-01 01:14:06.720,-0.355,-0.365
2021-08-01 01:14:06.724,-0.35,-0.375
2021-08-01 01:14:06.728,-0.36,-0.365
2021-08-01 01:14:06.732,-0.375,-0.37
2021-08-01 01:14:06.736,-0.355,-0.38
2021-08-01 01:14:06.740,-0.36,-0.37
2021-08-01 01:14:06.744,-0.365,-0.355
2021-08-01 01:14:06.748,-0.365,-0.365
2021-08-01 01:14:06.752,-0.365,-0.375
2021-08-01 01:14:06.756,-0.37,-0.365
2021-08-01 01:14:06.760,-0.36,-0.39
2021-08-01 01:14:06.764,-0.36,-0.39
2021-08-01 01:14:06.768,-0.375,-0.35
2021-08-01 01:14:06.772,-0.36,-0.235
2021-08-01 01:14:06.776,-0.345,-0.04
2021-08-01 01:14:06.780,-0.335,0.175
2021-08-01 01:14:06.784,-0.275,0.37
2021-08-01 01:14:06.788,-0.225,0.46
2021-08-01 01:14:06.792,-0.125,0.47
2021-08-01 01:14:06.796,-0.105,0.425
2021-08-01 01:14:06.800,-0.155,0.065
2021-08-01 01:14:06.804,-0.19,-0.41
2021-08-01 01:14:06.808,-0.3,-0.685
2021-08-01 01:14:06.812,-0.515,-0.785
2021-08-01 01:14:06.816,-0.645,-0.8
2021-08-01 01:14:06.820,-0.71,-0.72
2021-08-01 01:14:06.824,-0.715,-0.6
2021-08-01 01:14:06.828,-0.675,-0.53
2021-08-01 01:14:06.832,-0.635,-0.415
2021-08-01 01:14:06.836,-0.54,-0.38
2021-08-01 01:14:06.840,-0.475,-0.355
2021-08-01 01:14:06.844,-0.46,-0.365
2021-08-01 01:14:06.848,-0.42,-0.375
2021-08-01 01:14:06.852,-0.43,-0.375
2021-08-01 01:14:06.856,-0.43,-0.36
2021-08-01 01:14:06.860,-0.43,-0.36
2021-08-01 01:14:06.864,-0.415,-0.35
2021-08-01 01:14:06.868,-0.435,-0.355
2021-08-01 01:14:06.872,-0.435,-0.35
2021-08-01 01:14:06.876,-0.435,-0.345
2021-08-01 01:14:06.880,-0.435,-0.335
2021-08-01 01:14:06.884,-0.44,-0.335
2021-08-01 01:14:06.888,-0.42,-0.345
2021-08-01 01:14:06.892,-0.43,-0.355
2021-08-01 01:14:06.896,-0.44,-0.325
2021-08-01 01:14:06.900,-0.425,-0.34
2021-08-01 01:14:06.904,-0.43,-0.345
2021-08-01 01:14:06.908,-0.445,-0.33
2021-08-01 01:14:06.912,-0.44,-0.32
2021-08-01 01:14:06.916,-0.44,-0.315
2021-08-01 01:14:06.920,-0.445,-0.31
2021-08-01 01:14:06.924,-0.44,-0.295
2021-08-01 01:14:06.928,-0.46,-0.29
2021-08-01 01:14:06.932,-0.45,-0.305
2021-08-01 01:14:06.936,-0.445,-0.295
2021-08-01 01:14:06.940,-0.45,-0.295
2021-08-01 01:14:06.944,-0.44,-0.295
2021-08-01 01:14:06.948,-0.44,-0.275
2021-08-01 01:14:06.952,-0.445,-0.25
2021-08-01 01:14:06.956,-0.435,-0.26
2021-08-01 01:14:06.960,-0.455,-0.25
2021-08-01 01:14:06.964,-0.465,-0.26
2021-08-01 01:14:06.968,-0.45,-0.235
2021-08-01 01:14:06.972,-0.44,-0.235
2021-08-01 01:14:06.976,-0.44,-0.22
2021-08-01 01:14:06.980,-0.445,-0.22
2021-08-01 01:14:06.984,-0.43,-0.195
2021-08-01 01:14:06.988,-0.455,-0.205
2021-08-01 01:14:06.992,-0.44,-0.185
2021-08-01 01:14:06.996,-0.435,-0.18
2021-08-01 01:14:07.000,-0.445,-0.16
2021-08-01 01:14:07.004,-0.435,-0.165
2021-08-01 01:14:07.008,-0.43,-0.145
2021-08-01 01:14:07.012,-0.43,-0.15
2021-08-01 01:14:07.016,-0.45,-0.145
2021-08-01 01:14:07.020,-0.45,-0.15
2021-08-01 01:14:07.024,-0.445,-0.145
2021-08-01 01:14:07.028,-0.465,-0.12
2021-08-01 01:14:07.032,-0.44,-0.1
2021-08-01 01:14:07.036,-0.435,-0.115
2021-08-01 01:14:07.040,-0.425,-0.1
2021-08-01 01:14:07.044,-0.435,-0.1
2021-08-01 01:14:07.048,-0.445,-0.095
2021-08-01 01:14:07.052,-0.425,-0.06
2021-08-01 01:14:07.056,-0.435,-0.065
2021-08-01 01:14:07.060,-0.435,-0.085
2021-08-01 01:14:07.064,-0.435,-0.09
2021-08-01 01:14:07.068,-0.445,-0.075
2021-08-01 01:14:07.072,-0.425,-0.08
2021-08-01 01:14:07.076,-0.425,-0.1
2021-08-01 01:14:07.080,-0.44,-0.115
2021-08-01 01:14:07.084,-0.44,-0.135
2021-08-01 01:14:07.088,-0.44,-0.135
2021-08-01 01:14:07.092,-0.445,-0.15
2021-08-01 01:14:07.096,-0.445,-0.14
2021-08-01 01:14:07.100,-0.445,-0.165
2021-08-01 01:14:07.104,-0.455,-0.15
2021-08-01 01:14:07.108,-0.445,-0.15
2021-08-01 01:14:07.112,-0.455,-0.16
2021-08-01 01:14:07.116,-0.44,-0.16
2021-08-01 01:14:07.120,-0.475,-0.16
2021-08-01 01:14:07.124,-0.46,-0.175
2021-08-01 01:14:07.128,-0.455,-0.16
2021-08-01 01:14:07.132,-0.45,-0.155
2021-08-01 01:14:07.136,-0.47,-0.15
2021-08-01 01:14:07.140,-0.48,-0.17
2021-08-01 01:14:07.144,-0.455,-0.16
2021-08-01 01:14:07.148,-0.45,-0.145
2021-08-01 01:14:07.152,-0.455,-0.145
2021-08-01 01:14:07.156,-0.44,-0.15
2021-08-01 01:14:07.160,-0.465,-0.155
2021-08-01 01:14:07.164,-0.44,-0.175
2021-08-01 01:14:07.168,-0.435,-0.16
2021-08-01 01:14:07.172,-0.465,-0.15
2021-08-01 01:14:07.176,-0.47,-0.135
2021-08-01 01:14:07.180,-0.45,-0.155
2021-08-01 01:14:07.184,-0.46,-0.145
2021-08-01 01:14:07.188,-0.45,-0.135
2021-08-01 01:14:07.192,-0.465,-0.14
2021-08-01 01:14:07.196,-0.435,-0.15
2021-08-01 01:14:07.200,-0.44,-0.16
2021-08-01 01:14:07.204,-0.46,-0.145
2021-08-01 01:14:07.208,-0.465,-0.145
2021-08-01 01:14:07.212,-0.455,-0.14
2021-08-01 01:14:07.216,-0.46,-0.135
2021-08-01 01:14:07.220,-0.465,-0.125
2021-08-01 01:14:07.224,-0.47,-0.15
2021-08-01 01:14:07.228,-0.46,-0.145
2021-08-01 01:14:07.232,-0.46,-0.145
2021-08-01 01:14:07.236,-0.465,-0.175
2021-08-01 01:14:07.240,-0.455,-0.17
2021-08-01 01:14:07.244,-0.47,-0.15
2021-08-01 01:14:07.248,-0.47,-0.155
2021-08-01 01:14:07.252,-0.455,-0.155
2021-08-01 01:14:07.256,-0.465,-0.165
2021-08-01 01:14:07.260,-0.455,-0.16
2021-08-01 01:14:07.264,-0.48,-0.155
2021-08-01 01:14:07.268,-0.47,-0.16
2021-08-01 01:14:07.272,-0.475,-0.155
2021-08-01 01:14:07.276,-0.465,-0.175
2021-08-01 01:14:07.280,-0.475,-0.16
2021-08-01 01:14:07.284,-0.46,-0.155
2021-08-01 01:14:07.288,-0.475,-0.125
2021-08-01 01:14:07.292,-0.465,-0.115
2021-08-01 01:14:07.296,-0.455,-0.095
2021-08-01 01:14:07.300,-0.465,-0.08
2021-08-01 01:14:07.304,-0.44,-0.05
2021-08-01 01:14:07.308,-0.41,-0.055
2021-08-01 01:14:07.312,-0.42,-0.04
2021-08-01 01:14:07.316,-0.415,-0.035
2021-08-01 01:14:07.320,-0.395,-0.01
2021-08-01 01:14:07.324,-0.4,0.01
2021-08-01 01:14:07.328,-0.39,0.01
2021-08-01 01:14:07.332,-0.405,-0.025
2021-08-01 01:14:07.336,-0.415,-0.055
2021-08-01 01:14:07.340,-0.42,-0.1
2021-08-01 01:14:07.344,-0.45,-0.13
2021-08-01 01:14:07.348,-0.47,-0.15
2021-08-01 01:14:07.352,-0.465,-0.165
2021-08-01 01:14:07.356,-0.485,-0.155
2021-08-01 01:14:07.360,-0.49,-0.11
2021-08-01 01:14:07.364,-0.47,-0.125
2021-08-01 01:14:07.368,-0.465,-0.145
2021-08-01 01:14:07.372,-0.45,-0.17
2021-08-01 01:14:07.376,-0.45,-0.19
2021-08-01 01:14:07.380,-0.45,-0.205
2021-08-01 01:14:07.384,-0.44,-0.2
2021-08-01 01:14:07.388,-0.435,-0.225
2021-08-01 01:14:07.392,-0.445,-0.24
2021-08-01 01:14:07.396,-0.45,-0.25
2021-08-01 01:14:07.400,-0.47,-0.25
2021-08-01 01:14:07.404,-0.46,-0.25
2021-08-01 01:14:07.408,-0.465,-0.24
2021-08-01 01:14:07.412,-0.475,-0.255
2021-08-01 01:14:07.416,-0.47,-0.265
2021-08-01 01:14:07.420,-0.465,-0.24
2021-08-01 01:14:07.424,-0.465,-0.245
2021-08-01 01:14:07.428,-0.465,-0.25
2021-08-01 01:14:07.432,-0.46,-0.25
2021-08-01 01:14:07.436,-0.455,-0.24
2021-08-01 01:14:07.440,-0.455,-0.225
2021-08-01 01:14:07.444,-0.455,-0.255
2021-08-01 01:14:07.448,-0.455,-0.26
2021-08-01 01:14:07.452,-0.45,-0.3
2021-08-01 01:14:07.456,-0.455,-0.28
2021-08-01 01:14:07.460,-0.435,-0.21
2021-08-01 01:14:07.464,-0.42,-0.035
2021-08-01 01:14:07.468,-0.41,0.14
2021-08-01 01:14:07.472,-0.38,0.315
2021-08-01 01:14:07.476,-0.315,0.49
2021-08-01 01:14:07.480,-0.24,0.565
2021-08-01 01:14:07.484,-0.175,0.57
2021-08-01 01:14:07.488,-0.16,0.495
2021-08-01 01:14:07.492,-0.21,0.175
2021-08-01 01:14:07.496,-0.265,-0.305
2021-08-01 01:14:07.500,-0.345,-0.585
2021-08-01 01:14:07.504,-0.535,-0.7
2021-08-01 01:14:07.508,-0.675,-0.74
2021-08-01 01:14:07.512,-0.74,-0.67
2021-08-01 01:14:07.516,-0.76,-0.53
2021-08-01 01:14:07.520,-0.725,-0.42
2021-08-01 01:14:07.524,-0.675,-0.33
2021-08-01 01:14:07.528,-0.59,-0.285
2021-08-01 01:14:07.532,-0.52,-0.26
2021-08-01 01:14:07.536,-0.475,-0.28
2021-08-01 01:14:07.540,-0.43,-0.265
2021-08-01 01:14:07.544,-0.43,-0.25
2021-08-01 01:14:07.548,-0.41,-0.265
2021-08-01 01:14:07.552,-0.425,-0.27
2021-08-01 01:14:07.556,-0.425,-0.255
2021-08-01 01:14:07.560,-0.43,-0.24
2021-08-01 01:14:07.564,-0.42,-0.255
2021-08-01 01:14:07.568,-0.4,-0.245
2021-08-01 01:14:07.572,-0.4,-0.245
2021-08-01 01:14:07.576,-0.415,-0.25
2021-08-01 01:14:07.580,-0.4,-0.245
2021-08-01 01:14:07.584,-0.425,-0.24
2021-08-01 01:14:07.588,-0.425,-0.24
2021-08-01 01:14:07.592,-0.41,-0.255
2021-08-01 01:14:07.596,-0.405,-0.22
2021-08-01 01:14:07.600,-0.425,-0.225
2021-08-01 01:14:07.604,-0.425,-0.235
2021-08-01 01:14:07.608,-0.405,-0.23
2021-08-01 01:14:07.612,-0.41,-0.22
2021-08-01 01:14:07.616,-0.395,-0.205
2021-08-01 01:14:07.620,-0.4,-0.2
2021-08-01 01:14:07.624,-0.395,-0.215
2021-08-01 01:14:07.628,-0.4,-0.21
2021-08-01 01:14:07.632,-0.405,-0.2
2021-08-01 01:14:07.636,-0.395,-0.195
2021-08-01 01:14:07.640,-0.385,-0.175
2021-08-01 01:14:07.644,-0.38,-0.18
2021-08-01 01:14:07.648,-0.37,-0.175
2021-08-01 01:14:07.652,-0.37,-0.165
2021-08-01 01:14:07.656,-0.365,-0.16
2021-08-01 01:14:07.660,-0.36,-0.145
2021-08-01 01:14:07.664,-0.345,-0.14
2021-08-01 01:14:07.668,-0.37,-0.13
2021-08-01 01:14:07.672,-0.355,-0.11
2021-08-01 01:14:07.676,-0.345,-0.095
2021-08-01 01:14:07.680,-0.35,-0.075
2021-08-01 01:14:07.684,-0.36,-0.095
2021-08-01 01:14:07.688,-0.335,-0.095
2021-08-01 01:14:07.692,-0.325,-0.075
2021-08-01 01:14:07.696,-0.315,-0.065
2021-08-01 01:14:07.700,-0.32,-0.055
2021-08-01 01:14:07.704,-0.32,-0.055
2021-08-01 01:14:07.708,-0.32,-0.035
2021-08-01 01:14:07.712,-0.32,-0.045
2021-08-01 01:14:07.716,-0.305,-0.015
2021-08-01 01:14:07.720,-0.295,-0.01
2021-08-01 01:14:07.724,-0.3,-0.01
2021-08-01 01:14:07.728,-0.305,-0.01
2021-08-01 01:14:07.732,-0.29,-0.005
2021-08-01 01:14:07.736,-0.295,0.005
2021-08-01 01:14:07.740,-0.29,0.0
2021-08-01 01:14:07.744,-0.29,0.015
2021-08-01 01:14:07.748,-0.275,0.03
2021-08-01 01:14:07.752,-0.27,0.015
2021-08-01 01:14:07.756,-0.275,0.025
2021-08-01 01:14:07.760,-0.25,0.0
2021-08-01 01:14:07.764,-0.265,0.0
2021-08-01 01:14:07.768,-0.27,-0.02
2021-08-01 01:14:07.772,-0.26,0.0
2021-08-01 01:14:07.776,-0.28,-0.02
2021-08-01 01:14:07.780,-0.26,-0.05
2021-08-01 01:14:07.784,-0.245,-0.065
2021-08-01 01:14:07.788,-0.265,-0.05
2021-08-01 01:14:07.792,-0.265,-0.045
2021-08-01 01:14:07.796,-0.27,-0.07
2021-08-01 01:14:07.800,-0.27,-0.08
2021-08-01 01:14:07.804,-0.28,-0.08
2021-08-01 01:14:07.808,-0.275,-0.09
2021-08-01 01:14:07.812,-0.255,-0.07
2021-08-01 01:14:07.816,-0.255,-0.075
2021-08-01 01:14:07.820,-0.275,-0.08
2021-08-01 01:14:07.824,-0.275,-0.075
2021-08-01 01:14:07.828,-0.265,-0.075
2021-08-01 01:14:07.832,-0.27,-0.085
2021-08-01 01:14:07.836,-0.255,-0.085
2021-08-01 01:14:07.840,-0.265,-0.105
2021-08-01 01:14:07.844,-0.26,-0.075
2021-08-01 01:14:07.848,-0.265,-0.065
2021-08-01 01:14:07.852,-0.26,-0.08
2021-08-01 01:14:07.856,-0.255,-0.065
2021-08-01 01:14:07.860,-0.245,-0.065
2021-08-01 01:14:07.864,-0.24,-0.06
2021-08-01 01:14:07.868,-0.245,-0.07
2021-08-01 01:14:07.872,-0.235,-0.065
2021-08-01 01:14:07.876,-0.24,-0.055
2021-08-01 01:14:07.880,-0.235,-0.06
2021-08-01 01:14:07.884,-0.23,-0.055
2021-08-01 01:14:07.888,-0.23,-0.06
2021-08-01 01:14:07.892,-0.235,-0.06
2021-08-01 01:14:07.896,-0.23,-0.065
2021-08-01 01:14:07.900,-0.225,-0.06
2021-08-01 01:14:07.904,-0.225,-0.045
2021-08-01 01:14:07.908,-0.23,-0.065
2021-08-01 01:14:07.912,-0.22,-0.08
2021-08-01 01:14:07.916,-0.22,-0.08
2021-08-01 01:14:07.920,-0.24,-0.08
2021-08-01 01:14:07.924,-0.2,-0.08
2021-08-01 01:14:07.928,-0.225,-0.07
2021-08-01 01:14:07.932,-0.235,-0.085
2021-08-01 01:14:07.936,-0.22,-0.09
2021-08-01 01:14:07.940,-0.225,-0.075
2021-08-01 01:14:07.944,-0.22,-0.08
2021-08-01 01:14:07.948,-0.215,-0.08
2021-08-01 01:14:07.952,-0.225,-0.08
2021-08-01 01:14:07.956,-0.225,-0.08
2021-08-01 01:14:07.960,-0.22,-0.11
2021-08-01 01:14:07.964,-0.21,-0.09
2021-08-01 01:14:07.968,-0.225,-0.09
2021-08-01 01:14:07.972,-0.215,-0.08
2021-08-01 01:14:07.976,-0.195,-0.06
2021-08-01 01:14:07.980,-0.21,-0.02
2021-08-01 01:14:07.984,-0.195,-0.01
2021-08-01 01:14:07.988,-0.19,0.01
2021-08-01 01:14:07.992,-0.185,0.01
2021-08-01 01:14:07.996,-0.19,0.01
2021-08-01 01:14:08.000,-0.155,0.025
2021-08-01 01:14:08.004,-0.14,0.06
2021-08-01 01:14:08.008,-0.125,0.065
2021-08-01 01:14:08.012,-0.13,0.085
2021-08-01 01:14:08.016,-0.1,0.05
2021-08-01 01:14:08.020,-0.14,0.05
2021-08-01 01:14:08.024,-0.16,0.015
2021-08-01 01:14:08.028,-0.18,-0.03
2021-08-01 01:14:08.032,-0.195,-0.09
2021-08-01 01:14:08.036,-0.21,-0.105
2021-08-01 01:14:08.040,-0.225,-0.1
2021-08-01 01:14:08.044,-0.235,-0.09
2021-08-01 01:14:08.048,-0.23,-0.07
2021-08-01 01:14:08.052,-0.23,-0.09
2021-08-01 01:14:08.056,-0.195,-0.1
2021-08-01 01:14:08.060,-0.2,-0.115
2021-08-01 01:14:08.064,-0.185,-0.12
2021-08-01 01:14:08.068,-0.175,-0.15
2021-08-01 01:14:08.072,-0.16,-0.185
2021-08-01 01:14:08.076,-0.195,-0.185
2021-08-01 01:14:08.080,-0.175,-0.195
2021-08-01 01:14:08.084,-0.18,-0.21
2021-08-01 01:14:08.088,-0.195,-0.205
2021-08-01 01:14:08.092,-0.2,-0.235
2021-08-01 01:14:08.096,-0.19,-0.22
2021-08-01 01:14:08.100,-0.205,-0.22
2021-08-01 01:14:08.104,-0.185,-0.215
2021-08-01 01:14:08.108,-0.19,-0.21
2021-08-01 01:14:08.112,-0.18,-0.215
2021-08-01 01:14:08.116,-0.21,-0.22
2021-08-01 01:14:08.120,-0.185,-0.215
2021-08-01 01:14:08.124,-0.195,-0.21
2021-08-01 01:14:08.128,-0.21,-0.215
2021-08-01 01:14:08.132,-0.2,-0.23
2021-08-01 01:14:08.136,-0.19,-0.235
2021-08-01 01:14:08.140,-0.2,-0.26
2021-08-01 01:14:08.144,-0.18,-0.255
2021-08-01 01:14:08.148,-0.19,-0.21
2021-08-01 01:14:08.152,-0.165,-0.06
2021-08-01 01:14:08.156,-0.165,0.145
2021-08-01 01:14:08.160,-0.145,0.325
2021-08-01 01:14:08.164,-0.085,0.48
2021-08-01 01:14:08.168,-0.005,0.57
2021-08-01 01:14:08.172,0.065,0.56
2021-08-01 01:14:08.176,0.125,0.45
2021-08-01 01:14:08.180,0.11,0.07
2021-08-01 01:14:08.184,0.07,-0.365
2021-08-01 01:14:08.188,-0.04,-0.635
2021-08-01 01:14:08.192,-0.2,-0.74
2021-08-01 01:14:08.196,-0.37,-0.73
2021-08-01 01:14:08.200,-0.465,-0.66
2021-08-01 01:14:08.204,-0.475,-0.585
2021-08-01 01:14:08.208,-0.45,-0.465
2021-08-01 01:14:08.212,-0.415,-0.38
2021-08-01 01:14:08.216,-0.35,-0.295
2021-08-01 01:14:08.220,-0.28,-0.26
2021-08-01 01:14:08.224,-0.225,-0.255
2021-08-01 01:14:08.228,-0.19,-0.285
2021-08-01 01:14:08.232,-0.185,-0.27
2021-08-01 01:14:08.236,-0.19,-0.255
2021-08-01 01:14:08.240,-0.17,-0.235
2021-08-01 01:14:08.244,-0.19,-0.27
2021-08-01 01:14:08.248,-0.17,-0.28
2021-08-01 01:14:08.252,-0.185,-0.295
2021-08-01 01:14:08.256,-0.16,-0.29
2021-08-01 01:14:08.260,-0.175,-0.275
2021-08-01 01:14:08.264,-0.175,-0.25
2021-08-01 01:14:08.268,-0.2,-0.265
2021-08-01 01:14:08.272,-0.18,-0.255
2021-08-01 01:14:08.276,-0.16,-0.245
2021-08-01 01:14:08.280,-0.155,-0.235
2021-08-01 01:14:08.284,-0.16,-0.27
2021-08-01 01:14:08.288,-0.16,-0.285
2021-08-01 01:14:08.292,-0.16,-0.275
2021-08-01 01:14:08.296,-0.155,-0.26
2021-08-01 01:14:08.300,-0.16,-0.265
2021-08-01 01:14:08.304,-0.15,-0.26
2021-08-01 01:14:08.308,-0.165,-0.245
2021-08-01 01:14:08.312,-0.145,-0.23
2021-08-01 01:14:08.316,-0.14,-0.24
2021-08-01 01:14:08.320,-0.135,-0.24
2021-08-01 01:14:08.324,-0.16,-0.23
2021-08-01 01:14:08.328,-0.14,-0.235
2021-08-01 01:14:08.332,-0.13,-0.24
2021-08-01 01:14:08.336,-0.14,-0.22
2021-08-01 01:14:08.340,-0.145,-0.225
2021-08-01 01:14:08.344,-0.135,-0.21
2021-08-01 01:14:08.348,-0.135,-0.2
2021-08-01 01:14:08.352,-0.135,-0.18
2021-08-01 01:14:08.356,-0.11,-0.185
2021-08-01 01:14:08.360,-0.12,-0.185
2021-08-01 01:14:08.364,-0.13,-0.19
2021-08-01 01:14:08.368,-0.13,-0.16
2021-08-01 01:14:08.372,-0.12,-0.155
2021-08-01 01:14:08.376,-0.115,-0.135
2021-08-01 01:14:08.380,-0.11,-0.14
2021-08-01 01:14:08.384,-0.1,-0.15
2021-08-01 01:14:08.388,-0.095,-0.13
2021-08-01 01:14:08.392,-0.105,-0.11
2021-08-01 01:14:08.396,-0.1,-0.125
2021-08-01 01:14:08.400,-0.09,-0.11
2021-08-01 01:14:08.404,-0.115,-0.095
2021-08-01 01:14:08.408,-0.1,-0.09
2021-08-01 01:14:08.412,-0.07,-0.095
2021-08-01 01:14:08.416,-0.08,-0.07
2021-08-01 01:14:08.420,-0.095,-0.075
2021-08-01 01:14:08.424,-0.075,-0.08
2021-08-01 01:14:08.428,-0.07,-0.06
2021-08-01 01:14:08.432,-0.07,-0.04
2021-08-01 01:14:08.436,-0.07,-0.06
2021-08-01 01:14:08.440,-0.055,-0.05
2021-08-01 01:14:08.444,-0.035,-0.08
2021-08-01 01:14:08.448,-0.04,-0.075
2021-08-01 01:14:08.452,-0.055,-0.085
2021-08-01 01:14:08.456,-0.045,-0.08
2021-08-01 01:14:08.460,-0.04,-0.11
2021-08-01 01:14:08.464,-0.035,-0.12
2021-08-01 01:14:08.468,-0.03,-0.115
2021-08-01 01:14:08.472,-0.04,-0.115
2021-08-01 01:14:08.476,-0.045,-0.14
2021-08-01 01:14:08.480,-0.025,-0.15
2021-08-01 01:14:08.484,-0.025,-0.145
2021-08-01 01:14:08.488,-0.04,-0.155
2021-08-01 01:14:08.492,-0.025,-0.16
2021-08-01 01:14:08.496,-0.025,-0.165
2021-08-01 01:14:08.500,-0.045,-0.17
2021-08-01 01:14:08.504,-0.045,-0.165
2021-08-01 01:14:08.508,-0.045,-0.155
2021-08-01 01:14:08.512,-0.035,-0.155
2021-08-01 01:14:08.516,-0.045,-0.16
2021-08-01 01:14:08.520,-0.05,-0.165
2021-08-01 01:14:08.524,-0.035,-0.15
2021-08-01 01:14:08.528,-0.025,-0.165
2021-08-01 01:14:08.532,-0.02,-0.155
2021-08-01 01:14:08.536,-0.015,-0.15
2021-08-01 01:14:08.540,-0.04,-0.155
2021-08-01 01:14:08.544,-0.03,-0.17
2021-08-01 01:14:08.548,-0.025,-0.155
2021-08-01 01:14:08.552,-0.04,-0.15
2021-08-01 01:14:08.556,-0.045,-0.15
2021-08-01 01:14:08.560,-0.025,-0.15
2021-08-01 01:14:08.564,-0.035,-0.155
2021-08-01 01:14:08.568,-0.015,-0.14
2021-08-01 01:14:08.572,-0.02,-0.145
2021-08-01 01:14:08.576,0.0,-0.14
2021-08-01 01:14:08.580,-0.015,-0.145
2021-08-01 01:14:08.584,-0.02,-0.16
2021-08-01 01:14:08.588,-0.015,-0.15
2021-08-01 01:14:08.592,-0.035,-0.145
2021-08-01 01:14:08.596,-0.015,-0.16
2021-08-01 01:14:08.600,-0.015,-0.16
2021-08-01 01:14:08.604,-0.02,-0.16
2021-08-01 01:14:08.608,-0.035,-0.14
2021-08-01 01:14:08.612,-0.01,-0.16
2021-08-01 01:14:08.616,-0.025,-0.165
2021-08-01 01:14:08.620,-0.025,-0.18
2021-08-01 01:14:08.624,-0.015,-0.145
2021-08-01 01:14:08.628,-0.015,-0.175
2021-08-01 01:14:08.632,-0.03,-0.16
2021-08-01 01:14:08.636,-0.025,-0.19
2021-08-01 01:14:08.640,-0.01,-0.185
2021-08-01 01:14:08.644,-0.035,-0.185
2021-08-01 01:14:08.648,-0.015,-0.17
2021-08-01 01:14:08.652,-0.005,-0.175
2021-08-01 01:14:08.656,-0.015,-0.16
2021-08-01 01:14:08.660,-0.02,-0.145
2021-08-01 01:14:08.664,-0.01,-0.12
2021-08-01 01:14:08.668,0.005,-0.105
2021-08-01 01:14:08.672,0.005,-0.085
2021-08-01 01:14:08.676,0.005,-0.08
2021-08-01 01:14:08.680,0.025,-0.08
2021-08-01 01:14:08.684,0.035,-0.055
2021-08-01 01:14:08.688,0.035,-0.03
2021-08-01 01:14:08.692,0.035,-0.025
2021-08-01 01:14:08.696,0.05,-0.03
2021-08-01 01:14:08.700,0.04,-0.015
2021-08-01 01:14:08.704,0.03,-0.045
2021-08-01 01:14:08.708,0.04,-0.075
2021-08-01 01:14:08.712,0.0,-0.11
2021-08-01 01:14:08.716,-0.03,-0.17
2021-08-01 01:14:08.720,-0.045,-0.19
2021-08-01 01:14:08.724,-0.05,-0.19
2021-08-01 01:14:08.728,-0.045,-0.18
2021-08-01 01:14:08.732,-0.06,-0.16
2021-08-01 01:14:08.736,-0.04,-0.18
2021-08-01 01:14:08.740,-0.05,-0.17
2021-08-01 01:14:08.744,-0.05,-0.21
2021-08-01 01:14:08.748,-0.04,-0.21
2021-08-01 01:14:08.752,-0.04,-0.23
2021-08-01 01:14:08.756,-0.04,-0.23
2021-08-01 01:14:08.760,-0.02,-0.265
2021-08-01 01:14:08.764,-0.015,-0.27
2021-08-01 01:14:08.768,-0.02,-0.285
2021-08-01 01:14:08.772,-0.035,-0.28
2021-08-01 01:14:08.776,-0.07,-0.285
2021-08-01 01:14:08.780,-0.045,-0.29
2021-08-01 01:14:08.784,-0.065,-0.28
2021-08-01 01:14:08.788,-0.06,-0.285
2021-08-01 01:14:08.792,-0.07,-0.295
2021-08-01 01:14:08.796,-0.06,-0.28
2021-08-01 01:14:08.800,-0.06,-0.27
2021-08-01 01:14:08.804,-0.055,-0.285
2021-08-01 01:14:08.808,-0.06,-0.28
2021-08-01 01:14:08.812,-0.07,-0.295
2021-08-01 01:14:08.816,-0.065,-0.3
2021-08-01 01:14:08.820,-0.055,-0.29
2021-08-01 01:14:08.824,-0.055,-0.31
2021-08-01 01:14:08.828,-0.06,-0.305
2021-08-01 01:14:08.832,-0.055,-0.225
2021-08-01 01:14:08.836,-0.025,-0.075
2021-08-01 01:14:08.840,-0.035,0.13
2021-08-01 01:14:08.844,0.0,0.32
2021-08-01 01:14:08.848,0.045,0.425
2021-08-01 01:14:08.852,0.13,0.49
2021-08-01 01:14:08.856,0.23,0.515
2021-08-01 01:14:08.860,0.21,0.38
2021-08-01 01:14:08.864,0.205,-0.045
2021-08-01 01:14:08.868,0.13,-0.455
2021-08-01 01:14:08.872,0.025,-0.675
2021-08-01 01:14:08.876,-0.165,-0.75
2021-08-01 01:14:08.880,-0.305,-0.74
2021-08-01 01:14:08.884,-0.38,-0.67
