Time,ECG1,ECG2
2021-08-01 01:38:53.668,0.06,-0.085
2021-08-01 01:38:53.672,0.055,-0.08
2021-08-01 01:38:53.676,0.055,-0.08
2021-08-01 01:38:53.680,0.04,-0.075
2021-08-01 01:38:53.684,0.05,-0.075
2021-08-01 01:38:53.688,0.055,-0.1
2021-08-01 01:38:53.692,0.04,-0.11
2021-08-01 01:38:53.696,0.045,-0.115
2021-08-01 01:38:53.700,0.065,-0.095
2021-08-01 01:38:53.704,0.05,-0.11
2021-08-01 01:38:53.708,0.05,-0.13
2021-08-01 01:38:53.712,0.07,-0.115
2021-08-01 01:38:53.716,0.035,-0.11
2021-08-01 01:38:53.720,0.05,-0.125
2021-08-01 01:38:53.724,0.04,-0.13
2021-08-01 01:38:53.728,0.04,-0.145
2021-08-01 01:38:53.732,0.03,-0.145
2021-08-01 01:38:53.736,0.06,-0.15
2021-08-01 01:38:53.740,0.045,-0.125
2021-08-01 01:38:53.744,0.045,-0.145
2021-08-01 01:38:53.748,0.04,-0.155
2021-08-01 01:38:53.752,0.045,-0.13
2021-08-01 01:38:53.756,0.03,-0.135
2021-08-01 01:38:53.760,0.065,-0.15
2021-08-01 01:38:53.764,0.05,-0.15
2021-08-01 01:38:53.768,0.025,-0.16
2021-08-01 01:38:53.772,0.04,-0.17
2021-08-01 01:38:53.776,0.03,-0.15
2021-08-01 01:38:53.780,0.03,-0.13
2021-08-01 01:38:53.784,0.035,-0.165
2021-08-01 01:38:53.788,0.035,-0.145
2021-08-01 01:38:53.792,0.035,-0.16
2021-08-01 01:38:53.796,0.045,-0.155
2021-08-01 01:38:53.800,0.04,-0.145
2021-08-01 01:38:53.804,0.04,-0.155
2021-08-01 01:38:53.808,0.025,-0.165
2021-08-01 01:38:53.812,0.025,-0.155
2021-08-01 01:38:53.816,0.05,-0.155
2021-08-01 01:38:53.820,0.04,-0.15
2021-08-01 01:38:53.824,0.04,-0.16
2021-08-01 01:38:53.828,0.05,-0.165
2021-08-01 01:38:53.832,0.05,-0.16
2021-08-01 01:38:53.836,0.05,-0.15
2021-08-01 01:38:53.840,0.04,-0.145
2021-08-01 01:38:53.844,0.05,-0.14
2021-08-01 01:38:53.848,0.045,-0.155
2021-08-01 01:38:53.852,0.03,-0.16
2021-08-01 01:38:53.856,0.045,-0.16
2021-08-01 01:38:53.860,0.045,-0.14
2021-08-01 01:38:53.864,0.04,-0.15
2021-08-01 01:38:53.868,0.04,-0.15
2021-08-01 01:38:53.872,0.055,-0.135
2021-08-01 01:38:53.876,0.03,-0.09
2021-08-01 01:38:53.880,0.045,-0.095
2021-08-01 01:38:53.884,0.06,-0.07
2021-08-01 01:38:53.888,0.1,-0.04
2021-08-01 01:38:53.892,0.1,-0.035
2021-08-01 01:38:53.896,0.115,-0.03
2021-08-01 01:38:53.900,0.12,-0.01
2021-08-01 01:38:53.904,0.12,0.02
2021-08-01 01:38:53.908,0.115,0.005
2021-08-01 01:38:53.912,0.13,-0.005
2021-08-01 01:38:53.916,0.095,-0.005
2021-08-01 01:38:53.920,0.075,-0.065
2021-08-01 01:38:53.924,0.085,-0.095
2021-08-01 01:38:53.928,0.05,-0.15
2021-08-01 01:38:53.932,0.015,-0.165
2021-08-01 01:38:53.936,0.02,-0.16
2021-08-01 01:38:53.940,0.025,-0.145
2021-08-01 01:38:53.944,-0.005,-0.12
2021-08-01 01:38:53.948,0.0,-0.135
2021-08-01 01:38:53.952,0.035,-0.14
2021-08-01 01:38:53.956,0.015,-0.15
2021-08-01 01:38:53.960,0.055,-0.175
2021-08-01 01:38:53.964,0.055,-0.195
2021-08-01 01:38:53.968,0.07,-0.22
2021-08-01 01:38:53.972,0.035,-0.23
2021-08-01 01:38:53.976,0.045,-0.225
2021-08-01 01:38:53.980,0.045,-0.25
2021-08-01 01:38:53.984,0.035,-0.23
2021-08-01 01:38:53.988,0.03,-0.255
2021-08-01 01:38:53.992,0.015,-0.25
2021-08-01 01:38:53.996,0.03,-0.26
2021-08-01 01:38:54.000,0.02,-0.24
2021-08-01 01:38:54.004,0.02,-0.255
2021-08-01 01:38:54.008,0.04,-0.255
2021-08-01 01:38:54.012,0.025,-0.25
2021-08-01 01:38:54.016,0.03,-0.25
2021-08-01 01:38:54.020,0.035,-0.24
2021-08-01 01:38:54.024,0.04,-0.24
2021-08-01 01:38:54.028,0.025,-0.245
2021-08-01 01:38:54.032,0.035,-0.235
2021-08-01 01:38:54.036,0.035,-0.245
2021-08-01 01:38:54.040,0.035,-0.235
2021-08-01 01:38:54.044,0.035,-0.25
2021-08-01 01:38:54.048,0.04,-0.19
2021-08-01 01:38:54.052,0.065,-0.055
2021-08-01 01:38:54.056,0.08,0.17
2021-08-01 01:38:54.060,0.095,0.435
2021-08-01 01:38:54.064,0.15,0.63
2021-08-01 01:38:54.068,0.24,0.685
2021-08-01 01:38:54.072,0.31,0.68
2021-08-01 01:38:54.076,0.315,0.54
2021-08-01 01:38:54.080,0.295,0.125
2021-08-01 01:38:54.084,0.255,-0.385
2021-08-01 01:38:54.088,0.15,-0.675
2021-08-01 01:38:54.092,-0.025,-0.785
2021-08-01 01:38:54.096,-0.205,-0.745
2021-08-01 01:38:54.100,-0.26,-0.66
2021-08-01 01:38:54.104,-0.28,-0.515
2021-08-01 01:38:54.108,-0.255,-0.425
2021-08-01 01:38:54.112,-0.195,-0.315
2021-08-01 01:38:54.116,-0.13,-0.265
2021-08-01 01:38:54.120,-0.05,-0.245
2021-08-01 01:38:54.124,0.0,-0.245
2021-08-01 01:38:54.128,0.025,-0.25
2021-08-01 01:38:54.132,0.03,-0.26
2021-08-01 01:38:54.136,0.03,-0.235
2021-08-01 01:38:54.140,0.02,-0.23
2021-08-01 01:38:54.144,0.035,-0.24
2021-08-01 01:38:54.148,0.025,-0.26
2021-08-01 01:38:54.152,0.04,-0.25
2021-08-01 01:38:54.156,0.025,-0.235
2021-08-01 01:38:54.160,0.03,-0.225
2021-08-01 01:38:54.164,0.04,-0.235
2021-08-01 01:38:54.168,0.035,-0.23
2021-08-01 01:38:54.172,0.05,-0.24
2021-08-01 01:38:54.176,0.03,-0.225
2021-08-01 01:38:54.180,0.025,-0.22
2021-08-01 01:38:54.184,0.045,-0.22
2021-08-01 01:38:54.188,0.035,-0.235
2021-08-01 01:38:54.192,0.04,-0.25
2021-08-01 01:38:54.196,0.04,-0.225
2021-08-01 01:38:54.200,0.045,-0.22
2021-08-01 01:38:54.204,0.04,-0.21
2021-08-01 01:38:54.208,0.04,-0.22
2021-08-01 01:38:54.212,0.025,-0.225
2021-08-01 01:38:54.216,0.015,-0.22
2021-08-01 01:38:54.220,0.01,-0.2
2021-08-01 01:38:54.224,0.04,-0.205
2021-08-01 01:38:54.228,0.025,-0.22
2021-08-01 01:38:54.232,0.02,-0.195
2021-08-01 01:38:54.236,0.02,-0.2
2021-08-01 01:38:54.240,0.02,-0.19
2021-08-01 01:38:54.244,0.03,-0.195
2021-08-01 01:38:54.248,0.015,-0.175
2021-08-01 01:38:54.252,0.015,-0.18
2021-08-01 01:38:54.256,0.03,-0.17
2021-08-01 01:38:54.260,0.0,-0.15
2021-08-01 01:38:54.264,0.01,-0.16
2021-08-01 01:38:54.268,0.035,-0.175
2021-08-01 01:38:54.272,0.03,-0.15
2021-08-01 01:38:54.276,0.015,-0.16
2021-08-01 01:38:54.280,0.03,-0.135
2021-08-01 01:38:54.284,0.025,-0.135
2021-08-01 01:38:54.288,0.025,-0.155
2021-08-01 01:38:54.292,0.04,-0.145
2021-08-01 01:38:54.296,0.045,-0.14
2021-08-01 01:38:54.300,0.045,-0.135
2021-08-01 01:38:54.304,0.035,-0.14
2021-08-01 01:38:54.308,0.035,-0.155
2021-08-01 01:38:54.312,0.025,-0.125
2021-08-01 01:38:54.316,0.035,-0.11
2021-08-01 01:38:54.320,0.035,-0.105
2021-08-01 01:38:54.324,0.025,-0.09
2021-08-01 01:38:54.328,0.035,-0.085
2021-08-01 01:38:54.332,0.035,-0.085
2021-08-01 01:38:54.336,0.035,-0.08
2021-08-01 01:38:54.340,0.045,-0.075
2021-08-01 01:38:54.344,0.045,-0.065
2021-08-01 01:38:54.348,0.04,-0.09
2021-08-01 01:38:54.352,0.055,-0.06
2021-08-01 01:38:54.356,0.055,-0.08
2021-08-01 01:38:54.360,0.07,-0.065
2021-08-01 01:38:54.364,0.04,-0.07
2021-08-01 01:38:54.368,0.045,-0.085
2021-08-01 01:38:54.372,0.07,-0.095
2021-08-01 01:38:54.376,0.04,-0.095
2021-08-01 01:38:54.380,0.03,-0.1
2021-08-01 01:38:54.384,0.03,-0.12
2021-08-01 01:38:54.388,0.04,-0.13
2021-08-01 01:38:54.392,0.03,-0.14
2021-08-01 01:38:54.396,0.03,-0.14
2021-08-01 01:38:54.400,0.04,-0.13
2021-08-01 01:38:54.404,0.04,-0.115
2021-08-01 01:38:54.408,0.025,-0.135
2021-08-01 01:38:54.412,0.035,-0.14
2021-08-01 01:38:54.416,0.04,-0.14
2021-08-01 01:38:54.420,0.04,-0.15
2021-08-01 01:38:54.424,0.035,-0.135
2021-08-01 01:38:54.428,0.04,-0.135
2021-08-01 01:38:54.432,0.035,-0.135
2021-08-01 01:38:54.436,0.035,-0.13
2021-08-01 01:38:54.440,0.04,-0.13
2021-08-01 01:38:54.444,0.045,-0.14
2021-08-01 01:38:54.448,0.02,-0.13
2021-08-01 01:38:54.452,0.02,-0.14
2021-08-01 01:38:54.456,0.025,-0.145
2021-08-01 01:38:54.460,0.03,-0.125
2021-08-01 01:38:54.464,0.035,-0.115
2021-08-01 01:38:54.468,0.02,-0.115
2021-08-01 01:38:54.472,0.03,-0.125
2021-08-01 01:38:54.476,0.02,-0.135
2021-08-01 01:38:54.480,0.035,-0.125
2021-08-01 01:38:54.484,0.055,-0.135
2021-08-01 01:38:54.488,0.04,-0.13
2021-08-01 01:38:54.492,0.04,-0.135
2021-08-01 01:38:54.496,0.055,-0.135
2021-08-01 01:38:54.500,0.045,-0.13
2021-08-01 01:38:54.504,0.04,-0.14
2021-08-01 01:38:54.508,0.03,-0.13
2021-08-01 01:38:54.512,0.02,-0.14
2021-08-01 01:38:54.516,0.045,-0.145
2021-08-01 01:38:54.520,0.025,-0.145
2021-08-01 01:38:54.524,0.035,-0.165
2021-08-01 01:38:54.528,0.035,-0.16
2021-08-01 01:38:54.532,0.025,-0.155
2021-08-01 01:38:54.536,0.035,-0.16
2021-08-01 01:38:54.540,0.025,-0.16
2021-08-01 01:38:54.544,0.045,-0.155
2021-08-01 01:38:54.548,0.025,-0.165
2021-08-01 01:38:54.552,0.025,-0.18
2021-08-01 01:38:54.556,0.015,-0.18
2021-08-01 01:38:54.560,0.02,-0.15
2021-08-01 01:38:54.564,0.03,-0.165
2021-08-01 01:38:54.568,0.03,-0.16
2021-08-01 01:38:54.572,0.035,-0.16
2021-08-01 01:38:54.576,0.025,-0.17
2021-08-01 01:38:54.580,0.025,-0.175
2021-08-01 01:38:54.584,0.03,-0.17
2021-08-01 01:38:54.588,0.035,-0.17
2021-08-01 01:38:54.592,0.02,-0.19
2021-08-01 01:38:54.596,0.025,-0.185
2021-08-01 01:38:54.600,0.035,-0.175
2021-08-01 01:38:54.604,0.015,-0.17
2021-08-01 01:38:54.608,0.03,-0.17
2021-08-01 01:38:54.612,0.025,-0.165
2021-08-01 01:38:54.616,0.025,-0.165
2021-08-01 01:38:54.620,0.02,-0.15
2021-08-01 01:38:54.624,0.03,-0.13
2021-08-01 01:38:54.628,0.025,-0.1
2021-08-01 01:38:54.632,0.035,-0.095
2021-08-01 01:38:54.636,0.05,-0.055
2021-08-01 01:38:54.640,0.05,-0.025
2021-08-01 01:38:54.644,0.07,-0.045
2021-08-01 01:38:54.648,0.095,-0.04
2021-08-01 01:38:54.652,0.1,-0.015
2021-08-01 01:38:54.656,0.09,0.005
2021-08-01 01:38:54.660,0.105,0.01
2021-08-01 01:38:54.664,0.075,-0.015
2021-08-01 01:38:54.668,0.065,-0.045
2021-08-01 01:38:54.672,0.045,-0.095
2021-08-01 01:38:54.676,0.035,-0.14
2021-08-01 01:38:54.680,0.01,-0.175
2021-08-01 01:38:54.684,-0.015,-0.155
2021-08-01 01:38:54.688,-0.015,-0.155
2021-08-01 01:38:54.692,-0.015,-0.16
2021-08-01 01:38:54.696,-0.025,-0.16
2021-08-01 01:38:54.700,0.0,-0.17
2021-08-01 01:38:54.704,0.025,-0.165
2021-08-01 01:38:54.708,0.025,-0.185
2021-08-01 01:38:54.712,0.03,-0.23
2021-08-01 01:38:54.716,0.03,-0.23
2021-08-01 01:38:54.720,0.045,-0.24
2021-08-01 01:38:54.724,0.045,-0.25
2021-08-01 01:38:54.728,0.03,-0.265
2021-08-01 01:38:54.732,0.025,-0.275
2021-08-01 01:38:54.736,0.015,-0.275
2021-08-01 01:38:54.740,-0.005,-0.285
2021-08-01 01:38:54.744,0.01,-0.28
2021-08-01 01:38:54.748,0.005,-0.27
2021-08-01 01:38:54.752,0.01,-0.295
2021-08-01 01:38:54.756,0.015,-0.28
2021-08-01 01:38:54.760,0.01,-0.27
2021-08-01 01:38:54.764,0.01,-0.26
2021-08-01 01:38:54.768,-0.01,-0.265
2021-08-01 01:38:54.772,0.01,-0.27
2021-08-01 01:38:54.776,0.015,-0.27
2021-08-01 01:38:54.780,0.0,-0.275
2021-08-01 01:38:54.784,0.0,-0.28
2021-08-01 01:38:54.788,0.01,-0.275
2021-08-01 01:38:54.792,0.01,-0.28
2021-08-01 01:38:54.796,0.035,-0.22
2021-08-01 01:38:54.800,0.03,-0.045
2021-08-01 01:38:54.804,0.065,0.175
2021-08-01 01:38:54.808,0.105,0.405
2021-08-01 01:38:54.812,0.14,0.58
2021-08-01 01:38:54.816,0.205,0.625
2021-08-01 01:38:54.820,0.29,0.6
2021-08-01 01:38:54.824,0.31,0.42
2021-08-01 01:38:54.828,0.225,-0.065
2021-08-01 01:38:54.832,0.19,-0.53
2021-08-01 01:38:54.836,0.055,-0.75
2021-08-01 01:38:54.840,-0.13,-0.805
2021-08-01 01:38:54.844,-0.26,-0.745
2021-08-01 01:38:54.848,-0.3,-0.635
2021-08-01 01:38:54.852,-0.3,-0.5
2021-08-01 01:38:54.856,-0.27,-0.395
2021-08-01 01:38:54.860,-0.175,-0.305
2021-08-01 01:38:54.864,-0.085,-0.265
2021-08-01 01:38:54.868,-0.035,-0.25
2021-08-01 01:38:54.872,0.015,-0.285
2021-08-01 01:38:54.876,0.025,-0.29
2021-08-01 01:38:54.880,0.035,-0.275
2021-08-01 01:38:54.884,0.025,-0.255
2021-08-01 01:38:54.888,0.045,-0.275
2021-08-01 01:38:54.892,0.035,-0.255
2021-08-01 01:38:54.896,0.03,-0.26
2021-08-01 01:38:54.900,0.01,-0.245
2021-08-01 01:38:54.904,0.045,-0.25
2021-08-01 01:38:54.908,0.015,-0.245
2021-08-01 01:38:54.912,0.045,-0.255
2021-08-01 01:38:54.916,0.035,-0.25
2021-08-01 01:38:54.920,0.03,-0.245
2021-08-01 01:38:54.924,0.015,-0.23
2021-08-01 01:38:54.928,0.02,-0.25
2021-08-01 01:38:54.932,0.025,-0.25
2021-08-01 01:38:54.936,0.03,-0.23
2021-08-01 01:38:54.940,0.015,-0.23
2021-08-01 01:38:54.944,0.02,-0.215
2021-08-01 01:38:54.948,0.04,-0.235
2021-08-01 01:38:54.952,0.02,-0.23
2021-08-01 01:38:54.956,0.035,-0.22
2021-08-01 01:38:54.960,0.04,-0.22
2021-08-01 01:38:54.964,0.045,-0.2
2021-08-01 01:38:54.968,0.035,-0.22
2021-08-01 01:38:54.972,0.03,-0.215
2021-08-01 01:38:54.976,0.045,-0.215
2021-08-01 01:38:54.980,0.03,-0.18
2021-08-01 01:38:54.984,0.05,-0.185
2021-08-01 01:38:54.988,0.05,-0.185
2021-08-01 01:38:54.992,0.035,-0.165
2021-08-01 01:38:54.996,0.035,-0.17
2021-08-01 01:38:55.000,0.04,-0.155
2021-08-01 01:38:55.004,0.04,-0.14
2021-08-01 01:38:55.008,0.045,-0.15
2021-08-01 01:38:55.012,0.05,-0.145
2021-08-01 01:38:55.016,0.045,-0.135
2021-08-01 01:38:55.020,0.055,-0.11
2021-08-01 01:38:55.024,0.055,-0.12
2021-08-01 01:38:55.028,0.05,-0.105
2021-08-01 01:38:55.032,0.055,-0.125
2021-08-01 01:38:55.036,0.06,-0.115
2021-08-01 01:38:55.040,0.05,-0.115
2021-08-01 01:38:55.044,0.065,-0.1
2021-08-01 01:38:55.048,0.05,-0.09
2021-08-01 01:38:55.052,0.045,-0.085
2021-08-01 01:38:55.056,0.045,-0.095
2021-08-01 01:38:55.060,0.045,-0.075
2021-08-01 01:38:55.064,0.055,-0.065
2021-08-01 01:38:55.068,0.065,-0.045
2021-08-01 01:38:55.072,0.05,-0.055
2021-08-01 01:38:55.076,0.06,-0.05
2021-08-01 01:38:55.080,0.05,-0.055
2021-08-01 01:38:55.084,0.065,-0.055
2021-08-01 01:38:55.088,0.05,-0.04
2021-08-01 01:38:55.092,0.04,-0.04
2021-08-01 01:38:55.096,0.05,-0.06
2021-08-01 01:38:55.100,0.045,-0.05
2021-08-01 01:38:55.104,0.07,-0.055
2021-08-01 01:38:55.108,0.065,-0.06
2021-08-01 01:38:55.112,0.065,-0.08
2021-08-01 01:38:55.116,0.065,-0.085
2021-08-01 01:38:55.120,0.075,-0.095
2021-08-01 01:38:55.124,0.065,-0.095
2021-08-01 01:38:55.128,0.065,-0.12
2021-08-01 01:38:55.132,0.065,-0.12
2021-08-01 01:38:55.136,0.075,-0.125
2021-08-01 01:38:55.140,0.055,-0.12
2021-08-01 01:38:55.144,0.065,-0.11
2021-08-01 01:38:55.148,0.06,-0.1
2021-08-01 01:38:55.152,0.065,-0.12
2021-08-01 01:38:55.156,0.06,-0.12
2021-08-01 01:38:55.160,0.055,-0.13
2021-08-01 01:38:55.164,0.065,-0.13
2021-08-01 01:38:55.168,0.065,-0.115
2021-08-01 01:38:55.172,0.05,-0.12
2021-08-01 01:38:55.176,0.06,-0.13
2021-08-01 01:38:55.180,0.06,-0.1
2021-08-01 01:38:55.184,0.065,-0.11
2021-08-01 01:38:55.188,0.05,-0.11
2021-08-01 01:38:55.192,0.045,-0.105
2021-08-01 01:38:55.196,0.05,-0.1
2021-08-01 01:38:55.200,0.035,-0.105
2021-08-01 01:38:55.204,0.035,-0.1
2021-08-01 01:38:55.208,0.055,-0.115
2021-08-01 01:38:55.212,0.06,-0.115
2021-08-01 01:38:55.216,0.055,-0.115
2021-08-01 01:38:55.220,0.07,-0.1
2021-08-01 01:38:55.224,0.045,-0.09
2021-08-01 01:38:55.228,0.055,-0.085
2021-08-01 01:38:55.232,0.055,-0.105
2021-08-01 01:38:55.236,0.045,-0.115
2021-08-01 01:38:55.240,0.05,-0.115
2021-08-01 01:38:55.244,0.04,-0.12
2021-08-01 01:38:55.248,0.06,-0.11
2021-08-01 01:38:55.252,0.045,-0.105
2021-08-01 01:38:55.256,0.03,-0.13
2021-08-01 01:38:55.260,0.04,-0.145
2021-08-01 01:38:55.264,0.03,-0.12
2021-08-01 01:38:55.268,0.04,-0.105
2021-08-01 01:38:55.272,0.045,-0.12
2021-08-01 01:38:55.276,0.03,-0.12
2021-08-01 01:38:55.280,0.035,-0.11
2021-08-01 01:38:55.284,0.025,-0.105
2021-08-01 01:38:55.288,0.025,-0.135
2021-08-01 01:38:55.292,0.035,-0.14
2021-08-01 01:38:55.296,0.04,-0.13
2021-08-01 01:38:55.300,0.035,-0.135
2021-08-01 01:38:55.304,0.01,-0.14
2021-08-01 01:38:55.308,0.02,-0.13
2021-08-01 01:38:55.312,0.015,-0.15
2021-08-01 01:38:55.316,0.02,-0.145
2021-08-01 01:38:55.320,0.015,-0.12
2021-08-01 01:38:55.324,0.03,-0.115
2021-08-01 01:38:55.328,0.01,-0.12
2021-08-01 01:38:55.332,0.03,-0.125
2021-08-01 01:38:55.336,0.02,-0.145
2021-08-01 01:38:55.340,0.015,-0.15
2021-08-01 01:38:55.344,0.03,-0.145
2021-08-01 01:38:55.348,0.02,-0.13
2021-08-01 01:38:55.352,0.02,-0.11
2021-08-01 01:38:55.356,0.005,-0.06
2021-08-01 01:38:55.360,0.02,-0.04
2021-08-01 01:38:55.364,0.05,-0.025
2021-08-01 01:38:55.368,0.065,-0.02
2021-08-01 01:38:55.372,0.065,-0.015
2021-08-01 01:38:55.376,0.075,0.005
2021-08-01 01:38:55.380,0.09,0.02
2021-08-01 01:38:55.384,0.095,0.025
2021-08-01 01:38:55.388,0.09,0.03
2021-08-01 01:38:55.392,0.065,0.0
2021-08-01 01:38:55.396,0.05,-0.035
2021-08-01 01:38:55.400,0.025,-0.075
2021-08-01 01:38:55.404,0.01,-0.12
2021-08-01 01:38:55.408,-0.005,-0.155
2021-08-01 01:38:55.412,-0.035,-0.16
2021-08-01 01:38:55.416,-0.04,-0.155
2021-08-01 01:38:55.420,-0.045,-0.125
2021-08-01 01:38:55.424,-0.035,-0.125
2021-08-01 01:38:55.428,-0.02,-0.14
2021-08-01 01:38:55.432,-0.01,-0.17
2021-08-01 01:38:55.436,-0.01,-0.2
2021-08-01 01:38:55.440,0.005,-0.195
2021-08-01 01:38:55.444,0.0,-0.215
2021-08-01 01:38:55.448,0.015,-0.235
2021-08-01 01:38:55.452,0.01,-0.245
2021-08-01 01:38:55.456,0.005,-0.265
2021-08-01 01:38:55.460,0.0,-0.245
2021-08-01 01:38:55.464,-0.01,-0.245
2021-08-01 01:38:55.468,-0.015,-0.27
2021-08-01 01:38:55.472,-0.02,-0.27
2021-08-01 01:38:55.476,-0.01,-0.28
2021-08-01 01:38:55.480,-0.015,-0.265
2021-08-01 01:38:55.484,-0.015,-0.245
2021-08-01 01:38:55.488,-0.02,-0.26
2021-08-01 01:38:55.492,-0.01,-0.25
2021-08-01 01:38:55.496,-0.015,-0.26
2021-08-01 01:38:55.500,-0.005,-0.265
2021-08-01 01:38:55.504,-0.005,-0.27
2021-08-01 01:38:55.508,-0.005,-0.29
2021-08-01 01:38:55.512,-0.01,-0.28
2021-08-01 01:38:55.516,-0.025,-0.295
2021-08-01 01:38:55.520,-0.025,-0.27
2021-08-01 01:38:55.524,-0.005,-0.185
2021-08-01 01:38:55.528,0.02,-0.025
2021-08-01 01:38:55.532,0.02,0.2
2021-08-01 01:38:55.536,0.045,0.435
2021-08-01 01:38:55.540,0.105,0.58
2021-08-01 01:38:55.544,0.185,0.625
2021-08-01 01:38:55.548,0.265,0.59
2021-08-01 01:38:55.552,0.27,0.4
2021-08-01 01:38:55.556,0.235,-0.07
2021-08-01 01:38:55.560,0.215,-0.53
2021-08-01 01:38:55.564,0.1,-0.75
2021-08-01 01:38:55.568,-0.08,-0.82
2021-08-01 01:38:55.572,-0.23,-0.815
2021-08-01 01:38:55.576,-0.31,-0.715
2021-08-01 01:38:55.580,-0.32,-0.58
2021-08-01 01:38:55.584,-0.29,-0.47
2021-08-01 01:38:55.588,-0.22,-0.37
2021-08-01 01:38:55.592,-0.165,-0.295
2021-08-01 01:38:55.596,-0.1,-0.28
2021-08-01 01:38:55.600,-0.035,-0.285
2021-08-01 01:38:55.604,-0.005,-0.29
2021-08-01 01:38:55.608,0.005,-0.26
2021-08-01 01:38:55.612,-0.01,-0.275
2021-08-01 01:38:55.616,-0.01,-0.29
2021-08-01 01:38:55.620,-0.01,-0.27
2021-08-01 01:38:55.624,-0.035,-0.27
2021-08-01 01:38:55.628,-0.005,-0.265
2021-08-01 01:38:55.632,-0.01,-0.27
2021-08-01 01:38:55.636,-0.02,-0.285
2021-08-01 01:38:55.640,0.0,-0.275
2021-08-01 01:38:55.644,0.005,-0.265
2021-08-01 01:38:55.648,-0.005,-0.25
2021-08-01 01:38:55.652,-0.02,-0.26
2021-08-01 01:38:55.656,0.0,-0.26
2021-08-01 01:38:55.660,-0.005,-0.26
2021-08-01 01:38:55.664,-0.005,-0.255
2021-08-01 01:38:55.668,0.0,-0.275
2021-08-01 01:38:55.672,-0.025,-0.265
2021-08-01 01:38:55.676,-0.005,-0.265
2021-08-01 01:38:55.680,-0.01,-0.25
2021-08-01 01:38:55.684,-0.01,-0.24
2021-08-01 01:38:55.688,-0.015,-0.23
2021-08-01 01:38:55.692,-0.025,-0.245
2021-08-01 01:38:55.696,-0.01,-0.255
2021-08-01 01:38:55.700,-0.005,-0.245
2021-08-01 01:38:55.704,-0.01,-0.255
2021-08-01 01:38:55.708,-0.01,-0.22
2021-08-01 01:38:55.712,-0.02,-0.22
2021-08-01 01:38:55.716,0.0,-0.215
2021-08-01 01:38:55.720,-0.015,-0.205
2021-08-01 01:38:55.724,0.0,-0.19
2021-08-01 01:38:55.728,-0.015,-0.185
2021-08-01 01:38:55.732,-0.01,-0.19
2021-08-01 01:38:55.736,-0.015,-0.215
2021-08-01 01:38:55.740,-0.015,-0.2
2021-08-01 01:38:55.744,-0.025,-0.175
2021-08-01 01:38:55.748,-0.005,-0.17
2021-08-01 01:38:55.752,-0.005,-0.14
2021-08-01 01:38:55.756,-0.01,-0.14
2021-08-01 01:38:55.760,-0.01,-0.125
2021-08-01 01:38:55.764,0.005,-0.13
2021-08-01 01:38:55.768,0.005,-0.135
2021-08-01 01:38:55.772,-0.005,-0.13
2021-08-01 01:38:55.776,-0.005,-0.13
2021-08-01 01:38:55.780,0.0,-0.115
2021-08-01 01:38:55.784,-0.005,-0.075
2021-08-01 01:38:55.788,-0.005,-0.095
2021-08-01 01:38:55.792,-0.005,-0.08
2021-08-01 01:38:55.796,0.0,-0.075
2021-08-01 01:38:55.800,0.0,-0.065
2021-08-01 01:38:55.804,0.005,-0.045
2021-08-01 01:38:55.808,0.015,-0.035
2021-08-01 01:38:55.812,0.03,-0.03
2021-08-01 01:38:55.816,0.015,-0.04
2021-08-01 01:38:55.820,0.03,-0.035
2021-08-01 01:38:55.824,0.02,-0.04
2021-08-01 01:38:55.828,0.03,-0.04
2021-08-01 01:38:55.832,0.015,-0.07
2021-08-01 01:38:55.836,0.035,-0.045
2021-08-01 01:38:55.840,0.03,-0.075
2021-08-01 01:38:55.844,0.04,-0.085
2021-08-01 01:38:55.848,0.015,-0.08
2021-08-01 01:38:55.852,0.03,-0.105
2021-08-01 01:38:55.856,0.035,-0.115
2021-08-01 01:38:55.860,0.035,-0.11
2021-08-01 01:38:55.864,0.035,-0.12
2021-08-01 01:38:55.868,0.05,-0.12
2021-08-01 01:38:55.872,0.025,-0.125
2021-08-01 01:38:55.876,0.045,-0.105
2021-08-01 01:38:55.880,0.04,-0.115
2021-08-01 01:38:55.884,0.035,-0.125
2021-08-01 01:38:55.888,0.025,-0.12
2021-08-01 01:38:55.892,0.035,-0.115
2021-08-01 01:38:55.896,0.03,-0.125
2021-08-01 01:38:55.900,0.045,-0.115
2021-08-01 01:38:55.904,0.04,-0.105
2021-08-01 01:38:55.908,0.03,-0.105
2021-08-01 01:38:55.912,0.045,-0.1
2021-08-01 01:38:55.916,0.04,-0.105
2021-08-01 01:38:55.920,0.035,-0.1
2021-08-01 01:38:55.924,0.045,-0.095
2021-08-01 01:38:55.928,0.05,-0.11
2021-08-01 01:38:55.932,0.055,-0.105
2021-08-01 01:38:55.936,0.035,-0.1
2021-08-01 01:38:55.940,0.035,-0.095
2021-08-01 01:38:55.944,0.035,-0.105
2021-08-01 01:38:55.948,0.035,-0.095
2021-08-01 01:38:55.952,0.035,-0.115
2021-08-01 01:38:55.956,0.045,-0.105
2021-08-01 01:38:55.960,0.04,-0.1
2021-08-01 01:38:55.964,0.04,-0.1
2021-08-01 01:38:55.968,0.035,-0.1
2021-08-01 01:38:55.972,0.05,-0.09
2021-08-01 01:38:55.976,0.045,-0.1
2021-08-01 01:38:55.980,0.05,-0.11
2021-08-01 01:38:55.984,0.05,-0.1
2021-08-01 01:38:55.988,0.035,-0.1
2021-08-01 01:38:55.992,0.025,-0.115
2021-08-01 01:38:55.996,0.05,-0.115
2021-08-01 01:38:56.000,0.035,-0.11
2021-08-01 01:38:56.004,0.025,-0.1
2021-08-01 01:38:56.008,0.045,-0.12
2021-08-01 01:38:56.012,0.055,-0.12
2021-08-01 01:38:56.016,0.03,-0.13
2021-08-01 01:38:56.020,0.045,-0.125
2021-08-01 01:38:56.024,0.045,-0.125
2021-08-01 01:38:56.028,0.04,-0.13
2021-08-01 01:38:56.032,0.03,-0.135
2021-08-01 01:38:56.036,0.04,-0.14
2021-08-01 01:38:56.040,0.04,-0.12
2021-08-01 01:38:56.044,0.035,-0.13
2021-08-01 01:38:56.048,0.035,-0.145
2021-08-01 01:38:56.052,0.035,-0.13
2021-08-01 01:38:56.056,0.04,-0.135
2021-08-01 01:38:56.060,0.02,-0.12
2021-08-01 01:38:56.064,0.03,-0.115
2021-08-01 01:38:56.068,0.025,-0.085
2021-08-01 01:38:56.072,0.03,-0.05
2021-08-01 01:38:56.076,0.045,-0.04
2021-08-01 01:38:56.080,0.07,-0.005
2021-08-01 01:38:56.084,0.065,0.005
2021-08-01 01:38:56.088,0.08,0.005
2021-08-01 01:38:56.092,0.12,0.025
2021-08-01 01:38:56.096,0.11,0.025
2021-08-01 01:38:56.100,0.105,0.055
2021-08-01 01:38:56.104,0.095,0.035
2021-08-01 01:38:56.108,0.085,0.005
2021-08-01 01:38:56.112,0.07,-0.03
2021-08-01 01:38:56.116,0.055,-0.075
2021-08-01 01:38:56.120,0.015,-0.125
2021-08-01 01:38:56.124,0.005,-0.13
2021-08-01 01:38:56.128,-0.01,-0.13
2021-08-01 01:38:56.132,0.0,-0.15
2021-08-01 01:38:56.136,-0.005,-0.145
2021-08-01 01:38:56.140,-0.02,-0.14
2021-08-01 01:38:56.144,0.0,-0.14
2021-08-01 01:38:56.148,0.01,-0.16
2021-08-01 01:38:56.152,0.01,-0.17
2021-08-01 01:38:56.156,0.02,-0.2
2021-08-01 01:38:56.160,0.025,-0.2
2021-08-01 01:38:56.164,0.03,-0.22
2021-08-01 01:38:56.168,0.02,-0.235
2021-08-01 01:38:56.172,0.03,-0.25
2021-08-01 01:38:56.176,0.015,-0.245
2021-08-01 01:38:56.180,0.01,-0.26
2021-08-01 01:38:56.184,0.0,-0.25
2021-08-01 01:38:56.188,0.01,-0.235
2021-08-01 01:38:56.192,0.0,-0.255
2021-08-01 01:38:56.196,0.005,-0.26
2021-08-01 01:38:56.200,-0.005,-0.255
2021-08-01 01:38:56.204,0.01,-0.25
2021-08-01 01:38:56.208,0.005,-0.26
2021-08-01 01:38:56.212,0.005,-0.265
2021-08-01 01:38:56.216,0.01,-0.255
2021-08-01 01:38:56.220,0.0,-0.24
2021-08-01 01:38:56.224,0.0,-0.25
2021-08-01 01:38:56.228,0.02,-0.265
2021-08-01 01:38:56.232,0.01,-0.275
2021-08-01 01:38:56.236,0.01,-0.245
2021-08-01 01:38:56.240,0.02,-0.145
2021-08-01 01:38:56.244,0.03,0.06
2021-08-01 01:38:56.248,0.03,0.29
2021-08-01 01:38:56.252,0.08,0.51
2021-08-01 01:38:56.256,0.155,0.625
2021-08-01 01:38:56.260,0.245,0.66
2021-08-01 01:38:56.264,0.29,0.615
2021-08-01 01:38:56.268,0.31,0.335
2021-08-01 01:38:56.272,0.27,-0.19
2021-08-01 01:38:56.276,0.21,-0.59
2021-08-01 01:38:56.280,0.075,-0.775
2021-08-01 01:38:56.284,-0.125,-0.8
2021-08-01 01:38:56.288,-0.25,-0.75
2021-08-01 01:38:56.292,-0.305,-0.65
2021-08-01 01:38:56.296,-0.28,-0.525
2021-08-01 01:38:56.300,-0.24,-0.41
2021-08-01 01:38:56.304,-0.19,-0.325
2021-08-01 01:38:56.308,-0.1,-0.285
2021-08-01 01:38:56.312,-0.05,-0.275
2021-08-01 01:38:56.316,-0.01,-0.275
2021-08-01 01:38:56.320,0.0,-0.27
2021-08-01 01:38:56.324,0.015,-0.275
2021-08-01 01:38:56.328,0.01,-0.265
2021-08-01 01:38:56.332,0.01,-0.27
2021-08-01 01:38:56.336,0.01,-0.27
2021-08-01 01:38:56.340,0.005,-0.275
2021-08-01 01:38:56.344,0.0,-0.275
2021-08-01 01:38:56.348,0.005,-0.285
2021-08-01 01:38:56.352,0.005,-0.27
2021-08-01 01:38:56.356,0.0,-0.26
2021-08-01 01:38:56.360,0.0,-0.275
2021-08-01 01:38:56.364,0.0,-0.265
2021-08-01 01:38:56.368,-0.01,-0.25
2021-08-01 01:38:56.372,0.01,-0.255
2021-08-01 01:38:56.376,0.0,-0.28
2021-08-01 01:38:56.380,-0.02,-0.265
2021-08-01 01:38:56.384,-0.01,-0.25
2021-08-01 01:38:56.388,0.0,-0.255
2021-08-01 01:38:56.392,-0.01,-0.25
2021-08-01 01:38:56.396,-0.005,-0.265
2021-08-01 01:38:56.400,0.0,-0.27
2021-08-01 01:38:56.404,0.005,-0.255
2021-08-01 01:38:56.408,0.0,-0.24
2021-08-01 01:38:56.412,-0.01,-0.245
2021-08-01 01:38:56.416,-0.015,-0.265
2021-08-01 01:38:56.420,-0.02,-0.23
2021-08-01 01:38:56.424,-0.02,-0.23
2021-08-01 01:38:56.428,-0.015,-0.235
2021-08-01 01:38:56.432,-0.01,-0.225
2021-08-01 01:38:56.436,-0.02,-0.225
2021-08-01 01:38:56.440,-0.015,-0.21
2021-08-01 01:38:56.444,0.005,-0.2
2021-08-01 01:38:56.448,-0.01,-0.195
2021-08-01 01:38:56.452,-0.015,-0.2
2021-08-01 01:38:56.456,-0.01,-0.18
2021-08-01 01:38:56.460,0.01,-0.175
2021-08-01 01:38:56.464,-0.015,-0.15
2021-08-01 01:38:56.468,0.005,-0.155
2021-08-01 01:38:56.472,0.0,-0.155
2021-08-01 01:38:56.476,0.0,-0.14
2021-08-01 01:38:56.480,0.005,-0.145
2021-08-01 01:38:56.484,0.01,-0.14
2021-08-01 01:38:56.488,0.01,-0.125
2021-08-01 01:38:56.492,0.0,-0.125
2021-08-01 01:38:56.496,0.015,-0.145
2021-08-01 01:38:56.500,0.01,-0.125
2021-08-01 01:38:56.504,0.02,-0.09
2021-08-01 01:38:56.508,0.015,-0.105
2021-08-01 01:38:56.512,0.0,-0.1
2021-08-01 01:38:56.516,0.04,-0.095
2021-08-01 01:38:56.520,0.01,-0.07
2021-08-01 01:38:56.524,0.01,-0.085
2021-08-01 01:38:56.528,0.03,-0.08
2021-08-01 01:38:56.532,0.035,-0.07
2021-08-01 01:38:56.536,0.025,-0.08
2021-08-01 01:38:56.540,0.025,-0.09
2021-08-01 01:38:56.544,0.02,-0.095
2021-08-01 01:38:56.548,0.03,-0.095
2021-08-01 01:38:56.552,0.02,-0.125
2021-08-01 01:38:56.556,0.03,-0.125
2021-08-01 01:38:56.560,0.01,-0.13
2021-08-01 01:38:56.564,0.04,-0.14
2021-08-01 01:38:56.568,0.045,-0.15
2021-08-01 01:38:56.572,0.02,-0.16
2021-08-01 01:38:56.576,0.025,-0.165
2021-08-01 01:38:56.580,0.03,-0.17
2021-08-01 01:38:56.584,0.03,-0.16
2021-08-01 01:38:56.588,0.025,-0.16
2021-08-01 01:38:56.592,0.04,-0.17
2021-08-01 01:38:56.596,0.025,-0.18
2021-08-01 01:38:56.600,0.02,-0.175
2021-08-01 01:38:56.604,0.025,-0.175
2021-08-01 01:38:56.608,0.01,-0.16
2021-08-01 01:38:56.612,0.025,-0.17
2021-08-01 01:38:56.616,0.02,-0.17
2021-08-01 01:38:56.620,0.035,-0.175
2021-08-01 01:38:56.624,0.045,-0.16
2021-08-01 01:38:56.628,0.025,-0.16
2021-08-01 01:38:56.632,0.035,-0.16
2021-08-01 01:38:56.636,0.03,-0.185
2021-08-01 01:38:56.640,0.035,-0.16
2021-08-01 01:38:56.644,0.025,-0.16
2021-08-01 01:38:56.648,0.015,-0.155
2021-08-01 01:38:56.652,0.015,-0.16
2021-08-01 01:38:56.656,0.02,-0.16
2021-08-01 01:38:56.660,0.005,-0.165
2021-08-01 01:38:56.664,0.03,-0.16
2021-08-01 01:38:56.668,0.015,-0.15
2021-08-01 01:38:56.672,0.03,-0.16
2021-08-01 01:38:56.676,0.01,-0.155
2021-08-01 01:38:56.680,0.035,-0.17
2021-08-01 01:38:56.684,0.025,-0.15
2021-08-01 01:38:56.688,0.015,-0.145
2021-08-01 01:38:56.692,0.015,-0.16
2021-08-01 01:38:56.696,0.03,-0.16
2021-08-01 01:38:56.700,0.02,-0.175
2021-08-01 01:38:56.704,0.025,-0.17
2021-08-01 01:38:56.708,0.035,-0.17
2021-08-01 01:38:56.712,0.025,-0.165
2021-08-01 01:38:56.716,0.025,-0.17
2021-08-01 01:38:56.720,0.03,-0.175
2021-08-01 01:38:56.724,0.02,-0.175
2021-08-01 01:38:56.728,0.015,-0.16
2021-08-01 01:38:56.732,0.02,-0.17
2021-08-01 01:38:56.736,0.02,-0.18
2021-08-01 01:38:56.740,-0.005,-0.185
2021-08-01 01:38:56.744,0.0,-0.18
2021-08-01 01:38:56.748,0.02,-0.185
2021-08-01 01:38:56.752,0.025,-0.18
2021-08-01 01:38:56.756,0.01,-0.195
2021-08-01 01:38:56.760,0.01,-0.19
2021-08-01 01:38:56.764,0.02,-0.18
2021-08-01 01:38:56.768,0.025,-0.18
2021-08-01 01:38:56.772,0.02,-0.18
2021-08-01 01:38:56.776,0.03,-0.165
2021-08-01 01:38:56.780,0.02,-0.13
2021-08-01 01:38:56.784,0.04,-0.125
2021-08-01 01:38:56.788,0.04,-0.095
2021-08-01 01:38:56.792,0.035,-0.07
2021-08-01 01:38:56.796,0.05,-0.06
2021-08-01 01:38:56.800,0.07,-0.06
2021-08-01 01:38:56.804,0.075,-0.05
2021-08-01 01:38:56.808,0.095,-0.025
2021-08-01 01:38:56.812,0.1,-0.01
2021-08-01 01:38:56.816,0.085,-0.02
2021-08-01 01:38:56.820,0.09,-0.05
2021-08-01 01:38:56.824,0.055,-0.075
2021-08-01 01:38:56.828,0.035,-0.125
2021-08-01 01:38:56.832,0.0,-0.16
2021-08-01 01:38:56.836,-0.015,-0.21
2021-08-01 01:38:56.840,-0.015,-0.195
2021-08-01 01:38:56.844,-0.03,-0.18
2021-08-01 01:38:56.848,-0.025,-0.17
2021-08-01 01:38:56.852,-0.015,-0.18
2021-08-01 01:38:56.856,-0.02,-0.19
2021-08-01 01:38:56.860,0.005,-0.205
2021-08-01 01:38:56.864,0.02,-0.225
2021-08-01 01:38:56.868,0.01,-0.245
2021-08-01 01:38:56.872,0.01,-0.255
2021-08-01 01:38:56.876,0.005,-0.265
2021-08-01 01:38:56.880,0.015,-0.28
2021-08-01 01:38:56.884,0.02,-0.275
2021-08-01 01:38:56.888,0.0,-0.285
2021-08-01 01:38:56.892,0.005,-0.305
2021-08-01 01:38:56.896,0.0,-0.295
2021-08-01 01:38:56.900,0.0,-0.3
2021-08-01 01:38:56.904,0.005,-0.3
2021-08-01 01:38:56.908,-0.005,-0.26
2021-08-01 01:38:56.912,0.0,-0.265
2021-08-01 01:38:56.916,0.005,-0.28
2021-08-01 01:38:56.920,0.005,-0.295
2021-08-01 01:38:56.924,0.02,-0.275
2021-08-01 01:38:56.928,0.03,-0.285
2021-08-01 01:38:56.932,0.01,-0.29
2021-08-01 01:38:56.936,0.02,-0.305
2021-08-01 01:38:56.940,0.025,-0.3
2021-08-01 01:38:56.944,0.01,-0.285
2021-08-01 01:38:56.948,0.025,-0.215
2021-08-01 01:38:56.952,0.045,-0.045
2021-08-01 01:38:56.956,0.06,0.19
2021-08-01 01:38:56.960,0.115,0.425
2021-08-01 01:38:56.964,0.17,0.605
2021-08-01 01:38:56.968,0.225,0.655
2021-08-01 01:38:56.972,0.3,0.605
2021-08-01 01:38:56.976,0.31,0.485
2021-08-01 01:38:56.980,0.24,0.04
2021-08-01 01:38:56.984,0.2,-0.455
2021-08-01 01:38:56.988,0.085,-0.74
2021-08-01 01:38:56.992,-0.105,-0.835
2021-08-01 01:38:56.996,-0.25,-0.81
2021-08-01 01:38:57.000,-0.34,-0.71
2021-08-01 01:38:57.004,-0.32,-0.56
2021-08-01 01:38:57.008,-0.295,-0.44
2021-08-01 01:38:57.012,-0.225,-0.365
2021-08-01 01:38:57.016,-0.11,-0.295
2021-08-01 01:38:57.020,-0.055,-0.28
2021-08-01 01:38:57.024,-0.015,-0.28
2021-08-01 01:38:57.028,0.015,-0.29
2021-08-01 01:38:57.032,0.02,-0.29
2021-08-01 01:38:57.036,0.02,-0.285
2021-08-01 01:38:57.040,0.035,-0.28
2021-08-01 01:38:57.044,0.035,-0.28
2021-08-01 01:38:57.048,0.01,-0.275
2021-08-01 01:38:57.052,0.035,-0.29
2021-08-01 01:38:57.056,0.01,-0.28
2021-08-01 01:38:57.060,0.015,-0.29
2021-08-01 01:38:57.064,0.005,-0.275
2021-08-01 01:38:57.068,0.02,-0.275
2021-08-01 01:38:57.072,0.015,-0.28
2021-08-01 01:38:57.076,0.005,-0.295
2021-08-01 01:38:57.080,0.005,-0.27
2021-08-01 01:38:57.084,0.015,-0.28
2021-08-01 01:38:57.088,0.005,-0.27
2021-08-01 01:38:57.092,0.015,-0.26
2021-08-01 01:38:57.096,0.005,-0.26
2021-08-01 01:38:57.100,0.015,-0.275
2021-08-01 01:38:57.104,0.015,-0.285
2021-08-01 01:38:57.108,0.0,-0.26
2021-08-01 01:38:57.112,0.01,-0.255
2021-08-01 01:38:57.116,0.005,-0.25
2021-08-01 01:38:57.120,0.02,-0.245
2021-08-01 01:38:57.124,0.02,-0.24
2021-08-01 01:38:57.128,0.01,-0.245
2021-08-01 01:38:57.132,0.035,-0.235
2021-08-01 01:38:57.136,0.025,-0.225
2021-08-01 01:38:57.140,0.025,-0.22
2021-08-01 01:38:57.144,0.025,-0.225
2021-08-01 01:38:57.148,0.025,-0.205
2021-08-01 01:38:57.152,0.025,-0.195
2021-08-01 01:38:57.156,0.025,-0.19
2021-08-01 01:38:57.160,0.04,-0.18
2021-08-01 01:38:57.164,0.035,-0.17
2021-08-01 01:38:57.168,0.06,-0.14
2021-08-01 01:38:57.172,0.035,-0.135
2021-08-01 01:38:57.176,0.035,-0.14
2021-08-01 01:38:57.180,0.035,-0.13
2021-08-01 01:38:57.184,0.055,-0.115
2021-08-01 01:38:57.188,0.04,-0.12
2021-08-01 01:38:57.192,0.04,-0.1
2021-08-01 01:38:57.196,0.045,-0.11
2021-08-01 01:38:57.200,0.04,-0.1
2021-08-01 01:38:57.204,0.03,-0.085
2021-08-01 01:38:57.208,0.045,-0.07
2021-08-01 01:38:57.212,0.04,-0.05
2021-08-01 01:38:57.216,0.045,-0.045
2021-08-01 01:38:57.220,0.055,-0.055
2021-08-01 01:38:57.224,0.05,-0.06
2021-08-01 01:38:57.228,0.055,-0.05
2021-08-01 01:38:57.232,0.055,-0.035
2021-08-01 01:38:57.236,0.065,-0.04
2021-08-01 01:38:57.240,0.07,-0.025
2021-08-01 01:38:57.244,0.055,-0.045
2021-08-01 01:38:57.248,0.065,-0.045
2021-08-01 01:38:57.252,0.05,-0.065
2021-08-01 01:38:57.256,0.055,-0.07
2021-08-01 01:38:57.260,0.055,-0.1
2021-08-01 01:38:57.264,0.065,-0.115
2021-08-01 01:38:57.268,0.075,-0.105
2021-08-01 01:38:57.272,0.06,-0.115
2021-08-01 01:38:57.276,0.055,-0.14
2021-08-01 01:38:57.280,0.06,-0.13
2021-08-01 01:38:57.284,0.06,-0.145
2021-08-01 01:38:57.288,0.05,-0.145
2021-08-01 01:38:57.292,0.05,-0.16
2021-08-01 01:38:57.296,0.035,-0.155
2021-08-01 01:38:57.300,0.05,-0.18
2021-08-01 01:38:57.304,0.05,-0.155
2021-08-01 01:38:57.308,0.05,-0.155
2021-08-01 01:38:57.312,0.06,-0.16
2021-08-01 01:38:57.316,0.06,-0.155
2021-08-01 01:38:57.320,0.03,-0.145
2021-08-01 01:38:57.324,0.05,-0.155
2021-08-01 01:38:57.328,0.05,-0.15
2021-08-01 01:38:57.332,0.075,-0.15
2021-08-01 01:38:57.336,0.06,-0.155
2021-08-01 01:38:57.340,0.045,-0.18
2021-08-01 01:38:57.344,0.06,-0.165
2021-08-01 01:38:57.348,0.06,-0.145
2021-08-01 01:38:57.352,0.065,-0.15
2021-08-01 01:38:57.356,0.06,-0.155
2021-08-01 01:38:57.360,0.055,-0.155
2021-08-01 01:38:57.364,0.055,-0.165
2021-08-01 01:38:57.368,0.05,-0.165
2021-08-01 01:38:57.372,0.06,-0.16
2021-08-01 01:38:57.376,0.05,-0.155
2021-08-01 01:38:57.380,0.04,-0.17
2021-08-01 01:38:57.384,0.05,-0.15
2021-08-01 01:38:57.388,0.05,-0.145
2021-08-01 01:38:57.392,0.06,-0.165
2021-08-01 01:38:57.396,0.06,-0.18
2021-08-01 01:38:57.400,0.03,-0.17
2021-08-01 01:38:57.404,0.045,-0.155
2021-08-01 01:38:57.408,0.035,-0.15
2021-08-01 01:38:57.412,0.055,-0.155
2021-08-01 01:38:57.416,0.035,-0.155
2021-08-01 01:38:57.420,0.045,-0.17
2021-08-01 01:38:57.424,0.045,-0.165
2021-08-01 01:38:57.428,0.045,-0.17
2021-08-01 01:38:57.432,0.015,-0.17
2021-08-01 01:38:57.436,0.035,-0.17
2021-08-01 01:38:57.440,0.02,-0.17
2021-08-01 01:38:57.444,0.015,-0.18
2021-08-01 01:38:57.448,0.03,-0.18
2021-08-01 01:38:57.452,0.045,-0.18
2021-08-01 01:38:57.456,0.045,-0.18
2021-08-01 01:38:57.460,0.02,-0.19
2021-08-01 01:38:57.464,0.05,-0.175
2021-08-01 01:38:57.468,0.035,-0.17
2021-08-01 01:38:57.472,0.02,-0.155
2021-08-01 01:38:57.476,0.02,-0.18
2021-08-01 01:38:57.480,0.03,-0.18
2021-08-01 01:38:57.484,0.045,-0.15
2021-08-01 01:38:57.488,0.025,-0.1
2021-08-01 01:38:57.492,0.05,-0.09
2021-08-01 01:38:57.496,0.045,-0.085
2021-08-01 01:38:57.500,0.07,-0.05
2021-08-01 01:38:57.504,0.07,-0.05
2021-08-01 01:38:57.508,0.095,-0.035
2021-08-01 01:38:57.512,0.1,-0.01
2021-08-01 01:38:57.516,0.095,0.0
2021-08-01 01:38:57.520,0.1,-0.005
2021-08-01 01:38:57.524,0.075,-0.01
2021-08-01 01:38:57.528,0.07,-0.035
2021-08-01 01:38:57.532,0.065,-0.075
2021-08-01 01:38:57.536,0.03,-0.125
2021-08-01 01:38:57.540,0.025,-0.175
2021-08-01 01:38:57.544,0.005,-0.18
2021-08-01 01:38:57.548,-0.005,-0.19
2021-08-01 01:38:57.552,-0.015,-0.175
2021-08-01 01:38:57.556,-0.025,-0.175
2021-08-01 01:38:57.560,-0.005,-0.165
2021-08-01 01:38:57.564,0.0,-0.18
2021-08-01 01:38:57.568,0.025,-0.205
2021-08-01 01:38:57.572,0.025,-0.22
2021-08-01 01:38:57.576,0.03,-0.24
2021-08-01 01:38:57.580,0.04,-0.26
2021-08-01 01:38:57.584,0.03,-0.25
2021-08-01 01:38:57.588,0.035,-0.265
2021-08-01 01:38:57.592,0.03,-0.28
2021-08-01 01:38:57.596,0.005,-0.275
2021-08-01 01:38:57.600,0.01,-0.29
2021-08-01 01:38:57.604,0.025,-0.295
2021-08-01 01:38:57.608,0.01,-0.275
2021-08-01 01:38:57.612,0.02,-0.28
2021-08-01 01:38:57.616,0.015,-0.295
2021-08-01 01:38:57.620,0.025,-0.3
2021-08-01 01:38:57.624,-0.01,-0.28
2021-08-01 01:38:57.628,0.01,-0.265
2021-08-01 01:38:57.632,0.015,-0.275
2021-08-01 01:38:57.636,0.01,-0.27
2021-08-01 01:38:57.640,0.015,-0.295
2021-08-01 01:38:57.644,0.03,-0.295
2021-08-01 01:38:57.648,0.02,-0.305
2021-08-01 01:38:57.652,0.015,-0.275
2021-08-01 01:38:57.656,0.025,-0.22
2021-08-01 01:38:57.660,0.04,-0.08
2021-08-01 01:38:57.664,0.05,0.14
2021-08-01 01:38:57.668,0.075,0.38
2021-08-01 01:38:57.672,0.145,0.575
2021-08-01 01:38:57.676,0.195,0.625
2021-08-01 01:38:57.680,0.275,0.6
2021-08-01 01:38:57.684,0.315,0.46
2021-08-01 01:38:57.688,0.25,0.015
2021-08-01 01:38:57.692,0.195,-0.46
2021-08-01 01:38:57.696,0.115,-0.735
2021-08-01 01:38:57.700,-0.1,-0.83
2021-08-01 01:38:57.704,-0.255,-0.805
2021-08-01 01:38:57.708,-0.3,-0.69
2021-08-01 01:38:57.712,-0.305,-0.565
2021-08-01 01:38:57.716,-0.265,-0.45
2021-08-01 01:38:57.720,-0.2,-0.36
2021-08-01 01:38:57.724,-0.125,-0.305
2021-08-01 01:38:57.728,-0.035,-0.315
2021-08-01 01:38:57.732,0.0,-0.295
2021-08-01 01:38:57.736,0.015,-0.305
2021-08-01 01:38:57.740,0.03,-0.31
2021-08-01 01:38:57.744,0.02,-0.3
2021-08-01 01:38:57.748,0.02,-0.305
2021-08-01 01:38:57.752,0.04,-0.295
2021-08-01 01:38:57.756,0.03,-0.28
2021-08-01 01:38:57.760,0.035,-0.285
2021-08-01 01:38:57.764,0.005,-0.27
2021-08-01 01:38:57.768,0.025,-0.29
2021-08-01 01:38:57.772,0.015,-0.27
2021-08-01 01:38:57.776,0.025,-0.29
2021-08-01 01:38:57.780,0.025,-0.295
2021-08-01 01:38:57.784,0.035,-0.29
2021-08-01 01:38:57.788,0.015,-0.275
2021-08-01 01:38:57.792,0.025,-0.29
2021-08-01 01:38:57.796,0.035,-0.275
2021-08-01 01:38:57.800,0.015,-0.285
2021-08-01 01:38:57.804,0.025,-0.285
2021-08-01 01:38:57.808,0.025,-0.28
2021-08-01 01:38:57.812,0.03,-0.27
2021-08-01 01:38:57.816,0.02,-0.28
2021-08-01 01:38:57.820,0.035,-0.28
2021-08-01 01:38:57.824,0.015,-0.255
2021-08-01 01:38:57.828,0.005,-0.24
2021-08-01 01:38:57.832,0.035,-0.245
2021-08-01 01:38:57.836,0.025,-0.24
2021-08-01 01:38:57.840,0.015,-0.22
2021-08-01 01:38:57.844,0.02,-0.235
2021-08-01 01:38:57.848,0.04,-0.215
2021-08-01 01:38:57.852,0.03,-0.205
2021-08-01 01:38:57.856,0.025,-0.22
2021-08-01 01:38:57.860,0.035,-0.2
2021-08-01 01:38:57.864,0.06,-0.175
2021-08-01 01:38:57.868,0.04,-0.16
2021-08-01 01:38:57.872,0.04,-0.16
2021-08-01 01:38:57.876,0.04,-0.155
2021-08-01 01:38:57.880,0.05,-0.145
2021-08-01 01:38:57.884,0.035,-0.14
2021-08-01 01:38:57.888,0.055,-0.12
2021-08-01 01:38:57.892,0.045,-0.11
2021-08-01 01:38:57.896,0.06,-0.105
2021-08-01 01:38:57.900,0.055,-0.105
2021-08-01 01:38:57.904,0.045,-0.1
2021-08-01 01:38:57.908,0.065,-0.085
2021-08-01 01:38:57.912,0.065,-0.08
2021-08-01 01:38:57.916,0.045,-0.06
2021-08-01 01:38:57.920,0.045,-0.065
2021-08-01 01:38:57.924,0.06,-0.045
2021-08-01 01:38:57.928,0.055,-0.03
2021-08-01 01:38:57.932,0.06,-0.02
2021-08-01 01:38:57.936,0.055,-0.025
2021-08-01 01:38:57.940,0.07,-0.04
2021-08-01 01:38:57.944,0.065,-0.025
2021-08-01 01:38:57.948,0.07,-0.015
2021-08-01 01:38:57.952,0.075,-0.035
2021-08-01 01:38:57.956,0.08,-0.03
2021-08-01 01:38:57.960,0.085,-0.04
2021-08-01 01:38:57.964,0.075,-0.05
2021-08-01 01:38:57.968,0.11,-0.06
2021-08-01 01:38:57.972,0.105,-0.055
2021-08-01 01:38:57.976,0.075,-0.06
2021-08-01 01:38:57.980,0.085,-0.105
2021-08-01 01:38:57.984,0.095,-0.11
2021-08-01 01:38:57.988,0.075,-0.11
2021-08-01 01:38:57.992,0.09,-0.12
2021-08-01 01:38:57.996,0.08,-0.11
2021-08-01 01:38:58.000,0.065,-0.12
2021-08-01 01:38:58.004,0.08,-0.115
2021-08-01 01:38:58.008,0.095,-0.125
2021-08-01 01:38:58.012,0.085,-0.11
2021-08-01 01:38:58.016,0.07,-0.11
2021-08-01 01:38:58.020,0.09,-0.145
2021-08-01 01:38:58.024,0.1,-0.14
2021-08-01 01:38:58.028,0.08,-0.125
2021-08-01 01:38:58.032,0.095,-0.105
2021-08-01 01:38:58.036,0.085,-0.115
2021-08-01 01:38:58.040,0.105,-0.125
2021-08-01 01:38:58.044,0.09,-0.11
2021-08-01 01:38:58.048,0.09,-0.11
2021-08-01 01:38:58.052,0.1,-0.12
2021-08-01 01:38:58.056,0.105,-0.115
2021-08-01 01:38:58.060,0.07,-0.115
2021-08-01 01:38:58.064,0.07,-0.125
2021-08-01 01:38:58.068,0.08,-0.13
2021-08-01 01:38:58.072,0.08,-0.1
2021-08-01 01:38:58.076,0.075,-0.1
2021-08-01 01:38:58.080,0.09,-0.115
2021-08-01 01:38:58.084,0.075,-0.12
2021-08-01 01:38:58.088,0.065,-0.125
2021-08-01 01:38:58.092,0.07,-0.105
2021-08-01 01:38:58.096,0.09,-0.12
2021-08-01 01:38:58.100,0.085,-0.135
2021-08-01 01:38:58.104,0.075,-0.125
2021-08-01 01:38:58.108,0.07,-0.12
2021-08-01 01:38:58.112,0.065,-0.095
2021-08-01 01:38:58.116,0.075,-0.105
2021-08-01 01:38:58.120,0.07,-0.115
2021-08-01 01:38:58.124,0.065,-0.14
2021-08-01 01:38:58.128,0.055,-0.125
2021-08-01 01:38:58.132,0.07,-0.12
2021-08-01 01:38:58.136,0.075,-0.14
2021-08-01 01:38:58.140,0.08,-0.13
2021-08-01 01:38:58.144,0.08,-0.115
2021-08-01 01:38:58.148,0.075,-0.125
2021-08-01 01:38:58.152,0.08,-0.145
2021-08-01 01:38:58.156,0.07,-0.135
2021-08-01 01:38:58.160,0.06,-0.145
2021-08-01 01:38:58.164,0.075,-0.145
2021-08-01 01:38:58.168,0.055,-0.115
2021-08-01 01:38:58.172,0.075,-0.125
2021-08-01 01:38:58.176,0.075,-0.13
2021-08-01 01:38:58.180,0.095,-0.125
2021-08-01 01:38:58.184,0.075,-0.095
2021-08-01 01:38:58.188,0.07,-0.08
2021-08-01 01:38:58.192,0.09,-0.05
2021-08-01 01:38:58.196,0.095,-0.01
2021-08-01 01:38:58.200,0.095,0.01
2021-08-01 01:38:58.204,0.115,0.0
2021-08-01 01:38:58.208,0.12,0.035
2021-08-01 01:38:58.212,0.135,0.04
2021-08-01 01:38:58.216,0.135,0.045
2021-08-01 01:38:58.220,0.145,0.035
2021-08-01 01:38:58.224,0.14,0.035
2021-08-01 01:38:58.228,0.12,0.01
2021-08-01 01:38:58.232,0.105,-0.01
2021-08-01 01:38:58.236,0.065,-0.07
2021-08-01 01:38:58.240,0.06,-0.13
2021-08-01 01:38:58.244,0.04,-0.16
2021-08-01 01:38:58.248,0.02,-0.14
2021-08-01 01:38:58.252,0.005,-0.12
2021-08-01 01:38:58.256,0.0,-0.125
2021-08-01 01:38:58.260,0.025,-0.13
2021-08-01 01:38:58.264,0.035,-0.145
2021-08-01 01:38:58.268,0.04,-0.175
2021-08-01 01:38:58.272,0.07,-0.195
2021-08-01 01:38:58.276,0.07,-0.185
2021-08-01 01:38:58.280,0.065,-0.23
2021-08-01 01:38:58.284,0.08,-0.23
2021-08-01 01:38:58.288,0.075,-0.22
2021-08-01 01:38:58.292,0.06,-0.23
2021-08-01 01:38:58.296,0.065,-0.24
2021-08-01 01:38:58.300,0.05,-0.25
2021-08-01 01:38:58.304,0.045,-0.24
2021-08-01 01:38:58.308,0.04,-0.235
2021-08-01 01:38:58.312,0.07,-0.25
2021-08-01 01:38:58.316,0.045,-0.26
2021-08-01 01:38:58.320,0.045,-0.255
2021-08-01 01:38:58.324,0.055,-0.265
2021-08-01 01:38:58.328,0.04,-0.23
2021-08-01 01:38:58.332,0.045,-0.24
2021-08-01 01:38:58.336,0.045,-0.25
2021-08-01 01:38:58.340,0.055,-0.265
2021-08-01 01:38:58.344,0.05,-0.26
2021-08-01 01:38:58.348,0.06,-0.27
2021-08-01 01:38:58.352,0.06,-0.235
2021-08-01 01:38:58.356,0.055,-0.17
2021-08-01 01:38:58.360,0.1,0.015
2021-08-01 01:38:58.364,0.095,0.275
2021-08-01 01:38:58.368,0.13,0.495
2021-08-01 01:38:58.372,0.175,0.605
2021-08-01 01:38:58.376,0.275,0.635
2021-08-01 01:38:58.380,0.32,0.565
2021-08-01 01:38:58.384,0.35,0.275
2021-08-01 01:38:58.388,0.29,-0.255
2021-08-01 01:38:58.392,0.225,-0.63
2021-08-01 01:38:58.396,0.08,-0.8
2021-08-01 01:38:58.400,-0.08,-0.845
2021-08-01 01:38:58.404,-0.19,-0.82
2021-08-01 01:38:58.408,-0.26,-0.705
2021-08-01 01:38:58.412,-0.245,-0.575
2021-08-01 01:38:58.416,-0.215,-0.46
2021-08-01 01:38:58.420,-0.18,-0.38
2021-08-01 01:38:58.424,-0.09,-0.29
2021-08-01 01:38:58.428,-0.045,-0.27
2021-08-01 01:38:58.432,0.015,-0.28
2021-08-01 01:38:58.436,0.03,-0.285
2021-08-01 01:38:58.440,0.05,-0.28
2021-08-01 01:38:58.444,0.065,-0.285
2021-08-01 01:38:58.448,0.045,-0.28
2021-08-01 01:38:58.452,0.06,-0.28
2021-08-01 01:38:58.456,0.055,-0.285
2021-08-01 01:38:58.460,0.035,-0.3
2021-08-01 01:38:58.464,0.06,-0.28
2021-08-01 01:38:58.468,0.04,-0.28
2021-08-01 01:38:58.472,0.04,-0.28
2021-08-01 01:38:58.476,0.03,-0.275
2021-08-01 01:38:58.480,0.045,-0.275
2021-08-01 01:38:58.484,0.04,-0.275
2021-08-01 01:38:58.488,0.035,-0.265
2021-08-01 01:38:58.492,0.03,-0.28
2021-08-01 01:38:58.496,0.02,-0.275
2021-08-01 01:38:58.500,0.045,-0.295
2021-08-01 01:38:58.504,0.045,-0.285
2021-08-01 01:38:58.508,0.015,-0.27
2021-08-01 01:38:58.512,0.025,-0.27
2021-08-01 01:38:58.516,0.03,-0.27
2021-08-01 01:38:58.520,0.035,-0.27
2021-08-01 01:38:58.524,0.015,-0.255
2021-08-01 01:38:58.528,0.02,-0.255
2021-08-01 01:38:58.532,0.025,-0.235
2021-08-01 01:38:58.536,0.025,-0.255
2021-08-01 01:38:58.540,0.025,-0.24
2021-08-01 01:38:58.544,0.025,-0.25
2021-08-01 01:38:58.548,0.015,-0.235
2021-08-01 01:38:58.552,0.03,-0.215
2021-08-01 01:38:58.556,0.03,-0.22
2021-08-01 01:38:58.560,0.035,-0.22
2021-08-01 01:38:58.564,0.02,-0.22
2021-08-01 01:38:58.568,0.025,-0.2
2021-08-01 01:38:58.572,0.04,-0.19
2021-08-01 01:38:58.576,0.03,-0.18
2021-08-01 01:38:58.580,0.03,-0.185
2021-08-01 01:38:58.584,0.025,-0.15
2021-08-01 01:38:58.588,0.03,-0.155
2021-08-01 01:38:58.592,0.05,-0.145
2021-08-01 01:38:58.596,0.04,-0.145
2021-08-01 01:38:58.600,0.075,-0.155
2021-08-01 01:38:58.604,0.03,-0.13
2021-08-01 01:38:58.608,0.04,-0.14
2021-08-01 01:38:58.612,0.065,-0.125
2021-08-01 01:38:58.616,0.05,-0.09
2021-08-01 01:38:58.620,0.055,-0.115
2021-08-01 01:38:58.624,0.06,-0.095
2021-08-01 01:38:58.628,0.065,-0.09
2021-08-01 01:38:58.632,0.065,-0.09
2021-08-01 01:38:58.636,0.06,-0.075
2021-08-01 01:38:58.640,0.07,-0.075
2021-08-01 01:38:58.644,0.075,-0.065
2021-08-01 01:38:58.648,0.06,-0.065
2021-08-01 01:38:58.652,0.075,-0.075
2021-08-01 01:38:58.656,0.085,-0.07
2021-08-01 01:38:58.660,0.08,-0.095
2021-08-01 01:38:58.664,0.1,-0.11
2021-08-01 01:38:58.668,0.075,-0.12
2021-08-01 01:38:58.672,0.08,-0.11
2021-08-01 01:38:58.676,0.065,-0.135
2021-08-01 01:38:58.680,0.08,-0.155
2021-08-01 01:38:58.684,0.105,-0.145
2021-08-01 01:38:58.688,0.09,-0.14
2021-08-01 01:38:58.692,0.095,-0.16
2021-08-01 01:38:58.696,0.1,-0.18
2021-08-01 01:38:58.700,0.07,-0.17
2021-08-01 01:38:58.704,0.09,-0.175
2021-08-01 01:38:58.708,0.085,-0.17
2021-08-01 01:38:58.712,0.065,-0.175
2021-08-01 01:38:58.716,0.075,-0.18
2021-08-01 01:38:58.720,0.095,-0.18
2021-08-01 01:38:58.724,0.075,-0.17
2021-08-01 01:38:58.728,0.07,-0.17
2021-08-01 01:38:58.732,0.075,-0.18
2021-08-01 01:38:58.736,0.075,-0.18
2021-08-01 01:38:58.740,0.065,-0.16
2021-08-01 01:38:58.744,0.09,-0.175
2021-08-01 01:38:58.748,0.08,-0.17
2021-08-01 01:38:58.752,0.08,-0.17
2021-08-01 01:38:58.756,0.085,-0.16
2021-08-01 01:38:58.760,0.08,-0.175
2021-08-01 01:38:58.764,0.075,-0.175
2021-08-01 01:38:58.768,0.06,-0.16
2021-08-01 01:38:58.772,0.085,-0.16
2021-08-01 01:38:58.776,0.085,-0.175
2021-08-01 01:38:58.780,0.08,-0.16
2021-08-01 01:38:58.784,0.07,-0.16
2021-08-01 01:38:58.788,0.065,-0.14
2021-08-01 01:38:58.792,0.075,-0.14
2021-08-01 01:38:58.796,0.07,-0.16
2021-08-01 01:38:58.800,0.08,-0.16
2021-08-01 01:38:58.804,0.055,-0.16
2021-08-01 01:38:58.808,0.065,-0.145
2021-08-01 01:38:58.812,0.06,-0.15
2021-08-01 01:38:58.816,0.065,-0.16
2021-08-01 01:38:58.820,0.06,-0.155
2021-08-01 01:38:58.824,0.06,-0.17
2021-08-01 01:38:58.828,0.08,-0.16
2021-08-01 01:38:58.832,0.055,-0.15
2021-08-01 01:38:58.836,0.045,-0.17
2021-08-01 01:38:58.840,0.06,-0.185
2021-08-01 01:38:58.844,0.08,-0.175
2021-08-01 01:38:58.848,0.055,-0.17
2021-08-01 01:38:58.852,0.075,-0.17
2021-08-01 01:38:58.856,0.06,-0.185
2021-08-01 01:38:58.860,0.065,-0.175
2021-08-01 01:38:58.864,0.055,-0.19
2021-08-01 01:38:58.868,0.075,-0.175
2021-08-01 01:38:58.872,0.055,-0.165
2021-08-01 01:38:58.876,0.06,-0.165
2021-08-01 01:38:58.880,0.06,-0.145
2021-08-01 01:38:58.884,0.07,-0.11
2021-08-01 01:38:58.888,0.05,-0.09
2021-08-01 01:38:58.892,0.085,-0.06
2021-08-01 01:38:58.896,0.12,-0.055
2021-08-01 01:38:58.900,0.12,-0.035
2021-08-01 01:38:58.904,0.15,-0.04
2021-08-01 01:38:58.908,0.14,-0.01
2021-08-01 01:38:58.912,0.15,0.005
2021-08-01 01:38:58.916,0.135,0.01
2021-08-01 01:38:58.920,0.13,-0.015
2021-08-01 01:38:58.924,0.13,-0.045
2021-08-01 01:38:58.928,0.105,-0.065
2021-08-01 01:38:58.932,0.06,-0.13
2021-08-01 01:38:58.936,0.08,-0.185
2021-08-01 01:38:58.940,0.035,-0.185
2021-08-01 01:38:58.944,0.01,-0.19
2021-08-01 01:38:58.948,0.025,-0.165
2021-08-01 01:38:58.952,0.02,-0.145
2021-08-01 01:38:58.956,0.025,-0.16
2021-08-01 01:38:58.960,0.045,-0.19
2021-08-01 01:38:58.964,0.07,-0.21
2021-08-01 01:38:58.968,0.085,-0.21
2021-08-01 01:38:58.972,0.065,-0.215
2021-08-01 01:38:58.976,0.08,-0.25
2021-08-01 01:38:58.980,0.095,-0.255
2021-08-01 01:38:58.984,0.075,-0.255
2021-08-01 01:38:58.988,0.06,-0.275
2021-08-01 01:38:58.992,0.07,-0.27
2021-08-01 01:38:58.996,0.07,-0.265
2021-08-01 01:38:59.000,0.065,-0.28
2021-08-01 01:38:59.004,0.07,-0.275
2021-08-01 01:38:59.008,0.06,-0.275
2021-08-01 01:38:59.012,0.065,-0.28
2021-08-01 01:38:59.016,0.055,-0.275
2021-08-01 01:38:59.020,0.065,-0.27
2021-08-01 01:38:59.024,0.06,-0.265
2021-08-01 01:38:59.028,0.075,-0.265
2021-08-01 01:38:59.032,0.075,-0.255
2021-08-01 01:38:59.036,0.07,-0.265
2021-08-01 01:38:59.040,0.07,-0.275
2021-08-01 01:38:59.044,0.07,-0.31
2021-08-01 01:38:59.048,0.065,-0.28
2021-08-01 01:38:59.052,0.09,-0.2
2021-08-01 01:38:59.056,0.1,-0.065
2021-08-01 01:38:59.060,0.135,0.16
2021-08-01 01:38:59.064,0.14,0.385
2021-08-01 01:38:59.068,0.185,0.59
2021-08-01 01:38:59.072,0.285,0.645
2021-08-01 01:38:59.076,0.35,0.635
2021-08-01 01:38:59.080,0.36,0.55
2021-08-01 01:38:59.084,0.34,0.135
2021-08-01 01:38:59.088,0.265,-0.39
2021-08-01 01:38:59.092,0.175,-0.71
2021-08-01 01:38:59.096,-0.01,-0.81
2021-08-01 01:38:59.100,-0.185,-0.795
2021-08-01 01:38:59.104,-0.26,-0.71
2021-08-01 01:38:59.108,-0.275,-0.56
2021-08-01 01:38:59.112,-0.22,-0.455
2021-08-01 01:38:59.116,-0.17,-0.345
2021-08-01 01:38:59.120,-0.08,-0.29
2021-08-01 01:38:59.124,0.01,-0.285
2021-08-01 01:38:59.128,0.05,-0.28
2021-08-01 01:38:59.132,0.06,-0.26
2021-08-01 01:38:59.136,0.065,-0.28
2021-08-01 01:38:59.140,0.085,-0.295
2021-08-01 01:38:59.144,0.08,-0.285
2021-08-01 01:38:59.148,0.055,-0.26
2021-08-01 01:38:59.152,0.05,-0.265
2021-08-01 01:38:59.156,0.075,-0.265
2021-08-01 01:38:59.160,0.065,-0.275
2021-08-01 01:38:59.164,0.06,-0.265
2021-08-01 01:38:59.168,0.065,-0.27
2021-08-01 01:38:59.172,0.065,-0.26
2021-08-01 01:38:59.176,0.08,-0.265
2021-08-01 01:38:59.180,0.07,-0.255
2021-08-01 01:38:59.184,0.075,-0.265
2021-08-01 01:38:59.188,0.06,-0.26
2021-08-01 01:38:59.192,0.06,-0.25
2021-08-01 01:38:59.196,0.07,-0.25
2021-08-01 01:38:59.200,0.07,-0.265
2021-08-01 01:38:59.204,0.06,-0.26
2021-08-01 01:38:59.208,0.065,-0.245
2021-08-01 01:38:59.212,0.055,-0.245
2021-08-01 01:38:59.216,0.065,-0.235
2021-08-01 01:38:59.220,0.07,-0.24
2021-08-01 01:38:59.224,0.075,-0.235
2021-08-01 01:38:59.228,0.055,-0.23
2021-08-01 01:38:59.232,0.055,-0.21
2021-08-01 01:38:59.236,0.075,-0.225
2021-08-01 01:38:59.240,0.06,-0.225
2021-08-01 01:38:59.244,0.045,-0.19
2021-08-01 01:38:59.248,0.06,-0.18
2021-08-01 01:38:59.252,0.065,-0.16
2021-08-01 01:38:59.256,0.075,-0.16
2021-08-01 01:38:59.260,0.06,-0.155
2021-08-01 01:38:59.264,0.065,-0.16
2021-08-01 01:38:59.268,0.075,-0.145
2021-08-01 01:38:59.272,0.06,-0.11
2021-08-01 01:38:59.276,0.06,-0.115
2021-08-01 01:38:59.280,0.075,-0.1
2021-08-01 01:38:59.284,0.065,-0.11
2021-08-01 01:38:59.288,0.08,-0.1
2021-08-01 01:38:59.292,0.095,-0.075
2021-08-01 01:38:59.296,0.09,-0.08
2021-08-01 01:38:59.300,0.08,-0.07
2021-08-01 01:38:59.304,0.095,-0.085
2021-08-01 01:38:59.308,0.09,-0.05
2021-08-01 01:38:59.312,0.095,-0.05
2021-08-01 01:38:59.316,0.09,-0.045
2021-08-01 01:38:59.320,0.105,-0.055
2021-08-01 01:38:59.324,0.085,-0.035
2021-08-01 01:38:59.328,0.095,-0.02
2021-08-01 01:38:59.332,0.11,-0.025
2021-08-01 01:38:59.336,0.105,-0.01
2021-08-01 01:38:59.340,0.1,-0.005
2021-08-01 01:38:59.344,0.1,-0.02
2021-08-01 01:38:59.348,0.105,-0.02
2021-08-01 01:38:59.352,0.105,-0.04
2021-08-01 01:38:59.356,0.105,-0.045
2021-08-01 01:38:59.360,0.095,-0.06
2021-08-01 01:38:59.364,0.095,-0.065
2021-08-01 01:38:59.368,0.095,-0.08
2021-08-01 01:38:59.372,0.105,-0.08
2021-08-01 01:38:59.376,0.09,-0.095
2021-08-01 01:38:59.380,0.095,-0.11
2021-08-01 01:38:59.384,0.105,-0.13
2021-08-01 01:38:59.388,0.085,-0.125
2021-08-01 01:38:59.392,0.085,-0.125
2021-08-01 01:38:59.396,0.07,-0.145
2021-08-01 01:38:59.400,0.075,-0.14
2021-08-01 01:38:59.404,0.075,-0.135
2021-08-01 01:38:59.408,0.075,-0.14
2021-08-01 01:38:59.412,0.09,-0.13
2021-08-01 01:38:59.416,0.09,-0.135
2021-08-01 01:38:59.420,0.08,-0.14
2021-08-01 01:38:59.424,0.085,-0.145
2021-08-01 01:38:59.428,0.065,-0.14
2021-08-01 01:38:59.432,0.055,-0.125
2021-08-01 01:38:59.436,0.065,-0.135
2021-08-01 01:38:59.440,0.075,-0.16
2021-08-01 01:38:59.444,0.07,-0.13
2021-08-01 01:38:59.448,0.09,-0.14
2021-08-01 01:38:59.452,0.085,-0.14
2021-08-01 01:38:59.456,0.065,-0.115
2021-08-01 01:38:59.460,0.06,-0.12
2021-08-01 01:38:59.464,0.06,-0.13
2021-08-01 01:38:59.468,0.065,-0.14
2021-08-01 01:38:59.472,0.075,-0.125
2021-08-01 01:38:59.476,0.06,-0.12
2021-08-01 01:38:59.480,0.075,-0.125
2021-08-01 01:38:59.484,0.08,-0.135
2021-08-01 01:38:59.488,0.07,-0.125
2021-08-01 01:38:59.492,0.065,-0.13
2021-08-01 01:38:59.496,0.07,-0.12
2021-08-01 01:38:59.500,0.05,-0.12
2021-08-01 01:38:59.504,0.05,-0.14
2021-08-01 01:38:59.508,0.055,-0.13
2021-08-01 01:38:59.512,0.075,-0.14
2021-08-01 01:38:59.516,0.06,-0.13
2021-08-01 01:38:59.520,0.055,-0.13
2021-08-01 01:38:59.524,0.07,-0.15
2021-08-01 01:38:59.528,0.06,-0.15
2021-08-01 01:38:59.532,0.05,-0.15
2021-08-01 01:38:59.536,0.08,-0.165
2021-08-01 01:38:59.540,0.05,-0.165
2021-08-01 01:38:59.544,0.07,-0.16
2021-08-01 01:38:59.548,0.05,-0.17
2021-08-01 01:38:59.552,0.075,-0.15
2021-08-01 01:38:59.556,0.045,-0.145
2021-08-01 01:38:59.560,0.075,-0.165
2021-08-01 01:38:59.564,0.065,-0.17
2021-08-01 01:38:59.568,0.05,-0.15
2021-08-01 01:38:59.572,0.055,-0.16
2021-08-01 01:38:59.576,0.065,-0.14
2021-08-01 01:38:59.580,0.055,-0.12
2021-08-01 01:38:59.584,0.055,-0.095
2021-08-01 01:38:59.588,0.075,-0.07
2021-08-01 01:38:59.592,0.085,-0.035
2021-08-01 01:38:59.596,0.1,-0.02
2021-08-01 01:38:59.600,0.105,-0.03
2021-08-01 01:38:59.604,0.13,-0.015
2021-08-01 01:38:59.608,0.13,-0.005
2021-08-01 01:38:59.612,0.14,0.015
2021-08-01 01:38:59.616,0.135,0.015
2021-08-01 01:38:59.620,0.11,-0.015
2021-08-01 01:38:59.624,0.085,-0.05
2021-08-01 01:38:59.628,0.07,-0.11
2021-08-01 01:38:59.632,0.06,-0.155
2021-08-01 01:38:59.636,0.045,-0.16
2021-08-01 01:38:59.640,0.015,-0.165
2021-08-01 01:38:59.644,0.0,-0.16
2021-08-01 01:38:59.648,0.0,-0.16
2021-08-01 01:38:59.652,0.025,-0.15
2021-08-01 01:38:59.656,0.045,-0.16
2021-08-01 01:38:59.660,0.045,-0.175
2021-08-01 01:38:59.664,0.055,-0.205
2021-08-01 01:38:59.668,0.065,-0.205
2021-08-01 01:38:59.672,0.055,-0.22
2021-08-01 01:38:59.676,0.075,-0.245
2021-08-01 01:38:59.680,0.06,-0.25
2021-08-01 01:38:59.684,0.05,-0.27
2021-08-01 01:38:59.688,0.065,-0.285
2021-08-01 01:38:59.692,0.05,-0.27
2021-08-01 01:38:59.696,0.035,-0.275
2021-08-01 01:38:59.700,0.05,-0.275
2021-08-01 01:38:59.704,0.05,-0.275
2021-08-01 01:38:59.708,0.03,-0.27
2021-08-01 01:38:59.712,0.035,-0.26
2021-08-01 01:38:59.716,0.04,-0.26
2021-08-01 01:38:59.720,0.05,-0.26
2021-08-01 01:38:59.724,0.04,-0.265
2021-08-01 01:38:59.728,0.045,-0.28
2021-08-01 01:38:59.732,0.045,-0.26
2021-08-01 01:38:59.736,0.055,-0.26
2021-08-01 01:38:59.740,0.055,-0.295
2021-08-01 01:38:59.744,0.05,-0.28
2021-08-01 01:38:59.748,0.04,-0.22
2021-08-01 01:38:59.752,0.065,-0.07
2021-08-01 01:38:59.756,0.105,0.155
2021-08-01 01:38:59.760,0.105,0.38
2021-08-01 01:38:59.764,0.175,0.565
2021-08-01 01:38:59.768,0.26,0.61
2021-08-01 01:38:59.772,0.31,0.585
2021-08-01 01:38:59.776,0.325,0.465
2021-08-01 01:38:59.780,0.25,0.04
2021-08-01 01:38:59.784,0.2,-0.465
2021-08-01 01:38:59.788,0.075,-0.725
2021-08-01 01:38:59.792,-0.1,-0.815
2021-08-01 01:38:59.796,-0.225,-0.79
2021-08-01 01:38:59.800,-0.295,-0.685
2021-08-01 01:38:59.804,-0.295,-0.555
2021-08-01 01:38:59.808,-0.25,-0.44
2021-08-01 01:38:59.812,-0.195,-0.325
2021-08-01 01:38:59.816,-0.095,-0.285
2021-08-01 01:38:59.820,-0.045,-0.275
2021-08-01 01:38:59.824,0.03,-0.285
2021-08-01 01:38:59.828,0.025,-0.295
2021-08-01 01:38:59.832,0.035,-0.285
2021-08-01 01:38:59.836,0.045,-0.27
2021-08-01 01:38:59.840,0.05,-0.27
2021-08-01 01:38:59.844,0.045,-0.275
2021-08-01 01:38:59.848,0.045,-0.28
2021-08-01 01:38:59.852,0.06,-0.285
2021-08-01 01:38:59.856,0.045,-0.255
2021-08-01 01:38:59.860,0.05,-0.265
2021-08-01 01:38:59.864,0.055,-0.275
2021-08-01 01:38:59.868,0.02,-0.27
2021-08-01 01:38:59.872,0.025,-0.265
2021-08-01 01:38:59.876,0.05,-0.26
2021-08-01 01:38:59.880,0.045,-0.255
2021-08-01 01:38:59.884,0.035,-0.275
2021-08-01 01:38:59.888,0.03,-0.27
2021-08-01 01:38:59.892,0.05,-0.24
2021-08-01 01:38:59.896,0.035,-0.235
2021-08-01 01:38:59.900,0.05,-0.24
2021-08-01 01:38:59.904,0.045,-0.235
2021-08-01 01:38:59.908,0.05,-0.24
2021-08-01 01:38:59.912,0.05,-0.23
2021-08-01 01:38:59.916,0.055,-0.23
2021-08-01 01:38:59.920,0.065,-0.22
2021-08-01 01:38:59.924,0.055,-0.215
2021-08-01 01:38:59.928,0.065,-0.215
2021-08-01 01:38:59.932,0.065,-0.2
2021-08-01 01:38:59.936,0.055,-0.185
2021-08-01 01:38:59.940,0.05,-0.195
2021-08-01 01:38:59.944,0.04,-0.18
2021-08-01 01:38:59.948,0.06,-0.16
2021-08-01 01:38:59.952,0.07,-0.15
2021-08-01 01:38:59.956,0.07,-0.145
2021-08-01 01:38:59.960,0.06,-0.14
2021-08-01 01:38:59.964,0.05,-0.125
2021-08-01 01:38:59.968,0.075,-0.135
2021-08-01 01:38:59.972,0.075,-0.115
2021-08-01 01:38:59.976,0.08,-0.095
2021-08-01 01:38:59.980,0.08,-0.09
2021-08-01 01:38:59.984,0.085,-0.09
2021-08-01 01:38:59.988,0.085,-0.06
2021-08-01 01:38:59.992,0.065,-0.04
2021-08-01 01:38:59.996,0.085,-0.04
2021-08-01 01:39:00.000,0.08,-0.06
2021-08-01 01:39:00.004,0.08,-0.045
2021-08-01 01:39:00.008,0.08,-0.05
2021-08-01 01:39:00.012,0.09,-0.045
2021-08-01 01:39:00.016,0.085,-0.02
2021-08-01 01:39:00.020,0.1,-0.02
2021-08-01 01:39:00.024,0.09,-0.015
2021-08-01 01:39:00.028,0.09,0.0
2021-08-01 01:39:00.032,0.075,0.005
2021-08-01 01:39:00.036,0.095,-0.005
2021-08-01 01:39:00.040,0.11,-0.01
2021-08-01 01:39:00.044,0.115,-0.01
2021-08-01 01:39:00.048,0.095,-0.015
2021-08-01 01:39:00.052,0.11,-0.03
2021-08-01 01:39:00.056,0.075,-0.035
2021-08-01 01:39:00.060,0.095,-0.045
2021-08-01 01:39:00.064,0.105,-0.08
2021-08-01 01:39:00.068,0.115,-0.09
2021-08-01 01:39:00.072,0.12,-0.08
2021-08-01 01:39:00.076,0.105,-0.1
2021-08-01 01:39:00.080,0.095,-0.1
2021-08-01 01:39:00.084,0.095,-0.115
2021-08-01 01:39:00.088,0.075,-0.13
2021-08-01 01:39:00.092,0.1,-0.12
2021-08-01 01:39:00.096,0.095,-0.12
2021-08-01 01:39:00.100,0.09,-0.11
2021-08-01 01:39:00.104,0.08,-0.115
2021-08-01 01:39:00.108,0.1,-0.14
2021-08-01 01:39:00.112,0.085,-0.125
2021-08-01 01:39:00.116,0.1,-0.115
2021-08-01 01:39:00.120,0.085,-0.13
2021-08-01 01:39:00.124,0.09,-0.125
2021-08-01 01:39:00.128,0.075,-0.135
2021-08-01 01:39:00.132,0.07,-0.125
2021-08-01 01:39:00.136,0.095,-0.11
2021-08-01 01:39:00.140,0.1,-0.1
2021-08-01 01:39:00.144,0.085,-0.115
2021-08-01 01:39:00.148,0.075,-0.12
2021-08-01 01:39:00.152,0.085,-0.12
2021-08-01 01:39:00.156,0.095,-0.1
2021-08-01 01:39:00.160,0.095,-0.1
2021-08-01 01:39:00.164,0.1,-0.105
2021-08-01 01:39:00.168,0.095,-0.11
2021-08-01 01:39:00.172,0.095,-0.1
2021-08-01 01:39:00.176,0.085,-0.115
2021-08-01 01:39:00.180,0.1,-0.11
2021-08-01 01:39:00.184,0.075,-0.12
2021-08-01 01:39:00.188,0.085,-0.11
2021-08-01 01:39:00.192,0.1,-0.115
2021-08-01 01:39:00.196,0.085,-0.1
2021-08-01 01:39:00.200,0.115,-0.1
2021-08-01 01:39:00.204,0.105,-0.11
2021-08-01 01:39:00.208,0.1,-0.12
2021-08-01 01:39:00.212,0.085,-0.115
2021-08-01 01:39:00.216,0.085,-0.11
2021-08-01 01:39:00.220,0.08,-0.105
2021-08-01 01:39:00.224,0.08,-0.1
2021-08-01 01:39:00.228,0.08,-0.12
2021-08-01 01:39:00.232,0.105,-0.115
2021-08-01 01:39:00.236,0.11,-0.105
2021-08-01 01:39:00.240,0.085,-0.115
2021-08-01 01:39:00.244,0.095,-0.14
2021-08-01 01:39:00.248,0.09,-0.135
2021-08-01 01:39:00.252,0.08,-0.13
2021-08-01 01:39:00.256,0.09,-0.115
2021-08-01 01:39:00.260,0.075,-0.115
2021-08-01 01:39:00.264,0.07,-0.115
2021-08-01 01:39:00.268,0.085,-0.1
2021-08-01 01:39:00.272,0.095,-0.06
2021-08-01 01:39:00.276,0.085,-0.03
2021-08-01 01:39:00.280,0.105,-0.03
2021-08-01 01:39:00.284,0.11,-0.015
2021-08-01 01:39:00.288,0.125,0.0
2021-08-01 01:39:00.292,0.125,0.0
2021-08-01 01:39:00.296,0.155,0.005
2021-08-01 01:39:00.300,0.165,0.01
2021-08-01 01:39:00.304,0.15,0.035
2021-08-01 01:39:00.308,0.145,0.045
2021-08-01 01:39:00.312,0.135,0.03
2021-08-01 01:39:00.316,0.12,0.015
2021-08-01 01:39:00.320,0.095,-0.025
2021-08-01 01:39:00.324,0.075,-0.085
2021-08-01 01:39:00.328,0.06,-0.14
2021-08-01 01:39:00.332,0.025,-0.13
2021-08-01 01:39:00.336,0.03,-0.13
2021-08-01 01:39:00.340,0.025,-0.115
2021-08-01 01:39:00.344,0.03,-0.13
2021-08-01 01:39:00.348,0.04,-0.13
2021-08-01 01:39:00.352,0.065,-0.125
2021-08-01 01:39:00.356,0.075,-0.145
2021-08-01 01:39:00.360,0.06,-0.17
2021-08-01 01:39:00.364,0.085,-0.18
2021-08-01 01:39:00.368,0.08,-0.21
2021-08-01 01:39:00.372,0.075,-0.205
2021-08-01 01:39:00.376,0.08,-0.235
2021-08-01 01:39:00.380,0.08,-0.225
2021-08-01 01:39:00.384,0.065,-0.245
2021-08-01 01:39:00.388,0.045,-0.23
2021-08-01 01:39:00.392,0.04,-0.235
2021-08-01 01:39:00.396,0.055,-0.225
2021-08-01 01:39:00.400,0.045,-0.22
2021-08-01 01:39:00.404,0.06,-0.245
2021-08-01 01:39:00.408,0.05,-0.24
2021-08-01 01:39:00.412,0.06,-0.235
2021-08-01 01:39:00.416,0.055,-0.235
2021-08-01 01:39:00.420,0.06,-0.23
2021-08-01 01:39:00.424,0.045,-0.225
2021-08-01 01:39:00.428,0.055,-0.235
2021-08-01 01:39:00.432,0.055,-0.27
2021-08-01 01:39:00.436,0.06,-0.26
2021-08-01 01:39:00.440,0.055,-0.21
2021-08-01 01:39:00.444,0.07,-0.1
2021-08-01 01:39:00.448,0.085,0.105
2021-08-01 01:39:00.452,0.095,0.35
2021-08-01 01:39:00.456,0.145,0.54
2021-08-01 01:39:00.460,0.225,0.635
2021-08-01 01:39:00.464,0.285,0.62
2021-08-01 01:39:00.468,0.325,0.545
2021-08-01 01:39:00.472,0.31,0.215
2021-08-01 01:39:00.476,0.285,-0.3
2021-08-01 01:39:00.480,0.18,-0.665
2021-08-01 01:39:00.484,0.03,-0.805
2021-08-01 01:39:00.488,-0.135,-0.8
2021-08-01 01:39:00.492,-0.24,-0.71
2021-08-01 01:39:00.496,-0.265,-0.605
2021-08-01 01:39:00.500,-0.25,-0.46
2021-08-01 01:39:00.504,-0.205,-0.38
2021-08-01 01:39:00.508,-0.15,-0.295
2021-08-01 01:39:00.512,-0.04,-0.255
2021-08-01 01:39:00.516,0.01,-0.24
2021-08-01 01:39:00.520,0.015,-0.245
2021-08-01 01:39:00.524,0.035,-0.26
2021-08-01 01:39:00.528,0.055,-0.265
2021-08-01 01:39:00.532,0.035,-0.265
2021-08-01 01:39:00.536,0.02,-0.255
2021-08-01 01:39:00.540,0.035,-0.26
2021-08-01 01:39:00.544,0.035,-0.265
2021-08-01 01:39:00.548,0.03,-0.25
2021-08-01 01:39:00.552,0.03,-0.24
2021-08-01 01:39:00.556,0.035,-0.235
2021-08-01 01:39:00.560,0.035,-0.235
2021-08-01 01:39:00.564,0.03,-0.255
2021-08-01 01:39:00.568,0.04,-0.25
2021-08-01 01:39:00.572,0.05,-0.255
2021-08-01 01:39:00.576,0.045,-0.245
2021-08-01 01:39:00.580,0.05,-0.245
2021-08-01 01:39:00.584,0.03,-0.25
2021-08-01 01:39:00.588,0.03,-0.245
2021-08-01 01:39:00.592,0.045,-0.235
2021-08-01 01:39:00.596,0.04,-0.22
2021-08-01 01:39:00.600,0.04,-0.21
2021-08-01 01:39:00.604,0.045,-0.215
2021-08-01 01:39:00.608,0.03,-0.225
2021-08-01 01:39:00.612,0.04,-0.235
2021-08-01 01:39:00.616,0.04,-0.225
2021-08-01 01:39:00.620,0.035,-0.2
2021-08-01 01:39:00.624,0.04,-0.21
2021-08-01 01:39:00.628,0.04,-0.21
2021-08-01 01:39:00.632,0.03,-0.215
2021-08-01 01:39:00.636,0.045,-0.175
2021-08-01 01:39:00.640,0.035,-0.165
2021-08-01 01:39:00.644,0.05,-0.16
2021-08-01 01:39:00.648,0.03,-0.155
2021-08-01 01:39:00.652,0.04,-0.17
2021-08-01 01:39:00.656,0.035,-0.14
2021-08-01 01:39:00.660,0.035,-0.125
2021-08-01 01:39:00.664,0.04,-0.135
2021-08-01 01:39:00.668,0.04,-0.13
2021-08-01 01:39:00.672,0.05,-0.115
2021-08-01 01:39:00.676,0.05,-0.085
2021-08-01 01:39:00.680,0.04,-0.085
2021-08-01 01:39:00.684,0.035,-0.09
2021-08-01 01:39:00.688,0.045,-0.08
2021-08-01 01:39:00.692,0.06,-0.065
2021-08-01 01:39:00.696,0.065,-0.045
2021-08-01 01:39:00.700,0.07,-0.04
2021-08-01 01:39:00.704,0.06,-0.045
2021-08-01 01:39:00.708,0.06,-0.05
2021-08-01 01:39:00.712,0.065,-0.04
2021-08-01 01:39:00.716,0.065,-0.005
2021-08-01 01:39:00.720,0.055,0.0
2021-08-01 01:39:00.724,0.07,0.0
2021-08-01 01:39:00.728,0.075,0.0
2021-08-01 01:39:00.732,0.065,0.0
2021-08-01 01:39:00.736,0.075,0.025
2021-08-01 01:39:00.740,0.085,0.025
2021-08-01 01:39:00.744,0.075,0.0
2021-08-01 01:39:00.748,0.085,-0.02
2021-08-01 01:39:00.752,0.085,-0.025
2021-08-01 01:39:00.756,0.105,-0.045
2021-08-01 01:39:00.760,0.09,-0.06
2021-08-01 01:39:00.764,0.08,-0.07
2021-08-01 01:39:00.768,0.1,-0.065
2021-08-01 01:39:00.772,0.105,-0.06
2021-08-01 01:39:00.776,0.11,-0.065
2021-08-01 01:39:00.780,0.11,-0.065
2021-08-01 01:39:00.784,0.105,-0.085
2021-08-01 01:39:00.788,0.095,-0.11
2021-08-01 01:39:00.792,0.085,-0.115
2021-08-01 01:39:00.796,0.08,-0.12
2021-08-01 01:39:00.800,0.075,-0.135
2021-08-01 01:39:00.804,0.09,-0.115
2021-08-01 01:39:00.808,0.08,-0.105
2021-08-01 01:39:00.812,0.09,-0.08
2021-08-01 01:39:00.816,0.105,-0.085
2021-08-01 01:39:00.820,0.11,-0.095
2021-08-01 01:39:00.824,0.09,-0.1
2021-08-01 01:39:00.828,0.09,-0.105
2021-08-01 01:39:00.832,0.08,-0.1
2021-08-01 01:39:00.836,0.075,-0.095
2021-08-01 01:39:00.840,0.065,-0.105
2021-08-01 01:39:00.844,0.07,-0.105
2021-08-01 01:39:00.848,0.08,-0.09
2021-08-01 01:39:00.852,0.08,-0.09
2021-08-01 01:39:00.856,0.105,-0.08
2021-08-01 01:39:00.860,0.08,-0.08
2021-08-01 01:39:00.864,0.09,-0.08
2021-08-01 01:39:00.868,0.085,-0.09
2021-08-01 01:39:00.872,0.1,-0.08
2021-08-01 01:39:00.876,0.09,-0.08
2021-08-01 01:39:00.880,0.095,-0.08
2021-08-01 01:39:00.884,0.11,-0.07
2021-08-01 01:39:00.888,0.075,-0.09
2021-08-01 01:39:00.892,0.11,-0.1
2021-08-01 01:39:00.896,0.095,-0.095
2021-08-01 01:39:00.900,0.085,-0.09
2021-08-01 01:39:00.904,0.08,-0.095
2021-08-01 01:39:00.908,0.095,-0.085
2021-08-01 01:39:00.912,0.11,-0.085
2021-08-01 01:39:00.916,0.085,-0.09
2021-08-01 01:39:00.920,0.095,-0.085
2021-08-01 01:39:00.924,0.095,-0.11
2021-08-01 01:39:00.928,0.1,-0.1
2021-08-01 01:39:00.932,0.08,-0.105
2021-08-01 01:39:00.936,0.095,-0.095
2021-08-01 01:39:00.940,0.105,-0.085
2021-08-01 01:39:00.944,0.085,-0.09
2021-08-01 01:39:00.948,0.09,-0.14
2021-08-01 01:39:00.952,0.105,-0.125
2021-08-01 01:39:00.956,0.1,-0.065
2021-08-01 01:39:00.960,0.09,-0.025
2021-08-01 01:39:00.964,0.105,-0.02
2021-08-01 01:39:00.968,0.1,0.0
2021-08-01 01:39:00.972,0.135,0.03
2021-08-01 01:39:00.976,0.135,0.07
2021-08-01 01:39:00.980,0.145,0.055
2021-08-01 01:39:00.984,0.135,0.065
2021-08-01 01:39:00.988,0.155,0.07
2021-08-01 01:39:00.992,0.18,0.08
2021-08-01 01:39:00.996,0.175,0.105
2021-08-01 01:39:01.000,0.17,0.095
2021-08-01 01:39:01.004,0.155,0.06
2021-08-01 01:39:01.008,0.125,0.005
2021-08-01 01:39:01.012,0.095,-0.05
2021-08-01 01:39:01.016,0.095,-0.09
2021-08-01 01:39:01.020,0.065,-0.105
2021-08-01 01:39:01.024,0.06,-0.1
2021-08-01 01:39:01.028,0.045,-0.095
2021-08-01 01:39:01.032,0.05,-0.095
2021-08-01 01:39:01.036,0.06,-0.115
2021-08-01 01:39:01.040,0.065,-0.115
2021-08-01 01:39:01.044,0.065,-0.14
2021-08-01 01:39:01.048,0.095,-0.135
2021-08-01 01:39:01.052,0.09,-0.135
2021-08-01 01:39:01.056,0.105,-0.14
2021-08-01 01:39:01.060,0.11,-0.16
2021-08-01 01:39:01.064,0.115,-0.195
2021-08-01 01:39:01.068,0.09,-0.22
2021-08-01 01:39:01.072,0.09,-0.205
2021-08-01 01:39:01.076,0.075,-0.215
2021-08-01 01:39:01.080,0.06,-0.19
2021-08-01 01:39:01.084,0.08,-0.22
2021-08-01 01:39:01.088,0.08,-0.22
2021-08-01 01:39:01.092,0.085,-0.22
2021-08-01 01:39:01.096,0.07,-0.19
2021-08-01 01:39:01.100,0.065,-0.2
2021-08-01 01:39:01.104,0.07,-0.205
2021-08-01 01:39:01.108,0.07,-0.205
2021-08-01 01:39:01.112,0.065,-0.22
2021-08-01 01:39:01.116,0.06,-0.215
2021-08-01 01:39:01.120,0.075,-0.21
2021-08-01 01:39:01.124,0.085,-0.22
2021-08-01 01:39:01.128,0.07,-0.22
2021-08-01 01:39:01.132,0.06,-0.165
2021-08-01 01:39:01.136,0.095,-0.015
2021-08-01 01:39:01.140,0.115,0.18
2021-08-01 01:39:01.144,0.125,0.39
2021-08-01 01:39:01.148,0.18,0.585
2021-08-01 01:39:01.152,0.215,0.645
2021-08-01 01:39:01.156,0.31,0.625
2021-08-01 01:39:01.160,0.355,0.52
2021-08-01 01:39:01.164,0.345,0.135
2021-08-01 01:39:01.168,0.315,-0.385
2021-08-01 01:39:01.172,0.24,-0.68
2021-08-01 01:39:01.176,0.075,-0.795
2021-08-01 01:39:01.180,-0.1,-0.78
2021-08-01 01:39:01.184,-0.205,-0.73
2021-08-01 01:39:01.188,-0.22,-0.635
2021-08-01 01:39:01.192,-0.22,-0.505
2021-08-01 01:39:01.196,-0.18,-0.405
2021-08-01 01:39:01.200,-0.125,-0.3
2021-08-01 01:39:01.204,-0.035,-0.24
2021-08-01 01:39:01.208,0.0,-0.235
2021-08-01 01:39:01.212,0.05,-0.255
2021-08-01 01:39:01.216,0.07,-0.235
2021-08-01 01:39:01.220,0.07,-0.23
2021-08-01 01:39:01.224,0.065,-0.23
2021-08-01 01:39:01.228,0.075,-0.225
2021-08-01 01:39:01.232,0.06,-0.23
2021-08-01 01:39:01.236,0.07,-0.24
2021-08-01 01:39:01.240,0.07,-0.23
2021-08-01 01:39:01.244,0.05,-0.235
2021-08-01 01:39:01.248,0.045,-0.23
2021-08-01 01:39:01.252,0.07,-0.24
2021-08-01 01:39:01.256,0.075,-0.23
2021-08-01 01:39:01.260,0.065,-0.23
2021-08-01 01:39:01.264,0.06,-0.22
2021-08-01 01:39:01.268,0.08,-0.25
2021-08-01 01:39:01.272,0.065,-0.22
2021-08-01 01:39:01.276,0.075,-0.235
2021-08-01 01:39:01.280,0.065,-0.245
2021-08-01 01:39:01.284,0.065,-0.245
2021-08-01 01:39:01.288,0.06,-0.22
2021-08-01 01:39:01.292,0.065,-0.245
2021-08-01 01:39:01.296,0.07,-0.24
2021-08-01 01:39:01.300,0.06,-0.235
2021-08-01 01:39:01.304,0.065,-0.235
2021-08-01 01:39:01.308,0.05,-0.24
2021-08-01 01:39:01.312,0.045,-0.215
2021-08-01 01:39:01.316,0.05,-0.21
2021-08-01 01:39:01.320,0.06,-0.2
2021-08-01 01:39:01.324,0.055,-0.195
2021-08-01 01:39:01.328,0.045,-0.21
2021-08-01 01:39:01.332,0.055,-0.205
2021-08-01 01:39:01.336,0.04,-0.195
2021-08-01 01:39:01.340,0.055,-0.185
2021-08-01 01:39:01.344,0.055,-0.17
2021-08-01 01:39:01.348,0.065,-0.165
2021-08-01 01:39:01.352,0.055,-0.145
2021-08-01 01:39:01.356,0.05,-0.145
2021-08-01 01:39:01.360,0.07,-0.125
2021-08-01 01:39:01.364,0.06,-0.12
2021-08-01 01:39:01.368,0.06,-0.125
2021-08-01 01:39:01.372,0.065,-0.12
2021-08-01 01:39:01.376,0.07,-0.115
2021-08-01 01:39:01.380,0.065,-0.105
2021-08-01 01:39:01.384,0.065,-0.1
2021-08-01 01:39:01.388,0.08,-0.1
2021-08-01 01:39:01.392,0.065,-0.105
2021-08-01 01:39:01.396,0.075,-0.1
2021-08-01 01:39:01.400,0.09,-0.08
2021-08-01 01:39:01.404,0.06,-0.07
2021-08-01 01:39:01.408,0.065,-0.055
2021-08-01 01:39:01.412,0.075,-0.055
2021-08-01 01:39:01.416,0.065,-0.04
2021-08-01 01:39:01.420,0.08,-0.045
2021-08-01 01:39:01.424,0.07,-0.05
2021-08-01 01:39:01.428,0.085,-0.055
2021-08-01 01:39:01.432,0.075,-0.05
2021-08-01 01:39:01.436,0.06,-0.06
2021-08-01 01:39:01.440,0.085,-0.065
2021-08-01 01:39:01.444,0.09,-0.075
2021-08-01 01:39:01.448,0.075,-0.08
2021-08-01 01:39:01.452,0.08,-0.12
2021-08-01 01:39:01.456,0.065,-0.12
2021-08-01 01:39:01.460,0.09,-0.125
2021-08-01 01:39:01.464,0.095,-0.12
2021-08-01 01:39:01.468,0.08,-0.14
2021-08-01 01:39:01.472,0.065,-0.13
2021-08-01 01:39:01.476,0.08,-0.13
2021-08-01 01:39:01.480,0.08,-0.14
2021-08-01 01:39:01.484,0.075,-0.145
2021-08-01 01:39:01.488,0.07,-0.15
2021-08-01 01:39:01.492,0.075,-0.16
2021-08-01 01:39:01.496,0.065,-0.15
2021-08-01 01:39:01.500,0.085,-0.14
2021-08-01 01:39:01.504,0.065,-0.15
2021-08-01 01:39:01.508,0.075,-0.15
2021-08-01 01:39:01.512,0.07,-0.15
2021-08-01 01:39:01.516,0.075,-0.165
2021-08-01 01:39:01.520,0.055,-0.15
2021-08-01 01:39:01.524,0.07,-0.145
2021-08-01 01:39:01.528,0.07,-0.15
2021-08-01 01:39:01.532,0.07,-0.155
2021-08-01 01:39:01.536,0.06,-0.14
2021-08-01 01:39:01.540,0.065,-0.135
2021-08-01 01:39:01.544,0.065,-0.13
2021-08-01 01:39:01.548,0.06,-0.14
2021-08-01 01:39:01.552,0.055,-0.145
2021-08-01 01:39:01.556,0.05,-0.145
2021-08-01 01:39:01.560,0.04,-0.145
2021-08-01 01:39:01.564,0.06,-0.135
2021-08-01 01:39:01.568,0.045,-0.135
2021-08-01 01:39:01.572,0.045,-0.145
2021-08-01 01:39:01.576,0.055,-0.14
2021-08-01 01:39:01.580,0.06,-0.135
2021-08-01 01:39:01.584,0.065,-0.145
2021-08-01 01:39:01.588,0.065,-0.15
2021-08-01 01:39:01.592,0.05,-0.16
2021-08-01 01:39:01.596,0.05,-0.14
2021-08-01 01:39:01.600,0.04,-0.135
2021-08-01 01:39:01.604,0.045,-0.14
2021-08-01 01:39:01.608,0.055,-0.165
2021-08-01 01:39:01.612,0.05,-0.155
2021-08-01 01:39:01.616,0.045,-0.165
2021-08-01 01:39:01.620,0.06,-0.17
2021-08-01 01:39:01.624,0.05,-0.155
2021-08-01 01:39:01.628,0.045,-0.16
2021-08-01 01:39:01.632,0.05,-0.17
2021-08-01 01:39:01.636,0.05,-0.17
2021-08-01 01:39:01.640,0.05,-0.16
2021-08-01 01:39:01.644,0.06,-0.17
2021-08-01 01:39:01.648,0.06,-0.15
2021-08-01 01:39:01.652,0.05,-0.13
2021-08-01 01:39:01.656,0.05,-0.105
2021-08-01 01:39:01.660,0.06,-0.07
2021-08-01 01:39:01.664,0.075,-0.045
2021-08-01 01:39:01.668,0.1,-0.03
2021-08-01 01:39:01.672,0.115,-0.03
2021-08-01 01:39:01.676,0.11,-0.025
2021-08-01 01:39:01.680,0.125,-0.005
2021-08-01 01:39:01.684,0.13,0.015
2021-08-01 01:39:01.688,0.13,0.005
2021-08-01 01:39:01.692,0.105,-0.015
2021-08-01 01:39:01.696,0.075,-0.04
2021-08-01 01:39:01.700,0.065,-0.09
2021-08-01 01:39:01.704,0.045,-0.135
2021-08-01 01:39:01.708,0.015,-0.175
2021-08-01 01:39:01.712,0.005,-0.17
2021-08-01 01:39:01.716,-0.005,-0.195
2021-08-01 01:39:01.720,0.0,-0.165
2021-08-01 01:39:01.724,-0.01,-0.155
2021-08-01 01:39:01.728,0.0,-0.19
2021-08-01 01:39:01.732,0.01,-0.2
2021-08-01 01:39:01.736,0.025,-0.21
2021-08-01 01:39:01.740,0.035,-0.21
2021-08-01 01:39:01.744,0.05,-0.225
2021-08-01 01:39:01.748,0.05,-0.25
2021-08-01 01:39:01.752,0.05,-0.265
2021-08-01 01:39:01.756,0.035,-0.29
2021-08-01 01:39:01.760,0.045,-0.28
2021-08-01 01:39:01.764,0.025,-0.28
2021-08-01 01:39:01.768,0.015,-0.295
2021-08-01 01:39:01.772,0.03,-0.29
2021-08-01 01:39:01.776,0.025,-0.27
2021-08-01 01:39:01.780,0.035,-0.285
2021-08-01 01:39:01.784,0.05,-0.285
2021-08-01 01:39:01.788,0.025,-0.3
2021-08-01 01:39:01.792,0.015,-0.295
2021-08-01 01:39:01.796,0.04,-0.295
2021-08-01 01:39:01.800,0.03,-0.28
2021-08-01 01:39:01.804,0.02,-0.28
2021-08-01 01:39:01.808,0.03,-0.295
2021-08-01 01:39:01.812,0.035,-0.31
2021-08-01 01:39:01.816,0.025,-0.295
2021-08-01 01:39:01.820,0.035,-0.275
2021-08-01 01:39:01.824,0.04,-0.15
2021-08-01 01:39:01.828,0.08,0.03
2021-08-01 01:39:01.832,0.095,0.255
2021-08-01 01:39:01.836,0.115,0.47
2021-08-01 01:39:01.840,0.19,0.6
2021-08-01 01:39:01.844,0.255,0.62
2021-08-01 01:39:01.848,0.315,0.555
2021-08-01 01:39:01.852,0.315,0.295
2021-08-01 01:39:01.856,0.265,-0.23
2021-08-01 01:39:01.860,0.17,-0.64
2021-08-01 01:39:01.864,0.025,-0.82
2021-08-01 01:39:01.868,-0.18,-0.845
2021-08-01 01:39:01.872,-0.28,-0.765
2021-08-01 01:39:01.876,-0.305,-0.625
2021-08-01 01:39:01.880,-0.255,-0.5
2021-08-01 01:39:01.884,-0.225,-0.375
2021-08-01 01:39:01.888,-0.13,-0.31
2021-08-01 01:39:01.892,-0.04,-0.305
2021-08-01 01:39:01.896,0.01,-0.295
2021-08-01 01:39:01.900,0.025,-0.285
2021-08-01 01:39:01.904,0.04,-0.29
2021-08-01 01:39:01.908,0.045,-0.295
2021-08-01 01:39:01.912,0.035,-0.29
2021-08-01 01:39:01.916,0.035,-0.305
2021-08-01 01:39:01.920,0.045,-0.305
2021-08-01 01:39:01.924,0.035,-0.28
2021-08-01 01:39:01.928,0.035,-0.29
2021-08-01 01:39:01.932,0.04,-0.28
2021-08-01 01:39:01.936,0.05,-0.28
2021-08-01 01:39:01.940,0.025,-0.265
2021-08-01 01:39:01.944,0.03,-0.275
2021-08-01 01:39:01.948,0.025,-0.28
2021-08-01 01:39:01.952,0.04,-0.28
2021-08-01 01:39:01.956,0.04,-0.285
2021-08-01 01:39:01.960,0.045,-0.265
2021-08-01 01:39:01.964,0.05,-0.26
2021-08-01 01:39:01.968,0.04,-0.255
2021-08-01 01:39:01.972,0.045,-0.26
2021-08-01 01:39:01.976,0.04,-0.26
2021-08-01 01:39:01.980,0.05,-0.25
2021-08-01 01:39:01.984,0.05,-0.235
2021-08-01 01:39:01.988,0.055,-0.235
2021-08-01 01:39:01.992,0.045,-0.24
2021-08-01 01:39:01.996,0.04,-0.225
2021-08-01 01:39:02.000,0.05,-0.22
2021-08-01 01:39:02.004,0.045,-0.2
2021-08-01 01:39:02.008,0.045,-0.205
2021-08-01 01:39:02.012,0.045,-0.23
2021-08-01 01:39:02.016,0.05,-0.21
2021-08-01 01:39:02.020,0.05,-0.19
2021-08-01 01:39:02.024,0.05,-0.17
2021-08-01 01:39:02.028,0.045,-0.175
2021-08-01 01:39:02.032,0.055,-0.16
2021-08-01 01:39:02.036,0.04,-0.155
2021-08-01 01:39:02.040,0.06,-0.145
2021-08-01 01:39:02.044,0.06,-0.15
2021-08-01 01:39:02.048,0.065,-0.12
2021-08-01 01:39:02.052,0.055,-0.135
2021-08-01 01:39:02.056,0.065,-0.115
2021-08-01 01:39:02.060,0.06,-0.1
2021-08-01 01:39:02.064,0.06,-0.09
2021-08-01 01:39:02.068,0.08,-0.105
2021-08-01 01:39:02.072,0.07,-0.09
2021-08-01 01:39:02.076,0.08,-0.095
2021-08-01 01:39:02.080,0.095,-0.07
2021-08-01 01:39:02.084,0.075,-0.06
2021-08-01 01:39:02.088,0.065,-0.05
2021-08-01 01:39:02.092,0.085,-0.065
2021-08-01 01:39:02.096,0.08,-0.06
2021-08-01 01:39:02.100,0.075,-0.035
2021-08-01 01:39:02.104,0.07,-0.03
2021-08-01 01:39:02.108,0.085,-0.045
2021-08-01 01:39:02.112,0.07,-0.025
2021-08-01 01:39:02.116,0.075,-0.035
2021-08-01 01:39:02.120,0.085,-0.03
2021-08-01 01:39:02.124,0.085,-0.05
2021-08-01 01:39:02.128,0.09,-0.06
2021-08-01 01:39:02.132,0.08,-0.06
2021-08-01 01:39:02.136,0.065,-0.09
2021-08-01 01:39:02.140,0.105,-0.095
2021-08-01 01:39:02.144,0.08,-0.1
2021-08-01 01:39:02.148,0.08,-0.125
2021-08-01 01:39:02.152,0.085,-0.12
2021-08-01 01:39:02.156,0.075,-0.125
2021-08-01 01:39:02.160,0.08,-0.13
2021-08-01 01:39:02.164,0.065,-0.12
2021-08-01 01:39:02.168,0.09,-0.14
2021-08-01 01:39:02.172,0.08,-0.145
2021-08-01 01:39:02.176,0.075,-0.14
2021-08-01 01:39:02.180,0.09,-0.15
2021-08-01 01:39:02.184,0.085,-0.13
2021-08-01 01:39:02.188,0.07,-0.14
2021-08-01 01:39:02.192,0.08,-0.15
2021-08-01 01:39:02.196,0.08,-0.16
2021-08-01 01:39:02.200,0.085,-0.145
2021-08-01 01:39:02.204,0.07,-0.12
2021-08-01 01:39:02.208,0.085,-0.12
2021-08-01 01:39:02.212,0.07,-0.13
2021-08-01 01:39:02.216,0.085,-0.12
2021-08-01 01:39:02.220,0.06,-0.12
2021-08-01 01:39:02.224,0.085,-0.115
2021-08-01 01:39:02.228,0.085,-0.125
2021-08-01 01:39:02.232,0.085,-0.12
2021-08-01 01:39:02.236,0.09,-0.125
2021-08-01 01:39:02.240,0.085,-0.125
2021-08-01 01:39:02.244,0.06,-0.13
2021-08-01 01:39:02.248,0.08,-0.125
2021-08-01 01:39:02.252,0.07,-0.125
2021-08-01 01:39:02.256,0.08,-0.135
2021-08-01 01:39:02.260,0.055,-0.12
2021-08-01 01:39:02.264,0.075,-0.11
2021-08-01 01:39:02.268,0.075,-0.12
2021-08-01 01:39:02.272,0.065,-0.14
2021-08-01 01:39:02.276,0.06,-0.12
2021-08-01 01:39:02.280,0.07,-0.12
2021-08-01 01:39:02.284,0.065,-0.13
2021-08-01 01:39:02.288,0.075,-0.14
2021-08-01 01:39:02.292,0.045,-0.135
2021-08-01 01:39:02.296,0.065,-0.145
2021-08-01 01:39:02.300,0.06,-0.14
2021-08-01 01:39:02.304,0.065,-0.135
2021-08-01 01:39:02.308,0.04,-0.13
2021-08-01 01:39:02.312,0.04,-0.145
2021-08-01 01:39:02.316,0.065,-0.155
2021-08-01 01:39:02.320,0.07,-0.14
2021-08-01 01:39:02.324,0.045,-0.14
2021-08-01 01:39:02.328,0.06,-0.14
2021-08-01 01:39:02.332,0.05,-0.15
2021-08-01 01:39:02.336,0.055,-0.13
2021-08-01 01:39:02.340,0.035,-0.1
2021-08-01 01:39:02.344,0.055,-0.085
2021-08-01 01:39:02.348,0.065,-0.065
2021-08-01 01:39:02.352,0.075,-0.04
2021-08-01 01:39:02.356,0.09,-0.03
2021-08-01 01:39:02.360,0.095,-0.025
2021-08-01 01:39:02.364,0.105,-0.005
2021-08-01 01:39:02.368,0.11,0.01
2021-08-01 01:39:02.372,0.115,0.01
2021-08-01 01:39:02.376,0.12,0.035
2021-08-01 01:39:02.380,0.11,-0.005
2021-08-01 01:39:02.384,0.1,-0.03
2021-08-01 01:39:02.388,0.05,-0.075
2021-08-01 01:39:02.392,0.045,-0.115
2021-08-01 01:39:02.396,0.03,-0.16
2021-08-01 01:39:02.400,0.01,-0.155
2021-08-01 01:39:02.404,0.0,-0.155
2021-08-01 01:39:02.408,0.0,-0.14
2021-08-01 01:39:02.412,-0.015,-0.14
2021-08-01 01:39:02.416,-0.005,-0.135
2021-08-01 01:39:02.420,0.01,-0.14
2021-08-01 01:39:02.424,0.03,-0.18
2021-08-01 01:39:02.428,0.03,-0.2
2021-08-01 01:39:02.432,0.04,-0.215
2021-08-01 01:39:02.436,0.045,-0.225
2021-08-01 01:39:02.440,0.035,-0.225
2021-08-01 01:39:02.444,0.035,-0.235
2021-08-01 01:39:02.448,0.02,-0.25
2021-08-01 01:39:02.452,0.015,-0.27
2021-08-01 01:39:02.456,0.005,-0.275
2021-08-01 01:39:02.460,0.0,-0.27
2021-08-01 01:39:02.464,0.005,-0.27
2021-08-01 01:39:02.468,-0.005,-0.27
2021-08-01 01:39:02.472,-0.005,-0.265
2021-08-01 01:39:02.476,0.005,-0.275
2021-08-01 01:39:02.480,0.015,-0.25
2021-08-01 01:39:02.484,0.005,-0.265
2021-08-01 01:39:02.488,0.01,-0.255
2021-08-01 01:39:02.492,0.0,-0.265
2021-08-01 01:39:02.496,0.0,-0.255
2021-08-01 01:39:02.500,0.0,-0.28
2021-08-01 01:39:02.504,0.02,-0.29
2021-08-01 01:39:02.508,0.0,-0.29
2021-08-01 01:39:02.512,0.0,-0.22
2021-08-01 01:39:02.516,0.03,-0.055
2021-08-01 01:39:02.520,0.06,0.185
2021-08-01 01:39:02.524,0.065,0.405
2021-08-01 01:39:02.528,0.125,0.58
2021-08-01 01:39:02.532,0.205,0.615
2021-08-01 01:39:02.536,0.265,0.585
2021-08-01 01:39:02.540,0.26,0.39
2021-08-01 01:39:02.544,0.2,-0.115
2021-08-01 01:39:02.548,0.155,-0.58
2021-08-01 01:39:02.552,0.005,-0.795
2021-08-01 01:39:02.556,-0.19,-0.845
2021-08-01 01:39:02.560,-0.32,-0.815
2021-08-01 01:39:02.564,-0.335,-0.695
2021-08-01 01:39:02.568,-0.33,-0.555
2021-08-01 01:39:02.572,-0.27,-0.455
2021-08-01 01:39:02.576,-0.21,-0.35
2021-08-01 01:39:02.580,-0.14,-0.29
2021-08-01 01:39:02.584,-0.08,-0.27
2021-08-01 01:39:02.588,-0.01,-0.27
2021-08-01 01:39:02.592,-0.015,-0.275
2021-08-01 01:39:02.596,-0.01,-0.295
2021-08-01 01:39:02.600,0.005,-0.28
2021-08-01 01:39:02.604,-0.01,-0.285
2021-08-01 01:39:02.608,-0.02,-0.275
2021-08-01 01:39:02.612,0.0,-0.28
2021-08-01 01:39:02.616,-0.01,-0.29
2021-08-01 01:39:02.620,-0.01,-0.26
2021-08-01 01:39:02.624,-0.005,-0.26
2021-08-01 01:39:02.628,0.0,-0.26
2021-08-01 01:39:02.632,0.0,-0.255
2021-08-01 01:39:02.636,0.0,-0.275
2021-08-01 01:39:02.640,-0.01,-0.28
2021-08-01 01:39:02.644,-0.01,-0.285
2021-08-01 01:39:02.648,0.0,-0.27
2021-08-01 01:39:02.652,-0.005,-0.265
2021-08-01 01:39:02.656,0.0,-0.275
2021-08-01 01:39:02.660,0.005,-0.275
2021-08-01 01:39:02.664,-0.015,-0.255
2021-08-01 01:39:02.668,0.005,-0.265
2021-08-01 01:39:02.672,0.005,-0.255
2021-08-01 01:39:02.676,-0.005,-0.255
2021-08-01 01:39:02.680,0.0,-0.26
2021-08-01 01:39:02.684,0.005,-0.255
2021-08-01 01:39:02.688,-0.005,-0.26
2021-08-01 01:39:02.692,-0.02,-0.25
2021-08-01 01:39:02.696,-0.005,-0.245
2021-08-01 01:39:02.700,-0.005,-0.235
2021-08-01 01:39:02.704,-0.025,-0.225
2021-08-01 01:39:02.708,-0.01,-0.2
2021-08-01 01:39:02.712,-0.01,-0.21
2021-08-01 01:39:02.716,-0.005,-0.185
2021-08-01 01:39:02.720,-0.015,-0.19
2021-08-01 01:39:02.724,-0.01,-0.185
2021-08-01 01:39:02.728,0.0,-0.18
2021-08-01 01:39:02.732,-0.005,-0.185
2021-08-01 01:39:02.736,-0.01,-0.175
2021-08-01 01:39:02.740,-0.005,-0.145
2021-08-01 01:39:02.744,0.0,-0.13
2021-08-01 01:39:02.748,0.005,-0.125
2021-08-01 01:39:02.752,0.01,-0.12
2021-08-01 01:39:02.756,0.0,-0.105
2021-08-01 01:39:02.760,0.0,-0.115
2021-08-01 01:39:02.764,0.0,-0.08
2021-08-01 01:39:02.768,0.0,-0.095
2021-08-01 01:39:02.772,0.0,-0.085
2021-08-01 01:39:02.776,0.0,-0.085
2021-08-01 01:39:02.780,0.005,-0.06
2021-08-01 01:39:02.784,0.0,-0.06
2021-08-01 01:39:02.788,0.0,-0.03
2021-08-01 01:39:02.792,0.015,-0.025
2021-08-01 01:39:02.796,0.01,-0.02
2021-08-01 01:39:02.800,0.025,-0.015
2021-08-01 01:39:02.804,0.02,-0.01
2021-08-01 01:39:02.808,0.035,-0.015
2021-08-01 01:39:02.812,0.02,-0.025
2021-08-01 01:39:02.816,0.005,-0.04
2021-08-01 01:39:02.820,0.035,-0.03
2021-08-01 01:39:02.824,0.02,-0.025
2021-08-01 01:39:02.828,0.03,-0.075
2021-08-01 01:39:02.832,0.035,-0.095
2021-08-01 01:39:02.836,0.025,-0.105
2021-08-01 01:39:02.840,0.02,-0.095
2021-08-01 01:39:02.844,0.04,-0.125
2021-08-01 01:39:02.848,0.02,-0.115
2021-08-01 01:39:02.852,0.02,-0.125
2021-08-01 01:39:02.856,0.02,-0.12
2021-08-01 01:39:02.860,0.02,-0.115
2021-08-01 01:39:02.864,0.01,-0.12
2021-08-01 01:39:02.868,0.025,-0.125
2021-08-01 01:39:02.872,0.02,-0.14
2021-08-01 01:39:02.876,0.02,-0.13
2021-08-01 01:39:02.880,0.015,-0.125
2021-08-01 01:39:02.884,0.025,-0.13
2021-08-01 01:39:02.888,0.02,-0.145
2021-08-01 01:39:02.892,0.015,-0.125
2021-08-01 01:39:02.896,0.02,-0.11
2021-08-01 01:39:02.900,0.015,-0.12
2021-08-01 01:39:02.904,0.04,-0.11
2021-08-01 01:39:02.908,0.025,-0.12
2021-08-01 01:39:02.912,0.035,-0.115
2021-08-01 01:39:02.916,0.02,-0.095
2021-08-01 01:39:02.920,0.02,-0.135
2021-08-01 01:39:02.924,0.025,-0.14
2021-08-01 01:39:02.928,0.03,-0.11
2021-08-01 01:39:02.932,0.015,-0.1
2021-08-01 01:39:02.936,0.015,-0.11
2021-08-01 01:39:02.940,0.035,-0.1
2021-08-01 01:39:02.944,0.03,-0.08
2021-08-01 01:39:02.948,0.02,-0.095
2021-08-01 01:39:02.952,0.02,-0.105
2021-08-01 01:39:02.956,0.04,-0.1
2021-08-01 01:39:02.960,0.02,-0.105
2021-08-01 01:39:02.964,0.04,-0.11
2021-08-01 01:39:02.968,0.03,-0.13
2021-08-01 01:39:02.972,0.03,-0.13
2021-08-01 01:39:02.976,0.015,-0.145
2021-08-01 01:39:02.980,0.04,-0.135
2021-08-01 01:39:02.984,0.02,-0.115
2021-08-01 01:39:02.988,0.015,-0.1
2021-08-01 01:39:02.992,0.025,-0.115
2021-08-01 01:39:02.996,0.02,-0.125
2021-08-01 01:39:03.000,0.015,-0.13
2021-08-01 01:39:03.004,0.015,-0.115
2021-08-01 01:39:03.008,0.015,-0.125
2021-08-01 01:39:03.012,0.025,-0.11
2021-08-01 01:39:03.016,0.025,-0.11
2021-08-01 01:39:03.020,0.025,-0.105
2021-08-01 01:39:03.024,0.035,-0.1
2021-08-01 01:39:03.028,0.02,-0.09
2021-08-01 01:39:03.032,0.04,-0.075
2021-08-01 01:39:03.036,0.04,-0.04
2021-08-01 01:39:03.040,0.055,0.0
2021-08-01 01:39:03.044,0.05,0.045
2021-08-01 01:39:03.048,0.075,0.025
2021-08-01 01:39:03.052,0.085,0.035
2021-08-01 01:39:03.056,0.085,0.04
2021-08-01 01:39:03.060,0.1,0.045
2021-08-01 01:39:03.064,0.115,0.06
2021-08-01 01:39:03.068,0.11,0.055
2021-08-01 01:39:03.072,0.075,0.015
2021-08-01 01:39:03.076,0.075,-0.005
2021-08-01 01:39:03.080,0.055,-0.055
2021-08-01 01:39:03.084,0.015,-0.09
2021-08-01 01:39:03.088,-0.005,-0.115
2021-08-01 01:39:03.092,-0.005,-0.15
2021-08-01 01:39:03.096,-0.015,-0.135
2021-08-01 01:39:03.100,-0.025,-0.12
2021-08-01 01:39:03.104,-0.02,-0.1
2021-08-01 01:39:03.108,0.005,-0.1
2021-08-01 01:39:03.112,0.005,-0.125
2021-08-01 01:39:03.116,0.01,-0.165
2021-08-01 01:39:03.120,0.015,-0.16
2021-08-01 01:39:03.124,0.015,-0.2
2021-08-01 01:39:03.128,0.04,-0.205
2021-08-01 01:39:03.132,0.04,-0.205
2021-08-01 01:39:03.136,0.025,-0.235
2021-08-01 01:39:03.140,0.005,-0.225
2021-08-01 01:39:03.144,-0.015,-0.23
2021-08-01 01:39:03.148,0.0,-0.205
2021-08-01 01:39:03.152,0.01,-0.205
2021-08-01 01:39:03.156,0.0,-0.22
2021-08-01 01:39:03.160,0.0,-0.24
2021-08-01 01:39:03.164,-0.01,-0.245
2021-08-01 01:39:03.168,-0.01,-0.23
2021-08-01 01:39:03.172,-0.005,-0.225
2021-08-01 01:39:03.176,0.0,-0.235
2021-08-01 01:39:03.180,-0.015,-0.23
2021-08-01 01:39:03.184,0.0,-0.21
2021-08-01 01:39:03.188,0.0,-0.2
2021-08-01 01:39:03.192,-0.005,-0.235
2021-08-01 01:39:03.196,-0.005,-0.245
2021-08-01 01:39:03.200,0.0,-0.215
2021-08-01 01:39:03.204,0.0,-0.08
2021-08-01 01:39:03.208,0.02,0.135
2021-08-01 01:39:03.212,0.035,0.355
2021-08-01 01:39:03.216,0.075,0.535
2021-08-01 01:39:03.220,0.145,0.625
2021-08-01 01:39:03.224,0.22,0.63
2021-08-01 01:39:03.228,0.275,0.515
2021-08-01 01:39:03.232,0.295,0.16
2021-08-01 01:39:03.236,0.25,-0.37
2021-08-01 01:39:03.240,0.195,-0.695
2021-08-01 01:39:03.244,0.02,-0.815
2021-08-01 01:39:03.248,-0.16,-0.805
2021-08-01 01:39:03.252,-0.265,-0.76
2021-08-01 01:39:03.256,-0.31,-0.64
2021-08-01 01:39:03.260,-0.3,-0.52
2021-08-01 01:39:03.264,-0.26,-0.425
2021-08-01 01:39:03.268,-0.19,-0.325
2021-08-01 01:39:03.272,-0.12,-0.26
2021-08-01 01:39:03.276,-0.075,-0.24
2021-08-01 01:39:03.280,-0.025,-0.255
2021-08-01 01:39:03.284,0.0,-0.245
2021-08-01 01:39:03.288,0.005,-0.235
2021-08-01 01:39:03.292,0.0,-0.235
2021-08-01 01:39:03.296,0.0,-0.245
2021-08-01 01:39:03.300,0.005,-0.25
2021-08-01 01:39:03.304,0.015,-0.235
2021-08-01 01:39:03.308,0.005,-0.245
2021-08-01 01:39:03.312,0.02,-0.25
2021-08-01 01:39:03.316,0.015,-0.245
2021-08-01 01:39:03.320,0.015,-0.26
2021-08-01 01:39:03.324,0.015,-0.24
2021-08-01 01:39:03.328,0.01,-0.23
2021-08-01 01:39:03.332,0.0,-0.255
2021-08-01 01:39:03.336,0.01,-0.25
2021-08-01 01:39:03.340,0.0,-0.235
2021-08-01 01:39:03.344,0.01,-0.225
2021-08-01 01:39:03.348,0.0,-0.235
2021-08-01 01:39:03.352,0.0,-0.235
2021-08-01 01:39:03.356,0.005,-0.24
2021-08-01 01:39:03.360,0.01,-0.24
2021-08-01 01:39:03.364,0.0,-0.22
2021-08-01 01:39:03.368,-0.02,-0.205
2021-08-01 01:39:03.372,-0.01,-0.19
2021-08-01 01:39:03.376,0.0,-0.215
2021-08-01 01:39:03.380,-0.005,-0.22
2021-08-01 01:39:03.384,0.0,-0.22
2021-08-01 01:39:03.388,0.0,-0.195
2021-08-01 01:39:03.392,0.01,-0.185
2021-08-01 01:39:03.396,-0.01,-0.18
2021-08-01 01:39:03.400,0.0,-0.2
2021-08-01 01:39:03.404,0.0,-0.17
2021-08-01 01:39:03.408,0.015,-0.155
2021-08-01 01:39:03.412,-0.005,-0.155
2021-08-01 01:39:03.416,0.015,-0.17
2021-08-01 01:39:03.420,0.005,-0.155
2021-08-01 01:39:03.424,0.015,-0.135
2021-08-01 01:39:03.428,0.005,-0.145
2021-08-01 01:39:03.432,0.0,-0.13
2021-08-01 01:39:03.436,-0.01,-0.125
2021-08-01 01:39:03.440,0.0,-0.125
2021-08-01 01:39:03.444,0.01,-0.11
2021-08-01 01:39:03.448,0.005,-0.1
2021-08-01 01:39:03.452,0.0,-0.085
2021-08-01 01:39:03.456,0.005,-0.095
2021-08-01 01:39:03.460,0.0,-0.085
2021-08-01 01:39:03.464,0.025,-0.07
2021-08-01 01:39:03.468,0.005,-0.055
2021-08-01 01:39:03.472,0.02,-0.055
2021-08-01 01:39:03.476,0.025,-0.05
2021-08-01 01:39:03.480,0.015,-0.055
2021-08-01 01:39:03.484,0.01,-0.05
2021-08-01 01:39:03.488,0.015,-0.025
2021-08-01 01:39:03.492,0.015,-0.03
2021-08-01 01:39:03.496,0.03,-0.045
2021-08-01 01:39:03.500,0.03,-0.04
2021-08-01 01:39:03.504,0.015,-0.045
2021-08-01 01:39:03.508,0.04,-0.065
2021-08-01 01:39:03.512,0.055,-0.07
2021-08-01 01:39:03.516,0.035,-0.08
2021-08-01 01:39:03.520,0.035,-0.09
2021-08-01 01:39:03.524,0.04,-0.12
2021-08-01 01:39:03.528,0.035,-0.1
2021-08-01 01:39:03.532,0.025,-0.105
2021-08-01 01:39:03.536,0.04,-0.155
2021-08-01 01:39:03.540,0.035,-0.135
2021-08-01 01:39:03.544,0.03,-0.125
2021-08-01 01:39:03.548,0.035,-0.14
2021-08-01 01:39:03.552,0.05,-0.15
2021-08-01 01:39:03.556,0.03,-0.15
2021-08-01 01:39:03.560,0.02,-0.15
2021-08-01 01:39:03.564,0.01,-0.165
2021-08-01 01:39:03.568,0.04,-0.16
2021-08-01 01:39:03.572,0.02,-0.135
2021-08-01 01:39:03.576,0.04,-0.15
2021-08-01 01:39:03.580,0.02,-0.15
2021-08-01 01:39:03.584,0.045,-0.15
2021-08-01 01:39:03.588,0.025,-0.13
2021-08-01 01:39:03.592,0.02,-0.15
2021-08-01 01:39:03.596,0.045,-0.15
2021-08-01 01:39:03.600,0.055,-0.15
2021-08-01 01:39:03.604,0.035,-0.135
2021-08-01 01:39:03.608,0.055,-0.145
2021-08-01 01:39:03.612,0.035,-0.135
2021-08-01 01:39:03.616,0.03,-0.145
2021-08-01 01:39:03.620,0.035,-0.145
2021-08-01 01:39:03.624,0.055,-0.13
2021-08-01 01:39:03.628,0.04,-0.13
2021-08-01 01:39:03.632,0.035,-0.12
2021-08-01 01:39:03.636,0.065,-0.14
2021-08-01 01:39:03.640,0.05,-0.13
2021-08-01 01:39:03.644,0.04,-0.13
2021-08-01 01:39:03.648,0.035,-0.125
2021-08-01 01:39:03.652,0.04,-0.135
2021-08-01 01:39:03.656,0.04,-0.14
2021-08-01 01:39:03.660,0.05,-0.145
2021-08-01 01:39:03.664,0.04,-0.14
2021-08-01 01:39:03.668,0.03,-0.13
2021-08-01 01:39:03.672,0.04,-0.14
2021-08-01 01:39:03.676,0.04,-0.145
2021-08-01 01:39:03.680,0.04,-0.15
2021-08-01 01:39:03.684,0.045,-0.15
2021-08-01 01:39:03.688,0.05,-0.15
2021-08-01 01:39:03.692,0.065,-0.13
2021-08-01 01:39:03.696,0.055,-0.155
2021-08-01 01:39:03.700,0.025,-0.155
2021-08-01 01:39:03.704,0.035,-0.155
2021-08-01 01:39:03.708,0.055,-0.16
2021-08-01 01:39:03.712,0.025,-0.15
2021-08-01 01:39:03.716,0.045,-0.12
2021-08-01 01:39:03.720,0.06,-0.095
2021-08-01 01:39:03.724,0.04,-0.075
2021-08-01 01:39:03.728,0.075,-0.055
2021-08-01 01:39:03.732,0.085,-0.03
2021-08-01 01:39:03.736,0.09,-0.03
2021-08-01 01:39:03.740,0.1,-0.01
2021-08-01 01:39:03.744,0.1,-0.005
2021-08-01 01:39:03.748,0.12,0.015
2021-08-01 01:39:03.752,0.11,0.025
2021-08-01 01:39:03.756,0.12,0.015
2021-08-01 01:39:03.760,0.115,-0.025
2021-08-01 01:39:03.764,0.065,-0.065
2021-08-01 01:39:03.768,0.045,-0.1
2021-08-01 01:39:03.772,0.03,-0.17
2021-08-01 01:39:03.776,0.005,-0.175
2021-08-01 01:39:03.780,-0.01,-0.175
2021-08-01 01:39:03.784,0.0,-0.18
2021-08-01 01:39:03.788,0.005,-0.15
2021-08-01 01:39:03.792,0.01,-0.16
2021-08-01 01:39:03.796,0.02,-0.16
2021-08-01 01:39:03.800,0.02,-0.205
2021-08-01 01:39:03.804,0.025,-0.215
2021-08-01 01:39:03.808,0.045,-0.23
2021-08-01 01:39:03.812,0.055,-0.24
2021-08-01 01:39:03.816,0.05,-0.27
2021-08-01 01:39:03.820,0.035,-0.275
2021-08-01 01:39:03.824,0.045,-0.305
2021-08-01 01:39:03.828,0.025,-0.275
2021-08-01 01:39:03.832,0.02,-0.275
2021-08-01 01:39:03.836,0.03,-0.28
2021-08-01 01:39:03.840,0.025,-0.285
2021-08-01 01:39:03.844,0.025,-0.28
2021-08-01 01:39:03.848,0.025,-0.275
2021-08-01 01:39:03.852,0.03,-0.28
2021-08-01 01:39:03.856,0.035,-0.28
2021-08-01 01:39:03.860,0.015,-0.28
2021-08-01 01:39:03.864,0.025,-0.3
2021-08-01 01:39:03.868,0.025,-0.285
2021-08-01 01:39:03.872,0.04,-0.285
2021-08-01 01:39:03.876,0.035,-0.295
2021-08-01 01:39:03.880,0.035,-0.305
2021-08-01 01:39:03.884,0.04,-0.275
2021-08-01 01:39:03.888,0.03,-0.16
2021-08-01 01:39:03.892,0.065,0.03
2021-08-01 01:39:03.896,0.07,0.25
2021-08-01 01:39:03.900,0.09,0.48
2021-08-01 01:39:03.904,0.165,0.605
2021-08-01 01:39:03.908,0.28,0.625
2021-08-01 01:39:03.912,0.335,0.61
2021-08-01 01:39:03.916,0.31,0.345
2021-08-01 01:39:03.920,0.265,-0.16
2021-08-01 01:39:03.924,0.22,-0.6
2021-08-01 01:39:03.928,0.075,-0.795
2021-08-01 01:39:03.932,-0.115,-0.825
2021-08-01 01:39:03.936,-0.235,-0.785
2021-08-01 01:39:03.940,-0.285,-0.68
2021-08-01 01:39:03.944,-0.28,-0.54
2021-08-01 01:39:03.948,-0.24,-0.42
2021-08-01 01:39:03.952,-0.16,-0.32
2021-08-01 01:39:03.956,-0.105,-0.29
2021-08-01 01:39:03.960,-0.02,-0.28
2021-08-01 01:39:03.964,0.04,-0.285
2021-08-01 01:39:03.968,0.035,-0.29
2021-08-01 01:39:03.972,0.02,-0.3
2021-08-01 01:39:03.976,0.03,-0.29
2021-08-01 01:39:03.980,0.04,-0.305
2021-08-01 01:39:03.984,0.035,-0.3
2021-08-01 01:39:03.988,0.045,-0.275
2021-08-01 01:39:03.992,0.045,-0.27
2021-08-01 01:39:03.996,0.04,-0.275
2021-08-01 01:39:04.000,0.035,-0.275
2021-08-01 01:39:04.004,0.035,-0.295
2021-08-01 01:39:04.008,0.045,-0.28
2021-08-01 01:39:04.012,0.04,-0.285
2021-08-01 01:39:04.016,0.04,-0.275
2021-08-01 01:39:04.020,0.04,-0.255
2021-08-01 01:39:04.024,0.05,-0.265
2021-08-01 01:39:04.028,0.045,-0.255
2021-08-01 01:39:04.032,0.045,-0.24
2021-08-01 01:39:04.036,0.04,-0.255
2021-08-01 01:39:04.040,0.035,-0.27
2021-08-01 01:39:04.044,0.04,-0.265
2021-08-01 01:39:04.048,0.03,-0.23
2021-08-01 01:39:04.052,0.045,-0.235
2021-08-01 01:39:04.056,0.04,-0.235
2021-08-01 01:39:04.060,0.05,-0.25
2021-08-01 01:39:04.064,0.03,-0.24
2021-08-01 01:39:04.068,0.025,-0.235
2021-08-01 01:39:04.072,0.04,-0.22
2021-08-01 01:39:04.076,0.055,-0.21
2021-08-01 01:39:04.080,0.04,-0.215
2021-08-01 01:39:04.084,0.04,-0.22
2021-08-01 01:39:04.088,0.045,-0.205
2021-08-01 01:39:04.092,0.045,-0.19
2021-08-01 01:39:04.096,0.04,-0.19
2021-08-01 01:39:04.100,0.065,-0.195
2021-08-01 01:39:04.104,0.055,-0.17
2021-08-01 01:39:04.108,0.05,-0.155
2021-08-01 01:39:04.112,0.07,-0.15
2021-08-01 01:39:04.116,0.055,-0.125
2021-08-01 01:39:04.120,0.055,-0.13
2021-08-01 01:39:04.124,0.06,-0.125
2021-08-01 01:39:04.128,0.05,-0.115
2021-08-01 01:39:04.132,0.06,-0.1
2021-08-01 01:39:04.136,0.065,-0.105
2021-08-01 01:39:04.140,0.075,-0.105
2021-08-01 01:39:04.144,0.055,-0.105
2021-08-01 01:39:04.148,0.055,-0.075
2021-08-01 01:39:04.152,0.055,-0.085
2021-08-01 01:39:04.156,0.065,-0.055
2021-08-01 01:39:04.160,0.07,-0.065
2021-08-01 01:39:04.164,0.07,-0.06
2021-08-01 01:39:04.168,0.06,-0.065
2021-08-01 01:39:04.172,0.065,-0.045
2021-08-01 01:39:04.176,0.06,-0.035
2021-08-01 01:39:04.180,0.075,-0.04
2021-08-01 01:39:04.184,0.075,-0.035
2021-08-01 01:39:04.188,0.08,-0.025
2021-08-01 01:39:04.192,0.07,-0.05
2021-08-01 01:39:04.196,0.075,-0.03
2021-08-01 01:39:04.200,0.075,-0.055
2021-08-01 01:39:04.204,0.075,-0.08
2021-08-01 01:39:04.208,0.08,-0.09
2021-08-01 01:39:04.212,0.095,-0.095
2021-08-01 01:39:04.216,0.09,-0.1
2021-08-01 01:39:04.220,0.085,-0.115
2021-08-01 01:39:04.224,0.08,-0.13
2021-08-01 01:39:04.228,0.085,-0.125
2021-08-01 01:39:04.232,0.085,-0.135
2021-08-01 01:39:04.236,0.085,-0.13
2021-08-01 01:39:04.240,0.08,-0.14
2021-08-01 01:39:04.244,0.07,-0.15
2021-08-01 01:39:04.248,0.07,-0.145
2021-08-01 01:39:04.252,0.08,-0.15
2021-08-01 01:39:04.256,0.065,-0.14
2021-08-01 01:39:04.260,0.075,-0.145
2021-08-01 01:39:04.264,0.05,-0.13
2021-08-01 01:39:04.268,0.075,-0.13
2021-08-01 01:39:04.272,0.085,-0.135
2021-08-01 01:39:04.276,0.075,-0.135
2021-08-01 01:39:04.280,0.07,-0.14
2021-08-01 01:39:04.284,0.065,-0.135
2021-08-01 01:39:04.288,0.08,-0.13
2021-08-01 01:39:04.292,0.085,-0.125
2021-08-01 01:39:04.296,0.07,-0.115
2021-08-01 01:39:04.300,0.075,-0.14
2021-08-01 01:39:04.304,0.07,-0.135
2021-08-01 01:39:04.308,0.075,-0.115
2021-08-01 01:39:04.312,0.06,-0.105
2021-08-01 01:39:04.316,0.075,-0.11
2021-08-01 01:39:04.320,0.07,-0.115
2021-08-01 01:39:04.324,0.08,-0.1
2021-08-01 01:39:04.328,0.07,-0.115
2021-08-01 01:39:04.332,0.07,-0.13
2021-08-01 01:39:04.336,0.075,-0.125
2021-08-01 01:39:04.340,0.085,-0.12
2021-08-01 01:39:04.344,0.085,-0.125
2021-08-01 01:39:04.348,0.08,-0.13
2021-08-01 01:39:04.352,0.055,-0.125
2021-08-01 01:39:04.356,0.075,-0.135
2021-08-01 01:39:04.360,0.065,-0.145
2021-08-01 01:39:04.364,0.085,-0.155
2021-08-01 01:39:04.368,0.055,-0.15
2021-08-01 01:39:04.372,0.065,-0.135
2021-08-01 01:39:04.376,0.055,-0.14
2021-08-01 01:39:04.380,0.075,-0.16
2021-08-01 01:39:04.384,0.08,-0.155
2021-08-01 01:39:04.388,0.065,-0.125
2021-08-01 01:39:04.392,0.065,-0.14
2021-08-01 01:39:04.396,0.08,-0.155
2021-08-01 01:39:04.400,0.065,-0.145
2021-08-01 01:39:04.404,0.065,-0.11
2021-08-01 01:39:04.408,0.065,-0.09
2021-08-01 01:39:04.412,0.09,-0.055
2021-08-01 01:39:04.416,0.085,-0.02
2021-08-01 01:39:04.420,0.1,-0.025
2021-08-01 01:39:04.424,0.105,-0.025
2021-08-01 01:39:04.428,0.11,-0.015
2021-08-01 01:39:04.432,0.13,0.0
2021-08-01 01:39:04.436,0.135,0.025
2021-08-01 01:39:04.440,0.135,0.03
2021-08-01 01:39:04.444,0.11,0.0
2021-08-01 01:39:04.448,0.105,-0.025
2021-08-01 01:39:04.452,0.065,-0.06
2021-08-01 01:39:04.456,0.055,-0.12
2021-08-01 01:39:04.460,0.04,-0.165
2021-08-01 01:39:04.464,0.005,-0.19
2021-08-01 01:39:04.468,0.005,-0.17
2021-08-01 01:39:04.472,-0.015,-0.16
2021-08-01 01:39:04.476,-0.025,-0.155
2021-08-01 01:39:04.480,0.01,-0.17
2021-08-01 01:39:04.484,-0.005,-0.15
2021-08-01 01:39:04.488,0.03,-0.195
2021-08-01 01:39:04.492,0.065,-0.21
2021-08-01 01:39:04.496,0.035,-0.22
2021-08-01 01:39:04.500,0.035,-0.235
2021-08-01 01:39:04.504,0.05,-0.255
2021-08-01 01:39:04.508,0.05,-0.26
2021-08-01 01:39:04.512,0.015,-0.255
2021-08-01 01:39:04.516,0.035,-0.27
2021-08-01 01:39:04.520,0.015,-0.275
2021-08-01 01:39:04.524,0.015,-0.27
2021-08-01 01:39:04.528,0.01,-0.27
2021-08-01 01:39:04.532,0.02,-0.26
2021-08-01 01:39:04.536,0.005,-0.265
2021-08-01 01:39:04.540,0.02,-0.25
2021-08-01 01:39:04.544,0.005,-0.27
2021-08-01 01:39:04.548,0.02,-0.26
2021-08-01 01:39:04.552,0.015,-0.255
2021-08-01 01:39:04.556,0.01,-0.275
2021-08-01 01:39:04.560,0.025,-0.265
2021-08-01 01:39:04.564,0.03,-0.275
2021-08-01 01:39:04.568,0.015,-0.3
2021-08-01 01:39:04.572,0.005,-0.28
2021-08-01 01:39:04.576,0.025,-0.195
2021-08-01 01:39:04.580,0.06,-0.02
2021-08-01 01:39:04.584,0.055,0.19
2021-08-01 01:39:04.588,0.095,0.42
2021-08-01 01:39:04.592,0.15,0.585
2021-08-01 01:39:04.596,0.235,0.62
2021-08-01 01:39:04.600,0.31,0.58
2021-08-01 01:39:04.604,0.29,0.4
2021-08-01 01:39:04.608,0.235,-0.095
2021-08-01 01:39:04.612,0.185,-0.545
2021-08-01 01:39:04.616,0.04,-0.795
2021-08-01 01:39:04.620,-0.14,-0.825
2021-08-01 01:39:04.624,-0.285,-0.8
2021-08-01 01:39:04.628,-0.34,-0.68
2021-08-01 01:39:04.632,-0.32,-0.535
2021-08-01 01:39:04.636,-0.285,-0.42
2021-08-01 01:39:04.640,-0.205,-0.34
2021-08-01 01:39:04.644,-0.115,-0.285
2021-08-01 01:39:04.648,-0.04,-0.27
2021-08-01 01:39:04.652,-0.015,-0.285
2021-08-01 01:39:04.656,0.015,-0.29
2021-08-01 01:39:04.660,0.03,-0.28
2021-08-01 01:39:04.664,0.025,-0.28
2021-08-01 01:39:04.668,0.035,-0.27
2021-08-01 01:39:04.672,0.045,-0.27
2021-08-01 01:39:04.676,0.02,-0.275
2021-08-01 01:39:04.680,0.025,-0.27
2021-08-01 01:39:04.684,0.025,-0.28
2021-08-01 01:39:04.688,0.025,-0.285
2021-08-01 01:39:04.692,0.015,-0.265
2021-08-01 01:39:04.696,0.025,-0.26
2021-08-01 01:39:04.700,0.045,-0.265
2021-08-01 01:39:04.704,0.045,-0.26
2021-08-01 01:39:04.708,0.02,-0.28
2021-08-01 01:39:04.712,0.04,-0.26
2021-08-01 01:39:04.716,0.025,-0.255
2021-08-01 01:39:04.720,0.02,-0.25
2021-08-01 01:39:04.724,0.035,-0.255
2021-08-01 01:39:04.728,0.035,-0.245
2021-08-01 01:39:04.732,0.035,-0.24
2021-08-01 01:39:04.736,0.035,-0.23
2021-08-01 01:39:04.740,0.055,-0.23
2021-08-01 01:39:04.744,0.05,-0.24
2021-08-01 01:39:04.748,0.045,-0.225
2021-08-01 01:39:04.752,0.035,-0.22
2021-08-01 01:39:04.756,0.04,-0.21
2021-08-01 01:39:04.760,0.02,-0.205
2021-08-01 01:39:04.764,0.04,-0.215
2021-08-01 01:39:04.768,0.045,-0.205
2021-08-01 01:39:04.772,0.06,-0.185
2021-08-01 01:39:04.776,0.045,-0.18
2021-08-01 01:39:04.780,0.045,-0.175
2021-08-01 01:39:04.784,0.04,-0.17
2021-08-01 01:39:04.788,0.04,-0.17
2021-08-01 01:39:04.792,0.06,-0.15
2021-08-01 01:39:04.796,0.065,-0.135
2021-08-01 01:39:04.800,0.04,-0.13
2021-08-01 01:39:04.804,0.045,-0.12
2021-08-01 01:39:04.808,0.075,-0.12
2021-08-01 01:39:04.812,0.05,-0.115
2021-08-01 01:39:04.816,0.06,-0.11
2021-08-01 01:39:04.820,0.06,-0.095
2021-08-01 01:39:04.824,0.065,-0.09
2021-08-01 01:39:04.828,0.065,-0.095
2021-08-01 01:39:04.832,0.08,-0.08
2021-08-01 01:39:04.836,0.075,-0.07
2021-08-01 01:39:04.840,0.085,-0.065
2021-08-01 01:39:04.844,0.085,-0.06
2021-08-01 01:39:04.848,0.09,-0.045
2021-08-01 01:39:04.852,0.07,-0.035
2021-08-01 01:39:04.856,0.07,-0.045
2021-08-01 01:39:04.860,0.07,-0.035
2021-08-01 01:39:04.864,0.075,-0.04
2021-08-01 01:39:04.868,0.06,-0.04
2021-08-01 01:39:04.872,0.08,-0.04
2021-08-01 01:39:04.876,0.08,-0.05
2021-08-01 01:39:04.880,0.085,-0.035
2021-08-01 01:39:04.884,0.09,-0.085
2021-08-01 01:39:04.888,0.1,-0.075
2021-08-01 01:39:04.892,0.095,-0.085
2021-08-01 01:39:04.896,0.065,-0.08
2021-08-01 01:39:04.900,0.1,-0.11
2021-08-01 01:39:04.904,0.075,-0.11
2021-08-01 01:39:04.908,0.075,-0.11
2021-08-01 01:39:04.912,0.075,-0.12
2021-08-01 01:39:04.916,0.095,-0.145
2021-08-01 01:39:04.920,0.075,-0.13
2021-08-01 01:39:04.924,0.065,-0.14
2021-08-01 01:39:04.928,0.07,-0.145
2021-08-01 01:39:04.932,0.065,-0.155
2021-08-01 01:39:04.936,0.065,-0.14
2021-08-01 01:39:04.940,0.075,-0.14
2021-08-01 01:39:04.944,0.07,-0.14
2021-08-01 01:39:04.948,0.09,-0.14
2021-08-01 01:39:04.952,0.075,-0.105
2021-08-01 01:39:04.956,0.09,-0.12
2021-08-01 01:39:04.960,0.08,-0.075
2021-08-01 01:39:04.964,0.09,-0.11
2021-08-01 01:39:04.968,0.09,-0.11
2021-08-01 01:39:04.972,0.095,-0.115
2021-08-01 01:39:04.976,0.09,-0.11
2021-08-01 01:39:04.980,0.095,-0.11
2021-08-01 01:39:04.984,0.09,-0.115
2021-08-01 01:39:04.988,0.075,-0.125
2021-08-01 01:39:04.992,0.095,-0.12
2021-08-01 01:39:04.996,0.085,-0.11
2021-08-01 01:39:05.000,0.09,-0.105
2021-08-01 01:39:05.004,0.085,-0.11
2021-08-01 01:39:05.008,0.095,-0.11
2021-08-01 01:39:05.012,0.095,-0.105
2021-08-01 01:39:05.016,0.095,-0.09
2021-08-01 01:39:05.020,0.085,-0.09
2021-08-01 01:39:05.024,0.09,-0.09
2021-08-01 01:39:05.028,0.085,-0.1
2021-08-01 01:39:05.032,0.09,-0.115
2021-08-01 01:39:05.036,0.095,-0.13
2021-08-01 01:39:05.040,0.095,-0.13
2021-08-01 01:39:05.044,0.09,-0.14
2021-08-01 01:39:05.048,0.085,-0.13
2021-08-01 01:39:05.052,0.1,-0.115
2021-08-01 01:39:05.056,0.095,-0.11
2021-08-01 01:39:05.060,0.09,-0.09
2021-08-01 01:39:05.064,0.12,-0.12
2021-08-01 01:39:05.068,0.095,-0.13
2021-08-01 01:39:05.072,0.085,-0.12
2021-08-01 01:39:05.076,0.075,-0.125
2021-08-01 01:39:05.080,0.07,-0.125
2021-08-01 01:39:05.084,0.095,-0.135
2021-08-01 01:39:05.088,0.08,-0.105
2021-08-01 01:39:05.092,0.085,-0.125
2021-08-01 01:39:05.096,0.1,-0.07
2021-08-01 01:39:05.100,0.105,-0.04
2021-08-01 01:39:05.104,0.105,-0.02
2021-08-01 01:39:05.108,0.125,-0.01
2021-08-01 01:39:05.112,0.155,-0.005
2021-08-01 01:39:05.116,0.16,0.02
2021-08-01 01:39:05.120,0.165,0.025
2021-08-01 01:39:05.124,0.185,0.035
2021-08-01 01:39:05.128,0.16,0.045
2021-08-01 01:39:05.132,0.15,0.015
2021-08-01 01:39:05.136,0.14,0.0
2021-08-01 01:39:05.140,0.12,-0.03
2021-08-01 01:39:05.144,0.075,-0.1
2021-08-01 01:39:05.148,0.06,-0.14
2021-08-01 01:39:05.152,0.05,-0.13
2021-08-01 01:39:05.156,0.02,-0.13
2021-08-01 01:39:05.160,0.035,-0.135
2021-08-01 01:39:05.164,0.045,-0.11
2021-08-01 01:39:05.168,0.045,-0.115
2021-08-01 01:39:05.172,0.055,-0.15
2021-08-01 01:39:05.176,0.085,-0.155
2021-08-01 01:39:05.180,0.085,-0.165
2021-08-01 01:39:05.184,0.075,-0.17
2021-08-01 01:39:05.188,0.08,-0.22
2021-08-01 01:39:05.192,0.075,-0.23
2021-08-01 01:39:05.196,0.065,-0.245
2021-08-01 01:39:05.200,0.075,-0.24
2021-08-01 01:39:05.204,0.06,-0.225
2021-08-01 01:39:05.208,0.045,-0.22
2021-08-01 01:39:05.212,0.055,-0.23
2021-08-01 01:39:05.216,0.055,-0.225
2021-08-01 01:39:05.220,0.065,-0.24
2021-08-01 01:39:05.224,0.07,-0.235
2021-08-01 01:39:05.228,0.07,-0.255
2021-08-01 01:39:05.232,0.065,-0.245
2021-08-01 01:39:05.236,0.07,-0.22
2021-08-01 01:39:05.240,0.08,-0.21
2021-08-01 01:39:05.244,0.075,-0.225
2021-08-01 01:39:05.248,0.08,-0.23
2021-08-01 01:39:05.252,0.055,-0.22
2021-08-01 01:39:05.256,0.085,-0.24
2021-08-01 01:39:05.260,0.085,-0.24
2021-08-01 01:39:05.264,0.07,-0.16
2021-08-01 01:39:05.268,0.1,-0.02
2021-08-01 01:39:05.272,0.105,0.22
2021-08-01 01:39:05.276,0.13,0.455
2021-08-01 01:39:05.280,0.18,0.615
2021-08-01 01:39:05.284,0.265,0.65
2021-08-01 01:39:05.288,0.325,0.62
2021-08-01 01:39:05.292,0.36,0.445
2021-08-01 01:39:05.296,0.325,-0.025
2021-08-01 01:39:05.300,0.285,-0.485
2021-08-01 01:39:05.304,0.185,-0.7
2021-08-01 01:39:05.308,0.0,-0.785
2021-08-01 01:39:05.312,-0.165,-0.77
2021-08-01 01:39:05.316,-0.215,-0.695
2021-08-01 01:39:05.320,-0.22,-0.565
2021-08-01 01:39:05.324,-0.22,-0.445
2021-08-01 01:39:05.328,-0.16,-0.325
2021-08-01 01:39:05.332,-0.085,-0.25
2021-08-01 01:39:05.336,-0.01,-0.26
2021-08-01 01:39:05.340,0.05,-0.265
2021-08-01 01:39:05.344,0.075,-0.235
2021-08-01 01:39:05.348,0.075,-0.25
2021-08-01 01:39:05.352,0.07,-0.255
2021-08-01 01:39:05.356,0.07,-0.225
2021-08-01 01:39:05.360,0.075,-0.22
2021-08-01 01:39:05.364,0.08,-0.255
2021-08-01 01:39:05.368,0.075,-0.24
2021-08-01 01:39:05.372,0.075,-0.24
2021-08-01 01:39:05.376,0.045,-0.25
2021-08-01 01:39:05.380,0.065,-0.24
2021-08-01 01:39:05.384,0.065,-0.245
2021-08-01 01:39:05.388,0.07,-0.245
2021-08-01 01:39:05.392,0.065,-0.225
2021-08-01 01:39:05.396,0.07,-0.215
2021-08-01 01:39:05.400,0.06,-0.21
2021-08-01 01:39:05.404,0.055,-0.22
2021-08-01 01:39:05.408,0.07,-0.22
2021-08-01 01:39:05.412,0.05,-0.255
2021-08-01 01:39:05.416,0.06,-0.27
2021-08-01 01:39:05.420,0.075,-0.245
2021-08-01 01:39:05.424,0.055,-0.22
2021-08-01 01:39:05.428,0.06,-0.23
2021-08-01 01:39:05.432,0.065,-0.215
2021-08-01 01:39:05.436,0.045,-0.195
2021-08-01 01:39:05.440,0.07,-0.195
2021-08-01 01:39:05.444,0.06,-0.2
2021-08-01 01:39:05.448,0.05,-0.215
2021-08-01 01:39:05.452,0.08,-0.21
2021-08-01 01:39:05.456,0.045,-0.205
2021-08-01 01:39:05.460,0.04,-0.185
2021-08-01 01:39:05.464,0.045,-0.18
2021-08-01 01:39:05.468,0.08,-0.175
2021-08-01 01:39:05.472,0.06,-0.16
2021-08-01 01:39:05.476,0.045,-0.145
2021-08-01 01:39:05.480,0.045,-0.125
2021-08-01 01:39:05.484,0.04,-0.125
2021-08-01 01:39:05.488,0.055,-0.135
2021-08-01 01:39:05.492,0.045,-0.145
2021-08-01 01:39:05.496,0.04,-0.12
2021-08-01 01:39:05.500,0.04,-0.115
2021-08-01 01:39:05.504,0.045,-0.115
2021-08-01 01:39:05.508,0.075,-0.095
2021-08-01 01:39:05.512,0.055,-0.08
2021-08-01 01:39:05.516,0.05,-0.075
2021-08-01 01:39:05.520,0.05,-0.07
2021-08-01 01:39:05.524,0.045,-0.075
2021-08-01 01:39:05.528,0.045,-0.07
2021-08-01 01:39:05.532,0.045,-0.08
2021-08-01 01:39:05.536,0.055,-0.045
2021-08-01 01:39:05.540,0.06,-0.035
2021-08-01 01:39:05.544,0.045,0.0
2021-08-01 01:39:05.548,0.055,0.005
2021-08-01 01:39:05.552,0.055,0.01
2021-08-01 01:39:05.556,0.075,-0.015
2021-08-01 01:39:05.560,0.075,-0.01
2021-08-01 01:39:05.564,0.075,-0.015
2021-08-01 01:39:05.568,0.065,-0.025
2021-08-01 01:39:05.572,0.07,-0.05
2021-08-01 01:39:05.576,0.08,-0.05
2021-08-01 01:39:05.580,0.05,-0.035
2021-08-01 01:39:05.584,0.075,-0.075
2021-08-01 01:39:05.588,0.075,-0.09
2021-08-01 01:39:05.592,0.09,-0.1
2021-08-01 01:39:05.596,0.09,-0.11
2021-08-01 01:39:05.600,0.08,-0.13
2021-08-01 01:39:05.604,0.085,-0.08
2021-08-01 01:39:05.608,0.075,-0.115
2021-08-01 01:39:05.612,0.08,-0.13
2021-08-01 01:39:05.616,0.09,-0.11
2021-08-01 01:39:05.620,0.085,-0.115
2021-08-01 01:39:05.624,0.07,-0.125
2021-08-01 01:39:05.628,0.07,-0.13
2021-08-01 01:39:05.632,0.06,-0.15
2021-08-01 01:39:05.636,0.085,-0.14
2021-08-01 01:39:05.640,0.085,-0.12
2021-08-01 01:39:05.644,0.075,-0.09
2021-08-01 01:39:05.648,0.085,-0.095
2021-08-01 01:39:05.652,0.08,-0.12
2021-08-01 01:39:05.656,0.075,-0.115
2021-08-01 01:39:05.660,0.08,-0.105
2021-08-01 01:39:05.664,0.065,-0.105
2021-08-01 01:39:05.668,0.09,-0.125
2021-08-01 01:39:05.672,0.065,-0.1
2021-08-01 01:39:05.676,0.06,-0.11
2021-08-01 01:39:05.680,0.09,-0.1
2021-08-01 01:39:05.684,0.07,-0.085
2021-08-01 01:39:05.688,0.075,-0.105
2021-08-01 01:39:05.692,0.08,-0.125
2021-08-01 01:39:05.696,0.075,-0.125
2021-08-01 01:39:05.700,0.075,-0.105
2021-08-01 01:39:05.704,0.08,-0.095
2021-08-01 01:39:05.708,0.065,-0.1
2021-08-01 01:39:05.712,0.07,-0.1
2021-08-01 01:39:05.716,0.08,-0.105
2021-08-01 01:39:05.720,0.07,-0.12
2021-08-01 01:39:05.724,0.08,-0.115
2021-08-01 01:39:05.728,0.06,-0.115
2021-08-01 01:39:05.732,0.055,-0.13
2021-08-01 01:39:05.736,0.065,-0.125
2021-08-01 01:39:05.740,0.07,-0.13
2021-08-01 01:39:05.744,0.055,-0.13
2021-08-01 01:39:05.748,0.095,-0.12
2021-08-01 01:39:05.752,0.075,-0.14
2021-08-01 01:39:05.756,0.065,-0.145
2021-08-01 01:39:05.760,0.075,-0.14
2021-08-01 01:39:05.764,0.08,-0.12
2021-08-01 01:39:05.768,0.055,-0.125
2021-08-01 01:39:05.772,0.08,-0.13
2021-08-01 01:39:05.776,0.06,-0.095
2021-08-01 01:39:05.780,0.065,-0.055
2021-08-01 01:39:05.784,0.075,-0.03
2021-08-01 01:39:05.788,0.11,0.0
2021-08-01 01:39:05.792,0.1,-0.005
2021-08-01 01:39:05.796,0.12,-0.005
2021-08-01 01:39:05.800,0.13,0.025
2021-08-01 01:39:05.804,0.15,0.035
2021-08-01 01:39:05.808,0.135,0.065
2021-08-01 01:39:05.812,0.13,0.05
2021-08-01 01:39:05.816,0.135,0.025
2021-08-01 01:39:05.820,0.115,-0.015
2021-08-01 01:39:05.824,0.085,-0.07
2021-08-01 01:39:05.828,0.065,-0.115
2021-08-01 01:39:05.832,0.035,-0.15
2021-08-01 01:39:05.836,0.035,-0.155
2021-08-01 01:39:05.840,0.02,-0.145
2021-08-01 01:39:05.844,0.02,-0.13
2021-08-01 01:39:05.848,0.005,-0.135
2021-08-01 01:39:05.852,0.02,-0.135
2021-08-01 01:39:05.856,0.03,-0.175
2021-08-01 01:39:05.860,0.055,-0.16
2021-08-01 01:39:05.864,0.065,-0.18
2021-08-01 01:39:05.868,0.065,-0.2
2021-08-01 01:39:05.872,0.07,-0.235
2021-08-01 01:39:05.876,0.06,-0.245
2021-08-01 01:39:05.880,0.06,-0.26
2021-08-01 01:39:05.884,0.05,-0.25
2021-08-01 01:39:05.888,0.03,-0.265
2021-08-01 01:39:05.892,0.03,-0.27
2021-08-01 01:39:05.896,0.035,-0.275
2021-08-01 01:39:05.900,0.04,-0.245
2021-08-01 01:39:05.904,0.03,-0.26
2021-08-01 01:39:05.908,0.025,-0.27
2021-08-01 01:39:05.912,0.045,-0.275
2021-08-01 01:39:05.916,0.035,-0.26
2021-08-01 01:39:05.920,0.045,-0.27
2021-08-01 01:39:05.924,0.055,-0.265
2021-08-01 01:39:05.928,0.03,-0.26
2021-08-01 01:39:05.932,0.04,-0.265
2021-08-01 01:39:05.936,0.045,-0.29
2021-08-01 01:39:05.940,0.05,-0.275
2021-08-01 01:39:05.944,0.06,-0.225
2021-08-01 01:39:05.948,0.055,-0.12
2021-08-01 01:39:05.952,0.095,0.06
2021-08-01 01:39:05.956,0.085,0.28
2021-08-01 01:39:05.960,0.135,0.495
2021-08-01 01:39:05.964,0.205,0.585
2021-08-01 01:39:05.968,0.305,0.595
2021-08-01 01:39:05.972,0.335,0.495
2021-08-01 01:39:05.976,0.36,0.15
2021-08-01 01:39:05.980,0.315,-0.355
2021-08-01 01:39:05.984,0.26,-0.69
2021-08-01 01:39:05.988,0.1,-0.82
2021-08-01 01:39:05.992,-0.08,-0.83
2021-08-01 01:39:05.996,-0.2,-0.785
2021-08-01 01:39:06.000,-0.25,-0.695
2021-08-01 01:39:06.004,-0.2,-0.57
2021-08-01 01:39:06.008,-0.19,-0.445
2021-08-01 01:39:06.012,-0.135,-0.365
2021-08-01 01:39:06.016,-0.07,-0.29
2021-08-01 01:39:06.020,0.0,-0.255
2021-08-01 01:39:06.024,0.055,-0.27
2021-08-01 01:39:06.028,0.06,-0.28
2021-08-01 01:39:06.032,0.065,-0.285
2021-08-01 01:39:06.036,0.065,-0.27
2021-08-01 01:39:06.040,0.065,-0.28
2021-08-01 01:39:06.044,0.07,-0.285
2021-08-01 01:39:06.048,0.095,-0.26
2021-08-01 01:39:06.052,0.085,-0.255
2021-08-01 01:39:06.056,0.095,-0.26
2021-08-01 01:39:06.060,0.075,-0.25
2021-08-01 01:39:06.064,0.085,-0.25
2021-08-01 01:39:06.068,0.075,-0.245
2021-08-01 01:39:06.072,0.08,-0.265
2021-08-01 01:39:06.076,0.08,-0.265
2021-08-01 01:39:06.080,0.075,-0.26
2021-08-01 01:39:06.084,0.075,-0.26
2021-08-01 01:39:06.088,0.09,-0.245
2021-08-01 01:39:06.092,0.08,-0.255
2021-08-01 01:39:06.096,0.085,-0.255
2021-08-01 01:39:06.100,0.085,-0.245
2021-08-01 01:39:06.104,0.075,-0.24
2021-08-01 01:39:06.108,0.085,-0.235
2021-08-01 01:39:06.112,0.09,-0.245
2021-08-01 01:39:06.116,0.075,-0.25
2021-08-01 01:39:06.120,0.07,-0.24
2021-08-01 01:39:06.124,0.08,-0.23
2021-08-01 01:39:06.128,0.07,-0.225
2021-08-01 01:39:06.132,0.07,-0.225
2021-08-01 01:39:06.136,0.065,-0.23
2021-08-01 01:39:06.140,0.07,-0.225
2021-08-01 01:39:06.144,0.11,-0.215
2021-08-01 01:39:06.148,0.08,-0.19
2021-08-01 01:39:06.152,0.095,-0.205
2021-08-01 01:39:06.156,0.08,-0.19
2021-08-01 01:39:06.160,0.065,-0.18
2021-08-01 01:39:06.164,0.08,-0.165
2021-08-01 01:39:06.168,0.075,-0.17
2021-08-01 01:39:06.172,0.085,-0.16
2021-08-01 01:39:06.176,0.08,-0.145
2021-08-01 01:39:06.180,0.09,-0.155
2021-08-01 01:39:06.184,0.1,-0.13
2021-08-01 01:39:06.188,0.095,-0.125
2021-08-01 01:39:06.192,0.08,-0.145
2021-08-01 01:39:06.196,0.09,-0.145
2021-08-01 01:39:06.200,0.11,-0.13
2021-08-01 01:39:06.204,0.09,-0.1
2021-08-01 01:39:06.208,0.085,-0.095
2021-08-01 01:39:06.212,0.11,-0.095
2021-08-01 01:39:06.216,0.11,-0.08
2021-08-01 01:39:06.220,0.1,-0.085
2021-08-01 01:39:06.224,0.115,-0.07
2021-08-01 01:39:06.228,0.105,-0.06
2021-08-01 01:39:06.232,0.11,-0.035
2021-08-01 01:39:06.236,0.1,-0.055
2021-08-01 01:39:06.240,0.115,-0.05
2021-08-01 01:39:06.244,0.115,-0.045
2021-08-01 01:39:06.248,0.12,-0.06
2021-08-01 01:39:06.252,0.14,-0.06
2021-08-01 01:39:06.256,0.125,-0.085
2021-08-01 01:39:06.260,0.12,-0.075
2021-08-01 01:39:06.264,0.135,-0.09
2021-08-01 01:39:06.268,0.125,-0.105
2021-08-01 01:39:06.272,0.105,-0.09
2021-08-01 01:39:06.276,0.115,-0.12
2021-08-01 01:39:06.280,0.115,-0.135
2021-08-01 01:39:06.284,0.105,-0.125
2021-08-01 01:39:06.288,0.125,-0.14
2021-08-01 01:39:06.292,0.125,-0.155
2021-08-01 01:39:06.296,0.125,-0.16
2021-08-01 01:39:06.300,0.11,-0.15
2021-08-01 01:39:06.304,0.11,-0.145
2021-08-01 01:39:06.308,0.11,-0.145
2021-08-01 01:39:06.312,0.12,-0.135
2021-08-01 01:39:06.316,0.105,-0.15
2021-08-01 01:39:06.320,0.115,-0.13
2021-08-01 01:39:06.324,0.115,-0.135
2021-08-01 01:39:06.328,0.11,-0.135
2021-08-01 01:39:06.332,0.11,-0.13
2021-08-01 01:39:06.336,0.12,-0.13
2021-08-01 01:39:06.340,0.105,-0.13
2021-08-01 01:39:06.344,0.12,-0.125
2021-08-01 01:39:06.348,0.11,-0.125
2021-08-01 01:39:06.352,0.115,-0.115
2021-08-01 01:39:06.356,0.11,-0.14
2021-08-01 01:39:06.360,0.125,-0.13
2021-08-01 01:39:06.364,0.105,-0.11
2021-08-01 01:39:06.368,0.115,-0.11
2021-08-01 01:39:06.372,0.1,-0.12
2021-08-01 01:39:06.376,0.11,-0.12
2021-08-01 01:39:06.380,0.09,-0.115
2021-08-01 01:39:06.384,0.115,-0.1
2021-08-01 01:39:06.388,0.105,-0.125
2021-08-01 01:39:06.392,0.105,-0.13
2021-08-01 01:39:06.396,0.1,-0.14
2021-08-01 01:39:06.400,0.11,-0.125
2021-08-01 01:39:06.404,0.105,-0.115
2021-08-01 01:39:06.408,0.1,-0.125
2021-08-01 01:39:06.412,0.12,-0.15
2021-08-01 01:39:06.416,0.115,-0.14
2021-08-01 01:39:06.420,0.1,-0.15
2021-08-01 01:39:06.424,0.105,-0.16
2021-08-01 01:39:06.428,0.105,-0.155
2021-08-01 01:39:06.432,0.105,-0.145
2021-08-01 01:39:06.436,0.1,-0.16
2021-08-01 01:39:06.440,0.105,-0.15
2021-08-01 01:39:06.444,0.115,-0.165
2021-08-01 01:39:06.448,0.1,-0.16
2021-08-01 01:39:06.452,0.12,-0.14
2021-08-01 01:39:06.456,0.105,-0.125
2021-08-01 01:39:06.460,0.11,-0.1
2021-08-01 01:39:06.464,0.105,-0.07
2021-08-01 01:39:06.468,0.115,-0.06
2021-08-01 01:39:06.472,0.16,0.0
2021-08-01 01:39:06.476,0.145,-0.035
2021-08-01 01:39:06.480,0.175,-0.03
2021-08-01 01:39:06.484,0.155,-0.015
2021-08-01 01:39:06.488,0.17,0.03
2021-08-01 01:39:06.492,0.18,0.01
2021-08-01 01:39:06.496,0.155,0.015
2021-08-01 01:39:06.500,0.15,-0.005
2021-08-01 01:39:06.504,0.135,-0.04
2021-08-01 01:39:06.508,0.11,-0.09
2021-08-01 01:39:06.512,0.085,-0.15
2021-08-01 01:39:06.516,0.055,-0.195
2021-08-01 01:39:06.520,0.045,-0.185
2021-08-01 01:39:06.524,0.035,-0.17
2021-08-01 01:39:06.528,0.015,-0.14
2021-08-01 01:39:06.532,0.025,-0.135
2021-08-01 01:39:06.536,0.05,-0.17
2021-08-01 01:39:06.540,0.055,-0.18
2021-08-01 01:39:06.544,0.08,-0.21
2021-08-01 01:39:06.548,0.075,-0.21
2021-08-01 01:39:06.552,0.08,-0.21
2021-08-01 01:39:06.556,0.085,-0.235
2021-08-01 01:39:06.560,0.09,-0.265
2021-08-01 01:39:06.564,0.08,-0.27
2021-08-01 01:39:06.568,0.06,-0.275
2021-08-01 01:39:06.572,0.06,-0.275
2021-08-01 01:39:06.576,0.08,-0.29
2021-08-01 01:39:06.580,0.075,-0.29
2021-08-01 01:39:06.584,0.045,-0.275
2021-08-01 01:39:06.588,0.05,-0.29
2021-08-01 01:39:06.592,0.065,-0.29
2021-08-01 01:39:06.596,0.05,-0.28
2021-08-01 01:39:06.600,0.055,-0.28
2021-08-01 01:39:06.604,0.05,-0.29
2021-08-01 01:39:06.608,0.06,-0.275
2021-08-01 01:39:06.612,0.05,-0.28
2021-08-01 01:39:06.616,0.07,-0.3
2021-08-01 01:39:06.620,0.06,-0.315
2021-08-01 01:39:06.624,0.065,-0.31
2021-08-01 01:39:06.628,0.06,-0.27
2021-08-01 01:39:06.632,0.09,-0.135
2021-08-01 01:39:06.636,0.115,0.07
2021-08-01 01:39:06.640,0.12,0.295
2021-08-01 01:39:06.644,0.155,0.495
2021-08-01 01:39:06.648,0.245,0.605
2021-08-01 01:39:06.652,0.305,0.625
2021-08-01 01:39:06.656,0.35,0.555
2021-08-01 01:39:06.660,0.335,0.3
2021-08-01 01:39:06.664,0.265,-0.225
