Time,ECG1,ECG2
2021-08-01 01:20:26.448,0.065,-0.215
2021-08-01 01:20:26.452,0.045,-0.22
2021-08-01 01:20:26.456,0.04,-0.22
2021-08-01 01:20:26.460,0.055,-0.23
2021-08-01 01:20:26.464,0.065,-0.22
2021-08-01 01:20:26.468,0.045,-0.215
2021-08-01 01:20:26.472,0.045,-0.23
2021-08-01 01:20:26.476,0.045,-0.22
2021-08-01 01:20:26.480,0.045,-0.205
2021-08-01 01:20:26.484,0.055,-0.22
2021-08-01 01:20:26.488,0.055,-0.215
2021-08-01 01:20:26.492,0.055,-0.21
2021-08-01 01:20:26.496,0.055,-0.22
2021-08-01 01:20:26.500,0.05,-0.215
2021-08-01 01:20:26.504,0.06,-0.215
2021-08-01 01:20:26.508,0.065,-0.215
2021-08-01 01:20:26.512,0.055,-0.23
2021-08-01 01:20:26.516,0.05,-0.22
2021-08-01 01:20:26.520,0.05,-0.215
2021-08-01 01:20:26.524,0.06,-0.215
2021-08-01 01:20:26.528,0.065,-0.21
2021-08-01 01:20:26.532,0.06,-0.19
2021-08-01 01:20:26.536,0.055,-0.21
2021-08-01 01:20:26.540,0.06,-0.215
2021-08-01 01:20:26.544,0.07,-0.205
2021-08-01 01:20:26.548,0.07,-0.21
2021-08-01 01:20:26.552,0.065,-0.205
2021-08-01 01:20:26.556,0.08,-0.21
2021-08-01 01:20:26.560,0.07,-0.2
2021-08-01 01:20:26.564,0.07,-0.2
2021-08-01 01:20:26.568,0.065,-0.2
2021-08-01 01:20:26.572,0.07,-0.22
2021-08-01 01:20:26.576,0.07,-0.205
2021-08-01 01:20:26.580,0.08,-0.21
2021-08-01 01:20:26.584,0.075,-0.185
2021-08-01 01:20:26.588,0.07,-0.185
2021-08-01 01:20:26.592,0.075,-0.205
2021-08-01 01:20:26.596,0.08,-0.19
2021-08-01 01:20:26.600,0.085,-0.2
2021-08-01 01:20:26.604,0.08,-0.2
2021-08-01 01:20:26.608,0.075,-0.21
2021-08-01 01:20:26.612,0.08,-0.205
2021-08-01 01:20:26.616,0.075,-0.2
2021-08-01 01:20:26.620,0.08,-0.195
2021-08-01 01:20:26.624,0.095,-0.195
2021-08-01 01:20:26.628,0.075,-0.2
2021-08-01 01:20:26.632,0.085,-0.2
2021-08-01 01:20:26.636,0.08,-0.21
2021-08-01 01:20:26.640,0.08,-0.205
2021-08-01 01:20:26.644,0.1,-0.185
2021-08-01 01:20:26.648,0.08,-0.195
2021-08-01 01:20:26.652,0.075,-0.2
2021-08-01 01:20:26.656,0.095,-0.2
2021-08-01 01:20:26.660,0.085,-0.175
2021-08-01 01:20:26.664,0.08,-0.21
2021-08-01 01:20:26.668,0.085,-0.2
2021-08-01 01:20:26.672,0.08,-0.205
2021-08-01 01:20:26.676,0.07,-0.195
2021-08-01 01:20:26.680,0.085,-0.195
2021-08-01 01:20:26.684,0.07,-0.22
2021-08-01 01:20:26.688,0.07,-0.21
2021-08-01 01:20:26.692,0.085,-0.21
2021-08-01 01:20:26.696,0.08,-0.2
2021-08-01 01:20:26.700,0.075,-0.205
2021-08-01 01:20:26.704,0.07,-0.21
2021-08-01 01:20:26.708,0.075,-0.23
2021-08-01 01:20:26.712,0.085,-0.215
2021-08-01 01:20:26.716,0.065,-0.195
2021-08-01 01:20:26.720,0.085,-0.195
2021-08-01 01:20:26.724,0.075,-0.205
2021-08-01 01:20:26.728,0.085,-0.22
2021-08-01 01:20:26.732,0.07,-0.22
2021-08-01 01:20:26.736,0.07,-0.205
2021-08-01 01:20:26.740,0.07,-0.21
2021-08-01 01:20:26.744,0.055,-0.21
2021-08-01 01:20:26.748,0.06,-0.215
2021-08-01 01:20:26.752,0.07,-0.195
2021-08-01 01:20:26.756,0.07,-0.205
2021-08-01 01:20:26.760,0.07,-0.21
2021-08-01 01:20:26.764,0.09,-0.205
2021-08-01 01:20:26.768,0.075,-0.2
2021-08-01 01:20:26.772,0.07,-0.2
2021-08-01 01:20:26.776,0.075,-0.2
2021-08-01 01:20:26.780,0.065,-0.2
2021-08-01 01:20:26.784,0.075,-0.215
2021-08-01 01:20:26.788,0.08,-0.21
2021-08-01 01:20:26.792,0.055,-0.205
2021-08-01 01:20:26.796,0.065,-0.21
2021-08-01 01:20:26.800,0.075,-0.225
2021-08-01 01:20:26.804,0.07,-0.21
2021-08-01 01:20:26.808,0.065,-0.2
2021-08-01 01:20:26.812,0.055,-0.185
2021-08-01 01:20:26.816,0.065,-0.21
2021-08-01 01:20:26.820,0.07,-0.215
2021-08-01 01:20:26.824,0.05,-0.185
2021-08-01 01:20:26.828,0.055,-0.195
2021-08-01 01:20:26.832,0.075,-0.21
2021-08-01 01:20:26.836,0.07,-0.2
2021-08-01 01:20:26.840,0.08,-0.21
2021-08-01 01:20:26.844,0.06,-0.21
2021-08-01 01:20:26.848,0.085,-0.21
2021-08-01 01:20:26.852,0.085,-0.205
2021-08-01 01:20:26.856,0.07,-0.215
2021-08-01 01:20:26.860,0.075,-0.21
2021-08-01 01:20:26.864,0.065,-0.21
2021-08-01 01:20:26.868,0.06,-0.2
2021-08-01 01:20:26.872,0.07,-0.185
2021-08-01 01:20:26.876,0.055,-0.18
2021-08-01 01:20:26.880,0.07,-0.2
2021-08-01 01:20:26.884,0.06,-0.205
2021-08-01 01:20:26.888,0.07,-0.195
2021-08-01 01:20:26.892,0.06,-0.185
2021-08-01 01:20:26.896,0.055,-0.205
2021-08-01 01:20:26.900,0.07,-0.205
2021-08-01 01:20:26.904,0.05,-0.195
2021-08-01 01:20:26.908,0.075,-0.18
2021-08-01 01:20:26.912,0.07,-0.18
2021-08-01 01:20:26.916,0.07,-0.2
2021-08-01 01:20:26.920,0.085,-0.195
2021-08-01 01:20:26.924,0.07,-0.185
2021-08-01 01:20:26.928,0.085,-0.16
2021-08-01 01:20:26.932,0.065,-0.16
2021-08-01 01:20:26.936,0.08,-0.155
2021-08-01 01:20:26.940,0.065,-0.15
2021-08-01 01:20:26.944,0.07,-0.155
2021-08-01 01:20:26.948,0.08,-0.16
2021-08-01 01:20:26.952,0.095,-0.13
2021-08-01 01:20:26.956,0.09,-0.12
2021-08-01 01:20:26.960,0.09,-0.125
2021-08-01 01:20:26.964,0.075,-0.155
2021-08-01 01:20:26.968,0.085,-0.17
2021-08-01 01:20:26.972,0.025,-0.185
2021-08-01 01:20:26.976,0.01,-0.205
2021-08-01 01:20:26.980,0.03,-0.21
2021-08-01 01:20:26.984,0.025,-0.2
2021-08-01 01:20:26.988,0.005,-0.19
2021-08-01 01:20:26.992,0.015,-0.19
2021-08-01 01:20:26.996,0.0,-0.18
2021-08-01 01:20:27.000,0.015,-0.18
2021-08-01 01:20:27.004,0.025,-0.185
2021-08-01 01:20:27.008,0.055,-0.19
2021-08-01 01:20:27.012,0.04,-0.22
2021-08-01 01:20:27.016,0.055,-0.255
2021-08-01 01:20:27.020,0.075,-0.26
2021-08-01 01:20:27.024,0.07,-0.27
2021-08-01 01:20:27.028,0.05,-0.28
2021-08-01 01:20:27.032,0.04,-0.28
2021-08-01 01:20:27.036,0.05,-0.275
2021-08-01 01:20:27.040,0.04,-0.27
2021-08-01 01:20:27.044,0.05,-0.28
2021-08-01 01:20:27.048,0.045,-0.295
2021-08-01 01:20:27.052,0.04,-0.285
2021-08-01 01:20:27.056,0.04,-0.275
2021-08-01 01:20:27.060,0.04,-0.28
2021-08-01 01:20:27.064,0.03,-0.265
2021-08-01 01:20:27.068,0.055,-0.27
2021-08-01 01:20:27.072,0.065,-0.295
2021-08-01 01:20:27.076,0.055,-0.305
2021-08-01 01:20:27.080,0.045,-0.25
2021-08-01 01:20:27.084,0.055,-0.16
2021-08-01 01:20:27.088,0.08,0.035
2021-08-01 01:20:27.092,0.085,0.285
2021-08-01 01:20:27.096,0.14,0.515
2021-08-01 01:20:27.100,0.24,0.64
2021-08-01 01:20:27.104,0.325,0.645
2021-08-01 01:20:27.108,0.345,0.605
2021-08-01 01:20:27.112,0.325,0.38
2021-08-01 01:20:27.116,0.285,-0.07
2021-08-01 01:20:27.120,0.23,-0.44
2021-08-01 01:20:27.124,0.01,-0.68
2021-08-01 01:20:27.128,-0.18,-0.74
2021-08-01 01:20:27.132,-0.3,-0.655
2021-08-01 01:20:27.136,-0.325,-0.52
2021-08-01 01:20:27.140,-0.31,-0.44
2021-08-01 01:20:27.144,-0.235,-0.37
2021-08-01 01:20:27.148,-0.16,-0.31
2021-08-01 01:20:27.152,-0.07,-0.315
2021-08-01 01:20:27.156,-0.01,-0.32
2021-08-01 01:20:27.160,0.02,-0.32
2021-08-01 01:20:27.164,0.025,-0.32
2021-08-01 01:20:27.168,0.025,-0.32
2021-08-01 01:20:27.172,0.05,-0.32
2021-08-01 01:20:27.176,0.045,-0.305
2021-08-01 01:20:27.180,0.025,-0.31
2021-08-01 01:20:27.184,0.045,-0.305
2021-08-01 01:20:27.188,0.04,-0.3
2021-08-01 01:20:27.192,0.035,-0.305
2021-08-01 01:20:27.196,0.04,-0.33
2021-08-01 01:20:27.200,0.06,-0.305
2021-08-01 01:20:27.204,0.035,-0.31
2021-08-01 01:20:27.208,0.045,-0.295
2021-08-01 01:20:27.212,0.045,-0.305
2021-08-01 01:20:27.216,0.05,-0.295
2021-08-01 01:20:27.220,0.045,-0.3
2021-08-01 01:20:27.224,0.055,-0.31
2021-08-01 01:20:27.228,0.03,-0.31
2021-08-01 01:20:27.232,0.035,-0.29
2021-08-01 01:20:27.236,0.035,-0.3
2021-08-01 01:20:27.240,0.065,-0.295
2021-08-01 01:20:27.244,0.045,-0.28
2021-08-01 01:20:27.248,0.05,-0.28
2021-08-01 01:20:27.252,0.045,-0.28
2021-08-01 01:20:27.256,0.05,-0.275
2021-08-01 01:20:27.260,0.045,-0.265
2021-08-01 01:20:27.264,0.05,-0.26
2021-08-01 01:20:27.268,0.06,-0.255
2021-08-01 01:20:27.272,0.045,-0.245
2021-08-01 01:20:27.276,0.05,-0.25
2021-08-01 01:20:27.280,0.065,-0.255
2021-08-01 01:20:27.284,0.065,-0.245
2021-08-01 01:20:27.288,0.06,-0.225
2021-08-01 01:20:27.292,0.065,-0.22
2021-08-01 01:20:27.296,0.075,-0.205
2021-08-01 01:20:27.300,0.065,-0.205
2021-08-01 01:20:27.304,0.065,-0.205
2021-08-01 01:20:27.308,0.07,-0.21
2021-08-01 01:20:27.312,0.075,-0.185
2021-08-01 01:20:27.316,0.065,-0.2
2021-08-01 01:20:27.320,0.095,-0.19
2021-08-01 01:20:27.324,0.085,-0.185
2021-08-01 01:20:27.328,0.095,-0.16
2021-08-01 01:20:27.332,0.07,-0.16
2021-08-01 01:20:27.336,0.09,-0.165
2021-08-01 01:20:27.340,0.09,-0.15
2021-08-01 01:20:27.344,0.085,-0.145
2021-08-01 01:20:27.348,0.1,-0.145
2021-08-01 01:20:27.352,0.095,-0.155
2021-08-01 01:20:27.356,0.075,-0.15
2021-08-01 01:20:27.360,0.09,-0.14
2021-08-01 01:20:27.364,0.115,-0.145
2021-08-01 01:20:27.368,0.1,-0.12
2021-08-01 01:20:27.372,0.095,-0.12
2021-08-01 01:20:27.376,0.1,-0.11
2021-08-01 01:20:27.380,0.09,-0.08
2021-08-01 01:20:27.384,0.095,-0.075
2021-08-01 01:20:27.388,0.115,-0.06
2021-08-01 01:20:27.392,0.105,-0.05
2021-08-01 01:20:27.396,0.095,-0.055
2021-08-01 01:20:27.400,0.11,-0.06
2021-08-01 01:20:27.404,0.12,-0.045
2021-08-01 01:20:27.408,0.12,-0.025
2021-08-01 01:20:27.412,0.125,-0.045
2021-08-01 01:20:27.416,0.135,-0.065
2021-08-01 01:20:27.420,0.105,-0.04
2021-08-01 01:20:27.424,0.12,-0.065
2021-08-01 01:20:27.428,0.12,-0.075
2021-08-01 01:20:27.432,0.11,-0.08
2021-08-01 01:20:27.436,0.085,-0.1
2021-08-01 01:20:27.440,0.09,-0.11
2021-08-01 01:20:27.444,0.085,-0.085
2021-08-01 01:20:27.448,0.07,-0.105
2021-08-01 01:20:27.452,0.065,-0.12
2021-08-01 01:20:27.456,0.085,-0.115
2021-08-01 01:20:27.460,0.075,-0.12
2021-08-01 01:20:27.464,0.08,-0.115
2021-08-01 01:20:27.468,0.095,-0.125
2021-08-01 01:20:27.472,0.095,-0.145
2021-08-01 01:20:27.476,0.08,-0.125
2021-08-01 01:20:27.480,0.085,-0.125
2021-08-01 01:20:27.484,0.08,-0.125
2021-08-01 01:20:27.488,0.085,-0.115
2021-08-01 01:20:27.492,0.09,-0.11
2021-08-01 01:20:27.496,0.1,-0.11
2021-08-01 01:20:27.500,0.09,-0.105
2021-08-01 01:20:27.504,0.095,-0.11
2021-08-01 01:20:27.508,0.09,-0.105
2021-08-01 01:20:27.512,0.105,-0.115
2021-08-01 01:20:27.516,0.08,-0.11
2021-08-01 01:20:27.520,0.08,-0.135
2021-08-01 01:20:27.524,0.095,-0.135
2021-08-01 01:20:27.528,0.09,-0.13
2021-08-01 01:20:27.532,0.09,-0.13
2021-08-01 01:20:27.536,0.1,-0.125
2021-08-01 01:20:27.540,0.085,-0.1
2021-08-01 01:20:27.544,0.095,-0.12
2021-08-01 01:20:27.548,0.095,-0.14
2021-08-01 01:20:27.552,0.09,-0.115
2021-08-01 01:20:27.556,0.08,-0.11
2021-08-01 01:20:27.560,0.08,-0.145
2021-08-01 01:20:27.564,0.1,-0.13
2021-08-01 01:20:27.568,0.09,-0.135
2021-08-01 01:20:27.572,0.075,-0.14
2021-08-01 01:20:27.576,0.09,-0.16
2021-08-01 01:20:27.580,0.09,-0.135
2021-08-01 01:20:27.584,0.08,-0.14
2021-08-01 01:20:27.588,0.075,-0.16
2021-08-01 01:20:27.592,0.075,-0.16
2021-08-01 01:20:27.596,0.075,-0.135
2021-08-01 01:20:27.600,0.085,-0.14
2021-08-01 01:20:27.604,0.075,-0.16
2021-08-01 01:20:27.608,0.085,-0.14
2021-08-01 01:20:27.612,0.07,-0.16
2021-08-01 01:20:27.616,0.075,-0.155
2021-08-01 01:20:27.620,0.075,-0.16
2021-08-01 01:20:27.624,0.075,-0.155
2021-08-01 01:20:27.628,0.07,-0.175
2021-08-01 01:20:27.632,0.08,-0.18
2021-08-01 01:20:27.636,0.075,-0.17
2021-08-01 01:20:27.640,0.06,-0.15
2021-08-01 01:20:27.644,0.075,-0.16
2021-08-01 01:20:27.648,0.08,-0.17
2021-08-01 01:20:27.652,0.065,-0.175
2021-08-01 01:20:27.656,0.06,-0.16
2021-08-01 01:20:27.660,0.075,-0.175
2021-08-01 01:20:27.664,0.055,-0.18
2021-08-01 01:20:27.668,0.05,-0.165
2021-08-01 01:20:27.672,0.05,-0.16
2021-08-01 01:20:27.676,0.07,-0.18
2021-08-01 01:20:27.680,0.06,-0.18
2021-08-01 01:20:27.684,0.065,-0.185
2021-08-01 01:20:27.688,0.045,-0.185
2021-08-01 01:20:27.692,0.07,-0.165
2021-08-01 01:20:27.696,0.055,-0.16
2021-08-01 01:20:27.700,0.055,-0.175
2021-08-01 01:20:27.704,0.075,-0.175
2021-08-01 01:20:27.708,0.075,-0.16
2021-08-01 01:20:27.712,0.075,-0.16
2021-08-01 01:20:27.716,0.06,-0.18
2021-08-01 01:20:27.720,0.065,-0.18
2021-08-01 01:20:27.724,0.055,-0.175
2021-08-01 01:20:27.728,0.06,-0.19
2021-08-01 01:20:27.732,0.07,-0.18
2021-08-01 01:20:27.736,0.055,-0.16
2021-08-01 01:20:27.740,0.055,-0.19
2021-08-01 01:20:27.744,0.07,-0.19
2021-08-01 01:20:27.748,0.075,-0.17
2021-08-01 01:20:27.752,0.065,-0.17
2021-08-01 01:20:27.756,0.065,-0.175
2021-08-01 01:20:27.760,0.055,-0.19
2021-08-01 01:20:27.764,0.055,-0.18
2021-08-01 01:20:27.768,0.055,-0.19
2021-08-01 01:20:27.772,0.06,-0.185
2021-08-01 01:20:27.776,0.065,-0.175
2021-08-01 01:20:27.780,0.07,-0.165
2021-08-01 01:20:27.784,0.075,-0.17
2021-08-01 01:20:27.788,0.08,-0.175
2021-08-01 01:20:27.792,0.06,-0.185
2021-08-01 01:20:27.796,0.065,-0.19
2021-08-01 01:20:27.800,0.07,-0.175
2021-08-01 01:20:27.804,0.06,-0.17
2021-08-01 01:20:27.808,0.055,-0.17
2021-08-01 01:20:27.812,0.06,-0.17
2021-08-01 01:20:27.816,0.06,-0.175
2021-08-01 01:20:27.820,0.065,-0.16
2021-08-01 01:20:27.824,0.06,-0.155
2021-08-01 01:20:27.828,0.055,-0.15
2021-08-01 01:20:27.832,0.06,-0.14
2021-08-01 01:20:27.836,0.065,-0.145
2021-08-01 01:20:27.840,0.075,-0.135
2021-08-01 01:20:27.844,0.08,-0.1
2021-08-01 01:20:27.848,0.08,-0.1
2021-08-01 01:20:27.852,0.075,-0.1
2021-08-01 01:20:27.856,0.09,-0.105
2021-08-01 01:20:27.860,0.095,-0.085
2021-08-01 01:20:27.864,0.11,-0.065
2021-08-01 01:20:27.868,0.12,-0.05
2021-08-01 01:20:27.872,0.105,-0.08
2021-08-01 01:20:27.876,0.09,-0.125
2021-08-01 01:20:27.880,0.07,-0.13
2021-08-01 01:20:27.884,0.04,-0.135
2021-08-01 01:20:27.888,0.03,-0.165
2021-08-01 01:20:27.892,0.035,-0.19
2021-08-01 01:20:27.896,0.03,-0.175
2021-08-01 01:20:27.900,0.01,-0.15
2021-08-01 01:20:27.904,0.005,-0.16
2021-08-01 01:20:27.908,0.015,-0.135
2021-08-01 01:20:27.912,0.03,-0.14
2021-08-01 01:20:27.916,0.035,-0.18
2021-08-01 01:20:27.920,0.05,-0.2
2021-08-01 01:20:27.924,0.055,-0.19
2021-08-01 01:20:27.928,0.055,-0.205
2021-08-01 01:20:27.932,0.045,-0.23
2021-08-01 01:20:27.936,0.05,-0.225
2021-08-01 01:20:27.940,0.045,-0.24
2021-08-01 01:20:27.944,0.05,-0.25
2021-08-01 01:20:27.948,0.04,-0.255
2021-08-01 01:20:27.952,0.02,-0.27
2021-08-01 01:20:27.956,0.02,-0.25
2021-08-01 01:20:27.960,0.04,-0.25
2021-08-01 01:20:27.964,0.02,-0.24
2021-08-01 01:20:27.968,0.025,-0.26
2021-08-01 01:20:27.972,0.025,-0.25
2021-08-01 01:20:27.976,0.02,-0.24
2021-08-01 01:20:27.980,0.015,-0.23
2021-08-01 01:20:27.984,0.02,-0.255
2021-08-01 01:20:27.988,0.02,-0.28
2021-08-01 01:20:27.992,0.01,-0.285
2021-08-01 01:20:27.996,0.03,-0.28
2021-08-01 01:20:28.000,0.035,-0.235
2021-08-01 01:20:28.004,0.045,-0.11
2021-08-01 01:20:28.008,0.055,0.075
2021-08-01 01:20:28.012,0.085,0.315
2021-08-01 01:20:28.016,0.12,0.525
2021-08-01 01:20:28.020,0.205,0.615
2021-08-01 01:20:28.024,0.29,0.66
2021-08-01 01:20:28.028,0.365,0.6
2021-08-01 01:20:28.032,0.385,0.335
2021-08-01 01:20:28.036,0.39,-0.13
2021-08-01 01:20:28.040,0.38,-0.49
2021-08-01 01:20:28.044,0.16,-0.685
2021-08-01 01:20:28.048,-0.075,-0.74
2021-08-01 01:20:28.052,-0.22,-0.715
2021-08-01 01:20:28.056,-0.31,-0.64
2021-08-01 01:20:28.060,-0.32,-0.51
2021-08-01 01:20:28.064,-0.285,-0.44
2021-08-01 01:20:28.068,-0.23,-0.355
2021-08-01 01:20:28.072,-0.145,-0.315
2021-08-01 01:20:28.076,-0.085,-0.3
2021-08-01 01:20:28.080,-0.035,-0.29
2021-08-01 01:20:28.084,-0.01,-0.305
2021-08-01 01:20:28.088,0.0,-0.3
2021-08-01 01:20:28.092,-0.01,-0.3
2021-08-01 01:20:28.096,0.0,-0.285
2021-08-01 01:20:28.100,-0.01,-0.285
2021-08-01 01:20:28.104,-0.015,-0.29
2021-08-01 01:20:28.108,0.01,-0.295
2021-08-01 01:20:28.112,0.0,-0.3
2021-08-01 01:20:28.116,0.0,-0.285
2021-08-01 01:20:28.120,-0.01,-0.3
2021-08-01 01:20:28.124,0.005,-0.3
2021-08-01 01:20:28.128,-0.005,-0.285
2021-08-01 01:20:28.132,0.0,-0.285
2021-08-01 01:20:28.136,0.01,-0.295
2021-08-01 01:20:28.140,0.005,-0.3
2021-08-01 01:20:28.144,-0.01,-0.315
2021-08-01 01:20:28.148,0.0,-0.32
2021-08-01 01:20:28.152,0.005,-0.305
2021-08-01 01:20:28.156,-0.015,-0.295
2021-08-01 01:20:28.160,-0.02,-0.3
2021-08-01 01:20:28.164,-0.01,-0.3
2021-08-01 01:20:28.168,-0.02,-0.28
2021-08-01 01:20:28.172,-0.015,-0.27
2021-08-01 01:20:28.176,-0.01,-0.27
2021-08-01 01:20:28.180,-0.005,-0.275
2021-08-01 01:20:28.184,-0.015,-0.28
2021-08-01 01:20:28.188,-0.015,-0.27
2021-08-01 01:20:28.192,0.005,-0.27
2021-08-01 01:20:28.196,0.0,-0.255
2021-08-01 01:20:28.200,-0.01,-0.27
2021-08-01 01:20:28.204,0.0,-0.265
2021-08-01 01:20:28.208,0.005,-0.275
2021-08-01 01:20:28.212,-0.005,-0.245
2021-08-01 01:20:28.216,-0.005,-0.26
2021-08-01 01:20:28.220,0.0,-0.25
2021-08-01 01:20:28.224,-0.015,-0.24
2021-08-01 01:20:28.228,-0.005,-0.225
2021-08-01 01:20:28.232,0.015,-0.235
2021-08-01 01:20:28.236,0.01,-0.22
2021-08-01 01:20:28.240,0.005,-0.23
2021-08-01 01:20:28.244,0.0,-0.22
2021-08-01 01:20:28.248,0.015,-0.215
2021-08-01 01:20:28.252,0.01,-0.2
2021-08-01 01:20:28.256,0.01,-0.21
2021-08-01 01:20:28.260,0.01,-0.22
2021-08-01 01:20:28.264,0.03,-0.215
2021-08-01 01:20:28.268,0.0,-0.19
2021-08-01 01:20:28.272,0.015,-0.195
2021-08-01 01:20:28.276,0.01,-0.18
2021-08-01 01:20:28.280,0.03,-0.16
2021-08-01 01:20:28.284,0.04,-0.14
2021-08-01 01:20:28.288,0.03,-0.14
2021-08-01 01:20:28.292,0.025,-0.14
2021-08-01 01:20:28.296,0.02,-0.115
2021-08-01 01:20:28.300,0.04,-0.11
2021-08-01 01:20:28.304,0.055,-0.11
2021-08-01 01:20:28.308,0.05,-0.095
2021-08-01 01:20:28.312,0.045,-0.11
2021-08-01 01:20:28.316,0.06,-0.13
2021-08-01 01:20:28.320,0.065,-0.125
2021-08-01 01:20:28.324,0.055,-0.13
2021-08-01 01:20:28.328,0.065,-0.14
2021-08-01 01:20:28.332,0.075,-0.15
2021-08-01 01:20:28.336,0.06,-0.165
2021-08-01 01:20:28.340,0.045,-0.17
2021-08-01 01:20:28.344,0.07,-0.155
2021-08-01 01:20:28.348,0.09,-0.15
2021-08-01 01:20:28.352,0.065,-0.155
2021-08-01 01:20:28.356,0.05,-0.15
2021-08-01 01:20:28.360,0.065,-0.155
2021-08-01 01:20:28.364,0.075,-0.165
2021-08-01 01:20:28.368,0.07,-0.16
2021-08-01 01:20:28.372,0.055,-0.17
2021-08-01 01:20:28.376,0.055,-0.165
2021-08-01 01:20:28.380,0.055,-0.17
2021-08-01 01:20:28.384,0.065,-0.16
2021-08-01 01:20:28.388,0.06,-0.155
2021-08-01 01:20:28.392,0.065,-0.17
2021-08-01 01:20:28.396,0.075,-0.165
2021-08-01 01:20:28.400,0.07,-0.155
2021-08-01 01:20:28.404,0.07,-0.15
2021-08-01 01:20:28.408,0.075,-0.16
2021-08-01 01:20:28.412,0.085,-0.17
2021-08-01 01:20:28.416,0.06,-0.15
2021-08-01 01:20:28.420,0.07,-0.155
2021-08-01 01:20:28.424,0.09,-0.15
2021-08-01 01:20:28.428,0.08,-0.155
2021-08-01 01:20:28.432,0.065,-0.16
2021-08-01 01:20:28.436,0.07,-0.16
2021-08-01 01:20:28.440,0.085,-0.145
2021-08-01 01:20:28.444,0.08,-0.14
2021-08-01 01:20:28.448,0.08,-0.16
2021-08-01 01:20:28.452,0.08,-0.16
2021-08-01 01:20:28.456,0.065,-0.16
2021-08-01 01:20:28.460,0.06,-0.17
2021-08-01 01:20:28.464,0.075,-0.17
2021-08-01 01:20:28.468,0.065,-0.165
2021-08-01 01:20:28.472,0.07,-0.175
2021-08-01 01:20:28.476,0.075,-0.175
2021-08-01 01:20:28.480,0.06,-0.175
2021-08-01 01:20:28.484,0.07,-0.175
2021-08-01 01:20:28.488,0.08,-0.19
2021-08-01 01:20:28.492,0.075,-0.195
2021-08-01 01:20:28.496,0.065,-0.18
2021-08-01 01:20:28.500,0.065,-0.165
2021-08-01 01:20:28.504,0.075,-0.19
2021-08-01 01:20:28.508,0.08,-0.195
2021-08-01 01:20:28.512,0.075,-0.185
2021-08-01 01:20:28.516,0.085,-0.185
2021-08-01 01:20:28.520,0.085,-0.19
2021-08-01 01:20:28.524,0.075,-0.195
2021-08-01 01:20:28.528,0.08,-0.205
2021-08-01 01:20:28.532,0.07,-0.205
2021-08-01 01:20:28.536,0.055,-0.18
2021-08-01 01:20:28.540,0.085,-0.195
2021-08-01 01:20:28.544,0.085,-0.18
2021-08-01 01:20:28.548,0.075,-0.185
2021-08-01 01:20:28.552,0.065,-0.18
2021-08-01 01:20:28.556,0.07,-0.2
2021-08-01 01:20:28.560,0.085,-0.185
2021-08-01 01:20:28.564,0.08,-0.185
2021-08-01 01:20:28.568,0.065,-0.19
2021-08-01 01:20:28.572,0.075,-0.185
2021-08-01 01:20:28.576,0.065,-0.185
2021-08-01 01:20:28.580,0.075,-0.19
2021-08-01 01:20:28.584,0.075,-0.185
2021-08-01 01:20:28.588,0.085,-0.19
2021-08-01 01:20:28.592,0.065,-0.19
2021-08-01 01:20:28.596,0.085,-0.185
2021-08-01 01:20:28.600,0.095,-0.185
2021-08-01 01:20:28.604,0.07,-0.185
2021-08-01 01:20:28.608,0.085,-0.19
2021-08-01 01:20:28.612,0.09,-0.175
2021-08-01 01:20:28.616,0.1,-0.18
2021-08-01 01:20:28.620,0.07,-0.18
2021-08-01 01:20:28.624,0.09,-0.195
2021-08-01 01:20:28.628,0.085,-0.2
2021-08-01 01:20:28.632,0.07,-0.195
2021-08-01 01:20:28.636,0.08,-0.195
2021-08-01 01:20:28.640,0.065,-0.17
2021-08-01 01:20:28.644,0.075,-0.175
2021-08-01 01:20:28.648,0.075,-0.175
2021-08-01 01:20:28.652,0.07,-0.19
2021-08-01 01:20:28.656,0.09,-0.185
2021-08-01 01:20:28.660,0.075,-0.16
2021-08-01 01:20:28.664,0.07,-0.16
2021-08-01 01:20:28.668,0.095,-0.14
2021-08-01 01:20:28.672,0.095,-0.115
2021-08-01 01:20:28.676,0.1,-0.095
2021-08-01 01:20:28.680,0.095,-0.1
2021-08-01 01:20:28.684,0.12,-0.095
2021-08-01 01:20:28.688,0.115,-0.07
2021-08-01 01:20:28.692,0.13,-0.055
2021-08-01 01:20:28.696,0.16,-0.025
2021-08-01 01:20:28.700,0.15,0.0
2021-08-01 01:20:28.704,0.135,-0.02
2021-08-01 01:20:28.708,0.13,-0.05
2021-08-01 01:20:28.712,0.115,-0.095
2021-08-01 01:20:28.716,0.09,-0.155
2021-08-01 01:20:28.720,0.065,-0.18
2021-08-01 01:20:28.724,0.06,-0.175
2021-08-01 01:20:28.728,0.045,-0.165
2021-08-01 01:20:28.732,0.035,-0.14
2021-08-01 01:20:28.736,0.035,-0.155
2021-08-01 01:20:28.740,0.045,-0.175
2021-08-01 01:20:28.744,0.055,-0.175
2021-08-01 01:20:28.748,0.07,-0.21
2021-08-01 01:20:28.752,0.08,-0.215
2021-08-01 01:20:28.756,0.08,-0.225
2021-08-01 01:20:28.760,0.065,-0.245
2021-08-01 01:20:28.764,0.09,-0.26
2021-08-01 01:20:28.768,0.09,-0.28
2021-08-01 01:20:28.772,0.07,-0.275
2021-08-01 01:20:28.776,0.055,-0.29
2021-08-01 01:20:28.780,0.06,-0.285
2021-08-01 01:20:28.784,0.045,-0.28
2021-08-01 01:20:28.788,0.065,-0.28
2021-08-01 01:20:28.792,0.06,-0.29
2021-08-01 01:20:28.796,0.05,-0.29
2021-08-01 01:20:28.800,0.065,-0.285
2021-08-01 01:20:28.804,0.07,-0.285
2021-08-01 01:20:28.808,0.085,-0.275
2021-08-01 01:20:28.812,0.07,-0.265
2021-08-01 01:20:28.816,0.07,-0.265
2021-08-01 01:20:28.820,0.07,-0.275
2021-08-01 01:20:28.824,0.065,-0.28
2021-08-01 01:20:28.828,0.075,-0.305
2021-08-01 01:20:28.832,0.055,-0.3
2021-08-01 01:20:28.836,0.075,-0.23
2021-08-01 01:20:28.840,0.085,-0.07
2021-08-01 01:20:28.844,0.1,0.135
2021-08-01 01:20:28.848,0.145,0.405
2021-08-01 01:20:28.852,0.22,0.59
2021-08-01 01:20:28.856,0.31,0.635
2021-08-01 01:20:28.860,0.4,0.655
2021-08-01 01:20:28.864,0.41,0.555
2021-08-01 01:20:28.868,0.385,0.17
2021-08-01 01:20:28.872,0.375,-0.315
2021-08-01 01:20:28.876,0.265,-0.61
2021-08-01 01:20:28.880,0.035,-0.745
2021-08-01 01:20:28.884,-0.145,-0.76
2021-08-01 01:20:28.888,-0.245,-0.68
2021-08-01 01:20:28.892,-0.27,-0.555
2021-08-01 01:20:28.896,-0.27,-0.46
2021-08-01 01:20:28.900,-0.225,-0.385
2021-08-01 01:20:28.904,-0.14,-0.31
2021-08-01 01:20:28.908,-0.055,-0.295
2021-08-01 01:20:28.912,0.0,-0.29
2021-08-01 01:20:28.916,0.035,-0.3
2021-08-01 01:20:28.920,0.045,-0.305
2021-08-01 01:20:28.924,0.04,-0.3
2021-08-01 01:20:28.928,0.05,-0.29
2021-08-01 01:20:28.932,0.05,-0.295
2021-08-01 01:20:28.936,0.06,-0.29
2021-08-01 01:20:28.940,0.055,-0.295
2021-08-01 01:20:28.944,0.055,-0.275
2021-08-01 01:20:28.948,0.065,-0.28
2021-08-01 01:20:28.952,0.045,-0.305
2021-08-01 01:20:28.956,0.07,-0.295
2021-08-01 01:20:28.960,0.045,-0.28
2021-08-01 01:20:28.964,0.055,-0.285
2021-08-01 01:20:28.968,0.06,-0.3
2021-08-01 01:20:28.972,0.055,-0.295
2021-08-01 01:20:28.976,0.04,-0.28
2021-08-01 01:20:28.980,0.07,-0.27
2021-08-01 01:20:28.984,0.06,-0.28
2021-08-01 01:20:28.988,0.055,-0.27
2021-08-01 01:20:28.992,0.07,-0.29
2021-08-01 01:20:28.996,0.07,-0.28
2021-08-01 01:20:29.000,0.055,-0.265
2021-08-01 01:20:29.004,0.055,-0.26
2021-08-01 01:20:29.008,0.065,-0.265
2021-08-01 01:20:29.012,0.06,-0.27
2021-08-01 01:20:29.016,0.045,-0.265
2021-08-01 01:20:29.020,0.065,-0.265
2021-08-01 01:20:29.024,0.055,-0.245
2021-08-01 01:20:29.028,0.055,-0.26
2021-08-01 01:20:29.032,0.05,-0.245
2021-08-01 01:20:29.036,0.065,-0.23
2021-08-01 01:20:29.040,0.04,-0.235
2021-08-01 01:20:29.044,0.05,-0.23
2021-08-01 01:20:29.048,0.055,-0.215
2021-08-01 01:20:29.052,0.065,-0.21
2021-08-01 01:20:29.056,0.04,-0.21
2021-08-01 01:20:29.060,0.07,-0.2
2021-08-01 01:20:29.064,0.07,-0.19
2021-08-01 01:20:29.068,0.09,-0.19
2021-08-01 01:20:29.072,0.065,-0.2
2021-08-01 01:20:29.076,0.08,-0.195
2021-08-01 01:20:29.080,0.075,-0.175
2021-08-01 01:20:29.084,0.07,-0.175
2021-08-01 01:20:29.088,0.08,-0.175
2021-08-01 01:20:29.092,0.085,-0.175
2021-08-01 01:20:29.096,0.07,-0.17
2021-08-01 01:20:29.100,0.08,-0.16
2021-08-01 01:20:29.104,0.085,-0.17
2021-08-01 01:20:29.108,0.08,-0.16
2021-08-01 01:20:29.112,0.09,-0.125
2021-08-01 01:20:29.116,0.085,-0.115
2021-08-01 01:20:29.120,0.075,-0.115
2021-08-01 01:20:29.124,0.095,-0.115
2021-08-01 01:20:29.128,0.09,-0.12
2021-08-01 01:20:29.132,0.09,-0.105
2021-08-01 01:20:29.136,0.1,-0.12
2021-08-01 01:20:29.140,0.08,-0.11
2021-08-01 01:20:29.144,0.085,-0.12
2021-08-01 01:20:29.148,0.085,-0.12
2021-08-01 01:20:29.152,0.085,-0.145
2021-08-01 01:20:29.156,0.105,-0.15
2021-08-01 01:20:29.160,0.1,-0.165
2021-08-01 01:20:29.164,0.11,-0.165
2021-08-01 01:20:29.168,0.09,-0.165
2021-08-01 01:20:29.172,0.085,-0.17
2021-08-01 01:20:29.176,0.09,-0.16
2021-08-01 01:20:29.180,0.095,-0.185
2021-08-01 01:20:29.184,0.085,-0.185
2021-08-01 01:20:29.188,0.085,-0.19
2021-08-01 01:20:29.192,0.075,-0.185
2021-08-01 01:20:29.196,0.105,-0.175
2021-08-01 01:20:29.200,0.095,-0.19
2021-08-01 01:20:29.204,0.08,-0.2
2021-08-01 01:20:29.208,0.08,-0.19
2021-08-01 01:20:29.212,0.095,-0.185
2021-08-01 01:20:29.216,0.085,-0.175
2021-08-01 01:20:29.220,0.085,-0.185
2021-08-01 01:20:29.224,0.08,-0.19
2021-08-01 01:20:29.228,0.1,-0.19
2021-08-01 01:20:29.232,0.09,-0.17
2021-08-01 01:20:29.236,0.09,-0.18
2021-08-01 01:20:29.240,0.11,-0.18
2021-08-01 01:20:29.244,0.1,-0.175
2021-08-01 01:20:29.248,0.09,-0.17
2021-08-01 01:20:29.252,0.09,-0.18
2021-08-01 01:20:29.256,0.09,-0.175
2021-08-01 01:20:29.260,0.085,-0.16
2021-08-01 01:20:29.264,0.095,-0.18
2021-08-01 01:20:29.268,0.12,-0.16
2021-08-01 01:20:29.272,0.1,-0.17
2021-08-01 01:20:29.276,0.1,-0.185
2021-08-01 01:20:29.280,0.095,-0.17
2021-08-01 01:20:29.284,0.105,-0.16
2021-08-01 01:20:29.288,0.085,-0.175
2021-08-01 01:20:29.292,0.09,-0.165
2021-08-01 01:20:29.296,0.085,-0.185
2021-08-01 01:20:29.300,0.08,-0.185
2021-08-01 01:20:29.304,0.08,-0.185
2021-08-01 01:20:29.308,0.08,-0.185
2021-08-01 01:20:29.312,0.09,-0.175
2021-08-01 01:20:29.316,0.075,-0.175
2021-08-01 01:20:29.320,0.08,-0.195
2021-08-01 01:20:29.324,0.095,-0.185
2021-08-01 01:20:29.328,0.08,-0.185
2021-08-01 01:20:29.332,0.085,-0.21
2021-08-01 01:20:29.336,0.105,-0.205
2021-08-01 01:20:29.340,0.09,-0.19
2021-08-01 01:20:29.344,0.08,-0.195
2021-08-01 01:20:29.348,0.075,-0.195
2021-08-01 01:20:29.352,0.09,-0.21
2021-08-01 01:20:29.356,0.07,-0.2
2021-08-01 01:20:29.360,0.105,-0.21
2021-08-01 01:20:29.364,0.08,-0.215
2021-08-01 01:20:29.368,0.08,-0.19
2021-08-01 01:20:29.372,0.115,-0.195
2021-08-01 01:20:29.376,0.085,-0.225
2021-08-01 01:20:29.380,0.1,-0.21
2021-08-01 01:20:29.384,0.085,-0.2
2021-08-01 01:20:29.388,0.075,-0.205
2021-08-01 01:20:29.392,0.085,-0.215
2021-08-01 01:20:29.396,0.08,-0.2
2021-08-01 01:20:29.400,0.09,-0.205
2021-08-01 01:20:29.404,0.08,-0.2
2021-08-01 01:20:29.408,0.09,-0.19
2021-08-01 01:20:29.412,0.1,-0.195
2021-08-01 01:20:29.416,0.08,-0.175
2021-08-01 01:20:29.420,0.09,-0.15
2021-08-01 01:20:29.424,0.1,-0.135
2021-08-01 01:20:29.428,0.135,-0.135
2021-08-01 01:20:29.432,0.115,-0.11
2021-08-01 01:20:29.436,0.13,-0.125
2021-08-01 01:20:29.440,0.13,-0.11
2021-08-01 01:20:29.444,0.15,-0.075
2021-08-01 01:20:29.448,0.155,-0.04
2021-08-01 01:20:29.452,0.14,-0.03
2021-08-01 01:20:29.456,0.14,-0.05
2021-08-01 01:20:29.460,0.15,-0.09
2021-08-01 01:20:29.464,0.12,-0.11
2021-08-01 01:20:29.468,0.115,-0.155
2021-08-01 01:20:29.472,0.085,-0.175
2021-08-01 01:20:29.476,0.075,-0.19
2021-08-01 01:20:29.480,0.06,-0.2
2021-08-01 01:20:29.484,0.055,-0.19
2021-08-01 01:20:29.488,0.055,-0.19
2021-08-01 01:20:29.492,0.05,-0.185
2021-08-01 01:20:29.496,0.065,-0.2
2021-08-01 01:20:29.500,0.07,-0.215
2021-08-01 01:20:29.504,0.085,-0.23
2021-08-01 01:20:29.508,0.095,-0.25
2021-08-01 01:20:29.512,0.085,-0.26
2021-08-01 01:20:29.516,0.09,-0.275
2021-08-01 01:20:29.520,0.105,-0.285
2021-08-01 01:20:29.524,0.1,-0.29
2021-08-01 01:20:29.528,0.095,-0.295
2021-08-01 01:20:29.532,0.08,-0.295
2021-08-01 01:20:29.536,0.07,-0.305
2021-08-01 01:20:29.540,0.085,-0.285
2021-08-01 01:20:29.544,0.065,-0.285
2021-08-01 01:20:29.548,0.1,-0.29
2021-08-01 01:20:29.552,0.1,-0.29
2021-08-01 01:20:29.556,0.085,-0.29
2021-08-01 01:20:29.560,0.09,-0.29
2021-08-01 01:20:29.564,0.1,-0.285
2021-08-01 01:20:29.568,0.085,-0.285
2021-08-01 01:20:29.572,0.09,-0.29
2021-08-01 01:20:29.576,0.095,-0.3
2021-08-01 01:20:29.580,0.105,-0.32
2021-08-01 01:20:29.584,0.07,-0.32
2021-08-01 01:20:29.588,0.075,-0.275
2021-08-01 01:20:29.592,0.1,-0.145
2021-08-01 01:20:29.596,0.135,0.075
2021-08-01 01:20:29.600,0.145,0.295
2021-08-01 01:20:29.604,0.21,0.52
2021-08-01 01:20:29.608,0.295,0.6
2021-08-01 01:20:29.612,0.37,0.645
2021-08-01 01:20:29.616,0.4,0.59
2021-08-01 01:20:29.620,0.39,0.245
2021-08-01 01:20:29.624,0.36,-0.255
2021-08-01 01:20:29.628,0.295,-0.58
2021-08-01 01:20:29.632,0.08,-0.705
2021-08-01 01:20:29.636,-0.105,-0.745
2021-08-01 01:20:29.640,-0.205,-0.66
2021-08-01 01:20:29.644,-0.245,-0.54
2021-08-01 01:20:29.648,-0.235,-0.45
2021-08-01 01:20:29.652,-0.175,-0.355
2021-08-01 01:20:29.656,-0.09,-0.3
2021-08-01 01:20:29.660,-0.01,-0.29
2021-08-01 01:20:29.664,0.04,-0.31
2021-08-01 01:20:29.668,0.075,-0.295
2021-08-01 01:20:29.672,0.095,-0.29
2021-08-01 01:20:29.676,0.095,-0.285
2021-08-01 01:20:29.680,0.085,-0.295
2021-08-01 01:20:29.684,0.095,-0.3
2021-08-01 01:20:29.688,0.08,-0.3
2021-08-01 01:20:29.692,0.1,-0.285
2021-08-01 01:20:29.696,0.095,-0.28
2021-08-01 01:20:29.700,0.08,-0.275
2021-08-01 01:20:29.704,0.095,-0.28
2021-08-01 01:20:29.708,0.085,-0.295
2021-08-01 01:20:29.712,0.085,-0.29
2021-08-01 01:20:29.716,0.095,-0.295
2021-08-01 01:20:29.720,0.08,-0.29
2021-08-01 01:20:29.724,0.07,-0.28
2021-08-01 01:20:29.728,0.08,-0.28
2021-08-01 01:20:29.732,0.09,-0.28
2021-08-01 01:20:29.736,0.08,-0.27
2021-08-01 01:20:29.740,0.095,-0.275
2021-08-01 01:20:29.744,0.095,-0.275
2021-08-01 01:20:29.748,0.085,-0.29
2021-08-01 01:20:29.752,0.075,-0.265
2021-08-01 01:20:29.756,0.075,-0.26
2021-08-01 01:20:29.760,0.08,-0.255
2021-08-01 01:20:29.764,0.075,-0.245
2021-08-01 01:20:29.768,0.095,-0.255
2021-08-01 01:20:29.772,0.08,-0.25
2021-08-01 01:20:29.776,0.08,-0.23
2021-08-01 01:20:29.780,0.07,-0.215
2021-08-01 01:20:29.784,0.07,-0.22
2021-08-01 01:20:29.788,0.09,-0.225
2021-08-01 01:20:29.792,0.08,-0.195
2021-08-01 01:20:29.796,0.085,-0.185
2021-08-01 01:20:29.800,0.1,-0.185
2021-08-01 01:20:29.804,0.08,-0.195
2021-08-01 01:20:29.808,0.09,-0.165
2021-08-01 01:20:29.812,0.085,-0.165
2021-08-01 01:20:29.816,0.095,-0.16
2021-08-01 01:20:29.820,0.095,-0.16
2021-08-01 01:20:29.824,0.115,-0.16
2021-08-01 01:20:29.828,0.105,-0.13
2021-08-01 01:20:29.832,0.105,-0.115
2021-08-01 01:20:29.836,0.1,-0.14
2021-08-01 01:20:29.840,0.09,-0.14
2021-08-01 01:20:29.844,0.1,-0.135
2021-08-01 01:20:29.848,0.105,-0.13
2021-08-01 01:20:29.852,0.1,-0.115
2021-08-01 01:20:29.856,0.12,-0.1
2021-08-01 01:20:29.860,0.115,-0.1
2021-08-01 01:20:29.864,0.115,-0.095
2021-08-01 01:20:29.868,0.1,-0.085
2021-08-01 01:20:29.872,0.12,-0.08
2021-08-01 01:20:29.876,0.12,-0.075
2021-08-01 01:20:29.880,0.125,-0.075
2021-08-01 01:20:29.884,0.12,-0.08
2021-08-01 01:20:29.888,0.11,-0.075
2021-08-01 01:20:29.892,0.12,-0.075
2021-08-01 01:20:29.896,0.145,-0.095
2021-08-01 01:20:29.900,0.125,-0.1
2021-08-01 01:20:29.904,0.11,-0.12
2021-08-01 01:20:29.908,0.12,-0.12
2021-08-01 01:20:29.912,0.13,-0.115
2021-08-01 01:20:29.916,0.135,-0.125
2021-08-01 01:20:29.920,0.135,-0.135
2021-08-01 01:20:29.924,0.115,-0.14
2021-08-01 01:20:29.928,0.105,-0.14
2021-08-01 01:20:29.932,0.105,-0.155
2021-08-01 01:20:29.936,0.11,-0.16
2021-08-01 01:20:29.940,0.11,-0.15
2021-08-01 01:20:29.944,0.105,-0.155
2021-08-01 01:20:29.948,0.115,-0.15
2021-08-01 01:20:29.952,0.1,-0.16
2021-08-01 01:20:29.956,0.105,-0.17
2021-08-01 01:20:29.960,0.12,-0.175
2021-08-01 01:20:29.964,0.125,-0.16
2021-08-01 01:20:29.968,0.11,-0.135
2021-08-01 01:20:29.972,0.115,-0.16
2021-08-01 01:20:29.976,0.115,-0.16
2021-08-01 01:20:29.980,0.11,-0.17
2021-08-01 01:20:29.984,0.115,-0.165
2021-08-01 01:20:29.988,0.105,-0.175
2021-08-01 01:20:29.992,0.125,-0.155
2021-08-01 01:20:29.996,0.12,-0.165
2021-08-01 01:20:30.000,0.1,-0.17
2021-08-01 01:20:30.004,0.11,-0.145
2021-08-01 01:20:30.008,0.11,-0.14
2021-08-01 01:20:30.012,0.1,-0.16
2021-08-01 01:20:30.016,0.1,-0.145
2021-08-01 01:20:30.020,0.105,-0.15
2021-08-01 01:20:30.024,0.105,-0.145
2021-08-01 01:20:30.028,0.11,-0.16
2021-08-01 01:20:30.032,0.09,-0.16
2021-08-01 01:20:30.036,0.095,-0.165
2021-08-01 01:20:30.040,0.09,-0.14
2021-08-01 01:20:30.044,0.11,-0.16
2021-08-01 01:20:30.048,0.095,-0.155
2021-08-01 01:20:30.052,0.095,-0.16
2021-08-01 01:20:30.056,0.09,-0.165
2021-08-01 01:20:30.060,0.085,-0.16
2021-08-01 01:20:30.064,0.08,-0.165
2021-08-01 01:20:30.068,0.1,-0.17
2021-08-01 01:20:30.072,0.085,-0.17
2021-08-01 01:20:30.076,0.085,-0.18
2021-08-01 01:20:30.080,0.075,-0.18
2021-08-01 01:20:30.084,0.08,-0.195
2021-08-01 01:20:30.088,0.085,-0.17
2021-08-01 01:20:30.092,0.085,-0.175
2021-08-01 01:20:30.096,0.08,-0.175
2021-08-01 01:20:30.100,0.095,-0.175
2021-08-01 01:20:30.104,0.085,-0.175
2021-08-01 01:20:30.108,0.095,-0.19
2021-08-01 01:20:30.112,0.075,-0.195
2021-08-01 01:20:30.116,0.085,-0.185
2021-08-01 01:20:30.120,0.065,-0.185
2021-08-01 01:20:30.124,0.085,-0.18
2021-08-01 01:20:30.128,0.065,-0.185
2021-08-01 01:20:30.132,0.085,-0.195
2021-08-01 01:20:30.136,0.065,-0.195
2021-08-01 01:20:30.140,0.08,-0.165
2021-08-01 01:20:30.144,0.085,-0.16
2021-08-01 01:20:30.148,0.07,-0.16
2021-08-01 01:20:30.152,0.075,-0.13
2021-08-01 01:20:30.156,0.1,-0.125
2021-08-01 01:20:30.160,0.095,-0.1
2021-08-01 01:20:30.164,0.115,-0.08
2021-08-01 01:20:30.168,0.125,-0.085
2021-08-01 01:20:30.172,0.12,-0.075
2021-08-01 01:20:30.176,0.15,-0.065
2021-08-01 01:20:30.180,0.145,-0.03
2021-08-01 01:20:30.184,0.13,-0.02
2021-08-01 01:20:30.188,0.12,-0.06
2021-08-01 01:20:30.192,0.13,-0.085
2021-08-01 01:20:30.196,0.11,-0.13
2021-08-01 01:20:30.200,0.08,-0.16
2021-08-01 01:20:30.204,0.05,-0.195
2021-08-01 01:20:30.208,0.035,-0.195
2021-08-01 01:20:30.212,0.035,-0.17
2021-08-01 01:20:30.216,0.035,-0.15
2021-08-01 01:20:30.220,0.045,-0.18
2021-08-01 01:20:30.224,0.06,-0.175
2021-08-01 01:20:30.228,0.075,-0.2
2021-08-01 01:20:30.232,0.075,-0.24
2021-08-01 01:20:30.236,0.1,-0.23
2021-08-01 01:20:30.240,0.085,-0.25
2021-08-01 01:20:30.244,0.085,-0.275
2021-08-01 01:20:30.248,0.1,-0.295
2021-08-01 01:20:30.252,0.07,-0.285
2021-08-01 01:20:30.256,0.08,-0.285
2021-08-01 01:20:30.260,0.055,-0.285
2021-08-01 01:20:30.264,0.065,-0.28
2021-08-01 01:20:30.268,0.065,-0.29
2021-08-01 01:20:30.272,0.05,-0.3
2021-08-01 01:20:30.276,0.055,-0.29
2021-08-01 01:20:30.280,0.065,-0.3
2021-08-01 01:20:30.284,0.055,-0.295
2021-08-01 01:20:30.288,0.05,-0.31
2021-08-01 01:20:30.292,0.065,-0.305
2021-08-01 01:20:30.296,0.045,-0.285
2021-08-01 01:20:30.300,0.05,-0.28
2021-08-01 01:20:30.304,0.07,-0.305
2021-08-01 01:20:30.308,0.065,-0.315
2021-08-01 01:20:30.312,0.06,-0.32
2021-08-01 01:20:30.316,0.07,-0.265
2021-08-01 01:20:30.320,0.07,-0.13
2021-08-01 01:20:30.324,0.09,0.095
2021-08-01 01:20:30.328,0.12,0.335
2021-08-01 01:20:30.332,0.175,0.53
2021-08-01 01:20:30.336,0.26,0.61
2021-08-01 01:20:30.340,0.345,0.6
2021-08-01 01:20:30.344,0.41,0.495
2021-08-01 01:20:30.348,0.39,0.06
2021-08-01 01:20:30.352,0.39,-0.395
2021-08-01 01:20:30.356,0.285,-0.685
2021-08-01 01:20:30.360,0.05,-0.77
2021-08-01 01:20:30.364,-0.14,-0.785
2021-08-01 01:20:30.368,-0.24,-0.7
2021-08-01 01:20:30.372,-0.26,-0.585
2021-08-01 01:20:30.376,-0.255,-0.475
2021-08-01 01:20:30.380,-0.205,-0.4
2021-08-01 01:20:30.384,-0.13,-0.335
2021-08-01 01:20:30.388,-0.05,-0.305
2021-08-01 01:20:30.392,-0.01,-0.295
2021-08-01 01:20:30.396,0.03,-0.315
2021-08-01 01:20:30.400,0.045,-0.325
2021-08-01 01:20:30.404,0.045,-0.31
2021-08-01 01:20:30.408,0.035,-0.315
2021-08-01 01:20:30.412,0.055,-0.3
2021-08-01 01:20:30.416,0.035,-0.315
2021-08-01 01:20:30.420,0.045,-0.31
2021-08-01 01:20:30.424,0.055,-0.31
2021-08-01 01:20:30.428,0.05,-0.295
2021-08-01 01:20:30.432,0.04,-0.315
2021-08-01 01:20:30.436,0.03,-0.315
2021-08-01 01:20:30.440,0.045,-0.315
2021-08-01 01:20:30.444,0.03,-0.31
2021-08-01 01:20:30.448,0.045,-0.295
2021-08-01 01:20:30.452,0.055,-0.31
2021-08-01 01:20:30.456,0.04,-0.31
2021-08-01 01:20:30.460,0.04,-0.315
2021-08-01 01:20:30.464,0.035,-0.29
2021-08-01 01:20:30.468,0.04,-0.285
2021-08-01 01:20:30.472,0.055,-0.275
2021-08-01 01:20:30.476,0.04,-0.29
2021-08-01 01:20:30.480,0.045,-0.295
2021-08-01 01:20:30.484,0.03,-0.305
2021-08-01 01:20:30.488,0.03,-0.29
2021-08-01 01:20:30.492,0.04,-0.28
2021-08-01 01:20:30.496,0.035,-0.265
2021-08-01 01:20:30.500,0.03,-0.28
2021-08-01 01:20:30.504,0.03,-0.27
2021-08-01 01:20:30.508,0.04,-0.245
2021-08-01 01:20:30.512,0.02,-0.26
2021-08-01 01:20:30.516,0.025,-0.265
2021-08-01 01:20:30.520,0.03,-0.25
2021-08-01 01:20:30.524,0.025,-0.22
2021-08-01 01:20:30.528,0.025,-0.22
2021-08-01 01:20:30.532,0.055,-0.215
2021-08-01 01:20:30.536,0.035,-0.2
2021-08-01 01:20:30.540,0.04,-0.205
2021-08-01 01:20:30.544,0.045,-0.175
2021-08-01 01:20:30.548,0.05,-0.175
2021-08-01 01:20:30.552,0.035,-0.18
2021-08-01 01:20:30.556,0.025,-0.19
2021-08-01 01:20:30.560,0.045,-0.16
2021-08-01 01:20:30.564,0.06,-0.145
2021-08-01 01:20:30.568,0.065,-0.13
2021-08-01 01:20:30.572,0.065,-0.13
2021-08-01 01:20:30.576,0.07,-0.12
2021-08-01 01:20:30.580,0.065,-0.125
2021-08-01 01:20:30.584,0.06,-0.115
2021-08-01 01:20:30.588,0.09,-0.1
2021-08-01 01:20:30.592,0.07,-0.095
2021-08-01 01:20:30.596,0.065,-0.08
2021-08-01 01:20:30.600,0.085,-0.055
2021-08-01 01:20:30.604,0.09,-0.055
2021-08-01 01:20:30.608,0.095,-0.07
2021-08-01 01:20:30.612,0.09,-0.09
2021-08-01 01:20:30.616,0.1,-0.07
2021-08-01 01:20:30.620,0.1,-0.055
2021-08-01 01:20:30.624,0.11,-0.075
2021-08-01 01:20:30.628,0.12,-0.075
2021-08-01 01:20:30.632,0.115,-0.075
2021-08-01 01:20:30.636,0.115,-0.09
2021-08-01 01:20:30.640,0.135,-0.1
2021-08-01 01:20:30.644,0.125,-0.13
2021-08-01 01:20:30.648,0.1,-0.13
2021-08-01 01:20:30.652,0.12,-0.16
2021-08-01 01:20:30.656,0.125,-0.14
2021-08-01 01:20:30.660,0.1,-0.125
2021-08-01 01:20:30.664,0.11,-0.135
2021-08-01 01:20:30.668,0.11,-0.155
2021-08-01 01:20:30.672,0.105,-0.145
2021-08-01 01:20:30.676,0.095,-0.145
2021-08-01 01:20:30.680,0.095,-0.16
2021-08-01 01:20:30.684,0.12,-0.16
2021-08-01 01:20:30.688,0.115,-0.155
2021-08-01 01:20:30.692,0.105,-0.15
2021-08-01 01:20:30.696,0.115,-0.14
2021-08-01 01:20:30.700,0.105,-0.14
2021-08-01 01:20:30.704,0.12,-0.14
2021-08-01 01:20:30.708,0.11,-0.16
2021-08-01 01:20:30.712,0.125,-0.155
2021-08-01 01:20:30.716,0.11,-0.15
2021-08-01 01:20:30.720,0.11,-0.135
2021-08-01 01:20:30.724,0.125,-0.13
2021-08-01 01:20:30.728,0.125,-0.135
2021-08-01 01:20:30.732,0.11,-0.145
2021-08-01 01:20:30.736,0.105,-0.15
2021-08-01 01:20:30.740,0.11,-0.145
2021-08-01 01:20:30.744,0.11,-0.13
2021-08-01 01:20:30.748,0.1,-0.13
2021-08-01 01:20:30.752,0.125,-0.14
2021-08-01 01:20:30.756,0.13,-0.13
2021-08-01 01:20:30.760,0.095,-0.14
2021-08-01 01:20:30.764,0.12,-0.13
2021-08-01 01:20:30.768,0.115,-0.135
2021-08-01 01:20:30.772,0.105,-0.125
2021-08-01 01:20:30.776,0.115,-0.13
2021-08-01 01:20:30.780,0.12,-0.145
2021-08-01 01:20:30.784,0.1,-0.15
2021-08-01 01:20:30.788,0.1,-0.145
2021-08-01 01:20:30.792,0.12,-0.15
2021-08-01 01:20:30.796,0.115,-0.155
2021-08-01 01:20:30.800,0.095,-0.15
2021-08-01 01:20:30.804,0.105,-0.155
2021-08-01 01:20:30.808,0.115,-0.155
2021-08-01 01:20:30.812,0.1,-0.15
2021-08-01 01:20:30.816,0.105,-0.155
2021-08-01 01:20:30.820,0.1,-0.155
2021-08-01 01:20:30.824,0.105,-0.16
2021-08-01 01:20:30.828,0.105,-0.17
2021-08-01 01:20:30.832,0.105,-0.17
2021-08-01 01:20:30.836,0.105,-0.16
2021-08-01 01:20:30.840,0.115,-0.165
2021-08-01 01:20:30.844,0.11,-0.175
2021-08-01 01:20:30.848,0.11,-0.18
2021-08-01 01:20:30.852,0.09,-0.16
2021-08-01 01:20:30.856,0.085,-0.155
2021-08-01 01:20:30.860,0.1,-0.155
2021-08-01 01:20:30.864,0.095,-0.115
2021-08-01 01:20:30.868,0.095,-0.105
2021-08-01 01:20:30.872,0.125,-0.075
2021-08-01 01:20:30.876,0.135,-0.065
2021-08-01 01:20:30.880,0.135,-0.06
2021-08-01 01:20:30.884,0.145,-0.07
2021-08-01 01:20:30.888,0.175,-0.035
2021-08-01 01:20:30.892,0.175,-0.01
2021-08-01 01:20:30.896,0.19,0.015
2021-08-01 01:20:30.900,0.175,-0.02
2021-08-01 01:20:30.904,0.145,-0.04
2021-08-01 01:20:30.908,0.145,-0.06
2021-08-01 01:20:30.912,0.135,-0.105
2021-08-01 01:20:30.916,0.115,-0.15
2021-08-01 01:20:30.920,0.095,-0.185
2021-08-01 01:20:30.924,0.07,-0.18
2021-08-01 01:20:30.928,0.085,-0.165
2021-08-01 01:20:30.932,0.06,-0.16
2021-08-01 01:20:30.936,0.075,-0.16
2021-08-01 01:20:30.940,0.07,-0.18
2021-08-01 01:20:30.944,0.11,-0.21
2021-08-01 01:20:30.948,0.1,-0.205
2021-08-01 01:20:30.952,0.12,-0.23
2021-08-01 01:20:30.956,0.095,-0.23
2021-08-01 01:20:30.960,0.11,-0.26
2021-08-01 01:20:30.964,0.105,-0.27
2021-08-01 01:20:30.968,0.105,-0.28
2021-08-01 01:20:30.972,0.09,-0.26
2021-08-01 01:20:30.976,0.07,-0.28
2021-08-01 01:20:30.980,0.08,-0.295
2021-08-01 01:20:30.984,0.09,-0.295
2021-08-01 01:20:30.988,0.08,-0.28
2021-08-01 01:20:30.992,0.085,-0.28
2021-08-01 01:20:30.996,0.085,-0.27
2021-08-01 01:20:31.000,0.09,-0.295
2021-08-01 01:20:31.004,0.09,-0.28
2021-08-01 01:20:31.008,0.09,-0.28
2021-08-01 01:20:31.012,0.09,-0.295
2021-08-01 01:20:31.016,0.09,-0.3
2021-08-01 01:20:31.020,0.085,-0.305
2021-08-01 01:20:31.024,0.095,-0.33
2021-08-01 01:20:31.028,0.085,-0.315
2021-08-01 01:20:31.032,0.085,-0.295
2021-08-01 01:20:31.036,0.11,-0.185
2021-08-01 01:20:31.040,0.115,-0.01
2021-08-01 01:20:31.044,0.12,0.215
2021-08-01 01:20:31.048,0.19,0.44
2021-08-01 01:20:31.052,0.25,0.565
2021-08-01 01:20:31.056,0.355,0.61
2021-08-01 01:20:31.060,0.415,0.535
2021-08-01 01:20:31.064,0.455,0.295
2021-08-01 01:20:31.068,0.435,-0.205
2021-08-01 01:20:31.072,0.375,-0.575
2021-08-01 01:20:31.076,0.19,-0.735
2021-08-01 01:20:31.080,-0.04,-0.76
2021-08-01 01:20:31.084,-0.185,-0.745
2021-08-01 01:20:31.088,-0.245,-0.64
2021-08-01 01:20:31.092,-0.245,-0.545
2021-08-01 01:20:31.096,-0.21,-0.45
2021-08-01 01:20:31.100,-0.145,-0.375
2021-08-01 01:20:31.104,-0.06,-0.33
2021-08-01 01:20:31.108,0.0,-0.295
2021-08-01 01:20:31.112,0.04,-0.32
2021-08-01 01:20:31.116,0.065,-0.335
2021-08-01 01:20:31.120,0.07,-0.33
2021-08-01 01:20:31.124,0.055,-0.31
2021-08-01 01:20:31.128,0.075,-0.325
2021-08-01 01:20:31.132,0.055,-0.31
2021-08-01 01:20:31.136,0.065,-0.315
2021-08-01 01:20:31.140,0.065,-0.32
2021-08-01 01:20:31.144,0.055,-0.33
2021-08-01 01:20:31.148,0.045,-0.31
2021-08-01 01:20:31.152,0.065,-0.315
2021-08-01 01:20:31.156,0.06,-0.31
2021-08-01 01:20:31.160,0.065,-0.3
2021-08-01 01:20:31.164,0.055,-0.315
2021-08-01 01:20:31.168,0.07,-0.33
2021-08-01 01:20:31.172,0.07,-0.315
2021-08-01 01:20:31.176,0.05,-0.32
2021-08-01 01:20:31.180,0.055,-0.295
2021-08-01 01:20:31.184,0.06,-0.29
2021-08-01 01:20:31.188,0.045,-0.305
2021-08-01 01:20:31.192,0.05,-0.305
2021-08-01 01:20:31.196,0.055,-0.295
2021-08-01 01:20:31.200,0.055,-0.29
2021-08-01 01:20:31.204,0.06,-0.285
2021-08-01 01:20:31.208,0.05,-0.285
2021-08-01 01:20:31.212,0.035,-0.275
2021-08-01 01:20:31.216,0.05,-0.28
2021-08-01 01:20:31.220,0.05,-0.275
2021-08-01 01:20:31.224,0.06,-0.275
2021-08-01 01:20:31.228,0.04,-0.265
2021-08-01 01:20:31.232,0.06,-0.26
2021-08-01 01:20:31.236,0.035,-0.265
2021-08-01 01:20:31.240,0.065,-0.25
2021-08-01 01:20:31.244,0.055,-0.24
2021-08-01 01:20:31.248,0.06,-0.24
2021-08-01 01:20:31.252,0.045,-0.235
2021-08-01 01:20:31.256,0.075,-0.205
2021-08-01 01:20:31.260,0.055,-0.215
2021-08-01 01:20:31.264,0.065,-0.205
2021-08-01 01:20:31.268,0.065,-0.205
2021-08-01 01:20:31.272,0.085,-0.2
2021-08-01 01:20:31.276,0.065,-0.185
2021-08-01 01:20:31.280,0.08,-0.17
2021-08-01 01:20:31.284,0.075,-0.17
2021-08-01 01:20:31.288,0.09,-0.17
2021-08-01 01:20:31.292,0.075,-0.15
2021-08-01 01:20:31.296,0.105,-0.16
2021-08-01 01:20:31.300,0.085,-0.145
2021-08-01 01:20:31.304,0.09,-0.145
2021-08-01 01:20:31.308,0.075,-0.13
2021-08-01 01:20:31.312,0.08,-0.12
2021-08-01 01:20:31.316,0.085,-0.1
2021-08-01 01:20:31.320,0.1,-0.11
2021-08-01 01:20:31.324,0.1,-0.115
2021-08-01 01:20:31.328,0.11,-0.11
2021-08-01 01:20:31.332,0.105,-0.115
2021-08-01 01:20:31.336,0.12,-0.125
2021-08-01 01:20:31.340,0.115,-0.14
2021-08-01 01:20:31.344,0.11,-0.16
2021-08-01 01:20:31.348,0.115,-0.16
2021-08-01 01:20:31.352,0.11,-0.16
2021-08-01 01:20:31.356,0.1,-0.15
2021-08-01 01:20:31.360,0.125,-0.18
2021-08-01 01:20:31.364,0.115,-0.18
2021-08-01 01:20:31.368,0.115,-0.185
2021-08-01 01:20:31.372,0.105,-0.185
2021-08-01 01:20:31.376,0.11,-0.19
2021-08-01 01:20:31.380,0.11,-0.195
2021-08-01 01:20:31.384,0.105,-0.185
2021-08-01 01:20:31.388,0.125,-0.185
2021-08-01 01:20:31.392,0.125,-0.195
2021-08-01 01:20:31.396,0.11,-0.195
2021-08-01 01:20:31.400,0.105,-0.205
2021-08-01 01:20:31.404,0.115,-0.205
2021-08-01 01:20:31.408,0.12,-0.19
2021-08-01 01:20:31.412,0.11,-0.185
2021-08-01 01:20:31.416,0.115,-0.195
2021-08-01 01:20:31.420,0.115,-0.2
2021-08-01 01:20:31.424,0.125,-0.185
2021-08-01 01:20:31.428,0.105,-0.175
2021-08-01 01:20:31.432,0.12,-0.175
2021-08-01 01:20:31.436,0.115,-0.175
2021-08-01 01:20:31.440,0.12,-0.185
2021-08-01 01:20:31.444,0.11,-0.195
2021-08-01 01:20:31.448,0.13,-0.18
2021-08-01 01:20:31.452,0.115,-0.18
2021-08-01 01:20:31.456,0.11,-0.16
2021-08-01 01:20:31.460,0.11,-0.18
2021-08-01 01:20:31.464,0.11,-0.17
2021-08-01 01:20:31.468,0.115,-0.18
2021-08-01 01:20:31.472,0.13,-0.175
2021-08-01 01:20:31.476,0.115,-0.18
2021-08-01 01:20:31.480,0.11,-0.175
2021-08-01 01:20:31.484,0.11,-0.19
2021-08-01 01:20:31.488,0.105,-0.18
2021-08-01 01:20:31.492,0.105,-0.185
2021-08-01 01:20:31.496,0.11,-0.18
2021-08-01 01:20:31.500,0.11,-0.195
2021-08-01 01:20:31.504,0.115,-0.185
2021-08-01 01:20:31.508,0.12,-0.195
2021-08-01 01:20:31.512,0.13,-0.18
2021-08-01 01:20:31.516,0.105,-0.19
2021-08-01 01:20:31.520,0.11,-0.19
2021-08-01 01:20:31.524,0.11,-0.19
2021-08-01 01:20:31.528,0.11,-0.19
2021-08-01 01:20:31.532,0.095,-0.2
2021-08-01 01:20:31.536,0.105,-0.205
2021-08-01 01:20:31.540,0.09,-0.195
2021-08-01 01:20:31.544,0.1,-0.18
2021-08-01 01:20:31.548,0.095,-0.185
2021-08-01 01:20:31.552,0.115,-0.19
2021-08-01 01:20:31.556,0.11,-0.225
2021-08-01 01:20:31.560,0.11,-0.195
2021-08-01 01:20:31.564,0.11,-0.185
2021-08-01 01:20:31.568,0.13,-0.175
2021-08-01 01:20:31.572,0.135,-0.165
2021-08-01 01:20:31.576,0.13,-0.145
2021-08-01 01:20:31.580,0.125,-0.13
2021-08-01 01:20:31.584,0.145,-0.105
2021-08-01 01:20:31.588,0.16,-0.095
2021-08-01 01:20:31.592,0.165,-0.095
2021-08-01 01:20:31.596,0.175,-0.09
2021-08-01 01:20:31.600,0.19,-0.05
2021-08-01 01:20:31.604,0.18,-0.035
2021-08-01 01:20:31.608,0.21,-0.025
2021-08-01 01:20:31.612,0.18,-0.055
2021-08-01 01:20:31.616,0.165,-0.085
2021-08-01 01:20:31.620,0.155,-0.11
2021-08-01 01:20:31.624,0.145,-0.135
2021-08-01 01:20:31.628,0.115,-0.16
2021-08-01 01:20:31.632,0.11,-0.17
2021-08-01 01:20:31.636,0.1,-0.16
2021-08-01 01:20:31.640,0.095,-0.155
2021-08-01 01:20:31.644,0.09,-0.17
2021-08-01 01:20:31.648,0.105,-0.18
2021-08-01 01:20:31.652,0.115,-0.195
2021-08-01 01:20:31.656,0.125,-0.2
2021-08-01 01:20:31.660,0.125,-0.23
2021-08-01 01:20:31.664,0.14,-0.24
2021-08-01 01:20:31.668,0.14,-0.25
2021-08-01 01:20:31.672,0.15,-0.26
2021-08-01 01:20:31.676,0.145,-0.275
2021-08-01 01:20:31.680,0.135,-0.28
2021-08-01 01:20:31.684,0.115,-0.285
2021-08-01 01:20:31.688,0.105,-0.3
2021-08-01 01:20:31.692,0.1,-0.295
2021-08-01 01:20:31.696,0.115,-0.285
2021-08-01 01:20:31.700,0.105,-0.275
2021-08-01 01:20:31.704,0.115,-0.295
2021-08-01 01:20:31.708,0.12,-0.29
2021-08-01 01:20:31.712,0.115,-0.29
2021-08-01 01:20:31.716,0.12,-0.285
2021-08-01 01:20:31.720,0.11,-0.275
2021-08-01 01:20:31.724,0.12,-0.28
2021-08-01 01:20:31.728,0.11,-0.28
2021-08-01 01:20:31.732,0.125,-0.315
2021-08-01 01:20:31.736,0.125,-0.31
2021-08-01 01:20:31.740,0.11,-0.275
2021-08-01 01:20:31.744,0.12,-0.17
2021-08-01 01:20:31.748,0.14,0.035
2021-08-01 01:20:31.752,0.16,0.3
2021-08-01 01:20:31.756,0.22,0.505
2021-08-01 01:20:31.760,0.315,0.605
2021-08-01 01:20:31.764,0.395,0.61
2021-08-01 01:20:31.768,0.43,0.56
2021-08-01 01:20:31.772,0.415,0.255
2021-08-01 01:20:31.776,0.39,-0.25
2021-08-01 01:20:31.780,0.28,-0.575
2021-08-01 01:20:31.784,0.075,-0.725
2021-08-01 01:20:31.788,-0.1,-0.75
2021-08-01 01:20:31.792,-0.215,-0.68
2021-08-01 01:20:31.796,-0.235,-0.56
2021-08-01 01:20:31.800,-0.21,-0.47
2021-08-01 01:20:31.804,-0.17,-0.4
2021-08-01 01:20:31.808,-0.09,-0.32
2021-08-01 01:20:31.812,-0.015,-0.31
2021-08-01 01:20:31.816,0.04,-0.3
2021-08-01 01:20:31.820,0.1,-0.295
2021-08-01 01:20:31.824,0.09,-0.3
2021-08-01 01:20:31.828,0.105,-0.305
2021-08-01 01:20:31.832,0.095,-0.3
2021-08-01 01:20:31.836,0.09,-0.29
2021-08-01 01:20:31.840,0.105,-0.315
2021-08-01 01:20:31.844,0.1,-0.31
2021-08-01 01:20:31.848,0.09,-0.3
2021-08-01 01:20:31.852,0.105,-0.28
2021-08-01 01:20:31.856,0.1,-0.28
2021-08-01 01:20:31.860,0.115,-0.29
2021-08-01 01:20:31.864,0.115,-0.3
2021-08-01 01:20:31.868,0.105,-0.29
2021-08-01 01:20:31.872,0.115,-0.28
2021-08-01 01:20:31.876,0.115,-0.275
2021-08-01 01:20:31.880,0.095,-0.29
2021-08-01 01:20:31.884,0.1,-0.285
2021-08-01 01:20:31.888,0.085,-0.285
2021-08-01 01:20:31.892,0.1,-0.27
2021-08-01 01:20:31.896,0.1,-0.275
2021-08-01 01:20:31.900,0.105,-0.26
2021-08-01 01:20:31.904,0.08,-0.26
2021-08-01 01:20:31.908,0.09,-0.265
2021-08-01 01:20:31.912,0.09,-0.265
2021-08-01 01:20:31.916,0.08,-0.24
2021-08-01 01:20:31.920,0.095,-0.245
2021-08-01 01:20:31.924,0.105,-0.25
2021-08-01 01:20:31.928,0.095,-0.245
2021-08-01 01:20:31.932,0.105,-0.235
2021-08-01 01:20:31.936,0.105,-0.22
2021-08-01 01:20:31.940,0.09,-0.225
2021-08-01 01:20:31.944,0.09,-0.22
2021-08-01 01:20:31.948,0.09,-0.2
2021-08-01 01:20:31.952,0.09,-0.19
2021-08-01 01:20:31.956,0.115,-0.155
2021-08-01 01:20:31.960,0.11,-0.19
2021-08-01 01:20:31.964,0.11,-0.175
2021-08-01 01:20:31.968,0.11,-0.145
2021-08-01 01:20:31.972,0.12,-0.155
2021-08-01 01:20:31.976,0.125,-0.15
2021-08-01 01:20:31.980,0.12,-0.14
2021-08-01 01:20:31.984,0.11,-0.135
2021-08-01 01:20:31.988,0.125,-0.125
2021-08-01 01:20:31.992,0.135,-0.115
2021-08-01 01:20:31.996,0.095,-0.125
2021-08-01 01:20:32.000,0.125,-0.135
2021-08-01 01:20:32.004,0.135,-0.105
2021-08-01 01:20:32.008,0.135,-0.08
2021-08-01 01:20:32.012,0.13,-0.085
2021-08-01 01:20:32.016,0.145,-0.085
2021-08-01 01:20:32.020,0.155,-0.07
2021-08-01 01:20:32.024,0.135,-0.075
2021-08-01 01:20:32.028,0.145,-0.07
2021-08-01 01:20:32.032,0.145,-0.06
2021-08-01 01:20:32.036,0.125,-0.045
2021-08-01 01:20:32.040,0.155,-0.08
2021-08-01 01:20:32.044,0.14,-0.07
2021-08-01 01:20:32.048,0.15,-0.075
2021-08-01 01:20:32.052,0.135,-0.09
2021-08-01 01:20:32.056,0.165,-0.1
2021-08-01 01:20:32.060,0.155,-0.13
2021-08-01 01:20:32.064,0.15,-0.13
2021-08-01 01:20:32.068,0.15,-0.135
2021-08-01 01:20:32.072,0.15,-0.155
2021-08-01 01:20:32.076,0.15,-0.15
2021-08-01 01:20:32.080,0.145,-0.155
2021-08-01 01:20:32.084,0.135,-0.15
2021-08-01 01:20:32.088,0.125,-0.15
2021-08-01 01:20:32.092,0.135,-0.165
2021-08-01 01:20:32.096,0.15,-0.19
2021-08-01 01:20:32.100,0.135,-0.175
2021-08-01 01:20:32.104,0.135,-0.18
2021-08-01 01:20:32.108,0.14,-0.195
2021-08-01 01:20:32.112,0.145,-0.175
2021-08-01 01:20:32.116,0.12,-0.16
2021-08-01 01:20:32.120,0.11,-0.18
2021-08-01 01:20:32.124,0.13,-0.175
2021-08-01 01:20:32.128,0.14,-0.17
2021-08-01 01:20:32.132,0.12,-0.16
2021-08-01 01:20:32.136,0.145,-0.185
2021-08-01 01:20:32.140,0.14,-0.17
2021-08-01 01:20:32.144,0.135,-0.155
2021-08-01 01:20:32.148,0.14,-0.16
2021-08-01 01:20:32.152,0.12,-0.16
2021-08-01 01:20:32.156,0.135,-0.16
2021-08-01 01:20:32.160,0.12,-0.165
2021-08-01 01:20:32.164,0.135,-0.15
2021-08-01 01:20:32.168,0.14,-0.155
2021-08-01 01:20:32.172,0.11,-0.165
2021-08-01 01:20:32.176,0.125,-0.165
2021-08-01 01:20:32.180,0.12,-0.17
2021-08-01 01:20:32.184,0.13,-0.16
2021-08-01 01:20:32.188,0.125,-0.155
2021-08-01 01:20:32.192,0.13,-0.18
2021-08-01 01:20:32.196,0.135,-0.19
2021-08-01 01:20:32.200,0.135,-0.185
2021-08-01 01:20:32.204,0.14,-0.17
2021-08-01 01:20:32.208,0.12,-0.16
2021-08-01 01:20:32.212,0.125,-0.17
2021-08-01 01:20:32.216,0.12,-0.17
2021-08-01 01:20:32.220,0.115,-0.18
2021-08-01 01:20:32.224,0.125,-0.195
2021-08-01 01:20:32.228,0.12,-0.19
2021-08-01 01:20:32.232,0.125,-0.2
2021-08-01 01:20:32.236,0.12,-0.195
2021-08-01 01:20:32.240,0.115,-0.185
2021-08-01 01:20:32.244,0.12,-0.18
2021-08-01 01:20:32.248,0.115,-0.215
2021-08-01 01:20:32.252,0.125,-0.21
2021-08-01 01:20:32.256,0.115,-0.205
2021-08-01 01:20:32.260,0.11,-0.205
2021-08-01 01:20:32.264,0.105,-0.2
2021-08-01 01:20:32.268,0.115,-0.19
2021-08-01 01:20:32.272,0.105,-0.18
2021-08-01 01:20:32.276,0.115,-0.165
2021-08-01 01:20:32.280,0.13,-0.15
2021-08-01 01:20:32.284,0.12,-0.125
2021-08-01 01:20:32.288,0.14,-0.105
2021-08-01 01:20:32.292,0.155,-0.09
2021-08-01 01:20:32.296,0.165,-0.105
2021-08-01 01:20:32.300,0.17,-0.075
2021-08-01 01:20:32.304,0.18,-0.055
2021-08-01 01:20:32.308,0.205,-0.04
2021-08-01 01:20:32.312,0.195,-0.05
2021-08-01 01:20:32.316,0.155,-0.05
2021-08-01 01:20:32.320,0.165,-0.09
2021-08-01 01:20:32.324,0.14,-0.115
2021-08-01 01:20:32.328,0.12,-0.175
2021-08-01 01:20:32.332,0.11,-0.2
2021-08-01 01:20:32.336,0.075,-0.2
2021-08-01 01:20:32.340,0.06,-0.18
2021-08-01 01:20:32.344,0.055,-0.19
2021-08-01 01:20:32.348,0.05,-0.18
2021-08-01 01:20:32.352,0.08,-0.18
2021-08-01 01:20:32.356,0.095,-0.195
2021-08-01 01:20:32.360,0.1,-0.21
2021-08-01 01:20:32.364,0.105,-0.225
2021-08-01 01:20:32.368,0.12,-0.24
2021-08-01 01:20:32.372,0.125,-0.27
2021-08-01 01:20:32.376,0.13,-0.275
2021-08-01 01:20:32.380,0.12,-0.28
2021-08-01 01:20:32.384,0.115,-0.32
2021-08-01 01:20:32.388,0.095,-0.295
2021-08-01 01:20:32.392,0.105,-0.29
2021-08-01 01:20:32.396,0.095,-0.285
2021-08-01 01:20:32.400,0.115,-0.285
2021-08-01 01:20:32.404,0.095,-0.28
2021-08-01 01:20:32.408,0.095,-0.28
2021-08-01 01:20:32.412,0.1,-0.305
2021-08-01 01:20:32.416,0.105,-0.29
2021-08-01 01:20:32.420,0.095,-0.285
2021-08-01 01:20:32.424,0.085,-0.3
2021-08-01 01:20:32.428,0.095,-0.29
2021-08-01 01:20:32.432,0.1,-0.295
2021-08-01 01:20:32.436,0.085,-0.305
2021-08-01 01:20:32.440,0.105,-0.34
2021-08-01 01:20:32.444,0.095,-0.315
2021-08-01 01:20:32.448,0.11,-0.23
2021-08-01 01:20:32.452,0.14,-0.09
2021-08-01 01:20:32.456,0.155,0.14
2021-08-01 01:20:32.460,0.165,0.37
2021-08-01 01:20:32.464,0.245,0.53
2021-08-01 01:20:32.468,0.32,0.6
2021-08-01 01:20:32.472,0.4,0.62
2021-08-01 01:20:32.476,0.42,0.485
2021-08-01 01:20:32.480,0.4,0.025
2021-08-01 01:20:32.484,0.35,-0.435
2021-08-01 01:20:32.488,0.23,-0.685
2021-08-01 01:20:32.492,-0.01,-0.75
2021-08-01 01:20:32.496,-0.16,-0.735
2021-08-01 01:20:32.500,-0.235,-0.645
2021-08-01 01:20:32.504,-0.255,-0.515
2021-08-01 01:20:32.508,-0.205,-0.415
2021-08-01 01:20:32.512,-0.135,-0.34
2021-08-01 01:20:32.516,-0.055,-0.31
2021-08-01 01:20:32.520,0.03,-0.32
2021-08-01 01:20:32.524,0.055,-0.32
2021-08-01 01:20:32.528,0.075,-0.305
2021-08-01 01:20:32.532,0.085,-0.31
2021-08-01 01:20:32.536,0.105,-0.31
2021-08-01 01:20:32.540,0.095,-0.33
2021-08-01 01:20:32.544,0.095,-0.32
2021-08-01 01:20:32.548,0.1,-0.3
2021-08-01 01:20:32.552,0.1,-0.305
2021-08-01 01:20:32.556,0.085,-0.31
2021-08-01 01:20:32.560,0.1,-0.31
2021-08-01 01:20:32.564,0.085,-0.3
2021-08-01 01:20:32.568,0.075,-0.3
2021-08-01 01:20:32.572,0.06,-0.3
2021-08-01 01:20:32.576,0.095,-0.28
2021-08-01 01:20:32.580,0.095,-0.29
2021-08-01 01:20:32.584,0.08,-0.295
2021-08-01 01:20:32.588,0.085,-0.3
2021-08-01 01:20:32.592,0.09,-0.285
2021-08-01 01:20:32.596,0.09,-0.3
2021-08-01 01:20:32.600,0.105,-0.315
2021-08-01 01:20:32.604,0.1,-0.295
2021-08-01 01:20:32.608,0.085,-0.285
2021-08-01 01:20:32.612,0.075,-0.28
2021-08-01 01:20:32.616,0.095,-0.26
2021-08-01 01:20:32.620,0.11,-0.26
2021-08-01 01:20:32.624,0.12,-0.26
2021-08-01 01:20:32.628,0.105,-0.26
2021-08-01 01:20:32.632,0.095,-0.245
2021-08-01 01:20:32.636,0.09,-0.255
2021-08-01 01:20:32.640,0.085,-0.25
2021-08-01 01:20:32.644,0.105,-0.225
2021-08-01 01:20:32.648,0.085,-0.21
2021-08-01 01:20:32.652,0.1,-0.22
2021-08-01 01:20:32.656,0.105,-0.195
2021-08-01 01:20:32.660,0.09,-0.2
2021-08-01 01:20:32.664,0.115,-0.18
2021-08-01 01:20:32.668,0.11,-0.175
2021-08-01 01:20:32.672,0.105,-0.16
2021-08-01 01:20:32.676,0.105,-0.155
2021-08-01 01:20:32.680,0.12,-0.14
2021-08-01 01:20:32.684,0.12,-0.14
2021-08-01 01:20:32.688,0.11,-0.125
2021-08-01 01:20:32.692,0.105,-0.135
2021-08-01 01:20:32.696,0.105,-0.13
2021-08-01 01:20:32.700,0.105,-0.125
2021-08-01 01:20:32.704,0.105,-0.115
2021-08-01 01:20:32.708,0.12,-0.11
2021-08-01 01:20:32.712,0.125,-0.09
2021-08-01 01:20:32.716,0.115,-0.085
2021-08-01 01:20:32.720,0.115,-0.06
2021-08-01 01:20:32.724,0.12,-0.065
2021-08-01 01:20:32.728,0.13,-0.07
2021-08-01 01:20:32.732,0.115,-0.075
2021-08-01 01:20:32.736,0.125,-0.08
2021-08-01 01:20:32.740,0.14,-0.05
2021-08-01 01:20:32.744,0.13,-0.055
2021-08-01 01:20:32.748,0.135,-0.06
2021-08-01 01:20:32.752,0.13,-0.085
2021-08-01 01:20:32.756,0.145,-0.095
2021-08-01 01:20:32.760,0.145,-0.08
2021-08-01 01:20:32.764,0.135,-0.095
2021-08-01 01:20:32.768,0.145,-0.115
2021-08-01 01:20:32.772,0.12,-0.115
2021-08-01 01:20:32.776,0.14,-0.13
2021-08-01 01:20:32.780,0.135,-0.135
2021-08-01 01:20:32.784,0.145,-0.16
2021-08-01 01:20:32.788,0.155,-0.17
2021-08-01 01:20:32.792,0.14,-0.165
2021-08-01 01:20:32.796,0.14,-0.165
2021-08-01 01:20:32.800,0.135,-0.16
2021-08-01 01:20:32.804,0.115,-0.15
2021-08-01 01:20:32.808,0.135,-0.16
2021-08-01 01:20:32.812,0.125,-0.165
2021-08-01 01:20:32.816,0.115,-0.17
2021-08-01 01:20:32.820,0.105,-0.155
2021-08-01 01:20:32.824,0.13,-0.16
2021-08-01 01:20:32.828,0.125,-0.16
2021-08-01 01:20:32.832,0.125,-0.17
2021-08-01 01:20:32.836,0.135,-0.16
2021-08-01 01:20:32.840,0.125,-0.15
2021-08-01 01:20:32.844,0.115,-0.145
2021-08-01 01:20:32.848,0.115,-0.155
2021-08-01 01:20:32.852,0.125,-0.16
2021-08-01 01:20:32.856,0.125,-0.135
2021-08-01 01:20:32.860,0.105,-0.14
2021-08-01 01:20:32.864,0.11,-0.15
2021-08-01 01:20:32.868,0.12,-0.16
2021-08-01 01:20:32.872,0.115,-0.16
2021-08-01 01:20:32.876,0.1,-0.15
2021-08-01 01:20:32.880,0.105,-0.15
2021-08-01 01:20:32.884,0.115,-0.14
2021-08-01 01:20:32.888,0.1,-0.155
2021-08-01 01:20:32.892,0.1,-0.16
2021-08-01 01:20:32.896,0.105,-0.155
2021-08-01 01:20:32.900,0.11,-0.155
2021-08-01 01:20:32.904,0.115,-0.155
2021-08-01 01:20:32.908,0.105,-0.165
2021-08-01 01:20:32.912,0.095,-0.155
2021-08-01 01:20:32.916,0.105,-0.16
2021-08-01 01:20:32.920,0.095,-0.16
2021-08-01 01:20:32.924,0.095,-0.17
2021-08-01 01:20:32.928,0.09,-0.18
2021-08-01 01:20:32.932,0.085,-0.17
2021-08-01 01:20:32.936,0.085,-0.155
2021-08-01 01:20:32.940,0.095,-0.18
2021-08-01 01:20:32.944,0.095,-0.18
2021-08-01 01:20:32.948,0.105,-0.175
2021-08-01 01:20:32.952,0.09,-0.195
2021-08-01 01:20:32.956,0.095,-0.175
2021-08-01 01:20:32.960,0.09,-0.195
2021-08-01 01:20:32.964,0.09,-0.18
2021-08-01 01:20:32.968,0.08,-0.19
2021-08-01 01:20:32.972,0.095,-0.155
2021-08-01 01:20:32.976,0.095,-0.14
2021-08-01 01:20:32.980,0.105,-0.13
2021-08-01 01:20:32.984,0.12,-0.1
2021-08-01 01:20:32.988,0.125,-0.075
2021-08-01 01:20:32.992,0.11,-0.06
2021-08-01 01:20:32.996,0.135,-0.08
2021-08-01 01:20:33.000,0.175,-0.07
2021-08-01 01:20:33.004,0.19,-0.035
2021-08-01 01:20:33.008,0.16,-0.015
2021-08-01 01:20:33.012,0.185,-0.03
2021-08-01 01:20:33.016,0.165,-0.02
2021-08-01 01:20:33.020,0.15,-0.07
2021-08-01 01:20:33.024,0.125,-0.1
2021-08-01 01:20:33.028,0.1,-0.125
2021-08-01 01:20:33.032,0.105,-0.165
2021-08-01 01:20:33.036,0.06,-0.175
2021-08-01 01:20:33.040,0.045,-0.17
2021-08-01 01:20:33.044,0.035,-0.17
2021-08-01 01:20:33.048,0.045,-0.16
2021-08-01 01:20:33.052,0.075,-0.18
2021-08-01 01:20:33.056,0.07,-0.19
2021-08-01 01:20:33.060,0.09,-0.22
2021-08-01 01:20:33.064,0.095,-0.21
2021-08-01 01:20:33.068,0.11,-0.225
2021-08-01 01:20:33.072,0.09,-0.25
2021-08-01 01:20:33.076,0.08,-0.285
2021-08-01 01:20:33.080,0.085,-0.28
2021-08-01 01:20:33.084,0.09,-0.275
2021-08-01 01:20:33.088,0.05,-0.275
2021-08-01 01:20:33.092,0.065,-0.28
2021-08-01 01:20:33.096,0.055,-0.29
2021-08-01 01:20:33.100,0.055,-0.31
2021-08-01 01:20:33.104,0.045,-0.3
2021-08-01 01:20:33.108,0.045,-0.285
2021-08-01 01:20:33.112,0.04,-0.28
2021-08-01 01:20:33.116,0.05,-0.285
2021-08-01 01:20:33.120,0.055,-0.3
2021-08-01 01:20:33.124,0.04,-0.295
2021-08-01 01:20:33.128,0.055,-0.29
2021-08-01 01:20:33.132,0.065,-0.315
2021-08-01 01:20:33.136,0.065,-0.31
2021-08-01 01:20:33.140,0.055,-0.33
2021-08-01 01:20:33.144,0.05,-0.275
2021-08-01 01:20:33.148,0.06,-0.16
2021-08-01 01:20:33.152,0.095,0.0
2021-08-01 01:20:33.156,0.105,0.225
2021-08-01 01:20:33.160,0.16,0.455
2021-08-01 01:20:33.164,0.235,0.56
2021-08-01 01:20:33.168,0.335,0.59
2021-08-01 01:20:33.172,0.39,0.51
2021-08-01 01:20:33.176,0.43,0.165
2021-08-01 01:20:33.180,0.39,-0.3
2021-08-01 01:20:33.184,0.34,-0.625
2021-08-01 01:20:33.188,0.125,-0.765
2021-08-01 01:20:33.192,-0.095,-0.8
2021-08-01 01:20:33.196,-0.225,-0.785
2021-08-01 01:20:33.200,-0.29,-0.675
2021-08-01 01:20:33.204,-0.27,-0.57
2021-08-01 01:20:33.208,-0.25,-0.485
2021-08-01 01:20:33.212,-0.18,-0.405
2021-08-01 01:20:33.216,-0.1,-0.34
2021-08-01 01:20:33.220,-0.025,-0.3
2021-08-01 01:20:33.224,0.0,-0.32
2021-08-01 01:20:33.228,0.055,-0.33
2021-08-01 01:20:33.232,0.055,-0.335
2021-08-01 01:20:33.236,0.035,-0.31
2021-08-01 01:20:33.240,0.035,-0.32
2021-08-01 01:20:33.244,0.04,-0.31
2021-08-01 01:20:33.248,0.035,-0.305
2021-08-01 01:20:33.252,0.045,-0.33
2021-08-01 01:20:33.256,0.05,-0.315
2021-08-01 01:20:33.260,0.055,-0.305
2021-08-01 01:20:33.264,0.045,-0.3
2021-08-01 01:20:33.268,0.04,-0.3
2021-08-01 01:20:33.272,0.04,-0.3
2021-08-01 01:20:33.276,0.045,-0.305
2021-08-01 01:20:33.280,0.05,-0.32
2021-08-01 01:20:33.284,0.055,-0.3
2021-08-01 01:20:33.288,0.05,-0.32
2021-08-01 01:20:33.292,0.04,-0.3
2021-08-01 01:20:33.296,0.04,-0.305
2021-08-01 01:20:33.300,0.06,-0.295
2021-08-01 01:20:33.304,0.04,-0.29
2021-08-01 01:20:33.308,0.05,-0.31
2021-08-01 01:20:33.312,0.04,-0.28
2021-08-01 01:20:33.316,0.035,-0.27
2021-08-01 01:20:33.320,0.04,-0.275
2021-08-01 01:20:33.324,0.04,-0.28
2021-08-01 01:20:33.328,0.045,-0.28
2021-08-01 01:20:33.332,0.04,-0.26
2021-08-01 01:20:33.336,0.035,-0.255
2021-08-01 01:20:33.340,0.03,-0.25
2021-08-01 01:20:33.344,0.03,-0.26
2021-08-01 01:20:33.348,0.04,-0.25
2021-08-01 01:20:33.352,0.035,-0.245
2021-08-01 01:20:33.356,0.05,-0.24
2021-08-01 01:20:33.360,0.04,-0.2
2021-08-01 01:20:33.364,0.06,-0.215
2021-08-01 01:20:33.368,0.045,-0.21
2021-08-01 01:20:33.372,0.055,-0.19
2021-08-01 01:20:33.376,0.05,-0.18
2021-08-01 01:20:33.380,0.055,-0.17
2021-08-01 01:20:33.384,0.055,-0.18
2021-08-01 01:20:33.388,0.055,-0.175
2021-08-01 01:20:33.392,0.065,-0.17
2021-08-01 01:20:33.396,0.07,-0.16
2021-08-01 01:20:33.400,0.05,-0.145
2021-08-01 01:20:33.404,0.07,-0.14
2021-08-01 01:20:33.408,0.08,-0.14
2021-08-01 01:20:33.412,0.075,-0.105
2021-08-01 01:20:33.416,0.08,-0.105
2021-08-01 01:20:33.420,0.075,-0.125
2021-08-01 01:20:33.424,0.08,-0.115
2021-08-01 01:20:33.428,0.075,-0.085
2021-08-01 01:20:33.432,0.085,-0.08
2021-08-01 01:20:33.436,0.09,-0.1
2021-08-01 01:20:33.440,0.095,-0.075
2021-08-01 01:20:33.444,0.1,-0.09
2021-08-01 01:20:33.448,0.105,-0.105
2021-08-01 01:20:33.452,0.12,-0.095
2021-08-01 01:20:33.456,0.115,-0.115
2021-08-01 01:20:33.460,0.11,-0.13
2021-08-01 01:20:33.464,0.12,-0.135
2021-08-01 01:20:33.468,0.125,-0.14
2021-08-01 01:20:33.472,0.125,-0.145
2021-08-01 01:20:33.476,0.125,-0.16
2021-08-01 01:20:33.480,0.13,-0.165
2021-08-01 01:20:33.484,0.13,-0.175
2021-08-01 01:20:33.488,0.11,-0.185
2021-08-01 01:20:33.492,0.13,-0.16
2021-08-01 01:20:33.496,0.12,-0.18
2021-08-01 01:20:33.500,0.125,-0.19
2021-08-01 01:20:33.504,0.115,-0.195
2021-08-01 01:20:33.508,0.11,-0.175
2021-08-01 01:20:33.512,0.12,-0.195
2021-08-01 01:20:33.516,0.115,-0.195
2021-08-01 01:20:33.520,0.135,-0.19
2021-08-01 01:20:33.524,0.12,-0.185
2021-08-01 01:20:33.528,0.12,-0.16
2021-08-01 01:20:33.532,0.145,-0.17
2021-08-01 01:20:33.536,0.115,-0.175
2021-08-01 01:20:33.540,0.125,-0.17
2021-08-01 01:20:33.544,0.125,-0.175
2021-08-01 01:20:33.548,0.13,-0.165
2021-08-01 01:20:33.552,0.145,-0.16
2021-08-01 01:20:33.556,0.155,-0.16
2021-08-01 01:20:33.560,0.14,-0.165
2021-08-01 01:20:33.564,0.135,-0.175
2021-08-01 01:20:33.568,0.145,-0.175
2021-08-01 01:20:33.572,0.135,-0.15
2021-08-01 01:20:33.576,0.115,-0.16
2021-08-01 01:20:33.580,0.145,-0.17
2021-08-01 01:20:33.584,0.135,-0.165
2021-08-01 01:20:33.588,0.135,-0.16
2021-08-01 01:20:33.592,0.13,-0.17
2021-08-01 01:20:33.596,0.145,-0.175
2021-08-01 01:20:33.600,0.13,-0.17
2021-08-01 01:20:33.604,0.135,-0.17
2021-08-01 01:20:33.608,0.15,-0.155
2021-08-01 01:20:33.612,0.15,-0.17
2021-08-01 01:20:33.616,0.14,-0.16
2021-08-01 01:20:33.620,0.14,-0.175
2021-08-01 01:20:33.624,0.145,-0.175
2021-08-01 01:20:33.628,0.145,-0.16
2021-08-01 01:20:33.632,0.135,-0.18
2021-08-01 01:20:33.636,0.155,-0.18
2021-08-01 01:20:33.640,0.13,-0.18
2021-08-01 01:20:33.644,0.13,-0.18
2021-08-01 01:20:33.648,0.13,-0.175
2021-08-01 01:20:33.652,0.14,-0.175
2021-08-01 01:20:33.656,0.14,-0.18
2021-08-01 01:20:33.660,0.125,-0.17
2021-08-01 01:20:33.664,0.12,-0.16
2021-08-01 01:20:33.668,0.135,-0.14
2021-08-01 01:20:33.672,0.13,-0.14
2021-08-01 01:20:33.676,0.15,-0.115
2021-08-01 01:20:33.680,0.165,-0.08
2021-08-01 01:20:33.684,0.175,-0.085
2021-08-01 01:20:33.688,0.18,-0.08
2021-08-01 01:20:33.692,0.195,-0.07
2021-08-01 01:20:33.696,0.21,-0.035
2021-08-01 01:20:33.700,0.205,-0.005
2021-08-01 01:20:33.704,0.21,-0.015
2021-08-01 01:20:33.708,0.19,-0.045
2021-08-01 01:20:33.712,0.185,-0.07
2021-08-01 01:20:33.716,0.14,-0.115
2021-08-01 01:20:33.720,0.14,-0.175
2021-08-01 01:20:33.724,0.11,-0.185
2021-08-01 01:20:33.728,0.095,-0.19
2021-08-01 01:20:33.732,0.095,-0.185
2021-08-01 01:20:33.736,0.085,-0.17
2021-08-01 01:20:33.740,0.09,-0.165
2021-08-01 01:20:33.744,0.105,-0.19
2021-08-01 01:20:33.748,0.105,-0.225
2021-08-01 01:20:33.752,0.13,-0.225
2021-08-01 01:20:33.756,0.12,-0.24
2021-08-01 01:20:33.760,0.13,-0.26
2021-08-01 01:20:33.764,0.145,-0.265
2021-08-01 01:20:33.768,0.13,-0.29
2021-08-01 01:20:33.772,0.125,-0.28
2021-08-01 01:20:33.776,0.12,-0.29
2021-08-01 01:20:33.780,0.13,-0.3
2021-08-01 01:20:33.784,0.12,-0.305
2021-08-01 01:20:33.788,0.105,-0.31
2021-08-01 01:20:33.792,0.095,-0.3
2021-08-01 01:20:33.796,0.09,-0.29
2021-08-01 01:20:33.800,0.11,-0.33
2021-08-01 01:20:33.804,0.1,-0.315
2021-08-01 01:20:33.808,0.1,-0.285
2021-08-01 01:20:33.812,0.095,-0.29
2021-08-01 01:20:33.816,0.115,-0.3
2021-08-01 01:20:33.820,0.11,-0.295
2021-08-01 01:20:33.824,0.105,-0.315
2021-08-01 01:20:33.828,0.105,-0.34
2021-08-01 01:20:33.832,0.12,-0.315
2021-08-01 01:20:33.836,0.11,-0.245
2021-08-01 01:20:33.840,0.135,-0.08
2021-08-01 01:20:33.844,0.155,0.12
2021-08-01 01:20:33.848,0.195,0.35
2021-08-01 01:20:33.852,0.275,0.53
2021-08-01 01:20:33.856,0.345,0.59
2021-08-01 01:20:33.860,0.44,0.595
2021-08-01 01:20:33.864,0.445,0.465
2021-08-01 01:20:33.868,0.43,0.045
2021-08-01 01:20:33.872,0.395,-0.405
2021-08-01 01:20:33.876,0.26,-0.69
2021-08-01 01:20:33.880,0.04,-0.785
2021-08-01 01:20:33.884,-0.13,-0.77
2021-08-01 01:20:33.888,-0.225,-0.675
2021-08-01 01:20:33.892,-0.225,-0.555
2021-08-01 01:20:33.896,-0.225,-0.46
2021-08-01 01:20:33.900,-0.16,-0.395
2021-08-01 01:20:33.904,-0.065,-0.335
2021-08-01 01:20:33.908,-0.005,-0.325
2021-08-01 01:20:33.912,0.07,-0.315
2021-08-01 01:20:33.916,0.065,-0.32
2021-08-01 01:20:33.920,0.105,-0.33
2021-08-01 01:20:33.924,0.08,-0.325
2021-08-01 01:20:33.928,0.09,-0.32
2021-08-01 01:20:33.932,0.075,-0.315
2021-08-01 01:20:33.936,0.085,-0.32
2021-08-01 01:20:33.940,0.09,-0.315
2021-08-01 01:20:33.944,0.085,-0.32
2021-08-01 01:20:33.948,0.08,-0.32
2021-08-01 01:20:33.952,0.09,-0.315
2021-08-01 01:20:33.956,0.085,-0.31
2021-08-01 01:20:33.960,0.07,-0.31
2021-08-01 01:20:33.964,0.09,-0.315
2021-08-01 01:20:33.968,0.09,-0.32
2021-08-01 01:20:33.972,0.085,-0.315
2021-08-01 01:20:33.976,0.08,-0.315
2021-08-01 01:20:33.980,0.07,-0.32
2021-08-01 01:20:33.984,0.065,-0.295
2021-08-01 01:20:33.988,0.08,-0.29
2021-08-01 01:20:33.992,0.095,-0.29
2021-08-01 01:20:33.996,0.065,-0.28
2021-08-01 01:20:34.000,0.08,-0.29
2021-08-01 01:20:34.004,0.1,-0.285
2021-08-01 01:20:34.008,0.09,-0.28
2021-08-01 01:20:34.012,0.08,-0.27
2021-08-01 01:20:34.016,0.085,-0.28
2021-08-01 01:20:34.020,0.085,-0.265
2021-08-01 01:20:34.024,0.08,-0.255
2021-08-01 01:20:34.028,0.065,-0.25
2021-08-01 01:20:34.032,0.075,-0.25
2021-08-01 01:20:34.036,0.065,-0.24
2021-08-01 01:20:34.040,0.07,-0.245
2021-08-01 01:20:34.044,0.07,-0.23
2021-08-01 01:20:34.048,0.075,-0.215
2021-08-01 01:20:34.052,0.085,-0.22
2021-08-01 01:20:34.056,0.08,-0.23
2021-08-01 01:20:34.060,0.075,-0.2
2021-08-01 01:20:34.064,0.08,-0.185
2021-08-01 01:20:34.068,0.085,-0.175
2021-08-01 01:20:34.072,0.09,-0.175
2021-08-01 01:20:34.076,0.075,-0.17
2021-08-01 01:20:34.080,0.085,-0.165
2021-08-01 01:20:34.084,0.075,-0.17
2021-08-01 01:20:34.088,0.09,-0.16
2021-08-01 01:20:34.092,0.095,-0.135
2021-08-01 01:20:34.096,0.095,-0.14
2021-08-01 01:20:34.100,0.105,-0.145
2021-08-01 01:20:34.104,0.09,-0.11
2021-08-01 01:20:34.108,0.095,-0.115
2021-08-01 01:20:34.112,0.105,-0.12
2021-08-01 01:20:34.116,0.115,-0.11
2021-08-01 01:20:34.120,0.105,-0.09
2021-08-01 01:20:34.124,0.12,-0.095
2021-08-01 01:20:34.128,0.11,-0.1
2021-08-01 01:20:34.132,0.115,-0.11
2021-08-01 01:20:34.136,0.11,-0.135
2021-08-01 01:20:34.140,0.135,-0.13
2021-08-01 01:20:34.144,0.15,-0.15
2021-08-01 01:20:34.148,0.12,-0.17
2021-08-01 01:20:34.152,0.105,-0.175
2021-08-01 01:20:34.156,0.11,-0.15
2021-08-01 01:20:34.160,0.125,-0.14
2021-08-01 01:20:34.164,0.135,-0.15
2021-08-01 01:20:34.168,0.15,-0.16
2021-08-01 01:20:34.172,0.16,-0.18
2021-08-01 01:20:34.176,0.16,-0.195
2021-08-01 01:20:34.180,0.17,-0.225
2021-08-01 01:20:34.184,0.185,-0.24
2021-08-01 01:20:34.188,0.165,-0.22
2021-08-01 01:20:34.192,0.17,-0.205
2021-08-01 01:20:34.196,0.195,-0.2
2021-08-01 01:20:34.200,0.18,-0.195
2021-08-01 01:20:34.204,0.155,-0.215
2021-08-01 01:20:34.208,0.135,-0.225
2021-08-01 01:20:34.212,0.09,-0.26
2021-08-01 01:20:34.216,0.065,-0.235
2021-08-01 01:20:34.220,0.075,-0.23
2021-08-01 01:20:34.224,0.075,-0.23
2021-08-01 01:20:34.228,0.07,-0.225
2021-08-01 01:20:34.232,0.075,-0.215
2021-08-01 01:20:34.236,0.08,-0.215
2021-08-01 01:20:34.240,0.085,-0.215
2021-08-01 01:20:34.244,0.075,-0.22
2021-08-01 01:20:34.248,0.075,-0.215
2021-08-01 01:20:34.252,0.075,-0.21
2021-08-01 01:20:34.256,0.07,-0.195
2021-08-01 01:20:34.260,0.07,-0.2
2021-08-01 01:20:34.264,0.075,-0.21
2021-08-01 01:20:34.268,0.065,-0.225
2021-08-01 01:20:34.272,0.055,-0.215
2021-08-01 01:20:34.276,0.055,-0.23
2021-08-01 01:20:34.280,0.065,-0.275
2021-08-01 01:20:34.284,0.04,-0.295
2021-08-01 01:20:34.288,0.05,-0.27
2021-08-01 01:20:34.292,0.06,-0.155
2021-08-01 01:20:34.296,0.105,0.01
2021-08-01 01:20:34.300,0.125,0.225
2021-08-01 01:20:34.304,0.16,0.35
2021-08-01 01:20:34.308,0.24,0.345
2021-08-01 01:20:34.312,0.315,0.3
2021-08-01 01:20:34.316,0.295,0.085
2021-08-01 01:20:34.320,0.255,-0.31
2021-08-01 01:20:34.324,0.165,-0.58
2021-08-01 01:20:34.328,0.005,-0.615
2021-08-01 01:20:34.332,-0.195,-0.595
2021-08-01 01:20:34.336,-0.27,-0.57
2021-08-01 01:20:34.340,-0.275,-0.525
2021-08-01 01:20:34.344,-0.27,-0.41
2021-08-01 01:20:34.348,-0.225,-0.315
2021-08-01 01:20:34.352,-0.14,-0.25
2021-08-01 01:20:34.356,-0.06,-0.26
2021-08-01 01:20:34.360,-0.005,-0.275
2021-08-01 01:20:34.364,0.02,-0.29
2021-08-01 01:20:34.368,0.035,-0.28
2021-08-01 01:20:34.372,0.035,-0.275
2021-08-01 01:20:34.376,0.03,-0.285
2021-08-01 01:20:34.380,0.015,-0.29
2021-08-01 01:20:34.384,0.015,-0.3
2021-08-01 01:20:34.388,0.025,-0.3
2021-08-01 01:20:34.392,0.02,-0.29
2021-08-01 01:20:34.396,0.025,-0.295
2021-08-01 01:20:34.400,0.02,-0.31
2021-08-01 01:20:34.404,0.03,-0.31
2021-08-01 01:20:34.408,0.015,-0.295
2021-08-01 01:20:34.412,0.03,-0.305
2021-08-01 01:20:34.416,0.025,-0.305
2021-08-01 01:20:34.420,0.035,-0.3
2021-08-01 01:20:34.424,0.02,-0.305
2021-08-01 01:20:34.428,0.03,-0.295
2021-08-01 01:20:34.432,0.02,-0.29
2021-08-01 01:20:34.436,0.02,-0.3
2021-08-01 01:20:34.440,0.01,-0.32
2021-08-01 01:20:34.444,0.02,-0.305
2021-08-01 01:20:34.448,0.005,-0.28
2021-08-01 01:20:34.452,0.025,-0.295
2021-08-01 01:20:34.456,0.025,-0.3
2021-08-01 01:20:34.460,0.025,-0.3
2021-08-01 01:20:34.464,0.035,-0.285
2021-08-01 01:20:34.468,0.03,-0.285
2021-08-01 01:20:34.472,0.03,-0.27
2021-08-01 01:20:34.476,0.03,-0.265
2021-08-01 01:20:34.480,0.025,-0.27
2021-08-01 01:20:34.484,0.035,-0.27
2021-08-01 01:20:34.488,0.025,-0.24
2021-08-01 01:20:34.492,0.035,-0.24
2021-08-01 01:20:34.496,0.025,-0.235
2021-08-01 01:20:34.500,0.03,-0.24
2021-08-01 01:20:34.504,0.04,-0.23
2021-08-01 01:20:34.508,0.05,-0.215
2021-08-01 01:20:34.512,0.04,-0.215
2021-08-01 01:20:34.516,0.045,-0.22
2021-08-01 01:20:34.520,0.03,-0.215
2021-08-01 01:20:34.524,0.035,-0.2
2021-08-01 01:20:34.528,0.035,-0.18
2021-08-01 01:20:34.532,0.055,-0.185
2021-08-01 01:20:34.536,0.05,-0.175
2021-08-01 01:20:34.540,0.065,-0.155
2021-08-01 01:20:34.544,0.055,-0.14
2021-08-01 01:20:34.548,0.085,-0.15
2021-08-01 01:20:34.552,0.065,-0.145
2021-08-01 01:20:34.556,0.065,-0.145
2021-08-01 01:20:34.560,0.07,-0.14
2021-08-01 01:20:34.564,0.06,-0.115
2021-08-01 01:20:34.568,0.06,-0.135
2021-08-01 01:20:34.572,0.075,-0.13
2021-08-01 01:20:34.576,0.08,-0.13
2021-08-01 01:20:34.580,0.08,-0.14
2021-08-01 01:20:34.584,0.095,-0.13
2021-08-01 01:20:34.588,0.11,-0.15
2021-08-01 01:20:34.592,0.11,-0.17
2021-08-01 01:20:34.596,0.1,-0.165
2021-08-01 01:20:34.600,0.09,-0.185
2021-08-01 01:20:34.604,0.11,-0.17
2021-08-01 01:20:34.608,0.095,-0.155
2021-08-01 01:20:34.612,0.105,-0.175
2021-08-01 01:20:34.616,0.085,-0.185
2021-08-01 01:20:34.620,0.085,-0.185
2021-08-01 01:20:34.624,0.095,-0.19
2021-08-01 01:20:34.628,0.08,-0.205
2021-08-01 01:20:34.632,0.075,-0.2
2021-08-01 01:20:34.636,0.08,-0.18
2021-08-01 01:20:34.640,0.1,-0.175
2021-08-01 01:20:34.644,0.095,-0.175
2021-08-01 01:20:34.648,0.1,-0.175
2021-08-01 01:20:34.652,0.08,-0.18
2021-08-01 01:20:34.656,0.08,-0.175
2021-08-01 01:20:34.660,0.1,-0.165
2021-08-01 01:20:34.664,0.075,-0.16
2021-08-01 01:20:34.668,0.09,-0.17
2021-08-01 01:20:34.672,0.105,-0.185
2021-08-01 01:20:34.676,0.095,-0.165
2021-08-01 01:20:34.680,0.08,-0.16
2021-08-01 01:20:34.684,0.09,-0.18
2021-08-01 01:20:34.688,0.095,-0.16
2021-08-01 01:20:34.692,0.095,-0.175
2021-08-01 01:20:34.696,0.09,-0.165
2021-08-01 01:20:34.700,0.105,-0.15
2021-08-01 01:20:34.704,0.1,-0.17
2021-08-01 01:20:34.708,0.085,-0.165
2021-08-01 01:20:34.712,0.085,-0.17
2021-08-01 01:20:34.716,0.09,-0.175
2021-08-01 01:20:34.720,0.085,-0.19
2021-08-01 01:20:34.724,0.09,-0.195
2021-08-01 01:20:34.728,0.08,-0.185
2021-08-01 01:20:34.732,0.08,-0.185
2021-08-01 01:20:34.736,0.075,-0.175
2021-08-01 01:20:34.740,0.115,-0.175
2021-08-01 01:20:34.744,0.085,-0.175
2021-08-01 01:20:34.748,0.095,-0.175
2021-08-01 01:20:34.752,0.1,-0.175
2021-08-01 01:20:34.756,0.095,-0.175
2021-08-01 01:20:34.760,0.085,-0.155
2021-08-01 01:20:34.764,0.085,-0.195
2021-08-01 01:20:34.768,0.085,-0.2
2021-08-01 01:20:34.772,0.1,-0.205
2021-08-01 01:20:34.776,0.095,-0.18
2021-08-01 01:20:34.780,0.09,-0.215
2021-08-01 01:20:34.784,0.09,-0.205
2021-08-01 01:20:34.788,0.07,-0.17
2021-08-01 01:20:34.792,0.07,-0.19
2021-08-01 01:20:34.796,0.08,-0.19
2021-08-01 01:20:34.800,0.07,-0.205
2021-08-01 01:20:34.804,0.08,-0.19
2021-08-01 01:20:34.808,0.08,-0.2
2021-08-01 01:20:34.812,0.09,-0.195
2021-08-01 01:20:34.816,0.075,-0.18
2021-08-01 01:20:34.820,0.09,-0.195
2021-08-01 01:20:34.824,0.09,-0.21
2021-08-01 01:20:34.828,0.08,-0.2
2021-08-01 01:20:34.832,0.095,-0.195
2021-08-01 01:20:34.836,0.055,-0.205
2021-08-01 01:20:34.840,0.075,-0.21
2021-08-01 01:20:34.844,0.085,-0.2
2021-08-01 01:20:34.848,0.08,-0.205
2021-08-01 01:20:34.852,0.095,-0.19
2021-08-01 01:20:34.856,0.075,-0.19
2021-08-01 01:20:34.860,0.07,-0.185
2021-08-01 01:20:34.864,0.065,-0.215
2021-08-01 01:20:34.868,0.065,-0.2
2021-08-01 01:20:34.872,0.065,-0.18
2021-08-01 01:20:34.876,0.085,-0.2
2021-08-01 01:20:34.880,0.065,-0.21
2021-08-01 01:20:34.884,0.065,-0.2
2021-08-01 01:20:34.888,0.065,-0.2
2021-08-01 01:20:34.892,0.07,-0.205
2021-08-01 01:20:34.896,0.085,-0.205
2021-08-01 01:20:34.900,0.065,-0.2
2021-08-01 01:20:34.904,0.06,-0.205
2021-08-01 01:20:34.908,0.09,-0.195
2021-08-01 01:20:34.912,0.065,-0.19
2021-08-01 01:20:34.916,0.065,-0.19
2021-08-01 01:20:34.920,0.06,-0.19
2021-08-01 01:20:34.924,0.055,-0.2
2021-08-01 01:20:34.928,0.06,-0.205
2021-08-01 01:20:34.932,0.075,-0.205
2021-08-01 01:20:34.936,0.06,-0.2
2021-08-01 01:20:34.940,0.08,-0.21
2021-08-01 01:20:34.944,0.075,-0.2
2021-08-01 01:20:34.948,0.065,-0.19
2021-08-01 01:20:34.952,0.06,-0.18
2021-08-01 01:20:34.956,0.055,-0.205
2021-08-01 01:20:34.960,0.045,-0.205
2021-08-01 01:20:34.964,0.055,-0.195
2021-08-01 01:20:34.968,0.05,-0.195
2021-08-01 01:20:34.972,0.07,-0.205
2021-08-01 01:20:34.976,0.06,-0.21
2021-08-01 01:20:34.980,0.06,-0.195
2021-08-01 01:20:34.984,0.07,-0.185
2021-08-01 01:20:34.988,0.07,-0.16
2021-08-01 01:20:34.992,0.065,-0.155
2021-08-01 01:20:34.996,0.065,-0.16
2021-08-01 01:20:35.000,0.07,-0.135
2021-08-01 01:20:35.004,0.075,-0.095
2021-08-01 01:20:35.008,0.09,-0.105
2021-08-01 01:20:35.012,0.11,-0.105
2021-08-01 01:20:35.016,0.095,-0.09
2021-08-01 01:20:35.020,0.11,-0.055
2021-08-01 01:20:35.024,0.135,-0.035
2021-08-01 01:20:35.028,0.135,-0.01
2021-08-01 01:20:35.032,0.135,-0.025
2021-08-01 01:20:35.036,0.1,-0.065
2021-08-01 01:20:35.040,0.1,-0.1
2021-08-01 01:20:35.044,0.055,-0.135
2021-08-01 01:20:35.048,0.05,-0.17
2021-08-01 01:20:35.052,0.03,-0.18
2021-08-01 01:20:35.056,0.005,-0.18
2021-08-01 01:20:35.060,0.01,-0.175
2021-08-01 01:20:35.064,0.005,-0.165
2021-08-01 01:20:35.068,0.03,-0.155
2021-08-01 01:20:35.072,0.035,-0.18
2021-08-01 01:20:35.076,0.055,-0.215
2021-08-01 01:20:35.080,0.05,-0.245
2021-08-01 01:20:35.084,0.05,-0.245
2021-08-01 01:20:35.088,0.045,-0.275
2021-08-01 01:20:35.092,0.035,-0.285
2021-08-01 01:20:35.096,0.04,-0.295
2021-08-01 01:20:35.100,0.03,-0.295
2021-08-01 01:20:35.104,0.015,-0.3
2021-08-01 01:20:35.108,0.025,-0.295
2021-08-01 01:20:35.112,0.02,-0.305
2021-08-01 01:20:35.116,0.02,-0.3
2021-08-01 01:20:35.120,0.03,-0.31
2021-08-01 01:20:35.124,0.025,-0.305
2021-08-01 01:20:35.128,0.01,-0.3
2021-08-01 01:20:35.132,-0.01,-0.295
2021-08-01 01:20:35.136,0.01,-0.31
2021-08-01 01:20:35.140,0.005,-0.305
2021-08-01 01:20:35.144,0.03,-0.32
2021-08-01 01:20:35.148,0.02,-0.32
2021-08-01 01:20:35.152,0.015,-0.315
2021-08-01 01:20:35.156,0.03,-0.29
2021-08-01 01:20:35.160,0.035,-0.19
2021-08-01 01:20:35.164,0.055,0.025
2021-08-01 01:20:35.168,0.06,0.27
2021-08-01 01:20:35.172,0.12,0.49
2021-08-01 01:20:35.176,0.225,0.6
2021-08-01 01:20:35.180,0.31,0.605
2021-08-01 01:20:35.184,0.34,0.525
2021-08-01 01:20:35.188,0.365,0.24
2021-08-01 01:20:35.192,0.335,-0.255
2021-08-01 01:20:35.196,0.235,-0.595
2021-08-01 01:20:35.200,0.01,-0.78
2021-08-01 01:20:35.204,-0.195,-0.795
2021-08-01 01:20:35.208,-0.305,-0.73
2021-08-01 01:20:35.212,-0.355,-0.6
2021-08-01 01:20:35.216,-0.33,-0.51
2021-08-01 01:20:35.220,-0.27,-0.425
2021-08-01 01:20:35.224,-0.185,-0.36
2021-08-01 01:20:35.228,-0.12,-0.34
2021-08-01 01:20:35.232,-0.045,-0.34
2021-08-01 01:20:35.236,-0.005,-0.34
2021-08-01 01:20:35.240,0.0,-0.335
2021-08-01 01:20:35.244,0.02,-0.35
2021-08-01 01:20:35.248,0.015,-0.34
2021-08-01 01:20:35.252,0.005,-0.34
2021-08-01 01:20:35.256,0.005,-0.35
2021-08-01 01:20:35.260,0.005,-0.335
2021-08-01 01:20:35.264,0.005,-0.315
2021-08-01 01:20:35.268,0.015,-0.335
2021-08-01 01:20:35.272,0.01,-0.325
2021-08-01 01:20:35.276,0.0,-0.34
2021-08-01 01:20:35.280,-0.01,-0.335
2021-08-01 01:20:35.284,0.0,-0.345
2021-08-01 01:20:35.288,0.005,-0.32
2021-08-01 01:20:35.292,0.01,-0.31
2021-08-01 01:20:35.296,0.015,-0.325
2021-08-01 01:20:35.300,0.005,-0.325
2021-08-01 01:20:35.304,0.005,-0.32
2021-08-01 01:20:35.308,0.015,-0.325
2021-08-01 01:20:35.312,0.005,-0.32
2021-08-01 01:20:35.316,0.02,-0.32
2021-08-01 01:20:35.320,0.01,-0.295
2021-08-01 01:20:35.324,0.02,-0.29
2021-08-01 01:20:35.328,0.005,-0.305
2021-08-01 01:20:35.332,0.01,-0.305
2021-08-01 01:20:35.336,0.0,-0.285
2021-08-01 01:20:35.340,0.005,-0.3
2021-08-01 01:20:35.344,0.0,-0.28
2021-08-01 01:20:35.348,-0.005,-0.27
2021-08-01 01:20:35.352,0.015,-0.28
2021-08-01 01:20:35.356,0.005,-0.265
2021-08-01 01:20:35.360,0.01,-0.24
2021-08-01 01:20:35.364,0.0,-0.245
2021-08-01 01:20:35.368,0.01,-0.24
2021-08-01 01:20:35.372,0.035,-0.245
2021-08-01 01:20:35.376,0.03,-0.225
2021-08-01 01:20:35.380,0.005,-0.245
2021-08-01 01:20:35.384,0.02,-0.235
2021-08-01 01:20:35.388,0.025,-0.2
2021-08-01 01:20:35.392,0.015,-0.195
2021-08-01 01:20:35.396,0.01,-0.195
2021-08-01 01:20:35.400,0.015,-0.175
2021-08-01 01:20:35.404,0.015,-0.155
2021-08-01 01:20:35.408,0.02,-0.16
2021-08-01 01:20:35.412,0.04,-0.15
2021-08-01 01:20:35.416,0.035,-0.14
2021-08-01 01:20:35.420,0.04,-0.15
2021-08-01 01:20:35.424,0.04,-0.145
2021-08-01 01:20:35.428,0.05,-0.11
2021-08-01 01:20:35.432,0.04,-0.12
2021-08-01 01:20:35.436,0.05,-0.14
2021-08-01 01:20:35.440,0.03,-0.095
2021-08-01 01:20:35.444,0.045,-0.075
2021-08-01 01:20:35.448,0.045,-0.08
2021-08-01 01:20:35.452,0.055,-0.085
2021-08-01 01:20:35.456,0.05,-0.085
2021-08-01 01:20:35.460,0.055,-0.065
2021-08-01 01:20:35.464,0.08,-0.055
2021-08-01 01:20:35.468,0.075,-0.04
2021-08-01 01:20:35.472,0.06,-0.05
2021-08-01 01:20:35.476,0.075,-0.06
2021-08-01 01:20:35.480,0.095,-0.075
2021-08-01 01:20:35.484,0.08,-0.095
2021-08-01 01:20:35.488,0.065,-0.095
2021-08-01 01:20:35.492,0.075,-0.13
2021-08-01 01:20:35.496,0.065,-0.12
2021-08-01 01:20:35.500,0.065,-0.125
2021-08-01 01:20:35.504,0.07,-0.13
2021-08-01 01:20:35.508,0.055,-0.13
2021-08-01 01:20:35.512,0.055,-0.16
2021-08-01 01:20:35.516,0.055,-0.165
2021-08-01 01:20:35.520,0.065,-0.145
2021-08-01 01:20:35.524,0.06,-0.145
2021-08-01 01:20:35.528,0.065,-0.16
2021-08-01 01:20:35.532,0.06,-0.17
2021-08-01 01:20:35.536,0.06,-0.165
2021-08-01 01:20:35.540,0.06,-0.155
2021-08-01 01:20:35.544,0.08,-0.155
2021-08-01 01:20:35.548,0.065,-0.165
2021-08-01 01:20:35.552,0.06,-0.155
2021-08-01 01:20:35.556,0.065,-0.16
2021-08-01 01:20:35.560,0.05,-0.145
2021-08-01 01:20:35.564,0.05,-0.145
2021-08-01 01:20:35.568,0.07,-0.145
2021-08-01 01:20:35.572,0.07,-0.145
2021-08-01 01:20:35.576,0.065,-0.135
2021-08-01 01:20:35.580,0.055,-0.135
2021-08-01 01:20:35.584,0.08,-0.14
2021-08-01 01:20:35.588,0.065,-0.155
2021-08-01 01:20:35.592,0.07,-0.15
2021-08-01 01:20:35.596,0.07,-0.16
2021-08-01 01:20:35.600,0.065,-0.145
2021-08-01 01:20:35.604,0.055,-0.135
2021-08-01 01:20:35.608,0.07,-0.14
2021-08-01 01:20:35.612,0.065,-0.16
2021-08-01 01:20:35.616,0.05,-0.14
2021-08-01 01:20:35.620,0.055,-0.145
2021-08-01 01:20:35.624,0.06,-0.15
2021-08-01 01:20:35.628,0.065,-0.15
2021-08-01 01:20:35.632,0.055,-0.155
2021-08-01 01:20:35.636,0.07,-0.165
2021-08-01 01:20:35.640,0.075,-0.14
2021-08-01 01:20:35.644,0.07,-0.165
2021-08-01 01:20:35.648,0.06,-0.165
2021-08-01 01:20:35.652,0.06,-0.16
2021-08-01 01:20:35.656,0.06,-0.16
2021-08-01 01:20:35.660,0.065,-0.16
2021-08-01 01:20:35.664,0.075,-0.175
2021-08-01 01:20:35.668,0.065,-0.195
2021-08-01 01:20:35.672,0.065,-0.17
2021-08-01 01:20:35.676,0.055,-0.175
2021-08-01 01:20:35.680,0.075,-0.155
2021-08-01 01:20:35.684,0.07,-0.14
2021-08-01 01:20:35.688,0.065,-0.125
2021-08-01 01:20:35.692,0.065,-0.105
2021-08-01 01:20:35.696,0.085,-0.1
2021-08-01 01:20:35.700,0.08,-0.07
2021-08-01 01:20:35.704,0.1,-0.075
2021-08-01 01:20:35.708,0.12,-0.065
2021-08-01 01:20:35.712,0.13,-0.045
2021-08-01 01:20:35.716,0.155,-0.035
2021-08-01 01:20:35.720,0.16,-0.015
2021-08-01 01:20:35.724,0.16,-0.02
2021-08-01 01:20:35.728,0.14,-0.035
2021-08-01 01:20:35.732,0.12,-0.07
2021-08-01 01:20:35.736,0.105,-0.11
2021-08-01 01:20:35.740,0.05,-0.16
2021-08-01 01:20:35.744,0.055,-0.175
2021-08-01 01:20:35.748,0.03,-0.18
2021-08-01 01:20:35.752,0.035,-0.17
2021-08-01 01:20:35.756,0.01,-0.16
2021-08-01 01:20:35.760,0.03,-0.18
2021-08-01 01:20:35.764,0.04,-0.185
2021-08-01 01:20:35.768,0.055,-0.185
2021-08-01 01:20:35.772,0.07,-0.195
2021-08-01 01:20:35.776,0.08,-0.215
2021-08-01 01:20:35.780,0.065,-0.25
2021-08-01 01:20:35.784,0.085,-0.265
2021-08-01 01:20:35.788,0.07,-0.275
2021-08-01 01:20:35.792,0.07,-0.275
2021-08-01 01:20:35.796,0.065,-0.295
2021-08-01 01:20:35.800,0.045,-0.285
2021-08-01 01:20:35.804,0.06,-0.29
2021-08-01 01:20:35.808,0.055,-0.285
2021-08-01 01:20:35.812,0.055,-0.3
2021-08-01 01:20:35.816,0.04,-0.275
2021-08-01 01:20:35.820,0.04,-0.28
2021-08-01 01:20:35.824,0.045,-0.275
2021-08-01 01:20:35.828,0.045,-0.29
2021-08-01 01:20:35.832,0.045,-0.3
2021-08-01 01:20:35.836,0.035,-0.295
2021-08-01 01:20:35.840,0.045,-0.29
2021-08-01 01:20:35.844,0.055,-0.305
2021-08-01 01:20:35.848,0.065,-0.32
2021-08-01 01:20:35.852,0.04,-0.31
2021-08-01 01:20:35.856,0.055,-0.24
2021-08-01 01:20:35.860,0.085,-0.075
2021-08-01 01:20:35.864,0.105,0.155
2021-08-01 01:20:35.868,0.125,0.375
2021-08-01 01:20:35.872,0.195,0.525
2021-08-01 01:20:35.876,0.295,0.59
2021-08-01 01:20:35.880,0.375,0.59
2021-08-01 01:20:35.884,0.395,0.435
2021-08-01 01:20:35.888,0.405,-0.005
2021-08-01 01:20:35.892,0.37,-0.455
2021-08-01 01:20:35.896,0.245,-0.695
2021-08-01 01:20:35.900,0.0,-0.765
2021-08-01 01:20:35.904,-0.185,-0.76
2021-08-01 01:20:35.908,-0.255,-0.715
2021-08-01 01:20:35.912,-0.265,-0.595
2021-08-01 01:20:35.916,-0.265,-0.5
2021-08-01 01:20:35.920,-0.21,-0.395
2021-08-01 01:20:35.924,-0.135,-0.315
2021-08-01 01:20:35.928,-0.04,-0.315
2021-08-01 01:20:35.932,0.005,-0.32
2021-08-01 01:20:35.936,0.03,-0.32
2021-08-01 01:20:35.940,0.045,-0.325
2021-08-01 01:20:35.944,0.035,-0.32
2021-08-01 01:20:35.948,0.03,-0.3
2021-08-01 01:20:35.952,0.045,-0.32
2021-08-01 01:20:35.956,0.025,-0.305
2021-08-01 01:20:35.960,0.035,-0.305
2021-08-01 01:20:35.964,0.04,-0.3
2021-08-01 01:20:35.968,0.035,-0.295
2021-08-01 01:20:35.972,0.03,-0.295
2021-08-01 01:20:35.976,0.04,-0.285
2021-08-01 01:20:35.980,0.045,-0.3
2021-08-01 01:20:35.984,0.055,-0.305
2021-08-01 01:20:35.988,0.055,-0.295
2021-08-01 01:20:35.992,0.05,-0.315
2021-08-01 01:20:35.996,0.04,-0.295
2021-08-01 01:20:36.000,0.045,-0.3
2021-08-01 01:20:36.004,0.05,-0.315
2021-08-01 01:20:36.008,0.04,-0.305
2021-08-01 01:20:36.012,0.05,-0.29
2021-08-01 01:20:36.016,0.045,-0.295
2021-08-01 01:20:36.020,0.05,-0.285
2021-08-01 01:20:36.024,0.045,-0.285
2021-08-01 01:20:36.028,0.04,-0.275
2021-08-01 01:20:36.032,0.04,-0.285
2021-08-01 01:20:36.036,0.045,-0.285
2021-08-01 01:20:36.040,0.045,-0.26
2021-08-01 01:20:36.044,0.04,-0.27
2021-08-01 01:20:36.048,0.055,-0.265
2021-08-01 01:20:36.052,0.055,-0.25
2021-08-01 01:20:36.056,0.045,-0.25
2021-08-01 01:20:36.060,0.05,-0.24
2021-08-01 01:20:36.064,0.05,-0.25
2021-08-01 01:20:36.068,0.04,-0.23
2021-08-01 01:20:36.072,0.045,-0.225
2021-08-01 01:20:36.076,0.045,-0.205
2021-08-01 01:20:36.080,0.06,-0.21
2021-08-01 01:20:36.084,0.055,-0.225
2021-08-01 01:20:36.088,0.05,-0.215
2021-08-01 01:20:36.092,0.06,-0.2
2021-08-01 01:20:36.096,0.06,-0.195
2021-08-01 01:20:36.100,0.05,-0.195
2021-08-01 01:20:36.104,0.065,-0.2
2021-08-01 01:20:36.108,0.055,-0.19
2021-08-01 01:20:36.112,0.055,-0.175
2021-08-01 01:20:36.116,0.075,-0.16
2021-08-01 01:20:36.120,0.07,-0.165
2021-08-01 01:20:36.124,0.055,-0.17
2021-08-01 01:20:36.128,0.06,-0.16
2021-08-01 01:20:36.132,0.065,-0.14
2021-08-01 01:20:36.136,0.055,-0.135
2021-08-01 01:20:36.140,0.06,-0.125
2021-08-01 01:20:36.144,0.065,-0.135
2021-08-01 01:20:36.148,0.09,-0.12
2021-08-01 01:20:36.152,0.065,-0.125
2021-08-01 01:20:36.156,0.065,-0.11
2021-08-01 01:20:36.160,0.085,-0.12
2021-08-01 01:20:36.164,0.085,-0.125
2021-08-01 01:20:36.168,0.075,-0.135
2021-08-01 01:20:36.172,0.085,-0.15
2021-08-01 01:20:36.176,0.07,-0.16
2021-08-01 01:20:36.180,0.07,-0.185
2021-08-01 01:20:36.184,0.08,-0.165
2021-08-01 01:20:36.188,0.105,-0.16
2021-08-01 01:20:36.192,0.075,-0.175
2021-08-01 01:20:36.196,0.105,-0.18
2021-08-01 01:20:36.200,0.1,-0.185
2021-08-01 01:20:36.204,0.09,-0.175
2021-08-01 01:20:36.208,0.095,-0.19
2021-08-01 01:20:36.212,0.08,-0.19
2021-08-01 01:20:36.216,0.08,-0.195
2021-08-01 01:20:36.220,0.08,-0.175
2021-08-01 01:20:36.224,0.09,-0.205
2021-08-01 01:20:36.228,0.075,-0.2
2021-08-01 01:20:36.232,0.085,-0.185
2021-08-01 01:20:36.236,0.095,-0.18
2021-08-01 01:20:36.240,0.095,-0.195
2021-08-01 01:20:36.244,0.08,-0.185
2021-08-01 01:20:36.248,0.085,-0.175
2021-08-01 01:20:36.252,0.085,-0.19
2021-08-01 01:20:36.256,0.095,-0.185
2021-08-01 01:20:36.260,0.085,-0.17
2021-08-01 01:20:36.264,0.095,-0.165
2021-08-01 01:20:36.268,0.095,-0.17
2021-08-01 01:20:36.272,0.095,-0.17
2021-08-01 01:20:36.276,0.095,-0.175
2021-08-01 01:20:36.280,0.1,-0.165
2021-08-01 01:20:36.284,0.095,-0.15
2021-08-01 01:20:36.288,0.1,-0.16
2021-08-01 01:20:36.292,0.1,-0.175
2021-08-01 01:20:36.296,0.08,-0.18
2021-08-01 01:20:36.300,0.085,-0.17
2021-08-01 01:20:36.304,0.075,-0.165
2021-08-01 01:20:36.308,0.075,-0.17
2021-08-01 01:20:36.312,0.085,-0.175
2021-08-01 01:20:36.316,0.085,-0.19
2021-08-01 01:20:36.320,0.075,-0.19
2021-08-01 01:20:36.324,0.09,-0.185
2021-08-01 01:20:36.328,0.09,-0.185
2021-08-01 01:20:36.332,0.09,-0.195
2021-08-01 01:20:36.336,0.09,-0.195
2021-08-01 01:20:36.340,0.1,-0.195
2021-08-01 01:20:36.344,0.09,-0.205
2021-08-01 01:20:36.348,0.08,-0.195
2021-08-01 01:20:36.352,0.08,-0.215
2021-08-01 01:20:36.356,0.07,-0.2
2021-08-01 01:20:36.360,0.065,-0.195
2021-08-01 01:20:36.364,0.085,-0.18
2021-08-01 01:20:36.368,0.085,-0.2
2021-08-01 01:20:36.372,0.075,-0.195
2021-08-01 01:20:36.376,0.09,-0.17
2021-08-01 01:20:36.380,0.075,-0.14
2021-08-01 01:20:36.384,0.085,-0.135
2021-08-01 01:20:36.388,0.105,-0.125
2021-08-01 01:20:36.392,0.135,-0.095
2021-08-01 01:20:36.396,0.125,-0.095
2021-08-01 01:20:36.400,0.14,-0.105
2021-08-01 01:20:36.404,0.155,-0.075
2021-08-01 01:20:36.408,0.145,-0.05
2021-08-01 01:20:36.412,0.155,-0.05
2021-08-01 01:20:36.416,0.15,-0.055
2021-08-01 01:20:36.420,0.14,-0.055
2021-08-01 01:20:36.424,0.11,-0.095
2021-08-01 01:20:36.428,0.095,-0.14
2021-08-01 01:20:36.432,0.085,-0.185
2021-08-01 01:20:36.436,0.055,-0.19
2021-08-01 01:20:36.440,0.035,-0.19
2021-08-01 01:20:36.444,0.055,-0.18
2021-08-01 01:20:36.448,0.025,-0.18
2021-08-01 01:20:36.452,0.03,-0.17
2021-08-01 01:20:36.456,0.06,-0.21
2021-08-01 01:20:36.460,0.06,-0.215
2021-08-01 01:20:36.464,0.075,-0.23
2021-08-01 01:20:36.468,0.085,-0.24
2021-08-01 01:20:36.472,0.09,-0.275
2021-08-01 01:20:36.476,0.1,-0.265
2021-08-01 01:20:36.480,0.09,-0.28
2021-08-01 01:20:36.484,0.095,-0.305
2021-08-01 01:20:36.488,0.075,-0.295
2021-08-01 01:20:36.492,0.055,-0.3
2021-08-01 01:20:36.496,0.055,-0.3
2021-08-01 01:20:36.500,0.06,-0.295
2021-08-01 01:20:36.504,0.055,-0.3
2021-08-01 01:20:36.508,0.055,-0.31
2021-08-01 01:20:36.512,0.045,-0.31
2021-08-01 01:20:36.516,0.05,-0.29
2021-08-01 01:20:36.520,0.065,-0.305
2021-08-01 01:20:36.524,0.075,-0.305
2021-08-01 01:20:36.528,0.075,-0.305
2021-08-01 01:20:36.532,0.04,-0.295
2021-08-01 01:20:36.536,0.05,-0.315
2021-08-01 01:20:36.540,0.075,-0.345
2021-08-01 01:20:36.544,0.04,-0.34
2021-08-01 01:20:36.548,0.075,-0.25
2021-08-01 01:20:36.552,0.1,-0.08
2021-08-01 01:20:36.556,0.105,0.135
2021-08-01 01:20:36.560,0.14,0.35
2021-08-01 01:20:36.564,0.215,0.525
2021-08-01 01:20:36.568,0.315,0.585
2021-08-01 01:20:36.572,0.385,0.585
2021-08-01 01:20:36.576,0.38,0.415
2021-08-01 01:20:36.580,0.335,-0.045
2021-08-01 01:20:36.584,0.3,-0.485
2021-08-01 01:20:36.588,0.125,-0.695
2021-08-01 01:20:36.592,-0.07,-0.76
2021-08-01 01:20:36.596,-0.23,-0.705
2021-08-01 01:20:36.600,-0.28,-0.625
2021-08-01 01:20:36.604,-0.28,-0.52
2021-08-01 01:20:36.608,-0.23,-0.435
2021-08-01 01:20:36.612,-0.15,-0.35
2021-08-01 01:20:36.616,-0.04,-0.32
2021-08-01 01:20:36.620,0.01,-0.32
2021-08-01 01:20:36.624,0.04,-0.315
2021-08-01 01:20:36.628,0.05,-0.325
2021-08-01 01:20:36.632,0.07,-0.32
2021-08-01 01:20:36.636,0.065,-0.32
2021-08-01 01:20:36.640,0.055,-0.31
2021-08-01 01:20:36.644,0.065,-0.315
2021-08-01 01:20:36.648,0.065,-0.31
2021-08-01 01:20:36.652,0.055,-0.285
2021-08-01 01:20:36.656,0.06,-0.31
2021-08-01 01:20:36.660,0.075,-0.3
2021-08-01 01:20:36.664,0.07,-0.285
2021-08-01 01:20:36.668,0.06,-0.29
2021-08-01 01:20:36.672,0.08,-0.285
2021-08-01 01:20:36.676,0.07,-0.29
2021-08-01 01:20:36.680,0.075,-0.295
2021-08-01 01:20:36.684,0.075,-0.29
2021-08-01 01:20:36.688,0.065,-0.285
2021-08-01 01:20:36.692,0.075,-0.28
2021-08-01 01:20:36.696,0.08,-0.29
2021-08-01 01:20:36.700,0.075,-0.28
2021-08-01 01:20:36.704,0.065,-0.275
2021-08-01 01:20:36.708,0.06,-0.275
2021-08-01 01:20:36.712,0.075,-0.28
2021-08-01 01:20:36.716,0.075,-0.27
2021-08-01 01:20:36.720,0.075,-0.265
2021-08-01 01:20:36.724,0.08,-0.25
2021-08-01 01:20:36.728,0.085,-0.245
2021-08-01 01:20:36.732,0.085,-0.225
2021-08-01 01:20:36.736,0.09,-0.24
2021-08-01 01:20:36.740,0.055,-0.225
2021-08-01 01:20:36.744,0.08,-0.22
2021-08-01 01:20:36.748,0.065,-0.2
2021-08-01 01:20:36.752,0.065,-0.205
2021-08-01 01:20:36.756,0.08,-0.195
2021-08-01 01:20:36.760,0.085,-0.19
2021-08-01 01:20:36.764,0.075,-0.18
2021-08-01 01:20:36.768,0.095,-0.17
2021-08-01 01:20:36.772,0.085,-0.16
2021-08-01 01:20:36.776,0.09,-0.155
2021-08-01 01:20:36.780,0.105,-0.135
2021-08-01 01:20:36.784,0.095,-0.13
2021-08-01 01:20:36.788,0.085,-0.13
2021-08-01 01:20:36.792,0.095,-0.13
2021-08-01 01:20:36.796,0.1,-0.11
2021-08-01 01:20:36.800,0.095,-0.125
2021-08-01 01:20:36.804,0.095,-0.12
2021-08-01 01:20:36.808,0.095,-0.11
2021-08-01 01:20:36.812,0.105,-0.095
2021-08-01 01:20:36.816,0.1,-0.1
2021-08-01 01:20:36.820,0.105,-0.08
2021-08-01 01:20:36.824,0.1,-0.08
2021-08-01 01:20:36.828,0.12,-0.07
2021-08-01 01:20:36.832,0.1,-0.06
2021-08-01 01:20:36.836,0.11,-0.06
2021-08-01 01:20:36.840,0.12,-0.06
2021-08-01 01:20:36.844,0.12,-0.05
2021-08-01 01:20:36.848,0.11,-0.045
2021-08-01 01:20:36.852,0.1,-0.08
2021-08-01 01:20:36.856,0.105,-0.08
2021-08-01 01:20:36.860,0.125,-0.07
2021-08-01 01:20:36.864,0.12,-0.09
2021-08-01 01:20:36.868,0.14,-0.105
2021-08-01 01:20:36.872,0.145,-0.125
2021-08-01 01:20:36.876,0.135,-0.145
2021-08-01 01:20:36.880,0.15,-0.175
2021-08-01 01:20:36.884,0.125,-0.175
2021-08-01 01:20:36.888,0.115,-0.175
2021-08-01 01:20:36.892,0.11,-0.18
2021-08-01 01:20:36.896,0.11,-0.16
2021-08-01 01:20:36.900,0.105,-0.12
2021-08-01 01:20:36.904,0.115,-0.13
2021-08-01 01:20:36.908,0.17,-0.14
2021-08-01 01:20:36.912,0.165,-0.15
2021-08-01 01:20:36.916,0.165,-0.14
2021-08-01 01:20:36.920,0.18,-0.15
2021-08-01 01:20:36.924,0.175,-0.165
2021-08-01 01:20:36.928,0.19,-0.18
2021-08-01 01:20:36.932,0.19,-0.145
2021-08-01 01:20:36.936,0.215,-0.115
2021-08-01 01:20:36.940,0.185,-0.125
2021-08-01 01:20:36.944,0.175,-0.155
2021-08-01 01:20:36.948,0.155,-0.16
2021-08-01 01:20:36.952,0.12,-0.165
2021-08-01 01:20:36.956,0.075,-0.16
2021-08-01 01:20:36.960,0.09,-0.16
2021-08-01 01:20:36.964,0.095,-0.175
2021-08-01 01:20:36.968,0.09,-0.17
2021-08-01 01:20:36.972,0.095,-0.17
2021-08-01 01:20:36.976,0.1,-0.17
2021-08-01 01:20:36.980,0.09,-0.16
2021-08-01 01:20:36.984,0.08,-0.185
2021-08-01 01:20:36.988,0.09,-0.18
2021-08-01 01:20:36.992,0.085,-0.195
2021-08-01 01:20:36.996,0.08,-0.16
2021-08-01 01:20:37.000,0.085,-0.175
2021-08-01 01:20:37.004,0.085,-0.19
2021-08-01 01:20:37.008,0.085,-0.185
2021-08-01 01:20:37.012,0.08,-0.195
2021-08-01 01:20:37.016,0.08,-0.215
2021-08-01 01:20:37.020,0.08,-0.265
2021-08-01 01:20:37.024,0.075,-0.285
2021-08-01 01:20:37.028,0.07,-0.23
2021-08-01 01:20:37.032,0.09,-0.06
2021-08-01 01:20:37.036,0.115,0.145
2021-08-01 01:20:37.040,0.155,0.36
2021-08-01 01:20:37.044,0.24,0.495
2021-08-01 01:20:37.048,0.31,0.495
2021-08-01 01:20:37.052,0.38,0.48
2021-08-01 01:20:37.056,0.365,0.33
2021-08-01 01:20:37.060,0.315,-0.055
2021-08-01 01:20:37.064,0.24,-0.43
2021-08-01 01:20:37.068,0.035,-0.56
2021-08-01 01:20:37.072,-0.15,-0.58
2021-08-01 01:20:37.076,-0.265,-0.545
2021-08-01 01:20:37.080,-0.265,-0.505
2021-08-01 01:20:37.084,-0.28,-0.405
2021-08-01 01:20:37.088,-0.23,-0.29
2021-08-01 01:20:37.092,-0.145,-0.23
2021-08-01 01:20:37.096,-0.045,-0.24
2021-08-01 01:20:37.100,0.005,-0.24
2021-08-01 01:20:37.104,0.045,-0.24
2021-08-01 01:20:37.108,0.045,-0.25
2021-08-01 01:20:37.112,0.035,-0.23
2021-08-01 01:20:37.116,0.035,-0.245
2021-08-01 01:20:37.120,0.055,-0.265
2021-08-01 01:20:37.124,0.04,-0.27
2021-08-01 01:20:37.128,0.045,-0.245
2021-08-01 01:20:37.132,0.035,-0.24
2021-08-01 01:20:37.136,0.055,-0.27
2021-08-01 01:20:37.140,0.045,-0.255
2021-08-01 01:20:37.144,0.03,-0.255
2021-08-01 01:20:37.148,0.025,-0.26
2021-08-01 01:20:37.152,0.03,-0.26
2021-08-01 01:20:37.156,0.02,-0.265
2021-08-01 01:20:37.160,0.025,-0.275
2021-08-01 01:20:37.164,0.03,-0.27
2021-08-01 01:20:37.168,0.03,-0.27
2021-08-01 01:20:37.172,0.045,-0.27
2021-08-01 01:20:37.176,0.05,-0.27
2021-08-01 01:20:37.180,0.03,-0.255
2021-08-01 01:20:37.184,0.03,-0.25
2021-08-01 01:20:37.188,0.035,-0.24
2021-08-01 01:20:37.192,0.03,-0.255
2021-08-01 01:20:37.196,0.025,-0.25
2021-08-01 01:20:37.200,0.025,-0.265
2021-08-01 01:20:37.204,0.025,-0.265
2021-08-01 01:20:37.208,0.035,-0.245
2021-08-01 01:20:37.212,0.035,-0.24
2021-08-01 01:20:37.216,0.03,-0.25
2021-08-01 01:20:37.220,0.025,-0.23
2021-08-01 01:20:37.224,0.025,-0.22
2021-08-01 01:20:37.228,0.04,-0.215
2021-08-01 01:20:37.232,0.045,-0.22
2021-08-01 01:20:37.236,0.035,-0.205
2021-08-01 01:20:37.240,0.035,-0.2
2021-08-01 01:20:37.244,0.045,-0.205
2021-08-01 01:20:37.248,0.045,-0.2
2021-08-01 01:20:37.252,0.035,-0.185
2021-08-01 01:20:37.256,0.045,-0.195
2021-08-01 01:20:37.260,0.045,-0.195
2021-08-01 01:20:37.264,0.04,-0.18
2021-08-01 01:20:37.268,0.05,-0.165
2021-08-01 01:20:37.272,0.035,-0.17
2021-08-01 01:20:37.276,0.05,-0.155
2021-08-01 01:20:37.280,0.05,-0.125
2021-08-01 01:20:37.284,0.05,-0.12
2021-08-01 01:20:37.288,0.06,-0.125
2021-08-01 01:20:37.292,0.07,-0.105
2021-08-01 01:20:37.296,0.075,-0.08
2021-08-01 01:20:37.300,0.075,-0.085
2021-08-01 01:20:37.304,0.075,-0.09
2021-08-01 01:20:37.308,0.075,-0.09
2021-08-01 01:20:37.312,0.075,-0.105
2021-08-01 01:20:37.316,0.095,-0.11
2021-08-01 01:20:37.320,0.075,-0.105
2021-08-01 01:20:37.324,0.105,-0.1
2021-08-01 01:20:37.328,0.105,-0.115
2021-08-01 01:20:37.332,0.12,-0.13
2021-08-01 01:20:37.336,0.1,-0.145
2021-08-01 01:20:37.340,0.1,-0.135
2021-08-01 01:20:37.344,0.11,-0.13
2021-08-01 01:20:37.348,0.105,-0.14
2021-08-01 01:20:37.352,0.085,-0.165
2021-08-01 01:20:37.356,0.08,-0.19
2021-08-01 01:20:37.360,0.095,-0.18
2021-08-01 01:20:37.364,0.09,-0.17
2021-08-01 01:20:37.368,0.115,-0.18
2021-08-01 01:20:37.372,0.095,-0.17
2021-08-01 01:20:37.376,0.09,-0.155
2021-08-01 01:20:37.380,0.065,-0.16
2021-08-01 01:20:37.384,0.09,-0.15
2021-08-01 01:20:37.388,0.09,-0.155
2021-08-01 01:20:37.392,0.08,-0.145
2021-08-01 01:20:37.396,0.09,-0.145
2021-08-01 01:20:37.400,0.095,-0.155
2021-08-01 01:20:37.404,0.09,-0.145
2021-08-01 01:20:37.408,0.085,-0.155
2021-08-01 01:20:37.412,0.075,-0.155
2021-08-01 01:20:37.416,0.08,-0.135
2021-08-01 01:20:37.420,0.08,-0.15
2021-08-01 01:20:37.424,0.085,-0.16
2021-08-01 01:20:37.428,0.095,-0.155
2021-08-01 01:20:37.432,0.075,-0.13
2021-08-01 01:20:37.436,0.09,-0.145
2021-08-01 01:20:37.440,0.075,-0.16
2021-08-01 01:20:37.444,0.085,-0.165
2021-08-01 01:20:37.448,0.07,-0.165
2021-08-01 01:20:37.452,0.085,-0.16
2021-08-01 01:20:37.456,0.07,-0.155
2021-08-01 01:20:37.460,0.08,-0.155
2021-08-01 01:20:37.464,0.055,-0.16
2021-08-01 01:20:37.468,0.07,-0.16
2021-08-01 01:20:37.472,0.07,-0.155
2021-08-01 01:20:37.476,0.08,-0.165
2021-08-01 01:20:37.480,0.085,-0.175
2021-08-01 01:20:37.484,0.075,-0.185
2021-08-01 01:20:37.488,0.065,-0.16
2021-08-01 01:20:37.492,0.08,-0.175
2021-08-01 01:20:37.496,0.075,-0.165
2021-08-01 01:20:37.500,0.075,-0.17
2021-08-01 01:20:37.504,0.07,-0.17
2021-08-01 01:20:37.508,0.07,-0.175
2021-08-01 01:20:37.512,0.06,-0.16
2021-08-01 01:20:37.516,0.065,-0.18
2021-08-01 01:20:37.520,0.09,-0.18
2021-08-01 01:20:37.524,0.06,-0.16
2021-08-01 01:20:37.528,0.05,-0.18
2021-08-01 01:20:37.532,0.07,-0.19
2021-08-01 01:20:37.536,0.055,-0.19
2021-08-01 01:20:37.540,0.065,-0.185
2021-08-01 01:20:37.544,0.045,-0.195
2021-08-01 01:20:37.548,0.065,-0.185
2021-08-01 01:20:37.552,0.05,-0.185
2021-08-01 01:20:37.556,0.065,-0.195
2021-08-01 01:20:37.560,0.055,-0.18
2021-08-01 01:20:37.564,0.06,-0.17
2021-08-01 01:20:37.568,0.05,-0.17
2021-08-01 01:20:37.572,0.075,-0.185
2021-08-01 01:20:37.576,0.065,-0.175
2021-08-01 01:20:37.580,0.075,-0.18
2021-08-01 01:20:37.584,0.045,-0.185
2021-08-01 01:20:37.588,0.065,-0.185
2021-08-01 01:20:37.592,0.05,-0.185
2021-08-01 01:20:37.596,0.075,-0.16
2021-08-01 01:20:37.600,0.06,-0.19
2021-08-01 01:20:37.604,0.065,-0.175
2021-08-01 01:20:37.608,0.08,-0.17
2021-08-01 01:20:37.612,0.085,-0.165
2021-08-01 01:20:37.616,0.07,-0.185
2021-08-01 01:20:37.620,0.085,-0.19
2021-08-01 01:20:37.624,0.055,-0.165
2021-08-01 01:20:37.628,0.09,-0.18
2021-08-01 01:20:37.632,0.08,-0.175
2021-08-01 01:20:37.636,0.1,-0.185
2021-08-01 01:20:37.640,0.085,-0.19
2021-08-01 01:20:37.644,0.085,-0.16
2021-08-01 01:20:37.648,0.06,-0.175
2021-08-01 01:20:37.652,0.07,-0.195
2021-08-01 01:20:37.656,0.075,-0.19
2021-08-01 01:20:37.660,0.065,-0.15
2021-08-01 01:20:37.664,0.08,-0.15
2021-08-01 01:20:37.668,0.095,-0.155
2021-08-01 01:20:37.672,0.08,-0.155
2021-08-01 01:20:37.676,0.08,-0.16
2021-08-01 01:20:37.680,0.09,-0.16
2021-08-01 01:20:37.684,0.09,-0.17
2021-08-01 01:20:37.688,0.075,-0.18
2021-08-01 01:20:37.692,0.075,-0.165
2021-08-01 01:20:37.696,0.1,-0.16
2021-08-01 01:20:37.700,0.095,-0.155
2021-08-01 01:20:37.704,0.07,-0.135
2021-08-01 01:20:37.708,0.09,-0.105
2021-08-01 01:20:37.712,0.08,-0.1
2021-08-01 01:20:37.716,0.1,-0.09
2021-08-01 01:20:37.720,0.115,-0.08
2021-08-01 01:20:37.724,0.14,-0.06
2021-08-01 01:20:37.728,0.135,-0.055
2021-08-01 01:20:37.732,0.165,-0.03
2021-08-01 01:20:37.736,0.17,-0.015
2021-08-01 01:20:37.740,0.17,0.015
2021-08-01 01:20:37.744,0.145,0.0
2021-08-01 01:20:37.748,0.14,-0.045
2021-08-01 01:20:37.752,0.105,-0.08
2021-08-01 01:20:37.756,0.08,-0.12
2021-08-01 01:20:37.760,0.075,-0.15
2021-08-01 01:20:37.764,0.07,-0.145
2021-08-01 01:20:37.768,0.05,-0.145
2021-08-01 01:20:37.772,0.045,-0.135
2021-08-01 01:20:37.776,0.035,-0.145
2021-08-01 01:20:37.780,0.065,-0.14
2021-08-01 01:20:37.784,0.08,-0.14
2021-08-01 01:20:37.788,0.08,-0.18
2021-08-01 01:20:37.792,0.09,-0.205
2021-08-01 01:20:37.796,0.09,-0.205
2021-08-01 01:20:37.800,0.075,-0.225
2021-08-01 01:20:37.804,0.09,-0.255
2021-08-01 01:20:37.808,0.075,-0.28
2021-08-01 01:20:37.812,0.065,-0.27
2021-08-01 01:20:37.816,0.065,-0.25
2021-08-01 01:20:37.820,0.06,-0.24
2021-08-01 01:20:37.824,0.05,-0.265
2021-08-01 01:20:37.828,0.065,-0.26
2021-08-01 01:20:37.832,0.065,-0.275
2021-08-01 01:20:37.836,0.055,-0.27
2021-08-01 01:20:37.840,0.05,-0.245
2021-08-01 01:20:37.844,0.055,-0.27
2021-08-01 01:20:37.848,0.05,-0.27
2021-08-01 01:20:37.852,0.065,-0.26
2021-08-01 01:20:37.856,0.055,-0.26
2021-08-01 01:20:37.860,0.06,-0.295
2021-08-01 01:20:37.864,0.035,-0.315
2021-08-01 01:20:37.868,0.06,-0.27
2021-08-01 01:20:37.872,0.06,-0.175
2021-08-01 01:20:37.876,0.085,0.03
2021-08-01 01:20:37.880,0.095,0.27
2021-08-01 01:20:37.884,0.14,0.485
2021-08-01 01:20:37.888,0.235,0.605
2021-08-01 01:20:37.892,0.335,0.615
2021-08-01 01:20:37.896,0.39,0.59
2021-08-01 01:20:37.900,0.4,0.375
2021-08-01 01:20:37.904,0.405,-0.075
2021-08-01 01:20:37.908,0.36,-0.475
2021-08-01 01:20:37.912,0.145,-0.68
2021-08-01 01:20:37.916,-0.075,-0.755
2021-08-01 01:20:37.920,-0.23,-0.755
2021-08-01 01:20:37.924,-0.285,-0.67
2021-08-01 01:20:37.928,-0.275,-0.535
2021-08-01 01:20:37.932,-0.25,-0.46
2021-08-01 01:20:37.936,-0.19,-0.355
2021-08-01 01:20:37.940,-0.1,-0.31
2021-08-01 01:20:37.944,-0.035,-0.305
2021-08-01 01:20:37.948,0.005,-0.295
2021-08-01 01:20:37.952,0.035,-0.29
2021-08-01 01:20:37.956,0.045,-0.29
2021-08-01 01:20:37.960,0.035,-0.29
2021-08-01 01:20:37.964,0.02,-0.305
2021-08-01 01:20:37.968,0.035,-0.3
2021-08-01 01:20:37.972,0.025,-0.28
2021-08-01 01:20:37.976,0.025,-0.29
2021-08-01 01:20:37.980,0.035,-0.29
2021-08-01 01:20:37.984,0.055,-0.28
2021-08-01 01:20:37.988,0.035,-0.275
2021-08-01 01:20:37.992,0.035,-0.275
2021-08-01 01:20:37.996,0.045,-0.3
2021-08-01 01:20:38.000,0.03,-0.295
2021-08-01 01:20:38.004,0.035,-0.285
2021-08-01 01:20:38.008,0.04,-0.275
2021-08-01 01:20:38.012,0.04,-0.27
2021-08-01 01:20:38.016,0.05,-0.275
2021-08-01 01:20:38.020,0.035,-0.275
2021-08-01 01:20:38.024,0.04,-0.295
2021-08-01 01:20:38.028,0.03,-0.27
2021-08-01 01:20:38.032,0.025,-0.285
2021-08-01 01:20:38.036,0.03,-0.265
2021-08-01 01:20:38.040,0.04,-0.255
2021-08-01 01:20:38.044,0.04,-0.26
2021-08-01 01:20:38.048,0.025,-0.255
2021-08-01 01:20:38.052,0.03,-0.26
2021-08-01 01:20:38.056,0.035,-0.22
2021-08-01 01:20:38.060,0.035,-0.23
2021-08-01 01:20:38.064,0.025,-0.255
2021-08-01 01:20:38.068,0.04,-0.215
2021-08-01 01:20:38.072,0.025,-0.205
2021-08-01 01:20:38.076,0.025,-0.215
2021-08-01 01:20:38.080,0.02,-0.235
2021-08-01 01:20:38.084,0.015,-0.205
2021-08-01 01:20:38.088,0.025,-0.205
2021-08-01 01:20:38.092,0.05,-0.195
2021-08-01 01:20:38.096,0.025,-0.185
2021-08-01 01:20:38.100,0.03,-0.185
2021-08-01 01:20:38.104,0.03,-0.16
2021-08-01 01:20:38.108,0.025,-0.16
2021-08-01 01:20:38.112,0.045,-0.165
2021-08-01 01:20:38.116,0.045,-0.165
2021-08-01 01:20:38.120,0.025,-0.15
2021-08-01 01:20:38.124,0.035,-0.125
2021-08-01 01:20:38.128,0.035,-0.13
2021-08-01 01:20:38.132,0.045,-0.125
2021-08-01 01:20:38.136,0.04,-0.135
2021-08-01 01:20:38.140,0.035,-0.135
2021-08-01 01:20:38.144,0.035,-0.105
2021-08-01 01:20:38.148,0.035,-0.07
2021-08-01 01:20:38.152,0.035,-0.09
2021-08-01 01:20:38.156,0.035,-0.095
2021-08-01 01:20:38.160,0.035,-0.09
2021-08-01 01:20:38.164,0.04,-0.05
2021-08-01 01:20:38.168,0.045,-0.055
2021-08-01 01:20:38.172,0.05,-0.045
2021-08-01 01:20:38.176,0.05,-0.03
2021-08-01 01:20:38.180,0.06,-0.035
2021-08-01 01:20:38.184,0.07,-0.04
2021-08-01 01:20:38.188,0.075,-0.045
2021-08-01 01:20:38.192,0.055,-0.05
2021-08-01 01:20:38.196,0.075,-0.09
2021-08-01 01:20:38.200,0.08,-0.08
2021-08-01 01:20:38.204,0.075,-0.1
2021-08-01 01:20:38.208,0.07,-0.11
2021-08-01 01:20:38.212,0.08,-0.12
2021-08-01 01:20:38.216,0.08,-0.12
2021-08-01 01:20:38.220,0.085,-0.14
2021-08-01 01:20:38.224,0.07,-0.145
2021-08-01 01:20:38.228,0.08,-0.14
2021-08-01 01:20:38.232,0.05,-0.15
2021-08-01 01:20:38.236,0.075,-0.145
2021-08-01 01:20:38.240,0.065,-0.145
2021-08-01 01:20:38.244,0.065,-0.15
2021-08-01 01:20:38.248,0.07,-0.155
2021-08-01 01:20:38.252,0.08,-0.155
2021-08-01 01:20:38.256,0.075,-0.16
2021-08-01 01:20:38.260,0.07,-0.13
2021-08-01 01:20:38.264,0.09,-0.135
2021-08-01 01:20:38.268,0.1,-0.14
2021-08-01 01:20:38.272,0.07,-0.14
2021-08-01 01:20:38.276,0.075,-0.13
2021-08-01 01:20:38.280,0.075,-0.13
2021-08-01 01:20:38.284,0.09,-0.14
2021-08-01 01:20:38.288,0.075,-0.145
2021-08-01 01:20:38.292,0.07,-0.12
2021-08-01 01:20:38.296,0.095,-0.135
2021-08-01 01:20:38.300,0.09,-0.13
2021-08-01 01:20:38.304,0.08,-0.14
2021-08-01 01:20:38.308,0.08,-0.15
2021-08-01 01:20:38.312,0.085,-0.13
2021-08-01 01:20:38.316,0.08,-0.115
2021-08-01 01:20:38.320,0.085,-0.125
2021-08-01 01:20:38.324,0.09,-0.145
2021-08-01 01:20:38.328,0.08,-0.15
2021-08-01 01:20:38.332,0.085,-0.14
2021-08-01 01:20:38.336,0.075,-0.14
2021-08-01 01:20:38.340,0.085,-0.165
2021-08-01 01:20:38.344,0.085,-0.145
2021-08-01 01:20:38.348,0.08,-0.155
2021-08-01 01:20:38.352,0.09,-0.15
2021-08-01 01:20:38.356,0.065,-0.15
2021-08-01 01:20:38.360,0.08,-0.175
2021-08-01 01:20:38.364,0.08,-0.18
2021-08-01 01:20:38.368,0.105,-0.16
2021-08-01 01:20:38.372,0.085,-0.16
2021-08-01 01:20:38.376,0.09,-0.16
2021-08-01 01:20:38.380,0.095,-0.18
2021-08-01 01:20:38.384,0.09,-0.17
2021-08-01 01:20:38.388,0.085,-0.17
2021-08-01 01:20:38.392,0.095,-0.135
2021-08-01 01:20:38.396,0.085,-0.125
2021-08-01 01:20:38.400,0.075,-0.105
2021-08-01 01:20:38.404,0.095,-0.095
2021-08-01 01:20:38.408,0.135,-0.075
2021-08-01 01:20:38.412,0.13,-0.065
2021-08-01 01:20:38.416,0.135,-0.075
2021-08-01 01:20:38.420,0.16,-0.065
2021-08-01 01:20:38.424,0.15,-0.02
2021-08-01 01:20:38.428,0.155,-0.01
2021-08-01 01:20:38.432,0.16,-0.015
2021-08-01 01:20:38.436,0.14,-0.04
2021-08-01 01:20:38.440,0.125,-0.045
2021-08-01 01:20:38.444,0.1,-0.115
2021-08-01 01:20:38.448,0.08,-0.155
2021-08-01 01:20:38.452,0.075,-0.175
2021-08-01 01:20:38.456,0.06,-0.17
2021-08-01 01:20:38.460,0.03,-0.19
2021-08-01 01:20:38.464,0.035,-0.17
2021-08-01 01:20:38.468,0.025,-0.175
2021-08-01 01:20:38.472,0.045,-0.185
2021-08-01 01:20:38.476,0.065,-0.21
2021-08-01 01:20:38.480,0.06,-0.225
2021-08-01 01:20:38.484,0.075,-0.235
2021-08-01 01:20:38.488,0.095,-0.245
2021-08-01 01:20:38.492,0.095,-0.26
2021-08-01 01:20:38.496,0.095,-0.275
2021-08-01 01:20:38.500,0.09,-0.29
2021-08-01 01:20:38.504,0.08,-0.285
2021-08-01 01:20:38.508,0.07,-0.275
2021-08-01 01:20:38.512,0.055,-0.29
2021-08-01 01:20:38.516,0.075,-0.285
2021-08-01 01:20:38.520,0.04,-0.3
2021-08-01 01:20:38.524,0.06,-0.305
2021-08-01 01:20:38.528,0.07,-0.285
2021-08-01 01:20:38.532,0.075,-0.295
2021-08-01 01:20:38.536,0.065,-0.29
2021-08-01 01:20:38.540,0.065,-0.3
2021-08-01 01:20:38.544,0.075,-0.28
2021-08-01 01:20:38.548,0.08,-0.285
2021-08-01 01:20:38.552,0.075,-0.29
2021-08-01 01:20:38.556,0.075,-0.335
2021-08-01 01:20:38.560,0.065,-0.33
2021-08-01 01:20:38.564,0.06,-0.295
2021-08-01 01:20:38.568,0.095,-0.17
2021-08-01 01:20:38.572,0.105,0.035
2021-08-01 01:20:38.576,0.13,0.245
2021-08-01 01:20:38.580,0.19,0.445
2021-08-01 01:20:38.584,0.27,0.555
2021-08-01 01:20:38.588,0.37,0.585
2021-08-01 01:20:38.592,0.405,0.495
2021-08-01 01:20:38.596,0.415,0.12
2021-08-01 01:20:38.600,0.39,-0.34
2021-08-01 01:20:38.604,0.295,-0.625
2021-08-01 01:20:38.608,0.065,-0.75
2021-08-01 01:20:38.612,-0.1,-0.755
2021-08-01 01:20:38.616,-0.205,-0.715
2021-08-01 01:20:38.620,-0.24,-0.595
2021-08-01 01:20:38.624,-0.22,-0.49
2021-08-01 01:20:38.628,-0.19,-0.41
2021-08-01 01:20:38.632,-0.095,-0.345
2021-08-01 01:20:38.636,-0.02,-0.325
2021-08-01 01:20:38.640,0.03,-0.31
2021-08-01 01:20:38.644,0.04,-0.32
2021-08-01 01:20:38.648,0.085,-0.31
2021-08-01 01:20:38.652,0.065,-0.31
2021-08-01 01:20:38.656,0.07,-0.32
2021-08-01 01:20:38.660,0.08,-0.33
2021-08-01 01:20:38.664,0.07,-0.31
2021-08-01 01:20:38.668,0.065,-0.305
2021-08-01 01:20:38.672,0.07,-0.305
2021-08-01 01:20:38.676,0.075,-0.315
2021-08-01 01:20:38.680,0.085,-0.29
2021-08-01 01:20:38.684,0.075,-0.3
2021-08-01 01:20:38.688,0.09,-0.305
2021-08-01 01:20:38.692,0.09,-0.295
2021-08-01 01:20:38.696,0.085,-0.305
2021-08-01 01:20:38.700,0.06,-0.3
2021-08-01 01:20:38.704,0.075,-0.3
2021-08-01 01:20:38.708,0.07,-0.295
2021-08-01 01:20:38.712,0.075,-0.305
2021-08-01 01:20:38.716,0.08,-0.29
2021-08-01 01:20:38.720,0.065,-0.285
2021-08-01 01:20:38.724,0.07,-0.28
2021-08-01 01:20:38.728,0.075,-0.28
2021-08-01 01:20:38.732,0.08,-0.295
2021-08-01 01:20:38.736,0.06,-0.265
2021-08-01 01:20:38.740,0.075,-0.265
2021-08-01 01:20:38.744,0.07,-0.275
2021-08-01 01:20:38.748,0.065,-0.265
2021-08-01 01:20:38.752,0.055,-0.275
2021-08-01 01:20:38.756,0.075,-0.255
2021-08-01 01:20:38.760,0.07,-0.25
2021-08-01 01:20:38.764,0.065,-0.25
2021-08-01 01:20:38.768,0.075,-0.25
2021-08-01 01:20:38.772,0.085,-0.25
2021-08-01 01:20:38.776,0.07,-0.23
2021-08-01 01:20:38.780,0.06,-0.215
2021-08-01 01:20:38.784,0.06,-0.205
2021-08-01 01:20:38.788,0.08,-0.225
2021-08-01 01:20:38.792,0.075,-0.205
2021-08-01 01:20:38.796,0.07,-0.19
2021-08-01 01:20:38.800,0.075,-0.175
2021-08-01 01:20:38.804,0.07,-0.185
2021-08-01 01:20:38.808,0.075,-0.18
2021-08-01 01:20:38.812,0.075,-0.18
2021-08-01 01:20:38.816,0.075,-0.175
2021-08-01 01:20:38.820,0.075,-0.165
2021-08-01 01:20:38.824,0.08,-0.16
2021-08-01 01:20:38.828,0.085,-0.15
2021-08-01 01:20:38.832,0.105,-0.135
2021-08-01 01:20:38.836,0.08,-0.125
2021-08-01 01:20:38.840,0.1,-0.14
2021-08-01 01:20:38.844,0.095,-0.12
2021-08-01 01:20:38.848,0.095,-0.105
2021-08-01 01:20:38.852,0.095,-0.105
2021-08-01 01:20:38.856,0.115,-0.1
2021-08-01 01:20:38.860,0.12,-0.11
2021-08-01 01:20:38.864,0.11,-0.11
2021-08-01 01:20:38.868,0.115,-0.12
2021-08-01 01:20:38.872,0.105,-0.12
2021-08-01 01:20:38.876,0.095,-0.115
2021-08-01 01:20:38.880,0.115,-0.155
2021-08-01 01:20:38.884,0.135,-0.15
2021-08-01 01:20:38.888,0.115,-0.14
2021-08-01 01:20:38.892,0.13,-0.16
2021-08-01 01:20:38.896,0.125,-0.155
2021-08-01 01:20:38.900,0.125,-0.165
2021-08-01 01:20:38.904,0.125,-0.17
2021-08-01 01:20:38.908,0.12,-0.17
2021-08-01 01:20:38.912,0.11,-0.17
2021-08-01 01:20:38.916,0.125,-0.165
2021-08-01 01:20:38.920,0.115,-0.17
2021-08-01 01:20:38.924,0.125,-0.18
2021-08-01 01:20:38.928,0.115,-0.17
2021-08-01 01:20:38.932,0.09,-0.185
2021-08-01 01:20:38.936,0.11,-0.185
2021-08-01 01:20:38.940,0.12,-0.19
2021-08-01 01:20:38.944,0.1,-0.17
2021-08-01 01:20:38.948,0.11,-0.185
2021-08-01 01:20:38.952,0.11,-0.17
2021-08-01 01:20:38.956,0.11,-0.16
2021-08-01 01:20:38.960,0.1,-0.155
2021-08-01 01:20:38.964,0.1,-0.16
2021-08-01 01:20:38.968,0.1,-0.15
2021-08-01 01:20:38.972,0.11,-0.155
2021-08-01 01:20:38.976,0.11,-0.16
2021-08-01 01:20:38.980,0.105,-0.175
2021-08-01 01:20:38.984,0.11,-0.175
2021-08-01 01:20:38.988,0.105,-0.18
2021-08-01 01:20:38.992,0.105,-0.16
2021-08-01 01:20:38.996,0.115,-0.155
2021-08-01 01:20:39.000,0.1,-0.17
2021-08-01 01:20:39.004,0.105,-0.15
2021-08-01 01:20:39.008,0.1,-0.155
2021-08-01 01:20:39.012,0.11,-0.155
2021-08-01 01:20:39.016,0.105,-0.165
2021-08-01 01:20:39.020,0.105,-0.18
2021-08-01 01:20:39.024,0.09,-0.17
2021-08-01 01:20:39.028,0.095,-0.18
2021-08-01 01:20:39.032,0.115,-0.18
2021-08-01 01:20:39.036,0.095,-0.185
2021-08-01 01:20:39.040,0.095,-0.195
2021-08-01 01:20:39.044,0.09,-0.18
2021-08-01 01:20:39.048,0.095,-0.17
2021-08-01 01:20:39.052,0.09,-0.19
2021-08-01 01:20:39.056,0.095,-0.2
2021-08-01 01:20:39.060,0.1,-0.195
2021-08-01 01:20:39.064,0.085,-0.19
2021-08-01 01:20:39.068,0.1,-0.185
2021-08-01 01:20:39.072,0.105,-0.19
2021-08-01 01:20:39.076,0.095,-0.195
2021-08-01 01:20:39.080,0.11,-0.185
2021-08-01 01:20:39.084,0.105,-0.16
2021-08-01 01:20:39.088,0.11,-0.13
2021-08-01 01:20:39.092,0.11,-0.115
2021-08-01 01:20:39.096,0.155,-0.1
2021-08-01 01:20:39.100,0.14,-0.11
2021-08-01 01:20:39.104,0.15,-0.1
2021-08-01 01:20:39.108,0.16,-0.08
2021-08-01 01:20:39.112,0.16,-0.065
2021-08-01 01:20:39.116,0.18,-0.045
2021-08-01 01:20:39.120,0.16,-0.04
2021-08-01 01:20:39.124,0.15,-0.06
2021-08-01 01:20:39.128,0.135,-0.1
2021-08-01 01:20:39.132,0.11,-0.12
2021-08-01 01:20:39.136,0.075,-0.2
2021-08-01 01:20:39.140,0.075,-0.21
2021-08-01 01:20:39.144,0.045,-0.195
2021-08-01 01:20:39.148,0.045,-0.2
2021-08-01 01:20:39.152,0.05,-0.205
2021-08-01 01:20:39.156,0.045,-0.205
2021-08-01 01:20:39.160,0.05,-0.2
2021-08-01 01:20:39.164,0.075,-0.22
2021-08-01 01:20:39.168,0.09,-0.245
2021-08-01 01:20:39.172,0.09,-0.27
2021-08-01 01:20:39.176,0.08,-0.28
2021-08-01 01:20:39.180,0.075,-0.285
2021-08-01 01:20:39.184,0.1,-0.285
2021-08-01 01:20:39.188,0.08,-0.315
2021-08-01 01:20:39.192,0.08,-0.315
2021-08-01 01:20:39.196,0.075,-0.32
2021-08-01 01:20:39.200,0.065,-0.305
2021-08-01 01:20:39.204,0.05,-0.295
2021-08-01 01:20:39.208,0.065,-0.315
2021-08-01 01:20:39.212,0.075,-0.32
2021-08-01 01:20:39.216,0.065,-0.315
2021-08-01 01:20:39.220,0.07,-0.3
2021-08-01 01:20:39.224,0.06,-0.3
2021-08-01 01:20:39.228,0.055,-0.32
2021-08-01 01:20:39.232,0.07,-0.33
2021-08-01 01:20:39.236,0.06,-0.33
2021-08-01 01:20:39.240,0.07,-0.315
2021-08-01 01:20:39.244,0.06,-0.35
2021-08-01 01:20:39.248,0.07,-0.335
2021-08-01 01:20:39.252,0.075,-0.245
2021-08-01 01:20:39.256,0.09,-0.08
2021-08-01 01:20:39.260,0.115,0.155
2021-08-01 01:20:39.264,0.155,0.365
2021-08-01 01:20:39.268,0.22,0.525
2021-08-01 01:20:39.272,0.305,0.57
2021-08-01 01:20:39.276,0.375,0.565
2021-08-01 01:20:39.280,0.37,0.37
2021-08-01 01:20:39.284,0.31,-0.105
2021-08-01 01:20:39.288,0.28,-0.535
2021-08-01 01:20:39.292,0.095,-0.73
2021-08-01 01:20:39.296,-0.11,-0.78
2021-08-01 01:20:39.300,-0.25,-0.74
2021-08-01 01:20:39.304,-0.305,-0.66
2021-08-01 01:20:39.308,-0.285,-0.53
2021-08-01 01:20:39.312,-0.255,-0.44
2021-08-01 01:20:39.316,-0.16,-0.36
2021-08-01 01:20:39.320,-0.075,-0.355
2021-08-01 01:20:39.324,-0.02,-0.345
2021-08-01 01:20:39.328,0.02,-0.35
2021-08-01 01:20:39.332,0.04,-0.34
2021-08-01 01:20:39.336,0.055,-0.34
2021-08-01 01:20:39.340,0.04,-0.345
2021-08-01 01:20:39.344,0.055,-0.345
2021-08-01 01:20:39.348,0.035,-0.34
2021-08-01 01:20:39.352,0.04,-0.33
2021-08-01 01:20:39.356,0.05,-0.34
2021-08-01 01:20:39.360,0.06,-0.32
2021-08-01 01:20:39.364,0.05,-0.32
2021-08-01 01:20:39.368,0.05,-0.33
2021-08-01 01:20:39.372,0.07,-0.32
2021-08-01 01:20:39.376,0.09,-0.33
2021-08-01 01:20:39.380,0.05,-0.315
2021-08-01 01:20:39.384,0.05,-0.33
2021-08-01 01:20:39.388,0.045,-0.32
2021-08-01 01:20:39.392,0.045,-0.315
2021-08-01 01:20:39.396,0.05,-0.34
2021-08-01 01:20:39.400,0.065,-0.315
2021-08-01 01:20:39.404,0.06,-0.305
2021-08-01 01:20:39.408,0.045,-0.32
2021-08-01 01:20:39.412,0.065,-0.315
2021-08-01 01:20:39.416,0.065,-0.315
2021-08-01 01:20:39.420,0.05,-0.305
2021-08-01 01:20:39.424,0.055,-0.315
2021-08-01 01:20:39.428,0.045,-0.3
2021-08-01 01:20:39.432,0.045,-0.3
2021-08-01 01:20:39.436,0.06,-0.295
2021-08-01 01:20:39.440,0.06,-0.3
2021-08-01 01:20:39.444,0.075,-0.295
2021-08-01 01:20:39.448,0.05,-0.275
